Frequency(Hz)	Magnitude(dB)
1.000000e+01	-1.491603e-05
1.005776e+01	-1.508884e-05
1.011585e+01	-1.526365e-05
1.017428e+01	-1.544048e-05
1.023305e+01	-1.561936e-05
1.029215e+01	-1.580032e-05
1.035160e+01	-1.598337e-05
1.041139e+01	-1.616854e-05
1.047153e+01	-1.635585e-05
1.053201e+01	-1.654534e-05
1.059284e+01	-1.673702e-05
1.065403e+01	-1.693093e-05
1.071556e+01	-1.712708e-05
1.077746e+01	-1.732550e-05
1.083971e+01	-1.752622e-05
1.090232e+01	-1.772926e-05
1.096529e+01	-1.793466e-05
1.102862e+01	-1.814244e-05
1.109232e+01	-1.835262e-05
1.115639e+01	-1.856524e-05
1.122083e+01	-1.878033e-05
1.128564e+01	-1.899790e-05
1.135083e+01	-1.921800e-05
1.141639e+01	-1.944064e-05
1.148233e+01	-1.966587e-05
1.154865e+01	-1.989370e-05
1.161536e+01	-2.012417e-05
1.168245e+01	-2.035732e-05
1.174992e+01	-2.059316e-05
1.181779e+01	-2.083174e-05
1.188605e+01	-2.107308e-05
1.195470e+01	-2.131722e-05
1.202375e+01	-2.156418e-05
1.209320e+01	-2.181401e-05
1.216305e+01	-2.206673e-05
1.223330e+01	-2.232238e-05
1.230396e+01	-2.258099e-05
1.237503e+01	-2.284260e-05
1.244651e+01	-2.310723e-05
1.251840e+01	-2.337494e-05
1.259070e+01	-2.364574e-05
1.266343e+01	-2.391968e-05
1.273657e+01	-2.419680e-05
1.281014e+01	-2.447712e-05
1.288413e+01	-2.476070e-05
1.295855e+01	-2.504756e-05
1.303339e+01	-2.533774e-05
1.310867e+01	-2.563128e-05
1.318439e+01	-2.592823e-05
1.326054e+01	-2.622861e-05
1.333713e+01	-2.653248e-05
1.341417e+01	-2.683986e-05
1.349165e+01	-2.715081e-05
1.356958e+01	-2.746536e-05
1.364795e+01	-2.778355e-05
1.372678e+01	-2.810543e-05
1.380607e+01	-2.843104e-05
1.388581e+01	-2.876042e-05
1.396602e+01	-2.909361e-05
1.404668e+01	-2.943067e-05
1.412782e+01	-2.977163e-05
1.420942e+01	-3.011654e-05
1.429149e+01	-3.046545e-05
1.437404e+01	-3.081840e-05
1.445706e+01	-3.117544e-05
1.454057e+01	-3.153661e-05
1.462455e+01	-3.190197e-05
1.470902e+01	-3.227156e-05
1.479398e+01	-3.264544e-05
1.487943e+01	-3.302364e-05
1.496537e+01	-3.340623e-05
1.505181e+01	-3.379325e-05
1.513875e+01	-3.418475e-05
1.522619e+01	-3.458079e-05
1.531414e+01	-3.498142e-05
1.540259e+01	-3.538668e-05
1.549156e+01	-3.579665e-05
1.558103e+01	-3.621136e-05
1.567103e+01	-3.663088e-05
1.576155e+01	-3.705525e-05
1.585258e+01	-3.748455e-05
1.594415e+01	-3.791881e-05
1.603624e+01	-3.835811e-05
1.612886e+01	-3.880250e-05
1.622202e+01	-3.925204e-05
1.631572e+01	-3.970678e-05
1.640996e+01	-4.016679e-05
1.650474e+01	-4.063213e-05
1.660008e+01	-4.110287e-05
1.669596e+01	-4.157905e-05
1.679239e+01	-4.206075e-05
1.688938e+01	-4.254804e-05
1.698694e+01	-4.304097e-05
1.708505e+01	-4.353960e-05
1.718373e+01	-4.404402e-05
1.728299e+01	-4.455428e-05
1.738281e+01	-4.507045e-05
1.748322e+01	-4.559260e-05
1.758420e+01	-4.612080e-05
1.768576e+01	-4.665512e-05
1.778792e+01	-4.719563e-05
1.789066e+01	-4.774240e-05
1.799399e+01	-4.829551e-05
1.809793e+01	-4.885502e-05
1.820246e+01	-4.942102e-05
1.830760e+01	-4.999357e-05
1.841334e+01	-5.057276e-05
1.851969e+01	-5.115865e-05
1.862666e+01	-5.175134e-05
1.873425e+01	-5.235089e-05
1.884246e+01	-5.295738e-05
1.895129e+01	-5.357091e-05
1.906075e+01	-5.419154e-05
1.917085e+01	-5.481936e-05
1.928158e+01	-5.545445e-05
1.939295e+01	-5.609690e-05
1.950496e+01	-5.674680e-05
1.961762e+01	-5.740422e-05
1.973093e+01	-5.806926e-05
1.984490e+01	-5.874200e-05
1.995952e+01	-5.942254e-05
2.007480e+01	-6.011096e-05
2.019076e+01	-6.080736e-05
2.030738e+01	-6.151182e-05
2.042467e+01	-6.222445e-05
2.054264e+01	-6.294533e-05
2.066130e+01	-6.367457e-05
2.078064e+01	-6.441225e-05
2.090066e+01	-6.515848e-05
2.102139e+01	-6.591335e-05
2.114280e+01	-6.667697e-05
2.126492e+01	-6.744944e-05
2.138775e+01	-6.823085e-05
2.151128e+01	-6.902132e-05
2.163553e+01	-6.982094e-05
2.176050e+01	-7.062983e-05
2.188619e+01	-7.144809e-05
2.201260e+01	-7.227583e-05
2.213974e+01	-7.311316e-05
2.226762e+01	-7.396019e-05
2.239624e+01	-7.481703e-05
2.252560e+01	-7.568380e-05
2.265571e+01	-7.656061e-05
2.278656e+01	-7.744758e-05
2.291818e+01	-7.834482e-05
2.305055e+01	-7.925246e-05
2.318369e+01	-8.017061e-05
2.331760e+01	-8.109940e-05
2.345228e+01	-8.203895e-05
2.358774e+01	-8.298939e-05
2.372398e+01	-8.395083e-05
2.386101e+01	-8.492342e-05
2.399883e+01	-8.590727e-05
2.413745e+01	-8.690252e-05
2.427686e+01	-8.790930e-05
2.441709e+01	-8.892774e-05
2.455812e+01	-8.995799e-05
2.469997e+01	-9.100016e-05
2.484263e+01	-9.205441e-05
2.498612e+01	-9.312088e-05
2.513044e+01	-9.419970e-05
2.527559e+01	-9.529102e-05
2.542158e+01	-9.639498e-05
2.556842e+01	-9.751173e-05
2.571610e+01	-9.864142e-05
2.586463e+01	-9.978419e-05
2.601403e+01	-1.009402e-04
2.616428e+01	-1.021096e-04
2.631541e+01	-1.032926e-04
2.646740e+01	-1.044892e-04
2.662028e+01	-1.056997e-04
2.677404e+01	-1.069243e-04
2.692868e+01	-1.081630e-04
2.708422e+01	-1.094161e-04
2.724066e+01	-1.106837e-04
2.739800e+01	-1.119660e-04
2.755625e+01	-1.132631e-04
2.771541e+01	-1.145753e-04
2.787550e+01	-1.159027e-04
2.803650e+01	-1.172454e-04
2.819844e+01	-1.186037e-04
2.836131e+01	-1.199778e-04
2.852513e+01	-1.213677e-04
2.868989e+01	-1.227738e-04
2.885560e+01	-1.241961e-04
2.902227e+01	-1.256349e-04
2.918990e+01	-1.270904e-04
2.935850e+01	-1.285628e-04
2.952807e+01	-1.300522e-04
2.969863e+01	-1.315589e-04
2.987016e+01	-1.330830e-04
3.004269e+01	-1.346248e-04
3.021622e+01	-1.361844e-04
3.039075e+01	-1.377621e-04
3.056628e+01	-1.393581e-04
3.074283e+01	-1.409726e-04
3.092040e+01	-1.426058e-04
3.109900e+01	-1.442579e-04
3.127862e+01	-1.459291e-04
3.145929e+01	-1.476197e-04
3.164099e+01	-1.493299e-04
3.182375e+01	-1.510599e-04
3.200756e+01	-1.528099e-04
3.219244e+01	-1.545803e-04
3.237838e+01	-1.563711e-04
3.256540e+01	-1.581827e-04
3.275349e+01	-1.600152e-04
3.294268e+01	-1.618690e-04
3.313295e+01	-1.637443e-04
3.332433e+01	-1.656412e-04
3.351681e+01	-1.675602e-04
3.371040e+01	-1.695014e-04
3.390511e+01	-1.714651e-04
3.410094e+01	-1.734515e-04
3.429791e+01	-1.754610e-04
3.449601e+01	-1.774937e-04
3.469526e+01	-1.795500e-04
3.489566e+01	-1.816300e-04
3.509721e+01	-1.837342e-04
3.529993e+01	-1.858628e-04
3.550382e+01	-1.880160e-04
3.570889e+01	-1.901942e-04
3.591515e+01	-1.923976e-04
3.612259e+01	-1.946265e-04
3.633123e+01	-1.968813e-04
3.654108e+01	-1.991622e-04
3.675214e+01	-2.014694e-04
3.696442e+01	-2.038035e-04
3.717792e+01	-2.061645e-04
3.739266e+01	-2.085530e-04
3.760864e+01	-2.109690e-04
3.782587e+01	-2.134131e-04
3.804435e+01	-2.158855e-04
3.826409e+01	-2.183865e-04
3.848510e+01	-2.209165e-04
3.870739e+01	-2.234759e-04
3.893096e+01	-2.260648e-04
3.915583e+01	-2.286838e-04
3.938199e+01	-2.313331e-04
3.960946e+01	-2.340131e-04
3.983824e+01	-2.367241e-04
4.006834e+01	-2.394665e-04
4.029978e+01	-2.422407e-04
4.053255e+01	-2.450471e-04
4.076666e+01	-2.478859e-04
4.100213e+01	-2.507577e-04
4.123896e+01	-2.536627e-04
4.147715e+01	-2.566014e-04
4.171672e+01	-2.595741e-04
4.195767e+01	-2.625812e-04
4.220002e+01	-2.656232e-04
4.244377e+01	-2.687004e-04
4.268892e+01	-2.718133e-04
4.293549e+01	-2.749622e-04
4.318348e+01	-2.781476e-04
4.343291e+01	-2.813700e-04
4.368377e+01	-2.846296e-04
4.393609e+01	-2.879270e-04
4.418986e+01	-2.912626e-04
4.444510e+01	-2.946368e-04
4.470182e+01	-2.980502e-04
4.496001e+01	-3.015031e-04
4.521970e+01	-3.049959e-04
4.548089e+01	-3.085293e-04
4.574358e+01	-3.121035e-04
4.600779e+01	-3.157192e-04
4.627353e+01	-3.193768e-04
4.654081e+01	-3.230767e-04
4.680963e+01	-3.268195e-04
4.708000e+01	-3.306056e-04
4.735193e+01	-3.344357e-04
4.762543e+01	-3.383100e-04
4.790051e+01	-3.422293e-04
4.817719e+01	-3.461940e-04
4.845545e+01	-3.502045e-04
4.873533e+01	-3.542616e-04
4.901682e+01	-3.583656e-04
4.929994e+01	-3.625172e-04
4.958470e+01	-3.667169e-04
4.987110e+01	-3.709653e-04
5.015915e+01	-3.752628e-04
5.044887e+01	-3.796101e-04
5.074026e+01	-3.840078e-04
5.103333e+01	-3.884565e-04
5.132810e+01	-3.929566e-04
5.162457e+01	-3.975090e-04
5.192275e+01	-4.021140e-04
5.222265e+01	-4.067724e-04
5.252429e+01	-4.114847e-04
5.282767e+01	-4.162517e-04
5.313280e+01	-4.210738e-04
5.343969e+01	-4.259518e-04
5.374836e+01	-4.308864e-04
5.405880e+01	-4.358780e-04
5.437105e+01	-4.409276e-04
5.468509e+01	-4.460356e-04
5.500095e+01	-4.512027e-04
5.531863e+01	-4.564298e-04
5.563815e+01	-4.617174e-04
5.595951e+01	-4.670662e-04
5.628273e+01	-4.724770e-04
5.660782e+01	-4.779505e-04
5.693479e+01	-4.834873e-04
5.726364e+01	-4.890884e-04
5.759439e+01	-4.947543e-04
5.792705e+01	-5.004858e-04
5.826164e+01	-5.062837e-04
5.859815e+01	-5.121488e-04
5.893662e+01	-5.180818e-04
5.927703e+01	-5.240836e-04
5.961941e+01	-5.301549e-04
5.996377e+01	-5.362965e-04
6.031012e+01	-5.425093e-04
6.065847e+01	-5.487940e-04
6.100883e+01	-5.551515e-04
6.136121e+01	-5.615827e-04
6.171563e+01	-5.680883e-04
6.207210e+01	-5.746694e-04
6.243063e+01	-5.813266e-04
6.279122e+01	-5.880610e-04
6.315390e+01	-5.948734e-04
6.351868e+01	-6.017647e-04
6.388556e+01	-6.087358e-04
6.425456e+01	-6.157877e-04
6.462569e+01	-6.229212e-04
6.499897e+01	-6.301374e-04
6.537440e+01	-6.374372e-04
6.575200e+01	-6.448215e-04
6.613178e+01	-6.522914e-04
6.651375e+01	-6.598478e-04
6.689793e+01	-6.674917e-04
6.728433e+01	-6.752242e-04
6.767297e+01	-6.830462e-04
6.806384e+01	-6.909589e-04
6.845698e+01	-6.989632e-04
6.885238e+01	-7.070602e-04
6.925007e+01	-7.152510e-04
6.965005e+01	-7.235367e-04
7.005235e+01	-7.319184e-04
7.045697e+01	-7.403971e-04
7.086393e+01	-7.489741e-04
7.127323e+01	-7.576504e-04
7.168490e+01	-7.664272e-04
7.209895e+01	-7.753057e-04
7.251539e+01	-7.842870e-04
7.293424e+01	-7.933724e-04
7.335551e+01	-8.025630e-04
7.377920e+01	-8.118600e-04
7.420535e+01	-8.212647e-04
7.463396e+01	-8.307784e-04
7.506504e+01	-8.404023e-04
7.549861e+01	-8.501376e-04
7.593469e+01	-8.599857e-04
7.637328e+01	-8.699479e-04
7.681441e+01	-8.800254e-04
7.725809e+01	-8.902197e-04
7.770433e+01	-9.005321e-04
7.815315e+01	-9.109639e-04
7.860456e+01	-9.215166e-04
7.905857e+01	-9.321914e-04
7.951521e+01	-9.429900e-04
7.997449e+01	-9.539136e-04
8.043642e+01	-9.649637e-04
8.090102e+01	-9.761418e-04
8.136830e+01	-9.874494e-04
8.183828e+01	-9.988879e-04
8.231097e+01	-1.010459e-03
8.278640e+01	-1.022164e-03
8.326457e+01	-1.034005e-03
8.374550e+01	-1.045982e-03
8.422921e+01	-1.058099e-03
8.471572e+01	-1.070356e-03
8.520503e+01	-1.082755e-03
8.569717e+01	-1.095297e-03
8.619215e+01	-1.107985e-03
8.669000e+01	-1.120819e-03
8.719071e+01	-1.133803e-03
8.769432e+01	-1.146936e-03
8.820084e+01	-1.160222e-03
8.871029e+01	-1.173662e-03
8.922267e+01	-1.187257e-03
8.973802e+01	-1.201010e-03
9.025634e+01	-1.214922e-03
9.077766e+01	-1.228995e-03
9.130199e+01	-1.243231e-03
9.182935e+01	-1.257633e-03
9.235975e+01	-1.272200e-03
9.289321e+01	-1.286937e-03
9.342976e+01	-1.301844e-03
9.396941e+01	-1.316924e-03
9.451217e+01	-1.332179e-03
9.505807e+01	-1.347610e-03
9.560712e+01	-1.363220e-03
9.615934e+01	-1.379011e-03
9.671476e+01	-1.394984e-03
9.727338e+01	-1.411143e-03
9.783522e+01	-1.427489e-03
9.840032e+01	-1.444024e-03
9.896867e+01	-1.460751e-03
9.954031e+01	-1.477671e-03
1.001153e+02	-1.494787e-03
1.006935e+02	-1.512102e-03
1.012751e+02	-1.529617e-03
1.018601e+02	-1.547335e-03
1.024484e+02	-1.565258e-03
1.030402e+02	-1.583388e-03
1.036353e+02	-1.601729e-03
1.042339e+02	-1.620282e-03
1.048360e+02	-1.639050e-03
1.054415e+02	-1.658035e-03
1.060505e+02	-1.677240e-03
1.066631e+02	-1.696667e-03
1.072791e+02	-1.716320e-03
1.078988e+02	-1.736200e-03
1.085220e+02	-1.756310e-03
1.091488e+02	-1.776653e-03
1.097793e+02	-1.797232e-03
1.104133e+02	-1.818049e-03
1.110511e+02	-1.839107e-03
1.116925e+02	-1.860409e-03
1.123376e+02	-1.881958e-03
1.129865e+02	-1.903756e-03
1.136391e+02	-1.925807e-03
1.142955e+02	-1.948113e-03
1.149556e+02	-1.970677e-03
1.156196e+02	-1.993503e-03
1.162874e+02	-2.016592e-03
1.169591e+02	-2.039950e-03
1.176347e+02	-2.063577e-03
1.183141e+02	-2.087479e-03
1.189975e+02	-2.111657e-03
1.196848e+02	-2.136115e-03
1.203761e+02	-2.160856e-03
1.210714e+02	-2.185884e-03
1.217707e+02	-2.211202e-03
1.224740e+02	-2.236812e-03
1.231814e+02	-2.262720e-03
1.238929e+02	-2.288927e-03
1.246085e+02	-2.315438e-03
1.253283e+02	-2.342256e-03
1.260522e+02	-2.369384e-03
1.267802e+02	-2.396826e-03
1.275125e+02	-2.424586e-03
1.282490e+02	-2.452668e-03
1.289898e+02	-2.481074e-03
1.297348e+02	-2.509810e-03
1.304842e+02	-2.538878e-03
1.312378e+02	-2.568283e-03
1.319959e+02	-2.598029e-03
1.327583e+02	-2.628118e-03
1.335251e+02	-2.658556e-03
1.342963e+02	-2.689347e-03
1.350720e+02	-2.720494e-03
1.358522e+02	-2.752002e-03
1.366368e+02	-2.783874e-03
1.374260e+02	-2.816115e-03
1.382198e+02	-2.848730e-03
1.390182e+02	-2.881723e-03
1.398211e+02	-2.915097e-03
1.406287e+02	-2.948857e-03
1.414410e+02	-2.983009e-03
1.422579e+02	-3.017556e-03
1.430796e+02	-3.052503e-03
1.439060e+02	-3.087854e-03
1.447372e+02	-3.123615e-03
1.455732e+02	-3.159790e-03
1.464141e+02	-3.196383e-03
1.472597e+02	-3.233400e-03
1.481103e+02	-3.270846e-03
1.489658e+02	-3.308725e-03
1.498262e+02	-3.347043e-03
1.506916e+02	-3.385804e-03
1.515620e+02	-3.425014e-03
1.524374e+02	-3.464678e-03
1.533179e+02	-3.504801e-03
1.542034e+02	-3.545388e-03
1.550941e+02	-3.586445e-03
1.559899e+02	-3.627978e-03
1.568909e+02	-3.669991e-03
1.577971e+02	-3.712491e-03
1.587085e+02	-3.755482e-03
1.596252e+02	-3.798972e-03
1.605472e+02	-3.842964e-03
1.614745e+02	-3.887466e-03
1.624072e+02	-3.932483e-03
1.633453e+02	-3.978021e-03
1.642887e+02	-4.024086e-03
1.652377e+02	-4.070684e-03
1.661921e+02	-4.117821e-03
1.671520e+02	-4.165505e-03
1.681175e+02	-4.213740e-03
1.690885e+02	-4.262533e-03
1.700651e+02	-4.311891e-03
1.710474e+02	-4.361820e-03
1.720354e+02	-4.412327e-03
1.730291e+02	-4.463419e-03
1.740285e+02	-4.515102e-03
1.750337e+02	-4.567383e-03
1.760446e+02	-4.620269e-03
1.770615e+02	-4.673767e-03
1.780842e+02	-4.727884e-03
1.791128e+02	-4.782628e-03
1.801473e+02	-4.838005e-03
1.811878e+02	-4.894023e-03
1.822344e+02	-4.950689e-03
1.832870e+02	-5.008011e-03
1.843456e+02	-5.065996e-03
1.854104e+02	-5.124652e-03
1.864813e+02	-5.183987e-03
1.875584e+02	-5.244008e-03
1.886418e+02	-5.304724e-03
1.897313e+02	-5.366143e-03
1.908272e+02	-5.428272e-03
1.919294e+02	-5.491120e-03
1.930380e+02	-5.554695e-03
1.941530e+02	-5.619006e-03
1.952744e+02	-5.684061e-03
1.964023e+02	-5.749869e-03
1.975367e+02	-5.816438e-03
1.986777e+02	-5.883777e-03
1.998252e+02	-5.951895e-03
2.009794e+02	-6.020801e-03
2.021403e+02	-6.090505e-03
2.033078e+02	-6.161015e-03
2.044821e+02	-6.232340e-03
2.056632e+02	-6.304491e-03
2.068511e+02	-6.377477e-03
2.080459e+02	-6.451306e-03
2.092475e+02	-6.525990e-03
2.104561e+02	-6.601538e-03
2.116717e+02	-6.677959e-03
2.128943e+02	-6.755265e-03
2.141240e+02	-6.833464e-03
2.153608e+02	-6.912569e-03
2.166047e+02	-6.992588e-03
2.178558e+02	-7.073533e-03
2.191141e+02	-7.155414e-03
2.203797e+02	-7.238242e-03
2.216526e+02	-7.322028e-03
2.229329e+02	-7.406783e-03
2.242205e+02	-7.492518e-03
2.255156e+02	-7.579245e-03
2.268182e+02	-7.666974e-03
2.281283e+02	-7.755719e-03
2.294459e+02	-7.845489e-03
2.307712e+02	-7.936298e-03
2.321041e+02	-8.028157e-03
2.334447e+02	-8.121078e-03
2.347931e+02	-8.215073e-03
2.361493e+02	-8.310155e-03
2.375133e+02	-8.406337e-03
2.388851e+02	-8.503631e-03
2.402649e+02	-8.602050e-03
2.416527e+02	-8.701607e-03
2.430484e+02	-8.802315e-03
2.444523e+02	-8.904187e-03
2.458642e+02	-9.007237e-03
2.472843e+02	-9.111478e-03
2.487126e+02	-9.216925e-03
2.501492e+02	-9.323590e-03
2.515940e+02	-9.431488e-03
2.530472e+02	-9.540634e-03
2.545088e+02	-9.651042e-03
2.559789e+02	-9.762725e-03
2.574574e+02	-9.875700e-03
2.589444e+02	-9.989980e-03
2.604401e+02	-1.010558e-02
2.619444e+02	-1.022252e-02
2.634574e+02	-1.034081e-02
2.649791e+02	-1.046046e-02
2.665096e+02	-1.058150e-02
2.680489e+02	-1.070394e-02
2.695972e+02	-1.082779e-02
2.711544e+02	-1.095308e-02
2.727205e+02	-1.107981e-02
2.742958e+02	-1.120801e-02
2.758801e+02	-1.133768e-02
2.774736e+02	-1.146886e-02
2.790762e+02	-1.160155e-02
2.806882e+02	-1.173578e-02
2.823094e+02	-1.187155e-02
2.839400e+02	-1.200890e-02
2.855800e+02	-1.214783e-02
2.872295e+02	-1.228836e-02
2.888886e+02	-1.243052e-02
2.905572e+02	-1.257432e-02
2.922354e+02	-1.271979e-02
2.939234e+02	-1.286693e-02
2.956211e+02	-1.301577e-02
2.973286e+02	-1.316633e-02
2.990459e+02	-1.331863e-02
3.007732e+02	-1.347269e-02
3.025104e+02	-1.362853e-02
3.042577e+02	-1.378617e-02
3.060151e+02	-1.394563e-02
3.077826e+02	-1.410693e-02
3.095604e+02	-1.427009e-02
3.113484e+02	-1.443514e-02
3.131467e+02	-1.460209e-02
3.149554e+02	-1.477097e-02
3.167746e+02	-1.494180e-02
3.186043e+02	-1.511460e-02
3.204445e+02	-1.528940e-02
3.222954e+02	-1.546622e-02
3.241570e+02	-1.564507e-02
3.260293e+02	-1.582599e-02
3.279124e+02	-1.600900e-02
3.298064e+02	-1.619412e-02
3.317114e+02	-1.638138e-02
3.336273e+02	-1.657080e-02
3.355544e+02	-1.676241e-02
3.374925e+02	-1.695622e-02
3.394418e+02	-1.715227e-02
3.414024e+02	-1.735059e-02
3.433744e+02	-1.755119e-02
3.453577e+02	-1.775411e-02
3.473525e+02	-1.795937e-02
3.493588e+02	-1.816700e-02
3.513766e+02	-1.837702e-02
3.534062e+02	-1.858946e-02
3.554474e+02	-1.880436e-02
3.575005e+02	-1.902174e-02
3.595654e+02	-1.924162e-02
3.616422e+02	-1.946403e-02
3.637311e+02	-1.968902e-02
3.658320e+02	-1.991659e-02
3.679450e+02	-2.014680e-02
3.700702e+02	-2.037965e-02
3.722077e+02	-2.061519e-02
3.743576e+02	-2.085345e-02
3.765199e+02	-2.109445e-02
3.786946e+02	-2.133824e-02
3.808820e+02	-2.158483e-02
3.830819e+02	-2.183426e-02
3.852946e+02	-2.208657e-02
3.875200e+02	-2.234179e-02
3.897583e+02	-2.259995e-02
3.920096e+02	-2.286109e-02
3.942738e+02	-2.312523e-02
3.965511e+02	-2.339242e-02
3.988416e+02	-2.366268e-02
4.011452e+02	-2.393606e-02
4.034622e+02	-2.421259e-02
4.057926e+02	-2.449231e-02
4.081365e+02	-2.477525e-02
4.104938e+02	-2.506144e-02
4.128648e+02	-2.535094e-02
4.152495e+02	-2.564376e-02
4.176480e+02	-2.593996e-02
4.200603e+02	-2.623957e-02
4.224866e+02	-2.654263e-02
4.249268e+02	-2.684918e-02
4.273812e+02	-2.715926e-02
4.298497e+02	-2.747291e-02
4.323325e+02	-2.779017e-02
4.348297e+02	-2.811108e-02
4.373412e+02	-2.843568e-02
4.398673e+02	-2.876402e-02
4.424079e+02	-2.909614e-02
4.449633e+02	-2.943208e-02
4.475334e+02	-2.977189e-02
4.501183e+02	-3.011560e-02
4.527182e+02	-3.046327e-02
4.553330e+02	-3.081494e-02
4.579630e+02	-3.117066e-02
4.606082e+02	-3.153046e-02
4.632687e+02	-3.189441e-02
4.659445e+02	-3.226253e-02
4.686358e+02	-3.263489e-02
4.713426e+02	-3.301154e-02
4.740650e+02	-3.339251e-02
4.768032e+02	-3.377786e-02
4.795572e+02	-3.416764e-02
4.823271e+02	-3.456190e-02
4.851130e+02	-3.496070e-02
4.879150e+02	-3.536407e-02
4.907332e+02	-3.577208e-02
4.935676e+02	-3.618478e-02
4.964185e+02	-3.660222e-02
4.992858e+02	-3.702445e-02
5.021696e+02	-3.745153e-02
5.050701e+02	-3.788352e-02
5.079874e+02	-3.832047e-02
5.109215e+02	-3.876244e-02
5.138726e+02	-3.920948e-02
5.168407e+02	-3.966165e-02
5.198259e+02	-4.011901e-02
5.228284e+02	-4.058162e-02
5.258482e+02	-4.104954e-02
5.288855e+02	-4.152284e-02
5.319403e+02	-4.200156e-02
5.350128e+02	-4.248577e-02
5.381030e+02	-4.297554e-02
5.412111e+02	-4.347092e-02
5.443371e+02	-4.397199e-02
5.474812e+02	-4.447880e-02
5.506434e+02	-4.499142e-02
5.538239e+02	-4.550992e-02
5.570228e+02	-4.603437e-02
5.602401e+02	-4.656482e-02
5.634760e+02	-4.710136e-02
5.667306e+02	-4.764404e-02
5.700040e+02	-4.819294e-02
5.732964e+02	-4.874813e-02
5.766077e+02	-4.930967e-02
5.799382e+02	-4.987765e-02
5.832879e+02	-5.045213e-02
5.866569e+02	-5.103319e-02
5.900454e+02	-5.162091e-02
5.934535e+02	-5.221535e-02
5.968813e+02	-5.281659e-02
6.003288e+02	-5.342471e-02
6.037963e+02	-5.403980e-02
6.072838e+02	-5.466192e-02
6.107914e+02	-5.529115e-02
6.143194e+02	-5.592758e-02
6.178676e+02	-5.657129e-02
6.214364e+02	-5.722236e-02
6.250258e+02	-5.788087e-02
6.286359e+02	-5.854691e-02
6.322669e+02	-5.922056e-02
6.359189e+02	-5.990191e-02
6.395919e+02	-6.059104e-02
6.432862e+02	-6.128805e-02
6.470017e+02	-6.199301e-02
6.507388e+02	-6.270603e-02
6.544974e+02	-6.342718e-02
6.582778e+02	-6.415657e-02
6.620800e+02	-6.489428e-02
6.659041e+02	-6.564041e-02
6.697504e+02	-6.639506e-02
6.736188e+02	-6.715831e-02
6.775096e+02	-6.793027e-02
6.814229e+02	-6.871103e-02
6.853587e+02	-6.950069e-02
6.893173e+02	-7.029935e-02
6.932988e+02	-7.110712e-02
6.973033e+02	-7.192409e-02
7.013309e+02	-7.275037e-02
