Frequency(Hz)	Magnitude(dB)
1.000000e+01	-1.526423e-05
1.005776e+01	-1.544107e-05
1.011585e+01	-1.561996e-05
1.017428e+01	-1.580092e-05
1.023305e+01	-1.598397e-05
1.029215e+01	-1.616915e-05
1.035160e+01	-1.635648e-05
1.041139e+01	-1.654597e-05
1.047153e+01	-1.673766e-05
1.053201e+01	-1.693157e-05
1.059284e+01	-1.712773e-05
1.065403e+01	-1.732616e-05
1.071556e+01	-1.752688e-05
1.077746e+01	-1.772994e-05
1.083971e+01	-1.793534e-05
1.090232e+01	-1.814313e-05
1.096529e+01	-1.835332e-05
1.102862e+01	-1.856595e-05
1.109232e+01	-1.878104e-05
1.115639e+01	-1.899862e-05
1.122083e+01	-1.921873e-05
1.128564e+01	-1.944138e-05
1.135083e+01	-1.966661e-05
1.141639e+01	-1.989446e-05
1.148233e+01	-2.012494e-05
1.154865e+01	-2.035809e-05
1.161536e+01	-2.059395e-05
1.168245e+01	-2.083253e-05
1.174992e+01	-2.107388e-05
1.181779e+01	-2.131803e-05
1.188605e+01	-2.156500e-05
1.195470e+01	-2.181484e-05
1.202375e+01	-2.206757e-05
1.209320e+01	-2.232323e-05
1.216305e+01	-2.258185e-05
1.223330e+01	-2.284346e-05
1.230396e+01	-2.310811e-05
1.237503e+01	-2.337582e-05
1.244651e+01	-2.364664e-05
1.251840e+01	-2.392059e-05
1.259070e+01	-2.419772e-05
1.266343e+01	-2.447805e-05
1.273657e+01	-2.476164e-05
1.281014e+01	-2.504851e-05
1.288413e+01	-2.533870e-05
1.295855e+01	-2.563226e-05
1.303339e+01	-2.592921e-05
1.310867e+01	-2.622961e-05
1.318439e+01	-2.653348e-05
1.326054e+01	-2.684088e-05
1.333713e+01	-2.715184e-05
1.341417e+01	-2.746640e-05
1.349165e+01	-2.778461e-05
1.356958e+01	-2.810650e-05
1.364795e+01	-2.843212e-05
1.372678e+01	-2.876151e-05
1.380607e+01	-2.909472e-05
1.388581e+01	-2.943179e-05
1.396602e+01	-2.977276e-05
1.404668e+01	-3.011769e-05
1.412782e+01	-3.046661e-05
1.420942e+01	-3.081957e-05
1.429149e+01	-3.117662e-05
1.437404e+01	-3.153781e-05
1.445706e+01	-3.190318e-05
1.454057e+01	-3.227279e-05
1.462455e+01	-3.264668e-05
1.470902e+01	-3.302490e-05
1.479398e+01	-3.340750e-05
1.487943e+01	-3.379453e-05
1.496537e+01	-3.418605e-05
1.505181e+01	-3.458210e-05
1.513875e+01	-3.498275e-05
1.522619e+01	-3.538803e-05
1.531414e+01	-3.579801e-05
1.540259e+01	-3.621274e-05
1.549156e+01	-3.663227e-05
1.558103e+01	-3.705666e-05
1.567103e+01	-3.748597e-05
1.576155e+01	-3.792026e-05
1.585258e+01	-3.835957e-05
1.594415e+01	-3.880397e-05
1.603624e+01	-3.925353e-05
1.612886e+01	-3.970829e-05
1.622202e+01	-4.016832e-05
1.631572e+01	-4.063368e-05
1.640996e+01	-4.110443e-05
1.650474e+01	-4.158063e-05
1.660008e+01	-4.206235e-05
1.669596e+01	-4.254965e-05
1.679239e+01	-4.304260e-05
1.688938e+01	-4.354126e-05
1.698694e+01	-4.404569e-05
1.708505e+01	-4.455597e-05
1.718373e+01	-4.507216e-05
1.728299e+01	-4.559434e-05
1.738281e+01	-4.612256e-05
1.748322e+01	-4.665690e-05
1.758420e+01	-4.719743e-05
1.768576e+01	-4.774422e-05
1.778792e+01	-4.829735e-05
1.789066e+01	-4.885688e-05
1.799399e+01	-4.942290e-05
1.809793e+01	-4.999547e-05
1.820246e+01	-5.057468e-05
1.830760e+01	-5.116060e-05
1.841334e+01	-5.175331e-05
1.851969e+01	-5.235288e-05
1.862666e+01	-5.295940e-05
1.873425e+01	-5.357294e-05
1.884246e+01	-5.419360e-05
1.895129e+01	-5.482144e-05
1.906075e+01	-5.545656e-05
1.917085e+01	-5.609903e-05
1.928158e+01	-5.674895e-05
1.939295e+01	-5.740640e-05
1.950496e+01	-5.807147e-05
1.961762e+01	-5.874424e-05
1.973093e+01	-5.942480e-05
1.984490e+01	-6.011325e-05
1.995952e+01	-6.080967e-05
2.007480e+01	-6.151416e-05
2.019076e+01	-6.222682e-05
2.030738e+01	-6.294773e-05
2.042467e+01	-6.367699e-05
2.054264e+01	-6.441470e-05
2.066130e+01	-6.516096e-05
2.078064e+01	-6.591586e-05
2.090066e+01	-6.667951e-05
2.102139e+01	-6.745200e-05
2.114280e+01	-6.823344e-05
2.126492e+01	-6.902394e-05
2.138775e+01	-6.982360e-05
2.151128e+01	-7.063252e-05
2.163553e+01	-7.145081e-05
2.176050e+01	-7.227858e-05
2.188619e+01	-7.311594e-05
2.201260e+01	-7.396300e-05
2.213974e+01	-7.481987e-05
2.226762e+01	-7.568668e-05
2.239624e+01	-7.656352e-05
2.252560e+01	-7.745052e-05
2.265571e+01	-7.834780e-05
2.278656e+01	-7.925547e-05
2.291818e+01	-8.017366e-05
2.305055e+01	-8.110249e-05
2.318369e+01	-8.204207e-05
2.331760e+01	-8.299254e-05
2.345228e+01	-8.395403e-05
2.358774e+01	-8.492665e-05
2.372398e+01	-8.591054e-05
2.386101e+01	-8.690582e-05
2.399883e+01	-8.791264e-05
2.413745e+01	-8.893112e-05
2.427686e+01	-8.996140e-05
2.441709e+01	-9.100362e-05
2.455812e+01	-9.205791e-05
2.469997e+01	-9.312442e-05
2.484263e+01	-9.420328e-05
2.498612e+01	-9.529464e-05
2.513044e+01	-9.639864e-05
2.527559e+01	-9.751543e-05
2.542158e+01	-9.864516e-05
2.556842e+01	-9.978798e-05
2.571610e+01	-1.009440e-04
2.586463e+01	-1.021135e-04
2.601403e+01	-1.032965e-04
2.616428e+01	-1.044932e-04
2.631541e+01	-1.057038e-04
2.646740e+01	-1.069284e-04
2.662028e+01	-1.081671e-04
2.677404e+01	-1.094203e-04
2.692868e+01	-1.106879e-04
2.708422e+01	-1.119702e-04
2.724066e+01	-1.132674e-04
2.739800e+01	-1.145797e-04
2.755625e+01	-1.159071e-04
2.771541e+01	-1.172499e-04
2.787550e+01	-1.186082e-04
2.803650e+01	-1.199823e-04
2.819844e+01	-1.213723e-04
2.836131e+01	-1.227784e-04
2.852513e+01	-1.242008e-04
2.868989e+01	-1.256397e-04
2.885560e+01	-1.270953e-04
2.902227e+01	-1.285677e-04
2.918990e+01	-1.300572e-04
2.935850e+01	-1.315639e-04
2.952807e+01	-1.330881e-04
2.969863e+01	-1.346299e-04
2.987016e+01	-1.361896e-04
3.004269e+01	-1.377674e-04
3.021622e+01	-1.393634e-04
3.039075e+01	-1.409780e-04
3.056628e+01	-1.426112e-04
3.074283e+01	-1.442634e-04
3.092040e+01	-1.459347e-04
3.109900e+01	-1.476253e-04
3.127862e+01	-1.493356e-04
3.145929e+01	-1.510656e-04
3.164099e+01	-1.528158e-04
3.182375e+01	-1.545861e-04
3.200756e+01	-1.563770e-04
3.219244e+01	-1.581887e-04
3.237838e+01	-1.600213e-04
3.256540e+01	-1.618751e-04
3.275349e+01	-1.637505e-04
3.294268e+01	-1.656475e-04
3.313295e+01	-1.675666e-04
3.332433e+01	-1.695078e-04
3.351681e+01	-1.714716e-04
3.371040e+01	-1.734581e-04
3.390511e+01	-1.754676e-04
3.410094e+01	-1.775004e-04
3.429791e+01	-1.795568e-04
3.449601e+01	-1.816369e-04
3.469526e+01	-1.837412e-04
3.489566e+01	-1.858699e-04
3.509721e+01	-1.880232e-04
3.529993e+01	-1.902014e-04
3.550382e+01	-1.924049e-04
3.570889e+01	-1.946339e-04
3.591515e+01	-1.968888e-04
3.612259e+01	-1.991697e-04
3.633123e+01	-2.014771e-04
3.654108e+01	-2.038112e-04
3.675214e+01	-2.061724e-04
3.696442e+01	-2.085609e-04
3.717792e+01	-2.109771e-04
3.739266e+01	-2.134212e-04
3.760864e+01	-2.158937e-04
3.782587e+01	-2.183948e-04
3.804435e+01	-2.209249e-04
3.826409e+01	-2.234843e-04
3.848510e+01	-2.260734e-04
3.870739e+01	-2.286925e-04
3.893096e+01	-2.313419e-04
3.915583e+01	-2.340219e-04
3.938199e+01	-2.367331e-04
3.960946e+01	-2.394756e-04
3.983824e+01	-2.422499e-04
4.006834e+01	-2.450564e-04
4.029978e+01	-2.478954e-04
4.053255e+01	-2.507672e-04
4.076666e+01	-2.536723e-04
4.100213e+01	-2.566111e-04
4.123896e+01	-2.595839e-04
4.147715e+01	-2.625912e-04
4.171672e+01	-2.656333e-04
4.195767e+01	-2.687106e-04
4.220002e+01	-2.718236e-04
4.244377e+01	-2.749727e-04
4.268892e+01	-2.781582e-04
4.293549e+01	-2.813806e-04
4.318348e+01	-2.846404e-04
4.343291e+01	-2.879379e-04
4.368377e+01	-2.912737e-04
4.393609e+01	-2.946480e-04
4.418986e+01	-2.980615e-04
4.444510e+01	-3.015145e-04
4.470182e+01	-3.050075e-04
4.496001e+01	-3.085410e-04
4.521970e+01	-3.121154e-04
4.548089e+01	-3.157312e-04
4.574358e+01	-3.193889e-04
4.600779e+01	-3.230890e-04
4.627353e+01	-3.268319e-04
4.654081e+01	-3.306182e-04
4.680963e+01	-3.344484e-04
4.708000e+01	-3.383229e-04
4.735193e+01	-3.422423e-04
4.762543e+01	-3.462071e-04
4.790051e+01	-3.502179e-04
4.817719e+01	-3.542751e-04
4.845545e+01	-3.583793e-04
4.873533e+01	-3.625310e-04
4.901682e+01	-3.667309e-04
4.929994e+01	-3.709794e-04
4.958470e+01	-3.752771e-04
4.987110e+01	-3.796246e-04
5.015915e+01	-3.840224e-04
5.044887e+01	-3.884712e-04
5.074026e+01	-3.929716e-04
5.103333e+01	-3.975241e-04
5.132810e+01	-4.021293e-04
5.162457e+01	-4.067878e-04
5.192275e+01	-4.115004e-04
5.222265e+01	-4.162675e-04
5.252429e+01	-4.210898e-04
5.282767e+01	-4.259680e-04
5.313280e+01	-4.309027e-04
5.343969e+01	-4.358946e-04
5.374836e+01	-4.409443e-04
5.405880e+01	-4.460525e-04
5.437105e+01	-4.512199e-04
5.468509e+01	-4.564471e-04
5.500095e+01	-4.617349e-04
5.531863e+01	-4.670839e-04
5.563815e+01	-4.724949e-04
5.595951e+01	-4.779686e-04
5.628273e+01	-4.835057e-04
5.660782e+01	-4.891069e-04
5.693479e+01	-4.947731e-04
5.726364e+01	-5.005048e-04
5.759439e+01	-5.063030e-04
5.792705e+01	-5.121683e-04
5.826164e+01	-5.181015e-04
5.859815e+01	-5.241035e-04
5.893662e+01	-5.301750e-04
5.927703e+01	-5.363169e-04
5.961941e+01	-5.425299e-04
5.996377e+01	-5.488148e-04
6.031012e+01	-5.551726e-04
6.065847e+01	-5.616040e-04
6.100883e+01	-5.681099e-04
6.136121e+01	-5.746912e-04
6.171563e+01	-5.813487e-04
6.207210e+01	-5.880833e-04
6.243063e+01	-5.948960e-04
6.279122e+01	-6.017875e-04
6.315390e+01	-6.087589e-04
6.351868e+01	-6.158111e-04
6.388556e+01	-6.229449e-04
6.425456e+01	-6.301613e-04
6.462569e+01	-6.374614e-04
6.499897e+01	-6.448460e-04
6.537440e+01	-6.523162e-04
6.575200e+01	-6.598729e-04
6.613178e+01	-6.675171e-04
6.651375e+01	-6.752499e-04
6.689793e+01	-6.830722e-04
6.728433e+01	-6.909851e-04
6.767297e+01	-6.989897e-04
6.806384e+01	-7.070871e-04
6.845698e+01	-7.152782e-04
6.885238e+01	-7.235642e-04
6.925007e+01	-7.319462e-04
6.965005e+01	-7.404253e-04
7.005235e+01	-7.490026e-04
7.045697e+01	-7.576792e-04
7.086393e+01	-7.664563e-04
7.127323e+01	-7.753352e-04
7.168490e+01	-7.843168e-04
7.209895e+01	-7.934025e-04
7.251539e+01	-8.025934e-04
7.293424e+01	-8.118908e-04
7.335551e+01	-8.212959e-04
7.377920e+01	-8.308100e-04
7.420535e+01	-8.404342e-04
7.463396e+01	-8.501699e-04
7.506504e+01	-8.600184e-04
7.549861e+01	-8.699809e-04
7.593469e+01	-8.800589e-04
7.637328e+01	-8.902535e-04
7.681441e+01	-9.005663e-04
7.725809e+01	-9.109985e-04
7.770433e+01	-9.215516e-04
7.815315e+01	-9.322268e-04
7.860456e+01	-9.430258e-04
7.905857e+01	-9.539498e-04
7.951521e+01	-9.650003e-04
7.997449e+01	-9.761789e-04
8.043642e+01	-9.874869e-04
8.090102e+01	-9.989259e-04
8.136830e+01	-1.010497e-03
8.183828e+01	-1.022203e-03
8.231097e+01	-1.034044e-03
8.278640e+01	-1.046022e-03
8.326457e+01	-1.058139e-03
8.374550e+01	-1.070396e-03
8.422921e+01	-1.082796e-03
8.471572e+01	-1.095339e-03
8.520503e+01	-1.108027e-03
8.569717e+01	-1.120862e-03
8.619215e+01	-1.133846e-03
8.669000e+01	-1.146980e-03
8.719071e+01	-1.160266e-03
8.769432e+01	-1.173706e-03
8.820084e+01	-1.187302e-03
8.871029e+01	-1.201056e-03
8.922267e+01	-1.214968e-03
8.973802e+01	-1.229042e-03
9.025634e+01	-1.243279e-03
9.077766e+01	-1.257680e-03
9.130199e+01	-1.272249e-03
9.182935e+01	-1.286986e-03
9.235975e+01	-1.301894e-03
9.289321e+01	-1.316974e-03
9.342976e+01	-1.332229e-03
9.396941e+01	-1.347661e-03
9.451217e+01	-1.363272e-03
9.505807e+01	-1.379063e-03
9.560712e+01	-1.395037e-03
9.615934e+01	-1.411197e-03
9.671476e+01	-1.427543e-03
9.727338e+01	-1.444079e-03
9.783522e+01	-1.460806e-03
9.840032e+01	-1.477727e-03
9.896867e+01	-1.494844e-03
9.954031e+01	-1.512159e-03
1.001153e+02	-1.529675e-03
1.006935e+02	-1.547393e-03
1.012751e+02	-1.565317e-03
1.018601e+02	-1.583448e-03
1.024484e+02	-1.601790e-03
1.030402e+02	-1.620343e-03
1.036353e+02	-1.639112e-03
1.042339e+02	-1.658098e-03
1.048360e+02	-1.677304e-03
1.054415e+02	-1.696732e-03
1.060505e+02	-1.716385e-03
1.066631e+02	-1.736266e-03
1.072791e+02	-1.756377e-03
1.078988e+02	-1.776721e-03
1.085220e+02	-1.797300e-03
1.091488e+02	-1.818118e-03
1.097793e+02	-1.839177e-03
1.104133e+02	-1.860480e-03
1.110511e+02	-1.882029e-03
1.116925e+02	-1.903828e-03
1.123376e+02	-1.925880e-03
1.129865e+02	-1.948187e-03
1.136391e+02	-1.970752e-03
1.142955e+02	-1.993578e-03
1.149556e+02	-2.016669e-03
1.156196e+02	-2.040027e-03
1.162874e+02	-2.063656e-03
1.169591e+02	-2.087558e-03
1.176347e+02	-2.111737e-03
1.183141e+02	-2.136196e-03
1.189975e+02	-2.160938e-03
1.196848e+02	-2.185967e-03
1.203761e+02	-2.211286e-03
1.210714e+02	-2.236897e-03
1.217707e+02	-2.262806e-03
1.224740e+02	-2.289014e-03
1.231814e+02	-2.315526e-03
1.238929e+02	-2.342344e-03
1.246085e+02	-2.369474e-03
1.253283e+02	-2.396917e-03
1.260522e+02	-2.424678e-03
1.267802e+02	-2.452761e-03
1.275125e+02	-2.481169e-03
1.282490e+02	-2.509905e-03
1.289898e+02	-2.538975e-03
1.297348e+02	-2.568381e-03
1.304842e+02	-2.598127e-03
1.312378e+02	-2.628218e-03
1.319959e+02	-2.658657e-03
1.327583e+02	-2.689449e-03
1.335251e+02	-2.720597e-03
1.342963e+02	-2.752106e-03
1.350720e+02	-2.783980e-03
1.358522e+02	-2.816222e-03
1.366368e+02	-2.848838e-03
1.374260e+02	-2.881832e-03
1.382198e+02	-2.915207e-03
1.390182e+02	-2.948969e-03
1.398211e+02	-2.983122e-03
1.406287e+02	-3.017670e-03
1.414410e+02	-3.052618e-03
1.422579e+02	-3.087971e-03
1.430796e+02	-3.123733e-03
1.439060e+02	-3.159909e-03
1.447372e+02	-3.196504e-03
1.455732e+02	-3.233523e-03
1.464141e+02	-3.270970e-03
1.472597e+02	-3.308850e-03
1.481103e+02	-3.347170e-03
1.489658e+02	-3.385932e-03
1.498262e+02	-3.425144e-03
1.506916e+02	-3.464809e-03
1.515620e+02	-3.504934e-03
1.524374e+02	-3.545522e-03
1.533179e+02	-3.586581e-03
1.542034e+02	-3.628115e-03
1.550941e+02	-3.670130e-03
1.559899e+02	-3.712631e-03
1.568909e+02	-3.755625e-03
1.577971e+02	-3.799115e-03
1.587085e+02	-3.843110e-03
1.596252e+02	-3.887613e-03
1.605472e+02	-3.932632e-03
1.614745e+02	-3.978171e-03
1.624072e+02	-4.024238e-03
1.633453e+02	-4.070838e-03
1.642887e+02	-4.117977e-03
1.652377e+02	-4.165662e-03
1.661921e+02	-4.213899e-03
1.671520e+02	-4.262694e-03
1.681175e+02	-4.312054e-03
1.690885e+02	-4.361985e-03
1.700651e+02	-4.412494e-03
1.710474e+02	-4.463588e-03
1.720354e+02	-4.515272e-03
1.730291e+02	-4.567556e-03
1.740285e+02	-4.620444e-03
1.750337e+02	-4.673944e-03
1.760446e+02	-4.728063e-03
1.770615e+02	-4.782809e-03
1.780842e+02	-4.838188e-03
1.791128e+02	-4.894208e-03
1.801473e+02	-4.950876e-03
1.811878e+02	-5.008200e-03
1.822344e+02	-5.066187e-03
1.832870e+02	-5.124846e-03
1.843456e+02	-5.184183e-03
1.854104e+02	-5.244207e-03
1.864813e+02	-5.304925e-03
1.875584e+02	-5.366346e-03
1.886418e+02	-5.428477e-03
1.897313e+02	-5.491328e-03
1.908272e+02	-5.554905e-03
1.919294e+02	-5.619219e-03
1.930380e+02	-5.684276e-03
1.941530e+02	-5.750086e-03
1.952744e+02	-5.816658e-03
1.964023e+02	-5.883999e-03
1.975367e+02	-5.952120e-03
1.986777e+02	-6.021029e-03
1.998252e+02	-6.090735e-03
2.009794e+02	-6.161248e-03
2.021403e+02	-6.232576e-03
2.033078e+02	-6.304729e-03
2.044821e+02	-6.377717e-03
2.056632e+02	-6.451550e-03
2.068511e+02	-6.526236e-03
2.080459e+02	-6.601787e-03
2.092475e+02	-6.678211e-03
2.104561e+02	-6.755520e-03
2.116717e+02	-6.833722e-03
2.128943e+02	-6.912829e-03
2.141240e+02	-6.992852e-03
2.153608e+02	-7.073799e-03
2.166047e+02	-7.155684e-03
2.178558e+02	-7.238515e-03
2.191141e+02	-7.322304e-03
2.203797e+02	-7.407062e-03
2.216526e+02	-7.492800e-03
2.229329e+02	-7.579530e-03
2.242205e+02	-7.667263e-03
2.255156e+02	-7.756011e-03
2.268182e+02	-7.845785e-03
2.281283e+02	-7.936597e-03
2.294459e+02	-8.028459e-03
2.307712e+02	-8.121384e-03
2.321041e+02	-8.215383e-03
2.334447e+02	-8.310469e-03
2.347931e+02	-8.406654e-03
2.361493e+02	-8.503952e-03
2.375133e+02	-8.602374e-03
2.388851e+02	-8.701935e-03
2.402649e+02	-8.802646e-03
2.416527e+02	-8.904522e-03
2.430484e+02	-9.007576e-03
2.444523e+02	-9.111821e-03
2.458642e+02	-9.217272e-03
2.472843e+02	-9.323941e-03
2.487126e+02	-9.431844e-03
2.501492e+02	-9.540993e-03
2.515940e+02	-9.651405e-03
2.530472e+02	-9.763093e-03
2.545088e+02	-9.876072e-03
2.559789e+02	-9.990356e-03
2.574574e+02	-1.010596e-02
2.589444e+02	-1.022290e-02
2.604401e+02	-1.034120e-02
2.619444e+02	-1.046086e-02
2.634574e+02	-1.058190e-02
2.649791e+02	-1.070434e-02
2.665096e+02	-1.082820e-02
2.680489e+02	-1.095349e-02
2.695972e+02	-1.108023e-02
2.711544e+02	-1.120843e-02
2.727205e+02	-1.133811e-02
2.742958e+02	-1.146929e-02
2.758801e+02	-1.160199e-02
2.774736e+02	-1.173622e-02
2.790762e+02	-1.187200e-02
2.806882e+02	-1.200935e-02
2.823094e+02	-1.214828e-02
2.839400e+02	-1.228882e-02
2.855800e+02	-1.243099e-02
2.872295e+02	-1.257479e-02
2.888886e+02	-1.272026e-02
2.905572e+02	-1.286741e-02
2.922354e+02	-1.301626e-02
2.939234e+02	-1.316683e-02
2.956211e+02	-1.331913e-02
2.973286e+02	-1.347320e-02
2.990459e+02	-1.362904e-02
3.007732e+02	-1.378669e-02
3.025104e+02	-1.394615e-02
3.042577e+02	-1.410746e-02
3.060151e+02	-1.427063e-02
3.077826e+02	-1.443568e-02
3.095604e+02	-1.460264e-02
3.113484e+02	-1.477152e-02
3.131467e+02	-1.494236e-02
3.149554e+02	-1.511517e-02
3.167746e+02	-1.528997e-02
3.186043e+02	-1.546679e-02
3.204445e+02	-1.564566e-02
3.222954e+02	-1.582659e-02
3.241570e+02	-1.600960e-02
3.260293e+02	-1.619473e-02
3.279124e+02	-1.638199e-02
3.298064e+02	-1.657142e-02
3.317114e+02	-1.676303e-02
3.336273e+02	-1.695686e-02
3.355544e+02	-1.715292e-02
3.374925e+02	-1.735124e-02
3.394418e+02	-1.755185e-02
3.414024e+02	-1.775477e-02
3.433744e+02	-1.796004e-02
3.453577e+02	-1.816768e-02
3.473525e+02	-1.837771e-02
3.493588e+02	-1.859016e-02
3.513766e+02	-1.880506e-02
3.534062e+02	-1.902244e-02
3.554474e+02	-1.924233e-02
3.575005e+02	-1.946476e-02
3.595654e+02	-1.968975e-02
3.616422e+02	-1.991734e-02
3.637311e+02	-2.014755e-02
3.658320e+02	-2.038041e-02
3.679450e+02	-2.061596e-02
3.700702e+02	-2.085423e-02
3.722077e+02	-2.109524e-02
3.743576e+02	-2.133903e-02
3.765199e+02	-2.158563e-02
3.786946e+02	-2.183508e-02
3.808820e+02	-2.208739e-02
3.830819e+02	-2.234262e-02
3.852946e+02	-2.260079e-02
3.875200e+02	-2.286194e-02
3.897583e+02	-2.312609e-02
3.920096e+02	-2.339329e-02
3.942738e+02	-2.366356e-02
3.965511e+02	-2.393695e-02
3.988416e+02	-2.421349e-02
4.011452e+02	-2.449322e-02
4.034622e+02	-2.477617e-02
4.057926e+02	-2.506237e-02
4.081365e+02	-2.535188e-02
4.104938e+02	-2.564471e-02
4.128648e+02	-2.594092e-02
4.152495e+02	-2.624054e-02
4.176480e+02	-2.654361e-02
4.200603e+02	-2.685018e-02
4.224866e+02	-2.716027e-02
4.249268e+02	-2.747393e-02
4.273812e+02	-2.779120e-02
4.298497e+02	-2.811212e-02
4.323325e+02	-2.843673e-02
4.348297e+02	-2.876509e-02
4.373412e+02	-2.909722e-02
4.398673e+02	-2.943317e-02
4.424079e+02	-2.977299e-02
4.449633e+02	-3.011671e-02
4.475334e+02	-3.046440e-02
4.501183e+02	-3.081608e-02
4.527182e+02	-3.117180e-02
4.553330e+02	-3.153162e-02
4.579630e+02	-3.189558e-02
4.606082e+02	-3.226372e-02
4.632687e+02	-3.263609e-02
4.659445e+02	-3.301275e-02
4.686358e+02	-3.339374e-02
4.713426e+02	-3.377910e-02
4.740650e+02	-3.416890e-02
4.768032e+02	-3.456317e-02
4.795572e+02	-3.496198e-02
4.823271e+02	-3.536537e-02
4.851130e+02	-3.577339e-02
4.879150e+02	-3.618610e-02
4.907332e+02	-3.660356e-02
4.935676e+02	-3.702580e-02
4.964185e+02	-3.745290e-02
4.992858e+02	-3.788491e-02
5.021696e+02	-3.832187e-02
5.050701e+02	-3.876385e-02
5.079874e+02	-3.921091e-02
5.109215e+02	-3.966310e-02
5.138726e+02	-4.012047e-02
5.168407e+02	-4.058310e-02
5.198259e+02	-4.105104e-02
5.228284e+02	-4.152435e-02
5.258482e+02	-4.200308e-02
5.288855e+02	-4.248731e-02
5.319403e+02	-4.297710e-02
5.350128e+02	-4.347250e-02
5.381030e+02	-4.397358e-02
5.412111e+02	-4.448041e-02
5.443371e+02	-4.499306e-02
5.474812e+02	-4.551157e-02
5.506434e+02	-4.603604e-02
5.538239e+02	-4.656651e-02
5.570228e+02	-4.710306e-02
5.602401e+02	-4.764576e-02
5.634760e+02	-4.819468e-02
5.667306e+02	-4.874989e-02
5.700040e+02	-4.931145e-02
5.732964e+02	-4.987945e-02
5.766077e+02	-5.045395e-02
5.799382e+02	-5.103503e-02
5.832879e+02	-5.162277e-02
5.866569e+02	-5.221723e-02
5.900454e+02	-5.281849e-02
5.934535e+02	-5.342664e-02
5.968813e+02	-5.404174e-02
6.003288e+02	-5.466388e-02
6.037963e+02	-5.529313e-02
6.072838e+02	-5.592959e-02
6.107914e+02	-5.657332e-02
6.143194e+02	-5.722441e-02
6.178676e+02	-5.788294e-02
6.214364e+02	-5.854900e-02
6.250258e+02	-5.922268e-02
6.286359e+02	-5.990405e-02
6.322669e+02	-6.059320e-02
6.359189e+02	-6.129023e-02
6.395919e+02	-6.199522e-02
6.432862e+02	-6.270826e-02
6.470017e+02	-6.342944e-02
6.507388e+02	-6.415885e-02
6.544974e+02	-6.489659e-02
6.582778e+02	-6.564274e-02
6.620800e+02	-6.639741e-02
6.659041e+02	-6.716069e-02
6.697504e+02	-6.793267e-02
6.736188e+02	-6.871346e-02
6.775096e+02	-6.950314e-02
6.814229e+02	-7.030183e-02
6.853587e+02	-7.110963e-02
6.893173e+02	-7.192662e-02
6.932988e+02	-7.275293e-02
6.973033e+02	-7.358865e-02
7.013309e+02	-7.443388e-02
