Frequency(Hz)	Magnitude(dB)
1.000000e+01	-1.850745e-05
1.005776e+01	-1.872187e-05
1.011585e+01	-1.893876e-05
1.017428e+01	-1.915817e-05
1.023305e+01	-1.938013e-05
1.029215e+01	-1.960465e-05
1.035160e+01	-1.983178e-05
1.041139e+01	-2.006153e-05
1.047153e+01	-2.029395e-05
1.053201e+01	-2.052906e-05
1.059284e+01	-2.076689e-05
1.065403e+01	-2.100748e-05
1.071556e+01	-2.125086e-05
1.077746e+01	-2.149706e-05
1.083971e+01	-2.174611e-05
1.090232e+01	-2.199804e-05
1.096529e+01	-2.225289e-05
1.102862e+01	-2.251070e-05
1.109232e+01	-2.277149e-05
1.115639e+01	-2.303530e-05
1.122083e+01	-2.330217e-05
1.128564e+01	-2.357214e-05
1.135083e+01	-2.384522e-05
1.141639e+01	-2.412148e-05
1.148233e+01	-2.440093e-05
1.154865e+01	-2.468362e-05
1.161536e+01	-2.496959e-05
1.168245e+01	-2.525887e-05
1.174992e+01	-2.555150e-05
1.181779e+01	-2.584752e-05
1.188605e+01	-2.614697e-05
1.195470e+01	-2.644989e-05
1.202375e+01	-2.675631e-05
1.209320e+01	-2.706629e-05
1.216305e+01	-2.737986e-05
1.223330e+01	-2.769706e-05
1.230396e+01	-2.801794e-05
1.237503e+01	-2.834254e-05
1.244651e+01	-2.867089e-05
1.251840e+01	-2.900305e-05
1.259070e+01	-2.933906e-05
1.266343e+01	-2.967896e-05
1.273657e+01	-3.002280e-05
1.281014e+01	-3.037062e-05
1.288413e+01	-3.072247e-05
1.295855e+01	-3.107840e-05
1.303339e+01	-3.143845e-05
1.310867e+01	-3.180267e-05
1.318439e+01	-3.217111e-05
1.326054e+01	-3.254382e-05
1.333713e+01	-3.292085e-05
1.341417e+01	-3.330224e-05
1.349165e+01	-3.368806e-05
1.356958e+01	-3.407834e-05
1.364795e+01	-3.447315e-05
1.372678e+01	-3.487253e-05
1.380607e+01	-3.527653e-05
1.388581e+01	-3.568522e-05
1.396602e+01	-3.609864e-05
1.404668e+01	-3.651685e-05
1.412782e+01	-3.693991e-05
1.420942e+01	-3.736786e-05
1.429149e+01	-3.780078e-05
1.437404e+01	-3.823871e-05
1.445706e+01	-3.868172e-05
1.454057e+01	-3.912985e-05
1.462455e+01	-3.958318e-05
1.470902e+01	-4.004176e-05
1.479398e+01	-4.050565e-05
1.487943e+01	-4.097492e-05
1.496537e+01	-4.144962e-05
1.505181e+01	-4.192983e-05
1.513875e+01	-4.241559e-05
1.522619e+01	-4.290699e-05
1.531414e+01	-4.340407e-05
1.540259e+01	-4.390692e-05
1.549156e+01	-4.441559e-05
1.558103e+01	-4.493016e-05
1.567103e+01	-4.545068e-05
1.576155e+01	-4.597724e-05
1.585258e+01	-4.650989e-05
1.594415e+01	-4.704872e-05
1.603624e+01	-4.759379e-05
1.612886e+01	-4.814518e-05
1.622202e+01	-4.870295e-05
1.631572e+01	-4.926718e-05
1.640996e+01	-4.983795e-05
1.650474e+01	-5.041534e-05
1.660008e+01	-5.099941e-05
1.669596e+01	-5.159025e-05
1.679239e+01	-5.218793e-05
1.688938e+01	-5.279254e-05
1.698694e+01	-5.340415e-05
1.708505e+01	-5.402285e-05
1.718373e+01	-5.464872e-05
1.728299e+01	-5.528183e-05
1.738281e+01	-5.592228e-05
1.748322e+01	-5.657015e-05
1.758420e+01	-5.722553e-05
1.768576e+01	-5.788850e-05
1.778792e+01	-5.855915e-05
1.789066e+01	-5.923757e-05
1.799399e+01	-5.992385e-05
1.809793e+01	-6.061808e-05
1.820246e+01	-6.132035e-05
1.830760e+01	-6.203076e-05
1.841334e+01	-6.274940e-05
1.851969e+01	-6.347636e-05
1.862666e+01	-6.421175e-05
1.873425e+01	-6.495565e-05
1.884246e+01	-6.570818e-05
1.895129e+01	-6.646942e-05
1.906075e+01	-6.723948e-05
1.917085e+01	-6.801846e-05
1.928158e+01	-6.880647e-05
1.939295e+01	-6.960360e-05
1.950496e+01	-7.040998e-05
1.961762e+01	-7.122569e-05
1.973093e+01	-7.205085e-05
1.984490e+01	-7.288557e-05
1.995952e+01	-7.372997e-05
2.007480e+01	-7.458414e-05
2.019076e+01	-7.544821e-05
2.030738e+01	-7.632229e-05
2.042467e+01	-7.720650e-05
2.054264e+01	-7.810095e-05
2.066130e+01	-7.900576e-05
2.078064e+01	-7.992106e-05
2.090066e+01	-8.084696e-05
2.102139e+01	-8.178358e-05
2.114280e+01	-8.273106e-05
2.126492e+01	-8.368951e-05
2.138775e+01	-8.465907e-05
2.151128e+01	-8.563986e-05
2.163553e+01	-8.663201e-05
2.176050e+01	-8.763566e-05
2.188619e+01	-8.865093e-05
2.201260e+01	-8.967797e-05
2.213974e+01	-9.071690e-05
2.226762e+01	-9.176787e-05
2.239624e+01	-9.283101e-05
2.252560e+01	-9.390648e-05
2.265571e+01	-9.499440e-05
2.278656e+01	-9.609492e-05
2.291818e+01	-9.720820e-05
2.305055e+01	-9.833437e-05
2.318369e+01	-9.947359e-05
2.331760e+01	-1.006260e-04
2.345228e+01	-1.017918e-04
2.358774e+01	-1.029710e-04
2.372398e+01	-1.041640e-04
2.386101e+01	-1.053707e-04
2.399883e+01	-1.065915e-04
2.413745e+01	-1.078263e-04
2.427686e+01	-1.090755e-04
2.441709e+01	-1.103392e-04
2.455812e+01	-1.116175e-04
2.469997e+01	-1.129106e-04
2.484263e+01	-1.142187e-04
2.498612e+01	-1.155419e-04
2.513044e+01	-1.168805e-04
2.527559e+01	-1.182345e-04
2.542158e+01	-1.196043e-04
2.556842e+01	-1.209899e-04
2.571610e+01	-1.223916e-04
2.586463e+01	-1.238095e-04
2.601403e+01	-1.252439e-04
2.616428e+01	-1.266948e-04
2.631541e+01	-1.281626e-04
2.646740e+01	-1.296474e-04
2.662028e+01	-1.311494e-04
2.677404e+01	-1.326687e-04
2.692868e+01	-1.342057e-04
2.708422e+01	-1.357605e-04
2.724066e+01	-1.373333e-04
2.739800e+01	-1.389243e-04
2.755625e+01	-1.405338e-04
2.771541e+01	-1.421619e-04
2.787550e+01	-1.438088e-04
2.803650e+01	-1.454749e-04
2.819844e+01	-1.471602e-04
2.836131e+01	-1.488651e-04
2.852513e+01	-1.505897e-04
2.868989e+01	-1.523343e-04
2.885560e+01	-1.540991e-04
2.902227e+01	-1.558843e-04
2.918990e+01	-1.576903e-04
2.935850e+01	-1.595171e-04
2.952807e+01	-1.613651e-04
2.969863e+01	-1.632346e-04
2.987016e+01	-1.651256e-04
3.004269e+01	-1.670386e-04
3.021622e+01	-1.689738e-04
3.039075e+01	-1.709314e-04
3.056628e+01	-1.729116e-04
3.074283e+01	-1.749148e-04
3.092040e+01	-1.769412e-04
3.109900e+01	-1.789911e-04
3.127862e+01	-1.810647e-04
3.145929e+01	-1.831623e-04
3.164099e+01	-1.852843e-04
3.182375e+01	-1.874308e-04
3.200756e+01	-1.896022e-04
3.219244e+01	-1.917987e-04
3.237838e+01	-1.940207e-04
3.256540e+01	-1.962684e-04
3.275349e+01	-1.985422e-04
3.294268e+01	-2.008423e-04
3.313295e+01	-2.031691e-04
3.332433e+01	-2.055228e-04
3.351681e+01	-2.079038e-04
3.371040e+01	-2.103124e-04
3.390511e+01	-2.127488e-04
3.410094e+01	-2.152135e-04
3.429791e+01	-2.177068e-04
3.449601e+01	-2.202289e-04
3.469526e+01	-2.227802e-04
3.489566e+01	-2.253611e-04
3.509721e+01	-2.279719e-04
3.529993e+01	-2.306130e-04
3.550382e+01	-2.332846e-04
3.570889e+01	-2.359872e-04
3.591515e+01	-2.387211e-04
3.612259e+01	-2.414867e-04
3.633123e+01	-2.442843e-04
3.654108e+01	-2.471143e-04
3.675214e+01	-2.499771e-04
3.696442e+01	-2.528731e-04
3.717792e+01	-2.558026e-04
3.739266e+01	-2.587661e-04
3.760864e+01	-2.617639e-04
3.782587e+01	-2.647964e-04
3.804435e+01	-2.678640e-04
3.826409e+01	-2.709672e-04
3.848510e+01	-2.741064e-04
3.870739e+01	-2.772818e-04
3.893096e+01	-2.804941e-04
3.915583e+01	-2.837436e-04
3.938199e+01	-2.870308e-04
3.960946e+01	-2.903560e-04
3.983824e+01	-2.937197e-04
4.006834e+01	-2.971224e-04
4.029978e+01	-3.005646e-04
4.053255e+01	-3.040466e-04
4.076666e+01	-3.075689e-04
4.100213e+01	-3.111321e-04
4.123896e+01	-3.147365e-04
4.147715e+01	-3.183826e-04
4.171672e+01	-3.220711e-04
4.195767e+01	-3.258022e-04
4.220002e+01	-3.295766e-04
4.244377e+01	-3.333947e-04
4.268892e+01	-3.372570e-04
4.293549e+01	-3.411640e-04
4.318348e+01	-3.451164e-04
4.343291e+01	-3.491145e-04
4.368377e+01	-3.531589e-04
4.393609e+01	-3.572502e-04
4.418986e+01	-3.613888e-04
4.444510e+01	-3.655755e-04
4.470182e+01	-3.698106e-04
4.496001e+01	-3.740947e-04
4.521970e+01	-3.784285e-04
4.548089e+01	-3.828126e-04
4.574358e+01	-3.872473e-04
4.600779e+01	-3.917335e-04
4.627353e+01	-3.962716e-04
4.654081e+01	-4.008624e-04
4.680963e+01	-4.055062e-04
4.708000e+01	-4.102039e-04
4.735193e+01	-4.149560e-04
4.762543e+01	-4.197632e-04
4.790051e+01	-4.246260e-04
4.817719e+01	-4.295452e-04
4.845545e+01	-4.345213e-04
4.873533e+01	-4.395551e-04
4.901682e+01	-4.446472e-04
4.929994e+01	-4.497983e-04
4.958470e+01	-4.550091e-04
4.987110e+01	-4.602802e-04
5.015915e+01	-4.656124e-04
5.044887e+01	-4.710063e-04
5.074026e+01	-4.764628e-04
5.103333e+01	-4.819824e-04
5.132810e+01	-4.875660e-04
5.162457e+01	-4.932143e-04
5.192275e+01	-4.989280e-04
5.222265e+01	-5.047079e-04
5.252429e+01	-5.105547e-04
5.282767e+01	-5.164693e-04
5.313280e+01	-5.224523e-04
5.343969e+01	-5.285047e-04
5.374836e+01	-5.346272e-04
5.405880e+01	-5.408206e-04
5.437105e+01	-5.470858e-04
5.468509e+01	-5.534235e-04
5.500095e+01	-5.598347e-04
5.531863e+01	-5.663201e-04
5.563815e+01	-5.728807e-04
5.595951e+01	-5.795172e-04
5.628273e+01	-5.862306e-04
5.660782e+01	-5.930218e-04
5.693479e+01	-5.998916e-04
5.726364e+01	-6.068411e-04
5.759439e+01	-6.138710e-04
5.792705e+01	-6.209823e-04
5.826164e+01	-6.281761e-04
5.859815e+01	-6.354531e-04
5.893662e+01	-6.428145e-04
5.927703e+01	-6.502611e-04
5.961941e+01	-6.577940e-04
5.996377e+01	-6.654141e-04
6.031012e+01	-6.731225e-04
6.065847e+01	-6.809202e-04
6.100883e+01	-6.888083e-04
6.136121e+01	-6.967877e-04
6.171563e+01	-7.048595e-04
6.207210e+01	-7.130248e-04
6.243063e+01	-7.212847e-04
6.279122e+01	-7.296403e-04
6.315390e+01	-7.380927e-04
6.351868e+01	-7.466429e-04
6.388556e+01	-7.552922e-04
6.425456e+01	-7.640417e-04
6.462569e+01	-7.728926e-04
6.499897e+01	-7.818459e-04
6.537440e+01	-7.909030e-04
6.575200e+01	-8.000650e-04
6.613178e+01	-8.093331e-04
6.651375e+01	-8.187086e-04
6.689793e+01	-8.281926e-04
6.728433e+01	-8.377865e-04
6.767297e+01	-8.474916e-04
6.806384e+01	-8.573090e-04
6.845698e+01	-8.672402e-04
6.885238e+01	-8.772864e-04
6.925007e+01	-8.874490e-04
6.965005e+01	-8.977293e-04
7.005235e+01	-9.081286e-04
7.045697e+01	-9.186484e-04
7.086393e+01	-9.292901e-04
7.127323e+01	-9.400550e-04
7.168490e+01	-9.509446e-04
7.209895e+01	-9.619603e-04
7.251539e+01	-9.731036e-04
7.293424e+01	-9.843760e-04
7.335551e+01	-9.957790e-04
7.377920e+01	-1.007314e-03
7.420535e+01	-1.018983e-03
7.463396e+01	-1.030786e-03
7.506504e+01	-1.042727e-03
7.549861e+01	-1.054806e-03
7.593469e+01	-1.067024e-03
7.637328e+01	-1.079385e-03
7.681441e+01	-1.091888e-03
7.725809e+01	-1.104536e-03
7.770433e+01	-1.117331e-03
7.815315e+01	-1.130274e-03
7.860456e+01	-1.143367e-03
7.905857e+01	-1.156611e-03
7.951521e+01	-1.170009e-03
7.997449e+01	-1.183562e-03
8.043642e+01	-1.197272e-03
8.090102e+01	-1.211141e-03
8.136830e+01	-1.225170e-03
8.183828e+01	-1.239362e-03
8.231097e+01	-1.253718e-03
8.278640e+01	-1.268241e-03
8.326457e+01	-1.282932e-03
8.374550e+01	-1.297793e-03
8.422921e+01	-1.312826e-03
8.471572e+01	-1.328033e-03
8.520503e+01	-1.343416e-03
8.569717e+01	-1.358977e-03
8.619215e+01	-1.374719e-03
8.669000e+01	-1.390643e-03
8.719071e+01	-1.406751e-03
8.769432e+01	-1.423046e-03
8.820084e+01	-1.439530e-03
8.871029e+01	-1.456204e-03
8.922267e+01	-1.473072e-03
8.973802e+01	-1.490135e-03
9.025634e+01	-1.507396e-03
9.077766e+01	-1.524856e-03
9.130199e+01	-1.542519e-03
9.182935e+01	-1.560386e-03
9.235975e+01	-1.578460e-03
9.289321e+01	-1.596744e-03
9.342976e+01	-1.615239e-03
9.396941e+01	-1.633949e-03
9.451217e+01	-1.652875e-03
9.505807e+01	-1.672020e-03
9.560712e+01	-1.691387e-03
9.615934e+01	-1.710979e-03
9.671476e+01	-1.730797e-03
9.727338e+01	-1.750844e-03
9.783522e+01	-1.771124e-03
9.840032e+01	-1.791639e-03
9.896867e+01	-1.812391e-03
9.954031e+01	-1.833384e-03
1.001153e+02	-1.854620e-03
1.006935e+02	-1.876101e-03
1.012751e+02	-1.897832e-03
1.018601e+02	-1.919814e-03
1.024484e+02	-1.942050e-03
1.030402e+02	-1.964544e-03
1.036353e+02	-1.987299e-03
1.042339e+02	-2.010317e-03
1.048360e+02	-2.033602e-03
1.054415e+02	-2.057156e-03
1.060505e+02	-2.080983e-03
1.066631e+02	-2.105086e-03
1.072791e+02	-2.129468e-03
1.078988e+02	-2.154132e-03
1.085220e+02	-2.179082e-03
1.091488e+02	-2.204321e-03
1.097793e+02	-2.229852e-03
1.104133e+02	-2.255679e-03
1.110511e+02	-2.281804e-03
1.116925e+02	-2.308233e-03
1.123376e+02	-2.334967e-03
1.129865e+02	-2.362011e-03
1.136391e+02	-2.389368e-03
1.142955e+02	-2.417041e-03
1.149556e+02	-2.445036e-03
1.156196e+02	-2.473354e-03
1.162874e+02	-2.502000e-03
1.169591e+02	-2.530978e-03
1.176347e+02	-2.560291e-03
1.183141e+02	-2.589944e-03
1.189975e+02	-2.619940e-03
1.196848e+02	-2.650284e-03
1.203761e+02	-2.680979e-03
1.210714e+02	-2.712029e-03
1.217707e+02	-2.743438e-03
1.224740e+02	-2.775212e-03
1.231814e+02	-2.807353e-03
1.238929e+02	-2.839866e-03
1.246085e+02	-2.872756e-03
1.253283e+02	-2.906026e-03
1.260522e+02	-2.939682e-03
1.267802e+02	-2.973727e-03
1.275125e+02	-3.008167e-03
1.282490e+02	-3.043005e-03
1.289898e+02	-3.078246e-03
1.297348e+02	-3.113896e-03
1.304842e+02	-3.149958e-03
1.312378e+02	-3.186438e-03
1.319959e+02	-3.223340e-03
1.327583e+02	-3.260669e-03
1.335251e+02	-3.298430e-03
1.342963e+02	-3.336629e-03
1.350720e+02	-3.375269e-03
1.358522e+02	-3.414357e-03
1.366368e+02	-3.453898e-03
1.374260e+02	-3.493896e-03
1.382198e+02	-3.534357e-03
1.390182e+02	-3.575287e-03
1.398211e+02	-3.616690e-03
1.406287e+02	-3.658573e-03
1.414410e+02	-3.700940e-03
1.422579e+02	-3.743798e-03
1.430796e+02	-3.787152e-03
1.439060e+02	-3.831008e-03
1.447372e+02	-3.875371e-03
1.455732e+02	-3.920248e-03
1.464141e+02	-3.965645e-03
1.472597e+02	-4.011566e-03
1.481103e+02	-4.058020e-03
1.489658e+02	-4.105011e-03
1.498262e+02	-4.152545e-03
1.506916e+02	-4.200630e-03
1.515620e+02	-4.249272e-03
1.524374e+02	-4.298477e-03
1.533179e+02	-4.348251e-03
1.542034e+02	-4.398601e-03
1.550941e+02	-4.449533e-03
1.559899e+02	-4.501056e-03
1.568909e+02	-4.553174e-03
1.577971e+02	-4.605896e-03
1.587085e+02	-4.659228e-03
1.596252e+02	-4.713177e-03
1.605472e+02	-4.767750e-03
1.614745e+02	-4.822955e-03
1.624072e+02	-4.878799e-03
1.633453e+02	-4.935289e-03
1.642887e+02	-4.992432e-03
1.652377e+02	-5.050237e-03
1.661921e+02	-5.108711e-03
1.671520e+02	-5.167861e-03
1.681175e+02	-5.227696e-03
1.690885e+02	-5.288224e-03
1.700651e+02	-5.349451e-03
1.710474e+02	-5.411387e-03
1.720354e+02	-5.474040e-03
1.730291e+02	-5.537418e-03
1.740285e+02	-5.601529e-03
1.750337e+02	-5.666381e-03
1.760446e+02	-5.731984e-03
1.770615e+02	-5.798347e-03
1.780842e+02	-5.865476e-03
1.791128e+02	-5.933383e-03
1.801473e+02	-6.002075e-03
1.811878e+02	-6.071562e-03
1.822344e+02	-6.141853e-03
1.832870e+02	-6.212957e-03
1.843456e+02	-6.284883e-03
1.854104e+02	-6.357642e-03
1.864813e+02	-6.431242e-03
1.875584e+02	-6.505694e-03
1.886418e+02	-6.581007e-03
1.897313e+02	-6.657191e-03
1.908272e+02	-6.734256e-03
1.919294e+02	-6.812213e-03
1.930380e+02	-6.891071e-03
1.941530e+02	-6.970842e-03
1.952744e+02	-7.051535e-03
1.964023e+02	-7.133162e-03
1.975367e+02	-7.215732e-03
1.986777e+02	-7.299258e-03
1.998252e+02	-7.383750e-03
2.009794e+02	-7.469219e-03
2.021403e+02	-7.555676e-03
2.033078e+02	-7.643133e-03
2.044821e+02	-7.731602e-03
2.056632e+02	-7.821094e-03
2.068511e+02	-7.911620e-03
2.080459e+02	-8.003194e-03
2.092475e+02	-8.095826e-03
2.104561e+02	-8.189530e-03
2.116717e+02	-8.284317e-03
2.128943e+02	-8.380200e-03
2.141240e+02	-8.477192e-03
2.153608e+02	-8.575305e-03
2.166047e+02	-8.674552e-03
2.178558e+02	-8.774947e-03
2.191141e+02	-8.876503e-03
2.203797e+02	-8.979233e-03
2.216526e+02	-9.083151e-03
2.229329e+02	-9.188270e-03
2.242205e+02	-9.294604e-03
2.255156e+02	-9.402168e-03
2.268182e+02	-9.510975e-03
2.281283e+02	-9.621039e-03
2.294459e+02	-9.732376e-03
2.307712e+02	-9.845000e-03
2.321041e+02	-9.958926e-03
2.334447e+02	-1.007417e-02
2.347931e+02	-1.019074e-02
2.361493e+02	-1.030866e-02
2.375133e+02	-1.042795e-02
2.388851e+02	-1.054861e-02
2.402649e+02	-1.067067e-02
2.416527e+02	-1.079414e-02
2.430484e+02	-1.091903e-02
2.444523e+02	-1.104537e-02
2.458642e+02	-1.117317e-02
2.472843e+02	-1.130245e-02
2.487126e+02	-1.143321e-02
2.501492e+02	-1.156549e-02
2.515940e+02	-1.169930e-02
2.530472e+02	-1.183466e-02
2.545088e+02	-1.197157e-02
2.559789e+02	-1.211007e-02
2.574574e+02	-1.225017e-02
2.589444e+02	-1.239189e-02
2.604401e+02	-1.253525e-02
2.619444e+02	-1.268026e-02
2.634574e+02	-1.282695e-02
2.649791e+02	-1.297533e-02
2.665096e+02	-1.312542e-02
2.680489e+02	-1.327725e-02
2.695972e+02	-1.343083e-02
2.711544e+02	-1.358619e-02
2.727205e+02	-1.374334e-02
2.742958e+02	-1.390230e-02
2.758801e+02	-1.406310e-02
2.774736e+02	-1.422576e-02
2.790762e+02	-1.439029e-02
2.806882e+02	-1.455673e-02
2.823094e+02	-1.472508e-02
2.839400e+02	-1.489539e-02
2.855800e+02	-1.506765e-02
2.872295e+02	-1.524191e-02
2.888886e+02	-1.541817e-02
2.905572e+02	-1.559648e-02
2.922354e+02	-1.577684e-02
2.939234e+02	-1.595928e-02
2.956211e+02	-1.614383e-02
2.973286e+02	-1.633050e-02
2.990459e+02	-1.651933e-02
3.007732e+02	-1.671035e-02
3.025104e+02	-1.690356e-02
3.042577e+02	-1.709901e-02
3.060151e+02	-1.729671e-02
3.077826e+02	-1.749669e-02
3.095604e+02	-1.769898e-02
3.113484e+02	-1.790360e-02
3.131467e+02	-1.811059e-02
3.149554e+02	-1.831996e-02
3.167746e+02	-1.853175e-02
3.186043e+02	-1.874598e-02
3.204445e+02	-1.896268e-02
3.222954e+02	-1.918188e-02
3.241570e+02	-1.940361e-02
3.260293e+02	-1.962789e-02
3.279124e+02	-1.985477e-02
3.298064e+02	-2.008425e-02
3.317114e+02	-2.031639e-02
3.336273e+02	-2.055120e-02
3.355544e+02	-2.078872e-02
3.374925e+02	-2.102898e-02
3.394418e+02	-2.127201e-02
3.414024e+02	-2.151784e-02
3.433744e+02	-2.176650e-02
3.453577e+02	-2.201803e-02
3.473525e+02	-2.227246e-02
3.493588e+02	-2.252982e-02
3.513766e+02	-2.279014e-02
3.534062e+02	-2.305347e-02
3.554474e+02	-2.331983e-02
3.575005e+02	-2.358926e-02
3.595654e+02	-2.386180e-02
3.616422e+02	-2.413747e-02
3.637311e+02	-2.441632e-02
3.658320e+02	-2.469839e-02
3.679450e+02	-2.498370e-02
3.700702e+02	-2.527230e-02
3.722077e+02	-2.556422e-02
3.743576e+02	-2.585950e-02
3.765199e+02	-2.615819e-02
3.786946e+02	-2.646031e-02
3.808820e+02	-2.676591e-02
3.830819e+02	-2.707503e-02
3.852946e+02	-2.738771e-02
3.875200e+02	-2.770399e-02
3.897583e+02	-2.802391e-02
3.920096e+02	-2.834751e-02
3.942738e+02	-2.867484e-02
3.965511e+02	-2.900593e-02
3.988416e+02	-2.934083e-02
4.011452e+02	-2.967959e-02
4.034622e+02	-3.002224e-02
4.057926e+02	-3.036884e-02
4.081365e+02	-3.071942e-02
4.104938e+02	-3.107404e-02
4.128648e+02	-3.143273e-02
4.152495e+02	-3.179555e-02
4.176480e+02	-3.216255e-02
4.200603e+02	-3.253376e-02
4.224866e+02	-3.290924e-02
4.249268e+02	-3.328904e-02
4.273812e+02	-3.367320e-02
4.298497e+02	-3.406178e-02
4.323325e+02	-3.445482e-02
4.348297e+02	-3.485239e-02
4.373412e+02	-3.525452e-02
4.398673e+02	-3.566127e-02
4.424079e+02	-3.607269e-02
4.449633e+02	-3.648885e-02
4.475334e+02	-3.690978e-02
4.501183e+02	-3.733555e-02
4.527182e+02	-3.776620e-02
4.553330e+02	-3.820181e-02
4.579630e+02	-3.864241e-02
4.606082e+02	-3.908807e-02
4.632687e+02	-3.953885e-02
4.659445e+02	-3.999481e-02
4.686358e+02	-4.045600e-02
4.713426e+02	-4.092248e-02
4.740650e+02	-4.139431e-02
4.768032e+02	-4.187156e-02
4.795572e+02	-4.235428e-02
4.823271e+02	-4.284254e-02
4.851130e+02	-4.333640e-02
4.879150e+02	-4.383593e-02
4.907332e+02	-4.434118e-02
4.935676e+02	-4.485223e-02
4.964185e+02	-4.536913e-02
4.992858e+02	-4.589197e-02
5.021696e+02	-4.642079e-02
5.050701e+02	-4.695567e-02
5.079874e+02	-4.749669e-02
5.109215e+02	-4.804390e-02
5.138726e+02	-4.859738e-02
5.168407e+02	-4.915721e-02
5.198259e+02	-4.972344e-02
5.228284e+02	-5.029616e-02
5.258482e+02	-5.087544e-02
5.288855e+02	-5.146135e-02
5.319403e+02	-5.205396e-02
5.350128e+02	-5.265336e-02
5.381030e+02	-5.325962e-02
5.412111e+02	-5.387281e-02
5.443371e+02	-5.449302e-02
5.474812e+02	-5.512033e-02
5.506434e+02	-5.575481e-02
5.538239e+02	-5.639655e-02
5.570228e+02	-5.704562e-02
5.602401e+02	-5.770211e-02
5.634760e+02	-5.836611e-02
5.667306e+02	-5.903770e-02
5.700040e+02	-5.971696e-02
5.732964e+02	-6.040398e-02
5.766077e+02	-6.109885e-02
5.799382e+02	-6.180166e-02
5.832879e+02	-6.251249e-02
5.866569e+02	-6.323144e-02
5.900454e+02	-6.395860e-02
5.934535e+02	-6.469405e-02
5.968813e+02	-6.543790e-02
6.003288e+02	-6.619024e-02
6.037963e+02	-6.695116e-02
6.072838e+02	-6.772076e-02
6.107914e+02	-6.849913e-02
6.143194e+02	-6.928638e-02
6.178676e+02	-7.008261e-02
6.214364e+02	-7.088791e-02
6.250258e+02	-7.170238e-02
6.286359e+02	-7.252614e-02
6.322669e+02	-7.335928e-02
6.359189e+02	-7.420191e-02
6.395919e+02	-7.505413e-02
6.432862e+02	-7.591606e-02
6.470017e+02	-7.678779e-02
6.507388e+02	-7.766945e-02
6.544974e+02	-7.856114e-02
6.582778e+02	-7.946297e-02
6.620800e+02	-8.037506e-02
6.659041e+02	-8.129751e-02
6.697504e+02	-8.223046e-02
6.736188e+02	-8.317401e-02
6.775096e+02	-8.412828e-02
6.814229e+02	-8.509339e-02
6.853587e+02	-8.606946e-02
6.893173e+02	-8.705661e-02
6.932988e+02	-8.805498e-02
6.973033e+02	-8.906467e-02
7.013309e+02	-9.008582e-02
