Frequency(Hz)	Magnitude(dB)
1.000000e+01	-2.337654e+00
1.005776e+01	-2.358597e+00
1.011585e+01	-2.379579e+00
1.017428e+01	-2.400790e+00
1.023305e+01	-2.422162e+00
1.029215e+01	-2.443740e+00
1.035160e+01	-2.465233e+00
1.041139e+01	-2.486961e+00
1.047153e+01	-2.508742e+00
1.053201e+01	-2.530856e+00
1.059284e+01	-2.553085e+00
1.065403e+01	-2.575084e+00
1.071556e+01	-2.597672e+00
1.077746e+01	-2.620543e+00
1.083971e+01	-2.643033e+00
1.090232e+01	-2.665948e+00
1.096529e+01	-2.688777e+00
1.102862e+01	-2.712016e+00
1.109232e+01	-2.735389e+00
1.115639e+01	-2.758778e+00
1.122083e+01	-2.782579e+00
1.128564e+01	-2.806298e+00
1.135083e+01	-2.829868e+00
1.141639e+01	-2.853918e+00
1.148233e+01	-2.878423e+00
1.154865e+01	-2.902641e+00
1.161536e+01	-2.926791e+00
1.168245e+01	-2.951474e+00
1.174992e+01	-2.976231e+00
1.181779e+01	-3.001111e+00
1.188605e+01	-3.026228e+00
1.195470e+01	-3.051394e+00
1.202375e+01	-3.076939e+00
1.209320e+01	-3.102144e+00
1.216305e+01	-3.127855e+00
1.223330e+01	-3.153704e+00
1.230396e+01	-3.179620e+00
1.237503e+01	-3.205624e+00
1.244651e+01	-3.231624e+00
1.251840e+01	-3.258077e+00
1.259070e+01	-3.284375e+00
1.266343e+01	-3.311063e+00
1.273657e+01	-3.338007e+00
1.281014e+01	-3.364632e+00
1.288413e+01	-3.391659e+00
1.295855e+01	-3.418847e+00
1.303339e+01	-3.446318e+00
1.310867e+01	-3.473796e+00
1.318439e+01	-3.501361e+00
1.326054e+01	-3.529168e+00
1.333713e+01	-3.557400e+00
1.341417e+01	-3.585139e+00
1.349165e+01	-3.613487e+00
1.356958e+01	-3.641931e+00
1.364795e+01	-3.670122e+00
1.372678e+01	-3.698710e+00
1.380607e+01	-3.727446e+00
1.388581e+01	-3.756325e+00
1.396602e+01	-3.785363e+00
1.404668e+01	-3.814616e+00
1.412782e+01	-3.844216e+00
1.420942e+01	-3.873359e+00
1.429149e+01	-3.903030e+00
1.437404e+01	-3.932468e+00
1.445706e+01	-3.962283e+00
1.454057e+01	-3.992815e+00
1.462455e+01	-4.022567e+00
1.470902e+01	-4.052928e+00
1.479398e+01	-4.083428e+00
1.487943e+01	-4.113742e+00
1.496537e+01	-4.144396e+00
1.505181e+01	-4.175490e+00
1.513875e+01	-4.206222e+00
1.522619e+01	-4.237623e+00
1.531414e+01	-4.268820e+00
1.540259e+01	-4.299975e+00
1.549156e+01	-4.331535e+00
1.558103e+01	-4.363481e+00
1.567103e+01	-4.395207e+00
1.576155e+01	-4.426731e+00
1.585258e+01	-4.458825e+00
1.594415e+01	-4.491189e+00
1.603624e+01	-4.523631e+00
1.612886e+01	-4.555955e+00
1.622202e+01	-4.588260e+00
1.631572e+01	-4.621346e+00
1.640996e+01	-4.653823e+00
1.650474e+01	-4.687205e+00
1.660008e+01	-4.720012e+00
1.669596e+01	-4.753195e+00
1.679239e+01	-4.786594e+00
1.688938e+01	-4.820311e+00
1.698694e+01	-4.853810e+00
1.708505e+01	-4.887521e+00
1.718373e+01	-4.921276e+00
1.728299e+01	-4.955327e+00
1.738281e+01	-4.989280e+00
1.748322e+01	-5.023784e+00
1.758420e+01	-5.057957e+00
1.768576e+01	-5.092438e+00
1.778792e+01	-5.126660e+00
1.789066e+01	-5.162039e+00
1.799399e+01	-5.196504e+00
1.809793e+01	-5.231666e+00
1.820246e+01	-5.266465e+00
1.830760e+01	-5.301694e+00
1.841334e+01	-5.337238e+00
1.851969e+01	-5.372515e+00
1.862666e+01	-5.408324e+00
1.873425e+01	-5.443761e+00
1.884246e+01	-5.479663e+00
1.895129e+01	-5.515733e+00
1.906075e+01	-5.551958e+00
1.917085e+01	-5.587528e+00
1.928158e+01	-5.623875e+00
1.939295e+01	-5.660467e+00
1.950496e+01	-5.696810e+00
1.961762e+01	-5.733440e+00
1.973093e+01	-5.770023e+00
1.984490e+01	-5.807007e+00
1.995952e+01	-5.844130e+00
2.007480e+01	-5.881166e+00
2.019076e+01	-5.918211e+00
2.030738e+01	-5.955569e+00
2.042467e+01	-5.992929e+00
2.054264e+01	-6.030340e+00
2.066130e+01	-6.067812e+00
2.078064e+01	-6.105558e+00
2.090066e+01	-6.143683e+00
2.102139e+01	-6.181389e+00
2.114280e+01	-6.219202e+00
2.126492e+01	-6.257629e+00
2.138775e+01	-6.295915e+00
2.151128e+01	-6.334397e+00
2.163553e+01	-6.372941e+00
2.176050e+01	-6.411180e+00
2.188619e+01	-6.449644e+00
2.201260e+01	-6.488773e+00
2.213974e+01	-6.527449e+00
2.226762e+01	-6.566201e+00
2.239624e+01	-6.605532e+00
2.252560e+01	-6.644481e+00
2.265571e+01	-6.683682e+00
2.278656e+01	-6.723204e+00
2.291818e+01	-6.762328e+00
2.305055e+01	-6.802423e+00
2.318369e+01	-6.841688e+00
2.331760e+01	-6.881563e+00
2.345228e+01	-6.921446e+00
2.358774e+01	-6.960916e+00
2.372398e+01	-7.001219e+00
2.386101e+01	-7.041114e+00
2.399883e+01	-7.081122e+00
2.413745e+01	-7.121741e+00
2.427686e+01	-7.162063e+00
2.441709e+01	-7.202511e+00
2.455812e+01	-7.243027e+00
2.469997e+01	-7.283781e+00
2.484263e+01	-7.324458e+00
2.498612e+01	-7.365205e+00
2.513044e+01	-7.405965e+00
2.527559e+01	-7.447038e+00
2.542158e+01	-7.488573e+00
2.556842e+01	-7.529341e+00
2.571610e+01	-7.570731e+00
2.586463e+01	-7.611932e+00
2.601403e+01	-7.653085e+00
2.616428e+01	-7.694577e+00
2.631541e+01	-7.736403e+00
2.646740e+01	-7.778415e+00
2.662028e+01	-7.819984e+00
2.677404e+01	-7.861543e+00
2.692868e+01	-7.903554e+00
2.708422e+01	-7.945380e+00
2.724066e+01	-7.987569e+00
2.739800e+01	-8.029192e+00
2.755625e+01	-8.071688e+00
2.771541e+01	-8.114217e+00
2.787550e+01	-8.155838e+00
2.803650e+01	-8.198750e+00
2.819844e+01	-8.241392e+00
2.836131e+01	-8.283511e+00
2.852513e+01	-8.326194e+00
2.868989e+01	-8.368755e+00
2.885560e+01	-8.412789e+00
2.902227e+01	-8.454652e+00
2.918990e+01	-8.497306e+00
2.935850e+01	-8.540520e+00
2.952807e+01	-8.583643e+00
2.969863e+01	-8.626524e+00
2.987016e+01	-8.669961e+00
3.004269e+01	-8.713368e+00
3.021622e+01	-8.756773e+00
3.039075e+01	-8.799936e+00
3.056628e+01	-8.843313e+00
3.074283e+01	-8.886584e+00
3.092040e+01	-8.930623e+00
3.109900e+01	-8.974328e+00
3.127862e+01	-9.017650e+00
3.145929e+01	-9.061380e+00
3.164099e+01	-9.105281e+00
3.182375e+01	-9.149111e+00
3.200756e+01	-9.193416e+00
3.219244e+01	-9.238054e+00
3.237838e+01	-9.281535e+00
3.256540e+01	-9.325641e+00
3.275349e+01	-9.369903e+00
3.294268e+01	-9.413821e+00
3.313295e+01	-9.458100e+00
3.332433e+01	-9.502888e+00
3.351681e+01	-9.547700e+00
3.371040e+01	-9.592438e+00
3.390511e+01	-9.636538e+00
3.410094e+01	-9.680866e+00
3.429791e+01	-9.726069e+00
3.449601e+01	-9.770856e+00
3.469526e+01	-9.815050e+00
3.489566e+01	-9.860072e+00
3.509721e+01	-9.904728e+00
3.529993e+01	-9.950234e+00
3.550382e+01	-9.994340e+00
3.570889e+01	-1.003979e+01
3.591515e+01	-1.008489e+01
3.612259e+01	-1.013057e+01
3.633123e+01	-1.017536e+01
3.654108e+01	-1.022071e+01
3.675214e+01	-1.026603e+01
3.696442e+01	-1.031139e+01
3.717792e+01	-1.035656e+01
3.739266e+01	-1.040235e+01
3.760864e+01	-1.044747e+01
3.782587e+01	-1.049285e+01
3.804435e+01	-1.053850e+01
3.826409e+01	-1.058435e+01
3.848510e+01	-1.063021e+01
3.870739e+01	-1.067584e+01
3.893096e+01	-1.072134e+01
3.915583e+01	-1.076726e+01
3.938199e+01	-1.081336e+01
3.960946e+01	-1.085876e+01
3.983824e+01	-1.090474e+01
4.006834e+01	-1.095117e+01
4.029978e+01	-1.099674e+01
4.053255e+01	-1.104303e+01
4.076666e+01	-1.108914e+01
4.100213e+01	-1.113488e+01
4.123896e+01	-1.118144e+01
4.147715e+01	-1.122790e+01
4.171672e+01	-1.127406e+01
4.195767e+01	-1.132023e+01
4.220002e+01	-1.136632e+01
4.244377e+01	-1.141335e+01
4.268892e+01	-1.145935e+01
4.293549e+01	-1.150639e+01
4.318348e+01	-1.155213e+01
4.343291e+01	-1.159900e+01
4.368377e+01	-1.164525e+01
4.393609e+01	-1.169215e+01
4.418986e+01	-1.173961e+01
4.444510e+01	-1.178554e+01
4.470182e+01	-1.183284e+01
4.496001e+01	-1.187938e+01
4.521970e+01	-1.192620e+01
4.548089e+01	-1.197254e+01
4.574358e+01	-1.201976e+01
4.600779e+01	-1.206616e+01
4.627353e+01	-1.211349e+01
4.654081e+01	-1.216055e+01
4.680963e+01	-1.220787e+01
4.708000e+01	-1.225423e+01
4.735193e+01	-1.230256e+01
4.762543e+01	-1.234779e+01
4.790051e+01	-1.239599e+01
4.817719e+01	-1.244290e+01
4.845545e+01	-1.248991e+01
4.873533e+01	-1.253799e+01
4.901682e+01	-1.258419e+01
4.929994e+01	-1.263206e+01
4.958470e+01	-1.267897e+01
4.987110e+01	-1.272680e+01
5.015915e+01	-1.277377e+01
5.044887e+01	-1.282148e+01
5.074026e+01	-1.286865e+01
5.103333e+01	-1.291618e+01
5.132810e+01	-1.296314e+01
5.162457e+01	-1.301045e+01
5.192275e+01	-1.305896e+01
5.222265e+01	-1.310663e+01
5.252429e+01	-1.315431e+01
5.282767e+01	-1.320147e+01
5.313280e+01	-1.324952e+01
5.343969e+01	-1.329714e+01
5.374836e+01	-1.334410e+01
5.405880e+01	-1.339255e+01
5.437105e+01	-1.343942e+01
5.468509e+01	-1.348846e+01
5.500095e+01	-1.353591e+01
5.531863e+01	-1.358231e+01
5.563815e+01	-1.363085e+01
5.595951e+01	-1.367957e+01
5.628273e+01	-1.372714e+01
5.660782e+01	-1.377485e+01
5.693479e+01	-1.382344e+01
5.726364e+01	-1.387139e+01
5.759439e+01	-1.391883e+01
5.792705e+01	-1.396713e+01
5.826164e+01	-1.401489e+01
5.859815e+01	-1.406313e+01
5.893662e+01	-1.411025e+01
5.927703e+01	-1.415900e+01
5.961941e+01	-1.420727e+01
5.996377e+01	-1.425587e+01
6.031012e+01	-1.430285e+01
6.065847e+01	-1.435142e+01
6.100883e+01	-1.440074e+01
6.136121e+01	-1.444801e+01
6.171563e+01	-1.449584e+01
6.207210e+01	-1.454536e+01
6.243063e+01	-1.459257e+01
6.279122e+01	-1.464211e+01
6.315390e+01	-1.469000e+01
6.351868e+01	-1.473774e+01
6.388556e+01	-1.478618e+01
6.425456e+01	-1.483464e+01
6.462569e+01	-1.488396e+01
6.499897e+01	-1.493119e+01
6.537440e+01	-1.497957e+01
6.575200e+01	-1.502778e+01
6.613178e+01	-1.507614e+01
6.651375e+01	-1.512559e+01
6.689793e+01	-1.517357e+01
6.728433e+01	-1.522180e+01
6.767297e+01	-1.527083e+01
6.806384e+01	-1.531953e+01
6.845698e+01	-1.536872e+01
6.885238e+01	-1.541595e+01
6.925007e+01	-1.546586e+01
6.965005e+01	-1.551321e+01
7.005235e+01	-1.556195e+01
7.045697e+01	-1.561146e+01
7.086393e+01	-1.565990e+01
7.127323e+01	-1.570902e+01
7.168490e+01	-1.575753e+01
7.209895e+01	-1.580558e+01
7.251539e+01	-1.585396e+01
7.293424e+01	-1.590255e+01
7.335551e+01	-1.595033e+01
7.377920e+01	-1.600155e+01
7.420535e+01	-1.604985e+01
7.463396e+01	-1.609899e+01
7.506504e+01	-1.614734e+01
7.549861e+01	-1.619604e+01
7.593469e+01	-1.624518e+01
7.637328e+01	-1.629386e+01
7.681441e+01	-1.634210e+01
7.725809e+01	-1.639152e+01
7.770433e+01	-1.644057e+01
7.815315e+01	-1.648849e+01
7.860456e+01	-1.653744e+01
7.905857e+01	-1.658726e+01
7.951521e+01	-1.663564e+01
7.997449e+01	-1.668314e+01
8.043642e+01	-1.673288e+01
8.090102e+01	-1.678228e+01
8.136830e+01	-1.683217e+01
8.183828e+01	-1.688080e+01
8.231097e+01	-1.692993e+01
8.278640e+01	-1.697876e+01
8.326457e+01	-1.702736e+01
8.374550e+01	-1.707606e+01
8.422921e+01	-1.712667e+01
8.471572e+01	-1.717522e+01
8.520503e+01	-1.722449e+01
8.569717e+01	-1.727291e+01
8.619215e+01	-1.732154e+01
8.669000e+01	-1.737074e+01
8.719071e+01	-1.742046e+01
8.769432e+01	-1.747027e+01
8.820084e+01	-1.751882e+01
8.871029e+01	-1.756839e+01
8.922267e+01	-1.761795e+01
8.973802e+01	-1.766742e+01
9.025634e+01	-1.771544e+01
9.077766e+01	-1.776437e+01
9.130199e+01	-1.781365e+01
9.182935e+01	-1.786212e+01
9.235975e+01	-1.791203e+01
9.289321e+01	-1.796067e+01
9.342976e+01	-1.801140e+01
9.396941e+01	-1.806024e+01
9.451217e+01	-1.810957e+01
9.505807e+01	-1.815653e+01
9.560712e+01	-1.820791e+01
9.615934e+01	-1.825626e+01
9.671476e+01	-1.830564e+01
9.727338e+01	-1.835545e+01
9.783522e+01	-1.840354e+01
9.840032e+01	-1.845548e+01
9.896867e+01	-1.850311e+01
9.954031e+01	-1.855294e+01
1.001153e+02	-1.860315e+01
1.006935e+02	-1.865069e+01
1.012751e+02	-1.870257e+01
1.018601e+02	-1.875015e+01
1.024484e+02	-1.879962e+01
1.030402e+02	-1.884907e+01
1.036353e+02	-1.889925e+01
1.042339e+02	-1.894774e+01
1.048360e+02	-1.899687e+01
1.054415e+02	-1.904702e+01
1.060505e+02	-1.909604e+01
1.066631e+02	-1.914421e+01
1.072791e+02	-1.919445e+01
1.078988e+02	-1.924581e+01
1.085220e+02	-1.929408e+01
1.091488e+02	-1.934275e+01
1.097793e+02	-1.939313e+01
1.104133e+02	-1.944279e+01
1.110511e+02	-1.949301e+01
1.116925e+02	-1.954114e+01
1.123376e+02	-1.959185e+01
1.129865e+02	-1.963881e+01
1.136391e+02	-1.968997e+01
1.142955e+02	-1.973922e+01
1.149556e+02	-1.978919e+01
1.156196e+02	-1.983737e+01
1.162874e+02	-1.988825e+01
1.169591e+02	-1.993795e+01
1.176347e+02	-1.998636e+01
1.183141e+02	-2.003554e+01
1.189975e+02	-2.008638e+01
1.196848e+02	-2.013658e+01
1.203761e+02	-2.018483e+01
1.210714e+02	-2.023423e+01
1.217707e+02	-2.028409e+01
1.224740e+02	-2.033418e+01
1.231814e+02	-2.038321e+01
1.238929e+02	-2.043349e+01
1.246085e+02	-2.048255e+01
1.253283e+02	-2.053298e+01
1.260522e+02	-2.058221e+01
1.267802e+02	-2.063326e+01
1.275125e+02	-2.068167e+01
1.282490e+02	-2.072943e+01
1.289898e+02	-2.078071e+01
1.297348e+02	-2.082961e+01
1.304842e+02	-2.087844e+01
1.312378e+02	-2.092930e+01
1.319959e+02	-2.097956e+01
1.327583e+02	-2.102779e+01
1.335251e+02	-2.107647e+01
1.342963e+02	-2.112736e+01
1.350720e+02	-2.117722e+01
1.358522e+02	-2.122820e+01
1.366368e+02	-2.127596e+01
1.374260e+02	-2.132417e+01
1.382198e+02	-2.137594e+01
1.390182e+02	-2.142576e+01
1.398211e+02	-2.147561e+01
1.406287e+02	-2.152764e+01
1.414410e+02	-2.157441e+01
1.422579e+02	-2.162441e+01
1.430796e+02	-2.167593e+01
1.439060e+02	-2.172193e+01
1.447372e+02	-2.177501e+01
1.455732e+02	-2.182382e+01
1.464141e+02	-2.187218e+01
1.472597e+02	-2.192068e+01
1.481103e+02	-2.197249e+01
1.489658e+02	-2.202073e+01
1.498262e+02	-2.207086e+01
1.506916e+02	-2.212111e+01
1.515620e+02	-2.217013e+01
1.524374e+02	-2.222115e+01
1.533179e+02	-2.227086e+01
1.542034e+02	-2.231962e+01
1.550941e+02	-2.237106e+01
1.559899e+02	-2.241961e+01
1.568909e+02	-2.246985e+01
1.577971e+02	-2.251917e+01
1.587085e+02	-2.256867e+01
1.596252e+02	-2.261955e+01
1.605472e+02	-2.266949e+01
1.614745e+02	-2.271780e+01
1.624072e+02	-2.276800e+01
1.633453e+02	-2.281859e+01
1.642887e+02	-2.286763e+01
1.652377e+02	-2.291844e+01
1.661921e+02	-2.296793e+01
1.671520e+02	-2.301838e+01
1.681175e+02	-2.306771e+01
1.690885e+02	-2.311611e+01
1.700651e+02	-2.316697e+01
1.710474e+02	-2.321559e+01
1.720354e+02	-2.326584e+01
1.730291e+02	-2.331580e+01
1.740285e+02	-2.336483e+01
1.750337e+02	-2.341586e+01
1.760446e+02	-2.346456e+01
1.770615e+02	-2.351703e+01
1.780842e+02	-2.356601e+01
1.791128e+02	-2.361267e+01
1.801473e+02	-2.366544e+01
1.811878e+02	-2.371361e+01
1.822344e+02	-2.376564e+01
1.832870e+02	-2.381329e+01
1.843456e+02	-2.386376e+01
1.854104e+02	-2.391349e+01
1.864813e+02	-2.396518e+01
1.875584e+02	-2.401293e+01
1.886418e+02	-2.406519e+01
1.897313e+02	-2.411635e+01
1.908272e+02	-2.416439e+01
1.919294e+02	-2.421345e+01
1.930380e+02	-2.426619e+01
1.941530e+02	-2.431313e+01
1.952744e+02	-2.436205e+01
1.964023e+02	-2.441201e+01
1.975367e+02	-2.446419e+01
1.986777e+02	-2.451224e+01
1.998252e+02	-2.456128e+01
2.009794e+02	-2.461161e+01
2.021403e+02	-2.466480e+01
2.033078e+02	-2.471248e+01
2.044821e+02	-2.476154e+01
2.056632e+02	-2.481480e+01
2.068511e+02	-2.486309e+01
2.080459e+02	-2.491331e+01
2.092475e+02	-2.496157e+01
2.104561e+02	-2.501289e+01
2.116717e+02	-2.505994e+01
2.128943e+02	-2.511051e+01
2.141240e+02	-2.516239e+01
2.153608e+02	-2.521016e+01
2.166047e+02	-2.525881e+01
2.178558e+02	-2.530977e+01
2.191141e+02	-2.535892e+01
2.203797e+02	-2.541124e+01
2.216526e+02	-2.546114e+01
2.229329e+02	-2.550995e+01
2.242205e+02	-2.555958e+01
2.255156e+02	-2.561280e+01
2.268182e+02	-2.565999e+01
2.281283e+02	-2.571085e+01
2.294459e+02	-2.576050e+01
2.307712e+02	-2.580866e+01
2.321041e+02	-2.586012e+01
2.334447e+02	-2.590911e+01
2.347931e+02	-2.595976e+01
2.361493e+02	-2.601125e+01
2.375133e+02	-2.606260e+01
2.388851e+02	-2.610877e+01
2.402649e+02	-2.616069e+01
2.416527e+02	-2.620735e+01
2.430484e+02	-2.625893e+01
2.444523e+02	-2.630958e+01
2.458642e+02	-2.636214e+01
2.472843e+02	-2.641127e+01
2.487126e+02	-2.645999e+01
2.501492e+02	-2.651070e+01
2.515940e+02	-2.655874e+01
2.530472e+02	-2.661188e+01
2.545088e+02	-2.665920e+01
2.559789e+02	-2.670950e+01
2.574574e+02	-2.676352e+01
2.589444e+02	-2.680797e+01
2.604401e+02	-2.685825e+01
2.619444e+02	-2.690898e+01
2.634574e+02	-2.696078e+01
2.649791e+02	-2.701069e+01
2.665096e+02	-2.706198e+01
2.680489e+02	-2.710923e+01
2.695972e+02	-2.715662e+01
2.711544e+02	-2.721548e+01
2.727205e+02	-2.725782e+01
2.742958e+02	-2.730920e+01
2.758801e+02	-2.735950e+01
2.774736e+02	-2.741051e+01
2.790762e+02	-2.745879e+01
2.806882e+02	-2.750787e+01
2.823094e+02	-2.755817e+01
2.839400e+02	-2.760957e+01
2.855800e+02	-2.765700e+01
2.872295e+02	-2.771161e+01
2.888886e+02	-2.776407e+01
2.905572e+02	-2.781123e+01
2.922354e+02	-2.786154e+01
2.939234e+02	-2.790902e+01
2.956211e+02	-2.795698e+01
2.973286e+02	-2.801035e+01
2.990459e+02	-2.805592e+01
3.007732e+02	-2.810530e+01
3.025104e+02	-2.816034e+01
3.042577e+02	-2.820816e+01
3.060151e+02	-2.826028e+01
3.077826e+02	-2.830584e+01
3.095604e+02	-2.835993e+01
3.113484e+02	-2.840840e+01
3.131467e+02	-2.846007e+01
3.149554e+02	-2.850608e+01
3.167746e+02	-2.855496e+01
3.186043e+02	-2.860667e+01
3.204445e+02	-2.866013e+01
3.222954e+02	-2.871374e+01
3.241570e+02	-2.876065e+01
3.260293e+02	-2.880979e+01
3.279124e+02	-2.886286e+01
3.298064e+02	-2.890706e+01
3.317114e+02	-2.896061e+01
3.336273e+02	-2.900953e+01
3.355544e+02	-2.905598e+01
3.374925e+02	-2.911277e+01
3.394418e+02	-2.915557e+01
3.414024e+02	-2.920964e+01
3.433744e+02	-2.926134e+01
3.453577e+02	-2.930676e+01
3.473525e+02	-2.936444e+01
3.493588e+02	-2.940939e+01
3.513766e+02	-2.945856e+01
3.534062e+02	-2.950941e+01
3.554474e+02	-2.956314e+01
3.575005e+02	-2.960984e+01
3.595654e+02	-2.966116e+01
3.616422e+02	-2.971559e+01
3.637311e+02	-2.976381e+01
3.658320e+02	-2.980965e+01
3.679450e+02	-2.986574e+01
3.700702e+02	-2.991476e+01
3.722077e+02	-2.996304e+01
3.743576e+02	-3.001413e+01
3.765199e+02	-3.005914e+01
3.786946e+02	-3.012082e+01
3.808820e+02	-3.015984e+01
3.830819e+02	-3.020564e+01
3.852946e+02	-3.026298e+01
3.875200e+02	-3.031235e+01
3.897583e+02	-3.036278e+01
3.920096e+02	-3.041208e+01
3.942738e+02	-3.046088e+01
3.965511e+02	-3.051031e+01
3.988416e+02	-3.056131e+01
4.011452e+02	-3.061445e+01
4.034622e+02	-3.066032e+01
4.057926e+02	-3.071160e+01
4.081365e+02	-3.076541e+01
4.104938e+02	-3.080998e+01
4.128648e+02	-3.086305e+01
4.152495e+02	-3.091590e+01
4.176480e+02	-3.096176e+01
4.200603e+02	-3.101214e+01
4.224866e+02	-3.106406e+01
4.249268e+02	-3.111404e+01
4.273812e+02	-3.115900e+01
4.298497e+02	-3.121553e+01
4.323325e+02	-3.127049e+01
4.348297e+02	-3.131289e+01
4.373412e+02	-3.136357e+01
4.398673e+02	-3.141412e+01
4.424079e+02	-3.147141e+01
4.449633e+02	-3.151424e+01
4.475334e+02	-3.156428e+01
4.501183e+02	-3.161382e+01
4.527182e+02	-3.166646e+01
4.553330e+02	-3.171306e+01
4.579630e+02	-3.177308e+01
4.606082e+02	-3.181686e+01
4.632687e+02	-3.186397e+01
4.659445e+02	-3.191719e+01
4.686358e+02	-3.196636e+01
4.713426e+02	-3.201854e+01
4.740650e+02	-3.205983e+01
4.768032e+02	-3.211334e+01
4.795572e+02	-3.216384e+01
4.823271e+02	-3.221741e+01
4.851130e+02	-3.226307e+01
4.879150e+02	-3.231391e+01
4.907332e+02	-3.236448e+01
4.935676e+02	-3.241997e+01
4.964185e+02	-3.246659e+01
4.992858e+02	-3.251521e+01
5.021696e+02	-3.256702e+01
5.050701e+02	-3.262162e+01
5.079874e+02	-3.267165e+01
5.109215e+02	-3.271367e+01
5.138726e+02	-3.277266e+01
5.168407e+02	-3.281891e+01
5.198259e+02	-3.286948e+01
5.228284e+02	-3.291660e+01
5.258482e+02	-3.296870e+01
5.288855e+02	-3.301850e+01
5.319403e+02	-3.306806e+01
5.350128e+02	-3.312280e+01
5.381030e+02	-3.316987e+01
5.412111e+02	-3.322348e+01
5.443371e+02	-3.327319e+01
5.474812e+02	-3.332118e+01
5.506434e+02	-3.337489e+01
5.538239e+02	-3.342230e+01
5.570228e+02	-3.346633e+01
5.602401e+02	-3.351936e+01
5.634760e+02	-3.357237e+01
5.667306e+02	-3.362621e+01
5.700040e+02	-3.367135e+01
5.732964e+02	-3.372599e+01
5.766077e+02	-3.377650e+01
5.799382e+02	-3.381612e+01
5.832879e+02	-3.387888e+01
5.866569e+02	-3.392484e+01
5.900454e+02	-3.397397e+01
5.934535e+02	-3.402187e+01
5.968813e+02	-3.408052e+01
6.003288e+02	-3.412685e+01
6.037963e+02	-3.417030e+01
6.072838e+02	-3.421853e+01
6.107914e+02	-3.428238e+01
6.143194e+02	-3.433079e+01
6.178676e+02	-3.437687e+01
6.214364e+02	-3.442960e+01
6.250258e+02	-3.448548e+01
6.286359e+02	-3.452102e+01
6.322669e+02	-3.458674e+01
6.359189e+02	-3.463533e+01
6.395919e+02	-3.468019e+01
6.432862e+02	-3.473083e+01
6.470017e+02	-3.477529e+01
6.507388e+02	-3.483652e+01
6.544974e+02	-3.488101e+01
6.582778e+02	-3.492507e+01
6.620800e+02	-3.497818e+01
6.659041e+02	-3.504201e+01
6.697504e+02	-3.507585e+01
6.736188e+02	-3.513136e+01
6.775096e+02	-3.517976e+01
6.814229e+02	-3.523786e+01
6.853587e+02	-3.528237e+01
6.893173e+02	-3.534475e+01
6.932988e+02	-3.537993e+01
6.973033e+02	-3.543761e+01
7.013309e+02	-3.547944e+01
