Frequency(Hz)	Magnitude(dB)
1.000000e+01	-1.518231e-05
1.005776e+01	-1.535820e-05
1.011585e+01	-1.553613e-05
1.017428e+01	-1.571612e-05
1.023305e+01	-1.589819e-05
1.029215e+01	-1.608238e-05
1.035160e+01	-1.626870e-05
1.041139e+01	-1.645717e-05
1.047153e+01	-1.664784e-05
1.053201e+01	-1.684071e-05
1.059284e+01	-1.703581e-05
1.065403e+01	-1.723317e-05
1.071556e+01	-1.743282e-05
1.077746e+01	-1.763479e-05
1.083971e+01	-1.783909e-05
1.090232e+01	-1.804576e-05
1.096529e+01	-1.825483e-05
1.102862e+01	-1.846631e-05
1.109232e+01	-1.868025e-05
1.115639e+01	-1.889667e-05
1.122083e+01	-1.911559e-05
1.128564e+01	-1.933705e-05
1.135083e+01	-1.956107e-05
1.141639e+01	-1.978769e-05
1.148233e+01	-2.001694e-05
1.154865e+01	-2.024884e-05
1.161536e+01	-2.048343e-05
1.168245e+01	-2.072073e-05
1.174992e+01	-2.096079e-05
1.181779e+01	-2.120362e-05
1.188605e+01	-2.144927e-05
1.195470e+01	-2.169777e-05
1.202375e+01	-2.194914e-05
1.209320e+01	-2.220343e-05
1.216305e+01	-2.246066e-05
1.223330e+01	-2.272087e-05
1.230396e+01	-2.298410e-05
1.237503e+01	-2.325038e-05
1.244651e+01	-2.351974e-05
1.251840e+01	-2.379222e-05
1.259070e+01	-2.406786e-05
1.266343e+01	-2.434669e-05
1.273657e+01	-2.462875e-05
1.281014e+01	-2.491408e-05
1.288413e+01	-2.520272e-05
1.295855e+01	-2.549470e-05
1.303339e+01	-2.579006e-05
1.310867e+01	-2.608885e-05
1.318439e+01	-2.639109e-05
1.326054e+01	-2.669684e-05
1.333713e+01	-2.700613e-05
1.341417e+01	-2.731900e-05
1.349165e+01	-2.763550e-05
1.356958e+01	-2.795566e-05
1.364795e+01	-2.827953e-05
1.372678e+01	-2.860716e-05
1.380607e+01	-2.893858e-05
1.388581e+01	-2.927384e-05
1.396602e+01	-2.961299e-05
1.404668e+01	-2.995606e-05
1.412782e+01	-3.030311e-05
1.420942e+01	-3.065418e-05
1.429149e+01	-3.100931e-05
1.437404e+01	-3.136856e-05
1.445706e+01	-3.173197e-05
1.454057e+01	-3.209960e-05
1.462455e+01	-3.247148e-05
1.470902e+01	-3.284767e-05
1.479398e+01	-3.322822e-05
1.487943e+01	-3.361317e-05
1.496537e+01	-3.400259e-05
1.505181e+01	-3.439652e-05
1.513875e+01	-3.479501e-05
1.522619e+01	-3.519812e-05
1.531414e+01	-3.560589e-05
1.540259e+01	-3.601840e-05
1.549156e+01	-3.643568e-05
1.558103e+01	-3.685779e-05
1.567103e+01	-3.728480e-05
1.576155e+01	-3.771675e-05
1.585258e+01	-3.815371e-05
1.594415e+01	-3.859573e-05
1.603624e+01	-3.904287e-05
1.612886e+01	-3.949519e-05
1.622202e+01	-3.995275e-05
1.631572e+01	-4.041561e-05
1.640996e+01	-4.088384e-05
1.650474e+01	-4.135749e-05
1.660008e+01	-4.183662e-05
1.669596e+01	-4.232131e-05
1.679239e+01	-4.281161e-05
1.688938e+01	-4.330759e-05
1.698694e+01	-4.380932e-05
1.708505e+01	-4.431686e-05
1.718373e+01	-4.483028e-05
1.728299e+01	-4.534965e-05
1.738281e+01	-4.587504e-05
1.748322e+01	-4.640651e-05
1.758420e+01	-4.694414e-05
1.768576e+01	-4.748800e-05
1.778792e+01	-4.803815e-05
1.789066e+01	-4.859469e-05
1.799399e+01	-4.915767e-05
1.809793e+01	-4.972717e-05
1.820246e+01	-5.030327e-05
1.830760e+01	-5.088604e-05
1.841334e+01	-5.147557e-05
1.851969e+01	-5.207192e-05
1.862666e+01	-5.267519e-05
1.873425e+01	-5.328544e-05
1.884246e+01	-5.390276e-05
1.895129e+01	-5.452724e-05
1.906075e+01	-5.515895e-05
1.917085e+01	-5.579798e-05
1.928158e+01	-5.644441e-05
1.939295e+01	-5.709833e-05
1.950496e+01	-5.775982e-05
1.961762e+01	-5.842898e-05
1.973093e+01	-5.910589e-05
1.984490e+01	-5.979065e-05
1.995952e+01	-6.048333e-05
2.007480e+01	-6.118404e-05
2.019076e+01	-6.189287e-05
2.030738e+01	-6.260991e-05
2.042467e+01	-6.333526e-05
2.054264e+01	-6.406901e-05
2.066130e+01	-6.481127e-05
2.078064e+01	-6.556212e-05
2.090066e+01	-6.632167e-05
2.102139e+01	-6.709002e-05
2.114280e+01	-6.786727e-05
2.126492e+01	-6.865352e-05
2.138775e+01	-6.944889e-05
2.151128e+01	-7.025346e-05
2.163553e+01	-7.106736e-05
2.176050e+01	-7.189069e-05
2.188619e+01	-7.272356e-05
2.201260e+01	-7.356607e-05
2.213974e+01	-7.441835e-05
2.226762e+01	-7.528050e-05
2.239624e+01	-7.615264e-05
2.252560e+01	-7.703488e-05
2.265571e+01	-7.792734e-05
2.278656e+01	-7.883014e-05
2.291818e+01	-7.974340e-05
2.305055e+01	-8.066725e-05
2.318369e+01	-8.160179e-05
2.331760e+01	-8.254716e-05
2.345228e+01	-8.350348e-05
2.358774e+01	-8.447088e-05
2.372398e+01	-8.544949e-05
2.386101e+01	-8.643944e-05
2.399883e+01	-8.744086e-05
2.413745e+01	-8.845387e-05
2.427686e+01	-8.947862e-05
2.441709e+01	-9.051525e-05
2.455812e+01	-9.156388e-05
2.469997e+01	-9.262466e-05
2.484263e+01	-9.369773e-05
2.498612e+01	-9.478324e-05
2.513044e+01	-9.588132e-05
2.527559e+01	-9.699211e-05
2.542158e+01	-9.811578e-05
2.556842e+01	-9.925247e-05
2.571610e+01	-1.004023e-04
2.586463e+01	-1.015655e-04
2.601403e+01	-1.027421e-04
2.616428e+01	-1.039324e-04
2.631541e+01	-1.051365e-04
2.646740e+01	-1.063545e-04
2.662028e+01	-1.075867e-04
2.677404e+01	-1.088331e-04
2.692868e+01	-1.100939e-04
2.708422e+01	-1.113694e-04
2.724066e+01	-1.126596e-04
2.739800e+01	-1.139648e-04
2.755625e+01	-1.152851e-04
2.771541e+01	-1.166207e-04
2.787550e+01	-1.179717e-04
2.803650e+01	-1.193384e-04
2.819844e+01	-1.207210e-04
2.836131e+01	-1.221195e-04
2.852513e+01	-1.235343e-04
2.868989e+01	-1.249655e-04
2.885560e+01	-1.264132e-04
2.902227e+01	-1.278777e-04
2.918990e+01	-1.293592e-04
2.935850e+01	-1.308578e-04
2.952807e+01	-1.323738e-04
2.969863e+01	-1.339074e-04
2.987016e+01	-1.354587e-04
3.004269e+01	-1.370280e-04
3.021622e+01	-1.386155e-04
3.039075e+01	-1.402214e-04
3.056628e+01	-1.418459e-04
3.074283e+01	-1.434892e-04
3.092040e+01	-1.451515e-04
3.109900e+01	-1.468331e-04
3.127862e+01	-1.485342e-04
3.145929e+01	-1.502550e-04
3.164099e+01	-1.519957e-04
3.182375e+01	-1.537565e-04
3.200756e+01	-1.555378e-04
3.219244e+01	-1.573397e-04
3.237838e+01	-1.591625e-04
3.256540e+01	-1.610064e-04
3.275349e+01	-1.628717e-04
3.294268e+01	-1.647586e-04
3.313295e+01	-1.666673e-04
3.332433e+01	-1.685982e-04
3.351681e+01	-1.705514e-04
3.371040e+01	-1.725272e-04
3.390511e+01	-1.745260e-04
3.410094e+01	-1.765479e-04
3.429791e+01	-1.785932e-04
3.449601e+01	-1.806622e-04
3.469526e+01	-1.827552e-04
3.489566e+01	-1.848724e-04
3.509721e+01	-1.870142e-04
3.529993e+01	-1.891807e-04
3.550382e+01	-1.913724e-04
3.570889e+01	-1.935894e-04
3.591515e+01	-1.958322e-04
3.612259e+01	-1.981009e-04
3.633123e+01	-2.003959e-04
3.654108e+01	-2.027175e-04
3.675214e+01	-2.050660e-04
3.696442e+01	-2.074416e-04
3.717792e+01	-2.098449e-04
3.739266e+01	-2.122759e-04
3.760864e+01	-2.147351e-04
3.782587e+01	-2.172228e-04
3.804435e+01	-2.197394e-04
3.826409e+01	-2.222850e-04
3.848510e+01	-2.248602e-04
3.870739e+01	-2.274652e-04
3.893096e+01	-2.301004e-04
3.915583e+01	-2.327661e-04
3.938199e+01	-2.354627e-04
3.960946e+01	-2.381905e-04
3.983824e+01	-2.409499e-04
4.006834e+01	-2.437413e-04
4.029978e+01	-2.465650e-04
4.053255e+01	-2.494215e-04
4.076666e+01	-2.523110e-04
4.100213e+01	-2.552340e-04
4.123896e+01	-2.581909e-04
4.147715e+01	-2.611820e-04
4.171672e+01	-2.642078e-04
4.195767e+01	-2.672686e-04
4.220002e+01	-2.703649e-04
4.244377e+01	-2.734971e-04
4.268892e+01	-2.766655e-04
4.293549e+01	-2.798706e-04
4.318348e+01	-2.831129e-04
4.343291e+01	-2.863927e-04
4.368377e+01	-2.897106e-04
4.393609e+01	-2.930668e-04
4.418986e+01	-2.964620e-04
4.444510e+01	-2.998965e-04
4.470182e+01	-3.033707e-04
4.496001e+01	-3.068852e-04
4.521970e+01	-3.104405e-04
4.548089e+01	-3.140369e-04
4.574358e+01	-3.176749e-04
4.600779e+01	-3.213552e-04
4.627353e+01	-3.250780e-04
4.654081e+01	-3.288440e-04
4.680963e+01	-3.326536e-04
4.708000e+01	-3.365073e-04
4.735193e+01	-3.404057e-04
4.762543e+01	-3.443492e-04
4.790051e+01	-3.483385e-04
4.817719e+01	-3.523739e-04
4.845545e+01	-3.564561e-04
4.873533e+01	-3.605855e-04
4.901682e+01	-3.647628e-04
4.929994e+01	-3.689885e-04
4.958470e+01	-3.732632e-04
4.987110e+01	-3.775874e-04
5.015915e+01	-3.819616e-04
5.044887e+01	-3.863866e-04
5.074026e+01	-3.908628e-04
5.103333e+01	-3.953908e-04
5.132810e+01	-3.999713e-04
5.162457e+01	-4.046049e-04
5.192275e+01	-4.092921e-04
5.222265e+01	-4.140336e-04
5.252429e+01	-4.188301e-04
5.282767e+01	-4.236821e-04
5.313280e+01	-4.285904e-04
5.343969e+01	-4.335555e-04
5.374836e+01	-4.385781e-04
5.405880e+01	-4.436589e-04
5.437105e+01	-4.487985e-04
5.468509e+01	-4.539977e-04
5.500095e+01	-4.592571e-04
5.531863e+01	-4.645774e-04
5.563815e+01	-4.699594e-04
5.595951e+01	-4.754037e-04
5.628273e+01	-4.809111e-04
5.660782e+01	-4.864823e-04
5.693479e+01	-4.921180e-04
5.726364e+01	-4.978190e-04
5.759439e+01	-5.035860e-04
5.792705e+01	-5.094198e-04
5.826164e+01	-5.153213e-04
5.859815e+01	-5.212910e-04
5.893662e+01	-5.273300e-04
5.927703e+01	-5.334389e-04
5.961941e+01	-5.396185e-04
5.996377e+01	-5.458698e-04
6.031012e+01	-5.521934e-04
6.065847e+01	-5.585903e-04
6.100883e+01	-5.650613e-04
6.136121e+01	-5.716073e-04
6.171563e+01	-5.782291e-04
6.207210e+01	-5.849275e-04
6.243063e+01	-5.917036e-04
6.279122e+01	-5.985582e-04
6.315390e+01	-6.054922e-04
6.351868e+01	-6.125065e-04
6.388556e+01	-6.196020e-04
6.425456e+01	-6.267798e-04
6.462569e+01	-6.340407e-04
6.499897e+01	-6.413857e-04
6.537440e+01	-6.488157e-04
6.575200e+01	-6.563319e-04
6.613178e+01	-6.639351e-04
6.651375e+01	-6.716263e-04
6.689793e+01	-6.794067e-04
6.728433e+01	-6.872772e-04
6.767297e+01	-6.952389e-04
6.806384e+01	-7.032927e-04
6.845698e+01	-7.114399e-04
6.885238e+01	-7.196815e-04
6.925007e+01	-7.280185e-04
6.965005e+01	-7.364520e-04
7.005235e+01	-7.449833e-04
7.045697e+01	-7.536134e-04
7.086393e+01	-7.623434e-04
7.127323e+01	-7.711746e-04
7.168490e+01	-7.801081e-04
7.209895e+01	-7.891450e-04
7.251539e+01	-7.982867e-04
7.293424e+01	-8.075342e-04
7.335551e+01	-8.168888e-04
7.377920e+01	-8.263518e-04
7.420535e+01	-8.359244e-04
7.463396e+01	-8.456078e-04
7.506504e+01	-8.554035e-04
7.549861e+01	-8.653126e-04
7.593469e+01	-8.753364e-04
7.637328e+01	-8.854764e-04
7.681441e+01	-8.957338e-04
7.725809e+01	-9.061101e-04
7.770433e+01	-9.166065e-04
7.815315e+01	-9.272245e-04
7.860456e+01	-9.379655e-04
7.905857e+01	-9.488309e-04
7.951521e+01	-9.598221e-04
7.997449e+01	-9.709407e-04
8.043642e+01	-9.821880e-04
8.090102e+01	-9.935656e-04
8.136830e+01	-1.005075e-03
8.183828e+01	-1.016718e-03
8.231097e+01	-1.028495e-03
8.278640e+01	-1.040409e-03
8.326457e+01	-1.052461e-03
8.374550e+01	-1.064653e-03
8.422921e+01	-1.076986e-03
8.471572e+01	-1.089461e-03
8.520503e+01	-1.102081e-03
8.569717e+01	-1.114848e-03
8.619215e+01	-1.127762e-03
8.669000e+01	-1.140825e-03
8.719071e+01	-1.154040e-03
8.769432e+01	-1.167408e-03
8.820084e+01	-1.180931e-03
8.871029e+01	-1.194611e-03
8.922267e+01	-1.208449e-03
8.973802e+01	-1.222447e-03
9.025634e+01	-1.236607e-03
9.077766e+01	-1.250932e-03
9.130199e+01	-1.265422e-03
9.182935e+01	-1.280080e-03
9.235975e+01	-1.294908e-03
9.289321e+01	-1.309908e-03
9.342976e+01	-1.325081e-03
9.396941e+01	-1.340430e-03
9.451217e+01	-1.355957e-03
9.505807e+01	-1.371663e-03
9.560712e+01	-1.387552e-03
9.615934e+01	-1.403625e-03
9.671476e+01	-1.419883e-03
9.727338e+01	-1.436330e-03
9.783522e+01	-1.452968e-03
9.840032e+01	-1.469798e-03
9.896867e+01	-1.486823e-03
9.954031e+01	-1.504045e-03
1.001153e+02	-1.521467e-03
1.006935e+02	-1.539091e-03
1.012751e+02	-1.556918e-03
1.018601e+02	-1.574952e-03
1.024484e+02	-1.593195e-03
1.030402e+02	-1.611649e-03
1.036353e+02	-1.630317e-03
1.042339e+02	-1.649201e-03
1.048360e+02	-1.668304e-03
1.054415e+02	-1.687628e-03
1.060505e+02	-1.707176e-03
1.066631e+02	-1.726950e-03
1.072791e+02	-1.746953e-03
1.078988e+02	-1.767188e-03
1.085220e+02	-1.787657e-03
1.091488e+02	-1.808363e-03
1.097793e+02	-1.829309e-03
1.104133e+02	-1.850498e-03
1.110511e+02	-1.871931e-03
1.116925e+02	-1.893614e-03
1.123376e+02	-1.915547e-03
1.129865e+02	-1.937734e-03
1.136391e+02	-1.960178e-03
1.142955e+02	-1.982882e-03
1.149556e+02	-2.005849e-03
1.156196e+02	-2.029082e-03
1.162874e+02	-2.052584e-03
1.169591e+02	-2.076358e-03
1.176347e+02	-2.100407e-03
1.183141e+02	-2.124735e-03
1.189975e+02	-2.149344e-03
1.196848e+02	-2.174239e-03
1.203761e+02	-2.199422e-03
1.210714e+02	-2.224896e-03
1.217707e+02	-2.250665e-03
1.224740e+02	-2.276733e-03
1.231814e+02	-2.303102e-03
1.238929e+02	-2.329777e-03
1.246085e+02	-2.356761e-03
1.253283e+02	-2.384057e-03
1.260522e+02	-2.411670e-03
1.267802e+02	-2.439602e-03
1.275125e+02	-2.467857e-03
1.282490e+02	-2.496439e-03
1.289898e+02	-2.525353e-03
1.297348e+02	-2.554601e-03
1.304842e+02	-2.584188e-03
1.312378e+02	-2.614118e-03
1.319959e+02	-2.644394e-03
1.327583e+02	-2.675020e-03
1.335251e+02	-2.706001e-03
1.342963e+02	-2.737341e-03
1.350720e+02	-2.769044e-03
1.358522e+02	-2.801114e-03
1.366368e+02	-2.833555e-03
1.374260e+02	-2.866371e-03
1.382198e+02	-2.899568e-03
1.390182e+02	-2.933149e-03
1.398211e+02	-2.967118e-03
1.406287e+02	-3.001481e-03
1.414410e+02	-3.036242e-03
1.422579e+02	-3.071405e-03
1.430796e+02	-3.106976e-03
1.439060e+02	-3.142958e-03
1.447372e+02	-3.179356e-03
1.455732e+02	-3.216176e-03
1.464141e+02	-3.253423e-03
1.472597e+02	-3.291100e-03
1.481103e+02	-3.329214e-03
1.489658e+02	-3.367768e-03
1.498262e+02	-3.406770e-03
1.506916e+02	-3.446222e-03
1.515620e+02	-3.486132e-03
1.524374e+02	-3.526503e-03
1.533179e+02	-3.567342e-03
1.542034e+02	-3.608653e-03
1.550941e+02	-3.650442e-03
1.559899e+02	-3.692716e-03
1.568909e+02	-3.735478e-03
1.577971e+02	-3.778736e-03
1.587085e+02	-3.822494e-03
1.596252e+02	-3.866759e-03
1.605472e+02	-3.911536e-03
1.614745e+02	-3.956832e-03
1.624072e+02	-4.002652e-03
1.633453e+02	-4.049002e-03
1.642887e+02	-4.095888e-03
1.652377e+02	-4.143318e-03
1.661921e+02	-4.191296e-03
1.671520e+02	-4.239829e-03
1.681175e+02	-4.288924e-03
1.690885e+02	-4.338588e-03
1.700651e+02	-4.388826e-03
1.710474e+02	-4.439646e-03
1.720354e+02	-4.491053e-03
1.730291e+02	-4.543056e-03
1.740285e+02	-4.595661e-03
1.750337e+02	-4.648874e-03
1.760446e+02	-4.702703e-03
1.770615e+02	-4.757155e-03
1.780842e+02	-4.812238e-03
1.791128e+02	-4.867957e-03
1.801473e+02	-4.924322e-03
1.811878e+02	-4.981339e-03
1.822344e+02	-5.039015e-03
1.832870e+02	-5.097359e-03
1.843456e+02	-5.156378e-03
1.854104e+02	-5.216080e-03
1.864813e+02	-5.276473e-03
1.875584e+02	-5.337565e-03
1.886418e+02	-5.399363e-03
1.897313e+02	-5.461877e-03
1.908272e+02	-5.525114e-03
1.919294e+02	-5.589082e-03
1.930380e+02	-5.653791e-03
1.941530e+02	-5.719248e-03
1.952744e+02	-5.785463e-03
1.964023e+02	-5.852444e-03
1.975367e+02	-5.920199e-03
1.986777e+02	-5.988739e-03
1.998252e+02	-6.058072e-03
2.009794e+02	-6.128206e-03
2.021403e+02	-6.199152e-03
2.033078e+02	-6.270919e-03
2.044821e+02	-6.343516e-03
2.056632e+02	-6.416953e-03
2.068511e+02	-6.491239e-03
2.080459e+02	-6.566385e-03
2.092475e+02	-6.642400e-03
2.104561e+02	-6.719294e-03
2.116717e+02	-6.797077e-03
2.128943e+02	-6.875761e-03
2.141240e+02	-6.955354e-03
2.153608e+02	-7.035868e-03
2.166047e+02	-7.117314e-03
2.178558e+02	-7.199701e-03
2.191141e+02	-7.283041e-03
2.203797e+02	-7.367345e-03
2.216526e+02	-7.452624e-03
2.229329e+02	-7.538890e-03
2.242205e+02	-7.626153e-03
2.255156e+02	-7.714425e-03
2.268182e+02	-7.803718e-03
2.281283e+02	-7.894044e-03
2.294459e+02	-7.985414e-03
2.307712e+02	-8.077840e-03
2.321041e+02	-8.171336e-03
2.334447e+02	-8.265913e-03
2.347931e+02	-8.361583e-03
2.361493e+02	-8.458359e-03
2.375133e+02	-8.556255e-03
2.388851e+02	-8.655282e-03
2.402649e+02	-8.755454e-03
2.416527e+02	-8.856784e-03
2.430484e+02	-8.959286e-03
2.444523e+02	-9.062973e-03
2.458642e+02	-9.167859e-03
2.472843e+02	-9.273957e-03
2.487126e+02	-9.381282e-03
2.501492e+02	-9.489847e-03
2.515940e+02	-9.599667e-03
2.530472e+02	-9.710757e-03
2.545088e+02	-9.823131e-03
2.559789e+02	-9.936804e-03
2.574574e+02	-1.005179e-02
2.589444e+02	-1.016811e-02
2.604401e+02	-1.028577e-02
2.619444e+02	-1.040479e-02
2.634574e+02	-1.052518e-02
2.649791e+02	-1.064697e-02
2.665096e+02	-1.077016e-02
2.680489e+02	-1.089478e-02
2.695972e+02	-1.102084e-02
2.711544e+02	-1.114835e-02
2.727205e+02	-1.127734e-02
2.742958e+02	-1.140782e-02
2.758801e+02	-1.153981e-02
2.774736e+02	-1.167332e-02
2.790762e+02	-1.180837e-02
2.806882e+02	-1.194499e-02
2.823094e+02	-1.208318e-02
2.839400e+02	-1.222297e-02
2.855800e+02	-1.236437e-02
2.872295e+02	-1.250741e-02
2.888886e+02	-1.265210e-02
2.905572e+02	-1.279846e-02
2.922354e+02	-1.294651e-02
2.939234e+02	-1.309627e-02
2.956211e+02	-1.324776e-02
2.973286e+02	-1.340100e-02
2.990459e+02	-1.355602e-02
3.007732e+02	-1.371282e-02
3.025104e+02	-1.387143e-02
3.042577e+02	-1.403187e-02
3.060151e+02	-1.419417e-02
3.077826e+02	-1.435834e-02
3.095604e+02	-1.452440e-02
3.113484e+02	-1.469239e-02
3.131467e+02	-1.486231e-02
3.149554e+02	-1.503419e-02
3.167746e+02	-1.520806e-02
3.186043e+02	-1.538394e-02
3.204445e+02	-1.556185e-02
3.222954e+02	-1.574181e-02
3.241570e+02	-1.592384e-02
3.260293e+02	-1.610798e-02
3.279124e+02	-1.629424e-02
3.298064e+02	-1.648266e-02
3.317114e+02	-1.667325e-02
3.336273e+02	-1.686603e-02
3.355544e+02	-1.706104e-02
3.374925e+02	-1.725831e-02
3.394418e+02	-1.745785e-02
3.414024e+02	-1.765969e-02
3.433744e+02	-1.786386e-02
3.453577e+02	-1.807038e-02
3.473525e+02	-1.827929e-02
3.493588e+02	-1.849061e-02
3.513766e+02	-1.870436e-02
3.534062e+02	-1.892058e-02
3.554474e+02	-1.913930e-02
3.575005e+02	-1.936053e-02
3.595654e+02	-1.958432e-02
3.616422e+02	-1.981069e-02
3.637311e+02	-2.003967e-02
3.658320e+02	-2.027129e-02
3.679450e+02	-2.050559e-02
3.700702e+02	-2.074258e-02
3.722077e+02	-2.098230e-02
3.743576e+02	-2.122479e-02
3.765199e+02	-2.147008e-02
3.786946e+02	-2.171819e-02
3.808820e+02	-2.196916e-02
3.830819e+02	-2.222303e-02
3.852946e+02	-2.247982e-02
3.875200e+02	-2.273957e-02
3.897583e+02	-2.300231e-02
3.920096e+02	-2.326808e-02
3.942738e+02	-2.353692e-02
3.965511e+02	-2.380885e-02
3.988416e+02	-2.408391e-02
4.011452e+02	-2.436214e-02
4.034622e+02	-2.464358e-02
4.057926e+02	-2.492826e-02
4.081365e+02	-2.521622e-02
4.104938e+02	-2.550749e-02
4.128648e+02	-2.580212e-02
4.152495e+02	-2.610015e-02
4.176480e+02	-2.640160e-02
4.200603e+02	-2.670653e-02
4.224866e+02	-2.701496e-02
4.249268e+02	-2.732695e-02
4.273812e+02	-2.764253e-02
4.298497e+02	-2.796174e-02
4.323325e+02	-2.828463e-02
4.348297e+02	-2.861123e-02
4.373412e+02	-2.894159e-02
4.398673e+02	-2.927575e-02
4.424079e+02	-2.961375e-02
4.449633e+02	-2.995565e-02
4.475334e+02	-3.030148e-02
4.501183e+02	-3.065129e-02
4.527182e+02	-3.100512e-02
4.553330e+02	-3.136302e-02
4.579630e+02	-3.172504e-02
4.606082e+02	-3.209122e-02
4.632687e+02	-3.246161e-02
4.659445e+02	-3.283626e-02
4.686358e+02	-3.321521e-02
4.713426e+02	-3.359853e-02
4.740650e+02	-3.398625e-02
4.768032e+02	-3.437842e-02
4.795572e+02	-3.477511e-02
4.823271e+02	-3.517635e-02
4.851130e+02	-3.558220e-02
4.879150e+02	-3.599272e-02
4.907332e+02	-3.640795e-02
4.935676e+02	-3.682795e-02
4.964185e+02	-3.725277e-02
4.992858e+02	-3.768248e-02
5.021696e+02	-3.811712e-02
5.050701e+02	-3.855675e-02
5.079874e+02	-3.900143e-02
5.109215e+02	-3.945121e-02
5.138726e+02	-3.990616e-02
5.168407e+02	-4.036633e-02
5.198259e+02	-4.083178e-02
5.228284e+02	-4.130257e-02
5.258482e+02	-4.177876e-02
5.288855e+02	-4.226042e-02
5.319403e+02	-4.274760e-02
5.350128e+02	-4.324037e-02
5.381030e+02	-4.373879e-02
5.412111e+02	-4.424293e-02
5.443371e+02	-4.475284e-02
5.474812e+02	-4.526861e-02
5.506434e+02	-4.579029e-02
5.538239e+02	-4.631794e-02
5.570228e+02	-4.685165e-02
5.602401e+02	-4.739147e-02
5.634760e+02	-4.793747e-02
5.667306e+02	-4.848973e-02
5.700040e+02	-4.904832e-02
5.732964e+02	-4.961330e-02
5.766077e+02	-5.018476e-02
5.799382e+02	-5.076276e-02
5.832879e+02	-5.134737e-02
5.866569e+02	-5.193868e-02
5.900454e+02	-5.253676e-02
5.934535e+02	-5.314168e-02
5.968813e+02	-5.375352e-02
6.003288e+02	-5.437236e-02
6.037963e+02	-5.499828e-02
6.072838e+02	-5.563136e-02
6.107914e+02	-5.627168e-02
6.143194e+02	-5.691933e-02
6.178676e+02	-5.757437e-02
6.214364e+02	-5.823691e-02
6.250258e+02	-5.890702e-02
6.286359e+02	-5.958478e-02
6.322669e+02	-6.027029e-02
6.359189e+02	-6.096363e-02
6.395919e+02	-6.166488e-02
6.432862e+02	-6.237415e-02
6.470017e+02	-6.309152e-02
6.507388e+02	-6.381707e-02
6.544974e+02	-6.455091e-02
6.582778e+02	-6.529312e-02
6.620800e+02	-6.604380e-02
6.659041e+02	-6.680304e-02
6.697504e+02	-6.757095e-02
6.736188e+02	-6.834761e-02
6.775096e+02	-6.913312e-02
6.814229e+02	-6.992760e-02
6.853587e+02	-7.073112e-02
6.893173e+02	-7.154381e-02
6.932988e+02	-7.236575e-02
6.973033e+02	-7.319706e-02
7.013309e+02	-7.403783e-02
