Frequency(Hz)	Magnitude(dB)
1.000000e+01	-1.501863e-05
1.005776e+01	-1.519263e-05
1.011585e+01	-1.536864e-05
1.017428e+01	-1.554669e-05
1.023305e+01	-1.572680e-05
1.029215e+01	-1.590900e-05
1.035160e+01	-1.609331e-05
1.041139e+01	-1.627975e-05
1.047153e+01	-1.646836e-05
1.053201e+01	-1.665915e-05
1.059284e+01	-1.685215e-05
1.065403e+01	-1.704739e-05
1.071556e+01	-1.724489e-05
1.077746e+01	-1.744467e-05
1.083971e+01	-1.764677e-05
1.090232e+01	-1.785122e-05
1.096529e+01	-1.805803e-05
1.102862e+01	-1.826723e-05
1.109232e+01	-1.847886e-05
1.115639e+01	-1.869295e-05
1.122083e+01	-1.890951e-05
1.128564e+01	-1.912858e-05
1.135083e+01	-1.935019e-05
1.141639e+01	-1.957437e-05
1.148233e+01	-1.980114e-05
1.154865e+01	-2.003054e-05
1.161536e+01	-2.026260e-05
1.168245e+01	-2.049735e-05
1.174992e+01	-2.073481e-05
1.181779e+01	-2.097503e-05
1.188605e+01	-2.121803e-05
1.195470e+01	-2.146385e-05
1.202375e+01	-2.171251e-05
1.209320e+01	-2.196406e-05
1.216305e+01	-2.221852e-05
1.223330e+01	-2.247593e-05
1.230396e+01	-2.273631e-05
1.237503e+01	-2.299972e-05
1.244651e+01	-2.326618e-05
1.251840e+01	-2.353572e-05
1.259070e+01	-2.380839e-05
1.266343e+01	-2.408422e-05
1.273657e+01	-2.436324e-05
1.281014e+01	-2.464549e-05
1.288413e+01	-2.493102e-05
1.295855e+01	-2.521985e-05
1.303339e+01	-2.551203e-05
1.310867e+01	-2.580759e-05
1.318439e+01	-2.610658e-05
1.326054e+01	-2.640903e-05
1.333713e+01	-2.671498e-05
1.341417e+01	-2.702448e-05
1.349165e+01	-2.733757e-05
1.356958e+01	-2.765428e-05
1.364795e+01	-2.797466e-05
1.372678e+01	-2.829875e-05
1.380607e+01	-2.862660e-05
1.388581e+01	-2.895825e-05
1.396602e+01	-2.929374e-05
1.404668e+01	-2.963311e-05
1.412782e+01	-2.997642e-05
1.420942e+01	-3.032370e-05
1.429149e+01	-3.067501e-05
1.437404e+01	-3.103039e-05
1.445706e+01	-3.138988e-05
1.454057e+01	-3.175354e-05
1.462455e+01	-3.212141e-05
1.470902e+01	-3.249355e-05
1.479398e+01	-3.286999e-05
1.487943e+01	-3.325080e-05
1.496537e+01	-3.363602e-05
1.505181e+01	-3.402570e-05
1.513875e+01	-3.441989e-05
1.522619e+01	-3.481866e-05
1.531414e+01	-3.522204e-05
1.540259e+01	-3.563009e-05
1.549156e+01	-3.604288e-05
1.558103e+01	-3.646044e-05
1.567103e+01	-3.688284e-05
1.576155e+01	-3.731014e-05
1.585258e+01	-3.774239e-05
1.594415e+01	-3.817964e-05
1.603624e+01	-3.862196e-05
1.612886e+01	-3.906941e-05
1.622202e+01	-3.952203e-05
1.631572e+01	-3.997991e-05
1.640996e+01	-4.044308e-05
1.650474e+01	-4.091162e-05
1.660008e+01	-4.138559e-05
1.669596e+01	-4.186506e-05
1.679239e+01	-4.235007e-05
1.688938e+01	-4.284071e-05
1.698694e+01	-4.333703e-05
1.708505e+01	-4.383910e-05
1.718373e+01	-4.434698e-05
1.728299e+01	-4.486075e-05
1.738281e+01	-4.538047e-05
1.748322e+01	-4.590621e-05
1.758420e+01	-4.643805e-05
1.768576e+01	-4.697604e-05
1.778792e+01	-4.752027e-05
1.789066e+01	-4.807080e-05
1.799399e+01	-4.862771e-05
1.809793e+01	-4.919108e-05
1.820246e+01	-4.976097e-05
1.830760e+01	-5.033746e-05
1.841334e+01	-5.092063e-05
1.851969e+01	-5.151055e-05
1.862666e+01	-5.210731e-05
1.873425e+01	-5.271099e-05
1.884246e+01	-5.332166e-05
1.895129e+01	-5.393940e-05
1.906075e+01	-5.456430e-05
1.917085e+01	-5.519644e-05
1.928158e+01	-5.583590e-05
1.939295e+01	-5.648277e-05
1.950496e+01	-5.713713e-05
1.961762e+01	-5.779908e-05
1.973093e+01	-5.846869e-05
1.984490e+01	-5.914606e-05
1.995952e+01	-5.983128e-05
2.007480e+01	-6.052444e-05
2.019076e+01	-6.122563e-05
2.030738e+01	-6.193494e-05
2.042467e+01	-6.265247e-05
2.054264e+01	-6.337831e-05
2.066130e+01	-6.411256e-05
2.078064e+01	-6.485531e-05
2.090066e+01	-6.560668e-05
2.102139e+01	-6.636674e-05
2.114280e+01	-6.713561e-05
2.126492e+01	-6.791339e-05
2.138775e+01	-6.870018e-05
2.151128e+01	-6.949609e-05
2.163553e+01	-7.030121e-05
2.176050e+01	-7.111566e-05
2.188619e+01	-7.193955e-05
2.201260e+01	-7.277298e-05
2.213974e+01	-7.361607e-05
2.226762e+01	-7.446893e-05
2.239624e+01	-7.533166e-05
2.252560e+01	-7.620439e-05
2.265571e+01	-7.708724e-05
2.278656e+01	-7.798030e-05
2.291818e+01	-7.888372e-05
2.305055e+01	-7.979760e-05
2.318369e+01	-8.072207e-05
2.331760e+01	-8.165725e-05
2.345228e+01	-8.260326e-05
2.358774e+01	-8.356024e-05
2.372398e+01	-8.452829e-05
2.386101e+01	-8.550757e-05
2.399883e+01	-8.649819e-05
2.413745e+01	-8.750028e-05
2.427686e+01	-8.851399e-05
2.441709e+01	-8.953944e-05
2.455812e+01	-9.057677e-05
2.469997e+01	-9.162611e-05
2.484263e+01	-9.268762e-05
2.498612e+01	-9.376142e-05
2.513044e+01	-9.484766e-05
2.527559e+01	-9.594648e-05
2.542158e+01	-9.705803e-05
2.556842e+01	-9.818247e-05
2.571610e+01	-9.931992e-05
2.586463e+01	-1.004706e-04
2.601403e+01	-1.016345e-04
2.616428e+01	-1.028120e-04
2.631541e+01	-1.040031e-04
2.646740e+01	-1.052080e-04
2.662028e+01	-1.064268e-04
2.677404e+01	-1.076598e-04
2.692868e+01	-1.089070e-04
2.708422e+01	-1.101687e-04
2.724066e+01	-1.114451e-04
2.739800e+01	-1.127362e-04
2.755625e+01	-1.140422e-04
2.771541e+01	-1.153634e-04
2.787550e+01	-1.166999e-04
2.803650e+01	-1.180519e-04
2.819844e+01	-1.194195e-04
2.836131e+01	-1.208030e-04
2.852513e+01	-1.222025e-04
2.868989e+01	-1.236183e-04
2.885560e+01	-1.250504e-04
2.902227e+01	-1.264991e-04
2.918990e+01	-1.279646e-04
2.935850e+01	-1.294471e-04
2.952807e+01	-1.309468e-04
2.969863e+01	-1.324638e-04
2.987016e+01	-1.339984e-04
3.004269e+01	-1.355508e-04
3.021622e+01	-1.371212e-04
3.039075e+01	-1.387097e-04
3.056628e+01	-1.403167e-04
3.074283e+01	-1.419423e-04
3.092040e+01	-1.435867e-04
3.109900e+01	-1.452502e-04
3.127862e+01	-1.469329e-04
3.145929e+01	-1.486351e-04
3.164099e+01	-1.503571e-04
3.182375e+01	-1.520990e-04
3.200756e+01	-1.538610e-04
3.219244e+01	-1.556435e-04
3.237838e+01	-1.574467e-04
3.256540e+01	-1.592707e-04
3.275349e+01	-1.611159e-04
3.294268e+01	-1.629824e-04
3.313295e+01	-1.648706e-04
3.332433e+01	-1.667806e-04
3.351681e+01	-1.687128e-04
3.371040e+01	-1.706673e-04
3.390511e+01	-1.726445e-04
3.410094e+01	-1.746446e-04
3.429791e+01	-1.766679e-04
3.449601e+01	-1.787146e-04
3.469526e+01	-1.807850e-04
3.489566e+01	-1.828794e-04
3.509721e+01	-1.849980e-04
3.529993e+01	-1.871413e-04
3.550382e+01	-1.893093e-04
3.570889e+01	-1.915024e-04
3.591515e+01	-1.937210e-04
3.612259e+01	-1.959653e-04
3.633123e+01	-1.982355e-04
3.654108e+01	-2.005321e-04
3.675214e+01	-2.028552e-04
3.696442e+01	-2.052053e-04
3.717792e+01	-2.075826e-04
3.739266e+01	-2.099875e-04
3.760864e+01	-2.124202e-04
3.782587e+01	-2.148811e-04
3.804435e+01	-2.173705e-04
3.826409e+01	-2.198887e-04
3.848510e+01	-2.224361e-04
3.870739e+01	-2.250130e-04
3.893096e+01	-2.276198e-04
3.915583e+01	-2.302568e-04
3.938199e+01	-2.329243e-04
3.960946e+01	-2.356227e-04
3.983824e+01	-2.383524e-04
4.006834e+01	-2.411137e-04
4.029978e+01	-2.439070e-04
4.053255e+01	-2.467326e-04
4.076666e+01	-2.495910e-04
4.100213e+01	-2.524825e-04
4.123896e+01	-2.554075e-04
4.147715e+01	-2.583664e-04
4.171672e+01	-2.613595e-04
4.195767e+01	-2.643874e-04
4.220002e+01	-2.674503e-04
4.244377e+01	-2.705487e-04
4.268892e+01	-2.736829e-04
4.293549e+01	-2.768535e-04
4.318348e+01	-2.800608e-04
4.343291e+01	-2.833053e-04
4.368377e+01	-2.865874e-04
4.393609e+01	-2.899075e-04
4.418986e+01	-2.932660e-04
4.444510e+01	-2.966635e-04
4.470182e+01	-3.001003e-04
4.496001e+01	-3.035769e-04
4.521970e+01	-3.070938e-04
4.548089e+01	-3.106514e-04
4.574358e+01	-3.142503e-04
4.600779e+01	-3.178908e-04
4.627353e+01	-3.215736e-04
4.654081e+01	-3.252989e-04
4.680963e+01	-3.290675e-04
4.708000e+01	-3.328797e-04
4.735193e+01	-3.367360e-04
4.762543e+01	-3.406370e-04
4.790051e+01	-3.445833e-04
4.817719e+01	-3.485752e-04
4.845545e+01	-3.526134e-04
4.873533e+01	-3.566983e-04
4.901682e+01	-3.608306e-04
4.929994e+01	-3.650108e-04
4.958470e+01	-3.692393e-04
4.987110e+01	-3.735169e-04
5.015915e+01	-3.778440e-04
5.044887e+01	-3.822212e-04
5.074026e+01	-3.866492e-04
5.103333e+01	-3.911284e-04
5.132810e+01	-3.956595e-04
5.162457e+01	-4.002431e-04
5.192275e+01	-4.048798e-04
5.222265e+01	-4.095703e-04
5.252429e+01	-4.143150e-04
5.282767e+01	-4.191148e-04
5.313280e+01	-4.239701e-04
5.343969e+01	-4.288816e-04
5.374836e+01	-4.338501e-04
5.405880e+01	-4.388761e-04
5.437105e+01	-4.439604e-04
5.468509e+01	-4.491035e-04
5.500095e+01	-4.543062e-04
5.531863e+01	-4.595692e-04
5.563815e+01	-4.648932e-04
5.595951e+01	-4.702788e-04
5.628273e+01	-4.757268e-04
5.660782e+01	-4.812379e-04
5.693479e+01	-4.868129e-04
5.726364e+01	-4.924524e-04
5.759439e+01	-4.981573e-04
5.792705e+01	-5.039282e-04
5.826164e+01	-5.097661e-04
5.859815e+01	-5.156715e-04
5.893662e+01	-5.216453e-04
5.927703e+01	-5.276884e-04
5.961941e+01	-5.338014e-04
5.996377e+01	-5.399853e-04
6.031012e+01	-5.462407e-04
6.065847e+01	-5.525687e-04
6.100883e+01	-5.589699e-04
6.136121e+01	-5.654453e-04
6.171563e+01	-5.719957e-04
6.207210e+01	-5.786220e-04
6.243063e+01	-5.853251e-04
6.279122e+01	-5.921058e-04
6.315390e+01	-5.989650e-04
6.351868e+01	-6.059037e-04
6.388556e+01	-6.129228e-04
6.425456e+01	-6.200231e-04
6.462569e+01	-6.272057e-04
6.499897e+01	-6.344716e-04
6.537440e+01	-6.418215e-04
6.575200e+01	-6.492567e-04
6.613178e+01	-6.567779e-04
6.651375e+01	-6.643863e-04
6.689793e+01	-6.720828e-04
6.728433e+01	-6.798684e-04
6.767297e+01	-6.877443e-04
6.806384e+01	-6.957114e-04
6.845698e+01	-7.037707e-04
6.885238e+01	-7.119234e-04
6.925007e+01	-7.201706e-04
6.965005e+01	-7.285132e-04
7.005235e+01	-7.369525e-04
7.045697e+01	-7.454896e-04
7.086393e+01	-7.541256e-04
7.127323e+01	-7.628615e-04
7.168490e+01	-7.716987e-04
7.209895e+01	-7.806383e-04
7.251539e+01	-7.896813e-04
7.293424e+01	-7.988292e-04
7.335551e+01	-8.080830e-04
7.377920e+01	-8.174440e-04
7.420535e+01	-8.269134e-04
7.463396e+01	-8.364925e-04
7.506504e+01	-8.461825e-04
7.549861e+01	-8.559848e-04
7.593469e+01	-8.659006e-04
7.637328e+01	-8.759313e-04
7.681441e+01	-8.860782e-04
7.725809e+01	-8.963426e-04
7.770433e+01	-9.067259e-04
7.815315e+01	-9.172294e-04
7.860456e+01	-9.278546e-04
7.905857e+01	-9.386029e-04
7.951521e+01	-9.494757e-04
7.997449e+01	-9.604744e-04
8.043642e+01	-9.716005e-04
8.090102e+01	-9.828555e-04
8.136830e+01	-9.942409e-04
8.183828e+01	-1.005758e-03
8.231097e+01	-1.017409e-03
8.278640e+01	-1.029194e-03
8.326457e+01	-1.041116e-03
8.374550e+01	-1.053176e-03
8.422921e+01	-1.065376e-03
8.471572e+01	-1.077717e-03
8.520503e+01	-1.090202e-03
8.569717e+01	-1.102830e-03
8.619215e+01	-1.115605e-03
8.669000e+01	-1.128528e-03
8.719071e+01	-1.141601e-03
8.769432e+01	-1.154825e-03
8.820084e+01	-1.168202e-03
8.871029e+01	-1.181734e-03
8.922267e+01	-1.195423e-03
8.973802e+01	-1.209270e-03
9.025634e+01	-1.223278e-03
9.077766e+01	-1.237448e-03
9.130199e+01	-1.251782e-03
9.182935e+01	-1.266282e-03
9.235975e+01	-1.280950e-03
9.289321e+01	-1.295788e-03
9.342976e+01	-1.310798e-03
9.396941e+01	-1.325981e-03
9.451217e+01	-1.341341e-03
9.505807e+01	-1.356878e-03
9.560712e+01	-1.372596e-03
9.615934e+01	-1.388495e-03
9.671476e+01	-1.404578e-03
9.727338e+01	-1.420848e-03
9.783522e+01	-1.437306e-03
9.840032e+01	-1.453955e-03
9.896867e+01	-1.470797e-03
9.954031e+01	-1.487833e-03
1.001153e+02	-1.505067e-03
1.006935e+02	-1.522501e-03
1.012751e+02	-1.540136e-03
1.018601e+02	-1.557976e-03
1.024484e+02	-1.576022e-03
1.030402e+02	-1.594278e-03
1.036353e+02	-1.612744e-03
1.042339e+02	-1.631425e-03
1.048360e+02	-1.650322e-03
1.054415e+02	-1.669438e-03
1.060505e+02	-1.688775e-03
1.066631e+02	-1.708336e-03
1.072791e+02	-1.728123e-03
1.078988e+02	-1.748140e-03
1.085220e+02	-1.768389e-03
1.091488e+02	-1.788872e-03
1.097793e+02	-1.809592e-03
1.104133e+02	-1.830552e-03
1.110511e+02	-1.851755e-03
1.116925e+02	-1.873204e-03
1.123376e+02	-1.894900e-03
1.129865e+02	-1.916848e-03
1.136391e+02	-1.939051e-03
1.142955e+02	-1.961510e-03
1.149556e+02	-1.984229e-03
1.156196e+02	-2.007212e-03
1.162874e+02	-2.030461e-03
1.169591e+02	-2.053978e-03
1.176347e+02	-2.077769e-03
1.183141e+02	-2.101834e-03
1.189975e+02	-2.126179e-03
1.196848e+02	-2.150805e-03
1.203761e+02	-2.175716e-03
1.210714e+02	-2.200916e-03
1.217707e+02	-2.226408e-03
1.224740e+02	-2.252195e-03
1.231814e+02	-2.278280e-03
1.238929e+02	-2.304668e-03
1.246085e+02	-2.331361e-03
1.253283e+02	-2.358363e-03
1.260522e+02	-2.385677e-03
1.267802e+02	-2.413308e-03
1.275125e+02	-2.441259e-03
1.282490e+02	-2.469534e-03
1.289898e+02	-2.498136e-03
1.297348e+02	-2.527069e-03
1.304842e+02	-2.556337e-03
1.312378e+02	-2.585944e-03
1.319959e+02	-2.615894e-03
1.327583e+02	-2.646191e-03
1.335251e+02	-2.676838e-03
1.342963e+02	-2.707840e-03
1.350720e+02	-2.739201e-03
1.358522e+02	-2.770925e-03
1.366368e+02	-2.803017e-03
1.374260e+02	-2.835480e-03
1.382198e+02	-2.868319e-03
1.390182e+02	-2.901538e-03
1.398211e+02	-2.935142e-03
1.406287e+02	-2.969135e-03
1.414410e+02	-3.003521e-03
1.422579e+02	-3.038305e-03
1.430796e+02	-3.073492e-03
1.439060e+02	-3.109087e-03
1.447372e+02	-3.145093e-03
1.455732e+02	-3.181517e-03
1.464141e+02	-3.218362e-03
1.472597e+02	-3.255633e-03
1.481103e+02	-3.293336e-03
1.489658e+02	-3.331476e-03
1.498262e+02	-3.370057e-03
1.506916e+02	-3.409084e-03
1.515620e+02	-3.448564e-03
1.524374e+02	-3.488500e-03
1.533179e+02	-3.528899e-03
1.542034e+02	-3.569765e-03
1.550941e+02	-3.611105e-03
1.559899e+02	-3.652923e-03
1.568909e+02	-3.695225e-03
1.577971e+02	-3.738017e-03
1.587085e+02	-3.781304e-03
1.596252e+02	-3.825092e-03
1.605472e+02	-3.869387e-03
1.614745e+02	-3.914194e-03
1.624072e+02	-3.959520e-03
1.633453e+02	-4.005371e-03
1.642887e+02	-4.051753e-03
1.652377e+02	-4.098671e-03
1.661921e+02	-4.146133e-03
1.671520e+02	-4.194144e-03
1.681175e+02	-4.242710e-03
1.690885e+02	-4.291839e-03
1.700651e+02	-4.341536e-03
1.710474e+02	-4.391808e-03
1.720354e+02	-4.442662e-03
1.730291e+02	-4.494105e-03
1.740285e+02	-4.546143e-03
1.750337e+02	-4.598783e-03
1.760446e+02	-4.652033e-03
1.770615e+02	-4.705898e-03
1.780842e+02	-4.760388e-03
1.791128e+02	-4.815507e-03
1.801473e+02	-4.871265e-03
1.811878e+02	-4.927668e-03
1.822344e+02	-4.984723e-03
1.832870e+02	-5.042439e-03
1.843456e+02	-5.100822e-03
1.854104e+02	-5.159881e-03
1.864813e+02	-5.219624e-03
1.875584e+02	-5.280058e-03
1.886418e+02	-5.341191e-03
1.897313e+02	-5.403031e-03
1.908272e+02	-5.465587e-03
1.919294e+02	-5.528867e-03
1.930380e+02	-5.592879e-03
1.941530e+02	-5.657632e-03
1.952744e+02	-5.723134e-03
1.964023e+02	-5.789393e-03
1.975367e+02	-5.856420e-03
1.986777e+02	-5.924221e-03
1.998252e+02	-5.992808e-03
2.009794e+02	-6.062187e-03
2.021403e+02	-6.132369e-03
2.033078e+02	-6.203364e-03
2.044821e+02	-6.275179e-03
2.056632e+02	-6.347825e-03
2.068511e+02	-6.421312e-03
2.080459e+02	-6.495649e-03
2.092475e+02	-6.570845e-03
2.104561e+02	-6.646912e-03
2.116717e+02	-6.723858e-03
2.128943e+02	-6.801695e-03
2.141240e+02	-6.880432e-03
2.153608e+02	-6.960079e-03
2.166047e+02	-7.040648e-03
2.178558e+02	-7.122148e-03
2.191141e+02	-7.204592e-03
2.203797e+02	-7.287989e-03
2.216526e+02	-7.372350e-03
2.229329e+02	-7.457687e-03
2.242205e+02	-7.544011e-03
2.255156e+02	-7.631333e-03
2.268182e+02	-7.719665e-03
2.281283e+02	-7.809019e-03
2.294459e+02	-7.899406e-03
2.307712e+02	-7.990838e-03
2.321041e+02	-8.083327e-03
2.334447e+02	-8.176886e-03
2.347931e+02	-8.271527e-03
2.361493e+02	-8.367262e-03
2.375133e+02	-8.464104e-03
2.388851e+02	-8.562066e-03
2.402649e+02	-8.661161e-03
2.416527e+02	-8.761401e-03
2.430484e+02	-8.862800e-03
2.444523e+02	-8.965372e-03
2.458642e+02	-9.069129e-03
2.472843e+02	-9.174086e-03
2.487126e+02	-9.280256e-03
2.501492e+02	-9.387654e-03
2.515940e+02	-9.496293e-03
2.530472e+02	-9.606187e-03
2.545088e+02	-9.717353e-03
2.559789e+02	-9.829803e-03
2.574574e+02	-9.943553e-03
2.589444e+02	-1.005862e-02
2.604401e+02	-1.017501e-02
2.619444e+02	-1.029275e-02
2.634574e+02	-1.041185e-02
2.649791e+02	-1.053233e-02
2.665096e+02	-1.065420e-02
2.680489e+02	-1.077748e-02
2.695972e+02	-1.090218e-02
2.711544e+02	-1.102832e-02
2.727205e+02	-1.115593e-02
2.742958e+02	-1.128500e-02
2.758801e+02	-1.141557e-02
2.774736e+02	-1.154764e-02
2.790762e+02	-1.168125e-02
2.806882e+02	-1.181639e-02
2.823094e+02	-1.195310e-02
2.839400e+02	-1.209138e-02
2.855800e+02	-1.223127e-02
2.872295e+02	-1.237277e-02
2.888886e+02	-1.251590e-02
2.905572e+02	-1.266069e-02
2.922354e+02	-1.280715e-02
2.939234e+02	-1.295530e-02
2.956211e+02	-1.310517e-02
2.973286e+02	-1.325676e-02
2.990459e+02	-1.341010e-02
3.007732e+02	-1.356522e-02
3.025104e+02	-1.372213e-02
3.042577e+02	-1.388085e-02
3.060151e+02	-1.404140e-02
3.077826e+02	-1.420381e-02
3.095604e+02	-1.436809e-02
3.113484e+02	-1.453427e-02
3.131467e+02	-1.470236e-02
3.149554e+02	-1.487240e-02
3.167746e+02	-1.504440e-02
3.186043e+02	-1.521839e-02
3.204445e+02	-1.539438e-02
3.222954e+02	-1.557241e-02
3.241570e+02	-1.575249e-02
3.260293e+02	-1.593465e-02
3.279124e+02	-1.611892e-02
3.298064e+02	-1.630531e-02
3.317114e+02	-1.649385e-02
3.336273e+02	-1.668456e-02
3.355544e+02	-1.687748e-02
3.374925e+02	-1.707263e-02
3.394418e+02	-1.727002e-02
3.414024e+02	-1.746970e-02
3.433744e+02	-1.767167e-02
3.453577e+02	-1.787598e-02
3.473525e+02	-1.808265e-02
3.493588e+02	-1.829170e-02
3.513766e+02	-1.850316e-02
3.534062e+02	-1.871706e-02
3.554474e+02	-1.893342e-02
3.575005e+02	-1.915229e-02
3.595654e+02	-1.937368e-02
3.616422e+02	-1.959762e-02
3.637311e+02	-1.982414e-02
3.658320e+02	-2.005327e-02
3.679450e+02	-2.028505e-02
3.700702e+02	-2.051950e-02
3.722077e+02	-2.075666e-02
3.743576e+02	-2.099654e-02
3.765199e+02	-2.123920e-02
3.786946e+02	-2.148465e-02
3.808820e+02	-2.173293e-02
3.830819e+02	-2.198407e-02
3.852946e+02	-2.223811e-02
3.875200e+02	-2.249507e-02
3.897583e+02	-2.275500e-02
3.920096e+02	-2.301792e-02
3.942738e+02	-2.328387e-02
3.965511e+02	-2.355289e-02
3.988416e+02	-2.382500e-02
4.011452e+02	-2.410025e-02
4.034622e+02	-2.437867e-02
4.057926e+02	-2.466030e-02
4.081365e+02	-2.494517e-02
4.104938e+02	-2.523333e-02
4.128648e+02	-2.552480e-02
4.152495e+02	-2.581963e-02
4.176480e+02	-2.611785e-02
4.200603e+02	-2.641951e-02
4.224866e+02	-2.672464e-02
4.249268e+02	-2.703329e-02
4.273812e+02	-2.734549e-02
4.298497e+02	-2.766128e-02
4.323325e+02	-2.798071e-02
4.348297e+02	-2.830381e-02
4.373412e+02	-2.863063e-02
4.398673e+02	-2.896122e-02
4.424079e+02	-2.929561e-02
4.449633e+02	-2.963384e-02
4.475334e+02	-2.997597e-02
4.501183e+02	-3.032203e-02
4.527182e+02	-3.067207e-02
4.553330e+02	-3.102615e-02
4.579630e+02	-3.138429e-02
4.606082e+02	-3.174655e-02
4.632687e+02	-3.211298e-02
4.659445e+02	-3.248362e-02
4.686358e+02	-3.285852e-02
4.713426e+02	-3.323774e-02
4.740650e+02	-3.362131e-02
4.768032e+02	-3.400929e-02
4.795572e+02	-3.440173e-02
4.823271e+02	-3.479868e-02
4.851130e+02	-3.520020e-02
4.879150e+02	-3.560632e-02
4.907332e+02	-3.601712e-02
4.935676e+02	-3.643263e-02
4.964185e+02	-3.685291e-02
4.992858e+02	-3.727803e-02
5.021696e+02	-3.770802e-02
5.050701e+02	-3.814296e-02
5.079874e+02	-3.858288e-02
5.109215e+02	-3.902786e-02
5.138726e+02	-3.947795e-02
5.168407e+02	-3.993321e-02
5.198259e+02	-4.039368e-02
5.228284e+02	-4.085945e-02
5.258482e+02	-4.133056e-02
5.288855e+02	-4.180707e-02
5.319403e+02	-4.228905e-02
5.350128e+02	-4.277657e-02
5.381030e+02	-4.326967e-02
5.412111e+02	-4.376843e-02
5.443371e+02	-4.427290e-02
5.474812e+02	-4.478317e-02
5.506434e+02	-4.529928e-02
5.538239e+02	-4.582131e-02
5.570228e+02	-4.634932e-02
5.602401e+02	-4.688339e-02
5.634760e+02	-4.742357e-02
5.667306e+02	-4.796994e-02
5.700040e+02	-4.852258e-02
5.732964e+02	-4.908154e-02
5.766077e+02	-4.964691e-02
5.799382e+02	-5.021875e-02
5.832879e+02	-5.079714e-02
5.866569e+02	-5.138215e-02
5.900454e+02	-5.197385e-02
5.934535e+02	-5.257233e-02
5.968813e+02	-5.317766e-02
6.003288e+02	-5.378992e-02
6.037963e+02	-5.440918e-02
6.072838e+02	-5.503552e-02
6.107914e+02	-5.566903e-02
6.143194e+02	-5.630978e-02
6.178676e+02	-5.695786e-02
6.214364e+02	-5.761335e-02
6.250258e+02	-5.827633e-02
6.286359e+02	-5.894689e-02
6.322669e+02	-5.962511e-02
6.359189e+02	-6.031108e-02
6.395919e+02	-6.100489e-02
6.432862e+02	-6.170662e-02
6.470017e+02	-6.241636e-02
6.507388e+02	-6.313421e-02
6.544974e+02	-6.386025e-02
6.582778e+02	-6.459458e-02
6.620800e+02	-6.533730e-02
6.659041e+02	-6.608848e-02
6.697504e+02	-6.684824e-02
6.736188e+02	-6.761666e-02
6.775096e+02	-6.839384e-02
6.814229e+02	-6.917989e-02
6.853587e+02	-6.997489e-02
6.893173e+02	-7.077896e-02
6.932988e+02	-7.159219e-02
6.973033e+02	-7.241469e-02
7.013309e+02	-7.324656e-02
