Frequency(Hz)	Magnitude(dB)
1.000000e+01	-2.115340e+00
1.005776e+01	-2.134870e+00
1.011585e+01	-2.154487e+00
1.017428e+01	-2.173913e+00
1.023305e+01	-2.193409e+00
1.029215e+01	-2.213666e+00
1.035160e+01	-2.233708e+00
1.041139e+01	-2.253912e+00
1.047153e+01	-2.274229e+00
1.053201e+01	-2.294446e+00
1.059284e+01	-2.315386e+00
1.065403e+01	-2.335922e+00
1.071556e+01	-2.357030e+00
1.077746e+01	-2.377959e+00
1.083971e+01	-2.399021e+00
1.090232e+01	-2.420362e+00
1.096529e+01	-2.441725e+00
1.102862e+01	-2.463288e+00
1.109232e+01	-2.484908e+00
1.115639e+01	-2.506876e+00
1.122083e+01	-2.528876e+00
1.128564e+01	-2.551197e+00
1.135083e+01	-2.573483e+00
1.141639e+01	-2.595798e+00
1.148233e+01	-2.618399e+00
1.154865e+01	-2.641009e+00
1.161536e+01	-2.663765e+00
1.168245e+01	-2.686990e+00
1.174992e+01	-2.710205e+00
1.181779e+01	-2.733527e+00
1.188605e+01	-2.757003e+00
1.195470e+01	-2.780346e+00
1.202375e+01	-2.804280e+00
1.209320e+01	-2.827900e+00
1.216305e+01	-2.852004e+00
1.223330e+01	-2.876185e+00
1.230396e+01	-2.900419e+00
1.237503e+01	-2.924959e+00
1.244651e+01	-2.949632e+00
1.251840e+01	-2.974168e+00
1.259070e+01	-2.999308e+00
1.266343e+01	-3.024027e+00
1.273657e+01	-3.049315e+00
1.281014e+01	-3.074570e+00
1.288413e+01	-3.100109e+00
1.295855e+01	-3.125697e+00
1.303339e+01	-3.151328e+00
1.310867e+01	-3.177286e+00
1.318439e+01	-3.203477e+00
1.326054e+01	-3.229604e+00
1.333713e+01	-3.255930e+00
1.341417e+01	-3.282404e+00
1.349165e+01	-3.309025e+00
1.356958e+01	-3.335776e+00
1.364795e+01	-3.362748e+00
1.372678e+01	-3.389518e+00
1.380607e+01	-3.416616e+00
1.388581e+01	-3.443972e+00
1.396602e+01	-3.471501e+00
1.404668e+01	-3.499130e+00
1.412782e+01	-3.526852e+00
1.420942e+01	-3.554813e+00
1.429149e+01	-3.583031e+00
1.437404e+01	-3.611026e+00
1.445706e+01	-3.639508e+00
1.454057e+01	-3.667668e+00
1.462455e+01	-3.696427e+00
1.470902e+01	-3.725223e+00
1.479398e+01	-3.754002e+00
1.487943e+01	-3.783135e+00
1.496537e+01	-3.812093e+00
1.505181e+01	-3.841467e+00
1.513875e+01	-3.870998e+00
1.522619e+01	-3.900389e+00
1.531414e+01	-3.930384e+00
1.540259e+01	-3.960105e+00
1.549156e+01	-3.990121e+00
1.558103e+01	-4.020049e+00
1.567103e+01	-4.050410e+00
1.576155e+01	-4.080564e+00
1.585258e+01	-4.111185e+00
1.594415e+01	-4.142290e+00
1.603624e+01	-4.173040e+00
1.612886e+01	-4.203820e+00
1.622202e+01	-4.234993e+00
1.631572e+01	-4.266100e+00
1.640996e+01	-4.297285e+00
1.650474e+01	-4.329259e+00
1.660008e+01	-4.360845e+00
1.669596e+01	-4.392743e+00
1.679239e+01	-4.424222e+00
1.688938e+01	-4.456601e+00
1.698694e+01	-4.488505e+00
1.708505e+01	-4.521060e+00
1.718373e+01	-4.553094e+00
1.728299e+01	-4.585704e+00
1.738281e+01	-4.618402e+00
1.748322e+01	-4.651169e+00
1.758420e+01	-4.684452e+00
1.768576e+01	-4.717294e+00
1.778792e+01	-4.750633e+00
1.789066e+01	-4.783822e+00
1.799399e+01	-4.817445e+00
1.809793e+01	-4.851023e+00
1.820246e+01	-4.884753e+00
1.830760e+01	-4.918550e+00
1.841334e+01	-4.952582e+00
1.851969e+01	-4.986736e+00
1.862666e+01	-5.020838e+00
1.873425e+01	-5.055042e+00
1.884246e+01	-5.089671e+00
1.895129e+01	-5.124448e+00
1.906075e+01	-5.158737e+00
1.917085e+01	-5.193798e+00
1.928158e+01	-5.228590e+00
1.939295e+01	-5.263747e+00
1.950496e+01	-5.298971e+00
1.961762e+01	-5.334112e+00
1.973093e+01	-5.369819e+00
1.984490e+01	-5.405291e+00
1.995952e+01	-5.440659e+00
2.007480e+01	-5.476652e+00
2.019076e+01	-5.512674e+00
2.030738e+01	-5.548766e+00
2.042467e+01	-5.584948e+00
2.054264e+01	-5.620848e+00
2.066130e+01	-5.657676e+00
2.078064e+01	-5.693784e+00
2.090066e+01	-5.730198e+00
2.102139e+01	-5.767509e+00
2.114280e+01	-5.804377e+00
2.126492e+01	-5.840855e+00
2.138775e+01	-5.878089e+00
2.151128e+01	-5.915400e+00
2.163553e+01	-5.952838e+00
2.176050e+01	-5.989712e+00
2.188619e+01	-6.027259e+00
2.201260e+01	-6.064941e+00
2.213974e+01	-6.102739e+00
2.226762e+01	-6.140442e+00
2.239624e+01	-6.178303e+00
2.252560e+01	-6.216259e+00
2.265571e+01	-6.254305e+00
2.278656e+01	-6.292719e+00
2.291818e+01	-6.330985e+00
2.305055e+01	-6.369507e+00
2.318369e+01	-6.408054e+00
2.331760e+01	-6.446525e+00
2.345228e+01	-6.485203e+00
2.358774e+01	-6.524012e+00
2.372398e+01	-6.563007e+00
2.386101e+01	-6.602293e+00
2.399883e+01	-6.641548e+00
2.413745e+01	-6.680938e+00
2.427686e+01	-6.720146e+00
2.441709e+01	-6.759215e+00
2.455812e+01	-6.799062e+00
2.469997e+01	-6.838513e+00
2.484263e+01	-6.878401e+00
2.498612e+01	-6.917794e+00
2.513044e+01	-6.957611e+00
2.527559e+01	-6.997992e+00
2.542158e+01	-7.037669e+00
2.556842e+01	-7.078256e+00
2.571610e+01	-7.118453e+00
2.586463e+01	-7.158954e+00
2.601403e+01	-7.198867e+00
2.616428e+01	-7.239853e+00
2.631541e+01	-7.280047e+00
2.646740e+01	-7.321208e+00
2.662028e+01	-7.361933e+00
2.677404e+01	-7.402336e+00
2.692868e+01	-7.443808e+00
2.708422e+01	-7.485249e+00
2.724066e+01	-7.526035e+00
2.739800e+01	-7.566947e+00
2.755625e+01	-7.608802e+00
2.771541e+01	-7.649904e+00
2.787550e+01	-7.691300e+00
2.803650e+01	-7.732767e+00
2.819844e+01	-7.774321e+00
2.836131e+01	-7.816141e+00
2.852513e+01	-7.857884e+00
2.868989e+01	-7.900235e+00
2.885560e+01	-7.942038e+00
2.902227e+01	-7.983616e+00
2.918990e+01	-8.025488e+00
2.935850e+01	-8.068064e+00
2.952807e+01	-8.110487e+00
2.969863e+01	-8.152360e+00
2.987016e+01	-8.195149e+00
3.004269e+01	-8.237269e+00
3.021622e+01	-8.280426e+00
3.039075e+01	-8.323005e+00
3.056628e+01	-8.365519e+00
3.074283e+01	-8.408212e+00
3.092040e+01	-8.451198e+00
3.109900e+01	-8.494101e+00
3.127862e+01	-8.537224e+00
3.145929e+01	-8.579971e+00
3.164099e+01	-8.622854e+00
3.182375e+01	-8.666618e+00
3.200756e+01	-8.709695e+00
3.219244e+01	-8.752346e+00
3.237838e+01	-8.796732e+00
3.256540e+01	-8.839683e+00
3.275349e+01	-8.883204e+00
3.294268e+01	-8.927226e+00
3.313295e+01	-8.970438e+00
3.332433e+01	-9.014137e+00
3.351681e+01	-9.058403e+00
3.371040e+01	-9.102052e+00
3.390511e+01	-9.146045e+00
3.410094e+01	-9.189594e+00
3.429791e+01	-9.233766e+00
3.449601e+01	-9.278342e+00
3.469526e+01	-9.322160e+00
3.489566e+01	-9.366623e+00
3.509721e+01	-9.410889e+00
3.529993e+01	-9.455187e+00
3.550382e+01	-9.499610e+00
3.570889e+01	-9.543551e+00
3.591515e+01	-9.588231e+00
3.612259e+01	-9.632554e+00
3.633123e+01	-9.677182e+00
3.654108e+01	-9.721693e+00
3.675214e+01	-9.766938e+00
3.696442e+01	-9.811623e+00
3.717792e+01	-9.856198e+00
3.739266e+01	-9.900652e+00
3.760864e+01	-9.945916e+00
3.782587e+01	-9.991331e+00
3.804435e+01	-1.003589e+01
3.826409e+01	-1.008131e+01
3.848510e+01	-1.012686e+01
3.870739e+01	-1.017213e+01
3.893096e+01	-1.021679e+01
3.915583e+01	-1.026202e+01
3.938199e+01	-1.030739e+01
3.960946e+01	-1.035312e+01
3.983824e+01	-1.039847e+01
4.006834e+01	-1.044400e+01
4.029978e+01	-1.048920e+01
4.053255e+01	-1.053496e+01
4.076666e+01	-1.057974e+01
4.100213e+01	-1.062551e+01
4.123896e+01	-1.067188e+01
4.147715e+01	-1.071762e+01
4.171672e+01	-1.076326e+01
4.195767e+01	-1.080954e+01
4.220002e+01	-1.085514e+01
4.244377e+01	-1.090158e+01
4.268892e+01	-1.094740e+01
4.293549e+01	-1.099329e+01
4.318348e+01	-1.103960e+01
4.343291e+01	-1.108524e+01
4.368377e+01	-1.113179e+01
4.393609e+01	-1.117765e+01
4.418986e+01	-1.122407e+01
4.444510e+01	-1.127034e+01
4.470182e+01	-1.131626e+01
4.496001e+01	-1.136262e+01
4.521970e+01	-1.140944e+01
4.548089e+01	-1.145576e+01
4.574358e+01	-1.150242e+01
4.600779e+01	-1.154913e+01
4.627353e+01	-1.159504e+01
4.654081e+01	-1.164168e+01
4.680963e+01	-1.168833e+01
4.708000e+01	-1.173481e+01
4.735193e+01	-1.178171e+01
4.762543e+01	-1.182842e+01
4.790051e+01	-1.187592e+01
4.817719e+01	-1.192215e+01
4.845545e+01	-1.196926e+01
4.873533e+01	-1.201530e+01
4.901682e+01	-1.206284e+01
4.929994e+01	-1.210918e+01
4.958470e+01	-1.215615e+01
4.987110e+01	-1.220337e+01
5.015915e+01	-1.225014e+01
5.044887e+01	-1.229848e+01
5.074026e+01	-1.234444e+01
5.103333e+01	-1.239196e+01
5.132810e+01	-1.243916e+01
5.162457e+01	-1.248627e+01
5.192275e+01	-1.253310e+01
5.222265e+01	-1.258069e+01
5.252429e+01	-1.262764e+01
5.282767e+01	-1.267525e+01
5.313280e+01	-1.272257e+01
5.343969e+01	-1.276948e+01
5.374836e+01	-1.281694e+01
5.405880e+01	-1.286460e+01
5.437105e+01	-1.291170e+01
5.468509e+01	-1.295995e+01
5.500095e+01	-1.300702e+01
5.531863e+01	-1.305513e+01
5.563815e+01	-1.310259e+01
5.595951e+01	-1.314966e+01
5.628273e+01	-1.319745e+01
5.660782e+01	-1.324570e+01
5.693479e+01	-1.329289e+01
5.726364e+01	-1.334144e+01
5.759439e+01	-1.338838e+01
5.792705e+01	-1.343739e+01
5.826164e+01	-1.348379e+01
5.859815e+01	-1.353214e+01
5.893662e+01	-1.357887e+01
5.927703e+01	-1.362712e+01
5.961941e+01	-1.367525e+01
5.996377e+01	-1.372339e+01
6.031012e+01	-1.377118e+01
6.065847e+01	-1.381887e+01
6.100883e+01	-1.386709e+01
6.136121e+01	-1.391521e+01
6.171563e+01	-1.396205e+01
6.207210e+01	-1.401075e+01
6.243063e+01	-1.405812e+01
6.279122e+01	-1.410687e+01
6.315390e+01	-1.415493e+01
6.351868e+01	-1.420227e+01
6.388556e+01	-1.425152e+01
6.425456e+01	-1.429930e+01
6.462569e+01	-1.434746e+01
6.499897e+01	-1.439560e+01
6.537440e+01	-1.444490e+01
6.575200e+01	-1.449239e+01
6.613178e+01	-1.454070e+01
6.651375e+01	-1.458779e+01
6.689793e+01	-1.463680e+01
6.728433e+01	-1.468478e+01
6.767297e+01	-1.473319e+01
6.806384e+01	-1.478190e+01
6.845698e+01	-1.483077e+01
6.885238e+01	-1.487845e+01
6.925007e+01	-1.492694e+01
6.965005e+01	-1.497583e+01
7.005235e+01	-1.502521e+01
7.045697e+01	-1.507253e+01
7.086393e+01	-1.512205e+01
7.127323e+01	-1.516986e+01
7.168490e+01	-1.521787e+01
7.209895e+01	-1.526669e+01
7.251539e+01	-1.531632e+01
7.293424e+01	-1.536377e+01
7.335551e+01	-1.541264e+01
7.377920e+01	-1.546102e+01
7.420535e+01	-1.550900e+01
7.463396e+01	-1.555736e+01
7.506504e+01	-1.560727e+01
7.549861e+01	-1.565596e+01
7.593469e+01	-1.570423e+01
7.637328e+01	-1.575290e+01
7.681441e+01	-1.580163e+01
7.725809e+01	-1.585071e+01
7.770433e+01	-1.589938e+01
7.815315e+01	-1.594721e+01
7.860456e+01	-1.599686e+01
7.905857e+01	-1.604488e+01
7.951521e+01	-1.609456e+01
7.997449e+01	-1.614388e+01
8.043642e+01	-1.619136e+01
8.090102e+01	-1.624076e+01
8.136830e+01	-1.628910e+01
8.183828e+01	-1.633793e+01
8.231097e+01	-1.638805e+01
8.278640e+01	-1.643589e+01
8.326457e+01	-1.648518e+01
8.374550e+01	-1.653382e+01
8.422921e+01	-1.658345e+01
8.471572e+01	-1.663291e+01
8.520503e+01	-1.668132e+01
8.569717e+01	-1.672995e+01
8.619215e+01	-1.677805e+01
8.669000e+01	-1.682647e+01
8.719071e+01	-1.687740e+01
8.769432e+01	-1.692596e+01
8.820084e+01	-1.697447e+01
8.871029e+01	-1.702208e+01
8.922267e+01	-1.707255e+01
8.973802e+01	-1.712251e+01
9.025634e+01	-1.717196e+01
9.077766e+01	-1.722016e+01
9.130199e+01	-1.726912e+01
9.182935e+01	-1.731827e+01
9.235975e+01	-1.736720e+01
9.289321e+01	-1.741674e+01
9.342976e+01	-1.746573e+01
9.396941e+01	-1.751376e+01
9.451217e+01	-1.756443e+01
9.505807e+01	-1.761334e+01
9.560712e+01	-1.766193e+01
9.615934e+01	-1.771033e+01
9.671476e+01	-1.776047e+01
9.727338e+01	-1.780963e+01
9.783522e+01	-1.785888e+01
9.840032e+01	-1.791027e+01
9.896867e+01	-1.795845e+01
9.954031e+01	-1.800632e+01
1.001153e+02	-1.805683e+01
1.006935e+02	-1.810531e+01
1.012751e+02	-1.815373e+01
1.018601e+02	-1.820232e+01
1.024484e+02	-1.825204e+01
1.030402e+02	-1.830328e+01
1.036353e+02	-1.835155e+01
1.042339e+02	-1.839976e+01
1.048360e+02	-1.845022e+01
1.054415e+02	-1.849961e+01
1.060505e+02	-1.854784e+01
1.066631e+02	-1.859827e+01
1.072791e+02	-1.864753e+01
1.078988e+02	-1.869841e+01
1.085220e+02	-1.874679e+01
1.091488e+02	-1.879635e+01
1.097793e+02	-1.884486e+01
1.104133e+02	-1.889328e+01
1.110511e+02	-1.894367e+01
1.116925e+02	-1.899365e+01
1.123376e+02	-1.904210e+01
1.129865e+02	-1.909124e+01
1.136391e+02	-1.914312e+01
1.142955e+02	-1.918948e+01
1.149556e+02	-1.924001e+01
1.156196e+02	-1.928930e+01
1.162874e+02	-1.933990e+01
1.169591e+02	-1.938959e+01
1.176347e+02	-1.943770e+01
1.183141e+02	-1.948732e+01
1.189975e+02	-1.953681e+01
1.196848e+02	-1.958566e+01
1.203761e+02	-1.963716e+01
1.210714e+02	-1.968638e+01
1.217707e+02	-1.973427e+01
1.224740e+02	-1.978563e+01
1.231814e+02	-1.983546e+01
1.238929e+02	-1.988211e+01
1.246085e+02	-1.993328e+01
1.253283e+02	-1.998299e+01
1.260522e+02	-2.003276e+01
1.267802e+02	-2.008129e+01
1.275125e+02	-2.013212e+01
1.282490e+02	-2.018082e+01
1.289898e+02	-2.022903e+01
1.297348e+02	-2.028101e+01
1.304842e+02	-2.032929e+01
1.312378e+02	-2.037988e+01
1.319959e+02	-2.042803e+01
1.327583e+02	-2.047821e+01
1.335251e+02	-2.052740e+01
1.342963e+02	-2.057735e+01
1.350720e+02	-2.062743e+01
1.358522e+02	-2.067756e+01
1.366368e+02	-2.072611e+01
1.374260e+02	-2.077693e+01
1.382198e+02	-2.082567e+01
1.390182e+02	-2.087325e+01
1.398211e+02	-2.092290e+01
1.406287e+02	-2.097321e+01
1.414410e+02	-2.102378e+01
1.422579e+02	-2.107337e+01
1.430796e+02	-2.112283e+01
1.439060e+02	-2.117449e+01
1.447372e+02	-2.122208e+01
1.455732e+02	-2.127294e+01
1.464141e+02	-2.132079e+01
1.472597e+02	-2.137137e+01
1.481103e+02	-2.142142e+01
1.489658e+02	-2.147202e+01
1.498262e+02	-2.152068e+01
1.506916e+02	-2.156929e+01
1.515620e+02	-2.161906e+01
1.524374e+02	-2.166827e+01
1.533179e+02	-2.171857e+01
1.542034e+02	-2.176863e+01
1.550941e+02	-2.181825e+01
1.559899e+02	-2.186862e+01
1.568909e+02	-2.191953e+01
1.577971e+02	-2.196838e+01
1.587085e+02	-2.201792e+01
1.596252e+02	-2.206850e+01
1.605472e+02	-2.211773e+01
1.614745e+02	-2.216931e+01
1.624072e+02	-2.221507e+01
1.633453e+02	-2.226531e+01
1.642887e+02	-2.231578e+01
1.652377e+02	-2.236550e+01
1.661921e+02	-2.241698e+01
1.671520e+02	-2.246633e+01
1.681175e+02	-2.251396e+01
1.690885e+02	-2.256511e+01
1.700651e+02	-2.261587e+01
1.710474e+02	-2.266491e+01
1.720354e+02	-2.271599e+01
1.730291e+02	-2.276421e+01
1.740285e+02	-2.281410e+01
1.750337e+02	-2.286457e+01
1.760446e+02	-2.291363e+01
1.770615e+02	-2.296444e+01
1.780842e+02	-2.301233e+01
1.791128e+02	-2.306156e+01
1.801473e+02	-2.311171e+01
1.811878e+02	-2.316288e+01
1.822344e+02	-2.321101e+01
1.832870e+02	-2.326333e+01
1.843456e+02	-2.331130e+01
1.854104e+02	-2.336064e+01
1.864813e+02	-2.341288e+01
1.875584e+02	-2.346415e+01
1.886418e+02	-2.351280e+01
1.897313e+02	-2.356180e+01
1.908272e+02	-2.361018e+01
1.919294e+02	-2.366078e+01
1.930380e+02	-2.371239e+01
1.941530e+02	-2.376014e+01
1.952744e+02	-2.381077e+01
1.964023e+02	-2.385927e+01
1.975367e+02	-2.391114e+01
1.986777e+02	-2.395901e+01
1.998252e+02	-2.401022e+01
2.009794e+02	-2.405775e+01
2.021403e+02	-2.410980e+01
2.033078e+02	-2.416022e+01
2.044821e+02	-2.420599e+01
2.056632e+02	-2.425868e+01
2.068511e+02	-2.431097e+01
2.080459e+02	-2.435861e+01
2.092475e+02	-2.440797e+01
2.104561e+02	-2.445846e+01
2.116717e+02	-2.450763e+01
2.128943e+02	-2.455859e+01
2.141240e+02	-2.461007e+01
2.153608e+02	-2.465599e+01
2.166047e+02	-2.471009e+01
2.178558e+02	-2.475680e+01
2.191141e+02	-2.480797e+01
2.203797e+02	-2.485825e+01
2.216526e+02	-2.490950e+01
2.229329e+02	-2.495448e+01
2.242205e+02	-2.500447e+01
2.255156e+02	-2.505602e+01
2.268182e+02	-2.510530e+01
2.281283e+02	-2.515850e+01
2.294459e+02	-2.520709e+01
2.307712e+02	-2.525636e+01
2.321041e+02	-2.530561e+01
2.334447e+02	-2.535719e+01
2.347931e+02	-2.540594e+01
2.361493e+02	-2.545546e+01
2.375133e+02	-2.550821e+01
2.388851e+02	-2.555553e+01
2.402649e+02	-2.560491e+01
2.416527e+02	-2.565780e+01
2.430484e+02	-2.570441e+01
2.444523e+02	-2.575546e+01
2.458642e+02	-2.580436e+01
2.472843e+02	-2.585485e+01
2.487126e+02	-2.590491e+01
2.501492e+02	-2.595512e+01
2.515940e+02	-2.600844e+01
2.530472e+02	-2.605604e+01
2.545088e+02	-2.610826e+01
2.559789e+02	-2.615211e+01
2.574574e+02	-2.620692e+01
2.589444e+02	-2.625680e+01
2.604401e+02	-2.630243e+01
2.619444e+02	-2.635241e+01
2.634574e+02	-2.640320e+01
2.649791e+02	-2.645260e+01
2.665096e+02	-2.650497e+01
2.680489e+02	-2.655227e+01
2.695972e+02	-2.660437e+01
2.711544e+02	-2.665555e+01
2.727205e+02	-2.670480e+01
2.742958e+02	-2.675588e+01
2.758801e+02	-2.680467e+01
2.774736e+02	-2.685259e+01
2.790762e+02	-2.690238e+01
2.806882e+02	-2.695449e+01
2.823094e+02	-2.700624e+01
2.839400e+02	-2.705665e+01
2.855800e+02	-2.710382e+01
2.872295e+02	-2.715134e+01
2.888886e+02	-2.720771e+01
2.905572e+02	-2.725591e+01
2.922354e+02	-2.730477e+01
2.939234e+02	-2.734948e+01
2.956211e+02	-2.740429e+01
2.973286e+02	-2.745742e+01
2.990459e+02	-2.750280e+01
3.007732e+02	-2.755512e+01
3.025104e+02	-2.760288e+01
3.042577e+02	-2.765116e+01
3.060151e+02	-2.770411e+01
3.077826e+02	-2.775063e+01
3.095604e+02	-2.780594e+01
3.113484e+02	-2.785121e+01
3.131467e+02	-2.790169e+01
3.149554e+02	-2.795594e+01
3.167746e+02	-2.800468e+01
3.186043e+02	-2.805509e+01
3.204445e+02	-2.810602e+01
3.222954e+02	-2.815742e+01
3.241570e+02	-2.820594e+01
3.260293e+02	-2.825576e+01
3.279124e+02	-2.830500e+01
3.298064e+02	-2.835318e+01
3.317114e+02	-2.840856e+01
3.336273e+02	-2.845343e+01
3.355544e+02	-2.850969e+01
3.374925e+02	-2.855599e+01
3.394418e+02	-2.860707e+01
3.414024e+02	-2.865473e+01
3.433744e+02	-2.870819e+01
3.453577e+02	-2.875099e+01
3.473525e+02	-2.880569e+01
3.493588e+02	-2.884927e+01
3.513766e+02	-2.890979e+01
3.534062e+02	-2.895755e+01
3.554474e+02	-2.900569e+01
3.575005e+02	-2.905985e+01
3.595654e+02	-2.911028e+01
3.616422e+02	-2.915788e+01
3.637311e+02	-2.920559e+01
3.658320e+02	-2.925890e+01
3.679450e+02	-2.930374e+01
3.700702e+02	-2.935564e+01
3.722077e+02	-2.940437e+01
3.743576e+02	-2.945603e+01
3.765199e+02	-2.951234e+01
3.786946e+02	-2.955326e+01
3.808820e+02	-2.960470e+01
3.830819e+02	-2.965547e+01
3.852946e+02	-2.969955e+01
3.875200e+02	-2.975293e+01
3.897583e+02	-2.980757e+01
3.920096e+02	-2.985602e+01
3.942738e+02	-2.991135e+01
3.965511e+02	-2.995993e+01
3.988416e+02	-3.001071e+01
4.011452e+02	-3.005277e+01
4.034622e+02	-3.010649e+01
4.057926e+02	-3.015828e+01
4.081365e+02	-3.020987e+01
4.104938e+02	-3.026205e+01
4.128648e+02	-3.031032e+01
4.152495e+02	-3.035886e+01
4.176480e+02	-3.040950e+01
4.200603e+02	-3.045589e+01
4.224866e+02	-3.051056e+01
4.249268e+02	-3.055770e+01
4.273812e+02	-3.060709e+01
4.298497e+02	-3.066314e+01
4.323325e+02	-3.070602e+01
4.348297e+02	-3.075811e+01
4.373412e+02	-3.080738e+01
4.398673e+02	-3.086341e+01
4.424079e+02	-3.090994e+01
4.449633e+02	-3.095808e+01
4.475334e+02	-3.101113e+01
4.501183e+02	-3.105264e+01
4.527182e+02	-3.110863e+01
4.553330e+02	-3.116460e+01
4.579630e+02	-3.121427e+01
4.606082e+02	-3.126362e+01
4.632687e+02	-3.130808e+01
4.659445e+02	-3.136209e+01
4.686358e+02	-3.141117e+01
4.713426e+02	-3.146309e+01
4.740650e+02	-3.150989e+01
4.768032e+02	-3.156450e+01
4.795572e+02	-3.161393e+01
4.823271e+02	-3.166003e+01
4.851130e+02	-3.171410e+01
4.879150e+02	-3.176107e+01
4.907332e+02	-3.180895e+01
4.935676e+02	-3.186137e+01
4.964185e+02	-3.191689e+01
4.992858e+02	-3.196502e+01
5.021696e+02	-3.201041e+01
5.050701e+02	-3.206809e+01
5.079874e+02	-3.211045e+01
5.109215e+02	-3.216160e+01
5.138726e+02	-3.221712e+01
5.168407e+02	-3.225823e+01
5.198259e+02	-3.231752e+01
5.228284e+02	-3.236780e+01
5.258482e+02	-3.240989e+01
5.288855e+02	-3.246182e+01
5.319403e+02	-3.251190e+01
5.350128e+02	-3.256300e+01
5.381030e+02	-3.261514e+01
5.412111e+02	-3.266433e+01
5.443371e+02	-3.271392e+01
5.474812e+02	-3.276168e+01
5.506434e+02	-3.281622e+01
5.538239e+02	-3.286984e+01
5.570228e+02	-3.291557e+01
5.602401e+02	-3.296646e+01
5.634760e+02	-3.301569e+01
5.667306e+02	-3.307391e+01
5.700040e+02	-3.311961e+01
5.732964e+02	-3.317519e+01
5.766077e+02	-3.321600e+01
5.799382e+02	-3.326493e+01
5.832879e+02	-3.331764e+01
5.866569e+02	-3.336807e+01
5.900454e+02	-3.342382e+01
5.934535e+02	-3.346505e+01
5.968813e+02	-3.352435e+01
6.003288e+02	-3.356813e+01
6.037963e+02	-3.362283e+01
6.072838e+02	-3.366891e+01
6.107914e+02	-3.372160e+01
6.143194e+02	-3.376791e+01
6.178676e+02	-3.382036e+01
6.214364e+02	-3.387128e+01
6.250258e+02	-3.391807e+01
6.286359e+02	-3.397435e+01
6.322669e+02	-3.401979e+01
6.359189e+02	-3.407652e+01
6.395919e+02	-3.411794e+01
6.432862e+02	-3.417058e+01
6.470017e+02	-3.422077e+01
6.507388e+02	-3.427023e+01
6.544974e+02	-3.431994e+01
6.582778e+02	-3.437837e+01
6.620800e+02	-3.442326e+01
6.659041e+02	-3.447117e+01
6.697504e+02	-3.453428e+01
6.736188e+02	-3.457287e+01
6.775096e+02	-3.462181e+01
6.814229e+02	-3.466524e+01
6.853587e+02	-3.472467e+01
6.893173e+02	-3.477254e+01
6.932988e+02	-3.482716e+01
6.973033e+02	-3.488488e+01
7.013309e+02	-3.493448e+01
