Frequency(Hz)	Magnitude(dB)
1.000000e+01	-2.289080e+00
1.005776e+01	-2.309704e+00
1.011585e+01	-2.330389e+00
1.017428e+01	-2.351284e+00
1.023305e+01	-2.372332e+00
1.029215e+01	-2.393169e+00
1.035160e+01	-2.414667e+00
1.041139e+01	-2.436065e+00
1.047153e+01	-2.457291e+00
1.053201e+01	-2.479264e+00
1.059284e+01	-2.501033e+00
1.065403e+01	-2.523000e+00
1.071556e+01	-2.545020e+00
1.077746e+01	-2.567148e+00
1.083971e+01	-2.589774e+00
1.090232e+01	-2.612342e+00
1.096529e+01	-2.634947e+00
1.102862e+01	-2.657697e+00
1.109232e+01	-2.680733e+00
1.115639e+01	-2.703945e+00
1.122083e+01	-2.726986e+00
1.128564e+01	-2.750667e+00
1.135083e+01	-2.774185e+00
1.141639e+01	-2.797873e+00
1.148233e+01	-2.821599e+00
1.154865e+01	-2.845607e+00
1.161536e+01	-2.869755e+00
1.168245e+01	-2.894112e+00
1.174992e+01	-2.918600e+00
1.181779e+01	-2.942843e+00
1.188605e+01	-2.967698e+00
1.195470e+01	-2.992418e+00
1.202375e+01	-3.017456e+00
1.209320e+01	-3.042481e+00
1.216305e+01	-3.067583e+00
1.223330e+01	-3.093101e+00
1.230396e+01	-3.118778e+00
1.237503e+01	-3.144767e+00
1.244651e+01	-3.170291e+00
1.251840e+01	-3.196423e+00
1.259070e+01	-3.222620e+00
1.266343e+01	-3.249051e+00
1.273657e+01	-3.275323e+00
1.281014e+01	-3.301594e+00
1.288413e+01	-3.328542e+00
1.295855e+01	-3.355182e+00
1.303339e+01	-3.382157e+00
1.310867e+01	-3.409303e+00
1.318439e+01	-3.436608e+00
1.326054e+01	-3.464035e+00
1.333713e+01	-3.491692e+00
1.341417e+01	-3.519392e+00
1.349165e+01	-3.547177e+00
1.356958e+01	-3.575233e+00
1.364795e+01	-3.603318e+00
1.372678e+01	-3.631598e+00
1.380607e+01	-3.660263e+00
1.388581e+01	-3.688630e+00
1.396602e+01	-3.717302e+00
1.404668e+01	-3.745890e+00
1.412782e+01	-3.775001e+00
1.420942e+01	-3.804434e+00
1.429149e+01	-3.833382e+00
1.437404e+01	-3.863040e+00
1.445706e+01	-3.892383e+00
1.454057e+01	-3.921915e+00
1.462455e+01	-3.951801e+00
1.470902e+01	-3.982154e+00
1.479398e+01	-4.011944e+00
1.487943e+01	-4.042331e+00
1.496537e+01	-4.072553e+00
1.505181e+01	-4.103243e+00
1.513875e+01	-4.133714e+00
1.522619e+01	-4.164429e+00
1.531414e+01	-4.195383e+00
1.540259e+01	-4.226302e+00
1.549156e+01	-4.257465e+00
1.558103e+01	-4.289180e+00
1.567103e+01	-4.320671e+00
1.576155e+01	-4.351731e+00
1.585258e+01	-4.383921e+00
1.594415e+01	-4.415614e+00
1.603624e+01	-4.447687e+00
1.612886e+01	-4.479748e+00
1.622202e+01	-4.512312e+00
1.631572e+01	-4.544530e+00
1.640996e+01	-4.576863e+00
1.650474e+01	-4.609742e+00
1.660008e+01	-4.642513e+00
1.669596e+01	-4.675383e+00
1.679239e+01	-4.708356e+00
1.688938e+01	-4.741513e+00
1.698694e+01	-4.774856e+00
1.708505e+01	-4.808349e+00
1.718373e+01	-4.841813e+00
1.728299e+01	-4.875742e+00
1.738281e+01	-4.909168e+00
1.748322e+01	-4.943078e+00
1.758420e+01	-4.977307e+00
1.768576e+01	-5.011441e+00
1.778792e+01	-5.045552e+00
1.789066e+01	-5.080331e+00
1.799399e+01	-5.114735e+00
1.809793e+01	-5.149546e+00
1.820246e+01	-5.184436e+00
1.830760e+01	-5.219056e+00
1.841334e+01	-5.254168e+00
1.851969e+01	-5.289422e+00
1.862666e+01	-5.324531e+00
1.873425e+01	-5.359950e+00
1.884246e+01	-5.395641e+00
1.895129e+01	-5.431272e+00
1.906075e+01	-5.466854e+00
1.917085e+01	-5.502889e+00
1.928158e+01	-5.538952e+00
1.939295e+01	-5.574910e+00
1.950496e+01	-5.610773e+00
1.961762e+01	-5.647502e+00
1.973093e+01	-5.684078e+00
1.984490e+01	-5.720771e+00
1.995952e+01	-5.757289e+00
2.007480e+01	-5.794079e+00
2.019076e+01	-5.830961e+00
2.030738e+01	-5.867927e+00
2.042467e+01	-5.904883e+00
2.054264e+01	-5.942502e+00
2.066130e+01	-5.979686e+00
2.078064e+01	-6.016847e+00
2.090066e+01	-6.055113e+00
2.102139e+01	-6.092422e+00
2.114280e+01	-6.129839e+00
2.126492e+01	-6.168072e+00
2.138775e+01	-6.206072e+00
2.151128e+01	-6.244029e+00
2.163553e+01	-6.282186e+00
2.176050e+01	-6.320941e+00
2.188619e+01	-6.359195e+00
2.201260e+01	-6.397697e+00
2.213974e+01	-6.436201e+00
2.226762e+01	-6.474765e+00
2.239624e+01	-6.513330e+00
2.252560e+01	-6.552433e+00
2.265571e+01	-6.591481e+00
2.278656e+01	-6.630702e+00
2.291818e+01	-6.669927e+00
2.305055e+01	-6.708907e+00
2.318369e+01	-6.748422e+00
2.331760e+01	-6.788473e+00
2.345228e+01	-6.827900e+00
2.358774e+01	-6.867177e+00
2.372398e+01	-6.907254e+00
2.386101e+01	-6.947028e+00
2.399883e+01	-6.986742e+00
2.413745e+01	-7.027167e+00
2.427686e+01	-7.067116e+00
2.441709e+01	-7.107423e+00
2.455812e+01	-7.147766e+00
2.469997e+01	-7.188445e+00
2.484263e+01	-7.228742e+00
2.498612e+01	-7.269720e+00
2.513044e+01	-7.310142e+00
2.527559e+01	-7.350779e+00
2.542158e+01	-7.391886e+00
2.556842e+01	-7.432579e+00
2.571610e+01	-7.473854e+00
2.586463e+01	-7.514738e+00
2.601403e+01	-7.556319e+00
2.616428e+01	-7.597435e+00
2.631541e+01	-7.638889e+00
2.646740e+01	-7.679769e+00
2.662028e+01	-7.721820e+00
2.677404e+01	-7.763007e+00
2.692868e+01	-7.804822e+00
2.708422e+01	-7.846402e+00
2.724066e+01	-7.888732e+00
2.739800e+01	-7.930539e+00
2.755625e+01	-7.971915e+00
2.771541e+01	-8.014600e+00
2.787550e+01	-8.056984e+00
2.803650e+01	-8.098940e+00
2.819844e+01	-8.141142e+00
2.836131e+01	-8.183950e+00
2.852513e+01	-8.226229e+00
2.868989e+01	-8.268939e+00
2.885560e+01	-8.310994e+00
2.902227e+01	-8.354059e+00
2.918990e+01	-8.396656e+00
2.935850e+01	-8.439623e+00
2.952807e+01	-8.482687e+00
2.969863e+01	-8.525418e+00
2.987016e+01	-8.568192e+00
3.004269e+01	-8.611440e+00
3.021622e+01	-8.654412e+00
3.039075e+01	-8.697333e+00
3.056628e+01	-8.741032e+00
3.074283e+01	-8.784757e+00
3.092040e+01	-8.827756e+00
3.109900e+01	-8.871666e+00
3.127862e+01	-8.915388e+00
3.145929e+01	-8.958933e+00
3.164099e+01	-9.002540e+00
3.182375e+01	-9.046388e+00
3.200756e+01	-9.090264e+00
3.219244e+01	-9.133689e+00
3.237838e+01	-9.178081e+00
3.256540e+01	-9.222047e+00
3.275349e+01	-9.265899e+00
3.294268e+01	-9.310221e+00
3.313295e+01	-9.354284e+00
3.332433e+01	-9.398899e+00
3.351681e+01	-9.443486e+00
3.371040e+01	-9.487545e+00
3.390511e+01	-9.531630e+00
3.410094e+01	-9.575710e+00
3.429791e+01	-9.620386e+00
3.449601e+01	-9.665200e+00
3.469526e+01	-9.709984e+00
3.489566e+01	-9.754542e+00
3.509721e+01	-9.799477e+00
3.529993e+01	-9.844295e+00
3.550382e+01	-9.888807e+00
3.570889e+01	-9.933884e+00
3.591515e+01	-9.978825e+00
3.612259e+01	-1.002392e+01
3.633123e+01	-1.006956e+01
3.654108e+01	-1.011402e+01
3.675214e+01	-1.015921e+01
3.696442e+01	-1.020438e+01
3.717792e+01	-1.025009e+01
3.739266e+01	-1.029494e+01
3.760864e+01	-1.034088e+01
3.782587e+01	-1.038621e+01
3.804435e+01	-1.043094e+01
3.826409e+01	-1.047637e+01
3.848510e+01	-1.052236e+01
3.870739e+01	-1.056847e+01
3.893096e+01	-1.061365e+01
3.915583e+01	-1.065983e+01
3.938199e+01	-1.070524e+01
3.960946e+01	-1.075129e+01
3.983824e+01	-1.079750e+01
4.006834e+01	-1.084332e+01
4.029978e+01	-1.088856e+01
4.053255e+01	-1.093430e+01
4.076666e+01	-1.098080e+01
4.100213e+01	-1.102643e+01
4.123896e+01	-1.107224e+01
4.147715e+01	-1.111882e+01
4.171672e+01	-1.116566e+01
4.195767e+01	-1.121155e+01
4.220002e+01	-1.125691e+01
4.244377e+01	-1.130440e+01
4.268892e+01	-1.135003e+01
4.293549e+01	-1.139648e+01
4.318348e+01	-1.144278e+01
4.343291e+01	-1.148976e+01
4.368377e+01	-1.153605e+01
4.393609e+01	-1.158280e+01
4.418986e+01	-1.162909e+01
4.444510e+01	-1.167588e+01
4.470182e+01	-1.172195e+01
4.496001e+01	-1.176865e+01
4.521970e+01	-1.181619e+01
4.548089e+01	-1.186253e+01
4.574358e+01	-1.190907e+01
4.600779e+01	-1.195617e+01
4.627353e+01	-1.200350e+01
4.654081e+01	-1.205037e+01
4.680963e+01	-1.209740e+01
4.708000e+01	-1.214364e+01
4.735193e+01	-1.219062e+01
4.762543e+01	-1.223811e+01
4.790051e+01	-1.228474e+01
4.817719e+01	-1.233252e+01
4.845545e+01	-1.237937e+01
4.873533e+01	-1.242620e+01
4.901682e+01	-1.247336e+01
4.929994e+01	-1.252010e+01
4.958470e+01	-1.256789e+01
4.987110e+01	-1.261498e+01
5.015915e+01	-1.266191e+01
5.044887e+01	-1.271052e+01
5.074026e+01	-1.275717e+01
5.103333e+01	-1.280489e+01
5.132810e+01	-1.285184e+01
5.162457e+01	-1.289922e+01
5.192275e+01	-1.294768e+01
5.222265e+01	-1.299430e+01
5.252429e+01	-1.304129e+01
5.282767e+01	-1.308968e+01
5.313280e+01	-1.313755e+01
5.343969e+01	-1.318463e+01
5.374836e+01	-1.323267e+01
5.405880e+01	-1.327935e+01
5.437105e+01	-1.332764e+01
5.468509e+01	-1.337616e+01
5.500095e+01	-1.342310e+01
5.531863e+01	-1.347141e+01
5.563815e+01	-1.351827e+01
5.595951e+01	-1.356596e+01
5.628273e+01	-1.361437e+01
5.660782e+01	-1.366196e+01
5.693479e+01	-1.371097e+01
5.726364e+01	-1.375757e+01
5.759439e+01	-1.380567e+01
5.792705e+01	-1.385412e+01
5.826164e+01	-1.390250e+01
5.859815e+01	-1.394924e+01
5.893662e+01	-1.399757e+01
5.927703e+01	-1.404631e+01
5.961941e+01	-1.409415e+01
5.996377e+01	-1.414181e+01
6.031012e+01	-1.419000e+01
6.065847e+01	-1.423711e+01
6.100883e+01	-1.428653e+01
6.136121e+01	-1.433427e+01
6.171563e+01	-1.438293e+01
6.207210e+01	-1.443160e+01
6.243063e+01	-1.447949e+01
6.279122e+01	-1.452728e+01
6.315390e+01	-1.457656e+01
6.351868e+01	-1.462411e+01
6.388556e+01	-1.467233e+01
6.425456e+01	-1.472089e+01
6.462569e+01	-1.476902e+01
6.499897e+01	-1.481753e+01
6.537440e+01	-1.486588e+01
6.575200e+01	-1.491375e+01
6.613178e+01	-1.496278e+01
6.651375e+01	-1.501018e+01
6.689793e+01	-1.506057e+01
6.728433e+01	-1.510806e+01
6.767297e+01	-1.515645e+01
6.806384e+01	-1.520549e+01
6.845698e+01	-1.525323e+01
6.885238e+01	-1.530220e+01
6.925007e+01	-1.535011e+01
6.965005e+01	-1.539889e+01
7.005235e+01	-1.544815e+01
7.045697e+01	-1.549611e+01
7.086393e+01	-1.554457e+01
7.127323e+01	-1.559305e+01
7.168490e+01	-1.564214e+01
7.209895e+01	-1.569197e+01
7.251539e+01	-1.573991e+01
7.293424e+01	-1.578774e+01
7.335551e+01	-1.583750e+01
7.377920e+01	-1.588612e+01
7.420535e+01	-1.593358e+01
7.463396e+01	-1.598335e+01
7.506504e+01	-1.603247e+01
7.549861e+01	-1.607990e+01
7.593469e+01	-1.613113e+01
7.637328e+01	-1.617842e+01
7.681441e+01	-1.622757e+01
7.725809e+01	-1.627656e+01
7.770433e+01	-1.632544e+01
7.815315e+01	-1.637438e+01
7.860456e+01	-1.642293e+01
7.905857e+01	-1.647174e+01
7.951521e+01	-1.652123e+01
7.997449e+01	-1.656929e+01
8.043642e+01	-1.661794e+01
8.090102e+01	-1.666721e+01
8.136830e+01	-1.671706e+01
8.183828e+01	-1.676531e+01
8.231097e+01	-1.681422e+01
8.278640e+01	-1.686398e+01
8.326457e+01	-1.691257e+01
8.374550e+01	-1.696233e+01
8.422921e+01	-1.701169e+01
8.471572e+01	-1.706068e+01
8.520503e+01	-1.710858e+01
8.569717e+01	-1.715619e+01
8.619215e+01	-1.720678e+01
8.669000e+01	-1.725621e+01
8.719071e+01	-1.730617e+01
8.769432e+01	-1.735464e+01
8.820084e+01	-1.740240e+01
8.871029e+01	-1.745221e+01
8.922267e+01	-1.750210e+01
8.973802e+01	-1.755089e+01
9.025634e+01	-1.760079e+01
9.077766e+01	-1.764869e+01
9.130199e+01	-1.769807e+01
9.182935e+01	-1.774724e+01
9.235975e+01	-1.779716e+01
9.289321e+01	-1.784556e+01
9.342976e+01	-1.789504e+01
9.396941e+01	-1.794434e+01
9.451217e+01	-1.799323e+01
9.505807e+01	-1.804171e+01
9.560712e+01	-1.809190e+01
9.615934e+01	-1.814138e+01
9.671476e+01	-1.819059e+01
9.727338e+01	-1.824095e+01
9.783522e+01	-1.828849e+01
9.840032e+01	-1.833910e+01
9.896867e+01	-1.838763e+01
9.954031e+01	-1.843599e+01
1.001153e+02	-1.848726e+01
1.006935e+02	-1.853508e+01
1.012751e+02	-1.858362e+01
1.018601e+02	-1.863460e+01
1.024484e+02	-1.868404e+01
1.030402e+02	-1.873174e+01
1.036353e+02	-1.878258e+01
1.042339e+02	-1.883307e+01
1.048360e+02	-1.888059e+01
1.054415e+02	-1.893045e+01
1.060505e+02	-1.898019e+01
1.066631e+02	-1.902986e+01
1.072791e+02	-1.907887e+01
1.078988e+02	-1.912909e+01
1.085220e+02	-1.917894e+01
1.091488e+02	-1.922738e+01
1.097793e+02	-1.927670e+01
1.104133e+02	-1.932635e+01
1.110511e+02	-1.937373e+01
1.116925e+02	-1.942516e+01
1.123376e+02	-1.947430e+01
1.129865e+02	-1.952363e+01
1.136391e+02	-1.957396e+01
1.142955e+02	-1.962032e+01
1.149556e+02	-1.967204e+01
1.156196e+02	-1.972208e+01
1.162874e+02	-1.976980e+01
1.169591e+02	-1.982071e+01
1.176347e+02	-1.987049e+01
1.183141e+02	-1.991928e+01
1.189975e+02	-1.996941e+01
1.196848e+02	-2.002028e+01
1.203761e+02	-2.006877e+01
1.210714e+02	-2.011805e+01
1.217707e+02	-2.016822e+01
1.224740e+02	-2.021607e+01
1.231814e+02	-2.026687e+01
1.238929e+02	-2.031541e+01
1.246085e+02	-2.036678e+01
1.253283e+02	-2.041640e+01
1.260522e+02	-2.046480e+01
1.267802e+02	-2.051549e+01
1.275125e+02	-2.056396e+01
1.282490e+02	-2.061409e+01
1.289898e+02	-2.066400e+01
1.297348e+02	-2.071067e+01
1.304842e+02	-2.076253e+01
1.312378e+02	-2.081155e+01
1.319959e+02	-2.086076e+01
1.327583e+02	-2.091039e+01
1.335251e+02	-2.096196e+01
1.342963e+02	-2.101144e+01
1.350720e+02	-2.105841e+01
1.358522e+02	-2.111046e+01
1.366368e+02	-2.115826e+01
1.374260e+02	-2.120866e+01
1.382198e+02	-2.125967e+01
1.390182e+02	-2.130875e+01
1.398211e+02	-2.135749e+01
1.406287e+02	-2.140659e+01
1.414410e+02	-2.145673e+01
1.422579e+02	-2.150735e+01
1.430796e+02	-2.155641e+01
1.439060e+02	-2.160548e+01
1.447372e+02	-2.165648e+01
1.455732e+02	-2.170588e+01
1.464141e+02	-2.175388e+01
1.472597e+02	-2.180479e+01
1.481103e+02	-2.185329e+01
1.489658e+02	-2.190434e+01
1.498262e+02	-2.195554e+01
1.506916e+02	-2.200560e+01
1.515620e+02	-2.205328e+01
1.524374e+02	-2.210365e+01
1.533179e+02	-2.215598e+01
1.542034e+02	-2.220305e+01
1.550941e+02	-2.225516e+01
1.559899e+02	-2.230049e+01
1.568909e+02	-2.235184e+01
1.577971e+02	-2.240239e+01
1.587085e+02	-2.245336e+01
1.596252e+02	-2.250153e+01
1.605472e+02	-2.255211e+01
1.614745e+02	-2.260179e+01
1.624072e+02	-2.265016e+01
1.633453e+02	-2.269972e+01
1.642887e+02	-2.275133e+01
1.652377e+02	-2.280068e+01
1.661921e+02	-2.285090e+01
1.671520e+02	-2.289813e+01
1.681175e+02	-2.294906e+01
1.690885e+02	-2.299867e+01
1.700651e+02	-2.304834e+01
1.710474e+02	-2.309857e+01
1.720354e+02	-2.314893e+01
1.730291e+02	-2.319972e+01
1.740285e+02	-2.324647e+01
1.750337e+02	-2.329889e+01
1.760446e+02	-2.334840e+01
1.770615e+02	-2.339830e+01
1.780842e+02	-2.344790e+01
1.791128e+02	-2.349671e+01
1.801473e+02	-2.354900e+01
1.811878e+02	-2.359781e+01
1.822344e+02	-2.364562e+01
1.832870e+02	-2.369725e+01
1.843456e+02	-2.374615e+01
1.854104e+02	-2.379591e+01
1.864813e+02	-2.384808e+01
1.875584e+02	-2.389715e+01
1.886418e+02	-2.394767e+01
1.897313e+02	-2.399428e+01
1.908272e+02	-2.404472e+01
1.919294e+02	-2.409812e+01
1.930380e+02	-2.414555e+01
1.941530e+02	-2.419377e+01
1.952744e+02	-2.424505e+01
1.964023e+02	-2.429558e+01
1.975367e+02	-2.434498e+01
1.986777e+02	-2.439512e+01
1.998252e+02	-2.444230e+01
2.009794e+02	-2.449429e+01
2.021403e+02	-2.454597e+01
2.033078e+02	-2.459322e+01
2.044821e+02	-2.464208e+01
2.056632e+02	-2.469327e+01
2.068511e+02	-2.474294e+01
2.080459e+02	-2.479598e+01
2.092475e+02	-2.484575e+01
2.104561e+02	-2.489455e+01
2.116717e+02	-2.494096e+01
2.128943e+02	-2.499388e+01
2.141240e+02	-2.504327e+01
2.153608e+02	-2.509379e+01
2.166047e+02	-2.514232e+01
2.178558e+02	-2.519192e+01
2.191141e+02	-2.524039e+01
2.203797e+02	-2.529128e+01
2.216526e+02	-2.534110e+01
2.229329e+02	-2.539361e+01
2.242205e+02	-2.544470e+01
2.255156e+02	-2.549048e+01
2.268182e+02	-2.554131e+01
2.281283e+02	-2.559582e+01
2.294459e+02	-2.563983e+01
2.307712e+02	-2.569176e+01
2.321041e+02	-2.574020e+01
2.334447e+02	-2.579101e+01
2.347931e+02	-2.584290e+01
2.361493e+02	-2.588932e+01
2.375133e+02	-2.594436e+01
2.388851e+02	-2.599180e+01
2.402649e+02	-2.604161e+01
2.416527e+02	-2.609144e+01
2.430484e+02	-2.614187e+01
2.444523e+02	-2.618955e+01
2.458642e+02	-2.624073e+01
2.472843e+02	-2.629267e+01
2.487126e+02	-2.634147e+01
2.501492e+02	-2.639190e+01
2.515940e+02	-2.644031e+01
2.530472e+02	-2.649206e+01
2.545088e+02	-2.654165e+01
2.559789e+02	-2.659017e+01
2.574574e+02	-2.664548e+01
2.589444e+02	-2.669231e+01
2.604401e+02	-2.674153e+01
2.619444e+02	-2.679218e+01
2.634574e+02	-2.684333e+01
2.649791e+02	-2.688956e+01
2.665096e+02	-2.694280e+01
2.680489e+02	-2.698957e+01
2.695972e+02	-2.704346e+01
2.711544e+02	-2.709348e+01
2.727205e+02	-2.714092e+01
2.742958e+02	-2.719457e+01
2.758801e+02	-2.723999e+01
2.774736e+02	-2.728993e+01
2.790762e+02	-2.734078e+01
2.806882e+02	-2.739212e+01
2.823094e+02	-2.743937e+01
2.839400e+02	-2.749171e+01
2.855800e+02	-2.754198e+01
2.872295e+02	-2.759279e+01
2.888886e+02	-2.764075e+01
2.905572e+02	-2.768981e+01
2.922354e+02	-2.773957e+01
2.939234e+02	-2.779050e+01
2.956211e+02	-2.784019e+01
2.973286e+02	-2.789044e+01
2.990459e+02	-2.794334e+01
3.007732e+02	-2.799210e+01
3.025104e+02	-2.804302e+01
3.042577e+02	-2.809142e+01
3.060151e+02	-2.814433e+01
3.077826e+02	-2.819089e+01
3.095604e+02	-2.823890e+01
3.113484e+02	-2.828884e+01
3.131467e+02	-2.834352e+01
3.149554e+02	-2.839198e+01
3.167746e+02	-2.844142e+01
3.186043e+02	-2.849011e+01
3.204445e+02	-2.854330e+01
3.222954e+02	-2.859220e+01
3.241570e+02	-2.864295e+01
3.260293e+02	-2.869236e+01
3.279124e+02	-2.873968e+01
3.298064e+02	-2.878978e+01
3.317114e+02	-2.884283e+01
3.336273e+02	-2.889016e+01
3.355544e+02	-2.894293e+01
3.374925e+02	-2.899158e+01
3.394418e+02	-2.904130e+01
3.414024e+02	-2.908790e+01
3.433744e+02	-2.914521e+01
3.453577e+02	-2.919368e+01
3.473525e+02	-2.924292e+01
3.493588e+02	-2.929377e+01
3.513766e+02	-2.934587e+01
3.534062e+02	-2.939211e+01
3.554474e+02	-2.944042e+01
3.575005e+02	-2.948878e+01
3.595654e+02	-2.954271e+01
3.616422e+02	-2.959473e+01
3.637311e+02	-2.964259e+01
3.658320e+02	-2.969174e+01
3.679450e+02	-2.974142e+01
3.700702e+02	-2.979275e+01
3.722077e+02	-2.984244e+01
3.743576e+02	-2.989111e+01
3.765199e+02	-2.994215e+01
3.786946e+02	-2.999668e+01
3.808820e+02	-3.004649e+01
3.830819e+02	-3.008529e+01
3.852946e+02	-3.013869e+01
3.875200e+02	-3.020055e+01
3.897583e+02	-3.024650e+01
3.920096e+02	-3.029555e+01
3.942738e+02	-3.034721e+01
3.965511e+02	-3.039936e+01
3.988416e+02	-3.043857e+01
4.011452e+02	-3.049960e+01
4.034622e+02	-3.054032e+01
4.057926e+02	-3.059886e+01
4.081365e+02	-3.064215e+01
4.104938e+02	-3.069268e+01
4.128648e+02	-3.074492e+01
4.152495e+02	-3.080067e+01
4.176480e+02	-3.084301e+01
4.200603e+02	-3.089589e+01
4.224866e+02	-3.094092e+01
4.249268e+02	-3.099470e+01
4.273812e+02	-3.104635e+01
4.298497e+02	-3.109565e+01
4.323325e+02	-3.114731e+01
4.348297e+02	-3.119541e+01
4.373412e+02	-3.124593e+01
4.398673e+02	-3.129160e+01
4.424079e+02	-3.134725e+01
4.449633e+02	-3.139983e+01
4.475334e+02	-3.144962e+01
4.501183e+02	-3.149876e+01
4.527182e+02	-3.154684e+01
4.553330e+02	-3.159722e+01
4.579630e+02	-3.164464e+01
4.606082e+02	-3.169574e+01
4.632687e+02	-3.174657e+01
4.659445e+02	-3.179609e+01
4.686358e+02	-3.184428e+01
4.713426e+02	-3.190813e+01
4.740650e+02	-3.194862e+01
4.768032e+02	-3.199212e+01
4.795572e+02	-3.204982e+01
4.823271e+02	-3.209857e+01
4.851130e+02	-3.215027e+01
4.879150e+02	-3.219989e+01
4.907332e+02	-3.224939e+01
4.935676e+02	-3.230130e+01
4.964185e+02	-3.234810e+01
4.992858e+02	-3.240210e+01
5.021696e+02	-3.245134e+01
5.050701e+02	-3.249861e+01
5.079874e+02	-3.255121e+01
5.109215e+02	-3.259899e+01
5.138726e+02	-3.265799e+01
5.168407e+02	-3.269408e+01
5.198259e+02	-3.275397e+01
5.228284e+02	-3.279959e+01
5.258482e+02	-3.285215e+01
5.288855e+02	-3.289827e+01
5.319403e+02	-3.294944e+01
5.350128e+02	-3.300193e+01
5.381030e+02	-3.304850e+01
5.412111e+02	-3.309840e+01
5.443371e+02	-3.314933e+01
5.474812e+02	-3.320164e+01
5.506434e+02	-3.324858e+01
5.538239e+02	-3.330716e+01
5.570228e+02	-3.335050e+01
5.602401e+02	-3.339911e+01
5.634760e+02	-3.346136e+01
5.667306e+02	-3.350195e+01
5.700040e+02	-3.356297e+01
5.732964e+02	-3.360954e+01
5.766077e+02	-3.365575e+01
5.799382e+02	-3.370466e+01
5.832879e+02	-3.375585e+01
5.866569e+02	-3.380575e+01
5.900454e+02	-3.385669e+01
5.934535e+02	-3.390775e+01
5.968813e+02	-3.395762e+01
6.003288e+02	-3.400969e+01
6.037963e+02	-3.405239e+01
6.072838e+02	-3.410604e+01
6.107914e+02	-3.415800e+01
6.143194e+02	-3.420862e+01
6.178676e+02	-3.426328e+01
6.214364e+02	-3.430410e+01
6.250258e+02	-3.435904e+01
6.286359e+02	-3.441492e+01
6.322669e+02	-3.446274e+01
6.359189e+02	-3.450705e+01
6.395919e+02	-3.455801e+01
6.432862e+02	-3.460721e+01
6.470017e+02	-3.465712e+01
6.507388e+02	-3.471091e+01
6.544974e+02	-3.475209e+01
6.582778e+02	-3.481475e+01
6.620800e+02	-3.486366e+01
6.659041e+02	-3.491357e+01
6.697504e+02	-3.496253e+01
6.736188e+02	-3.501926e+01
6.775096e+02	-3.506548e+01
6.814229e+02	-3.511436e+01
6.853587e+02	-3.517209e+01
6.893173e+02	-3.521960e+01
6.932988e+02	-3.526554e+01
6.973033e+02	-3.531730e+01
7.013309e+02	-3.536757e+01
