Frequency(Hz)	Magnitude(dB)
1.000000e+01	-1.767419e-05
1.005776e+01	-1.787895e-05
1.011585e+01	-1.808608e-05
1.017428e+01	-1.829561e-05
1.023305e+01	-1.850757e-05
1.029215e+01	-1.872199e-05
1.035160e+01	-1.893889e-05
1.041139e+01	-1.915830e-05
1.047153e+01	-1.938025e-05
1.053201e+01	-1.960478e-05
1.059284e+01	-1.983190e-05
1.065403e+01	-2.006166e-05
1.071556e+01	-2.029408e-05
1.077746e+01	-2.052919e-05
1.083971e+01	-2.076703e-05
1.090232e+01	-2.100762e-05
1.096529e+01	-2.125100e-05
1.102862e+01	-2.149720e-05
1.109232e+01	-2.174625e-05
1.115639e+01	-2.199818e-05
1.122083e+01	-2.225304e-05
1.128564e+01	-2.251084e-05
1.135083e+01	-2.277164e-05
1.141639e+01	-2.303545e-05
1.148233e+01	-2.330232e-05
1.154865e+01	-2.357229e-05
1.161536e+01	-2.384538e-05
1.168245e+01	-2.412163e-05
1.174992e+01	-2.440109e-05
1.181779e+01	-2.468378e-05
1.188605e+01	-2.496975e-05
1.195470e+01	-2.525903e-05
1.202375e+01	-2.555166e-05
1.209320e+01	-2.584768e-05
1.216305e+01	-2.614713e-05
1.223330e+01	-2.645005e-05
1.230396e+01	-2.675649e-05
1.237503e+01	-2.706647e-05
1.244651e+01	-2.738004e-05
1.251840e+01	-2.769724e-05
1.259070e+01	-2.801812e-05
1.266343e+01	-2.834272e-05
1.273657e+01	-2.867107e-05
1.281014e+01	-2.900324e-05
1.288413e+01	-2.933925e-05
1.295855e+01	-2.967915e-05
1.303339e+01	-3.002299e-05
1.310867e+01	-3.037081e-05
1.318439e+01	-3.072266e-05
1.326054e+01	-3.107859e-05
1.333713e+01	-3.143865e-05
1.341417e+01	-3.180287e-05
1.349165e+01	-3.217131e-05
1.356958e+01	-3.254403e-05
1.364795e+01	-3.292106e-05
1.372678e+01	-3.330246e-05
1.380607e+01	-3.368827e-05
1.388581e+01	-3.407856e-05
1.396602e+01	-3.447337e-05
1.404668e+01	-3.487275e-05
1.412782e+01	-3.527676e-05
1.420942e+01	-3.568545e-05
1.429149e+01	-3.609887e-05
1.437404e+01	-3.651709e-05
1.445706e+01	-3.694014e-05
1.454057e+01	-3.736810e-05
1.462455e+01	-3.780102e-05
1.470902e+01	-3.823896e-05
1.479398e+01	-3.868196e-05
1.487943e+01	-3.913010e-05
1.496537e+01	-3.958343e-05
1.505181e+01	-4.004202e-05
1.513875e+01	-4.050591e-05
1.522619e+01	-4.097518e-05
1.531414e+01	-4.144989e-05
1.540259e+01	-4.193009e-05
1.549156e+01	-4.241586e-05
1.558103e+01	-4.290726e-05
1.567103e+01	-4.340435e-05
1.576155e+01	-4.390720e-05
1.585258e+01	-4.441588e-05
1.594415e+01	-4.493044e-05
1.603624e+01	-4.545097e-05
1.612886e+01	-4.597753e-05
1.622202e+01	-4.651019e-05
1.631572e+01	-4.704902e-05
1.640996e+01	-4.759410e-05
1.650474e+01	-4.814548e-05
1.660008e+01	-4.870326e-05
1.669596e+01	-4.926750e-05
1.679239e+01	-4.983827e-05
1.688938e+01	-5.041566e-05
1.698694e+01	-5.099973e-05
1.708505e+01	-5.159058e-05
1.718373e+01	-5.218826e-05
1.728299e+01	-5.279288e-05
1.738281e+01	-5.340449e-05
1.748322e+01	-5.402320e-05
1.758420e+01	-5.464907e-05
1.768576e+01	-5.528219e-05
1.778792e+01	-5.592264e-05
1.789066e+01	-5.657052e-05
1.799399e+01	-5.722590e-05
1.809793e+01	-5.788887e-05
1.820246e+01	-5.855953e-05
1.830760e+01	-5.923795e-05
1.841334e+01	-5.992423e-05
1.851969e+01	-6.061847e-05
1.862666e+01	-6.132074e-05
1.873425e+01	-6.203116e-05
1.884246e+01	-6.274980e-05
1.895129e+01	-6.347677e-05
1.906075e+01	-6.421216e-05
1.917085e+01	-6.495607e-05
1.928158e+01	-6.570860e-05
1.939295e+01	-6.646984e-05
1.950496e+01	-6.723991e-05
1.961762e+01	-6.801890e-05
1.973093e+01	-6.880691e-05
1.984490e+01	-6.960405e-05
1.995952e+01	-7.041043e-05
2.007480e+01	-7.122614e-05
2.019076e+01	-7.205131e-05
2.030738e+01	-7.288604e-05
2.042467e+01	-7.373044e-05
2.054264e+01	-7.458462e-05
2.066130e+01	-7.544869e-05
2.078064e+01	-7.632278e-05
2.090066e+01	-7.720699e-05
2.102139e+01	-7.810145e-05
2.114280e+01	-7.900627e-05
2.126492e+01	-7.992157e-05
2.138775e+01	-8.084747e-05
2.151128e+01	-8.178411e-05
2.163553e+01	-8.273159e-05
2.176050e+01	-8.369005e-05
2.188619e+01	-8.465961e-05
2.201260e+01	-8.564041e-05
2.213974e+01	-8.663257e-05
2.226762e+01	-8.763622e-05
2.239624e+01	-8.865150e-05
2.252560e+01	-8.967854e-05
2.265571e+01	-9.071748e-05
2.278656e+01	-9.176846e-05
2.291818e+01	-9.283161e-05
2.305055e+01	-9.390708e-05
2.318369e+01	-9.499500e-05
2.331760e+01	-9.609554e-05
2.345228e+01	-9.720882e-05
2.358774e+01	-9.833500e-05
2.372398e+01	-9.947422e-05
2.386101e+01	-1.006266e-04
2.399883e+01	-1.017924e-04
2.413745e+01	-1.029717e-04
2.427686e+01	-1.041646e-04
2.441709e+01	-1.053714e-04
2.455812e+01	-1.065921e-04
2.469997e+01	-1.078270e-04
2.484263e+01	-1.090762e-04
2.498612e+01	-1.103399e-04
2.513044e+01	-1.116182e-04
2.527559e+01	-1.129113e-04
2.542158e+01	-1.142194e-04
2.556842e+01	-1.155426e-04
2.571610e+01	-1.168812e-04
2.586463e+01	-1.182353e-04
2.601403e+01	-1.196051e-04
2.616428e+01	-1.209907e-04
2.631541e+01	-1.223924e-04
2.646740e+01	-1.238103e-04
2.662028e+01	-1.252447e-04
2.677404e+01	-1.266956e-04
2.692868e+01	-1.281634e-04
2.708422e+01	-1.296482e-04
2.724066e+01	-1.311502e-04
2.739800e+01	-1.326696e-04
2.755625e+01	-1.342066e-04
2.771541e+01	-1.357614e-04
2.787550e+01	-1.373342e-04
2.803650e+01	-1.389252e-04
2.819844e+01	-1.405347e-04
2.836131e+01	-1.421628e-04
2.852513e+01	-1.438098e-04
2.868989e+01	-1.454758e-04
2.885560e+01	-1.471612e-04
2.902227e+01	-1.488660e-04
2.918990e+01	-1.505907e-04
2.935850e+01	-1.523353e-04
2.952807e+01	-1.541001e-04
2.969863e+01	-1.558853e-04
2.987016e+01	-1.576913e-04
3.004269e+01	-1.595181e-04
3.021622e+01	-1.613662e-04
3.039075e+01	-1.632356e-04
3.056628e+01	-1.651267e-04
3.074283e+01	-1.670397e-04
3.092040e+01	-1.689749e-04
3.109900e+01	-1.709324e-04
3.127862e+01	-1.729127e-04
3.145929e+01	-1.749159e-04
3.164099e+01	-1.769423e-04
3.182375e+01	-1.789922e-04
3.200756e+01	-1.810658e-04
3.219244e+01	-1.831635e-04
3.237838e+01	-1.852854e-04
3.256540e+01	-1.874320e-04
3.275349e+01	-1.896034e-04
3.294268e+01	-1.917999e-04
3.313295e+01	-1.940219e-04
3.332433e+01	-1.962697e-04
3.351681e+01	-1.985435e-04
3.371040e+01	-2.008436e-04
3.390511e+01	-2.031704e-04
3.410094e+01	-2.055241e-04
3.429791e+01	-2.079051e-04
3.449601e+01	-2.103137e-04
3.469526e+01	-2.127502e-04
3.489566e+01	-2.152149e-04
3.509721e+01	-2.177081e-04
3.529993e+01	-2.202303e-04
3.550382e+01	-2.227817e-04
3.570889e+01	-2.253626e-04
3.591515e+01	-2.279734e-04
3.612259e+01	-2.306145e-04
3.633123e+01	-2.332861e-04
3.654108e+01	-2.359887e-04
3.675214e+01	-2.387227e-04
3.696442e+01	-2.414882e-04
3.717792e+01	-2.442859e-04
3.739266e+01	-2.471159e-04
3.760864e+01	-2.499787e-04
3.782587e+01	-2.528747e-04
3.804435e+01	-2.558043e-04
3.826409e+01	-2.587677e-04
3.848510e+01	-2.617655e-04
3.870739e+01	-2.647981e-04
3.893096e+01	-2.678657e-04
3.915583e+01	-2.709690e-04
3.938199e+01	-2.741081e-04
3.960946e+01	-2.772836e-04
3.983824e+01	-2.804959e-04
4.006834e+01	-2.837454e-04
4.029978e+01	-2.870326e-04
4.053255e+01	-2.903578e-04
4.076666e+01	-2.937216e-04
4.100213e+01	-2.971243e-04
4.123896e+01	-3.005665e-04
4.147715e+01	-3.040485e-04
4.171672e+01	-3.075709e-04
4.195767e+01	-3.111340e-04
4.220002e+01	-3.147385e-04
4.244377e+01	-3.183847e-04
4.268892e+01	-3.220731e-04
4.293549e+01	-3.258043e-04
4.318348e+01	-3.295787e-04
4.343291e+01	-3.333968e-04
4.368377e+01	-3.372591e-04
4.393609e+01	-3.411662e-04
4.418986e+01	-3.451186e-04
4.444510e+01	-3.491167e-04
4.470182e+01	-3.531612e-04
4.496001e+01	-3.572525e-04
4.521970e+01	-3.613912e-04
4.548089e+01	-3.655778e-04
4.574358e+01	-3.698129e-04
4.600779e+01	-3.740971e-04
4.627353e+01	-3.784310e-04
4.654081e+01	-3.828150e-04
4.680963e+01	-3.872498e-04
4.708000e+01	-3.917360e-04
4.735193e+01	-3.962742e-04
4.762543e+01	-4.008649e-04
4.790051e+01	-4.055088e-04
4.817719e+01	-4.102065e-04
4.845545e+01	-4.149587e-04
4.873533e+01	-4.197658e-04
4.901682e+01	-4.246287e-04
4.929994e+01	-4.295479e-04
4.958470e+01	-4.345241e-04
4.987110e+01	-4.395579e-04
5.015915e+01	-4.446501e-04
5.044887e+01	-4.498012e-04
5.074026e+01	-4.550120e-04
5.103333e+01	-4.602831e-04
5.132810e+01	-4.656154e-04
5.162457e+01	-4.710094e-04
5.192275e+01	-4.764658e-04
5.222265e+01	-4.819855e-04
5.252429e+01	-4.875691e-04
5.282767e+01	-4.932174e-04
5.313280e+01	-4.989312e-04
5.343969e+01	-5.047111e-04
5.374836e+01	-5.105580e-04
5.405880e+01	-5.164726e-04
5.437105e+01	-5.224557e-04
5.468509e+01	-5.285081e-04
5.500095e+01	-5.346306e-04
5.531863e+01	-5.408241e-04
5.563815e+01	-5.470893e-04
5.595951e+01	-5.534271e-04
5.628273e+01	-5.598383e-04
5.660782e+01	-5.663237e-04
5.693479e+01	-5.728843e-04
5.726364e+01	-5.795209e-04
5.759439e+01	-5.862343e-04
5.792705e+01	-5.930256e-04
5.826164e+01	-5.998955e-04
5.859815e+01	-6.068449e-04
5.893662e+01	-6.138749e-04
5.927703e+01	-6.209863e-04
5.961941e+01	-6.281801e-04
5.996377e+01	-6.354572e-04
6.031012e+01	-6.428186e-04
6.065847e+01	-6.502653e-04
6.100883e+01	-6.577982e-04
6.136121e+01	-6.654184e-04
6.171563e+01	-6.731268e-04
6.207210e+01	-6.809246e-04
6.243063e+01	-6.888127e-04
6.279122e+01	-6.967921e-04
6.315390e+01	-7.048640e-04
6.351868e+01	-7.130293e-04
6.388556e+01	-7.212893e-04
6.425456e+01	-7.296449e-04
6.462569e+01	-7.380973e-04
6.499897e+01	-7.466477e-04
6.537440e+01	-7.552970e-04
6.575200e+01	-7.640466e-04
6.613178e+01	-7.728975e-04
6.651375e+01	-7.818509e-04
6.689793e+01	-7.909081e-04
6.728433e+01	-8.000701e-04
6.767297e+01	-8.093383e-04
6.806384e+01	-8.187138e-04
6.845698e+01	-8.281979e-04
6.885238e+01	-8.377919e-04
6.925007e+01	-8.474970e-04
6.965005e+01	-8.573145e-04
7.005235e+01	-8.672457e-04
7.045697e+01	-8.772920e-04
7.086393e+01	-8.874546e-04
7.127323e+01	-8.977350e-04
7.168490e+01	-9.081344e-04
7.209895e+01	-9.186542e-04
7.251539e+01	-9.292960e-04
7.293424e+01	-9.400610e-04
7.335551e+01	-9.509506e-04
7.377920e+01	-9.619664e-04
7.420535e+01	-9.731098e-04
7.463396e+01	-9.843823e-04
7.506504e+01	-9.957853e-04
7.549861e+01	-1.007320e-03
7.593469e+01	-1.018989e-03
7.637328e+01	-1.030793e-03
7.681441e+01	-1.042734e-03
7.725809e+01	-1.054812e-03
7.770433e+01	-1.067031e-03
7.815315e+01	-1.079392e-03
7.860456e+01	-1.091895e-03
7.905857e+01	-1.104543e-03
7.951521e+01	-1.117338e-03
7.997449e+01	-1.130281e-03
8.043642e+01	-1.143374e-03
8.090102e+01	-1.156619e-03
8.136830e+01	-1.170016e-03
8.183828e+01	-1.183570e-03
8.231097e+01	-1.197280e-03
8.278640e+01	-1.211149e-03
8.326457e+01	-1.225178e-03
8.374550e+01	-1.239370e-03
8.422921e+01	-1.253726e-03
8.471572e+01	-1.268249e-03
8.520503e+01	-1.282940e-03
8.569717e+01	-1.297801e-03
8.619215e+01	-1.312834e-03
8.669000e+01	-1.328041e-03
8.719071e+01	-1.343425e-03
8.769432e+01	-1.358986e-03
8.820084e+01	-1.374728e-03
8.871029e+01	-1.390652e-03
8.922267e+01	-1.406760e-03
8.973802e+01	-1.423055e-03
9.025634e+01	-1.439539e-03
9.077766e+01	-1.456214e-03
9.130199e+01	-1.473081e-03
9.182935e+01	-1.490145e-03
9.235975e+01	-1.507405e-03
9.289321e+01	-1.524866e-03
9.342976e+01	-1.542529e-03
9.396941e+01	-1.560396e-03
9.451217e+01	-1.578470e-03
9.505807e+01	-1.596754e-03
9.560712e+01	-1.615249e-03
9.615934e+01	-1.633959e-03
9.671476e+01	-1.652885e-03
9.727338e+01	-1.672031e-03
9.783522e+01	-1.691398e-03
9.840032e+01	-1.710989e-03
9.896867e+01	-1.730808e-03
9.954031e+01	-1.750855e-03
1.001153e+02	-1.771135e-03
1.006935e+02	-1.791650e-03
1.012751e+02	-1.812403e-03
1.018601e+02	-1.833395e-03
1.024484e+02	-1.854631e-03
1.030402e+02	-1.876113e-03
1.036353e+02	-1.897844e-03
1.042339e+02	-1.919826e-03
1.048360e+02	-1.942062e-03
1.054415e+02	-1.964557e-03
1.060505e+02	-1.987311e-03
1.066631e+02	-2.010330e-03
1.072791e+02	-2.033614e-03
1.078988e+02	-2.057169e-03
1.085220e+02	-2.080996e-03
1.091488e+02	-2.105099e-03
1.097793e+02	-2.129481e-03
1.104133e+02	-2.154146e-03
1.110511e+02	-2.179096e-03
1.116925e+02	-2.204335e-03
1.123376e+02	-2.229866e-03
1.129865e+02	-2.255693e-03
1.136391e+02	-2.281819e-03
1.142955e+02	-2.308247e-03
1.149556e+02	-2.334982e-03
1.156196e+02	-2.362026e-03
1.162874e+02	-2.389383e-03
1.169591e+02	-2.417057e-03
1.176347e+02	-2.445051e-03
1.183141e+02	-2.473369e-03
1.189975e+02	-2.502016e-03
1.196848e+02	-2.530994e-03
1.203761e+02	-2.560308e-03
1.210714e+02	-2.589961e-03
1.217707e+02	-2.619957e-03
1.224740e+02	-2.650300e-03
1.231814e+02	-2.680995e-03
1.238929e+02	-2.712046e-03
1.246085e+02	-2.743456e-03
1.253283e+02	-2.775229e-03
1.260522e+02	-2.807370e-03
1.267802e+02	-2.839884e-03
1.275125e+02	-2.872774e-03
1.282490e+02	-2.906044e-03
1.289898e+02	-2.939700e-03
1.297348e+02	-2.973746e-03
1.304842e+02	-3.008186e-03
1.312378e+02	-3.043024e-03
1.319959e+02	-3.078266e-03
1.327583e+02	-3.113915e-03
1.335251e+02	-3.149978e-03
1.342963e+02	-3.186458e-03
1.350720e+02	-3.223360e-03
1.358522e+02	-3.260689e-03
1.366368e+02	-3.298451e-03
1.374260e+02	-3.336650e-03
1.382198e+02	-3.375291e-03
1.390182e+02	-3.414379e-03
1.398211e+02	-3.453920e-03
1.406287e+02	-3.493918e-03
1.414410e+02	-3.534379e-03
1.422579e+02	-3.575309e-03
1.430796e+02	-3.616713e-03
1.439060e+02	-3.658596e-03
1.447372e+02	-3.700963e-03
1.455732e+02	-3.743822e-03
1.464141e+02	-3.787176e-03
1.472597e+02	-3.831032e-03
1.481103e+02	-3.875395e-03
1.489658e+02	-3.920273e-03
1.498262e+02	-3.965669e-03
1.506916e+02	-4.011591e-03
1.515620e+02	-4.058045e-03
1.524374e+02	-4.105036e-03
1.533179e+02	-4.152571e-03
1.542034e+02	-4.200657e-03
1.550941e+02	-4.249298e-03
1.559899e+02	-4.298503e-03
1.568909e+02	-4.348278e-03
1.577971e+02	-4.398628e-03
1.587085e+02	-4.449561e-03
1.596252e+02	-4.501084e-03
1.605472e+02	-4.553202e-03
1.614745e+02	-4.605924e-03
1.624072e+02	-4.659256e-03
1.633453e+02	-4.713206e-03
1.642887e+02	-4.767780e-03
1.652377e+02	-4.822985e-03
1.661921e+02	-4.878829e-03
1.671520e+02	-4.935319e-03
1.681175e+02	-4.992463e-03
1.690885e+02	-5.050268e-03
1.700651e+02	-5.108743e-03
1.710474e+02	-5.167893e-03
1.720354e+02	-5.227729e-03
1.730291e+02	-5.288256e-03
1.740285e+02	-5.349484e-03
1.750337e+02	-5.411421e-03
1.760446e+02	-5.474074e-03
1.770615e+02	-5.537452e-03
1.780842e+02	-5.601563e-03
1.791128e+02	-5.666416e-03
1.801473e+02	-5.732020e-03
1.811878e+02	-5.798382e-03
1.822344e+02	-5.865513e-03
1.832870e+02	-5.933419e-03
1.843456e+02	-6.002112e-03
1.854104e+02	-6.071599e-03
1.864813e+02	-6.141890e-03
1.875584e+02	-6.212995e-03
1.886418e+02	-6.284922e-03
1.897313e+02	-6.357681e-03
1.908272e+02	-6.431281e-03
1.919294e+02	-6.505734e-03
1.930380e+02	-6.581047e-03
1.941530e+02	-6.657231e-03
1.952744e+02	-6.734297e-03
1.964023e+02	-6.812254e-03
1.975367e+02	-6.891113e-03
1.986777e+02	-6.970884e-03
1.998252e+02	-7.051578e-03
2.009794e+02	-7.133205e-03
2.021403e+02	-7.215776e-03
2.033078e+02	-7.299302e-03
2.044821e+02	-7.383795e-03
2.056632e+02	-7.469264e-03
2.068511e+02	-7.555722e-03
2.080459e+02	-7.643180e-03
2.092475e+02	-7.731649e-03
2.104561e+02	-7.821141e-03
2.116717e+02	-7.911668e-03
2.128943e+02	-8.003242e-03
2.141240e+02	-8.095875e-03
2.153608e+02	-8.189579e-03
2.166047e+02	-8.284367e-03
2.178558e+02	-8.380250e-03
2.191141e+02	-8.477243e-03
2.203797e+02	-8.575356e-03
2.216526e+02	-8.674605e-03
2.229329e+02	-8.775000e-03
2.242205e+02	-8.876557e-03
2.255156e+02	-8.979287e-03
2.268182e+02	-9.083205e-03
2.281283e+02	-9.188325e-03
2.294459e+02	-9.294660e-03
2.307712e+02	-9.402224e-03
2.321041e+02	-9.511031e-03
2.334447e+02	-9.621097e-03
2.347931e+02	-9.732434e-03
2.361493e+02	-9.845059e-03
2.375133e+02	-9.958985e-03
2.388851e+02	-1.007423e-02
2.402649e+02	-1.019080e-02
2.416527e+02	-1.030873e-02
2.430484e+02	-1.042801e-02
2.444523e+02	-1.054868e-02
2.458642e+02	-1.067073e-02
2.472843e+02	-1.079420e-02
2.487126e+02	-1.091910e-02
2.501492e+02	-1.104544e-02
2.515940e+02	-1.117324e-02
2.530472e+02	-1.130251e-02
2.545088e+02	-1.143328e-02
2.559789e+02	-1.156556e-02
2.574574e+02	-1.169937e-02
2.589444e+02	-1.183473e-02
2.604401e+02	-1.197165e-02
2.619444e+02	-1.211015e-02
2.634574e+02	-1.225025e-02
2.649791e+02	-1.239197e-02
2.665096e+02	-1.253532e-02
2.680489e+02	-1.268033e-02
2.695972e+02	-1.282702e-02
2.711544e+02	-1.297540e-02
2.727205e+02	-1.312550e-02
2.742958e+02	-1.327733e-02
2.758801e+02	-1.343091e-02
2.774736e+02	-1.358627e-02
2.790762e+02	-1.374342e-02
2.806882e+02	-1.390238e-02
2.823094e+02	-1.406318e-02
2.839400e+02	-1.422584e-02
2.855800e+02	-1.439038e-02
2.872295e+02	-1.455681e-02
2.888886e+02	-1.472517e-02
2.905572e+02	-1.489547e-02
2.922354e+02	-1.506774e-02
2.939234e+02	-1.524199e-02
2.956211e+02	-1.541826e-02
2.973286e+02	-1.559657e-02
2.990459e+02	-1.577693e-02
3.007732e+02	-1.595937e-02
3.025104e+02	-1.614392e-02
3.042577e+02	-1.633060e-02
3.060151e+02	-1.651943e-02
3.077826e+02	-1.671044e-02
3.095604e+02	-1.690366e-02
3.113484e+02	-1.709910e-02
3.131467e+02	-1.729681e-02
3.149554e+02	-1.749679e-02
3.167746e+02	-1.769908e-02
3.186043e+02	-1.790370e-02
3.204445e+02	-1.811069e-02
3.222954e+02	-1.832006e-02
3.241570e+02	-1.853185e-02
3.260293e+02	-1.874608e-02
3.279124e+02	-1.896278e-02
3.298064e+02	-1.918198e-02
3.317114e+02	-1.940371e-02
3.336273e+02	-1.962800e-02
3.355544e+02	-1.985488e-02
3.374925e+02	-2.008437e-02
3.394418e+02	-2.031650e-02
3.414024e+02	-2.055132e-02
3.433744e+02	-2.078884e-02
3.453577e+02	-2.102909e-02
3.473525e+02	-2.127212e-02
3.493588e+02	-2.151795e-02
3.513766e+02	-2.176662e-02
3.534062e+02	-2.201815e-02
3.554474e+02	-2.227258e-02
3.575005e+02	-2.252994e-02
3.595654e+02	-2.279027e-02
3.616422e+02	-2.305360e-02
3.637311e+02	-2.331996e-02
3.658320e+02	-2.358939e-02
3.679450e+02	-2.386193e-02
3.700702e+02	-2.413760e-02
3.722077e+02	-2.441645e-02
3.743576e+02	-2.469852e-02
3.765199e+02	-2.498383e-02
3.786946e+02	-2.527243e-02
3.808820e+02	-2.556435e-02
3.830819e+02	-2.585964e-02
3.852946e+02	-2.615832e-02
3.875200e+02	-2.646045e-02
3.897583e+02	-2.676605e-02
3.920096e+02	-2.707517e-02
3.942738e+02	-2.738785e-02
3.965511e+02	-2.770413e-02
3.988416e+02	-2.802405e-02
4.011452e+02	-2.834766e-02
4.034622e+02	-2.867499e-02
4.057926e+02	-2.900608e-02
4.081365e+02	-2.934098e-02
4.104938e+02	-2.967974e-02
4.128648e+02	-3.002240e-02
4.152495e+02	-3.036899e-02
4.176480e+02	-3.071958e-02
4.200603e+02	-3.107420e-02
4.224866e+02	-3.143289e-02
4.249268e+02	-3.179571e-02
4.273812e+02	-3.216271e-02
4.298497e+02	-3.253392e-02
4.323325e+02	-3.290940e-02
4.348297e+02	-3.328920e-02
4.373412e+02	-3.367337e-02
4.398673e+02	-3.406195e-02
4.424079e+02	-3.445499e-02
4.449633e+02	-3.485256e-02
4.475334e+02	-3.525469e-02
4.501183e+02	-3.566144e-02
4.527182e+02	-3.607287e-02
4.553330e+02	-3.648902e-02
4.579630e+02	-3.690996e-02
4.606082e+02	-3.733573e-02
4.632687e+02	-3.776638e-02
4.659445e+02	-3.820199e-02
4.686358e+02	-3.864259e-02
4.713426e+02	-3.908826e-02
4.740650e+02	-3.953904e-02
4.768032e+02	-3.999500e-02
4.795572e+02	-4.045618e-02
4.823271e+02	-4.092267e-02
4.851130e+02	-4.139450e-02
4.879150e+02	-4.187175e-02
4.907332e+02	-4.235448e-02
4.935676e+02	-4.284274e-02
4.964185e+02	-4.333660e-02
4.992858e+02	-4.383613e-02
5.021696e+02	-4.434138e-02
5.050701e+02	-4.485243e-02
5.079874e+02	-4.536934e-02
5.109215e+02	-4.589217e-02
5.138726e+02	-4.642099e-02
5.168407e+02	-4.695588e-02
5.198259e+02	-4.749690e-02
5.228284e+02	-4.804411e-02
5.258482e+02	-4.859759e-02
5.288855e+02	-4.915742e-02
5.319403e+02	-4.972365e-02
5.350128e+02	-5.029637e-02
5.381030e+02	-5.087565e-02
5.412111e+02	-5.146156e-02
5.443371e+02	-5.205418e-02
5.474812e+02	-5.265358e-02
5.506434e+02	-5.325984e-02
5.538239e+02	-5.387303e-02
5.570228e+02	-5.449325e-02
5.602401e+02	-5.512055e-02
5.634760e+02	-5.575503e-02
5.667306e+02	-5.639677e-02
5.700040e+02	-5.704584e-02
5.732964e+02	-5.770234e-02
5.766077e+02	-5.836634e-02
5.799382e+02	-5.903793e-02
5.832879e+02	-5.971719e-02
5.866569e+02	-6.040421e-02
5.900454e+02	-6.109908e-02
5.934535e+02	-6.180189e-02
5.968813e+02	-6.251273e-02
6.003288e+02	-6.323167e-02
6.037963e+02	-6.395883e-02
6.072838e+02	-6.469429e-02
6.107914e+02	-6.543814e-02
6.143194e+02	-6.619048e-02
6.178676e+02	-6.695140e-02
6.214364e+02	-6.772099e-02
6.250258e+02	-6.849937e-02
6.286359e+02	-6.928662e-02
6.322669e+02	-7.008285e-02
6.359189e+02	-7.088815e-02
6.395919e+02	-7.170262e-02
6.432862e+02	-7.252638e-02
6.470017e+02	-7.335952e-02
6.507388e+02	-7.420215e-02
6.544974e+02	-7.505437e-02
6.582778e+02	-7.591630e-02
6.620800e+02	-7.678803e-02
6.659041e+02	-7.766969e-02
6.697504e+02	-7.856138e-02
6.736188e+02	-7.946321e-02
6.775096e+02	-8.037529e-02
6.814229e+02	-8.129775e-02
6.853587e+02	-8.223069e-02
6.893173e+02	-8.317424e-02
6.932988e+02	-8.412851e-02
6.973033e+02	-8.509362e-02
7.013309e+02	-8.606969e-02
