Frequency(Hz)	Magnitude(dB)
1.000000e+01	-1.777430e-05
1.005776e+01	-1.798022e-05
1.011585e+01	-1.818853e-05
1.017428e+01	-1.839924e-05
1.023305e+01	-1.861240e-05
1.029215e+01	-1.882803e-05
1.035160e+01	-1.904616e-05
1.041139e+01	-1.926682e-05
1.047153e+01	-1.949003e-05
1.053201e+01	-1.971582e-05
1.059284e+01	-1.994424e-05
1.065403e+01	-2.017530e-05
1.071556e+01	-2.040903e-05
1.077746e+01	-2.064548e-05
1.083971e+01	-2.088466e-05
1.090232e+01	-2.112661e-05
1.096529e+01	-2.137137e-05
1.102862e+01	-2.161896e-05
1.109232e+01	-2.186942e-05
1.115639e+01	-2.212279e-05
1.122083e+01	-2.237908e-05
1.128564e+01	-2.263835e-05
1.135083e+01	-2.290062e-05
1.141639e+01	-2.316593e-05
1.148233e+01	-2.343432e-05
1.154865e+01	-2.370581e-05
1.161536e+01	-2.398044e-05
1.168245e+01	-2.425826e-05
1.174992e+01	-2.453930e-05
1.181779e+01	-2.482360e-05
1.188605e+01	-2.511118e-05
1.195470e+01	-2.540210e-05
1.202375e+01	-2.569639e-05
1.209320e+01	-2.599409e-05
1.216305e+01	-2.629524e-05
1.223330e+01	-2.659988e-05
1.230396e+01	-2.690804e-05
1.237503e+01	-2.721978e-05
1.244651e+01	-2.753513e-05
1.251840e+01	-2.785413e-05
1.259070e+01	-2.817682e-05
1.266343e+01	-2.850326e-05
1.273657e+01	-2.883348e-05
1.281014e+01	-2.916752e-05
1.288413e+01	-2.950543e-05
1.295855e+01	-2.984726e-05
1.303339e+01	-3.019305e-05
1.310867e+01	-3.054284e-05
1.318439e+01	-3.089669e-05
1.326054e+01	-3.125463e-05
1.333713e+01	-3.161673e-05
1.341417e+01	-3.198301e-05
1.349165e+01	-3.235354e-05
1.356958e+01	-3.272837e-05
1.364795e+01	-3.310753e-05
1.372678e+01	-3.349109e-05
1.380607e+01	-3.387909e-05
1.388581e+01	-3.427159e-05
1.396602e+01	-3.466863e-05
1.404668e+01	-3.507028e-05
1.412782e+01	-3.547658e-05
1.420942e+01	-3.588758e-05
1.429149e+01	-3.630335e-05
1.437404e+01	-3.672393e-05
1.445706e+01	-3.714938e-05
1.454057e+01	-3.757977e-05
1.462455e+01	-3.801514e-05
1.470902e+01	-3.845555e-05
1.479398e+01	-3.890107e-05
1.487943e+01	-3.935175e-05
1.496537e+01	-3.980765e-05
1.505181e+01	-4.026883e-05
1.513875e+01	-4.073535e-05
1.522619e+01	-4.120728e-05
1.531414e+01	-4.168467e-05
1.540259e+01	-4.216760e-05
1.549156e+01	-4.265612e-05
1.558103e+01	-4.315030e-05
1.567103e+01	-4.365021e-05
1.576155e+01	-4.415591e-05
1.585258e+01	-4.466746e-05
1.594415e+01	-4.518494e-05
1.603624e+01	-4.570842e-05
1.612886e+01	-4.623796e-05
1.622202e+01	-4.677364e-05
1.631572e+01	-4.731552e-05
1.640996e+01	-4.786368e-05
1.650474e+01	-4.841819e-05
1.660008e+01	-4.897913e-05
1.669596e+01	-4.954656e-05
1.679239e+01	-5.012057e-05
1.688938e+01	-5.070123e-05
1.698694e+01	-5.128861e-05
1.708505e+01	-5.188280e-05
1.718373e+01	-5.248387e-05
1.728299e+01	-5.309191e-05
1.738281e+01	-5.370699e-05
1.748322e+01	-5.432920e-05
1.758420e+01	-5.495861e-05
1.768576e+01	-5.559532e-05
1.778792e+01	-5.623940e-05
1.789066e+01	-5.689095e-05
1.799399e+01	-5.755004e-05
1.809793e+01	-5.821677e-05
1.820246e+01	-5.889122e-05
1.830760e+01	-5.957349e-05
1.841334e+01	-6.026366e-05
1.851969e+01	-6.096183e-05
1.862666e+01	-6.166808e-05
1.873425e+01	-6.238252e-05
1.884246e+01	-6.310523e-05
1.895129e+01	-6.383632e-05
1.906075e+01	-6.457588e-05
1.917085e+01	-6.532400e-05
1.928158e+01	-6.608079e-05
1.939295e+01	-6.684635e-05
1.950496e+01	-6.762078e-05
1.961762e+01	-6.840418e-05
1.973093e+01	-6.919665e-05
1.984490e+01	-6.999831e-05
1.995952e+01	-7.080925e-05
2.007480e+01	-7.162959e-05
2.019076e+01	-7.245943e-05
2.030738e+01	-7.329889e-05
2.042467e+01	-7.414807e-05
2.054264e+01	-7.500709e-05
2.066130e+01	-7.587606e-05
2.078064e+01	-7.675509e-05
2.090066e+01	-7.764432e-05
2.102139e+01	-7.854384e-05
2.114280e+01	-7.945378e-05
2.126492e+01	-8.037427e-05
2.138775e+01	-8.130542e-05
2.151128e+01	-8.224736e-05
2.163553e+01	-8.320020e-05
2.176050e+01	-8.416409e-05
2.188619e+01	-8.513915e-05
2.201260e+01	-8.612550e-05
2.213974e+01	-8.712328e-05
2.226762e+01	-8.813261e-05
2.239624e+01	-8.915364e-05
2.252560e+01	-9.018650e-05
2.265571e+01	-9.123133e-05
2.278656e+01	-9.228826e-05
2.291818e+01	-9.335743e-05
2.305055e+01	-9.443899e-05
2.318369e+01	-9.553308e-05
2.331760e+01	-9.663985e-05
2.345228e+01	-9.775943e-05
2.358774e+01	-9.889199e-05
2.372398e+01	-1.000377e-04
2.386101e+01	-1.011966e-04
2.399883e+01	-1.023690e-04
2.413745e+01	-1.035550e-04
2.427686e+01	-1.047547e-04
2.441709e+01	-1.059683e-04
2.455812e+01	-1.071959e-04
2.469997e+01	-1.084378e-04
2.484263e+01	-1.096941e-04
2.498612e+01	-1.109649e-04
2.513044e+01	-1.122504e-04
2.527559e+01	-1.135509e-04
2.542158e+01	-1.148664e-04
2.556842e+01	-1.161971e-04
2.571610e+01	-1.175433e-04
2.586463e+01	-1.189050e-04
2.601403e+01	-1.202825e-04
2.616428e+01	-1.216760e-04
2.631541e+01	-1.230857e-04
2.646740e+01	-1.245116e-04
2.662028e+01	-1.259541e-04
2.677404e+01	-1.274133e-04
2.692868e+01	-1.288894e-04
2.708422e+01	-1.303826e-04
2.724066e+01	-1.318931e-04
2.739800e+01	-1.334211e-04
2.755625e+01	-1.349668e-04
2.771541e+01	-1.365304e-04
2.787550e+01	-1.381121e-04
2.803650e+01	-1.397121e-04
2.819844e+01	-1.413307e-04
2.836131e+01	-1.429680e-04
2.852513e+01	-1.446243e-04
2.868989e+01	-1.462998e-04
2.885560e+01	-1.479947e-04
2.902227e+01	-1.497092e-04
2.918990e+01	-1.514436e-04
2.935850e+01	-1.531981e-04
2.952807e+01	-1.549729e-04
2.969863e+01	-1.567683e-04
2.987016e+01	-1.585845e-04
3.004269e+01	-1.604217e-04
3.021622e+01	-1.622802e-04
3.039075e+01	-1.641602e-04
3.056628e+01	-1.660620e-04
3.074283e+01	-1.679859e-04
3.092040e+01	-1.699320e-04
3.109900e+01	-1.719006e-04
3.127862e+01	-1.738921e-04
3.145929e+01	-1.759067e-04
3.164099e+01	-1.779446e-04
3.182375e+01	-1.800061e-04
3.200756e+01	-1.820914e-04
3.219244e+01	-1.842010e-04
3.237838e+01	-1.863349e-04
3.256540e+01	-1.884936e-04
3.275349e+01	-1.906773e-04
3.294268e+01	-1.928863e-04
3.313295e+01	-1.951209e-04
3.332433e+01	-1.973814e-04
3.351681e+01	-1.996681e-04
3.371040e+01	-2.019812e-04
3.390511e+01	-2.043212e-04
3.410094e+01	-2.066882e-04
3.429791e+01	-2.090827e-04
3.449601e+01	-2.115050e-04
3.469526e+01	-2.139552e-04
3.489566e+01	-2.164339e-04
3.509721e+01	-2.189413e-04
3.529993e+01	-2.214777e-04
3.550382e+01	-2.240435e-04
3.570889e+01	-2.266391e-04
3.591515e+01	-2.292647e-04
3.612259e+01	-2.319207e-04
3.633123e+01	-2.346075e-04
3.654108e+01	-2.373254e-04
3.675214e+01	-2.400748e-04
3.696442e+01	-2.428561e-04
3.717792e+01	-2.456696e-04
3.739266e+01	-2.485156e-04
3.760864e+01	-2.513947e-04
3.782587e+01	-2.543071e-04
3.804435e+01	-2.572532e-04
3.826409e+01	-2.602334e-04
3.848510e+01	-2.632482e-04
3.870739e+01	-2.662979e-04
3.893096e+01	-2.693830e-04
3.915583e+01	-2.725038e-04
3.938199e+01	-2.756607e-04
3.960946e+01	-2.788542e-04
3.983824e+01	-2.820847e-04
4.006834e+01	-2.853526e-04
4.029978e+01	-2.886584e-04
4.053255e+01	-2.920025e-04
4.076666e+01	-2.953853e-04
4.100213e+01	-2.988073e-04
4.123896e+01	-3.022689e-04
4.147715e+01	-3.057707e-04
4.171672e+01	-3.093130e-04
4.195767e+01	-3.128963e-04
4.220002e+01	-3.165212e-04
4.244377e+01	-3.201881e-04
4.268892e+01	-3.238974e-04
4.293549e+01	-3.276497e-04
4.318348e+01	-3.314454e-04
4.343291e+01	-3.352852e-04
4.368377e+01	-3.391694e-04
4.393609e+01	-3.430986e-04
4.418986e+01	-3.470734e-04
4.444510e+01	-3.510941e-04
4.470182e+01	-3.551615e-04
4.496001e+01	-3.592760e-04
4.521970e+01	-3.634381e-04
4.548089e+01	-3.676485e-04
4.574358e+01	-3.719076e-04
4.600779e+01	-3.762161e-04
4.627353e+01	-3.805744e-04
4.654081e+01	-3.849833e-04
4.680963e+01	-3.894432e-04
4.708000e+01	-3.939548e-04
4.735193e+01	-3.985187e-04
4.762543e+01	-4.031354e-04
4.790051e+01	-4.078057e-04
4.817719e+01	-4.125300e-04
4.845545e+01	-4.173090e-04
4.873533e+01	-4.221434e-04
4.901682e+01	-4.270338e-04
4.929994e+01	-4.319809e-04
4.958470e+01	-4.369853e-04
4.987110e+01	-4.420476e-04
5.015915e+01	-4.471686e-04
5.044887e+01	-4.523489e-04
5.074026e+01	-4.575892e-04
5.103333e+01	-4.628902e-04
5.132810e+01	-4.682526e-04
5.162457e+01	-4.736772e-04
5.192275e+01	-4.791645e-04
5.222265e+01	-4.847155e-04
5.252429e+01	-4.903307e-04
5.282767e+01	-4.960110e-04
5.313280e+01	-5.017571e-04
5.343969e+01	-5.075698e-04
5.374836e+01	-5.134498e-04
5.405880e+01	-5.193979e-04
5.437105e+01	-5.254149e-04
5.468509e+01	-5.315016e-04
5.500095e+01	-5.376588e-04
5.531863e+01	-5.438873e-04
5.563815e+01	-5.501880e-04
5.595951e+01	-5.565617e-04
5.628273e+01	-5.630092e-04
5.660782e+01	-5.695314e-04
5.693479e+01	-5.761291e-04
5.726364e+01	-5.828033e-04
5.759439e+01	-5.895547e-04
5.792705e+01	-5.963844e-04
5.826164e+01	-6.032932e-04
5.859815e+01	-6.102821e-04
5.893662e+01	-6.173518e-04
5.927703e+01	-6.245035e-04
5.961941e+01	-6.317380e-04
5.996377e+01	-6.390564e-04
6.031012e+01	-6.464594e-04
6.065847e+01	-6.539483e-04
6.100883e+01	-6.615239e-04
6.136121e+01	-6.691872e-04
6.171563e+01	-6.769393e-04
6.207210e+01	-6.847813e-04
6.243063e+01	-6.927140e-04
6.279122e+01	-7.007386e-04
6.315390e+01	-7.088562e-04
6.351868e+01	-7.170678e-04
6.388556e+01	-7.253746e-04
6.425456e+01	-7.337775e-04
6.462569e+01	-7.422778e-04
6.499897e+01	-7.508766e-04
6.537440e+01	-7.595749e-04
6.575200e+01	-7.683740e-04
6.613178e+01	-7.772750e-04
6.651375e+01	-7.862792e-04
6.689793e+01	-7.953876e-04
6.728433e+01	-8.046015e-04
6.767297e+01	-8.139222e-04
6.806384e+01	-8.233508e-04
6.845698e+01	-8.328886e-04
6.885238e+01	-8.425369e-04
6.925007e+01	-8.522970e-04
6.965005e+01	-8.621701e-04
7.005235e+01	-8.721576e-04
7.045697e+01	-8.822607e-04
7.086393e+01	-8.924809e-04
7.127323e+01	-9.028195e-04
7.168490e+01	-9.132778e-04
7.209895e+01	-9.238572e-04
7.251539e+01	-9.345592e-04
7.293424e+01	-9.453852e-04
7.335551e+01	-9.563365e-04
7.377920e+01	-9.674147e-04
7.420535e+01	-9.786212e-04
7.463396e+01	-9.899575e-04
7.506504e+01	-1.001425e-03
7.549861e+01	-1.013026e-03
7.593469e+01	-1.024760e-03
7.637328e+01	-1.036631e-03
7.681441e+01	-1.048639e-03
7.725809e+01	-1.060787e-03
7.770433e+01	-1.073075e-03
7.815315e+01	-1.085505e-03
7.860456e+01	-1.098079e-03
7.905857e+01	-1.110799e-03
7.951521e+01	-1.123666e-03
7.997449e+01	-1.136683e-03
8.043642e+01	-1.149850e-03
8.090102e+01	-1.163169e-03
8.136830e+01	-1.176643e-03
8.183828e+01	-1.190273e-03
8.231097e+01	-1.204060e-03
8.278640e+01	-1.218008e-03
8.326457e+01	-1.232117e-03
8.374550e+01	-1.246389e-03
8.422921e+01	-1.260827e-03
8.471572e+01	-1.275432e-03
8.520503e+01	-1.290206e-03
8.569717e+01	-1.305151e-03
8.619215e+01	-1.320269e-03
8.669000e+01	-1.335562e-03
8.719071e+01	-1.351033e-03
8.769432e+01	-1.366683e-03
8.820084e+01	-1.382513e-03
8.871029e+01	-1.398528e-03
8.922267e+01	-1.414727e-03
8.973802e+01	-1.431115e-03
9.025634e+01	-1.447692e-03
9.077766e+01	-1.464461e-03
9.130199e+01	-1.481424e-03
9.182935e+01	-1.498584e-03
9.235975e+01	-1.515942e-03
9.289321e+01	-1.533502e-03
9.342976e+01	-1.551265e-03
9.396941e+01	-1.569233e-03
9.451217e+01	-1.587410e-03
9.505807e+01	-1.605797e-03
9.560712e+01	-1.624397e-03
9.615934e+01	-1.643213e-03
9.671476e+01	-1.662246e-03
9.727338e+01	-1.681500e-03
9.783522e+01	-1.700977e-03
9.840032e+01	-1.720679e-03
9.896867e+01	-1.740610e-03
9.954031e+01	-1.760771e-03
1.001153e+02	-1.781166e-03
1.006935e+02	-1.801797e-03
1.012751e+02	-1.822667e-03
1.018601e+02	-1.843778e-03
1.024484e+02	-1.865134e-03
1.030402e+02	-1.886738e-03
1.036353e+02	-1.908591e-03
1.042339e+02	-1.930698e-03
1.048360e+02	-1.953060e-03
1.054415e+02	-1.975682e-03
1.060505e+02	-1.998566e-03
1.066631e+02	-2.021714e-03
1.072791e+02	-2.045131e-03
1.078988e+02	-2.068818e-03
1.085220e+02	-2.092780e-03
1.091488e+02	-2.117020e-03
1.097793e+02	-2.141540e-03
1.104133e+02	-2.166344e-03
1.110511e+02	-2.191436e-03
1.116925e+02	-2.216817e-03
1.123376e+02	-2.242493e-03
1.129865e+02	-2.268466e-03
1.136391e+02	-2.294740e-03
1.142955e+02	-2.321318e-03
1.149556e+02	-2.348204e-03
1.156196e+02	-2.375401e-03
1.162874e+02	-2.402913e-03
1.169591e+02	-2.430744e-03
1.176347e+02	-2.458897e-03
1.183141e+02	-2.487375e-03
1.189975e+02	-2.516184e-03
1.196848e+02	-2.545326e-03
1.203761e+02	-2.574806e-03
1.210714e+02	-2.604626e-03
1.217707e+02	-2.634792e-03
1.224740e+02	-2.665308e-03
1.231814e+02	-2.696177e-03
1.238929e+02	-2.727403e-03
1.246085e+02	-2.758990e-03
1.253283e+02	-2.790944e-03
1.260522e+02	-2.823267e-03
1.267802e+02	-2.855964e-03
1.275125e+02	-2.889041e-03
1.282490e+02	-2.922500e-03
1.289898e+02	-2.956346e-03
1.297348e+02	-2.990584e-03
1.304842e+02	-3.025219e-03
1.312378e+02	-3.060254e-03
1.319959e+02	-3.095696e-03
1.327583e+02	-3.131547e-03
1.335251e+02	-3.167814e-03
1.342963e+02	-3.204500e-03
1.350720e+02	-3.241611e-03
1.358522e+02	-3.279152e-03
1.366368e+02	-3.317127e-03
1.374260e+02	-3.355542e-03
1.382198e+02	-3.394402e-03
1.390182e+02	-3.433711e-03
1.398211e+02	-3.473476e-03
1.406287e+02	-3.513700e-03
1.414410e+02	-3.554391e-03
1.422579e+02	-3.595552e-03
1.430796e+02	-3.637190e-03
1.439060e+02	-3.679310e-03
1.447372e+02	-3.721918e-03
1.455732e+02	-3.765018e-03
1.464141e+02	-3.808618e-03
1.472597e+02	-3.852722e-03
1.481103e+02	-3.897337e-03
1.489658e+02	-3.942468e-03
1.498262e+02	-3.988122e-03
1.506916e+02	-4.034303e-03
1.515620e+02	-4.081020e-03
1.524374e+02	-4.128277e-03
1.533179e+02	-4.176081e-03
1.542034e+02	-4.224439e-03
1.550941e+02	-4.273356e-03
1.559899e+02	-4.322839e-03
1.568909e+02	-4.372895e-03
1.577971e+02	-4.423530e-03
1.587085e+02	-4.474751e-03
1.596252e+02	-4.526565e-03
1.605472e+02	-4.578979e-03
1.614745e+02	-4.632000e-03
1.624072e+02	-4.685633e-03
1.633453e+02	-4.739888e-03
1.642887e+02	-4.794770e-03
1.652377e+02	-4.850288e-03
1.661921e+02	-4.906448e-03
1.671520e+02	-4.963258e-03
1.681175e+02	-5.020725e-03
1.690885e+02	-5.078858e-03
1.700651e+02	-5.137663e-03
1.710474e+02	-5.197148e-03
1.720354e+02	-5.257322e-03
1.730291e+02	-5.318192e-03
1.740285e+02	-5.379766e-03
1.750337e+02	-5.442053e-03
1.760446e+02	-5.505061e-03
1.770615e+02	-5.568797e-03
1.780842e+02	-5.633271e-03
1.791128e+02	-5.698491e-03
1.801473e+02	-5.764466e-03
1.811878e+02	-5.831203e-03
1.822344e+02	-5.898713e-03
1.832870e+02	-5.967005e-03
1.843456e+02	-6.036086e-03
1.854104e+02	-6.105966e-03
1.864813e+02	-6.176655e-03
1.875584e+02	-6.248161e-03
1.886418e+02	-6.320495e-03
1.897313e+02	-6.393665e-03
1.908272e+02	-6.467682e-03
1.919294e+02	-6.542556e-03
1.930380e+02	-6.618295e-03
1.941530e+02	-6.694910e-03
1.952744e+02	-6.772412e-03
1.964023e+02	-6.850810e-03
1.975367e+02	-6.930115e-03
1.986777e+02	-7.010337e-03
1.998252e+02	-7.091487e-03
2.009794e+02	-7.173576e-03
2.021403e+02	-7.256614e-03
2.033078e+02	-7.340612e-03
2.044821e+02	-7.425582e-03
2.056632e+02	-7.511535e-03
2.068511e+02	-7.598481e-03
2.080459e+02	-7.686434e-03
2.092475e+02	-7.775403e-03
2.104561e+02	-7.865401e-03
2.116717e+02	-7.956440e-03
2.128943e+02	-8.048532e-03
2.141240e+02	-8.141689e-03
2.153608e+02	-8.235922e-03
2.166047e+02	-8.331246e-03
2.178558e+02	-8.427671e-03
2.191141e+02	-8.525212e-03
2.203797e+02	-8.623880e-03
2.216526e+02	-8.723690e-03
2.229329e+02	-8.824653e-03
2.242205e+02	-8.926783e-03
2.255156e+02	-9.030094e-03
2.268182e+02	-9.134600e-03
2.281283e+02	-9.240314e-03
2.294459e+02	-9.347250e-03
2.307712e+02	-9.455422e-03
2.321041e+02	-9.564844e-03
2.334447e+02	-9.675531e-03
2.347931e+02	-9.787498e-03
2.361493e+02	-9.900759e-03
2.375133e+02	-1.001533e-02
2.388851e+02	-1.013122e-02
2.402649e+02	-1.024846e-02
2.416527e+02	-1.036705e-02
2.430484e+02	-1.048701e-02
2.444523e+02	-1.060835e-02
2.458642e+02	-1.073110e-02
2.472843e+02	-1.085527e-02
2.487126e+02	-1.098087e-02
2.501492e+02	-1.110792e-02
2.515940e+02	-1.123644e-02
2.530472e+02	-1.136645e-02
2.545088e+02	-1.149796e-02
2.559789e+02	-1.163098e-02
2.574574e+02	-1.176555e-02
2.589444e+02	-1.190167e-02
2.604401e+02	-1.203936e-02
2.619444e+02	-1.217864e-02
2.634574e+02	-1.231953e-02
2.649791e+02	-1.246205e-02
2.665096e+02	-1.260622e-02
2.680489e+02	-1.275205e-02
2.695972e+02	-1.289957e-02
2.711544e+02	-1.304879e-02
2.727205e+02	-1.319973e-02
2.742958e+02	-1.335242e-02
2.758801e+02	-1.350686e-02
2.774736e+02	-1.366310e-02
2.790762e+02	-1.382114e-02
2.806882e+02	-1.398100e-02
2.823094e+02	-1.414271e-02
2.839400e+02	-1.430628e-02
2.855800e+02	-1.447175e-02
2.872295e+02	-1.463912e-02
2.888886e+02	-1.480843e-02
2.905572e+02	-1.497969e-02
2.922354e+02	-1.515293e-02
2.939234e+02	-1.532817e-02
2.956211e+02	-1.550544e-02
2.973286e+02	-1.568474e-02
2.990459e+02	-1.586612e-02
3.007732e+02	-1.604960e-02
3.025104e+02	-1.623519e-02
3.042577e+02	-1.642292e-02
3.060151e+02	-1.661282e-02
3.077826e+02	-1.680491e-02
3.095604e+02	-1.699921e-02
3.113484e+02	-1.719576e-02
3.131467e+02	-1.739458e-02
3.149554e+02	-1.759569e-02
3.167746e+02	-1.779912e-02
3.186043e+02	-1.800490e-02
3.204445e+02	-1.821305e-02
3.222954e+02	-1.842361e-02
3.241570e+02	-1.863659e-02
3.260293e+02	-1.885203e-02
3.279124e+02	-1.906995e-02
3.298064e+02	-1.929039e-02
3.317114e+02	-1.951337e-02
3.336273e+02	-1.973892e-02
3.355544e+02	-1.996707e-02
3.374925e+02	-2.019786e-02
3.394418e+02	-2.043130e-02
3.414024e+02	-2.066744e-02
3.433744e+02	-2.090630e-02
3.453577e+02	-2.114791e-02
3.473525e+02	-2.139231e-02
3.493588e+02	-2.163953e-02
3.513766e+02	-2.188959e-02
3.534062e+02	-2.214254e-02
3.554474e+02	-2.239840e-02
3.575005e+02	-2.265721e-02
3.595654e+02	-2.291901e-02
3.616422e+02	-2.318382e-02
3.637311e+02	-2.345168e-02
3.658320e+02	-2.372263e-02
3.679450e+02	-2.399670e-02
3.700702e+02	-2.427393e-02
3.722077e+02	-2.455435e-02
3.743576e+02	-2.483801e-02
3.765199e+02	-2.512493e-02
3.786946e+02	-2.541515e-02
3.808820e+02	-2.570872e-02
3.830819e+02	-2.600566e-02
3.852946e+02	-2.630603e-02
3.875200e+02	-2.660986e-02
3.897583e+02	-2.691718e-02
3.920096e+02	-2.722804e-02
3.942738e+02	-2.754248e-02
3.965511e+02	-2.786054e-02
3.988416e+02	-2.818226e-02
4.011452e+02	-2.850769e-02
4.034622e+02	-2.883685e-02
4.057926e+02	-2.916981e-02
4.081365e+02	-2.950660e-02
4.104938e+02	-2.984726e-02
4.128648e+02	-3.019185e-02
4.152495e+02	-3.054039e-02
4.176480e+02	-3.089295e-02
4.200603e+02	-3.124956e-02
4.224866e+02	-3.161027e-02
4.249268e+02	-3.197513e-02
4.273812e+02	-3.234419e-02
4.298497e+02	-3.271749e-02
4.323325e+02	-3.309508e-02
4.348297e+02	-3.347701e-02
4.373412e+02	-3.386334e-02
4.398673e+02	-3.425410e-02
4.424079e+02	-3.464936e-02
4.449633e+02	-3.504915e-02
4.475334e+02	-3.545355e-02
4.501183e+02	-3.586258e-02
4.527182e+02	-3.627632e-02
4.553330e+02	-3.669481e-02
4.579630e+02	-3.711811e-02
4.606082e+02	-3.754627e-02
4.632687e+02	-3.797934e-02
4.659445e+02	-3.841739e-02
4.686358e+02	-3.886047e-02
4.713426e+02	-3.930864e-02
4.740650e+02	-3.976195e-02
4.768032e+02	-4.022046e-02
4.795572e+02	-4.068424e-02
4.823271e+02	-4.115334e-02
4.851130e+02	-4.162782e-02
4.879150e+02	-4.210774e-02
4.907332e+02	-4.259317e-02
4.935676e+02	-4.308417e-02
4.964185e+02	-4.358081e-02
4.992858e+02	-4.408313e-02
5.021696e+02	-4.459122e-02
5.050701e+02	-4.510513e-02
5.079874e+02	-4.562493e-02
5.109215e+02	-4.615070e-02
5.138726e+02	-4.668248e-02
5.168407e+02	-4.722037e-02
5.198259e+02	-4.776441e-02
5.228284e+02	-4.831469e-02
5.258482e+02	-4.887127e-02
5.288855e+02	-4.943423e-02
5.319403e+02	-5.000364e-02
5.350128e+02	-5.057956e-02
5.381030e+02	-5.116208e-02
5.412111e+02	-5.175127e-02
5.443371e+02	-5.234720e-02
5.474812e+02	-5.294996e-02
5.506434e+02	-5.355961e-02
5.538239e+02	-5.417623e-02
5.570228e+02	-5.479991e-02
5.602401e+02	-5.543072e-02
5.634760e+02	-5.606875e-02
5.667306e+02	-5.671408e-02
5.700040e+02	-5.736678e-02
5.732964e+02	-5.802694e-02
5.766077e+02	-5.869465e-02
5.799382e+02	-5.936999e-02
5.832879e+02	-6.005304e-02
5.866569e+02	-6.074390e-02
5.900454e+02	-6.144265e-02
5.934535e+02	-6.214938e-02
5.968813e+02	-6.286419e-02
6.003288e+02	-6.358715e-02
6.037963e+02	-6.431836e-02
6.072838e+02	-6.505792e-02
6.107914e+02	-6.580592e-02
6.143194e+02	-6.656245e-02
6.178676e+02	-6.732761e-02
6.214364e+02	-6.810150e-02
6.250258e+02	-6.888421e-02
6.286359e+02	-6.967585e-02
6.322669e+02	-7.047651e-02
6.359189e+02	-7.128630e-02
6.395919e+02	-7.210531e-02
6.432862e+02	-7.293365e-02
6.470017e+02	-7.377143e-02
6.507388e+02	-7.461875e-02
6.544974e+02	-7.547571e-02
6.582778e+02	-7.634243e-02
6.620800e+02	-7.721902e-02
6.659041e+02	-7.810558e-02
6.697504e+02	-7.900222e-02
6.736188e+02	-7.990906e-02
6.775096e+02	-8.082622e-02
6.814229e+02	-8.175380e-02
6.853587e+02	-8.269193e-02
6.893173e+02	-8.364071e-02
6.932988e+02	-8.460028e-02
6.973033e+02	-8.557075e-02
7.013309e+02	-8.655224e-02
