Frequency(Hz)	Magnitude(dB)
1.000000e+01	-2.101234e+00
1.005776e+01	-2.120601e+00
1.011585e+01	-2.140070e+00
1.017428e+01	-2.159720e+00
1.023305e+01	-2.179157e+00
1.029215e+01	-2.199093e+00
1.035160e+01	-2.218856e+00
1.041139e+01	-2.238972e+00
1.047153e+01	-2.259085e+00
1.053201e+01	-2.279821e+00
1.059284e+01	-2.299947e+00
1.065403e+01	-2.320945e+00
1.071556e+01	-2.341481e+00
1.077746e+01	-2.362542e+00
1.083971e+01	-2.383530e+00
1.090232e+01	-2.404814e+00
1.096529e+01	-2.425958e+00
1.102862e+01	-2.447508e+00
1.109232e+01	-2.469183e+00
1.115639e+01	-2.490760e+00
1.122083e+01	-2.513062e+00
1.128564e+01	-2.534995e+00
1.135083e+01	-2.557173e+00
1.141639e+01	-2.579533e+00
1.148233e+01	-2.601739e+00
1.154865e+01	-2.624506e+00
1.161536e+01	-2.647023e+00
1.168245e+01	-2.670141e+00
1.174992e+01	-2.693093e+00
1.181779e+01	-2.716246e+00
1.188605e+01	-2.739694e+00
1.195470e+01	-2.763211e+00
1.202375e+01	-2.786777e+00
1.209320e+01	-2.810854e+00
1.216305e+01	-2.834477e+00
1.223330e+01	-2.858386e+00
1.230396e+01	-2.882706e+00
1.237503e+01	-2.906831e+00
1.244651e+01	-2.931578e+00
1.251840e+01	-2.956202e+00
1.259070e+01	-2.980875e+00
1.266343e+01	-3.005889e+00
1.273657e+01	-3.030936e+00
1.281014e+01	-3.056116e+00
1.288413e+01	-3.081388e+00
1.295855e+01	-3.106888e+00
1.303339e+01	-3.132533e+00
1.310867e+01	-3.158270e+00
1.318439e+01	-3.184354e+00
1.326054e+01	-3.210397e+00
1.333713e+01	-3.236514e+00
1.341417e+01	-3.262849e+00
1.349165e+01	-3.289332e+00
1.356958e+01	-3.315926e+00
1.364795e+01	-3.342922e+00
1.372678e+01	-3.369812e+00
1.380607e+01	-3.396751e+00
1.388581e+01	-3.424084e+00
1.396602e+01	-3.451409e+00
1.404668e+01	-3.478850e+00
1.412782e+01	-3.506701e+00
1.420942e+01	-3.534361e+00
1.429149e+01	-3.562287e+00
1.437404e+01	-3.590384e+00
1.445706e+01	-3.618650e+00
1.454057e+01	-3.647030e+00
1.462455e+01	-3.675423e+00
1.470902e+01	-3.704131e+00
1.479398e+01	-3.732887e+00
1.487943e+01	-3.761649e+00
1.496537e+01	-3.790673e+00
1.505181e+01	-3.819956e+00
1.513875e+01	-3.849306e+00
1.522619e+01	-3.878894e+00
1.531414e+01	-3.908130e+00
1.540259e+01	-3.938246e+00
1.549156e+01	-3.967931e+00
1.558103e+01	-3.997972e+00
1.567103e+01	-4.028254e+00
1.576155e+01	-4.058323e+00
1.585258e+01	-4.088846e+00
1.594415e+01	-4.119575e+00
1.603624e+01	-4.150392e+00
1.612886e+01	-4.181364e+00
1.622202e+01	-4.212081e+00
1.631572e+01	-4.243390e+00
1.640996e+01	-4.274478e+00
1.650474e+01	-4.305750e+00
1.660008e+01	-4.337399e+00
1.669596e+01	-4.369210e+00
1.679239e+01	-4.400865e+00
1.688938e+01	-4.433057e+00
1.698694e+01	-4.464891e+00
1.708505e+01	-4.497059e+00
1.718373e+01	-4.529402e+00
1.728299e+01	-4.562026e+00
1.738281e+01	-4.594356e+00
1.748322e+01	-4.627210e+00
1.758420e+01	-4.660220e+00
1.768576e+01	-4.693287e+00
1.778792e+01	-4.726044e+00
1.789066e+01	-4.759536e+00
1.799399e+01	-4.793017e+00
1.809793e+01	-4.826225e+00
1.820246e+01	-4.859774e+00
1.830760e+01	-4.893668e+00
1.841334e+01	-4.927742e+00
1.851969e+01	-4.961679e+00
1.862666e+01	-4.995701e+00
1.873425e+01	-5.029872e+00
1.884246e+01	-5.064200e+00
1.895129e+01	-5.098508e+00
1.906075e+01	-5.133323e+00
1.917085e+01	-5.168223e+00
1.928158e+01	-5.202971e+00
1.939295e+01	-5.238077e+00
1.950496e+01	-5.273076e+00
1.961762e+01	-5.308557e+00
1.973093e+01	-5.343505e+00
1.984490e+01	-5.379110e+00
1.995952e+01	-5.414714e+00
2.007480e+01	-5.450858e+00
2.019076e+01	-5.485959e+00
2.030738e+01	-5.522279e+00
2.042467e+01	-5.558171e+00
2.054264e+01	-5.594329e+00
2.066130e+01	-5.630691e+00
2.078064e+01	-5.667251e+00
2.090066e+01	-5.703738e+00
2.102139e+01	-5.740106e+00
2.114280e+01	-5.776981e+00
2.126492e+01	-5.813740e+00
2.138775e+01	-5.850928e+00
2.151128e+01	-5.888218e+00
2.163553e+01	-5.925556e+00
2.176050e+01	-5.962402e+00
2.188619e+01	-5.999708e+00
2.201260e+01	-6.037221e+00
2.213974e+01	-6.074980e+00
2.226762e+01	-6.112714e+00
2.239624e+01	-6.150543e+00
2.252560e+01	-6.188537e+00
2.265571e+01	-6.226666e+00
2.278656e+01	-6.264530e+00
2.291818e+01	-6.303002e+00
2.305055e+01	-6.341160e+00
2.318369e+01	-6.379467e+00
2.331760e+01	-6.418528e+00
2.345228e+01	-6.456584e+00
2.358774e+01	-6.496047e+00
2.372398e+01	-6.534250e+00
2.386101e+01	-6.573674e+00
2.399883e+01	-6.612597e+00
2.413745e+01	-6.651526e+00
2.427686e+01	-6.690660e+00
2.441709e+01	-6.730176e+00
2.455812e+01	-6.769803e+00
2.469997e+01	-6.809070e+00
2.484263e+01	-6.849323e+00
2.498612e+01	-6.888579e+00
2.513044e+01	-6.928468e+00
2.527559e+01	-6.968340e+00
2.542158e+01	-7.008532e+00
2.556842e+01	-7.048451e+00
2.571610e+01	-7.088872e+00
2.586463e+01	-7.129083e+00
2.601403e+01	-7.169540e+00
2.616428e+01	-7.210005e+00
2.631541e+01	-7.251138e+00
2.646740e+01	-7.290601e+00
2.662028e+01	-7.332151e+00
2.677404e+01	-7.372856e+00
2.692868e+01	-7.413825e+00
2.708422e+01	-7.454816e+00
2.724066e+01	-7.495650e+00
2.739800e+01	-7.536686e+00
2.755625e+01	-7.578103e+00
2.771541e+01	-7.619517e+00
2.787550e+01	-7.660641e+00
2.803650e+01	-7.702063e+00
2.819844e+01	-7.743910e+00
2.836131e+01	-7.785567e+00
2.852513e+01	-7.827475e+00
2.868989e+01	-7.869198e+00
2.885560e+01	-7.911199e+00
2.902227e+01	-7.952718e+00
2.918990e+01	-7.995099e+00
2.935850e+01	-8.037060e+00
2.952807e+01	-8.079370e+00
2.969863e+01	-8.121728e+00
2.987016e+01	-8.164261e+00
3.004269e+01	-8.206649e+00
3.021622e+01	-8.249065e+00
3.039075e+01	-8.290960e+00
3.056628e+01	-8.334462e+00
3.074283e+01	-8.376675e+00
3.092040e+01	-8.419916e+00
3.109900e+01	-8.462584e+00
3.127862e+01	-8.505534e+00
3.145929e+01	-8.548691e+00
3.164099e+01	-8.591802e+00
3.182375e+01	-8.635037e+00
3.200756e+01	-8.678238e+00
3.219244e+01	-8.721149e+00
3.237838e+01	-8.764461e+00
3.256540e+01	-8.807818e+00
3.275349e+01	-8.851573e+00
3.294268e+01	-8.894839e+00
3.313295e+01	-8.938622e+00
3.332433e+01	-8.982346e+00
3.351681e+01	-9.025978e+00
3.371040e+01	-9.069826e+00
3.390511e+01	-9.113726e+00
3.410094e+01	-9.157759e+00
3.429791e+01	-9.201785e+00
3.449601e+01	-9.245891e+00
3.469526e+01	-9.289669e+00
3.489566e+01	-9.334038e+00
3.509721e+01	-9.377896e+00
3.529993e+01	-9.422571e+00
3.550382e+01	-9.466810e+00
3.570889e+01	-9.511355e+00
3.591515e+01	-9.555228e+00
3.612259e+01	-9.600467e+00
3.633123e+01	-9.644177e+00
3.654108e+01	-9.689607e+00
3.675214e+01	-9.733806e+00
3.696442e+01	-9.778682e+00
3.717792e+01	-9.823627e+00
3.739266e+01	-9.868193e+00
3.760864e+01	-9.913345e+00
3.782587e+01	-9.958089e+00
3.804435e+01	-1.000303e+01
3.826409e+01	-1.004797e+01
3.848510e+01	-1.009314e+01
3.870739e+01	-1.013821e+01
3.893096e+01	-1.018324e+01
3.915583e+01	-1.022851e+01
3.938199e+01	-1.027420e+01
3.960946e+01	-1.031949e+01
3.983824e+01	-1.036480e+01
4.006834e+01	-1.041109e+01
4.029978e+01	-1.045584e+01
4.053255e+01	-1.050128e+01
4.076666e+01	-1.054734e+01
4.100213e+01	-1.059222e+01
4.123896e+01	-1.063840e+01
4.147715e+01	-1.068421e+01
4.171672e+01	-1.072973e+01
4.195767e+01	-1.077590e+01
4.220002e+01	-1.082150e+01
4.244377e+01	-1.086747e+01
4.268892e+01	-1.091374e+01
4.293549e+01	-1.095995e+01
4.318348e+01	-1.100566e+01
4.343291e+01	-1.105140e+01
4.368377e+01	-1.109769e+01
4.393609e+01	-1.114432e+01
4.418986e+01	-1.118945e+01
4.444510e+01	-1.123623e+01
4.470182e+01	-1.128188e+01
4.496001e+01	-1.132933e+01
4.521970e+01	-1.137519e+01
4.548089e+01	-1.142101e+01
4.574358e+01	-1.146801e+01
4.600779e+01	-1.151493e+01
4.627353e+01	-1.156163e+01
4.654081e+01	-1.160766e+01
4.680963e+01	-1.165460e+01
4.708000e+01	-1.170098e+01
4.735193e+01	-1.174743e+01
4.762543e+01	-1.179425e+01
4.790051e+01	-1.184116e+01
4.817719e+01	-1.188802e+01
4.845545e+01	-1.193437e+01
4.873533e+01	-1.198111e+01
4.901682e+01	-1.202773e+01
4.929994e+01	-1.207510e+01
4.958470e+01	-1.212165e+01
4.987110e+01	-1.216894e+01
5.015915e+01	-1.221629e+01
5.044887e+01	-1.226315e+01
5.074026e+01	-1.231041e+01
5.103333e+01	-1.235717e+01
5.132810e+01	-1.240433e+01
5.162457e+01	-1.245107e+01
5.192275e+01	-1.249886e+01
5.222265e+01	-1.254669e+01
5.252429e+01	-1.259272e+01
5.282767e+01	-1.264101e+01
5.313280e+01	-1.268793e+01
5.343969e+01	-1.273506e+01
5.374836e+01	-1.278242e+01
5.405880e+01	-1.283040e+01
5.437105e+01	-1.287775e+01
5.468509e+01	-1.292520e+01
5.500095e+01	-1.297234e+01
5.531863e+01	-1.301996e+01
5.563815e+01	-1.306710e+01
5.595951e+01	-1.311480e+01
5.628273e+01	-1.316247e+01
5.660782e+01	-1.321042e+01
5.693479e+01	-1.325765e+01
5.726364e+01	-1.330522e+01
5.759439e+01	-1.335262e+01
5.792705e+01	-1.340144e+01
5.826164e+01	-1.344820e+01
5.859815e+01	-1.349721e+01
5.893662e+01	-1.354432e+01
5.927703e+01	-1.359235e+01
5.961941e+01	-1.364052e+01
5.996377e+01	-1.368766e+01
6.031012e+01	-1.373571e+01
6.065847e+01	-1.378360e+01
6.100883e+01	-1.383207e+01
6.136121e+01	-1.387978e+01
6.171563e+01	-1.392790e+01
6.207210e+01	-1.397588e+01
6.243063e+01	-1.402419e+01
6.279122e+01	-1.407117e+01
6.315390e+01	-1.411908e+01
6.351868e+01	-1.416811e+01
6.388556e+01	-1.421571e+01
6.425456e+01	-1.426428e+01
6.462569e+01	-1.431241e+01
6.499897e+01	-1.436074e+01
6.537440e+01	-1.440859e+01
6.575200e+01	-1.445612e+01
6.613178e+01	-1.450488e+01
6.651375e+01	-1.455272e+01
6.689793e+01	-1.460205e+01
6.728433e+01	-1.465029e+01
6.767297e+01	-1.469871e+01
6.806384e+01	-1.474616e+01
6.845698e+01	-1.479531e+01
6.885238e+01	-1.484346e+01
6.925007e+01	-1.489202e+01
6.965005e+01	-1.494035e+01
7.005235e+01	-1.498929e+01
7.045697e+01	-1.503769e+01
7.086393e+01	-1.508548e+01
7.127323e+01	-1.513472e+01
7.168490e+01	-1.518178e+01
7.209895e+01	-1.523120e+01
7.251539e+01	-1.527979e+01
7.293424e+01	-1.532796e+01
7.335551e+01	-1.537700e+01
7.377920e+01	-1.542463e+01
7.420535e+01	-1.547417e+01
7.463396e+01	-1.552374e+01
7.506504e+01	-1.557143e+01
7.549861e+01	-1.562053e+01
7.593469e+01	-1.567037e+01
7.637328e+01	-1.571713e+01
7.681441e+01	-1.576599e+01
7.725809e+01	-1.581573e+01
7.770433e+01	-1.586282e+01
7.815315e+01	-1.591206e+01
7.860456e+01	-1.596150e+01
7.905857e+01	-1.600905e+01
7.951521e+01	-1.605834e+01
7.997449e+01	-1.610725e+01
8.043642e+01	-1.615558e+01
8.090102e+01	-1.620483e+01
8.136830e+01	-1.625357e+01
8.183828e+01	-1.630223e+01
8.231097e+01	-1.635039e+01
8.278640e+01	-1.639909e+01
8.326457e+01	-1.644914e+01
8.374550e+01	-1.649843e+01
8.422921e+01	-1.654734e+01
8.471572e+01	-1.659556e+01
8.520503e+01	-1.664524e+01
8.569717e+01	-1.669414e+01
8.619215e+01	-1.674200e+01
8.669000e+01	-1.679104e+01
8.719071e+01	-1.684062e+01
8.769432e+01	-1.688903e+01
8.820084e+01	-1.693725e+01
8.871029e+01	-1.698794e+01
8.922267e+01	-1.703616e+01
8.973802e+01	-1.708644e+01
9.025634e+01	-1.713531e+01
9.077766e+01	-1.718347e+01
9.130199e+01	-1.723298e+01
9.182935e+01	-1.728096e+01
9.235975e+01	-1.733071e+01
9.289321e+01	-1.738072e+01
9.342976e+01	-1.742929e+01
9.396941e+01	-1.747830e+01
9.451217e+01	-1.752743e+01
9.505807e+01	-1.757767e+01
9.560712e+01	-1.762595e+01
9.615934e+01	-1.767570e+01
9.671476e+01	-1.772387e+01
9.727338e+01	-1.777348e+01
9.783522e+01	-1.782375e+01
9.840032e+01	-1.787179e+01
9.896867e+01	-1.792093e+01
9.954031e+01	-1.797105e+01
1.001153e+02	-1.802086e+01
1.006935e+02	-1.806931e+01
1.012751e+02	-1.811753e+01
1.018601e+02	-1.816736e+01
1.024484e+02	-1.821731e+01
1.030402e+02	-1.826659e+01
1.036353e+02	-1.831602e+01
1.042339e+02	-1.836501e+01
1.048360e+02	-1.841422e+01
1.054415e+02	-1.846417e+01
1.060505e+02	-1.851244e+01
1.066631e+02	-1.856149e+01
1.072791e+02	-1.861084e+01
1.078988e+02	-1.866036e+01
1.085220e+02	-1.871038e+01
1.091488e+02	-1.875871e+01
1.097793e+02	-1.880930e+01
1.104133e+02	-1.885743e+01
1.110511e+02	-1.890775e+01
1.116925e+02	-1.895647e+01
1.123376e+02	-1.900630e+01
1.129865e+02	-1.905449e+01
1.136391e+02	-1.910538e+01
1.142955e+02	-1.915381e+01
1.149556e+02	-1.920306e+01
1.156196e+02	-1.925403e+01
1.162874e+02	-1.930174e+01
1.169591e+02	-1.935155e+01
1.176347e+02	-1.940162e+01
1.183141e+02	-1.945115e+01
1.189975e+02	-1.950028e+01
1.196848e+02	-1.954909e+01
1.203761e+02	-1.959805e+01
1.210714e+02	-1.964864e+01
1.217707e+02	-1.969854e+01
1.224740e+02	-1.974846e+01
1.231814e+02	-1.979800e+01
1.238929e+02	-1.984646e+01
1.246085e+02	-1.989626e+01
1.253283e+02	-1.994581e+01
1.260522e+02	-1.999541e+01
1.267802e+02	-2.004417e+01
1.275125e+02	-2.009650e+01
1.282490e+02	-2.014465e+01
1.289898e+02	-2.019430e+01
1.297348e+02	-2.024449e+01
1.304842e+02	-2.029403e+01
1.312378e+02	-2.034222e+01
1.319959e+02	-2.039166e+01
1.327583e+02	-2.044131e+01
1.335251e+02	-2.049262e+01
1.342963e+02	-2.054004e+01
1.350720e+02	-2.059118e+01
1.358522e+02	-2.064108e+01
1.366368e+02	-2.068944e+01
1.374260e+02	-2.074115e+01
1.382198e+02	-2.078859e+01
1.390182e+02	-2.083907e+01
1.398211e+02	-2.088888e+01
1.406287e+02	-2.093649e+01
1.414410e+02	-2.098760e+01
1.422579e+02	-2.103750e+01
1.430796e+02	-2.108699e+01
1.439060e+02	-2.113715e+01
1.447372e+02	-2.118675e+01
1.455732e+02	-2.123481e+01
1.464141e+02	-2.128400e+01
1.472597e+02	-2.133579e+01
1.481103e+02	-2.138461e+01
1.489658e+02	-2.143544e+01
1.498262e+02	-2.148443e+01
1.506916e+02	-2.153471e+01
1.515620e+02	-2.158310e+01
1.524374e+02	-2.163513e+01
1.533179e+02	-2.168216e+01
1.542034e+02	-2.173165e+01
1.550941e+02	-2.178148e+01
1.559899e+02	-2.183239e+01
1.568909e+02	-2.188266e+01
1.577971e+02	-2.193014e+01
1.587085e+02	-2.198338e+01
1.596252e+02	-2.203034e+01
1.605472e+02	-2.208045e+01
1.614745e+02	-2.213005e+01
1.624072e+02	-2.217873e+01
1.633453e+02	-2.223094e+01
1.642887e+02	-2.227776e+01
1.652377e+02	-2.232750e+01
1.661921e+02	-2.237946e+01
1.671520e+02	-2.243062e+01
1.681175e+02	-2.247903e+01
1.690885e+02	-2.252888e+01
1.700651e+02	-2.257886e+01
1.710474e+02	-2.262746e+01
1.720354e+02	-2.267722e+01
1.730291e+02	-2.272729e+01
1.740285e+02	-2.277687e+01
1.750337e+02	-2.282730e+01
1.760446e+02	-2.287450e+01
1.770615e+02	-2.292484e+01
1.780842e+02	-2.297707e+01
1.791128e+02	-2.302605e+01
1.801473e+02	-2.307443e+01
1.811878e+02	-2.312677e+01
1.822344e+02	-2.317602e+01
1.832870e+02	-2.322840e+01
1.843456e+02	-2.327491e+01
1.854104e+02	-2.332373e+01
1.864813e+02	-2.337623e+01
1.875584e+02	-2.342644e+01
1.886418e+02	-2.347461e+01
1.897313e+02	-2.352464e+01
1.908272e+02	-2.357497e+01
1.919294e+02	-2.362442e+01
1.930380e+02	-2.367311e+01
1.941530e+02	-2.372315e+01
1.952744e+02	-2.377400e+01
1.964023e+02	-2.382335e+01
1.975367e+02	-2.387467e+01
1.986777e+02	-2.392347e+01
1.998252e+02	-2.397291e+01
2.009794e+02	-2.402283e+01
2.021403e+02	-2.407253e+01
2.033078e+02	-2.412121e+01
2.044821e+02	-2.417526e+01
2.056632e+02	-2.422267e+01
2.068511e+02	-2.427231e+01
2.080459e+02	-2.431935e+01
2.092475e+02	-2.437262e+01
2.104561e+02	-2.442206e+01
2.116717e+02	-2.447170e+01
2.128943e+02	-2.452035e+01
2.141240e+02	-2.456818e+01
2.153608e+02	-2.461832e+01
2.166047e+02	-2.467018e+01
2.178558e+02	-2.472183e+01
2.191141e+02	-2.477229e+01
2.203797e+02	-2.482228e+01
2.216526e+02	-2.486849e+01
2.229329e+02	-2.491823e+01
2.242205e+02	-2.497350e+01
2.255156e+02	-2.501785e+01
2.268182e+02	-2.507149e+01
2.281283e+02	-2.512145e+01
2.294459e+02	-2.516994e+01
2.307712e+02	-2.522386e+01
2.321041e+02	-2.526872e+01
2.334447e+02	-2.532141e+01
2.347931e+02	-2.537131e+01
2.361493e+02	-2.542227e+01
2.375133e+02	-2.547016e+01
2.388851e+02	-2.552132e+01
2.402649e+02	-2.557004e+01
2.416527e+02	-2.561928e+01
2.430484e+02	-2.566841e+01
2.444523e+02	-2.571895e+01
2.458642e+02	-2.576778e+01
2.472843e+02	-2.581892e+01
2.487126e+02	-2.586748e+01
2.501492e+02	-2.591678e+01
2.515940e+02	-2.597024e+01
2.530472e+02	-2.602203e+01
2.545088e+02	-2.607039e+01
2.559789e+02	-2.611913e+01
2.574574e+02	-2.617211e+01
2.589444e+02	-2.621767e+01
2.604401e+02	-2.626723e+01
2.619444e+02	-2.631711e+01
2.634574e+02	-2.636750e+01
2.649791e+02	-2.641889e+01
2.665096e+02	-2.646995e+01
2.680489e+02	-2.651886e+01
2.695972e+02	-2.656787e+01
2.711544e+02	-2.662028e+01
2.727205e+02	-2.666809e+01
2.742958e+02	-2.671748e+01
2.758801e+02	-2.676897e+01
2.774736e+02	-2.682089e+01
2.790762e+02	-2.686933e+01
2.806882e+02	-2.692297e+01
2.823094e+02	-2.696620e+01
2.839400e+02	-2.701937e+01
2.855800e+02	-2.706704e+01
2.872295e+02	-2.711767e+01
2.888886e+02	-2.717062e+01
2.905572e+02	-2.721429e+01
2.922354e+02	-2.727027e+01
2.939234e+02	-2.732145e+01
2.956211e+02	-2.736637e+01
2.973286e+02	-2.741763e+01
2.990459e+02	-2.746782e+01
3.007732e+02	-2.751690e+01
3.025104e+02	-2.756993e+01
3.042577e+02	-2.762255e+01
3.060151e+02	-2.767200e+01
3.077826e+02	-2.771914e+01
3.095604e+02	-2.776754e+01
3.113484e+02	-2.781854e+01
3.131467e+02	-2.787052e+01
3.149554e+02	-2.791600e+01
3.167746e+02	-2.796867e+01
3.186043e+02	-2.802044e+01
3.204445e+02	-2.806298e+01
3.222954e+02	-2.812171e+01
3.241570e+02	-2.817450e+01
3.260293e+02	-2.822029e+01
3.279124e+02	-2.827161e+01
3.298064e+02	-2.831865e+01
3.317114e+02	-2.836671e+01
3.336273e+02	-2.841899e+01
3.355544e+02	-2.846807e+01
3.374925e+02	-2.851755e+01
3.394418e+02	-2.857201e+01
3.414024e+02	-2.861732e+01
3.433744e+02	-2.867008e+01
3.453577e+02	-2.872486e+01
3.473525e+02	-2.876694e+01
3.493588e+02	-2.881990e+01
3.513766e+02	-2.886989e+01
3.534062e+02	-2.892070e+01
3.554474e+02	-2.896868e+01
3.575005e+02	-2.901303e+01
3.595654e+02	-2.906917e+01
3.616422e+02	-2.912049e+01
3.637311e+02	-2.917581e+01
3.658320e+02	-2.921673e+01
3.679450e+02	-2.927134e+01
3.700702e+02	-2.932307e+01
3.722077e+02	-2.937197e+01
3.743576e+02	-2.942109e+01
3.765199e+02	-2.946790e+01
3.786946e+02	-2.951403e+01
3.808820e+02	-2.957106e+01
3.830819e+02	-2.962246e+01
3.852946e+02	-2.967406e+01
3.875200e+02	-2.971945e+01
3.897583e+02	-2.977062e+01
3.920096e+02	-2.982078e+01
3.942738e+02	-2.987267e+01
3.965511e+02	-2.991839e+01
3.988416e+02	-2.996959e+01
4.011452e+02	-3.002005e+01
4.034622e+02	-3.007476e+01
4.057926e+02	-3.011817e+01
4.081365e+02	-3.016687e+01
4.104938e+02	-3.022288e+01
4.128648e+02	-3.027059e+01
4.152495e+02	-3.032504e+01
4.176480e+02	-3.037843e+01
4.200603e+02	-3.042581e+01
4.224866e+02	-3.047282e+01
4.249268e+02	-3.052117e+01
4.273812e+02	-3.056923e+01
4.298497e+02	-3.062862e+01
4.323325e+02	-3.067649e+01
4.348297e+02	-3.072659e+01
4.373412e+02	-3.076929e+01
4.398673e+02	-3.082104e+01
4.424079e+02	-3.087744e+01
4.449633e+02	-3.091935e+01
4.475334e+02	-3.097409e+01
4.501183e+02	-3.102726e+01
4.527182e+02	-3.107512e+01
4.553330e+02	-3.112318e+01
4.579630e+02	-3.117402e+01
4.606082e+02	-3.121817e+01
4.632687e+02	-3.127414e+01
4.659445e+02	-3.132431e+01
4.686358e+02	-3.137234e+01
4.713426e+02	-3.142524e+01
4.740650e+02	-3.147461e+01
4.768032e+02	-3.152182e+01
4.795572e+02	-3.157174e+01
4.823271e+02	-3.162419e+01
4.851130e+02	-3.167484e+01
4.879150e+02	-3.172817e+01
4.907332e+02	-3.177428e+01
4.935676e+02	-3.183058e+01
4.964185e+02	-3.187548e+01
4.992858e+02	-3.192954e+01
5.021696e+02	-3.197391e+01
5.050701e+02	-3.202346e+01
5.079874e+02	-3.207665e+01
5.109215e+02	-3.213101e+01
5.138726e+02	-3.218305e+01
5.168407e+02	-3.222781e+01
5.198259e+02	-3.227625e+01
5.228284e+02	-3.232898e+01
5.258482e+02	-3.237804e+01
5.288855e+02	-3.242511e+01
5.319403e+02	-3.248044e+01
5.350128e+02	-3.252996e+01
5.381030e+02	-3.258173e+01
5.412111e+02	-3.262928e+01
5.443371e+02	-3.268127e+01
5.474812e+02	-3.273083e+01
5.506434e+02	-3.278055e+01
5.538239e+02	-3.282836e+01
5.570228e+02	-3.287864e+01
5.602401e+02	-3.292088e+01
5.634760e+02	-3.297489e+01
5.667306e+02	-3.302966e+01
5.700040e+02	-3.307292e+01
5.732964e+02	-3.313278e+01
5.766077e+02	-3.317954e+01
5.799382e+02	-3.323093e+01
5.832879e+02	-3.328283e+01
5.866569e+02	-3.332936e+01
5.900454e+02	-3.338876e+01
5.934535e+02	-3.343988e+01
5.968813e+02	-3.348300e+01
6.003288e+02	-3.353319e+01
6.037963e+02	-3.358047e+01
6.072838e+02	-3.363657e+01
6.107914e+02	-3.369085e+01
6.143194e+02	-3.374264e+01
6.178676e+02	-3.378478e+01
6.214364e+02	-3.383140e+01
6.250258e+02	-3.388780e+01
6.286359e+02	-3.393472e+01
6.322669e+02	-3.398759e+01
6.359189e+02	-3.403085e+01
6.395919e+02	-3.409053e+01
6.432862e+02	-3.414631e+01
6.470017e+02	-3.418725e+01
6.507388e+02	-3.423942e+01
6.544974e+02	-3.428552e+01
6.582778e+02	-3.433963e+01
6.620800e+02	-3.438652e+01
6.659041e+02	-3.443864e+01
6.697504e+02	-3.449346e+01
6.736188e+02	-3.453003e+01
6.775096e+02	-3.458920e+01
6.814229e+02	-3.464917e+01
6.853587e+02	-3.468999e+01
6.893173e+02	-3.473901e+01
6.932988e+02	-3.478767e+01
6.973033e+02	-3.484399e+01
7.013309e+02	-3.489833e+01
