Frequency(Hz)	Magnitude(dB)
1.000000e+01	-2.236992e+00
1.005776e+01	-2.257534e+00
1.011585e+01	-2.277410e+00
1.017428e+01	-2.298109e+00
1.023305e+01	-2.318982e+00
1.029215e+01	-2.339594e+00
1.035160e+01	-2.360411e+00
1.041139e+01	-2.381446e+00
1.047153e+01	-2.402684e+00
1.053201e+01	-2.424024e+00
1.059284e+01	-2.445467e+00
1.065403e+01	-2.467101e+00
1.071556e+01	-2.489063e+00
1.077746e+01	-2.510885e+00
1.083971e+01	-2.532797e+00
1.090232e+01	-2.554885e+00
1.096529e+01	-2.577107e+00
1.102862e+01	-2.599846e+00
1.109232e+01	-2.622297e+00
1.115639e+01	-2.644961e+00
1.122083e+01	-2.668050e+00
1.128564e+01	-2.690833e+00
1.135083e+01	-2.714107e+00
1.141639e+01	-2.737524e+00
1.148233e+01	-2.760898e+00
1.154865e+01	-2.784403e+00
1.161536e+01	-2.808310e+00
1.168245e+01	-2.832086e+00
1.174992e+01	-2.856302e+00
1.181779e+01	-2.880556e+00
1.188605e+01	-2.904820e+00
1.195470e+01	-2.929222e+00
1.202375e+01	-2.953664e+00
1.209320e+01	-2.978543e+00
1.216305e+01	-3.003369e+00
1.223330e+01	-3.028588e+00
1.230396e+01	-3.053577e+00
1.237503e+01	-3.078874e+00
1.244651e+01	-3.104419e+00
1.251840e+01	-3.130073e+00
1.259070e+01	-3.155887e+00
1.266343e+01	-3.181621e+00
1.273657e+01	-3.207627e+00
1.281014e+01	-3.234121e+00
1.288413e+01	-3.260237e+00
1.295855e+01	-3.286782e+00
1.303339e+01	-3.313503e+00
1.310867e+01	-3.340385e+00
1.318439e+01	-3.367085e+00
1.326054e+01	-3.394156e+00
1.333713e+01	-3.421550e+00
1.341417e+01	-3.448660e+00
1.349165e+01	-3.476056e+00
1.356958e+01	-3.503975e+00
1.364795e+01	-3.531401e+00
1.372678e+01	-3.559484e+00
1.380607e+01	-3.587762e+00
1.388581e+01	-3.615722e+00
1.396602e+01	-3.644311e+00
1.404668e+01	-3.672709e+00
1.412782e+01	-3.701162e+00
1.420942e+01	-3.729864e+00
1.429149e+01	-3.758752e+00
1.437404e+01	-3.788092e+00
1.445706e+01	-3.817171e+00
1.454057e+01	-3.846294e+00
1.462455e+01	-3.875852e+00
1.470902e+01	-3.905538e+00
1.479398e+01	-3.935219e+00
1.487943e+01	-3.965145e+00
1.496537e+01	-3.994988e+00
1.505181e+01	-4.025273e+00
1.513875e+01	-4.055783e+00
1.522619e+01	-4.086082e+00
1.531414e+01	-4.116645e+00
1.540259e+01	-4.147412e+00
1.549156e+01	-4.178188e+00
1.558103e+01	-4.209259e+00
1.567103e+01	-4.240432e+00
1.576155e+01	-4.271470e+00
1.585258e+01	-4.302854e+00
1.594415e+01	-4.334454e+00
1.603624e+01	-4.366073e+00
1.612886e+01	-4.397843e+00
1.622202e+01	-4.430046e+00
1.631572e+01	-4.461892e+00
1.640996e+01	-4.493986e+00
1.650474e+01	-4.526393e+00
1.660008e+01	-4.558840e+00
1.669596e+01	-4.591144e+00
1.679239e+01	-4.624190e+00
1.688938e+01	-4.656911e+00
1.698694e+01	-4.689972e+00
1.708505e+01	-4.723018e+00
1.718373e+01	-4.756352e+00
1.728299e+01	-4.789481e+00
1.738281e+01	-4.822920e+00
1.748322e+01	-4.856630e+00
1.758420e+01	-4.890228e+00
1.768576e+01	-4.924292e+00
1.778792e+01	-4.958458e+00
1.789066e+01	-4.992219e+00
1.799399e+01	-5.027007e+00
1.809793e+01	-5.060952e+00
1.820246e+01	-5.095312e+00
1.830760e+01	-5.130299e+00
1.841334e+01	-5.164768e+00
1.851969e+01	-5.199841e+00
1.862666e+01	-5.234631e+00
1.873425e+01	-5.269973e+00
1.884246e+01	-5.304985e+00
1.895129e+01	-5.340167e+00
1.906075e+01	-5.375821e+00
1.917085e+01	-5.411440e+00
1.928158e+01	-5.447068e+00
1.939295e+01	-5.482965e+00
1.950496e+01	-5.518495e+00
1.961762e+01	-5.554796e+00
1.973093e+01	-5.591151e+00
1.984490e+01	-5.627242e+00
1.995952e+01	-5.663650e+00
2.007480e+01	-5.700127e+00
2.019076e+01	-5.736843e+00
2.030738e+01	-5.773669e+00
2.042467e+01	-5.810033e+00
2.054264e+01	-5.847336e+00
2.066130e+01	-5.883990e+00
2.078064e+01	-5.921427e+00
2.090066e+01	-5.958737e+00
2.102139e+01	-5.996340e+00
2.114280e+01	-6.033379e+00
2.126492e+01	-6.071246e+00
2.138775e+01	-6.109174e+00
2.151128e+01	-6.146502e+00
2.163553e+01	-6.184908e+00
2.176050e+01	-6.222992e+00
2.188619e+01	-6.261099e+00
2.201260e+01	-6.299209e+00
2.213974e+01	-6.337762e+00
2.226762e+01	-6.376121e+00
2.239624e+01	-6.414471e+00
2.252560e+01	-6.453057e+00
2.265571e+01	-6.491981e+00
2.278656e+01	-6.530731e+00
2.291818e+01	-6.569771e+00
2.305055e+01	-6.608640e+00
2.318369e+01	-6.648137e+00
2.331760e+01	-6.687410e+00
2.345228e+01	-6.726713e+00
2.358774e+01	-6.766014e+00
2.372398e+01	-6.805670e+00
2.386101e+01	-6.845168e+00
2.399883e+01	-6.885236e+00
2.413745e+01	-6.924712e+00
2.427686e+01	-6.964506e+00
2.441709e+01	-7.004673e+00
2.455812e+01	-7.045097e+00
2.469997e+01	-7.084839e+00
2.484263e+01	-7.125245e+00
2.498612e+01	-7.166032e+00
2.513044e+01	-7.206370e+00
2.527559e+01	-7.246627e+00
2.542158e+01	-7.287412e+00
2.556842e+01	-7.327869e+00
2.571610e+01	-7.368731e+00
2.586463e+01	-7.409931e+00
2.601403e+01	-7.450597e+00
2.616428e+01	-7.492083e+00
2.631541e+01	-7.532643e+00
2.646740e+01	-7.574093e+00
2.662028e+01	-7.615455e+00
2.677404e+01	-7.656980e+00
2.692868e+01	-7.698356e+00
2.708422e+01	-7.739957e+00
2.724066e+01	-7.781788e+00
2.739800e+01	-7.823272e+00
2.755625e+01	-7.865173e+00
2.771541e+01	-7.906878e+00
2.787550e+01	-7.948962e+00
2.803650e+01	-7.991020e+00
2.819844e+01	-8.032943e+00
2.836131e+01	-8.075260e+00
2.852513e+01	-8.117127e+00
2.868989e+01	-8.159580e+00
2.885560e+01	-8.202618e+00
2.902227e+01	-8.244756e+00
2.918990e+01	-8.287609e+00
2.935850e+01	-8.330015e+00
2.952807e+01	-8.373176e+00
2.969863e+01	-8.415847e+00
2.987016e+01	-8.458387e+00
3.004269e+01	-8.501525e+00
3.021622e+01	-8.544451e+00
3.039075e+01	-8.587491e+00
3.056628e+01	-8.630602e+00
3.074283e+01	-8.673784e+00
3.092040e+01	-8.717198e+00
3.109900e+01	-8.760573e+00
3.127862e+01	-8.804336e+00
3.145929e+01	-8.847194e+00
3.164099e+01	-8.890819e+00
3.182375e+01	-8.934394e+00
3.200756e+01	-8.978061e+00
3.219244e+01	-9.021835e+00
3.237838e+01	-9.065720e+00
3.256540e+01	-9.109427e+00
3.275349e+01	-9.152761e+00
3.294268e+01	-9.197291e+00
3.313295e+01	-9.241437e+00
3.332433e+01	-9.285463e+00
3.351681e+01	-9.329517e+00
3.371040e+01	-9.373933e+00
3.390511e+01	-9.418251e+00
3.410094e+01	-9.462216e+00
3.429791e+01	-9.506210e+00
3.449601e+01	-9.551684e+00
3.469526e+01	-9.595972e+00
3.489566e+01	-9.640340e+00
3.509721e+01	-9.684659e+00
3.529993e+01	-9.729727e+00
3.550382e+01	-9.774860e+00
3.570889e+01	-9.819292e+00
3.591515e+01	-9.864203e+00
3.612259e+01	-9.908648e+00
3.633123e+01	-9.953781e+00
3.654108e+01	-9.998928e+00
3.675214e+01	-1.004390e+01
3.696442e+01	-1.008912e+01
3.717792e+01	-1.013464e+01
3.739266e+01	-1.017873e+01
3.760864e+01	-1.022444e+01
3.782587e+01	-1.027014e+01
3.804435e+01	-1.031601e+01
3.826409e+01	-1.036057e+01
3.848510e+01	-1.040578e+01
3.870739e+01	-1.045135e+01
3.893096e+01	-1.049693e+01
3.915583e+01	-1.054242e+01
3.938199e+01	-1.058807e+01
3.960946e+01	-1.063398e+01
3.983824e+01	-1.068033e+01
4.006834e+01	-1.072596e+01
4.029978e+01	-1.077093e+01
4.053255e+01	-1.081717e+01
4.076666e+01	-1.086285e+01
4.100213e+01	-1.090928e+01
4.123896e+01	-1.095512e+01
4.147715e+01	-1.100122e+01
4.171672e+01	-1.104742e+01
4.195767e+01	-1.109312e+01
4.220002e+01	-1.113975e+01
4.244377e+01	-1.118529e+01
4.268892e+01	-1.123149e+01
4.293549e+01	-1.127812e+01
4.318348e+01	-1.132482e+01
4.343291e+01	-1.137083e+01
4.368377e+01	-1.141707e+01
4.393609e+01	-1.146347e+01
4.418986e+01	-1.150989e+01
4.444510e+01	-1.155666e+01
4.470182e+01	-1.160339e+01
4.496001e+01	-1.164979e+01
4.521970e+01	-1.169591e+01
4.548089e+01	-1.174311e+01
4.574358e+01	-1.179028e+01
4.600779e+01	-1.183611e+01
4.627353e+01	-1.188318e+01
4.654081e+01	-1.193027e+01
4.680963e+01	-1.197696e+01
4.708000e+01	-1.202375e+01
4.735193e+01	-1.207072e+01
4.762543e+01	-1.211819e+01
4.790051e+01	-1.216458e+01
4.817719e+01	-1.221188e+01
4.845545e+01	-1.225940e+01
4.873533e+01	-1.230577e+01
4.901682e+01	-1.235301e+01
4.929994e+01	-1.239997e+01
4.958470e+01	-1.244724e+01
4.987110e+01	-1.249418e+01
5.015915e+01	-1.254123e+01
5.044887e+01	-1.258845e+01
5.074026e+01	-1.263537e+01
5.103333e+01	-1.268380e+01
5.132810e+01	-1.273062e+01
5.162457e+01	-1.277863e+01
5.192275e+01	-1.282573e+01
5.222265e+01	-1.287275e+01
5.252429e+01	-1.292012e+01
5.282767e+01	-1.296793e+01
5.313280e+01	-1.301540e+01
5.343969e+01	-1.306313e+01
5.374836e+01	-1.311083e+01
5.405880e+01	-1.315830e+01
5.437105e+01	-1.320455e+01
5.468509e+01	-1.325319e+01
5.500095e+01	-1.330156e+01
5.531863e+01	-1.334992e+01
5.563815e+01	-1.339719e+01
5.595951e+01	-1.344467e+01
5.628273e+01	-1.349145e+01
5.660782e+01	-1.353945e+01
5.693479e+01	-1.358750e+01
5.726364e+01	-1.363489e+01
5.759439e+01	-1.368360e+01
5.792705e+01	-1.373023e+01
5.826164e+01	-1.377945e+01
5.859815e+01	-1.382735e+01
5.893662e+01	-1.387527e+01
5.927703e+01	-1.392254e+01
5.961941e+01	-1.397100e+01
5.996377e+01	-1.401920e+01
6.031012e+01	-1.406754e+01
6.065847e+01	-1.411519e+01
6.100883e+01	-1.416270e+01
6.136121e+01	-1.421047e+01
6.171563e+01	-1.426009e+01
6.207210e+01	-1.430783e+01
6.243063e+01	-1.435678e+01
6.279122e+01	-1.440354e+01
6.315390e+01	-1.445327e+01
6.351868e+01	-1.450061e+01
6.388556e+01	-1.454862e+01
6.425456e+01	-1.459677e+01
6.462569e+01	-1.464517e+01
6.499897e+01	-1.469394e+01
6.537440e+01	-1.474212e+01
6.575200e+01	-1.479133e+01
6.613178e+01	-1.483764e+01
6.651375e+01	-1.488781e+01
6.689793e+01	-1.493660e+01
6.728433e+01	-1.498514e+01
6.767297e+01	-1.503280e+01
6.806384e+01	-1.508052e+01
6.845698e+01	-1.512926e+01
6.885238e+01	-1.517716e+01
6.925007e+01	-1.522632e+01
6.965005e+01	-1.527436e+01
7.005235e+01	-1.532403e+01
7.045697e+01	-1.537161e+01
7.086393e+01	-1.542094e+01
7.127323e+01	-1.546928e+01
7.168490e+01	-1.551809e+01
7.209895e+01	-1.556709e+01
7.251539e+01	-1.561509e+01
7.293424e+01	-1.566464e+01
7.335551e+01	-1.571251e+01
7.377920e+01	-1.576155e+01
7.420535e+01	-1.581056e+01
7.463396e+01	-1.585883e+01
7.506504e+01	-1.590735e+01
7.549861e+01	-1.595661e+01
7.593469e+01	-1.600474e+01
7.637328e+01	-1.605378e+01
7.681441e+01	-1.610262e+01
7.725809e+01	-1.615179e+01
7.770433e+01	-1.620088e+01
7.815315e+01	-1.624897e+01
7.860456e+01	-1.629745e+01
7.905857e+01	-1.634586e+01
7.951521e+01	-1.639552e+01
7.997449e+01	-1.644474e+01
8.043642e+01	-1.649406e+01
8.090102e+01	-1.654177e+01
8.136830e+01	-1.659121e+01
8.183828e+01	-1.664101e+01
8.231097e+01	-1.668970e+01
8.278640e+01	-1.673770e+01
8.326457e+01	-1.678763e+01
8.374550e+01	-1.683592e+01
8.422921e+01	-1.688593e+01
8.471572e+01	-1.693377e+01
8.520503e+01	-1.698229e+01
8.569717e+01	-1.703191e+01
8.619215e+01	-1.708144e+01
8.669000e+01	-1.713091e+01
8.719071e+01	-1.717811e+01
8.769432e+01	-1.722763e+01
8.820084e+01	-1.727688e+01
8.871029e+01	-1.732624e+01
8.922267e+01	-1.737448e+01
8.973802e+01	-1.742456e+01
9.025634e+01	-1.747451e+01
9.077766e+01	-1.752234e+01
9.130199e+01	-1.757237e+01
9.182935e+01	-1.761985e+01
9.235975e+01	-1.767100e+01
9.289321e+01	-1.771905e+01
9.342976e+01	-1.776938e+01
9.396941e+01	-1.781736e+01
9.451217e+01	-1.786728e+01
9.505807e+01	-1.791526e+01
9.560712e+01	-1.796662e+01
9.615934e+01	-1.801471e+01
9.671476e+01	-1.806385e+01
9.727338e+01	-1.811222e+01
9.783522e+01	-1.816260e+01
9.840032e+01	-1.821174e+01
9.896867e+01	-1.825997e+01
9.954031e+01	-1.831060e+01
1.001153e+02	-1.835927e+01
1.006935e+02	-1.840866e+01
1.012751e+02	-1.845812e+01
1.018601e+02	-1.850862e+01
1.024484e+02	-1.855733e+01
1.030402e+02	-1.860582e+01
1.036353e+02	-1.865618e+01
1.042339e+02	-1.870520e+01
1.048360e+02	-1.875453e+01
1.054415e+02	-1.880411e+01
1.060505e+02	-1.885336e+01
1.066631e+02	-1.890278e+01
1.072791e+02	-1.895202e+01
1.078988e+02	-1.900054e+01
1.085220e+02	-1.905183e+01
1.091488e+02	-1.909880e+01
1.097793e+02	-1.914904e+01
1.104133e+02	-1.919972e+01
1.110511e+02	-1.924781e+01
1.116925e+02	-1.929815e+01
1.123376e+02	-1.934737e+01
1.129865e+02	-1.939725e+01
1.136391e+02	-1.944469e+01
1.142955e+02	-1.949645e+01
1.149556e+02	-1.954559e+01
1.156196e+02	-1.959567e+01
1.162874e+02	-1.964389e+01
1.169591e+02	-1.969395e+01
1.176347e+02	-1.974305e+01
1.183141e+02	-1.979165e+01
1.189975e+02	-1.984219e+01
1.196848e+02	-1.989224e+01
1.203761e+02	-1.994017e+01
1.210714e+02	-1.999044e+01
1.217707e+02	-2.004159e+01
1.224740e+02	-2.008902e+01
1.231814e+02	-2.013935e+01
1.238929e+02	-2.018786e+01
1.246085e+02	-2.023947e+01
1.253283e+02	-2.028893e+01
1.260522e+02	-2.033872e+01
1.267802e+02	-2.038687e+01
1.275125e+02	-2.043664e+01
1.282490e+02	-2.048648e+01
1.289898e+02	-2.053718e+01
1.297348e+02	-2.058778e+01
1.304842e+02	-2.063579e+01
1.312378e+02	-2.068475e+01
1.319959e+02	-2.073547e+01
1.327583e+02	-2.078368e+01
1.335251e+02	-2.083590e+01
1.342963e+02	-2.088357e+01
1.350720e+02	-2.093251e+01
1.358522e+02	-2.098144e+01
1.366368e+02	-2.103422e+01
1.374260e+02	-2.108421e+01
1.382198e+02	-2.113199e+01
1.390182e+02	-2.118001e+01
1.398211e+02	-2.123181e+01
1.406287e+02	-2.127905e+01
1.414410e+02	-2.133000e+01
1.422579e+02	-2.137749e+01
1.430796e+02	-2.142847e+01
1.439060e+02	-2.147945e+01
1.447372e+02	-2.152685e+01
1.455732e+02	-2.157901e+01
1.464141e+02	-2.162794e+01
1.472597e+02	-2.167719e+01
1.481103e+02	-2.172729e+01
1.489658e+02	-2.177795e+01
1.498262e+02	-2.182798e+01
1.506916e+02	-2.187754e+01
1.515620e+02	-2.192605e+01
1.524374e+02	-2.197634e+01
1.533179e+02	-2.202873e+01
1.542034e+02	-2.207679e+01
1.550941e+02	-2.212467e+01
1.559899e+02	-2.217793e+01
1.568909e+02	-2.222595e+01
1.577971e+02	-2.227546e+01
1.587085e+02	-2.232472e+01
1.596252e+02	-2.237357e+01
1.605472e+02	-2.242486e+01
1.614745e+02	-2.247381e+01
1.624072e+02	-2.252295e+01
1.633453e+02	-2.257237e+01
1.642887e+02	-2.262307e+01
1.652377e+02	-2.267330e+01
1.661921e+02	-2.272279e+01
1.671520e+02	-2.277372e+01
1.681175e+02	-2.282426e+01
1.690885e+02	-2.287245e+01
1.700651e+02	-2.292291e+01
1.710474e+02	-2.297468e+01
1.720354e+02	-2.302311e+01
1.730291e+02	-2.307013e+01
1.740285e+02	-2.312111e+01
1.750337e+02	-2.317118e+01
1.760446e+02	-2.321962e+01
1.770615e+02	-2.327011e+01
1.780842e+02	-2.332274e+01
1.791128e+02	-2.337094e+01
1.801473e+02	-2.342068e+01
1.811878e+02	-2.346952e+01
1.822344e+02	-2.352125e+01
1.832870e+02	-2.357036e+01
1.843456e+02	-2.361995e+01
1.854104e+02	-2.366922e+01
1.864813e+02	-2.371600e+01
1.875584e+02	-2.376948e+01
1.886418e+02	-2.381832e+01
1.897313e+02	-2.386893e+01
1.908272e+02	-2.391847e+01
1.919294e+02	-2.396885e+01
1.930380e+02	-2.401746e+01
1.941530e+02	-2.406658e+01
1.952744e+02	-2.411844e+01
1.964023e+02	-2.416976e+01
1.975367e+02	-2.421583e+01
1.986777e+02	-2.426459e+01
1.998252e+02	-2.431778e+01
2.009794e+02	-2.436772e+01
2.021403e+02	-2.441599e+01
2.033078e+02	-2.446536e+01
2.044821e+02	-2.451770e+01
2.056632e+02	-2.456654e+01
2.068511e+02	-2.461862e+01
2.080459e+02	-2.466678e+01
2.092475e+02	-2.471673e+01
2.104561e+02	-2.476476e+01
2.116717e+02	-2.481248e+01
2.128943e+02	-2.486631e+01
2.141240e+02	-2.491713e+01
2.153608e+02	-2.496463e+01
2.166047e+02	-2.501708e+01
2.178558e+02	-2.506688e+01
2.191141e+02	-2.511583e+01
2.203797e+02	-2.516632e+01
2.216526e+02	-2.521812e+01
2.229329e+02	-2.526525e+01
2.242205e+02	-2.531499e+01
2.255156e+02	-2.536454e+01
2.268182e+02	-2.541550e+01
2.281283e+02	-2.546408e+01
2.294459e+02	-2.551695e+01
2.307712e+02	-2.556624e+01
2.321041e+02	-2.561233e+01
2.334447e+02	-2.566511e+01
2.347931e+02	-2.571223e+01
2.361493e+02	-2.576328e+01
2.375133e+02	-2.581421e+01
2.388851e+02	-2.586290e+01
2.402649e+02	-2.591120e+01
2.416527e+02	-2.596312e+01
2.430484e+02	-2.601264e+01
2.444523e+02	-2.606171e+01
2.458642e+02	-2.611461e+01
2.472843e+02	-2.616386e+01
2.487126e+02	-2.621382e+01
2.501492e+02	-2.626135e+01
2.515940e+02	-2.631648e+01
2.530472e+02	-2.636286e+01
2.545088e+02	-2.641333e+01
2.559789e+02	-2.646609e+01
2.574574e+02	-2.651149e+01
2.589444e+02	-2.656265e+01
2.604401e+02	-2.661367e+01
2.619444e+02	-2.666564e+01
2.634574e+02	-2.671365e+01
2.649791e+02	-2.676607e+01
2.665096e+02	-2.681248e+01
2.680489e+02	-2.686253e+01
2.695972e+02	-2.691512e+01
2.711544e+02	-2.696448e+01
2.727205e+02	-2.701688e+01
2.742958e+02	-2.706301e+01
2.758801e+02	-2.711389e+01
2.774736e+02	-2.716194e+01
2.790762e+02	-2.721163e+01
2.806882e+02	-2.726228e+01
2.823094e+02	-2.731519e+01
2.839400e+02	-2.736287e+01
2.855800e+02	-2.741462e+01
2.872295e+02	-2.746395e+01
2.888886e+02	-2.751066e+01
2.905572e+02	-2.756401e+01
2.922354e+02	-2.761348e+01
2.939234e+02	-2.766508e+01
2.956211e+02	-2.771063e+01
2.973286e+02	-2.776294e+01
2.990459e+02	-2.781831e+01
3.007732e+02	-2.786379e+01
3.025104e+02	-2.791656e+01
3.042577e+02	-2.796752e+01
3.060151e+02	-2.801482e+01
3.077826e+02	-2.805982e+01
3.095604e+02	-2.811468e+01
3.113484e+02	-2.816405e+01
3.131467e+02	-2.821147e+01
3.149554e+02	-2.826015e+01
3.167746e+02	-2.831571e+01
3.186043e+02	-2.836206e+01
3.204445e+02	-2.841372e+01
3.222954e+02	-2.846465e+01
3.241570e+02	-2.851328e+01
3.260293e+02	-2.856950e+01
3.279124e+02	-2.861522e+01
3.298064e+02	-2.866165e+01
3.317114e+02	-2.871343e+01
3.336273e+02	-2.876606e+01
3.355544e+02	-2.881763e+01
3.374925e+02	-2.887031e+01
3.394418e+02	-2.891178e+01
3.414024e+02	-2.896581e+01
3.433744e+02	-2.901786e+01
3.453577e+02	-2.906269e+01
3.473525e+02	-2.911100e+01
3.493588e+02	-2.916510e+01
3.513766e+02	-2.921319e+01
3.534062e+02	-2.926360e+01
3.554474e+02	-2.931402e+01
3.575005e+02	-2.937094e+01
3.595654e+02	-2.941877e+01
3.616422e+02	-2.946239e+01
3.637311e+02	-2.951370e+01
3.658320e+02	-2.956312e+01
3.679450e+02	-2.961762e+01
3.700702e+02	-2.966813e+01
3.722077e+02	-2.971213e+01
3.743576e+02	-2.976079e+01
3.765199e+02	-2.981877e+01
3.786946e+02	-2.986364e+01
3.808820e+02	-2.991543e+01
3.830819e+02	-2.996540e+01
3.852946e+02	-3.001574e+01
3.875200e+02	-3.006526e+01
3.897583e+02	-3.011566e+01
3.920096e+02	-3.016665e+01
3.942738e+02	-3.021560e+01
3.965511e+02	-3.026501e+01
3.988416e+02	-3.031390e+01
4.011452e+02	-3.036630e+01
4.034622e+02	-3.042032e+01
4.057926e+02	-3.046583e+01
4.081365e+02	-3.051647e+01
4.104938e+02	-3.056600e+01
4.128648e+02	-3.062330e+01
4.152495e+02	-3.067214e+01
4.176480e+02	-3.072025e+01
4.200603e+02	-3.076302e+01
4.224866e+02	-3.081611e+01
4.249268e+02	-3.086942e+01
4.273812e+02	-3.091137e+01
4.298497e+02	-3.097267e+01
4.323325e+02	-3.101600e+01
4.348297e+02	-3.107363e+01
4.373412e+02	-3.111752e+01
4.398673e+02	-3.116642e+01
4.424079e+02	-3.121678e+01
4.449633e+02	-3.126745e+01
4.475334e+02	-3.131244e+01
4.501183e+02	-3.136757e+01
4.527182e+02	-3.142062e+01
4.553330e+02	-3.146601e+01
4.579630e+02	-3.151758e+01
4.606082e+02	-3.157344e+01
4.632687e+02	-3.161684e+01
4.659445e+02	-3.166567e+01
4.686358e+02	-3.172103e+01
4.713426e+02	-3.176659e+01
4.740650e+02	-3.182315e+01
4.768032e+02	-3.186731e+01
4.795572e+02	-3.191986e+01
4.823271e+02	-3.197283e+01
4.851130e+02	-3.201888e+01
4.879150e+02	-3.206692e+01
4.907332e+02	-3.212075e+01
4.935676e+02	-3.216854e+01
4.964185e+02	-3.222084e+01
4.992858e+02	-3.227333e+01
5.021696e+02	-3.231782e+01
5.050701e+02	-3.237577e+01
5.079874e+02	-3.242310e+01
5.109215e+02	-3.247351e+01
5.138726e+02	-3.252602e+01
5.168407e+02	-3.257142e+01
5.198259e+02	-3.261856e+01
5.228284e+02	-3.267253e+01
5.258482e+02	-3.272936e+01
5.288855e+02	-3.277151e+01
5.319403e+02	-3.282650e+01
5.350128e+02	-3.286683e+01
5.381030e+02	-3.292586e+01
5.412111e+02	-3.297311e+01
5.443371e+02	-3.302673e+01
5.474812e+02	-3.308266e+01
5.506434e+02	-3.312285e+01
5.538239e+02	-3.317458e+01
5.570228e+02	-3.322795e+01
5.602401e+02	-3.327426e+01
5.634760e+02	-3.332254e+01
5.667306e+02	-3.337766e+01
5.700040e+02	-3.342666e+01
5.732964e+02	-3.347755e+01
5.766077e+02	-3.352463e+01
5.799382e+02	-3.357988e+01
5.832879e+02	-3.362381e+01
5.866569e+02	-3.367862e+01
5.900454e+02	-3.373568e+01
5.934535e+02	-3.377889e+01
5.968813e+02	-3.382860e+01
6.003288e+02	-3.388086e+01
6.037963e+02	-3.392983e+01
6.072838e+02	-3.398590e+01
6.107914e+02	-3.402982e+01
6.143194e+02	-3.408641e+01
6.178676e+02	-3.412667e+01
6.214364e+02	-3.418176e+01
6.250258e+02	-3.423628e+01
6.286359e+02	-3.429189e+01
6.322669e+02	-3.432918e+01
6.359189e+02	-3.437845e+01
6.395919e+02	-3.442204e+01
6.432862e+02	-3.449212e+01
6.470017e+02	-3.453623e+01
6.507388e+02	-3.458678e+01
6.544974e+02	-3.462847e+01
6.582778e+02	-3.468704e+01
6.620800e+02	-3.474375e+01
6.659041e+02	-3.477633e+01
6.697504e+02	-3.483930e+01
6.736188e+02	-3.488939e+01
6.775096e+02	-3.494177e+01
6.814229e+02	-3.498583e+01
6.853587e+02	-3.503440e+01
6.893173e+02	-3.508687e+01
6.932988e+02	-3.513261e+01
6.973033e+02	-3.519339e+01
7.013309e+02	-3.523220e+01
