Frequency(Hz)	Magnitude(dB)
1.000000e+01	-2.232267e+00
1.005776e+01	-2.252345e+00
1.011585e+01	-2.272755e+00
1.017428e+01	-2.292945e+00
1.023305e+01	-2.313535e+00
1.029215e+01	-2.334297e+00
1.035160e+01	-2.355286e+00
1.041139e+01	-2.376202e+00
1.047153e+01	-2.397485e+00
1.053201e+01	-2.418682e+00
1.059284e+01	-2.440066e+00
1.065403e+01	-2.461630e+00
1.071556e+01	-2.483387e+00
1.077746e+01	-2.505303e+00
1.083971e+01	-2.527167e+00
1.090232e+01	-2.549660e+00
1.096529e+01	-2.571918e+00
1.102862e+01	-2.594305e+00
1.109232e+01	-2.616597e+00
1.115639e+01	-2.639439e+00
1.122083e+01	-2.662512e+00
1.128564e+01	-2.685333e+00
1.135083e+01	-2.708615e+00
1.141639e+01	-2.731590e+00
1.148233e+01	-2.755069e+00
1.154865e+01	-2.778626e+00
1.161536e+01	-2.802634e+00
1.168245e+01	-2.826440e+00
1.174992e+01	-2.850311e+00
1.181779e+01	-2.874245e+00
1.188605e+01	-2.898757e+00
1.195470e+01	-2.923313e+00
1.202375e+01	-2.947606e+00
1.209320e+01	-2.972401e+00
1.216305e+01	-2.997560e+00
1.223330e+01	-3.022447e+00
1.230396e+01	-3.047545e+00
1.237503e+01	-3.072653e+00
1.244651e+01	-3.098299e+00
1.251840e+01	-3.123797e+00
1.259070e+01	-3.149613e+00
1.266343e+01	-3.175451e+00
1.273657e+01	-3.201285e+00
1.281014e+01	-3.227761e+00
1.288413e+01	-3.254007e+00
1.295855e+01	-3.280574e+00
1.303339e+01	-3.307023e+00
1.310867e+01	-3.333534e+00
1.318439e+01	-3.360510e+00
1.326054e+01	-3.387607e+00
1.333713e+01	-3.414688e+00
1.341417e+01	-3.442021e+00
1.349165e+01	-3.469592e+00
1.356958e+01	-3.496948e+00
1.364795e+01	-3.525135e+00
1.372678e+01	-3.552834e+00
1.380607e+01	-3.580732e+00
1.388581e+01	-3.608764e+00
1.396602e+01	-3.637241e+00
1.404668e+01	-3.665596e+00
1.412782e+01	-3.694167e+00
1.420942e+01	-3.723114e+00
1.429149e+01	-3.751565e+00
1.437404e+01	-3.780941e+00
1.445706e+01	-3.809993e+00
1.454057e+01	-3.839231e+00
1.462455e+01	-3.868835e+00
1.470902e+01	-3.898323e+00
1.479398e+01	-3.928173e+00
1.487943e+01	-3.957983e+00
1.496537e+01	-3.987858e+00
1.505181e+01	-4.017807e+00
1.513875e+01	-4.048185e+00
1.522619e+01	-4.078648e+00
1.531414e+01	-4.109047e+00
1.540259e+01	-4.139694e+00
1.549156e+01	-4.170739e+00
1.558103e+01	-4.201592e+00
1.567103e+01	-4.232607e+00
1.576155e+01	-4.263745e+00
1.585258e+01	-4.295317e+00
1.594415e+01	-4.327073e+00
1.603624e+01	-4.358687e+00
1.612886e+01	-4.390218e+00
1.622202e+01	-4.421669e+00
1.631572e+01	-4.454064e+00
1.640996e+01	-4.485883e+00
1.650474e+01	-4.518598e+00
1.660008e+01	-4.551018e+00
1.669596e+01	-4.583316e+00
1.679239e+01	-4.616125e+00
1.688938e+01	-4.648779e+00
1.698694e+01	-4.681609e+00
1.708505e+01	-4.714894e+00
1.718373e+01	-4.748276e+00
1.728299e+01	-4.781234e+00
1.738281e+01	-4.814951e+00
1.748322e+01	-4.848411e+00
1.758420e+01	-4.882222e+00
1.768576e+01	-4.916076e+00
1.778792e+01	-4.949844e+00
1.789066e+01	-4.984051e+00
1.799399e+01	-5.018313e+00
1.809793e+01	-5.052479e+00
1.820246e+01	-5.087173e+00
1.830760e+01	-5.121409e+00
1.841334e+01	-5.156433e+00
1.851969e+01	-5.190860e+00
1.862666e+01	-5.225844e+00
1.873425e+01	-5.261221e+00
1.884246e+01	-5.296577e+00
1.895129e+01	-5.331490e+00
1.906075e+01	-5.366829e+00
1.917085e+01	-5.402680e+00
1.928158e+01	-5.438469e+00
1.939295e+01	-5.474066e+00
1.950496e+01	-5.510246e+00
1.961762e+01	-5.546068e+00
1.973093e+01	-5.582119e+00
1.984490e+01	-5.617953e+00
1.995952e+01	-5.654692e+00
2.007480e+01	-5.691410e+00
2.019076e+01	-5.727903e+00
2.030738e+01	-5.764022e+00
2.042467e+01	-5.801311e+00
2.054264e+01	-5.838156e+00
2.066130e+01	-5.875248e+00
2.078064e+01	-5.912245e+00
2.090066e+01	-5.949819e+00
2.102139e+01	-5.986987e+00
2.114280e+01	-6.024717e+00
2.126492e+01	-6.062539e+00
2.138775e+01	-6.099541e+00
2.151128e+01	-6.137931e+00
2.163553e+01	-6.175451e+00
2.176050e+01	-6.213574e+00
2.188619e+01	-6.251706e+00
2.201260e+01	-6.290079e+00
2.213974e+01	-6.328223e+00
2.226762e+01	-6.366710e+00
2.239624e+01	-6.404944e+00
2.252560e+01	-6.443568e+00
2.265571e+01	-6.482704e+00
2.278656e+01	-6.521222e+00
2.291818e+01	-6.560215e+00
2.305055e+01	-6.599255e+00
2.318369e+01	-6.638501e+00
2.331760e+01	-6.677763e+00
2.345228e+01	-6.716726e+00
2.358774e+01	-6.756204e+00
2.372398e+01	-6.795777e+00
2.386101e+01	-6.835445e+00
2.399883e+01	-6.875188e+00
2.413745e+01	-6.914870e+00
2.427686e+01	-6.954659e+00
2.441709e+01	-6.995175e+00
2.455812e+01	-7.035185e+00
2.469997e+01	-7.075150e+00
2.484263e+01	-7.115672e+00
2.498612e+01	-7.156098e+00
2.513044e+01	-7.196177e+00
2.527559e+01	-7.236496e+00
2.542158e+01	-7.276941e+00
2.556842e+01	-7.318008e+00
2.571610e+01	-7.358841e+00
2.586463e+01	-7.399602e+00
2.601403e+01	-7.440588e+00
2.616428e+01	-7.481922e+00
2.631541e+01	-7.523026e+00
2.646740e+01	-7.564223e+00
2.662028e+01	-7.605633e+00
2.677404e+01	-7.646840e+00
2.692868e+01	-7.688474e+00
2.708422e+01	-7.730079e+00
2.724066e+01	-7.771060e+00
2.739800e+01	-7.813267e+00
2.755625e+01	-7.855350e+00
2.771541e+01	-7.896488e+00
2.787550e+01	-7.938527e+00
2.803650e+01	-7.980800e+00
2.819844e+01	-8.022970e+00
2.836131e+01	-8.065220e+00
2.852513e+01	-8.107236e+00
2.868989e+01	-8.149266e+00
2.885560e+01	-8.192081e+00
2.902227e+01	-8.234642e+00
2.918990e+01	-8.277144e+00
2.935850e+01	-8.319636e+00
2.952807e+01	-8.362530e+00
2.969863e+01	-8.405008e+00
2.987016e+01	-8.448078e+00
3.004269e+01	-8.491318e+00
3.021622e+01	-8.533522e+00
3.039075e+01	-8.577164e+00
3.056628e+01	-8.620298e+00
3.074283e+01	-8.662965e+00
3.092040e+01	-8.706577e+00
3.109900e+01	-8.749727e+00
3.127862e+01	-8.792952e+00
3.145929e+01	-8.836188e+00
3.164099e+01	-8.880390e+00
3.182375e+01	-8.923172e+00
3.200756e+01	-8.967218e+00
3.219244e+01	-9.010930e+00
3.237838e+01	-9.054637e+00
3.256540e+01	-9.098865e+00
3.275349e+01	-9.142837e+00
3.294268e+01	-9.186587e+00
3.313295e+01	-9.230794e+00
3.332433e+01	-9.275432e+00
3.351681e+01	-9.319177e+00
3.371040e+01	-9.362904e+00
3.390511e+01	-9.407150e+00
3.410094e+01	-9.451600e+00
3.429791e+01	-9.495816e+00
3.449601e+01	-9.540669e+00
3.469526e+01	-9.584995e+00
3.489566e+01	-9.629244e+00
3.509721e+01	-9.673396e+00
3.529993e+01	-9.719113e+00
3.550382e+01	-9.763247e+00
3.570889e+01	-9.808296e+00
3.591515e+01	-9.853323e+00
3.612259e+01	-9.897775e+00
3.633123e+01	-9.942725e+00
3.654108e+01	-9.987631e+00
3.675214e+01	-1.003287e+01
3.696442e+01	-1.007765e+01
3.717792e+01	-1.012250e+01
3.739266e+01	-1.016827e+01
3.760864e+01	-1.021385e+01
3.782587e+01	-1.025865e+01
3.804435e+01	-1.030393e+01
3.826409e+01	-1.034982e+01
3.848510e+01	-1.039476e+01
3.870739e+01	-1.044034e+01
3.893096e+01	-1.048611e+01
3.915583e+01	-1.053177e+01
3.938199e+01	-1.057707e+01
3.960946e+01	-1.062256e+01
3.983824e+01	-1.066821e+01
4.006834e+01	-1.071477e+01
4.029978e+01	-1.075947e+01
4.053255e+01	-1.080603e+01
4.076666e+01	-1.085154e+01
4.100213e+01	-1.089759e+01
4.123896e+01	-1.094432e+01
4.147715e+01	-1.099005e+01
4.171672e+01	-1.103635e+01
4.195767e+01	-1.108205e+01
4.220002e+01	-1.112739e+01
4.244377e+01	-1.117397e+01
4.268892e+01	-1.122033e+01
4.293549e+01	-1.126735e+01
4.318348e+01	-1.131336e+01
4.343291e+01	-1.136017e+01
4.368377e+01	-1.140615e+01
4.393609e+01	-1.145269e+01
4.418986e+01	-1.149828e+01
4.444510e+01	-1.154533e+01
4.470182e+01	-1.159221e+01
4.496001e+01	-1.163870e+01
4.521970e+01	-1.168516e+01
4.548089e+01	-1.173160e+01
4.574358e+01	-1.177868e+01
4.600779e+01	-1.182477e+01
4.627353e+01	-1.187203e+01
4.654081e+01	-1.191920e+01
4.680963e+01	-1.196532e+01
4.708000e+01	-1.201230e+01
4.735193e+01	-1.205924e+01
4.762543e+01	-1.210609e+01
4.790051e+01	-1.215326e+01
4.817719e+01	-1.220027e+01
4.845545e+01	-1.224701e+01
4.873533e+01	-1.229426e+01
4.901682e+01	-1.234166e+01
4.929994e+01	-1.238810e+01
4.958470e+01	-1.243567e+01
4.987110e+01	-1.248272e+01
5.015915e+01	-1.253000e+01
5.044887e+01	-1.257679e+01
5.074026e+01	-1.262443e+01
5.103333e+01	-1.267176e+01
5.132810e+01	-1.271937e+01
5.162457e+01	-1.276628e+01
5.192275e+01	-1.281382e+01
5.222265e+01	-1.286113e+01
5.252429e+01	-1.290867e+01
5.282767e+01	-1.295691e+01
5.313280e+01	-1.300440e+01
5.343969e+01	-1.305208e+01
5.374836e+01	-1.309903e+01
5.405880e+01	-1.314613e+01
5.437105e+01	-1.319408e+01
5.468509e+01	-1.324220e+01
5.500095e+01	-1.328950e+01
5.531863e+01	-1.333679e+01
5.563815e+01	-1.338395e+01
5.595951e+01	-1.343208e+01
5.628273e+01	-1.348104e+01
5.660782e+01	-1.352782e+01
5.693479e+01	-1.357528e+01
5.726364e+01	-1.362392e+01
5.759439e+01	-1.367197e+01
5.792705e+01	-1.371954e+01
5.826164e+01	-1.376801e+01
5.859815e+01	-1.381535e+01
5.893662e+01	-1.386314e+01
5.927703e+01	-1.391223e+01
5.961941e+01	-1.395951e+01
5.996377e+01	-1.400735e+01
6.031012e+01	-1.405479e+01
6.065847e+01	-1.410396e+01
6.100883e+01	-1.415180e+01
6.136121e+01	-1.419892e+01
6.171563e+01	-1.424804e+01
6.207210e+01	-1.429651e+01
6.243063e+01	-1.434394e+01
6.279122e+01	-1.439212e+01
6.315390e+01	-1.444049e+01
6.351868e+01	-1.448930e+01
6.388556e+01	-1.453703e+01
6.425456e+01	-1.458481e+01
6.462569e+01	-1.463391e+01
6.499897e+01	-1.468239e+01
6.537440e+01	-1.472968e+01
6.575200e+01	-1.477826e+01
6.613178e+01	-1.482702e+01
6.651375e+01	-1.487649e+01
6.689793e+01	-1.492393e+01
6.728433e+01	-1.497170e+01
6.767297e+01	-1.502108e+01
6.806384e+01	-1.506998e+01
6.845698e+01	-1.511638e+01
6.885238e+01	-1.516645e+01
6.925007e+01	-1.521429e+01
6.965005e+01	-1.526278e+01
7.005235e+01	-1.531153e+01
7.045697e+01	-1.535978e+01
7.086393e+01	-1.540883e+01
7.127323e+01	-1.545705e+01
7.168490e+01	-1.550547e+01
7.209895e+01	-1.555456e+01
7.251539e+01	-1.560350e+01
7.293424e+01	-1.565185e+01
7.335551e+01	-1.570043e+01
7.377920e+01	-1.574933e+01
7.420535e+01	-1.579846e+01
7.463396e+01	-1.584765e+01
7.506504e+01	-1.589511e+01
7.549861e+01	-1.594424e+01
7.593469e+01	-1.599222e+01
7.637328e+01	-1.604157e+01
7.681441e+01	-1.608975e+01
7.725809e+01	-1.613972e+01
7.770433e+01	-1.618895e+01
7.815315e+01	-1.623569e+01
7.860456e+01	-1.628584e+01
7.905857e+01	-1.633549e+01
7.951521e+01	-1.638352e+01
7.997449e+01	-1.643225e+01
8.043642e+01	-1.648278e+01
8.090102e+01	-1.653058e+01
8.136830e+01	-1.658014e+01
8.183828e+01	-1.662825e+01
8.231097e+01	-1.667710e+01
8.278640e+01	-1.672560e+01
8.326457e+01	-1.677529e+01
8.374550e+01	-1.682375e+01
8.422921e+01	-1.687279e+01
8.471572e+01	-1.692239e+01
8.520503e+01	-1.697086e+01
8.569717e+01	-1.701942e+01
8.619215e+01	-1.706916e+01
8.669000e+01	-1.711766e+01
8.719071e+01	-1.716763e+01
8.769432e+01	-1.721613e+01
8.820084e+01	-1.726611e+01
8.871029e+01	-1.731474e+01
8.922267e+01	-1.736271e+01
8.973802e+01	-1.741309e+01
9.025634e+01	-1.746169e+01
9.077766e+01	-1.751019e+01
9.130199e+01	-1.756081e+01
9.182935e+01	-1.760943e+01
9.235975e+01	-1.765840e+01
9.289321e+01	-1.770809e+01
9.342976e+01	-1.775693e+01
9.396941e+01	-1.780659e+01
9.451217e+01	-1.785453e+01
9.505807e+01	-1.790455e+01
9.560712e+01	-1.795468e+01
9.615934e+01	-1.800239e+01
9.671476e+01	-1.805208e+01
9.727338e+01	-1.810095e+01
9.783522e+01	-1.815076e+01
9.840032e+01	-1.820007e+01
9.896867e+01	-1.825095e+01
9.954031e+01	-1.829825e+01
1.001153e+02	-1.834803e+01
1.006935e+02	-1.839700e+01
1.012751e+02	-1.844656e+01
1.018601e+02	-1.849534e+01
1.024484e+02	-1.854544e+01
1.030402e+02	-1.859388e+01
1.036353e+02	-1.864377e+01
1.042339e+02	-1.869402e+01
1.048360e+02	-1.874216e+01
1.054415e+02	-1.879197e+01
1.060505e+02	-1.884181e+01
1.066631e+02	-1.889075e+01
1.072791e+02	-1.894023e+01
1.078988e+02	-1.898834e+01
1.085220e+02	-1.903969e+01
1.091488e+02	-1.908781e+01
1.097793e+02	-1.913811e+01
1.104133e+02	-1.918651e+01
1.110511e+02	-1.923633e+01
1.116925e+02	-1.928627e+01
1.123376e+02	-1.933649e+01
1.129865e+02	-1.938476e+01
1.136391e+02	-1.943274e+01
1.142955e+02	-1.948453e+01
1.149556e+02	-1.953447e+01
1.156196e+02	-1.958274e+01
1.162874e+02	-1.963314e+01
1.169591e+02	-1.968203e+01
1.176347e+02	-1.973030e+01
1.183141e+02	-1.978115e+01
1.189975e+02	-1.982957e+01
1.196848e+02	-1.987916e+01
1.203761e+02	-1.992907e+01
1.210714e+02	-1.997978e+01
1.217707e+02	-2.002799e+01
1.224740e+02	-2.007821e+01
1.231814e+02	-2.012616e+01
1.238929e+02	-2.017796e+01
1.246085e+02	-2.022717e+01
1.253283e+02	-2.027704e+01
1.260522e+02	-2.032643e+01
1.267802e+02	-2.037363e+01
1.275125e+02	-2.042521e+01
1.282490e+02	-2.047398e+01
1.289898e+02	-2.052352e+01
1.297348e+02	-2.057439e+01
1.304842e+02	-2.062301e+01
1.312378e+02	-2.067261e+01
1.319959e+02	-2.072415e+01
1.327583e+02	-2.077169e+01
1.335251e+02	-2.082187e+01
1.342963e+02	-2.087186e+01
1.350720e+02	-2.092065e+01
1.358522e+02	-2.096919e+01
1.366368e+02	-2.102147e+01
1.374260e+02	-2.107099e+01
1.382198e+02	-2.112006e+01
1.390182e+02	-2.116766e+01
1.398211e+02	-2.121916e+01
1.406287e+02	-2.126894e+01
1.414410e+02	-2.132053e+01
1.422579e+02	-2.136769e+01
1.430796e+02	-2.141746e+01
1.439060e+02	-2.146771e+01
1.447372e+02	-2.151598e+01
1.455732e+02	-2.156761e+01
1.464141e+02	-2.161608e+01
1.472597e+02	-2.166689e+01
1.481103e+02	-2.171381e+01
1.489658e+02	-2.176616e+01
1.498262e+02	-2.181692e+01
1.506916e+02	-2.186573e+01
1.515620e+02	-2.191510e+01
1.524374e+02	-2.196357e+01
1.533179e+02	-2.201430e+01
1.542034e+02	-2.206360e+01
1.550941e+02	-2.211402e+01
1.559899e+02	-2.216216e+01
1.568909e+02	-2.221284e+01
1.577971e+02	-2.226337e+01
1.587085e+02	-2.231260e+01
1.596252e+02	-2.236273e+01
1.605472e+02	-2.241323e+01
1.614745e+02	-2.245987e+01
1.624072e+02	-2.251154e+01
1.633453e+02	-2.255916e+01
1.642887e+02	-2.261159e+01
1.652377e+02	-2.266093e+01
1.661921e+02	-2.271109e+01
1.671520e+02	-2.276321e+01
1.681175e+02	-2.281082e+01
1.690885e+02	-2.286119e+01
1.700651e+02	-2.291258e+01
1.710474e+02	-2.296004e+01
1.720354e+02	-2.300969e+01
1.730291e+02	-2.305771e+01
1.740285e+02	-2.311008e+01
1.750337e+02	-2.315811e+01
1.760446e+02	-2.320956e+01
1.770615e+02	-2.325504e+01
1.780842e+02	-2.330864e+01
1.791128e+02	-2.335792e+01
1.801473e+02	-2.340690e+01
1.811878e+02	-2.345633e+01
1.822344e+02	-2.350755e+01
1.832870e+02	-2.355668e+01
1.843456e+02	-2.360670e+01
1.854104e+02	-2.365781e+01
1.864813e+02	-2.370736e+01
1.875584e+02	-2.375696e+01
1.886418e+02	-2.380702e+01
1.897313e+02	-2.385657e+01
1.908272e+02	-2.390560e+01
1.919294e+02	-2.395584e+01
1.930380e+02	-2.400449e+01
1.941530e+02	-2.405552e+01
1.952744e+02	-2.410542e+01
1.964023e+02	-2.415721e+01
1.975367e+02	-2.420431e+01
1.986777e+02	-2.425603e+01
1.998252e+02	-2.430458e+01
2.009794e+02	-2.435557e+01
2.021403e+02	-2.440513e+01
2.033078e+02	-2.445358e+01
2.044821e+02	-2.450445e+01
2.056632e+02	-2.455432e+01
2.068511e+02	-2.460389e+01
2.080459e+02	-2.465539e+01
2.092475e+02	-2.470429e+01
2.104561e+02	-2.475397e+01
2.116717e+02	-2.480299e+01
2.128943e+02	-2.485432e+01
2.141240e+02	-2.490450e+01
2.153608e+02	-2.495229e+01
2.166047e+02	-2.500241e+01
2.178558e+02	-2.505050e+01
2.191141e+02	-2.510083e+01
2.203797e+02	-2.515385e+01
2.216526e+02	-2.520563e+01
2.229329e+02	-2.525406e+01
2.242205e+02	-2.530379e+01
2.255156e+02	-2.535336e+01
2.268182e+02	-2.540304e+01
2.281283e+02	-2.545533e+01
2.294459e+02	-2.550375e+01
2.307712e+02	-2.554876e+01
2.321041e+02	-2.559942e+01
2.334447e+02	-2.565373e+01
2.347931e+02	-2.570215e+01
2.361493e+02	-2.575456e+01
2.375133e+02	-2.580550e+01
2.388851e+02	-2.584988e+01
2.402649e+02	-2.590097e+01
2.416527e+02	-2.595155e+01
2.430484e+02	-2.600240e+01
2.444523e+02	-2.605274e+01
2.458642e+02	-2.610379e+01
2.472843e+02	-2.614820e+01
2.487126e+02	-2.620098e+01
2.501492e+02	-2.625012e+01
2.515940e+02	-2.630003e+01
2.530472e+02	-2.635064e+01
2.545088e+02	-2.640108e+01
2.559789e+02	-2.645135e+01
2.574574e+02	-2.650073e+01
2.589444e+02	-2.655261e+01
2.604401e+02	-2.660271e+01
2.619444e+02	-2.665225e+01
2.634574e+02	-2.670134e+01
2.649791e+02	-2.674863e+01
2.665096e+02	-2.680362e+01
2.680489e+02	-2.684955e+01
2.695972e+02	-2.690549e+01
2.711544e+02	-2.695097e+01
2.727205e+02	-2.700047e+01
2.742958e+02	-2.705120e+01
2.758801e+02	-2.710284e+01
2.774736e+02	-2.714759e+01
2.790762e+02	-2.720404e+01
2.806882e+02	-2.724900e+01
2.823094e+02	-2.730178e+01
2.839400e+02	-2.735085e+01
2.855800e+02	-2.740405e+01
2.872295e+02	-2.744582e+01
2.888886e+02	-2.750114e+01
2.905572e+02	-2.755212e+01
2.922354e+02	-2.760485e+01
2.939234e+02	-2.765185e+01
2.956211e+02	-2.769993e+01
2.973286e+02	-2.775192e+01
2.990459e+02	-2.780242e+01
3.007732e+02	-2.785111e+01
3.025104e+02	-2.789800e+01
3.042577e+02	-2.795051e+01
3.060151e+02	-2.800040e+01
3.077826e+02	-2.804539e+01
3.095604e+02	-2.810376e+01
3.113484e+02	-2.815152e+01
3.131467e+02	-2.820016e+01
3.149554e+02	-2.825090e+01
3.167746e+02	-2.830350e+01
3.186043e+02	-2.835279e+01
3.204445e+02	-2.840047e+01
3.222954e+02	-2.845546e+01
3.241570e+02	-2.850566e+01
3.260293e+02	-2.854879e+01
3.279124e+02	-2.860251e+01
3.298064e+02	-2.865242e+01
3.317114e+02	-2.870372e+01
3.336273e+02	-2.874892e+01
3.355544e+02	-2.880417e+01
3.374925e+02	-2.885219e+01
3.394418e+02	-2.889954e+01
3.414024e+02	-2.894870e+01
3.433744e+02	-2.900139e+01
3.453577e+02	-2.905027e+01
3.473525e+02	-2.909933e+01
3.493588e+02	-2.915689e+01
3.513766e+02	-2.919990e+01
3.534062e+02	-2.924915e+01
3.554474e+02	-2.930194e+01
3.575005e+02	-2.935227e+01
3.595654e+02	-2.940741e+01
3.616422e+02	-2.945099e+01
3.637311e+02	-2.950705e+01
3.658320e+02	-2.955199e+01
3.679450e+02	-2.959807e+01
3.700702e+02	-2.965111e+01
3.722077e+02	-2.970222e+01
3.743576e+02	-2.975448e+01
3.765199e+02	-2.980514e+01
3.786946e+02	-2.985714e+01
3.808820e+02	-2.990033e+01
3.830819e+02	-2.995435e+01
3.852946e+02	-3.000223e+01
3.875200e+02	-3.005503e+01
3.897583e+02	-3.009835e+01
3.920096e+02	-3.015364e+01
3.942738e+02	-3.019823e+01
3.965511e+02	-3.025101e+01
3.988416e+02	-3.031249e+01
4.011452e+02	-3.035439e+01
4.034622e+02	-3.041300e+01
4.057926e+02	-3.045054e+01
4.081365e+02	-3.050125e+01
4.104938e+02	-3.055750e+01
4.128648e+02	-3.060472e+01
4.152495e+02	-3.065679e+01
4.176480e+02	-3.070219e+01
4.200603e+02	-3.075502e+01
4.224866e+02	-3.080640e+01
4.249268e+02	-3.085465e+01
4.273812e+02	-3.091139e+01
4.298497e+02	-3.095553e+01
4.323325e+02	-3.100351e+01
4.348297e+02	-3.105753e+01
4.373412e+02	-3.110512e+01
4.398673e+02	-3.115790e+01
4.424079e+02	-3.120482e+01
4.449633e+02	-3.125638e+01
4.475334e+02	-3.130639e+01
4.501183e+02	-3.135392e+01
4.527182e+02	-3.140429e+01
4.553330e+02	-3.145144e+01
4.579630e+02	-3.150644e+01
4.606082e+02	-3.155877e+01
4.632687e+02	-3.161165e+01
4.659445e+02	-3.165339e+01
4.686358e+02	-3.170693e+01
4.713426e+02	-3.175999e+01
4.740650e+02	-3.181013e+01
4.768032e+02	-3.185971e+01
4.795572e+02	-3.191001e+01
4.823271e+02	-3.196277e+01
4.851130e+02	-3.201275e+01
4.879150e+02	-3.205487e+01
4.907332e+02	-3.211027e+01
4.935676e+02	-3.215895e+01
4.964185e+02	-3.221055e+01
4.992858e+02	-3.225904e+01
5.021696e+02	-3.231160e+01
5.050701e+02	-3.236102e+01
5.079874e+02	-3.241883e+01
5.109215e+02	-3.245748e+01
5.138726e+02	-3.250642e+01
5.168407e+02	-3.256693e+01
5.198259e+02	-3.261037e+01
5.228284e+02	-3.266284e+01
5.258482e+02	-3.271231e+01
5.288855e+02	-3.275674e+01
5.319403e+02	-3.280794e+01
5.350128e+02	-3.286457e+01
5.381030e+02	-3.291353e+01
5.412111e+02	-3.295624e+01
5.443371e+02	-3.302153e+01
5.474812e+02	-3.305691e+01
5.506434e+02	-3.311002e+01
5.538239e+02	-3.315898e+01
5.570228e+02	-3.321351e+01
5.602401e+02	-3.326621e+01
5.634760e+02	-3.331250e+01
5.667306e+02	-3.336629e+01
5.700040e+02	-3.341444e+01
5.732964e+02	-3.346575e+01
5.766077e+02	-3.351853e+01
5.799382e+02	-3.357064e+01
5.832879e+02	-3.362158e+01
5.866569e+02	-3.367498e+01
5.900454e+02	-3.371291e+01
5.934535e+02	-3.376765e+01
5.968813e+02	-3.381875e+01
6.003288e+02	-3.387076e+01
6.037963e+02	-3.392541e+01
6.072838e+02	-3.396304e+01
6.107914e+02	-3.402124e+01
6.143194e+02	-3.407459e+01
6.178676e+02	-3.412308e+01
6.214364e+02	-3.417958e+01
6.250258e+02	-3.421798e+01
6.286359e+02	-3.427070e+01
6.322669e+02	-3.432375e+01
6.359189e+02	-3.438236e+01
6.395919e+02	-3.441726e+01
6.432862e+02	-3.446981e+01
6.470017e+02	-3.452468e+01
6.507388e+02	-3.456499e+01
6.544974e+02	-3.462383e+01
6.582778e+02	-3.467493e+01
6.620800e+02	-3.473186e+01
6.659041e+02	-3.476437e+01
6.697504e+02	-3.480923e+01
6.736188e+02	-3.487618e+01
6.775096e+02	-3.491634e+01
6.814229e+02	-3.497453e+01
6.853587e+02	-3.501733e+01
6.893173e+02	-3.506776e+01
6.932988e+02	-3.511778e+01
6.973033e+02	-3.517396e+01
7.013309e+02	-3.521933e+01
