Frequency(Hz)	Magnitude(dB)
1.000000e+01	-1.883548e+00
1.005776e+01	-1.901188e+00
1.011585e+01	-1.918996e+00
1.017428e+01	-1.936812e+00
1.023305e+01	-1.954905e+00
1.029215e+01	-1.973029e+00
1.035160e+01	-1.991599e+00
1.041139e+01	-2.010054e+00
1.047153e+01	-2.028499e+00
1.053201e+01	-2.047338e+00
1.059284e+01	-2.066281e+00
1.065403e+01	-2.085239e+00
1.071556e+01	-2.104275e+00
1.077746e+01	-2.123444e+00
1.083971e+01	-2.143034e+00
1.090232e+01	-2.162445e+00
1.096529e+01	-2.182324e+00
1.102862e+01	-2.202172e+00
1.109232e+01	-2.221903e+00
1.115639e+01	-2.242100e+00
1.122083e+01	-2.262230e+00
1.128564e+01	-2.282953e+00
1.135083e+01	-2.303356e+00
1.141639e+01	-2.323933e+00
1.148233e+01	-2.344822e+00
1.154865e+01	-2.365693e+00
1.161536e+01	-2.386701e+00
1.168245e+01	-2.408151e+00
1.174992e+01	-2.429463e+00
1.181779e+01	-2.450856e+00
1.188605e+01	-2.472376e+00
1.195470e+01	-2.494291e+00
1.202375e+01	-2.516311e+00
1.209320e+01	-2.538475e+00
1.216305e+01	-2.560816e+00
1.223330e+01	-2.582859e+00
1.230396e+01	-2.605630e+00
1.237503e+01	-2.627870e+00
1.244651e+01	-2.650573e+00
1.251840e+01	-2.673853e+00
1.259070e+01	-2.696759e+00
1.266343e+01	-2.719961e+00
1.273657e+01	-2.743355e+00
1.281014e+01	-2.766794e+00
1.288413e+01	-2.790433e+00
1.295855e+01	-2.814164e+00
1.303339e+01	-2.838231e+00
1.310867e+01	-2.862311e+00
1.318439e+01	-2.886443e+00
1.326054e+01	-2.910809e+00
1.333713e+01	-2.935512e+00
1.341417e+01	-2.960216e+00
1.349165e+01	-2.984735e+00
1.356958e+01	-3.009599e+00
1.364795e+01	-3.035044e+00
1.372678e+01	-3.060059e+00
1.380607e+01	-3.085438e+00
1.388581e+01	-3.111016e+00
1.396602e+01	-3.136429e+00
1.404668e+01	-3.162262e+00
1.412782e+01	-3.188578e+00
1.420942e+01	-3.214435e+00
1.429149e+01	-3.240762e+00
1.437404e+01	-3.267036e+00
1.445706e+01	-3.293828e+00
1.454057e+01	-3.320248e+00
1.462455e+01	-3.346603e+00
1.470902e+01	-3.373854e+00
1.479398e+01	-3.401028e+00
1.487943e+01	-3.428255e+00
1.496537e+01	-3.455516e+00
1.505181e+01	-3.483299e+00
1.513875e+01	-3.511020e+00
1.522619e+01	-3.538781e+00
1.531414e+01	-3.566642e+00
1.540259e+01	-3.594857e+00
1.549156e+01	-3.623069e+00
1.558103e+01	-3.651387e+00
1.567103e+01	-3.679658e+00
1.576155e+01	-3.708725e+00
1.585258e+01	-3.737137e+00
1.594415e+01	-3.766354e+00
1.603624e+01	-3.795354e+00
1.612886e+01	-3.824465e+00
1.622202e+01	-3.853998e+00
1.631572e+01	-3.883357e+00
1.640996e+01	-3.913147e+00
1.650474e+01	-3.942877e+00
1.660008e+01	-3.972793e+00
1.669596e+01	-4.002814e+00
1.679239e+01	-4.033304e+00
1.688938e+01	-4.063531e+00
1.698694e+01	-4.093596e+00
1.708505e+01	-4.124588e+00
1.718373e+01	-4.154882e+00
1.728299e+01	-4.185887e+00
1.738281e+01	-4.216926e+00
1.748322e+01	-4.248078e+00
1.758420e+01	-4.279321e+00
1.768576e+01	-4.310859e+00
1.778792e+01	-4.342512e+00
1.789066e+01	-4.374133e+00
1.799399e+01	-4.405922e+00
1.809793e+01	-4.437724e+00
1.820246e+01	-4.470077e+00
1.830760e+01	-4.502026e+00
1.841334e+01	-4.534518e+00
1.851969e+01	-4.566927e+00
1.862666e+01	-4.599647e+00
1.873425e+01	-4.632491e+00
1.884246e+01	-4.665055e+00
1.895129e+01	-4.698068e+00
1.906075e+01	-4.731191e+00
1.917085e+01	-4.764488e+00
1.928158e+01	-4.798210e+00
1.939295e+01	-4.831514e+00
1.950496e+01	-4.865076e+00
1.961762e+01	-4.898803e+00
1.973093e+01	-4.932756e+00
1.984490e+01	-4.966550e+00
1.995952e+01	-5.001003e+00
2.007480e+01	-5.035212e+00
2.019076e+01	-5.069471e+00
2.030738e+01	-5.104161e+00
2.042467e+01	-5.138785e+00
2.054264e+01	-5.173620e+00
2.066130e+01	-5.208363e+00
2.078064e+01	-5.243458e+00
2.090066e+01	-5.278414e+00
2.102139e+01	-5.313841e+00
2.114280e+01	-5.349156e+00
2.126492e+01	-5.384727e+00
2.138775e+01	-5.420758e+00
2.151128e+01	-5.456010e+00
2.163553e+01	-5.491904e+00
2.176050e+01	-5.527577e+00
2.188619e+01	-5.564070e+00
2.201260e+01	-5.600133e+00
2.213974e+01	-5.636220e+00
2.226762e+01	-5.672807e+00
2.239624e+01	-5.709076e+00
2.252560e+01	-5.746088e+00
2.265571e+01	-5.782637e+00
2.278656e+01	-5.819942e+00
2.291818e+01	-5.856925e+00
2.305055e+01	-5.893749e+00
2.318369e+01	-5.930798e+00
2.331760e+01	-5.967771e+00
2.345228e+01	-6.005918e+00
2.358774e+01	-6.043320e+00
2.372398e+01	-6.080698e+00
2.386101e+01	-6.118859e+00
2.399883e+01	-6.156485e+00
2.413745e+01	-6.194490e+00
2.427686e+01	-6.232592e+00
2.441709e+01	-6.270444e+00
2.455812e+01	-6.308863e+00
2.469997e+01	-6.347381e+00
2.484263e+01	-6.385770e+00
2.498612e+01	-6.424148e+00
2.513044e+01	-6.462896e+00
2.527559e+01	-6.501620e+00
2.542158e+01	-6.540776e+00
2.556842e+01	-6.579701e+00
2.571610e+01	-6.618763e+00
2.586463e+01	-6.658087e+00
2.601403e+01	-6.696976e+00
2.616428e+01	-6.736357e+00
2.631541e+01	-6.775803e+00
2.646740e+01	-6.815201e+00
2.662028e+01	-6.855195e+00
2.677404e+01	-6.894859e+00
2.692868e+01	-6.934872e+00
2.708422e+01	-6.974943e+00
2.724066e+01	-7.014530e+00
2.739800e+01	-7.054807e+00
2.755625e+01	-7.094924e+00
2.771541e+01	-7.135495e+00
2.787550e+01	-7.175889e+00
2.803650e+01	-7.216725e+00
2.819844e+01	-7.256864e+00
2.836131e+01	-7.297744e+00
2.852513e+01	-7.338404e+00
2.868989e+01	-7.379107e+00
2.885560e+01	-7.420272e+00
2.902227e+01	-7.461070e+00
2.918990e+01	-7.502398e+00
2.935850e+01	-7.543297e+00
2.952807e+01	-7.584380e+00
2.969863e+01	-7.626023e+00
2.987016e+01	-7.667499e+00
3.004269e+01	-7.708834e+00
3.021622e+01	-7.750526e+00
3.039075e+01	-7.792448e+00
3.056628e+01	-7.833623e+00
3.074283e+01	-7.875790e+00
3.092040e+01	-7.917432e+00
3.109900e+01	-7.959983e+00
3.127862e+01	-8.001902e+00
3.145929e+01	-8.043821e+00
3.164099e+01	-8.085696e+00
3.182375e+01	-8.128047e+00
3.200756e+01	-8.170801e+00
3.219244e+01	-8.213198e+00
3.237838e+01	-8.255847e+00
3.256540e+01	-8.297975e+00
3.275349e+01	-8.341177e+00
3.294268e+01	-8.383339e+00
3.313295e+01	-8.426467e+00
3.332433e+01	-8.469181e+00
3.351681e+01	-8.512514e+00
3.371040e+01	-8.555371e+00
3.390511e+01	-8.598078e+00
3.410094e+01	-8.641563e+00
3.429791e+01	-8.684964e+00
3.449601e+01	-8.728059e+00
3.469526e+01	-8.772059e+00
3.489566e+01	-8.814997e+00
3.509721e+01	-8.858128e+00
3.529993e+01	-8.901893e+00
3.550382e+01	-8.944778e+00
3.570889e+01	-8.989256e+00
3.591515e+01	-9.032491e+00
3.612259e+01	-9.076393e+00
3.633123e+01	-9.120583e+00
3.654108e+01	-9.164400e+00
3.675214e+01	-9.208744e+00
3.696442e+01	-9.252080e+00
3.717792e+01	-9.296778e+00
3.739266e+01	-9.340801e+00
3.760864e+01	-9.384694e+00
3.782587e+01	-9.429405e+00
3.804435e+01	-9.473311e+00
3.826409e+01	-9.517851e+00
3.848510e+01	-9.562669e+00
3.870739e+01	-9.606772e+00
3.893096e+01	-9.651556e+00
3.915583e+01	-9.696378e+00
3.938199e+01	-9.741113e+00
3.960946e+01	-9.785431e+00
3.983824e+01	-9.830889e+00
4.006834e+01	-9.874931e+00
4.029978e+01	-9.919954e+00
4.053255e+01	-9.965178e+00
4.076666e+01	-1.001050e+01
4.100213e+01	-1.005513e+01
4.123896e+01	-1.010048e+01
4.147715e+01	-1.014554e+01
4.171672e+01	-1.019055e+01
4.195767e+01	-1.023605e+01
4.220002e+01	-1.028133e+01
4.244377e+01	-1.032655e+01
4.268892e+01	-1.037192e+01
4.293549e+01	-1.041782e+01
4.318348e+01	-1.046333e+01
4.343291e+01	-1.050862e+01
4.368377e+01	-1.055409e+01
4.393609e+01	-1.059976e+01
4.418986e+01	-1.064518e+01
4.444510e+01	-1.069130e+01
4.470182e+01	-1.073689e+01
4.496001e+01	-1.078302e+01
4.521970e+01	-1.082873e+01
4.548089e+01	-1.087428e+01
4.574358e+01	-1.092060e+01
4.600779e+01	-1.096672e+01
4.627353e+01	-1.101266e+01
4.654081e+01	-1.105897e+01
4.680963e+01	-1.110497e+01
4.708000e+01	-1.115146e+01
4.735193e+01	-1.119723e+01
4.762543e+01	-1.124337e+01
4.790051e+01	-1.129034e+01
4.817719e+01	-1.133578e+01
4.845545e+01	-1.138250e+01
4.873533e+01	-1.142885e+01
4.901682e+01	-1.147519e+01
4.929994e+01	-1.152207e+01
4.958470e+01	-1.156897e+01
4.987110e+01	-1.161544e+01
5.015915e+01	-1.166169e+01
5.044887e+01	-1.170778e+01
5.074026e+01	-1.175477e+01
5.103333e+01	-1.180151e+01
5.132810e+01	-1.184778e+01
5.162457e+01	-1.189488e+01
5.192275e+01	-1.194187e+01
5.222265e+01	-1.198827e+01
5.252429e+01	-1.203531e+01
5.282767e+01	-1.208230e+01
5.313280e+01	-1.212926e+01
5.343969e+01	-1.217562e+01
5.374836e+01	-1.222377e+01
5.405880e+01	-1.227057e+01
5.437105e+01	-1.231719e+01
5.468509e+01	-1.236420e+01
5.500095e+01	-1.241199e+01
5.531863e+01	-1.245852e+01
5.563815e+01	-1.250604e+01
5.595951e+01	-1.255333e+01
5.628273e+01	-1.260124e+01
5.660782e+01	-1.264797e+01
5.693479e+01	-1.269533e+01
5.726364e+01	-1.274281e+01
5.759439e+01	-1.279015e+01
5.792705e+01	-1.283751e+01
5.826164e+01	-1.288494e+01
5.859815e+01	-1.293286e+01
5.893662e+01	-1.298094e+01
5.927703e+01	-1.302727e+01
5.961941e+01	-1.307501e+01
5.996377e+01	-1.312179e+01
6.031012e+01	-1.317000e+01
6.065847e+01	-1.321726e+01
6.100883e+01	-1.326554e+01
6.136121e+01	-1.331401e+01
6.171563e+01	-1.336129e+01
6.207210e+01	-1.340838e+01
6.243063e+01	-1.345628e+01
6.279122e+01	-1.350388e+01
6.315390e+01	-1.355195e+01
6.351868e+01	-1.359971e+01
6.388556e+01	-1.364781e+01
6.425456e+01	-1.369495e+01
6.462569e+01	-1.374318e+01
6.499897e+01	-1.379152e+01
6.537440e+01	-1.383899e+01
6.575200e+01	-1.388712e+01
6.613178e+01	-1.393417e+01
6.651375e+01	-1.398247e+01
6.689793e+01	-1.403094e+01
6.728433e+01	-1.407966e+01
6.767297e+01	-1.412742e+01
6.806384e+01	-1.417599e+01
6.845698e+01	-1.422341e+01
6.885238e+01	-1.427205e+01
6.925007e+01	-1.431990e+01
6.965005e+01	-1.436921e+01
7.005235e+01	-1.441633e+01
7.045697e+01	-1.446425e+01
7.086393e+01	-1.451343e+01
7.127323e+01	-1.456079e+01
7.168490e+01	-1.460910e+01
7.209895e+01	-1.465705e+01
7.251539e+01	-1.470683e+01
7.293424e+01	-1.475486e+01
7.335551e+01	-1.480278e+01
7.377920e+01	-1.485112e+01
7.420535e+01	-1.489963e+01
7.463396e+01	-1.494821e+01
7.506504e+01	-1.499690e+01
7.549861e+01	-1.504568e+01
7.593469e+01	-1.509293e+01
7.637328e+01	-1.514123e+01
7.681441e+01	-1.519045e+01
7.725809e+01	-1.523877e+01
7.770433e+01	-1.528762e+01
7.815315e+01	-1.533575e+01
7.860456e+01	-1.538496e+01
7.905857e+01	-1.543283e+01
7.951521e+01	-1.548194e+01
7.997449e+01	-1.553065e+01
8.043642e+01	-1.557878e+01
8.090102e+01	-1.562761e+01
8.136830e+01	-1.567635e+01
8.183828e+01	-1.572473e+01
8.231097e+01	-1.577314e+01
8.278640e+01	-1.582269e+01
8.326457e+01	-1.587183e+01
8.374550e+01	-1.592017e+01
8.422921e+01	-1.596811e+01
8.471572e+01	-1.601750e+01
8.520503e+01	-1.606602e+01
8.569717e+01	-1.611562e+01
8.619215e+01	-1.616361e+01
8.669000e+01	-1.621251e+01
8.719071e+01	-1.626184e+01
8.769432e+01	-1.630981e+01
8.820084e+01	-1.635893e+01
8.871029e+01	-1.640790e+01
8.922267e+01	-1.645742e+01
8.973802e+01	-1.650645e+01
9.025634e+01	-1.655474e+01
9.077766e+01	-1.660307e+01
9.130199e+01	-1.665300e+01
9.182935e+01	-1.670376e+01
9.235975e+01	-1.675065e+01
9.289321e+01	-1.679890e+01
9.342976e+01	-1.684803e+01
9.396941e+01	-1.689746e+01
9.451217e+01	-1.694630e+01
9.505807e+01	-1.699473e+01
9.560712e+01	-1.704437e+01
9.615934e+01	-1.709248e+01
9.671476e+01	-1.714340e+01
9.727338e+01	-1.719175e+01
9.783522e+01	-1.724103e+01
9.840032e+01	-1.729043e+01
9.896867e+01	-1.733818e+01
9.954031e+01	-1.738819e+01
1.001153e+02	-1.743719e+01
1.006935e+02	-1.748577e+01
1.012751e+02	-1.753583e+01
1.018601e+02	-1.758464e+01
1.024484e+02	-1.763361e+01
1.030402e+02	-1.768229e+01
1.036353e+02	-1.773300e+01
1.042339e+02	-1.778049e+01
1.048360e+02	-1.783114e+01
1.054415e+02	-1.787948e+01
1.060505e+02	-1.792809e+01
1.066631e+02	-1.797757e+01
1.072791e+02	-1.802709e+01
1.078988e+02	-1.807681e+01
1.085220e+02	-1.812466e+01
1.091488e+02	-1.817475e+01
1.097793e+02	-1.822426e+01
1.104133e+02	-1.827362e+01
1.110511e+02	-1.832343e+01
1.116925e+02	-1.837291e+01
1.123376e+02	-1.842075e+01
1.129865e+02	-1.847150e+01
1.136391e+02	-1.852043e+01
1.142955e+02	-1.856867e+01
1.149556e+02	-1.861887e+01
1.156196e+02	-1.866929e+01
1.162874e+02	-1.871809e+01
1.169591e+02	-1.876730e+01
1.176347e+02	-1.881611e+01
1.183141e+02	-1.886715e+01
1.189975e+02	-1.891536e+01
1.196848e+02	-1.896363e+01
1.203761e+02	-1.901518e+01
1.210714e+02	-1.906366e+01
1.217707e+02	-1.911381e+01
1.224740e+02	-1.916167e+01
1.231814e+02	-1.921233e+01
1.238929e+02	-1.926125e+01
1.246085e+02	-1.931132e+01
1.253283e+02	-1.935854e+01
1.260522e+02	-1.940934e+01
1.267802e+02	-1.945805e+01
1.275125e+02	-1.950788e+01
1.282490e+02	-1.955809e+01
1.289898e+02	-1.960724e+01
1.297348e+02	-1.965663e+01
1.304842e+02	-1.970576e+01
1.312378e+02	-1.975503e+01
1.319959e+02	-1.980558e+01
1.327583e+02	-1.985432e+01
1.335251e+02	-1.990461e+01
1.342963e+02	-1.995421e+01
1.350720e+02	-2.000368e+01
1.358522e+02	-2.005412e+01
1.366368e+02	-2.010394e+01
1.374260e+02	-2.015189e+01
1.382198e+02	-2.020095e+01
1.390182e+02	-2.025011e+01
1.398211e+02	-2.030102e+01
1.406287e+02	-2.035028e+01
1.414410e+02	-2.039991e+01
1.422579e+02	-2.045058e+01
1.430796e+02	-2.049877e+01
1.439060e+02	-2.054987e+01
1.447372e+02	-2.059682e+01
1.455732e+02	-2.064857e+01
1.464141e+02	-2.069823e+01
1.472597e+02	-2.074707e+01
1.481103e+02	-2.079823e+01
1.489658e+02	-2.084560e+01
1.498262e+02	-2.089476e+01
1.506916e+02	-2.094468e+01
1.515620e+02	-2.099479e+01
1.524374e+02	-2.104374e+01
1.533179e+02	-2.109582e+01
1.542034e+02	-2.114317e+01
1.550941e+02	-2.119405e+01
1.559899e+02	-2.124417e+01
1.568909e+02	-2.129223e+01
1.577971e+02	-2.134239e+01
1.587085e+02	-2.139105e+01
1.596252e+02	-2.144324e+01
1.605472e+02	-2.149358e+01
1.614745e+02	-2.154030e+01
1.624072e+02	-2.159202e+01
1.633453e+02	-2.163949e+01
1.642887e+02	-2.169006e+01
1.652377e+02	-2.174146e+01
1.661921e+02	-2.179118e+01
1.671520e+02	-2.183949e+01
1.681175e+02	-2.189052e+01
1.690885e+02	-2.193818e+01
1.700651e+02	-2.199041e+01
1.710474e+02	-2.203683e+01
1.720354e+02	-2.208832e+01
1.730291e+02	-2.213693e+01
1.740285e+02	-2.218778e+01
1.750337e+02	-2.223826e+01
1.760446e+02	-2.228654e+01
1.770615e+02	-2.233997e+01
1.780842e+02	-2.238918e+01
1.791128e+02	-2.243811e+01
1.801473e+02	-2.248731e+01
1.811878e+02	-2.253692e+01
1.822344e+02	-2.258692e+01
1.832870e+02	-2.263592e+01
1.843456e+02	-2.268570e+01
1.854104e+02	-2.273533e+01
1.864813e+02	-2.278503e+01
1.875584e+02	-2.283458e+01
1.886418e+02	-2.288264e+01
1.897313e+02	-2.293467e+01
1.908272e+02	-2.298587e+01
1.919294e+02	-2.303385e+01
1.930380e+02	-2.308425e+01
1.941530e+02	-2.313290e+01
1.952744e+02	-2.318239e+01
1.964023e+02	-2.323477e+01
1.975367e+02	-2.328139e+01
1.986777e+02	-2.333360e+01
1.998252e+02	-2.338138e+01
2.009794e+02	-2.343363e+01
2.021403e+02	-2.347975e+01
2.033078e+02	-2.353432e+01
2.044821e+02	-2.358020e+01
2.056632e+02	-2.363109e+01
2.068511e+02	-2.368055e+01
2.080459e+02	-2.373125e+01
2.092475e+02	-2.378229e+01
2.104561e+02	-2.383396e+01
2.116717e+02	-2.388416e+01
2.128943e+02	-2.393073e+01
2.141240e+02	-2.398129e+01
2.153608e+02	-2.403101e+01
2.166047e+02	-2.407793e+01
2.178558e+02	-2.413069e+01
2.191141e+02	-2.418264e+01
2.203797e+02	-2.423120e+01
2.216526e+02	-2.427659e+01
2.229329e+02	-2.432734e+01
2.242205e+02	-2.437764e+01
2.255156e+02	-2.442837e+01
2.268182e+02	-2.448012e+01
2.281283e+02	-2.452827e+01
2.294459e+02	-2.458058e+01
2.307712e+02	-2.462858e+01
2.321041e+02	-2.467886e+01
2.334447e+02	-2.472874e+01
2.347931e+02	-2.477772e+01
2.361493e+02	-2.482942e+01
2.375133e+02	-2.487753e+01
2.388851e+02	-2.492750e+01
2.402649e+02	-2.497966e+01
2.416527e+02	-2.502577e+01
2.430484e+02	-2.507842e+01
2.444523e+02	-2.512907e+01
2.458642e+02	-2.517760e+01
2.472843e+02	-2.522585e+01
2.487126e+02	-2.527495e+01
2.501492e+02	-2.532712e+01
2.515940e+02	-2.537687e+01
2.530472e+02	-2.542626e+01
2.545088e+02	-2.547743e+01
2.559789e+02	-2.552684e+01
2.574574e+02	-2.557578e+01
2.589444e+02	-2.562521e+01
2.604401e+02	-2.567816e+01
2.619444e+02	-2.572729e+01
2.634574e+02	-2.577775e+01
2.649791e+02	-2.582947e+01
2.665096e+02	-2.587666e+01
2.680489e+02	-2.592860e+01
2.695972e+02	-2.597502e+01
2.711544e+02	-2.602962e+01
2.727205e+02	-2.607638e+01
2.742958e+02	-2.612879e+01
2.758801e+02	-2.617675e+01
2.774736e+02	-2.622566e+01
2.790762e+02	-2.627612e+01
2.806882e+02	-2.632942e+01
2.823094e+02	-2.637641e+01
2.839400e+02	-2.642785e+01
2.855800e+02	-2.647499e+01
2.872295e+02	-2.652867e+01
2.888886e+02	-2.657524e+01
2.905572e+02	-2.662955e+01
2.922354e+02	-2.668061e+01
2.939234e+02	-2.672302e+01
2.956211e+02	-2.677529e+01
2.973286e+02	-2.682694e+01
2.990459e+02	-2.687789e+01
3.007732e+02	-2.692907e+01
3.025104e+02	-2.697999e+01
3.042577e+02	-2.702579e+01
3.060151e+02	-2.707439e+01
3.077826e+02	-2.713058e+01
3.095604e+02	-2.717323e+01
3.113484e+02	-2.722561e+01
3.131467e+02	-2.727312e+01
3.149554e+02	-2.732726e+01
3.167746e+02	-2.737494e+01
3.186043e+02	-2.742748e+01
3.204445e+02	-2.747323e+01
3.222954e+02	-2.752600e+01
3.241570e+02	-2.757754e+01
3.260293e+02	-2.762659e+01
3.279124e+02	-2.767817e+01
3.298064e+02	-2.772621e+01
3.317114e+02	-2.777394e+01
3.336273e+02	-2.782758e+01
3.355544e+02	-2.787572e+01
3.374925e+02	-2.792581e+01
3.394418e+02	-2.797357e+01
3.414024e+02	-2.802605e+01
3.433744e+02	-2.807974e+01
3.453577e+02	-2.812514e+01
3.473525e+02	-2.817708e+01
3.493588e+02	-2.822658e+01
3.513766e+02	-2.827932e+01
3.534062e+02	-2.832332e+01
3.554474e+02	-2.837783e+01
3.575005e+02	-2.842917e+01
3.595654e+02	-2.848093e+01
3.616422e+02	-2.853002e+01
3.637311e+02	-2.857865e+01
3.658320e+02	-2.862670e+01
3.679450e+02	-2.867855e+01
3.700702e+02	-2.873010e+01
3.722077e+02	-2.877466e+01
3.743576e+02	-2.883031e+01
3.765199e+02	-2.887835e+01
3.786946e+02	-2.892490e+01
3.808820e+02	-2.897365e+01
3.830819e+02	-2.903005e+01
3.852946e+02	-2.907592e+01
3.875200e+02	-2.912903e+01
3.897583e+02	-2.917774e+01
3.920096e+02	-2.922683e+01
3.942738e+02	-2.927977e+01
3.965511e+02	-2.932408e+01
3.988416e+02	-2.937394e+01
4.011452e+02	-2.942844e+01
4.034622e+02	-2.947700e+01
4.057926e+02	-2.952539e+01
4.081365e+02	-2.957339e+01
4.104938e+02	-2.963042e+01
4.128648e+02	-2.967965e+01
4.152495e+02	-2.972882e+01
4.176480e+02	-2.977831e+01
4.200603e+02	-2.982811e+01
4.224866e+02	-2.987562e+01
4.249268e+02	-2.992693e+01
4.273812e+02	-2.998098e+01
4.298497e+02	-3.002780e+01
4.323325e+02	-3.007405e+01
4.348297e+02	-3.012785e+01
4.373412e+02	-3.017488e+01
4.398673e+02	-3.022693e+01
4.424079e+02	-3.027833e+01
4.449633e+02	-3.032910e+01
4.475334e+02	-3.037722e+01
4.501183e+02	-3.043182e+01
4.527182e+02	-3.047917e+01
4.553330e+02	-3.053199e+01
4.579630e+02	-3.057770e+01
4.606082e+02	-3.062939e+01
4.632687e+02	-3.068001e+01
4.659445e+02	-3.073275e+01
4.686358e+02	-3.078079e+01
4.713426e+02	-3.083130e+01
4.740650e+02	-3.087429e+01
4.768032e+02	-3.093536e+01
4.795572e+02	-3.097953e+01
4.823271e+02	-3.103003e+01
4.851130e+02	-3.107894e+01
4.879150e+02	-3.113876e+01
4.907332e+02	-3.117900e+01
4.935676e+02	-3.123711e+01
4.964185e+02	-3.128264e+01
4.992858e+02	-3.132986e+01
5.021696e+02	-3.137900e+01
5.050701e+02	-3.143080e+01
5.079874e+02	-3.148266e+01
5.109215e+02	-3.152987e+01
5.138726e+02	-3.158215e+01
5.168407e+02	-3.162659e+01
5.198259e+02	-3.168544e+01
5.228284e+02	-3.173302e+01
5.258482e+02	-3.178124e+01
5.288855e+02	-3.183293e+01
5.319403e+02	-3.188404e+01
5.350128e+02	-3.192805e+01
5.381030e+02	-3.198480e+01
5.412111e+02	-3.204112e+01
5.443371e+02	-3.208332e+01
5.474812e+02	-3.213368e+01
5.506434e+02	-3.218585e+01
5.538239e+02	-3.223472e+01
5.570228e+02	-3.228813e+01
5.602401e+02	-3.233724e+01
5.634760e+02	-3.238536e+01
5.667306e+02	-3.243660e+01
5.700040e+02	-3.248810e+01
5.732964e+02	-3.253404e+01
5.766077e+02	-3.258307e+01
5.799382e+02	-3.263591e+01
5.832879e+02	-3.268419e+01
5.866569e+02	-3.274010e+01
5.900454e+02	-3.277884e+01
5.934535e+02	-3.283377e+01
5.968813e+02	-3.288863e+01
6.003288e+02	-3.293325e+01
6.037963e+02	-3.298922e+01
6.072838e+02	-3.304043e+01
6.107914e+02	-3.308750e+01
6.143194e+02	-3.314557e+01
6.178676e+02	-3.319035e+01
6.214364e+02	-3.323999e+01
6.250258e+02	-3.329139e+01
6.286359e+02	-3.333507e+01
6.322669e+02	-3.339166e+01
6.359189e+02	-3.343695e+01
6.395919e+02	-3.348962e+01
6.432862e+02	-3.353814e+01
6.470017e+02	-3.359497e+01
6.507388e+02	-3.363863e+01
6.544974e+02	-3.369526e+01
6.582778e+02	-3.374795e+01
6.620800e+02	-3.379364e+01
6.659041e+02	-3.384498e+01
6.697504e+02	-3.389816e+01
6.736188e+02	-3.394000e+01
6.775096e+02	-3.399359e+01
6.814229e+02	-3.404237e+01
6.853587e+02	-3.408453e+01
6.893173e+02	-3.414080e+01
6.932988e+02	-3.419401e+01
6.973033e+02	-3.423879e+01
7.013309e+02	-3.430556e+01
