Frequency(Hz)	Magnitude(dB)
1.000000e+01	-1.583345e-05
1.005776e+01	-1.601688e-05
1.011585e+01	-1.620244e-05
1.017428e+01	-1.639015e-05
1.023305e+01	-1.658003e-05
1.029215e+01	-1.677212e-05
1.035160e+01	-1.696643e-05
1.041139e+01	-1.716299e-05
1.047153e+01	-1.736183e-05
1.053201e+01	-1.756297e-05
1.059284e+01	-1.776644e-05
1.065403e+01	-1.797227e-05
1.071556e+01	-1.818048e-05
1.077746e+01	-1.839111e-05
1.083971e+01	-1.860417e-05
1.090232e+01	-1.881971e-05
1.096529e+01	-1.903774e-05
1.102862e+01	-1.925829e-05
1.109232e+01	-1.948141e-05
1.115639e+01	-1.970710e-05
1.122083e+01	-1.993542e-05
1.128564e+01	-2.016637e-05
1.135083e+01	-2.040000e-05
1.141639e+01	-2.063634e-05
1.148233e+01	-2.087542e-05
1.154865e+01	-2.111727e-05
1.161536e+01	-2.136192e-05
1.168245e+01	-2.160940e-05
1.174992e+01	-2.185975e-05
1.181779e+01	-2.211300e-05
1.188605e+01	-2.236919e-05
1.195470e+01	-2.262834e-05
1.202375e+01	-2.289049e-05
1.209320e+01	-2.315569e-05
1.216305e+01	-2.342395e-05
1.223330e+01	-2.369532e-05
1.230396e+01	-2.396984e-05
1.237503e+01	-2.424753e-05
1.244651e+01	-2.452845e-05
1.251840e+01	-2.481262e-05
1.259070e+01	-2.510008e-05
1.266343e+01	-2.539087e-05
1.273657e+01	-2.568503e-05
1.281014e+01	-2.598259e-05
1.288413e+01	-2.628361e-05
1.295855e+01	-2.658811e-05
1.303339e+01	-2.689614e-05
1.310867e+01	-2.720774e-05
1.318439e+01	-2.752295e-05
1.326054e+01	-2.784181e-05
1.333713e+01	-2.816436e-05
1.341417e+01	-2.849065e-05
1.349165e+01	-2.882072e-05
1.356958e+01	-2.915462e-05
1.364795e+01	-2.949238e-05
1.372678e+01	-2.983406e-05
1.380607e+01	-3.017969e-05
1.388581e+01	-3.052933e-05
1.396602e+01	-3.088302e-05
1.404668e+01	-3.124081e-05
1.412782e+01	-3.160274e-05
1.420942e+01	-3.196887e-05
1.429149e+01	-3.233923e-05
1.437404e+01	-3.271389e-05
1.445706e+01	-3.309289e-05
1.454057e+01	-3.347628e-05
1.462455e+01	-3.386411e-05
1.470902e+01	-3.425643e-05
1.479398e+01	-3.465330e-05
1.487943e+01	-3.505477e-05
1.496537e+01	-3.546088e-05
1.505181e+01	-3.587171e-05
1.513875e+01	-3.628729e-05
1.522619e+01	-3.670769e-05
1.531414e+01	-3.713295e-05
1.540259e+01	-3.756315e-05
1.549156e+01	-3.799832e-05
1.558103e+01	-3.843854e-05
1.567103e+01	-3.888386e-05
1.576155e+01	-3.933434e-05
1.585258e+01	-3.979004e-05
1.594415e+01	-4.025102e-05
1.603624e+01	-4.071733e-05
1.612886e+01	-4.118905e-05
1.622202e+01	-4.166624e-05
1.631572e+01	-4.214895e-05
1.640996e+01	-4.263725e-05
1.650474e+01	-4.313122e-05
1.660008e+01	-4.363090e-05
1.669596e+01	-4.413637e-05
1.679239e+01	-4.464770e-05
1.688938e+01	-4.516496e-05
1.698694e+01	-4.568820e-05
1.708505e+01	-4.621751e-05
1.718373e+01	-4.675295e-05
1.728299e+01	-4.729459e-05
1.738281e+01	-4.784251e-05
1.748322e+01	-4.839678e-05
1.758420e+01	-4.895747e-05
1.768576e+01	-4.952465e-05
1.778792e+01	-5.009840e-05
1.789066e+01	-5.067880e-05
1.799399e+01	-5.126593e-05
1.809793e+01	-5.185985e-05
1.820246e+01	-5.246066e-05
1.830760e+01	-5.306843e-05
1.841334e+01	-5.368324e-05
1.851969e+01	-5.430517e-05
1.862666e+01	-5.493431e-05
1.873425e+01	-5.557073e-05
1.884246e+01	-5.621453e-05
1.895129e+01	-5.686579e-05
1.906075e+01	-5.752459e-05
1.917085e+01	-5.819102e-05
1.928158e+01	-5.886518e-05
1.939295e+01	-5.954714e-05
1.950496e+01	-6.023701e-05
1.961762e+01	-6.093486e-05
1.973093e+01	-6.164081e-05
1.984490e+01	-6.235493e-05
1.995952e+01	-6.307732e-05
2.007480e+01	-6.380808e-05
2.019076e+01	-6.454731e-05
2.030738e+01	-6.529511e-05
2.042467e+01	-6.605156e-05
2.054264e+01	-6.681678e-05
2.066130e+01	-6.759087e-05
2.078064e+01	-6.837392e-05
2.090066e+01	-6.916605e-05
2.102139e+01	-6.996735e-05
2.114280e+01	-7.077793e-05
2.126492e+01	-7.159791e-05
2.138775e+01	-7.242738e-05
2.151128e+01	-7.326647e-05
2.163553e+01	-7.411527e-05
2.176050e+01	-7.497391e-05
2.188619e+01	-7.584250e-05
2.201260e+01	-7.672115e-05
2.213974e+01	-7.760997e-05
2.226762e+01	-7.850910e-05
2.239624e+01	-7.941864e-05
2.252560e+01	-8.033872e-05
2.265571e+01	-8.126946e-05
2.278656e+01	-8.221098e-05
2.291818e+01	-8.316340e-05
2.305055e+01	-8.412687e-05
2.318369e+01	-8.510149e-05
2.331760e+01	-8.608740e-05
2.345228e+01	-8.708474e-05
2.358774e+01	-8.809363e-05
2.372398e+01	-8.911421e-05
2.386101e+01	-9.014661e-05
2.399883e+01	-9.119098e-05
2.413745e+01	-9.224744e-05
2.427686e+01	-9.331614e-05
2.441709e+01	-9.439722e-05
2.455812e+01	-9.549083e-05
2.469997e+01	-9.659710e-05
2.484263e+01	-9.771619e-05
2.498612e+01	-9.884825e-05
2.513044e+01	-9.999342e-05
2.527559e+01	-1.011519e-04
2.542158e+01	-1.023237e-04
2.556842e+01	-1.035092e-04
2.571610e+01	-1.047083e-04
2.586463e+01	-1.059214e-04
2.601403e+01	-1.071485e-04
2.616428e+01	-1.083898e-04
2.631541e+01	-1.096455e-04
2.646740e+01	-1.109158e-04
2.662028e+01	-1.122008e-04
2.677404e+01	-1.135006e-04
2.692868e+01	-1.148155e-04
2.708422e+01	-1.161457e-04
2.724066e+01	-1.174913e-04
2.739800e+01	-1.188524e-04
2.755625e+01	-1.202293e-04
2.771541e+01	-1.216222e-04
2.787550e+01	-1.230312e-04
2.803650e+01	-1.244565e-04
2.819844e+01	-1.258984e-04
2.836131e+01	-1.273569e-04
2.852513e+01	-1.288324e-04
2.868989e+01	-1.303249e-04
2.885560e+01	-1.318347e-04
2.902227e+01	-1.333621e-04
2.918990e+01	-1.349071e-04
2.935850e+01	-1.364700e-04
2.952807e+01	-1.380510e-04
2.969863e+01	-1.396503e-04
2.987016e+01	-1.412682e-04
3.004269e+01	-1.429048e-04
3.021622e+01	-1.445604e-04
3.039075e+01	-1.462351e-04
3.056628e+01	-1.479293e-04
3.074283e+01	-1.496430e-04
3.092040e+01	-1.513767e-04
3.109900e+01	-1.531304e-04
3.127862e+01	-1.549044e-04
3.145929e+01	-1.566990e-04
3.164099e+01	-1.585143e-04
3.182375e+01	-1.603507e-04
3.200756e+01	-1.622084e-04
3.219244e+01	-1.640876e-04
3.237838e+01	-1.659886e-04
3.256540e+01	-1.679116e-04
3.275349e+01	-1.698568e-04
3.294268e+01	-1.718246e-04
3.313295e+01	-1.738152e-04
3.332433e+01	-1.758289e-04
3.351681e+01	-1.778659e-04
3.371040e+01	-1.799264e-04
3.390511e+01	-1.820109e-04
3.410094e+01	-1.841195e-04
3.429791e+01	-1.862525e-04
3.449601e+01	-1.884103e-04
3.469526e+01	-1.905930e-04
3.489566e+01	-1.928010e-04
3.509721e+01	-1.950346e-04
3.529993e+01	-1.972941e-04
3.550382e+01	-1.995798e-04
3.570889e+01	-2.018919e-04
3.591515e+01	-2.042308e-04
3.612259e+01	-2.065968e-04
3.633123e+01	-2.089903e-04
3.654108e+01	-2.114114e-04
3.675214e+01	-2.138606e-04
3.696442e+01	-2.163382e-04
3.717792e+01	-2.188445e-04
3.739266e+01	-2.213798e-04
3.760864e+01	-2.239444e-04
3.782587e+01	-2.265388e-04
3.804435e+01	-2.291633e-04
3.826409e+01	-2.318181e-04
3.848510e+01	-2.345037e-04
3.870739e+01	-2.372204e-04
3.893096e+01	-2.399686e-04
3.915583e+01	-2.427487e-04
3.938199e+01	-2.455609e-04
3.960946e+01	-2.484057e-04
3.983824e+01	-2.512835e-04
4.006834e+01	-2.541946e-04
4.029978e+01	-2.571394e-04
4.053255e+01	-2.601183e-04
4.076666e+01	-2.631318e-04
4.100213e+01	-2.661802e-04
4.123896e+01	-2.692638e-04
4.147715e+01	-2.723832e-04
4.171672e+01	-2.755388e-04
4.195767e+01	-2.787309e-04
4.220002e+01	-2.819599e-04
4.244377e+01	-2.852264e-04
4.268892e+01	-2.885307e-04
4.293549e+01	-2.918733e-04
4.318348e+01	-2.952546e-04
4.343291e+01	-2.986751e-04
4.368377e+01	-3.021352e-04
4.393609e+01	-3.056354e-04
4.418986e+01	-3.091762e-04
4.444510e+01	-3.127579e-04
4.470182e+01	-3.163812e-04
4.496001e+01	-3.200464e-04
4.521970e+01	-3.237541e-04
4.548089e+01	-3.275048e-04
4.574358e+01	-3.312988e-04
4.600779e+01	-3.351369e-04
4.627353e+01	-3.390194e-04
4.654081e+01	-3.429469e-04
4.680963e+01	-3.469198e-04
4.708000e+01	-3.509388e-04
4.735193e+01	-3.550044e-04
4.762543e+01	-3.591171e-04
4.790051e+01	-3.632774e-04
4.817719e+01	-3.674858e-04
4.845545e+01	-3.717431e-04
4.873533e+01	-3.760496e-04
4.901682e+01	-3.804061e-04
4.929994e+01	-3.848130e-04
4.958470e+01	-3.892710e-04
4.987110e+01	-3.937806e-04
5.015915e+01	-3.983424e-04
5.044887e+01	-4.029571e-04
5.074026e+01	-4.076253e-04
5.103333e+01	-4.123475e-04
5.132810e+01	-4.171244e-04
5.162457e+01	-4.219567e-04
5.192275e+01	-4.268449e-04
5.222265e+01	-4.317898e-04
5.252429e+01	-4.367920e-04
5.282767e+01	-4.418521e-04
5.313280e+01	-4.469708e-04
5.343969e+01	-4.521488e-04
5.374836e+01	-4.573868e-04
5.405880e+01	-4.626855e-04
5.437105e+01	-4.680455e-04
5.468509e+01	-4.734676e-04
5.500095e+01	-4.789526e-04
5.531863e+01	-4.845011e-04
5.563815e+01	-4.901139e-04
5.595951e+01	-4.957916e-04
5.628273e+01	-5.015352e-04
5.660782e+01	-5.073453e-04
5.693479e+01	-5.132227e-04
5.726364e+01	-5.191681e-04
5.759439e+01	-5.251825e-04
5.792705e+01	-5.312665e-04
5.826164e+01	-5.374210e-04
5.859815e+01	-5.436467e-04
5.893662e+01	-5.499446e-04
5.927703e+01	-5.563155e-04
5.961941e+01	-5.627601e-04
5.996377e+01	-5.692795e-04
6.031012e+01	-5.758743e-04
6.065847e+01	-5.825455e-04
6.100883e+01	-5.892940e-04
6.136121e+01	-5.961206e-04
6.171563e+01	-6.030264e-04
6.207210e+01	-6.100121e-04
6.243063e+01	-6.170788e-04
6.279122e+01	-6.242273e-04
6.315390e+01	-6.314586e-04
6.351868e+01	-6.387737e-04
6.388556e+01	-6.461735e-04
6.425456e+01	-6.536590e-04
6.462569e+01	-6.612313e-04
6.499897e+01	-6.688912e-04
6.537440e+01	-6.766399e-04
6.575200e+01	-6.844784e-04
6.613178e+01	-6.924076e-04
6.651375e+01	-7.004287e-04
6.689793e+01	-7.085427e-04
6.728433e+01	-7.167507e-04
6.767297e+01	-7.250537e-04
6.806384e+01	-7.334530e-04
6.845698e+01	-7.419495e-04
6.885238e+01	-7.505444e-04
6.925007e+01	-7.592390e-04
6.965005e+01	-7.680342e-04
7.005235e+01	-7.769313e-04
7.045697e+01	-7.859314e-04
7.086393e+01	-7.950358e-04
7.127323e+01	-8.042457e-04
7.168490e+01	-8.135622e-04
7.209895e+01	-8.229866e-04
7.251539e+01	-8.325202e-04
7.293424e+01	-8.421643e-04
7.335551e+01	-8.519200e-04
7.377920e+01	-8.617888e-04
7.420535e+01	-8.717718e-04
7.463396e+01	-8.818705e-04
7.506504e+01	-8.920862e-04
7.549861e+01	-9.024202e-04
7.593469e+01	-9.128739e-04
7.637328e+01	-9.234486e-04
7.681441e+01	-9.341459e-04
7.725809e+01	-9.449670e-04
7.770433e+01	-9.559135e-04
7.815315e+01	-9.669868e-04
7.860456e+01	-9.781884e-04
7.905857e+01	-9.895196e-04
7.951521e+01	-1.000982e-03
7.997449e+01	-1.012577e-03
8.043642e+01	-1.024307e-03
8.090102e+01	-1.036173e-03
8.136830e+01	-1.048175e-03
8.183828e+01	-1.060317e-03
8.231097e+01	-1.072600e-03
8.278640e+01	-1.085025e-03
8.326457e+01	-1.097593e-03
8.374550e+01	-1.110308e-03
8.422921e+01	-1.123169e-03
8.471572e+01	-1.136180e-03
8.520503e+01	-1.149341e-03
8.569717e+01	-1.162655e-03
8.619215e+01	-1.176122e-03
8.669000e+01	-1.189746e-03
8.719071e+01	-1.203528e-03
8.769432e+01	-1.217469e-03
8.820084e+01	-1.231572e-03
8.871029e+01	-1.245838e-03
8.922267e+01	-1.260269e-03
8.973802e+01	-1.274868e-03
9.025634e+01	-1.289635e-03
9.077766e+01	-1.304574e-03
9.130199e+01	-1.319685e-03
9.182935e+01	-1.334972e-03
9.235975e+01	-1.350435e-03
9.289321e+01	-1.366078e-03
9.342976e+01	-1.381902e-03
9.396941e+01	-1.397909e-03
9.451217e+01	-1.414102e-03
9.505807e+01	-1.430482e-03
9.560712e+01	-1.447051e-03
9.615934e+01	-1.463813e-03
9.671476e+01	-1.480769e-03
9.727338e+01	-1.497921e-03
9.783522e+01	-1.515272e-03
9.840032e+01	-1.532823e-03
9.896867e+01	-1.550578e-03
9.954031e+01	-1.568539e-03
1.001153e+02	-1.586708e-03
1.006935e+02	-1.605087e-03
1.012751e+02	-1.623679e-03
1.018601e+02	-1.642486e-03
1.024484e+02	-1.661511e-03
1.030402e+02	-1.680756e-03
1.036353e+02	-1.700224e-03
1.042339e+02	-1.719918e-03
1.048360e+02	-1.739840e-03
1.054415e+02	-1.759992e-03
1.060505e+02	-1.780378e-03
1.066631e+02	-1.801000e-03
1.072791e+02	-1.821860e-03
1.078988e+02	-1.842963e-03
1.085220e+02	-1.864309e-03
1.091488e+02	-1.885903e-03
1.097793e+02	-1.907747e-03
1.104133e+02	-1.929844e-03
1.110511e+02	-1.952197e-03
1.116925e+02	-1.974808e-03
1.123376e+02	-1.997682e-03
1.129865e+02	-2.020820e-03
1.136391e+02	-2.044226e-03
1.142955e+02	-2.067903e-03
1.149556e+02	-2.091855e-03
1.156196e+02	-2.116084e-03
1.162874e+02	-2.140593e-03
1.169591e+02	-2.165386e-03
1.176347e+02	-2.190466e-03
1.183141e+02	-2.215837e-03
1.189975e+02	-2.241501e-03
1.196848e+02	-2.267463e-03
1.203761e+02	-2.293725e-03
1.210714e+02	-2.320291e-03
1.217707e+02	-2.347165e-03
1.224740e+02	-2.374350e-03
1.231814e+02	-2.401850e-03
1.238929e+02	-2.429669e-03
1.246085e+02	-2.457809e-03
1.253283e+02	-2.486275e-03
1.260522e+02	-2.515071e-03
1.267802e+02	-2.544200e-03
1.275125e+02	-2.573667e-03
1.282490e+02	-2.603474e-03
1.289898e+02	-2.633627e-03
1.297348e+02	-2.664129e-03
1.304842e+02	-2.694984e-03
1.312378e+02	-2.726196e-03
1.319959e+02	-2.757770e-03
1.327583e+02	-2.789709e-03
1.335251e+02	-2.822018e-03
1.342963e+02	-2.854701e-03
1.350720e+02	-2.887763e-03
1.358522e+02	-2.921207e-03
1.366368e+02	-2.955038e-03
1.374260e+02	-2.989261e-03
1.382198e+02	-3.023881e-03
1.390182e+02	-3.058901e-03
1.398211e+02	-3.094326e-03
1.406287e+02	-3.130162e-03
1.414410e+02	-3.166413e-03
1.422579e+02	-3.203083e-03
1.430796e+02	-3.240177e-03
1.439060e+02	-3.277702e-03
1.447372e+02	-3.315660e-03
1.455732e+02	-3.354058e-03
1.464141e+02	-3.392900e-03
1.472597e+02	-3.432192e-03
1.481103e+02	-3.471939e-03
1.489658e+02	-3.512146e-03
1.498262e+02	-3.552819e-03
1.506916e+02	-3.593962e-03
1.515620e+02	-3.635582e-03
1.524374e+02	-3.677683e-03
1.533179e+02	-3.720272e-03
1.542034e+02	-3.763353e-03
1.550941e+02	-3.806933e-03
1.559899e+02	-3.851018e-03
1.568909e+02	-3.895613e-03
1.577971e+02	-3.940724e-03
1.587085e+02	-3.986358e-03
1.596252e+02	-4.032519e-03
1.605472e+02	-4.079215e-03
1.614745e+02	-4.126451e-03
1.624072e+02	-4.174234e-03
1.633453e+02	-4.222570e-03
1.642887e+02	-4.271466e-03
1.652377e+02	-4.320927e-03
1.661921e+02	-4.370961e-03
1.671520e+02	-4.421574e-03
1.681175e+02	-4.472772e-03
1.690885e+02	-4.524563e-03
1.700651e+02	-4.576954e-03
1.710474e+02	-4.629951e-03
1.720354e+02	-4.683561e-03
1.730291e+02	-4.737792e-03
1.740285e+02	-4.792650e-03
1.750337e+02	-4.848143e-03
1.760446e+02	-4.904278e-03
1.770615e+02	-4.961063e-03
1.780842e+02	-5.018505e-03
1.791128e+02	-5.076611e-03
1.801473e+02	-5.135390e-03
1.811878e+02	-5.194849e-03
1.822344e+02	-5.254997e-03
1.832870e+02	-5.315840e-03
1.843456e+02	-5.377387e-03
1.854104e+02	-5.439646e-03
1.864813e+02	-5.502626e-03
1.875584e+02	-5.566334e-03
1.886418e+02	-5.630780e-03
1.897313e+02	-5.695971e-03
1.908272e+02	-5.761916e-03
1.919294e+02	-5.828625e-03
1.930380e+02	-5.896105e-03
1.941530e+02	-5.964366e-03
1.952744e+02	-6.033416e-03
1.964023e+02	-6.103265e-03
1.975367e+02	-6.173923e-03
1.986777e+02	-6.245398e-03
1.998252e+02	-6.317700e-03
2.009794e+02	-6.390838e-03
2.021403e+02	-6.464822e-03
2.033078e+02	-6.539662e-03
2.044821e+02	-6.615368e-03
2.056632e+02	-6.691949e-03
2.068511e+02	-6.769417e-03
2.080459e+02	-6.847780e-03
2.092475e+02	-6.927050e-03
2.104561e+02	-7.007237e-03
2.116717e+02	-7.088351e-03
2.128943e+02	-7.170403e-03
2.141240e+02	-7.253404e-03
2.153608e+02	-7.337366e-03
2.166047e+02	-7.422298e-03
2.178558e+02	-7.508213e-03
2.191141e+02	-7.595121e-03
2.203797e+02	-7.683034e-03
2.216526e+02	-7.771964e-03
2.229329e+02	-7.861923e-03
2.242205e+02	-7.952921e-03
2.255156e+02	-8.044972e-03
2.268182e+02	-8.138088e-03
2.281283e+02	-8.232280e-03
2.294459e+02	-8.327561e-03
2.307712e+02	-8.423944e-03
2.321041e+02	-8.521442e-03
2.334447e+02	-8.620067e-03
2.347931e+02	-8.719832e-03
2.361493e+02	-8.820750e-03
2.375133e+02	-8.922835e-03
2.388851e+02	-9.026101e-03
2.402649e+02	-9.130560e-03
2.416527e+02	-9.236227e-03
2.430484e+02	-9.343116e-03
2.444523e+02	-9.451240e-03
2.458642e+02	-9.560614e-03
2.472843e+02	-9.671252e-03
2.487126e+02	-9.783170e-03
2.501492e+02	-9.896381e-03
2.515940e+02	-1.001090e-02
2.530472e+02	-1.012674e-02
2.545088e+02	-1.024393e-02
2.559789e+02	-1.036246e-02
2.574574e+02	-1.048237e-02
2.589444e+02	-1.060366e-02
2.604401e+02	-1.072635e-02
2.619444e+02	-1.085047e-02
2.634574e+02	-1.097601e-02
2.649791e+02	-1.110301e-02
2.665096e+02	-1.123147e-02
2.680489e+02	-1.136142e-02
2.695972e+02	-1.149287e-02
2.711544e+02	-1.162584e-02
2.727205e+02	-1.176035e-02
2.742958e+02	-1.189640e-02
2.758801e+02	-1.203404e-02
2.774736e+02	-1.217326e-02
2.790762e+02	-1.231409e-02
2.806882e+02	-1.245654e-02
2.823094e+02	-1.260065e-02
2.839400e+02	-1.274641e-02
2.855800e+02	-1.289386e-02
2.872295e+02	-1.304302e-02
2.888886e+02	-1.319389e-02
2.905572e+02	-1.334651e-02
2.922354e+02	-1.350089e-02
2.939234e+02	-1.365706e-02
2.956211e+02	-1.381502e-02
2.973286e+02	-1.397482e-02
2.990459e+02	-1.413645e-02
3.007732e+02	-1.429996e-02
3.025104e+02	-1.446535e-02
3.042577e+02	-1.463265e-02
3.060151e+02	-1.480188e-02
3.077826e+02	-1.497307e-02
3.095604e+02	-1.514623e-02
3.113484e+02	-1.532140e-02
3.131467e+02	-1.549858e-02
3.149554e+02	-1.567781e-02
3.167746e+02	-1.585911e-02
3.186043e+02	-1.604250e-02
3.204445e+02	-1.622801e-02
3.222954e+02	-1.641566e-02
3.241570e+02	-1.660547e-02
3.260293e+02	-1.679748e-02
3.279124e+02	-1.699170e-02
3.298064e+02	-1.718816e-02
3.317114e+02	-1.738689e-02
3.336273e+02	-1.758791e-02
3.355544e+02	-1.779125e-02
3.374925e+02	-1.799694e-02
3.394418e+02	-1.820500e-02
3.414024e+02	-1.841546e-02
3.433744e+02	-1.862835e-02
3.453577e+02	-1.884369e-02
3.473525e+02	-1.906152e-02
3.493588e+02	-1.928186e-02
3.513766e+02	-1.950474e-02
3.534062e+02	-1.973019e-02
3.554474e+02	-1.995825e-02
3.575005e+02	-2.018893e-02
3.595654e+02	-2.042227e-02
3.616422e+02	-2.065830e-02
3.637311e+02	-2.089705e-02
3.658320e+02	-2.113856e-02
3.679450e+02	-2.138285e-02
3.700702e+02	-2.162996e-02
3.722077e+02	-2.187991e-02
3.743576e+02	-2.213275e-02
3.765199e+02	-2.238850e-02
3.786946e+02	-2.264720e-02
3.808820e+02	-2.290888e-02
3.830819e+02	-2.317357e-02
3.852946e+02	-2.344131e-02
3.875200e+02	-2.371214e-02
3.897583e+02	-2.398609e-02
3.920096e+02	-2.426320e-02
3.942738e+02	-2.454350e-02
3.965511e+02	-2.482702e-02
3.988416e+02	-2.511382e-02
4.011452e+02	-2.540391e-02
4.034622e+02	-2.569735e-02
4.057926e+02	-2.599417e-02
4.081365e+02	-2.629440e-02
4.104938e+02	-2.659809e-02
4.128648e+02	-2.690528e-02
4.152495e+02	-2.721600e-02
4.176480e+02	-2.753030e-02
4.200603e+02	-2.784822e-02
4.224866e+02	-2.816980e-02
4.249268e+02	-2.849508e-02
4.273812e+02	-2.882411e-02
4.298497e+02	-2.915692e-02
4.323325e+02	-2.949355e-02
4.348297e+02	-2.983407e-02
4.373412e+02	-3.017850e-02
4.398673e+02	-3.052689e-02
4.424079e+02	-3.087929e-02
4.449633e+02	-3.123574e-02
4.475334e+02	-3.159630e-02
4.501183e+02	-3.196100e-02
4.527182e+02	-3.232989e-02
4.553330e+02	-3.270303e-02
4.579630e+02	-3.308045e-02
4.606082e+02	-3.346222e-02
4.632687e+02	-3.384837e-02
4.659445e+02	-3.423896e-02
4.686358e+02	-3.463404e-02
4.713426e+02	-3.503366e-02
4.740650e+02	-3.543787e-02
4.768032e+02	-3.584673e-02
4.795572e+02	-3.626028e-02
4.823271e+02	-3.667859e-02
4.851130e+02	-3.710170e-02
4.879150e+02	-3.752967e-02
4.907332e+02	-3.796255e-02
4.935676e+02	-3.840041e-02
4.964185e+02	-3.884329e-02
4.992858e+02	-3.929126e-02
5.021696e+02	-3.974437e-02
5.050701e+02	-4.020268e-02
5.079874e+02	-4.066625e-02
5.109215e+02	-4.113515e-02
5.138726e+02	-4.160942e-02
5.168407e+02	-4.208913e-02
5.198259e+02	-4.257435e-02
5.228284e+02	-4.306513e-02
5.258482e+02	-4.356154e-02
5.288855e+02	-4.406365e-02
5.319403e+02	-4.457151e-02
5.350128e+02	-4.508519e-02
5.381030e+02	-4.560477e-02
5.412111e+02	-4.613030e-02
5.443371e+02	-4.666185e-02
5.474812e+02	-4.719950e-02
5.506434e+02	-4.774330e-02
5.538239e+02	-4.829334e-02
5.570228e+02	-4.884967e-02
5.602401e+02	-4.941238e-02
5.634760e+02	-4.998154e-02
5.667306e+02	-5.055721e-02
5.700040e+02	-5.113947e-02
5.732964e+02	-5.172840e-02
5.766077e+02	-5.232407e-02
5.799382e+02	-5.292656e-02
5.832879e+02	-5.353594e-02
5.866569e+02	-5.415229e-02
5.900454e+02	-5.477569e-02
5.934535e+02	-5.540623e-02
5.968813e+02	-5.604397e-02
6.003288e+02	-5.668901e-02
6.037963e+02	-5.734143e-02
6.072838e+02	-5.800130e-02
6.107914e+02	-5.866871e-02
6.143194e+02	-5.934375e-02
6.178676e+02	-6.002651e-02
6.214364e+02	-6.071706e-02
6.250258e+02	-6.141550e-02
6.286359e+02	-6.212192e-02
6.322669e+02	-6.283641e-02
6.359189e+02	-6.355905e-02
6.395919e+02	-6.428994e-02
6.432862e+02	-6.502917e-02
6.470017e+02	-6.577684e-02
6.507388e+02	-6.653304e-02
6.544974e+02	-6.729786e-02
6.582778e+02	-6.807141e-02
6.620800e+02	-6.885378e-02
6.659041e+02	-6.964507e-02
6.697504e+02	-7.044537e-02
6.736188e+02	-7.125480e-02
6.775096e+02	-7.207345e-02
6.814229e+02	-7.290143e-02
6.853587e+02	-7.373884e-02
6.893173e+02	-7.458578e-02
6.932988e+02	-7.544237e-02
6.973033e+02	-7.630870e-02
7.013309e+02	-7.718490e-02
