Frequency(Hz)	Magnitude(dB)
1.000000e+01	-2.215859e+00
1.005776e+01	-2.235835e+00
1.011585e+01	-2.256307e+00
1.017428e+01	-2.276353e+00
1.023305e+01	-2.296938e+00
1.029215e+01	-2.317734e+00
1.035160e+01	-2.338487e+00
1.041139e+01	-2.359096e+00
1.047153e+01	-2.380316e+00
1.053201e+01	-2.401444e+00
1.059284e+01	-2.422856e+00
1.065403e+01	-2.444043e+00
1.071556e+01	-2.465788e+00
1.077746e+01	-2.487603e+00
1.083971e+01	-2.509312e+00
1.090232e+01	-2.531366e+00
1.096529e+01	-2.553641e+00
1.102862e+01	-2.576040e+00
1.109232e+01	-2.598398e+00
1.115639e+01	-2.621228e+00
1.122083e+01	-2.643791e+00
1.128564e+01	-2.666718e+00
1.135083e+01	-2.689615e+00
1.141639e+01	-2.712970e+00
1.148233e+01	-2.736093e+00
1.154865e+01	-2.759668e+00
1.161536e+01	-2.783127e+00
1.168245e+01	-2.806718e+00
1.174992e+01	-2.830673e+00
1.181779e+01	-2.854672e+00
1.188605e+01	-2.878932e+00
1.195470e+01	-2.903314e+00
1.202375e+01	-2.927706e+00
1.209320e+01	-2.952385e+00
1.216305e+01	-2.976989e+00
1.223330e+01	-3.001849e+00
1.230396e+01	-3.027167e+00
1.237503e+01	-3.052212e+00
1.244651e+01	-3.077474e+00
1.251840e+01	-3.102947e+00
1.259070e+01	-3.128713e+00
1.266343e+01	-3.154389e+00
1.273657e+01	-3.180196e+00
1.281014e+01	-3.206532e+00
1.288413e+01	-3.232645e+00
1.295855e+01	-3.258988e+00
1.303339e+01	-3.285054e+00
1.310867e+01	-3.311852e+00
1.318439e+01	-3.338753e+00
1.326054e+01	-3.365685e+00
1.333713e+01	-3.392603e+00
1.341417e+01	-3.419867e+00
1.349165e+01	-3.447216e+00
1.356958e+01	-3.474772e+00
1.364795e+01	-3.502331e+00
1.372678e+01	-3.529871e+00
1.380607e+01	-3.558131e+00
1.388581e+01	-3.586117e+00
1.396602e+01	-3.614225e+00
1.404668e+01	-3.642369e+00
1.412782e+01	-3.671088e+00
1.420942e+01	-3.699767e+00
1.429149e+01	-3.728250e+00
1.437404e+01	-3.757328e+00
1.445706e+01	-3.786538e+00
1.454057e+01	-3.815408e+00
1.462455e+01	-3.844754e+00
1.470902e+01	-3.874351e+00
1.479398e+01	-3.903870e+00
1.487943e+01	-3.933499e+00
1.496537e+01	-3.963244e+00
1.505181e+01	-3.993713e+00
1.513875e+01	-4.023511e+00
1.522619e+01	-4.053959e+00
1.531414e+01	-4.084259e+00
1.540259e+01	-4.114887e+00
1.549156e+01	-4.145637e+00
1.558103e+01	-4.176611e+00
1.567103e+01	-4.207411e+00
1.576155e+01	-4.238505e+00
1.585258e+01	-4.269907e+00
1.594415e+01	-4.301046e+00
1.603624e+01	-4.332722e+00
1.612886e+01	-4.364310e+00
1.622202e+01	-4.396175e+00
1.631572e+01	-4.427799e+00
1.640996e+01	-4.459926e+00
1.650474e+01	-4.492227e+00
1.660008e+01	-4.524336e+00
1.669596e+01	-4.556907e+00
1.679239e+01	-4.589574e+00
1.688938e+01	-4.622117e+00
1.698694e+01	-4.654733e+00
1.708505e+01	-4.688131e+00
1.718373e+01	-4.721017e+00
1.728299e+01	-4.754315e+00
1.738281e+01	-4.787749e+00
1.748322e+01	-4.821349e+00
1.758420e+01	-4.855001e+00
1.768576e+01	-4.888366e+00
1.778792e+01	-4.922430e+00
1.789066e+01	-4.956517e+00
1.799399e+01	-4.990223e+00
1.809793e+01	-5.024468e+00
1.820246e+01	-5.058891e+00
1.830760e+01	-5.093132e+00
1.841334e+01	-5.128215e+00
1.851969e+01	-5.162641e+00
1.862666e+01	-5.197432e+00
1.873425e+01	-5.232514e+00
1.884246e+01	-5.267722e+00
1.895129e+01	-5.302879e+00
1.906075e+01	-5.338211e+00
1.917085e+01	-5.373363e+00
1.928158e+01	-5.409417e+00
1.939295e+01	-5.445101e+00
1.950496e+01	-5.480960e+00
1.961762e+01	-5.516591e+00
1.973093e+01	-5.552687e+00
1.984490e+01	-5.588633e+00
1.995952e+01	-5.625096e+00
2.007480e+01	-5.661188e+00
2.019076e+01	-5.698432e+00
2.030738e+01	-5.734746e+00
2.042467e+01	-5.771286e+00
2.054264e+01	-5.808122e+00
2.066130e+01	-5.845015e+00
2.078064e+01	-5.882427e+00
2.090066e+01	-5.919527e+00
2.102139e+01	-5.956522e+00
2.114280e+01	-5.993982e+00
2.126492e+01	-6.031605e+00
2.138775e+01	-6.069326e+00
2.151128e+01	-6.107204e+00
2.163553e+01	-6.144860e+00
2.176050e+01	-6.182267e+00
2.188619e+01	-6.220708e+00
2.201260e+01	-6.259101e+00
2.213974e+01	-6.297282e+00
2.226762e+01	-6.335447e+00
2.239624e+01	-6.374242e+00
2.252560e+01	-6.412199e+00
2.265571e+01	-6.450917e+00
2.278656e+01	-6.489625e+00
2.291818e+01	-6.528434e+00
2.305055e+01	-6.567684e+00
2.318369e+01	-6.606614e+00
2.331760e+01	-6.645672e+00
2.345228e+01	-6.685108e+00
2.358774e+01	-6.724335e+00
2.372398e+01	-6.763786e+00
2.386101e+01	-6.803228e+00
2.399883e+01	-6.843290e+00
2.413745e+01	-6.882809e+00
2.427686e+01	-6.922462e+00
2.441709e+01	-6.962318e+00
2.455812e+01	-7.002240e+00
2.469997e+01	-7.042426e+00
2.484263e+01	-7.082965e+00
2.498612e+01	-7.122919e+00
2.513044e+01	-7.163191e+00
2.527559e+01	-7.203679e+00
2.542158e+01	-7.244075e+00
2.556842e+01	-7.285037e+00
2.571610e+01	-7.325961e+00
2.586463e+01	-7.366640e+00
2.601403e+01	-7.407494e+00
2.616428e+01	-7.448535e+00
2.631541e+01	-7.489457e+00
2.646740e+01	-7.531038e+00
2.662028e+01	-7.571597e+00
2.677404e+01	-7.613145e+00
2.692868e+01	-7.654264e+00
2.708422e+01	-7.695592e+00
2.724066e+01	-7.737603e+00
2.739800e+01	-7.779545e+00
2.755625e+01	-7.820806e+00
2.771541e+01	-7.862762e+00
2.787550e+01	-7.904510e+00
2.803650e+01	-7.946579e+00
2.819844e+01	-7.988649e+00
2.836131e+01	-8.030646e+00
2.852513e+01	-8.073146e+00
2.868989e+01	-8.115025e+00
2.885560e+01	-8.157150e+00
2.902227e+01	-8.200387e+00
2.918990e+01	-8.242529e+00
2.935850e+01	-8.285078e+00
2.952807e+01	-8.327454e+00
2.969863e+01	-8.370192e+00
2.987016e+01	-8.413245e+00
3.004269e+01	-8.456078e+00
3.021622e+01	-8.499096e+00
3.039075e+01	-8.541873e+00
3.056628e+01	-8.585325e+00
3.074283e+01	-8.628213e+00
3.092040e+01	-8.671355e+00
3.109900e+01	-8.714891e+00
3.127862e+01	-8.758176e+00
3.145929e+01	-8.801478e+00
3.164099e+01	-8.844689e+00
3.182375e+01	-8.888200e+00
3.200756e+01	-8.932029e+00
3.219244e+01	-8.976051e+00
3.237838e+01	-9.019085e+00
3.256540e+01	-9.062877e+00
3.275349e+01	-9.107286e+00
3.294268e+01	-9.150909e+00
3.313295e+01	-9.194939e+00
3.332433e+01	-9.238929e+00
3.351681e+01	-9.282981e+00
3.371040e+01	-9.327269e+00
3.390511e+01	-9.371240e+00
3.410094e+01	-9.415412e+00
3.429791e+01	-9.460286e+00
3.449601e+01	-9.504809e+00
3.469526e+01	-9.548846e+00
3.489566e+01	-9.592996e+00
3.509721e+01	-9.638050e+00
3.529993e+01	-9.682813e+00
3.550382e+01	-9.727188e+00
3.570889e+01	-9.771860e+00
3.591515e+01	-9.816278e+00
3.612259e+01	-9.861762e+00
3.633123e+01	-9.906284e+00
3.654108e+01	-9.951121e+00
3.675214e+01	-9.996203e+00
3.696442e+01	-1.004208e+01
3.717792e+01	-1.008664e+01
3.739266e+01	-1.013157e+01
3.760864e+01	-1.017649e+01
3.782587e+01	-1.022194e+01
3.804435e+01	-1.026739e+01
3.826409e+01	-1.031213e+01
3.848510e+01	-1.035780e+01
3.870739e+01	-1.040352e+01
3.893096e+01	-1.044865e+01
3.915583e+01	-1.049429e+01
3.938199e+01	-1.054014e+01
3.960946e+01	-1.058556e+01
3.983824e+01	-1.063088e+01
4.006834e+01	-1.067727e+01
4.029978e+01	-1.072257e+01
4.053255e+01	-1.076885e+01
4.076666e+01	-1.081461e+01
4.100213e+01	-1.085997e+01
4.123896e+01	-1.090588e+01
4.147715e+01	-1.095240e+01
4.171672e+01	-1.099858e+01
4.195767e+01	-1.104489e+01
4.220002e+01	-1.109043e+01
4.244377e+01	-1.113648e+01
4.268892e+01	-1.118353e+01
4.293549e+01	-1.122908e+01
4.318348e+01	-1.127522e+01
4.343291e+01	-1.132187e+01
4.368377e+01	-1.136797e+01
4.393609e+01	-1.141389e+01
4.418986e+01	-1.146094e+01
4.444510e+01	-1.150758e+01
4.470182e+01	-1.155399e+01
4.496001e+01	-1.159989e+01
4.521970e+01	-1.164676e+01
4.548089e+01	-1.169441e+01
4.574358e+01	-1.174026e+01
4.600779e+01	-1.178706e+01
4.627353e+01	-1.183373e+01
4.654081e+01	-1.188023e+01
4.680963e+01	-1.192716e+01
4.708000e+01	-1.197412e+01
4.735193e+01	-1.202084e+01
4.762543e+01	-1.206758e+01
4.790051e+01	-1.211515e+01
4.817719e+01	-1.216170e+01
4.845545e+01	-1.220857e+01
4.873533e+01	-1.225604e+01
4.901682e+01	-1.230319e+01
4.929994e+01	-1.235030e+01
4.958470e+01	-1.239771e+01
4.987110e+01	-1.244506e+01
5.015915e+01	-1.249178e+01
5.044887e+01	-1.253872e+01
5.074026e+01	-1.258587e+01
5.103333e+01	-1.263273e+01
5.132810e+01	-1.268031e+01
5.162457e+01	-1.272844e+01
5.192275e+01	-1.277486e+01
5.222265e+01	-1.282272e+01
5.252429e+01	-1.287011e+01
5.282767e+01	-1.291744e+01
5.313280e+01	-1.296520e+01
5.343969e+01	-1.301295e+01
5.374836e+01	-1.306042e+01
5.405880e+01	-1.310795e+01
5.437105e+01	-1.315563e+01
5.468509e+01	-1.320289e+01
5.500095e+01	-1.325129e+01
5.531863e+01	-1.329831e+01
5.563815e+01	-1.334588e+01
5.595951e+01	-1.339355e+01
5.628273e+01	-1.344213e+01
5.660782e+01	-1.348996e+01
5.693479e+01	-1.353706e+01
5.726364e+01	-1.358437e+01
5.759439e+01	-1.363239e+01
5.792705e+01	-1.368093e+01
5.826164e+01	-1.372824e+01
5.859815e+01	-1.377600e+01
5.893662e+01	-1.382453e+01
5.927703e+01	-1.387294e+01
5.961941e+01	-1.392011e+01
5.996377e+01	-1.396851e+01
6.031012e+01	-1.401634e+01
6.065847e+01	-1.406445e+01
6.100883e+01	-1.411243e+01
6.136121e+01	-1.416044e+01
6.171563e+01	-1.420878e+01
6.207210e+01	-1.425747e+01
6.243063e+01	-1.430475e+01
6.279122e+01	-1.435346e+01
6.315390e+01	-1.440015e+01
6.351868e+01	-1.444986e+01
6.388556e+01	-1.449729e+01
6.425456e+01	-1.454591e+01
6.462569e+01	-1.459456e+01
6.499897e+01	-1.464235e+01
6.537440e+01	-1.469123e+01
6.575200e+01	-1.473874e+01
6.613178e+01	-1.478726e+01
6.651375e+01	-1.483634e+01
6.689793e+01	-1.488443e+01
6.728433e+01	-1.493247e+01
6.767297e+01	-1.498174e+01
6.806384e+01	-1.502855e+01
6.845698e+01	-1.507857e+01
6.885238e+01	-1.512662e+01
6.925007e+01	-1.517561e+01
6.965005e+01	-1.522374e+01
7.005235e+01	-1.527368e+01
7.045697e+01	-1.532051e+01
7.086393e+01	-1.536859e+01
7.127323e+01	-1.541843e+01
7.168490e+01	-1.546644e+01
7.209895e+01	-1.551458e+01
7.251539e+01	-1.556374e+01
7.293424e+01	-1.561227e+01
7.335551e+01	-1.566177e+01
7.377920e+01	-1.571052e+01
7.420535e+01	-1.575840e+01
7.463396e+01	-1.580778e+01
7.506504e+01	-1.585645e+01
7.549861e+01	-1.590480e+01
7.593469e+01	-1.595269e+01
7.637328e+01	-1.600144e+01
7.681441e+01	-1.605075e+01
7.725809e+01	-1.609865e+01
7.770433e+01	-1.614872e+01
7.815315e+01	-1.619787e+01
7.860456e+01	-1.624696e+01
7.905857e+01	-1.629480e+01
7.951521e+01	-1.634341e+01
7.997449e+01	-1.639277e+01
8.043642e+01	-1.644161e+01
8.090102e+01	-1.649109e+01
8.136830e+01	-1.653964e+01
8.183828e+01	-1.658842e+01
8.231097e+01	-1.663759e+01
8.278640e+01	-1.668626e+01
8.326457e+01	-1.673560e+01
8.374550e+01	-1.678409e+01
8.422921e+01	-1.683390e+01
8.471572e+01	-1.688297e+01
8.520503e+01	-1.693153e+01
8.569717e+01	-1.697978e+01
8.619215e+01	-1.702994e+01
8.669000e+01	-1.707899e+01
8.719071e+01	-1.712838e+01
8.769432e+01	-1.717774e+01
8.820084e+01	-1.722576e+01
8.871029e+01	-1.727454e+01
8.922267e+01	-1.732549e+01
8.973802e+01	-1.737289e+01
9.025634e+01	-1.742293e+01
9.077766e+01	-1.747084e+01
9.130199e+01	-1.752055e+01
9.182935e+01	-1.756952e+01
9.235975e+01	-1.761966e+01
9.289321e+01	-1.766837e+01
9.342976e+01	-1.771631e+01
9.396941e+01	-1.776541e+01
9.451217e+01	-1.781579e+01
9.505807e+01	-1.786546e+01
9.560712e+01	-1.791433e+01
9.615934e+01	-1.796196e+01
9.671476e+01	-1.801317e+01
9.727338e+01	-1.806108e+01
9.783522e+01	-1.810923e+01
9.840032e+01	-1.815959e+01
9.896867e+01	-1.820969e+01
9.954031e+01	-1.825911e+01
1.001153e+02	-1.830711e+01
1.006935e+02	-1.835685e+01
1.012751e+02	-1.840629e+01
1.018601e+02	-1.845506e+01
1.024484e+02	-1.850556e+01
1.030402e+02	-1.855509e+01
1.036353e+02	-1.860325e+01
1.042339e+02	-1.865315e+01
1.048360e+02	-1.870255e+01
1.054415e+02	-1.875105e+01
1.060505e+02	-1.880037e+01
1.066631e+02	-1.885016e+01
1.072791e+02	-1.889995e+01
1.078988e+02	-1.894939e+01
1.085220e+02	-1.899851e+01
1.091488e+02	-1.904905e+01
1.097793e+02	-1.909657e+01
1.104133e+02	-1.914658e+01
1.110511e+02	-1.919515e+01
1.116925e+02	-1.924659e+01
1.123376e+02	-1.929519e+01
1.129865e+02	-1.934543e+01
1.136391e+02	-1.939357e+01
1.142955e+02	-1.944167e+01
1.149556e+02	-1.949422e+01
1.156196e+02	-1.954267e+01
1.162874e+02	-1.959381e+01
1.169591e+02	-1.964220e+01
1.176347e+02	-1.969057e+01
1.183141e+02	-1.974047e+01
1.189975e+02	-1.978894e+01
1.196848e+02	-1.983855e+01
1.203761e+02	-1.988897e+01
1.210714e+02	-1.993957e+01
1.217707e+02	-1.998858e+01
1.224740e+02	-2.003739e+01
1.231814e+02	-2.008668e+01
1.238929e+02	-2.013734e+01
1.246085e+02	-2.018804e+01
1.253283e+02	-2.023542e+01
1.260522e+02	-2.028478e+01
1.267802e+02	-2.033587e+01
1.275125e+02	-2.038569e+01
1.282490e+02	-2.043367e+01
1.289898e+02	-2.048492e+01
1.297348e+02	-2.053341e+01
1.304842e+02	-2.058244e+01
1.312378e+02	-2.063323e+01
1.319959e+02	-2.068236e+01
1.327583e+02	-2.073139e+01
1.335251e+02	-2.078052e+01
1.342963e+02	-2.083211e+01
1.350720e+02	-2.088133e+01
1.358522e+02	-2.093075e+01
1.366368e+02	-2.098048e+01
1.374260e+02	-2.102850e+01
1.382198e+02	-2.107878e+01
1.390182e+02	-2.113008e+01
1.398211e+02	-2.117848e+01
1.406287e+02	-2.122747e+01
1.414410e+02	-2.127634e+01
1.422579e+02	-2.132893e+01
1.430796e+02	-2.137785e+01
1.439060e+02	-2.142755e+01
1.447372e+02	-2.147603e+01
1.455732e+02	-2.152619e+01
1.464141e+02	-2.157591e+01
1.472597e+02	-2.162686e+01
1.481103e+02	-2.167504e+01
1.489658e+02	-2.172303e+01
1.498262e+02	-2.177443e+01
1.506916e+02	-2.182385e+01
1.515620e+02	-2.187389e+01
1.524374e+02	-2.192541e+01
1.533179e+02	-2.197239e+01
1.542034e+02	-2.202380e+01
1.550941e+02	-2.207175e+01
1.559899e+02	-2.212200e+01
1.568909e+02	-2.217241e+01
1.577971e+02	-2.222095e+01
1.587085e+02	-2.227248e+01
1.596252e+02	-2.232260e+01
1.605472e+02	-2.237157e+01
1.614745e+02	-2.242029e+01
1.624072e+02	-2.247220e+01
1.633453e+02	-2.252080e+01
1.642887e+02	-2.257168e+01
1.652377e+02	-2.261907e+01
1.661921e+02	-2.267197e+01
1.671520e+02	-2.271854e+01
1.681175e+02	-2.276831e+01
1.690885e+02	-2.282103e+01
1.700651e+02	-2.286909e+01
1.710474e+02	-2.292176e+01
1.720354e+02	-2.296881e+01
1.730291e+02	-2.301706e+01
1.740285e+02	-2.306815e+01
1.750337e+02	-2.311780e+01
1.760446e+02	-2.316917e+01
1.770615e+02	-2.322025e+01
1.780842e+02	-2.326760e+01
1.791128e+02	-2.331676e+01
1.801473e+02	-2.336773e+01
1.811878e+02	-2.341648e+01
1.822344e+02	-2.346606e+01
1.832870e+02	-2.351695e+01
1.843456e+02	-2.356396e+01
1.854104e+02	-2.361437e+01
1.864813e+02	-2.366885e+01
1.875584e+02	-2.371450e+01
1.886418e+02	-2.376627e+01
1.897313e+02	-2.381508e+01
1.908272e+02	-2.386386e+01
1.919294e+02	-2.391646e+01
1.930380e+02	-2.396517e+01
1.941530e+02	-2.401600e+01
1.952744e+02	-2.406574e+01
1.964023e+02	-2.411612e+01
1.975367e+02	-2.416542e+01
1.986777e+02	-2.421707e+01
1.998252e+02	-2.426450e+01
2.009794e+02	-2.431545e+01
2.021403e+02	-2.436554e+01
2.033078e+02	-2.441511e+01
2.044821e+02	-2.446451e+01
2.056632e+02	-2.451277e+01
2.068511e+02	-2.456388e+01
2.080459e+02	-2.461075e+01
2.092475e+02	-2.466393e+01
2.104561e+02	-2.471577e+01
2.116717e+02	-2.476443e+01
2.128943e+02	-2.481216e+01
2.141240e+02	-2.486345e+01
2.153608e+02	-2.491342e+01
2.166047e+02	-2.496268e+01
2.178558e+02	-2.501214e+01
2.191141e+02	-2.506295e+01
2.203797e+02	-2.511474e+01
2.216526e+02	-2.516086e+01
2.229329e+02	-2.521072e+01
2.242205e+02	-2.526380e+01
2.255156e+02	-2.531438e+01
2.268182e+02	-2.536167e+01
2.281283e+02	-2.540980e+01
2.294459e+02	-2.546417e+01
2.307712e+02	-2.551219e+01
2.321041e+02	-2.556485e+01
2.334447e+02	-2.561220e+01
2.347931e+02	-2.566351e+01
2.361493e+02	-2.570907e+01
2.375133e+02	-2.576076e+01
2.388851e+02	-2.581498e+01
2.402649e+02	-2.585788e+01
2.416527e+02	-2.591180e+01
2.430484e+02	-2.596328e+01
2.444523e+02	-2.601050e+01
2.458642e+02	-2.606095e+01
2.472843e+02	-2.611087e+01
2.487126e+02	-2.616094e+01
2.501492e+02	-2.621187e+01
2.515940e+02	-2.625857e+01
2.530472e+02	-2.631071e+01
2.545088e+02	-2.636378e+01
2.559789e+02	-2.641136e+01
2.574574e+02	-2.646223e+01
2.589444e+02	-2.651280e+01
2.604401e+02	-2.656151e+01
2.619444e+02	-2.661217e+01
2.634574e+02	-2.666120e+01
2.649791e+02	-2.671393e+01
2.665096e+02	-2.676162e+01
2.680489e+02	-2.681260e+01
2.695972e+02	-2.685854e+01
2.711544e+02	-2.691244e+01
2.727205e+02	-2.696033e+01
2.742958e+02	-2.701036e+01
2.758801e+02	-2.706076e+01
2.774736e+02	-2.711082e+01
2.790762e+02	-2.716191e+01
2.806882e+02	-2.720958e+01
2.823094e+02	-2.726117e+01
2.839400e+02	-2.731256e+01
2.855800e+02	-2.735975e+01
2.872295e+02	-2.741009e+01
2.888886e+02	-2.746226e+01
2.905572e+02	-2.751062e+01
2.922354e+02	-2.756133e+01
2.939234e+02	-2.761025e+01
2.956211e+02	-2.766298e+01
2.973286e+02	-2.771213e+01
2.990459e+02	-2.776349e+01
3.007732e+02	-2.781132e+01
3.025104e+02	-2.786427e+01
3.042577e+02	-2.791193e+01
3.060151e+02	-2.795904e+01
3.077826e+02	-2.801376e+01
3.095604e+02	-2.806091e+01
3.113484e+02	-2.811157e+01
3.131467e+02	-2.816089e+01
3.149554e+02	-2.821162e+01
3.167746e+02	-2.826219e+01
3.186043e+02	-2.831433e+01
3.204445e+02	-2.836193e+01
3.222954e+02	-2.840811e+01
3.241570e+02	-2.846401e+01
3.260293e+02	-2.851395e+01
3.279124e+02	-2.855972e+01
3.298064e+02	-2.861519e+01
3.317114e+02	-2.866341e+01
3.336273e+02	-2.871028e+01
3.355544e+02	-2.876122e+01
3.374925e+02	-2.881165e+01
3.394418e+02	-2.886043e+01
3.414024e+02	-2.890984e+01
3.433744e+02	-2.895882e+01
3.453577e+02	-2.901020e+01
3.473525e+02	-2.906220e+01
3.493588e+02	-2.910986e+01
3.513766e+02	-2.915958e+01
3.534062e+02	-2.922047e+01
3.554474e+02	-2.926290e+01
3.575005e+02	-2.931007e+01
3.595654e+02	-2.936090e+01
3.616422e+02	-2.941042e+01
3.637311e+02	-2.946222e+01
3.658320e+02	-2.951172e+01
3.679450e+02	-2.956241e+01
3.700702e+02	-2.961114e+01
3.722077e+02	-2.966492e+01
3.743576e+02	-2.971243e+01
3.765199e+02	-2.976228e+01
3.786946e+02	-2.981175e+01
3.808820e+02	-2.986772e+01
3.830819e+02	-2.991237e+01
3.852946e+02	-2.996611e+01
3.875200e+02	-3.001520e+01
3.897583e+02	-3.006336e+01
3.920096e+02	-3.011500e+01
3.942738e+02	-3.016284e+01
3.965511e+02	-3.021269e+01
3.988416e+02	-3.026497e+01
4.011452e+02	-3.031397e+01
4.034622e+02	-3.036610e+01
4.057926e+02	-3.041468e+01
4.081365e+02	-3.046380e+01
4.104938e+02	-3.051612e+01
4.128648e+02	-3.056126e+01
4.152495e+02	-3.061646e+01
4.176480e+02	-3.066645e+01
4.200603e+02	-3.071714e+01
4.224866e+02	-3.076665e+01
4.249268e+02	-3.082023e+01
4.273812e+02	-3.086432e+01
4.298497e+02	-3.091009e+01
4.323325e+02	-3.096199e+01
4.348297e+02	-3.101640e+01
4.373412e+02	-3.106938e+01
4.398673e+02	-3.111722e+01
4.424079e+02	-3.116783e+01
4.449633e+02	-3.121305e+01
4.475334e+02	-3.126626e+01
4.501183e+02	-3.131614e+01
4.527182e+02	-3.136212e+01
4.553330e+02	-3.141611e+01
4.579630e+02	-3.146407e+01
4.606082e+02	-3.151301e+01
4.632687e+02	-3.156816e+01
4.659445e+02	-3.160992e+01
4.686358e+02	-3.167027e+01
4.713426e+02	-3.171940e+01
4.740650e+02	-3.176779e+01
4.768032e+02	-3.181724e+01
4.795572e+02	-3.187033e+01
4.823271e+02	-3.192216e+01
4.851130e+02	-3.197193e+01
4.879150e+02	-3.201644e+01
4.907332e+02	-3.207254e+01
4.935676e+02	-3.211654e+01
4.964185e+02	-3.216426e+01
4.992858e+02	-3.221716e+01
5.021696e+02	-3.227124e+01
5.050701e+02	-3.232336e+01
5.079874e+02	-3.236538e+01
5.109215e+02	-3.242330e+01
5.138726e+02	-3.246618e+01
5.168407e+02	-3.252641e+01
5.198259e+02	-3.257288e+01
5.228284e+02	-3.262076e+01
5.258482e+02	-3.267036e+01
5.288855e+02	-3.271912e+01
5.319403e+02	-3.276991e+01
5.350128e+02	-3.281668e+01
5.381030e+02	-3.287783e+01
5.412111e+02	-3.293076e+01
5.443371e+02	-3.297543e+01
5.474812e+02	-3.302918e+01
5.506434e+02	-3.307810e+01
5.538239e+02	-3.312284e+01
5.570228e+02	-3.318054e+01
5.602401e+02	-3.322876e+01
5.634760e+02	-3.327466e+01
5.667306e+02	-3.332758e+01
5.700040e+02	-3.337181e+01
5.732964e+02	-3.343230e+01
5.766077e+02	-3.347509e+01
5.799382e+02	-3.352665e+01
5.832879e+02	-3.356880e+01
5.866569e+02	-3.362150e+01
5.900454e+02	-3.367960e+01
5.934535e+02	-3.373297e+01
5.968813e+02	-3.377810e+01
6.003288e+02	-3.382958e+01
6.037963e+02	-3.389072e+01
6.072838e+02	-3.393086e+01
6.107914e+02	-3.398218e+01
6.143194e+02	-3.403538e+01
6.178676e+02	-3.408094e+01
6.214364e+02	-3.413771e+01
6.250258e+02	-3.418164e+01
6.286359e+02	-3.422595e+01
6.322669e+02	-3.429258e+01
6.359189e+02	-3.432136e+01
6.395919e+02	-3.438345e+01
6.432862e+02	-3.443599e+01
6.470017e+02	-3.448145e+01
6.507388e+02	-3.452758e+01
6.544974e+02	-3.457837e+01
6.582778e+02	-3.462791e+01
6.620800e+02	-3.467671e+01
6.659041e+02	-3.473562e+01
6.697504e+02	-3.478470e+01
6.736188e+02	-3.483048e+01
6.775096e+02	-3.488653e+01
6.814229e+02	-3.494203e+01
6.853587e+02	-3.498177e+01
6.893173e+02	-3.503493e+01
6.932988e+02	-3.508840e+01
6.973033e+02	-3.514154e+01
7.013309e+02	-3.518917e+01
