Frequency(Hz)	Magnitude(dB)
1.000000e+01	-1.708110e-05
1.005776e+01	-1.727899e-05
1.011585e+01	-1.747917e-05
1.017428e+01	-1.768167e-05
1.023305e+01	-1.788651e-05
1.029215e+01	-1.809373e-05
1.035160e+01	-1.830335e-05
1.041139e+01	-1.851540e-05
1.047153e+01	-1.872991e-05
1.053201e+01	-1.894690e-05
1.059284e+01	-1.916640e-05
1.065403e+01	-1.938845e-05
1.071556e+01	-1.961307e-05
1.077746e+01	-1.984029e-05
1.083971e+01	-2.007015e-05
1.090232e+01	-2.030267e-05
1.096529e+01	-2.053788e-05
1.102862e+01	-2.077582e-05
1.109232e+01	-2.101651e-05
1.115639e+01	-2.125999e-05
1.122083e+01	-2.150629e-05
1.128564e+01	-2.175545e-05
1.135083e+01	-2.200749e-05
1.141639e+01	-2.226245e-05
1.148233e+01	-2.252037e-05
1.154865e+01	-2.278127e-05
1.161536e+01	-2.304520e-05
1.168245e+01	-2.331218e-05
1.174992e+01	-2.358226e-05
1.181779e+01	-2.385547e-05
1.188605e+01	-2.413184e-05
1.195470e+01	-2.441141e-05
1.202375e+01	-2.469422e-05
1.209320e+01	-2.498031e-05
1.216305e+01	-2.526972e-05
1.223330e+01	-2.556247e-05
1.230396e+01	-2.585862e-05
1.237503e+01	-2.615820e-05
1.244651e+01	-2.646125e-05
1.251840e+01	-2.676781e-05
1.259070e+01	-2.707792e-05
1.266343e+01	-2.739162e-05
1.273657e+01	-2.770896e-05
1.281014e+01	-2.802998e-05
1.288413e+01	-2.835471e-05
1.295855e+01	-2.868321e-05
1.303339e+01	-2.901551e-05
1.310867e+01	-2.935166e-05
1.318439e+01	-2.969171e-05
1.326054e+01	-3.003569e-05
1.333713e+01	-3.038366e-05
1.341417e+01	-3.073567e-05
1.349165e+01	-3.109175e-05
1.356958e+01	-3.145195e-05
1.364795e+01	-3.181633e-05
1.372678e+01	-3.218493e-05
1.380607e+01	-3.255780e-05
1.388581e+01	-3.293499e-05
1.396602e+01	-3.331655e-05
1.404668e+01	-3.370253e-05
1.412782e+01	-3.409298e-05
1.420942e+01	-3.448795e-05
1.429149e+01	-3.488751e-05
1.437404e+01	-3.529169e-05
1.445706e+01	-3.570055e-05
1.454057e+01	-3.611415e-05
1.462455e+01	-3.653254e-05
1.470902e+01	-3.695578e-05
1.479398e+01	-3.738392e-05
1.487943e+01	-3.781702e-05
1.496537e+01	-3.825514e-05
1.505181e+01	-3.869833e-05
1.513875e+01	-3.914666e-05
1.522619e+01	-3.960018e-05
1.531414e+01	-4.005896e-05
1.540259e+01	-4.052305e-05
1.549156e+01	-4.099252e-05
1.558103e+01	-4.146743e-05
1.567103e+01	-4.194784e-05
1.576155e+01	-4.243381e-05
1.585258e+01	-4.292542e-05
1.594415e+01	-4.342272e-05
1.603624e+01	-4.392578e-05
1.612886e+01	-4.443467e-05
1.622202e+01	-4.494946e-05
1.631572e+01	-4.547021e-05
1.640996e+01	-4.599699e-05
1.650474e+01	-4.652987e-05
1.660008e+01	-4.706893e-05
1.669596e+01	-4.761424e-05
1.679239e+01	-4.816586e-05
1.688938e+01	-4.872387e-05
1.698694e+01	-4.928835e-05
1.708505e+01	-4.985936e-05
1.718373e+01	-5.043699e-05
1.728299e+01	-5.102132e-05
1.738281e+01	-5.161241e-05
1.748322e+01	-5.221035e-05
1.758420e+01	-5.281522e-05
1.768576e+01	-5.342709e-05
1.778792e+01	-5.404606e-05
1.789066e+01	-5.467219e-05
1.799399e+01	-5.530558e-05
1.809793e+01	-5.594631e-05
1.820246e+01	-5.659446e-05
1.830760e+01	-5.725011e-05
1.841334e+01	-5.791337e-05
1.851969e+01	-5.858431e-05
1.862666e+01	-5.926302e-05
1.873425e+01	-5.994959e-05
1.884246e+01	-6.064412e-05
1.895129e+01	-6.134669e-05
1.906075e+01	-6.205741e-05
1.917085e+01	-6.277635e-05
1.928158e+01	-6.350363e-05
1.939295e+01	-6.423933e-05
1.950496e+01	-6.498356e-05
1.961762e+01	-6.573640e-05
1.973093e+01	-6.649797e-05
1.984490e+01	-6.726836e-05
1.995952e+01	-6.804768e-05
2.007480e+01	-6.883603e-05
2.019076e+01	-6.963350e-05
2.030738e+01	-7.044022e-05
2.042467e+01	-7.125628e-05
2.054264e+01	-7.208180e-05
2.066130e+01	-7.291688e-05
2.078064e+01	-7.376164e-05
2.090066e+01	-7.461618e-05
2.102139e+01	-7.548062e-05
2.114280e+01	-7.635508e-05
2.126492e+01	-7.723966e-05
2.138775e+01	-7.813450e-05
2.151128e+01	-7.903970e-05
2.163553e+01	-7.995539e-05
2.176050e+01	-8.088169e-05
2.188619e+01	-8.181871e-05
2.201260e+01	-8.276660e-05
2.213974e+01	-8.372546e-05
2.226762e+01	-8.469544e-05
2.239624e+01	-8.567665e-05
2.252560e+01	-8.666923e-05
2.265571e+01	-8.767330e-05
2.278656e+01	-8.868901e-05
2.291818e+01	-8.971649e-05
2.305055e+01	-9.075587e-05
2.318369e+01	-9.180729e-05
2.331760e+01	-9.287089e-05
2.345228e+01	-9.394681e-05
2.358774e+01	-9.503520e-05
2.372398e+01	-9.613620e-05
2.386101e+01	-9.724995e-05
2.399883e+01	-9.837661e-05
2.413745e+01	-9.951631e-05
2.427686e+01	-1.006692e-04
2.441709e+01	-1.018355e-04
2.455812e+01	-1.030153e-04
2.469997e+01	-1.042087e-04
2.484263e+01	-1.054160e-04
2.498612e+01	-1.066372e-04
2.513044e+01	-1.078727e-04
2.527559e+01	-1.091224e-04
2.542158e+01	-1.103866e-04
2.556842e+01	-1.116654e-04
2.571610e+01	-1.129591e-04
2.586463e+01	-1.142677e-04
2.601403e+01	-1.155915e-04
2.616428e+01	-1.169307e-04
2.631541e+01	-1.182853e-04
2.646740e+01	-1.196557e-04
2.662028e+01	-1.210419e-04
2.677404e+01	-1.224442e-04
2.692868e+01	-1.238627e-04
2.708422e+01	-1.252977e-04
2.724066e+01	-1.267493e-04
2.739800e+01	-1.282177e-04
2.755625e+01	-1.297031e-04
2.771541e+01	-1.312057e-04
2.787550e+01	-1.327257e-04
2.803650e+01	-1.342634e-04
2.819844e+01	-1.358188e-04
2.836131e+01	-1.373923e-04
2.852513e+01	-1.389840e-04
2.868989e+01	-1.405942e-04
2.885560e+01	-1.422229e-04
2.902227e+01	-1.438706e-04
2.918990e+01	-1.455374e-04
2.935850e+01	-1.472234e-04
2.952807e+01	-1.489290e-04
2.969863e+01	-1.506544e-04
2.987016e+01	-1.523997e-04
3.004269e+01	-1.541653e-04
3.021622e+01	-1.559513e-04
3.039075e+01	-1.577580e-04
3.056628e+01	-1.595856e-04
3.074283e+01	-1.614345e-04
3.092040e+01	-1.633047e-04
3.109900e+01	-1.651966e-04
3.127862e+01	-1.671104e-04
3.145929e+01	-1.690464e-04
3.164099e+01	-1.710048e-04
3.182375e+01	-1.729859e-04
3.200756e+01	-1.749899e-04
3.219244e+01	-1.770172e-04
3.237838e+01	-1.790679e-04
3.256540e+01	-1.811425e-04
3.275349e+01	-1.832410e-04
3.294268e+01	-1.853638e-04
3.313295e+01	-1.875113e-04
3.332433e+01	-1.896836e-04
3.351681e+01	-1.918811e-04
3.371040e+01	-1.941041e-04
3.390511e+01	-1.963527e-04
3.410094e+01	-1.986275e-04
3.429791e+01	-2.009286e-04
3.449601e+01	-2.032564e-04
3.469526e+01	-2.056111e-04
3.489566e+01	-2.079931e-04
3.509721e+01	-2.104027e-04
3.529993e+01	-2.128402e-04
3.550382e+01	-2.153060e-04
3.570889e+01	-2.178003e-04
3.591515e+01	-2.203235e-04
3.612259e+01	-2.228759e-04
3.633123e+01	-2.254579e-04
3.654108e+01	-2.280699e-04
3.675214e+01	-2.307120e-04
3.696442e+01	-2.333848e-04
3.717792e+01	-2.360886e-04
3.739266e+01	-2.388237e-04
3.760864e+01	-2.415904e-04
3.782587e+01	-2.443892e-04
3.804435e+01	-2.472205e-04
3.826409e+01	-2.500845e-04
3.848510e+01	-2.529817e-04
3.870739e+01	-2.559125e-04
3.893096e+01	-2.588772e-04
3.915583e+01	-2.618763e-04
3.938199e+01	-2.649101e-04
3.960946e+01	-2.679791e-04
3.983824e+01	-2.710836e-04
4.006834e+01	-2.742241e-04
4.029978e+01	-2.774010e-04
4.053255e+01	-2.806146e-04
4.076666e+01	-2.838655e-04
4.100213e+01	-2.871541e-04
4.123896e+01	-2.904807e-04
4.147715e+01	-2.938459e-04
4.171672e+01	-2.972501e-04
4.195767e+01	-3.006937e-04
4.220002e+01	-3.041772e-04
4.244377e+01	-3.077010e-04
4.268892e+01	-3.112657e-04
4.293549e+01	-3.148717e-04
4.318348e+01	-3.185194e-04
4.343291e+01	-3.222094e-04
4.368377e+01	-3.259421e-04
4.393609e+01	-3.297181e-04
4.418986e+01	-3.335379e-04
4.444510e+01	-3.374018e-04
4.470182e+01	-3.413106e-04
4.496001e+01	-3.452646e-04
4.521970e+01	-3.492644e-04
4.548089e+01	-3.533106e-04
4.574358e+01	-3.574036e-04
4.600779e+01	-3.615441e-04
4.627353e+01	-3.657325e-04
4.654081e+01	-3.699694e-04
4.680963e+01	-3.742554e-04
4.708000e+01	-3.785911e-04
4.735193e+01	-3.829770e-04
4.762543e+01	-3.874137e-04
4.790051e+01	-3.919018e-04
4.817719e+01	-3.964419e-04
4.845545e+01	-4.010345e-04
4.873533e+01	-4.056804e-04
4.901682e+01	-4.103801e-04
4.929994e+01	-4.151342e-04
4.958470e+01	-4.199435e-04
4.987110e+01	-4.248084e-04
5.015915e+01	-4.297297e-04
5.044887e+01	-4.347080e-04
5.074026e+01	-4.397439e-04
5.103333e+01	-4.448382e-04
5.132810e+01	-4.499915e-04
5.162457e+01	-4.552045e-04
5.192275e+01	-4.604779e-04
5.222265e+01	-4.658124e-04
5.252429e+01	-4.712087e-04
5.282767e+01	-4.766674e-04
5.313280e+01	-4.821895e-04
5.343969e+01	-4.877754e-04
5.374836e+01	-4.934261e-04
5.405880e+01	-4.991423e-04
5.437105e+01	-5.049246e-04
5.468509e+01	-5.107740e-04
5.500095e+01	-5.166911e-04
5.531863e+01	-5.226767e-04
5.563815e+01	-5.287317e-04
5.595951e+01	-5.348569e-04
5.628273e+01	-5.410529e-04
5.660782e+01	-5.473208e-04
5.693479e+01	-5.536612e-04
5.726364e+01	-5.600752e-04
5.759439e+01	-5.665634e-04
5.792705e+01	-5.731267e-04
5.826164e+01	-5.797661e-04
5.859815e+01	-5.864824e-04
5.893662e+01	-5.932765e-04
5.927703e+01	-6.001493e-04
5.961941e+01	-6.071017e-04
5.996377e+01	-6.141346e-04
6.031012e+01	-6.212491e-04
6.065847e+01	-6.284459e-04
6.100883e+01	-6.357261e-04
6.136121e+01	-6.430906e-04
6.171563e+01	-6.505404e-04
6.207210e+01	-6.580765e-04
6.243063e+01	-6.656999e-04
6.279122e+01	-6.734116e-04
6.315390e+01	-6.812127e-04
6.351868e+01	-6.891041e-04
6.388556e+01	-6.970869e-04
6.425456e+01	-7.051622e-04
6.462569e+01	-7.133310e-04
6.499897e+01	-7.215945e-04
6.537440e+01	-7.299537e-04
6.575200e+01	-7.384097e-04
6.613178e+01	-7.469636e-04
6.651375e+01	-7.556166e-04
6.689793e+01	-7.643699e-04
6.728433e+01	-7.732245e-04
6.767297e+01	-7.821817e-04
6.806384e+01	-7.912427e-04
6.845698e+01	-8.004086e-04
6.885238e+01	-8.096807e-04
6.925007e+01	-8.190602e-04
6.965005e+01	-8.285483e-04
7.005235e+01	-8.381464e-04
7.045697e+01	-8.478556e-04
7.086393e+01	-8.576772e-04
7.127323e+01	-8.676127e-04
7.168490e+01	-8.776632e-04
7.209895e+01	-8.878301e-04
7.251539e+01	-8.981148e-04
7.293424e+01	-9.085186e-04
7.335551e+01	-9.190429e-04
7.377920e+01	-9.296892e-04
7.420535e+01	-9.404587e-04
7.463396e+01	-9.513530e-04
7.506504e+01	-9.623734e-04
7.549861e+01	-9.735215e-04
7.593469e+01	-9.847988e-04
7.637328e+01	-9.962066e-04
7.681441e+01	-1.007747e-03
7.725809e+01	-1.019420e-03
7.770433e+01	-1.031229e-03
7.815315e+01	-1.043175e-03
7.860456e+01	-1.055259e-03
7.905857e+01	-1.067483e-03
7.951521e+01	-1.079848e-03
7.997449e+01	-1.092357e-03
8.043642e+01	-1.105011e-03
8.090102e+01	-1.117811e-03
8.136830e+01	-1.130759e-03
8.183828e+01	-1.143858e-03
8.231097e+01	-1.157108e-03
8.278640e+01	-1.170511e-03
8.326457e+01	-1.184070e-03
8.374550e+01	-1.197786e-03
8.422921e+01	-1.211661e-03
8.471572e+01	-1.225696e-03
8.520503e+01	-1.239894e-03
8.569717e+01	-1.254257e-03
8.619215e+01	-1.268786e-03
8.669000e+01	-1.283483e-03
8.719071e+01	-1.298350e-03
8.769432e+01	-1.313389e-03
8.820084e+01	-1.328603e-03
8.871029e+01	-1.343993e-03
8.922267e+01	-1.359561e-03
8.973802e+01	-1.375309e-03
9.025634e+01	-1.391240e-03
9.077766e+01	-1.407355e-03
9.130199e+01	-1.423657e-03
9.182935e+01	-1.440148e-03
9.235975e+01	-1.456830e-03
9.289321e+01	-1.473705e-03
9.342976e+01	-1.490775e-03
9.396941e+01	-1.508043e-03
9.451217e+01	-1.525511e-03
9.505807e+01	-1.543181e-03
9.560712e+01	-1.561056e-03
9.615934e+01	-1.579138e-03
9.671476e+01	-1.597430e-03
9.727338e+01	-1.615933e-03
9.783522e+01	-1.634650e-03
9.840032e+01	-1.653585e-03
9.896867e+01	-1.672738e-03
9.954031e+01	-1.692113e-03
1.001153e+02	-1.711713e-03
1.006935e+02	-1.731540e-03
1.012751e+02	-1.751596e-03
1.018601e+02	-1.771885e-03
1.024484e+02	-1.792408e-03
1.030402e+02	-1.813169e-03
1.036353e+02	-1.834171e-03
1.042339e+02	-1.855416e-03
1.048360e+02	-1.876907e-03
1.054415e+02	-1.898646e-03
1.060505e+02	-1.920638e-03
1.066631e+02	-1.942884e-03
1.072791e+02	-1.965388e-03
1.078988e+02	-1.988152e-03
1.085220e+02	-2.011180e-03
1.091488e+02	-2.034475e-03
1.097793e+02	-2.058039e-03
1.104133e+02	-2.081876e-03
1.110511e+02	-2.105989e-03
1.116925e+02	-2.130382e-03
1.123376e+02	-2.155057e-03
1.129865e+02	-2.180017e-03
1.136391e+02	-2.205267e-03
1.142955e+02	-2.230809e-03
1.149556e+02	-2.256647e-03
1.156196e+02	-2.282784e-03
1.162874e+02	-2.309224e-03
1.169591e+02	-2.335969e-03
1.176347e+02	-2.363025e-03
1.183141e+02	-2.390393e-03
1.189975e+02	-2.418079e-03
1.196848e+02	-2.446085e-03
1.203761e+02	-2.474416e-03
1.210714e+02	-2.503074e-03
1.217707e+02	-2.532065e-03
1.224740e+02	-2.561391e-03
1.231814e+02	-2.591056e-03
1.238929e+02	-2.621065e-03
1.246085e+02	-2.651421e-03
1.253283e+02	-2.682129e-03
1.260522e+02	-2.713193e-03
1.267802e+02	-2.744616e-03
1.275125e+02	-2.776403e-03
1.282490e+02	-2.808558e-03
1.289898e+02	-2.841085e-03
1.297348e+02	-2.873989e-03
1.304842e+02	-2.907274e-03
1.312378e+02	-2.940944e-03
1.319959e+02	-2.975004e-03
1.327583e+02	-3.009458e-03
1.335251e+02	-3.044311e-03
1.342963e+02	-3.079568e-03
1.350720e+02	-3.115232e-03
1.358522e+02	-3.151310e-03
1.366368e+02	-3.187805e-03
1.374260e+02	-3.224723e-03
1.382198e+02	-3.262068e-03
1.390182e+02	-3.299846e-03
1.398211e+02	-3.338061e-03
1.406287e+02	-3.376718e-03
1.414410e+02	-3.415823e-03
1.422579e+02	-3.455380e-03
1.430796e+02	-3.495396e-03
1.439060e+02	-3.535874e-03
1.447372e+02	-3.576821e-03
1.455732e+02	-3.618242e-03
1.464141e+02	-3.660143e-03
1.472597e+02	-3.702529e-03
1.481103e+02	-3.745405e-03
1.489658e+02	-3.788777e-03
1.498262e+02	-3.832652e-03
1.506916e+02	-3.877034e-03
1.515620e+02	-3.921931e-03
1.524374e+02	-3.967346e-03
1.533179e+02	-4.013288e-03
1.542034e+02	-4.059761e-03
1.550941e+02	-4.106772e-03
1.559899e+02	-4.154327e-03
1.568909e+02	-4.202433e-03
1.577971e+02	-4.251095e-03
1.587085e+02	-4.300321e-03
1.596252e+02	-4.350116e-03
1.605472e+02	-4.400488e-03
1.614745e+02	-4.451443e-03
1.624072e+02	-4.502987e-03
1.633453e+02	-4.555128e-03
1.642887e+02	-4.607872e-03
1.652377e+02	-4.661227e-03
1.661921e+02	-4.715199e-03
1.671520e+02	-4.769795e-03
1.681175e+02	-4.825024e-03
1.690885e+02	-4.880892e-03
1.700651e+02	-4.937406e-03
1.710474e+02	-4.994574e-03
1.720354e+02	-5.052404e-03
1.730291e+02	-5.110903e-03
1.740285e+02	-5.170078e-03
1.750337e+02	-5.229939e-03
1.760446e+02	-5.290492e-03
1.770615e+02	-5.351746e-03
1.780842e+02	-5.413709e-03
1.791128e+02	-5.476388e-03
1.801473e+02	-5.539793e-03
1.811878e+02	-5.603931e-03
1.822344e+02	-5.668812e-03
1.832870e+02	-5.734443e-03
1.843456e+02	-5.800834e-03
1.854104e+02	-5.867992e-03
1.864813e+02	-5.935928e-03
1.875584e+02	-6.004649e-03
1.886418e+02	-6.074166e-03
1.897313e+02	-6.144487e-03
1.908272e+02	-6.215621e-03
1.919294e+02	-6.287579e-03
1.930380e+02	-6.360368e-03
1.941530e+02	-6.434000e-03
1.952744e+02	-6.508484e-03
1.964023e+02	-6.583829e-03
1.975367e+02	-6.660045e-03
1.986777e+02	-6.737144e-03
1.998252e+02	-6.815134e-03
2.009794e+02	-6.894026e-03
2.021403e+02	-6.973831e-03
2.033078e+02	-7.054559e-03
2.044821e+02	-7.136220e-03
2.056632e+02	-7.218826e-03
2.068511e+02	-7.302388e-03
2.080459e+02	-7.386915e-03
2.092475e+02	-7.472421e-03
2.104561e+02	-7.558915e-03
2.116717e+02	-7.646410e-03
2.128943e+02	-7.734916e-03
2.141240e+02	-7.824446e-03
2.153608e+02	-7.915012e-03
2.166047e+02	-8.006624e-03
2.178558e+02	-8.099296e-03
2.191141e+02	-8.193040e-03
2.203797e+02	-8.287868e-03
2.216526e+02	-8.383792e-03
2.229329e+02	-8.480825e-03
2.242205e+02	-8.578980e-03
2.255156e+02	-8.678270e-03
2.268182e+02	-8.778708e-03
2.281283e+02	-8.880307e-03
2.294459e+02	-8.983081e-03
2.307712e+02	-9.087043e-03
2.321041e+02	-9.192207e-03
2.334447e+02	-9.298587e-03
2.347931e+02	-9.406197e-03
2.361493e+02	-9.515050e-03
2.375133e+02	-9.625162e-03
2.388851e+02	-9.736546e-03
2.402649e+02	-9.849218e-03
2.416527e+02	-9.963193e-03
2.430484e+02	-1.007848e-02
2.444523e+02	-1.019511e-02
2.458642e+02	-1.031308e-02
2.472843e+02	-1.043242e-02
2.487126e+02	-1.055313e-02
2.501492e+02	-1.067524e-02
2.515940e+02	-1.079876e-02
2.530472e+02	-1.092371e-02
2.545088e+02	-1.105010e-02
2.559789e+02	-1.117796e-02
2.574574e+02	-1.130729e-02
2.589444e+02	-1.143811e-02
2.604401e+02	-1.157045e-02
2.619444e+02	-1.170431e-02
2.634574e+02	-1.183972e-02
2.649791e+02	-1.197670e-02
2.665096e+02	-1.211526e-02
2.680489e+02	-1.225542e-02
2.695972e+02	-1.239720e-02
2.711544e+02	-1.254062e-02
2.727205e+02	-1.268569e-02
2.742958e+02	-1.283244e-02
2.758801e+02	-1.298088e-02
2.774736e+02	-1.313104e-02
2.790762e+02	-1.328293e-02
2.806882e+02	-1.343658e-02
2.823094e+02	-1.359200e-02
2.839400e+02	-1.374922e-02
2.855800e+02	-1.390825e-02
2.872295e+02	-1.406912e-02
2.888886e+02	-1.423185e-02
2.905572e+02	-1.439645e-02
2.922354e+02	-1.456296e-02
2.939234e+02	-1.473139e-02
2.956211e+02	-1.490176e-02
2.973286e+02	-1.507410e-02
2.990459e+02	-1.524843e-02
3.007732e+02	-1.542477e-02
3.025104e+02	-1.560315e-02
3.042577e+02	-1.578358e-02
3.060151e+02	-1.596610e-02
3.077826e+02	-1.615073e-02
3.095604e+02	-1.633749e-02
3.113484e+02	-1.652640e-02
3.131467e+02	-1.671749e-02
3.149554e+02	-1.691079e-02
3.167746e+02	-1.710632e-02
3.186043e+02	-1.730410e-02
3.204445e+02	-1.750417e-02
3.222954e+02	-1.770655e-02
3.241570e+02	-1.791126e-02
3.260293e+02	-1.811833e-02
3.279124e+02	-1.832779e-02
3.298064e+02	-1.853967e-02
3.317114e+02	-1.875399e-02
3.336273e+02	-1.897078e-02
3.355544e+02	-1.919008e-02
3.374925e+02	-1.941190e-02
3.394418e+02	-1.963628e-02
3.414024e+02	-1.986325e-02
3.433744e+02	-2.009284e-02
3.453577e+02	-2.032507e-02
3.473525e+02	-2.055998e-02
3.493588e+02	-2.079760e-02
3.513766e+02	-2.103796e-02
3.534062e+02	-2.128109e-02
3.554474e+02	-2.152703e-02
3.575005e+02	-2.177580e-02
3.595654e+02	-2.202743e-02
3.616422e+02	-2.228197e-02
3.637311e+02	-2.253944e-02
3.658320e+02	-2.279988e-02
3.679450e+02	-2.306331e-02
3.700702e+02	-2.332979e-02
3.722077e+02	-2.359933e-02
3.743576e+02	-2.387198e-02
3.765199e+02	-2.414778e-02
3.786946e+02	-2.442674e-02
3.808820e+02	-2.470893e-02
3.830819e+02	-2.499436e-02
3.852946e+02	-2.528308e-02
3.875200e+02	-2.557512e-02
3.897583e+02	-2.587053e-02
3.920096e+02	-2.616934e-02
3.942738e+02	-2.647160e-02
3.965511e+02	-2.677733e-02
3.988416e+02	-2.708658e-02
4.011452e+02	-2.739939e-02
4.034622e+02	-2.771580e-02
4.057926e+02	-2.803586e-02
4.081365e+02	-2.835960e-02
4.104938e+02	-2.868706e-02
4.128648e+02	-2.901830e-02
4.152495e+02	-2.935334e-02
4.176480e+02	-2.969224e-02
4.200603e+02	-3.003504e-02
4.224866e+02	-3.038178e-02
4.249268e+02	-3.073251e-02
4.273812e+02	-3.108728e-02
4.298497e+02	-3.144612e-02
4.323325e+02	-3.180910e-02
4.348297e+02	-3.217625e-02
4.373412e+02	-3.254761e-02
4.398673e+02	-3.292325e-02
4.424079e+02	-3.330321e-02
4.449633e+02	-3.368754e-02
4.475334e+02	-3.407628e-02
4.501183e+02	-3.446949e-02
4.527182e+02	-3.486722e-02
4.553330e+02	-3.526952e-02
4.579630e+02	-3.567644e-02
4.606082e+02	-3.608804e-02
4.632687e+02	-3.650437e-02
4.659445e+02	-3.692548e-02
4.686358e+02	-3.735143e-02
4.713426e+02	-3.778227e-02
4.740650e+02	-3.821805e-02
4.768032e+02	-3.865884e-02
4.795572e+02	-3.910469e-02
4.823271e+02	-3.955566e-02
4.851130e+02	-4.001181e-02
4.879150e+02	-4.047319e-02
4.907332e+02	-4.093987e-02
4.935676e+02	-4.141190e-02
4.964185e+02	-4.188935e-02
4.992858e+02	-4.237227e-02
5.021696e+02	-4.286074e-02
5.050701e+02	-4.335481e-02
5.079874e+02	-4.385454e-02
5.109215e+02	-4.436001e-02
5.138726e+02	-4.487127e-02
5.168407e+02	-4.538839e-02
5.198259e+02	-4.591144e-02
5.228284e+02	-4.644049e-02
5.258482e+02	-4.697560e-02
5.288855e+02	-4.751684e-02
5.319403e+02	-4.806428e-02
5.350128e+02	-4.861799e-02
5.381030e+02	-4.917805e-02
5.412111e+02	-4.974452e-02
5.443371e+02	-5.031748e-02
5.474812e+02	-5.089700e-02
5.506434e+02	-5.148315e-02
5.538239e+02	-5.207602e-02
5.570228e+02	-5.267566e-02
5.602401e+02	-5.328218e-02
5.634760e+02	-5.389563e-02
5.667306e+02	-5.451610e-02
5.700040e+02	-5.514366e-02
5.732964e+02	-5.577841e-02
5.766077e+02	-5.642041e-02
5.799382e+02	-5.706976e-02
5.832879e+02	-5.772652e-02
5.866569e+02	-5.839080e-02
5.900454e+02	-5.906267e-02
5.934535e+02	-5.974221e-02
5.968813e+02	-6.042952e-02
6.003288e+02	-6.112468e-02
6.037963e+02	-6.182778e-02
6.072838e+02	-6.253890e-02
6.107914e+02	-6.325815e-02
6.143194e+02	-6.398561e-02
6.178676e+02	-6.472137e-02
6.214364e+02	-6.546553e-02
6.250258e+02	-6.621818e-02
6.286359e+02	-6.697941e-02
6.322669e+02	-6.774933e-02
6.359189e+02	-6.852803e-02
6.395919e+02	-6.931560e-02
6.432862e+02	-7.011216e-02
6.470017e+02	-7.091779e-02
6.507388e+02	-7.173260e-02
6.544974e+02	-7.255670e-02
6.582778e+02	-7.339018e-02
6.620800e+02	-7.423316e-02
6.659041e+02	-7.508574e-02
6.697504e+02	-7.594802e-02
6.736188e+02	-7.682011e-02
6.775096e+02	-7.770213e-02
6.814229e+02	-7.859419e-02
6.853587e+02	-7.949639e-02
6.893173e+02	-8.040885e-02
6.932988e+02	-8.133169e-02
6.973033e+02	-8.226502e-02
7.013309e+02	-8.320895e-02
