Frequency(Hz)	Magnitude(dB)
1.000000e+01	-1.685870e-05
1.005776e+01	-1.705401e-05
1.011585e+01	-1.725159e-05
1.017428e+01	-1.745145e-05
1.023305e+01	-1.765363e-05
1.029215e+01	-1.785815e-05
1.035160e+01	-1.806504e-05
1.041139e+01	-1.827433e-05
1.047153e+01	-1.848604e-05
1.053201e+01	-1.870021e-05
1.059284e+01	-1.891685e-05
1.065403e+01	-1.913601e-05
1.071556e+01	-1.935771e-05
1.077746e+01	-1.958197e-05
1.083971e+01	-1.980883e-05
1.090232e+01	-2.003832e-05
1.096529e+01	-2.027047e-05
1.102862e+01	-2.050531e-05
1.109232e+01	-2.074287e-05
1.115639e+01	-2.098318e-05
1.122083e+01	-2.122628e-05
1.128564e+01	-2.147219e-05
1.135083e+01	-2.172095e-05
1.141639e+01	-2.197259e-05
1.148233e+01	-2.222715e-05
1.154865e+01	-2.248466e-05
1.161536e+01	-2.274515e-05
1.168245e+01	-2.300866e-05
1.174992e+01	-2.327522e-05
1.181779e+01	-2.354487e-05
1.188605e+01	-2.381764e-05
1.195470e+01	-2.409357e-05
1.202375e+01	-2.437270e-05
1.209320e+01	-2.465507e-05
1.216305e+01	-2.494070e-05
1.223330e+01	-2.522965e-05
1.230396e+01	-2.552194e-05
1.237503e+01	-2.581761e-05
1.244651e+01	-2.611672e-05
1.251840e+01	-2.641929e-05
1.259070e+01	-2.672536e-05
1.266343e+01	-2.703498e-05
1.273657e+01	-2.734819e-05
1.281014e+01	-2.766502e-05
1.288413e+01	-2.798553e-05
1.295855e+01	-2.830975e-05
1.303339e+01	-2.863772e-05
1.310867e+01	-2.896950e-05
1.318439e+01	-2.930512e-05
1.326054e+01	-2.964462e-05
1.333713e+01	-2.998806e-05
1.341417e+01	-3.033548e-05
1.349165e+01	-3.068693e-05
1.356958e+01	-3.104244e-05
1.364795e+01	-3.140208e-05
1.372678e+01	-3.176588e-05
1.380607e+01	-3.213389e-05
1.388581e+01	-3.250617e-05
1.396602e+01	-3.288276e-05
1.404668e+01	-3.326372e-05
1.412782e+01	-3.364908e-05
1.420942e+01	-3.403892e-05
1.429149e+01	-3.443327e-05
1.437404e+01	-3.483218e-05
1.445706e+01	-3.523572e-05
1.454057e+01	-3.564394e-05
1.462455e+01	-3.605688e-05
1.470902e+01	-3.647461e-05
1.479398e+01	-3.689717e-05
1.487943e+01	-3.732464e-05
1.496537e+01	-3.775705e-05
1.505181e+01	-3.819447e-05
1.513875e+01	-3.863697e-05
1.522619e+01	-3.908458e-05
1.531414e+01	-3.953739e-05
1.540259e+01	-3.999544e-05
1.549156e+01	-4.045879e-05
1.558103e+01	-4.092752e-05
1.567103e+01	-4.140167e-05
1.576155e+01	-4.188132e-05
1.585258e+01	-4.236652e-05
1.594415e+01	-4.285735e-05
1.603624e+01	-4.335386e-05
1.612886e+01	-4.385613e-05
1.622202e+01	-4.436421e-05
1.631572e+01	-4.487818e-05
1.640996e+01	-4.539810e-05
1.650474e+01	-4.592405e-05
1.660008e+01	-4.645609e-05
1.669596e+01	-4.699429e-05
1.679239e+01	-4.753873e-05
1.688938e+01	-4.808948e-05
1.698694e+01	-4.864661e-05
1.708505e+01	-4.921019e-05
1.718373e+01	-4.978030e-05
1.728299e+01	-5.035701e-05
1.738281e+01	-5.094041e-05
1.748322e+01	-5.153056e-05
1.758420e+01	-5.212756e-05
1.768576e+01	-5.273147e-05
1.778792e+01	-5.334237e-05
1.789066e+01	-5.396035e-05
1.799399e+01	-5.458549e-05
1.809793e+01	-5.521788e-05
1.820246e+01	-5.585759e-05
1.830760e+01	-5.650471e-05
1.841334e+01	-5.715933e-05
1.851969e+01	-5.782153e-05
1.862666e+01	-5.849141e-05
1.873425e+01	-5.916904e-05
1.884246e+01	-5.985453e-05
1.895129e+01	-6.054795e-05
1.906075e+01	-6.124941e-05
1.917085e+01	-6.195900e-05
1.928158e+01	-6.267681e-05
1.939295e+01	-6.340293e-05
1.950496e+01	-6.413746e-05
1.961762e+01	-6.488051e-05
1.973093e+01	-6.563216e-05
1.984490e+01	-6.639252e-05
1.995952e+01	-6.716169e-05
2.007480e+01	-6.793977e-05
2.019076e+01	-6.872687e-05
2.030738e+01	-6.952308e-05
2.042467e+01	-7.032852e-05
2.054264e+01	-7.114329e-05
2.066130e+01	-7.196750e-05
2.078064e+01	-7.280126e-05
2.090066e+01	-7.364467e-05
2.102139e+01	-7.449786e-05
2.114280e+01	-7.536093e-05
2.126492e+01	-7.623400e-05
2.138775e+01	-7.711718e-05
2.151128e+01	-7.801060e-05
2.163553e+01	-7.891437e-05
2.176050e+01	-7.982860e-05
2.188619e+01	-8.075343e-05
2.201260e+01	-8.168897e-05
2.213974e+01	-8.263535e-05
2.226762e+01	-8.359270e-05
2.239624e+01	-8.456113e-05
2.252560e+01	-8.554079e-05
2.265571e+01	-8.653179e-05
2.278656e+01	-8.753428e-05
2.291818e+01	-8.854838e-05
2.305055e+01	-8.957422e-05
2.318369e+01	-9.061195e-05
2.331760e+01	-9.166171e-05
2.345228e+01	-9.272362e-05
2.358774e+01	-9.379784e-05
2.372398e+01	-9.488450e-05
2.386101e+01	-9.598375e-05
2.399883e+01	-9.709574e-05
2.413745e+01	-9.822061e-05
2.427686e+01	-9.935851e-05
2.441709e+01	-1.005096e-04
2.455812e+01	-1.016740e-04
2.469997e+01	-1.028519e-04
2.484263e+01	-1.040435e-04
2.498612e+01	-1.052488e-04
2.513044e+01	-1.064682e-04
2.527559e+01	-1.077016e-04
2.542158e+01	-1.089493e-04
2.556842e+01	-1.102115e-04
2.571610e+01	-1.114883e-04
2.586463e+01	-1.127800e-04
2.601403e+01	-1.140865e-04
2.616428e+01	-1.154082e-04
2.631541e+01	-1.167452e-04
2.646740e+01	-1.180978e-04
2.662028e+01	-1.194659e-04
2.677404e+01	-1.208500e-04
2.692868e+01	-1.222500e-04
2.708422e+01	-1.236663e-04
2.724066e+01	-1.250990e-04
2.739800e+01	-1.265483e-04
2.755625e+01	-1.280143e-04
2.771541e+01	-1.294974e-04
2.787550e+01	-1.309976e-04
2.803650e+01	-1.325153e-04
2.819844e+01	-1.340505e-04
2.836131e+01	-1.356035e-04
2.852513e+01	-1.371744e-04
2.868989e+01	-1.387636e-04
2.885560e+01	-1.403712e-04
2.902227e+01	-1.419974e-04
2.918990e+01	-1.436425e-04
2.935850e+01	-1.453066e-04
2.952807e+01	-1.469900e-04
2.969863e+01	-1.486929e-04
2.987016e+01	-1.504155e-04
3.004269e+01	-1.521581e-04
3.021622e+01	-1.539208e-04
3.039075e+01	-1.557040e-04
3.056628e+01	-1.575078e-04
3.074283e+01	-1.593326e-04
3.092040e+01	-1.611785e-04
3.109900e+01	-1.630457e-04
3.127862e+01	-1.649346e-04
3.145929e+01	-1.668454e-04
3.164099e+01	-1.687783e-04
3.182375e+01	-1.707336e-04
3.200756e+01	-1.727116e-04
3.219244e+01	-1.747124e-04
3.237838e+01	-1.767365e-04
3.256540e+01	-1.787840e-04
3.275349e+01	-1.808552e-04
3.294268e+01	-1.829504e-04
3.313295e+01	-1.850699e-04
3.332433e+01	-1.872140e-04
3.351681e+01	-1.893828e-04
3.371040e+01	-1.915768e-04
3.390511e+01	-1.937963e-04
3.410094e+01	-1.960414e-04
3.429791e+01	-1.983125e-04
3.449601e+01	-2.006100e-04
3.469526e+01	-2.029341e-04
3.489566e+01	-2.052850e-04
3.509721e+01	-2.076633e-04
3.529993e+01	-2.100691e-04
3.550382e+01	-2.125027e-04
3.570889e+01	-2.149645e-04
3.591515e+01	-2.174549e-04
3.612259e+01	-2.199741e-04
3.633123e+01	-2.225225e-04
3.654108e+01	-2.251004e-04
3.675214e+01	-2.277082e-04
3.696442e+01	-2.303462e-04
3.717792e+01	-2.330148e-04
3.739266e+01	-2.357142e-04
3.760864e+01	-2.384450e-04
3.782587e+01	-2.412073e-04
3.804435e+01	-2.440017e-04
3.826409e+01	-2.468285e-04
3.848510e+01	-2.496880e-04
3.870739e+01	-2.525806e-04
3.893096e+01	-2.555067e-04
3.915583e+01	-2.584667e-04
3.938199e+01	-2.614611e-04
3.960946e+01	-2.644901e-04
3.983824e+01	-2.675542e-04
4.006834e+01	-2.706538e-04
4.029978e+01	-2.737893e-04
4.053255e+01	-2.769611e-04
4.076666e+01	-2.801697e-04
4.100213e+01	-2.834154e-04
4.123896e+01	-2.866987e-04
4.147715e+01	-2.900201e-04
4.171672e+01	-2.933799e-04
4.195767e+01	-2.967787e-04
4.220002e+01	-3.002169e-04
4.244377e+01	-3.036948e-04
4.268892e+01	-3.072131e-04
4.293549e+01	-3.107721e-04
4.318348e+01	-3.143724e-04
4.343291e+01	-3.180143e-04
4.368377e+01	-3.216985e-04
4.393609e+01	-3.254253e-04
4.418986e+01	-3.291953e-04
4.444510e+01	-3.330090e-04
4.470182e+01	-3.368668e-04
4.496001e+01	-3.407694e-04
4.521970e+01	-3.447171e-04
4.548089e+01	-3.487106e-04
4.574358e+01	-3.527504e-04
4.600779e+01	-3.568369e-04
4.627353e+01	-3.609708e-04
4.654081e+01	-3.651526e-04
4.680963e+01	-3.693828e-04
4.708000e+01	-3.736620e-04
4.735193e+01	-3.779908e-04
4.762543e+01	-3.823697e-04
4.790051e+01	-3.867994e-04
4.817719e+01	-3.912803e-04
4.845545e+01	-3.958132e-04
4.873533e+01	-4.003986e-04
4.901682e+01	-4.050371e-04
4.929994e+01	-4.097294e-04
4.958470e+01	-4.144760e-04
4.987110e+01	-4.192776e-04
5.015915e+01	-4.241348e-04
5.044887e+01	-4.290483e-04
5.074026e+01	-4.340187e-04
5.103333e+01	-4.390466e-04
5.132810e+01	-4.441328e-04
5.162457e+01	-4.492780e-04
5.192275e+01	-4.544827e-04
5.222265e+01	-4.597478e-04
5.252429e+01	-4.650738e-04
5.282767e+01	-4.704615e-04
5.313280e+01	-4.759116e-04
5.343969e+01	-4.814249e-04
5.374836e+01	-4.870020e-04
5.405880e+01	-4.926437e-04
5.437105e+01	-4.983508e-04
5.468509e+01	-5.041240e-04
5.500095e+01	-5.099641e-04
5.531863e+01	-5.158718e-04
5.563815e+01	-5.218480e-04
5.595951e+01	-5.278934e-04
5.628273e+01	-5.340088e-04
5.660782e+01	-5.401950e-04
5.693479e+01	-5.464529e-04
5.726364e+01	-5.527834e-04
5.759439e+01	-5.591871e-04
5.792705e+01	-5.656650e-04
5.826164e+01	-5.722180e-04
5.859815e+01	-5.788468e-04
5.893662e+01	-5.855525e-04
5.927703e+01	-5.923358e-04
5.961941e+01	-5.991977e-04
5.996377e+01	-6.061391e-04
6.031012e+01	-6.131609e-04
6.065847e+01	-6.202640e-04
6.100883e+01	-6.274494e-04
6.136121e+01	-6.347181e-04
6.171563e+01	-6.420709e-04
6.207210e+01	-6.495089e-04
6.243063e+01	-6.570331e-04
6.279122e+01	-6.646444e-04
6.315390e+01	-6.723439e-04
6.351868e+01	-6.801326e-04
6.388556e+01	-6.880115e-04
6.425456e+01	-6.959816e-04
6.462569e+01	-7.040441e-04
6.499897e+01	-7.122000e-04
6.537440e+01	-7.204503e-04
6.575200e+01	-7.287963e-04
6.613178e+01	-7.372389e-04
6.651375e+01	-7.457792e-04
6.689793e+01	-7.544185e-04
6.728433e+01	-7.631579e-04
6.767297e+01	-7.719985e-04
6.806384e+01	-7.809415e-04
6.845698e+01	-7.899881e-04
6.885238e+01	-7.991395e-04
6.925007e+01	-8.083969e-04
6.965005e+01	-8.177615e-04
7.005235e+01	-8.272346e-04
7.045697e+01	-8.368174e-04
7.086393e+01	-8.465113e-04
7.127323e+01	-8.563174e-04
7.168490e+01	-8.662370e-04
7.209895e+01	-8.762716e-04
7.251539e+01	-8.864224e-04
7.293424e+01	-8.966908e-04
7.335551e+01	-9.070781e-04
7.377920e+01	-9.175858e-04
7.420535e+01	-9.282151e-04
7.463396e+01	-9.389676e-04
7.506504e+01	-9.498446e-04
7.549861e+01	-9.608476e-04
7.593469e+01	-9.719780e-04
7.637328e+01	-9.832374e-04
7.681441e+01	-9.946271e-04
7.725809e+01	-1.006149e-03
7.770433e+01	-1.017804e-03
7.815315e+01	-1.029594e-03
7.860456e+01	-1.041521e-03
7.905857e+01	-1.053586e-03
7.951521e+01	-1.065790e-03
7.997449e+01	-1.078136e-03
8.043642e+01	-1.090625e-03
8.090102e+01	-1.103259e-03
8.136830e+01	-1.116039e-03
8.183828e+01	-1.128967e-03
8.231097e+01	-1.142044e-03
8.278640e+01	-1.155273e-03
8.326457e+01	-1.168656e-03
8.374550e+01	-1.182193e-03
8.422921e+01	-1.195887e-03
8.471572e+01	-1.209740e-03
8.520503e+01	-1.223753e-03
8.569717e+01	-1.237929e-03
8.619215e+01	-1.252268e-03
8.669000e+01	-1.266774e-03
8.719071e+01	-1.281448e-03
8.769432e+01	-1.296291e-03
8.820084e+01	-1.311307e-03
8.871029e+01	-1.326497e-03
8.922267e+01	-1.341862e-03
8.973802e+01	-1.357405e-03
9.025634e+01	-1.373129e-03
9.077766e+01	-1.389034e-03
9.130199e+01	-1.405124e-03
9.182935e+01	-1.421400e-03
9.235975e+01	-1.437865e-03
9.289321e+01	-1.454520e-03
9.342976e+01	-1.471368e-03
9.396941e+01	-1.488412e-03
9.451217e+01	-1.505652e-03
9.505807e+01	-1.523093e-03
9.560712e+01	-1.540735e-03
9.615934e+01	-1.558581e-03
9.671476e+01	-1.576635e-03
9.727338e+01	-1.594897e-03
9.783522e+01	-1.613371e-03
9.840032e+01	-1.632059e-03
9.896867e+01	-1.650963e-03
9.954031e+01	-1.670086e-03
1.001153e+02	-1.689431e-03
1.006935e+02	-1.709000e-03
1.012751e+02	-1.728795e-03
1.018601e+02	-1.748819e-03
1.024484e+02	-1.769076e-03
1.030402e+02	-1.789567e-03
1.036353e+02	-1.810295e-03
1.042339e+02	-1.831263e-03
1.048360e+02	-1.852475e-03
1.054415e+02	-1.873931e-03
1.060505e+02	-1.895637e-03
1.066631e+02	-1.917593e-03
1.072791e+02	-1.939804e-03
1.078988e+02	-1.962272e-03
1.085220e+02	-1.985000e-03
1.091488e+02	-2.007992e-03
1.097793e+02	-2.031249e-03
1.104133e+02	-2.054776e-03
1.110511e+02	-2.078576e-03
1.116925e+02	-2.102651e-03
1.123376e+02	-2.127005e-03
1.129865e+02	-2.151641e-03
1.136391e+02	-2.176562e-03
1.142955e+02	-2.201771e-03
1.149556e+02	-2.227273e-03
1.156196e+02	-2.253070e-03
1.162874e+02	-2.279165e-03
1.169591e+02	-2.305563e-03
1.176347e+02	-2.332266e-03
1.183141e+02	-2.359279e-03
1.189975e+02	-2.386604e-03
1.196848e+02	-2.414246e-03
1.203761e+02	-2.442208e-03
1.210714e+02	-2.470493e-03
1.217707e+02	-2.499107e-03
1.224740e+02	-2.528051e-03
1.231814e+02	-2.557330e-03
1.238929e+02	-2.586949e-03
1.246085e+02	-2.616910e-03
1.253283e+02	-2.647219e-03
1.260522e+02	-2.677878e-03
1.267802e+02	-2.708892e-03
1.275125e+02	-2.740266e-03
1.282490e+02	-2.772002e-03
1.289898e+02	-2.804106e-03
1.297348e+02	-2.836582e-03
1.304842e+02	-2.869433e-03
1.312378e+02	-2.902666e-03
1.319959e+02	-2.936282e-03
1.327583e+02	-2.970288e-03
1.335251e+02	-3.004688e-03
1.342963e+02	-3.039486e-03
1.350720e+02	-3.074687e-03
1.358522e+02	-3.110295e-03
1.366368e+02	-3.146315e-03
1.374260e+02	-3.182753e-03
1.382198e+02	-3.219612e-03
1.390182e+02	-3.256898e-03
1.398211e+02	-3.294616e-03
1.406287e+02	-3.332770e-03
1.414410e+02	-3.371366e-03
1.422579e+02	-3.410409e-03
1.430796e+02	-3.449904e-03
1.439060e+02	-3.489856e-03
1.447372e+02	-3.530270e-03
1.455732e+02	-3.571153e-03
1.464141e+02	-3.612508e-03
1.472597e+02	-3.654342e-03
1.481103e+02	-3.696661e-03
1.489658e+02	-3.739469e-03
1.498262e+02	-3.782773e-03
1.506916e+02	-3.826578e-03
1.515620e+02	-3.870890e-03
1.524374e+02	-3.915715e-03
1.533179e+02	-3.961059e-03
1.542034e+02	-4.006928e-03
1.550941e+02	-4.053327e-03
1.559899e+02	-4.100264e-03
1.568909e+02	-4.147744e-03
1.577971e+02	-4.195773e-03
1.587085e+02	-4.244359e-03
1.596252e+02	-4.293506e-03
1.605472e+02	-4.343223e-03
1.614745e+02	-4.393515e-03
1.624072e+02	-4.444389e-03
1.633453e+02	-4.495851e-03
1.642887e+02	-4.547910e-03
1.652377e+02	-4.600570e-03
1.661921e+02	-4.653840e-03
1.671520e+02	-4.707727e-03
1.681175e+02	-4.762237e-03
1.690885e+02	-4.817379e-03
1.700651e+02	-4.873158e-03
1.710474e+02	-4.929582e-03
1.720354e+02	-4.986660e-03
1.730291e+02	-5.044398e-03
1.740285e+02	-5.102804e-03
1.750337e+02	-5.161887e-03
1.760446e+02	-5.221652e-03
1.770615e+02	-5.282110e-03
1.780842e+02	-5.343267e-03
1.791128e+02	-5.405131e-03
1.801473e+02	-5.467711e-03
1.811878e+02	-5.531016e-03
1.822344e+02	-5.595053e-03
1.832870e+02	-5.659831e-03
1.843456e+02	-5.725358e-03
1.854104e+02	-5.791643e-03
1.864813e+02	-5.858696e-03
1.875584e+02	-5.926524e-03
1.886418e+02	-5.995136e-03
1.897313e+02	-6.064543e-03
1.908272e+02	-6.134753e-03
1.919294e+02	-6.205774e-03
1.930380e+02	-6.277618e-03
1.941530e+02	-6.350292e-03
1.952744e+02	-6.423808e-03
1.964023e+02	-6.498173e-03
1.975367e+02	-6.573399e-03
1.986777e+02	-6.649495e-03
1.998252e+02	-6.726472e-03
2.009794e+02	-6.804338e-03
2.021403e+02	-6.883106e-03
2.033078e+02	-6.962784e-03
2.044821e+02	-7.043384e-03
2.056632e+02	-7.124917e-03
2.068511e+02	-7.207392e-03
2.080459e+02	-7.290821e-03
2.092475e+02	-7.375215e-03
2.104561e+02	-7.460585e-03
2.116717e+02	-7.546943e-03
2.128943e+02	-7.634299e-03
2.141240e+02	-7.722666e-03
2.153608e+02	-7.812054e-03
2.166047e+02	-7.902476e-03
2.178558e+02	-7.993944e-03
2.191141e+02	-8.086469e-03
2.203797e+02	-8.180065e-03
2.216526e+02	-8.274742e-03
2.229329e+02	-8.370515e-03
2.242205e+02	-8.467394e-03
2.255156e+02	-8.565394e-03
2.268182e+02	-8.664527e-03
2.281283e+02	-8.764807e-03
2.294459e+02	-8.866245e-03
2.307712e+02	-8.968856e-03
2.321041e+02	-9.072654e-03
2.334447e+02	-9.177652e-03
2.347931e+02	-9.283863e-03
2.361493e+02	-9.391303e-03
2.375133e+02	-9.499984e-03
2.388851e+02	-9.609922e-03
2.402649e+02	-9.721130e-03
2.416527e+02	-9.833624e-03
2.430484e+02	-9.947418e-03
2.444523e+02	-1.006253e-02
2.458642e+02	-1.017897e-02
2.472843e+02	-1.029675e-02
2.487126e+02	-1.041590e-02
2.501492e+02	-1.053642e-02
2.515940e+02	-1.065834e-02
2.530472e+02	-1.078167e-02
2.545088e+02	-1.090642e-02
2.559789e+02	-1.103261e-02
2.574574e+02	-1.116026e-02
2.589444e+02	-1.128939e-02
2.604401e+02	-1.142001e-02
2.619444e+02	-1.155213e-02
2.634574e+02	-1.168579e-02
2.649791e+02	-1.182098e-02
2.665096e+02	-1.195774e-02
2.680489e+02	-1.209608e-02
2.695972e+02	-1.223602e-02
2.711544e+02	-1.237758e-02
2.727205e+02	-1.252077e-02
2.742958e+02	-1.266561e-02
2.758801e+02	-1.281213e-02
2.774736e+02	-1.296034e-02
2.790762e+02	-1.311026e-02
2.806882e+02	-1.326191e-02
2.823094e+02	-1.341532e-02
2.839400e+02	-1.357049e-02
2.855800e+02	-1.372746e-02
2.872295e+02	-1.388624e-02
2.888886e+02	-1.404686e-02
2.905572e+02	-1.420933e-02
2.922354e+02	-1.437367e-02
2.939234e+02	-1.453992e-02
2.956211e+02	-1.470808e-02
2.973286e+02	-1.487818e-02
2.990459e+02	-1.505025e-02
3.007732e+02	-1.522431e-02
3.025104e+02	-1.540037e-02
3.042577e+02	-1.557847e-02
3.060151e+02	-1.575862e-02
3.077826e+02	-1.594085e-02
3.095604e+02	-1.612518e-02
3.113484e+02	-1.631165e-02
3.131467e+02	-1.650026e-02
3.149554e+02	-1.669105e-02
3.167746e+02	-1.688405e-02
3.186043e+02	-1.707927e-02
3.204445e+02	-1.727674e-02
3.222954e+02	-1.747649e-02
3.241570e+02	-1.767855e-02
3.260293e+02	-1.788293e-02
3.279124e+02	-1.808968e-02
3.298064e+02	-1.829881e-02
3.317114e+02	-1.851035e-02
3.336273e+02	-1.872434e-02
3.355544e+02	-1.894079e-02
3.374925e+02	-1.915974e-02
3.394418e+02	-1.938121e-02
3.414024e+02	-1.960524e-02
3.433744e+02	-1.983185e-02
3.453577e+02	-2.006107e-02
3.473525e+02	-2.029294e-02
3.493588e+02	-2.052748e-02
3.513766e+02	-2.076473e-02
3.534062e+02	-2.100471e-02
3.554474e+02	-2.124746e-02
3.575005e+02	-2.149301e-02
3.595654e+02	-2.174138e-02
3.616422e+02	-2.199262e-02
3.637311e+02	-2.224676e-02
3.658320e+02	-2.250382e-02
3.679450e+02	-2.276385e-02
3.700702e+02	-2.302687e-02
3.722077e+02	-2.329293e-02
3.743576e+02	-2.356205e-02
3.765199e+02	-2.383427e-02
3.786946e+02	-2.410963e-02
3.808820e+02	-2.438816e-02
3.830819e+02	-2.466990e-02
3.852946e+02	-2.495488e-02
3.875200e+02	-2.524315e-02
3.897583e+02	-2.553473e-02
3.920096e+02	-2.582968e-02
3.942738e+02	-2.612802e-02
3.965511e+02	-2.642979e-02
3.988416e+02	-2.673504e-02
4.011452e+02	-2.704381e-02
4.034622e+02	-2.735613e-02
4.057926e+02	-2.767204e-02
4.081365e+02	-2.799160e-02
4.104938e+02	-2.831483e-02
4.128648e+02	-2.864178e-02
4.152495e+02	-2.897249e-02
4.176480e+02	-2.930701e-02
4.200603e+02	-2.964537e-02
4.224866e+02	-2.998763e-02
4.249268e+02	-3.033383e-02
4.273812e+02	-3.068401e-02
4.298497e+02	-3.103822e-02
4.323325e+02	-3.139650e-02
4.348297e+02	-3.175891e-02
4.373412e+02	-3.212548e-02
4.398673e+02	-3.249626e-02
4.424079e+02	-3.287131e-02
4.449633e+02	-3.325068e-02
4.475334e+02	-3.363440e-02
4.501183e+02	-3.402253e-02
4.527182e+02	-3.441513e-02
4.553330e+02	-3.481223e-02
4.579630e+02	-3.521390e-02
4.606082e+02	-3.562019e-02
4.632687e+02	-3.603114e-02
4.659445e+02	-3.644681e-02
4.686358e+02	-3.686726e-02
4.713426e+02	-3.729254e-02
4.740650e+02	-3.772271e-02
4.768032e+02	-3.815781e-02
4.795572e+02	-3.859791e-02
4.823271e+02	-3.904306e-02
4.851130e+02	-3.949333e-02
4.879150e+02	-3.994876e-02
4.907332e+02	-4.040942e-02
4.935676e+02	-4.087536e-02
4.964185e+02	-4.134666e-02
4.992858e+02	-4.182336e-02
5.021696e+02	-4.230553e-02
5.050701e+02	-4.279323e-02
5.079874e+02	-4.328652e-02
5.109215e+02	-4.378548e-02
5.138726e+02	-4.429015e-02
5.168407e+02	-4.480061e-02
5.198259e+02	-4.531693e-02
5.228284e+02	-4.583916e-02
5.258482e+02	-4.636738e-02
5.288855e+02	-4.690165e-02
5.319403e+02	-4.744205e-02
5.350128e+02	-4.798863e-02
5.381030e+02	-4.854148e-02
5.412111e+02	-4.910067e-02
5.443371e+02	-4.966625e-02
5.474812e+02	-5.023832e-02
5.506434e+02	-5.081693e-02
5.538239e+02	-5.140217e-02
5.570228e+02	-5.199411e-02
5.602401e+02	-5.259282e-02
5.634760e+02	-5.319839e-02
5.667306e+02	-5.381088e-02
5.700040e+02	-5.443039e-02
5.732964e+02	-5.505697e-02
5.766077e+02	-5.569073e-02
5.799382e+02	-5.633173e-02
5.832879e+02	-5.698007e-02
5.866569e+02	-5.763581e-02
5.900454e+02	-5.829905e-02
5.934535e+02	-5.896987e-02
5.968813e+02	-5.964836e-02
6.003288e+02	-6.033460e-02
6.037963e+02	-6.102868e-02
6.072838e+02	-6.173068e-02
6.107914e+02	-6.244070e-02
6.143194e+02	-6.315883e-02
6.178676e+02	-6.388516e-02
6.214364e+02	-6.461978e-02
6.250258e+02	-6.536278e-02
6.286359e+02	-6.611426e-02
6.322669e+02	-6.687431e-02
6.359189e+02	-6.764304e-02
6.395919e+02	-6.842052e-02
6.432862e+02	-6.920688e-02
6.470017e+02	-7.000220e-02
6.507388e+02	-7.080658e-02
6.544974e+02	-7.162013e-02
6.582778e+02	-7.244295e-02
6.620800e+02	-7.327514e-02
6.659041e+02	-7.411681e-02
6.697504e+02	-7.496807e-02
6.736188e+02	-7.582901e-02
6.775096e+02	-7.669976e-02
6.814229e+02	-7.758041e-02
6.853587e+02	-7.847109e-02
6.893173e+02	-7.937189e-02
6.932988e+02	-8.028295e-02
6.973033e+02	-8.120436e-02
7.013309e+02	-8.213624e-02
