Frequency(Hz)	Magnitude(dB)
1.000000e+01	-1.878845e-05
1.005776e+01	-1.900612e-05
1.011585e+01	-1.922631e-05
1.017428e+01	-1.944905e-05
1.023305e+01	-1.967437e-05
1.029215e+01	-1.990230e-05
1.035160e+01	-2.013288e-05
1.041139e+01	-2.036612e-05
1.047153e+01	-2.060207e-05
1.053201e+01	-2.084075e-05
1.059284e+01	-2.108219e-05
1.065403e+01	-2.132643e-05
1.071556e+01	-2.157351e-05
1.077746e+01	-2.182344e-05
1.083971e+01	-2.207627e-05
1.090232e+01	-2.233203e-05
1.096529e+01	-2.259075e-05
1.102862e+01	-2.285247e-05
1.109232e+01	-2.311722e-05
1.115639e+01	-2.338504e-05
1.122083e+01	-2.365596e-05
1.128564e+01	-2.393002e-05
1.135083e+01	-2.420726e-05
1.141639e+01	-2.448771e-05
1.148233e+01	-2.477140e-05
1.154865e+01	-2.505839e-05
1.161536e+01	-2.534869e-05
1.168245e+01	-2.564236e-05
1.174992e+01	-2.593944e-05
1.181779e+01	-2.623995e-05
1.188605e+01	-2.654395e-05
1.195470e+01	-2.685147e-05
1.202375e+01	-2.716255e-05
1.209320e+01	-2.747723e-05
1.216305e+01	-2.779556e-05
1.223330e+01	-2.811758e-05
1.230396e+01	-2.844333e-05
1.237503e+01	-2.877285e-05
1.244651e+01	-2.910619e-05
1.251840e+01	-2.944339e-05
1.259070e+01	-2.978450e-05
1.266343e+01	-3.012956e-05
1.273657e+01	-3.047862e-05
1.281014e+01	-3.083172e-05
1.288413e+01	-3.118892e-05
1.295855e+01	-3.155025e-05
1.303339e+01	-3.191577e-05
1.310867e+01	-3.228552e-05
1.318439e+01	-3.265955e-05
1.326054e+01	-3.303792e-05
1.333713e+01	-3.342067e-05
1.341417e+01	-3.380786e-05
1.349165e+01	-3.419953e-05
1.356958e+01	-3.459574e-05
1.364795e+01	-3.499654e-05
1.372678e+01	-3.540198e-05
1.380607e+01	-3.581212e-05
1.388581e+01	-3.622702e-05
1.396602e+01	-3.664671e-05
1.404668e+01	-3.707128e-05
1.412782e+01	-3.750075e-05
1.420942e+01	-3.793521e-05
1.429149e+01	-3.837470e-05
1.437404e+01	-3.881928e-05
1.445706e+01	-3.926901e-05
1.454057e+01	-3.972395e-05
1.462455e+01	-4.018416e-05
1.470902e+01	-4.064970e-05
1.479398e+01	-4.112064e-05
1.487943e+01	-4.159703e-05
1.496537e+01	-4.207894e-05
1.505181e+01	-4.256643e-05
1.513875e+01	-4.305958e-05
1.522619e+01	-4.355843e-05
1.531414e+01	-4.406306e-05
1.540259e+01	-4.457354e-05
1.549156e+01	-4.508994e-05
1.558103e+01	-4.561232e-05
1.567103e+01	-4.614074e-05
1.576155e+01	-4.667529e-05
1.585258e+01	-4.721604e-05
1.594415e+01	-4.776305e-05
1.603624e+01	-4.831639e-05
1.612886e+01	-4.887615e-05
1.622202e+01	-4.944239e-05
1.631572e+01	-5.001519e-05
1.640996e+01	-5.059462e-05
1.650474e+01	-5.118077e-05
1.660008e+01	-5.177371e-05
1.669596e+01	-5.237352e-05
1.679239e+01	-5.298028e-05
1.688938e+01	-5.359407e-05
1.698694e+01	-5.421497e-05
1.708505e+01	-5.484306e-05
1.718373e+01	-5.547843e-05
1.728299e+01	-5.612116e-05
1.738281e+01	-5.677133e-05
1.748322e+01	-5.742904e-05
1.758420e+01	-5.809437e-05
1.768576e+01	-5.876740e-05
1.778792e+01	-5.944823e-05
1.789066e+01	-6.013695e-05
1.799399e+01	-6.083365e-05
1.809793e+01	-6.153842e-05
1.820246e+01	-6.225136e-05
1.830760e+01	-6.297255e-05
1.841334e+01	-6.370210e-05
1.851969e+01	-6.444010e-05
1.862666e+01	-6.518665e-05
1.873425e+01	-6.594185e-05
1.884246e+01	-6.670580e-05
1.895129e+01	-6.747860e-05
1.906075e+01	-6.826035e-05
1.917085e+01	-6.905116e-05
1.928158e+01	-6.985113e-05
1.939295e+01	-7.066037e-05
1.950496e+01	-7.147898e-05
1.961762e+01	-7.230708e-05
1.973093e+01	-7.314477e-05
1.984490e+01	-7.399217e-05
1.995952e+01	-7.484938e-05
2.007480e+01	-7.571652e-05
2.019076e+01	-7.659371e-05
2.030738e+01	-7.748106e-05
2.042467e+01	-7.837870e-05
2.054264e+01	-7.928673e-05
2.066130e+01	-8.020528e-05
2.078064e+01	-8.113447e-05
2.090066e+01	-8.207442e-05
2.102139e+01	-8.302527e-05
2.114280e+01	-8.398713e-05
2.126492e+01	-8.496014e-05
2.138775e+01	-8.594441e-05
2.151128e+01	-8.694010e-05
2.163553e+01	-8.794731e-05
2.176050e+01	-8.896619e-05
2.188619e+01	-8.999688e-05
2.201260e+01	-9.103951e-05
2.213974e+01	-9.209422e-05
2.226762e+01	-9.316114e-05
2.239624e+01	-9.424043e-05
2.252560e+01	-9.533222e-05
2.265571e+01	-9.643666e-05
2.278656e+01	-9.755389e-05
2.291818e+01	-9.868407e-05
2.305055e+01	-9.982734e-05
2.318369e+01	-1.009838e-04
2.331760e+01	-1.021538e-04
2.345228e+01	-1.033372e-04
2.358774e+01	-1.045344e-04
2.372398e+01	-1.057454e-04
2.386101e+01	-1.069705e-04
2.399883e+01	-1.082098e-04
2.413745e+01	-1.094634e-04
2.427686e+01	-1.107316e-04
2.441709e+01	-1.120144e-04
2.455812e+01	-1.133121e-04
2.469997e+01	-1.146248e-04
2.484263e+01	-1.159528e-04
2.498612e+01	-1.172961e-04
2.513044e+01	-1.186550e-04
2.527559e+01	-1.200296e-04
2.542158e+01	-1.214202e-04
2.556842e+01	-1.228269e-04
2.571610e+01	-1.242498e-04
2.586463e+01	-1.256893e-04
2.601403e+01	-1.271454e-04
2.616428e+01	-1.286184e-04
2.631541e+01	-1.301084e-04
2.646740e+01	-1.316158e-04
2.662028e+01	-1.331405e-04
2.677404e+01	-1.346830e-04
2.692868e+01	-1.362433e-04
2.708422e+01	-1.378217e-04
2.724066e+01	-1.394184e-04
2.739800e+01	-1.410336e-04
2.755625e+01	-1.426674e-04
2.771541e+01	-1.443203e-04
2.787550e+01	-1.459922e-04
2.803650e+01	-1.476835e-04
2.819844e+01	-1.493945e-04
2.836131e+01	-1.511252e-04
2.852513e+01	-1.528760e-04
2.868989e+01	-1.546471e-04
2.885560e+01	-1.564387e-04
2.902227e+01	-1.582510e-04
2.918990e+01	-1.600844e-04
2.935850e+01	-1.619390e-04
2.952807e+01	-1.638151e-04
2.969863e+01	-1.657129e-04
2.987016e+01	-1.676327e-04
3.004269e+01	-1.695747e-04
3.021622e+01	-1.715392e-04
3.039075e+01	-1.735265e-04
3.056628e+01	-1.755368e-04
3.074283e+01	-1.775704e-04
3.092040e+01	-1.796276e-04
3.109900e+01	-1.817086e-04
3.127862e+01	-1.838137e-04
3.145929e+01	-1.859432e-04
3.164099e+01	-1.880973e-04
3.182375e+01	-1.902764e-04
3.200756e+01	-1.924808e-04
3.219244e+01	-1.947107e-04
3.237838e+01	-1.969664e-04
3.256540e+01	-1.992483e-04
3.275349e+01	-2.015566e-04
3.294268e+01	-2.038916e-04
3.313295e+01	-2.062537e-04
3.332433e+01	-2.086431e-04
3.351681e+01	-2.110603e-04
3.371040e+01	-2.135054e-04
3.390511e+01	-2.159788e-04
3.410094e+01	-2.184810e-04
3.429791e+01	-2.210121e-04
3.449601e+01	-2.235725e-04
3.469526e+01	-2.261626e-04
3.489566e+01	-2.287826e-04
3.509721e+01	-2.314331e-04
3.529993e+01	-2.341142e-04
3.550382e+01	-2.368264e-04
3.570889e+01	-2.395701e-04
3.591515e+01	-2.423455e-04
3.612259e+01	-2.451530e-04
3.633123e+01	-2.479931e-04
3.654108e+01	-2.508661e-04
3.675214e+01	-2.537724e-04
3.696442e+01	-2.567123e-04
3.717792e+01	-2.596863e-04
3.739266e+01	-2.626948e-04
3.760864e+01	-2.657380e-04
3.782587e+01	-2.688166e-04
3.804435e+01	-2.719308e-04
3.826409e+01	-2.750811e-04
3.848510e+01	-2.782679e-04
3.870739e+01	-2.814916e-04
3.893096e+01	-2.847527e-04
3.915583e+01	-2.880515e-04
3.938199e+01	-2.913885e-04
3.960946e+01	-2.947642e-04
3.983824e+01	-2.981790e-04
4.006834e+01	-3.016334e-04
4.029978e+01	-3.051278e-04
4.053255e+01	-3.086627e-04
4.076666e+01	-3.122385e-04
4.100213e+01	-3.158557e-04
4.123896e+01	-3.195149e-04
4.147715e+01	-3.232164e-04
4.171672e+01	-3.269608e-04
4.195767e+01	-3.307486e-04
4.220002e+01	-3.345803e-04
4.244377e+01	-3.384563e-04
4.268892e+01	-3.423773e-04
4.293549e+01	-3.463436e-04
4.318348e+01	-3.503560e-04
4.343291e+01	-3.544148e-04
4.368377e+01	-3.585206e-04
4.393609e+01	-3.626740e-04
4.418986e+01	-3.668755e-04
4.444510e+01	-3.711257e-04
4.470182e+01	-3.754251e-04
4.496001e+01	-3.797743e-04
4.521970e+01	-3.841739e-04
4.548089e+01	-3.886244e-04
4.574358e+01	-3.931266e-04
4.600779e+01	-3.976808e-04
4.627353e+01	-4.022879e-04
4.654081e+01	-4.069483e-04
4.680963e+01	-4.116626e-04
4.708000e+01	-4.164316e-04
4.735193e+01	-4.212559e-04
4.762543e+01	-4.261360e-04
4.790051e+01	-4.310727e-04
4.817719e+01	-4.360665e-04
4.845545e+01	-4.411182e-04
4.873533e+01	-4.462284e-04
4.901682e+01	-4.513978e-04
4.929994e+01	-4.566271e-04
4.958470e+01	-4.619170e-04
4.987110e+01	-4.672681e-04
5.015915e+01	-4.726813e-04
5.044887e+01	-4.781571e-04
5.074026e+01	-4.836964e-04
5.103333e+01	-4.892998e-04
5.132810e+01	-4.949682e-04
5.162457e+01	-5.007022e-04
5.192275e+01	-5.065026e-04
5.222265e+01	-5.123703e-04
5.252429e+01	-5.183059e-04
5.282767e+01	-5.243102e-04
5.313280e+01	-5.303841e-04
5.343969e+01	-5.365284e-04
5.374836e+01	-5.427438e-04
5.405880e+01	-5.490313e-04
5.437105e+01	-5.553915e-04
5.468509e+01	-5.618255e-04
5.500095e+01	-5.683340e-04
5.531863e+01	-5.749178e-04
5.563815e+01	-5.815780e-04
5.595951e+01	-5.883153e-04
5.628273e+01	-5.951306e-04
5.660782e+01	-6.020249e-04
5.693479e+01	-6.089990e-04
5.726364e+01	-6.160539e-04
5.759439e+01	-6.231906e-04
5.792705e+01	-6.304099e-04
5.826164e+01	-6.377128e-04
5.859815e+01	-6.451003e-04
5.893662e+01	-6.525734e-04
5.927703e+01	-6.601331e-04
5.961941e+01	-6.677803e-04
5.996377e+01	-6.755162e-04
6.031012e+01	-6.833416e-04
6.065847e+01	-6.912576e-04
6.100883e+01	-6.992654e-04
6.136121e+01	-7.073659e-04
6.171563e+01	-7.155603e-04
6.207210e+01	-7.238496e-04
6.243063e+01	-7.322349e-04
6.279122e+01	-7.407173e-04
6.315390e+01	-7.492979e-04
6.351868e+01	-7.579780e-04
6.388556e+01	-7.667586e-04
6.425456e+01	-7.756409e-04
6.462569e+01	-7.846261e-04
6.499897e+01	-7.937154e-04
6.537440e+01	-8.029100e-04
6.575200e+01	-8.122110e-04
6.613178e+01	-8.216198e-04
6.651375e+01	-8.311376e-04
6.689793e+01	-8.407656e-04
6.728433e+01	-8.505052e-04
6.767297e+01	-8.603575e-04
6.806384e+01	-8.703240e-04
6.845698e+01	-8.804059e-04
6.885238e+01	-8.906046e-04
6.925007e+01	-9.009215e-04
6.965005e+01	-9.113578e-04
7.005235e+01	-9.219150e-04
7.045697e+01	-9.325945e-04
7.086393e+01	-9.433977e-04
7.127323e+01	-9.543260e-04
7.168490e+01	-9.653809e-04
7.209895e+01	-9.765638e-04
7.251539e+01	-9.878763e-04
7.293424e+01	-9.993198e-04
7.335551e+01	-1.010896e-03
7.377920e+01	-1.022606e-03
7.420535e+01	-1.034452e-03
7.463396e+01	-1.046435e-03
7.506504e+01	-1.058556e-03
7.549861e+01	-1.070819e-03
7.593469e+01	-1.083223e-03
7.637328e+01	-1.095771e-03
7.681441e+01	-1.108464e-03
7.725809e+01	-1.121304e-03
7.770433e+01	-1.134293e-03
7.815315e+01	-1.147432e-03
7.860456e+01	-1.160724e-03
7.905857e+01	-1.174169e-03
7.951521e+01	-1.187771e-03
7.997449e+01	-1.201529e-03
8.043642e+01	-1.215447e-03
8.090102e+01	-1.229527e-03
8.136830e+01	-1.243769e-03
8.183828e+01	-1.258176e-03
8.231097e+01	-1.272751e-03
8.278640e+01	-1.287493e-03
8.326457e+01	-1.302407e-03
8.374550e+01	-1.317494e-03
8.422921e+01	-1.332755e-03
8.471572e+01	-1.348193e-03
8.520503e+01	-1.363809e-03
8.569717e+01	-1.379607e-03
8.619215e+01	-1.395588e-03
8.669000e+01	-1.411753e-03
8.719071e+01	-1.428106e-03
8.769432e+01	-1.444648e-03
8.820084e+01	-1.461382e-03
8.871029e+01	-1.478310e-03
8.922267e+01	-1.495433e-03
8.973802e+01	-1.512755e-03
9.025634e+01	-1.530278e-03
9.077766e+01	-1.548004e-03
9.130199e+01	-1.565934e-03
9.182935e+01	-1.584073e-03
9.235975e+01	-1.602421e-03
9.289321e+01	-1.620982e-03
9.342976e+01	-1.639758e-03
9.396941e+01	-1.658752e-03
9.451217e+01	-1.677965e-03
9.505807e+01	-1.697401e-03
9.560712e+01	-1.717062e-03
9.615934e+01	-1.736951e-03
9.671476e+01	-1.757070e-03
9.727338e+01	-1.777422e-03
9.783522e+01	-1.798009e-03
9.840032e+01	-1.818835e-03
9.896867e+01	-1.839902e-03
9.954031e+01	-1.861214e-03
1.001153e+02	-1.882772e-03
1.006935e+02	-1.904579e-03
1.012751e+02	-1.926639e-03
1.018601e+02	-1.948955e-03
1.024484e+02	-1.971529e-03
1.030402e+02	-1.994365e-03
1.036353e+02	-2.017464e-03
1.042339e+02	-2.040832e-03
1.048360e+02	-2.064470e-03
1.054415e+02	-2.088381e-03
1.060505e+02	-2.112570e-03
1.066631e+02	-2.137039e-03
1.072791e+02	-2.161791e-03
1.078988e+02	-2.186829e-03
1.085220e+02	-2.212158e-03
1.091488e+02	-2.237780e-03
1.097793e+02	-2.263698e-03
1.104133e+02	-2.289917e-03
1.110511e+02	-2.316439e-03
1.116925e+02	-2.343268e-03
1.123376e+02	-2.370408e-03
1.129865e+02	-2.397862e-03
1.136391e+02	-2.425635e-03
1.142955e+02	-2.453728e-03
1.149556e+02	-2.482147e-03
1.156196e+02	-2.510895e-03
1.162874e+02	-2.539976e-03
1.169591e+02	-2.569394e-03
1.176347e+02	-2.599152e-03
1.183141e+02	-2.629255e-03
1.189975e+02	-2.659706e-03
1.196848e+02	-2.690510e-03
1.203761e+02	-2.721670e-03
1.210714e+02	-2.753191e-03
1.217707e+02	-2.785078e-03
1.224740e+02	-2.817333e-03
1.231814e+02	-2.849962e-03
1.238929e+02	-2.882968e-03
1.246085e+02	-2.916357e-03
1.253283e+02	-2.950132e-03
1.260522e+02	-2.984299e-03
1.267802e+02	-3.018861e-03
1.275125e+02	-3.053823e-03
1.282490e+02	-3.089189e-03
1.289898e+02	-3.124966e-03
1.297348e+02	-3.161156e-03
1.304842e+02	-3.197765e-03
1.312378e+02	-3.234798e-03
1.319959e+02	-3.272260e-03
1.327583e+02	-3.310156e-03
1.335251e+02	-3.348490e-03
1.342963e+02	-3.387268e-03
1.350720e+02	-3.426495e-03
1.358522e+02	-3.466176e-03
1.366368e+02	-3.506316e-03
1.374260e+02	-3.546921e-03
1.382198e+02	-3.587996e-03
1.390182e+02	-3.629547e-03
1.398211e+02	-3.671578e-03
1.406287e+02	-3.714096e-03
1.414410e+02	-3.757106e-03
1.422579e+02	-3.800614e-03
1.430796e+02	-3.844626e-03
1.439060e+02	-3.889147e-03
1.447372e+02	-3.934183e-03
1.455732e+02	-3.979741e-03
1.464141e+02	-4.025826e-03
1.472597e+02	-4.072444e-03
1.481103e+02	-4.119602e-03
1.489658e+02	-4.167306e-03
1.498262e+02	-4.215561e-03
1.506916e+02	-4.264376e-03
1.515620e+02	-4.313755e-03
1.524374e+02	-4.363706e-03
1.533179e+02	-4.414235e-03
1.542034e+02	-4.465349e-03
1.550941e+02	-4.517054e-03
1.559899e+02	-4.569358e-03
1.568909e+02	-4.622267e-03
1.577971e+02	-4.675788e-03
1.587085e+02	-4.729928e-03
1.596252e+02	-4.784696e-03
1.605472e+02	-4.840097e-03
1.614745e+02	-4.896139e-03
1.624072e+02	-4.952829e-03
1.633453e+02	-5.010176e-03
1.642887e+02	-5.068186e-03
1.652377e+02	-5.126868e-03
1.661921e+02	-5.186228e-03
1.671520e+02	-5.246276e-03
1.681175e+02	-5.307018e-03
1.690885e+02	-5.368463e-03
1.700651e+02	-5.430619e-03
1.710474e+02	-5.493494e-03
1.720354e+02	-5.557097e-03
1.730291e+02	-5.621436e-03
1.740285e+02	-5.686519e-03
1.750337e+02	-5.752355e-03
1.760446e+02	-5.818953e-03
1.770615e+02	-5.886321e-03
1.780842e+02	-5.954469e-03
1.791128e+02	-6.023405e-03
1.801473e+02	-6.093138e-03
1.811878e+02	-6.163679e-03
1.822344e+02	-6.235035e-03
1.832870e+02	-6.307217e-03
1.843456e+02	-6.380234e-03
1.854104e+02	-6.454096e-03
1.864813e+02	-6.528812e-03
1.875584e+02	-6.604392e-03
1.886418e+02	-6.680846e-03
1.897313e+02	-6.758185e-03
1.908272e+02	-6.836419e-03
1.919294e+02	-6.915557e-03
1.930380e+02	-6.995611e-03
1.941530e+02	-7.076591e-03
1.952744e+02	-7.158507e-03
1.964023e+02	-7.241371e-03
1.975367e+02	-7.325193e-03
1.986777e+02	-7.409985e-03
1.998252e+02	-7.495757e-03
2.009794e+02	-7.582522e-03
2.021403e+02	-7.670289e-03
2.033078e+02	-7.759072e-03
2.044821e+02	-7.848881e-03
2.056632e+02	-7.939729e-03
2.068511e+02	-8.031628e-03
2.080459e+02	-8.124589e-03
2.092475e+02	-8.218625e-03
2.104561e+02	-8.313749e-03
2.116717e+02	-8.409972e-03
2.128943e+02	-8.507308e-03
2.141240e+02	-8.605769e-03
2.153608e+02	-8.705369e-03
2.166047e+02	-8.806121e-03
2.178558e+02	-8.908037e-03
2.191141e+02	-9.011131e-03
2.203797e+02	-9.115418e-03
2.216526e+02	-9.220910e-03
2.229329e+02	-9.327621e-03
2.242205e+02	-9.435566e-03
2.255156e+02	-9.544759e-03
2.268182e+02	-9.655215e-03
2.281283e+02	-9.766947e-03
2.294459e+02	-9.879970e-03
2.307712e+02	-9.994300e-03
2.321041e+02	-1.010995e-02
2.334447e+02	-1.022694e-02
2.347931e+02	-1.034528e-02
2.361493e+02	-1.046499e-02
2.375133e+02	-1.058608e-02
2.388851e+02	-1.070857e-02
2.402649e+02	-1.083248e-02
2.416527e+02	-1.095781e-02
2.430484e+02	-1.108460e-02
2.444523e+02	-1.121285e-02
2.458642e+02	-1.134259e-02
2.472843e+02	-1.147382e-02
2.487126e+02	-1.160657e-02
2.501492e+02	-1.174085e-02
2.515940e+02	-1.187668e-02
2.530472e+02	-1.201409e-02
2.545088e+02	-1.215308e-02
2.559789e+02	-1.229368e-02
2.574574e+02	-1.243590e-02
2.589444e+02	-1.257976e-02
2.604401e+02	-1.272529e-02
2.619444e+02	-1.287249e-02
2.634574e+02	-1.302140e-02
2.649791e+02	-1.317203e-02
2.665096e+02	-1.332439e-02
2.680489e+02	-1.347852e-02
2.695972e+02	-1.363442e-02
2.711544e+02	-1.379213e-02
2.727205e+02	-1.395166e-02
2.742958e+02	-1.411303e-02
2.758801e+02	-1.427626e-02
2.774736e+02	-1.444138e-02
2.790762e+02	-1.460841e-02
2.806882e+02	-1.477736e-02
2.823094e+02	-1.494826e-02
2.839400e+02	-1.512114e-02
2.855800e+02	-1.529601e-02
2.872295e+02	-1.547290e-02
2.888886e+02	-1.565184e-02
2.905572e+02	-1.583284e-02
2.922354e+02	-1.601592e-02
2.939234e+02	-1.620113e-02
2.956211e+02	-1.638846e-02
2.973286e+02	-1.657797e-02
2.990459e+02	-1.676965e-02
3.007732e+02	-1.696355e-02
3.025104e+02	-1.715969e-02
3.042577e+02	-1.735809e-02
3.060151e+02	-1.755878e-02
3.077826e+02	-1.776179e-02
3.095604e+02	-1.796714e-02
3.113484e+02	-1.817485e-02
3.131467e+02	-1.838497e-02
3.149554e+02	-1.859750e-02
3.167746e+02	-1.881249e-02
3.186043e+02	-1.902996e-02
3.204445e+02	-1.924994e-02
3.222954e+02	-1.947245e-02
3.241570e+02	-1.969753e-02
3.260293e+02	-1.992521e-02
3.279124e+02	-2.015551e-02
3.298064e+02	-2.038846e-02
3.317114e+02	-2.062411e-02
3.336273e+02	-2.086247e-02
3.355544e+02	-2.110358e-02
3.374925e+02	-2.134746e-02
3.394418e+02	-2.159416e-02
3.414024e+02	-2.184370e-02
3.433744e+02	-2.209612e-02
3.453577e+02	-2.235145e-02
3.473525e+02	-2.260972e-02
3.493588e+02	-2.287097e-02
3.513766e+02	-2.313523e-02
3.534062e+02	-2.340253e-02
3.554474e+02	-2.367292e-02
3.575005e+02	-2.394641e-02
3.595654e+02	-2.422306e-02
3.616422e+02	-2.450290e-02
3.637311e+02	-2.478596e-02
3.658320e+02	-2.507228e-02
3.679450e+02	-2.536190e-02
3.700702e+02	-2.565485e-02
3.722077e+02	-2.595118e-02
3.743576e+02	-2.625092e-02
3.765199e+02	-2.655411e-02
3.786946e+02	-2.686079e-02
3.808820e+02	-2.717100e-02
3.830819e+02	-2.748479e-02
3.852946e+02	-2.780218e-02
3.875200e+02	-2.812323e-02
3.897583e+02	-2.844798e-02
3.920096e+02	-2.877646e-02
3.942738e+02	-2.910872e-02
3.965511e+02	-2.944481e-02
3.988416e+02	-2.978476e-02
4.011452e+02	-3.012863e-02
4.034622e+02	-3.047645e-02
4.057926e+02	-3.082827e-02
4.081365e+02	-3.118413e-02
4.104938e+02	-3.154410e-02
4.128648e+02	-3.190820e-02
4.152495e+02	-3.227648e-02
4.176480e+02	-3.264901e-02
4.200603e+02	-3.302581e-02
4.224866e+02	-3.340695e-02
4.249268e+02	-3.379247e-02
4.273812e+02	-3.418242e-02
4.298497e+02	-3.457685e-02
4.323325e+02	-3.497581e-02
4.348297e+02	-3.537936e-02
4.373412e+02	-3.578755e-02
4.398673e+02	-3.620042e-02
4.424079e+02	-3.661804e-02
4.449633e+02	-3.704046e-02
4.475334e+02	-3.746773e-02
4.501183e+02	-3.789990e-02
4.527182e+02	-3.833704e-02
4.553330e+02	-3.877920e-02
4.579630e+02	-3.922643e-02
4.606082e+02	-3.967880e-02
4.632687e+02	-4.013636e-02
4.659445e+02	-4.059917e-02
4.686358e+02	-4.106729e-02
4.713426e+02	-4.154079e-02
4.740650e+02	-4.201972e-02
4.768032e+02	-4.250414e-02
4.795572e+02	-4.299412e-02
4.823271e+02	-4.348972e-02
4.851130e+02	-4.399100e-02
4.879150e+02	-4.449803e-02
4.907332e+02	-4.501088e-02
4.935676e+02	-4.552960e-02
4.964185e+02	-4.605427e-02
4.992858e+02	-4.658496e-02
5.021696e+02	-4.712172e-02
5.050701e+02	-4.766464e-02
5.079874e+02	-4.821378e-02
5.109215e+02	-4.876920e-02
5.138726e+02	-4.933099e-02
5.168407e+02	-4.989922e-02
5.198259e+02	-5.047395e-02
5.228284e+02	-5.105526e-02
5.258482e+02	-5.164323e-02
5.288855e+02	-5.223792e-02
5.319403e+02	-5.283943e-02
5.350128e+02	-5.344781e-02
5.381030e+02	-5.406316e-02
5.412111e+02	-5.468555e-02
5.443371e+02	-5.531506e-02
5.474812e+02	-5.595176e-02
5.506434e+02	-5.659575e-02
5.538239e+02	-5.724710e-02
5.570228e+02	-5.790590e-02
5.602401e+02	-5.857223e-02
5.634760e+02	-5.924617e-02
5.667306e+02	-5.992781e-02
5.700040e+02	-6.061724e-02
5.732964e+02	-6.131455e-02
5.766077e+02	-6.201982e-02
5.799382e+02	-6.273314e-02
5.832879e+02	-6.345461e-02
5.866569e+02	-6.418431e-02
5.900454e+02	-6.492234e-02
5.934535e+02	-6.566880e-02
5.968813e+02	-6.642377e-02
6.003288e+02	-6.718735e-02
6.037963e+02	-6.795964e-02
6.072838e+02	-6.874074e-02
6.107914e+02	-6.953074e-02
6.143194e+02	-7.032975e-02
6.178676e+02	-7.113786e-02
6.214364e+02	-7.195519e-02
6.250258e+02	-7.278182e-02
6.286359e+02	-7.361788e-02
6.322669e+02	-7.446345e-02
6.359189e+02	-7.531865e-02
6.395919e+02	-7.618358e-02
6.432862e+02	-7.705836e-02
6.470017e+02	-7.794310e-02
6.507388e+02	-7.883790e-02
6.544974e+02	-7.974287e-02
6.582778e+02	-8.065814e-02
6.620800e+02	-8.158382e-02
6.659041e+02	-8.252002e-02
6.697504e+02	-8.346685e-02
6.736188e+02	-8.442445e-02
6.775096e+02	-8.539292e-02
6.814229e+02	-8.637240e-02
6.853587e+02	-8.736299e-02
6.893173e+02	-8.836483e-02
6.932988e+02	-8.937804e-02
6.973033e+02	-9.040274e-02
7.013309e+02	-9.143907e-02
