Frequency(Hz)	Magnitude(dB)
1.000000e+01	-1.594466e-05
1.005776e+01	-1.612938e-05
1.011585e+01	-1.631625e-05
1.017428e+01	-1.650527e-05
1.023305e+01	-1.669649e-05
1.029215e+01	-1.688993e-05
1.035160e+01	-1.708560e-05
1.041139e+01	-1.728354e-05
1.047153e+01	-1.748377e-05
1.053201e+01	-1.768633e-05
1.059284e+01	-1.789123e-05
1.065403e+01	-1.809850e-05
1.071556e+01	-1.830818e-05
1.077746e+01	-1.852028e-05
1.083971e+01	-1.873485e-05
1.090232e+01	-1.895189e-05
1.096529e+01	-1.917146e-05
1.102862e+01	-1.939356e-05
1.109232e+01	-1.961824e-05
1.115639e+01	-1.984553e-05
1.122083e+01	-2.007544e-05
1.128564e+01	-2.030802e-05
1.135083e+01	-2.054329e-05
1.141639e+01	-2.078129e-05
1.148233e+01	-2.102205e-05
1.154865e+01	-2.126559e-05
1.161536e+01	-2.151196e-05
1.168245e+01	-2.176118e-05
1.174992e+01	-2.201329e-05
1.181779e+01	-2.226832e-05
1.188605e+01	-2.252631e-05
1.195470e+01	-2.278728e-05
1.202375e+01	-2.305127e-05
1.209320e+01	-2.331833e-05
1.216305e+01	-2.358848e-05
1.223330e+01	-2.386176e-05
1.230396e+01	-2.413820e-05
1.237503e+01	-2.441785e-05
1.244651e+01	-2.470073e-05
1.251840e+01	-2.498690e-05
1.259070e+01	-2.527638e-05
1.266343e+01	-2.556921e-05
1.273657e+01	-2.586544e-05
1.281014e+01	-2.616509e-05
1.288413e+01	-2.646822e-05
1.295855e+01	-2.677486e-05
1.303339e+01	-2.708506e-05
1.310867e+01	-2.739884e-05
1.318439e+01	-2.771627e-05
1.326054e+01	-2.803737e-05
1.333713e+01	-2.836219e-05
1.341417e+01	-2.869077e-05
1.349165e+01	-2.902316e-05
1.356958e+01	-2.935940e-05
1.364795e+01	-2.969953e-05
1.372678e+01	-3.004361e-05
1.380607e+01	-3.039167e-05
1.388581e+01	-3.074377e-05
1.396602e+01	-3.109994e-05
1.404668e+01	-3.146024e-05
1.412782e+01	-3.182472e-05
1.420942e+01	-3.219341e-05
1.429149e+01	-3.256638e-05
1.437404e+01	-3.294367e-05
1.445706e+01	-3.332533e-05
1.454057e+01	-3.371141e-05
1.462455e+01	-3.410197e-05
1.470902e+01	-3.449705e-05
1.479398e+01	-3.489670e-05
1.487943e+01	-3.530099e-05
1.496537e+01	-3.570996e-05
1.505181e+01	-3.612367e-05
1.513875e+01	-3.654217e-05
1.522619e+01	-3.696552e-05
1.531414e+01	-3.739377e-05
1.540259e+01	-3.782699e-05
1.549156e+01	-3.826522e-05
1.558103e+01	-3.870853e-05
1.567103e+01	-3.915698e-05
1.576155e+01	-3.961062e-05
1.585258e+01	-4.006952e-05
1.594415e+01	-4.053374e-05
1.603624e+01	-4.100333e-05
1.612886e+01	-4.147836e-05
1.622202e+01	-4.195890e-05
1.631572e+01	-4.244500e-05
1.640996e+01	-4.293673e-05
1.650474e+01	-4.343417e-05
1.660008e+01	-4.393736e-05
1.669596e+01	-4.444638e-05
1.679239e+01	-4.496131e-05
1.688938e+01	-4.548219e-05
1.698694e+01	-4.600911e-05
1.708505e+01	-4.654214e-05
1.718373e+01	-4.708134e-05
1.728299e+01	-4.762679e-05
1.738281e+01	-4.817855e-05
1.748322e+01	-4.873671e-05
1.758420e+01	-4.930134e-05
1.768576e+01	-4.987250e-05
1.778792e+01	-5.045029e-05
1.789066e+01	-5.103477e-05
1.799399e+01	-5.162601e-05
1.809793e+01	-5.222411e-05
1.820246e+01	-5.282914e-05
1.830760e+01	-5.344118e-05
1.841334e+01	-5.406030e-05
1.851969e+01	-5.468660e-05
1.862666e+01	-5.532016e-05
1.873425e+01	-5.596105e-05
1.884246e+01	-5.660937e-05
1.895129e+01	-5.726521e-05
1.906075e+01	-5.792863e-05
1.917085e+01	-5.859975e-05
1.928158e+01	-5.927864e-05
1.939295e+01	-5.996539e-05
1.950496e+01	-6.066011e-05
1.961762e+01	-6.136286e-05
1.973093e+01	-6.207377e-05
1.984490e+01	-6.279290e-05
1.995952e+01	-6.352037e-05
2.007480e+01	-6.425627e-05
2.019076e+01	-6.500069e-05
2.030738e+01	-6.575373e-05
2.042467e+01	-6.651550e-05
2.054264e+01	-6.728610e-05
2.066130e+01	-6.806562e-05
2.078064e+01	-6.885417e-05
2.090066e+01	-6.965186e-05
2.102139e+01	-7.045879e-05
2.114280e+01	-7.127507e-05
2.126492e+01	-7.210080e-05
2.138775e+01	-7.293610e-05
2.151128e+01	-7.378108e-05
2.163553e+01	-7.463585e-05
2.176050e+01	-7.550052e-05
2.188619e+01	-7.637521e-05
2.201260e+01	-7.726003e-05
2.213974e+01	-7.815510e-05
2.226762e+01	-7.906054e-05
2.239624e+01	-7.997647e-05
2.252560e+01	-8.090301e-05
2.265571e+01	-8.184028e-05
2.278656e+01	-8.278842e-05
2.291818e+01	-8.374753e-05
2.305055e+01	-8.471776e-05
2.318369e+01	-8.569923e-05
2.331760e+01	-8.669207e-05
2.345228e+01	-8.769641e-05
2.358774e+01	-8.871239e-05
2.372398e+01	-8.974014e-05
2.386101e+01	-9.077979e-05
2.399883e+01	-9.183149e-05
2.413745e+01	-9.289537e-05
2.427686e+01	-9.397158e-05
2.441709e+01	-9.506026e-05
2.455812e+01	-9.616154e-05
2.469997e+01	-9.727559e-05
2.484263e+01	-9.840254e-05
2.498612e+01	-9.954255e-05
2.513044e+01	-1.006958e-04
2.527559e+01	-1.018623e-04
2.542158e+01	-1.030424e-04
2.556842e+01	-1.042362e-04
2.571610e+01	-1.054438e-04
2.586463e+01	-1.066654e-04
2.601403e+01	-1.079011e-04
2.616428e+01	-1.091511e-04
2.631541e+01	-1.104157e-04
2.646740e+01	-1.116949e-04
2.662028e+01	-1.129889e-04
2.677404e+01	-1.142978e-04
2.692868e+01	-1.156220e-04
2.708422e+01	-1.169615e-04
2.724066e+01	-1.183165e-04
2.739800e+01	-1.196872e-04
2.755625e+01	-1.210738e-04
2.771541e+01	-1.224765e-04
2.787550e+01	-1.238954e-04
2.803650e+01	-1.253307e-04
2.819844e+01	-1.267827e-04
2.836131e+01	-1.282515e-04
2.852513e+01	-1.297373e-04
2.868989e+01	-1.312403e-04
2.885560e+01	-1.327607e-04
2.902227e+01	-1.342988e-04
2.918990e+01	-1.358546e-04
2.935850e+01	-1.374285e-04
2.952807e+01	-1.390206e-04
2.969863e+01	-1.406312e-04
2.987016e+01	-1.422604e-04
3.004269e+01	-1.439085e-04
3.021622e+01	-1.455757e-04
3.039075e+01	-1.472622e-04
3.056628e+01	-1.489683e-04
3.074283e+01	-1.506941e-04
3.092040e+01	-1.524399e-04
3.109900e+01	-1.542059e-04
3.127862e+01	-1.559924e-04
3.145929e+01	-1.577996e-04
3.164099e+01	-1.596277e-04
3.182375e+01	-1.614770e-04
3.200756e+01	-1.633477e-04
3.219244e+01	-1.652401e-04
3.237838e+01	-1.671544e-04
3.256540e+01	-1.690909e-04
3.275349e+01	-1.710499e-04
3.294268e+01	-1.730315e-04
3.313295e+01	-1.750361e-04
3.332433e+01	-1.770639e-04
3.351681e+01	-1.791151e-04
3.371040e+01	-1.811902e-04
3.390511e+01	-1.832893e-04
3.410094e+01	-1.854127e-04
3.429791e+01	-1.875607e-04
3.449601e+01	-1.897336e-04
3.469526e+01	-1.919317e-04
3.489566e+01	-1.941552e-04
3.509721e+01	-1.964045e-04
3.529993e+01	-1.986799e-04
3.550382e+01	-2.009816e-04
3.570889e+01	-2.033099e-04
3.591515e+01	-2.056653e-04
3.612259e+01	-2.080479e-04
3.633123e+01	-2.104582e-04
3.654108e+01	-2.128963e-04
3.675214e+01	-2.153627e-04
3.696442e+01	-2.178577e-04
3.717792e+01	-2.203816e-04
3.739266e+01	-2.229347e-04
3.760864e+01	-2.255174e-04
3.782587e+01	-2.281300e-04
3.804435e+01	-2.307729e-04
3.826409e+01	-2.334464e-04
3.848510e+01	-2.361508e-04
3.870739e+01	-2.388866e-04
3.893096e+01	-2.416541e-04
3.915583e+01	-2.444537e-04
3.938199e+01	-2.472857e-04
3.960946e+01	-2.501504e-04
3.983824e+01	-2.530484e-04
4.006834e+01	-2.559800e-04
4.029978e+01	-2.589455e-04
4.053255e+01	-2.619453e-04
4.076666e+01	-2.649800e-04
4.100213e+01	-2.680497e-04
4.123896e+01	-2.711551e-04
4.147715e+01	-2.742964e-04
4.171672e+01	-2.774741e-04
4.195767e+01	-2.806886e-04
4.220002e+01	-2.839403e-04
4.244377e+01	-2.872298e-04
4.268892e+01	-2.905573e-04
4.293549e+01	-2.939234e-04
4.318348e+01	-2.973284e-04
4.343291e+01	-3.007729e-04
4.368377e+01	-3.042574e-04
4.393609e+01	-3.077821e-04
4.418986e+01	-3.113477e-04
4.444510e+01	-3.149547e-04
4.470182e+01	-3.186034e-04
4.496001e+01	-3.222943e-04
4.521970e+01	-3.260281e-04
4.548089e+01	-3.298051e-04
4.574358e+01	-3.336258e-04
4.600779e+01	-3.374908e-04
4.627353e+01	-3.414006e-04
4.654081e+01	-3.453556e-04
4.680963e+01	-3.493565e-04
4.708000e+01	-3.534037e-04
4.735193e+01	-3.574978e-04
4.762543e+01	-3.616394e-04
4.790051e+01	-3.658289e-04
4.817719e+01	-3.700669e-04
4.845545e+01	-3.743541e-04
4.873533e+01	-3.786909e-04
4.901682e+01	-3.830779e-04
4.929994e+01	-3.875158e-04
4.958470e+01	-3.920051e-04
4.987110e+01	-3.965464e-04
5.015915e+01	-4.011402e-04
5.044887e+01	-4.057873e-04
5.074026e+01	-4.104883e-04
5.103333e+01	-4.152437e-04
5.132810e+01	-4.200542e-04
5.162457e+01	-4.249204e-04
5.192275e+01	-4.298429e-04
5.222265e+01	-4.348225e-04
5.252429e+01	-4.398598e-04
5.282767e+01	-4.449555e-04
5.313280e+01	-4.501101e-04
5.343969e+01	-4.553245e-04
5.374836e+01	-4.605993e-04
5.405880e+01	-4.659352e-04
5.437105e+01	-4.713329e-04
5.468509e+01	-4.767931e-04
5.500095e+01	-4.823166e-04
5.531863e+01	-4.879040e-04
5.563815e+01	-4.935562e-04
5.595951e+01	-4.992739e-04
5.628273e+01	-5.050577e-04
5.660782e+01	-5.109086e-04
5.693479e+01	-5.168273e-04
5.726364e+01	-5.228145e-04
5.759439e+01	-5.288711e-04
5.792705e+01	-5.349978e-04
5.826164e+01	-5.411956e-04
5.859815e+01	-5.474651e-04
5.893662e+01	-5.538072e-04
5.927703e+01	-5.602228e-04
5.961941e+01	-5.667127e-04
5.996377e+01	-5.732778e-04
6.031012e+01	-5.799189e-04
6.065847e+01	-5.866370e-04
6.100883e+01	-5.934329e-04
6.136121e+01	-6.003075e-04
6.171563e+01	-6.072617e-04
6.207210e+01	-6.142965e-04
6.243063e+01	-6.214128e-04
6.279122e+01	-6.286115e-04
6.315390e+01	-6.358936e-04
6.351868e+01	-6.432601e-04
6.388556e+01	-6.507119e-04
6.425456e+01	-6.582500e-04
6.462569e+01	-6.658754e-04
6.499897e+01	-6.735892e-04
6.537440e+01	-6.813923e-04
6.575200e+01	-6.892857e-04
6.613178e+01	-6.972707e-04
6.651375e+01	-7.053481e-04
6.689793e+01	-7.135191e-04
6.728433e+01	-7.217847e-04
6.767297e+01	-7.301461e-04
6.806384e+01	-7.386043e-04
6.845698e+01	-7.471605e-04
6.885238e+01	-7.558158e-04
6.925007e+01	-7.645714e-04
6.965005e+01	-7.734283e-04
7.005235e+01	-7.823879e-04
7.045697e+01	-7.914513e-04
7.086393e+01	-8.006196e-04
7.127323e+01	-8.098941e-04
7.168490e+01	-8.192761e-04
7.209895e+01	-8.287667e-04
7.251539e+01	-8.383673e-04
7.293424e+01	-8.480790e-04
7.335551e+01	-8.579033e-04
7.377920e+01	-8.678414e-04
7.420535e+01	-8.778945e-04
7.463396e+01	-8.880641e-04
7.506504e+01	-8.983515e-04
7.549861e+01	-9.087581e-04
7.593469e+01	-9.192852e-04
7.637328e+01	-9.299342e-04
7.681441e+01	-9.407066e-04
7.725809e+01	-9.516037e-04
7.770433e+01	-9.626271e-04
7.815315e+01	-9.737781e-04
7.860456e+01	-9.850584e-04
7.905857e+01	-9.964692e-04
7.951521e+01	-1.008012e-03
7.997449e+01	-1.019689e-03
8.043642e+01	-1.031501e-03
8.090102e+01	-1.043450e-03
8.136830e+01	-1.055537e-03
8.183828e+01	-1.067764e-03
8.231097e+01	-1.080133e-03
8.278640e+01	-1.092645e-03
8.326457e+01	-1.105302e-03
8.374550e+01	-1.118105e-03
8.422921e+01	-1.131057e-03
8.471572e+01	-1.144159e-03
8.520503e+01	-1.157413e-03
8.569717e+01	-1.170820e-03
8.619215e+01	-1.184382e-03
8.669000e+01	-1.198102e-03
8.719071e+01	-1.211980e-03
8.769432e+01	-1.226019e-03
8.820084e+01	-1.240221e-03
8.871029e+01	-1.254587e-03
8.922267e+01	-1.269120e-03
8.973802e+01	-1.283821e-03
9.025634e+01	-1.298692e-03
9.077766e+01	-1.313736e-03
9.130199e+01	-1.328953e-03
9.182935e+01	-1.344347e-03
9.235975e+01	-1.359919e-03
9.289321e+01	-1.375672e-03
9.342976e+01	-1.391607e-03
9.396941e+01	-1.407726e-03
9.451217e+01	-1.424033e-03
9.505807e+01	-1.440528e-03
9.560712e+01	-1.457214e-03
9.615934e+01	-1.474093e-03
9.671476e+01	-1.491168e-03
9.727338e+01	-1.508440e-03
9.783522e+01	-1.525913e-03
9.840032e+01	-1.543588e-03
9.896867e+01	-1.561468e-03
9.954031e+01	-1.579554e-03
1.001153e+02	-1.597851e-03
1.006935e+02	-1.616359e-03
1.012751e+02	-1.635081e-03
1.018601e+02	-1.654020e-03
1.024484e+02	-1.673179e-03
1.030402e+02	-1.692559e-03
1.036353e+02	-1.712164e-03
1.042339e+02	-1.731996e-03
1.048360e+02	-1.752058e-03
1.054415e+02	-1.772352e-03
1.060505e+02	-1.792881e-03
1.066631e+02	-1.813647e-03
1.072791e+02	-1.834654e-03
1.078988e+02	-1.855905e-03
1.085220e+02	-1.877401e-03
1.091488e+02	-1.899147e-03
1.097793e+02	-1.921144e-03
1.104133e+02	-1.943396e-03
1.110511e+02	-1.965906e-03
1.116925e+02	-1.988676e-03
1.123376e+02	-2.011710e-03
1.129865e+02	-2.035011e-03
1.136391e+02	-2.058581e-03
1.142955e+02	-2.082425e-03
1.149556e+02	-2.106544e-03
1.156196e+02	-2.130943e-03
1.162874e+02	-2.155625e-03
1.169591e+02	-2.180592e-03
1.176347e+02	-2.205848e-03
1.183141e+02	-2.231397e-03
1.189975e+02	-2.257242e-03
1.196848e+02	-2.283385e-03
1.203761e+02	-2.309832e-03
1.210714e+02	-2.336585e-03
1.217707e+02	-2.363647e-03
1.224740e+02	-2.391023e-03
1.231814e+02	-2.418716e-03
1.238929e+02	-2.446730e-03
1.246085e+02	-2.475068e-03
1.253283e+02	-2.503734e-03
1.260522e+02	-2.532732e-03
1.267802e+02	-2.562065e-03
1.275125e+02	-2.591739e-03
1.282490e+02	-2.621756e-03
1.289898e+02	-2.652120e-03
1.297348e+02	-2.682836e-03
1.304842e+02	-2.713908e-03
1.312378e+02	-2.745339e-03
1.319959e+02	-2.777135e-03
1.327583e+02	-2.809298e-03
1.335251e+02	-2.841834e-03
1.342963e+02	-2.874746e-03
1.350720e+02	-2.908040e-03
1.358522e+02	-2.941719e-03
1.366368e+02	-2.975788e-03
1.374260e+02	-3.010251e-03
1.382198e+02	-3.045113e-03
1.390182e+02	-3.080379e-03
1.398211e+02	-3.116053e-03
1.406287e+02	-3.152140e-03
1.414410e+02	-3.188645e-03
1.422579e+02	-3.225573e-03
1.430796e+02	-3.262928e-03
1.439060e+02	-3.300716e-03
1.447372e+02	-3.338940e-03
1.455732e+02	-3.377608e-03
1.464141e+02	-3.416723e-03
1.472597e+02	-3.456291e-03
1.481103e+02	-3.496317e-03
1.489658e+02	-3.536806e-03
1.498262e+02	-3.577764e-03
1.506916e+02	-3.619196e-03
1.515620e+02	-3.661107e-03
1.524374e+02	-3.703504e-03
1.533179e+02	-3.746392e-03
1.542034e+02	-3.789776e-03
1.550941e+02	-3.833662e-03
1.559899e+02	-3.878056e-03
1.568909e+02	-3.922964e-03
1.577971e+02	-3.968392e-03
1.587085e+02	-4.014345e-03
1.596252e+02	-4.060831e-03
1.605472e+02	-4.107854e-03
1.614745e+02	-4.155422e-03
1.624072e+02	-4.203540e-03
1.633453e+02	-4.252215e-03
1.642887e+02	-4.301454e-03
1.652377e+02	-4.351262e-03
1.661921e+02	-4.401647e-03
1.671520e+02	-4.452615e-03
1.681175e+02	-4.504173e-03
1.690885e+02	-4.556328e-03
1.700651e+02	-4.609086e-03
1.710474e+02	-4.662455e-03
1.720354e+02	-4.716441e-03
1.730291e+02	-4.771052e-03
1.740285e+02	-4.826295e-03
1.750337e+02	-4.882178e-03
1.760446e+02	-4.938707e-03
1.770615e+02	-4.995890e-03
1.780842e+02	-5.053735e-03
1.791128e+02	-5.112249e-03
1.801473e+02	-5.171440e-03
1.811878e+02	-5.231317e-03
1.822344e+02	-5.291886e-03
1.832870e+02	-5.353156e-03
1.843456e+02	-5.415135e-03
1.854104e+02	-5.477831e-03
1.864813e+02	-5.541252e-03
1.875584e+02	-5.605408e-03
1.886418e+02	-5.670305e-03
1.897313e+02	-5.735954e-03
1.908272e+02	-5.802362e-03
1.919294e+02	-5.869538e-03
1.930380e+02	-5.937491e-03
1.941530e+02	-6.006231e-03
1.952744e+02	-6.075766e-03
1.964023e+02	-6.146105e-03
1.975367e+02	-6.217258e-03
1.986777e+02	-6.289235e-03
1.998252e+02	-6.362044e-03
2.009794e+02	-6.435695e-03
2.021403e+02	-6.510198e-03
2.033078e+02	-6.585563e-03
2.044821e+02	-6.661800e-03
2.056632e+02	-6.738918e-03
2.068511e+02	-6.816929e-03
2.080459e+02	-6.895842e-03
2.092475e+02	-6.975668e-03
2.104561e+02	-7.056417e-03
2.116717e+02	-7.138100e-03
2.128943e+02	-7.220727e-03
2.141240e+02	-7.304311e-03
2.153608e+02	-7.388861e-03
2.166047e+02	-7.474389e-03
2.178558e+02	-7.560906e-03
2.191141e+02	-7.648424e-03
2.203797e+02	-7.736953e-03
2.216526e+02	-7.826507e-03
2.229329e+02	-7.917096e-03
2.242205e+02	-8.008733e-03
2.255156e+02	-8.101429e-03
2.268182e+02	-8.195197e-03
2.281283e+02	-8.290050e-03
2.294459e+02	-8.385999e-03
2.307712e+02	-8.483058e-03
2.321041e+02	-8.581239e-03
2.334447e+02	-8.680555e-03
2.347931e+02	-8.781020e-03
2.361493e+02	-8.882646e-03
2.375133e+02	-8.985447e-03
2.388851e+02	-9.089436e-03
2.402649e+02	-9.194628e-03
2.416527e+02	-9.301035e-03
2.430484e+02	-9.408673e-03
2.444523e+02	-9.517555e-03
2.458642e+02	-9.627696e-03
2.472843e+02	-9.739110e-03
2.487126e+02	-9.851811e-03
2.501492e+02	-9.965816e-03
2.515940e+02	-1.008114e-02
2.530472e+02	-1.019779e-02
2.545088e+02	-1.031580e-02
2.559789e+02	-1.043516e-02
2.574574e+02	-1.055591e-02
2.589444e+02	-1.067805e-02
2.604401e+02	-1.080160e-02
2.619444e+02	-1.092659e-02
2.634574e+02	-1.105301e-02
2.649791e+02	-1.118090e-02
2.665096e+02	-1.131026e-02
2.680489e+02	-1.144112e-02
2.695972e+02	-1.157349e-02
2.711544e+02	-1.170739e-02
2.727205e+02	-1.184284e-02
2.742958e+02	-1.197985e-02
2.758801e+02	-1.211845e-02
2.774736e+02	-1.225865e-02
2.790762e+02	-1.240046e-02
2.806882e+02	-1.254392e-02
2.823094e+02	-1.268903e-02
2.839400e+02	-1.283581e-02
2.855800e+02	-1.298430e-02
2.872295e+02	-1.313450e-02
2.888886e+02	-1.328643e-02
2.905572e+02	-1.344012e-02
2.922354e+02	-1.359558e-02
2.939234e+02	-1.375284e-02
2.956211e+02	-1.391191e-02
2.973286e+02	-1.407282e-02
2.990459e+02	-1.423559e-02
3.007732e+02	-1.440024e-02
3.025104e+02	-1.456679e-02
3.042577e+02	-1.473526e-02
3.060151e+02	-1.490568e-02
3.077826e+02	-1.507806e-02
3.095604e+02	-1.525244e-02
3.113484e+02	-1.542883e-02
3.131467e+02	-1.560725e-02
3.149554e+02	-1.578774e-02
3.167746e+02	-1.597030e-02
3.186043e+02	-1.615498e-02
3.204445e+02	-1.634178e-02
3.222954e+02	-1.653075e-02
3.241570e+02	-1.672189e-02
3.260293e+02	-1.691524e-02
3.279124e+02	-1.711082e-02
3.298064e+02	-1.730866e-02
3.317114e+02	-1.750877e-02
3.336273e+02	-1.771120e-02
3.355544e+02	-1.791597e-02
3.374925e+02	-1.812309e-02
3.394418e+02	-1.833261e-02
3.414024e+02	-1.854454e-02
3.433744e+02	-1.875892e-02
3.453577e+02	-1.897577e-02
3.473525e+02	-1.919512e-02
3.493588e+02	-1.941700e-02
3.513766e+02	-1.964144e-02
3.534062e+02	-1.986847e-02
3.554474e+02	-2.009812e-02
3.575005e+02	-2.033041e-02
3.595654e+02	-2.056539e-02
3.616422e+02	-2.080307e-02
3.637311e+02	-2.104349e-02
3.658320e+02	-2.128669e-02
3.679450e+02	-2.153269e-02
3.700702e+02	-2.178152e-02
3.722077e+02	-2.203322e-02
3.743576e+02	-2.228782e-02
3.765199e+02	-2.254536e-02
3.786946e+02	-2.280587e-02
3.808820e+02	-2.306938e-02
3.830819e+02	-2.333592e-02
3.852946e+02	-2.360553e-02
3.875200e+02	-2.387826e-02
3.897583e+02	-2.415412e-02
3.920096e+02	-2.443316e-02
3.942738e+02	-2.471542e-02
3.965511e+02	-2.500093e-02
3.988416e+02	-2.528972e-02
4.011452e+02	-2.558184e-02
4.034622e+02	-2.587733e-02
4.057926e+02	-2.617622e-02
4.081365e+02	-2.647855e-02
4.104938e+02	-2.678436e-02
4.128648e+02	-2.709369e-02
4.152495e+02	-2.740659e-02
4.176480e+02	-2.772308e-02
4.200603e+02	-2.804322e-02
4.224866e+02	-2.836704e-02
4.249268e+02	-2.869460e-02
4.273812e+02	-2.902591e-02
4.298497e+02	-2.936105e-02
4.323325e+02	-2.970004e-02
4.348297e+02	-3.004292e-02
4.373412e+02	-3.038976e-02
4.398673e+02	-3.074058e-02
4.424079e+02	-3.109544e-02
4.449633e+02	-3.145438e-02
4.475334e+02	-3.181745e-02
4.501183e+02	-3.218469e-02
4.527182e+02	-3.255616e-02
4.553330e+02	-3.293189e-02
4.579630e+02	-3.331195e-02
4.606082e+02	-3.369638e-02
4.632687e+02	-3.408522e-02
4.659445e+02	-3.447853e-02
4.686358e+02	-3.487637e-02
4.713426e+02	-3.527877e-02
4.740650e+02	-3.568580e-02
4.768032e+02	-3.609751e-02
4.795572e+02	-3.651395e-02
4.823271e+02	-3.693517e-02
4.851130e+02	-3.736122e-02
4.879150e+02	-3.779217e-02
4.907332e+02	-3.822807e-02
4.935676e+02	-3.866898e-02
4.964185e+02	-3.911495e-02
4.992858e+02	-3.956603e-02
5.021696e+02	-4.002230e-02
5.050701e+02	-4.048380e-02
5.079874e+02	-4.095060e-02
5.109215e+02	-4.142275e-02
5.138726e+02	-4.190033e-02
5.168407e+02	-4.238338e-02
5.198259e+02	-4.287197e-02
5.228284e+02	-4.336617e-02
5.258482e+02	-4.386603e-02
5.288855e+02	-4.437163e-02
5.319403e+02	-4.488303e-02
5.350128e+02	-4.540028e-02
5.381030e+02	-4.592347e-02
5.412111e+02	-4.645265e-02
5.443371e+02	-4.698790e-02
5.474812e+02	-4.752928e-02
5.506434e+02	-4.807687e-02
5.538239e+02	-4.863073e-02
5.570228e+02	-4.919093e-02
5.602401e+02	-4.975755e-02
5.634760e+02	-5.033065e-02
5.667306e+02	-5.091032e-02
5.700040e+02	-5.149663e-02
5.732964e+02	-5.208965e-02
5.766077e+02	-5.268945e-02
5.799382e+02	-5.329612e-02
5.832879e+02	-5.390973e-02
5.866569e+02	-5.453036e-02
5.900454e+02	-5.515809e-02
5.934535e+02	-5.579300e-02
5.968813e+02	-5.643517e-02
6.003288e+02	-5.708469e-02
6.037963e+02	-5.774162e-02
6.072838e+02	-5.840607e-02
6.107914e+02	-5.907811e-02
6.143194e+02	-5.975783e-02
6.178676e+02	-6.044532e-02
6.214364e+02	-6.114066e-02
6.250258e+02	-6.184394e-02
6.286359e+02	-6.255525e-02
6.322669e+02	-6.327469e-02
6.359189e+02	-6.400233e-02
6.395919e+02	-6.473829e-02
6.432862e+02	-6.548264e-02
6.470017e+02	-6.623548e-02
6.507388e+02	-6.699691e-02
6.544974e+02	-6.776703e-02
6.582778e+02	-6.854593e-02
6.620800e+02	-6.933371e-02
6.659041e+02	-7.013047e-02
6.697504e+02	-7.093631e-02
6.736188e+02	-7.175133e-02
6.775096e+02	-7.257564e-02
6.814229e+02	-7.340934e-02
6.853587e+02	-7.425254e-02
6.893173e+02	-7.510533e-02
6.932988e+02	-7.596783e-02
6.973033e+02	-7.684016e-02
7.013309e+02	-7.772240e-02
