Frequency(Hz)	Magnitude(dB)
1.000000e+01	-1.694474e-05
1.005776e+01	-1.714105e-05
1.011585e+01	-1.733963e-05
1.017428e+01	-1.754052e-05
1.023305e+01	-1.774373e-05
1.029215e+01	-1.794929e-05
1.035160e+01	-1.815724e-05
1.041139e+01	-1.836760e-05
1.047153e+01	-1.858039e-05
1.053201e+01	-1.879565e-05
1.059284e+01	-1.901340e-05
1.065403e+01	-1.923368e-05
1.071556e+01	-1.945650e-05
1.077746e+01	-1.968191e-05
1.083971e+01	-1.990993e-05
1.090232e+01	-2.014059e-05
1.096529e+01	-2.037393e-05
1.102862e+01	-2.060996e-05
1.109232e+01	-2.084874e-05
1.115639e+01	-2.109027e-05
1.122083e+01	-2.133461e-05
1.128564e+01	-2.158178e-05
1.135083e+01	-2.183181e-05
1.141639e+01	-2.208473e-05
1.148233e+01	-2.234059e-05
1.154865e+01	-2.259941e-05
1.161536e+01	-2.286123e-05
1.168245e+01	-2.312609e-05
1.174992e+01	-2.339401e-05
1.181779e+01	-2.366503e-05
1.188605e+01	-2.393920e-05
1.195470e+01	-2.421654e-05
1.202375e+01	-2.449709e-05
1.209320e+01	-2.478090e-05
1.216305e+01	-2.506799e-05
1.223330e+01	-2.535841e-05
1.230396e+01	-2.565219e-05
1.237503e+01	-2.594938e-05
1.244651e+01	-2.625001e-05
1.251840e+01	-2.655412e-05
1.259070e+01	-2.686176e-05
1.266343e+01	-2.717296e-05
1.273657e+01	-2.748777e-05
1.281014e+01	-2.780622e-05
1.288413e+01	-2.812836e-05
1.295855e+01	-2.845423e-05
1.303339e+01	-2.878388e-05
1.310867e+01	-2.911735e-05
1.318439e+01	-2.945468e-05
1.326054e+01	-2.979592e-05
1.333713e+01	-3.014111e-05
1.341417e+01	-3.049031e-05
1.349165e+01	-3.084354e-05
1.356958e+01	-3.120087e-05
1.364795e+01	-3.156234e-05
1.372678e+01	-3.192800e-05
1.380607e+01	-3.229789e-05
1.388581e+01	-3.267207e-05
1.396602e+01	-3.305059e-05
1.404668e+01	-3.343349e-05
1.412782e+01	-3.382082e-05
1.420942e+01	-3.421264e-05
1.429149e+01	-3.460900e-05
1.437404e+01	-3.500996e-05
1.445706e+01	-3.541556e-05
1.454057e+01	-3.582585e-05
1.462455e+01	-3.624090e-05
1.470902e+01	-3.666076e-05
1.479398e+01	-3.708549e-05
1.487943e+01	-3.751513e-05
1.496537e+01	-3.794975e-05
1.505181e+01	-3.838941e-05
1.513875e+01	-3.883416e-05
1.522619e+01	-3.928406e-05
1.531414e+01	-3.973918e-05
1.540259e+01	-4.019956e-05
1.549156e+01	-4.066528e-05
1.558103e+01	-4.113640e-05
1.567103e+01	-4.161298e-05
1.576155e+01	-4.209507e-05
1.585258e+01	-4.258275e-05
1.594415e+01	-4.307608e-05
1.603624e+01	-4.357513e-05
1.612886e+01	-4.407996e-05
1.622202e+01	-4.459063e-05
1.631572e+01	-4.510722e-05
1.640996e+01	-4.562980e-05
1.650474e+01	-4.615843e-05
1.660008e+01	-4.669319e-05
1.669596e+01	-4.723414e-05
1.679239e+01	-4.778136e-05
1.688938e+01	-4.833491e-05
1.698694e+01	-4.889488e-05
1.708505e+01	-4.946134e-05
1.718373e+01	-5.003436e-05
1.728299e+01	-5.061402e-05
1.738281e+01	-5.120039e-05
1.748322e+01	-5.179356e-05
1.758420e+01	-5.239360e-05
1.768576e+01	-5.300059e-05
1.778792e+01	-5.361462e-05
1.789066e+01	-5.423575e-05
1.799399e+01	-5.486408e-05
1.809793e+01	-5.549970e-05
1.820246e+01	-5.614267e-05
1.830760e+01	-5.679309e-05
1.841334e+01	-5.745105e-05
1.851969e+01	-5.811664e-05
1.862666e+01	-5.878993e-05
1.873425e+01	-5.947102e-05
1.884246e+01	-6.016001e-05
1.895129e+01	-6.085697e-05
1.906075e+01	-6.156201e-05
1.917085e+01	-6.227522e-05
1.928158e+01	-6.299669e-05
1.939295e+01	-6.372652e-05
1.950496e+01	-6.446480e-05
1.961762e+01	-6.521164e-05
1.973093e+01	-6.596713e-05
1.984490e+01	-6.673137e-05
1.995952e+01	-6.750447e-05
2.007480e+01	-6.828652e-05
2.019076e+01	-6.907763e-05
2.030738e+01	-6.987791e-05
2.042467e+01	-7.068746e-05
2.054264e+01	-7.150638e-05
2.066130e+01	-7.233480e-05
2.078064e+01	-7.317281e-05
2.090066e+01	-7.402053e-05
2.102139e+01	-7.487807e-05
2.114280e+01	-7.574555e-05
2.126492e+01	-7.662307e-05
2.138775e+01	-7.751077e-05
2.151128e+01	-7.840874e-05
2.163553e+01	-7.931712e-05
2.176050e+01	-8.023602e-05
2.188619e+01	-8.116557e-05
2.201260e+01	-8.210589e-05
2.213974e+01	-8.305710e-05
2.226762e+01	-8.401933e-05
2.239624e+01	-8.499271e-05
2.252560e+01	-8.597736e-05
2.265571e+01	-8.697342e-05
2.278656e+01	-8.798102e-05
2.291818e+01	-8.900030e-05
2.305055e+01	-9.003138e-05
2.318369e+01	-9.107441e-05
2.331760e+01	-9.212952e-05
2.345228e+01	-9.319686e-05
2.358774e+01	-9.427656e-05
2.372398e+01	-9.536876e-05
2.386101e+01	-9.647363e-05
2.399883e+01	-9.759129e-05
2.413745e+01	-9.872190e-05
2.427686e+01	-9.986560e-05
2.441709e+01	-1.010226e-04
2.455812e+01	-1.021929e-04
2.469997e+01	-1.033768e-04
2.484263e+01	-1.045745e-04
2.498612e+01	-1.057860e-04
2.513044e+01	-1.070115e-04
2.527559e+01	-1.082513e-04
2.542158e+01	-1.095054e-04
2.556842e+01	-1.107740e-04
2.571610e+01	-1.120573e-04
2.586463e+01	-1.133555e-04
2.601403e+01	-1.146688e-04
2.616428e+01	-1.159972e-04
2.631541e+01	-1.173411e-04
2.646740e+01	-1.187005e-04
2.662028e+01	-1.200756e-04
2.677404e+01	-1.214667e-04
2.692868e+01	-1.228739e-04
2.708422e+01	-1.242975e-04
2.724066e+01	-1.257375e-04
2.739800e+01	-1.271941e-04
2.755625e+01	-1.286677e-04
2.771541e+01	-1.301583e-04
2.787550e+01	-1.316662e-04
2.803650e+01	-1.331916e-04
2.819844e+01	-1.347346e-04
2.836131e+01	-1.362955e-04
2.852513e+01	-1.378745e-04
2.868989e+01	-1.394718e-04
2.885560e+01	-1.410876e-04
2.902227e+01	-1.427221e-04
2.918990e+01	-1.443756e-04
2.935850e+01	-1.460482e-04
2.952807e+01	-1.477402e-04
2.969863e+01	-1.494517e-04
2.987016e+01	-1.511832e-04
3.004269e+01	-1.529346e-04
3.021622e+01	-1.547064e-04
3.039075e+01	-1.564987e-04
3.056628e+01	-1.583117e-04
3.074283e+01	-1.601458e-04
3.092040e+01	-1.620011e-04
3.109900e+01	-1.638779e-04
3.127862e+01	-1.657764e-04
3.145929e+01	-1.676969e-04
3.164099e+01	-1.696397e-04
3.182375e+01	-1.716050e-04
3.200756e+01	-1.735930e-04
3.219244e+01	-1.756041e-04
3.237838e+01	-1.776385e-04
3.256540e+01	-1.796964e-04
3.275349e+01	-1.817782e-04
3.294268e+01	-1.838841e-04
3.313295e+01	-1.860144e-04
3.332433e+01	-1.881694e-04
3.351681e+01	-1.903494e-04
3.371040e+01	-1.925546e-04
3.390511e+01	-1.947853e-04
3.410094e+01	-1.970419e-04
3.429791e+01	-1.993246e-04
3.449601e+01	-2.016338e-04
3.469526e+01	-2.039698e-04
3.489566e+01	-2.063327e-04
3.509721e+01	-2.087231e-04
3.529993e+01	-2.111412e-04
3.550382e+01	-2.135872e-04
3.570889e+01	-2.160616e-04
3.591515e+01	-2.185647e-04
3.612259e+01	-2.210968e-04
3.633123e+01	-2.236582e-04
3.654108e+01	-2.262493e-04
3.675214e+01	-2.288703e-04
3.696442e+01	-2.315218e-04
3.717792e+01	-2.342040e-04
3.739266e+01	-2.369172e-04
3.760864e+01	-2.396619e-04
3.782587e+01	-2.424384e-04
3.804435e+01	-2.452470e-04
3.826409e+01	-2.480882e-04
3.848510e+01	-2.509623e-04
3.870739e+01	-2.538696e-04
3.893096e+01	-2.568107e-04
3.915583e+01	-2.597858e-04
3.938199e+01	-2.627954e-04
3.960946e+01	-2.658399e-04
3.983824e+01	-2.689196e-04
4.006834e+01	-2.720351e-04
4.029978e+01	-2.751866e-04
4.053255e+01	-2.783746e-04
4.076666e+01	-2.815995e-04
4.100213e+01	-2.848618e-04
4.123896e+01	-2.881619e-04
4.147715e+01	-2.915002e-04
4.171672e+01	-2.948772e-04
4.195767e+01	-2.982933e-04
4.220002e+01	-3.017490e-04
4.244377e+01	-3.052448e-04
4.268892e+01	-3.087810e-04
4.293549e+01	-3.123582e-04
4.318348e+01	-3.159768e-04
4.343291e+01	-3.196373e-04
4.368377e+01	-3.233403e-04
4.393609e+01	-3.270861e-04
4.418986e+01	-3.308754e-04
4.444510e+01	-3.347085e-04
4.470182e+01	-3.385860e-04
4.496001e+01	-3.425085e-04
4.521970e+01	-3.464764e-04
4.548089e+01	-3.504903e-04
4.574358e+01	-3.545506e-04
4.600779e+01	-3.586580e-04
4.627353e+01	-3.628130e-04
4.654081e+01	-3.670161e-04
4.680963e+01	-3.712679e-04
4.708000e+01	-3.755690e-04
4.735193e+01	-3.799198e-04
4.762543e+01	-3.843211e-04
4.790051e+01	-3.887734e-04
4.817719e+01	-3.932772e-04
4.845545e+01	-3.978333e-04
4.873533e+01	-4.024421e-04
4.901682e+01	-4.071042e-04
4.929994e+01	-4.118204e-04
4.958470e+01	-4.165913e-04
4.987110e+01	-4.214173e-04
5.015915e+01	-4.262993e-04
5.044887e+01	-4.312379e-04
5.074026e+01	-4.362337e-04
5.103333e+01	-4.412873e-04
5.132810e+01	-4.463995e-04
5.162457e+01	-4.515708e-04
5.192275e+01	-4.568021e-04
5.222265e+01	-4.620940e-04
5.252429e+01	-4.674472e-04
5.282767e+01	-4.728625e-04
5.313280e+01	-4.783404e-04
5.343969e+01	-4.838818e-04
5.374836e+01	-4.894874e-04
5.405880e+01	-4.951579e-04
5.437105e+01	-5.008941e-04
5.468509e+01	-5.066968e-04
5.500095e+01	-5.125666e-04
5.531863e+01	-5.185045e-04
5.563815e+01	-5.245112e-04
5.595951e+01	-5.305874e-04
5.628273e+01	-5.367340e-04
5.660782e+01	-5.429519e-04
5.693479e+01	-5.492417e-04
5.726364e+01	-5.556044e-04
5.759439e+01	-5.620408e-04
5.792705e+01	-5.685518e-04
5.826164e+01	-5.751382e-04
5.859815e+01	-5.818009e-04
5.893662e+01	-5.885407e-04
5.927703e+01	-5.953587e-04
5.961941e+01	-6.022556e-04
5.996377e+01	-6.092324e-04
6.031012e+01	-6.162900e-04
6.065847e+01	-6.234294e-04
6.100883e+01	-6.306515e-04
6.136121e+01	-6.379572e-04
6.171563e+01	-6.453476e-04
6.207210e+01	-6.528235e-04
6.243063e+01	-6.603861e-04
6.279122e+01	-6.680363e-04
6.315390e+01	-6.757751e-04
6.351868e+01	-6.836035e-04
6.388556e+01	-6.915226e-04
6.425456e+01	-6.995334e-04
6.462569e+01	-7.076370e-04
6.499897e+01	-7.158345e-04
6.537440e+01	-7.241270e-04
6.575200e+01	-7.325155e-04
6.613178e+01	-7.410012e-04
6.651375e+01	-7.495851e-04
6.689793e+01	-7.582685e-04
6.728433e+01	-7.670525e-04
6.767297e+01	-7.759382e-04
6.806384e+01	-7.849268e-04
6.845698e+01	-7.940196e-04
6.885238e+01	-8.032177e-04
6.925007e+01	-8.125223e-04
6.965005e+01	-8.219347e-04
7.005235e+01	-8.314561e-04
7.045697e+01	-8.410879e-04
7.086393e+01	-8.508311e-04
7.127323e+01	-8.606873e-04
7.168490e+01	-8.706576e-04
7.209895e+01	-8.807434e-04
7.251539e+01	-8.909460e-04
7.293424e+01	-9.012667e-04
7.335551e+01	-9.117071e-04
7.377920e+01	-9.222683e-04
7.420535e+01	-9.329519e-04
7.463396e+01	-9.437592e-04
7.506504e+01	-9.546917e-04
7.549861e+01	-9.657509e-04
7.593469e+01	-9.769381e-04
7.637328e+01	-9.882549e-04
7.681441e+01	-9.997028e-04
7.725809e+01	-1.011283e-03
7.770433e+01	-1.022998e-03
7.815315e+01	-1.034848e-03
7.860456e+01	-1.046836e-03
7.905857e+01	-1.058962e-03
7.951521e+01	-1.071229e-03
7.997449e+01	-1.083638e-03
8.043642e+01	-1.096191e-03
8.090102e+01	-1.108889e-03
8.136830e+01	-1.121734e-03
8.183828e+01	-1.134728e-03
8.231097e+01	-1.147872e-03
8.278640e+01	-1.161169e-03
8.326457e+01	-1.174619e-03
8.374550e+01	-1.188226e-03
8.422921e+01	-1.201990e-03
8.471572e+01	-1.215913e-03
8.520503e+01	-1.229998e-03
8.569717e+01	-1.244246e-03
8.619215e+01	-1.258658e-03
8.669000e+01	-1.273238e-03
8.719071e+01	-1.287987e-03
8.769432e+01	-1.302906e-03
8.820084e+01	-1.317998e-03
8.871029e+01	-1.333266e-03
8.922267e+01	-1.348709e-03
8.973802e+01	-1.364332e-03
9.025634e+01	-1.380136e-03
9.077766e+01	-1.396122e-03
9.130199e+01	-1.412294e-03
9.182935e+01	-1.428653e-03
9.235975e+01	-1.445202e-03
9.289321e+01	-1.461942e-03
9.342976e+01	-1.478876e-03
9.396941e+01	-1.496006e-03
9.451217e+01	-1.513335e-03
9.505807e+01	-1.530864e-03
9.560712e+01	-1.548597e-03
9.615934e+01	-1.566534e-03
9.671476e+01	-1.584680e-03
9.727338e+01	-1.603035e-03
9.783522e+01	-1.621603e-03
9.840032e+01	-1.640387e-03
9.896867e+01	-1.659387e-03
9.954031e+01	-1.678608e-03
1.001153e+02	-1.698051e-03
1.006935e+02	-1.717720e-03
1.012751e+02	-1.737616e-03
1.018601e+02	-1.757743e-03
1.024484e+02	-1.778103e-03
1.030402e+02	-1.798698e-03
1.036353e+02	-1.819532e-03
1.042339e+02	-1.840607e-03
1.048360e+02	-1.861927e-03
1.054415e+02	-1.883493e-03
1.060505e+02	-1.905309e-03
1.066631e+02	-1.927378e-03
1.072791e+02	-1.949702e-03
1.078988e+02	-1.972284e-03
1.085220e+02	-1.995129e-03
1.091488e+02	-2.018237e-03
1.097793e+02	-2.041614e-03
1.104133e+02	-2.065261e-03
1.110511e+02	-2.089181e-03
1.116925e+02	-2.113379e-03
1.123376e+02	-2.137857e-03
1.129865e+02	-2.162619e-03
1.136391e+02	-2.187667e-03
1.142955e+02	-2.213005e-03
1.149556e+02	-2.238637e-03
1.156196e+02	-2.264565e-03
1.162874e+02	-2.290794e-03
1.169591e+02	-2.317326e-03
1.176347e+02	-2.344166e-03
1.183141e+02	-2.371316e-03
1.189975e+02	-2.398781e-03
1.196848e+02	-2.426564e-03
1.203761e+02	-2.454668e-03
1.210714e+02	-2.483098e-03
1.217707e+02	-2.511857e-03
1.224740e+02	-2.540949e-03
1.231814e+02	-2.570378e-03
1.238929e+02	-2.600147e-03
1.246085e+02	-2.630262e-03
1.253283e+02	-2.660725e-03
1.260522e+02	-2.691540e-03
1.267802e+02	-2.722713e-03
1.275125e+02	-2.754246e-03
1.282490e+02	-2.786144e-03
1.289898e+02	-2.818412e-03
1.297348e+02	-2.851053e-03
1.304842e+02	-2.884073e-03
1.312378e+02	-2.917474e-03
1.319959e+02	-2.951262e-03
1.327583e+02	-2.985442e-03
1.335251e+02	-3.020017e-03
1.342963e+02	-3.054992e-03
1.350720e+02	-3.090372e-03
1.358522e+02	-3.126162e-03
1.366368e+02	-3.162366e-03
1.374260e+02	-3.198990e-03
1.382198e+02	-3.236037e-03
1.390182e+02	-3.273513e-03
1.398211e+02	-3.311423e-03
1.406287e+02	-3.349772e-03
1.414410e+02	-3.388565e-03
1.422579e+02	-3.427807e-03
1.430796e+02	-3.467503e-03
1.439060e+02	-3.507659e-03
1.447372e+02	-3.548279e-03
1.455732e+02	-3.589370e-03
1.464141e+02	-3.630936e-03
1.472597e+02	-3.672984e-03
1.481103e+02	-3.715518e-03
1.489658e+02	-3.758545e-03
1.498262e+02	-3.802069e-03
1.506916e+02	-3.846098e-03
1.515620e+02	-3.890636e-03
1.524374e+02	-3.935689e-03
1.533179e+02	-3.981264e-03
1.542034e+02	-4.027367e-03
1.550941e+02	-4.074003e-03
1.559899e+02	-4.121179e-03
1.568909e+02	-4.168901e-03
1.577971e+02	-4.217175e-03
1.587085e+02	-4.266008e-03
1.596252e+02	-4.315406e-03
1.605472e+02	-4.365376e-03
1.614745e+02	-4.415925e-03
1.624072e+02	-4.467058e-03
1.633453e+02	-4.518783e-03
1.642887e+02	-4.571107e-03
1.652377e+02	-4.624036e-03
1.661921e+02	-4.677577e-03
1.671520e+02	-4.731739e-03
1.681175e+02	-4.786527e-03
1.690885e+02	-4.841949e-03
1.700651e+02	-4.898013e-03
1.710474e+02	-4.954725e-03
1.720354e+02	-5.012093e-03
1.730291e+02	-5.070126e-03
1.740285e+02	-5.128830e-03
1.750337e+02	-5.188213e-03
1.760446e+02	-5.248283e-03
1.770615e+02	-5.309049e-03
1.780842e+02	-5.370517e-03
1.791128e+02	-5.432697e-03
1.801473e+02	-5.495596e-03
1.811878e+02	-5.559223e-03
1.822344e+02	-5.623587e-03
1.832870e+02	-5.688695e-03
1.843456e+02	-5.754556e-03
1.854104e+02	-5.821179e-03
1.864813e+02	-5.888573e-03
1.875584e+02	-5.956747e-03
1.886418e+02	-6.025709e-03
1.897313e+02	-6.095469e-03
1.908272e+02	-6.166037e-03
1.919294e+02	-6.237420e-03
1.930380e+02	-6.309630e-03
1.941530e+02	-6.382675e-03
1.952744e+02	-6.456564e-03
1.964023e+02	-6.531309e-03
1.975367e+02	-6.606918e-03
1.986777e+02	-6.683402e-03
1.998252e+02	-6.760770e-03
2.009794e+02	-6.839034e-03
2.021403e+02	-6.918202e-03
2.033078e+02	-6.998287e-03
2.044821e+02	-7.079297e-03
2.056632e+02	-7.161245e-03
2.068511e+02	-7.244140e-03
2.080459e+02	-7.327995e-03
2.092475e+02	-7.412819e-03
2.104561e+02	-7.498624e-03
2.116717e+02	-7.585421e-03
2.128943e+02	-7.673222e-03
2.141240e+02	-7.762039e-03
2.153608e+02	-7.851882e-03
2.166047e+02	-7.942765e-03
2.178558e+02	-8.034698e-03
2.191141e+02	-8.127695e-03
2.203797e+02	-8.221767e-03
2.216526e+02	-8.316927e-03
2.229329e+02	-8.413187e-03
2.242205e+02	-8.510560e-03
2.255156e+02	-8.609059e-03
2.268182e+02	-8.708697e-03
2.281283e+02	-8.809486e-03
2.294459e+02	-8.911441e-03
2.307712e+02	-9.014575e-03
2.321041e+02	-9.118901e-03
2.334447e+02	-9.224434e-03
2.347931e+02	-9.331186e-03
2.361493e+02	-9.439172e-03
2.375133e+02	-9.548407e-03
2.388851e+02	-9.658904e-03
2.402649e+02	-9.770678e-03
2.416527e+02	-9.883745e-03
2.430484e+02	-9.998118e-03
2.444523e+02	-1.011381e-02
2.458642e+02	-1.023085e-02
2.472843e+02	-1.034923e-02
2.487126e+02	-1.046898e-02
2.501492e+02	-1.059012e-02
2.515940e+02	-1.071266e-02
2.530472e+02	-1.083661e-02
2.545088e+02	-1.096200e-02
2.559789e+02	-1.108883e-02
2.574574e+02	-1.121713e-02
2.589444e+02	-1.134692e-02
2.604401e+02	-1.147820e-02
2.619444e+02	-1.161100e-02
2.634574e+02	-1.174533e-02
2.649791e+02	-1.188122e-02
2.665096e+02	-1.201867e-02
2.680489e+02	-1.215772e-02
2.695972e+02	-1.229837e-02
2.711544e+02	-1.244064e-02
2.727205e+02	-1.258456e-02
2.742958e+02	-1.273014e-02
2.758801e+02	-1.287740e-02
2.774736e+02	-1.302637e-02
2.790762e+02	-1.317705e-02
2.806882e+02	-1.332948e-02
2.823094e+02	-1.348366e-02
2.839400e+02	-1.363963e-02
2.855800e+02	-1.379739e-02
2.872295e+02	-1.395698e-02
2.888886e+02	-1.411841e-02
2.905572e+02	-1.428171e-02
2.922354e+02	-1.444689e-02
2.939234e+02	-1.461398e-02
2.956211e+02	-1.478299e-02
2.973286e+02	-1.495396e-02
2.990459e+02	-1.512691e-02
3.007732e+02	-1.530185e-02
3.025104e+02	-1.547880e-02
3.042577e+02	-1.565781e-02
3.060151e+02	-1.583887e-02
3.077826e+02	-1.602203e-02
3.095604e+02	-1.620730e-02
3.113484e+02	-1.639471e-02
3.131467e+02	-1.658428e-02
3.149554e+02	-1.677605e-02
3.167746e+02	-1.697002e-02
3.186043e+02	-1.716623e-02
3.204445e+02	-1.736471e-02
3.222954e+02	-1.756547e-02
3.241570e+02	-1.776856e-02
3.260293e+02	-1.797398e-02
3.279124e+02	-1.818178e-02
3.298064e+02	-1.839197e-02
3.317114e+02	-1.860459e-02
3.336273e+02	-1.881966e-02
3.355544e+02	-1.903721e-02
3.374925e+02	-1.925727e-02
3.394418e+02	-1.947987e-02
3.414024e+02	-1.970503e-02
3.433744e+02	-1.993279e-02
3.453577e+02	-2.016318e-02
3.473525e+02	-2.039623e-02
3.493588e+02	-2.063196e-02
3.513766e+02	-2.087041e-02
3.534062e+02	-2.111161e-02
3.554474e+02	-2.135559e-02
3.575005e+02	-2.160238e-02
3.595654e+02	-2.185202e-02
3.616422e+02	-2.210453e-02
3.637311e+02	-2.235996e-02
3.658320e+02	-2.261832e-02
3.679450e+02	-2.287967e-02
3.700702e+02	-2.314403e-02
3.722077e+02	-2.341143e-02
3.743576e+02	-2.368192e-02
3.765199e+02	-2.395552e-02
3.786946e+02	-2.423227e-02
3.808820e+02	-2.451221e-02
3.830819e+02	-2.479538e-02
3.852946e+02	-2.508181e-02
3.875200e+02	-2.537154e-02
3.897583e+02	-2.566460e-02
3.920096e+02	-2.596104e-02
3.942738e+02	-2.626089e-02
3.965511e+02	-2.656420e-02
3.988416e+02	-2.687099e-02
4.011452e+02	-2.718132e-02
4.034622e+02	-2.749523e-02
4.057926e+02	-2.781274e-02
4.081365e+02	-2.813391e-02
4.104938e+02	-2.845878e-02
4.128648e+02	-2.878738e-02
4.152495e+02	-2.911977e-02
4.176480e+02	-2.945598e-02
4.200603e+02	-2.979606e-02
4.224866e+02	-3.014006e-02
4.249268e+02	-3.048801e-02
4.273812e+02	-3.083996e-02
4.298497e+02	-3.119596e-02
4.323325e+02	-3.155606e-02
4.348297e+02	-3.192029e-02
4.373412e+02	-3.228872e-02
4.398673e+02	-3.266138e-02
4.424079e+02	-3.303833e-02
4.449633e+02	-3.341961e-02
4.475334e+02	-3.380527e-02
4.501183e+02	-3.419537e-02
4.527182e+02	-3.458995e-02
4.553330e+02	-3.498906e-02
4.579630e+02	-3.539276e-02
4.606082e+02	-3.580110e-02
4.632687e+02	-3.621413e-02
4.659445e+02	-3.663191e-02
4.686358e+02	-3.705448e-02
4.713426e+02	-3.748191e-02
4.740650e+02	-3.791424e-02
4.768032e+02	-3.835154e-02
4.795572e+02	-3.879387e-02
4.823271e+02	-3.924127e-02
4.851130e+02	-3.969380e-02
4.879150e+02	-4.015153e-02
4.907332e+02	-4.061452e-02
4.935676e+02	-4.108282e-02
4.964185e+02	-4.155649e-02
4.992858e+02	-4.203559e-02
5.021696e+02	-4.252020e-02
5.050701e+02	-4.301036e-02
5.079874e+02	-4.350614e-02
5.109215e+02	-4.400761e-02
5.138726e+02	-4.451483e-02
5.168407e+02	-4.502787e-02
5.198259e+02	-4.554678e-02
5.228284e+02	-4.607165e-02
5.258482e+02	-4.660253e-02
5.288855e+02	-4.713950e-02
5.319403e+02	-4.768261e-02
5.350128e+02	-4.823195e-02
5.381030e+02	-4.878759e-02
5.412111e+02	-4.934959e-02
5.443371e+02	-4.991802e-02
5.474812e+02	-5.049296e-02
5.506434e+02	-5.107449e-02
5.538239e+02	-5.166268e-02
5.570228e+02	-5.225759e-02
5.602401e+02	-5.285932e-02
5.634760e+02	-5.346793e-02
5.667306e+02	-5.408351e-02
5.700040e+02	-5.470612e-02
5.732964e+02	-5.533586e-02
5.766077e+02	-5.597280e-02
5.799382e+02	-5.661703e-02
5.832879e+02	-5.726862e-02
5.866569e+02	-5.792766e-02
5.900454e+02	-5.859423e-02
5.934535e+02	-5.926842e-02
5.968813e+02	-5.995032e-02
6.003288e+02	-6.064000e-02
6.037963e+02	-6.133756e-02
6.072838e+02	-6.204309e-02
6.107914e+02	-6.275667e-02
6.143194e+02	-6.347841e-02
6.178676e+02	-6.420838e-02
6.214364e+02	-6.494668e-02
6.250258e+02	-6.569341e-02
6.286359e+02	-6.644865e-02
6.322669e+02	-6.721251e-02
6.359189e+02	-6.798509e-02
6.395919e+02	-6.876647e-02
6.432862e+02	-6.955676e-02
6.470017e+02	-7.035606e-02
6.507388e+02	-7.116447e-02
6.544974e+02	-7.198210e-02
6.582778e+02	-7.280903e-02
6.620800e+02	-7.364539e-02
6.659041e+02	-7.449127e-02
6.697504e+02	-7.534678e-02
6.736188e+02	-7.621203e-02
6.775096e+02	-7.708713e-02
6.814229e+02	-7.797218e-02
6.853587e+02	-7.886731e-02
6.893173e+02	-7.977261e-02
6.932988e+02	-8.068821e-02
6.973033e+02	-8.161422e-02
7.013309e+02	-8.255076e-02
