Frequency(Hz)	Magnitude(dB)
1.000000e+01	-1.884515e-05
1.005776e+01	-1.906348e-05
1.011585e+01	-1.928433e-05
1.017428e+01	-1.950775e-05
1.023305e+01	-1.973375e-05
1.029215e+01	-1.996237e-05
1.035160e+01	-2.019364e-05
1.041139e+01	-2.042759e-05
1.047153e+01	-2.066425e-05
1.053201e+01	-2.090365e-05
1.059284e+01	-2.114582e-05
1.065403e+01	-2.139080e-05
1.071556e+01	-2.163862e-05
1.077746e+01	-2.188931e-05
1.083971e+01	-2.214290e-05
1.090232e+01	-2.239943e-05
1.096529e+01	-2.265893e-05
1.102862e+01	-2.292144e-05
1.109232e+01	-2.318699e-05
1.115639e+01	-2.345562e-05
1.122083e+01	-2.372736e-05
1.128564e+01	-2.400225e-05
1.135083e+01	-2.428032e-05
1.141639e+01	-2.456161e-05
1.148233e+01	-2.484617e-05
1.154865e+01	-2.513401e-05
1.161536e+01	-2.542520e-05
1.168245e+01	-2.571976e-05
1.174992e+01	-2.601773e-05
1.181779e+01	-2.631915e-05
1.188605e+01	-2.662406e-05
1.195470e+01	-2.693251e-05
1.202375e+01	-2.724453e-05
1.209320e+01	-2.756016e-05
1.216305e+01	-2.787945e-05
1.223330e+01	-2.820244e-05
1.230396e+01	-2.852917e-05
1.237503e+01	-2.885969e-05
1.244651e+01	-2.919404e-05
1.251840e+01	-2.953226e-05
1.259070e+01	-2.987440e-05
1.266343e+01	-3.022050e-05
1.273657e+01	-3.057061e-05
1.281014e+01	-3.092478e-05
1.288413e+01	-3.128305e-05
1.295855e+01	-3.164547e-05
1.303339e+01	-3.201209e-05
1.310867e+01	-3.238296e-05
1.318439e+01	-3.275812e-05
1.326054e+01	-3.313763e-05
1.333713e+01	-3.352154e-05
1.341417e+01	-3.390990e-05
1.349165e+01	-3.430275e-05
1.356958e+01	-3.470016e-05
1.364795e+01	-3.510216e-05
1.372678e+01	-3.550883e-05
1.380607e+01	-3.592021e-05
1.388581e+01	-3.633635e-05
1.396602e+01	-3.675732e-05
1.404668e+01	-3.718316e-05
1.412782e+01	-3.761394e-05
1.420942e+01	-3.804970e-05
1.429149e+01	-3.849052e-05
1.437404e+01	-3.893644e-05
1.445706e+01	-3.938753e-05
1.454057e+01	-3.984384e-05
1.462455e+01	-4.030544e-05
1.470902e+01	-4.077239e-05
1.479398e+01	-4.124474e-05
1.487943e+01	-4.172257e-05
1.496537e+01	-4.220594e-05
1.505181e+01	-4.269490e-05
1.513875e+01	-4.318953e-05
1.522619e+01	-4.368989e-05
1.531414e+01	-4.419605e-05
1.540259e+01	-4.470807e-05
1.549156e+01	-4.522603e-05
1.558103e+01	-4.574998e-05
1.567103e+01	-4.628000e-05
1.576155e+01	-4.681617e-05
1.585258e+01	-4.735854e-05
1.594415e+01	-4.790720e-05
1.603624e+01	-4.846222e-05
1.612886e+01	-4.902366e-05
1.622202e+01	-4.959161e-05
1.631572e+01	-5.016614e-05
1.640996e+01	-5.074732e-05
1.650474e+01	-5.133524e-05
1.660008e+01	-5.192997e-05
1.669596e+01	-5.253159e-05
1.679239e+01	-5.314018e-05
1.688938e+01	-5.375582e-05
1.698694e+01	-5.437859e-05
1.708505e+01	-5.500858e-05
1.718373e+01	-5.564587e-05
1.728299e+01	-5.629054e-05
1.738281e+01	-5.694267e-05
1.748322e+01	-5.760237e-05
1.758420e+01	-5.826970e-05
1.768576e+01	-5.894477e-05
1.778792e+01	-5.962765e-05
1.789066e+01	-6.031845e-05
1.799399e+01	-6.101725e-05
1.809793e+01	-6.172415e-05
1.820246e+01	-6.243924e-05
1.830760e+01	-6.316261e-05
1.841334e+01	-6.389436e-05
1.851969e+01	-6.463459e-05
1.862666e+01	-6.538339e-05
1.873425e+01	-6.614087e-05
1.884246e+01	-6.690713e-05
1.895129e+01	-6.768226e-05
1.906075e+01	-6.846637e-05
1.917085e+01	-6.925956e-05
1.928158e+01	-7.006195e-05
1.939295e+01	-7.087363e-05
1.950496e+01	-7.169471e-05
1.961762e+01	-7.252531e-05
1.973093e+01	-7.336553e-05
1.984490e+01	-7.421548e-05
1.995952e+01	-7.507528e-05
2.007480e+01	-7.594504e-05
2.019076e+01	-7.682488e-05
2.030738e+01	-7.771491e-05
2.042467e+01	-7.861525e-05
2.054264e+01	-7.952602e-05
2.066130e+01	-8.044734e-05
2.078064e+01	-8.137934e-05
2.090066e+01	-8.232213e-05
2.102139e+01	-8.327585e-05
2.114280e+01	-8.424061e-05
2.126492e+01	-8.521656e-05
2.138775e+01	-8.620380e-05
2.151128e+01	-8.720249e-05
2.163553e+01	-8.821274e-05
2.176050e+01	-8.923470e-05
2.188619e+01	-9.026850e-05
2.201260e+01	-9.131428e-05
2.213974e+01	-9.237217e-05
2.226762e+01	-9.344231e-05
2.239624e+01	-9.452486e-05
2.252560e+01	-9.561994e-05
2.265571e+01	-9.672771e-05
2.278656e+01	-9.784832e-05
2.291818e+01	-9.898190e-05
2.305055e+01	-1.001286e-04
2.318369e+01	-1.012886e-04
2.331760e+01	-1.024621e-04
2.345228e+01	-1.036491e-04
2.358774e+01	-1.048499e-04
2.372398e+01	-1.060646e-04
2.386101e+01	-1.072934e-04
2.399883e+01	-1.085364e-04
2.413745e+01	-1.097938e-04
2.427686e+01	-1.110658e-04
2.441709e+01	-1.123525e-04
2.455812e+01	-1.136541e-04
2.469997e+01	-1.149708e-04
2.484263e+01	-1.163027e-04
2.498612e+01	-1.176501e-04
2.513044e+01	-1.190131e-04
2.527559e+01	-1.203919e-04
2.542158e+01	-1.217866e-04
2.556842e+01	-1.231976e-04
2.571610e+01	-1.246248e-04
2.586463e+01	-1.260686e-04
2.601403e+01	-1.275291e-04
2.616428e+01	-1.290066e-04
2.631541e+01	-1.305011e-04
2.646740e+01	-1.320130e-04
2.662028e+01	-1.335424e-04
2.677404e+01	-1.350895e-04
2.692868e+01	-1.366545e-04
2.708422e+01	-1.382377e-04
2.724066e+01	-1.398392e-04
2.739800e+01	-1.414592e-04
2.755625e+01	-1.430980e-04
2.771541e+01	-1.447558e-04
2.787550e+01	-1.464328e-04
2.803650e+01	-1.481293e-04
2.819844e+01	-1.498454e-04
2.836131e+01	-1.515813e-04
2.852513e+01	-1.533374e-04
2.868989e+01	-1.551138e-04
2.885560e+01	-1.569108e-04
2.902227e+01	-1.587287e-04
2.918990e+01	-1.605675e-04
2.935850e+01	-1.624277e-04
2.952807e+01	-1.643095e-04
2.969863e+01	-1.662130e-04
2.987016e+01	-1.681386e-04
3.004269e+01	-1.700865e-04
3.021622e+01	-1.720569e-04
3.039075e+01	-1.740502e-04
3.056628e+01	-1.760666e-04
3.074283e+01	-1.781063e-04
3.092040e+01	-1.801697e-04
3.109900e+01	-1.822570e-04
3.127862e+01	-1.843684e-04
3.145929e+01	-1.865044e-04
3.164099e+01	-1.886650e-04
3.182375e+01	-1.908507e-04
3.200756e+01	-1.930617e-04
3.219244e+01	-1.952983e-04
3.237838e+01	-1.975609e-04
3.256540e+01	-1.998496e-04
3.275349e+01	-2.021649e-04
3.294268e+01	-2.045070e-04
3.313295e+01	-2.068762e-04
3.332433e+01	-2.092728e-04
3.351681e+01	-2.116973e-04
3.371040e+01	-2.141498e-04
3.390511e+01	-2.166307e-04
3.410094e+01	-2.191403e-04
3.429791e+01	-2.216791e-04
3.449601e+01	-2.242472e-04
3.469526e+01	-2.268451e-04
3.489566e+01	-2.294731e-04
3.509721e+01	-2.321316e-04
3.529993e+01	-2.348208e-04
3.550382e+01	-2.375412e-04
3.570889e+01	-2.402931e-04
3.591515e+01	-2.430769e-04
3.612259e+01	-2.458929e-04
3.633123e+01	-2.487416e-04
3.654108e+01	-2.516232e-04
3.675214e+01	-2.545383e-04
3.696442e+01	-2.574871e-04
3.717792e+01	-2.604700e-04
3.739266e+01	-2.634876e-04
3.760864e+01	-2.665401e-04
3.782587e+01	-2.696279e-04
3.804435e+01	-2.727515e-04
3.826409e+01	-2.759113e-04
3.848510e+01	-2.791077e-04
3.870739e+01	-2.823412e-04
3.893096e+01	-2.856121e-04
3.915583e+01	-2.889208e-04
3.938199e+01	-2.922680e-04
3.960946e+01	-2.956538e-04
3.983824e+01	-2.990790e-04
4.006834e+01	-3.025438e-04
4.029978e+01	-3.060487e-04
4.053255e+01	-3.095942e-04
4.076666e+01	-3.131808e-04
4.100213e+01	-3.168090e-04
4.123896e+01	-3.204792e-04
4.147715e+01	-3.241919e-04
4.171672e+01	-3.279476e-04
4.195767e+01	-3.317468e-04
4.220002e+01	-3.355900e-04
4.244377e+01	-3.394778e-04
4.268892e+01	-3.434106e-04
4.293549e+01	-3.473889e-04
4.318348e+01	-3.514133e-04
4.343291e+01	-3.554844e-04
4.368377e+01	-3.596026e-04
4.393609e+01	-3.637685e-04
4.418986e+01	-3.679827e-04
4.444510e+01	-3.722457e-04
4.470182e+01	-3.765581e-04
4.496001e+01	-3.809204e-04
4.521970e+01	-3.853333e-04
4.548089e+01	-3.897973e-04
4.574358e+01	-3.943130e-04
4.600779e+01	-3.988810e-04
4.627353e+01	-4.035020e-04
4.654081e+01	-4.081764e-04
4.680963e+01	-4.129050e-04
4.708000e+01	-4.176884e-04
4.735193e+01	-4.225272e-04
4.762543e+01	-4.274221e-04
4.790051e+01	-4.323736e-04
4.817719e+01	-4.373825e-04
4.845545e+01	-4.424495e-04
4.873533e+01	-4.475751e-04
4.901682e+01	-4.527601e-04
4.929994e+01	-4.580052e-04
4.958470e+01	-4.633110e-04
4.987110e+01	-4.686783e-04
5.015915e+01	-4.741078e-04
5.044887e+01	-4.796002e-04
5.074026e+01	-4.851562e-04
5.103333e+01	-4.907765e-04
5.132810e+01	-4.964620e-04
5.162457e+01	-5.022133e-04
5.192275e+01	-5.080312e-04
5.222265e+01	-5.139166e-04
5.252429e+01	-5.198701e-04
5.282767e+01	-5.258925e-04
5.313280e+01	-5.319848e-04
5.343969e+01	-5.381476e-04
5.374836e+01	-5.443818e-04
5.405880e+01	-5.506882e-04
5.437105e+01	-5.570677e-04
5.468509e+01	-5.635210e-04
5.500095e+01	-5.700492e-04
5.531863e+01	-5.766529e-04
5.563815e+01	-5.833331e-04
5.595951e+01	-5.900907e-04
5.628273e+01	-5.969266e-04
5.660782e+01	-6.038417e-04
5.693479e+01	-6.108369e-04
5.726364e+01	-6.179131e-04
5.759439e+01	-6.250713e-04
5.792705e+01	-6.323124e-04
5.826164e+01	-6.396374e-04
5.859815e+01	-6.470472e-04
5.893662e+01	-6.545428e-04
5.927703e+01	-6.621253e-04
5.961941e+01	-6.697956e-04
5.996377e+01	-6.775548e-04
6.031012e+01	-6.854038e-04
6.065847e+01	-6.933438e-04
6.100883e+01	-7.013757e-04
6.136121e+01	-7.095007e-04
6.171563e+01	-7.177198e-04
6.207210e+01	-7.260340e-04
6.243063e+01	-7.344446e-04
6.279122e+01	-7.429527e-04
6.315390e+01	-7.515592e-04
6.351868e+01	-7.602655e-04
6.388556e+01	-7.690726e-04
6.425456e+01	-7.779817e-04
6.462569e+01	-7.869940e-04
6.499897e+01	-7.961107e-04
6.537440e+01	-8.053330e-04
6.575200e+01	-8.146622e-04
6.613178e+01	-8.240993e-04
6.651375e+01	-8.336459e-04
6.689793e+01	-8.433029e-04
6.728433e+01	-8.530719e-04
6.767297e+01	-8.629540e-04
6.806384e+01	-8.729505e-04
6.845698e+01	-8.830628e-04
6.885238e+01	-8.932923e-04
6.925007e+01	-9.036403e-04
6.965005e+01	-9.141081e-04
7.005235e+01	-9.246972e-04
7.045697e+01	-9.354089e-04
7.086393e+01	-9.462447e-04
7.127323e+01	-9.572060e-04
7.168490e+01	-9.682942e-04
7.209895e+01	-9.795109e-04
7.251539e+01	-9.908575e-04
7.293424e+01	-1.002336e-03
7.335551e+01	-1.013947e-03
7.377920e+01	-1.025692e-03
7.420535e+01	-1.037573e-03
7.463396e+01	-1.049593e-03
7.506504e+01	-1.061751e-03
7.549861e+01	-1.074050e-03
7.593469e+01	-1.086492e-03
7.637328e+01	-1.099077e-03
7.681441e+01	-1.111809e-03
7.725809e+01	-1.124688e-03
7.770433e+01	-1.137716e-03
7.815315e+01	-1.150895e-03
7.860456e+01	-1.164227e-03
7.905857e+01	-1.177713e-03
7.951521e+01	-1.191355e-03
7.997449e+01	-1.205155e-03
8.043642e+01	-1.219115e-03
8.090102e+01	-1.233237e-03
8.136830e+01	-1.247522e-03
8.183828e+01	-1.261973e-03
8.231097e+01	-1.276591e-03
8.278640e+01	-1.291379e-03
8.326457e+01	-1.306337e-03
8.374550e+01	-1.321469e-03
8.422921e+01	-1.336777e-03
8.471572e+01	-1.352261e-03
8.520503e+01	-1.367925e-03
8.569717e+01	-1.383770e-03
8.619215e+01	-1.399799e-03
8.669000e+01	-1.416013e-03
8.719071e+01	-1.432416e-03
8.769432e+01	-1.449008e-03
8.820084e+01	-1.465792e-03
8.871029e+01	-1.482771e-03
8.922267e+01	-1.499946e-03
8.973802e+01	-1.517320e-03
9.025634e+01	-1.534896e-03
9.077766e+01	-1.552675e-03
9.130199e+01	-1.570660e-03
9.182935e+01	-1.588853e-03
9.235975e+01	-1.607257e-03
9.289321e+01	-1.625874e-03
9.342976e+01	-1.644706e-03
9.396941e+01	-1.663757e-03
9.451217e+01	-1.683028e-03
9.505807e+01	-1.702523e-03
9.560712e+01	-1.722243e-03
9.615934e+01	-1.742192e-03
9.671476e+01	-1.762372e-03
9.727338e+01	-1.782785e-03
9.783522e+01	-1.803435e-03
9.840032e+01	-1.824324e-03
9.896867e+01	-1.845454e-03
9.954031e+01	-1.866830e-03
1.001153e+02	-1.888453e-03
1.006935e+02	-1.910326e-03
1.012751e+02	-1.932453e-03
1.018601e+02	-1.954836e-03
1.024484e+02	-1.977478e-03
1.030402e+02	-2.000382e-03
1.036353e+02	-2.023552e-03
1.042339e+02	-2.046990e-03
1.048360e+02	-2.070699e-03
1.054415e+02	-2.094683e-03
1.060505e+02	-2.118944e-03
1.066631e+02	-2.143487e-03
1.072791e+02	-2.168314e-03
1.078988e+02	-2.193428e-03
1.085220e+02	-2.218833e-03
1.091488e+02	-2.244532e-03
1.097793e+02	-2.270528e-03
1.104133e+02	-2.296826e-03
1.110511e+02	-2.323428e-03
1.116925e+02	-2.350339e-03
1.123376e+02	-2.377560e-03
1.129865e+02	-2.405098e-03
1.136391e+02	-2.432953e-03
1.142955e+02	-2.461132e-03
1.149556e+02	-2.489636e-03
1.156196e+02	-2.518471e-03
1.162874e+02	-2.547640e-03
1.169591e+02	-2.577146e-03
1.176347e+02	-2.606994e-03
1.183141e+02	-2.637188e-03
1.189975e+02	-2.667731e-03
1.196848e+02	-2.698628e-03
1.203761e+02	-2.729882e-03
1.210714e+02	-2.761498e-03
1.217707e+02	-2.793481e-03
1.224740e+02	-2.825833e-03
1.231814e+02	-2.858561e-03
1.238929e+02	-2.891667e-03
1.246085e+02	-2.925156e-03
1.253283e+02	-2.959033e-03
1.260522e+02	-2.993303e-03
1.267802e+02	-3.027969e-03
1.275125e+02	-3.063036e-03
1.282490e+02	-3.098510e-03
1.289898e+02	-3.134394e-03
1.297348e+02	-3.170693e-03
1.304842e+02	-3.207413e-03
1.312378e+02	-3.244558e-03
1.319959e+02	-3.282133e-03
1.327583e+02	-3.320142e-03
1.335251e+02	-3.358592e-03
1.342963e+02	-3.397487e-03
1.350720e+02	-3.436832e-03
1.358522e+02	-3.476633e-03
1.366368e+02	-3.516894e-03
1.374260e+02	-3.557622e-03
1.382198e+02	-3.598821e-03
1.390182e+02	-3.640496e-03
1.398211e+02	-3.682655e-03
1.406287e+02	-3.725301e-03
1.414410e+02	-3.768441e-03
1.422579e+02	-3.812080e-03
1.430796e+02	-3.856224e-03
1.439060e+02	-3.900879e-03
1.447372e+02	-3.946052e-03
1.455732e+02	-3.991747e-03
1.464141e+02	-4.037970e-03
1.472597e+02	-4.084729e-03
1.481103e+02	-4.132029e-03
1.489658e+02	-4.179877e-03
1.498262e+02	-4.228278e-03
1.506916e+02	-4.277240e-03
1.515620e+02	-4.326768e-03
1.524374e+02	-4.376870e-03
1.533179e+02	-4.427551e-03
1.542034e+02	-4.478819e-03
1.550941e+02	-4.530680e-03
1.559899e+02	-4.583141e-03
1.568909e+02	-4.636210e-03
1.577971e+02	-4.689892e-03
1.587085e+02	-4.744196e-03
1.596252e+02	-4.799128e-03
1.605472e+02	-4.854696e-03
1.614745e+02	-4.910908e-03
1.624072e+02	-4.967769e-03
1.633453e+02	-5.025289e-03
1.642887e+02	-5.083474e-03
1.652377e+02	-5.142332e-03
1.661921e+02	-5.201872e-03
1.671520e+02	-5.262100e-03
1.681175e+02	-5.323025e-03
1.690885e+02	-5.384656e-03
1.700651e+02	-5.446999e-03
1.710474e+02	-5.510064e-03
1.720354e+02	-5.573858e-03
1.730291e+02	-5.638391e-03
1.740285e+02	-5.703670e-03
1.750337e+02	-5.769705e-03
1.760446e+02	-5.836503e-03
1.770615e+02	-5.904074e-03
1.780842e+02	-5.972428e-03
1.791128e+02	-6.041571e-03
1.801473e+02	-6.111515e-03
1.811878e+02	-6.182268e-03
1.822344e+02	-6.253840e-03
1.832870e+02	-6.326239e-03
1.843456e+02	-6.399476e-03
1.854104e+02	-6.473560e-03
1.864813e+02	-6.548501e-03
1.875584e+02	-6.624310e-03
1.886418e+02	-6.700995e-03
1.897313e+02	-6.778567e-03
1.908272e+02	-6.857036e-03
1.919294e+02	-6.936413e-03
1.930380e+02	-7.016708e-03
1.941530e+02	-7.097932e-03
1.952744e+02	-7.180095e-03
1.964023e+02	-7.263208e-03
1.975367e+02	-7.347283e-03
1.986777e+02	-7.432330e-03
1.998252e+02	-7.518361e-03
2.009794e+02	-7.605387e-03
2.021403e+02	-7.693419e-03
2.033078e+02	-7.782469e-03
2.044821e+02	-7.872549e-03
2.056632e+02	-7.963670e-03
2.068511e+02	-8.055846e-03
2.080459e+02	-8.149087e-03
2.092475e+02	-8.243406e-03
2.104561e+02	-8.338816e-03
2.116717e+02	-8.435330e-03
2.128943e+02	-8.532959e-03
2.141240e+02	-8.631717e-03
2.153608e+02	-8.731617e-03
2.166047e+02	-8.832671e-03
2.178558e+02	-8.934895e-03
2.191141e+02	-9.038300e-03
2.203797e+02	-9.142900e-03
2.216526e+02	-9.248710e-03
2.229329e+02	-9.355743e-03
2.242205e+02	-9.464013e-03
2.255156e+02	-9.573535e-03
2.268182e+02	-9.684323e-03
2.281283e+02	-9.796391e-03
2.294459e+02	-9.909755e-03
2.307712e+02	-1.002443e-02
2.321041e+02	-1.014043e-02
2.334447e+02	-1.025777e-02
2.347931e+02	-1.037647e-02
2.361493e+02	-1.049653e-02
2.375133e+02	-1.061799e-02
2.388851e+02	-1.074085e-02
2.402649e+02	-1.086513e-02
2.416527e+02	-1.099084e-02
2.430484e+02	-1.111801e-02
2.444523e+02	-1.124665e-02
2.458642e+02	-1.137677e-02
2.472843e+02	-1.150840e-02
2.487126e+02	-1.164155e-02
2.501492e+02	-1.177624e-02
2.515940e+02	-1.191248e-02
2.530472e+02	-1.205030e-02
2.545088e+02	-1.218971e-02
2.559789e+02	-1.233073e-02
2.574574e+02	-1.247338e-02
2.589444e+02	-1.261767e-02
2.604401e+02	-1.276364e-02
2.619444e+02	-1.291128e-02
2.634574e+02	-1.306064e-02
2.649791e+02	-1.321172e-02
2.665096e+02	-1.336454e-02
2.680489e+02	-1.351913e-02
2.695972e+02	-1.367551e-02
2.711544e+02	-1.383369e-02
2.727205e+02	-1.399370e-02
2.742958e+02	-1.415555e-02
2.758801e+02	-1.431928e-02
2.774736e+02	-1.448489e-02
2.790762e+02	-1.465242e-02
2.806882e+02	-1.482188e-02
2.823094e+02	-1.499330e-02
2.839400e+02	-1.516670e-02
2.855800e+02	-1.534210e-02
2.872295e+02	-1.551952e-02
2.888886e+02	-1.569899e-02
2.905572e+02	-1.588053e-02
2.922354e+02	-1.606417e-02
2.939234e+02	-1.624993e-02
2.956211e+02	-1.643783e-02
2.973286e+02	-1.662790e-02
2.990459e+02	-1.682017e-02
3.007732e+02	-1.701465e-02
3.025104e+02	-1.721138e-02
3.042577e+02	-1.741038e-02
3.060151e+02	-1.761167e-02
3.077826e+02	-1.781528e-02
3.095604e+02	-1.802125e-02
3.113484e+02	-1.822959e-02
3.131467e+02	-1.844034e-02
3.149554e+02	-1.865351e-02
3.167746e+02	-1.886915e-02
3.186043e+02	-1.908727e-02
3.204445e+02	-1.930791e-02
3.222954e+02	-1.953109e-02
3.241570e+02	-1.975684e-02
3.260293e+02	-1.998520e-02
3.279124e+02	-2.021620e-02
3.298064e+02	-2.044985e-02
3.317114e+02	-2.068620e-02
3.336273e+02	-2.092528e-02
3.355544e+02	-2.116711e-02
3.374925e+02	-2.141173e-02
3.394418e+02	-2.165917e-02
3.414024e+02	-2.190946e-02
3.433744e+02	-2.216264e-02
3.453577e+02	-2.241874e-02
3.473525e+02	-2.267778e-02
3.493588e+02	-2.293982e-02
3.513766e+02	-2.320487e-02
3.534062e+02	-2.347297e-02
3.554474e+02	-2.374417e-02
3.575005e+02	-2.401849e-02
3.595654e+02	-2.429597e-02
3.616422e+02	-2.457664e-02
3.637311e+02	-2.486055e-02
3.658320e+02	-2.514773e-02
3.679450e+02	-2.543822e-02
3.700702e+02	-2.573205e-02
3.722077e+02	-2.602927e-02
3.743576e+02	-2.632991e-02
3.765199e+02	-2.663401e-02
3.786946e+02	-2.694161e-02
3.808820e+02	-2.725275e-02
3.830819e+02	-2.756748e-02
3.852946e+02	-2.788583e-02
3.875200e+02	-2.820784e-02
3.897583e+02	-2.853356e-02
3.920096e+02	-2.886302e-02
3.942738e+02	-2.919628e-02
3.965511e+02	-2.953338e-02
3.988416e+02	-2.987435e-02
4.011452e+02	-3.021924e-02
4.034622e+02	-3.056810e-02
4.057926e+02	-3.092098e-02
4.081365e+02	-3.127791e-02
4.104938e+02	-3.163895e-02
4.128648e+02	-3.200414e-02
4.152495e+02	-3.237353e-02
4.176480e+02	-3.274717e-02
4.200603e+02	-3.312511e-02
4.224866e+02	-3.350738e-02
4.249268e+02	-3.389406e-02
4.273812e+02	-3.428518e-02
4.298497e+02	-3.468079e-02
4.323325e+02	-3.508095e-02
4.348297e+02	-3.548570e-02
4.373412e+02	-3.589511e-02
4.398673e+02	-3.630922e-02
4.424079e+02	-3.672809e-02
4.449633e+02	-3.715177e-02
4.475334e+02	-3.758032e-02
4.501183e+02	-3.801379e-02
4.527182e+02	-3.845223e-02
4.553330e+02	-3.889571e-02
4.579630e+02	-3.934428e-02
4.606082e+02	-3.979800e-02
4.632687e+02	-4.025693e-02
4.659445e+02	-4.072113e-02
4.686358e+02	-4.119065e-02
4.713426e+02	-4.166556e-02
4.740650e+02	-4.214592e-02
4.768032e+02	-4.263179e-02
4.795572e+02	-4.312324e-02
4.823271e+02	-4.362032e-02
4.851130e+02	-4.412310e-02
4.879150e+02	-4.463164e-02
4.907332e+02	-4.514602e-02
4.935676e+02	-4.566629e-02
4.964185e+02	-4.619253e-02
4.992858e+02	-4.672480e-02
5.021696e+02	-4.726317e-02
5.050701e+02	-4.780770e-02
5.079874e+02	-4.835848e-02
5.109215e+02	-4.891557e-02
5.138726e+02	-4.947903e-02
5.168407e+02	-5.004895e-02
5.198259e+02	-5.062540e-02
5.228284e+02	-5.120844e-02
5.258482e+02	-5.179816e-02
5.288855e+02	-5.239463e-02
5.319403e+02	-5.299793e-02
5.350128e+02	-5.360813e-02
5.381030e+02	-5.422531e-02
5.412111e+02	-5.484956e-02
5.443371e+02	-5.548094e-02
5.474812e+02	-5.611954e-02
5.506434e+02	-5.676545e-02
5.538239e+02	-5.741874e-02
5.570228e+02	-5.807950e-02
5.602401e+02	-5.874781e-02
5.634760e+02	-5.942376e-02
5.667306e+02	-6.010743e-02
5.700040e+02	-6.079891e-02
5.732964e+02	-6.149829e-02
5.766077e+02	-6.220566e-02
5.799382e+02	-6.292111e-02
5.832879e+02	-6.364472e-02
5.866569e+02	-6.437659e-02
5.900454e+02	-6.511682e-02
5.934535e+02	-6.586549e-02
5.968813e+02	-6.662271e-02
6.003288e+02	-6.738856e-02
6.037963e+02	-6.816314e-02
6.072838e+02	-6.894656e-02
6.107914e+02	-6.973891e-02
6.143194e+02	-7.054029e-02
6.178676e+02	-7.135081e-02
6.214364e+02	-7.217056e-02
6.250258e+02	-7.299965e-02
6.286359e+02	-7.383818e-02
6.322669e+02	-7.468626e-02
6.359189e+02	-7.554400e-02
6.395919e+02	-7.641150e-02
6.432862e+02	-7.728887e-02
6.470017e+02	-7.817623e-02
6.507388e+02	-7.907368e-02
6.544974e+02	-7.998134e-02
6.582778e+02	-8.089932e-02
6.620800e+02	-8.182774e-02
6.659041e+02	-8.276671e-02
6.697504e+02	-8.371635e-02
6.736188e+02	-8.467678e-02
6.775096e+02	-8.564812e-02
6.814229e+02	-8.663049e-02
6.853587e+02	-8.762401e-02
6.893173e+02	-8.862881e-02
6.932988e+02	-8.964502e-02
6.973033e+02	-9.067275e-02
7.013309e+02	-9.171215e-02
