Frequency(Hz)	Magnitude(dB)
1.000000e+01	-2.171736e+00
1.005776e+01	-2.191404e+00
1.011585e+01	-2.211001e+00
1.017428e+01	-2.231267e+00
1.023305e+01	-2.251190e+00
1.029215e+01	-2.271566e+00
1.035160e+01	-2.292189e+00
1.041139e+01	-2.312806e+00
1.047153e+01	-2.333611e+00
1.053201e+01	-2.354426e+00
1.059284e+01	-2.375276e+00
1.065403e+01	-2.396385e+00
1.071556e+01	-2.417779e+00
1.077746e+01	-2.439252e+00
1.083971e+01	-2.460644e+00
1.090232e+01	-2.482232e+00
1.096529e+01	-2.504408e+00
1.102862e+01	-2.526479e+00
1.109232e+01	-2.548659e+00
1.115639e+01	-2.570804e+00
1.122083e+01	-2.593239e+00
1.128564e+01	-2.615609e+00
1.135083e+01	-2.638235e+00
1.141639e+01	-2.661126e+00
1.148233e+01	-2.684398e+00
1.154865e+01	-2.707317e+00
1.161536e+01	-2.730767e+00
1.168245e+01	-2.754067e+00
1.174992e+01	-2.777594e+00
1.181779e+01	-2.801398e+00
1.188605e+01	-2.825249e+00
1.195470e+01	-2.849223e+00
1.202375e+01	-2.873126e+00
1.209320e+01	-2.897780e+00
1.216305e+01	-2.922058e+00
1.223330e+01	-2.946371e+00
1.230396e+01	-2.971402e+00
1.237503e+01	-2.996256e+00
1.244651e+01	-3.021049e+00
1.251840e+01	-3.046438e+00
1.259070e+01	-3.071593e+00
1.266343e+01	-3.097225e+00
1.273657e+01	-3.122646e+00
1.281014e+01	-3.148495e+00
1.288413e+01	-3.174378e+00
1.295855e+01	-3.200160e+00
1.303339e+01	-3.226364e+00
1.310867e+01	-3.252492e+00
1.318439e+01	-3.279189e+00
1.326054e+01	-3.305790e+00
1.333713e+01	-3.332521e+00
1.341417e+01	-3.359348e+00
1.349165e+01	-3.386302e+00
1.356958e+01	-3.413494e+00
1.364795e+01	-3.440606e+00
1.372678e+01	-3.468241e+00
1.380607e+01	-3.495699e+00
1.388581e+01	-3.523855e+00
1.396602e+01	-3.551510e+00
1.404668e+01	-3.579330e+00
1.412782e+01	-3.607574e+00
1.420942e+01	-3.635913e+00
1.429149e+01	-3.664377e+00
1.437404e+01	-3.692862e+00
1.445706e+01	-3.721528e+00
1.454057e+01	-3.750567e+00
1.462455e+01	-3.779490e+00
1.470902e+01	-3.808514e+00
1.479398e+01	-3.837951e+00
1.487943e+01	-3.867380e+00
1.496537e+01	-3.896931e+00
1.505181e+01	-3.926801e+00
1.513875e+01	-3.956491e+00
1.522619e+01	-3.986772e+00
1.531414e+01	-4.016519e+00
1.540259e+01	-4.046677e+00
1.549156e+01	-4.077337e+00
1.558103e+01	-4.107652e+00
1.567103e+01	-4.138248e+00
1.576155e+01	-4.169351e+00
1.585258e+01	-4.200121e+00
1.594415e+01	-4.231209e+00
1.603624e+01	-4.262489e+00
1.612886e+01	-4.293719e+00
1.622202e+01	-4.325328e+00
1.631572e+01	-4.356916e+00
1.640996e+01	-4.388592e+00
1.650474e+01	-4.420536e+00
1.660008e+01	-4.452221e+00
1.669596e+01	-4.484691e+00
1.679239e+01	-4.516885e+00
1.688938e+01	-4.549578e+00
1.698694e+01	-4.581857e+00
1.708505e+01	-4.614747e+00
1.718373e+01	-4.647424e+00
1.728299e+01	-4.680462e+00
1.738281e+01	-4.713296e+00
1.748322e+01	-4.746638e+00
1.758420e+01	-4.779858e+00
1.768576e+01	-4.813221e+00
1.778792e+01	-4.846794e+00
1.789066e+01	-4.880474e+00
1.799399e+01	-4.914359e+00
1.809793e+01	-4.948319e+00
1.820246e+01	-4.982471e+00
1.830760e+01	-5.016889e+00
1.841334e+01	-5.050865e+00
1.851969e+01	-5.085487e+00
1.862666e+01	-5.119890e+00
1.873425e+01	-5.154754e+00
1.884246e+01	-5.189532e+00
1.895129e+01	-5.224336e+00
1.906075e+01	-5.259581e+00
1.917085e+01	-5.294734e+00
1.928158e+01	-5.329994e+00
1.939295e+01	-5.365795e+00
1.950496e+01	-5.401056e+00
1.961762e+01	-5.436865e+00
1.973093e+01	-5.472446e+00
1.984490e+01	-5.508683e+00
1.995952e+01	-5.544313e+00
2.007480e+01	-5.580574e+00
2.019076e+01	-5.616501e+00
2.030738e+01	-5.653068e+00
2.042467e+01	-5.689548e+00
2.054264e+01	-5.726257e+00
2.066130e+01	-5.762867e+00
2.078064e+01	-5.799653e+00
2.090066e+01	-5.836635e+00
2.102139e+01	-5.873530e+00
2.114280e+01	-5.910835e+00
2.126492e+01	-5.947930e+00
2.138775e+01	-5.985305e+00
2.151128e+01	-6.022572e+00
2.163553e+01	-6.060528e+00
2.176050e+01	-6.098125e+00
2.188619e+01	-6.135819e+00
2.201260e+01	-6.173830e+00
2.213974e+01	-6.211815e+00
2.226762e+01	-6.249812e+00
2.239624e+01	-6.288005e+00
2.252560e+01	-6.326253e+00
2.265571e+01	-6.364938e+00
2.278656e+01	-6.403539e+00
2.291818e+01	-6.442200e+00
2.305055e+01	-6.480442e+00
2.318369e+01	-6.519785e+00
2.331760e+01	-6.558299e+00
2.345228e+01	-6.597455e+00
2.358774e+01	-6.636888e+00
2.372398e+01	-6.675935e+00
2.386101e+01	-6.715441e+00
2.399883e+01	-6.754625e+00
2.413745e+01	-6.794009e+00
2.427686e+01	-6.833308e+00
2.441709e+01	-6.873591e+00
2.455812e+01	-6.912847e+00
2.469997e+01	-6.953238e+00
2.484263e+01	-6.993290e+00
2.498612e+01	-7.033148e+00
2.513044e+01	-7.073090e+00
2.527559e+01	-7.113403e+00
2.542158e+01	-7.154239e+00
2.556842e+01	-7.194547e+00
2.571610e+01	-7.234761e+00
2.586463e+01	-7.275191e+00
2.601403e+01	-7.316162e+00
2.616428e+01	-7.356587e+00
2.631541e+01	-7.397880e+00
2.646740e+01	-7.438884e+00
2.662028e+01	-7.479985e+00
2.677404e+01	-7.521058e+00
2.692868e+01	-7.562388e+00
2.708422e+01	-7.603591e+00
2.724066e+01	-7.644451e+00
2.739800e+01	-7.686346e+00
2.755625e+01	-7.727883e+00
2.771541e+01	-7.769392e+00
2.787550e+01	-7.811381e+00
2.803650e+01	-7.853217e+00
2.819844e+01	-7.894944e+00
2.836131e+01	-7.937002e+00
2.852513e+01	-7.978994e+00
2.868989e+01	-8.020757e+00
2.885560e+01	-8.062786e+00
2.902227e+01	-8.105382e+00
2.918990e+01	-8.147628e+00
2.935850e+01	-8.190070e+00
2.952807e+01	-8.232481e+00
2.969863e+01	-8.274953e+00
2.987016e+01	-8.317968e+00
3.004269e+01	-8.360809e+00
3.021622e+01	-8.402912e+00
3.039075e+01	-8.446312e+00
3.056628e+01	-8.488876e+00
3.074283e+01	-8.531866e+00
3.092040e+01	-8.574836e+00
3.109900e+01	-8.618087e+00
3.127862e+01	-8.661720e+00
3.145929e+01	-8.704254e+00
3.164099e+01	-8.748163e+00
3.182375e+01	-8.791071e+00
3.200756e+01	-8.834583e+00
3.219244e+01	-8.878453e+00
3.237838e+01	-8.921396e+00
3.256540e+01	-8.965209e+00
3.275349e+01	-9.009377e+00
3.294268e+01	-9.052943e+00
3.313295e+01	-9.097054e+00
3.332433e+01	-9.140637e+00
3.351681e+01	-9.184705e+00
3.371040e+01	-9.228451e+00
3.390511e+01	-9.272454e+00
3.410094e+01	-9.316493e+00
3.429791e+01	-9.361020e+00
3.449601e+01	-9.405453e+00
3.469526e+01	-9.449646e+00
3.489566e+01	-9.493845e+00
3.509721e+01	-9.538245e+00
3.529993e+01	-9.582931e+00
3.550382e+01	-9.627498e+00
3.570889e+01	-9.672038e+00
3.591515e+01	-9.717225e+00
3.612259e+01	-9.761168e+00
3.633123e+01	-9.805670e+00
3.654108e+01	-9.851046e+00
3.675214e+01	-9.895845e+00
3.696442e+01	-9.940457e+00
3.717792e+01	-9.985763e+00
3.739266e+01	-1.003075e+01
3.760864e+01	-1.007610e+01
3.782587e+01	-1.012080e+01
3.804435e+01	-1.016626e+01
3.826409e+01	-1.021157e+01
3.848510e+01	-1.025626e+01
3.870739e+01	-1.030220e+01
3.893096e+01	-1.034700e+01
3.915583e+01	-1.039254e+01
3.938199e+01	-1.043885e+01
3.960946e+01	-1.048388e+01
3.983824e+01	-1.052969e+01
4.006834e+01	-1.057521e+01
4.029978e+01	-1.062063e+01
4.053255e+01	-1.066664e+01
4.076666e+01	-1.071243e+01
4.100213e+01	-1.075818e+01
4.123896e+01	-1.080392e+01
4.147715e+01	-1.085003e+01
4.171672e+01	-1.089474e+01
4.195767e+01	-1.094220e+01
4.220002e+01	-1.098744e+01
4.244377e+01	-1.103413e+01
4.268892e+01	-1.108027e+01
4.293549e+01	-1.112611e+01
4.318348e+01	-1.117299e+01
4.343291e+01	-1.121820e+01
4.368377e+01	-1.126446e+01
4.393609e+01	-1.131101e+01
4.418986e+01	-1.135757e+01
4.444510e+01	-1.140387e+01
4.470182e+01	-1.144998e+01
4.496001e+01	-1.149688e+01
4.521970e+01	-1.154308e+01
4.548089e+01	-1.158930e+01
4.574358e+01	-1.163606e+01
4.600779e+01	-1.168291e+01
4.627353e+01	-1.172909e+01
4.654081e+01	-1.177603e+01
4.680963e+01	-1.182249e+01
4.708000e+01	-1.186964e+01
4.735193e+01	-1.191597e+01
4.762543e+01	-1.196406e+01
4.790051e+01	-1.201014e+01
4.817719e+01	-1.205715e+01
4.845545e+01	-1.210390e+01
4.873533e+01	-1.215091e+01
4.901682e+01	-1.219851e+01
4.929994e+01	-1.224509e+01
4.958470e+01	-1.229208e+01
4.987110e+01	-1.233915e+01
5.015915e+01	-1.238651e+01
5.044887e+01	-1.243310e+01
5.074026e+01	-1.248083e+01
5.103333e+01	-1.252798e+01
5.132810e+01	-1.257492e+01
5.162457e+01	-1.262245e+01
5.192275e+01	-1.266945e+01
5.222265e+01	-1.271728e+01
5.252429e+01	-1.276515e+01
5.282767e+01	-1.281165e+01
5.313280e+01	-1.285944e+01
5.343969e+01	-1.290700e+01
5.374836e+01	-1.295405e+01
5.405880e+01	-1.300189e+01
5.437105e+01	-1.304957e+01
5.468509e+01	-1.309628e+01
5.500095e+01	-1.314404e+01
5.531863e+01	-1.319238e+01
5.563815e+01	-1.324019e+01
5.595951e+01	-1.328697e+01
5.628273e+01	-1.333474e+01
5.660782e+01	-1.338226e+01
5.693479e+01	-1.343007e+01
5.726364e+01	-1.347879e+01
5.759439e+01	-1.352566e+01
5.792705e+01	-1.357389e+01
5.826164e+01	-1.362176e+01
5.859815e+01	-1.366967e+01
5.893662e+01	-1.371785e+01
5.927703e+01	-1.376530e+01
5.961941e+01	-1.381364e+01
5.996377e+01	-1.386106e+01
6.031012e+01	-1.390893e+01
6.065847e+01	-1.395700e+01
6.100883e+01	-1.400557e+01
6.136121e+01	-1.405353e+01
6.171563e+01	-1.410084e+01
6.207210e+01	-1.414945e+01
6.243063e+01	-1.419753e+01
6.279122e+01	-1.424555e+01
6.315390e+01	-1.429386e+01
6.351868e+01	-1.434226e+01
6.388556e+01	-1.439017e+01
6.425456e+01	-1.443827e+01
6.462569e+01	-1.448702e+01
6.499897e+01	-1.453474e+01
6.537440e+01	-1.458281e+01
6.575200e+01	-1.463177e+01
6.613178e+01	-1.468043e+01
6.651375e+01	-1.472804e+01
6.689793e+01	-1.477624e+01
6.728433e+01	-1.482504e+01
6.767297e+01	-1.487384e+01
6.806384e+01	-1.492070e+01
6.845698e+01	-1.496980e+01
6.885238e+01	-1.501885e+01
6.925007e+01	-1.506699e+01
6.965005e+01	-1.511479e+01
7.005235e+01	-1.516436e+01
7.045697e+01	-1.521224e+01
7.086393e+01	-1.526028e+01
7.127323e+01	-1.530884e+01
7.168490e+01	-1.535708e+01
7.209895e+01	-1.540732e+01
7.251539e+01	-1.545595e+01
7.293424e+01	-1.550446e+01
7.335551e+01	-1.555281e+01
7.377920e+01	-1.560103e+01
7.420535e+01	-1.564989e+01
7.463396e+01	-1.569895e+01
7.506504e+01	-1.574667e+01
7.549861e+01	-1.579610e+01
7.593469e+01	-1.584538e+01
7.637328e+01	-1.589459e+01
7.681441e+01	-1.594280e+01
7.725809e+01	-1.598975e+01
7.770433e+01	-1.603919e+01
7.815315e+01	-1.608790e+01
7.860456e+01	-1.613693e+01
7.905857e+01	-1.618688e+01
7.951521e+01	-1.623502e+01
7.997449e+01	-1.628430e+01
8.043642e+01	-1.633282e+01
8.090102e+01	-1.638185e+01
8.136830e+01	-1.643149e+01
8.183828e+01	-1.648001e+01
8.231097e+01	-1.652894e+01
8.278640e+01	-1.657677e+01
8.326457e+01	-1.662626e+01
8.374550e+01	-1.667516e+01
8.422921e+01	-1.672344e+01
8.471572e+01	-1.677239e+01
8.520503e+01	-1.682116e+01
8.569717e+01	-1.687104e+01
8.619215e+01	-1.691976e+01
8.669000e+01	-1.696906e+01
8.719071e+01	-1.701845e+01
8.769432e+01	-1.706777e+01
8.820084e+01	-1.711652e+01
8.871029e+01	-1.716480e+01
8.922267e+01	-1.721369e+01
8.973802e+01	-1.726401e+01
9.025634e+01	-1.731248e+01
9.077766e+01	-1.736237e+01
9.130199e+01	-1.741043e+01
9.182935e+01	-1.746007e+01
9.235975e+01	-1.750882e+01
9.289321e+01	-1.755798e+01
9.342976e+01	-1.760899e+01
9.396941e+01	-1.765600e+01
9.451217e+01	-1.770551e+01
9.505807e+01	-1.775503e+01
9.560712e+01	-1.780362e+01
9.615934e+01	-1.785319e+01
9.671476e+01	-1.790367e+01
9.727338e+01	-1.795138e+01
9.783522e+01	-1.799963e+01
9.840032e+01	-1.805007e+01
9.896867e+01	-1.810004e+01
9.954031e+01	-1.814868e+01
1.001153e+02	-1.819803e+01
1.006935e+02	-1.824643e+01
1.012751e+02	-1.829641e+01
1.018601e+02	-1.834638e+01
1.024484e+02	-1.839474e+01
1.030402e+02	-1.844389e+01
1.036353e+02	-1.849150e+01
1.042339e+02	-1.854350e+01
1.048360e+02	-1.859438e+01
1.054415e+02	-1.864103e+01
1.060505e+02	-1.869158e+01
1.066631e+02	-1.873995e+01
1.072791e+02	-1.879146e+01
1.078988e+02	-1.883867e+01
1.085220e+02	-1.888817e+01
1.091488e+02	-1.893878e+01
1.097793e+02	-1.898765e+01
1.104133e+02	-1.903642e+01
1.110511e+02	-1.908561e+01
1.116925e+02	-1.913608e+01
1.123376e+02	-1.918557e+01
1.129865e+02	-1.923504e+01
1.136391e+02	-1.928260e+01
1.142955e+02	-1.933284e+01
1.149556e+02	-1.938205e+01
1.156196e+02	-1.943192e+01
1.162874e+02	-1.948075e+01
1.169591e+02	-1.953098e+01
1.176347e+02	-1.957987e+01
1.183141e+02	-1.963036e+01
1.189975e+02	-1.967920e+01
1.196848e+02	-1.972828e+01
1.203761e+02	-1.977858e+01
1.210714e+02	-1.982812e+01
1.217707e+02	-1.987785e+01
1.224740e+02	-1.992747e+01
1.231814e+02	-1.997721e+01
1.238929e+02	-2.002534e+01
1.246085e+02	-2.007498e+01
1.253283e+02	-2.012532e+01
1.260522e+02	-2.017505e+01
1.267802e+02	-2.022620e+01
1.275125e+02	-2.027178e+01
1.282490e+02	-2.032336e+01
1.289898e+02	-2.037234e+01
1.297348e+02	-2.042291e+01
1.304842e+02	-2.047348e+01
1.312378e+02	-2.052231e+01
1.319959e+02	-2.056989e+01
1.327583e+02	-2.062183e+01
1.335251e+02	-2.066968e+01
1.342963e+02	-2.072136e+01
1.350720e+02	-2.076957e+01
1.358522e+02	-2.082082e+01
1.366368e+02	-2.086961e+01
1.374260e+02	-2.091803e+01
1.382198e+02	-2.096829e+01
1.390182e+02	-2.101784e+01
1.398211e+02	-2.106732e+01
1.406287e+02	-2.111883e+01
1.414410e+02	-2.116753e+01
1.422579e+02	-2.121689e+01
1.430796e+02	-2.126592e+01
1.439060e+02	-2.131631e+01
1.447372e+02	-2.136523e+01
1.455732e+02	-2.141557e+01
1.464141e+02	-2.146524e+01
1.472597e+02	-2.151515e+01
1.481103e+02	-2.156582e+01
1.489658e+02	-2.161279e+01
1.498262e+02	-2.166526e+01
1.506916e+02	-2.171338e+01
1.515620e+02	-2.176359e+01
1.524374e+02	-2.181442e+01
1.533179e+02	-2.186393e+01
1.542034e+02	-2.191161e+01
1.550941e+02	-2.196147e+01
1.559899e+02	-2.200954e+01
1.568909e+02	-2.206164e+01
1.577971e+02	-2.211015e+01
1.587085e+02	-2.216231e+01
1.596252e+02	-2.221016e+01
1.605472e+02	-2.225985e+01
1.614745e+02	-2.231066e+01
1.624072e+02	-2.235984e+01
1.633453e+02	-2.240995e+01
1.642887e+02	-2.246053e+01
1.652377e+02	-2.250792e+01
1.661921e+02	-2.256051e+01
1.671520e+02	-2.260834e+01
1.681175e+02	-2.265849e+01
1.690885e+02	-2.270953e+01
1.700651e+02	-2.275764e+01
1.710474e+02	-2.280875e+01
1.720354e+02	-2.285738e+01
1.730291e+02	-2.290713e+01
1.740285e+02	-2.295855e+01
1.750337e+02	-2.300636e+01
1.760446e+02	-2.305796e+01
1.770615e+02	-2.310648e+01
1.780842e+02	-2.315622e+01
1.791128e+02	-2.320537e+01
1.801473e+02	-2.325561e+01
1.811878e+02	-2.330548e+01
1.822344e+02	-2.335624e+01
1.832870e+02	-2.340734e+01
1.843456e+02	-2.345593e+01
1.854104e+02	-2.350622e+01
1.864813e+02	-2.355700e+01
1.875584e+02	-2.360644e+01
1.886418e+02	-2.365622e+01
1.897313e+02	-2.370754e+01
1.908272e+02	-2.375121e+01
1.919294e+02	-2.380317e+01
1.930380e+02	-2.385562e+01
1.941530e+02	-2.390328e+01
1.952744e+02	-2.395330e+01
1.964023e+02	-2.400271e+01
1.975367e+02	-2.405350e+01
1.986777e+02	-2.410287e+01
1.998252e+02	-2.415454e+01
2.009794e+02	-2.420497e+01
2.021403e+02	-2.425187e+01
2.033078e+02	-2.430408e+01
2.044821e+02	-2.435346e+01
2.056632e+02	-2.440115e+01
2.068511e+02	-2.445264e+01
2.080459e+02	-2.450293e+01
2.092475e+02	-2.455162e+01
2.104561e+02	-2.460291e+01
2.116717e+02	-2.465231e+01
2.128943e+02	-2.470265e+01
2.141240e+02	-2.475250e+01
2.153608e+02	-2.480517e+01
2.166047e+02	-2.485100e+01
2.178558e+02	-2.490197e+01
2.191141e+02	-2.495129e+01
2.203797e+02	-2.500111e+01
2.216526e+02	-2.505201e+01
2.229329e+02	-2.510160e+01
2.242205e+02	-2.515065e+01
2.255156e+02	-2.520076e+01
2.268182e+02	-2.525055e+01
2.281283e+02	-2.530071e+01
2.294459e+02	-2.535170e+01
2.307712e+02	-2.540157e+01
2.321041e+02	-2.544892e+01
2.334447e+02	-2.549975e+01
2.347931e+02	-2.555319e+01
2.361493e+02	-2.559987e+01
2.375133e+02	-2.565119e+01
2.388851e+02	-2.569974e+01
2.402649e+02	-2.575099e+01
2.416527e+02	-2.579843e+01
2.430484e+02	-2.585060e+01
2.444523e+02	-2.590351e+01
2.458642e+02	-2.595172e+01
2.472843e+02	-2.599969e+01
2.487126e+02	-2.604954e+01
2.501492e+02	-2.610083e+01
2.515940e+02	-2.615103e+01
2.530472e+02	-2.619974e+01
2.545088e+02	-2.625047e+01
2.559789e+02	-2.629854e+01
2.574574e+02	-2.635185e+01
2.589444e+02	-2.639873e+01
2.604401e+02	-2.645067e+01
2.619444e+02	-2.650013e+01
2.634574e+02	-2.654794e+01
2.649791e+02	-2.660205e+01
2.665096e+02	-2.665194e+01
2.680489e+02	-2.670458e+01
2.695972e+02	-2.675235e+01
2.711544e+02	-2.679867e+01
2.727205e+02	-2.685068e+01
2.742958e+02	-2.689972e+01
2.758801e+02	-2.695336e+01
2.774736e+02	-2.700067e+01
2.790762e+02	-2.705158e+01
2.806882e+02	-2.709841e+01
2.823094e+02	-2.715299e+01
2.839400e+02	-2.719571e+01
2.855800e+02	-2.724739e+01
2.872295e+02	-2.730078e+01
2.888886e+02	-2.735083e+01
2.905572e+02	-2.739878e+01
2.922354e+02	-2.744815e+01
2.939234e+02	-2.750150e+01
2.956211e+02	-2.754589e+01
2.973286e+02	-2.759595e+01
2.990459e+02	-2.764688e+01
3.007732e+02	-2.769927e+01
3.025104e+02	-2.775284e+01
3.042577e+02	-2.779788e+01
3.060151e+02	-2.784887e+01
3.077826e+02	-2.790154e+01
3.095604e+02	-2.795180e+01
3.113484e+02	-2.800032e+01
3.131467e+02	-2.805375e+01
3.149554e+02	-2.810429e+01
3.167746e+02	-2.814869e+01
3.186043e+02	-2.820042e+01
3.204445e+02	-2.825048e+01
3.222954e+02	-2.830508e+01
3.241570e+02	-2.834918e+01
3.260293e+02	-2.839754e+01
3.279124e+02	-2.844974e+01
3.298064e+02	-2.850010e+01
3.317114e+02	-2.855132e+01
3.336273e+02	-2.859937e+01
3.355544e+02	-2.865033e+01
3.374925e+02	-2.870121e+01
3.394418e+02	-2.875084e+01
3.414024e+02	-2.880285e+01
3.433744e+02	-2.884964e+01
3.453577e+02	-2.889737e+01
3.473525e+02	-2.894818e+01
3.493588e+02	-2.900353e+01
3.513766e+02	-2.904475e+01
3.534062e+02	-2.909974e+01
3.554474e+02	-2.914899e+01
3.575005e+02	-2.920344e+01
3.595654e+02	-2.925488e+01
3.616422e+02	-2.929963e+01
3.637311e+02	-2.935030e+01
3.658320e+02	-2.940340e+01
3.679450e+02	-2.945005e+01
3.700702e+02	-2.950556e+01
3.722077e+02	-2.955147e+01
3.743576e+02	-2.960481e+01
3.765199e+02	-2.965156e+01
3.786946e+02	-2.970101e+01
3.808820e+02	-2.975271e+01
3.830819e+02	-2.980145e+01
3.852946e+02	-2.985426e+01
3.875200e+02	-2.990111e+01
3.897583e+02	-2.995302e+01
3.920096e+02	-3.000318e+01
3.942738e+02	-3.005259e+01
3.965511e+02	-3.010170e+01
3.988416e+02	-3.015650e+01
4.011452e+02	-3.020231e+01
4.034622e+02	-3.024997e+01
4.057926e+02	-3.030512e+01
4.081365e+02	-3.035457e+01
4.104938e+02	-3.040451e+01
4.128648e+02	-3.045289e+01
4.152495e+02	-3.050500e+01
4.176480e+02	-3.055029e+01
4.200603e+02	-3.060541e+01
4.224866e+02	-3.066210e+01
4.249268e+02	-3.071259e+01
4.273812e+02	-3.075837e+01
4.298497e+02	-3.080981e+01
4.323325e+02	-3.085301e+01
4.348297e+02	-3.090669e+01
4.373412e+02	-3.095435e+01
4.398673e+02	-3.100554e+01
4.424079e+02	-3.105314e+01
4.449633e+02	-3.110856e+01
4.475334e+02	-3.115781e+01
4.501183e+02	-3.120278e+01
4.527182e+02	-3.125313e+01
4.553330e+02	-3.130488e+01
4.579630e+02	-3.136088e+01
4.606082e+02	-3.140776e+01
4.632687e+02	-3.145662e+01
4.659445e+02	-3.151095e+01
4.686358e+02	-3.156099e+01
4.713426e+02	-3.160828e+01
4.740650e+02	-3.166055e+01
4.768032e+02	-3.170890e+01
4.795572e+02	-3.175761e+01
4.823271e+02	-3.181683e+01
4.851130e+02	-3.185975e+01
4.879150e+02	-3.190874e+01
4.907332e+02	-3.195842e+01
4.935676e+02	-3.200492e+01
4.964185e+02	-3.205913e+01
4.992858e+02	-3.210804e+01
5.021696e+02	-3.216220e+01
5.050701e+02	-3.220628e+01
5.079874e+02	-3.225939e+01
5.109215e+02	-3.230825e+01
5.138726e+02	-3.235315e+01
5.168407e+02	-3.241388e+01
5.198259e+02	-3.246625e+01
5.228284e+02	-3.251495e+01
5.258482e+02	-3.256140e+01
5.288855e+02	-3.260861e+01
5.319403e+02	-3.266207e+01
5.350128e+02	-3.271251e+01
5.381030e+02	-3.276376e+01
5.412111e+02	-3.281989e+01
5.443371e+02	-3.286677e+01
5.474812e+02	-3.290934e+01
5.506434e+02	-3.296617e+01
5.538239e+02	-3.302277e+01
5.570228e+02	-3.306903e+01
5.602401e+02	-3.311135e+01
5.634760e+02	-3.316295e+01
5.667306e+02	-3.321696e+01
5.700040e+02	-3.325996e+01
5.732964e+02	-3.331689e+01
5.766077e+02	-3.336810e+01
5.799382e+02	-3.340803e+01
5.832879e+02	-3.346352e+01
5.866569e+02	-3.352437e+01
5.900454e+02	-3.357032e+01
5.934535e+02	-3.362494e+01
5.968813e+02	-3.366905e+01
6.003288e+02	-3.372543e+01
6.037963e+02	-3.376947e+01
6.072838e+02	-3.382644e+01
6.107914e+02	-3.386770e+01
6.143194e+02	-3.391887e+01
6.178676e+02	-3.396139e+01
6.214364e+02	-3.401345e+01
6.250258e+02	-3.406756e+01
6.286359e+02	-3.412054e+01
6.322669e+02	-3.417886e+01
6.359189e+02	-3.423253e+01
6.395919e+02	-3.427410e+01
6.432862e+02	-3.432715e+01
6.470017e+02	-3.437058e+01
6.507388e+02	-3.442178e+01
6.544974e+02	-3.447067e+01
6.582778e+02	-3.452906e+01
6.620800e+02	-3.457798e+01
6.659041e+02	-3.462135e+01
6.697504e+02	-3.467595e+01
6.736188e+02	-3.472905e+01
6.775096e+02	-3.478197e+01
6.814229e+02	-3.482419e+01
6.853587e+02	-3.487362e+01
6.893173e+02	-3.493169e+01
6.932988e+02	-3.497632e+01
6.973033e+02	-3.502928e+01
7.013309e+02	-3.508386e+01
