Frequency(Hz)	Magnitude(dB)
1.000000e+01	-1.537558e-05
1.005776e+01	-1.555371e-05
1.011585e+01	-1.573390e-05
1.017428e+01	-1.591619e-05
1.023305e+01	-1.610058e-05
1.029215e+01	-1.628711e-05
1.035160e+01	-1.647580e-05
1.041139e+01	-1.666667e-05
1.047153e+01	-1.685976e-05
1.053201e+01	-1.705509e-05
1.059284e+01	-1.725267e-05
1.065403e+01	-1.745255e-05
1.071556e+01	-1.765474e-05
1.077746e+01	-1.785928e-05
1.083971e+01	-1.806618e-05
1.090232e+01	-1.827548e-05
1.096529e+01	-1.848721e-05
1.102862e+01	-1.870139e-05
1.109232e+01	-1.891805e-05
1.115639e+01	-1.913722e-05
1.122083e+01	-1.935893e-05
1.128564e+01	-1.958321e-05
1.135083e+01	-1.981008e-05
1.141639e+01	-2.003959e-05
1.148233e+01	-2.027175e-05
1.154865e+01	-2.050661e-05
1.161536e+01	-2.074418e-05
1.168245e+01	-2.098451e-05
1.174992e+01	-2.122762e-05
1.181779e+01	-2.147354e-05
1.188605e+01	-2.172232e-05
1.195470e+01	-2.197398e-05
1.202375e+01	-2.222855e-05
1.209320e+01	-2.248608e-05
1.216305e+01	-2.274658e-05
1.223330e+01	-2.301011e-05
1.230396e+01	-2.327669e-05
1.237503e+01	-2.354635e-05
1.244651e+01	-2.381914e-05
1.251840e+01	-2.409509e-05
1.259070e+01	-2.437424e-05
1.266343e+01	-2.465662e-05
1.273657e+01	-2.494228e-05
1.281014e+01	-2.523124e-05
1.288413e+01	-2.552355e-05
1.295855e+01	-2.581924e-05
1.303339e+01	-2.611837e-05
1.310867e+01	-2.642095e-05
1.318439e+01	-2.672705e-05
1.326054e+01	-2.703669e-05
1.333713e+01	-2.734991e-05
1.341417e+01	-2.766677e-05
1.349165e+01	-2.798730e-05
1.356958e+01	-2.831154e-05
1.364795e+01	-2.863953e-05
1.372678e+01	-2.897133e-05
1.380607e+01	-2.930697e-05
1.388581e+01	-2.964650e-05
1.396602e+01	-2.998996e-05
1.404668e+01	-3.033740e-05
1.412782e+01	-3.068886e-05
1.420942e+01	-3.104440e-05
1.429149e+01	-3.140406e-05
1.437404e+01	-3.176788e-05
1.445706e+01	-3.213592e-05
1.454057e+01	-3.250822e-05
1.462455e+01	-3.288484e-05
1.470902e+01	-3.326582e-05
1.479398e+01	-3.365121e-05
1.487943e+01	-3.404107e-05
1.496537e+01	-3.443544e-05
1.505181e+01	-3.483438e-05
1.513875e+01	-3.523795e-05
1.522619e+01	-3.564619e-05
1.531414e+01	-3.605916e-05
1.540259e+01	-3.647691e-05
1.549156e+01	-3.689950e-05
1.558103e+01	-3.732699e-05
1.567103e+01	-3.775943e-05
1.576155e+01	-3.819689e-05
1.585258e+01	-3.863941e-05
1.594415e+01	-3.908705e-05
1.603624e+01	-3.953988e-05
1.612886e+01	-3.999796e-05
1.622202e+01	-4.046135e-05
1.631572e+01	-4.093010e-05
1.640996e+01	-4.140429e-05
1.650474e+01	-4.188396e-05
1.660008e+01	-4.236920e-05
1.669596e+01	-4.286006e-05
1.679239e+01	-4.335660e-05
1.688938e+01	-4.385889e-05
1.698694e+01	-4.436701e-05
1.708505e+01	-4.488101e-05
1.718373e+01	-4.540097e-05
1.728299e+01	-4.592695e-05
1.738281e+01	-4.645902e-05
1.748322e+01	-4.699726e-05
1.758420e+01	-4.754173e-05
1.768576e+01	-4.809251e-05
1.778792e+01	-4.864968e-05
1.789066e+01	-4.921329e-05
1.799399e+01	-4.978344e-05
1.809793e+01	-5.036019e-05
1.820246e+01	-5.094362e-05
1.830760e+01	-5.153382e-05
1.841334e+01	-5.213085e-05
1.851969e+01	-5.273479e-05
1.862666e+01	-5.334574e-05
1.873425e+01	-5.396376e-05
1.884246e+01	-5.458894e-05
1.895129e+01	-5.522136e-05
1.906075e+01	-5.586112e-05
1.917085e+01	-5.650828e-05
1.928158e+01	-5.716294e-05
1.939295e+01	-5.782518e-05
1.950496e+01	-5.849510e-05
1.961762e+01	-5.917278e-05
1.973093e+01	-5.985830e-05
1.984490e+01	-6.055177e-05
1.995952e+01	-6.125328e-05
2.007480e+01	-6.196291e-05
2.019076e+01	-6.268076e-05
2.030738e+01	-6.340693e-05
2.042467e+01	-6.414151e-05
2.054264e+01	-6.488461e-05
2.066130e+01	-6.563631e-05
2.078064e+01	-6.639672e-05
2.090066e+01	-6.716593e-05
2.102139e+01	-6.794406e-05
2.114280e+01	-6.873121e-05
2.126492e+01	-6.952747e-05
2.138775e+01	-7.033296e-05
2.151128e+01	-7.114778e-05
2.163553e+01	-7.197204e-05
2.176050e+01	-7.280585e-05
2.188619e+01	-7.364932e-05
2.201260e+01	-7.450256e-05
2.213974e+01	-7.536569e-05
2.226762e+01	-7.623881e-05
2.239624e+01	-7.712205e-05
2.252560e+01	-7.801552e-05
2.265571e+01	-7.891935e-05
2.278656e+01	-7.983364e-05
2.291818e+01	-8.075853e-05
2.305055e+01	-8.169413e-05
2.318369e+01	-8.264057e-05
2.331760e+01	-8.359797e-05
2.345228e+01	-8.456647e-05
2.358774e+01	-8.554619e-05
2.372398e+01	-8.653725e-05
2.386101e+01	-8.753980e-05
2.399883e+01	-8.855396e-05
2.413745e+01	-8.957988e-05
2.427686e+01	-9.061767e-05
2.441709e+01	-9.166749e-05
2.455812e+01	-9.272948e-05
2.469997e+01	-9.380376e-05
2.484263e+01	-9.489049e-05
2.498612e+01	-9.598981e-05
2.513044e+01	-9.710187e-05
2.527559e+01	-9.822681e-05
2.542158e+01	-9.936478e-05
2.556842e+01	-1.005159e-04
2.571610e+01	-1.016804e-04
2.586463e+01	-1.028584e-04
2.601403e+01	-1.040500e-04
2.616428e+01	-1.052555e-04
2.631541e+01	-1.064749e-04
2.646740e+01	-1.077084e-04
2.662028e+01	-1.089562e-04
2.677404e+01	-1.102185e-04
2.692868e+01	-1.114954e-04
2.708422e+01	-1.127871e-04
2.724066e+01	-1.140937e-04
2.739800e+01	-1.154155e-04
2.755625e+01	-1.167526e-04
2.771541e+01	-1.181052e-04
2.787550e+01	-1.194735e-04
2.803650e+01	-1.208576e-04
2.819844e+01	-1.222577e-04
2.836131e+01	-1.236741e-04
2.852513e+01	-1.251069e-04
2.868989e+01	-1.265563e-04
2.885560e+01	-1.280224e-04
2.902227e+01	-1.295056e-04
2.918990e+01	-1.310059e-04
2.935850e+01	-1.325236e-04
2.952807e+01	-1.340589e-04
2.969863e+01	-1.356120e-04
2.987016e+01	-1.371831e-04
3.004269e+01	-1.387724e-04
3.021622e+01	-1.403801e-04
3.039075e+01	-1.420064e-04
3.056628e+01	-1.436515e-04
3.074283e+01	-1.453158e-04
3.092040e+01	-1.469993e-04
3.109900e+01	-1.487022e-04
3.127862e+01	-1.504250e-04
3.145929e+01	-1.521677e-04
3.164099e+01	-1.539305e-04
3.182375e+01	-1.557138e-04
3.200756e+01	-1.575178e-04
3.219244e+01	-1.593426e-04
3.237838e+01	-1.611886e-04
3.256540e+01	-1.630560e-04
3.275349e+01	-1.649450e-04
3.294268e+01	-1.668559e-04
3.313295e+01	-1.687890e-04
3.332433e+01	-1.707444e-04
3.351681e+01	-1.727225e-04
3.371040e+01	-1.747235e-04
3.390511e+01	-1.767476e-04
3.410094e+01	-1.787953e-04
3.429791e+01	-1.808666e-04
3.449601e+01	-1.829620e-04
3.469526e+01	-1.850816e-04
3.489566e+01	-1.872258e-04
3.509721e+01	-1.893948e-04
3.529993e+01	-1.915889e-04
3.550382e+01	-1.938085e-04
3.570889e+01	-1.960538e-04
3.591515e+01	-1.983251e-04
3.612259e+01	-2.006226e-04
3.633123e+01	-2.029469e-04
3.654108e+01	-2.052980e-04
3.675214e+01	-2.076764e-04
3.696442e+01	-2.100823e-04
3.717792e+01	-2.125161e-04
3.739266e+01	-2.149781e-04
3.760864e+01	-2.174686e-04
3.782587e+01	-2.199880e-04
3.804435e+01	-2.225366e-04
3.826409e+01	-2.251146e-04
3.848510e+01	-2.277226e-04
3.870739e+01	-2.303607e-04
3.893096e+01	-2.330295e-04
3.915583e+01	-2.357291e-04
3.938199e+01	-2.384600e-04
3.960946e+01	-2.412226e-04
3.983824e+01	-2.440171e-04
4.006834e+01	-2.468440e-04
4.029978e+01	-2.497037e-04
4.053255e+01	-2.525965e-04
4.076666e+01	-2.555228e-04
4.100213e+01	-2.584831e-04
4.123896e+01	-2.614776e-04
4.147715e+01	-2.645068e-04
4.171672e+01	-2.675710e-04
4.195767e+01	-2.706708e-04
4.220002e+01	-2.738065e-04
4.244377e+01	-2.769786e-04
4.268892e+01	-2.801873e-04
4.293549e+01	-2.834333e-04
4.318348e+01	-2.867168e-04
4.343291e+01	-2.900384e-04
4.368377e+01	-2.933985e-04
4.393609e+01	-2.967974e-04
4.418986e+01	-3.002358e-04
4.444510e+01	-3.037140e-04
4.470182e+01	-3.072325e-04
4.496001e+01	-3.107917e-04
4.521970e+01	-3.143922e-04
4.548089e+01	-3.180344e-04
4.574358e+01	-3.217188e-04
4.600779e+01	-3.254458e-04
4.627353e+01	-3.292161e-04
4.654081e+01	-3.330300e-04
4.680963e+01	-3.368881e-04
4.708000e+01	-3.407909e-04
4.735193e+01	-3.447389e-04
4.762543e+01	-3.487326e-04
4.790051e+01	-3.527726e-04
4.817719e+01	-3.568594e-04
4.845545e+01	-3.609936e-04
4.873533e+01	-3.651756e-04
4.901682e+01	-3.694061e-04
4.929994e+01	-3.736856e-04
4.958470e+01	-3.780146e-04
4.987110e+01	-3.823938e-04
5.015915e+01	-3.868238e-04
5.044887e+01	-3.913050e-04
5.074026e+01	-3.958382e-04
5.103333e+01	-4.004239e-04
5.132810e+01	-4.050627e-04
5.162457e+01	-4.097552e-04
5.192275e+01	-4.145021e-04
5.222265e+01	-4.193040e-04
5.252429e+01	-4.241615e-04
5.282767e+01	-4.290753e-04
5.313280e+01	-4.340460e-04
5.343969e+01	-4.390743e-04
5.374836e+01	-4.441609e-04
5.405880e+01	-4.493063e-04
5.437105e+01	-4.545114e-04
5.468509e+01	-4.597767e-04
5.500095e+01	-4.651031e-04
5.531863e+01	-4.704912e-04
5.563815e+01	-4.759416e-04
5.595951e+01	-4.814552e-04
5.628273e+01	-4.870327e-04
5.660782e+01	-4.926748e-04
5.693479e+01	-4.983823e-04
5.726364e+01	-5.041558e-04
5.759439e+01	-5.099963e-04
5.792705e+01	-5.159044e-04
5.826164e+01	-5.218809e-04
5.859815e+01	-5.279267e-04
5.893662e+01	-5.340425e-04
5.927703e+01	-5.402291e-04
5.961941e+01	-5.464874e-04
5.996377e+01	-5.528182e-04
6.031012e+01	-5.592223e-04
6.065847e+01	-5.657007e-04
6.100883e+01	-5.722540e-04
6.136121e+01	-5.788833e-04
6.171563e+01	-5.855894e-04
6.207210e+01	-5.923731e-04
6.243063e+01	-5.992355e-04
6.279122e+01	-6.061773e-04
6.315390e+01	-6.131995e-04
6.351868e+01	-6.203031e-04
6.388556e+01	-6.274890e-04
6.425456e+01	-6.347581e-04
6.462569e+01	-6.421114e-04
6.499897e+01	-6.495499e-04
6.537440e+01	-6.570745e-04
6.575200e+01	-6.646863e-04
6.613178e+01	-6.723863e-04
6.651375e+01	-6.801755e-04
6.689793e+01	-6.880548e-04
6.728433e+01	-6.960255e-04
6.767297e+01	-7.040885e-04
6.806384e+01	-7.122449e-04
6.845698e+01	-7.204958e-04
6.885238e+01	-7.288422e-04
6.925007e+01	-7.372853e-04
6.965005e+01	-7.458262e-04
7.005235e+01	-7.544661e-04
7.045697e+01	-7.632060e-04
7.086393e+01	-7.720472e-04
7.127323e+01	-7.809908e-04
7.168490e+01	-7.900379e-04
7.209895e+01	-7.991899e-04
7.251539e+01	-8.084479e-04
7.293424e+01	-8.178131e-04
7.335551e+01	-8.272868e-04
7.377920e+01	-8.368702e-04
7.420535e+01	-8.465646e-04
7.463396e+01	-8.563713e-04
7.506504e+01	-8.662916e-04
7.549861e+01	-8.763268e-04
7.593469e+01	-8.864783e-04
7.637328e+01	-8.967473e-04
7.681441e+01	-9.071353e-04
7.725809e+01	-9.176436e-04
7.770433e+01	-9.282736e-04
7.815315e+01	-9.390267e-04
7.860456e+01	-9.499044e-04
7.905857e+01	-9.609081e-04
7.951521e+01	-9.720392e-04
7.997449e+01	-9.832993e-04
8.043642e+01	-9.946898e-04
8.090102e+01	-1.006212e-03
8.136830e+01	-1.017868e-03
8.183828e+01	-1.029659e-03
8.231097e+01	-1.041586e-03
8.278640e+01	-1.053652e-03
8.326457e+01	-1.065857e-03
8.374550e+01	-1.078204e-03
8.422921e+01	-1.090694e-03
8.471572e+01	-1.103328e-03
8.520503e+01	-1.116109e-03
8.569717e+01	-1.129038e-03
8.619215e+01	-1.142116e-03
8.669000e+01	-1.155346e-03
8.719071e+01	-1.168729e-03
8.769432e+01	-1.182267e-03
8.820084e+01	-1.195962e-03
8.871029e+01	-1.209816e-03
8.922267e+01	-1.223830e-03
8.973802e+01	-1.238007e-03
9.025634e+01	-1.252347e-03
9.077766e+01	-1.266854e-03
9.130199e+01	-1.281528e-03
9.182935e+01	-1.296373e-03
9.235975e+01	-1.311390e-03
9.289321e+01	-1.326580e-03
9.342976e+01	-1.341947e-03
9.396941e+01	-1.357491e-03
9.451217e+01	-1.373215e-03
9.505807e+01	-1.389122e-03
9.560712e+01	-1.405213e-03
9.615934e+01	-1.421490e-03
9.671476e+01	-1.437955e-03
9.727338e+01	-1.454612e-03
9.783522e+01	-1.471461e-03
9.840032e+01	-1.488505e-03
9.896867e+01	-1.505747e-03
9.954031e+01	-1.523188e-03
1.001153e+02	-1.540832e-03
1.006935e+02	-1.558679e-03
1.012751e+02	-1.576734e-03
1.018601e+02	-1.594997e-03
1.024484e+02	-1.613473e-03
1.030402e+02	-1.632162e-03
1.036353e+02	-1.651067e-03
1.042339e+02	-1.670191e-03
1.048360e+02	-1.689537e-03
1.054415e+02	-1.709107e-03
1.060505e+02	-1.728904e-03
1.066631e+02	-1.748929e-03
1.072791e+02	-1.769187e-03
1.078988e+02	-1.789679e-03
1.085220e+02	-1.810409e-03
1.091488e+02	-1.831379e-03
1.097793e+02	-1.852591e-03
1.104133e+02	-1.874049e-03
1.110511e+02	-1.895756e-03
1.116925e+02	-1.917714e-03
1.123376e+02	-1.939926e-03
1.129865e+02	-1.962395e-03
1.136391e+02	-1.985125e-03
1.142955e+02	-2.008118e-03
1.149556e+02	-2.031377e-03
1.156196e+02	-2.054906e-03
1.162874e+02	-2.078707e-03
1.169591e+02	-2.102783e-03
1.176347e+02	-2.127138e-03
1.183141e+02	-2.151776e-03
1.189975e+02	-2.176698e-03
1.196848e+02	-2.201910e-03
1.203761e+02	-2.227413e-03
1.210714e+02	-2.253211e-03
1.217707e+02	-2.279308e-03
1.224740e+02	-2.305708e-03
1.231814e+02	-2.332413e-03
1.238929e+02	-2.359427e-03
1.246085e+02	-2.386754e-03
1.253283e+02	-2.414398e-03
1.260522e+02	-2.442361e-03
1.267802e+02	-2.470649e-03
1.275125e+02	-2.499263e-03
1.282490e+02	-2.528210e-03
1.289898e+02	-2.557491e-03
1.297348e+02	-2.587111e-03
1.304842e+02	-2.617075e-03
1.312378e+02	-2.647385e-03
1.319959e+02	-2.678046e-03
1.327583e+02	-2.709062e-03
1.335251e+02	-2.740437e-03
1.342963e+02	-2.772176e-03
1.350720e+02	-2.804282e-03
1.358522e+02	-2.836760e-03
1.366368e+02	-2.869613e-03
1.374260e+02	-2.902848e-03
1.382198e+02	-2.936466e-03
1.390182e+02	-2.970474e-03
1.398211e+02	-3.004876e-03
1.406287e+02	-3.039676e-03
1.414410e+02	-3.074879e-03
1.422579e+02	-3.110490e-03
1.430796e+02	-3.146513e-03
1.439060e+02	-3.182952e-03
1.447372e+02	-3.219814e-03
1.455732e+02	-3.257102e-03
1.464141e+02	-3.294822e-03
1.472597e+02	-3.332979e-03
1.481103e+02	-3.371578e-03
1.489658e+02	-3.410623e-03
1.498262e+02	-3.450120e-03
1.506916e+02	-3.490074e-03
1.515620e+02	-3.530491e-03
1.524374e+02	-3.571376e-03
1.533179e+02	-3.612734e-03
1.542034e+02	-3.654571e-03
1.550941e+02	-3.696892e-03
1.559899e+02	-3.739703e-03
1.568909e+02	-3.783010e-03
1.577971e+02	-3.826817e-03
1.587085e+02	-3.871132e-03
1.596252e+02	-3.915960e-03
1.605472e+02	-3.961307e-03
1.614745e+02	-4.007178e-03
1.624072e+02	-4.053581e-03
1.633453e+02	-4.100520e-03
1.642887e+02	-4.148003e-03
1.652377e+02	-4.196036e-03
1.661921e+02	-4.244624e-03
1.671520e+02	-4.293775e-03
1.681175e+02	-4.343494e-03
1.690885e+02	-4.393789e-03
1.700651e+02	-4.444666e-03
1.710474e+02	-4.496132e-03
1.720354e+02	-4.548194e-03
1.730291e+02	-4.600858e-03
1.740285e+02	-4.654131e-03
1.750337e+02	-4.708021e-03
1.760446e+02	-4.762535e-03
1.770615e+02	-4.817679e-03
1.780842e+02	-4.873462e-03
1.791128e+02	-4.929890e-03
1.801473e+02	-4.986971e-03
1.811878e+02	-5.044713e-03
1.822344e+02	-5.103123e-03
1.832870e+02	-5.162209e-03
1.843456e+02	-5.221978e-03
1.854104e+02	-5.282439e-03
1.864813e+02	-5.343600e-03
1.875584e+02	-5.405468e-03
1.886418e+02	-5.468052e-03
1.897313e+02	-5.531361e-03
1.908272e+02	-5.595401e-03
1.919294e+02	-5.660183e-03
1.930380e+02	-5.725715e-03
1.941530e+02	-5.792004e-03
1.952744e+02	-5.859061e-03
1.964023e+02	-5.926893e-03
1.975367e+02	-5.995510e-03
1.986777e+02	-6.064921e-03
1.998252e+02	-6.135135e-03
2.009794e+02	-6.206161e-03
2.021403e+02	-6.278008e-03
2.033078e+02	-6.350687e-03
2.044821e+02	-6.424207e-03
2.056632e+02	-6.498577e-03
2.068511e+02	-6.573808e-03
2.080459e+02	-6.649909e-03
2.092475e+02	-6.726890e-03
2.104561e+02	-6.804761e-03
2.116717e+02	-6.883533e-03
2.128943e+02	-6.963217e-03
2.141240e+02	-7.043822e-03
2.153608e+02	-7.125359e-03
2.166047e+02	-7.207839e-03
2.178558e+02	-7.291274e-03
2.191141e+02	-7.375673e-03
2.203797e+02	-7.461048e-03
2.216526e+02	-7.547411e-03
2.229329e+02	-7.634773e-03
2.242205e+02	-7.723145e-03
2.255156e+02	-7.812538e-03
2.268182e+02	-7.902966e-03
2.281283e+02	-7.994439e-03
2.294459e+02	-8.086970e-03
2.307712e+02	-8.180571e-03
2.321041e+02	-8.275255e-03
2.334447e+02	-8.371033e-03
2.347931e+02	-8.467919e-03
2.361493e+02	-8.565924e-03
2.375133e+02	-8.665063e-03
2.388851e+02	-8.765349e-03
2.402649e+02	-8.866794e-03
2.416527e+02	-8.969411e-03
2.430484e+02	-9.073215e-03
2.444523e+02	-9.178219e-03
2.458642e+02	-9.284437e-03
2.472843e+02	-9.391883e-03
2.487126e+02	-9.500571e-03
2.501492e+02	-9.610515e-03
2.515940e+02	-9.721730e-03
2.530472e+02	-9.834231e-03
2.545088e+02	-9.948032e-03
2.559789e+02	-1.006315e-02
2.574574e+02	-1.017960e-02
2.589444e+02	-1.029739e-02
2.604401e+02	-1.041654e-02
2.619444e+02	-1.053707e-02
2.634574e+02	-1.065900e-02
2.649791e+02	-1.078233e-02
2.665096e+02	-1.090709e-02
2.680489e+02	-1.103329e-02
2.695972e+02	-1.116095e-02
2.711544e+02	-1.129008e-02
2.727205e+02	-1.142071e-02
2.742958e+02	-1.155284e-02
2.758801e+02	-1.168650e-02
2.774736e+02	-1.182171e-02
2.790762e+02	-1.195848e-02
2.806882e+02	-1.209683e-02
2.823094e+02	-1.223677e-02
2.839400e+02	-1.237834e-02
2.855800e+02	-1.252154e-02
2.872295e+02	-1.266639e-02
2.888886e+02	-1.281291e-02
2.905572e+02	-1.296113e-02
2.922354e+02	-1.311106e-02
2.939234e+02	-1.326273e-02
2.956211e+02	-1.341614e-02
2.973286e+02	-1.357132e-02
2.990459e+02	-1.372830e-02
3.007732e+02	-1.388709e-02
3.025104e+02	-1.404772e-02
3.042577e+02	-1.421020e-02
3.060151e+02	-1.437455e-02
3.077826e+02	-1.454080e-02
3.095604e+02	-1.470898e-02
3.113484e+02	-1.487909e-02
3.131467e+02	-1.505117e-02
3.149554e+02	-1.522523e-02
3.167746e+02	-1.540131e-02
3.186043e+02	-1.557941e-02
3.204445e+02	-1.575958e-02
3.222954e+02	-1.594182e-02
3.241570e+02	-1.612616e-02
3.260293e+02	-1.631264e-02
3.279124e+02	-1.650126e-02
3.298064e+02	-1.669207e-02
3.317114e+02	-1.688507e-02
3.336273e+02	-1.708030e-02
3.355544e+02	-1.727779e-02
3.374925e+02	-1.747755e-02
3.394418e+02	-1.767962e-02
3.414024e+02	-1.788402e-02
3.433744e+02	-1.809077e-02
3.453577e+02	-1.829992e-02
3.473525e+02	-1.851147e-02
3.493588e+02	-1.872547e-02
3.513766e+02	-1.894193e-02
3.534062e+02	-1.916089e-02
3.554474e+02	-1.938238e-02
3.575005e+02	-1.960642e-02
3.595654e+02	-1.983305e-02
3.616422e+02	-2.006228e-02
3.637311e+02	-2.029416e-02
3.658320e+02	-2.052872e-02
3.679450e+02	-2.076598e-02
3.700702e+02	-2.100597e-02
3.722077e+02	-2.124874e-02
3.743576e+02	-2.149430e-02
3.765199e+02	-2.174269e-02
3.786946e+02	-2.199394e-02
3.808820e+02	-2.224809e-02
3.830819e+02	-2.250517e-02
3.852946e+02	-2.276521e-02
3.875200e+02	-2.302825e-02
3.897583e+02	-2.329432e-02
3.920096e+02	-2.356346e-02
3.942738e+02	-2.383569e-02
3.965511e+02	-2.411107e-02
3.988416e+02	-2.438961e-02
4.011452e+02	-2.467137e-02
4.034622e+02	-2.495636e-02
4.057926e+02	-2.524465e-02
4.081365e+02	-2.553625e-02
4.104938e+02	-2.583121e-02
4.128648e+02	-2.612957e-02
4.152495e+02	-2.643136e-02
4.176480e+02	-2.673663e-02
4.200603e+02	-2.704541e-02
4.224866e+02	-2.735775e-02
4.249268e+02	-2.767368e-02
4.273812e+02	-2.799325e-02
4.298497e+02	-2.831650e-02
4.323325e+02	-2.864347e-02
4.348297e+02	-2.897420e-02
4.373412e+02	-2.930873e-02
4.398673e+02	-2.964712e-02
4.424079e+02	-2.998940e-02
4.449633e+02	-3.033561e-02
4.475334e+02	-3.068581e-02
4.501183e+02	-3.104004e-02
4.527182e+02	-3.139834e-02
4.553330e+02	-3.176077e-02
4.579630e+02	-3.212736e-02
4.606082e+02	-3.249816e-02
4.632687e+02	-3.287323e-02
4.659445e+02	-3.325261e-02
4.686358e+02	-3.363636e-02
4.713426e+02	-3.402451e-02
4.740650e+02	-3.441713e-02
4.768032e+02	-3.481425e-02
4.795572e+02	-3.521594e-02
4.823271e+02	-3.562225e-02
4.851130e+02	-3.603323e-02
4.879150e+02	-3.644892e-02
4.907332e+02	-3.686939e-02
4.935676e+02	-3.729470e-02
4.964185e+02	-3.772488e-02
4.992858e+02	-3.816001e-02
5.021696e+02	-3.860013e-02
5.050701e+02	-3.904531e-02
5.079874e+02	-3.949559e-02
5.109215e+02	-3.995105e-02
5.138726e+02	-4.041173e-02
5.168407e+02	-4.087770e-02
5.198259e+02	-4.134902e-02
5.228284e+02	-4.182574e-02
5.258482e+02	-4.230794e-02
5.288855e+02	-4.279566e-02
5.319403e+02	-4.328898e-02
5.350128e+02	-4.378796e-02
5.381030e+02	-4.429266e-02
5.412111e+02	-4.480315e-02
5.443371e+02	-4.531949e-02
5.474812e+02	-4.584175e-02
5.506434e+02	-4.636999e-02
5.538239e+02	-4.690429e-02
5.570228e+02	-4.744472e-02
5.602401e+02	-4.799133e-02
5.634760e+02	-4.854421e-02
5.667306e+02	-4.910342e-02
5.700040e+02	-4.966903e-02
5.732964e+02	-5.024112e-02
5.766077e+02	-5.081977e-02
5.799382e+02	-5.140503e-02
5.832879e+02	-5.199700e-02
5.866569e+02	-5.259574e-02
5.900454e+02	-5.320134e-02
5.934535e+02	-5.381386e-02
5.968813e+02	-5.443339e-02
6.003288e+02	-5.506001e-02
6.037963e+02	-5.569380e-02
6.072838e+02	-5.633483e-02
6.107914e+02	-5.698319e-02
6.143194e+02	-5.763897e-02
6.178676e+02	-5.830224e-02
6.214364e+02	-5.897309e-02
6.250258e+02	-5.965161e-02
6.286359e+02	-6.033788e-02
6.322669e+02	-6.103199e-02
6.359189e+02	-6.173403e-02
6.395919e+02	-6.244408e-02
6.432862e+02	-6.316224e-02
6.470017e+02	-6.388860e-02
6.507388e+02	-6.462325e-02
6.544974e+02	-6.536629e-02
6.582778e+02	-6.611780e-02
6.620800e+02	-6.687789e-02
6.659041e+02	-6.764664e-02
6.697504e+02	-6.842416e-02
6.736188e+02	-6.921055e-02
6.775096e+02	-7.000590e-02
6.814229e+02	-7.081032e-02
6.853587e+02	-7.162391e-02
6.893173e+02	-7.244676e-02
6.932988e+02	-7.327899e-02
6.973033e+02	-7.412069e-02
7.013309e+02	-7.497198e-02
