Frequency(Hz)	Magnitude(dB)
1.000000e+01	-1.693454e-05
1.005776e+01	-1.713074e-05
1.011585e+01	-1.732920e-05
1.017428e+01	-1.752996e-05
1.023305e+01	-1.773305e-05
1.029215e+01	-1.793849e-05
1.035160e+01	-1.814632e-05
1.041139e+01	-1.835655e-05
1.047153e+01	-1.856921e-05
1.053201e+01	-1.878434e-05
1.059284e+01	-1.900196e-05
1.065403e+01	-1.922210e-05
1.071556e+01	-1.944480e-05
1.077746e+01	-1.967007e-05
1.083971e+01	-1.989795e-05
1.090232e+01	-2.012848e-05
1.096529e+01	-2.036167e-05
1.102862e+01	-2.059756e-05
1.109232e+01	-2.083619e-05
1.115639e+01	-2.107758e-05
1.122083e+01	-2.132177e-05
1.128564e+01	-2.156879e-05
1.135083e+01	-2.181867e-05
1.141639e+01	-2.207145e-05
1.148233e+01	-2.232715e-05
1.154865e+01	-2.258582e-05
1.161536e+01	-2.284748e-05
1.168245e+01	-2.311217e-05
1.174992e+01	-2.337993e-05
1.181779e+01	-2.365079e-05
1.188605e+01	-2.392479e-05
1.195470e+01	-2.420197e-05
1.202375e+01	-2.448235e-05
1.209320e+01	-2.476599e-05
1.216305e+01	-2.505291e-05
1.223330e+01	-2.534315e-05
1.230396e+01	-2.563676e-05
1.237503e+01	-2.593377e-05
1.244651e+01	-2.623422e-05
1.251840e+01	-2.653815e-05
1.259070e+01	-2.684560e-05
1.266343e+01	-2.715661e-05
1.273657e+01	-2.747123e-05
1.281014e+01	-2.778949e-05
1.288413e+01	-2.811144e-05
1.295855e+01	-2.843711e-05
1.303339e+01	-2.876656e-05
1.310867e+01	-2.909983e-05
1.318439e+01	-2.943696e-05
1.326054e+01	-2.977799e-05
1.333713e+01	-3.012298e-05
1.341417e+01	-3.047196e-05
1.349165e+01	-3.082499e-05
1.356958e+01	-3.118210e-05
1.364795e+01	-3.154335e-05
1.372678e+01	-3.190879e-05
1.380607e+01	-3.227846e-05
1.388581e+01	-3.265241e-05
1.396602e+01	-3.303070e-05
1.404668e+01	-3.341337e-05
1.412782e+01	-3.380047e-05
1.420942e+01	-3.419206e-05
1.429149e+01	-3.458818e-05
1.437404e+01	-3.498889e-05
1.445706e+01	-3.539425e-05
1.454057e+01	-3.580430e-05
1.462455e+01	-3.621910e-05
1.470902e+01	-3.663871e-05
1.479398e+01	-3.706317e-05
1.487943e+01	-3.749256e-05
1.496537e+01	-3.792692e-05
1.505181e+01	-3.836631e-05
1.513875e+01	-3.881079e-05
1.522619e+01	-3.926042e-05
1.531414e+01	-3.971527e-05
1.540259e+01	-4.017538e-05
1.549156e+01	-4.064082e-05
1.558103e+01	-4.111165e-05
1.567103e+01	-4.158794e-05
1.576155e+01	-4.206974e-05
1.585258e+01	-4.255713e-05
1.594415e+01	-4.305016e-05
1.603624e+01	-4.354891e-05
1.612886e+01	-4.405343e-05
1.622202e+01	-4.456380e-05
1.631572e+01	-4.508008e-05
1.640996e+01	-4.560235e-05
1.650474e+01	-4.613066e-05
1.660008e+01	-4.666509e-05
1.669596e+01	-4.720572e-05
1.679239e+01	-4.775261e-05
1.688938e+01	-4.830583e-05
1.698694e+01	-4.886547e-05
1.708505e+01	-4.943158e-05
1.718373e+01	-5.000426e-05
1.728299e+01	-5.058357e-05
1.738281e+01	-5.116959e-05
1.748322e+01	-5.176240e-05
1.758420e+01	-5.236208e-05
1.768576e+01	-5.296870e-05
1.778792e+01	-5.358236e-05
1.789066e+01	-5.420312e-05
1.799399e+01	-5.483107e-05
1.809793e+01	-5.546630e-05
1.820246e+01	-5.610889e-05
1.830760e+01	-5.675892e-05
1.841334e+01	-5.741649e-05
1.851969e+01	-5.808167e-05
1.862666e+01	-5.875456e-05
1.873425e+01	-5.943524e-05
1.884246e+01	-6.012381e-05
1.895129e+01	-6.082036e-05
1.906075e+01	-6.152497e-05
1.917085e+01	-6.223775e-05
1.928158e+01	-6.295879e-05
1.939295e+01	-6.368818e-05
1.950496e+01	-6.442602e-05
1.961762e+01	-6.517240e-05
1.973093e+01	-6.592744e-05
1.984490e+01	-6.669122e-05
1.995952e+01	-6.746385e-05
2.007480e+01	-6.824543e-05
2.019076e+01	-6.903607e-05
2.030738e+01	-6.983587e-05
2.042467e+01	-7.064493e-05
2.054264e+01	-7.146336e-05
2.066130e+01	-7.229128e-05
2.078064e+01	-7.312879e-05
2.090066e+01	-7.397600e-05
2.102139e+01	-7.483302e-05
2.114280e+01	-7.569997e-05
2.126492e+01	-7.657697e-05
2.138775e+01	-7.746413e-05
2.151128e+01	-7.836157e-05
2.163553e+01	-7.926940e-05
2.176050e+01	-8.018775e-05
2.188619e+01	-8.111674e-05
2.201260e+01	-8.205649e-05
2.213974e+01	-8.300713e-05
2.226762e+01	-8.396878e-05
2.239624e+01	-8.494157e-05
2.252560e+01	-8.592563e-05
2.265571e+01	-8.692109e-05
2.278656e+01	-8.792809e-05
2.291818e+01	-8.894675e-05
2.305055e+01	-8.997721e-05
2.318369e+01	-9.101961e-05
2.331760e+01	-9.207409e-05
2.345228e+01	-9.314078e-05
2.358774e+01	-9.421983e-05
2.372398e+01	-9.531138e-05
2.386101e+01	-9.641558e-05
2.399883e+01	-9.753257e-05
2.413745e+01	-9.866250e-05
2.427686e+01	-9.980552e-05
2.441709e+01	-1.009618e-04
2.455812e+01	-1.021314e-04
2.469997e+01	-1.033146e-04
2.484263e+01	-1.045116e-04
2.498612e+01	-1.057223e-04
2.513044e+01	-1.069471e-04
2.527559e+01	-1.081861e-04
2.542158e+01	-1.094395e-04
2.556842e+01	-1.107074e-04
2.571610e+01	-1.119899e-04
2.586463e+01	-1.132873e-04
2.601403e+01	-1.145998e-04
2.616428e+01	-1.159274e-04
2.631541e+01	-1.172705e-04
2.646740e+01	-1.186291e-04
2.662028e+01	-1.200034e-04
2.677404e+01	-1.213937e-04
2.692868e+01	-1.228000e-04
2.708422e+01	-1.242227e-04
2.724066e+01	-1.256618e-04
2.739800e+01	-1.271176e-04
2.755625e+01	-1.285903e-04
2.771541e+01	-1.300800e-04
2.787550e+01	-1.315870e-04
2.803650e+01	-1.331114e-04
2.819844e+01	-1.346536e-04
2.836131e+01	-1.362135e-04
2.852513e+01	-1.377916e-04
2.868989e+01	-1.393879e-04
2.885560e+01	-1.410027e-04
2.902227e+01	-1.426363e-04
2.918990e+01	-1.442887e-04
2.935850e+01	-1.459603e-04
2.952807e+01	-1.476513e-04
2.969863e+01	-1.493618e-04
2.987016e+01	-1.510922e-04
3.004269e+01	-1.528426e-04
3.021622e+01	-1.546133e-04
3.039075e+01	-1.564045e-04
3.056628e+01	-1.582165e-04
3.074283e+01	-1.600494e-04
3.092040e+01	-1.619036e-04
3.109900e+01	-1.637793e-04
3.127862e+01	-1.656766e-04
3.145929e+01	-1.675960e-04
3.164099e+01	-1.695376e-04
3.182375e+01	-1.715017e-04
3.200756e+01	-1.734886e-04
3.219244e+01	-1.754985e-04
3.237838e+01	-1.775316e-04
3.256540e+01	-1.795883e-04
3.275349e+01	-1.816689e-04
3.294268e+01	-1.837735e-04
3.313295e+01	-1.859025e-04
3.332433e+01	-1.880562e-04
3.351681e+01	-1.902348e-04
3.371040e+01	-1.924387e-04
3.390511e+01	-1.946681e-04
3.410094e+01	-1.969234e-04
3.429791e+01	-1.992047e-04
3.449601e+01	-2.015125e-04
3.469526e+01	-2.038470e-04
3.489566e+01	-2.062086e-04
3.509721e+01	-2.085975e-04
3.529993e+01	-2.110141e-04
3.550382e+01	-2.134587e-04
3.570889e+01	-2.159316e-04
3.591515e+01	-2.184332e-04
3.612259e+01	-2.209638e-04
3.633123e+01	-2.235236e-04
3.654108e+01	-2.261131e-04
3.675214e+01	-2.287326e-04
3.696442e+01	-2.313825e-04
3.717792e+01	-2.340631e-04
3.739266e+01	-2.367747e-04
3.760864e+01	-2.395177e-04
3.782587e+01	-2.422925e-04
3.804435e+01	-2.450995e-04
3.826409e+01	-2.479389e-04
3.848510e+01	-2.508113e-04
3.870739e+01	-2.537169e-04
3.893096e+01	-2.566562e-04
3.915583e+01	-2.596295e-04
3.938199e+01	-2.626373e-04
3.960946e+01	-2.656800e-04
3.983824e+01	-2.687579e-04
4.006834e+01	-2.718714e-04
4.029978e+01	-2.750210e-04
4.053255e+01	-2.782071e-04
4.076666e+01	-2.814301e-04
4.100213e+01	-2.846904e-04
4.123896e+01	-2.879885e-04
4.147715e+01	-2.913249e-04
4.171672e+01	-2.946998e-04
4.195767e+01	-2.981139e-04
4.220002e+01	-3.015675e-04
4.244377e+01	-3.050611e-04
4.268892e+01	-3.085952e-04
4.293549e+01	-3.121702e-04
4.318348e+01	-3.157867e-04
4.343291e+01	-3.194450e-04
4.368377e+01	-3.231458e-04
4.393609e+01	-3.268893e-04
4.418986e+01	-3.306763e-04
4.444510e+01	-3.345071e-04
4.470182e+01	-3.383823e-04
4.496001e+01	-3.423024e-04
4.521970e+01	-3.462679e-04
4.548089e+01	-3.502794e-04
4.574358e+01	-3.543373e-04
4.600779e+01	-3.584422e-04
4.627353e+01	-3.625947e-04
4.654081e+01	-3.667953e-04
4.680963e+01	-3.710445e-04
4.708000e+01	-3.753430e-04
4.735193e+01	-3.796913e-04
4.762543e+01	-3.840899e-04
4.790051e+01	-3.885395e-04
4.817719e+01	-3.930406e-04
4.845545e+01	-3.975939e-04
4.873533e+01	-4.021999e-04
4.901682e+01	-4.068593e-04
4.929994e+01	-4.115727e-04
4.958470e+01	-4.163406e-04
4.987110e+01	-4.211638e-04
5.015915e+01	-4.260429e-04
5.044887e+01	-4.309785e-04
5.074026e+01	-4.359712e-04
5.103333e+01	-4.410218e-04
5.132810e+01	-4.461309e-04
5.162457e+01	-4.512992e-04
5.192275e+01	-4.565273e-04
5.222265e+01	-4.618160e-04
5.252429e+01	-4.671660e-04
5.282767e+01	-4.725780e-04
5.313280e+01	-4.780526e-04
5.343969e+01	-4.835907e-04
5.374836e+01	-4.891929e-04
5.405880e+01	-4.948600e-04
5.437105e+01	-5.005928e-04
5.468509e+01	-5.063919e-04
5.500095e+01	-5.122583e-04
5.531863e+01	-5.181926e-04
5.563815e+01	-5.241956e-04
5.595951e+01	-5.302682e-04
5.628273e+01	-5.364111e-04
5.660782e+01	-5.426252e-04
5.693479e+01	-5.489113e-04
5.726364e+01	-5.552702e-04
5.759439e+01	-5.617027e-04
5.792705e+01	-5.682098e-04
5.826164e+01	-5.747922e-04
5.859815e+01	-5.814509e-04
5.893662e+01	-5.881867e-04
5.927703e+01	-5.950005e-04
5.961941e+01	-6.018933e-04
5.996377e+01	-6.088659e-04
6.031012e+01	-6.159193e-04
6.065847e+01	-6.230544e-04
6.100883e+01	-6.302721e-04
6.136121e+01	-6.375734e-04
6.171563e+01	-6.449593e-04
6.207210e+01	-6.524308e-04
6.243063e+01	-6.599888e-04
6.279122e+01	-6.676344e-04
6.315390e+01	-6.753685e-04
6.351868e+01	-6.831922e-04
6.388556e+01	-6.911066e-04
6.425456e+01	-6.991126e-04
6.462569e+01	-7.072114e-04
6.499897e+01	-7.154039e-04
6.537440e+01	-7.236914e-04
6.575200e+01	-7.320748e-04
6.613178e+01	-7.405554e-04
6.651375e+01	-7.491342e-04
6.689793e+01	-7.578124e-04
6.728433e+01	-7.665911e-04
6.767297e+01	-7.754714e-04
6.806384e+01	-7.844547e-04
6.845698e+01	-7.935420e-04
6.885238e+01	-8.027345e-04
6.925007e+01	-8.120335e-04
6.965005e+01	-8.214403e-04
7.005235e+01	-8.309560e-04
7.045697e+01	-8.405819e-04
7.086393e+01	-8.503193e-04
7.127323e+01	-8.601695e-04
7.168490e+01	-8.701338e-04
7.209895e+01	-8.802135e-04
7.251539e+01	-8.904100e-04
7.293424e+01	-9.007246e-04
7.335551e+01	-9.111586e-04
7.377920e+01	-9.217135e-04
7.420535e+01	-9.323907e-04
7.463396e+01	-9.431915e-04
7.506504e+01	-9.541175e-04
7.549861e+01	-9.651699e-04
7.593469e+01	-9.763504e-04
7.637328e+01	-9.876604e-04
7.681441e+01	-9.991014e-04
7.725809e+01	-1.010675e-03
7.770433e+01	-1.022383e-03
7.815315e+01	-1.034226e-03
7.860456e+01	-1.046206e-03
7.905857e+01	-1.058325e-03
7.951521e+01	-1.070585e-03
7.997449e+01	-1.082986e-03
8.043642e+01	-1.095531e-03
8.090102e+01	-1.108222e-03
8.136830e+01	-1.121059e-03
8.183828e+01	-1.134045e-03
8.231097e+01	-1.147182e-03
8.278640e+01	-1.160470e-03
8.326457e+01	-1.173913e-03
8.374550e+01	-1.187511e-03
8.422921e+01	-1.201267e-03
8.471572e+01	-1.215182e-03
8.520503e+01	-1.229258e-03
8.569717e+01	-1.243497e-03
8.619215e+01	-1.257901e-03
8.669000e+01	-1.272472e-03
8.719071e+01	-1.287212e-03
8.769432e+01	-1.302123e-03
8.820084e+01	-1.317206e-03
8.871029e+01	-1.332464e-03
8.922267e+01	-1.347898e-03
8.973802e+01	-1.363511e-03
9.025634e+01	-1.379306e-03
9.077766e+01	-1.395283e-03
9.130199e+01	-1.411445e-03
9.182935e+01	-1.427794e-03
9.235975e+01	-1.444333e-03
9.289321e+01	-1.461063e-03
9.342976e+01	-1.477987e-03
9.396941e+01	-1.495107e-03
9.451217e+01	-1.512425e-03
9.505807e+01	-1.529944e-03
9.560712e+01	-1.547665e-03
9.615934e+01	-1.565592e-03
9.671476e+01	-1.583727e-03
9.727338e+01	-1.602071e-03
9.783522e+01	-1.620628e-03
9.840032e+01	-1.639400e-03
9.896867e+01	-1.658389e-03
9.954031e+01	-1.677598e-03
1.001153e+02	-1.697030e-03
1.006935e+02	-1.716687e-03
1.012751e+02	-1.736571e-03
1.018601e+02	-1.756686e-03
1.024484e+02	-1.777033e-03
1.030402e+02	-1.797616e-03
1.036353e+02	-1.818438e-03
1.042339e+02	-1.839500e-03
1.048360e+02	-1.860807e-03
1.054415e+02	-1.882360e-03
1.060505e+02	-1.904163e-03
1.066631e+02	-1.926218e-03
1.072791e+02	-1.948529e-03
1.078988e+02	-1.971098e-03
1.085220e+02	-1.993929e-03
1.091488e+02	-2.017024e-03
1.097793e+02	-2.040386e-03
1.104133e+02	-2.064019e-03
1.110511e+02	-2.087925e-03
1.116925e+02	-2.112108e-03
1.123376e+02	-2.136572e-03
1.129865e+02	-2.161318e-03
1.136391e+02	-2.186351e-03
1.142955e+02	-2.211674e-03
1.149556e+02	-2.237291e-03
1.156196e+02	-2.263203e-03
1.162874e+02	-2.289416e-03
1.169591e+02	-2.315933e-03
1.176347e+02	-2.342756e-03
1.183141e+02	-2.369890e-03
1.189975e+02	-2.397339e-03
1.196848e+02	-2.425105e-03
1.203761e+02	-2.453192e-03
1.210714e+02	-2.481605e-03
1.217707e+02	-2.510347e-03
1.224740e+02	-2.539421e-03
1.231814e+02	-2.568832e-03
1.238929e+02	-2.598584e-03
1.246085e+02	-2.628680e-03
1.253283e+02	-2.659125e-03
1.260522e+02	-2.689922e-03
1.267802e+02	-2.721076e-03
1.275125e+02	-2.752590e-03
1.282490e+02	-2.784469e-03
1.289898e+02	-2.816718e-03
1.297348e+02	-2.849339e-03
1.304842e+02	-2.882339e-03
1.312378e+02	-2.915720e-03
1.319959e+02	-2.949488e-03
1.327583e+02	-2.983647e-03
1.335251e+02	-3.018201e-03
1.342963e+02	-3.053155e-03
1.350720e+02	-3.088514e-03
1.358522e+02	-3.124283e-03
1.366368e+02	-3.160465e-03
1.374260e+02	-3.197067e-03
1.382198e+02	-3.234092e-03
1.390182e+02	-3.271545e-03
1.398211e+02	-3.309433e-03
1.406287e+02	-3.347758e-03
1.414410e+02	-3.386528e-03
1.422579e+02	-3.425746e-03
1.430796e+02	-3.465419e-03
1.439060e+02	-3.505550e-03
1.447372e+02	-3.546146e-03
1.455732e+02	-3.587212e-03
1.464141e+02	-3.628754e-03
1.472597e+02	-3.670776e-03
1.481103e+02	-3.713285e-03
1.489658e+02	-3.756285e-03
1.498262e+02	-3.799784e-03
1.506916e+02	-3.843786e-03
1.515620e+02	-3.888297e-03
1.524374e+02	-3.933324e-03
1.533179e+02	-3.978871e-03
1.542034e+02	-4.024946e-03
1.550941e+02	-4.071554e-03
1.559899e+02	-4.118702e-03
1.568909e+02	-4.166395e-03
1.577971e+02	-4.214640e-03
1.587085e+02	-4.263444e-03
1.596252e+02	-4.312813e-03
1.605472e+02	-4.362753e-03
1.614745e+02	-4.413271e-03
1.624072e+02	-4.464373e-03
1.633453e+02	-4.516067e-03
1.642887e+02	-4.568359e-03
1.652377e+02	-4.621257e-03
1.661921e+02	-4.674766e-03
1.671520e+02	-4.728895e-03
1.681175e+02	-4.783650e-03
1.690885e+02	-4.839039e-03
1.700651e+02	-4.895069e-03
1.710474e+02	-4.951747e-03
1.720354e+02	-5.009082e-03
1.730291e+02	-5.067079e-03
1.740285e+02	-5.125748e-03
1.750337e+02	-5.185095e-03
1.760446e+02	-5.245130e-03
1.770615e+02	-5.305859e-03
1.780842e+02	-5.367290e-03
1.791128e+02	-5.429433e-03
1.801473e+02	-5.492294e-03
1.811878e+02	-5.555883e-03
1.822344e+02	-5.620208e-03
1.832870e+02	-5.685277e-03
1.843456e+02	-5.751098e-03
1.854104e+02	-5.817682e-03
1.864813e+02	-5.885035e-03
1.875584e+02	-5.953168e-03
1.886418e+02	-6.022089e-03
1.897313e+02	-6.091807e-03
1.908272e+02	-6.162332e-03
1.919294e+02	-6.233673e-03
1.930380e+02	-6.305839e-03
1.941530e+02	-6.378840e-03
1.952744e+02	-6.452686e-03
1.964023e+02	-6.527386e-03
1.975367e+02	-6.602949e-03
1.986777e+02	-6.679387e-03
1.998252e+02	-6.756709e-03
2.009794e+02	-6.834926e-03
2.021403e+02	-6.914047e-03
2.033078e+02	-6.994083e-03
2.044821e+02	-7.075045e-03
2.056632e+02	-7.156944e-03
2.068511e+02	-7.239790e-03
2.080459e+02	-7.323594e-03
2.092475e+02	-7.408367e-03
2.104561e+02	-7.494120e-03
2.116717e+02	-7.580866e-03
2.128943e+02	-7.668614e-03
2.141240e+02	-7.757377e-03
2.153608e+02	-7.847167e-03
2.166047e+02	-7.937995e-03
2.178558e+02	-8.029874e-03
2.191141e+02	-8.122815e-03
2.203797e+02	-8.216830e-03
2.216526e+02	-8.311933e-03
2.229329e+02	-8.408135e-03
2.242205e+02	-8.505450e-03
2.255156e+02	-8.603890e-03
2.268182e+02	-8.703468e-03
2.281283e+02	-8.804198e-03
2.294459e+02	-8.906092e-03
2.307712e+02	-9.009164e-03
2.321041e+02	-9.113427e-03
2.334447e+02	-9.218896e-03
2.347931e+02	-9.325584e-03
2.361493e+02	-9.433506e-03
2.375133e+02	-9.542675e-03
2.388851e+02	-9.653106e-03
2.402649e+02	-9.764814e-03
2.416527e+02	-9.877813e-03
2.430484e+02	-9.992118e-03
2.444523e+02	-1.010774e-02
2.458642e+02	-1.022471e-02
2.472843e+02	-1.034302e-02
2.487126e+02	-1.046270e-02
2.501492e+02	-1.058377e-02
2.515940e+02	-1.070623e-02
2.530472e+02	-1.083011e-02
2.545088e+02	-1.095542e-02
2.559789e+02	-1.108218e-02
2.574574e+02	-1.121040e-02
2.589444e+02	-1.134011e-02
2.604401e+02	-1.147131e-02
2.619444e+02	-1.160403e-02
2.634574e+02	-1.173829e-02
2.649791e+02	-1.187409e-02
2.665096e+02	-1.201146e-02
2.680489e+02	-1.215043e-02
2.695972e+02	-1.229099e-02
2.711544e+02	-1.243318e-02
2.727205e+02	-1.257701e-02
2.742958e+02	-1.272251e-02
2.758801e+02	-1.286968e-02
2.774736e+02	-1.301856e-02
2.790762e+02	-1.316915e-02
2.806882e+02	-1.332148e-02
2.823094e+02	-1.347558e-02
2.839400e+02	-1.363145e-02
2.855800e+02	-1.378912e-02
2.872295e+02	-1.394861e-02
2.888886e+02	-1.410995e-02
2.905572e+02	-1.427315e-02
2.922354e+02	-1.443823e-02
2.939234e+02	-1.460522e-02
2.956211e+02	-1.477413e-02
2.973286e+02	-1.494500e-02
2.990459e+02	-1.511784e-02
3.007732e+02	-1.529267e-02
3.025104e+02	-1.546953e-02
3.042577e+02	-1.564842e-02
3.060151e+02	-1.582938e-02
3.077826e+02	-1.601243e-02
3.095604e+02	-1.619759e-02
3.113484e+02	-1.638489e-02
3.131467e+02	-1.657435e-02
3.149554e+02	-1.676599e-02
3.167746e+02	-1.695985e-02
3.186043e+02	-1.715595e-02
3.204445e+02	-1.735430e-02
3.222954e+02	-1.755495e-02
3.241570e+02	-1.775791e-02
3.260293e+02	-1.796321e-02
3.279124e+02	-1.817089e-02
3.298064e+02	-1.838095e-02
3.317114e+02	-1.859344e-02
3.336273e+02	-1.880839e-02
3.355544e+02	-1.902581e-02
3.374925e+02	-1.924574e-02
3.394418e+02	-1.946820e-02
3.414024e+02	-1.969323e-02
3.433744e+02	-1.992086e-02
3.453577e+02	-2.015111e-02
3.473525e+02	-2.038402e-02
3.493588e+02	-2.061961e-02
3.513766e+02	-2.085792e-02
3.534062e+02	-2.109897e-02
3.554474e+02	-2.134281e-02
3.575005e+02	-2.158945e-02
3.595654e+02	-2.183894e-02
3.616422e+02	-2.209130e-02
3.637311e+02	-2.234658e-02
3.658320e+02	-2.260479e-02
3.679450e+02	-2.286598e-02
3.700702e+02	-2.313018e-02
3.722077e+02	-2.339743e-02
3.743576e+02	-2.366775e-02
3.765199e+02	-2.394119e-02
3.786946e+02	-2.421778e-02
3.808820e+02	-2.449756e-02
3.830819e+02	-2.478055e-02
3.852946e+02	-2.506681e-02
3.875200e+02	-2.535637e-02
3.897583e+02	-2.564926e-02
3.920096e+02	-2.594552e-02
3.942738e+02	-2.624519e-02
3.965511e+02	-2.654832e-02
3.988416e+02	-2.685494e-02
4.011452e+02	-2.716508e-02
4.034622e+02	-2.747880e-02
4.057926e+02	-2.779612e-02
4.081365e+02	-2.811710e-02
4.104938e+02	-2.844178e-02
4.128648e+02	-2.877019e-02
4.152495e+02	-2.910238e-02
4.176480e+02	-2.943839e-02
4.200603e+02	-2.977827e-02
4.224866e+02	-3.012206e-02
4.249268e+02	-3.046980e-02
4.273812e+02	-3.082155e-02
4.298497e+02	-3.117734e-02
4.323325e+02	-3.153722e-02
4.348297e+02	-3.190124e-02
4.373412e+02	-3.226945e-02
4.398673e+02	-3.264189e-02
4.424079e+02	-3.301861e-02
4.449633e+02	-3.339967e-02
4.475334e+02	-3.378510e-02
4.501183e+02	-3.417497e-02
4.527182e+02	-3.456931e-02
4.553330e+02	-3.496819e-02
4.579630e+02	-3.537165e-02
4.606082e+02	-3.577975e-02
4.632687e+02	-3.619254e-02
4.659445e+02	-3.661007e-02
4.686358e+02	-3.703239e-02
4.713426e+02	-3.745957e-02
4.740650e+02	-3.789165e-02
4.768032e+02	-3.832869e-02
4.795572e+02	-3.877075e-02
4.823271e+02	-3.921789e-02
4.851130e+02	-3.967016e-02
4.879150e+02	-4.012762e-02
4.907332e+02	-4.059033e-02
4.935676e+02	-4.105835e-02
4.964185e+02	-4.153174e-02
4.992858e+02	-4.201057e-02
5.021696e+02	-4.249489e-02
5.050701e+02	-4.298476e-02
5.079874e+02	-4.348025e-02
5.109215e+02	-4.398142e-02
5.138726e+02	-4.448835e-02
5.168407e+02	-4.500108e-02
5.198259e+02	-4.551969e-02
5.228284e+02	-4.604425e-02
5.258482e+02	-4.657482e-02
5.288855e+02	-4.711147e-02
5.319403e+02	-4.765427e-02
5.350128e+02	-4.820328e-02
5.381030e+02	-4.875859e-02
5.412111e+02	-4.932026e-02
5.443371e+02	-4.988836e-02
5.474812e+02	-5.046297e-02
5.506434e+02	-5.104415e-02
5.538239e+02	-5.163199e-02
5.570228e+02	-5.222656e-02
5.602401e+02	-5.282793e-02
5.634760e+02	-5.343619e-02
5.667306e+02	-5.405140e-02
5.700040e+02	-5.467366e-02
5.732964e+02	-5.530303e-02
5.766077e+02	-5.593960e-02
5.799382e+02	-5.658345e-02
5.832879e+02	-5.723466e-02
5.866569e+02	-5.789331e-02
5.900454e+02	-5.855949e-02
5.934535e+02	-5.923329e-02
5.968813e+02	-5.991478e-02
6.003288e+02	-6.060407e-02
6.037963e+02	-6.130122e-02
6.072838e+02	-6.200634e-02
6.107914e+02	-6.271951e-02
6.143194e+02	-6.344082e-02
6.178676e+02	-6.417036e-02
6.214364e+02	-6.490824e-02
6.250258e+02	-6.565453e-02
6.286359e+02	-6.640933e-02
6.322669e+02	-6.717275e-02
6.359189e+02	-6.794488e-02
6.395919e+02	-6.872581e-02
6.432862e+02	-6.951564e-02
6.470017e+02	-7.031448e-02
6.507388e+02	-7.112242e-02
6.544974e+02	-7.193956e-02
6.582778e+02	-7.276602e-02
6.620800e+02	-7.360189e-02
6.659041e+02	-7.444728e-02
6.697504e+02	-7.530230e-02
6.736188e+02	-7.616705e-02
6.775096e+02	-7.704164e-02
6.814229e+02	-7.792618e-02
6.853587e+02	-7.882079e-02
6.893173e+02	-7.972557e-02
6.932988e+02	-8.064064e-02
6.973033e+02	-8.156612e-02
7.013309e+02	-8.250211e-02
