Frequency(Hz)	Magnitude(dB)
1.000000e+01	-2.013808e+00
1.005776e+01	-2.032368e+00
1.011585e+01	-2.051247e+00
1.017428e+01	-2.070098e+00
1.023305e+01	-2.089065e+00
1.029215e+01	-2.108096e+00
1.035160e+01	-2.127558e+00
1.041139e+01	-2.147163e+00
1.047153e+01	-2.166487e+00
1.053201e+01	-2.186547e+00
1.059284e+01	-2.206092e+00
1.065403e+01	-2.226345e+00
1.071556e+01	-2.246327e+00
1.077746e+01	-2.266624e+00
1.083971e+01	-2.286959e+00
1.090232e+01	-2.307655e+00
1.096529e+01	-2.328144e+00
1.102862e+01	-2.349152e+00
1.109232e+01	-2.370042e+00
1.115639e+01	-2.391285e+00
1.122083e+01	-2.412525e+00
1.128564e+01	-2.433558e+00
1.135083e+01	-2.455274e+00
1.141639e+01	-2.477101e+00
1.148233e+01	-2.498665e+00
1.154865e+01	-2.520755e+00
1.161536e+01	-2.542881e+00
1.168245e+01	-2.565171e+00
1.174992e+01	-2.587323e+00
1.181779e+01	-2.609992e+00
1.188605e+01	-2.632448e+00
1.195470e+01	-2.655473e+00
1.202375e+01	-2.678339e+00
1.209320e+01	-2.701621e+00
1.216305e+01	-2.724774e+00
1.223330e+01	-2.748174e+00
1.230396e+01	-2.771656e+00
1.237503e+01	-2.795433e+00
1.244651e+01	-2.819252e+00
1.251840e+01	-2.843294e+00
1.259070e+01	-2.867252e+00
1.266343e+01	-2.891649e+00
1.273657e+01	-2.916009e+00
1.281014e+01	-2.940488e+00
1.288413e+01	-2.965313e+00
1.295855e+01	-2.989964e+00
1.303339e+01	-3.014932e+00
1.310867e+01	-3.040178e+00
1.318439e+01	-3.065033e+00
1.326054e+01	-3.090742e+00
1.333713e+01	-3.116408e+00
1.341417e+01	-3.141838e+00
1.349165e+01	-3.167847e+00
1.356958e+01	-3.193880e+00
1.364795e+01	-3.219896e+00
1.372678e+01	-3.245932e+00
1.380607e+01	-3.272557e+00
1.388581e+01	-3.298978e+00
1.396602e+01	-3.325878e+00
1.404668e+01	-3.352619e+00
1.412782e+01	-3.379667e+00
1.420942e+01	-3.406732e+00
1.429149e+01	-3.433935e+00
1.437404e+01	-3.461481e+00
1.445706e+01	-3.488923e+00
1.454057e+01	-3.516436e+00
1.462455e+01	-3.544111e+00
1.470902e+01	-3.572679e+00
1.479398e+01	-3.600493e+00
1.487943e+01	-3.628820e+00
1.496537e+01	-3.657267e+00
1.505181e+01	-3.685803e+00
1.513875e+01	-3.714397e+00
1.522619e+01	-3.743504e+00
1.531414e+01	-3.772309e+00
1.540259e+01	-3.801184e+00
1.549156e+01	-3.830570e+00
1.558103e+01	-3.860101e+00
1.567103e+01	-3.889403e+00
1.576155e+01	-3.919121e+00
1.585258e+01	-3.948881e+00
1.594415e+01	-3.978791e+00
1.603624e+01	-4.008947e+00
1.612886e+01	-4.039224e+00
1.622202e+01	-4.069528e+00
1.631572e+01	-4.100157e+00
1.640996e+01	-4.130669e+00
1.650474e+01	-4.161293e+00
1.660008e+01	-4.192195e+00
1.669596e+01	-4.223228e+00
1.679239e+01	-4.254358e+00
1.688938e+01	-4.285761e+00
1.698694e+01	-4.317388e+00
1.708505e+01	-4.348859e+00
1.718373e+01	-4.380780e+00
1.728299e+01	-4.412484e+00
1.738281e+01	-4.444466e+00
1.748322e+01	-4.476622e+00
1.758420e+01	-4.508716e+00
1.768576e+01	-4.541232e+00
1.778792e+01	-4.573708e+00
1.789066e+01	-4.606471e+00
1.799399e+01	-4.639372e+00
1.809793e+01	-4.671995e+00
1.820246e+01	-4.704821e+00
1.830760e+01	-4.738386e+00
1.841334e+01	-4.771481e+00
1.851969e+01	-4.804799e+00
1.862666e+01	-4.838268e+00
1.873425e+01	-4.871862e+00
1.884246e+01	-4.905728e+00
1.895129e+01	-4.940176e+00
1.906075e+01	-4.973867e+00
1.917085e+01	-5.007728e+00
1.928158e+01	-5.042308e+00
1.939295e+01	-5.076728e+00
1.950496e+01	-5.111225e+00
1.961762e+01	-5.146031e+00
1.973093e+01	-5.180958e+00
1.984490e+01	-5.215599e+00
1.995952e+01	-5.250870e+00
2.007480e+01	-5.285788e+00
2.019076e+01	-5.321044e+00
2.030738e+01	-5.356777e+00
2.042467e+01	-5.391902e+00
2.054264e+01	-5.427736e+00
2.066130e+01	-5.463563e+00
2.078064e+01	-5.498918e+00
2.090066e+01	-5.535270e+00
2.102139e+01	-5.571475e+00
2.114280e+01	-5.607593e+00
2.126492e+01	-5.643796e+00
2.138775e+01	-5.680518e+00
2.151128e+01	-5.716804e+00
2.163553e+01	-5.753361e+00
2.176050e+01	-5.790535e+00
2.188619e+01	-5.826994e+00
2.201260e+01	-5.864291e+00
2.213974e+01	-5.901434e+00
2.226762e+01	-5.938531e+00
2.239624e+01	-5.975679e+00
2.252560e+01	-6.013479e+00
2.265571e+01	-6.051132e+00
2.278656e+01	-6.088744e+00
2.291818e+01	-6.126452e+00
2.305055e+01	-6.164246e+00
2.318369e+01	-6.202292e+00
2.331760e+01	-6.240347e+00
2.345228e+01	-6.278309e+00
2.358774e+01	-6.316467e+00
2.372398e+01	-6.355102e+00
2.386101e+01	-6.393543e+00
2.399883e+01	-6.431917e+00
2.413745e+01	-6.470856e+00
2.427686e+01	-6.509379e+00
2.441709e+01	-6.548799e+00
2.455812e+01	-6.587938e+00
2.469997e+01	-6.626817e+00
2.484263e+01	-6.666046e+00
2.498612e+01	-6.704965e+00
2.513044e+01	-6.744633e+00
2.527559e+01	-6.784097e+00
2.542158e+01	-6.823760e+00
2.556842e+01	-6.863367e+00
2.571610e+01	-6.903021e+00
2.586463e+01	-6.942904e+00
2.601403e+01	-6.982892e+00
2.616428e+01	-7.023030e+00
2.631541e+01	-7.063103e+00
2.646740e+01	-7.103337e+00
2.662028e+01	-7.144069e+00
2.677404e+01	-7.184089e+00
2.692868e+01	-7.224384e+00
2.708422e+01	-7.265331e+00
2.724066e+01	-7.306165e+00
2.739800e+01	-7.347050e+00
2.755625e+01	-7.387771e+00
2.771541e+01	-7.428815e+00
2.787550e+01	-7.469469e+00
2.803650e+01	-7.510871e+00
2.819844e+01	-7.552031e+00
2.836131e+01	-7.592840e+00
2.852513e+01	-7.634121e+00
2.868989e+01	-7.676009e+00
2.885560e+01	-7.717610e+00
2.902227e+01	-7.759000e+00
2.918990e+01	-7.800817e+00
2.935850e+01	-7.842710e+00
2.952807e+01	-7.884623e+00
2.969863e+01	-7.926341e+00
2.987016e+01	-7.968546e+00
3.004269e+01	-8.010131e+00
3.021622e+01	-8.052261e+00
3.039075e+01	-8.094803e+00
3.056628e+01	-8.136667e+00
3.074283e+01	-8.179368e+00
3.092040e+01	-8.221956e+00
3.109900e+01	-8.264476e+00
3.127862e+01	-8.306990e+00
3.145929e+01	-8.349715e+00
3.164099e+01	-8.392664e+00
3.182375e+01	-8.435194e+00
3.200756e+01	-8.478276e+00
3.219244e+01	-8.521397e+00
3.237838e+01	-8.564450e+00
3.256540e+01	-8.607336e+00
3.275349e+01	-8.650505e+00
3.294268e+01	-8.693863e+00
3.313295e+01	-8.736955e+00
3.332433e+01	-8.780070e+00
3.351681e+01	-8.823563e+00
3.371040e+01	-8.867336e+00
3.390511e+01	-8.910895e+00
3.410094e+01	-8.954241e+00
3.429791e+01	-8.997926e+00
3.449601e+01	-9.042081e+00
3.469526e+01	-9.085659e+00
3.489566e+01	-9.129517e+00
3.509721e+01	-9.173715e+00
3.529993e+01	-9.217539e+00
3.550382e+01	-9.261673e+00
3.570889e+01	-9.305500e+00
3.591515e+01	-9.350245e+00
3.612259e+01	-9.394338e+00
3.633123e+01	-9.438577e+00
3.654108e+01	-9.483112e+00
3.675214e+01	-9.527101e+00
3.696442e+01	-9.572246e+00
3.717792e+01	-9.616386e+00
3.739266e+01	-9.660818e+00
3.760864e+01	-9.705745e+00
3.782587e+01	-9.749783e+00
3.804435e+01	-9.795121e+00
3.826409e+01	-9.840122e+00
3.848510e+01	-9.884879e+00
3.870739e+01	-9.929400e+00
3.893096e+01	-9.974546e+00
3.915583e+01	-1.001963e+01
3.938199e+01	-1.006439e+01
3.960946e+01	-1.010982e+01
3.983824e+01	-1.015459e+01
4.006834e+01	-1.020057e+01
4.029978e+01	-1.024476e+01
4.053255e+01	-1.029117e+01
4.076666e+01	-1.033598e+01
4.100213e+01	-1.038181e+01
4.123896e+01	-1.042724e+01
4.147715e+01	-1.047196e+01
4.171672e+01	-1.051755e+01
4.195767e+01	-1.056404e+01
4.220002e+01	-1.060945e+01
4.244377e+01	-1.065503e+01
4.268892e+01	-1.070114e+01
4.293549e+01	-1.074630e+01
4.318348e+01	-1.079270e+01
4.343291e+01	-1.083829e+01
4.368377e+01	-1.088378e+01
4.393609e+01	-1.093005e+01
4.418986e+01	-1.097594e+01
4.444510e+01	-1.102271e+01
4.470182e+01	-1.106844e+01
4.496001e+01	-1.111454e+01
4.521970e+01	-1.116044e+01
4.548089e+01	-1.120705e+01
4.574358e+01	-1.125307e+01
4.600779e+01	-1.129955e+01
4.627353e+01	-1.134593e+01
4.654081e+01	-1.139230e+01
4.680963e+01	-1.143850e+01
4.708000e+01	-1.148494e+01
4.735193e+01	-1.153155e+01
4.762543e+01	-1.157787e+01
4.790051e+01	-1.162486e+01
4.817719e+01	-1.167092e+01
4.845545e+01	-1.171813e+01
4.873533e+01	-1.176502e+01
4.901682e+01	-1.181120e+01
4.929994e+01	-1.185709e+01
4.958470e+01	-1.190465e+01
4.987110e+01	-1.195208e+01
5.015915e+01	-1.199857e+01
5.044887e+01	-1.204553e+01
5.074026e+01	-1.209177e+01
5.103333e+01	-1.213855e+01
5.132810e+01	-1.218551e+01
5.162457e+01	-1.223359e+01
5.192275e+01	-1.228029e+01
5.222265e+01	-1.232691e+01
5.252429e+01	-1.237384e+01
5.282767e+01	-1.242171e+01
5.313280e+01	-1.246890e+01
5.343969e+01	-1.251589e+01
5.374836e+01	-1.256329e+01
5.405880e+01	-1.261026e+01
5.437105e+01	-1.265709e+01
5.468509e+01	-1.270530e+01
5.500095e+01	-1.275264e+01
5.531863e+01	-1.280017e+01
5.563815e+01	-1.284717e+01
5.595951e+01	-1.289487e+01
5.628273e+01	-1.294254e+01
5.660782e+01	-1.298937e+01
5.693479e+01	-1.303690e+01
5.726364e+01	-1.308508e+01
5.759439e+01	-1.313283e+01
5.792705e+01	-1.317968e+01
5.826164e+01	-1.322794e+01
5.859815e+01	-1.327552e+01
5.893662e+01	-1.332253e+01
5.927703e+01	-1.337078e+01
5.961941e+01	-1.341852e+01
5.996377e+01	-1.346651e+01
6.031012e+01	-1.351452e+01
6.065847e+01	-1.356177e+01
6.100883e+01	-1.360971e+01
6.136121e+01	-1.365736e+01
6.171563e+01	-1.370543e+01
6.207210e+01	-1.375311e+01
6.243063e+01	-1.380208e+01
6.279122e+01	-1.384905e+01
6.315390e+01	-1.389640e+01
6.351868e+01	-1.394501e+01
6.388556e+01	-1.399357e+01
6.425456e+01	-1.404158e+01
6.462569e+01	-1.408887e+01
6.499897e+01	-1.413664e+01
6.537440e+01	-1.418623e+01
6.575200e+01	-1.423373e+01
6.613178e+01	-1.428131e+01
6.651375e+01	-1.432987e+01
6.689793e+01	-1.437804e+01
6.728433e+01	-1.442679e+01
6.767297e+01	-1.447444e+01
6.806384e+01	-1.452203e+01
6.845698e+01	-1.457077e+01
6.885238e+01	-1.461933e+01
6.925007e+01	-1.466716e+01
6.965005e+01	-1.471599e+01
7.005235e+01	-1.476464e+01
7.045697e+01	-1.481255e+01
7.086393e+01	-1.486058e+01
7.127323e+01	-1.490997e+01
7.168490e+01	-1.495787e+01
7.209895e+01	-1.500566e+01
7.251539e+01	-1.505548e+01
7.293424e+01	-1.510179e+01
7.335551e+01	-1.515202e+01
7.377920e+01	-1.520027e+01
7.420535e+01	-1.524846e+01
7.463396e+01	-1.529757e+01
7.506504e+01	-1.534615e+01
7.549861e+01	-1.539467e+01
7.593469e+01	-1.544279e+01
7.637328e+01	-1.549193e+01
7.681441e+01	-1.554040e+01
7.725809e+01	-1.558862e+01
7.770433e+01	-1.563766e+01
7.815315e+01	-1.568647e+01
7.860456e+01	-1.573576e+01
7.905857e+01	-1.578371e+01
7.951521e+01	-1.583257e+01
7.997449e+01	-1.588127e+01
8.043642e+01	-1.592897e+01
8.090102e+01	-1.597959e+01
8.136830e+01	-1.602702e+01
8.183828e+01	-1.607588e+01
8.231097e+01	-1.612540e+01
8.278640e+01	-1.617378e+01
8.326457e+01	-1.622302e+01
8.374550e+01	-1.627032e+01
8.422921e+01	-1.631962e+01
8.471572e+01	-1.636970e+01
8.520503e+01	-1.641836e+01
8.569717e+01	-1.646758e+01
8.619215e+01	-1.651659e+01
8.669000e+01	-1.656470e+01
8.719071e+01	-1.661216e+01
8.769432e+01	-1.666247e+01
8.820084e+01	-1.671191e+01
8.871029e+01	-1.676020e+01
8.922267e+01	-1.680959e+01
8.973802e+01	-1.685941e+01
9.025634e+01	-1.690670e+01
9.077766e+01	-1.695783e+01
9.130199e+01	-1.700592e+01
9.182935e+01	-1.705387e+01
9.235975e+01	-1.710426e+01
9.289321e+01	-1.715189e+01
9.342976e+01	-1.720161e+01
9.396941e+01	-1.725131e+01
9.451217e+01	-1.729887e+01
9.505807e+01	-1.734974e+01
9.560712e+01	-1.739825e+01
9.615934e+01	-1.744830e+01
9.671476e+01	-1.749658e+01
9.727338e+01	-1.754446e+01
9.783522e+01	-1.759540e+01
9.840032e+01	-1.764423e+01
9.896867e+01	-1.769353e+01
9.954031e+01	-1.774188e+01
1.001153e+02	-1.779145e+01
1.006935e+02	-1.784011e+01
1.012751e+02	-1.788996e+01
1.018601e+02	-1.793890e+01
1.024484e+02	-1.798886e+01
1.030402e+02	-1.803847e+01
1.036353e+02	-1.808712e+01
1.042339e+02	-1.813648e+01
1.048360e+02	-1.818627e+01
1.054415e+02	-1.823505e+01
1.060505e+02	-1.828354e+01
1.066631e+02	-1.833304e+01
1.072791e+02	-1.838308e+01
1.078988e+02	-1.843245e+01
1.085220e+02	-1.848192e+01
1.091488e+02	-1.853043e+01
1.097793e+02	-1.857951e+01
1.104133e+02	-1.862869e+01
1.110511e+02	-1.867789e+01
1.116925e+02	-1.872815e+01
1.123376e+02	-1.877762e+01
1.129865e+02	-1.882685e+01
1.136391e+02	-1.887609e+01
1.142955e+02	-1.892628e+01
1.149556e+02	-1.897595e+01
1.156196e+02	-1.902400e+01
1.162874e+02	-1.907352e+01
1.169591e+02	-1.912361e+01
1.176347e+02	-1.917293e+01
1.183141e+02	-1.922070e+01
1.189975e+02	-1.927305e+01
1.196848e+02	-1.932137e+01
1.203761e+02	-1.937023e+01
1.210714e+02	-1.941936e+01
1.217707e+02	-1.946939e+01
1.224740e+02	-1.951832e+01
1.231814e+02	-1.956751e+01
1.238929e+02	-1.961733e+01
1.246085e+02	-1.966726e+01
1.253283e+02	-1.971551e+01
1.260522e+02	-1.976646e+01
1.267802e+02	-1.981394e+01
1.275125e+02	-1.986546e+01
1.282490e+02	-1.991449e+01
1.289898e+02	-1.996514e+01
1.297348e+02	-2.001468e+01
1.304842e+02	-2.006351e+01
1.312378e+02	-2.011307e+01
1.319959e+02	-2.016277e+01
1.327583e+02	-2.020962e+01
1.335251e+02	-2.026381e+01
1.342963e+02	-2.030942e+01
1.350720e+02	-2.035994e+01
1.358522e+02	-2.040956e+01
1.366368e+02	-2.045980e+01
1.374260e+02	-2.051123e+01
1.382198e+02	-2.055736e+01
1.390182e+02	-2.060919e+01
1.398211e+02	-2.065895e+01
1.406287e+02	-2.070717e+01
1.414410e+02	-2.075703e+01
1.422579e+02	-2.080683e+01
1.430796e+02	-2.085681e+01
1.439060e+02	-2.090665e+01
1.447372e+02	-2.095747e+01
1.455732e+02	-2.100577e+01
1.464141e+02	-2.105399e+01
1.472597e+02	-2.110635e+01
1.481103e+02	-2.115454e+01
1.489658e+02	-2.120402e+01
1.498262e+02	-2.125422e+01
1.506916e+02	-2.130391e+01
1.515620e+02	-2.135343e+01
1.524374e+02	-2.140314e+01
1.533179e+02	-2.145295e+01
1.542034e+02	-2.150440e+01
1.550941e+02	-2.155132e+01
1.559899e+02	-2.160007e+01
1.568909e+02	-2.165247e+01
1.577971e+02	-2.170096e+01
1.587085e+02	-2.174968e+01
1.596252e+02	-2.180001e+01
1.605472e+02	-2.185093e+01
1.614745e+02	-2.189920e+01
1.624072e+02	-2.194976e+01
1.633453e+02	-2.199956e+01
1.642887e+02	-2.204915e+01
1.652377e+02	-2.209808e+01
1.661921e+02	-2.214802e+01
1.671520e+02	-2.219925e+01
1.681175e+02	-2.224981e+01
1.690885e+02	-2.229865e+01
1.700651e+02	-2.234780e+01
1.710474e+02	-2.239919e+01
1.720354e+02	-2.244596e+01
1.730291e+02	-2.249659e+01
1.740285e+02	-2.254716e+01
1.750337e+02	-2.259561e+01
1.760446e+02	-2.264342e+01
1.770615e+02	-2.269635e+01
1.780842e+02	-2.274711e+01
1.791128e+02	-2.279472e+01
1.801473e+02	-2.284485e+01
1.811878e+02	-2.289492e+01
1.822344e+02	-2.294369e+01
1.832870e+02	-2.299548e+01
1.843456e+02	-2.304362e+01
1.854104e+02	-2.309251e+01
1.864813e+02	-2.314409e+01
1.875584e+02	-2.319344e+01
1.886418e+02	-2.324463e+01
1.897313e+02	-2.329321e+01
1.908272e+02	-2.334213e+01
1.919294e+02	-2.339395e+01
1.930380e+02	-2.344393e+01
1.941530e+02	-2.349231e+01
1.952744e+02	-2.354159e+01
1.964023e+02	-2.359471e+01
1.975367e+02	-2.364210e+01
1.986777e+02	-2.369270e+01
1.998252e+02	-2.374255e+01
2.009794e+02	-2.378972e+01
2.021403e+02	-2.384375e+01
2.033078e+02	-2.389081e+01
2.044821e+02	-2.394326e+01
2.056632e+02	-2.399176e+01
2.068511e+02	-2.404182e+01
2.080459e+02	-2.409208e+01
2.092475e+02	-2.414151e+01
2.104561e+02	-2.419057e+01
2.116717e+02	-2.424069e+01
2.128943e+02	-2.428886e+01
2.141240e+02	-2.434081e+01
2.153608e+02	-2.438884e+01
2.166047e+02	-2.444138e+01
2.178558e+02	-2.448836e+01
2.191141e+02	-2.454116e+01
2.203797e+02	-2.458826e+01
2.216526e+02	-2.463820e+01
2.229329e+02	-2.468924e+01
2.242205e+02	-2.473809e+01
2.255156e+02	-2.478990e+01
2.268182e+02	-2.483846e+01
2.281283e+02	-2.489041e+01
2.294459e+02	-2.494062e+01
2.307712e+02	-2.498848e+01
2.321041e+02	-2.503745e+01
2.334447e+02	-2.508762e+01
2.347931e+02	-2.513604e+01
2.361493e+02	-2.518934e+01
2.375133e+02	-2.523773e+01
2.388851e+02	-2.528775e+01
2.402649e+02	-2.533980e+01
2.416527e+02	-2.538825e+01
2.430484e+02	-2.543672e+01
2.444523e+02	-2.549047e+01
2.458642e+02	-2.553951e+01
2.472843e+02	-2.559108e+01
2.487126e+02	-2.563796e+01
2.501492e+02	-2.568702e+01
2.515940e+02	-2.574089e+01
2.530472e+02	-2.578891e+01
2.545088e+02	-2.583707e+01
2.559789e+02	-2.588848e+01
2.574574e+02	-2.593921e+01
2.589444e+02	-2.598521e+01
2.604401e+02	-2.603796e+01
2.619444e+02	-2.608576e+01
2.634574e+02	-2.614051e+01
2.649791e+02	-2.618849e+01
2.665096e+02	-2.623697e+01
2.680489e+02	-2.628627e+01
2.695972e+02	-2.633850e+01
2.711544e+02	-2.638785e+01
2.727205e+02	-2.643570e+01
2.742958e+02	-2.648749e+01
2.758801e+02	-2.653315e+01
2.774736e+02	-2.658872e+01
2.790762e+02	-2.663876e+01
2.806882e+02	-2.669291e+01
2.823094e+02	-2.673918e+01
2.839400e+02	-2.678752e+01
2.855800e+02	-2.683806e+01
2.872295e+02	-2.688501e+01
2.888886e+02	-2.694075e+01
2.905572e+02	-2.698420e+01
2.922354e+02	-2.703463e+01
2.939234e+02	-2.708841e+01
2.956211e+02	-2.714044e+01
2.973286e+02	-2.718690e+01
2.990459e+02	-2.723534e+01
3.007732e+02	-2.728711e+01
3.025104e+02	-2.733719e+01
3.042577e+02	-2.738910e+01
3.060151e+02	-2.743710e+01
3.077826e+02	-2.748753e+01
3.095604e+02	-2.753365e+01
3.113484e+02	-2.758777e+01
3.131467e+02	-2.763512e+01
3.149554e+02	-2.768955e+01
3.167746e+02	-2.774032e+01
3.186043e+02	-2.778477e+01
3.204445e+02	-2.783748e+01
3.222954e+02	-2.788815e+01
3.241570e+02	-2.793687e+01
3.260293e+02	-2.798680e+01
3.279124e+02	-2.803489e+01
3.298064e+02	-2.808858e+01
3.317114e+02	-2.813461e+01
3.336273e+02	-2.819095e+01
3.355544e+02	-2.824021e+01
3.374925e+02	-2.828815e+01
3.394418e+02	-2.833841e+01
3.414024e+02	-2.838840e+01
3.433744e+02	-2.844080e+01
3.453577e+02	-2.848249e+01
3.473525e+02	-2.853652e+01
3.493588e+02	-2.859170e+01
3.513766e+02	-2.863610e+01
3.534062e+02	-2.869201e+01
3.554474e+02	-2.873984e+01
3.575005e+02	-2.878613e+01
3.595654e+02	-2.883582e+01
3.616422e+02	-2.888478e+01
3.637311e+02	-2.893776e+01
3.658320e+02	-2.898897e+01
3.679450e+02	-2.903857e+01
3.700702e+02	-2.908681e+01
3.722077e+02	-2.913695e+01
3.743576e+02	-2.919102e+01
3.765199e+02	-2.923958e+01
3.786946e+02	-2.928612e+01
3.808820e+02	-2.933641e+01
3.830819e+02	-2.938838e+01
3.852946e+02	-2.943563e+01
3.875200e+02	-2.948734e+01
3.897583e+02	-2.953582e+01
3.920096e+02	-2.958748e+01
3.942738e+02	-2.963773e+01
3.965511e+02	-2.968810e+01
3.988416e+02	-2.974148e+01
4.011452e+02	-2.979286e+01
4.034622e+02	-2.984343e+01
4.057926e+02	-2.989087e+01
4.081365e+02	-2.993804e+01
4.104938e+02	-2.998893e+01
4.128648e+02	-3.004165e+01
4.152495e+02	-3.009366e+01
4.176480e+02	-3.014257e+01
4.200603e+02	-3.018998e+01
4.224866e+02	-3.024060e+01
4.249268e+02	-3.029432e+01
4.273812e+02	-3.033784e+01
4.298497e+02	-3.039227e+01
4.323325e+02	-3.044279e+01
4.348297e+02	-3.049391e+01
4.373412e+02	-3.053836e+01
4.398673e+02	-3.059490e+01
4.424079e+02	-3.063749e+01
4.449633e+02	-3.068678e+01
4.475334e+02	-3.074253e+01
4.501183e+02	-3.079629e+01
4.527182e+02	-3.084114e+01
4.553330e+02	-3.089392e+01
4.579630e+02	-3.093956e+01
4.606082e+02	-3.099171e+01
4.632687e+02	-3.104259e+01
4.659445e+02	-3.109293e+01
4.686358e+02	-3.114611e+01
4.713426e+02	-3.119781e+01
4.740650e+02	-3.124655e+01
4.768032e+02	-3.128803e+01
4.795572e+02	-3.134544e+01
4.823271e+02	-3.139550e+01
4.851130e+02	-3.144406e+01
4.879150e+02	-3.149269e+01
4.907332e+02	-3.154550e+01
4.935676e+02	-3.158809e+01
4.964185e+02	-3.164748e+01
4.992858e+02	-3.169078e+01
5.021696e+02	-3.174095e+01
5.050701e+02	-3.179557e+01
5.079874e+02	-3.184445e+01
5.109215e+02	-3.189637e+01
5.138726e+02	-3.195089e+01
5.168407e+02	-3.199279e+01
5.198259e+02	-3.204101e+01
5.228284e+02	-3.209364e+01
5.258482e+02	-3.214643e+01
5.288855e+02	-3.219239e+01
5.319403e+02	-3.224113e+01
5.350128e+02	-3.230507e+01
5.381030e+02	-3.234982e+01
5.412111e+02	-3.240475e+01
5.443371e+02	-3.244787e+01
5.474812e+02	-3.250260e+01
5.506434e+02	-3.255490e+01
5.538239e+02	-3.259767e+01
5.570228e+02	-3.264422e+01
5.602401e+02	-3.269928e+01
5.634760e+02	-3.274944e+01
5.667306e+02	-3.279572e+01
5.700040e+02	-3.284884e+01
5.732964e+02	-3.290642e+01
5.766077e+02	-3.295130e+01
5.799382e+02	-3.300296e+01
5.832879e+02	-3.305632e+01
5.866569e+02	-3.310095e+01
5.900454e+02	-3.315142e+01
5.934535e+02	-3.320180e+01
5.968813e+02	-3.325043e+01
6.003288e+02	-3.329909e+01
6.037963e+02	-3.335270e+01
6.072838e+02	-3.340451e+01
6.107914e+02	-3.344640e+01
6.143194e+02	-3.350416e+01
6.178676e+02	-3.355403e+01
6.214364e+02	-3.360074e+01
6.250258e+02	-3.365597e+01
6.286359e+02	-3.369708e+01
6.322669e+02	-3.375517e+01
6.359189e+02	-3.380242e+01
6.395919e+02	-3.384834e+01
6.432862e+02	-3.390520e+01
6.470017e+02	-3.395016e+01
6.507388e+02	-3.400875e+01
6.544974e+02	-3.406144e+01
6.582778e+02	-3.410935e+01
6.620800e+02	-3.415250e+01
6.659041e+02	-3.421330e+01
6.697504e+02	-3.425436e+01
6.736188e+02	-3.431409e+01
6.775096e+02	-3.434547e+01
6.814229e+02	-3.441903e+01
6.853587e+02	-3.445511e+01
6.893173e+02	-3.450480e+01
6.932988e+02	-3.456723e+01
6.973033e+02	-3.460866e+01
7.013309e+02	-3.465068e+01
