Frequency(Hz)	Magnitude(dB)
1.000000e+01	-2.234677e+00
1.005776e+01	-2.254950e+00
1.011585e+01	-2.275247e+00
1.017428e+01	-2.295939e+00
1.023305e+01	-2.316390e+00
1.029215e+01	-2.337067e+00
1.035160e+01	-2.357804e+00
1.041139e+01	-2.378962e+00
1.047153e+01	-2.400279e+00
1.053201e+01	-2.421487e+00
1.059284e+01	-2.442946e+00
1.065403e+01	-2.464556e+00
1.071556e+01	-2.486123e+00
1.077746e+01	-2.507917e+00
1.083971e+01	-2.529991e+00
1.090232e+01	-2.552079e+00
1.096529e+01	-2.574534e+00
1.102862e+01	-2.597209e+00
1.109232e+01	-2.619651e+00
1.115639e+01	-2.642402e+00
1.122083e+01	-2.665158e+00
1.128564e+01	-2.688256e+00
1.135083e+01	-2.711424e+00
1.141639e+01	-2.734851e+00
1.148233e+01	-2.758132e+00
1.154865e+01	-2.781751e+00
1.161536e+01	-2.805602e+00
1.168245e+01	-2.829110e+00
1.174992e+01	-2.853170e+00
1.181779e+01	-2.877554e+00
1.188605e+01	-2.902063e+00
1.195470e+01	-2.926056e+00
1.202375e+01	-2.951147e+00
1.209320e+01	-2.975779e+00
1.216305e+01	-3.000448e+00
1.223330e+01	-3.025368e+00
1.230396e+01	-3.050597e+00
1.237503e+01	-3.076265e+00
1.244651e+01	-3.101595e+00
1.251840e+01	-3.127171e+00
1.259070e+01	-3.152902e+00
1.266343e+01	-3.178912e+00
1.273657e+01	-3.204691e+00
1.281014e+01	-3.230914e+00
1.288413e+01	-3.257354e+00
1.295855e+01	-3.283955e+00
1.303339e+01	-3.310733e+00
1.310867e+01	-3.337204e+00
1.318439e+01	-3.364058e+00
1.326054e+01	-3.391231e+00
1.333713e+01	-3.418260e+00
1.341417e+01	-3.445571e+00
1.349165e+01	-3.473110e+00
1.356958e+01	-3.500735e+00
1.364795e+01	-3.528566e+00
1.372678e+01	-3.556342e+00
1.380607e+01	-3.584496e+00
1.388581e+01	-3.612396e+00
1.396602e+01	-3.640839e+00
1.404668e+01	-3.669280e+00
1.412782e+01	-3.698009e+00
1.420942e+01	-3.726701e+00
1.429149e+01	-3.755588e+00
1.437404e+01	-3.784523e+00
1.445706e+01	-3.813818e+00
1.454057e+01	-3.843125e+00
1.462455e+01	-3.872498e+00
1.470902e+01	-3.901944e+00
1.479398e+01	-3.931703e+00
1.487943e+01	-3.961631e+00
1.496537e+01	-3.991665e+00
1.505181e+01	-4.022111e+00
1.513875e+01	-4.052122e+00
1.522619e+01	-4.082505e+00
1.531414e+01	-4.113209e+00
1.540259e+01	-4.143603e+00
1.549156e+01	-4.174671e+00
1.558103e+01	-4.205706e+00
1.567103e+01	-4.236750e+00
1.576155e+01	-4.267842e+00
1.585258e+01	-4.299296e+00
1.594415e+01	-4.330830e+00
1.603624e+01	-4.362431e+00
1.612886e+01	-4.394355e+00
1.622202e+01	-4.426329e+00
1.631572e+01	-4.458135e+00
1.640996e+01	-4.490377e+00
1.650474e+01	-4.522268e+00
1.660008e+01	-4.555023e+00
1.669596e+01	-4.587571e+00
1.679239e+01	-4.620401e+00
1.688938e+01	-4.653121e+00
1.698694e+01	-4.686036e+00
1.708505e+01	-4.719090e+00
1.718373e+01	-4.752152e+00
1.728299e+01	-4.785585e+00
1.738281e+01	-4.819135e+00
1.748322e+01	-4.852629e+00
1.758420e+01	-4.886400e+00
1.768576e+01	-4.920478e+00
1.778792e+01	-4.954424e+00
1.789066e+01	-4.988278e+00
1.799399e+01	-5.022607e+00
1.809793e+01	-5.056900e+00
1.820246e+01	-5.091517e+00
1.830760e+01	-5.126216e+00
1.841334e+01	-5.160607e+00
1.851969e+01	-5.195455e+00
1.862666e+01	-5.230456e+00
1.873425e+01	-5.265522e+00
1.884246e+01	-5.300729e+00
1.895129e+01	-5.336103e+00
1.906075e+01	-5.371725e+00
1.917085e+01	-5.407362e+00
1.928158e+01	-5.442960e+00
1.939295e+01	-5.478702e+00
1.950496e+01	-5.514628e+00
1.961762e+01	-5.550756e+00
1.973093e+01	-5.586901e+00
1.984490e+01	-5.623161e+00
1.995952e+01	-5.659075e+00
2.007480e+01	-5.695902e+00
2.019076e+01	-5.732095e+00
2.030738e+01	-5.768985e+00
2.042467e+01	-5.805842e+00
2.054264e+01	-5.843169e+00
2.066130e+01	-5.879945e+00
2.078064e+01	-5.917351e+00
2.090066e+01	-5.954749e+00
2.102139e+01	-5.991534e+00
2.114280e+01	-6.029301e+00
2.126492e+01	-6.067123e+00
2.138775e+01	-6.104718e+00
2.151128e+01	-6.142800e+00
2.163553e+01	-6.180392e+00
2.176050e+01	-6.218185e+00
2.188619e+01	-6.256307e+00
2.201260e+01	-6.294773e+00
2.213974e+01	-6.333066e+00
2.226762e+01	-6.371743e+00
2.239624e+01	-6.410046e+00
2.252560e+01	-6.448689e+00
2.265571e+01	-6.487544e+00
2.278656e+01	-6.526037e+00
2.291818e+01	-6.565218e+00
2.305055e+01	-6.604603e+00
2.318369e+01	-6.643435e+00
2.331760e+01	-6.682593e+00
2.345228e+01	-6.722079e+00
2.358774e+01	-6.761428e+00
2.372398e+01	-6.800899e+00
2.386101e+01	-6.840425e+00
2.399883e+01	-6.880082e+00
2.413745e+01	-6.920421e+00
2.427686e+01	-6.959836e+00
2.441709e+01	-6.999636e+00
2.455812e+01	-7.040305e+00
2.469997e+01	-7.080346e+00
2.484263e+01	-7.120519e+00
2.498612e+01	-7.160640e+00
2.513044e+01	-7.201221e+00
2.527559e+01	-7.241937e+00
2.542158e+01	-7.282681e+00
2.556842e+01	-7.323209e+00
2.571610e+01	-7.364169e+00
2.586463e+01	-7.404689e+00
2.601403e+01	-7.446045e+00
2.616428e+01	-7.487025e+00
2.631541e+01	-7.528169e+00
2.646740e+01	-7.569656e+00
2.662028e+01	-7.610723e+00
2.677404e+01	-7.652099e+00
2.692868e+01	-7.693847e+00
2.708422e+01	-7.735218e+00
2.724066e+01	-7.776959e+00
2.739800e+01	-7.818553e+00
2.755625e+01	-7.859932e+00
2.771541e+01	-7.902124e+00
2.787550e+01	-7.944215e+00
2.803650e+01	-7.986023e+00
2.819844e+01	-8.028669e+00
2.836131e+01	-8.070821e+00
2.852513e+01	-8.112766e+00
2.868989e+01	-8.155007e+00
2.885560e+01	-8.197112e+00
2.902227e+01	-8.240247e+00
2.918990e+01	-8.282615e+00
2.935850e+01	-8.325304e+00
2.952807e+01	-8.367889e+00
2.969863e+01	-8.410804e+00
2.987016e+01	-8.453536e+00
3.004269e+01	-8.496496e+00
3.021622e+01	-8.538895e+00
3.039075e+01	-8.581966e+00
3.056628e+01	-8.625571e+00
3.074283e+01	-8.668402e+00
3.092040e+01	-8.711960e+00
3.109900e+01	-8.755236e+00
3.127862e+01	-8.798673e+00
3.145929e+01	-8.842327e+00
3.164099e+01	-8.885633e+00
3.182375e+01	-8.929061e+00
3.200756e+01	-8.972677e+00
3.219244e+01	-9.016704e+00
3.237838e+01	-9.060391e+00
3.256540e+01	-9.103791e+00
3.275349e+01	-9.147938e+00
3.294268e+01	-9.192092e+00
3.313295e+01	-9.236118e+00
3.332433e+01	-9.280140e+00
3.351681e+01	-9.324847e+00
3.371040e+01	-9.368876e+00
3.390511e+01	-9.412621e+00
3.410094e+01	-9.457716e+00
3.429791e+01	-9.502034e+00
3.449601e+01	-9.546150e+00
3.469526e+01	-9.590952e+00
3.489566e+01	-9.635153e+00
3.509721e+01	-9.679459e+00
3.529993e+01	-9.724834e+00
3.550382e+01	-9.769375e+00
3.570889e+01	-9.813134e+00
3.591515e+01	-9.858709e+00
3.612259e+01	-9.903639e+00
3.633123e+01	-9.948584e+00
3.654108e+01	-9.993962e+00
3.675214e+01	-1.003838e+01
3.696442e+01	-1.008365e+01
3.717792e+01	-1.012892e+01
3.739266e+01	-1.017393e+01
3.760864e+01	-1.021920e+01
3.782587e+01	-1.026418e+01
3.804435e+01	-1.030972e+01
3.826409e+01	-1.035487e+01
3.848510e+01	-1.040060e+01
3.870739e+01	-1.044613e+01
3.893096e+01	-1.049203e+01
3.915583e+01	-1.053764e+01
3.938199e+01	-1.058277e+01
3.960946e+01	-1.062846e+01
3.983824e+01	-1.067436e+01
4.006834e+01	-1.072076e+01
4.029978e+01	-1.076588e+01
4.053255e+01	-1.081168e+01
4.076666e+01	-1.085787e+01
4.100213e+01	-1.090367e+01
4.123896e+01	-1.094963e+01
4.147715e+01	-1.099614e+01
4.171672e+01	-1.104163e+01
4.195767e+01	-1.108808e+01
4.220002e+01	-1.113455e+01
4.244377e+01	-1.118030e+01
4.268892e+01	-1.122700e+01
4.293549e+01	-1.127311e+01
4.318348e+01	-1.131974e+01
4.343291e+01	-1.136511e+01
4.368377e+01	-1.141211e+01
4.393609e+01	-1.145892e+01
4.418986e+01	-1.150449e+01
4.444510e+01	-1.155150e+01
4.470182e+01	-1.159770e+01
4.496001e+01	-1.164399e+01
4.521970e+01	-1.169104e+01
4.548089e+01	-1.173778e+01
4.574358e+01	-1.178470e+01
4.600779e+01	-1.183105e+01
4.627353e+01	-1.187759e+01
4.654081e+01	-1.192435e+01
4.680963e+01	-1.197156e+01
4.708000e+01	-1.201811e+01
4.735193e+01	-1.206538e+01
4.762543e+01	-1.211238e+01
4.790051e+01	-1.215936e+01
4.817719e+01	-1.220614e+01
4.845545e+01	-1.225283e+01
4.873533e+01	-1.230079e+01
4.901682e+01	-1.234693e+01
4.929994e+01	-1.239435e+01
4.958470e+01	-1.244210e+01
4.987110e+01	-1.248821e+01
5.015915e+01	-1.253616e+01
5.044887e+01	-1.258315e+01
5.074026e+01	-1.263024e+01
5.103333e+01	-1.267771e+01
5.132810e+01	-1.272555e+01
5.162457e+01	-1.277163e+01
5.192275e+01	-1.281998e+01
5.222265e+01	-1.286755e+01
5.252429e+01	-1.291523e+01
5.282767e+01	-1.296172e+01
5.313280e+01	-1.300980e+01
5.343969e+01	-1.305749e+01
5.374836e+01	-1.310543e+01
5.405880e+01	-1.315214e+01
5.437105e+01	-1.319999e+01
5.468509e+01	-1.324788e+01
5.500095e+01	-1.329633e+01
5.531863e+01	-1.334335e+01
5.563815e+01	-1.339085e+01
5.595951e+01	-1.343834e+01
5.628273e+01	-1.348583e+01
5.660782e+01	-1.353381e+01
5.693479e+01	-1.358192e+01
5.726364e+01	-1.362984e+01
5.759439e+01	-1.367720e+01
5.792705e+01	-1.372577e+01
5.826164e+01	-1.377334e+01
5.859815e+01	-1.382198e+01
5.893662e+01	-1.387035e+01
5.927703e+01	-1.391702e+01
5.961941e+01	-1.396508e+01
5.996377e+01	-1.401421e+01
6.031012e+01	-1.406172e+01
6.065847e+01	-1.410975e+01
6.100883e+01	-1.415793e+01
6.136121e+01	-1.420623e+01
6.171563e+01	-1.425446e+01
6.207210e+01	-1.430257e+01
6.243063e+01	-1.435015e+01
6.279122e+01	-1.439908e+01
6.315390e+01	-1.444635e+01
6.351868e+01	-1.449480e+01
6.388556e+01	-1.454328e+01
6.425456e+01	-1.459232e+01
6.462569e+01	-1.463944e+01
6.499897e+01	-1.468874e+01
6.537440e+01	-1.473629e+01
6.575200e+01	-1.478457e+01
6.613178e+01	-1.483274e+01
6.651375e+01	-1.488222e+01
6.689793e+01	-1.492989e+01
6.728433e+01	-1.497865e+01
6.767297e+01	-1.502638e+01
6.806384e+01	-1.507575e+01
6.845698e+01	-1.512399e+01
6.885238e+01	-1.517316e+01
6.925007e+01	-1.522130e+01
6.965005e+01	-1.527008e+01
7.005235e+01	-1.531844e+01
7.045697e+01	-1.536741e+01
7.086393e+01	-1.541499e+01
7.127323e+01	-1.546386e+01
7.168490e+01	-1.551259e+01
7.209895e+01	-1.556073e+01
7.251539e+01	-1.560916e+01
7.293424e+01	-1.565789e+01
7.335551e+01	-1.570737e+01
7.377920e+01	-1.575557e+01
7.420535e+01	-1.580432e+01
7.463396e+01	-1.585335e+01
7.506504e+01	-1.590107e+01
7.549861e+01	-1.595090e+01
7.593469e+01	-1.599904e+01
7.637328e+01	-1.604771e+01
7.681441e+01	-1.609647e+01
7.725809e+01	-1.614604e+01
7.770433e+01	-1.619333e+01
7.815315e+01	-1.624311e+01
7.860456e+01	-1.629197e+01
7.905857e+01	-1.634106e+01
7.951521e+01	-1.638983e+01
7.997449e+01	-1.643908e+01
8.043642e+01	-1.648775e+01
8.090102e+01	-1.653725e+01
8.136830e+01	-1.658604e+01
8.183828e+01	-1.663234e+01
8.231097e+01	-1.668250e+01
8.278640e+01	-1.673192e+01
8.326457e+01	-1.678187e+01
8.374550e+01	-1.682999e+01
8.422921e+01	-1.687996e+01
8.471572e+01	-1.692755e+01
8.520503e+01	-1.697756e+01
8.569717e+01	-1.702725e+01
8.619215e+01	-1.707506e+01
8.669000e+01	-1.712436e+01
8.719071e+01	-1.717391e+01
8.769432e+01	-1.722340e+01
8.820084e+01	-1.727183e+01
8.871029e+01	-1.732032e+01
8.922267e+01	-1.736987e+01
8.973802e+01	-1.741970e+01
9.025634e+01	-1.746727e+01
9.077766e+01	-1.751682e+01
9.130199e+01	-1.756626e+01
9.182935e+01	-1.761609e+01
9.235975e+01	-1.766536e+01
9.289321e+01	-1.771399e+01
9.342976e+01	-1.776301e+01
9.396941e+01	-1.781120e+01
9.451217e+01	-1.786205e+01
9.505807e+01	-1.791068e+01
9.560712e+01	-1.796098e+01
9.615934e+01	-1.800859e+01
9.671476e+01	-1.805786e+01
9.727338e+01	-1.810809e+01
9.783522e+01	-1.815628e+01
9.840032e+01	-1.820697e+01
9.896867e+01	-1.825694e+01
9.954031e+01	-1.830522e+01
1.001153e+02	-1.835443e+01
1.006935e+02	-1.840328e+01
1.012751e+02	-1.845182e+01
1.018601e+02	-1.850208e+01
1.024484e+02	-1.855019e+01
1.030402e+02	-1.860068e+01
1.036353e+02	-1.864935e+01
1.042339e+02	-1.869939e+01
1.048360e+02	-1.874975e+01
1.054415e+02	-1.879849e+01
1.060505e+02	-1.884772e+01
1.066631e+02	-1.889653e+01
1.072791e+02	-1.894704e+01
1.078988e+02	-1.899657e+01
1.085220e+02	-1.904541e+01
1.091488e+02	-1.909415e+01
1.097793e+02	-1.914434e+01
1.104133e+02	-1.919320e+01
1.110511e+02	-1.924394e+01
1.116925e+02	-1.929208e+01
1.123376e+02	-1.934254e+01
1.129865e+02	-1.939180e+01
1.136391e+02	-1.944154e+01
1.142955e+02	-1.948918e+01
1.149556e+02	-1.953820e+01
1.156196e+02	-1.958826e+01
1.162874e+02	-1.963941e+01
1.169591e+02	-1.968771e+01
1.176347e+02	-1.973686e+01
1.183141e+02	-1.978725e+01
1.189975e+02	-1.983727e+01
1.196848e+02	-1.988491e+01
1.203761e+02	-1.993695e+01
1.210714e+02	-1.998456e+01
1.217707e+02	-2.003515e+01
1.224740e+02	-2.008429e+01
1.231814e+02	-2.013477e+01
1.238929e+02	-2.018346e+01
1.246085e+02	-2.023230e+01
1.253283e+02	-2.028223e+01
1.260522e+02	-2.033252e+01
1.267802e+02	-2.038056e+01
1.275125e+02	-2.042923e+01
1.282490e+02	-2.048098e+01
1.289898e+02	-2.053091e+01
1.297348e+02	-2.057927e+01
1.304842e+02	-2.063028e+01
1.312378e+02	-2.067894e+01
1.319959e+02	-2.072830e+01
1.327583e+02	-2.077812e+01
1.335251e+02	-2.082679e+01
1.342963e+02	-2.087758e+01
1.350720e+02	-2.092960e+01
1.358522e+02	-2.097567e+01
1.366368e+02	-2.102657e+01
1.374260e+02	-2.107603e+01
1.382198e+02	-2.112669e+01
1.390182e+02	-2.117581e+01
1.398211e+02	-2.122554e+01
1.406287e+02	-2.127572e+01
1.414410e+02	-2.132304e+01
1.422579e+02	-2.137331e+01
1.430796e+02	-2.142251e+01
1.439060e+02	-2.147223e+01
1.447372e+02	-2.152343e+01
1.455732e+02	-2.157369e+01
1.464141e+02	-2.162172e+01
1.472597e+02	-2.167136e+01
1.481103e+02	-2.172282e+01
1.489658e+02	-2.177124e+01
1.498262e+02	-2.182066e+01
1.506916e+02	-2.187059e+01
1.515620e+02	-2.192126e+01
1.524374e+02	-2.197168e+01
1.533179e+02	-2.202010e+01
1.542034e+02	-2.207025e+01
1.550941e+02	-2.211847e+01
1.559899e+02	-2.217027e+01
1.568909e+02	-2.221928e+01
1.577971e+02	-2.226853e+01
1.587085e+02	-2.231763e+01
1.596252e+02	-2.236791e+01
1.605472e+02	-2.241882e+01
1.614745e+02	-2.246745e+01
1.624072e+02	-2.251762e+01
1.633453e+02	-2.256588e+01
1.642887e+02	-2.261785e+01
1.652377e+02	-2.266716e+01
1.661921e+02	-2.271523e+01
1.671520e+02	-2.276779e+01
1.681175e+02	-2.281635e+01
1.690885e+02	-2.286345e+01
1.700651e+02	-2.291504e+01
1.710474e+02	-2.296397e+01
1.720354e+02	-2.301675e+01
1.730291e+02	-2.306540e+01
1.740285e+02	-2.311546e+01
1.750337e+02	-2.316467e+01
1.760446e+02	-2.321591e+01
1.770615e+02	-2.326500e+01
1.780842e+02	-2.331456e+01
1.791128e+02	-2.336716e+01
1.801473e+02	-2.341264e+01
1.811878e+02	-2.346471e+01
1.822344e+02	-2.351385e+01
1.832870e+02	-2.356462e+01
1.843456e+02	-2.361153e+01
1.854104e+02	-2.366249e+01
1.864813e+02	-2.371426e+01
1.875584e+02	-2.376399e+01
1.886418e+02	-2.381296e+01
1.897313e+02	-2.386349e+01
1.908272e+02	-2.391321e+01
1.919294e+02	-2.396334e+01
1.930380e+02	-2.401277e+01
1.941530e+02	-2.405961e+01
1.952744e+02	-2.411147e+01
1.964023e+02	-2.416062e+01
1.975367e+02	-2.421080e+01
1.986777e+02	-2.425923e+01
1.998252e+02	-2.431284e+01
2.009794e+02	-2.436218e+01
2.021403e+02	-2.441206e+01
2.033078e+02	-2.446123e+01
2.044821e+02	-2.451316e+01
2.056632e+02	-2.456218e+01
2.068511e+02	-2.461095e+01
2.080459e+02	-2.466164e+01
2.092475e+02	-2.471288e+01
2.104561e+02	-2.475898e+01
2.116717e+02	-2.480991e+01
2.128943e+02	-2.485803e+01
2.141240e+02	-2.490919e+01
2.153608e+02	-2.495832e+01
2.166047e+02	-2.501233e+01
2.178558e+02	-2.505703e+01
2.191141e+02	-2.511004e+01
2.203797e+02	-2.516221e+01
2.216526e+02	-2.520722e+01
2.229329e+02	-2.525937e+01
2.242205e+02	-2.531054e+01
2.255156e+02	-2.535885e+01
2.268182e+02	-2.540683e+01
2.281283e+02	-2.545972e+01
2.294459e+02	-2.550594e+01
2.307712e+02	-2.555773e+01
2.321041e+02	-2.560824e+01
2.334447e+02	-2.566028e+01
2.347931e+02	-2.570683e+01
2.361493e+02	-2.575696e+01
2.375133e+02	-2.580691e+01
2.388851e+02	-2.586104e+01
2.402649e+02	-2.590613e+01
2.416527e+02	-2.595537e+01
2.430484e+02	-2.600994e+01
2.444523e+02	-2.605914e+01
2.458642e+02	-2.611130e+01
2.472843e+02	-2.615729e+01
2.487126e+02	-2.620619e+01
2.501492e+02	-2.625840e+01
2.515940e+02	-2.630954e+01
2.530472e+02	-2.635763e+01
2.545088e+02	-2.640847e+01
2.559789e+02	-2.645900e+01
2.574574e+02	-2.650758e+01
2.589444e+02	-2.655916e+01
2.604401e+02	-2.660665e+01
2.619444e+02	-2.665620e+01
2.634574e+02	-2.670383e+01
2.649791e+02	-2.675808e+01
2.665096e+02	-2.680895e+01
2.680489e+02	-2.685556e+01
2.695972e+02	-2.690654e+01
2.711544e+02	-2.695755e+01
2.727205e+02	-2.700553e+01
2.742958e+02	-2.705645e+01
2.758801e+02	-2.710874e+01
2.774736e+02	-2.715684e+01
2.790762e+02	-2.720763e+01
2.806882e+02	-2.725665e+01
2.823094e+02	-2.730596e+01
2.839400e+02	-2.735461e+01
2.855800e+02	-2.740749e+01
2.872295e+02	-2.745967e+01
2.888886e+02	-2.750659e+01
2.905572e+02	-2.755896e+01
2.922354e+02	-2.760990e+01
2.939234e+02	-2.765661e+01
2.956211e+02	-2.770625e+01
2.973286e+02	-2.775670e+01
2.990459e+02	-2.780429e+01
3.007732e+02	-2.785749e+01
3.025104e+02	-2.790620e+01
3.042577e+02	-2.795561e+01
3.060151e+02	-2.800653e+01
3.077826e+02	-2.805620e+01
3.095604e+02	-2.810681e+01
3.113484e+02	-2.815569e+01
3.131467e+02	-2.821216e+01
3.149554e+02	-2.825938e+01
3.167746e+02	-2.831005e+01
3.186043e+02	-2.835703e+01
3.204445e+02	-2.840589e+01
3.222954e+02	-2.846025e+01
3.241570e+02	-2.850553e+01
3.260293e+02	-2.855502e+01
3.279124e+02	-2.860486e+01
3.298064e+02	-2.865840e+01
3.317114e+02	-2.871002e+01
3.336273e+02	-2.876280e+01
3.355544e+02	-2.880709e+01
3.374925e+02	-2.885363e+01
3.394418e+02	-2.890710e+01
3.414024e+02	-2.895918e+01
3.433744e+02	-2.901117e+01
3.453577e+02	-2.905532e+01
3.473525e+02	-2.911016e+01
3.493588e+02	-2.915770e+01
3.513766e+02	-2.920789e+01
3.534062e+02	-2.925900e+01
3.554474e+02	-2.931324e+01
3.575005e+02	-2.936153e+01
3.595654e+02	-2.940470e+01
3.616422e+02	-2.945864e+01
3.637311e+02	-2.951225e+01
3.658320e+02	-2.955746e+01
3.679450e+02	-2.960776e+01
3.700702e+02	-2.965538e+01
3.722077e+02	-2.970915e+01
3.743576e+02	-2.976273e+01
3.765199e+02	-2.980655e+01
3.786946e+02	-2.986092e+01
3.808820e+02	-2.991070e+01
3.830819e+02	-2.996560e+01
3.852946e+02	-3.000955e+01
3.875200e+02	-3.005779e+01
3.897583e+02	-3.011341e+01
3.920096e+02	-3.016378e+01
3.942738e+02	-3.021007e+01
3.965511e+02	-3.025823e+01
3.988416e+02	-3.031257e+01
4.011452e+02	-3.036334e+01
4.034622e+02	-3.041128e+01
4.057926e+02	-3.045893e+01
4.081365e+02	-3.051202e+01
4.104938e+02	-3.056031e+01
4.128648e+02	-3.061457e+01
4.152495e+02	-3.066005e+01
4.176480e+02	-3.071709e+01
4.200603e+02	-3.076615e+01
4.224866e+02	-3.080855e+01
4.249268e+02	-3.086649e+01
4.273812e+02	-3.091236e+01
4.298497e+02	-3.096360e+01
4.323325e+02	-3.101448e+01
4.348297e+02	-3.106224e+01
4.373412e+02	-3.110818e+01
4.398673e+02	-3.115797e+01
4.424079e+02	-3.120957e+01
4.449633e+02	-3.126229e+01
4.475334e+02	-3.131009e+01
4.501183e+02	-3.135958e+01
4.527182e+02	-3.141663e+01
4.553330e+02	-3.146625e+01
4.579630e+02	-3.151561e+01
4.606082e+02	-3.156153e+01
4.632687e+02	-3.161192e+01
4.659445e+02	-3.166497e+01
4.686358e+02	-3.171712e+01
4.713426e+02	-3.176573e+01
4.740650e+02	-3.180987e+01
4.768032e+02	-3.185952e+01
4.795572e+02	-3.191613e+01
4.823271e+02	-3.196536e+01
4.851130e+02	-3.201740e+01
4.879150e+02	-3.205941e+01
4.907332e+02	-3.211582e+01
4.935676e+02	-3.215732e+01
4.964185e+02	-3.221477e+01
4.992858e+02	-3.226245e+01
5.021696e+02	-3.231782e+01
5.050701e+02	-3.236710e+01
5.079874e+02	-3.240933e+01
5.109215e+02	-3.246622e+01
5.138726e+02	-3.251695e+01
5.168407e+02	-3.256538e+01
5.198259e+02	-3.261832e+01
5.228284e+02	-3.267047e+01
5.258482e+02	-3.271469e+01
5.288855e+02	-3.276365e+01
5.319403e+02	-3.281351e+01
5.350128e+02	-3.287001e+01
5.381030e+02	-3.291789e+01
5.412111e+02	-3.296532e+01
5.443371e+02	-3.302224e+01
5.474812e+02	-3.306541e+01
5.506434e+02	-3.312117e+01
5.538239e+02	-3.317059e+01
5.570228e+02	-3.321934e+01
5.602401e+02	-3.327565e+01
5.634760e+02	-3.331672e+01
5.667306e+02	-3.336419e+01
5.700040e+02	-3.340806e+01
5.732964e+02	-3.347459e+01
5.766077e+02	-3.352668e+01
5.799382e+02	-3.357159e+01
5.832879e+02	-3.362468e+01
5.866569e+02	-3.366973e+01
5.900454e+02	-3.372608e+01
5.934535e+02	-3.377031e+01
5.968813e+02	-3.382679e+01
6.003288e+02	-3.387300e+01
6.037963e+02	-3.392126e+01
6.072838e+02	-3.396642e+01
6.107914e+02	-3.402582e+01
6.143194e+02	-3.407713e+01
6.178676e+02	-3.411946e+01
6.214364e+02	-3.416965e+01
6.250258e+02	-3.422736e+01
6.286359e+02	-3.427435e+01
6.322669e+02	-3.432568e+01
6.359189e+02	-3.438971e+01
6.395919e+02	-3.441576e+01
6.432862e+02	-3.448717e+01
6.470017e+02	-3.452636e+01
6.507388e+02	-3.457284e+01
6.544974e+02	-3.462324e+01
6.582778e+02	-3.466395e+01
6.620800e+02	-3.472902e+01
6.659041e+02	-3.477347e+01
6.697504e+02	-3.483666e+01
6.736188e+02	-3.487958e+01
6.775096e+02	-3.493008e+01
6.814229e+02	-3.498296e+01
6.853587e+02	-3.502450e+01
6.893173e+02	-3.508290e+01
6.932988e+02	-3.513246e+01
6.973033e+02	-3.517971e+01
7.013309e+02	-3.522083e+01
