Frequency(Hz)	Magnitude(dB)
1.000000e+01	-1.632789e-05
1.005776e+01	-1.651705e-05
1.011585e+01	-1.670841e-05
1.017428e+01	-1.690198e-05
1.023305e+01	-1.709779e-05
1.029215e+01	-1.729587e-05
1.035160e+01	-1.749625e-05
1.041139e+01	-1.769895e-05
1.047153e+01	-1.790400e-05
1.053201e+01	-1.811142e-05
1.059284e+01	-1.832124e-05
1.065403e+01	-1.853350e-05
1.071556e+01	-1.874821e-05
1.077746e+01	-1.896542e-05
1.083971e+01	-1.918514e-05
1.090232e+01	-1.940740e-05
1.096529e+01	-1.963224e-05
1.102862e+01	-1.985969e-05
1.109232e+01	-2.008976e-05
1.115639e+01	-2.032251e-05
1.122083e+01	-2.055795e-05
1.128564e+01	-2.079612e-05
1.135083e+01	-2.103705e-05
1.141639e+01	-2.128077e-05
1.148233e+01	-2.152731e-05
1.154865e+01	-2.177671e-05
1.161536e+01	-2.202900e-05
1.168245e+01	-2.228421e-05
1.174992e+01	-2.254238e-05
1.181779e+01	-2.280354e-05
1.188605e+01	-2.306772e-05
1.195470e+01	-2.333497e-05
1.202375e+01	-2.360531e-05
1.209320e+01	-2.387878e-05
1.216305e+01	-2.415542e-05
1.223330e+01	-2.443527e-05
1.230396e+01	-2.471836e-05
1.237503e+01	-2.500473e-05
1.244651e+01	-2.529441e-05
1.251840e+01	-2.558746e-05
1.259070e+01	-2.588389e-05
1.266343e+01	-2.618376e-05
1.273657e+01	-2.648711e-05
1.281014e+01	-2.679397e-05
1.288413e+01	-2.710438e-05
1.295855e+01	-2.741839e-05
1.303339e+01	-2.773604e-05
1.310867e+01	-2.805737e-05
1.318439e+01	-2.838242e-05
1.326054e+01	-2.871124e-05
1.333713e+01	-2.904387e-05
1.341417e+01	-2.938035e-05
1.349165e+01	-2.972073e-05
1.356958e+01	-3.006505e-05
1.364795e+01	-3.041336e-05
1.372678e+01	-3.076570e-05
1.380607e+01	-3.112213e-05
1.388581e+01	-3.148269e-05
1.396602e+01	-3.184742e-05
1.404668e+01	-3.221638e-05
1.412782e+01	-3.258962e-05
1.420942e+01	-3.296718e-05
1.429149e+01	-3.334911e-05
1.437404e+01	-3.373547e-05
1.445706e+01	-3.412630e-05
1.454057e+01	-3.452166e-05
1.462455e+01	-3.492160e-05
1.470902e+01	-3.532618e-05
1.479398e+01	-3.573544e-05
1.487943e+01	-3.614944e-05
1.496537e+01	-3.656824e-05
1.505181e+01	-3.699189e-05
1.513875e+01	-3.742045e-05
1.522619e+01	-3.785398e-05
1.531414e+01	-3.829253e-05
1.540259e+01	-3.873615e-05
1.549156e+01	-3.918492e-05
1.558103e+01	-3.963889e-05
1.567103e+01	-4.009811e-05
1.576155e+01	-4.056266e-05
1.585258e+01	-4.103258e-05
1.594415e+01	-4.150796e-05
1.603624e+01	-4.198884e-05
1.612886e+01	-4.247529e-05
1.622202e+01	-4.296737e-05
1.631572e+01	-4.346516e-05
1.640996e+01	-4.396871e-05
1.650474e+01	-4.447810e-05
1.660008e+01	-4.499339e-05
1.669596e+01	-4.551465e-05
1.679239e+01	-4.604194e-05
1.688938e+01	-4.657535e-05
1.698694e+01	-4.711493e-05
1.708505e+01	-4.766077e-05
1.718373e+01	-4.821293e-05
1.728299e+01	-4.877149e-05
1.738281e+01	-4.933652e-05
1.748322e+01	-4.990809e-05
1.758420e+01	-5.048629e-05
1.768576e+01	-5.107118e-05
1.778792e+01	-5.166285e-05
1.789066e+01	-5.226138e-05
1.799399e+01	-5.286683e-05
1.809793e+01	-5.347931e-05
1.820246e+01	-5.409888e-05
1.830760e+01	-5.472562e-05
1.841334e+01	-5.535963e-05
1.851969e+01	-5.600098e-05
1.862666e+01	-5.664977e-05
1.873425e+01	-5.730607e-05
1.884246e+01	-5.796997e-05
1.895129e+01	-5.864156e-05
1.906075e+01	-5.932094e-05
1.917085e+01	-6.000818e-05
1.928158e+01	-6.070339e-05
1.939295e+01	-6.140665e-05
1.950496e+01	-6.211806e-05
1.961762e+01	-6.283771e-05
1.973093e+01	-6.356569e-05
1.984490e+01	-6.430211e-05
1.995952e+01	-6.504707e-05
2.007480e+01	-6.580065e-05
2.019076e+01	-6.656296e-05
2.030738e+01	-6.733411e-05
2.042467e+01	-6.811419e-05
2.054264e+01	-6.890330e-05
2.066130e+01	-6.970156e-05
2.078064e+01	-7.050906e-05
2.090066e+01	-7.132593e-05
2.102139e+01	-7.215225e-05
2.114280e+01	-7.298815e-05
2.126492e+01	-7.383373e-05
2.138775e+01	-7.468910e-05
2.151128e+01	-7.555439e-05
2.163553e+01	-7.642970e-05
2.176050e+01	-7.731515e-05
2.188619e+01	-7.821086e-05
2.201260e+01	-7.911695e-05
2.213974e+01	-8.003353e-05
2.226762e+01	-8.096074e-05
2.239624e+01	-8.189868e-05
2.252560e+01	-8.284749e-05
2.265571e+01	-8.380729e-05
2.278656e+01	-8.477821e-05
2.291818e+01	-8.576038e-05
2.305055e+01	-8.675393e-05
2.318369e+01	-8.775899e-05
2.331760e+01	-8.877569e-05
2.345228e+01	-8.980417e-05
2.358774e+01	-9.084457e-05
2.372398e+01	-9.189702e-05
2.386101e+01	-9.296166e-05
2.399883e+01	-9.403863e-05
2.413745e+01	-9.512808e-05
2.427686e+01	-9.623016e-05
2.441709e+01	-9.734500e-05
2.455812e+01	-9.847275e-05
2.469997e+01	-9.961357e-05
2.484263e+01	-1.007676e-04
2.498612e+01	-1.019350e-04
2.513044e+01	-1.031160e-04
2.527559e+01	-1.043106e-04
2.542158e+01	-1.055190e-04
2.556842e+01	-1.067415e-04
2.571610e+01	-1.079781e-04
2.586463e+01	-1.092290e-04
2.601403e+01	-1.104945e-04
2.616428e+01	-1.117745e-04
2.631541e+01	-1.130695e-04
2.646740e+01	-1.143794e-04
2.662028e+01	-1.157045e-04
2.677404e+01	-1.170449e-04
2.692868e+01	-1.184009e-04
2.708422e+01	-1.197726e-04
2.724066e+01	-1.211602e-04
2.739800e+01	-1.225638e-04
2.755625e+01	-1.239838e-04
2.771541e+01	-1.254201e-04
2.787550e+01	-1.268731e-04
2.803650e+01	-1.283430e-04
2.819844e+01	-1.298298e-04
2.836131e+01	-1.313339e-04
2.852513e+01	-1.328555e-04
2.868989e+01	-1.343946e-04
2.885560e+01	-1.359516e-04
2.902227e+01	-1.375266e-04
2.918990e+01	-1.391198e-04
2.935850e+01	-1.407316e-04
2.952807e+01	-1.423619e-04
2.969863e+01	-1.440112e-04
2.987016e+01	-1.456796e-04
3.004269e+01	-1.473673e-04
3.021622e+01	-1.490746e-04
3.039075e+01	-1.508016e-04
3.056628e+01	-1.525487e-04
3.074283e+01	-1.543160e-04
3.092040e+01	-1.561037e-04
3.109900e+01	-1.579122e-04
3.127862e+01	-1.597416e-04
3.145929e+01	-1.615922e-04
3.164099e+01	-1.634643e-04
3.182375e+01	-1.653580e-04
3.200756e+01	-1.672737e-04
3.219244e+01	-1.692116e-04
3.237838e+01	-1.711719e-04
3.256540e+01	-1.731549e-04
3.275349e+01	-1.751609e-04
3.294268e+01	-1.771902e-04
3.313295e+01	-1.792430e-04
3.332433e+01	-1.813195e-04
3.351681e+01	-1.834201e-04
3.371040e+01	-1.855450e-04
3.390511e+01	-1.876946e-04
3.410094e+01	-1.898690e-04
3.429791e+01	-1.920686e-04
3.449601e+01	-1.942938e-04
3.469526e+01	-1.965446e-04
3.489566e+01	-1.988216e-04
3.509721e+01	-2.011250e-04
3.529993e+01	-2.034550e-04
3.550382e+01	-2.058120e-04
3.570889e+01	-2.081964e-04
3.591515e+01	-2.106083e-04
3.612259e+01	-2.130482e-04
3.633123e+01	-2.155164e-04
3.654108e+01	-2.180131e-04
3.675214e+01	-2.205388e-04
3.696442e+01	-2.230937e-04
3.717792e+01	-2.256783e-04
3.739266e+01	-2.282928e-04
3.760864e+01	-2.309375e-04
3.782587e+01	-2.336129e-04
3.804435e+01	-2.363193e-04
3.826409e+01	-2.390571e-04
3.848510e+01	-2.418265e-04
3.870739e+01	-2.446281e-04
3.893096e+01	-2.474621e-04
3.915583e+01	-2.503289e-04
3.938199e+01	-2.532290e-04
3.960946e+01	-2.561626e-04
3.983824e+01	-2.591302e-04
4.006834e+01	-2.621323e-04
4.029978e+01	-2.651690e-04
4.053255e+01	-2.682410e-04
4.076666e+01	-2.713485e-04
4.100213e+01	-2.744921e-04
4.123896e+01	-2.776721e-04
4.147715e+01	-2.808889e-04
4.171672e+01	-2.841429e-04
4.195767e+01	-2.874347e-04
4.220002e+01	-2.907646e-04
4.244377e+01	-2.941331e-04
4.268892e+01	-2.975406e-04
4.293549e+01	-3.009875e-04
4.318348e+01	-3.044744e-04
4.343291e+01	-3.080017e-04
4.368377e+01	-3.115699e-04
4.393609e+01	-3.151794e-04
4.418986e+01	-3.188307e-04
4.444510e+01	-3.225243e-04
4.470182e+01	-3.262607e-04
4.496001e+01	-3.300404e-04
4.521970e+01	-3.338638e-04
4.548089e+01	-3.377316e-04
4.574358e+01	-3.416441e-04
4.600779e+01	-3.456020e-04
4.627353e+01	-3.496058e-04
4.654081e+01	-3.536559e-04
4.680963e+01	-3.577529e-04
4.708000e+01	-3.618974e-04
4.735193e+01	-3.660899e-04
4.762543e+01	-3.703310e-04
4.790051e+01	-3.746212e-04
4.817719e+01	-3.789611e-04
4.845545e+01	-3.833513e-04
4.873533e+01	-3.877923e-04
4.901682e+01	-3.922848e-04
4.929994e+01	-3.968293e-04
4.958470e+01	-4.014265e-04
4.987110e+01	-4.060769e-04
5.015915e+01	-4.107812e-04
5.044887e+01	-4.155400e-04
5.074026e+01	-4.203539e-04
5.103333e+01	-4.252235e-04
5.132810e+01	-4.301496e-04
5.162457e+01	-4.351328e-04
5.192275e+01	-4.401737e-04
5.222265e+01	-4.452729e-04
5.252429e+01	-4.504313e-04
5.282767e+01	-4.556494e-04
5.313280e+01	-4.609279e-04
5.343969e+01	-4.662676e-04
5.374836e+01	-4.716692e-04
5.405880e+01	-4.771333e-04
5.437105e+01	-4.826607e-04
5.468509e+01	-4.882521e-04
5.500095e+01	-4.939083e-04
5.531863e+01	-4.996301e-04
5.563815e+01	-5.054181e-04
5.595951e+01	-5.112732e-04
5.628273e+01	-5.171961e-04
5.660782e+01	-5.231876e-04
5.693479e+01	-5.292485e-04
5.726364e+01	-5.353796e-04
5.759439e+01	-5.415817e-04
5.792705e+01	-5.478557e-04
5.826164e+01	-5.542023e-04
5.859815e+01	-5.606225e-04
5.893662e+01	-5.671170e-04
5.927703e+01	-5.736868e-04
5.961941e+01	-5.803327e-04
5.996377e+01	-5.870556e-04
6.031012e+01	-5.938563e-04
6.065847e+01	-6.007358e-04
6.100883e+01	-6.076950e-04
6.136121e+01	-6.147348e-04
6.171563e+01	-6.218562e-04
6.207210e+01	-6.290600e-04
6.243063e+01	-6.363473e-04
6.279122e+01	-6.437190e-04
6.315390e+01	-6.511762e-04
6.351868e+01	-6.587196e-04
6.388556e+01	-6.663505e-04
6.425456e+01	-6.740698e-04
6.462569e+01	-6.818784e-04
6.499897e+01	-6.897775e-04
6.537440e+01	-6.977682e-04
6.575200e+01	-7.058513e-04
6.613178e+01	-7.140282e-04
6.651375e+01	-7.222997e-04
6.689793e+01	-7.306670e-04
6.728433e+01	-7.391313e-04
6.767297e+01	-7.476936e-04
6.806384e+01	-7.563551e-04
6.845698e+01	-7.651169e-04
6.885238e+01	-7.739802e-04
6.925007e+01	-7.829461e-04
6.965005e+01	-7.920159e-04
7.005235e+01	-8.011908e-04
7.045697e+01	-8.104720e-04
7.086393e+01	-8.198606e-04
7.127323e+01	-8.293580e-04
7.168490e+01	-8.389654e-04
7.209895e+01	-8.486841e-04
7.251539e+01	-8.585154e-04
7.293424e+01	-8.684605e-04
7.335551e+01	-8.785209e-04
7.377920e+01	-8.886977e-04
7.420535e+01	-8.989925e-04
7.463396e+01	-9.094065e-04
7.506504e+01	-9.199411e-04
7.549861e+01	-9.305977e-04
7.593469e+01	-9.413778e-04
7.637328e+01	-9.522827e-04
7.681441e+01	-9.633139e-04
7.725809e+01	-9.744729e-04
7.770433e+01	-9.857612e-04
7.815315e+01	-9.971802e-04
7.860456e+01	-1.008731e-03
7.905857e+01	-1.020416e-03
7.951521e+01	-1.032237e-03
7.997449e+01	-1.044194e-03
8.043642e+01	-1.056290e-03
8.090102e+01	-1.068526e-03
8.136830e+01	-1.080904e-03
8.183828e+01	-1.093424e-03
8.231097e+01	-1.106090e-03
8.278640e+01	-1.118903e-03
8.326457e+01	-1.131864e-03
8.374550e+01	-1.144976e-03
8.422921e+01	-1.158239e-03
8.471572e+01	-1.171655e-03
8.520503e+01	-1.185227e-03
8.569717e+01	-1.198957e-03
8.619215e+01	-1.212845e-03
8.669000e+01	-1.226894e-03
8.719071e+01	-1.241106e-03
8.769432e+01	-1.255482e-03
8.820084e+01	-1.270025e-03
8.871029e+01	-1.284737e-03
8.922267e+01	-1.299619e-03
8.973802e+01	-1.314673e-03
9.025634e+01	-1.329901e-03
9.077766e+01	-1.345306e-03
9.130199e+01	-1.360890e-03
9.182935e+01	-1.376653e-03
9.235975e+01	-1.392600e-03
9.289321e+01	-1.408731e-03
9.342976e+01	-1.425049e-03
9.396941e+01	-1.441555e-03
9.451217e+01	-1.458253e-03
9.505807e+01	-1.475145e-03
9.560712e+01	-1.492232e-03
9.615934e+01	-1.509517e-03
9.671476e+01	-1.527002e-03
9.727338e+01	-1.544689e-03
9.783522e+01	-1.562582e-03
9.840032e+01	-1.580681e-03
9.896867e+01	-1.598991e-03
9.954031e+01	-1.617512e-03
1.001153e+02	-1.636248e-03
1.006935e+02	-1.655200e-03
1.012751e+02	-1.674373e-03
1.018601e+02	-1.693767e-03
1.024484e+02	-1.713386e-03
1.030402e+02	-1.733232e-03
1.036353e+02	-1.753308e-03
1.042339e+02	-1.773616e-03
1.048360e+02	-1.794160e-03
1.054415e+02	-1.814941e-03
1.060505e+02	-1.835963e-03
1.066631e+02	-1.857229e-03
1.072791e+02	-1.878741e-03
1.078988e+02	-1.900502e-03
1.085220e+02	-1.922515e-03
1.091488e+02	-1.944782e-03
1.097793e+02	-1.967308e-03
1.104133e+02	-1.990095e-03
1.110511e+02	-2.013145e-03
1.116925e+02	-2.036463e-03
1.123376e+02	-2.060050e-03
1.129865e+02	-2.083910e-03
1.136391e+02	-2.108047e-03
1.142955e+02	-2.132463e-03
1.149556e+02	-2.157163e-03
1.156196e+02	-2.182148e-03
1.162874e+02	-2.207422e-03
1.169591e+02	-2.232989e-03
1.176347e+02	-2.258852e-03
1.183141e+02	-2.285014e-03
1.189975e+02	-2.311480e-03
1.196848e+02	-2.338252e-03
1.203761e+02	-2.365334e-03
1.210714e+02	-2.392729e-03
1.217707e+02	-2.420442e-03
1.224740e+02	-2.448475e-03
1.231814e+02	-2.476833e-03
1.238929e+02	-2.505520e-03
1.246085e+02	-2.534539e-03
1.253283e+02	-2.563893e-03
1.260522e+02	-2.593588e-03
1.267802e+02	-2.623626e-03
1.275125e+02	-2.654012e-03
1.282490e+02	-2.684750e-03
1.289898e+02	-2.715844e-03
1.297348e+02	-2.747298e-03
1.304842e+02	-2.779116e-03
1.312378e+02	-2.811302e-03
1.319959e+02	-2.843861e-03
1.327583e+02	-2.876797e-03
1.335251e+02	-2.910114e-03
1.342963e+02	-2.943817e-03
1.350720e+02	-2.977910e-03
1.358522e+02	-3.012398e-03
1.366368e+02	-3.047285e-03
1.374260e+02	-3.082576e-03
1.382198e+02	-3.118276e-03
1.390182e+02	-3.154389e-03
1.398211e+02	-3.190920e-03
1.406287e+02	-3.227874e-03
1.414410e+02	-3.265255e-03
1.422579e+02	-3.303070e-03
1.430796e+02	-3.341322e-03
1.439060e+02	-3.380017e-03
1.447372e+02	-3.419160e-03
1.455732e+02	-3.458756e-03
1.464141e+02	-3.498811e-03
1.472597e+02	-3.539329e-03
1.481103e+02	-3.580316e-03
1.489658e+02	-3.621777e-03
1.498262e+02	-3.663719e-03
1.506916e+02	-3.706146e-03
1.515620e+02	-3.749064e-03
1.524374e+02	-3.792479e-03
1.533179e+02	-3.836396e-03
1.542034e+02	-3.880822e-03
1.550941e+02	-3.925762e-03
1.559899e+02	-3.971222e-03
1.568909e+02	-4.017208e-03
1.577971e+02	-4.063727e-03
1.587085e+02	-4.110784e-03
1.596252e+02	-4.158386e-03
1.605472e+02	-4.206538e-03
1.614745e+02	-4.255248e-03
1.624072e+02	-4.304522e-03
1.633453e+02	-4.354366e-03
1.642887e+02	-4.404787e-03
1.652377e+02	-4.455791e-03
1.661921e+02	-4.507386e-03
1.671520e+02	-4.559577e-03
1.681175e+02	-4.612373e-03
1.690885e+02	-4.665780e-03
1.700651e+02	-4.719805e-03
1.710474e+02	-4.774455e-03
1.720354e+02	-4.829737e-03
1.730291e+02	-4.885659e-03
1.740285e+02	-4.942229e-03
1.750337e+02	-4.999453e-03
1.760446e+02	-5.057339e-03
1.770615e+02	-5.115895e-03
1.780842e+02	-5.175128e-03
1.791128e+02	-5.235047e-03
1.801473e+02	-5.295660e-03
1.811878e+02	-5.356973e-03
1.822344e+02	-5.418997e-03
1.832870e+02	-5.481737e-03
1.843456e+02	-5.545204e-03
1.854104e+02	-5.609405e-03
1.864813e+02	-5.674349e-03
1.875584e+02	-5.740044e-03
1.886418e+02	-5.806499e-03
1.897313e+02	-5.873724e-03
1.908272e+02	-5.941725e-03
1.919294e+02	-6.010514e-03
1.930380e+02	-6.080099e-03
1.941530e+02	-6.150488e-03
1.952744e+02	-6.221692e-03
1.964023e+02	-6.293719e-03
1.975367e+02	-6.366580e-03
1.986777e+02	-6.440284e-03
1.998252e+02	-6.514840e-03
2.009794e+02	-6.590259e-03
2.021403e+02	-6.666550e-03
2.033078e+02	-6.743723e-03
2.044821e+02	-6.821790e-03
2.056632e+02	-6.900759e-03
2.068511e+02	-6.980641e-03
2.080459e+02	-7.061448e-03
2.092475e+02	-7.143189e-03
2.104561e+02	-7.225876e-03
2.116717e+02	-7.309519e-03
2.128943e+02	-7.394129e-03
2.141240e+02	-7.479718e-03
2.153608e+02	-7.566297e-03
2.166047e+02	-7.653877e-03
2.178558e+02	-7.742470e-03
2.191141e+02	-7.832087e-03
2.203797e+02	-7.922741e-03
2.216526e+02	-8.014443e-03
2.229329e+02	-8.107205e-03
2.242205e+02	-8.201040e-03
2.255156e+02	-8.295960e-03
2.268182e+02	-8.391978e-03
2.281283e+02	-8.489106e-03
2.294459e+02	-8.587357e-03
2.307712e+02	-8.686744e-03
2.321041e+02	-8.787280e-03
2.334447e+02	-8.888978e-03
2.347931e+02	-8.991852e-03
2.361493e+02	-9.095916e-03
2.375133e+02	-9.201182e-03
2.388851e+02	-9.307666e-03
2.402649e+02	-9.415380e-03
2.416527e+02	-9.524340e-03
2.430484e+02	-9.634559e-03
2.444523e+02	-9.746052e-03
2.458642e+02	-9.858834e-03
2.472843e+02	-9.972919e-03
2.487126e+02	-1.008832e-02
2.501492e+02	-1.020506e-02
2.515940e+02	-1.032315e-02
2.530472e+02	-1.044260e-02
2.545088e+02	-1.056343e-02
2.559789e+02	-1.068566e-02
2.574574e+02	-1.080930e-02
2.589444e+02	-1.093437e-02
2.604401e+02	-1.106089e-02
2.619444e+02	-1.118887e-02
2.634574e+02	-1.131832e-02
2.649791e+02	-1.144928e-02
2.665096e+02	-1.158174e-02
2.680489e+02	-1.171574e-02
2.695972e+02	-1.185128e-02
2.711544e+02	-1.198839e-02
2.727205e+02	-1.212709e-02
2.742958e+02	-1.226738e-02
2.758801e+02	-1.240930e-02
2.774736e+02	-1.255285e-02
2.790762e+02	-1.269807e-02
2.806882e+02	-1.284496e-02
2.823094e+02	-1.299355e-02
2.839400e+02	-1.314386e-02
2.855800e+02	-1.329590e-02
2.872295e+02	-1.344969e-02
2.888886e+02	-1.360527e-02
2.905572e+02	-1.376264e-02
2.922354e+02	-1.392182e-02
2.939234e+02	-1.408285e-02
2.956211e+02	-1.424573e-02
2.973286e+02	-1.441050e-02
2.990459e+02	-1.457717e-02
3.007732e+02	-1.474576e-02
3.025104e+02	-1.491630e-02
3.042577e+02	-1.508881e-02
3.060151e+02	-1.526331e-02
3.077826e+02	-1.543982e-02
3.095604e+02	-1.561837e-02
3.113484e+02	-1.579898e-02
3.131467e+02	-1.598168e-02
3.149554e+02	-1.616649e-02
3.167746e+02	-1.635343e-02
3.186043e+02	-1.654252e-02
3.204445e+02	-1.673380e-02
3.222954e+02	-1.692729e-02
3.241570e+02	-1.712301e-02
3.260293e+02	-1.732098e-02
3.279124e+02	-1.752125e-02
3.298064e+02	-1.772382e-02
3.317114e+02	-1.792873e-02
3.336273e+02	-1.813600e-02
3.355544e+02	-1.834567e-02
3.374925e+02	-1.855775e-02
3.394418e+02	-1.877228e-02
3.414024e+02	-1.898928e-02
3.433744e+02	-1.920879e-02
3.453577e+02	-1.943083e-02
3.473525e+02	-1.965543e-02
3.493588e+02	-1.988262e-02
3.513766e+02	-2.011243e-02
3.534062e+02	-2.034489e-02
3.554474e+02	-2.058003e-02
3.575005e+02	-2.081788e-02
3.595654e+02	-2.105848e-02
3.616422e+02	-2.130184e-02
3.637311e+02	-2.154802e-02
3.658320e+02	-2.179703e-02
3.679450e+02	-2.204891e-02
3.700702e+02	-2.230369e-02
3.722077e+02	-2.256141e-02
3.743576e+02	-2.282210e-02
3.765199e+02	-2.308580e-02
3.786946e+02	-2.335253e-02
3.808820e+02	-2.362234e-02
3.830819e+02	-2.389525e-02
3.852946e+02	-2.417131e-02
3.875200e+02	-2.445055e-02
3.897583e+02	-2.473301e-02
3.920096e+02	-2.501872e-02
3.942738e+02	-2.530772e-02
3.965511e+02	-2.560005e-02
3.988416e+02	-2.589575e-02
4.011452e+02	-2.619485e-02
4.034622e+02	-2.649739e-02
4.057926e+02	-2.680342e-02
4.081365e+02	-2.711297e-02
4.104938e+02	-2.742609e-02
4.128648e+02	-2.774281e-02
4.152495e+02	-2.806318e-02
4.176480e+02	-2.838723e-02
4.200603e+02	-2.871501e-02
4.224866e+02	-2.904657e-02
4.249268e+02	-2.938194e-02
4.273812e+02	-2.972117e-02
4.298497e+02	-3.006430e-02
4.323325e+02	-3.041138e-02
4.348297e+02	-3.076245e-02
4.373412e+02	-3.111756e-02
4.398673e+02	-3.147675e-02
4.424079e+02	-3.184008e-02
4.449633e+02	-3.220758e-02
4.475334e+02	-3.257931e-02
4.501183e+02	-3.295532e-02
4.527182e+02	-3.333564e-02
4.553330e+02	-3.372034e-02
4.579630e+02	-3.410946e-02
4.606082e+02	-3.450305e-02
4.632687e+02	-3.490117e-02
4.659445e+02	-3.530386e-02
4.686358e+02	-3.571118e-02
4.713426e+02	-3.612318e-02
4.740650e+02	-3.653991e-02
4.768032e+02	-3.696142e-02
4.795572e+02	-3.738778e-02
4.823271e+02	-3.781904e-02
4.851130e+02	-3.825525e-02
4.879150e+02	-3.869647e-02
4.907332e+02	-3.914275e-02
4.935676e+02	-3.959416e-02
4.964185e+02	-4.005074e-02
4.992858e+02	-4.051257e-02
5.021696e+02	-4.097970e-02
5.050701e+02	-4.145219e-02
5.079874e+02	-4.193010e-02
5.109215e+02	-4.241349e-02
5.138726e+02	-4.290243e-02
5.168407e+02	-4.339698e-02
5.198259e+02	-4.389720e-02
5.228284e+02	-4.440315e-02
5.258482e+02	-4.491491e-02
5.288855e+02	-4.543253e-02
5.319403e+02	-4.595609e-02
5.350128e+02	-4.648565e-02
5.381030e+02	-4.702127e-02
5.412111e+02	-4.756304e-02
5.443371e+02	-4.811101e-02
5.474812e+02	-4.866526e-02
5.506434e+02	-4.922586e-02
5.538239e+02	-4.979288e-02
5.570228e+02	-5.036639e-02
5.602401e+02	-5.094647e-02
5.634760e+02	-5.153319e-02
5.667306e+02	-5.212662e-02
5.700040e+02	-5.272685e-02
5.732964e+02	-5.333395e-02
5.766077e+02	-5.394799e-02
5.799382e+02	-5.456906e-02
5.832879e+02	-5.519724e-02
5.866569e+02	-5.583259e-02
5.900454e+02	-5.647522e-02
5.934535e+02	-5.712519e-02
5.968813e+02	-5.778259e-02
6.003288e+02	-5.844751e-02
6.037963e+02	-5.912002e-02
6.072838e+02	-5.980022e-02
6.107914e+02	-6.048819e-02
6.143194e+02	-6.118402e-02
6.178676e+02	-6.188780e-02
6.214364e+02	-6.259961e-02
6.250258e+02	-6.331955e-02
6.286359e+02	-6.404771e-02
6.322669e+02	-6.478418e-02
6.359189e+02	-6.552906e-02
6.395919e+02	-6.628243e-02
6.432862e+02	-6.704440e-02
6.470017e+02	-6.781506e-02
6.507388e+02	-6.859451e-02
6.544974e+02	-6.938284e-02
6.582778e+02	-7.018016e-02
6.620800e+02	-7.098657e-02
6.659041e+02	-7.180217e-02
6.697504e+02	-7.262706e-02
6.736188e+02	-7.346134e-02
6.775096e+02	-7.430513e-02
6.814229e+02	-7.515852e-02
6.853587e+02	-7.602163e-02
6.893173e+02	-7.689457e-02
6.932988e+02	-7.777744e-02
6.973033e+02	-7.867035e-02
7.013309e+02	-7.957342e-02
