Frequency(Hz)	Magnitude(dB)
1.000000e+01	-2.552000e+00
1.005776e+01	-2.574264e+00
1.011585e+01	-2.596666e+00
1.017428e+01	-2.619082e+00
1.023305e+01	-2.641937e+00
1.029215e+01	-2.664835e+00
1.035160e+01	-2.687829e+00
1.041139e+01	-2.711159e+00
1.047153e+01	-2.734242e+00
1.053201e+01	-2.757794e+00
1.059284e+01	-2.781188e+00
1.065403e+01	-2.805275e+00
1.071556e+01	-2.828968e+00
1.077746e+01	-2.853011e+00
1.083971e+01	-2.877004e+00
1.090232e+01	-2.901655e+00
1.096529e+01	-2.925918e+00
1.102862e+01	-2.950639e+00
1.109232e+01	-2.975204e+00
1.115639e+01	-3.000071e+00
1.122083e+01	-3.025444e+00
1.128564e+01	-3.050460e+00
1.135083e+01	-3.075621e+00
1.141639e+01	-3.101287e+00
1.148233e+01	-3.126732e+00
1.154865e+01	-3.152501e+00
1.161536e+01	-3.178318e+00
1.168245e+01	-3.204201e+00
1.174992e+01	-3.230363e+00
1.181779e+01	-3.256860e+00
1.188605e+01	-3.283011e+00
1.195470e+01	-3.309931e+00
1.202375e+01	-3.336851e+00
1.209320e+01	-3.363748e+00
1.216305e+01	-3.390552e+00
1.223330e+01	-3.417832e+00
1.230396e+01	-3.445223e+00
1.237503e+01	-3.472528e+00
1.244651e+01	-3.500183e+00
1.251840e+01	-3.528005e+00
1.259070e+01	-3.555965e+00
1.266343e+01	-3.584049e+00
1.273657e+01	-3.611965e+00
1.281014e+01	-3.640197e+00
1.288413e+01	-3.668895e+00
1.295855e+01	-3.697629e+00
1.303339e+01	-3.725984e+00
1.310867e+01	-3.755139e+00
1.318439e+01	-3.784116e+00
1.326054e+01	-3.813121e+00
1.333713e+01	-3.842503e+00
1.341417e+01	-3.872095e+00
1.349165e+01	-3.901740e+00
1.356958e+01	-3.931239e+00
1.364795e+01	-3.961323e+00
1.372678e+01	-3.991075e+00
1.380607e+01	-4.021361e+00
1.388581e+01	-4.051922e+00
1.396602e+01	-4.082297e+00
1.404668e+01	-4.112511e+00
1.412782e+01	-4.143289e+00
1.420942e+01	-4.173927e+00
1.429149e+01	-4.205023e+00
1.437404e+01	-4.236119e+00
1.445706e+01	-4.267434e+00
1.454057e+01	-4.298681e+00
1.462455e+01	-4.330031e+00
1.470902e+01	-4.361963e+00
1.479398e+01	-4.393352e+00
1.487943e+01	-4.425677e+00
1.496537e+01	-4.457584e+00
1.505181e+01	-4.490011e+00
1.513875e+01	-4.521817e+00
1.522619e+01	-4.554516e+00
1.531414e+01	-4.587014e+00
1.540259e+01	-4.619559e+00
1.549156e+01	-4.652219e+00
1.558103e+01	-4.685587e+00
1.567103e+01	-4.718542e+00
1.576155e+01	-4.752101e+00
1.585258e+01	-4.785128e+00
1.594415e+01	-4.818646e+00
1.603624e+01	-4.852275e+00
1.612886e+01	-4.885982e+00
1.622202e+01	-4.919797e+00
1.631572e+01	-4.953638e+00
1.640996e+01	-4.987717e+00
1.650474e+01	-5.022040e+00
1.660008e+01	-5.056283e+00
1.669596e+01	-5.090988e+00
1.679239e+01	-5.125466e+00
1.688938e+01	-5.160226e+00
1.698694e+01	-5.195233e+00
1.708505e+01	-5.230127e+00
1.718373e+01	-5.265278e+00
1.728299e+01	-5.300195e+00
1.738281e+01	-5.335349e+00
1.748322e+01	-5.370958e+00
1.758420e+01	-5.406666e+00
1.768576e+01	-5.442524e+00
1.778792e+01	-5.478092e+00
1.789066e+01	-5.513879e+00
1.799399e+01	-5.550226e+00
1.809793e+01	-5.586147e+00
1.820246e+01	-5.622437e+00
1.830760e+01	-5.658919e+00
1.841334e+01	-5.695563e+00
1.851969e+01	-5.731861e+00
1.862666e+01	-5.768734e+00
1.873425e+01	-5.805108e+00
1.884246e+01	-5.842600e+00
1.895129e+01	-5.879311e+00
1.906075e+01	-5.916628e+00
1.917085e+01	-5.953808e+00
1.928158e+01	-5.990928e+00
1.939295e+01	-6.028649e+00
1.950496e+01	-6.066635e+00
1.961762e+01	-6.104162e+00
1.973093e+01	-6.141976e+00
1.984490e+01	-6.179483e+00
1.995952e+01	-6.217688e+00
2.007480e+01	-6.255772e+00
2.019076e+01	-6.294063e+00
2.030738e+01	-6.332527e+00
2.042467e+01	-6.370695e+00
2.054264e+01	-6.409638e+00
2.066130e+01	-6.448022e+00
2.078064e+01	-6.486674e+00
2.090066e+01	-6.525480e+00
2.102139e+01	-6.564928e+00
2.114280e+01	-6.603629e+00
2.126492e+01	-6.642635e+00
2.138775e+01	-6.681649e+00
2.151128e+01	-6.721430e+00
2.163553e+01	-6.760583e+00
2.176050e+01	-6.800546e+00
2.188619e+01	-6.840168e+00
2.201260e+01	-6.879484e+00
2.213974e+01	-6.919735e+00
2.226762e+01	-6.959345e+00
2.239624e+01	-6.999582e+00
2.252560e+01	-7.039501e+00
2.265571e+01	-7.079935e+00
2.278656e+01	-7.120007e+00
2.291818e+01	-7.160390e+00
2.305055e+01	-7.200418e+00
2.318369e+01	-7.241229e+00
2.331760e+01	-7.281679e+00
2.345228e+01	-7.322726e+00
2.358774e+01	-7.363333e+00
2.372398e+01	-7.404360e+00
2.386101e+01	-7.445420e+00
2.399883e+01	-7.486329e+00
2.413745e+01	-7.526983e+00
2.427686e+01	-7.569075e+00
2.441709e+01	-7.610284e+00
2.455812e+01	-7.651302e+00
2.469997e+01	-7.692820e+00
2.484263e+01	-7.734712e+00
2.498612e+01	-7.776079e+00
2.513044e+01	-7.817864e+00
2.527559e+01	-7.859362e+00
2.542158e+01	-7.901721e+00
2.556842e+01	-7.943464e+00
2.571610e+01	-7.985636e+00
2.586463e+01	-8.027833e+00
2.601403e+01	-8.069384e+00
2.616428e+01	-8.112143e+00
2.631541e+01	-8.154374e+00
2.646740e+01	-8.196816e+00
2.662028e+01	-8.239199e+00
2.677404e+01	-8.281857e+00
2.692868e+01	-8.324666e+00
2.708422e+01	-8.367082e+00
2.724066e+01	-8.409741e+00
2.739800e+01	-8.452923e+00
2.755625e+01	-8.495944e+00
2.771541e+01	-8.538785e+00
2.787550e+01	-8.581449e+00
2.803650e+01	-8.624279e+00
2.819844e+01	-8.667875e+00
2.836131e+01	-8.711198e+00
2.852513e+01	-8.754469e+00
2.868989e+01	-8.797668e+00
2.885560e+01	-8.841341e+00
2.902227e+01	-8.885054e+00
2.918990e+01	-8.928307e+00
2.935850e+01	-8.971925e+00
2.952807e+01	-9.016152e+00
2.969863e+01	-9.059798e+00
2.987016e+01	-9.103404e+00
3.004269e+01	-9.147274e+00
3.021622e+01	-9.191494e+00
3.039075e+01	-9.235783e+00
3.056628e+01	-9.279705e+00
3.074283e+01	-9.323454e+00
3.092040e+01	-9.367844e+00
3.109900e+01	-9.411988e+00
3.127862e+01	-9.456241e+00
3.145929e+01	-9.500562e+00
3.164099e+01	-9.545031e+00
3.182375e+01	-9.590054e+00
3.200756e+01	-9.634481e+00
3.219244e+01	-9.678781e+00
3.237838e+01	-9.724258e+00
3.256540e+01	-9.768424e+00
3.275349e+01	-9.812730e+00
3.294268e+01	-9.858159e+00
3.313295e+01	-9.903142e+00
3.332433e+01	-9.947675e+00
3.351681e+01	-9.992997e+00
3.371040e+01	-1.003807e+01
3.390511e+01	-1.008296e+01
3.410094e+01	-1.012831e+01
3.429791e+01	-1.017371e+01
3.449601e+01	-1.021846e+01
3.469526e+01	-1.026431e+01
3.489566e+01	-1.030944e+01
3.509721e+01	-1.035474e+01
3.529993e+01	-1.040017e+01
3.550382e+01	-1.044562e+01
3.570889e+01	-1.049136e+01
3.591515e+01	-1.053644e+01
3.612259e+01	-1.058222e+01
3.633123e+01	-1.062761e+01
3.654108e+01	-1.067360e+01
3.675214e+01	-1.071941e+01
3.696442e+01	-1.076572e+01
3.717792e+01	-1.081141e+01
3.739266e+01	-1.085665e+01
3.760864e+01	-1.090292e+01
3.782587e+01	-1.094921e+01
3.804435e+01	-1.099465e+01
3.826409e+01	-1.104129e+01
3.848510e+01	-1.108699e+01
3.870739e+01	-1.113283e+01
3.893096e+01	-1.117951e+01
3.915583e+01	-1.122555e+01
3.938199e+01	-1.127197e+01
3.960946e+01	-1.131855e+01
3.983824e+01	-1.136470e+01
4.006834e+01	-1.141095e+01
4.029978e+01	-1.145724e+01
4.053255e+01	-1.150437e+01
4.076666e+01	-1.155065e+01
4.100213e+01	-1.159714e+01
4.123896e+01	-1.164334e+01
4.147715e+01	-1.169040e+01
4.171672e+01	-1.173675e+01
4.195767e+01	-1.178343e+01
4.220002e+01	-1.183014e+01
4.244377e+01	-1.187636e+01
4.268892e+01	-1.192360e+01
4.293549e+01	-1.197034e+01
4.318348e+01	-1.201731e+01
4.343291e+01	-1.206372e+01
4.368377e+01	-1.211105e+01
4.393609e+01	-1.215816e+01
4.418986e+01	-1.220550e+01
4.444510e+01	-1.225262e+01
4.470182e+01	-1.229927e+01
4.496001e+01	-1.234666e+01
4.521970e+01	-1.239355e+01
4.548089e+01	-1.244007e+01
4.574358e+01	-1.248786e+01
4.600779e+01	-1.253499e+01
4.627353e+01	-1.258220e+01
4.654081e+01	-1.262941e+01
4.680963e+01	-1.267715e+01
4.708000e+01	-1.272439e+01
4.735193e+01	-1.277161e+01
4.762543e+01	-1.281910e+01
4.790051e+01	-1.286633e+01
4.817719e+01	-1.291436e+01
4.845545e+01	-1.296163e+01
4.873533e+01	-1.300897e+01
4.901682e+01	-1.305726e+01
4.929994e+01	-1.310471e+01
4.958470e+01	-1.315252e+01
4.987110e+01	-1.319939e+01
5.015915e+01	-1.324696e+01
5.044887e+01	-1.329447e+01
5.074026e+01	-1.334300e+01
5.103333e+01	-1.339058e+01
5.132810e+01	-1.343803e+01
5.162457e+01	-1.348530e+01
5.192275e+01	-1.353355e+01
5.222265e+01	-1.358139e+01
5.252429e+01	-1.363033e+01
5.282767e+01	-1.367614e+01
5.313280e+01	-1.372467e+01
5.343969e+01	-1.377237e+01
5.374836e+01	-1.382114e+01
5.405880e+01	-1.386946e+01
5.437105e+01	-1.391645e+01
5.468509e+01	-1.396449e+01
5.500095e+01	-1.401298e+01
5.531863e+01	-1.406050e+01
5.563815e+01	-1.410868e+01
5.595951e+01	-1.415714e+01
5.628273e+01	-1.420420e+01
5.660782e+01	-1.425283e+01
5.693479e+01	-1.430170e+01
5.726364e+01	-1.434944e+01
5.759439e+01	-1.439815e+01
5.792705e+01	-1.444636e+01
5.826164e+01	-1.449447e+01
5.859815e+01	-1.454234e+01
5.893662e+01	-1.459107e+01
5.927703e+01	-1.463913e+01
5.961941e+01	-1.468684e+01
5.996377e+01	-1.473594e+01
6.031012e+01	-1.478410e+01
6.065847e+01	-1.483244e+01
6.100883e+01	-1.488147e+01
6.136121e+01	-1.492924e+01
6.171563e+01	-1.497776e+01
6.207210e+01	-1.502622e+01
6.243063e+01	-1.507462e+01
6.279122e+01	-1.512333e+01
6.315390e+01	-1.517236e+01
6.351868e+01	-1.522042e+01
6.388556e+01	-1.526820e+01
6.425456e+01	-1.531750e+01
6.462569e+01	-1.536644e+01
6.499897e+01	-1.541462e+01
6.537440e+01	-1.546340e+01
6.575200e+01	-1.551104e+01
6.613178e+01	-1.555978e+01
6.651375e+01	-1.560825e+01
6.689793e+01	-1.565902e+01
6.728433e+01	-1.570554e+01
6.767297e+01	-1.575521e+01
6.806384e+01	-1.580244e+01
6.845698e+01	-1.585218e+01
6.885238e+01	-1.590160e+01
6.925007e+01	-1.595011e+01
6.965005e+01	-1.599839e+01
7.005235e+01	-1.604667e+01
7.045697e+01	-1.609487e+01
7.086393e+01	-1.614461e+01
7.127323e+01	-1.619255e+01
7.168490e+01	-1.624181e+01
7.209895e+01	-1.629172e+01
7.251539e+01	-1.634049e+01
7.293424e+01	-1.639074e+01
7.335551e+01	-1.643850e+01
7.377920e+01	-1.648687e+01
7.420535e+01	-1.653580e+01
7.463396e+01	-1.658415e+01
7.506504e+01	-1.663349e+01
7.549861e+01	-1.668300e+01
7.593469e+01	-1.673149e+01
7.637328e+01	-1.678066e+01
7.681441e+01	-1.682901e+01
7.725809e+01	-1.687852e+01
7.770433e+01	-1.692768e+01
7.815315e+01	-1.697577e+01
7.860456e+01	-1.702432e+01
7.905857e+01	-1.707451e+01
7.951521e+01	-1.712398e+01
7.997449e+01	-1.717403e+01
8.043642e+01	-1.722343e+01
8.090102e+01	-1.727064e+01
8.136830e+01	-1.731995e+01
8.183828e+01	-1.736931e+01
8.231097e+01	-1.741766e+01
8.278640e+01	-1.746696e+01
8.326457e+01	-1.751735e+01
8.374550e+01	-1.756561e+01
8.422921e+01	-1.761507e+01
8.471572e+01	-1.766454e+01
8.520503e+01	-1.771251e+01
8.569717e+01	-1.776244e+01
8.619215e+01	-1.781246e+01
8.669000e+01	-1.785973e+01
8.719071e+01	-1.790807e+01
8.769432e+01	-1.796100e+01
8.820084e+01	-1.800868e+01
8.871029e+01	-1.805867e+01
8.922267e+01	-1.810721e+01
8.973802e+01	-1.815489e+01
9.025634e+01	-1.820577e+01
9.077766e+01	-1.825507e+01
9.130199e+01	-1.830267e+01
9.182935e+01	-1.835429e+01
9.235975e+01	-1.840311e+01
9.289321e+01	-1.845264e+01
9.342976e+01	-1.850181e+01
9.396941e+01	-1.855124e+01
9.451217e+01	-1.859915e+01
9.505807e+01	-1.864920e+01
9.560712e+01	-1.869825e+01
9.615934e+01	-1.874905e+01
9.671476e+01	-1.879853e+01
9.727338e+01	-1.884796e+01
9.783522e+01	-1.889571e+01
9.840032e+01	-1.894561e+01
9.896867e+01	-1.899520e+01
9.954031e+01	-1.904537e+01
1.001153e+02	-1.909302e+01
1.006935e+02	-1.914381e+01
1.012751e+02	-1.919351e+01
1.018601e+02	-1.924016e+01
1.024484e+02	-1.929093e+01
1.030402e+02	-1.934144e+01
1.036353e+02	-1.939023e+01
1.042339e+02	-1.943987e+01
1.048360e+02	-1.948885e+01
1.054415e+02	-1.953877e+01
1.060505e+02	-1.958913e+01
1.066631e+02	-1.963736e+01
1.072791e+02	-1.968844e+01
1.078988e+02	-1.973772e+01
1.085220e+02	-1.978727e+01
1.091488e+02	-1.983605e+01
1.097793e+02	-1.988494e+01
1.104133e+02	-1.993530e+01
1.110511e+02	-1.998438e+01
1.116925e+02	-2.003510e+01
1.123376e+02	-2.008253e+01
1.129865e+02	-2.013283e+01
1.136391e+02	-2.018482e+01
1.142955e+02	-2.023379e+01
1.149556e+02	-2.028159e+01
1.156196e+02	-2.033148e+01
1.162874e+02	-2.038102e+01
1.169591e+02	-2.043067e+01
1.176347e+02	-2.048084e+01
1.183141e+02	-2.052944e+01
1.189975e+02	-2.057880e+01
1.196848e+02	-2.062942e+01
1.203761e+02	-2.067884e+01
1.210714e+02	-2.072881e+01
1.217707e+02	-2.077654e+01
1.224740e+02	-2.082616e+01
1.231814e+02	-2.087687e+01
1.238929e+02	-2.092638e+01
1.246085e+02	-2.097655e+01
1.253283e+02	-2.102537e+01
1.260522e+02	-2.107488e+01
1.267802e+02	-2.112645e+01
1.275125e+02	-2.117603e+01
1.282490e+02	-2.122532e+01
1.289898e+02	-2.127284e+01
1.297348e+02	-2.132266e+01
1.304842e+02	-2.137429e+01
1.312378e+02	-2.142146e+01
1.319959e+02	-2.147518e+01
1.327583e+02	-2.152106e+01
1.335251e+02	-2.157307e+01
1.342963e+02	-2.162191e+01
1.350720e+02	-2.167182e+01
1.358522e+02	-2.172132e+01
1.366368e+02	-2.177269e+01
1.374260e+02	-2.182125e+01
1.382198e+02	-2.186922e+01
1.390182e+02	-2.192095e+01
1.398211e+02	-2.196865e+01
1.406287e+02	-2.201951e+01
1.414410e+02	-2.206920e+01
1.422579e+02	-2.211753e+01
1.430796e+02	-2.216780e+01
1.439060e+02	-2.221723e+01
1.447372e+02	-2.226864e+01
1.455732e+02	-2.231700e+01
1.464141e+02	-2.236701e+01
1.472597e+02	-2.241915e+01
1.481103e+02	-2.246666e+01
1.489658e+02	-2.251563e+01
1.498262e+02	-2.256666e+01
1.506916e+02	-2.261614e+01
1.515620e+02	-2.266646e+01
1.524374e+02	-2.271715e+01
1.533179e+02	-2.276569e+01
1.542034e+02	-2.281529e+01
1.550941e+02	-2.286558e+01
1.559899e+02	-2.291477e+01
1.568909e+02	-2.296439e+01
1.577971e+02	-2.301348e+01
1.587085e+02	-2.306624e+01
1.596252e+02	-2.311592e+01
1.605472e+02	-2.316479e+01
1.614745e+02	-2.321549e+01
1.624072e+02	-2.326246e+01
1.633453e+02	-2.331355e+01
1.642887e+02	-2.336321e+01
1.652377e+02	-2.341238e+01
1.661921e+02	-2.346395e+01
1.671520e+02	-2.351373e+01
1.681175e+02	-2.356202e+01
1.690885e+02	-2.361217e+01
1.700651e+02	-2.366067e+01
1.710474e+02	-2.371300e+01
1.720354e+02	-2.376214e+01
1.730291e+02	-2.381013e+01
1.740285e+02	-2.386037e+01
1.750337e+02	-2.391323e+01
1.760446e+02	-2.396145e+01
1.770615e+02	-2.401267e+01
1.780842e+02	-2.406090e+01
1.791128e+02	-2.411207e+01
1.801473e+02	-2.416316e+01
1.811878e+02	-2.421131e+01
1.822344e+02	-2.425852e+01
1.832870e+02	-2.431195e+01
1.843456e+02	-2.436001e+01
1.854104e+02	-2.440979e+01
1.864813e+02	-2.445876e+01
1.875584e+02	-2.451130e+01
1.886418e+02	-2.455922e+01
1.897313e+02	-2.460821e+01
1.908272e+02	-2.465958e+01
1.919294e+02	-2.471249e+01
1.930380e+02	-2.476081e+01
1.941530e+02	-2.481156e+01
1.952744e+02	-2.485901e+01
1.964023e+02	-2.490690e+01
1.975367e+02	-2.495606e+01
1.986777e+02	-2.500937e+01
1.998252e+02	-2.505841e+01
2.009794e+02	-2.510661e+01
2.021403e+02	-2.516061e+01
2.033078e+02	-2.520947e+01
2.044821e+02	-2.525894e+01
2.056632e+02	-2.530981e+01
2.068511e+02	-2.535903e+01
2.080459e+02	-2.540758e+01
2.092475e+02	-2.545761e+01
2.104561e+02	-2.550799e+01
2.116717e+02	-2.555915e+01
2.128943e+02	-2.560728e+01
2.141240e+02	-2.565798e+01
2.153608e+02	-2.571015e+01
2.166047e+02	-2.575826e+01
2.178558e+02	-2.580899e+01
2.191141e+02	-2.585469e+01
2.203797e+02	-2.590593e+01
2.216526e+02	-2.595775e+01
2.229329e+02	-2.600988e+01
2.242205e+02	-2.605693e+01
2.255156e+02	-2.610621e+01
2.268182e+02	-2.615804e+01
2.281283e+02	-2.620653e+01
2.294459e+02	-2.625647e+01
2.307712e+02	-2.630467e+01
2.321041e+02	-2.635711e+01
2.334447e+02	-2.640723e+01
2.347931e+02	-2.645776e+01
2.361493e+02	-2.650612e+01
2.375133e+02	-2.655773e+01
2.388851e+02	-2.660818e+01
2.402649e+02	-2.665688e+01
2.416527e+02	-2.670435e+01
2.430484e+02	-2.675602e+01
2.444523e+02	-2.680609e+01
2.458642e+02	-2.685633e+01
2.472843e+02	-2.690431e+01
2.487126e+02	-2.695907e+01
2.501492e+02	-2.700838e+01
2.515940e+02	-2.705826e+01
2.530472e+02	-2.710680e+01
2.545088e+02	-2.715840e+01
2.559789e+02	-2.720661e+01
2.574574e+02	-2.725534e+01
2.589444e+02	-2.730844e+01
2.604401e+02	-2.735573e+01
2.619444e+02	-2.740801e+01
2.634574e+02	-2.745470e+01
2.649791e+02	-2.750771e+01
2.665096e+02	-2.755850e+01
2.680489e+02	-2.760892e+01
2.695972e+02	-2.765568e+01
2.711544e+02	-2.770943e+01
2.727205e+02	-2.775647e+01
2.742958e+02	-2.780444e+01
2.758801e+02	-2.785645e+01
2.774736e+02	-2.790550e+01
2.790762e+02	-2.796007e+01
2.806882e+02	-2.800217e+01
2.823094e+02	-2.805681e+01
2.839400e+02	-2.810949e+01
2.855800e+02	-2.816013e+01
2.872295e+02	-2.820763e+01
2.888886e+02	-2.825859e+01
2.905572e+02	-2.830550e+01
2.922354e+02	-2.835869e+01
2.939234e+02	-2.840885e+01
2.956211e+02	-2.845362e+01
2.973286e+02	-2.850628e+01
2.990459e+02	-2.855544e+01
3.007732e+02	-2.860612e+01
3.025104e+02	-2.865994e+01
3.042577e+02	-2.870842e+01
3.060151e+02	-2.875689e+01
3.077826e+02	-2.880562e+01
3.095604e+02	-2.885788e+01
3.113484e+02	-2.890997e+01
3.131467e+02	-2.895985e+01
3.149554e+02	-2.900694e+01
3.167746e+02	-2.905708e+01
3.186043e+02	-2.910760e+01
3.204445e+02	-2.915925e+01
3.222954e+02	-2.921120e+01
3.241570e+02	-2.925888e+01
3.260293e+02	-2.930612e+01
3.279124e+02	-2.935622e+01
3.298064e+02	-2.940484e+01
3.317114e+02	-2.945847e+01
3.336273e+02	-2.950555e+01
3.355544e+02	-2.955720e+01
3.374925e+02	-2.960983e+01
3.394418e+02	-2.965784e+01
3.414024e+02	-2.970255e+01
3.433744e+02	-2.975760e+01
3.453577e+02	-2.981054e+01
3.473525e+02	-2.985530e+01
3.493588e+02	-2.990951e+01
3.513766e+02	-2.995468e+01
3.534062e+02	-3.000954e+01
3.554474e+02	-3.006002e+01
3.575005e+02	-3.011130e+01
3.595654e+02	-3.015860e+01
3.616422e+02	-3.020987e+01
3.637311e+02	-3.026113e+01
3.658320e+02	-3.030865e+01
3.679450e+02	-3.036292e+01
3.700702e+02	-3.041086e+01
3.722077e+02	-3.046192e+01
3.743576e+02	-3.051555e+01
3.765199e+02	-3.056418e+01
3.786946e+02	-3.061302e+01
3.808820e+02	-3.065797e+01
3.830819e+02	-3.070526e+01
3.852946e+02	-3.076117e+01
3.875200e+02	-3.081238e+01
3.897583e+02	-3.085916e+01
3.920096e+02	-3.091076e+01
3.942738e+02	-3.095319e+01
3.965511e+02	-3.101307e+01
3.988416e+02	-3.105730e+01
4.011452e+02	-3.111249e+01
4.034622e+02	-3.116462e+01
4.057926e+02	-3.121483e+01
4.081365e+02	-3.125840e+01
4.104938e+02	-3.132007e+01
4.128648e+02	-3.136543e+01
4.152495e+02	-3.141457e+01
4.176480e+02	-3.145865e+01
4.200603e+02	-3.151436e+01
4.224866e+02	-3.156490e+01
4.249268e+02	-3.161243e+01
4.273812e+02	-3.166355e+01
4.298497e+02	-3.171539e+01
4.323325e+02	-3.175939e+01
4.348297e+02	-3.181615e+01
4.373412e+02	-3.186230e+01
4.398673e+02	-3.191904e+01
4.424079e+02	-3.196208e+01
4.449633e+02	-3.201539e+01
4.475334e+02	-3.205839e+01
4.501183e+02	-3.211111e+01
4.527182e+02	-3.215618e+01
4.553330e+02	-3.221090e+01
4.579630e+02	-3.227253e+01
4.606082e+02	-3.231405e+01
4.632687e+02	-3.236633e+01
4.659445e+02	-3.241847e+01
4.686358e+02	-3.246448e+01
4.713426e+02	-3.251606e+01
4.740650e+02	-3.257215e+01
4.768032e+02	-3.261713e+01
4.795572e+02	-3.266589e+01
4.823271e+02	-3.271696e+01
4.851130e+02	-3.276636e+01
4.879150e+02	-3.281496e+01
4.907332e+02	-3.286351e+01
4.935676e+02	-3.291924e+01
4.964185e+02	-3.297185e+01
4.992858e+02	-3.302564e+01
5.021696e+02	-3.307298e+01
5.050701e+02	-3.312014e+01
5.079874e+02	-3.316641e+01
5.109215e+02	-3.322242e+01
5.138726e+02	-3.326568e+01
5.168407e+02	-3.330937e+01
5.198259e+02	-3.337376e+01
5.228284e+02	-3.341589e+01
5.258482e+02	-3.347647e+01
5.288855e+02	-3.351691e+01
5.319403e+02	-3.357573e+01
5.350128e+02	-3.361692e+01
5.381030e+02	-3.366199e+01
5.412111e+02	-3.372223e+01
5.443371e+02	-3.377289e+01
5.474812e+02	-3.382357e+01
5.506434e+02	-3.386577e+01
5.538239e+02	-3.392793e+01
5.570228e+02	-3.397769e+01
5.602401e+02	-3.401766e+01
5.634760e+02	-3.407730e+01
5.667306e+02	-3.412795e+01
5.700040e+02	-3.417528e+01
5.732964e+02	-3.423010e+01
5.766077e+02	-3.427732e+01
5.799382e+02	-3.432826e+01
5.832879e+02	-3.438567e+01
5.866569e+02	-3.442392e+01
5.900454e+02	-3.447711e+01
5.934535e+02	-3.452433e+01
5.968813e+02	-3.457752e+01
6.003288e+02	-3.462493e+01
6.037963e+02	-3.468013e+01
6.072838e+02	-3.472446e+01
6.107914e+02	-3.477898e+01
6.143194e+02	-3.482586e+01
6.178676e+02	-3.487820e+01
6.214364e+02	-3.494022e+01
6.250258e+02	-3.497786e+01
6.286359e+02	-3.502990e+01
6.322669e+02	-3.508264e+01
6.359189e+02	-3.513403e+01
6.395919e+02	-3.518025e+01
6.432862e+02	-3.523334e+01
6.470017e+02	-3.527998e+01
6.507388e+02	-3.532896e+01
6.544974e+02	-3.538904e+01
6.582778e+02	-3.543649e+01
6.620800e+02	-3.548945e+01
6.659041e+02	-3.553660e+01
6.697504e+02	-3.558192e+01
6.736188e+02	-3.563144e+01
6.775096e+02	-3.568720e+01
6.814229e+02	-3.573475e+01
6.853587e+02	-3.578400e+01
6.893173e+02	-3.584218e+01
6.932988e+02	-3.588927e+01
6.973033e+02	-3.592972e+01
7.013309e+02	-3.598998e+01
