Frequency(Hz)	Magnitude(dB)
1.000000e+01	-1.882104e-05
1.005776e+01	-1.903908e-05
1.011585e+01	-1.925965e-05
1.017428e+01	-1.948278e-05
1.023305e+01	-1.970850e-05
1.029215e+01	-1.993682e-05
1.035160e+01	-2.016780e-05
1.041139e+01	-2.040145e-05
1.047153e+01	-2.063780e-05
1.053201e+01	-2.087690e-05
1.059284e+01	-2.111876e-05
1.065403e+01	-2.136343e-05
1.071556e+01	-2.161093e-05
1.077746e+01	-2.186129e-05
1.083971e+01	-2.211456e-05
1.090232e+01	-2.237077e-05
1.096529e+01	-2.262994e-05
1.102862e+01	-2.289211e-05
1.109232e+01	-2.315732e-05
1.115639e+01	-2.342560e-05
1.122083e+01	-2.369700e-05
1.128564e+01	-2.397153e-05
1.135083e+01	-2.424925e-05
1.141639e+01	-2.453018e-05
1.148233e+01	-2.481437e-05
1.154865e+01	-2.510185e-05
1.161536e+01	-2.539266e-05
1.168245e+01	-2.568684e-05
1.174992e+01	-2.598443e-05
1.181779e+01	-2.628547e-05
1.188605e+01	-2.658999e-05
1.195470e+01	-2.689804e-05
1.202375e+01	-2.720966e-05
1.209320e+01	-2.752489e-05
1.216305e+01	-2.784377e-05
1.223330e+01	-2.816635e-05
1.230396e+01	-2.849266e-05
1.237503e+01	-2.882276e-05
1.244651e+01	-2.915668e-05
1.251840e+01	-2.949446e-05
1.259070e+01	-2.983617e-05
1.266343e+01	-3.018182e-05
1.273657e+01	-3.053149e-05
1.281014e+01	-3.088520e-05
1.288413e+01	-3.124301e-05
1.295855e+01	-3.160497e-05
1.303339e+01	-3.197112e-05
1.310867e+01	-3.234152e-05
1.318439e+01	-3.271620e-05
1.326054e+01	-3.309523e-05
1.333713e+01	-3.347864e-05
1.341417e+01	-3.386650e-05
1.349165e+01	-3.425885e-05
1.356958e+01	-3.465575e-05
1.364795e+01	-3.505724e-05
1.372678e+01	-3.546339e-05
1.380607e+01	-3.587424e-05
1.388581e+01	-3.628985e-05
1.396602e+01	-3.671028e-05
1.404668e+01	-3.713558e-05
1.412782e+01	-3.756580e-05
1.420942e+01	-3.800101e-05
1.429149e+01	-3.844126e-05
1.437404e+01	-3.888661e-05
1.445706e+01	-3.933712e-05
1.454057e+01	-3.979285e-05
1.462455e+01	-4.025386e-05
1.470902e+01	-4.072021e-05
1.479398e+01	-4.119196e-05
1.487943e+01	-4.166918e-05
1.496537e+01	-4.215193e-05
1.505181e+01	-4.264027e-05
1.513875e+01	-4.313426e-05
1.522619e+01	-4.363398e-05
1.531414e+01	-4.413949e-05
1.540259e+01	-4.465086e-05
1.549156e+01	-4.516815e-05
1.558103e+01	-4.569143e-05
1.567103e+01	-4.622078e-05
1.576155e+01	-4.675625e-05
1.585258e+01	-4.729793e-05
1.594415e+01	-4.784589e-05
1.603624e+01	-4.840020e-05
1.612886e+01	-4.896092e-05
1.622202e+01	-4.952815e-05
1.631572e+01	-5.010194e-05
1.640996e+01	-5.068238e-05
1.650474e+01	-5.126955e-05
1.660008e+01	-5.186352e-05
1.669596e+01	-5.246437e-05
1.679239e+01	-5.307218e-05
1.688938e+01	-5.368703e-05
1.698694e+01	-5.430900e-05
1.708505e+01	-5.493818e-05
1.718373e+01	-5.557466e-05
1.728299e+01	-5.621850e-05
1.738281e+01	-5.686980e-05
1.748322e+01	-5.752865e-05
1.758420e+01	-5.819513e-05
1.768576e+01	-5.886933e-05
1.778792e+01	-5.955135e-05
1.789066e+01	-6.024126e-05
1.799399e+01	-6.093917e-05
1.809793e+01	-6.164516e-05
1.820246e+01	-6.235933e-05
1.830760e+01	-6.308178e-05
1.841334e+01	-6.381259e-05
1.851969e+01	-6.455187e-05
1.862666e+01	-6.529972e-05
1.873425e+01	-6.605623e-05
1.884246e+01	-6.682150e-05
1.895129e+01	-6.759564e-05
1.906075e+01	-6.837875e-05
1.917085e+01	-6.917093e-05
1.928158e+01	-6.997229e-05
1.939295e+01	-7.078293e-05
1.950496e+01	-7.160296e-05
1.961762e+01	-7.243250e-05
1.973093e+01	-7.327164e-05
1.984490e+01	-7.412051e-05
1.995952e+01	-7.497921e-05
2.007480e+01	-7.584785e-05
2.019076e+01	-7.672656e-05
2.030738e+01	-7.761545e-05
2.042467e+01	-7.851464e-05
2.054264e+01	-7.942425e-05
2.066130e+01	-8.034439e-05
2.078064e+01	-8.127520e-05
2.090066e+01	-8.221678e-05
2.102139e+01	-8.316928e-05
2.114280e+01	-8.413281e-05
2.126492e+01	-8.510750e-05
2.138775e+01	-8.609348e-05
2.151128e+01	-8.709089e-05
2.163553e+01	-8.809985e-05
2.176050e+01	-8.912050e-05
2.188619e+01	-9.015298e-05
2.201260e+01	-9.119742e-05
2.213974e+01	-9.225395e-05
2.226762e+01	-9.332273e-05
2.239624e+01	-9.440389e-05
2.252560e+01	-9.549757e-05
2.265571e+01	-9.660392e-05
2.278656e+01	-9.772310e-05
2.291818e+01	-9.885523e-05
2.305055e+01	-1.000005e-04
2.318369e+01	-1.011590e-04
2.331760e+01	-1.023309e-04
2.345228e+01	-1.035165e-04
2.358774e+01	-1.047157e-04
2.372398e+01	-1.059289e-04
2.386101e+01	-1.071561e-04
2.399883e+01	-1.083975e-04
2.413745e+01	-1.096533e-04
2.427686e+01	-1.109236e-04
2.441709e+01	-1.122087e-04
2.455812e+01	-1.135086e-04
2.469997e+01	-1.148237e-04
2.484263e+01	-1.161539e-04
2.498612e+01	-1.174996e-04
2.513044e+01	-1.188608e-04
2.527559e+01	-1.202378e-04
2.542158e+01	-1.216308e-04
2.556842e+01	-1.230399e-04
2.571610e+01	-1.244653e-04
2.586463e+01	-1.259073e-04
2.601403e+01	-1.273659e-04
2.616428e+01	-1.288415e-04
2.631541e+01	-1.303341e-04
2.646740e+01	-1.318440e-04
2.662028e+01	-1.333715e-04
2.677404e+01	-1.349166e-04
2.692868e+01	-1.364796e-04
2.708422e+01	-1.380607e-04
2.724066e+01	-1.396602e-04
2.739800e+01	-1.412782e-04
2.755625e+01	-1.429149e-04
2.771541e+01	-1.445706e-04
2.787550e+01	-1.462454e-04
2.803650e+01	-1.479397e-04
2.819844e+01	-1.496536e-04
2.836131e+01	-1.513873e-04
2.852513e+01	-1.531412e-04
2.868989e+01	-1.549153e-04
2.885560e+01	-1.567100e-04
2.902227e+01	-1.585255e-04
2.918990e+01	-1.603621e-04
2.935850e+01	-1.622199e-04
2.952807e+01	-1.640992e-04
2.969863e+01	-1.660003e-04
2.987016e+01	-1.679234e-04
3.004269e+01	-1.698688e-04
3.021622e+01	-1.718368e-04
3.039075e+01	-1.738275e-04
3.056628e+01	-1.758413e-04
3.074283e+01	-1.778784e-04
3.092040e+01	-1.799391e-04
3.109900e+01	-1.820237e-04
3.127862e+01	-1.841325e-04
3.145929e+01	-1.862657e-04
3.164099e+01	-1.884236e-04
3.182375e+01	-1.906065e-04
3.200756e+01	-1.928146e-04
3.219244e+01	-1.950484e-04
3.237838e+01	-1.973080e-04
3.256540e+01	-1.995939e-04
3.275349e+01	-2.019062e-04
3.294268e+01	-2.042452e-04
3.313295e+01	-2.066114e-04
3.332433e+01	-2.090050e-04
3.351681e+01	-2.114263e-04
3.371040e+01	-2.138757e-04
3.390511e+01	-2.163535e-04
3.410094e+01	-2.188599e-04
3.429791e+01	-2.213954e-04
3.449601e+01	-2.239603e-04
3.469526e+01	-2.265548e-04
3.489566e+01	-2.291795e-04
3.509721e+01	-2.318345e-04
3.529993e+01	-2.345203e-04
3.550382e+01	-2.372372e-04
3.570889e+01	-2.399856e-04
3.591515e+01	-2.427658e-04
3.612259e+01	-2.455782e-04
3.633123e+01	-2.484233e-04
3.654108e+01	-2.513012e-04
3.675214e+01	-2.542125e-04
3.696442e+01	-2.571576e-04
3.717792e+01	-2.601367e-04
3.739266e+01	-2.631504e-04
3.760864e+01	-2.661990e-04
3.782587e+01	-2.692829e-04
3.804435e+01	-2.724025e-04
3.826409e+01	-2.755582e-04
3.848510e+01	-2.787505e-04
3.870739e+01	-2.819798e-04
3.893096e+01	-2.852466e-04
3.915583e+01	-2.885511e-04
3.938199e+01	-2.918939e-04
3.960946e+01	-2.952755e-04
3.983824e+01	-2.986962e-04
4.006834e+01	-3.021566e-04
4.029978e+01	-3.056570e-04
4.053255e+01	-3.091980e-04
4.076666e+01	-3.127800e-04
4.100213e+01	-3.164036e-04
4.123896e+01	-3.200690e-04
4.147715e+01	-3.237770e-04
4.171672e+01	-3.275279e-04
4.195767e+01	-3.313223e-04
4.220002e+01	-3.351606e-04
4.244377e+01	-3.390433e-04
4.268892e+01	-3.429711e-04
4.293549e+01	-3.469444e-04
4.318348e+01	-3.509636e-04
4.343291e+01	-3.550295e-04
4.368377e+01	-3.591424e-04
4.393609e+01	-3.633030e-04
4.418986e+01	-3.675118e-04
4.444510e+01	-3.717693e-04
4.470182e+01	-3.760762e-04
4.496001e+01	-3.804330e-04
4.521970e+01	-3.848402e-04
4.548089e+01	-3.892985e-04
4.574358e+01	-3.938084e-04
4.600779e+01	-3.983706e-04
4.627353e+01	-4.029856e-04
4.654081e+01	-4.076541e-04
4.680963e+01	-4.123766e-04
4.708000e+01	-4.171539e-04
4.735193e+01	-4.219865e-04
4.762543e+01	-4.268751e-04
4.790051e+01	-4.318203e-04
4.817719e+01	-4.368228e-04
4.845545e+01	-4.418833e-04
4.873533e+01	-4.470024e-04
4.901682e+01	-4.521807e-04
4.929994e+01	-4.574191e-04
4.958470e+01	-4.627181e-04
4.987110e+01	-4.680786e-04
5.015915e+01	-4.735011e-04
5.044887e+01	-4.789864e-04
5.074026e+01	-4.845353e-04
5.103333e+01	-4.901485e-04
5.132810e+01	-4.958267e-04
5.162457e+01	-5.015706e-04
5.192275e+01	-5.073811e-04
5.222265e+01	-5.132589e-04
5.252429e+01	-5.192048e-04
5.282767e+01	-5.252196e-04
5.313280e+01	-5.313040e-04
5.343969e+01	-5.374589e-04
5.374836e+01	-5.436852e-04
5.405880e+01	-5.499835e-04
5.437105e+01	-5.563548e-04
5.468509e+01	-5.627999e-04
5.500095e+01	-5.693197e-04
5.531863e+01	-5.759150e-04
5.563815e+01	-5.825867e-04
5.595951e+01	-5.893356e-04
5.628273e+01	-5.961628e-04
5.660782e+01	-6.030690e-04
5.693479e+01	-6.100552e-04
5.726364e+01	-6.171224e-04
5.759439e+01	-6.242714e-04
5.792705e+01	-6.315032e-04
5.826164e+01	-6.388188e-04
5.859815e+01	-6.462192e-04
5.893662e+01	-6.537052e-04
5.927703e+01	-6.612780e-04
5.961941e+01	-6.689385e-04
5.996377e+01	-6.766877e-04
6.031012e+01	-6.845267e-04
6.065847e+01	-6.924565e-04
6.100883e+01	-7.004782e-04
6.136121e+01	-7.085928e-04
6.171563e+01	-7.168013e-04
6.207210e+01	-7.251050e-04
6.243063e+01	-7.335048e-04
6.279122e+01	-7.420019e-04
6.315390e+01	-7.505975e-04
6.351868e+01	-7.592926e-04
6.388556e+01	-7.680884e-04
6.425456e+01	-7.769862e-04
6.462569e+01	-7.859869e-04
6.499897e+01	-7.950920e-04
6.537440e+01	-8.043025e-04
6.575200e+01	-8.136197e-04
6.613178e+01	-8.230448e-04
6.651375e+01	-8.325791e-04
6.689793e+01	-8.422238e-04
6.728433e+01	-8.519802e-04
6.767297e+01	-8.618497e-04
6.806384e+01	-8.718335e-04
6.845698e+01	-8.819329e-04
6.885238e+01	-8.921492e-04
6.925007e+01	-9.024840e-04
6.965005e+01	-9.129384e-04
7.005235e+01	-9.235139e-04
7.045697e+01	-9.342119e-04
7.086393e+01	-9.450338e-04
7.127323e+01	-9.559811e-04
7.168490e+01	-9.670552e-04
7.209895e+01	-9.782575e-04
7.251539e+01	-9.895896e-04
7.293424e+01	-1.001053e-03
7.335551e+01	-1.012649e-03
7.377920e+01	-1.024379e-03
7.420535e+01	-1.036246e-03
7.463396e+01	-1.048250e-03
7.506504e+01	-1.060392e-03
7.549861e+01	-1.072676e-03
7.593469e+01	-1.085101e-03
7.637328e+01	-1.097671e-03
7.681441e+01	-1.110386e-03
7.725809e+01	-1.123249e-03
7.770433e+01	-1.136260e-03
7.815315e+01	-1.149422e-03
7.860456e+01	-1.162737e-03
7.905857e+01	-1.176206e-03
7.951521e+01	-1.189830e-03
7.997449e+01	-1.203613e-03
8.043642e+01	-1.217555e-03
8.090102e+01	-1.231659e-03
8.136830e+01	-1.245926e-03
8.183828e+01	-1.260358e-03
8.231097e+01	-1.274958e-03
8.278640e+01	-1.289726e-03
8.326457e+01	-1.304666e-03
8.374550e+01	-1.319778e-03
8.422921e+01	-1.335066e-03
8.471572e+01	-1.350531e-03
8.520503e+01	-1.366175e-03
8.569717e+01	-1.382000e-03
8.619215e+01	-1.398008e-03
8.669000e+01	-1.414202e-03
8.719071e+01	-1.430583e-03
8.769432e+01	-1.447154e-03
8.820084e+01	-1.463917e-03
8.871029e+01	-1.480873e-03
8.922267e+01	-1.498027e-03
8.973802e+01	-1.515379e-03
9.025634e+01	-1.532932e-03
9.077766e+01	-1.550688e-03
9.130199e+01	-1.568650e-03
9.182935e+01	-1.586820e-03
9.235975e+01	-1.605200e-03
9.289321e+01	-1.623793e-03
9.342976e+01	-1.642602e-03
9.396941e+01	-1.661628e-03
9.451217e+01	-1.680875e-03
9.505807e+01	-1.700345e-03
9.560712e+01	-1.720040e-03
9.615934e+01	-1.739963e-03
9.671476e+01	-1.760117e-03
9.727338e+01	-1.780504e-03
9.783522e+01	-1.801127e-03
9.840032e+01	-1.821989e-03
9.896867e+01	-1.843093e-03
9.954031e+01	-1.864441e-03
1.001153e+02	-1.886037e-03
1.006935e+02	-1.907882e-03
1.012751e+02	-1.929980e-03
1.018601e+02	-1.952335e-03
1.024484e+02	-1.974948e-03
1.030402e+02	-1.997823e-03
1.036353e+02	-2.020963e-03
1.042339e+02	-2.044371e-03
1.048360e+02	-2.068050e-03
1.054415e+02	-2.092003e-03
1.060505e+02	-2.116233e-03
1.066631e+02	-2.140744e-03
1.072791e+02	-2.165539e-03
1.078988e+02	-2.190621e-03
1.085220e+02	-2.215994e-03
1.091488e+02	-2.241660e-03
1.097793e+02	-2.267623e-03
1.104133e+02	-2.293888e-03
1.110511e+02	-2.320456e-03
1.116925e+02	-2.347332e-03
1.123376e+02	-2.374519e-03
1.129865e+02	-2.402020e-03
1.136391e+02	-2.429841e-03
1.142955e+02	-2.457983e-03
1.149556e+02	-2.486451e-03
1.156196e+02	-2.515249e-03
1.162874e+02	-2.544380e-03
1.169591e+02	-2.573849e-03
1.176347e+02	-2.603659e-03
1.183141e+02	-2.633814e-03
1.189975e+02	-2.664318e-03
1.196848e+02	-2.695175e-03
1.203761e+02	-2.726389e-03
1.210714e+02	-2.757965e-03
1.217707e+02	-2.789907e-03
1.224740e+02	-2.822218e-03
1.231814e+02	-2.854903e-03
1.238929e+02	-2.887967e-03
1.246085e+02	-2.921414e-03
1.253283e+02	-2.955248e-03
1.260522e+02	-2.989473e-03
1.267802e+02	-3.024095e-03
1.275125e+02	-3.059118e-03
1.282490e+02	-3.094546e-03
1.289898e+02	-3.130384e-03
1.297348e+02	-3.166637e-03
1.304842e+02	-3.203310e-03
1.312378e+02	-3.240407e-03
1.319959e+02	-3.277934e-03
1.327583e+02	-3.315895e-03
1.335251e+02	-3.354296e-03
1.342963e+02	-3.393141e-03
1.350720e+02	-3.432436e-03
1.358522e+02	-3.472185e-03
1.366368e+02	-3.512395e-03
1.374260e+02	-3.553071e-03
1.382198e+02	-3.594217e-03
1.390182e+02	-3.635839e-03
1.398211e+02	-3.677944e-03
1.406287e+02	-3.720535e-03
1.414410e+02	-3.763620e-03
1.422579e+02	-3.807203e-03
1.430796e+02	-3.851291e-03
1.439060e+02	-3.895889e-03
1.447372e+02	-3.941004e-03
1.455732e+02	-3.986640e-03
1.464141e+02	-4.032805e-03
1.472597e+02	-4.079504e-03
1.481103e+02	-4.126744e-03
1.489658e+02	-4.174530e-03
1.498262e+02	-4.222870e-03
1.506916e+02	-4.271769e-03
1.515620e+02	-4.321234e-03
1.524374e+02	-4.371271e-03
1.533179e+02	-4.421887e-03
1.542034e+02	-4.473090e-03
1.550941e+02	-4.524884e-03
1.559899e+02	-4.577279e-03
1.568909e+02	-4.630279e-03
1.577971e+02	-4.683893e-03
1.587085e+02	-4.738128e-03
1.596252e+02	-4.792990e-03
1.605472e+02	-4.848487e-03
1.614745e+02	-4.904626e-03
1.624072e+02	-4.961415e-03
1.633453e+02	-5.018861e-03
1.642887e+02	-5.076972e-03
1.652377e+02	-5.135755e-03
1.661921e+02	-5.195218e-03
1.671520e+02	-5.255370e-03
1.681175e+02	-5.316217e-03
1.690885e+02	-5.377769e-03
1.700651e+02	-5.440032e-03
1.710474e+02	-5.503017e-03
1.720354e+02	-5.566730e-03
1.730291e+02	-5.631180e-03
1.740285e+02	-5.696375e-03
1.750337e+02	-5.762326e-03
1.760446e+02	-5.829039e-03
1.770615e+02	-5.896524e-03
1.780842e+02	-5.964789e-03
1.791128e+02	-6.033845e-03
1.801473e+02	-6.103699e-03
1.811878e+02	-6.174362e-03
1.822344e+02	-6.245842e-03
1.832870e+02	-6.318149e-03
1.843456e+02	-6.391292e-03
1.854104e+02	-6.465282e-03
1.864813e+02	-6.540127e-03
1.875584e+02	-6.615838e-03
1.886418e+02	-6.692425e-03
1.897313e+02	-6.769898e-03
1.908272e+02	-6.848267e-03
1.919294e+02	-6.927543e-03
1.930380e+02	-7.007735e-03
1.941530e+02	-7.088855e-03
1.952744e+02	-7.170913e-03
1.964023e+02	-7.253920e-03
1.975367e+02	-7.337888e-03
1.986777e+02	-7.422826e-03
1.998252e+02	-7.508747e-03
2.009794e+02	-7.595662e-03
2.021403e+02	-7.683581e-03
2.033078e+02	-7.772518e-03
2.044821e+02	-7.862482e-03
2.056632e+02	-7.953488e-03
2.068511e+02	-8.045545e-03
2.080459e+02	-8.138667e-03
2.092475e+02	-8.232866e-03
2.104561e+02	-8.328154e-03
2.116717e+02	-8.424544e-03
2.128943e+02	-8.522049e-03
2.141240e+02	-8.620681e-03
2.153608e+02	-8.720453e-03
2.166047e+02	-8.821379e-03
2.178558e+02	-8.923471e-03
2.191141e+02	-9.026744e-03
2.203797e+02	-9.131211e-03
2.216526e+02	-9.236886e-03
2.229329e+02	-9.343782e-03
2.242205e+02	-9.451914e-03
2.255156e+02	-9.561296e-03
2.268182e+02	-9.671942e-03
2.281283e+02	-9.783868e-03
2.294459e+02	-9.897087e-03
2.307712e+02	-1.001161e-02
2.321041e+02	-1.012747e-02
2.334447e+02	-1.024466e-02
2.347931e+02	-1.036320e-02
2.361493e+02	-1.048312e-02
2.375133e+02	-1.060442e-02
2.388851e+02	-1.072712e-02
2.402649e+02	-1.085124e-02
2.416527e+02	-1.097680e-02
2.430484e+02	-1.110380e-02
2.444523e+02	-1.123227e-02
2.458642e+02	-1.136223e-02
2.472843e+02	-1.149369e-02
2.487126e+02	-1.162667e-02
2.501492e+02	-1.176119e-02
2.515940e+02	-1.189726e-02
2.530472e+02	-1.203490e-02
2.545088e+02	-1.217413e-02
2.559789e+02	-1.231497e-02
2.574574e+02	-1.245743e-02
2.589444e+02	-1.260155e-02
2.604401e+02	-1.274732e-02
2.619444e+02	-1.289478e-02
2.634574e+02	-1.304395e-02
2.649791e+02	-1.319484e-02
2.665096e+02	-1.334747e-02
2.680489e+02	-1.350186e-02
2.695972e+02	-1.365803e-02
2.711544e+02	-1.381601e-02
2.727205e+02	-1.397582e-02
2.742958e+02	-1.413747e-02
2.758801e+02	-1.430098e-02
2.774736e+02	-1.446639e-02
2.790762e+02	-1.463370e-02
2.806882e+02	-1.480294e-02
2.823094e+02	-1.497414e-02
2.839400e+02	-1.514732e-02
2.855800e+02	-1.532249e-02
2.872295e+02	-1.549969e-02
2.888886e+02	-1.567893e-02
2.905572e+02	-1.586025e-02
2.922354e+02	-1.604365e-02
2.939234e+02	-1.622917e-02
2.956211e+02	-1.641683e-02
2.973286e+02	-1.660666e-02
2.990459e+02	-1.679868e-02
3.007732e+02	-1.699292e-02
3.025104e+02	-1.718939e-02
3.042577e+02	-1.738814e-02
3.060151e+02	-1.758917e-02
3.077826e+02	-1.779253e-02
3.095604e+02	-1.799823e-02
3.113484e+02	-1.820631e-02
3.131467e+02	-1.841678e-02
3.149554e+02	-1.862969e-02
3.167746e+02	-1.884505e-02
3.186043e+02	-1.906289e-02
3.204445e+02	-1.928325e-02
3.222954e+02	-1.950615e-02
3.241570e+02	-1.973162e-02
3.260293e+02	-1.995968e-02
3.279124e+02	-2.019038e-02
3.298064e+02	-2.042374e-02
3.317114e+02	-2.065979e-02
3.336273e+02	-2.089856e-02
3.355544e+02	-2.114009e-02
3.374925e+02	-2.138440e-02
3.394418e+02	-2.163152e-02
3.414024e+02	-2.188149e-02
3.433744e+02	-2.213435e-02
3.453577e+02	-2.239012e-02
3.473525e+02	-2.264883e-02
3.493588e+02	-2.291053e-02
3.513766e+02	-2.317525e-02
3.534062e+02	-2.344301e-02
3.554474e+02	-2.371386e-02
3.575005e+02	-2.398783e-02
3.595654e+02	-2.426496e-02
3.616422e+02	-2.454527e-02
3.637311e+02	-2.482882e-02
3.658320e+02	-2.511564e-02
3.679450e+02	-2.540575e-02
3.700702e+02	-2.569921e-02
3.722077e+02	-2.599605e-02
3.743576e+02	-2.629631e-02
3.765199e+02	-2.660002e-02
3.786946e+02	-2.690723e-02
3.808820e+02	-2.721798e-02
3.830819e+02	-2.753230e-02
3.852946e+02	-2.785025e-02
3.875200e+02	-2.817185e-02
3.897583e+02	-2.849715e-02
3.920096e+02	-2.882620e-02
3.942738e+02	-2.915904e-02
3.965511e+02	-2.949570e-02
3.988416e+02	-2.983624e-02
4.011452e+02	-3.018070e-02
4.034622e+02	-3.052911e-02
4.057926e+02	-3.088154e-02
4.081365e+02	-3.123802e-02
4.104938e+02	-3.159860e-02
4.128648e+02	-3.196333e-02
4.152495e+02	-3.233225e-02
4.176480e+02	-3.270541e-02
4.200603e+02	-3.308287e-02
4.224866e+02	-3.346466e-02
4.249268e+02	-3.385084e-02
4.273812e+02	-3.424146e-02
4.298497e+02	-3.463657e-02
4.323325e+02	-3.503622e-02
4.348297e+02	-3.544047e-02
4.373412e+02	-3.584936e-02
4.398673e+02	-3.626294e-02
4.424079e+02	-3.668128e-02
4.449633e+02	-3.710442e-02
4.475334e+02	-3.753242e-02
4.501183e+02	-3.796534e-02
4.527182e+02	-3.840323e-02
4.553330e+02	-3.884615e-02
4.579630e+02	-3.929415e-02
4.606082e+02	-3.974729e-02
4.632687e+02	-4.020564e-02
4.659445e+02	-4.066925e-02
4.686358e+02	-4.113817e-02
4.713426e+02	-4.161248e-02
4.740650e+02	-4.209223e-02
4.768032e+02	-4.257749e-02
4.795572e+02	-4.306831e-02
4.823271e+02	-4.356476e-02
4.851130e+02	-4.406690e-02
4.879150e+02	-4.457480e-02
4.907332e+02	-4.508853e-02
4.935676e+02	-4.560814e-02
4.964185e+02	-4.613371e-02
4.992858e+02	-4.666531e-02
5.021696e+02	-4.720299e-02
5.050701e+02	-4.774684e-02
5.079874e+02	-4.829692e-02
5.109215e+02	-4.885330e-02
5.138726e+02	-4.941605e-02
5.168407e+02	-4.998525e-02
5.198259e+02	-5.056097e-02
5.228284e+02	-5.114327e-02
5.258482e+02	-5.173225e-02
5.288855e+02	-5.232796e-02
5.319403e+02	-5.293050e-02
5.350128e+02	-5.353993e-02
5.381030e+02	-5.415633e-02
5.412111e+02	-5.477978e-02
5.443371e+02	-5.541037e-02
5.474812e+02	-5.604816e-02
5.506434e+02	-5.669325e-02
5.538239e+02	-5.734572e-02
5.570228e+02	-5.800564e-02
5.602401e+02	-5.867311e-02
5.634760e+02	-5.934820e-02
5.667306e+02	-6.003101e-02
5.700040e+02	-6.072162e-02
5.732964e+02	-6.142012e-02
5.766077e+02	-6.212659e-02
5.799382e+02	-6.284113e-02
5.832879e+02	-6.356383e-02
5.866569e+02	-6.429478e-02
5.900454e+02	-6.503408e-02
5.934535e+02	-6.578180e-02
5.968813e+02	-6.653806e-02
6.003288e+02	-6.730295e-02
6.037963e+02	-6.807656e-02
6.072838e+02	-6.885899e-02
6.107914e+02	-6.965034e-02
6.143194e+02	-7.045071e-02
6.178676e+02	-7.126020e-02
6.214364e+02	-7.207892e-02
6.250258e+02	-7.290697e-02
6.286359e+02	-7.374444e-02
6.322669e+02	-7.459145e-02
6.359189e+02	-7.544811e-02
6.395919e+02	-7.631452e-02
6.432862e+02	-7.719079e-02
6.470017e+02	-7.807703e-02
6.507388e+02	-7.897335e-02
6.544974e+02	-7.987987e-02
6.582778e+02	-8.079670e-02
6.620800e+02	-8.172395e-02
6.659041e+02	-8.266174e-02
6.697504e+02	-8.361018e-02
6.736188e+02	-8.456941e-02
6.775096e+02	-8.553953e-02
6.814229e+02	-8.652066e-02
6.853587e+02	-8.751294e-02
6.893173e+02	-8.851648e-02
6.932988e+02	-8.953141e-02
6.973033e+02	-9.055785e-02
7.013309e+02	-9.159594e-02
