Frequency(Hz)	Magnitude(dB)
1.000000e+01	-2.025802e+00
1.005776e+01	-2.044523e+00
1.011585e+01	-2.063364e+00
1.017428e+01	-2.082330e+00
1.023305e+01	-2.101698e+00
1.029215e+01	-2.120882e+00
1.035160e+01	-2.140114e+00
1.041139e+01	-2.159874e+00
1.047153e+01	-2.179229e+00
1.053201e+01	-2.199129e+00
1.059284e+01	-2.219238e+00
1.065403e+01	-2.239265e+00
1.071556e+01	-2.259489e+00
1.077746e+01	-2.279979e+00
1.083971e+01	-2.300156e+00
1.090232e+01	-2.320988e+00
1.096529e+01	-2.341899e+00
1.102862e+01	-2.362892e+00
1.109232e+01	-2.383929e+00
1.115639e+01	-2.404844e+00
1.122083e+01	-2.426162e+00
1.128564e+01	-2.447787e+00
1.135083e+01	-2.469600e+00
1.141639e+01	-2.491159e+00
1.148233e+01	-2.513256e+00
1.154865e+01	-2.535057e+00
1.161536e+01	-2.557150e+00
1.168245e+01	-2.579464e+00
1.174992e+01	-2.602190e+00
1.181779e+01	-2.624940e+00
1.188605e+01	-2.647714e+00
1.195470e+01	-2.670178e+00
1.202375e+01	-2.693255e+00
1.209320e+01	-2.716762e+00
1.216305e+01	-2.740156e+00
1.223330e+01	-2.763264e+00
1.230396e+01	-2.787141e+00
1.237503e+01	-2.810877e+00
1.244651e+01	-2.834599e+00
1.251840e+01	-2.858828e+00
1.259070e+01	-2.882713e+00
1.266343e+01	-2.907386e+00
1.273657e+01	-2.931814e+00
1.281014e+01	-2.956448e+00
1.288413e+01	-2.981154e+00
1.295855e+01	-3.006313e+00
1.303339e+01	-3.031294e+00
1.310867e+01	-3.056695e+00
1.318439e+01	-3.081747e+00
1.326054e+01	-3.107270e+00
1.333713e+01	-3.132840e+00
1.341417e+01	-3.158662e+00
1.349165e+01	-3.184580e+00
1.356958e+01	-3.210478e+00
1.364795e+01	-3.236747e+00
1.372678e+01	-3.263022e+00
1.380607e+01	-3.289904e+00
1.388581e+01	-3.316594e+00
1.396602e+01	-3.343198e+00
1.404668e+01	-3.370174e+00
1.412782e+01	-3.397209e+00
1.420942e+01	-3.424326e+00
1.429149e+01	-3.451496e+00
1.437404e+01	-3.479242e+00
1.445706e+01	-3.507088e+00
1.454057e+01	-3.534480e+00
1.462455e+01	-3.562682e+00
1.470902e+01	-3.590624e+00
1.479398e+01	-3.618741e+00
1.487943e+01	-3.647287e+00
1.496537e+01	-3.675457e+00
1.505181e+01	-3.704277e+00
1.513875e+01	-3.733150e+00
1.522619e+01	-3.762039e+00
1.531414e+01	-3.791129e+00
1.540259e+01	-3.820060e+00
1.549156e+01	-3.849887e+00
1.558103e+01	-3.879065e+00
1.567103e+01	-3.908662e+00
1.576155e+01	-3.938577e+00
1.585258e+01	-3.968266e+00
1.594415e+01	-3.998354e+00
1.603624e+01	-4.028679e+00
1.612886e+01	-4.059052e+00
1.622202e+01	-4.089440e+00
1.631572e+01	-4.119967e+00
1.640996e+01	-4.150482e+00
1.650474e+01	-4.181382e+00
1.660008e+01	-4.212573e+00
1.669596e+01	-4.243712e+00
1.679239e+01	-4.274886e+00
1.688938e+01	-4.306379e+00
1.698694e+01	-4.337566e+00
1.708505e+01	-4.369688e+00
1.718373e+01	-4.401449e+00
1.728299e+01	-4.433218e+00
1.738281e+01	-4.465566e+00
1.748322e+01	-4.497720e+00
1.758420e+01	-4.529859e+00
1.768576e+01	-4.562337e+00
1.778792e+01	-4.594997e+00
1.789066e+01	-4.627907e+00
1.799399e+01	-4.660473e+00
1.809793e+01	-4.693362e+00
1.820246e+01	-4.726455e+00
1.830760e+01	-4.759982e+00
1.841334e+01	-4.793048e+00
1.851969e+01	-4.826646e+00
1.862666e+01	-4.860493e+00
1.873425e+01	-4.894101e+00
1.884246e+01	-4.927825e+00
1.895129e+01	-4.961752e+00
1.906075e+01	-4.996083e+00
1.917085e+01	-5.030384e+00
1.928158e+01	-5.064658e+00
1.939295e+01	-5.099427e+00
1.950496e+01	-5.133668e+00
1.961762e+01	-5.168783e+00
1.973093e+01	-5.203397e+00
1.984490e+01	-5.238345e+00
1.995952e+01	-5.273331e+00
2.007480e+01	-5.308899e+00
2.019076e+01	-5.344303e+00
2.030738e+01	-5.379579e+00
2.042467e+01	-5.415322e+00
2.054264e+01	-5.451093e+00
2.066130e+01	-5.486755e+00
2.078064e+01	-5.522638e+00
2.090066e+01	-5.558853e+00
2.102139e+01	-5.595158e+00
2.114280e+01	-5.631120e+00
2.126492e+01	-5.667549e+00
2.138775e+01	-5.704210e+00
2.151128e+01	-5.740688e+00
2.163553e+01	-5.777579e+00
2.176050e+01	-5.814233e+00
2.188619e+01	-5.851099e+00
2.201260e+01	-5.888237e+00
2.213974e+01	-5.925632e+00
2.226762e+01	-5.962804e+00
2.239624e+01	-5.999981e+00
2.252560e+01	-6.037794e+00
2.265571e+01	-6.075218e+00
2.278656e+01	-6.113004e+00
2.291818e+01	-6.151139e+00
2.305055e+01	-6.189045e+00
2.318369e+01	-6.226769e+00
2.331760e+01	-6.265048e+00
2.345228e+01	-6.303440e+00
2.358774e+01	-6.341653e+00
2.372398e+01	-6.380158e+00
2.386101e+01	-6.418608e+00
2.399883e+01	-6.457357e+00
2.413745e+01	-6.496100e+00
2.427686e+01	-6.535209e+00
2.441709e+01	-6.573941e+00
2.455812e+01	-6.613033e+00
2.469997e+01	-6.652232e+00
2.484263e+01	-6.691414e+00
2.498612e+01	-6.730935e+00
2.513044e+01	-6.770171e+00
2.527559e+01	-6.809997e+00
2.542158e+01	-6.849512e+00
2.556842e+01	-6.889187e+00
2.571610e+01	-6.929374e+00
2.586463e+01	-6.969147e+00
2.601403e+01	-7.009077e+00
2.616428e+01	-7.049399e+00
2.631541e+01	-7.089586e+00
2.646740e+01	-7.129436e+00
2.662028e+01	-7.170279e+00
2.677404e+01	-7.210545e+00
2.692868e+01	-7.251291e+00
2.708422e+01	-7.291441e+00
2.724066e+01	-7.332381e+00
2.739800e+01	-7.373202e+00
2.755625e+01	-7.414381e+00
2.771541e+01	-7.455249e+00
2.787550e+01	-7.496472e+00
2.803650e+01	-7.537057e+00
2.819844e+01	-7.578502e+00
2.836131e+01	-7.620170e+00
2.852513e+01	-7.661189e+00
2.868989e+01	-7.703272e+00
2.885560e+01	-7.744982e+00
2.902227e+01	-7.785899e+00
2.918990e+01	-7.827913e+00
2.935850e+01	-7.870099e+00
2.952807e+01	-7.911545e+00
2.969863e+01	-7.953556e+00
2.987016e+01	-7.995988e+00
3.004269e+01	-8.037389e+00
3.021622e+01	-8.080161e+00
3.039075e+01	-8.122256e+00
3.056628e+01	-8.164809e+00
3.074283e+01	-8.206935e+00
3.092040e+01	-8.249243e+00
3.109900e+01	-8.292575e+00
3.127862e+01	-8.334880e+00
3.145929e+01	-8.377662e+00
3.164099e+01	-8.420369e+00
3.182375e+01	-8.463549e+00
3.200756e+01	-8.506394e+00
3.219244e+01	-8.549078e+00
3.237838e+01	-8.592262e+00
3.256540e+01	-8.634937e+00
3.275349e+01	-8.678566e+00
3.294268e+01	-8.722421e+00
3.313295e+01	-8.765048e+00
3.332433e+01	-8.808643e+00
3.351681e+01	-8.851734e+00
3.371040e+01	-8.895545e+00
3.390511e+01	-8.939674e+00
3.410094e+01	-8.982622e+00
3.429791e+01	-9.026387e+00
3.449601e+01	-9.070374e+00
3.469526e+01	-9.114277e+00
3.489566e+01	-9.158350e+00
3.509721e+01	-9.201688e+00
3.529993e+01	-9.246132e+00
3.550382e+01	-9.289658e+00
3.570889e+01	-9.334506e+00
3.591515e+01	-9.378470e+00
3.612259e+01	-9.422607e+00
3.633123e+01	-9.466780e+00
3.654108e+01	-9.511503e+00
3.675214e+01	-9.556000e+00
3.696442e+01	-9.600644e+00
3.717792e+01	-9.645020e+00
3.739266e+01	-9.689844e+00
3.760864e+01	-9.734698e+00
3.782587e+01	-9.779522e+00
3.804435e+01	-9.823969e+00
3.826409e+01	-9.869014e+00
3.848510e+01	-9.913466e+00
3.870739e+01	-9.958827e+00
3.893096e+01	-1.000315e+01
3.915583e+01	-1.004841e+01
3.938199e+01	-1.009371e+01
3.960946e+01	-1.013979e+01
3.983824e+01	-1.018383e+01
4.006834e+01	-1.022901e+01
4.029978e+01	-1.027491e+01
4.053255e+01	-1.032032e+01
4.076666e+01	-1.036534e+01
4.100213e+01	-1.041092e+01
4.123896e+01	-1.045649e+01
4.147715e+01	-1.050209e+01
4.171672e+01	-1.054767e+01
4.195767e+01	-1.059282e+01
4.220002e+01	-1.063885e+01
4.244377e+01	-1.068480e+01
4.268892e+01	-1.073016e+01
4.293549e+01	-1.077592e+01
4.318348e+01	-1.082270e+01
4.343291e+01	-1.086842e+01
4.368377e+01	-1.091404e+01
4.393609e+01	-1.095964e+01
4.418986e+01	-1.100600e+01
4.444510e+01	-1.105182e+01
4.470182e+01	-1.109773e+01
4.496001e+01	-1.114422e+01
4.521970e+01	-1.119094e+01
4.548089e+01	-1.123643e+01
4.574358e+01	-1.128324e+01
4.600779e+01	-1.132970e+01
4.627353e+01	-1.137560e+01
4.654081e+01	-1.142231e+01
4.680963e+01	-1.146861e+01
4.708000e+01	-1.151474e+01
4.735193e+01	-1.156121e+01
4.762543e+01	-1.160837e+01
4.790051e+01	-1.165467e+01
4.817719e+01	-1.170147e+01
4.845545e+01	-1.174839e+01
4.873533e+01	-1.179466e+01
4.901682e+01	-1.184187e+01
4.929994e+01	-1.188790e+01
4.958470e+01	-1.193520e+01
4.987110e+01	-1.198138e+01
5.015915e+01	-1.202888e+01
5.044887e+01	-1.207570e+01
5.074026e+01	-1.212337e+01
5.103333e+01	-1.216995e+01
5.132810e+01	-1.221671e+01
5.162457e+01	-1.226382e+01
5.192275e+01	-1.231083e+01
5.222265e+01	-1.235798e+01
5.252429e+01	-1.240502e+01
5.282767e+01	-1.245233e+01
5.313280e+01	-1.249889e+01
5.343969e+01	-1.254655e+01
5.374836e+01	-1.259385e+01
5.405880e+01	-1.264134e+01
5.437105e+01	-1.268854e+01
5.468509e+01	-1.273589e+01
5.500095e+01	-1.278363e+01
5.531863e+01	-1.283028e+01
5.563815e+01	-1.287775e+01
5.595951e+01	-1.292494e+01
5.628273e+01	-1.297279e+01
5.660782e+01	-1.302092e+01
5.693479e+01	-1.306771e+01
5.726364e+01	-1.311546e+01
5.759439e+01	-1.316327e+01
5.792705e+01	-1.321036e+01
5.826164e+01	-1.325879e+01
5.859815e+01	-1.330689e+01
5.893662e+01	-1.335392e+01
5.927703e+01	-1.340150e+01
5.961941e+01	-1.344946e+01
5.996377e+01	-1.349734e+01
6.031012e+01	-1.354514e+01
6.065847e+01	-1.359277e+01
6.100883e+01	-1.364033e+01
6.136121e+01	-1.368893e+01
6.171563e+01	-1.373638e+01
6.207210e+01	-1.378467e+01
6.243063e+01	-1.383178e+01
6.279122e+01	-1.387976e+01
6.315390e+01	-1.392919e+01
6.351868e+01	-1.397608e+01
6.388556e+01	-1.402350e+01
6.425456e+01	-1.407219e+01
6.462569e+01	-1.412117e+01
6.499897e+01	-1.416896e+01
6.537440e+01	-1.421610e+01
6.575200e+01	-1.426519e+01
6.613178e+01	-1.431294e+01
6.651375e+01	-1.436137e+01
6.689793e+01	-1.440942e+01
6.728433e+01	-1.445732e+01
6.767297e+01	-1.450578e+01
6.806384e+01	-1.455453e+01
6.845698e+01	-1.460279e+01
6.885238e+01	-1.465022e+01
6.925007e+01	-1.469814e+01
6.965005e+01	-1.474704e+01
7.005235e+01	-1.479547e+01
7.045697e+01	-1.484433e+01
7.086393e+01	-1.489272e+01
7.127323e+01	-1.494191e+01
7.168490e+01	-1.498900e+01
7.209895e+01	-1.503815e+01
7.251539e+01	-1.508686e+01
7.293424e+01	-1.513516e+01
7.335551e+01	-1.518285e+01
7.377920e+01	-1.523106e+01
7.420535e+01	-1.528016e+01
7.463396e+01	-1.532961e+01
7.506504e+01	-1.537696e+01
7.549861e+01	-1.542578e+01
7.593469e+01	-1.547424e+01
7.637328e+01	-1.552277e+01
7.681441e+01	-1.557059e+01
7.725809e+01	-1.562068e+01
7.770433e+01	-1.566956e+01
7.815315e+01	-1.571783e+01
7.860456e+01	-1.576614e+01
7.905857e+01	-1.581567e+01
7.951521e+01	-1.586455e+01
7.997449e+01	-1.591273e+01
8.043642e+01	-1.596181e+01
8.090102e+01	-1.601144e+01
8.136830e+01	-1.605949e+01
8.183828e+01	-1.610857e+01
8.231097e+01	-1.615742e+01
8.278640e+01	-1.620470e+01
8.326457e+01	-1.625436e+01
8.374550e+01	-1.630393e+01
8.422921e+01	-1.635085e+01
8.471572e+01	-1.640107e+01
8.520503e+01	-1.645028e+01
8.569717e+01	-1.649895e+01
8.619215e+01	-1.654747e+01
8.669000e+01	-1.659669e+01
8.719071e+01	-1.664613e+01
8.769432e+01	-1.669422e+01
8.820084e+01	-1.674440e+01
8.871029e+01	-1.679087e+01
8.922267e+01	-1.684099e+01
8.973802e+01	-1.689077e+01
9.025634e+01	-1.694089e+01
9.077766e+01	-1.698822e+01
9.130199e+01	-1.703799e+01
9.182935e+01	-1.708745e+01
9.235975e+01	-1.713529e+01
9.289321e+01	-1.718471e+01
9.342976e+01	-1.723423e+01
9.396941e+01	-1.728203e+01
9.451217e+01	-1.733219e+01
9.505807e+01	-1.738158e+01
9.560712e+01	-1.743064e+01
9.615934e+01	-1.748031e+01
9.671476e+01	-1.752861e+01
9.727338e+01	-1.757807e+01
9.783522e+01	-1.762738e+01
9.840032e+01	-1.767618e+01
9.896867e+01	-1.772538e+01
9.954031e+01	-1.777323e+01
1.001153e+02	-1.782390e+01
1.006935e+02	-1.787285e+01
1.012751e+02	-1.792186e+01
1.018601e+02	-1.797056e+01
1.024484e+02	-1.802048e+01
1.030402e+02	-1.807079e+01
1.036353e+02	-1.811946e+01
1.042339e+02	-1.816679e+01
1.048360e+02	-1.821794e+01
1.054415e+02	-1.826756e+01
1.060505e+02	-1.831691e+01
1.066631e+02	-1.836557e+01
1.072791e+02	-1.841388e+01
1.078988e+02	-1.846357e+01
1.085220e+02	-1.851334e+01
1.091488e+02	-1.856225e+01
1.097793e+02	-1.861278e+01
1.104133e+02	-1.866178e+01
1.110511e+02	-1.871037e+01
1.116925e+02	-1.876045e+01
1.123376e+02	-1.880910e+01
1.129865e+02	-1.885871e+01
1.136391e+02	-1.890823e+01
1.142955e+02	-1.895767e+01
1.149556e+02	-1.900746e+01
1.156196e+02	-1.905604e+01
1.162874e+02	-1.910746e+01
1.169591e+02	-1.915462e+01
1.176347e+02	-1.920399e+01
1.183141e+02	-1.925441e+01
1.189975e+02	-1.930409e+01
1.196848e+02	-1.935395e+01
1.203761e+02	-1.940245e+01
1.210714e+02	-1.945177e+01
1.217707e+02	-1.950196e+01
1.224740e+02	-1.955134e+01
1.231814e+02	-1.960043e+01
1.238929e+02	-1.964975e+01
1.246085e+02	-1.969848e+01
1.253283e+02	-1.974909e+01
1.260522e+02	-1.979817e+01
1.267802e+02	-1.984662e+01
1.275125e+02	-1.989695e+01
1.282490e+02	-1.994718e+01
1.289898e+02	-1.999811e+01
1.297348e+02	-2.004672e+01
1.304842e+02	-2.009521e+01
1.312378e+02	-2.014402e+01
1.319959e+02	-2.019348e+01
1.327583e+02	-2.024338e+01
1.335251e+02	-2.029543e+01
1.342963e+02	-2.034260e+01
1.350720e+02	-2.039313e+01
1.358522e+02	-2.044222e+01
1.366368e+02	-2.049399e+01
1.374260e+02	-2.054338e+01
1.382198e+02	-2.059028e+01
1.390182e+02	-2.064119e+01
1.398211e+02	-2.069244e+01
1.406287e+02	-2.074066e+01
1.414410e+02	-2.078920e+01
1.422579e+02	-2.083888e+01
1.430796e+02	-2.088891e+01
1.439060e+02	-2.093801e+01
1.447372e+02	-2.098835e+01
1.455732e+02	-2.103728e+01
1.464141e+02	-2.108682e+01
1.472597e+02	-2.113627e+01
1.481103e+02	-2.118680e+01
1.489658e+02	-2.123737e+01
1.498262e+02	-2.128632e+01
1.506916e+02	-2.133473e+01
1.515620e+02	-2.138456e+01
1.524374e+02	-2.143566e+01
1.533179e+02	-2.148482e+01
1.542034e+02	-2.153488e+01
1.550941e+02	-2.158392e+01
1.559899e+02	-2.163419e+01
1.568909e+02	-2.168356e+01
1.577971e+02	-2.173321e+01
1.587085e+02	-2.178370e+01
1.596252e+02	-2.183228e+01
1.605472e+02	-2.188325e+01
1.614745e+02	-2.193339e+01
1.624072e+02	-2.198322e+01
1.633453e+02	-2.203171e+01
1.642887e+02	-2.208085e+01
1.652377e+02	-2.213168e+01
1.661921e+02	-2.218231e+01
1.671520e+02	-2.223004e+01
1.681175e+02	-2.227858e+01
1.690885e+02	-2.233140e+01
1.700651e+02	-2.237808e+01
1.710474e+02	-2.243150e+01
1.720354e+02	-2.247918e+01
1.730291e+02	-2.253068e+01
1.740285e+02	-2.257719e+01
1.750337e+02	-2.262903e+01
1.760446e+02	-2.267874e+01
1.770615e+02	-2.272762e+01
1.780842e+02	-2.277864e+01
1.791128e+02	-2.282808e+01
1.801473e+02	-2.287757e+01
1.811878e+02	-2.292674e+01
1.822344e+02	-2.297857e+01
1.832870e+02	-2.302639e+01
1.843456e+02	-2.307638e+01
1.854104e+02	-2.312515e+01
1.864813e+02	-2.317655e+01
1.875584e+02	-2.322589e+01
1.886418e+02	-2.327641e+01
1.897313e+02	-2.332528e+01
1.908272e+02	-2.337732e+01
1.919294e+02	-2.342535e+01
1.930380e+02	-2.347616e+01
1.941530e+02	-2.352732e+01
1.952744e+02	-2.357285e+01
1.964023e+02	-2.362347e+01
1.975367e+02	-2.367623e+01
1.986777e+02	-2.372564e+01
1.998252e+02	-2.377353e+01
2.009794e+02	-2.382521e+01
2.021403e+02	-2.387468e+01
2.033078e+02	-2.392415e+01
2.044821e+02	-2.397383e+01
2.056632e+02	-2.402356e+01
2.068511e+02	-2.407164e+01
2.080459e+02	-2.412268e+01
2.092475e+02	-2.417540e+01
2.104561e+02	-2.422477e+01
2.116717e+02	-2.427376e+01
2.128943e+02	-2.432253e+01
2.141240e+02	-2.437231e+01
2.153608e+02	-2.442203e+01
2.166047e+02	-2.447008e+01
2.178558e+02	-2.451996e+01
2.191141e+02	-2.457426e+01
2.203797e+02	-2.462327e+01
2.216526e+02	-2.467308e+01
2.229329e+02	-2.472284e+01
2.242205e+02	-2.477227e+01
2.255156e+02	-2.482283e+01
2.268182e+02	-2.487141e+01
2.281283e+02	-2.491895e+01
2.294459e+02	-2.497067e+01
2.307712e+02	-2.501951e+01
2.321041e+02	-2.507272e+01
2.334447e+02	-2.511864e+01
2.347931e+02	-2.517056e+01
2.361493e+02	-2.522019e+01
2.375133e+02	-2.527039e+01
2.388851e+02	-2.531861e+01
2.402649e+02	-2.537058e+01
2.416527e+02	-2.542202e+01
2.430484e+02	-2.546703e+01
2.444523e+02	-2.551914e+01
2.458642e+02	-2.557089e+01
2.472843e+02	-2.562393e+01
2.487126e+02	-2.567124e+01
2.501492e+02	-2.571716e+01
2.515940e+02	-2.576693e+01
2.530472e+02	-2.581841e+01
2.545088e+02	-2.586954e+01
2.559789e+02	-2.592090e+01
2.574574e+02	-2.597065e+01
2.589444e+02	-2.602180e+01
2.604401e+02	-2.606773e+01
2.619444e+02	-2.611998e+01
2.634574e+02	-2.617203e+01
2.649791e+02	-2.621798e+01
2.665096e+02	-2.627027e+01
2.680489e+02	-2.631805e+01
2.695972e+02	-2.637026e+01
2.711544e+02	-2.641801e+01
2.727205e+02	-2.646979e+01
2.742958e+02	-2.651948e+01
2.758801e+02	-2.656866e+01
2.774736e+02	-2.661996e+01
2.790762e+02	-2.667039e+01
2.806882e+02	-2.671997e+01
2.823094e+02	-2.677031e+01
2.839400e+02	-2.682158e+01
2.855800e+02	-2.687043e+01
2.872295e+02	-2.692005e+01
2.888886e+02	-2.697254e+01
2.905572e+02	-2.701881e+01
2.922354e+02	-2.706602e+01
2.939234e+02	-2.711942e+01
2.956211e+02	-2.716998e+01
2.973286e+02	-2.721899e+01
2.990459e+02	-2.726794e+01
3.007732e+02	-2.731879e+01
3.025104e+02	-2.737101e+01
3.042577e+02	-2.742138e+01
3.060151e+02	-2.746689e+01
3.077826e+02	-2.751929e+01
3.095604e+02	-2.757110e+01
3.113484e+02	-2.761835e+01
3.131467e+02	-2.766932e+01
3.149554e+02	-2.772189e+01
3.167746e+02	-2.776582e+01
3.186043e+02	-2.781720e+01
3.204445e+02	-2.786521e+01
3.222954e+02	-2.792039e+01
3.241570e+02	-2.796736e+01
3.260293e+02	-2.801539e+01
3.279124e+02	-2.807178e+01
3.298064e+02	-2.812219e+01
3.317114e+02	-2.817162e+01
3.336273e+02	-2.821759e+01
3.355544e+02	-2.826868e+01
3.374925e+02	-2.831923e+01
3.394418e+02	-2.837112e+01
3.414024e+02	-2.841440e+01
3.433744e+02	-2.846742e+01
3.453577e+02	-2.852071e+01
3.473525e+02	-2.856892e+01
3.493588e+02	-2.861589e+01
3.513766e+02	-2.867171e+01
3.534062e+02	-2.872400e+01
3.554474e+02	-2.877086e+01
3.575005e+02	-2.882030e+01
3.595654e+02	-2.886690e+01
3.616422e+02	-2.891313e+01
3.637311e+02	-2.897059e+01
3.658320e+02	-2.902077e+01
3.679450e+02	-2.906900e+01
3.700702e+02	-2.912006e+01
3.722077e+02	-2.916964e+01
3.743576e+02	-2.921752e+01
3.765199e+02	-2.927000e+01
3.786946e+02	-2.932079e+01
3.808820e+02	-2.937112e+01
3.830819e+02	-2.941905e+01
3.852946e+02	-2.946935e+01
3.875200e+02	-2.952037e+01
3.897583e+02	-2.957467e+01
3.920096e+02	-2.962039e+01
3.942738e+02	-2.967321e+01
3.965511e+02	-2.971778e+01
3.988416e+02	-2.977057e+01
4.011452e+02	-2.982121e+01
4.034622e+02	-2.987463e+01
4.057926e+02	-2.992384e+01
4.081365e+02	-2.997216e+01
4.104938e+02	-3.002464e+01
4.128648e+02	-3.007093e+01
4.152495e+02	-3.012560e+01
4.176480e+02	-3.017207e+01
4.200603e+02	-3.021900e+01
4.224866e+02	-3.026995e+01
4.249268e+02	-3.031947e+01
4.273812e+02	-3.036855e+01
4.298497e+02	-3.042115e+01
4.323325e+02	-3.047118e+01
4.348297e+02	-3.052630e+01
4.373412e+02	-3.057607e+01
4.398673e+02	-3.062212e+01
4.424079e+02	-3.067038e+01
4.449633e+02	-3.072767e+01
4.475334e+02	-3.077416e+01
4.501183e+02	-3.083006e+01
4.527182e+02	-3.087333e+01
4.553330e+02	-3.092156e+01
4.579630e+02	-3.097355e+01
4.606082e+02	-3.102505e+01
4.632687e+02	-3.107734e+01
4.659445e+02	-3.111999e+01
4.686358e+02	-3.117466e+01
4.713426e+02	-3.123002e+01
4.740650e+02	-3.127479e+01
4.768032e+02	-3.132306e+01
4.795572e+02	-3.137447e+01
4.823271e+02	-3.142732e+01
4.851130e+02	-3.147685e+01
4.879150e+02	-3.152648e+01
4.907332e+02	-3.157977e+01
4.935676e+02	-3.162298e+01
4.964185e+02	-3.167882e+01
4.992858e+02	-3.172326e+01
5.021696e+02	-3.177407e+01
5.050701e+02	-3.182487e+01
5.079874e+02	-3.187834e+01
5.109215e+02	-3.193124e+01
5.138726e+02	-3.197431e+01
5.168407e+02	-3.202386e+01
5.198259e+02	-3.208136e+01
5.228284e+02	-3.212599e+01
5.258482e+02	-3.217559e+01
5.288855e+02	-3.222153e+01
5.319403e+02	-3.227738e+01
5.350128e+02	-3.232859e+01
5.381030e+02	-3.237346e+01
5.412111e+02	-3.243095e+01
5.443371e+02	-3.247418e+01
5.474812e+02	-3.253509e+01
5.506434e+02	-3.257715e+01
5.538239e+02	-3.263951e+01
5.570228e+02	-3.268806e+01
5.602401e+02	-3.272691e+01
5.634760e+02	-3.278656e+01
5.667306e+02	-3.283617e+01
5.700040e+02	-3.288062e+01
5.732964e+02	-3.293552e+01
5.766077e+02	-3.297879e+01
5.799382e+02	-3.303182e+01
5.832879e+02	-3.308225e+01
5.866569e+02	-3.312848e+01
5.900454e+02	-3.317998e+01
5.934535e+02	-3.324000e+01
5.968813e+02	-3.328695e+01
6.003288e+02	-3.333167e+01
6.037963e+02	-3.338450e+01
6.072838e+02	-3.343600e+01
6.107914e+02	-3.349319e+01
6.143194e+02	-3.353853e+01
6.178676e+02	-3.358604e+01
6.214364e+02	-3.364207e+01
6.250258e+02	-3.368641e+01
6.286359e+02	-3.373693e+01
6.322669e+02	-3.378854e+01
6.359189e+02	-3.383810e+01
6.395919e+02	-3.388011e+01
6.432862e+02	-3.393890e+01
6.470017e+02	-3.399174e+01
6.507388e+02	-3.403958e+01
6.544974e+02	-3.408406e+01
6.582778e+02	-3.413767e+01
6.620800e+02	-3.419026e+01
6.659041e+02	-3.423911e+01
6.697504e+02	-3.428545e+01
6.736188e+02	-3.433121e+01
6.775096e+02	-3.438775e+01
6.814229e+02	-3.444638e+01
6.853587e+02	-3.449625e+01
6.893173e+02	-3.454388e+01
6.932988e+02	-3.458821e+01
6.973033e+02	-3.464879e+01
7.013309e+02	-3.469355e+01
