Frequency(Hz)	Magnitude(dB)
1.000000e+01	-2.381120e+00
1.005776e+01	-2.402150e+00
1.011585e+01	-2.423660e+00
1.017428e+01	-2.444975e+00
1.023305e+01	-2.466822e+00
1.029215e+01	-2.488619e+00
1.035160e+01	-2.510469e+00
1.041139e+01	-2.532566e+00
1.047153e+01	-2.554738e+00
1.053201e+01	-2.576753e+00
1.059284e+01	-2.599515e+00
1.065403e+01	-2.622097e+00
1.071556e+01	-2.644726e+00
1.077746e+01	-2.667474e+00
1.083971e+01	-2.690487e+00
1.090232e+01	-2.713543e+00
1.096529e+01	-2.737105e+00
1.102862e+01	-2.760558e+00
1.109232e+01	-2.784060e+00
1.115639e+01	-2.807687e+00
1.122083e+01	-2.831513e+00
1.128564e+01	-2.855660e+00
1.135083e+01	-2.880043e+00
1.141639e+01	-2.904393e+00
1.148233e+01	-2.928896e+00
1.154865e+01	-2.953670e+00
1.161536e+01	-2.977981e+00
1.168245e+01	-3.002974e+00
1.174992e+01	-3.028238e+00
1.181779e+01	-3.053371e+00
1.188605e+01	-3.078795e+00
1.195470e+01	-3.104109e+00
1.202375e+01	-3.129758e+00
1.209320e+01	-3.155273e+00
1.216305e+01	-3.181387e+00
1.223330e+01	-3.207599e+00
1.230396e+01	-3.233558e+00
1.237503e+01	-3.259883e+00
1.244651e+01	-3.286430e+00
1.251840e+01	-3.313075e+00
1.259070e+01	-3.339711e+00
1.266343e+01	-3.366643e+00
1.273657e+01	-3.393840e+00
1.281014e+01	-3.421043e+00
1.288413e+01	-3.448389e+00
1.295855e+01	-3.476022e+00
1.303339e+01	-3.503256e+00
1.310867e+01	-3.531195e+00
1.318439e+01	-3.559006e+00
1.326054e+01	-3.587263e+00
1.333713e+01	-3.615486e+00
1.341417e+01	-3.643763e+00
1.349165e+01	-3.672090e+00
1.356958e+01	-3.700867e+00
1.364795e+01	-3.729675e+00
1.372678e+01	-3.758667e+00
1.380607e+01	-3.787336e+00
1.388581e+01	-3.816773e+00
1.396602e+01	-3.846143e+00
1.404668e+01	-3.875631e+00
1.412782e+01	-3.905121e+00
1.420942e+01	-3.934837e+00
1.429149e+01	-3.964592e+00
1.437404e+01	-3.994697e+00
1.445706e+01	-4.024771e+00
1.454057e+01	-4.055210e+00
1.462455e+01	-4.085399e+00
1.470902e+01	-4.116180e+00
1.479398e+01	-4.146896e+00
1.487943e+01	-4.177666e+00
1.496537e+01	-4.208665e+00
1.505181e+01	-4.239478e+00
1.513875e+01	-4.270911e+00
1.522619e+01	-4.302221e+00
1.531414e+01	-4.333841e+00
1.540259e+01	-4.365534e+00
1.549156e+01	-4.397301e+00
1.558103e+01	-4.429192e+00
1.567103e+01	-4.461487e+00
1.576155e+01	-4.493378e+00
1.585258e+01	-4.525763e+00
1.594415e+01	-4.558053e+00
1.603624e+01	-4.590978e+00
1.612886e+01	-4.623631e+00
1.622202e+01	-4.656392e+00
1.631572e+01	-4.689412e+00
1.640996e+01	-4.722534e+00
1.650474e+01	-4.755650e+00
1.660008e+01	-4.789164e+00
1.669596e+01	-4.822392e+00
1.679239e+01	-4.856428e+00
1.688938e+01	-4.889833e+00
1.698694e+01	-4.923816e+00
1.708505e+01	-4.957612e+00
1.718373e+01	-4.992039e+00
1.728299e+01	-5.026100e+00
1.738281e+01	-5.060227e+00
1.748322e+01	-5.095111e+00
1.758420e+01	-5.129594e+00
1.768576e+01	-5.164573e+00
1.778792e+01	-5.199026e+00
1.789066e+01	-5.233883e+00
1.799399e+01	-5.269248e+00
1.809793e+01	-5.304529e+00
1.820246e+01	-5.339661e+00
1.830760e+01	-5.375046e+00
1.841334e+01	-5.410808e+00
1.851969e+01	-5.446532e+00
1.862666e+01	-5.482302e+00
1.873425e+01	-5.518203e+00
1.884246e+01	-5.553965e+00
1.895129e+01	-5.590466e+00
1.906075e+01	-5.626542e+00
1.917085e+01	-5.663038e+00
1.928158e+01	-5.699585e+00
1.939295e+01	-5.736430e+00
1.950496e+01	-5.772862e+00
1.961762e+01	-5.809603e+00
1.973093e+01	-5.846800e+00
1.984490e+01	-5.883927e+00
1.995952e+01	-5.920750e+00
2.007480e+01	-5.958809e+00
2.019076e+01	-5.995593e+00
2.030738e+01	-6.033170e+00
2.042467e+01	-6.070890e+00
2.054264e+01	-6.108556e+00
2.066130e+01	-6.146053e+00
2.078064e+01	-6.184358e+00
2.090066e+01	-6.222163e+00
2.102139e+01	-6.260120e+00
2.114280e+01	-6.298623e+00
2.126492e+01	-6.337079e+00
2.138775e+01	-6.375252e+00
2.151128e+01	-6.413882e+00
2.163553e+01	-6.452482e+00
2.176050e+01	-6.491172e+00
2.188619e+01	-6.530181e+00
2.201260e+01	-6.569119e+00
2.213974e+01	-6.607869e+00
2.226762e+01	-6.647323e+00
2.239624e+01	-6.686673e+00
2.252560e+01	-6.725640e+00
2.265571e+01	-6.765495e+00
2.278656e+01	-6.804869e+00
2.291818e+01	-6.844338e+00
2.305055e+01	-6.884532e+00
2.318369e+01	-6.924116e+00
2.331760e+01	-6.964001e+00
2.345228e+01	-7.003769e+00
2.358774e+01	-7.044112e+00
2.372398e+01	-7.084610e+00
2.386101e+01	-7.124487e+00
2.399883e+01	-7.165223e+00
2.413745e+01	-7.205354e+00
2.427686e+01	-7.245637e+00
2.441709e+01	-7.286803e+00
2.455812e+01	-7.327104e+00
2.469997e+01	-7.368368e+00
2.484263e+01	-7.409216e+00
2.498612e+01	-7.450123e+00
2.513044e+01	-7.491574e+00
2.527559e+01	-7.532384e+00
2.542158e+01	-7.573826e+00
2.556842e+01	-7.614428e+00
2.571610e+01	-7.656475e+00
2.586463e+01	-7.697942e+00
2.601403e+01	-7.739003e+00
2.616428e+01	-7.780882e+00
2.631541e+01	-7.822862e+00
2.646740e+01	-7.864741e+00
2.662028e+01	-7.906089e+00
2.677404e+01	-7.948213e+00
2.692868e+01	-7.990314e+00
2.708422e+01	-8.032670e+00
2.724066e+01	-8.075018e+00
2.739800e+01	-8.116617e+00
2.755625e+01	-8.159373e+00
2.771541e+01	-8.201600e+00
2.787550e+01	-8.244229e+00
2.803650e+01	-8.286718e+00
2.819844e+01	-8.328923e+00
2.836131e+01	-8.372019e+00
2.852513e+01	-8.415066e+00
2.868989e+01	-8.457585e+00
2.885560e+01	-8.500461e+00
2.902227e+01	-8.543676e+00
2.918990e+01	-8.586690e+00
2.935850e+01	-8.629639e+00
2.952807e+01	-8.672752e+00
2.969863e+01	-8.716715e+00
2.987016e+01	-8.759488e+00
3.004269e+01	-8.803069e+00
3.021622e+01	-8.846387e+00
3.039075e+01	-8.889986e+00
3.056628e+01	-8.933994e+00
3.074283e+01	-8.977705e+00
3.092040e+01	-9.021235e+00
3.109900e+01	-9.064866e+00
3.127862e+01	-9.109068e+00
3.145929e+01	-9.152189e+00
3.164099e+01	-9.196602e+00
3.182375e+01	-9.240703e+00
3.200756e+01	-9.284930e+00
3.219244e+01	-9.328924e+00
3.237838e+01	-9.372904e+00
3.256540e+01	-9.417431e+00
3.275349e+01	-9.461933e+00
3.294268e+01	-9.505935e+00
3.313295e+01	-9.550653e+00
3.332433e+01	-9.594973e+00
3.351681e+01	-9.639937e+00
3.371040e+01	-9.684446e+00
3.390511e+01	-9.728692e+00
3.410094e+01	-9.773488e+00
3.429791e+01	-9.818944e+00
3.449601e+01	-9.863442e+00
3.469526e+01	-9.908002e+00
3.489566e+01	-9.953099e+00
3.509721e+01	-9.998193e+00
3.529993e+01	-1.004315e+01
3.550382e+01	-1.008815e+01
3.570889e+01	-1.013363e+01
3.591515e+01	-1.017891e+01
3.612259e+01	-1.022377e+01
3.633123e+01	-1.026939e+01
3.654108e+01	-1.031430e+01
3.675214e+01	-1.036010e+01
3.696442e+01	-1.040550e+01
3.717792e+01	-1.045084e+01
3.739266e+01	-1.049597e+01
3.760864e+01	-1.054156e+01
3.782587e+01	-1.058742e+01
3.804435e+01	-1.063326e+01
3.826409e+01	-1.067879e+01
3.848510e+01	-1.072501e+01
3.870739e+01	-1.077050e+01
3.893096e+01	-1.081657e+01
3.915583e+01	-1.086288e+01
3.938199e+01	-1.090825e+01
3.960946e+01	-1.095379e+01
3.983824e+01	-1.100009e+01
4.006834e+01	-1.104623e+01
4.029978e+01	-1.109321e+01
4.053255e+01	-1.113878e+01
4.076666e+01	-1.118486e+01
4.100213e+01	-1.123141e+01
4.123896e+01	-1.127734e+01
4.147715e+01	-1.132358e+01
4.171672e+01	-1.136998e+01
4.195767e+01	-1.141655e+01
4.220002e+01	-1.146311e+01
4.244377e+01	-1.150955e+01
4.268892e+01	-1.155580e+01
4.293549e+01	-1.160219e+01
4.318348e+01	-1.164884e+01
4.343291e+01	-1.169520e+01
4.368377e+01	-1.174240e+01
4.393609e+01	-1.178823e+01
4.418986e+01	-1.183549e+01
4.444510e+01	-1.188315e+01
4.470182e+01	-1.192974e+01
4.496001e+01	-1.197590e+01
4.521970e+01	-1.202288e+01
4.548089e+01	-1.206985e+01
4.574358e+01	-1.211655e+01
4.600779e+01	-1.216421e+01
4.627353e+01	-1.221054e+01
4.654081e+01	-1.225846e+01
4.680963e+01	-1.230425e+01
4.708000e+01	-1.235181e+01
4.735193e+01	-1.239935e+01
4.762543e+01	-1.244714e+01
4.790051e+01	-1.249441e+01
4.817719e+01	-1.254045e+01
4.845545e+01	-1.258811e+01
4.873533e+01	-1.263573e+01
4.901682e+01	-1.268281e+01
4.929994e+01	-1.272992e+01
4.958470e+01	-1.277776e+01
4.987110e+01	-1.282489e+01
5.015915e+01	-1.287246e+01
5.044887e+01	-1.291960e+01
5.074026e+01	-1.296718e+01
5.103333e+01	-1.301546e+01
5.132810e+01	-1.306209e+01
5.162457e+01	-1.310927e+01
5.192275e+01	-1.315753e+01
5.222265e+01	-1.320495e+01
5.252429e+01	-1.325291e+01
5.282767e+01	-1.329999e+01
5.313280e+01	-1.334788e+01
5.343969e+01	-1.339588e+01
5.374836e+01	-1.344335e+01
5.405880e+01	-1.349147e+01
5.437105e+01	-1.353881e+01
5.468509e+01	-1.358613e+01
5.500095e+01	-1.363467e+01
5.531863e+01	-1.368253e+01
5.563815e+01	-1.373048e+01
5.595951e+01	-1.377849e+01
5.628273e+01	-1.382581e+01
5.660782e+01	-1.387452e+01
5.693479e+01	-1.392234e+01
5.726364e+01	-1.397037e+01
5.759439e+01	-1.401742e+01
5.792705e+01	-1.406622e+01
5.826164e+01	-1.411433e+01
5.859815e+01	-1.416281e+01
5.893662e+01	-1.421082e+01
5.927703e+01	-1.425928e+01
5.961941e+01	-1.430654e+01
5.996377e+01	-1.435549e+01
6.031012e+01	-1.440297e+01
6.065847e+01	-1.445124e+01
6.100883e+01	-1.449959e+01
6.136121e+01	-1.454776e+01
6.171563e+01	-1.459633e+01
6.207210e+01	-1.464524e+01
6.243063e+01	-1.469348e+01
6.279122e+01	-1.474141e+01
6.315390e+01	-1.479033e+01
6.351868e+01	-1.483850e+01
6.388556e+01	-1.488557e+01
6.425456e+01	-1.493530e+01
6.462569e+01	-1.498404e+01
6.499897e+01	-1.503111e+01
6.537440e+01	-1.508085e+01
6.575200e+01	-1.512779e+01
6.613178e+01	-1.517750e+01
6.651375e+01	-1.522590e+01
6.689793e+01	-1.527448e+01
6.728433e+01	-1.532342e+01
6.767297e+01	-1.537073e+01
6.806384e+01	-1.541971e+01
6.845698e+01	-1.546864e+01
6.885238e+01	-1.551674e+01
6.925007e+01	-1.556462e+01
6.965005e+01	-1.561423e+01
7.005235e+01	-1.566310e+01
7.045697e+01	-1.571135e+01
7.086393e+01	-1.576022e+01
7.127323e+01	-1.580921e+01
7.168490e+01	-1.585804e+01
7.209895e+01	-1.590610e+01
7.251539e+01	-1.595527e+01
7.293424e+01	-1.600453e+01
7.335551e+01	-1.605308e+01
7.377920e+01	-1.610169e+01
7.420535e+01	-1.614965e+01
7.463396e+01	-1.619980e+01
7.506504e+01	-1.624896e+01
7.549861e+01	-1.629689e+01
7.593469e+01	-1.634573e+01
7.637328e+01	-1.639398e+01
7.681441e+01	-1.644452e+01
7.725809e+01	-1.649162e+01
7.770433e+01	-1.654141e+01
7.815315e+01	-1.658993e+01
7.860456e+01	-1.663990e+01
7.905857e+01	-1.668811e+01
7.951521e+01	-1.673819e+01
7.997449e+01	-1.678526e+01
8.043642e+01	-1.683608e+01
8.090102e+01	-1.688412e+01
8.136830e+01	-1.693247e+01
8.183828e+01	-1.698244e+01
8.231097e+01	-1.703036e+01
8.278640e+01	-1.708052e+01
8.326457e+01	-1.712916e+01
8.374550e+01	-1.717973e+01
8.422921e+01	-1.722695e+01
8.471572e+01	-1.727630e+01
8.520503e+01	-1.732658e+01
8.569717e+01	-1.737446e+01
8.619215e+01	-1.742360e+01
8.669000e+01	-1.747373e+01
8.719071e+01	-1.752173e+01
8.769432e+01	-1.757114e+01
8.820084e+01	-1.762063e+01
8.871029e+01	-1.767045e+01
8.922267e+01	-1.772019e+01
8.973802e+01	-1.776892e+01
9.025634e+01	-1.781875e+01
9.077766e+01	-1.786721e+01
9.130199e+01	-1.791494e+01
9.182935e+01	-1.796551e+01
9.235975e+01	-1.801308e+01
9.289321e+01	-1.806419e+01
9.342976e+01	-1.811339e+01
9.396941e+01	-1.816079e+01
9.451217e+01	-1.821155e+01
9.505807e+01	-1.825999e+01
9.560712e+01	-1.831059e+01
9.615934e+01	-1.835999e+01
9.671476e+01	-1.840855e+01
9.727338e+01	-1.845667e+01
9.783522e+01	-1.850572e+01
9.840032e+01	-1.855660e+01
9.896867e+01	-1.860648e+01
9.954031e+01	-1.865488e+01
1.001153e+02	-1.870392e+01
1.006935e+02	-1.875445e+01
1.012751e+02	-1.880286e+01
1.018601e+02	-1.885343e+01
1.024484e+02	-1.890265e+01
1.030402e+02	-1.895277e+01
1.036353e+02	-1.899945e+01
1.042339e+02	-1.905032e+01
1.048360e+02	-1.909987e+01
1.054415e+02	-1.914920e+01
1.060505e+02	-1.919985e+01
1.066631e+02	-1.924930e+01
1.072791e+02	-1.929697e+01
1.078988e+02	-1.934669e+01
1.085220e+02	-1.939722e+01
1.091488e+02	-1.944541e+01
1.097793e+02	-1.949570e+01
1.104133e+02	-1.954484e+01
1.110511e+02	-1.959494e+01
1.116925e+02	-1.964419e+01
1.123376e+02	-1.969284e+01
1.129865e+02	-1.974198e+01
1.136391e+02	-1.979235e+01
1.142955e+02	-1.984138e+01
1.149556e+02	-1.988998e+01
1.156196e+02	-1.994020e+01
1.162874e+02	-1.998864e+01
1.169591e+02	-2.004059e+01
1.176347e+02	-2.009023e+01
1.183141e+02	-2.013819e+01
1.189975e+02	-2.019030e+01
1.196848e+02	-2.023778e+01
1.203761e+02	-2.028805e+01
1.210714e+02	-2.033633e+01
1.217707e+02	-2.038787e+01
1.224740e+02	-2.043592e+01
1.231814e+02	-2.048717e+01
1.238929e+02	-2.053747e+01
1.246085e+02	-2.058505e+01
1.253283e+02	-2.063485e+01
1.260522e+02	-2.068390e+01
1.267802e+02	-2.073254e+01
1.275125e+02	-2.078424e+01
1.282490e+02	-2.083277e+01
1.289898e+02	-2.088135e+01
1.297348e+02	-2.093247e+01
1.304842e+02	-2.098213e+01
1.312378e+02	-2.102974e+01
1.319959e+02	-2.108024e+01
1.327583e+02	-2.113249e+01
1.335251e+02	-2.118276e+01
1.342963e+02	-2.123125e+01
1.350720e+02	-2.127918e+01
1.358522e+02	-2.132878e+01
1.366368e+02	-2.137831e+01
1.374260e+02	-2.142931e+01
1.382198e+02	-2.147805e+01
1.390182e+02	-2.152803e+01
1.398211e+02	-2.157599e+01
1.406287e+02	-2.162706e+01
1.414410e+02	-2.167722e+01
1.422579e+02	-2.172617e+01
1.430796e+02	-2.177563e+01
1.439060e+02	-2.182567e+01
1.447372e+02	-2.187653e+01
1.455732e+02	-2.192596e+01
1.464141e+02	-2.197508e+01
1.472597e+02	-2.202509e+01
1.481103e+02	-2.207289e+01
1.489658e+02	-2.212616e+01
1.498262e+02	-2.217471e+01
1.506916e+02	-2.222516e+01
1.515620e+02	-2.227397e+01
1.524374e+02	-2.232313e+01
1.533179e+02	-2.237465e+01
1.542034e+02	-2.242130e+01
1.550941e+02	-2.247373e+01
1.559899e+02	-2.252327e+01
1.568909e+02	-2.257306e+01
1.577971e+02	-2.262242e+01
1.587085e+02	-2.267202e+01
1.596252e+02	-2.272335e+01
1.605472e+02	-2.277078e+01
1.614745e+02	-2.282068e+01
1.624072e+02	-2.287076e+01
1.633453e+02	-2.292158e+01
1.642887e+02	-2.297010e+01
1.652377e+02	-2.302052e+01
1.661921e+02	-2.306801e+01
1.671520e+02	-2.311920e+01
1.681175e+02	-2.317008e+01
1.690885e+02	-2.321854e+01
1.700651e+02	-2.326993e+01
1.710474e+02	-2.331928e+01
1.720354e+02	-2.336905e+01
1.730291e+02	-2.341830e+01
1.740285e+02	-2.346897e+01
1.750337e+02	-2.351753e+01
1.760446e+02	-2.356872e+01
1.770615e+02	-2.362010e+01
1.780842e+02	-2.366995e+01
1.791128e+02	-2.372081e+01
1.801473e+02	-2.376643e+01
1.811878e+02	-2.381854e+01
1.822344e+02	-2.386560e+01
1.832870e+02	-2.391766e+01
1.843456e+02	-2.396746e+01
1.854104e+02	-2.401780e+01
1.864813e+02	-2.406629e+01
1.875584e+02	-2.411723e+01
1.886418e+02	-2.416579e+01
1.897313e+02	-2.421545e+01
1.908272e+02	-2.426346e+01
1.919294e+02	-2.431753e+01
1.930380e+02	-2.436635e+01
1.941530e+02	-2.441500e+01
1.952744e+02	-2.446595e+01
1.964023e+02	-2.451354e+01
1.975367e+02	-2.456550e+01
1.986777e+02	-2.461502e+01
1.998252e+02	-2.466407e+01
2.009794e+02	-2.471691e+01
2.021403e+02	-2.476763e+01
2.033078e+02	-2.481444e+01
2.044821e+02	-2.486543e+01
2.056632e+02	-2.491351e+01
2.068511e+02	-2.496662e+01
2.080459e+02	-2.501249e+01
2.092475e+02	-2.506285e+01
2.104561e+02	-2.511525e+01
2.116717e+02	-2.516216e+01
2.128943e+02	-2.521563e+01
2.141240e+02	-2.526770e+01
2.153608e+02	-2.531297e+01
2.166047e+02	-2.536263e+01
2.178558e+02	-2.541604e+01
2.191141e+02	-2.546323e+01
2.203797e+02	-2.551320e+01
2.216526e+02	-2.556483e+01
2.229329e+02	-2.561753e+01
2.242205e+02	-2.566341e+01
2.255156e+02	-2.571125e+01
2.268182e+02	-2.576542e+01
2.281283e+02	-2.581657e+01
2.294459e+02	-2.586374e+01
2.307712e+02	-2.591216e+01
2.321041e+02	-2.596090e+01
2.334447e+02	-2.601502e+01
2.347931e+02	-2.606165e+01
2.361493e+02	-2.611057e+01
2.375133e+02	-2.616419e+01
2.388851e+02	-2.621724e+01
2.402649e+02	-2.626164e+01
2.416527e+02	-2.631109e+01
2.430484e+02	-2.636271e+01
2.444523e+02	-2.641164e+01
2.458642e+02	-2.646344e+01
2.472843e+02	-2.651142e+01
2.487126e+02	-2.656360e+01
2.501492e+02	-2.661181e+01
2.515940e+02	-2.666269e+01
2.530472e+02	-2.671417e+01
2.545088e+02	-2.676398e+01
2.559789e+02	-2.681284e+01
2.574574e+02	-2.686420e+01
2.589444e+02	-2.691014e+01
2.604401e+02	-2.696301e+01
2.619444e+02	-2.701482e+01
2.634574e+02	-2.706025e+01
2.649791e+02	-2.711396e+01
2.665096e+02	-2.716107e+01
2.680489e+02	-2.721261e+01
2.695972e+02	-2.725828e+01
2.711544e+02	-2.731350e+01
2.727205e+02	-2.736160e+01
2.742958e+02	-2.741143e+01
2.758801e+02	-2.746124e+01
2.774736e+02	-2.751331e+01
2.790762e+02	-2.756148e+01
2.806882e+02	-2.761517e+01
2.823094e+02	-2.766356e+01
2.839400e+02	-2.771178e+01
2.855800e+02	-2.776495e+01
2.872295e+02	-2.780980e+01
2.888886e+02	-2.786183e+01
2.905572e+02	-2.791322e+01
2.922354e+02	-2.796285e+01
2.939234e+02	-2.801346e+01
2.956211e+02	-2.806243e+01
2.973286e+02	-2.810854e+01
2.990459e+02	-2.816212e+01
3.007732e+02	-2.820937e+01
3.025104e+02	-2.826194e+01
3.042577e+02	-2.830972e+01
3.060151e+02	-2.836249e+01
3.077826e+02	-2.841222e+01
3.095604e+02	-2.846289e+01
3.113484e+02	-2.851570e+01
3.131467e+02	-2.856109e+01
3.149554e+02	-2.861408e+01
3.167746e+02	-2.866040e+01
3.186043e+02	-2.871761e+01
3.204445e+02	-2.876345e+01
3.222954e+02	-2.881363e+01
3.241570e+02	-2.886234e+01
3.260293e+02	-2.891497e+01
3.279124e+02	-2.896067e+01
3.298064e+02	-2.901392e+01
3.317114e+02	-2.906164e+01
3.336273e+02	-2.911197e+01
3.355544e+02	-2.916450e+01
3.374925e+02	-2.921252e+01
3.394418e+02	-2.926242e+01
3.414024e+02	-2.931369e+01
3.433744e+02	-2.936364e+01
3.453577e+02	-2.940696e+01
3.473525e+02	-2.946056e+01
3.493588e+02	-2.951485e+01
3.513766e+02	-2.956412e+01
3.534062e+02	-2.961583e+01
3.554474e+02	-2.966395e+01
3.575005e+02	-2.971544e+01
3.595654e+02	-2.976473e+01
3.616422e+02	-2.981267e+01
3.637311e+02	-2.986441e+01
3.658320e+02	-2.991528e+01
3.679450e+02	-2.996373e+01
3.700702e+02	-3.001441e+01
3.722077e+02	-3.006173e+01
3.743576e+02	-3.011797e+01
3.765199e+02	-3.016184e+01
3.786946e+02	-3.021238e+01
3.808820e+02	-3.026157e+01
3.830819e+02	-3.031825e+01
3.852946e+02	-3.036683e+01
3.875200e+02	-3.041427e+01
3.897583e+02	-3.046821e+01
3.920096e+02	-3.051835e+01
3.942738e+02	-3.057374e+01
3.965511e+02	-3.062179e+01
3.988416e+02	-3.067305e+01
4.011452e+02	-3.071530e+01
4.034622e+02	-3.076923e+01
4.057926e+02	-3.081157e+01
4.081365e+02	-3.086709e+01
4.104938e+02	-3.091854e+01
4.128648e+02	-3.096688e+01
4.152495e+02	-3.101577e+01
4.176480e+02	-3.106959e+01
4.200603e+02	-3.110977e+01
4.224866e+02	-3.116994e+01
4.249268e+02	-3.121687e+01
4.273812e+02	-3.126911e+01
4.298497e+02	-3.132025e+01
4.323325e+02	-3.137006e+01
4.348297e+02	-3.141710e+01
4.373412e+02	-3.146949e+01
4.398673e+02	-3.151098e+01
4.424079e+02	-3.156215e+01
4.449633e+02	-3.161287e+01
4.475334e+02	-3.166559e+01
4.501183e+02	-3.171909e+01
4.527182e+02	-3.177524e+01
4.553330e+02	-3.182248e+01
4.579630e+02	-3.187339e+01
4.606082e+02	-3.191282e+01
4.632687e+02	-3.196829e+01
4.659445e+02	-3.201719e+01
4.686358e+02	-3.206759e+01
4.713426e+02	-3.211959e+01
4.740650e+02	-3.217334e+01
4.768032e+02	-3.222089e+01
4.795572e+02	-3.226614e+01
4.823271e+02	-3.232188e+01
4.851130e+02	-3.237324e+01
4.879150e+02	-3.241954e+01
4.907332e+02	-3.247151e+01
4.935676e+02	-3.251710e+01
4.964185e+02	-3.257362e+01
4.992858e+02	-3.261924e+01
5.021696e+02	-3.267608e+01
5.050701e+02	-3.272580e+01
5.079874e+02	-3.276818e+01
5.109215e+02	-3.281787e+01
5.138726e+02	-3.286639e+01
5.168407e+02	-3.291831e+01
5.198259e+02	-3.297545e+01
5.228284e+02	-3.302476e+01
5.258482e+02	-3.307805e+01
5.288855e+02	-3.311912e+01
5.319403e+02	-3.317734e+01
5.350128e+02	-3.322659e+01
5.381030e+02	-3.327822e+01
5.412111e+02	-3.333156e+01
5.443371e+02	-3.337525e+01
5.474812e+02	-3.342487e+01
5.506434e+02	-3.347316e+01
5.538239e+02	-3.352522e+01
5.570228e+02	-3.356896e+01
5.602401e+02	-3.363072e+01
5.634760e+02	-3.367697e+01
5.667306e+02	-3.371997e+01
5.700040e+02	-3.377634e+01
5.732964e+02	-3.382893e+01
5.766077e+02	-3.387114e+01
5.799382e+02	-3.392031e+01
5.832879e+02	-3.397569e+01
5.866569e+02	-3.402758e+01
5.900454e+02	-3.408467e+01
5.934535e+02	-3.413190e+01
5.968813e+02	-3.418238e+01
6.003288e+02	-3.422828e+01
6.037963e+02	-3.428157e+01
6.072838e+02	-3.433613e+01
6.107914e+02	-3.438114e+01
6.143194e+02	-3.443045e+01
6.178676e+02	-3.447389e+01
6.214364e+02	-3.453782e+01
6.250258e+02	-3.458386e+01
6.286359e+02	-3.463879e+01
6.322669e+02	-3.468415e+01
6.359189e+02	-3.472804e+01
6.395919e+02	-3.478930e+01
6.432862e+02	-3.483203e+01
6.470017e+02	-3.488878e+01
6.507388e+02	-3.494638e+01
6.544974e+02	-3.498366e+01
6.582778e+02	-3.503648e+01
6.620800e+02	-3.508983e+01
6.659041e+02	-3.513728e+01
6.697504e+02	-3.519512e+01
6.736188e+02	-3.523081e+01
6.775096e+02	-3.528309e+01
6.814229e+02	-3.533529e+01
6.853587e+02	-3.538810e+01
6.893173e+02	-3.543521e+01
6.932988e+02	-3.549784e+01
6.973033e+02	-3.553700e+01
7.013309e+02	-3.558210e+01
