Frequency(Hz)	Magnitude(dB)
1.000000e+01	-2.208879e+00
1.005776e+01	-2.229006e+00
1.011585e+01	-2.249278e+00
1.017428e+01	-2.269324e+00
1.023305e+01	-2.289750e+00
1.029215e+01	-2.310453e+00
1.035160e+01	-2.331403e+00
1.041139e+01	-2.352150e+00
1.047153e+01	-2.372944e+00
1.053201e+01	-2.394085e+00
1.059284e+01	-2.415334e+00
1.065403e+01	-2.436818e+00
1.071556e+01	-2.458303e+00
1.077746e+01	-2.479892e+00
1.083971e+01	-2.501812e+00
1.090232e+01	-2.523928e+00
1.096529e+01	-2.545993e+00
1.102862e+01	-2.568186e+00
1.109232e+01	-2.590408e+00
1.115639e+01	-2.613149e+00
1.122083e+01	-2.635858e+00
1.128564e+01	-2.658887e+00
1.135083e+01	-2.681652e+00
1.141639e+01	-2.704781e+00
1.148233e+01	-2.727989e+00
1.154865e+01	-2.751464e+00
1.161536e+01	-2.775050e+00
1.168245e+01	-2.798806e+00
1.174992e+01	-2.822775e+00
1.181779e+01	-2.846407e+00
1.188605e+01	-2.870752e+00
1.195470e+01	-2.894937e+00
1.202375e+01	-2.919383e+00
1.209320e+01	-2.943858e+00
1.216305e+01	-2.968735e+00
1.223330e+01	-2.993444e+00
1.230396e+01	-3.018153e+00
1.237503e+01	-3.043535e+00
1.244651e+01	-3.068828e+00
1.251840e+01	-3.094080e+00
1.259070e+01	-3.119722e+00
1.266343e+01	-3.145382e+00
1.273657e+01	-3.171610e+00
1.281014e+01	-3.197466e+00
1.288413e+01	-3.223540e+00
1.295855e+01	-3.249743e+00
1.303339e+01	-3.276186e+00
1.310867e+01	-3.302735e+00
1.318439e+01	-3.329486e+00
1.326054e+01	-3.356497e+00
1.333713e+01	-3.383283e+00
1.341417e+01	-3.410532e+00
1.349165e+01	-3.437644e+00
1.356958e+01	-3.465181e+00
1.364795e+01	-3.492563e+00
1.372678e+01	-3.520222e+00
1.380607e+01	-3.548307e+00
1.388581e+01	-3.576334e+00
1.396602e+01	-3.604440e+00
1.404668e+01	-3.632820e+00
1.412782e+01	-3.661139e+00
1.420942e+01	-3.689612e+00
1.429149e+01	-3.718393e+00
1.437404e+01	-3.747457e+00
1.445706e+01	-3.776533e+00
1.454057e+01	-3.805510e+00
1.462455e+01	-3.834815e+00
1.470902e+01	-3.864159e+00
1.479398e+01	-3.893752e+00
1.487943e+01	-3.923284e+00
1.496537e+01	-3.953129e+00
1.505181e+01	-3.982974e+00
1.513875e+01	-4.013237e+00
1.522619e+01	-4.043705e+00
1.531414e+01	-4.073927e+00
1.540259e+01	-4.104242e+00
1.549156e+01	-4.135181e+00
1.558103e+01	-4.165739e+00
1.567103e+01	-4.196699e+00
1.576155e+01	-4.227921e+00
1.585258e+01	-4.258932e+00
1.594415e+01	-4.290396e+00
1.603624e+01	-4.321872e+00
1.612886e+01	-4.353426e+00
1.622202e+01	-4.385107e+00
1.631572e+01	-4.417093e+00
1.640996e+01	-4.449118e+00
1.650474e+01	-4.481070e+00
1.660008e+01	-4.513517e+00
1.669596e+01	-4.545896e+00
1.679239e+01	-4.578123e+00
1.688938e+01	-4.610761e+00
1.698694e+01	-4.643549e+00
1.708505e+01	-4.676474e+00
1.718373e+01	-4.709551e+00
1.728299e+01	-4.742947e+00
1.738281e+01	-4.776442e+00
1.748322e+01	-4.809403e+00
1.758420e+01	-4.842722e+00
1.768576e+01	-4.877067e+00
1.778792e+01	-4.910665e+00
1.789066e+01	-4.944545e+00
1.799399e+01	-4.978763e+00
1.809793e+01	-5.013129e+00
1.820246e+01	-5.047202e+00
1.830760e+01	-5.081645e+00
1.841334e+01	-5.116190e+00
1.851969e+01	-5.150898e+00
1.862666e+01	-5.185786e+00
1.873425e+01	-5.220623e+00
1.884246e+01	-5.255850e+00
1.895129e+01	-5.290794e+00
1.906075e+01	-5.325964e+00
1.917085e+01	-5.361578e+00
1.928158e+01	-5.397297e+00
1.939295e+01	-5.432551e+00
1.950496e+01	-5.468338e+00
1.961762e+01	-5.504184e+00
1.973093e+01	-5.540321e+00
1.984490e+01	-5.576568e+00
1.995952e+01	-5.612817e+00
2.007480e+01	-5.649363e+00
2.019076e+01	-5.685451e+00
2.030738e+01	-5.722090e+00
2.042467e+01	-5.758452e+00
2.054264e+01	-5.795426e+00
2.066130e+01	-5.832224e+00
2.078064e+01	-5.869273e+00
2.090066e+01	-5.906471e+00
2.102139e+01	-5.943763e+00
2.114280e+01	-5.981460e+00
2.126492e+01	-6.018855e+00
2.138775e+01	-6.056244e+00
2.151128e+01	-6.094101e+00
2.163553e+01	-6.131758e+00
2.176050e+01	-6.169341e+00
2.188619e+01	-6.207660e+00
2.201260e+01	-6.245479e+00
2.213974e+01	-6.284058e+00
2.226762e+01	-6.322235e+00
2.239624e+01	-6.360422e+00
2.252560e+01	-6.399271e+00
2.265571e+01	-6.437637e+00
2.278656e+01	-6.476412e+00
2.291818e+01	-6.515267e+00
2.305055e+01	-6.554220e+00
2.318369e+01	-6.593238e+00
2.331760e+01	-6.632469e+00
2.345228e+01	-6.671309e+00
2.358774e+01	-6.710547e+00
2.372398e+01	-6.750060e+00
2.386101e+01	-6.789907e+00
2.399883e+01	-6.829509e+00
2.413745e+01	-6.868517e+00
2.427686e+01	-6.908732e+00
2.441709e+01	-6.948380e+00
2.455812e+01	-6.988568e+00
2.469997e+01	-7.028900e+00
2.484263e+01	-7.068657e+00
2.498612e+01	-7.108868e+00
2.513044e+01	-7.149557e+00
2.527559e+01	-7.189781e+00
2.542158e+01	-7.230229e+00
2.556842e+01	-7.271077e+00
2.571610e+01	-7.311919e+00
2.586463e+01	-7.352390e+00
2.601403e+01	-7.393286e+00
2.616428e+01	-7.434419e+00
2.631541e+01	-7.475340e+00
2.646740e+01	-7.516634e+00
2.662028e+01	-7.557739e+00
2.677404e+01	-7.598967e+00
2.692868e+01	-7.640400e+00
2.708422e+01	-7.681590e+00
2.724066e+01	-7.723259e+00
2.739800e+01	-7.764732e+00
2.755625e+01	-7.806591e+00
2.771541e+01	-7.848686e+00
2.787550e+01	-7.890448e+00
2.803650e+01	-7.932089e+00
2.819844e+01	-7.974103e+00
2.836131e+01	-8.016061e+00
2.852513e+01	-8.058368e+00
2.868989e+01	-8.100409e+00
2.885560e+01	-8.143074e+00
2.902227e+01	-8.185081e+00
2.918990e+01	-8.228143e+00
2.935850e+01	-8.270211e+00
2.952807e+01	-8.312870e+00
2.969863e+01	-8.356055e+00
2.987016e+01	-8.398199e+00
3.004269e+01	-8.441207e+00
3.021622e+01	-8.484171e+00
3.039075e+01	-8.527005e+00
3.056628e+01	-8.569805e+00
3.074283e+01	-8.613341e+00
3.092040e+01	-8.656571e+00
3.109900e+01	-8.699438e+00
3.127862e+01	-8.742839e+00
3.145929e+01	-8.786189e+00
3.164099e+01	-8.829878e+00
3.182375e+01	-8.873411e+00
3.200756e+01	-8.917411e+00
3.219244e+01	-8.960371e+00
3.237838e+01	-9.004004e+00
3.256540e+01	-9.047915e+00
3.275349e+01	-9.092191e+00
3.294268e+01	-9.135688e+00
3.313295e+01	-9.179616e+00
3.332433e+01	-9.223501e+00
3.351681e+01	-9.267970e+00
3.371040e+01	-9.311972e+00
3.390511e+01	-9.356421e+00
3.410094e+01	-9.400227e+00
3.429791e+01	-9.445119e+00
3.449601e+01	-9.488953e+00
3.469526e+01	-9.533366e+00
3.489566e+01	-9.577645e+00
3.509721e+01	-9.622698e+00
3.529993e+01	-9.667057e+00
3.550382e+01	-9.711328e+00
3.570889e+01	-9.756475e+00
3.591515e+01	-9.801657e+00
3.612259e+01	-9.845910e+00
3.633123e+01	-9.891069e+00
3.654108e+01	-9.935579e+00
3.675214e+01	-9.980571e+00
3.696442e+01	-1.002625e+01
3.717792e+01	-1.007118e+01
3.739266e+01	-1.011598e+01
3.760864e+01	-1.016092e+01
3.782587e+01	-1.020632e+01
3.804435e+01	-1.025184e+01
3.826409e+01	-1.029782e+01
3.848510e+01	-1.034251e+01
3.870739e+01	-1.038795e+01
3.893096e+01	-1.043298e+01
3.915583e+01	-1.047881e+01
3.938199e+01	-1.052455e+01
3.960946e+01	-1.056997e+01
3.983824e+01	-1.061540e+01
4.006834e+01	-1.066184e+01
4.029978e+01	-1.070719e+01
4.053255e+01	-1.075316e+01
4.076666e+01	-1.079805e+01
4.100213e+01	-1.084472e+01
4.123896e+01	-1.089073e+01
4.147715e+01	-1.093648e+01
4.171672e+01	-1.098293e+01
4.195767e+01	-1.102890e+01
4.220002e+01	-1.107441e+01
4.244377e+01	-1.112098e+01
4.268892e+01	-1.116752e+01
4.293549e+01	-1.121383e+01
4.318348e+01	-1.125994e+01
4.343291e+01	-1.130581e+01
4.368377e+01	-1.135234e+01
4.393609e+01	-1.139853e+01
4.418986e+01	-1.144558e+01
4.444510e+01	-1.149126e+01
4.470182e+01	-1.153769e+01
4.496001e+01	-1.158466e+01
4.521970e+01	-1.163080e+01
4.548089e+01	-1.167835e+01
4.574358e+01	-1.172464e+01
4.600779e+01	-1.177135e+01
4.627353e+01	-1.181785e+01
4.654081e+01	-1.186428e+01
4.680963e+01	-1.191104e+01
4.708000e+01	-1.195791e+01
4.735193e+01	-1.200574e+01
4.762543e+01	-1.205201e+01
4.790051e+01	-1.209837e+01
4.817719e+01	-1.214582e+01
4.845545e+01	-1.219261e+01
4.873533e+01	-1.224013e+01
4.901682e+01	-1.228663e+01
4.929994e+01	-1.233421e+01
4.958470e+01	-1.238133e+01
4.987110e+01	-1.242814e+01
5.015915e+01	-1.247512e+01
5.044887e+01	-1.252253e+01
5.074026e+01	-1.256976e+01
5.103333e+01	-1.261721e+01
5.132810e+01	-1.266501e+01
5.162457e+01	-1.271171e+01
5.192275e+01	-1.275938e+01
5.222265e+01	-1.280611e+01
5.252429e+01	-1.285407e+01
5.282767e+01	-1.290121e+01
5.313280e+01	-1.294794e+01
5.343969e+01	-1.299641e+01
5.374836e+01	-1.304382e+01
5.405880e+01	-1.309132e+01
5.437105e+01	-1.313936e+01
5.468509e+01	-1.318635e+01
5.500095e+01	-1.323473e+01
5.531863e+01	-1.328124e+01
5.563815e+01	-1.332890e+01
5.595951e+01	-1.337734e+01
5.628273e+01	-1.342603e+01
5.660782e+01	-1.347259e+01
5.693479e+01	-1.352067e+01
5.726364e+01	-1.356812e+01
5.759439e+01	-1.361636e+01
5.792705e+01	-1.366383e+01
5.826164e+01	-1.371152e+01
5.859815e+01	-1.376010e+01
5.893662e+01	-1.380791e+01
5.927703e+01	-1.385703e+01
5.961941e+01	-1.390327e+01
5.996377e+01	-1.395200e+01
6.031012e+01	-1.400042e+01
6.065847e+01	-1.404768e+01
6.100883e+01	-1.409604e+01
6.136121e+01	-1.414435e+01
6.171563e+01	-1.419167e+01
6.207210e+01	-1.424068e+01
6.243063e+01	-1.428795e+01
6.279122e+01	-1.433690e+01
6.315390e+01	-1.438479e+01
6.351868e+01	-1.443308e+01
6.388556e+01	-1.448145e+01
6.425456e+01	-1.452902e+01
6.462569e+01	-1.457802e+01
6.499897e+01	-1.462586e+01
6.537440e+01	-1.467414e+01
6.575200e+01	-1.472281e+01
6.613178e+01	-1.477104e+01
6.651375e+01	-1.481918e+01
6.689793e+01	-1.486815e+01
6.728433e+01	-1.491650e+01
6.767297e+01	-1.496499e+01
6.806384e+01	-1.501363e+01
6.845698e+01	-1.506173e+01
6.885238e+01	-1.510977e+01
6.925007e+01	-1.515881e+01
6.965005e+01	-1.520676e+01
7.005235e+01	-1.525546e+01
7.045697e+01	-1.530442e+01
7.086393e+01	-1.535244e+01
7.127323e+01	-1.540107e+01
7.168490e+01	-1.544918e+01
7.209895e+01	-1.549870e+01
7.251539e+01	-1.554701e+01
7.293424e+01	-1.559561e+01
7.335551e+01	-1.564432e+01
7.377920e+01	-1.569300e+01
7.420535e+01	-1.574216e+01
7.463396e+01	-1.579051e+01
7.506504e+01	-1.583889e+01
7.549861e+01	-1.588762e+01
7.593469e+01	-1.593669e+01
7.637328e+01	-1.598422e+01
7.681441e+01	-1.603371e+01
7.725809e+01	-1.608279e+01
7.770433e+01	-1.613140e+01
7.815315e+01	-1.618146e+01
7.860456e+01	-1.623013e+01
7.905857e+01	-1.627825e+01
7.951521e+01	-1.632669e+01
7.997449e+01	-1.637600e+01
8.043642e+01	-1.642468e+01
8.090102e+01	-1.647470e+01
8.136830e+01	-1.652200e+01
8.183828e+01	-1.657265e+01
8.231097e+01	-1.662016e+01
8.278640e+01	-1.666943e+01
8.326457e+01	-1.671879e+01
8.374550e+01	-1.676764e+01
8.422921e+01	-1.681687e+01
8.471572e+01	-1.686482e+01
8.520503e+01	-1.691411e+01
8.569717e+01	-1.696383e+01
8.619215e+01	-1.701193e+01
8.669000e+01	-1.706186e+01
8.719071e+01	-1.711052e+01
8.769432e+01	-1.715940e+01
8.820084e+01	-1.720811e+01
8.871029e+01	-1.725692e+01
8.922267e+01	-1.730707e+01
8.973802e+01	-1.735631e+01
9.025634e+01	-1.740433e+01
9.077766e+01	-1.745480e+01
9.130199e+01	-1.750285e+01
9.182935e+01	-1.755202e+01
9.235975e+01	-1.760067e+01
9.289321e+01	-1.765151e+01
9.342976e+01	-1.769979e+01
9.396941e+01	-1.775003e+01
9.451217e+01	-1.779894e+01
9.505807e+01	-1.784716e+01
9.560712e+01	-1.789615e+01
9.615934e+01	-1.794741e+01
9.671476e+01	-1.799601e+01
9.727338e+01	-1.804363e+01
9.783522e+01	-1.809388e+01
9.840032e+01	-1.814364e+01
9.896867e+01	-1.819152e+01
9.954031e+01	-1.824091e+01
1.001153e+02	-1.829199e+01
1.006935e+02	-1.834040e+01
1.012751e+02	-1.838997e+01
1.018601e+02	-1.843907e+01
1.024484e+02	-1.848728e+01
1.030402e+02	-1.853687e+01
1.036353e+02	-1.858598e+01
1.042339e+02	-1.863570e+01
1.048360e+02	-1.868655e+01
1.054415e+02	-1.873434e+01
1.060505e+02	-1.878347e+01
1.066631e+02	-1.883294e+01
1.072791e+02	-1.888487e+01
1.078988e+02	-1.893119e+01
1.085220e+02	-1.898084e+01
1.091488e+02	-1.903064e+01
1.097793e+02	-1.908048e+01
1.104133e+02	-1.913016e+01
1.110511e+02	-1.918032e+01
1.116925e+02	-1.922859e+01
1.123376e+02	-1.927953e+01
1.129865e+02	-1.932835e+01
1.136391e+02	-1.937761e+01
1.142955e+02	-1.942522e+01
1.149556e+02	-1.947566e+01
1.156196e+02	-1.952576e+01
1.162874e+02	-1.957342e+01
1.169591e+02	-1.962399e+01
1.176347e+02	-1.967319e+01
1.183141e+02	-1.972469e+01
1.189975e+02	-1.977326e+01
1.196848e+02	-1.982139e+01
1.203761e+02	-1.987249e+01
1.210714e+02	-1.992113e+01
1.217707e+02	-1.997202e+01
1.224740e+02	-2.001930e+01
1.231814e+02	-2.006993e+01
1.238929e+02	-2.012001e+01
1.246085e+02	-2.016919e+01
1.253283e+02	-2.021906e+01
1.260522e+02	-2.026924e+01
1.267802e+02	-2.031716e+01
1.275125e+02	-2.036651e+01
1.282490e+02	-2.041707e+01
1.289898e+02	-2.046803e+01
1.297348e+02	-2.051530e+01
1.304842e+02	-2.056584e+01
1.312378e+02	-2.061490e+01
1.319959e+02	-2.066346e+01
1.327583e+02	-2.071425e+01
1.335251e+02	-2.076215e+01
1.342963e+02	-2.081347e+01
1.350720e+02	-2.086279e+01
1.358522e+02	-2.091427e+01
1.366368e+02	-2.096118e+01
1.374260e+02	-2.101253e+01
1.382198e+02	-2.106095e+01
1.390182e+02	-2.111078e+01
1.398211e+02	-2.116228e+01
1.406287e+02	-2.121071e+01
1.414410e+02	-2.126045e+01
1.422579e+02	-2.131197e+01
1.430796e+02	-2.136067e+01
1.439060e+02	-2.141014e+01
1.447372e+02	-2.145912e+01
1.455732e+02	-2.150838e+01
1.464141e+02	-2.155855e+01
1.472597e+02	-2.161027e+01
1.481103e+02	-2.165656e+01
1.489658e+02	-2.170757e+01
1.498262e+02	-2.175706e+01
1.506916e+02	-2.180551e+01
1.515620e+02	-2.185702e+01
1.524374e+02	-2.190683e+01
1.533179e+02	-2.195591e+01
1.542034e+02	-2.200778e+01
1.550941e+02	-2.205799e+01
1.559899e+02	-2.210581e+01
1.568909e+02	-2.215780e+01
1.577971e+02	-2.220601e+01
1.587085e+02	-2.225367e+01
1.596252e+02	-2.230426e+01
1.605472e+02	-2.235478e+01
1.614745e+02	-2.240385e+01
1.624072e+02	-2.245222e+01
1.633453e+02	-2.250493e+01
1.642887e+02	-2.255424e+01
1.652377e+02	-2.260310e+01
1.661921e+02	-2.265317e+01
1.671520e+02	-2.270346e+01
1.681175e+02	-2.275234e+01
1.690885e+02	-2.280295e+01
1.700651e+02	-2.285112e+01
1.710474e+02	-2.290116e+01
1.720354e+02	-2.295285e+01
1.730291e+02	-2.300011e+01
1.740285e+02	-2.305309e+01
1.750337e+02	-2.309913e+01
1.760446e+02	-2.315104e+01
1.770615e+02	-2.319951e+01
1.780842e+02	-2.325284e+01
1.791128e+02	-2.329869e+01
1.801473e+02	-2.334962e+01
1.811878e+02	-2.340005e+01
1.822344e+02	-2.344994e+01
1.832870e+02	-2.350012e+01
1.843456e+02	-2.355036e+01
1.854104e+02	-2.360010e+01
1.864813e+02	-2.364894e+01
1.875584e+02	-2.369640e+01
1.886418e+02	-2.374744e+01
1.897313e+02	-2.380042e+01
1.908272e+02	-2.384856e+01
1.919294e+02	-2.389754e+01
1.930380e+02	-2.394811e+01
1.941530e+02	-2.399889e+01
1.952744e+02	-2.404678e+01
1.964023e+02	-2.409847e+01
1.975367e+02	-2.414687e+01
1.986777e+02	-2.419727e+01
1.998252e+02	-2.424755e+01
2.009794e+02	-2.429320e+01
2.021403e+02	-2.434494e+01
2.033078e+02	-2.439874e+01
2.044821e+02	-2.444679e+01
2.056632e+02	-2.449544e+01
2.068511e+02	-2.454440e+01
2.080459e+02	-2.459471e+01
2.092475e+02	-2.464440e+01
2.104561e+02	-2.469682e+01
2.116717e+02	-2.474614e+01
2.128943e+02	-2.479560e+01
2.141240e+02	-2.484550e+01
2.153608e+02	-2.489659e+01
2.166047e+02	-2.494513e+01
2.178558e+02	-2.499370e+01
2.191141e+02	-2.504611e+01
2.203797e+02	-2.509396e+01
2.216526e+02	-2.514646e+01
2.229329e+02	-2.519618e+01
2.242205e+02	-2.524479e+01
2.255156e+02	-2.529637e+01
2.268182e+02	-2.534369e+01
2.281283e+02	-2.539812e+01
2.294459e+02	-2.544361e+01
2.307712e+02	-2.549672e+01
2.321041e+02	-2.554612e+01
2.334447e+02	-2.559530e+01
2.347931e+02	-2.564703e+01
2.361493e+02	-2.569815e+01
2.375133e+02	-2.574325e+01
2.388851e+02	-2.579416e+01
2.402649e+02	-2.584451e+01
2.416527e+02	-2.589532e+01
2.430484e+02	-2.594308e+01
2.444523e+02	-2.599380e+01
2.458642e+02	-2.604480e+01
2.472843e+02	-2.609532e+01
2.487126e+02	-2.614503e+01
2.501492e+02	-2.619584e+01
2.515940e+02	-2.624536e+01
2.530472e+02	-2.629552e+01
2.545088e+02	-2.634490e+01
2.559789e+02	-2.639408e+01
2.574574e+02	-2.644318e+01
2.589444e+02	-2.649528e+01
2.604401e+02	-2.654604e+01
2.619444e+02	-2.659177e+01
2.634574e+02	-2.664089e+01
2.649791e+02	-2.669282e+01
2.665096e+02	-2.674382e+01
2.680489e+02	-2.679507e+01
2.695972e+02	-2.684645e+01
2.711544e+02	-2.689473e+01
2.727205e+02	-2.694274e+01
2.742958e+02	-2.699583e+01
2.758801e+02	-2.704319e+01
2.774736e+02	-2.709312e+01
2.790762e+02	-2.714634e+01
2.806882e+02	-2.719505e+01
2.823094e+02	-2.724117e+01
2.839400e+02	-2.729281e+01
2.855800e+02	-2.734143e+01
2.872295e+02	-2.739466e+01
2.888886e+02	-2.744255e+01
2.905572e+02	-2.749351e+01
2.922354e+02	-2.754284e+01
2.939234e+02	-2.759039e+01
2.956211e+02	-2.764543e+01
2.973286e+02	-2.768958e+01
2.990459e+02	-2.774536e+01
3.007732e+02	-2.779318e+01
3.025104e+02	-2.784586e+01
3.042577e+02	-2.788981e+01
3.060151e+02	-2.794574e+01
3.077826e+02	-2.799855e+01
3.095604e+02	-2.804247e+01
3.113484e+02	-2.809535e+01
3.131467e+02	-2.814004e+01
3.149554e+02	-2.819540e+01
3.167746e+02	-2.824313e+01
3.186043e+02	-2.828980e+01
3.204445e+02	-2.834068e+01
3.222954e+02	-2.839113e+01
3.241570e+02	-2.844831e+01
3.260293e+02	-2.849115e+01
3.279124e+02	-2.854119e+01
3.298064e+02	-2.859101e+01
3.317114e+02	-2.864525e+01
3.336273e+02	-2.869903e+01
3.355544e+02	-2.874377e+01
3.374925e+02	-2.879373e+01
3.394418e+02	-2.884003e+01
3.414024e+02	-2.889274e+01
3.433744e+02	-2.894332e+01
3.453577e+02	-2.899041e+01
3.473525e+02	-2.904424e+01
3.493588e+02	-2.909639e+01
3.513766e+02	-2.914323e+01
3.534062e+02	-2.919660e+01
3.554474e+02	-2.924976e+01
3.575005e+02	-2.929627e+01
3.595654e+02	-2.934315e+01
3.616422e+02	-2.940060e+01
3.637311e+02	-2.944383e+01
3.658320e+02	-2.949466e+01
3.679450e+02	-2.954731e+01
3.700702e+02	-2.959441e+01
3.722077e+02	-2.964330e+01
3.743576e+02	-2.969197e+01
3.765199e+02	-2.974162e+01
3.786946e+02	-2.979253e+01
3.808820e+02	-2.984684e+01
3.830819e+02	-2.989414e+01
3.852946e+02	-2.994589e+01
3.875200e+02	-2.999544e+01
3.897583e+02	-3.005008e+01
3.920096e+02	-3.009354e+01
3.942738e+02	-3.014705e+01
3.965511e+02	-3.019483e+01
3.988416e+02	-3.024342e+01
4.011452e+02	-3.029557e+01
4.034622e+02	-3.034719e+01
4.057926e+02	-3.039586e+01
4.081365e+02	-3.044343e+01
4.104938e+02	-3.049440e+01
4.128648e+02	-3.055120e+01
4.152495e+02	-3.060035e+01
4.176480e+02	-3.064367e+01
4.200603e+02	-3.069794e+01
4.224866e+02	-3.074384e+01
4.249268e+02	-3.080139e+01
4.273812e+02	-3.084732e+01
4.298497e+02	-3.089818e+01
4.323325e+02	-3.094720e+01
4.348297e+02	-3.099751e+01
4.373412e+02	-3.105182e+01
4.398673e+02	-3.109593e+01
4.424079e+02	-3.114918e+01
4.449633e+02	-3.119925e+01
4.475334e+02	-3.124658e+01
4.501183e+02	-3.129902e+01
4.527182e+02	-3.134706e+01
4.553330e+02	-3.139958e+01
4.579630e+02	-3.145139e+01
4.606082e+02	-3.149928e+01
4.632687e+02	-3.154684e+01
4.659445e+02	-3.160062e+01
4.686358e+02	-3.165173e+01
4.713426e+02	-3.169986e+01
4.740650e+02	-3.175099e+01
4.768032e+02	-3.179655e+01
4.795572e+02	-3.185444e+01
4.823271e+02	-3.190089e+01
4.851130e+02	-3.194560e+01
4.879150e+02	-3.200630e+01
4.907332e+02	-3.205078e+01
4.935676e+02	-3.209994e+01
4.964185e+02	-3.214253e+01
4.992858e+02	-3.219800e+01
5.021696e+02	-3.224886e+01
5.050701e+02	-3.229951e+01
5.079874e+02	-3.234879e+01
5.109215e+02	-3.240120e+01
5.138726e+02	-3.245187e+01
5.168407e+02	-3.249646e+01
5.198259e+02	-3.254898e+01
5.228284e+02	-3.260285e+01
5.258482e+02	-3.265327e+01
5.288855e+02	-3.270921e+01
5.319403e+02	-3.275507e+01
5.350128e+02	-3.280738e+01
5.381030e+02	-3.285549e+01
5.412111e+02	-3.290233e+01
5.443371e+02	-3.295252e+01
5.474812e+02	-3.300372e+01
5.506434e+02	-3.305951e+01
5.538239e+02	-3.310961e+01
5.570228e+02	-3.315717e+01
5.602401e+02	-3.320215e+01
5.634760e+02	-3.325890e+01
5.667306e+02	-3.330909e+01
5.700040e+02	-3.335617e+01
5.732964e+02	-3.340876e+01
5.766077e+02	-3.346053e+01
5.799382e+02	-3.350585e+01
5.832879e+02	-3.356300e+01
5.866569e+02	-3.360690e+01
5.900454e+02	-3.365805e+01
5.934535e+02	-3.370585e+01
5.968813e+02	-3.375673e+01
6.003288e+02	-3.380564e+01
6.037963e+02	-3.386590e+01
6.072838e+02	-3.390149e+01
6.107914e+02	-3.395930e+01
6.143194e+02	-3.400656e+01
6.178676e+02	-3.405419e+01
6.214364e+02	-3.411949e+01
6.250258e+02	-3.415733e+01
6.286359e+02	-3.420493e+01
6.322669e+02	-3.426854e+01
6.359189e+02	-3.431457e+01
6.395919e+02	-3.436156e+01
6.432862e+02	-3.442399e+01
6.470017e+02	-3.446812e+01
6.507388e+02	-3.451897e+01
6.544974e+02	-3.455932e+01
6.582778e+02	-3.461246e+01
6.620800e+02	-3.466824e+01
6.659041e+02	-3.470997e+01
6.697504e+02	-3.476384e+01
6.736188e+02	-3.481992e+01
6.775096e+02	-3.486377e+01
6.814229e+02	-3.490898e+01
6.853587e+02	-3.496258e+01
6.893173e+02	-3.502451e+01
6.932988e+02	-3.507178e+01
6.973033e+02	-3.512224e+01
7.013309e+02	-3.516358e+01
