Frequency(Hz)	Magnitude(dB)
1.000000e+01	-1.607617e-05
1.005776e+01	-1.626242e-05
1.011585e+01	-1.645082e-05
1.017428e+01	-1.664141e-05
1.023305e+01	-1.683420e-05
1.029215e+01	-1.702923e-05
1.035160e+01	-1.722652e-05
1.041139e+01	-1.742609e-05
1.047153e+01	-1.762798e-05
1.053201e+01	-1.783220e-05
1.059284e+01	-1.803880e-05
1.065403e+01	-1.824778e-05
1.071556e+01	-1.845919e-05
1.077746e+01	-1.867304e-05
1.083971e+01	-1.888937e-05
1.090232e+01	-1.910821e-05
1.096529e+01	-1.932958e-05
1.102862e+01	-1.955352e-05
1.109232e+01	-1.978005e-05
1.115639e+01	-2.000921e-05
1.122083e+01	-2.024102e-05
1.128564e+01	-2.047552e-05
1.135083e+01	-2.071273e-05
1.141639e+01	-2.095270e-05
1.148233e+01	-2.119544e-05
1.154865e+01	-2.144099e-05
1.161536e+01	-2.168939e-05
1.168245e+01	-2.194067e-05
1.174992e+01	-2.219486e-05
1.181779e+01	-2.245199e-05
1.188605e+01	-2.271210e-05
1.195470e+01	-2.297523e-05
1.202375e+01	-2.324140e-05
1.209320e+01	-2.351066e-05
1.216305e+01	-2.378304e-05
1.223330e+01	-2.405857e-05
1.230396e+01	-2.433729e-05
1.237503e+01	-2.461925e-05
1.244651e+01	-2.490447e-05
1.251840e+01	-2.519299e-05
1.259070e+01	-2.548486e-05
1.266343e+01	-2.578011e-05
1.273657e+01	-2.607877e-05
1.281014e+01	-2.638090e-05
1.288413e+01	-2.668653e-05
1.295855e+01	-2.699570e-05
1.303339e+01	-2.730845e-05
1.310867e+01	-2.762483e-05
1.318439e+01	-2.794487e-05
1.326054e+01	-2.826862e-05
1.333713e+01	-2.859612e-05
1.341417e+01	-2.892741e-05
1.349165e+01	-2.926254e-05
1.356958e+01	-2.960155e-05
1.364795e+01	-2.994450e-05
1.372678e+01	-3.029141e-05
1.380607e+01	-3.064234e-05
1.388581e+01	-3.099734e-05
1.396602e+01	-3.135645e-05
1.404668e+01	-3.171973e-05
1.412782e+01	-3.208721e-05
1.420942e+01	-3.245894e-05
1.429149e+01	-3.283499e-05
1.437404e+01	-3.321539e-05
1.445706e+01	-3.360020e-05
1.454057e+01	-3.398946e-05
1.462455e+01	-3.438324e-05
1.470902e+01	-3.478158e-05
1.479398e+01	-3.518453e-05
1.487943e+01	-3.559215e-05
1.496537e+01	-3.600449e-05
1.505181e+01	-3.642161e-05
1.513875e+01	-3.684357e-05
1.522619e+01	-3.727041e-05
1.531414e+01	-3.770219e-05
1.540259e+01	-3.813898e-05
1.549156e+01	-3.858083e-05
1.558103e+01	-3.902780e-05
1.567103e+01	-3.947995e-05
1.576155e+01	-3.993733e-05
1.585258e+01	-4.040001e-05
1.594415e+01	-4.086806e-05
1.603624e+01	-4.134152e-05
1.612886e+01	-4.182047e-05
1.622202e+01	-4.230497e-05
1.631572e+01	-4.279508e-05
1.640996e+01	-4.329088e-05
1.650474e+01	-4.379241e-05
1.660008e+01	-4.429975e-05
1.669596e+01	-4.481298e-05
1.679239e+01	-4.533215e-05
1.688938e+01	-4.585733e-05
1.698694e+01	-4.638860e-05
1.708505e+01	-4.692602e-05
1.718373e+01	-4.746967e-05
1.728299e+01	-4.801961e-05
1.738281e+01	-4.857593e-05
1.748322e+01	-4.913869e-05
1.758420e+01	-4.970797e-05
1.768576e+01	-5.028385e-05
1.778792e+01	-5.086640e-05
1.789066e+01	-5.145570e-05
1.799399e+01	-5.205182e-05
1.809793e+01	-5.265485e-05
1.820246e+01	-5.326487e-05
1.830760e+01	-5.388196e-05
1.841334e+01	-5.450619e-05
1.851969e+01	-5.513766e-05
1.862666e+01	-5.577644e-05
1.873425e+01	-5.642262e-05
1.884246e+01	-5.707629e-05
1.895129e+01	-5.773753e-05
1.906075e+01	-5.840643e-05
1.917085e+01	-5.908308e-05
1.928158e+01	-5.976757e-05
1.939295e+01	-6.045999e-05
1.950496e+01	-6.116043e-05
1.961762e+01	-6.186898e-05
1.973093e+01	-6.258575e-05
1.984490e+01	-6.331081e-05
1.995952e+01	-6.404428e-05
2.007480e+01	-6.478625e-05
2.019076e+01	-6.553681e-05
2.030738e+01	-6.629607e-05
2.042467e+01	-6.706412e-05
2.054264e+01	-6.784107e-05
2.066130e+01	-6.862702e-05
2.078064e+01	-6.942208e-05
2.090066e+01	-7.022635e-05
2.102139e+01	-7.103993e-05
2.114280e+01	-7.186294e-05
2.126492e+01	-7.269549e-05
2.138775e+01	-7.353768e-05
2.151128e+01	-7.438962e-05
2.163553e+01	-7.525144e-05
2.176050e+01	-7.612324e-05
2.188619e+01	-7.700514e-05
2.201260e+01	-7.789726e-05
2.213974e+01	-7.879972e-05
2.226762e+01	-7.971262e-05
2.239624e+01	-8.063611e-05
2.252560e+01	-8.157029e-05
2.265571e+01	-8.251530e-05
2.278656e+01	-8.347125e-05
2.291818e+01	-8.443828e-05
2.305055e+01	-8.541651e-05
2.318369e+01	-8.640607e-05
2.331760e+01	-8.740710e-05
2.345228e+01	-8.841973e-05
2.358774e+01	-8.944409e-05
2.372398e+01	-9.048031e-05
2.386101e+01	-9.152854e-05
2.399883e+01	-9.258891e-05
2.413745e+01	-9.366157e-05
2.427686e+01	-9.474665e-05
2.441709e+01	-9.584430e-05
2.455812e+01	-9.695468e-05
2.469997e+01	-9.807791e-05
2.484263e+01	-9.921416e-05
2.498612e+01	-1.003636e-04
2.513044e+01	-1.015263e-04
2.527559e+01	-1.027025e-04
2.542158e+01	-1.038923e-04
2.556842e+01	-1.050959e-04
2.571610e+01	-1.063135e-04
2.586463e+01	-1.075451e-04
2.601403e+01	-1.087911e-04
2.616428e+01	-1.100514e-04
2.631541e+01	-1.113264e-04
2.646740e+01	-1.126161e-04
2.662028e+01	-1.139208e-04
2.677404e+01	-1.152406e-04
2.692868e+01	-1.165756e-04
2.708422e+01	-1.179262e-04
2.724066e+01	-1.192924e-04
2.739800e+01	-1.206744e-04
2.755625e+01	-1.220724e-04
2.771541e+01	-1.234866e-04
2.787550e+01	-1.249172e-04
2.803650e+01	-1.263644e-04
2.819844e+01	-1.278284e-04
2.836131e+01	-1.293093e-04
2.852513e+01	-1.308073e-04
2.868989e+01	-1.323227e-04
2.885560e+01	-1.338557e-04
2.902227e+01	-1.354065e-04
2.918990e+01	-1.369751e-04
2.935850e+01	-1.385620e-04
2.952807e+01	-1.401673e-04
2.969863e+01	-1.417911e-04
2.987016e+01	-1.434338e-04
3.004269e+01	-1.450955e-04
3.021622e+01	-1.467764e-04
3.039075e+01	-1.484768e-04
3.056628e+01	-1.501970e-04
3.074283e+01	-1.519370e-04
3.092040e+01	-1.536972e-04
3.109900e+01	-1.554778e-04
3.127862e+01	-1.572790e-04
3.145929e+01	-1.591011e-04
3.164099e+01	-1.609443e-04
3.182375e+01	-1.628088e-04
3.200756e+01	-1.646950e-04
3.219244e+01	-1.666030e-04
3.237838e+01	-1.685331e-04
3.256540e+01	-1.704856e-04
3.275349e+01	-1.724607e-04
3.294268e+01	-1.744586e-04
3.313295e+01	-1.764797e-04
3.332433e+01	-1.785243e-04
3.351681e+01	-1.805925e-04
3.371040e+01	-1.826846e-04
3.390511e+01	-1.848010e-04
3.410094e+01	-1.869420e-04
3.429791e+01	-1.891077e-04
3.449601e+01	-1.912985e-04
3.469526e+01	-1.935147e-04
3.489566e+01	-1.957566e-04
3.509721e+01	-1.980244e-04
3.529993e+01	-2.003185e-04
3.550382e+01	-2.026392e-04
3.570889e+01	-2.049868e-04
3.591515e+01	-2.073616e-04
3.612259e+01	-2.097639e-04
3.633123e+01	-2.121940e-04
3.654108e+01	-2.146522e-04
3.675214e+01	-2.171390e-04
3.696442e+01	-2.196545e-04
3.717792e+01	-2.221992e-04
3.739266e+01	-2.247734e-04
3.760864e+01	-2.273774e-04
3.782587e+01	-2.300116e-04
3.804435e+01	-2.326762e-04
3.826409e+01	-2.353718e-04
3.848510e+01	-2.380986e-04
3.870739e+01	-2.408569e-04
3.893096e+01	-2.436472e-04
3.915583e+01	-2.464699e-04
3.938199e+01	-2.493252e-04
3.960946e+01	-2.522136e-04
3.983824e+01	-2.551355e-04
4.006834e+01	-2.580912e-04
4.029978e+01	-2.610812e-04
4.053255e+01	-2.641058e-04
4.076666e+01	-2.671655e-04
4.100213e+01	-2.702605e-04
4.123896e+01	-2.733915e-04
4.147715e+01	-2.765587e-04
4.171672e+01	-2.797626e-04
4.195767e+01	-2.830036e-04
4.220002e+01	-2.862822e-04
4.244377e+01	-2.895988e-04
4.268892e+01	-2.929537e-04
4.293549e+01	-2.963476e-04
4.318348e+01	-2.997807e-04
4.343291e+01	-3.032536e-04
4.368377e+01	-3.067668e-04
4.393609e+01	-3.103206e-04
4.418986e+01	-3.139157e-04
4.444510e+01	-3.175523e-04
4.470182e+01	-3.212311e-04
4.496001e+01	-3.249525e-04
4.521970e+01	-3.287171e-04
4.548089e+01	-3.325252e-04
4.574358e+01	-3.363774e-04
4.600779e+01	-3.402743e-04
4.627353e+01	-3.442163e-04
4.654081e+01	-3.482040e-04
4.680963e+01	-3.522379e-04
4.708000e+01	-3.563185e-04
4.735193e+01	-3.604464e-04
4.762543e+01	-3.646221e-04
4.790051e+01	-3.688461e-04
4.817719e+01	-3.731191e-04
4.845545e+01	-3.774416e-04
4.873533e+01	-3.818142e-04
4.901682e+01	-3.862374e-04
4.929994e+01	-3.907119e-04
4.958470e+01	-3.952382e-04
4.987110e+01	-3.998169e-04
5.015915e+01	-4.044487e-04
5.044887e+01	-4.091341e-04
5.074026e+01	-4.138738e-04
5.103333e+01	-4.186684e-04
5.132810e+01	-4.235186e-04
5.162457e+01	-4.284249e-04
5.192275e+01	-4.333881e-04
5.222265e+01	-4.384088e-04
5.252429e+01	-4.434876e-04
5.282767e+01	-4.486253e-04
5.313280e+01	-4.538224e-04
5.343969e+01	-4.590798e-04
5.374836e+01	-4.643981e-04
5.405880e+01	-4.697780e-04
5.437105e+01	-4.752202e-04
5.468509e+01	-4.807255e-04
5.500095e+01	-4.862945e-04
5.531863e+01	-4.919280e-04
5.563815e+01	-4.976268e-04
5.595951e+01	-5.033916e-04
5.628273e+01	-5.092232e-04
5.660782e+01	-5.151224e-04
5.693479e+01	-5.210898e-04
5.726364e+01	-5.271264e-04
5.759439e+01	-5.332330e-04
5.792705e+01	-5.394102e-04
5.826164e+01	-5.456591e-04
5.859815e+01	-5.519803e-04
5.893662e+01	-5.583747e-04
5.927703e+01	-5.648432e-04
5.961941e+01	-5.713866e-04
5.996377e+01	-5.780059e-04
6.031012e+01	-5.847018e-04
6.065847e+01	-5.914753e-04
6.100883e+01	-5.983272e-04
6.136121e+01	-6.052585e-04
6.171563e+01	-6.122701e-04
6.207210e+01	-6.193629e-04
6.243063e+01	-6.265379e-04
6.279122e+01	-6.337959e-04
6.315390e+01	-6.411381e-04
6.351868e+01	-6.485653e-04
6.388556e+01	-6.560786e-04
6.425456e+01	-6.636788e-04
6.462569e+01	-6.713671e-04
6.499897e+01	-6.791445e-04
6.537440e+01	-6.870119e-04
6.575200e+01	-6.949705e-04
6.613178e+01	-7.030213e-04
6.651375e+01	-7.111653e-04
6.689793e+01	-7.194037e-04
6.728433e+01	-7.277375e-04
6.767297e+01	-7.361678e-04
6.806384e+01	-7.446958e-04
6.845698e+01	-7.533225e-04
6.885238e+01	-7.620492e-04
6.925007e+01	-7.708770e-04
6.965005e+01	-7.798070e-04
7.005235e+01	-7.888405e-04
7.045697e+01	-7.979786e-04
7.086393e+01	-8.072225e-04
7.127323e+01	-8.165735e-04
7.168490e+01	-8.260328e-04
7.209895e+01	-8.356017e-04
7.251539e+01	-8.452815e-04
7.293424e+01	-8.550733e-04
7.335551e+01	-8.649786e-04
7.377920e+01	-8.749986e-04
7.420535e+01	-8.851347e-04
7.463396e+01	-8.953881e-04
7.506504e+01	-9.057604e-04
7.549861e+01	-9.162527e-04
7.593469e+01	-9.268666e-04
7.637328e+01	-9.376035e-04
7.681441e+01	-9.484647e-04
7.725809e+01	-9.594517e-04
7.770433e+01	-9.705660e-04
7.815315e+01	-9.818090e-04
7.860456e+01	-9.931822e-04
7.905857e+01	-1.004687e-03
7.951521e+01	-1.016325e-03
7.997449e+01	-1.028098e-03
8.043642e+01	-1.040008e-03
8.090102e+01	-1.052055e-03
8.136830e+01	-1.064242e-03
8.183828e+01	-1.076570e-03
8.231097e+01	-1.089041e-03
8.278640e+01	-1.101656e-03
8.326457e+01	-1.114417e-03
8.374550e+01	-1.127326e-03
8.422921e+01	-1.140385e-03
8.471572e+01	-1.153595e-03
8.520503e+01	-1.166958e-03
8.569717e+01	-1.180476e-03
8.619215e+01	-1.194150e-03
8.669000e+01	-1.207982e-03
8.719071e+01	-1.221975e-03
8.769432e+01	-1.236130e-03
8.820084e+01	-1.250449e-03
8.871029e+01	-1.264934e-03
8.922267e+01	-1.279586e-03
8.973802e+01	-1.294408e-03
9.025634e+01	-1.309402e-03
9.077766e+01	-1.324570e-03
9.130199e+01	-1.339913e-03
9.182935e+01	-1.355434e-03
9.235975e+01	-1.371134e-03
9.289321e+01	-1.387017e-03
9.342976e+01	-1.403083e-03
9.396941e+01	-1.419335e-03
9.451217e+01	-1.435776e-03
9.505807e+01	-1.452407e-03
9.560712e+01	-1.469231e-03
9.615934e+01	-1.486249e-03
9.671476e+01	-1.503465e-03
9.727338e+01	-1.520880e-03
9.783522e+01	-1.538497e-03
9.840032e+01	-1.556317e-03
9.896867e+01	-1.574344e-03
9.954031e+01	-1.592580e-03
1.001153e+02	-1.611027e-03
1.006935e+02	-1.629688e-03
1.012751e+02	-1.648565e-03
1.018601e+02	-1.667660e-03
1.024484e+02	-1.686977e-03
1.030402e+02	-1.706517e-03
1.036353e+02	-1.726283e-03
1.042339e+02	-1.746279e-03
1.048360e+02	-1.766506e-03
1.054415e+02	-1.786967e-03
1.060505e+02	-1.807665e-03
1.066631e+02	-1.828603e-03
1.072791e+02	-1.849784e-03
1.078988e+02	-1.871209e-03
1.085220e+02	-1.892883e-03
1.091488e+02	-1.914808e-03
1.097793e+02	-1.936986e-03
1.104133e+02	-1.959422e-03
1.110511e+02	-1.982117e-03
1.116925e+02	-2.005075e-03
1.123376e+02	-2.028299e-03
1.129865e+02	-2.051792e-03
1.136391e+02	-2.075556e-03
1.142955e+02	-2.099597e-03
1.149556e+02	-2.123915e-03
1.156196e+02	-2.148515e-03
1.162874e+02	-2.173400e-03
1.169591e+02	-2.198573e-03
1.176347e+02	-2.224037e-03
1.183141e+02	-2.249797e-03
1.189975e+02	-2.275854e-03
1.196848e+02	-2.302214e-03
1.203761e+02	-2.328878e-03
1.210714e+02	-2.355852e-03
1.217707e+02	-2.383137e-03
1.224740e+02	-2.410739e-03
1.231814e+02	-2.438660e-03
1.238929e+02	-2.466905e-03
1.246085e+02	-2.495476e-03
1.253283e+02	-2.524379e-03
1.260522e+02	-2.553616e-03
1.267802e+02	-2.583191e-03
1.275125e+02	-2.613109e-03
1.282490e+02	-2.643373e-03
1.289898e+02	-2.673988e-03
1.297348e+02	-2.704957e-03
1.304842e+02	-2.736285e-03
1.312378e+02	-2.767976e-03
1.319959e+02	-2.800033e-03
1.327583e+02	-2.832461e-03
1.335251e+02	-2.865265e-03
1.342963e+02	-2.898449e-03
1.350720e+02	-2.932017e-03
1.358522e+02	-2.965974e-03
1.366368e+02	-3.000323e-03
1.374260e+02	-3.035071e-03
1.382198e+02	-3.070220e-03
1.390182e+02	-3.105777e-03
1.398211e+02	-3.141745e-03
1.406287e+02	-3.178130e-03
1.414410e+02	-3.214936e-03
1.422579e+02	-3.252168e-03
1.430796e+02	-3.289830e-03
1.439060e+02	-3.327929e-03
1.447372e+02	-3.366469e-03
1.455732e+02	-3.405455e-03
1.464141e+02	-3.444893e-03
1.472597e+02	-3.484787e-03
1.481103e+02	-3.525143e-03
1.489658e+02	-3.565966e-03
1.498262e+02	-3.607261e-03
1.506916e+02	-3.649034e-03
1.515620e+02	-3.691291e-03
1.524374e+02	-3.734038e-03
1.533179e+02	-3.777279e-03
1.542034e+02	-3.821020e-03
1.550941e+02	-3.865268e-03
1.559899e+02	-3.910028e-03
1.568909e+02	-3.955306e-03
1.577971e+02	-4.001108e-03
1.587085e+02	-4.047440e-03
1.596252e+02	-4.094309e-03
1.605472e+02	-4.141720e-03
1.614745e+02	-4.189679e-03
1.624072e+02	-4.238194e-03
1.633453e+02	-4.287270e-03
1.642887e+02	-4.336915e-03
1.652377e+02	-4.387133e-03
1.661921e+02	-4.437934e-03
1.671520e+02	-4.489322e-03
1.681175e+02	-4.541304e-03
1.690885e+02	-4.593889e-03
1.700651e+02	-4.647081e-03
1.710474e+02	-4.700890e-03
1.720354e+02	-4.755321e-03
1.730291e+02	-4.810382e-03
1.740285e+02	-4.866080e-03
1.750337e+02	-4.922423e-03
1.760446e+02	-4.979418e-03
1.770615e+02	-5.037072e-03
1.780842e+02	-5.095394e-03
1.791128e+02	-5.154390e-03
1.801473e+02	-5.214069e-03
1.811878e+02	-5.274438e-03
1.822344e+02	-5.335507e-03
1.832870e+02	-5.397281e-03
1.843456e+02	-5.459771e-03
1.854104e+02	-5.522983e-03
1.864813e+02	-5.586927e-03
1.875584e+02	-5.651611e-03
1.886418e+02	-5.717043e-03
1.897313e+02	-5.783232e-03
1.908272e+02	-5.850187e-03
1.919294e+02	-5.917917e-03
1.930380e+02	-5.986430e-03
1.941530e+02	-6.055736e-03
1.952744e+02	-6.125844e-03
1.964023e+02	-6.196762e-03
1.975367e+02	-6.268501e-03
1.986777e+02	-6.341070e-03
1.998252e+02	-6.414479e-03
2.009794e+02	-6.488737e-03
2.021403e+02	-6.563853e-03
2.033078e+02	-6.639839e-03
2.044821e+02	-6.716704e-03
2.056632e+02	-6.794457e-03
2.068511e+02	-6.873110e-03
2.080459e+02	-6.952673e-03
2.092475e+02	-7.033156e-03
2.104561e+02	-7.114570e-03
2.116717e+02	-7.196926e-03
2.128943e+02	-7.280234e-03
2.141240e+02	-7.364506e-03
2.153608e+02	-7.449752e-03
2.166047e+02	-7.535984e-03
2.178558e+02	-7.623214e-03
2.191141e+02	-7.711452e-03
2.203797e+02	-7.800710e-03
2.216526e+02	-7.891001e-03
2.229329e+02	-7.982336e-03
2.242205e+02	-8.074727e-03
2.255156e+02	-8.168187e-03
2.268182e+02	-8.262727e-03
2.281283e+02	-8.358361e-03
2.294459e+02	-8.455100e-03
2.307712e+02	-8.552958e-03
2.321041e+02	-8.651947e-03
2.334447e+02	-8.752080e-03
2.347931e+02	-8.853372e-03
2.361493e+02	-8.955834e-03
2.375133e+02	-9.059481e-03
2.388851e+02	-9.164327e-03
2.402649e+02	-9.270384e-03
2.416527e+02	-9.377667e-03
2.430484e+02	-9.486191e-03
2.444523e+02	-9.595969e-03
2.458642e+02	-9.707016e-03
2.472843e+02	-9.819347e-03
2.487126e+02	-9.932976e-03
2.501492e+02	-1.004792e-02
2.515940e+02	-1.016419e-02
2.530472e+02	-1.028180e-02
2.545088e+02	-1.040078e-02
2.559789e+02	-1.052113e-02
2.574574e+02	-1.064287e-02
2.589444e+02	-1.076601e-02
2.604401e+02	-1.089059e-02
2.619444e+02	-1.101659e-02
2.634574e+02	-1.114406e-02
2.649791e+02	-1.127300e-02
2.665096e+02	-1.140343e-02
2.680489e+02	-1.153536e-02
2.695972e+02	-1.166882e-02
2.711544e+02	-1.180382e-02
2.727205e+02	-1.194039e-02
2.742958e+02	-1.207853e-02
2.758801e+02	-1.221826e-02
2.774736e+02	-1.235961e-02
2.790762e+02	-1.250259e-02
2.806882e+02	-1.264723e-02
2.823094e+02	-1.279353e-02
2.839400e+02	-1.294153e-02
2.855800e+02	-1.309123e-02
2.872295e+02	-1.324266e-02
2.888886e+02	-1.339585e-02
2.905572e+02	-1.355080e-02
2.922354e+02	-1.370754e-02
2.939234e+02	-1.386609e-02
2.956211e+02	-1.402647e-02
2.973286e+02	-1.418870e-02
2.990459e+02	-1.435281e-02
3.007732e+02	-1.451881e-02
3.025104e+02	-1.468673e-02
3.042577e+02	-1.485659e-02
3.060151e+02	-1.502841e-02
3.077826e+02	-1.520221e-02
3.095604e+02	-1.537802e-02
3.113484e+02	-1.555586e-02
3.131467e+02	-1.573575e-02
3.149554e+02	-1.591772e-02
3.167746e+02	-1.610178e-02
3.186043e+02	-1.628798e-02
3.204445e+02	-1.647632e-02
3.222954e+02	-1.666683e-02
3.241570e+02	-1.685954e-02
3.260293e+02	-1.705448e-02
3.279124e+02	-1.725167e-02
3.298064e+02	-1.745113e-02
3.317114e+02	-1.765289e-02
3.336273e+02	-1.785699e-02
3.355544e+02	-1.806343e-02
3.374925e+02	-1.827226e-02
3.394418e+02	-1.848350e-02
3.414024e+02	-1.869717e-02
3.433744e+02	-1.891331e-02
3.453577e+02	-1.913194e-02
3.473525e+02	-1.935309e-02
3.493588e+02	-1.957679e-02
3.513766e+02	-1.980308e-02
3.534062e+02	-2.003197e-02
3.554474e+02	-2.026350e-02
3.575005e+02	-2.049770e-02
3.595654e+02	-2.073461e-02
3.616422e+02	-2.097424e-02
3.637311e+02	-2.121664e-02
3.658320e+02	-2.146183e-02
3.679450e+02	-2.170984e-02
3.700702e+02	-2.196072e-02
3.722077e+02	-2.221449e-02
3.743576e+02	-2.247118e-02
3.765199e+02	-2.273083e-02
3.786946e+02	-2.299347e-02
3.808820e+02	-2.325914e-02
3.830819e+02	-2.352787e-02
3.852946e+02	-2.379970e-02
3.875200e+02	-2.407466e-02
3.897583e+02	-2.435279e-02
3.920096e+02	-2.463412e-02
3.942738e+02	-2.491869e-02
3.965511e+02	-2.520654e-02
3.988416e+02	-2.549770e-02
4.011452e+02	-2.579222e-02
4.034622e+02	-2.609013e-02
4.057926e+02	-2.639147e-02
4.081365e+02	-2.669627e-02
4.104938e+02	-2.700459e-02
4.128648e+02	-2.731646e-02
4.152495e+02	-2.763192e-02
4.176480e+02	-2.795101e-02
4.200603e+02	-2.827377e-02
4.224866e+02	-2.860025e-02
4.249268e+02	-2.893048e-02
4.273812e+02	-2.926452e-02
4.298497e+02	-2.960239e-02
4.323325e+02	-2.994416e-02
4.348297e+02	-3.028986e-02
4.373412e+02	-3.063953e-02
4.398673e+02	-3.099323e-02
4.424079e+02	-3.135099e-02
4.449633e+02	-3.171287e-02
4.475334e+02	-3.207891e-02
4.501183e+02	-3.244916e-02
4.527182e+02	-3.282367e-02
4.553330e+02	-3.320248e-02
4.579630e+02	-3.358565e-02
4.606082e+02	-3.397322e-02
4.632687e+02	-3.436525e-02
4.659445e+02	-3.476178e-02
4.686358e+02	-3.516287e-02
4.713426e+02	-3.556857e-02
4.740650e+02	-3.597892e-02
4.768032e+02	-3.639400e-02
4.795572e+02	-3.681384e-02
4.823271e+02	-3.723850e-02
4.851130e+02	-3.766805e-02
4.879150e+02	-3.810252e-02
4.907332e+02	-3.854198e-02
4.935676e+02	-3.898649e-02
4.964185e+02	-3.943611e-02
4.992858e+02	-3.989088e-02
5.021696e+02	-4.035087e-02
5.050701e+02	-4.081615e-02
5.079874e+02	-4.128676e-02
5.109215e+02	-4.176277e-02
5.138726e+02	-4.224424e-02
5.168407e+02	-4.273124e-02
5.198259e+02	-4.322382e-02
5.228284e+02	-4.372206e-02
5.258482e+02	-4.422600e-02
5.288855e+02	-4.473573e-02
5.319403e+02	-4.525130e-02
5.350128e+02	-4.577278e-02
5.381030e+02	-4.630023e-02
5.412111e+02	-4.683373e-02
5.443371e+02	-4.737335e-02
5.474812e+02	-4.791915e-02
5.506434e+02	-4.847120e-02
5.538239e+02	-4.902958e-02
5.570228e+02	-4.959435e-02
5.602401e+02	-5.016559e-02
5.634760e+02	-5.074336e-02
5.667306e+02	-5.132776e-02
5.700040e+02	-5.191884e-02
5.732964e+02	-5.251669e-02
5.766077e+02	-5.312139e-02
5.799382e+02	-5.373300e-02
5.832879e+02	-5.435161e-02
5.866569e+02	-5.497729e-02
5.900454e+02	-5.561013e-02
5.934535e+02	-5.625021e-02
5.968813e+02	-5.689761e-02
6.003288e+02	-5.755241e-02
6.037963e+02	-5.821470e-02
6.072838e+02	-5.888455e-02
6.107914e+02	-5.956206e-02
6.143194e+02	-6.024731e-02
6.178676e+02	-6.094039e-02
6.214364e+02	-6.164138e-02
6.250258e+02	-6.235038e-02
6.286359e+02	-6.306748e-02
6.322669e+02	-6.379276e-02
6.359189e+02	-6.452632e-02
6.395919e+02	-6.526825e-02
6.432862e+02	-6.601865e-02
6.470017e+02	-6.677761e-02
6.507388e+02	-6.754522e-02
6.544974e+02	-6.832159e-02
6.582778e+02	-6.910682e-02
6.620800e+02	-6.990099e-02
6.659041e+02	-7.070422e-02
6.697504e+02	-7.151660e-02
6.736188e+02	-7.233823e-02
6.775096e+02	-7.316923e-02
6.814229e+02	-7.400969e-02
6.853587e+02	-7.485972e-02
6.893173e+02	-7.571943e-02
6.932988e+02	-7.658892e-02
6.973033e+02	-7.746831e-02
7.013309e+02	-7.835770e-02
