Frequency(Hz)	Magnitude(dB)
1.000000e+01	-2.127845e+00
1.005776e+01	-2.147148e+00
1.011585e+01	-2.166725e+00
1.017428e+01	-2.186419e+00
1.023305e+01	-2.206334e+00
1.029215e+01	-2.226512e+00
1.035160e+01	-2.246512e+00
1.041139e+01	-2.266725e+00
1.047153e+01	-2.287047e+00
1.053201e+01	-2.307665e+00
1.059284e+01	-2.328390e+00
1.065403e+01	-2.349165e+00
1.071556e+01	-2.370416e+00
1.077746e+01	-2.391296e+00
1.083971e+01	-2.412728e+00
1.090232e+01	-2.434057e+00
1.096529e+01	-2.455475e+00
1.102862e+01	-2.477208e+00
1.109232e+01	-2.499063e+00
1.115639e+01	-2.521056e+00
1.122083e+01	-2.543097e+00
1.128564e+01	-2.564959e+00
1.135083e+01	-2.587667e+00
1.141639e+01	-2.610216e+00
1.148233e+01	-2.632982e+00
1.154865e+01	-2.655901e+00
1.161536e+01	-2.678562e+00
1.168245e+01	-2.701674e+00
1.174992e+01	-2.724917e+00
1.181779e+01	-2.748376e+00
1.188605e+01	-2.772026e+00
1.195470e+01	-2.795599e+00
1.202375e+01	-2.819320e+00
1.209320e+01	-2.843390e+00
1.216305e+01	-2.867705e+00
1.223330e+01	-2.891640e+00
1.230396e+01	-2.915802e+00
1.237503e+01	-2.940505e+00
1.244651e+01	-2.965260e+00
1.251840e+01	-2.990027e+00
1.259070e+01	-3.015402e+00
1.266343e+01	-3.040088e+00
1.273657e+01	-3.065421e+00
1.281014e+01	-3.090849e+00
1.288413e+01	-3.116225e+00
1.295855e+01	-3.142186e+00
1.303339e+01	-3.167986e+00
1.310867e+01	-3.193872e+00
1.318439e+01	-3.219929e+00
1.326054e+01	-3.246101e+00
1.333713e+01	-3.272648e+00
1.341417e+01	-3.299250e+00
1.349165e+01	-3.326095e+00
1.356958e+01	-3.352739e+00
1.364795e+01	-3.379863e+00
1.372678e+01	-3.406777e+00
1.380607e+01	-3.434334e+00
1.388581e+01	-3.461543e+00
1.396602e+01	-3.489082e+00
1.404668e+01	-3.516792e+00
1.412782e+01	-3.544623e+00
1.420942e+01	-3.572561e+00
1.429149e+01	-3.600924e+00
1.437404e+01	-3.629012e+00
1.445706e+01	-3.657748e+00
1.454057e+01	-3.685885e+00
1.462455e+01	-3.714584e+00
1.470902e+01	-3.743551e+00
1.479398e+01	-3.772367e+00
1.487943e+01	-3.801690e+00
1.496537e+01	-3.831075e+00
1.505181e+01	-3.860308e+00
1.513875e+01	-3.889745e+00
1.522619e+01	-3.919253e+00
1.531414e+01	-3.949228e+00
1.540259e+01	-3.979021e+00
1.549156e+01	-4.009245e+00
1.558103e+01	-4.039406e+00
1.567103e+01	-4.069942e+00
1.576155e+01	-4.100368e+00
1.585258e+01	-4.130800e+00
1.594415e+01	-4.161799e+00
1.603624e+01	-4.192878e+00
1.612886e+01	-4.223631e+00
1.622202e+01	-4.254795e+00
1.631572e+01	-4.286292e+00
1.640996e+01	-4.317617e+00
1.650474e+01	-4.349049e+00
1.660008e+01	-4.381006e+00
1.669596e+01	-4.412632e+00
1.679239e+01	-4.444602e+00
1.688938e+01	-4.476757e+00
1.698694e+01	-4.509228e+00
1.708505e+01	-4.541471e+00
1.718373e+01	-4.574043e+00
1.728299e+01	-4.606676e+00
1.738281e+01	-4.639484e+00
1.748322e+01	-4.672024e+00
1.758420e+01	-4.705425e+00
1.768576e+01	-4.738330e+00
1.778792e+01	-4.772158e+00
1.789066e+01	-4.805163e+00
1.799399e+01	-4.838652e+00
1.809793e+01	-4.872382e+00
1.820246e+01	-4.906225e+00
1.830760e+01	-4.940256e+00
1.841334e+01	-4.974151e+00
1.851969e+01	-5.008542e+00
1.862666e+01	-5.042809e+00
1.873425e+01	-5.076942e+00
1.884246e+01	-5.111412e+00
1.895129e+01	-5.146169e+00
1.906075e+01	-5.181225e+00
1.917085e+01	-5.215624e+00
1.928158e+01	-5.250718e+00
1.939295e+01	-5.285947e+00
1.950496e+01	-5.321512e+00
1.961762e+01	-5.357058e+00
1.973093e+01	-5.392321e+00
1.984490e+01	-5.427875e+00
1.995952e+01	-5.463759e+00
2.007480e+01	-5.499804e+00
2.019076e+01	-5.535812e+00
2.030738e+01	-5.571775e+00
2.042467e+01	-5.607868e+00
2.054264e+01	-5.644239e+00
2.066130e+01	-5.680667e+00
2.078064e+01	-5.717114e+00
2.090066e+01	-5.753406e+00
2.102139e+01	-5.790960e+00
2.114280e+01	-5.827693e+00
2.126492e+01	-5.864297e+00
2.138775e+01	-5.901622e+00
2.151128e+01	-5.938748e+00
2.163553e+01	-5.976416e+00
2.176050e+01	-6.013829e+00
2.188619e+01	-6.051637e+00
2.201260e+01	-6.088753e+00
2.213974e+01	-6.127059e+00
2.226762e+01	-6.164559e+00
2.239624e+01	-6.202350e+00
2.252560e+01	-6.240601e+00
2.265571e+01	-6.278900e+00
2.278656e+01	-6.317292e+00
2.291818e+01	-6.355778e+00
2.305055e+01	-6.394262e+00
2.318369e+01	-6.432576e+00
2.331760e+01	-6.471144e+00
2.345228e+01	-6.509977e+00
2.358774e+01	-6.549117e+00
2.372398e+01	-6.588015e+00
2.386101e+01	-6.626918e+00
2.399883e+01	-6.666536e+00
2.413745e+01	-6.705760e+00
2.427686e+01	-6.744715e+00
2.441709e+01	-6.784680e+00
2.455812e+01	-6.824113e+00
2.469997e+01	-6.863508e+00
2.484263e+01	-6.903364e+00
2.498612e+01	-6.943312e+00
2.513044e+01	-6.983343e+00
2.527559e+01	-7.023429e+00
2.542158e+01	-7.063408e+00
2.556842e+01	-7.103787e+00
2.571610e+01	-7.143919e+00
2.586463e+01	-7.184663e+00
2.601403e+01	-7.224975e+00
2.616428e+01	-7.265395e+00
2.631541e+01	-7.306078e+00
2.646740e+01	-7.346897e+00
2.662028e+01	-7.388000e+00
2.677404e+01	-7.428681e+00
2.692868e+01	-7.469851e+00
2.708422e+01	-7.511081e+00
2.724066e+01	-7.552227e+00
2.739800e+01	-7.593854e+00
2.755625e+01	-7.634936e+00
2.771541e+01	-7.676429e+00
2.787550e+01	-7.717786e+00
2.803650e+01	-7.759196e+00
2.819844e+01	-7.801014e+00
2.836131e+01	-7.842696e+00
2.852513e+01	-7.884443e+00
2.868989e+01	-7.926856e+00
2.885560e+01	-7.968563e+00
2.902227e+01	-8.011041e+00
2.918990e+01	-8.052920e+00
2.935850e+01	-8.095286e+00
2.952807e+01	-8.137440e+00
2.969863e+01	-8.179812e+00
2.987016e+01	-8.222189e+00
3.004269e+01	-8.264749e+00
3.021622e+01	-8.307552e+00
3.039075e+01	-8.349974e+00
3.056628e+01	-8.392584e+00
3.074283e+01	-8.435602e+00
3.092040e+01	-8.478303e+00
3.109900e+01	-8.521321e+00
3.127862e+01	-8.564364e+00
3.145929e+01	-8.607587e+00
3.164099e+01	-8.650349e+00
3.182375e+01	-8.694101e+00
3.200756e+01	-8.737326e+00
3.219244e+01	-8.780547e+00
3.237838e+01	-8.824119e+00
3.256540e+01	-8.867803e+00
3.275349e+01	-8.911289e+00
3.294268e+01	-8.954375e+00
3.313295e+01	-8.998202e+00
3.332433e+01	-9.042461e+00
3.351681e+01	-9.086110e+00
3.371040e+01	-9.130415e+00
3.390511e+01	-9.173699e+00
3.410094e+01	-9.217908e+00
3.429791e+01	-9.262263e+00
3.449601e+01	-9.306212e+00
3.469526e+01	-9.349633e+00
3.489566e+01	-9.394395e+00
3.509721e+01	-9.438981e+00
3.529993e+01	-9.483470e+00
3.550382e+01	-9.527579e+00
3.570889e+01	-9.572231e+00
3.591515e+01	-9.615992e+00
3.612259e+01	-9.661380e+00
3.633123e+01	-9.705867e+00
3.654108e+01	-9.750562e+00
3.675214e+01	-9.794885e+00
3.696442e+01	-9.840544e+00
3.717792e+01	-9.884434e+00
3.739266e+01	-9.929630e+00
3.760864e+01	-9.975047e+00
3.782587e+01	-1.002009e+01
3.804435e+01	-1.006496e+01
3.826409e+01	-1.010998e+01
3.848510e+01	-1.015538e+01
3.870739e+01	-1.020018e+01
3.893096e+01	-1.024522e+01
3.915583e+01	-1.029093e+01
3.938199e+01	-1.033685e+01
3.960946e+01	-1.038210e+01
3.983824e+01	-1.042718e+01
4.006834e+01	-1.047244e+01
4.029978e+01	-1.051883e+01
4.053255e+01	-1.056395e+01
4.076666e+01	-1.060948e+01
4.100213e+01	-1.065529e+01
4.123896e+01	-1.070116e+01
4.147715e+01	-1.074703e+01
4.171672e+01	-1.079246e+01
4.195767e+01	-1.083830e+01
4.220002e+01	-1.088478e+01
4.244377e+01	-1.093079e+01
4.268892e+01	-1.097702e+01
4.293549e+01	-1.102242e+01
4.318348e+01	-1.106870e+01
4.343291e+01	-1.111446e+01
4.368377e+01	-1.116117e+01
4.393609e+01	-1.120663e+01
4.418986e+01	-1.125356e+01
4.444510e+01	-1.129944e+01
4.470182e+01	-1.134624e+01
4.496001e+01	-1.139267e+01
4.521970e+01	-1.143851e+01
4.548089e+01	-1.148494e+01
4.574358e+01	-1.153123e+01
4.600779e+01	-1.157834e+01
4.627353e+01	-1.162389e+01
4.654081e+01	-1.167151e+01
4.680963e+01	-1.171855e+01
4.708000e+01	-1.176456e+01
4.735193e+01	-1.181150e+01
4.762543e+01	-1.185786e+01
4.790051e+01	-1.190501e+01
4.817719e+01	-1.195218e+01
4.845545e+01	-1.199933e+01
4.873533e+01	-1.204640e+01
4.901682e+01	-1.209248e+01
4.929994e+01	-1.213949e+01
4.958470e+01	-1.218653e+01
4.987110e+01	-1.223343e+01
5.015915e+01	-1.228100e+01
5.044887e+01	-1.232780e+01
5.074026e+01	-1.237458e+01
5.103333e+01	-1.242189e+01
5.132810e+01	-1.246921e+01
5.162457e+01	-1.251595e+01
5.192275e+01	-1.256324e+01
5.222265e+01	-1.261049e+01
5.252429e+01	-1.265831e+01
5.282767e+01	-1.270518e+01
5.313280e+01	-1.275333e+01
5.343969e+01	-1.279982e+01
5.374836e+01	-1.284777e+01
5.405880e+01	-1.289507e+01
5.437105e+01	-1.294319e+01
5.468509e+01	-1.299102e+01
5.500095e+01	-1.303790e+01
5.531863e+01	-1.308445e+01
5.563815e+01	-1.313267e+01
5.595951e+01	-1.318009e+01
5.628273e+01	-1.322806e+01
5.660782e+01	-1.327542e+01
5.693479e+01	-1.332337e+01
5.726364e+01	-1.337167e+01
5.759439e+01	-1.341882e+01
5.792705e+01	-1.346620e+01
5.826164e+01	-1.351278e+01
5.859815e+01	-1.356285e+01
5.893662e+01	-1.360967e+01
5.927703e+01	-1.365814e+01
5.961941e+01	-1.370641e+01
5.996377e+01	-1.375411e+01
6.031012e+01	-1.380140e+01
6.065847e+01	-1.384872e+01
6.100883e+01	-1.389736e+01
6.136121e+01	-1.394567e+01
6.171563e+01	-1.399355e+01
6.207210e+01	-1.404153e+01
6.243063e+01	-1.408921e+01
6.279122e+01	-1.413800e+01
6.315390e+01	-1.418548e+01
6.351868e+01	-1.423441e+01
6.388556e+01	-1.428243e+01
6.425456e+01	-1.433026e+01
6.462569e+01	-1.437926e+01
6.499897e+01	-1.442706e+01
6.537440e+01	-1.447528e+01
6.575200e+01	-1.452307e+01
6.613178e+01	-1.457153e+01
6.651375e+01	-1.461939e+01
6.689793e+01	-1.466810e+01
6.728433e+01	-1.471655e+01
6.767297e+01	-1.476419e+01
6.806384e+01	-1.481290e+01
6.845698e+01	-1.486173e+01
6.885238e+01	-1.490962e+01
6.925007e+01	-1.495902e+01
6.965005e+01	-1.500615e+01
7.005235e+01	-1.505575e+01
7.045697e+01	-1.510418e+01
7.086393e+01	-1.515281e+01
7.127323e+01	-1.520124e+01
7.168490e+01	-1.524952e+01
7.209895e+01	-1.529746e+01
7.251539e+01	-1.534640e+01
7.293424e+01	-1.539504e+01
7.335551e+01	-1.544376e+01
7.377920e+01	-1.549181e+01
7.420535e+01	-1.554154e+01
7.463396e+01	-1.559034e+01
7.506504e+01	-1.563718e+01
7.549861e+01	-1.568613e+01
7.593469e+01	-1.573450e+01
7.637328e+01	-1.578481e+01
7.681441e+01	-1.583330e+01
7.725809e+01	-1.588151e+01
7.770433e+01	-1.592998e+01
7.815315e+01	-1.597867e+01
7.860456e+01	-1.602843e+01
7.905857e+01	-1.607747e+01
7.951521e+01	-1.612537e+01
7.997449e+01	-1.617459e+01
8.043642e+01	-1.622262e+01
8.090102e+01	-1.627168e+01
8.136830e+01	-1.632067e+01
8.183828e+01	-1.636980e+01
8.231097e+01	-1.641809e+01
8.278640e+01	-1.646821e+01
8.326457e+01	-1.651728e+01
8.374550e+01	-1.656522e+01
8.422921e+01	-1.661444e+01
8.471572e+01	-1.666350e+01
8.520503e+01	-1.671206e+01
8.569717e+01	-1.676051e+01
8.619215e+01	-1.680993e+01
8.669000e+01	-1.686002e+01
8.719071e+01	-1.690869e+01
8.769432e+01	-1.695799e+01
8.820084e+01	-1.700640e+01
8.871029e+01	-1.705564e+01
8.922267e+01	-1.710353e+01
8.973802e+01	-1.715270e+01
9.025634e+01	-1.720374e+01
9.077766e+01	-1.725198e+01
9.130199e+01	-1.730004e+01
9.182935e+01	-1.735052e+01
9.235975e+01	-1.739864e+01
9.289321e+01	-1.744806e+01
9.342976e+01	-1.749731e+01
9.396941e+01	-1.754598e+01
9.451217e+01	-1.759552e+01
9.505807e+01	-1.764436e+01
9.560712e+01	-1.769368e+01
9.615934e+01	-1.774197e+01
9.671476e+01	-1.779075e+01
9.727338e+01	-1.784169e+01
9.783522e+01	-1.788941e+01
9.840032e+01	-1.793843e+01
9.896867e+01	-1.798857e+01
9.954031e+01	-1.803859e+01
1.001153e+02	-1.808718e+01
1.006935e+02	-1.813649e+01
1.012751e+02	-1.818608e+01
1.018601e+02	-1.823490e+01
1.024484e+02	-1.828488e+01
1.030402e+02	-1.833365e+01
1.036353e+02	-1.838357e+01
1.042339e+02	-1.843202e+01
1.048360e+02	-1.848083e+01
1.054415e+02	-1.853232e+01
1.060505e+02	-1.857971e+01
1.066631e+02	-1.862951e+01
1.072791e+02	-1.867932e+01
1.078988e+02	-1.872821e+01
1.085220e+02	-1.877887e+01
1.091488e+02	-1.882679e+01
1.097793e+02	-1.887663e+01
1.104133e+02	-1.892580e+01
1.110511e+02	-1.897447e+01
1.116925e+02	-1.902510e+01
1.123376e+02	-1.907399e+01
1.129865e+02	-1.912198e+01
1.136391e+02	-1.917326e+01
1.142955e+02	-1.922255e+01
1.149556e+02	-1.927225e+01
1.156196e+02	-1.932001e+01
1.162874e+02	-1.937000e+01
1.169591e+02	-1.942085e+01
1.176347e+02	-1.946926e+01
1.183141e+02	-1.951972e+01
1.189975e+02	-1.956836e+01
1.196848e+02	-1.961809e+01
1.203761e+02	-1.966876e+01
1.210714e+02	-1.971743e+01
1.217707e+02	-1.976532e+01
1.224740e+02	-1.981670e+01
1.231814e+02	-1.986570e+01
1.238929e+02	-1.991440e+01
1.246085e+02	-1.996381e+01
1.253283e+02	-2.001422e+01
1.260522e+02	-2.006433e+01
1.267802e+02	-2.011216e+01
1.275125e+02	-2.016252e+01
1.282490e+02	-2.021184e+01
1.289898e+02	-2.026304e+01
1.297348e+02	-2.031263e+01
1.304842e+02	-2.036111e+01
1.312378e+02	-2.041094e+01
1.319959e+02	-2.046028e+01
1.327583e+02	-2.051016e+01
1.335251e+02	-2.055924e+01
1.342963e+02	-2.060983e+01
1.350720e+02	-2.065813e+01
1.358522e+02	-2.070738e+01
1.366368e+02	-2.075776e+01
1.374260e+02	-2.080838e+01
1.382198e+02	-2.085799e+01
1.390182e+02	-2.090605e+01
1.398211e+02	-2.095632e+01
1.406287e+02	-2.100500e+01
1.414410e+02	-2.105615e+01
1.422579e+02	-2.110506e+01
1.430796e+02	-2.115477e+01
1.439060e+02	-2.120636e+01
1.447372e+02	-2.125379e+01
1.455732e+02	-2.130532e+01
1.464141e+02	-2.135443e+01
1.472597e+02	-2.140337e+01
1.481103e+02	-2.145277e+01
1.489658e+02	-2.150513e+01
1.498262e+02	-2.155098e+01
1.506916e+02	-2.160161e+01
1.515620e+02	-2.165210e+01
1.524374e+02	-2.170072e+01
1.533179e+02	-2.175220e+01
1.542034e+02	-2.180148e+01
1.550941e+02	-2.184853e+01
1.559899e+02	-2.189960e+01
1.568909e+02	-2.195075e+01
1.577971e+02	-2.200042e+01
1.587085e+02	-2.205060e+01
1.596252e+02	-2.210071e+01
1.605472e+02	-2.214762e+01
1.614745e+02	-2.220033e+01
1.624072e+02	-2.224963e+01
1.633453e+02	-2.229820e+01
1.642887e+02	-2.234664e+01
1.652377e+02	-2.239700e+01
1.661921e+02	-2.244842e+01
1.671520e+02	-2.249804e+01
1.681175e+02	-2.254690e+01
1.690885e+02	-2.259862e+01
1.700651e+02	-2.264850e+01
1.710474e+02	-2.269600e+01
1.720354e+02	-2.274724e+01
1.730291e+02	-2.279541e+01
1.740285e+02	-2.284353e+01
1.750337e+02	-2.289639e+01
1.760446e+02	-2.294648e+01
1.770615e+02	-2.299481e+01
1.780842e+02	-2.304634e+01
1.791128e+02	-2.309482e+01
1.801473e+02	-2.314472e+01
1.811878e+02	-2.319326e+01
1.822344e+02	-2.324437e+01
1.832870e+02	-2.329473e+01
1.843456e+02	-2.334331e+01
1.854104e+02	-2.339154e+01
1.864813e+02	-2.344400e+01
1.875584e+02	-2.349421e+01
1.886418e+02	-2.354314e+01
1.897313e+02	-2.359550e+01
1.908272e+02	-2.364167e+01
1.919294e+02	-2.369415e+01
1.930380e+02	-2.374233e+01
1.941530e+02	-2.379296e+01
1.952744e+02	-2.384184e+01
1.964023e+02	-2.389235e+01
1.975367e+02	-2.394003e+01
1.986777e+02	-2.399104e+01
1.998252e+02	-2.404241e+01
2.009794e+02	-2.409243e+01
2.021403e+02	-2.414332e+01
2.033078e+02	-2.419080e+01
2.044821e+02	-2.423921e+01
2.056632e+02	-2.428927e+01
2.068511e+02	-2.434030e+01
2.080459e+02	-2.439021e+01
2.092475e+02	-2.443859e+01
2.104561e+02	-2.449127e+01
2.116717e+02	-2.454085e+01
2.128943e+02	-2.458726e+01
2.141240e+02	-2.463844e+01
2.153608e+02	-2.469155e+01
2.166047e+02	-2.474028e+01
2.178558e+02	-2.479223e+01
2.191141e+02	-2.483772e+01
2.203797e+02	-2.488868e+01
2.216526e+02	-2.493771e+01
2.229329e+02	-2.499053e+01
2.242205e+02	-2.504000e+01
2.255156e+02	-2.508705e+01
2.268182e+02	-2.514082e+01
2.281283e+02	-2.518984e+01
2.294459e+02	-2.524427e+01
2.307712e+02	-2.529073e+01
2.321041e+02	-2.533672e+01
2.334447e+02	-2.538848e+01
2.347931e+02	-2.543580e+01
2.361493e+02	-2.548818e+01
2.375133e+02	-2.554057e+01
2.388851e+02	-2.558816e+01
2.402649e+02	-2.564038e+01
2.416527e+02	-2.569017e+01
2.430484e+02	-2.573864e+01
2.444523e+02	-2.578829e+01
2.458642e+02	-2.583791e+01
2.472843e+02	-2.588804e+01
2.487126e+02	-2.593752e+01
2.501492e+02	-2.598688e+01
2.515940e+02	-2.603631e+01
2.530472e+02	-2.608971e+01
2.545088e+02	-2.613733e+01
2.559789e+02	-2.618853e+01
2.574574e+02	-2.623792e+01
2.589444e+02	-2.628672e+01
2.604401e+02	-2.633569e+01
2.619444e+02	-2.638648e+01
2.634574e+02	-2.643871e+01
2.649791e+02	-2.648950e+01
2.665096e+02	-2.653472e+01
2.680489e+02	-2.659285e+01
2.695972e+02	-2.663668e+01
2.711544e+02	-2.668789e+01
2.727205e+02	-2.673688e+01
2.742958e+02	-2.678989e+01
2.758801e+02	-2.683373e+01
2.774736e+02	-2.689010e+01
2.790762e+02	-2.693665e+01
2.806882e+02	-2.698462e+01
2.823094e+02	-2.703864e+01
2.839400e+02	-2.709102e+01
2.855800e+02	-2.713517e+01
2.872295e+02	-2.718569e+01
2.888886e+02	-2.723735e+01
2.905572e+02	-2.728921e+01
2.922354e+02	-2.733688e+01
2.939234e+02	-2.738928e+01
2.956211e+02	-2.743720e+01
2.973286e+02	-2.748766e+01
2.990459e+02	-2.753761e+01
3.007732e+02	-2.758782e+01
3.025104e+02	-2.763798e+01
3.042577e+02	-2.769042e+01
3.060151e+02	-2.773977e+01
3.077826e+02	-2.778810e+01
3.095604e+02	-2.783723e+01
3.113484e+02	-2.788624e+01
3.131467e+02	-2.793792e+01
3.149554e+02	-2.798471e+01
3.167746e+02	-2.803563e+01
3.186043e+02	-2.808697e+01
3.204445e+02	-2.813611e+01
3.222954e+02	-2.818468e+01
3.241570e+02	-2.823771e+01
3.260293e+02	-2.828394e+01
3.279124e+02	-2.833589e+01
3.298064e+02	-2.839000e+01
3.317114e+02	-2.844048e+01
3.336273e+02	-2.849043e+01
3.355544e+02	-2.853631e+01
3.374925e+02	-2.859317e+01
3.394418e+02	-2.864052e+01
3.414024e+02	-2.869027e+01
3.433744e+02	-2.873872e+01
3.453577e+02	-2.878719e+01
3.473525e+02	-2.883793e+01
3.493588e+02	-2.888726e+01
3.513766e+02	-2.893625e+01
3.534062e+02	-2.899233e+01
3.554474e+02	-2.904267e+01
3.575005e+02	-2.908550e+01
3.595654e+02	-2.913927e+01
3.616422e+02	-2.919143e+01
3.637311e+02	-2.923805e+01
3.658320e+02	-2.928739e+01
3.679450e+02	-2.933588e+01
3.700702e+02	-2.939017e+01
3.722077e+02	-2.943850e+01
3.743576e+02	-2.948605e+01
3.765199e+02	-2.953824e+01
3.786946e+02	-2.958706e+01
3.808820e+02	-2.963369e+01
3.830819e+02	-2.969058e+01
3.852946e+02	-2.973788e+01
3.875200e+02	-2.978308e+01
3.897583e+02	-2.983892e+01
3.920096e+02	-2.988654e+01
3.942738e+02	-2.994442e+01
3.965511e+02	-2.999329e+01
3.988416e+02	-3.004156e+01
4.011452e+02	-3.008899e+01
4.034622e+02	-3.013815e+01
4.057926e+02	-3.018806e+01
4.081365e+02	-3.024010e+01
4.104938e+02	-3.029207e+01
4.128648e+02	-3.034357e+01
4.152495e+02	-3.038811e+01
4.176480e+02	-3.043859e+01
4.200603e+02	-3.048688e+01
4.224866e+02	-3.054564e+01
4.249268e+02	-3.059530e+01
4.273812e+02	-3.063541e+01
4.298497e+02	-3.069569e+01
4.323325e+02	-3.074063e+01
4.348297e+02	-3.079205e+01
4.373412e+02	-3.083956e+01
4.398673e+02	-3.089497e+01
4.424079e+02	-3.094459e+01
4.449633e+02	-3.099162e+01
4.475334e+02	-3.103839e+01
4.501183e+02	-3.108651e+01
4.527182e+02	-3.114232e+01
4.553330e+02	-3.119633e+01
4.579630e+02	-3.123995e+01
4.606082e+02	-3.129135e+01
4.632687e+02	-3.134288e+01
4.659445e+02	-3.139177e+01
4.686358e+02	-3.144127e+01
4.713426e+02	-3.150197e+01
4.740650e+02	-3.154199e+01
4.768032e+02	-3.159817e+01
4.795572e+02	-3.164658e+01
4.823271e+02	-3.169831e+01
4.851130e+02	-3.174078e+01
4.879150e+02	-3.180281e+01
4.907332e+02	-3.184860e+01
4.935676e+02	-3.190290e+01
4.964185e+02	-3.194856e+01
4.992858e+02	-3.199117e+01
5.021696e+02	-3.204642e+01
5.050701e+02	-3.209136e+01
5.079874e+02	-3.214565e+01
5.109215e+02	-3.219859e+01
5.138726e+02	-3.224540e+01
5.168407e+02	-3.228996e+01
5.198259e+02	-3.234516e+01
5.228284e+02	-3.240460e+01
5.258482e+02	-3.245002e+01
5.288855e+02	-3.249436e+01
5.319403e+02	-3.254843e+01
5.350128e+02	-3.259717e+01
5.381030e+02	-3.264815e+01
5.412111e+02	-3.270515e+01
5.443371e+02	-3.274400e+01
5.474812e+02	-3.279812e+01
5.506434e+02	-3.285349e+01
5.538239e+02	-3.289771e+01
5.570228e+02	-3.295043e+01
5.602401e+02	-3.299942e+01
5.634760e+02	-3.305179e+01
5.667306e+02	-3.310504e+01
5.700040e+02	-3.314930e+01
5.732964e+02	-3.319762e+01
5.766077e+02	-3.325224e+01
5.799382e+02	-3.330418e+01
5.832879e+02	-3.335488e+01
5.866569e+02	-3.340130e+01
5.900454e+02	-3.345627e+01
5.934535e+02	-3.350419e+01
5.968813e+02	-3.355385e+01
6.003288e+02	-3.360989e+01
6.037963e+02	-3.364614e+01
6.072838e+02	-3.369909e+01
6.107914e+02	-3.374500e+01
6.143194e+02	-3.380821e+01
6.178676e+02	-3.385346e+01
6.214364e+02	-3.391048e+01
6.250258e+02	-3.395155e+01
6.286359e+02	-3.400812e+01
6.322669e+02	-3.405603e+01
6.359189e+02	-3.410598e+01
6.395919e+02	-3.416388e+01
6.432862e+02	-3.420801e+01
6.470017e+02	-3.426118e+01
6.507388e+02	-3.430249e+01
6.544974e+02	-3.435573e+01
6.582778e+02	-3.440417e+01
6.620800e+02	-3.446111e+01
6.659041e+02	-3.450766e+01
6.697504e+02	-3.456130e+01
6.736188e+02	-3.460545e+01
6.775096e+02	-3.466353e+01
6.814229e+02	-3.470664e+01
6.853587e+02	-3.476751e+01
6.893173e+02	-3.480552e+01
6.932988e+02	-3.486698e+01
6.973033e+02	-3.491822e+01
7.013309e+02	-3.496717e+01
