Frequency(Hz)	Magnitude(dB)
1.000000e+01	-2.146887e+00
1.005776e+01	-2.166436e+00
1.011585e+01	-2.186098e+00
1.017428e+01	-2.206114e+00
1.023305e+01	-2.225905e+00
1.029215e+01	-2.246138e+00
1.035160e+01	-2.266426e+00
1.041139e+01	-2.286733e+00
1.047153e+01	-2.307280e+00
1.053201e+01	-2.328141e+00
1.059284e+01	-2.348789e+00
1.065403e+01	-2.369756e+00
1.071556e+01	-2.391002e+00
1.077746e+01	-2.412162e+00
1.083971e+01	-2.433495e+00
1.090232e+01	-2.455152e+00
1.096529e+01	-2.476825e+00
1.102862e+01	-2.498643e+00
1.109232e+01	-2.520643e+00
1.115639e+01	-2.542683e+00
1.122083e+01	-2.564838e+00
1.128564e+01	-2.587233e+00
1.135083e+01	-2.609657e+00
1.141639e+01	-2.632426e+00
1.148233e+01	-2.655374e+00
1.154865e+01	-2.678488e+00
1.161536e+01	-2.701337e+00
1.168245e+01	-2.724488e+00
1.174992e+01	-2.747953e+00
1.181779e+01	-2.771592e+00
1.188605e+01	-2.795313e+00
1.195470e+01	-2.818907e+00
1.202375e+01	-2.842858e+00
1.209320e+01	-2.867244e+00
1.216305e+01	-2.891281e+00
1.223330e+01	-2.915534e+00
1.230396e+01	-2.940177e+00
1.237503e+01	-2.964892e+00
1.244651e+01	-2.989629e+00
1.251840e+01	-3.014639e+00
1.259070e+01	-3.039666e+00
1.266343e+01	-3.065208e+00
1.273657e+01	-3.090587e+00
1.281014e+01	-3.115871e+00
1.288413e+01	-3.141645e+00
1.295855e+01	-3.167359e+00
1.303339e+01	-3.193263e+00
1.310867e+01	-3.219712e+00
1.318439e+01	-3.245949e+00
1.326054e+01	-3.272081e+00
1.333713e+01	-3.298778e+00
1.341417e+01	-3.325484e+00
1.349165e+01	-3.352563e+00
1.356958e+01	-3.379342e+00
1.364795e+01	-3.406705e+00
1.372678e+01	-3.433932e+00
1.380607e+01	-3.461193e+00
1.388581e+01	-3.488552e+00
1.396602e+01	-3.516286e+00
1.404668e+01	-3.543920e+00
1.412782e+01	-3.572222e+00
1.420942e+01	-3.600332e+00
1.429149e+01	-3.628561e+00
1.437404e+01	-3.656891e+00
1.445706e+01	-3.685644e+00
1.454057e+01	-3.714067e+00
1.462455e+01	-3.743156e+00
1.470902e+01	-3.771960e+00
1.479398e+01	-3.801055e+00
1.487943e+01	-3.830255e+00
1.496537e+01	-3.859887e+00
1.505181e+01	-3.889458e+00
1.513875e+01	-3.918893e+00
1.522619e+01	-3.948480e+00
1.531414e+01	-3.978828e+00
1.540259e+01	-4.008970e+00
1.549156e+01	-4.038889e+00
1.558103e+01	-4.069139e+00
1.567103e+01	-4.099912e+00
1.576155e+01	-4.130573e+00
1.585258e+01	-4.161432e+00
1.594415e+01	-4.192231e+00
1.603624e+01	-4.223138e+00
1.612886e+01	-4.254309e+00
1.622202e+01	-4.285686e+00
1.631572e+01	-4.317093e+00
1.640996e+01	-4.348634e+00
1.650474e+01	-4.380331e+00
1.660008e+01	-4.412157e+00
1.669596e+01	-4.444734e+00
1.679239e+01	-4.476240e+00
1.688938e+01	-4.508635e+00
1.698694e+01	-4.540868e+00
1.708505e+01	-4.573451e+00
1.718373e+01	-4.605964e+00
1.728299e+01	-4.639097e+00
1.738281e+01	-4.671477e+00
1.748322e+01	-4.705102e+00
1.758420e+01	-4.737971e+00
1.768576e+01	-4.771109e+00
1.778792e+01	-4.804688e+00
1.789066e+01	-4.837912e+00
1.799399e+01	-4.872024e+00
1.809793e+01	-4.905846e+00
1.820246e+01	-4.939503e+00
1.830760e+01	-4.973166e+00
1.841334e+01	-5.007594e+00
1.851969e+01	-5.041565e+00
1.862666e+01	-5.076521e+00
1.873425e+01	-5.111247e+00
1.884246e+01	-5.145562e+00
1.895129e+01	-5.180516e+00
1.906075e+01	-5.215583e+00
1.917085e+01	-5.250498e+00
1.928158e+01	-5.285455e+00
1.939295e+01	-5.320868e+00
1.950496e+01	-5.356333e+00
1.961762e+01	-5.391556e+00
1.973093e+01	-5.427252e+00
1.984490e+01	-5.463215e+00
1.995952e+01	-5.498841e+00
2.007480e+01	-5.534786e+00
2.019076e+01	-5.571032e+00
2.030738e+01	-5.607138e+00
2.042467e+01	-5.643826e+00
2.054264e+01	-5.680184e+00
2.066130e+01	-5.716569e+00
2.078064e+01	-5.753266e+00
2.090066e+01	-5.790353e+00
2.102139e+01	-5.826910e+00
2.114280e+01	-5.864030e+00
2.126492e+01	-5.901084e+00
2.138775e+01	-5.938346e+00
2.151128e+01	-5.975637e+00
2.163553e+01	-6.013031e+00
2.176050e+01	-6.050235e+00
2.188619e+01	-6.088012e+00
2.201260e+01	-6.125801e+00
2.213974e+01	-6.163885e+00
2.226762e+01	-6.201733e+00
2.239624e+01	-6.240075e+00
2.252560e+01	-6.278346e+00
2.265571e+01	-6.316217e+00
2.278656e+01	-6.354845e+00
2.291818e+01	-6.393321e+00
2.305055e+01	-6.431913e+00
2.318369e+01	-6.470544e+00
2.331760e+01	-6.509538e+00
2.345228e+01	-6.548326e+00
2.358774e+01	-6.587361e+00
2.372398e+01	-6.626729e+00
2.386101e+01	-6.665665e+00
2.399883e+01	-6.704900e+00
2.413745e+01	-6.744033e+00
2.427686e+01	-6.783839e+00
2.441709e+01	-6.823383e+00
2.455812e+01	-6.862849e+00
2.469997e+01	-6.902683e+00
2.484263e+01	-6.942980e+00
2.498612e+01	-6.982490e+00
2.513044e+01	-7.022373e+00
2.527559e+01	-7.063023e+00
2.542158e+01	-7.102880e+00
2.556842e+01	-7.143416e+00
2.571610e+01	-7.183699e+00
2.586463e+01	-7.224445e+00
2.601403e+01	-7.265095e+00
2.616428e+01	-7.305587e+00
2.631541e+01	-7.346436e+00
2.646740e+01	-7.387457e+00
2.662028e+01	-7.428460e+00
2.677404e+01	-7.469207e+00
2.692868e+01	-7.509923e+00
2.708422e+01	-7.551130e+00
2.724066e+01	-7.592858e+00
2.739800e+01	-7.633884e+00
2.755625e+01	-7.675404e+00
2.771541e+01	-7.716960e+00
2.787550e+01	-7.758782e+00
2.803650e+01	-7.800668e+00
2.819844e+01	-7.842092e+00
2.836131e+01	-7.884154e+00
2.852513e+01	-7.925900e+00
2.868989e+01	-7.967896e+00
2.885560e+01	-8.009688e+00
2.902227e+01	-8.051836e+00
2.918990e+01	-8.094375e+00
2.935850e+01	-8.137065e+00
2.952807e+01	-8.178873e+00
2.969863e+01	-8.221725e+00
2.987016e+01	-8.264288e+00
3.004269e+01	-8.307033e+00
3.021622e+01	-8.349189e+00
3.039075e+01	-8.391891e+00
3.056628e+01	-8.434910e+00
3.074283e+01	-8.477994e+00
3.092040e+01	-8.521078e+00
3.109900e+01	-8.563104e+00
3.127862e+01	-8.606745e+00
3.145929e+01	-8.650191e+00
3.164099e+01	-8.692945e+00
3.182375e+01	-8.736459e+00
3.200756e+01	-8.779892e+00
3.219244e+01	-8.823323e+00
3.237838e+01	-8.866717e+00
3.256540e+01	-8.910255e+00
3.275349e+01	-8.954151e+00
3.294268e+01	-8.997622e+00
3.313295e+01	-9.040929e+00
3.332433e+01	-9.085595e+00
3.351681e+01	-9.128885e+00
3.371040e+01	-9.173215e+00
3.390511e+01	-9.216955e+00
3.410094e+01	-9.261070e+00
3.429791e+01	-9.305386e+00
3.449601e+01	-9.349407e+00
3.469526e+01	-9.393794e+00
3.489566e+01	-9.437833e+00
3.509721e+01	-9.482613e+00
3.529993e+01	-9.526711e+00
3.550382e+01	-9.571462e+00
3.570889e+01	-9.615787e+00
3.591515e+01	-9.660452e+00
3.612259e+01	-9.704945e+00
3.633123e+01	-9.749794e+00
3.654108e+01	-9.794680e+00
3.675214e+01	-9.839586e+00
3.696442e+01	-9.883941e+00
3.717792e+01	-9.929163e+00
3.739266e+01	-9.974169e+00
3.760864e+01	-1.001947e+01
3.782587e+01	-1.006444e+01
3.804435e+01	-1.010898e+01
3.826409e+01	-1.015537e+01
3.848510e+01	-1.019942e+01
3.870739e+01	-1.024464e+01
3.893096e+01	-1.029004e+01
3.915583e+01	-1.033586e+01
3.938199e+01	-1.038095e+01
3.960946e+01	-1.042639e+01
3.983824e+01	-1.047200e+01
4.006834e+01	-1.051757e+01
4.029978e+01	-1.056325e+01
4.053255e+01	-1.060891e+01
4.076666e+01	-1.065420e+01
4.100213e+01	-1.070071e+01
4.123896e+01	-1.074654e+01
4.147715e+01	-1.079190e+01
4.171672e+01	-1.083754e+01
4.195767e+01	-1.088348e+01
4.220002e+01	-1.093041e+01
4.244377e+01	-1.097538e+01
4.268892e+01	-1.102183e+01
4.293549e+01	-1.106851e+01
4.318348e+01	-1.111385e+01
4.343291e+01	-1.116032e+01
4.368377e+01	-1.120670e+01
4.393609e+01	-1.125270e+01
4.418986e+01	-1.129865e+01
4.444510e+01	-1.134574e+01
4.470182e+01	-1.139205e+01
4.496001e+01	-1.143821e+01
4.521970e+01	-1.148457e+01
4.548089e+01	-1.153137e+01
4.574358e+01	-1.157789e+01
4.600779e+01	-1.162406e+01
4.627353e+01	-1.167058e+01
4.654081e+01	-1.171723e+01
4.680963e+01	-1.176362e+01
4.708000e+01	-1.181044e+01
4.735193e+01	-1.185748e+01
4.762543e+01	-1.190427e+01
4.790051e+01	-1.195075e+01
4.817719e+01	-1.199784e+01
4.845545e+01	-1.204479e+01
4.873533e+01	-1.209171e+01
4.901682e+01	-1.213888e+01
4.929994e+01	-1.218552e+01
4.958470e+01	-1.223293e+01
4.987110e+01	-1.227946e+01
5.015915e+01	-1.232707e+01
5.044887e+01	-1.237432e+01
5.074026e+01	-1.242127e+01
5.103333e+01	-1.246797e+01
5.132810e+01	-1.251569e+01
5.162457e+01	-1.256323e+01
5.192275e+01	-1.260990e+01
5.222265e+01	-1.265702e+01
5.252429e+01	-1.270487e+01
5.282767e+01	-1.275169e+01
5.313280e+01	-1.279920e+01
5.343969e+01	-1.284677e+01
5.374836e+01	-1.289421e+01
5.405880e+01	-1.294151e+01
5.437105e+01	-1.298957e+01
5.468509e+01	-1.303627e+01
5.500095e+01	-1.308436e+01
5.531863e+01	-1.313116e+01
5.563815e+01	-1.317993e+01
5.595951e+01	-1.322691e+01
5.628273e+01	-1.327486e+01
5.660782e+01	-1.332229e+01
5.693479e+01	-1.337055e+01
5.726364e+01	-1.341757e+01
5.759439e+01	-1.346565e+01
5.792705e+01	-1.351393e+01
5.826164e+01	-1.356076e+01
5.859815e+01	-1.360972e+01
5.893662e+01	-1.365706e+01
5.927703e+01	-1.370473e+01
5.961941e+01	-1.375273e+01
5.996377e+01	-1.380057e+01
6.031012e+01	-1.384870e+01
6.065847e+01	-1.389632e+01
6.100883e+01	-1.394402e+01
6.136121e+01	-1.399205e+01
6.171563e+01	-1.404030e+01
6.207210e+01	-1.408890e+01
6.243063e+01	-1.413659e+01
6.279122e+01	-1.418536e+01
6.315390e+01	-1.423319e+01
6.351868e+01	-1.428109e+01
6.388556e+01	-1.432929e+01
6.425456e+01	-1.437760e+01
6.462569e+01	-1.442589e+01
6.499897e+01	-1.447348e+01
6.537440e+01	-1.452225e+01
6.575200e+01	-1.456995e+01
6.613178e+01	-1.461863e+01
6.651375e+01	-1.466656e+01
6.689793e+01	-1.471616e+01
6.728433e+01	-1.476330e+01
6.767297e+01	-1.481270e+01
6.806384e+01	-1.486029e+01
6.845698e+01	-1.490930e+01
6.885238e+01	-1.495655e+01
6.925007e+01	-1.500464e+01
6.965005e+01	-1.505424e+01
7.005235e+01	-1.510276e+01
7.045697e+01	-1.515110e+01
7.086393e+01	-1.519937e+01
7.127323e+01	-1.524807e+01
7.168490e+01	-1.529729e+01
7.209895e+01	-1.534546e+01
7.251539e+01	-1.539387e+01
7.293424e+01	-1.544351e+01
7.335551e+01	-1.549214e+01
7.377920e+01	-1.554029e+01
7.420535e+01	-1.558710e+01
7.463396e+01	-1.563650e+01
7.506504e+01	-1.568562e+01
7.549861e+01	-1.573412e+01
7.593469e+01	-1.578314e+01
7.637328e+01	-1.583221e+01
7.681441e+01	-1.588117e+01
7.725809e+01	-1.592917e+01
7.770433e+01	-1.597723e+01
7.815315e+01	-1.602734e+01
7.860456e+01	-1.607449e+01
7.905857e+01	-1.612450e+01
7.951521e+01	-1.617397e+01
7.997449e+01	-1.622235e+01
8.043642e+01	-1.627073e+01
8.090102e+01	-1.632025e+01
8.136830e+01	-1.636882e+01
8.183828e+01	-1.641684e+01
8.231097e+01	-1.646731e+01
8.278640e+01	-1.651470e+01
8.326457e+01	-1.656468e+01
8.374550e+01	-1.661344e+01
8.422921e+01	-1.666182e+01
8.471572e+01	-1.671051e+01
8.520503e+01	-1.675983e+01
8.569717e+01	-1.680935e+01
8.619215e+01	-1.685739e+01
8.669000e+01	-1.690590e+01
8.719071e+01	-1.695430e+01
8.769432e+01	-1.700538e+01
8.820084e+01	-1.705391e+01
8.871029e+01	-1.710301e+01
8.922267e+01	-1.715208e+01
8.973802e+01	-1.720198e+01
9.025634e+01	-1.725131e+01
9.077766e+01	-1.730011e+01
9.130199e+01	-1.734839e+01
9.182935e+01	-1.739731e+01
9.235975e+01	-1.744813e+01
9.289321e+01	-1.749519e+01
9.342976e+01	-1.754481e+01
9.396941e+01	-1.759350e+01
9.451217e+01	-1.764342e+01
9.505807e+01	-1.769169e+01
9.560712e+01	-1.774185e+01
9.615934e+01	-1.779168e+01
9.671476e+01	-1.783977e+01
9.727338e+01	-1.788903e+01
9.783522e+01	-1.793808e+01
9.840032e+01	-1.798833e+01
9.896867e+01	-1.803714e+01
9.954031e+01	-1.808620e+01
1.001153e+02	-1.813481e+01
1.006935e+02	-1.818570e+01
1.012751e+02	-1.823479e+01
1.018601e+02	-1.828365e+01
1.024484e+02	-1.833355e+01
1.030402e+02	-1.838177e+01
1.036353e+02	-1.843144e+01
1.042339e+02	-1.848025e+01
1.048360e+02	-1.852998e+01
1.054415e+02	-1.858022e+01
1.060505e+02	-1.862833e+01
1.066631e+02	-1.867777e+01
1.072791e+02	-1.872780e+01
1.078988e+02	-1.877795e+01
1.085220e+02	-1.882675e+01
1.091488e+02	-1.887599e+01
1.097793e+02	-1.892664e+01
1.104133e+02	-1.897551e+01
1.110511e+02	-1.902376e+01
1.116925e+02	-1.907236e+01
1.123376e+02	-1.912338e+01
1.129865e+02	-1.917416e+01
1.136391e+02	-1.922162e+01
1.142955e+02	-1.927037e+01
1.149556e+02	-1.931993e+01
1.156196e+02	-1.937110e+01
1.162874e+02	-1.942162e+01
1.169591e+02	-1.946895e+01
1.176347e+02	-1.952091e+01
1.183141e+02	-1.956862e+01
1.189975e+02	-1.961698e+01
1.196848e+02	-1.966750e+01
1.203761e+02	-1.971562e+01
1.210714e+02	-1.976586e+01
1.217707e+02	-1.981568e+01
1.224740e+02	-1.986564e+01
1.231814e+02	-1.991524e+01
1.238929e+02	-1.996308e+01
1.246085e+02	-2.001331e+01
1.253283e+02	-2.006307e+01
1.260522e+02	-2.011147e+01
1.267802e+02	-2.016167e+01
1.275125e+02	-2.021103e+01
1.282490e+02	-2.026281e+01
1.289898e+02	-2.030856e+01
1.297348e+02	-2.035839e+01
1.304842e+02	-2.040994e+01
1.312378e+02	-2.045892e+01
1.319959e+02	-2.050810e+01
1.327583e+02	-2.055873e+01
1.335251e+02	-2.060808e+01
1.342963e+02	-2.065820e+01
1.350720e+02	-2.070771e+01
1.358522e+02	-2.075659e+01
1.366368e+02	-2.080628e+01
1.374260e+02	-2.085604e+01
1.382198e+02	-2.090666e+01
1.390182e+02	-2.095629e+01
1.398211e+02	-2.100353e+01
1.406287e+02	-2.105423e+01
1.414410e+02	-2.110434e+01
1.422579e+02	-2.115357e+01
1.430796e+02	-2.120420e+01
1.439060e+02	-2.125352e+01
1.447372e+02	-2.130356e+01
1.455732e+02	-2.135357e+01
1.464141e+02	-2.140210e+01
1.472597e+02	-2.145159e+01
1.481103e+02	-2.150304e+01
1.489658e+02	-2.155126e+01
1.498262e+02	-2.160037e+01
1.506916e+02	-2.165071e+01
1.515620e+02	-2.170001e+01
1.524374e+02	-2.175110e+01
1.533179e+02	-2.180042e+01
1.542034e+02	-2.185035e+01
1.550941e+02	-2.190036e+01
1.559899e+02	-2.195039e+01
1.568909e+02	-2.200009e+01
1.577971e+02	-2.204849e+01
1.587085e+02	-2.209962e+01
1.596252e+02	-2.214908e+01
1.605472e+02	-2.219955e+01
1.614745e+02	-2.224788e+01
1.624072e+02	-2.229895e+01
1.633453e+02	-2.234499e+01
1.642887e+02	-2.239785e+01
1.652377e+02	-2.244858e+01
1.661921e+02	-2.249406e+01
1.671520e+02	-2.254634e+01
1.681175e+02	-2.259640e+01
1.690885e+02	-2.264509e+01
1.700651e+02	-2.269440e+01
1.710474e+02	-2.274572e+01
1.720354e+02	-2.279475e+01
1.730291e+02	-2.284555e+01
1.740285e+02	-2.289539e+01
1.750337e+02	-2.294452e+01
1.760446e+02	-2.299204e+01
1.770615e+02	-2.304399e+01
1.780842e+02	-2.309627e+01
1.791128e+02	-2.314487e+01
1.801473e+02	-2.319553e+01
1.811878e+02	-2.324130e+01
1.822344e+02	-2.329357e+01
1.832870e+02	-2.334311e+01
1.843456e+02	-2.339330e+01
1.854104e+02	-2.344089e+01
1.864813e+02	-2.349290e+01
1.875584e+02	-2.354346e+01
1.886418e+02	-2.359113e+01
1.897313e+02	-2.364333e+01
1.908272e+02	-2.369355e+01
1.919294e+02	-2.374115e+01
1.930380e+02	-2.379083e+01
1.941530e+02	-2.384238e+01
1.952744e+02	-2.389344e+01
1.964023e+02	-2.394053e+01
1.975367e+02	-2.399284e+01
1.986777e+02	-2.404235e+01
1.998252e+02	-2.408931e+01
2.009794e+02	-2.414091e+01
2.021403e+02	-2.419264e+01
2.033078e+02	-2.424051e+01
2.044821e+02	-2.428998e+01
2.056632e+02	-2.433864e+01
2.068511e+02	-2.438930e+01
2.080459e+02	-2.443927e+01
2.092475e+02	-2.448987e+01
2.104561e+02	-2.453758e+01
2.116717e+02	-2.459126e+01
2.128943e+02	-2.463906e+01
2.141240e+02	-2.468960e+01
2.153608e+02	-2.474290e+01
2.166047e+02	-2.478791e+01
2.178558e+02	-2.484130e+01
2.191141e+02	-2.488953e+01
2.203797e+02	-2.493784e+01
2.216526e+02	-2.498929e+01
2.229329e+02	-2.503973e+01
2.242205e+02	-2.508534e+01
2.255156e+02	-2.513523e+01
2.268182e+02	-2.518744e+01
2.281283e+02	-2.523593e+01
2.294459e+02	-2.528488e+01
2.307712e+02	-2.533655e+01
2.321041e+02	-2.538782e+01
2.334447e+02	-2.543659e+01
2.347931e+02	-2.548729e+01
2.361493e+02	-2.553519e+01
2.375133e+02	-2.558885e+01
2.388851e+02	-2.564076e+01
2.402649e+02	-2.569155e+01
2.416527e+02	-2.573651e+01
2.430484e+02	-2.578656e+01
2.444523e+02	-2.583828e+01
2.458642e+02	-2.588756e+01
2.472843e+02	-2.593816e+01
2.487126e+02	-2.598944e+01
2.501492e+02	-2.603913e+01
2.515940e+02	-2.608812e+01
2.530472e+02	-2.613805e+01
2.545088e+02	-2.618679e+01
2.559789e+02	-2.623869e+01
2.574574e+02	-2.628898e+01
2.589444e+02	-2.633471e+01
2.604401e+02	-2.638899e+01
2.619444e+02	-2.643765e+01
2.634574e+02	-2.648621e+01
2.649791e+02	-2.653787e+01
2.665096e+02	-2.658455e+01
2.680489e+02	-2.663823e+01
2.695972e+02	-2.668953e+01
2.711544e+02	-2.673381e+01
2.727205e+02	-2.678556e+01
2.742958e+02	-2.683727e+01
2.758801e+02	-2.688455e+01
2.774736e+02	-2.693550e+01
2.790762e+02	-2.698500e+01
2.806882e+02	-2.704001e+01
2.823094e+02	-2.708651e+01
2.839400e+02	-2.713867e+01
2.855800e+02	-2.718629e+01
2.872295e+02	-2.723446e+01
2.888886e+02	-2.728704e+01
2.905572e+02	-2.733643e+01
2.922354e+02	-2.738767e+01
2.939234e+02	-2.743746e+01
2.956211e+02	-2.748616e+01
2.973286e+02	-2.753454e+01
2.990459e+02	-2.758132e+01
3.007732e+02	-2.763705e+01
3.025104e+02	-2.768809e+01
3.042577e+02	-2.773730e+01
3.060151e+02	-2.778616e+01
3.077826e+02	-2.783732e+01
3.095604e+02	-2.788616e+01
3.113484e+02	-2.794079e+01
3.131467e+02	-2.798812e+01
3.149554e+02	-2.803480e+01
3.167746e+02	-2.808779e+01
3.186043e+02	-2.813804e+01
3.204445e+02	-2.818666e+01
3.222954e+02	-2.823518e+01
3.241570e+02	-2.828969e+01
3.260293e+02	-2.833796e+01
3.279124e+02	-2.838982e+01
3.298064e+02	-2.843902e+01
3.317114e+02	-2.848609e+01
3.336273e+02	-2.853804e+01
3.355544e+02	-2.858711e+01
3.374925e+02	-2.863354e+01
3.394418e+02	-2.868823e+01
3.414024e+02	-2.873735e+01
3.433744e+02	-2.878601e+01
3.453577e+02	-2.883576e+01
3.473525e+02	-2.888890e+01
3.493588e+02	-2.893602e+01
3.513766e+02	-2.898682e+01
3.534062e+02	-2.903952e+01
3.554474e+02	-2.908505e+01
3.575005e+02	-2.913969e+01
3.595654e+02	-2.918954e+01
3.616422e+02	-2.923792e+01
3.637311e+02	-2.928778e+01
3.658320e+02	-2.934044e+01
3.679450e+02	-2.938876e+01
3.700702e+02	-2.943701e+01
3.722077e+02	-2.948682e+01
3.743576e+02	-2.953751e+01
3.765199e+02	-2.958995e+01
3.786946e+02	-2.964006e+01
3.808820e+02	-2.968955e+01
3.830819e+02	-2.974216e+01
3.852946e+02	-2.979206e+01
3.875200e+02	-2.983618e+01
3.897583e+02	-2.989129e+01
3.920096e+02	-2.993971e+01
3.942738e+02	-2.999172e+01
3.965511e+02	-3.004357e+01
3.988416e+02	-3.009011e+01
4.011452e+02	-3.013929e+01
4.034622e+02	-3.018916e+01
4.057926e+02	-3.023880e+01
4.081365e+02	-3.028835e+01
4.104938e+02	-3.033887e+01
4.128648e+02	-3.039162e+01
4.152495e+02	-3.044033e+01
4.176480e+02	-3.049006e+01
4.200603e+02	-3.054268e+01
4.224866e+02	-3.059823e+01
4.249268e+02	-3.064130e+01
4.273812e+02	-3.069373e+01
4.298497e+02	-3.074270e+01
4.323325e+02	-3.079290e+01
4.348297e+02	-3.084431e+01
4.373412e+02	-3.089452e+01
4.398673e+02	-3.094349e+01
4.424079e+02	-3.099073e+01
4.449633e+02	-3.104279e+01
4.475334e+02	-3.108611e+01
4.501183e+02	-3.114425e+01
4.527182e+02	-3.119045e+01
4.553330e+02	-3.124643e+01
4.579630e+02	-3.130367e+01
4.606082e+02	-3.134397e+01
4.632687e+02	-3.138541e+01
4.659445e+02	-3.144077e+01
4.686358e+02	-3.149138e+01
4.713426e+02	-3.154689e+01
4.740650e+02	-3.159477e+01
4.768032e+02	-3.164648e+01
4.795572e+02	-3.169578e+01
4.823271e+02	-3.174188e+01
4.851130e+02	-3.178561e+01
4.879150e+02	-3.184043e+01
4.907332e+02	-3.190027e+01
4.935676e+02	-3.194345e+01
4.964185e+02	-3.199765e+01
4.992858e+02	-3.204739e+01
5.021696e+02	-3.209380e+01
5.050701e+02	-3.214604e+01
5.079874e+02	-3.219552e+01
5.109215e+02	-3.225404e+01
5.138726e+02	-3.229917e+01
5.168407e+02	-3.234196e+01
5.198259e+02	-3.240119e+01
5.228284e+02	-3.244856e+01
5.258482e+02	-3.249745e+01
5.288855e+02	-3.255336e+01
5.319403e+02	-3.258531e+01
5.350128e+02	-3.264720e+01
5.381030e+02	-3.269704e+01
5.412111e+02	-3.274665e+01
5.443371e+02	-3.279733e+01
5.474812e+02	-3.284935e+01
5.506434e+02	-3.290800e+01
5.538239e+02	-3.294779e+01
5.570228e+02	-3.299906e+01
5.602401e+02	-3.305667e+01
5.634760e+02	-3.310285e+01
5.667306e+02	-3.314779e+01
5.700040e+02	-3.320571e+01
5.732964e+02	-3.326012e+01
5.766077e+02	-3.330677e+01
5.799382e+02	-3.335583e+01
5.832879e+02	-3.340146e+01
5.866569e+02	-3.345701e+01
5.900454e+02	-3.350774e+01
5.934535e+02	-3.355883e+01
5.968813e+02	-3.361571e+01
6.003288e+02	-3.365544e+01
6.037963e+02	-3.370753e+01
6.072838e+02	-3.375384e+01
6.107914e+02	-3.380887e+01
6.143194e+02	-3.384978e+01
6.178676e+02	-3.390386e+01
6.214364e+02	-3.395216e+01
6.250258e+02	-3.401092e+01
6.286359e+02	-3.405949e+01
6.322669e+02	-3.410405e+01
6.359189e+02	-3.416602e+01
6.395919e+02	-3.421195e+01
6.432862e+02	-3.426529e+01
6.470017e+02	-3.430579e+01
6.507388e+02	-3.435410e+01
6.544974e+02	-3.440560e+01
6.582778e+02	-3.445800e+01
6.620800e+02	-3.450665e+01
6.659041e+02	-3.455982e+01
6.697504e+02	-3.461225e+01
6.736188e+02	-3.465541e+01
6.775096e+02	-3.470886e+01
6.814229e+02	-3.476457e+01
6.853587e+02	-3.481273e+01
6.893173e+02	-3.485831e+01
6.932988e+02	-3.491308e+01
6.973033e+02	-3.495517e+01
7.013309e+02	-3.502217e+01
