Frequency(Hz)	Magnitude(dB)
1.000000e+01	-1.732881e-05
1.005776e+01	-1.752957e-05
1.011585e+01	-1.773266e-05
1.017428e+01	-1.793810e-05
1.023305e+01	-1.814591e-05
1.029215e+01	-1.835614e-05
1.035160e+01	-1.856880e-05
1.041139e+01	-1.878392e-05
1.047153e+01	-1.900154e-05
1.053201e+01	-1.922168e-05
1.059284e+01	-1.944436e-05
1.065403e+01	-1.966963e-05
1.071556e+01	-1.989751e-05
1.077746e+01	-2.012803e-05
1.083971e+01	-2.036122e-05
1.090232e+01	-2.059711e-05
1.096529e+01	-2.083573e-05
1.102862e+01	-2.107712e-05
1.109232e+01	-2.132130e-05
1.115639e+01	-2.156831e-05
1.122083e+01	-2.181819e-05
1.128564e+01	-2.207096e-05
1.135083e+01	-2.232665e-05
1.141639e+01	-2.258531e-05
1.148233e+01	-2.284697e-05
1.154865e+01	-2.311166e-05
1.161536e+01	-2.337941e-05
1.168245e+01	-2.365027e-05
1.174992e+01	-2.392426e-05
1.181779e+01	-2.420143e-05
1.188605e+01	-2.448181e-05
1.195470e+01	-2.476544e-05
1.202375e+01	-2.505235e-05
1.209320e+01	-2.534259e-05
1.216305e+01	-2.563619e-05
1.223330e+01	-2.593319e-05
1.230396e+01	-2.623363e-05
1.237503e+01	-2.653756e-05
1.244651e+01	-2.684500e-05
1.251840e+01	-2.715601e-05
1.259070e+01	-2.747062e-05
1.266343e+01	-2.778887e-05
1.273657e+01	-2.811081e-05
1.281014e+01	-2.843648e-05
1.288413e+01	-2.876592e-05
1.295855e+01	-2.909918e-05
1.303339e+01	-2.943631e-05
1.310867e+01	-2.977733e-05
1.318439e+01	-3.012231e-05
1.326054e+01	-3.047128e-05
1.333713e+01	-3.082430e-05
1.341417e+01	-3.118141e-05
1.349165e+01	-3.154265e-05
1.356958e+01	-3.190808e-05
1.364795e+01	-3.227774e-05
1.372678e+01	-3.265169e-05
1.380607e+01	-3.302997e-05
1.388581e+01	-3.341263e-05
1.396602e+01	-3.379972e-05
1.404668e+01	-3.419130e-05
1.412782e+01	-3.458741e-05
1.420942e+01	-3.498811e-05
1.429149e+01	-3.539346e-05
1.437404e+01	-3.580350e-05
1.445706e+01	-3.621829e-05
1.454057e+01	-3.663789e-05
1.462455e+01	-3.706235e-05
1.470902e+01	-3.749172e-05
1.479398e+01	-3.792607e-05
1.487943e+01	-3.836546e-05
1.496537e+01	-3.880993e-05
1.505181e+01	-3.925955e-05
1.513875e+01	-3.971438e-05
1.522619e+01	-4.017448e-05
1.531414e+01	-4.063991e-05
1.540259e+01	-4.111074e-05
1.549156e+01	-4.158701e-05
1.558103e+01	-4.206881e-05
1.567103e+01	-4.255618e-05
1.576155e+01	-4.304921e-05
1.585258e+01	-4.354794e-05
1.594415e+01	-4.405245e-05
1.603624e+01	-4.456281e-05
1.612886e+01	-4.507908e-05
1.622202e+01	-4.560133e-05
1.631572e+01	-4.612963e-05
1.640996e+01	-4.666406e-05
1.650474e+01	-4.720467e-05
1.660008e+01	-4.775155e-05
1.669596e+01	-4.830476e-05
1.679239e+01	-4.886438e-05
1.688938e+01	-4.943048e-05
1.698694e+01	-5.000314e-05
1.708505e+01	-5.058244e-05
1.718373e+01	-5.116845e-05
1.728299e+01	-5.176125e-05
1.738281e+01	-5.236091e-05
1.748322e+01	-5.296752e-05
1.758420e+01	-5.358116e-05
1.768576e+01	-5.420191e-05
1.778792e+01	-5.482985e-05
1.789066e+01	-5.546507e-05
1.799399e+01	-5.610764e-05
1.809793e+01	-5.675766e-05
1.820246e+01	-5.741521e-05
1.830760e+01	-5.808038e-05
1.841334e+01	-5.875325e-05
1.851969e+01	-5.943392e-05
1.862666e+01	-6.012247e-05
1.873425e+01	-6.081900e-05
1.884246e+01	-6.152360e-05
1.895129e+01	-6.223637e-05
1.906075e+01	-6.295739e-05
1.917085e+01	-6.368676e-05
1.928158e+01	-6.442458e-05
1.939295e+01	-6.517096e-05
1.950496e+01	-6.592597e-05
1.961762e+01	-6.668974e-05
1.973093e+01	-6.746235e-05
1.984490e+01	-6.824392e-05
1.995952e+01	-6.903453e-05
2.007480e+01	-6.983431e-05
2.019076e+01	-7.064336e-05
2.030738e+01	-7.146177e-05
2.042467e+01	-7.228967e-05
2.054264e+01	-7.312716e-05
2.066130e+01	-7.397435e-05
2.078064e+01	-7.483136e-05
2.090066e+01	-7.569829e-05
2.102139e+01	-7.657527e-05
2.114280e+01	-7.746241e-05
2.126492e+01	-7.835982e-05
2.138775e+01	-7.926763e-05
2.151128e+01	-8.018596e-05
2.163553e+01	-8.111493e-05
2.176050e+01	-8.205466e-05
2.188619e+01	-8.300528e-05
2.201260e+01	-8.396691e-05
2.213974e+01	-8.493968e-05
2.226762e+01	-8.592372e-05
2.239624e+01	-8.691916e-05
2.252560e+01	-8.792613e-05
2.265571e+01	-8.894477e-05
2.278656e+01	-8.997521e-05
2.291818e+01	-9.101759e-05
2.305055e+01	-9.207204e-05
2.318369e+01	-9.313871e-05
2.331760e+01	-9.421774e-05
2.345228e+01	-9.530926e-05
2.358774e+01	-9.641344e-05
2.372398e+01	-9.753040e-05
2.386101e+01	-9.866030e-05
2.399883e+01	-9.980330e-05
2.413745e+01	-1.009595e-04
2.427686e+01	-1.021292e-04
2.441709e+01	-1.033123e-04
2.455812e+01	-1.045092e-04
2.469997e+01	-1.057200e-04
2.484263e+01	-1.069448e-04
2.498612e+01	-1.081837e-04
2.513044e+01	-1.094371e-04
2.527559e+01	-1.107049e-04
2.542158e+01	-1.119874e-04
2.556842e+01	-1.132848e-04
2.571610e+01	-1.145972e-04
2.586463e+01	-1.159249e-04
2.601403e+01	-1.172679e-04
2.616428e+01	-1.186264e-04
2.631541e+01	-1.200007e-04
2.646740e+01	-1.213910e-04
2.662028e+01	-1.227973e-04
2.677404e+01	-1.242199e-04
2.692868e+01	-1.256590e-04
2.708422e+01	-1.271148e-04
2.724066e+01	-1.285874e-04
2.739800e+01	-1.300771e-04
2.755625e+01	-1.315841e-04
2.771541e+01	-1.331085e-04
2.787550e+01	-1.346506e-04
2.803650e+01	-1.362105e-04
2.819844e+01	-1.377885e-04
2.836131e+01	-1.393848e-04
2.852513e+01	-1.409996e-04
2.868989e+01	-1.426331e-04
2.885560e+01	-1.442855e-04
2.902227e+01	-1.459571e-04
2.918990e+01	-1.476480e-04
2.935850e+01	-1.493585e-04
2.952807e+01	-1.510888e-04
2.969863e+01	-1.528392e-04
2.987016e+01	-1.546099e-04
3.004269e+01	-1.564010e-04
3.021622e+01	-1.582129e-04
3.039075e+01	-1.600458e-04
3.056628e+01	-1.619000e-04
3.074283e+01	-1.637756e-04
3.092040e+01	-1.656730e-04
3.109900e+01	-1.675923e-04
3.127862e+01	-1.695339e-04
3.145929e+01	-1.714979e-04
3.164099e+01	-1.734847e-04
3.182375e+01	-1.754946e-04
3.200756e+01	-1.775277e-04
3.219244e+01	-1.795843e-04
3.237838e+01	-1.816648e-04
3.256540e+01	-1.837694e-04
3.275349e+01	-1.858984e-04
3.294268e+01	-1.880520e-04
3.313295e+01	-1.902306e-04
3.332433e+01	-1.924344e-04
3.351681e+01	-1.946638e-04
3.371040e+01	-1.969190e-04
3.390511e+01	-1.992003e-04
3.410094e+01	-2.015080e-04
3.429791e+01	-2.038425e-04
3.449601e+01	-2.062040e-04
3.469526e+01	-2.085929e-04
3.489566e+01	-2.110094e-04
3.509721e+01	-2.134540e-04
3.529993e+01	-2.159268e-04
3.550382e+01	-2.184284e-04
3.570889e+01	-2.209588e-04
3.591515e+01	-2.235186e-04
3.612259e+01	-2.261081e-04
3.633123e+01	-2.287276e-04
3.654108e+01	-2.313774e-04
3.675214e+01	-2.340579e-04
3.696442e+01	-2.367694e-04
3.717792e+01	-2.395124e-04
3.739266e+01	-2.422871e-04
3.760864e+01	-2.450940e-04
3.782587e+01	-2.479334e-04
3.804435e+01	-2.508057e-04
3.826409e+01	-2.537113e-04
3.848510e+01	-2.566505e-04
3.870739e+01	-2.596238e-04
3.893096e+01	-2.626315e-04
3.915583e+01	-2.656741e-04
3.938199e+01	-2.687519e-04
3.960946e+01	-2.718653e-04
3.983824e+01	-2.750149e-04
4.006834e+01	-2.782009e-04
4.029978e+01	-2.814238e-04
4.053255e+01	-2.846841e-04
4.076666e+01	-2.879821e-04
4.100213e+01	-2.913184e-04
4.123896e+01	-2.946933e-04
4.147715e+01	-2.981073e-04
4.171672e+01	-3.015608e-04
4.195767e+01	-3.050543e-04
4.220002e+01	-3.085883e-04
4.244377e+01	-3.121633e-04
4.268892e+01	-3.157797e-04
4.293549e+01	-3.194379e-04
4.318348e+01	-3.231386e-04
4.343291e+01	-3.268821e-04
4.368377e+01	-3.306690e-04
4.393609e+01	-3.344997e-04
4.418986e+01	-3.383748e-04
4.444510e+01	-3.422948e-04
4.470182e+01	-3.462603e-04
4.496001e+01	-3.502716e-04
4.521970e+01	-3.543294e-04
4.548089e+01	-3.584343e-04
4.574358e+01	-3.625867e-04
4.600779e+01	-3.667872e-04
4.627353e+01	-3.710363e-04
4.654081e+01	-3.753347e-04
4.680963e+01	-3.796828e-04
4.708000e+01	-3.840814e-04
4.735193e+01	-3.885309e-04
4.762543e+01	-3.930319e-04
4.790051e+01	-3.975851e-04
4.817719e+01	-4.021910e-04
4.845545e+01	-4.068503e-04
4.873533e+01	-4.115635e-04
4.901682e+01	-4.163314e-04
4.929994e+01	-4.211545e-04
4.958470e+01	-4.260334e-04
4.987110e+01	-4.309689e-04
5.015915e+01	-4.359615e-04
5.044887e+01	-4.410120e-04
5.074026e+01	-4.461210e-04
5.103333e+01	-4.512891e-04
5.132810e+01	-4.565172e-04
5.162457e+01	-4.618058e-04
5.192275e+01	-4.671556e-04
5.222265e+01	-4.725675e-04
5.252429e+01	-4.780420e-04
5.282767e+01	-4.835799e-04
5.313280e+01	-4.891820e-04
5.343969e+01	-4.948490e-04
5.374836e+01	-5.005816e-04
5.405880e+01	-5.063807e-04
5.437105e+01	-5.122469e-04
5.468509e+01	-5.181811e-04
5.500095e+01	-5.241840e-04
5.531863e+01	-5.302564e-04
5.563815e+01	-5.363992e-04
5.595951e+01	-5.426132e-04
5.628273e+01	-5.488991e-04
5.660782e+01	-5.552578e-04
5.693479e+01	-5.616902e-04
5.726364e+01	-5.681971e-04
5.759439e+01	-5.747794e-04
5.792705e+01	-5.814379e-04
5.826164e+01	-5.881736e-04
5.859815e+01	-5.949873e-04
5.893662e+01	-6.018799e-04
5.927703e+01	-6.088524e-04
5.961941e+01	-6.159056e-04
5.996377e+01	-6.230405e-04
6.031012e+01	-6.302581e-04
6.065847e+01	-6.375593e-04
6.100883e+01	-6.449450e-04
6.136121e+01	-6.524163e-04
6.171563e+01	-6.599742e-04
6.207210e+01	-6.676196e-04
6.243063e+01	-6.753535e-04
6.279122e+01	-6.831771e-04
6.315390e+01	-6.910912e-04
6.351868e+01	-6.990971e-04
6.388556e+01	-7.071956e-04
6.425456e+01	-7.153880e-04
6.462569e+01	-7.236753e-04
6.499897e+01	-7.320586e-04
6.537440e+01	-7.405389e-04
6.575200e+01	-7.491175e-04
6.613178e+01	-7.577955e-04
6.651375e+01	-7.665740e-04
6.689793e+01	-7.754542e-04
6.728433e+01	-7.844372e-04
6.767297e+01	-7.935243e-04
6.806384e+01	-8.027167e-04
6.845698e+01	-8.120155e-04
6.885238e+01	-8.214220e-04
6.925007e+01	-8.309375e-04
6.965005e+01	-8.405632e-04
7.005235e+01	-8.503004e-04
7.045697e+01	-8.601504e-04
7.086393e+01	-8.701145e-04
7.127323e+01	-8.801940e-04
7.168490e+01	-8.903902e-04
7.209895e+01	-9.007046e-04
7.251539e+01	-9.111384e-04
7.293424e+01	-9.216931e-04
7.335551e+01	-9.323700e-04
7.377920e+01	-9.431706e-04
7.420535e+01	-9.540963e-04
7.463396e+01	-9.651485e-04
7.506504e+01	-9.763287e-04
7.549861e+01	-9.876385e-04
7.593469e+01	-9.990792e-04
7.637328e+01	-1.010653e-03
7.681441e+01	-1.022360e-03
7.725809e+01	-1.034203e-03
7.770433e+01	-1.046183e-03
7.815315e+01	-1.058302e-03
7.860456e+01	-1.070561e-03
7.905857e+01	-1.082962e-03
7.951521e+01	-1.095507e-03
7.997449e+01	-1.108197e-03
8.043642e+01	-1.121034e-03
8.090102e+01	-1.134020e-03
8.136830e+01	-1.147156e-03
8.183828e+01	-1.160444e-03
8.231097e+01	-1.173887e-03
8.278640e+01	-1.187485e-03
8.326457e+01	-1.201240e-03
8.374550e+01	-1.215155e-03
8.422921e+01	-1.229231e-03
8.471572e+01	-1.243470e-03
8.520503e+01	-1.257873e-03
8.569717e+01	-1.272444e-03
8.619215e+01	-1.287184e-03
8.669000e+01	-1.302094e-03
8.719071e+01	-1.317177e-03
8.769432e+01	-1.332434e-03
8.820084e+01	-1.347868e-03
8.871029e+01	-1.363481e-03
8.922267e+01	-1.379275e-03
8.973802e+01	-1.395252e-03
9.025634e+01	-1.411413e-03
9.077766e+01	-1.427762e-03
9.130199e+01	-1.444301e-03
9.182935e+01	-1.461030e-03
9.235975e+01	-1.477954e-03
9.289321e+01	-1.495074e-03
9.342976e+01	-1.512391e-03
9.396941e+01	-1.529910e-03
9.451217e+01	-1.547631e-03
9.505807e+01	-1.565557e-03
9.560712e+01	-1.583692e-03
9.615934e+01	-1.602036e-03
9.671476e+01	-1.620592e-03
9.727338e+01	-1.639364e-03
9.783522e+01	-1.658352e-03
9.840032e+01	-1.677561e-03
9.896867e+01	-1.696992e-03
9.954031e+01	-1.716649e-03
1.001153e+02	-1.736533e-03
1.006935e+02	-1.756647e-03
1.012751e+02	-1.776994e-03
1.018601e+02	-1.797576e-03
1.024484e+02	-1.818397e-03
1.030402e+02	-1.839460e-03
1.036353e+02	-1.860766e-03
1.042339e+02	-1.882318e-03
1.048360e+02	-1.904121e-03
1.054415e+02	-1.926176e-03
1.060505e+02	-1.948486e-03
1.066631e+02	-1.971055e-03
1.072791e+02	-1.993885e-03
1.078988e+02	-2.016979e-03
1.085220e+02	-2.040341e-03
1.091488e+02	-2.063973e-03
1.097793e+02	-2.087879e-03
1.104133e+02	-2.112062e-03
1.110511e+02	-2.136524e-03
1.116925e+02	-2.161270e-03
1.123376e+02	-2.186303e-03
1.129865e+02	-2.211625e-03
1.136391e+02	-2.237241e-03
1.142955e+02	-2.263153e-03
1.149556e+02	-2.289366e-03
1.156196e+02	-2.315881e-03
1.162874e+02	-2.342704e-03
1.169591e+02	-2.369838e-03
1.176347e+02	-2.397285e-03
1.183141e+02	-2.425051e-03
1.189975e+02	-2.453138e-03
1.196848e+02	-2.481550e-03
1.203761e+02	-2.510291e-03
1.210714e+02	-2.539365e-03
1.217707e+02	-2.568775e-03
1.224740e+02	-2.598526e-03
1.231814e+02	-2.628622e-03
1.238929e+02	-2.659066e-03
1.246085e+02	-2.689862e-03
1.253283e+02	-2.721015e-03
1.260522e+02	-2.752529e-03
1.267802e+02	-2.784407e-03
1.275125e+02	-2.816655e-03
1.282490e+02	-2.849276e-03
1.289898e+02	-2.882275e-03
1.297348e+02	-2.915655e-03
1.304842e+02	-2.949423e-03
1.312378e+02	-2.983581e-03
1.319959e+02	-3.018134e-03
1.327583e+02	-3.053088e-03
1.335251e+02	-3.088446e-03
1.342963e+02	-3.124214e-03
1.350720e+02	-3.160395e-03
1.358522e+02	-3.196996e-03
1.366368e+02	-3.234020e-03
1.374260e+02	-3.271473e-03
1.382198e+02	-3.309359e-03
1.390182e+02	-3.347684e-03
1.398211e+02	-3.386453e-03
1.406287e+02	-3.425670e-03
1.414410e+02	-3.465342e-03
1.422579e+02	-3.505473e-03
1.430796e+02	-3.546068e-03
1.439060e+02	-3.587133e-03
1.447372e+02	-3.628673e-03
1.455732e+02	-3.670695e-03
1.464141e+02	-3.713202e-03
1.472597e+02	-3.756202e-03
1.481103e+02	-3.799700e-03
1.489658e+02	-3.843701e-03
1.498262e+02	-3.888211e-03
1.506916e+02	-3.933237e-03
1.515620e+02	-3.978783e-03
1.524374e+02	-4.024857e-03
1.533179e+02	-4.071464e-03
1.542034e+02	-4.118611e-03
1.550941e+02	-4.166303e-03
1.559899e+02	-4.214547e-03
1.568909e+02	-4.263350e-03
1.577971e+02	-4.312717e-03
1.587085e+02	-4.362656e-03
1.596252e+02	-4.413173e-03
1.605472e+02	-4.464274e-03
1.614745e+02	-4.515967e-03
1.624072e+02	-4.568258e-03
1.633453e+02	-4.621155e-03
1.642887e+02	-4.674663e-03
1.652377e+02	-4.728791e-03
1.661921e+02	-4.783545e-03
1.671520e+02	-4.838932e-03
1.681175e+02	-4.894961e-03
1.690885e+02	-4.951638e-03
1.700651e+02	-5.008971e-03
1.710474e+02	-5.066967e-03
1.720354e+02	-5.125635e-03
1.730291e+02	-5.184981e-03
1.740285e+02	-5.245014e-03
1.750337e+02	-5.305742e-03
1.760446e+02	-5.367172e-03
1.770615e+02	-5.429313e-03
1.780842e+02	-5.492173e-03
1.791128e+02	-5.555761e-03
1.801473e+02	-5.620084e-03
1.811878e+02	-5.685151e-03
1.822344e+02	-5.750972e-03
1.832870e+02	-5.817553e-03
1.843456e+02	-5.884905e-03
1.854104e+02	-5.953037e-03
1.864813e+02	-6.021956e-03
1.875584e+02	-6.091673e-03
1.886418e+02	-6.162197e-03
1.897313e+02	-6.233536e-03
1.908272e+02	-6.305700e-03
1.919294e+02	-6.378700e-03
1.930380e+02	-6.452544e-03
1.941530e+02	-6.527242e-03
1.952744e+02	-6.602804e-03
1.964023e+02	-6.679240e-03
1.975367e+02	-6.756561e-03
1.986777e+02	-6.834775e-03
1.998252e+02	-6.913895e-03
2.009794e+02	-6.993929e-03
2.021403e+02	-7.074890e-03
2.033078e+02	-7.156786e-03
2.044821e+02	-7.239630e-03
2.056632e+02	-7.323432e-03
2.068511e+02	-7.408204e-03
2.080459e+02	-7.493955e-03
2.092475e+02	-7.580699e-03
2.104561e+02	-7.668446e-03
2.116717e+02	-7.757207e-03
2.128943e+02	-7.846995e-03
2.141240e+02	-7.937821e-03
2.153608e+02	-8.029697e-03
2.166047e+02	-8.122636e-03
2.178558e+02	-8.216650e-03
2.191141e+02	-8.311750e-03
2.203797e+02	-8.407951e-03
2.216526e+02	-8.505263e-03
2.229329e+02	-8.603701e-03
2.242205e+02	-8.703277e-03
2.255156e+02	-8.804004e-03
2.268182e+02	-8.905896e-03
2.281283e+02	-9.008966e-03
2.294459e+02	-9.113227e-03
2.307712e+02	-9.218694e-03
2.321041e+02	-9.325380e-03
2.334447e+02	-9.433299e-03
2.347931e+02	-9.542466e-03
2.361493e+02	-9.652895e-03
2.375133e+02	-9.764600e-03
2.388851e+02	-9.877596e-03
2.402649e+02	-9.991899e-03
2.416527e+02	-1.010752e-02
2.430484e+02	-1.022448e-02
2.444523e+02	-1.034279e-02
2.458642e+02	-1.046247e-02
2.472843e+02	-1.058354e-02
2.487126e+02	-1.070600e-02
2.501492e+02	-1.082987e-02
2.515940e+02	-1.095518e-02
2.530472e+02	-1.108194e-02
2.545088e+02	-1.121016e-02
2.559789e+02	-1.133986e-02
2.574574e+02	-1.147106e-02
2.589444e+02	-1.160378e-02
2.604401e+02	-1.173803e-02
2.619444e+02	-1.187383e-02
2.634574e+02	-1.201120e-02
2.649791e+02	-1.215016e-02
2.665096e+02	-1.229072e-02
2.680489e+02	-1.243291e-02
2.695972e+02	-1.257674e-02
2.711544e+02	-1.272223e-02
2.727205e+02	-1.286940e-02
2.742958e+02	-1.301827e-02
2.758801e+02	-1.316886e-02
2.774736e+02	-1.332119e-02
2.790762e+02	-1.347528e-02
2.806882e+02	-1.363115e-02
2.823094e+02	-1.378882e-02
2.839400e+02	-1.394831e-02
2.855800e+02	-1.410964e-02
2.872295e+02	-1.427284e-02
2.888886e+02	-1.443791e-02
2.905572e+02	-1.460490e-02
2.922354e+02	-1.477381e-02
2.939234e+02	-1.494468e-02
2.956211e+02	-1.511751e-02
2.973286e+02	-1.529234e-02
2.990459e+02	-1.546919e-02
3.007732e+02	-1.564808e-02
3.025104e+02	-1.582904e-02
3.042577e+02	-1.601208e-02
3.060151e+02	-1.619724e-02
3.077826e+02	-1.638453e-02
3.095604e+02	-1.657399e-02
3.113484e+02	-1.676563e-02
3.131467e+02	-1.695948e-02
3.149554e+02	-1.715558e-02
3.167746e+02	-1.735393e-02
3.186043e+02	-1.755457e-02
3.204445e+02	-1.775753e-02
3.222954e+02	-1.796283e-02
3.241570e+02	-1.817049e-02
3.260293e+02	-1.838056e-02
3.279124e+02	-1.859304e-02
3.298064e+02	-1.880798e-02
3.317114e+02	-1.902540e-02
3.336273e+02	-1.924532e-02
3.355544e+02	-1.946778e-02
3.374925e+02	-1.969281e-02
3.394418e+02	-1.992043e-02
3.414024e+02	-2.015068e-02
3.433744e+02	-2.038358e-02
3.453577e+02	-2.061916e-02
3.473525e+02	-2.085747e-02
3.493588e+02	-2.109852e-02
3.513766e+02	-2.134235e-02
3.534062e+02	-2.158899e-02
3.554474e+02	-2.183847e-02
3.575005e+02	-2.209083e-02
3.595654e+02	-2.234610e-02
3.616422e+02	-2.260431e-02
3.637311e+02	-2.286549e-02
3.658320e+02	-2.312969e-02
3.679450e+02	-2.339693e-02
3.700702e+02	-2.366725e-02
3.722077e+02	-2.394068e-02
3.743576e+02	-2.421726e-02
3.765199e+02	-2.449703e-02
3.786946e+02	-2.478002e-02
3.808820e+02	-2.506628e-02
3.830819e+02	-2.535583e-02
3.852946e+02	-2.564871e-02
3.875200e+02	-2.594497e-02
3.897583e+02	-2.624464e-02
3.920096e+02	-2.654775e-02
3.942738e+02	-2.685436e-02
3.965511e+02	-2.716450e-02
3.988416e+02	-2.747821e-02
4.011452e+02	-2.779553e-02
4.034622e+02	-2.811651e-02
4.057926e+02	-2.844117e-02
4.081365e+02	-2.876958e-02
4.104938e+02	-2.910176e-02
4.128648e+02	-2.943777e-02
4.152495e+02	-2.977764e-02
4.176480e+02	-3.012142e-02
4.200603e+02	-3.046916e-02
4.224866e+02	-3.082090e-02
4.249268e+02	-3.117668e-02
4.273812e+02	-3.153655e-02
4.298497e+02	-3.190057e-02
4.323325e+02	-3.226877e-02
4.348297e+02	-3.264120e-02
4.373412e+02	-3.301792e-02
4.398673e+02	-3.339896e-02
4.424079e+02	-3.378439e-02
4.449633e+02	-3.417425e-02
4.475334e+02	-3.456859e-02
4.501183e+02	-3.496746e-02
4.527182e+02	-3.537091e-02
4.553330e+02	-3.577900e-02
4.579630e+02	-3.619178e-02
4.606082e+02	-3.660930e-02
4.632687e+02	-3.703161e-02
4.659445e+02	-3.745878e-02
4.686358e+02	-3.789085e-02
4.713426e+02	-3.832789e-02
4.740650e+02	-3.876994e-02
4.768032e+02	-3.921707e-02
4.795572e+02	-3.966933e-02
4.823271e+02	-4.012678e-02
4.851130e+02	-4.058948e-02
4.879150e+02	-4.105750e-02
4.907332e+02	-4.153088e-02
4.935676e+02	-4.200970e-02
4.964185e+02	-4.249400e-02
4.992858e+02	-4.298387e-02
5.021696e+02	-4.347935e-02
5.050701e+02	-4.398051e-02
5.079874e+02	-4.448743e-02
5.109215e+02	-4.500015e-02
5.138726e+02	-4.551875e-02
5.168407e+02	-4.604330e-02
5.198259e+02	-4.657386e-02
5.228284e+02	-4.711050e-02
5.258482e+02	-4.765329e-02
5.288855e+02	-4.820229e-02
5.319403e+02	-4.875759e-02
5.350128e+02	-4.931925e-02
5.381030e+02	-4.988734e-02
5.412111e+02	-5.046193e-02
5.443371e+02	-5.104311e-02
5.474812e+02	-5.163094e-02
5.506434e+02	-5.222549e-02
5.538239e+02	-5.282686e-02
5.570228e+02	-5.343510e-02
5.602401e+02	-5.405030e-02
5.634760e+02	-5.467255e-02
5.667306e+02	-5.530191e-02
5.700040e+02	-5.593846e-02
5.732964e+02	-5.658230e-02
5.766077e+02	-5.723350e-02
5.799382e+02	-5.789214e-02
5.832879e+02	-5.855831e-02
5.866569e+02	-5.923209e-02
5.900454e+02	-5.991358e-02
5.934535e+02	-6.060285e-02
5.968813e+02	-6.129999e-02
6.003288e+02	-6.200509e-02
6.037963e+02	-6.271825e-02
6.072838e+02	-6.343955e-02
6.107914e+02	-6.416908e-02
6.143194e+02	-6.490694e-02
6.178676e+02	-6.565322e-02
6.214364e+02	-6.640801e-02
6.250258e+02	-6.717142e-02
6.286359e+02	-6.794353e-02
6.322669e+02	-6.872444e-02
6.359189e+02	-6.951426e-02
6.395919e+02	-7.031308e-02
6.432862e+02	-7.112101e-02
6.470017e+02	-7.193815e-02
6.507388e+02	-7.276459e-02
6.544974e+02	-7.360044e-02
6.582778e+02	-7.444582e-02
6.620800e+02	-7.530082e-02
6.659041e+02	-7.616556e-02
6.697504e+02	-7.704013e-02
6.736188e+02	-7.792466e-02
6.775096e+02	-7.881925e-02
6.814229e+02	-7.972402e-02
6.853587e+02	-8.063908e-02
6.893173e+02	-8.156454e-02
6.932988e+02	-8.250052e-02
6.973033e+02	-8.344714e-02
7.013309e+02	-8.440451e-02
