Frequency(Hz)	Magnitude(dB)
1.000000e+01	-2.294170e+00
1.005776e+01	-2.314725e+00
1.011585e+01	-2.335552e+00
1.017428e+01	-2.356500e+00
1.023305e+01	-2.377478e+00
1.029215e+01	-2.398705e+00
1.035160e+01	-2.419947e+00
1.041139e+01	-2.441294e+00
1.047153e+01	-2.462962e+00
1.053201e+01	-2.484864e+00
1.059284e+01	-2.506589e+00
1.065403e+01	-2.528481e+00
1.071556e+01	-2.550766e+00
1.077746e+01	-2.572990e+00
1.083971e+01	-2.595539e+00
1.090232e+01	-2.618188e+00
1.096529e+01	-2.640708e+00
1.102862e+01	-2.663711e+00
1.109232e+01	-2.686524e+00
1.115639e+01	-2.710029e+00
1.122083e+01	-2.733287e+00
1.128564e+01	-2.756404e+00
1.135083e+01	-2.780363e+00
1.141639e+01	-2.803878e+00
1.148233e+01	-2.827702e+00
1.154865e+01	-2.851872e+00
1.161536e+01	-2.875831e+00
1.168245e+01	-2.900201e+00
1.174992e+01	-2.924492e+00
1.181779e+01	-2.949162e+00
1.188605e+01	-2.973951e+00
1.195470e+01	-2.998859e+00
1.202375e+01	-3.023754e+00
1.209320e+01	-3.049040e+00
1.216305e+01	-3.074232e+00
1.223330e+01	-3.099854e+00
1.230396e+01	-3.125592e+00
1.237503e+01	-3.151129e+00
1.244651e+01	-3.176936e+00
1.251840e+01	-3.202887e+00
1.259070e+01	-3.229331e+00
1.266343e+01	-3.255427e+00
1.273657e+01	-3.282037e+00
1.281014e+01	-3.308541e+00
1.288413e+01	-3.335332e+00
1.295855e+01	-3.362209e+00
1.303339e+01	-3.388990e+00
1.310867e+01	-3.416493e+00
1.318439e+01	-3.443686e+00
1.326054e+01	-3.471099e+00
1.333713e+01	-3.498597e+00
1.341417e+01	-3.526386e+00
1.349165e+01	-3.554555e+00
1.356958e+01	-3.582555e+00
1.364795e+01	-3.610400e+00
1.372678e+01	-3.638844e+00
1.380607e+01	-3.667347e+00
1.388581e+01	-3.695990e+00
1.396602e+01	-3.724628e+00
1.404668e+01	-3.753492e+00
1.412782e+01	-3.782633e+00
1.420942e+01	-3.811687e+00
1.429149e+01	-3.840836e+00
1.437404e+01	-3.870399e+00
1.445706e+01	-3.900249e+00
1.454057e+01	-3.929856e+00
1.462455e+01	-3.959804e+00
1.470902e+01	-3.989525e+00
1.479398e+01	-4.019598e+00
1.487943e+01	-4.049890e+00
1.496537e+01	-4.080640e+00
1.505181e+01	-4.110970e+00
1.513875e+01	-4.141775e+00
1.522619e+01	-4.172535e+00
1.531414e+01	-4.203493e+00
1.540259e+01	-4.234615e+00
1.549156e+01	-4.265401e+00
1.558103e+01	-4.297190e+00
1.567103e+01	-4.328442e+00
1.576155e+01	-4.360155e+00
1.585258e+01	-4.392111e+00
1.594415e+01	-4.423647e+00
1.603624e+01	-4.455880e+00
1.612886e+01	-4.488140e+00
1.622202e+01	-4.520127e+00
1.631572e+01	-4.552372e+00
1.640996e+01	-4.585217e+00
1.650474e+01	-4.617920e+00
1.660008e+01	-4.651141e+00
1.669596e+01	-4.683806e+00
1.679239e+01	-4.716687e+00
1.688938e+01	-4.750028e+00
1.698694e+01	-4.783428e+00
1.708505e+01	-4.816797e+00
1.718373e+01	-4.850761e+00
1.728299e+01	-4.884106e+00
1.738281e+01	-4.918056e+00
1.748322e+01	-4.951892e+00
1.758420e+01	-4.986146e+00
1.768576e+01	-5.020352e+00
1.778792e+01	-5.054616e+00
1.789066e+01	-5.089065e+00
1.799399e+01	-5.124004e+00
1.809793e+01	-5.158180e+00
1.820246e+01	-5.192916e+00
1.830760e+01	-5.228403e+00
1.841334e+01	-5.263165e+00
1.851969e+01	-5.298455e+00
1.862666e+01	-5.333364e+00
1.873425e+01	-5.369368e+00
1.884246e+01	-5.404494e+00
1.895129e+01	-5.440258e+00
1.906075e+01	-5.476112e+00
1.917085e+01	-5.511992e+00
1.928158e+01	-5.548055e+00
1.939295e+01	-5.584473e+00
1.950496e+01	-5.620421e+00
1.961762e+01	-5.656769e+00
1.973093e+01	-5.693538e+00
1.984490e+01	-5.729933e+00
1.995952e+01	-5.766625e+00
2.007480e+01	-5.803254e+00
2.019076e+01	-5.840484e+00
2.030738e+01	-5.877404e+00
2.042467e+01	-5.914612e+00
2.054264e+01	-5.951797e+00
2.066130e+01	-5.989366e+00
2.078064e+01	-6.026816e+00
2.090066e+01	-6.064267e+00
2.102139e+01	-6.102220e+00
2.114280e+01	-6.139960e+00
2.126492e+01	-6.177538e+00
2.138775e+01	-6.215807e+00
2.151128e+01	-6.253784e+00
2.163553e+01	-6.291911e+00
2.176050e+01	-6.330656e+00
2.188619e+01	-6.368543e+00
2.201260e+01	-6.407280e+00
2.213974e+01	-6.446380e+00
2.226762e+01	-6.484635e+00
2.239624e+01	-6.523776e+00
2.252560e+01	-6.562052e+00
2.265571e+01	-6.601629e+00
2.278656e+01	-6.640794e+00
2.291818e+01	-6.680019e+00
2.305055e+01	-6.719097e+00
2.318369e+01	-6.758591e+00
2.331760e+01	-6.797856e+00
2.345228e+01	-6.837912e+00
2.358774e+01	-6.877169e+00
2.372398e+01	-6.917184e+00
2.386101e+01	-6.957478e+00
2.399883e+01	-6.997187e+00
2.413745e+01	-7.037374e+00
2.427686e+01	-7.077520e+00
2.441709e+01	-7.118106e+00
2.455812e+01	-7.158322e+00
2.469997e+01	-7.198906e+00
2.484263e+01	-7.239266e+00
2.498612e+01	-7.279713e+00
2.513044e+01	-7.320288e+00
2.527559e+01	-7.360922e+00
2.542158e+01	-7.402265e+00
2.556842e+01	-7.443177e+00
2.571610e+01	-7.484439e+00
2.586463e+01	-7.525040e+00
2.601403e+01	-7.566763e+00
2.616428e+01	-7.607731e+00
2.631541e+01	-7.649365e+00
2.646740e+01	-7.690685e+00
2.662028e+01	-7.732071e+00
2.677404e+01	-7.773578e+00
2.692868e+01	-7.815676e+00
2.708422e+01	-7.857291e+00
2.724066e+01	-7.899192e+00
2.739800e+01	-7.941632e+00
2.755625e+01	-7.982963e+00
2.771541e+01	-8.025060e+00
2.787550e+01	-8.067660e+00
2.803650e+01	-8.109834e+00
2.819844e+01	-8.151912e+00
2.836131e+01	-8.194315e+00
2.852513e+01	-8.236393e+00
2.868989e+01	-8.279775e+00
2.885560e+01	-8.322481e+00
2.902227e+01	-8.364798e+00
2.918990e+01	-8.407406e+00
2.935850e+01	-8.450807e+00
2.952807e+01	-8.493570e+00
2.969863e+01	-8.536275e+00
2.987016e+01	-8.579367e+00
3.004269e+01	-8.622738e+00
3.021622e+01	-8.665533e+00
3.039075e+01	-8.709231e+00
3.056628e+01	-8.752585e+00
3.074283e+01	-8.796055e+00
3.092040e+01	-8.839253e+00
3.109900e+01	-8.882903e+00
3.127862e+01	-8.926336e+00
3.145929e+01	-8.970686e+00
3.164099e+01	-9.013688e+00
3.182375e+01	-9.057134e+00
3.200756e+01	-9.100998e+00
3.219244e+01	-9.145316e+00
3.237838e+01	-9.188860e+00
3.256540e+01	-9.233257e+00
3.275349e+01	-9.277319e+00
3.294268e+01	-9.321684e+00
3.313295e+01	-9.366032e+00
3.332433e+01	-9.410238e+00
3.351681e+01	-9.454121e+00
3.371040e+01	-9.498454e+00
3.390511e+01	-9.543187e+00
3.410094e+01	-9.587224e+00
3.429791e+01	-9.631876e+00
3.449601e+01	-9.676468e+00
3.469526e+01	-9.721404e+00
3.489566e+01	-9.766653e+00
3.509721e+01	-9.811005e+00
3.529993e+01	-9.855537e+00
3.550382e+01	-9.900482e+00
3.570889e+01	-9.945100e+00
3.591515e+01	-9.990480e+00
3.612259e+01	-1.003506e+01
3.633123e+01	-1.008103e+01
3.654108e+01	-1.012567e+01
3.675214e+01	-1.017104e+01
3.696442e+01	-1.021612e+01
3.717792e+01	-1.026124e+01
3.739266e+01	-1.030635e+01
3.760864e+01	-1.035220e+01
3.782587e+01	-1.039792e+01
3.804435e+01	-1.044290e+01
3.826409e+01	-1.048858e+01
3.848510e+01	-1.053357e+01
3.870739e+01	-1.057983e+01
3.893096e+01	-1.062565e+01
3.915583e+01	-1.067088e+01
3.938199e+01	-1.071733e+01
3.960946e+01	-1.076295e+01
3.983824e+01	-1.080888e+01
4.006834e+01	-1.085472e+01
4.029978e+01	-1.090038e+01
4.053255e+01	-1.094665e+01
4.076666e+01	-1.099308e+01
4.100213e+01	-1.103856e+01
4.123896e+01	-1.108439e+01
4.147715e+01	-1.113037e+01
4.171672e+01	-1.117591e+01
4.195767e+01	-1.122350e+01
4.220002e+01	-1.126972e+01
4.244377e+01	-1.131586e+01
4.268892e+01	-1.136216e+01
4.293549e+01	-1.140905e+01
4.318348e+01	-1.145525e+01
4.343291e+01	-1.150124e+01
4.368377e+01	-1.154823e+01
4.393609e+01	-1.159432e+01
4.418986e+01	-1.164066e+01
4.444510e+01	-1.168811e+01
4.470182e+01	-1.173378e+01
4.496001e+01	-1.178118e+01
4.521970e+01	-1.182780e+01
4.548089e+01	-1.187473e+01
4.574358e+01	-1.192217e+01
4.600779e+01	-1.196795e+01
4.627353e+01	-1.201496e+01
4.654081e+01	-1.206208e+01
4.680963e+01	-1.210874e+01
4.708000e+01	-1.215610e+01
4.735193e+01	-1.220269e+01
4.762543e+01	-1.225001e+01
4.790051e+01	-1.229670e+01
4.817719e+01	-1.234367e+01
4.845545e+01	-1.239126e+01
4.873533e+01	-1.243805e+01
4.901682e+01	-1.248565e+01
4.929994e+01	-1.253275e+01
4.958470e+01	-1.258002e+01
4.987110e+01	-1.262786e+01
5.015915e+01	-1.267501e+01
5.044887e+01	-1.272156e+01
5.074026e+01	-1.276900e+01
5.103333e+01	-1.281668e+01
5.132810e+01	-1.286432e+01
5.162457e+01	-1.291189e+01
5.192275e+01	-1.295884e+01
5.222265e+01	-1.300662e+01
5.252429e+01	-1.305401e+01
5.282767e+01	-1.310087e+01
5.313280e+01	-1.314957e+01
5.343969e+01	-1.319699e+01
5.374836e+01	-1.324402e+01
5.405880e+01	-1.329206e+01
5.437105e+01	-1.333975e+01
5.468509e+01	-1.338822e+01
5.500095e+01	-1.343583e+01
5.531863e+01	-1.348341e+01
5.563815e+01	-1.353034e+01
5.595951e+01	-1.357863e+01
5.628273e+01	-1.362700e+01
5.660782e+01	-1.367481e+01
5.693479e+01	-1.372179e+01
5.726364e+01	-1.377032e+01
5.759439e+01	-1.381799e+01
5.792705e+01	-1.386605e+01
5.826164e+01	-1.391445e+01
5.859815e+01	-1.396235e+01
5.893662e+01	-1.401024e+01
5.927703e+01	-1.405826e+01
5.961941e+01	-1.410639e+01
5.996377e+01	-1.415359e+01
6.031012e+01	-1.420240e+01
6.065847e+01	-1.425096e+01
6.100883e+01	-1.429860e+01
6.136121e+01	-1.434702e+01
6.171563e+01	-1.439529e+01
6.207210e+01	-1.444327e+01
6.243063e+01	-1.449170e+01
6.279122e+01	-1.453883e+01
6.315390e+01	-1.458788e+01
6.351868e+01	-1.463619e+01
6.388556e+01	-1.468498e+01
6.425456e+01	-1.473330e+01
6.462569e+01	-1.478110e+01
6.499897e+01	-1.482992e+01
6.537440e+01	-1.487870e+01
6.575200e+01	-1.492708e+01
6.613178e+01	-1.497577e+01
6.651375e+01	-1.502318e+01
6.689793e+01	-1.507156e+01
6.728433e+01	-1.512038e+01
6.767297e+01	-1.516887e+01
6.806384e+01	-1.521685e+01
6.845698e+01	-1.526507e+01
6.885238e+01	-1.531408e+01
6.925007e+01	-1.536251e+01
6.965005e+01	-1.541094e+01
7.005235e+01	-1.546138e+01
7.045697e+01	-1.550885e+01
7.086393e+01	-1.555719e+01
7.127323e+01	-1.560682e+01
7.168490e+01	-1.565538e+01
7.209895e+01	-1.570344e+01
7.251539e+01	-1.575189e+01
7.293424e+01	-1.580076e+01
7.335551e+01	-1.584869e+01
7.377920e+01	-1.589814e+01
7.420535e+01	-1.594682e+01
7.463396e+01	-1.599611e+01
7.506504e+01	-1.604572e+01
7.549861e+01	-1.609381e+01
7.593469e+01	-1.614236e+01
7.637328e+01	-1.619207e+01
7.681441e+01	-1.624031e+01
7.725809e+01	-1.628857e+01
7.770433e+01	-1.633744e+01
7.815315e+01	-1.638649e+01
7.860456e+01	-1.643418e+01
7.905857e+01	-1.648416e+01
7.951521e+01	-1.653275e+01
7.997449e+01	-1.658295e+01
8.043642e+01	-1.663159e+01
8.090102e+01	-1.668045e+01
8.136830e+01	-1.672887e+01
8.183828e+01	-1.677802e+01
8.231097e+01	-1.682758e+01
8.278640e+01	-1.687594e+01
8.326457e+01	-1.692432e+01
8.374550e+01	-1.697383e+01
8.422921e+01	-1.702353e+01
8.471572e+01	-1.707163e+01
8.520503e+01	-1.712012e+01
8.569717e+01	-1.716920e+01
8.619215e+01	-1.721853e+01
8.669000e+01	-1.726857e+01
8.719071e+01	-1.731723e+01
8.769432e+01	-1.736604e+01
8.820084e+01	-1.741597e+01
8.871029e+01	-1.746543e+01
8.922267e+01	-1.751492e+01
8.973802e+01	-1.756312e+01
9.025634e+01	-1.761295e+01
9.077766e+01	-1.766085e+01
9.130199e+01	-1.771084e+01
9.182935e+01	-1.775961e+01
9.235975e+01	-1.780846e+01
9.289321e+01	-1.785717e+01
9.342976e+01	-1.790640e+01
9.396941e+01	-1.795757e+01
9.451217e+01	-1.800573e+01
9.505807e+01	-1.805410e+01
9.560712e+01	-1.810590e+01
9.615934e+01	-1.815380e+01
9.671476e+01	-1.820348e+01
9.727338e+01	-1.825127e+01
9.783522e+01	-1.830259e+01
9.840032e+01	-1.835131e+01
9.896867e+01	-1.840028e+01
9.954031e+01	-1.844948e+01
1.001153e+02	-1.849990e+01
1.006935e+02	-1.854781e+01
1.012751e+02	-1.859781e+01
1.018601e+02	-1.864648e+01
1.024484e+02	-1.869632e+01
1.030402e+02	-1.874641e+01
1.036353e+02	-1.879433e+01
1.042339e+02	-1.884495e+01
1.048360e+02	-1.889380e+01
1.054415e+02	-1.894255e+01
1.060505e+02	-1.899272e+01
1.066631e+02	-1.904273e+01
1.072791e+02	-1.909145e+01
1.078988e+02	-1.914000e+01
1.085220e+02	-1.918942e+01
1.091488e+02	-1.923761e+01
1.097793e+02	-1.928808e+01
1.104133e+02	-1.933948e+01
1.110511e+02	-1.938878e+01
1.116925e+02	-1.943768e+01
1.123376e+02	-1.948602e+01
1.129865e+02	-1.953616e+01
1.136391e+02	-1.958597e+01
1.142955e+02	-1.963460e+01
1.149556e+02	-1.968402e+01
1.156196e+02	-1.973332e+01
1.162874e+02	-1.978309e+01
1.169591e+02	-1.983357e+01
1.176347e+02	-1.988353e+01
1.183141e+02	-1.993211e+01
1.189975e+02	-1.998194e+01
1.196848e+02	-2.003105e+01
1.203761e+02	-2.008021e+01
1.210714e+02	-2.012975e+01
1.217707e+02	-2.018162e+01
1.224740e+02	-2.022875e+01
1.231814e+02	-2.027758e+01
1.238929e+02	-2.032909e+01
1.246085e+02	-2.037838e+01
1.253283e+02	-2.042727e+01
1.260522e+02	-2.047804e+01
1.267802e+02	-2.052583e+01
1.275125e+02	-2.057799e+01
1.282490e+02	-2.062311e+01
1.289898e+02	-2.067576e+01
1.297348e+02	-2.072537e+01
1.304842e+02	-2.077519e+01
1.312378e+02	-2.082270e+01
1.319959e+02	-2.087504e+01
1.327583e+02	-2.092426e+01
1.335251e+02	-2.097449e+01
1.342963e+02	-2.102212e+01
1.350720e+02	-2.107060e+01
1.358522e+02	-2.112207e+01
1.366368e+02	-2.117116e+01
1.374260e+02	-2.122277e+01
1.382198e+02	-2.127168e+01
1.390182e+02	-2.132038e+01
1.398211e+02	-2.136886e+01
1.406287e+02	-2.142102e+01
1.414410e+02	-2.147101e+01
1.422579e+02	-2.152135e+01
1.430796e+02	-2.157065e+01
1.439060e+02	-2.161921e+01
1.447372e+02	-2.166909e+01
1.455732e+02	-2.171714e+01
1.464141e+02	-2.176937e+01
1.472597e+02	-2.181755e+01
1.481103e+02	-2.186980e+01
1.489658e+02	-2.191643e+01
1.498262e+02	-2.196878e+01
1.506916e+02	-2.201600e+01
1.515620e+02	-2.206773e+01
1.524374e+02	-2.211773e+01
1.533179e+02	-2.216758e+01
1.542034e+02	-2.221671e+01
1.550941e+02	-2.226651e+01
1.559899e+02	-2.231583e+01
1.568909e+02	-2.236560e+01
1.577971e+02	-2.241466e+01
1.587085e+02	-2.246566e+01
1.596252e+02	-2.251291e+01
1.605472e+02	-2.256522e+01
1.614745e+02	-2.261263e+01
1.624072e+02	-2.266457e+01
1.633453e+02	-2.271388e+01
1.642887e+02	-2.276252e+01
1.652377e+02	-2.281248e+01
1.661921e+02	-2.286358e+01
1.671520e+02	-2.291450e+01
1.681175e+02	-2.296271e+01
1.690885e+02	-2.301217e+01
1.700651e+02	-2.305989e+01
1.710474e+02	-2.311329e+01
1.720354e+02	-2.316074e+01
1.730291e+02	-2.321368e+01
1.740285e+02	-2.326169e+01
1.750337e+02	-2.331094e+01
1.760446e+02	-2.336102e+01
1.770615e+02	-2.341205e+01
1.780842e+02	-2.346036e+01
1.791128e+02	-2.351049e+01
1.801473e+02	-2.356200e+01
1.811878e+02	-2.361088e+01
1.822344e+02	-2.365761e+01
1.832870e+02	-2.371021e+01
1.843456e+02	-2.375881e+01
1.854104e+02	-2.380965e+01
1.864813e+02	-2.385891e+01
1.875584e+02	-2.390962e+01
1.886418e+02	-2.395795e+01
1.897313e+02	-2.400966e+01
1.908272e+02	-2.405724e+01
1.919294e+02	-2.410958e+01
1.930380e+02	-2.415933e+01
1.941530e+02	-2.420845e+01
1.952744e+02	-2.426146e+01
1.964023e+02	-2.431069e+01
1.975367e+02	-2.435612e+01
1.986777e+02	-2.440806e+01
1.998252e+02	-2.445651e+01
2.009794e+02	-2.450540e+01
2.021403e+02	-2.455874e+01
2.033078e+02	-2.460930e+01
2.044821e+02	-2.465738e+01
2.056632e+02	-2.470668e+01
2.068511e+02	-2.475680e+01
2.080459e+02	-2.480772e+01
2.092475e+02	-2.485590e+01
2.104561e+02	-2.490563e+01
2.116717e+02	-2.495599e+01
2.128943e+02	-2.500532e+01
2.141240e+02	-2.506031e+01
2.153608e+02	-2.510653e+01
2.166047e+02	-2.515537e+01
2.178558e+02	-2.520886e+01
2.191141e+02	-2.525486e+01
2.203797e+02	-2.530637e+01
2.216526e+02	-2.535629e+01
2.229329e+02	-2.540328e+01
2.242205e+02	-2.545474e+01
2.255156e+02	-2.550382e+01
2.268182e+02	-2.555513e+01
2.281283e+02	-2.560519e+01
2.294459e+02	-2.565332e+01
2.307712e+02	-2.570379e+01
2.321041e+02	-2.575466e+01
2.334447e+02	-2.580674e+01
2.347931e+02	-2.585518e+01
2.361493e+02	-2.590499e+01
2.375133e+02	-2.595567e+01
2.388851e+02	-2.600183e+01
2.402649e+02	-2.605306e+01
2.416527e+02	-2.610572e+01
2.430484e+02	-2.615489e+01
2.444523e+02	-2.620214e+01
2.458642e+02	-2.625094e+01
2.472843e+02	-2.630488e+01
2.487126e+02	-2.635575e+01
2.501492e+02	-2.640519e+01
2.515940e+02	-2.645538e+01
2.530472e+02	-2.650175e+01
2.545088e+02	-2.655598e+01
2.559789e+02	-2.660731e+01
2.574574e+02	-2.665178e+01
2.589444e+02	-2.670305e+01
2.604401e+02	-2.675627e+01
2.619444e+02	-2.680150e+01
2.634574e+02	-2.685650e+01
2.649791e+02	-2.690351e+01
2.665096e+02	-2.695551e+01
2.680489e+02	-2.700266e+01
2.695972e+02	-2.705695e+01
2.711544e+02	-2.710461e+01
2.727205e+02	-2.715381e+01
2.742958e+02	-2.720603e+01
2.758801e+02	-2.725381e+01
2.774736e+02	-2.730457e+01
2.790762e+02	-2.735475e+01
2.806882e+02	-2.740651e+01
2.823094e+02	-2.745480e+01
2.839400e+02	-2.750533e+01
2.855800e+02	-2.754999e+01
2.872295e+02	-2.760706e+01
2.888886e+02	-2.765647e+01
2.905572e+02	-2.770185e+01
2.922354e+02	-2.775908e+01
2.939234e+02	-2.780973e+01
2.956211e+02	-2.785542e+01
2.973286e+02	-2.790205e+01
2.990459e+02	-2.795434e+01
3.007732e+02	-2.800385e+01
3.025104e+02	-2.805512e+01
3.042577e+02	-2.810765e+01
3.060151e+02	-2.815434e+01
3.077826e+02	-2.820447e+01
3.095604e+02	-2.825311e+01
3.113484e+02	-2.830591e+01
3.131467e+02	-2.835536e+01
3.149554e+02	-2.840000e+01
3.167746e+02	-2.845418e+01
3.186043e+02	-2.850129e+01
3.204445e+02	-2.855464e+01
3.222954e+02	-2.860595e+01
3.241570e+02	-2.865403e+01
3.260293e+02	-2.870249e+01
3.279124e+02	-2.875409e+01
3.298064e+02	-2.880323e+01
3.317114e+02	-2.885688e+01
3.336273e+02	-2.890208e+01
3.355544e+02	-2.895459e+01
3.374925e+02	-2.900494e+01
3.394418e+02	-2.906007e+01
3.414024e+02	-2.910597e+01
3.433744e+02	-2.915503e+01
3.453577e+02	-2.920859e+01
3.473525e+02	-2.925894e+01
3.493588e+02	-2.930772e+01
3.513766e+02	-2.936087e+01
3.534062e+02	-2.940306e+01
3.554474e+02	-2.945737e+01
3.575005e+02	-2.950844e+01
3.595654e+02	-2.955354e+01
3.616422e+02	-2.960575e+01
3.637311e+02	-2.965563e+01
3.658320e+02	-2.970589e+01
3.679450e+02	-2.975877e+01
3.700702e+02	-2.980739e+01
3.722077e+02	-2.986112e+01
3.743576e+02	-2.990828e+01
3.765199e+02	-2.996453e+01
3.786946e+02	-3.001149e+01
3.808820e+02	-3.005601e+01
3.830819e+02	-3.010976e+01
3.852946e+02	-3.015487e+01
3.875200e+02	-3.021266e+01
3.897583e+02	-3.025704e+01
3.920096e+02	-3.030906e+01
3.942738e+02	-3.035726e+01
3.965511e+02	-3.040889e+01
3.988416e+02	-3.045229e+01
4.011452e+02	-3.051234e+01
4.034622e+02	-3.056232e+01
4.057926e+02	-3.061043e+01
4.081365e+02	-3.065650e+01
4.104938e+02	-3.070855e+01
4.128648e+02	-3.075917e+01
4.152495e+02	-3.081361e+01
4.176480e+02	-3.086553e+01
4.200603e+02	-3.090997e+01
4.224866e+02	-3.096065e+01
4.249268e+02	-3.101141e+01
4.273812e+02	-3.105662e+01
4.298497e+02	-3.110944e+01
4.323325e+02	-3.115997e+01
4.348297e+02	-3.121133e+01
4.373412e+02	-3.125960e+01
4.398673e+02	-3.131194e+01
4.424079e+02	-3.136876e+01
4.449633e+02	-3.141238e+01
4.475334e+02	-3.145994e+01
4.501183e+02	-3.151583e+01
4.527182e+02	-3.156122e+01
4.553330e+02	-3.161135e+01
4.579630e+02	-3.166217e+01
4.606082e+02	-3.171041e+01
4.632687e+02	-3.175959e+01
4.659445e+02	-3.181357e+01
4.686358e+02	-3.186302e+01
4.713426e+02	-3.192011e+01
4.740650e+02	-3.196576e+01
4.768032e+02	-3.200794e+01
4.795572e+02	-3.206460e+01
4.823271e+02	-3.210852e+01
4.851130e+02	-3.216258e+01
4.879150e+02	-3.221738e+01
4.907332e+02	-3.226376e+01
4.935676e+02	-3.231638e+01
4.964185e+02	-3.236685e+01
4.992858e+02	-3.242045e+01
5.021696e+02	-3.246613e+01
5.050701e+02	-3.251312e+01
5.079874e+02	-3.256982e+01
5.109215e+02	-3.261519e+01
5.138726e+02	-3.266551e+01
5.168407e+02	-3.272155e+01
5.198259e+02	-3.276889e+01
5.228284e+02	-3.281753e+01
5.258482e+02	-3.286287e+01
5.288855e+02	-3.291864e+01
5.319403e+02	-3.295944e+01
5.350128e+02	-3.302042e+01
5.381030e+02	-3.306994e+01
5.412111e+02	-3.311435e+01
5.443371e+02	-3.316307e+01
5.474812e+02	-3.321178e+01
5.506434e+02	-3.326784e+01
5.538239e+02	-3.331595e+01
5.570228e+02	-3.336754e+01
5.602401e+02	-3.342059e+01
5.634760e+02	-3.346870e+01
5.667306e+02	-3.352590e+01
5.700040e+02	-3.356515e+01
5.732964e+02	-3.362596e+01
5.766077e+02	-3.367325e+01
5.799382e+02	-3.372161e+01
5.832879e+02	-3.376633e+01
5.866569e+02	-3.381726e+01
5.900454e+02	-3.386758e+01
5.934535e+02	-3.392383e+01
5.968813e+02	-3.397511e+01
6.003288e+02	-3.402536e+01
6.037963e+02	-3.407109e+01
6.072838e+02	-3.412005e+01
6.107914e+02	-3.416891e+01
6.143194e+02	-3.422663e+01
6.178676e+02	-3.427458e+01
6.214364e+02	-3.432285e+01
6.250258e+02	-3.437380e+01
6.286359e+02	-3.442684e+01
6.322669e+02	-3.447622e+01
6.359189e+02	-3.452466e+01
6.395919e+02	-3.458121e+01
6.432862e+02	-3.462638e+01
6.470017e+02	-3.467476e+01
6.507388e+02	-3.472714e+01
6.544974e+02	-3.477613e+01
6.582778e+02	-3.482382e+01
6.620800e+02	-3.488006e+01
6.659041e+02	-3.492755e+01
6.697504e+02	-3.497244e+01
6.736188e+02	-3.502395e+01
6.775096e+02	-3.508536e+01
6.814229e+02	-3.513513e+01
6.853587e+02	-3.517767e+01
6.893173e+02	-3.523211e+01
6.932988e+02	-3.528553e+01
6.973033e+02	-3.533167e+01
7.013309e+02	-3.537705e+01
