Frequency(Hz)	Magnitude(dB)
1.000000e+01	-2.115975e+00
1.005776e+01	-2.135298e+00
1.011585e+01	-2.154908e+00
1.017428e+01	-2.174290e+00
1.023305e+01	-2.193980e+00
1.029215e+01	-2.214032e+00
1.035160e+01	-2.234247e+00
1.041139e+01	-2.254334e+00
1.047153e+01	-2.274787e+00
1.053201e+01	-2.295269e+00
1.059284e+01	-2.315823e+00
1.065403e+01	-2.336523e+00
1.071556e+01	-2.357199e+00
1.077746e+01	-2.378185e+00
1.083971e+01	-2.399316e+00
1.090232e+01	-2.420994e+00
1.096529e+01	-2.442319e+00
1.102862e+01	-2.463860e+00
1.109232e+01	-2.485469e+00
1.115639e+01	-2.507563e+00
1.122083e+01	-2.529507e+00
1.128564e+01	-2.551882e+00
1.135083e+01	-2.574105e+00
1.141639e+01	-2.596323e+00
1.148233e+01	-2.618779e+00
1.154865e+01	-2.641660e+00
1.161536e+01	-2.664315e+00
1.168245e+01	-2.687377e+00
1.174992e+01	-2.710805e+00
1.181779e+01	-2.733978e+00
1.188605e+01	-2.757419e+00
1.195470e+01	-2.781071e+00
1.202375e+01	-2.804703e+00
1.209320e+01	-2.828561e+00
1.216305e+01	-2.852685e+00
1.223330e+01	-2.876752e+00
1.230396e+01	-2.901281e+00
1.237503e+01	-2.925626e+00
1.244651e+01	-2.950146e+00
1.251840e+01	-2.974965e+00
1.259070e+01	-2.999712e+00
1.266343e+01	-3.024790e+00
1.273657e+01	-3.049706e+00
1.281014e+01	-3.075223e+00
1.288413e+01	-3.100827e+00
1.295855e+01	-3.126322e+00
1.303339e+01	-3.152089e+00
1.310867e+01	-3.177853e+00
1.318439e+01	-3.204178e+00
1.326054e+01	-3.230080e+00
1.333713e+01	-3.256554e+00
1.341417e+01	-3.283038e+00
1.349165e+01	-3.309514e+00
1.356958e+01	-3.336247e+00
1.364795e+01	-3.363121e+00
1.372678e+01	-3.390227e+00
1.380607e+01	-3.417351e+00
1.388581e+01	-3.444848e+00
1.396602e+01	-3.472199e+00
1.404668e+01	-3.499659e+00
1.412782e+01	-3.527745e+00
1.420942e+01	-3.555303e+00
1.429149e+01	-3.583511e+00
1.437404e+01	-3.611576e+00
1.445706e+01	-3.639792e+00
1.454057e+01	-3.668376e+00
1.462455e+01	-3.697056e+00
1.470902e+01	-3.725815e+00
1.479398e+01	-3.754741e+00
1.487943e+01	-3.783510e+00
1.496537e+01	-3.812732e+00
1.505181e+01	-3.841887e+00
1.513875e+01	-3.871608e+00
1.522619e+01	-3.901349e+00
1.531414e+01	-3.931170e+00
1.540259e+01	-3.960674e+00
1.549156e+01	-3.990863e+00
1.558103e+01	-4.021010e+00
1.567103e+01	-4.051121e+00
1.576155e+01	-4.081815e+00
1.585258e+01	-4.112147e+00
1.594415e+01	-4.142700e+00
1.603624e+01	-4.173715e+00
1.612886e+01	-4.204637e+00
1.622202e+01	-4.235693e+00
1.631572e+01	-4.266725e+00
1.640996e+01	-4.298275e+00
1.650474e+01	-4.329782e+00
1.660008e+01	-4.361374e+00
1.669596e+01	-4.393165e+00
1.679239e+01	-4.425275e+00
1.688938e+01	-4.457149e+00
1.698694e+01	-4.489381e+00
1.708505e+01	-4.521513e+00
1.718373e+01	-4.553844e+00
1.728299e+01	-4.586609e+00
1.738281e+01	-4.619206e+00
1.748322e+01	-4.652081e+00
1.758420e+01	-4.685281e+00
1.768576e+01	-4.718195e+00
1.778792e+01	-4.751608e+00
1.789066e+01	-4.784684e+00
1.799399e+01	-4.818146e+00
1.809793e+01	-4.851313e+00
1.820246e+01	-4.885434e+00
1.830760e+01	-4.919212e+00
1.841334e+01	-4.953427e+00
1.851969e+01	-4.987635e+00
1.862666e+01	-5.021550e+00
1.873425e+01	-5.056111e+00
1.884246e+01	-5.090304e+00
1.895129e+01	-5.124996e+00
1.906075e+01	-5.159653e+00
1.917085e+01	-5.194589e+00
1.928158e+01	-5.229522e+00
1.939295e+01	-5.264335e+00
1.950496e+01	-5.299813e+00
1.961762e+01	-5.334937e+00
1.973093e+01	-5.370745e+00
1.984490e+01	-5.406045e+00
1.995952e+01	-5.441696e+00
2.007480e+01	-5.477326e+00
2.019076e+01	-5.513700e+00
2.030738e+01	-5.549592e+00
2.042467e+01	-5.585501e+00
2.054264e+01	-5.622088e+00
2.066130e+01	-5.658428e+00
2.078064e+01	-5.694960e+00
2.090066e+01	-5.731251e+00
2.102139e+01	-5.768027e+00
2.114280e+01	-5.804903e+00
2.126492e+01	-5.842000e+00
2.138775e+01	-5.879210e+00
2.151128e+01	-5.916047e+00
2.163553e+01	-5.953275e+00
2.176050e+01	-5.991313e+00
2.188619e+01	-6.027966e+00
2.201260e+01	-6.066073e+00
2.213974e+01	-6.103686e+00
2.226762e+01	-6.141288e+00
2.239624e+01	-6.179074e+00
2.252560e+01	-6.217567e+00
2.265571e+01	-6.255375e+00
2.278656e+01	-6.293815e+00
2.291818e+01	-6.332416e+00
2.305055e+01	-6.370361e+00
2.318369e+01	-6.408808e+00
2.331760e+01	-6.447589e+00
2.345228e+01	-6.486409e+00
2.358774e+01	-6.524933e+00
2.372398e+01	-6.564136e+00
2.386101e+01	-6.603196e+00
2.399883e+01	-6.642166e+00
2.413745e+01	-6.681391e+00
2.427686e+01	-6.720711e+00
2.441709e+01	-6.760027e+00
2.455812e+01	-6.799746e+00
2.469997e+01	-6.839533e+00
2.484263e+01	-6.879403e+00
2.498612e+01	-6.919359e+00
2.513044e+01	-6.959139e+00
2.527559e+01	-6.998622e+00
2.542158e+01	-7.038757e+00
2.556842e+01	-7.079212e+00
2.571610e+01	-7.119234e+00
2.586463e+01	-7.159606e+00
2.601403e+01	-7.200328e+00
2.616428e+01	-7.240626e+00
2.631541e+01	-7.281535e+00
2.646740e+01	-7.321781e+00
2.662028e+01	-7.362729e+00
2.677404e+01	-7.403369e+00
2.692868e+01	-7.444944e+00
2.708422e+01	-7.485887e+00
2.724066e+01	-7.527008e+00
2.739800e+01	-7.568463e+00
2.755625e+01	-7.609562e+00
2.771541e+01	-7.650864e+00
2.787550e+01	-7.692229e+00
2.803650e+01	-7.733995e+00
2.819844e+01	-7.775448e+00
2.836131e+01	-7.816925e+00
2.852513e+01	-7.858921e+00
2.868989e+01	-7.900806e+00
2.885560e+01	-7.943265e+00
2.902227e+01	-7.984714e+00
2.918990e+01	-8.026882e+00
2.935850e+01	-8.068974e+00
2.952807e+01	-8.111782e+00
2.969863e+01	-8.154030e+00
2.987016e+01	-8.196171e+00
3.004269e+01	-8.238753e+00
3.021622e+01	-8.281240e+00
3.039075e+01	-8.323908e+00
3.056628e+01	-8.366789e+00
3.074283e+01	-8.409492e+00
3.092040e+01	-8.452067e+00
3.109900e+01	-8.495174e+00
3.127862e+01	-8.537850e+00
3.145929e+01	-8.580943e+00
3.164099e+01	-8.623954e+00
3.182375e+01	-8.667658e+00
3.200756e+01	-8.710370e+00
3.219244e+01	-8.754058e+00
3.237838e+01	-8.797474e+00
3.256540e+01	-8.840801e+00
3.275349e+01	-8.884560e+00
3.294268e+01	-8.927721e+00
3.313295e+01	-8.971289e+00
3.332433e+01	-9.015178e+00
3.351681e+01	-9.059095e+00
3.371040e+01	-9.103122e+00
3.390511e+01	-9.146890e+00
3.410094e+01	-9.190873e+00
3.429791e+01	-9.235603e+00
3.449601e+01	-9.279388e+00
3.469526e+01	-9.323071e+00
3.489566e+01	-9.367069e+00
3.509721e+01	-9.411740e+00
3.529993e+01	-9.456321e+00
3.550382e+01	-9.500823e+00
3.570889e+01	-9.544531e+00
3.591515e+01	-9.589132e+00
3.612259e+01	-9.634026e+00
3.633123e+01	-9.678676e+00
3.654108e+01	-9.723115e+00
3.675214e+01	-9.767928e+00
3.696442e+01	-9.812583e+00
3.717792e+01	-9.857393e+00
3.739266e+01	-9.902342e+00
3.760864e+01	-9.947612e+00
3.782587e+01	-9.992231e+00
3.804435e+01	-1.003678e+01
3.826409e+01	-1.008235e+01
3.848510e+01	-1.012760e+01
3.870739e+01	-1.017287e+01
3.893096e+01	-1.021823e+01
3.915583e+01	-1.026321e+01
3.938199e+01	-1.030871e+01
3.960946e+01	-1.035435e+01
3.983824e+01	-1.039956e+01
4.006834e+01	-1.044501e+01
4.029978e+01	-1.049009e+01
4.053255e+01	-1.053555e+01
4.076666e+01	-1.058174e+01
4.100213e+01	-1.062744e+01
4.123896e+01	-1.067315e+01
4.147715e+01	-1.071841e+01
4.171672e+01	-1.076420e+01
4.195767e+01	-1.081023e+01
4.220002e+01	-1.085584e+01
4.244377e+01	-1.090208e+01
4.268892e+01	-1.094881e+01
4.293549e+01	-1.099422e+01
4.318348e+01	-1.104054e+01
4.343291e+01	-1.108659e+01
4.368377e+01	-1.113239e+01
4.393609e+01	-1.117866e+01
4.418986e+01	-1.122422e+01
4.444510e+01	-1.127153e+01
4.470182e+01	-1.131802e+01
4.496001e+01	-1.136386e+01
4.521970e+01	-1.141076e+01
4.548089e+01	-1.145669e+01
4.574358e+01	-1.150321e+01
4.600779e+01	-1.155020e+01
4.627353e+01	-1.159633e+01
4.654081e+01	-1.164268e+01
4.680963e+01	-1.168901e+01
4.708000e+01	-1.173656e+01
4.735193e+01	-1.178315e+01
4.762543e+01	-1.182962e+01
4.790051e+01	-1.187672e+01
4.817719e+01	-1.192335e+01
4.845545e+01	-1.197025e+01
4.873533e+01	-1.201697e+01
4.901682e+01	-1.206368e+01
4.929994e+01	-1.211048e+01
4.958470e+01	-1.215720e+01
4.987110e+01	-1.220536e+01
5.015915e+01	-1.225195e+01
5.044887e+01	-1.229840e+01
5.074026e+01	-1.234644e+01
5.103333e+01	-1.239292e+01
5.132810e+01	-1.244001e+01
5.162457e+01	-1.248704e+01
5.192275e+01	-1.253439e+01
5.222265e+01	-1.258252e+01
5.252429e+01	-1.262972e+01
5.282767e+01	-1.267647e+01
5.313280e+01	-1.272401e+01
5.343969e+01	-1.277124e+01
5.374836e+01	-1.281952e+01
5.405880e+01	-1.286570e+01
5.437105e+01	-1.291363e+01
5.468509e+01	-1.296049e+01
5.500095e+01	-1.300816e+01
5.531863e+01	-1.305554e+01
5.563815e+01	-1.310328e+01
5.595951e+01	-1.315129e+01
5.628273e+01	-1.319913e+01
5.660782e+01	-1.324689e+01
5.693479e+01	-1.329430e+01
5.726364e+01	-1.334215e+01
5.759439e+01	-1.338997e+01
5.792705e+01	-1.343772e+01
5.826164e+01	-1.348506e+01
5.859815e+01	-1.353279e+01
5.893662e+01	-1.358130e+01
5.927703e+01	-1.362816e+01
5.961941e+01	-1.367570e+01
5.996377e+01	-1.372532e+01
6.031012e+01	-1.377191e+01
6.065847e+01	-1.381976e+01
6.100883e+01	-1.386821e+01
6.136121e+01	-1.391644e+01
6.171563e+01	-1.396410e+01
6.207210e+01	-1.401203e+01
6.243063e+01	-1.406011e+01
6.279122e+01	-1.410825e+01
6.315390e+01	-1.415679e+01
6.351868e+01	-1.420407e+01
6.388556e+01	-1.425268e+01
6.425456e+01	-1.430069e+01
6.462569e+01	-1.434865e+01
6.499897e+01	-1.439677e+01
6.537440e+01	-1.444587e+01
6.575200e+01	-1.449358e+01
6.613178e+01	-1.454124e+01
6.651375e+01	-1.459022e+01
6.689793e+01	-1.463867e+01
6.728433e+01	-1.468648e+01
6.767297e+01	-1.473549e+01
6.806384e+01	-1.478363e+01
6.845698e+01	-1.483274e+01
6.885238e+01	-1.488102e+01
6.925007e+01	-1.492868e+01
6.965005e+01	-1.497653e+01
7.005235e+01	-1.502614e+01
7.045697e+01	-1.507484e+01
7.086393e+01	-1.512290e+01
7.127323e+01	-1.517042e+01
7.168490e+01	-1.521925e+01
7.209895e+01	-1.526747e+01
7.251539e+01	-1.531575e+01
7.293424e+01	-1.536498e+01
7.335551e+01	-1.541421e+01
7.377920e+01	-1.546277e+01
7.420535e+01	-1.551128e+01
7.463396e+01	-1.556042e+01
7.506504e+01	-1.560779e+01
7.549861e+01	-1.565667e+01
7.593469e+01	-1.570574e+01
7.637328e+01	-1.575494e+01
7.681441e+01	-1.580328e+01
7.725809e+01	-1.585316e+01
7.770433e+01	-1.590021e+01
7.815315e+01	-1.594826e+01
7.860456e+01	-1.599823e+01
7.905857e+01	-1.604693e+01
7.951521e+01	-1.609621e+01
7.997449e+01	-1.614430e+01
8.043642e+01	-1.619284e+01
8.090102e+01	-1.624253e+01
8.136830e+01	-1.629063e+01
8.183828e+01	-1.633918e+01
8.231097e+01	-1.638845e+01
8.278640e+01	-1.643753e+01
8.326457e+01	-1.648632e+01
8.374550e+01	-1.653563e+01
8.422921e+01	-1.658324e+01
8.471572e+01	-1.663319e+01
8.520503e+01	-1.668291e+01
8.569717e+01	-1.673077e+01
8.619215e+01	-1.678047e+01
8.669000e+01	-1.682790e+01
8.719071e+01	-1.687663e+01
8.769432e+01	-1.692751e+01
8.820084e+01	-1.697651e+01
8.871029e+01	-1.702502e+01
8.922267e+01	-1.707431e+01
8.973802e+01	-1.712354e+01
9.025634e+01	-1.717238e+01
9.077766e+01	-1.722200e+01
9.130199e+01	-1.726904e+01
9.182935e+01	-1.731972e+01
9.235975e+01	-1.736904e+01
9.289321e+01	-1.741731e+01
9.342976e+01	-1.746718e+01
9.396941e+01	-1.751624e+01
9.451217e+01	-1.756547e+01
9.505807e+01	-1.761440e+01
9.560712e+01	-1.766473e+01
9.615934e+01	-1.771299e+01
9.671476e+01	-1.776260e+01
9.727338e+01	-1.781173e+01
9.783522e+01	-1.786067e+01
9.840032e+01	-1.790889e+01
9.896867e+01	-1.795825e+01
9.954031e+01	-1.800824e+01
1.001153e+02	-1.805712e+01
1.006935e+02	-1.810618e+01
1.012751e+02	-1.815459e+01
1.018601e+02	-1.820453e+01
1.024484e+02	-1.825347e+01
1.030402e+02	-1.830351e+01
1.036353e+02	-1.835308e+01
1.042339e+02	-1.840150e+01
1.048360e+02	-1.845112e+01
1.054415e+02	-1.850107e+01
1.060505e+02	-1.854899e+01
1.066631e+02	-1.859759e+01
1.072791e+02	-1.864782e+01
1.078988e+02	-1.869691e+01
1.085220e+02	-1.874691e+01
1.091488e+02	-1.879792e+01
1.097793e+02	-1.884661e+01
1.104133e+02	-1.889474e+01
1.110511e+02	-1.894530e+01
1.116925e+02	-1.899388e+01
1.123376e+02	-1.904450e+01
1.129865e+02	-1.909321e+01
1.136391e+02	-1.914258e+01
1.142955e+02	-1.919396e+01
1.149556e+02	-1.924193e+01
1.156196e+02	-1.929104e+01
1.162874e+02	-1.934037e+01
1.169591e+02	-1.938905e+01
1.176347e+02	-1.943913e+01
1.183141e+02	-1.948955e+01
1.189975e+02	-1.953809e+01
1.196848e+02	-1.958776e+01
1.203761e+02	-1.963725e+01
1.210714e+02	-1.968635e+01
1.217707e+02	-1.973716e+01
1.224740e+02	-1.978616e+01
1.231814e+02	-1.983450e+01
1.238929e+02	-1.988593e+01
1.246085e+02	-1.993343e+01
1.253283e+02	-1.998477e+01
1.260522e+02	-2.003260e+01
1.267802e+02	-2.008375e+01
1.275125e+02	-2.013207e+01
1.282490e+02	-2.018171e+01
1.289898e+02	-2.023171e+01
1.297348e+02	-2.028208e+01
1.304842e+02	-2.033139e+01
1.312378e+02	-2.038071e+01
1.319959e+02	-2.043100e+01
1.327583e+02	-2.048079e+01
1.335251e+02	-2.052841e+01
1.342963e+02	-2.057866e+01
1.350720e+02	-2.062842e+01
1.358522e+02	-2.067773e+01
1.366368e+02	-2.072823e+01
1.374260e+02	-2.077739e+01
1.382198e+02	-2.082679e+01
1.390182e+02	-2.087611e+01
1.398211e+02	-2.092542e+01
1.406287e+02	-2.097574e+01
1.414410e+02	-2.102425e+01
1.422579e+02	-2.107419e+01
1.430796e+02	-2.112546e+01
1.439060e+02	-2.117466e+01
1.447372e+02	-2.122462e+01
1.455732e+02	-2.127153e+01
1.464141e+02	-2.132388e+01
1.472597e+02	-2.137247e+01
1.481103e+02	-2.142335e+01
1.489658e+02	-2.147099e+01
1.498262e+02	-2.152351e+01
1.506916e+02	-2.157282e+01
1.515620e+02	-2.162081e+01
1.524374e+02	-2.167038e+01
1.533179e+02	-2.171987e+01
1.542034e+02	-2.177106e+01
1.550941e+02	-2.182017e+01
1.559899e+02	-2.187087e+01
1.568909e+02	-2.192012e+01
1.577971e+02	-2.196878e+01
1.587085e+02	-2.201758e+01
1.596252e+02	-2.207061e+01
1.605472e+02	-2.212023e+01
1.614745e+02	-2.216994e+01
1.624072e+02	-2.221639e+01
1.633453e+02	-2.226923e+01
1.642887e+02	-2.231687e+01
1.652377e+02	-2.236620e+01
1.661921e+02	-2.241870e+01
1.671520e+02	-2.246658e+01
1.681175e+02	-2.251733e+01
1.690885e+02	-2.256365e+01
1.700651e+02	-2.261561e+01
1.710474e+02	-2.266488e+01
1.720354e+02	-2.271464e+01
1.730291e+02	-2.276525e+01
1.740285e+02	-2.281551e+01
1.750337e+02	-2.286327e+01
1.760446e+02	-2.291583e+01
1.770615e+02	-2.296599e+01
1.780842e+02	-2.301409e+01
1.791128e+02	-2.306508e+01
1.801473e+02	-2.311440e+01
1.811878e+02	-2.316195e+01
1.822344e+02	-2.321368e+01
1.832870e+02	-2.326407e+01
1.843456e+02	-2.331501e+01
1.854104e+02	-2.335993e+01
1.864813e+02	-2.341218e+01
1.875584e+02	-2.346550e+01
1.886418e+02	-2.351290e+01
1.897313e+02	-2.356103e+01
1.908272e+02	-2.361440e+01
1.919294e+02	-2.365929e+01
1.930380e+02	-2.371254e+01
1.941530e+02	-2.376419e+01
1.952744e+02	-2.381329e+01
1.964023e+02	-2.386163e+01
1.975367e+02	-2.391397e+01
1.986777e+02	-2.396210e+01
1.998252e+02	-2.401147e+01
2.009794e+02	-2.406205e+01
2.021403e+02	-2.410951e+01
2.033078e+02	-2.416014e+01
2.044821e+02	-2.421145e+01
2.056632e+02	-2.426077e+01
2.068511e+02	-2.430972e+01
2.080459e+02	-2.436081e+01
2.092475e+02	-2.440907e+01
2.104561e+02	-2.446203e+01
2.116717e+02	-2.450950e+01
2.128943e+02	-2.455794e+01
2.141240e+02	-2.460974e+01
2.153608e+02	-2.465824e+01
2.166047e+02	-2.470894e+01
2.178558e+02	-2.475951e+01
2.191141e+02	-2.480773e+01
2.203797e+02	-2.485856e+01
2.216526e+02	-2.490816e+01
2.229329e+02	-2.495969e+01
2.242205e+02	-2.500911e+01
2.255156e+02	-2.505871e+01
2.268182e+02	-2.510757e+01
2.281283e+02	-2.515764e+01
2.294459e+02	-2.521024e+01
2.307712e+02	-2.525982e+01
2.321041e+02	-2.531190e+01
2.334447e+02	-2.535929e+01
2.347931e+02	-2.540725e+01
2.361493e+02	-2.545715e+01
2.375133e+02	-2.550923e+01
2.388851e+02	-2.555805e+01
2.402649e+02	-2.560767e+01
2.416527e+02	-2.565684e+01
2.430484e+02	-2.570688e+01
2.444523e+02	-2.575666e+01
2.458642e+02	-2.580448e+01
2.472843e+02	-2.585877e+01
2.487126e+02	-2.590567e+01
2.501492e+02	-2.595586e+01
2.515940e+02	-2.600795e+01
2.530472e+02	-2.605748e+01
2.545088e+02	-2.610690e+01
2.559789e+02	-2.615904e+01
2.574574e+02	-2.620731e+01
2.589444e+02	-2.625605e+01
2.604401e+02	-2.630530e+01
2.619444e+02	-2.635950e+01
2.634574e+02	-2.640686e+01
2.649791e+02	-2.645796e+01
2.665096e+02	-2.650816e+01
2.680489e+02	-2.655607e+01
2.695972e+02	-2.660583e+01
2.711544e+02	-2.665550e+01
2.727205e+02	-2.670842e+01
2.742958e+02	-2.675407e+01
2.758801e+02	-2.680661e+01
2.774736e+02	-2.685342e+01
2.790762e+02	-2.690670e+01
2.806882e+02	-2.695754e+01
2.823094e+02	-2.700587e+01
2.839400e+02	-2.705607e+01
2.855800e+02	-2.710626e+01
2.872295e+02	-2.715797e+01
2.888886e+02	-2.720904e+01
2.905572e+02	-2.725480e+01
2.922354e+02	-2.730992e+01
2.939234e+02	-2.735532e+01
2.956211e+02	-2.740857e+01
2.973286e+02	-2.745480e+01
2.990459e+02	-2.750526e+01
3.007732e+02	-2.755709e+01
3.025104e+02	-2.760295e+01
3.042577e+02	-2.765909e+01
3.060151e+02	-2.770522e+01
3.077826e+02	-2.775394e+01
3.095604e+02	-2.780328e+01
3.113484e+02	-2.785540e+01
3.131467e+02	-2.791050e+01
3.149554e+02	-2.795603e+01
3.167746e+02	-2.800895e+01
3.186043e+02	-2.805802e+01
3.204445e+02	-2.810681e+01
3.222954e+02	-2.815715e+01
3.241570e+02	-2.820566e+01
3.260293e+02	-2.825656e+01
3.279124e+02	-2.831212e+01
3.298064e+02	-2.836363e+01
3.317114e+02	-2.840633e+01
3.336273e+02	-2.845625e+01
3.355544e+02	-2.850152e+01
3.374925e+02	-2.855945e+01
3.394418e+02	-2.860676e+01
3.414024e+02	-2.865726e+01
3.433744e+02	-2.870743e+01
3.453577e+02	-2.875594e+01
3.473525e+02	-2.880427e+01
3.493588e+02	-2.885677e+01
3.513766e+02	-2.890884e+01
3.534062e+02	-2.895969e+01
3.554474e+02	-2.900647e+01
3.575005e+02	-2.905972e+01
3.595654e+02	-2.910690e+01
3.616422e+02	-2.915580e+01
3.637311e+02	-2.920700e+01
3.658320e+02	-2.925329e+01
3.679450e+02	-2.930349e+01
3.700702e+02	-2.935766e+01
3.722077e+02	-2.940967e+01
3.743576e+02	-2.945740e+01
3.765199e+02	-2.950621e+01
3.786946e+02	-2.955479e+01
3.808820e+02	-2.960809e+01
3.830819e+02	-2.965904e+01
3.852946e+02	-2.970641e+01
3.875200e+02	-2.976157e+01
3.897583e+02	-2.981266e+01
3.920096e+02	-2.985333e+01
3.942738e+02	-2.990622e+01
3.965511e+02	-2.995696e+01
3.988416e+02	-3.000977e+01
4.011452e+02	-3.006551e+01
4.034622e+02	-3.010826e+01
4.057926e+02	-3.016217e+01
4.081365e+02	-3.020662e+01
4.104938e+02	-3.025732e+01
4.128648e+02	-3.031221e+01
4.152495e+02	-3.036250e+01
4.176480e+02	-3.040927e+01
4.200603e+02	-3.045965e+01
4.224866e+02	-3.050905e+01
4.249268e+02	-3.055879e+01
4.273812e+02	-3.061460e+01
4.298497e+02	-3.065643e+01
4.323325e+02	-3.071049e+01
4.348297e+02	-3.076311e+01
4.373412e+02	-3.080925e+01
4.398673e+02	-3.086291e+01
4.424079e+02	-3.090813e+01
4.449633e+02	-3.096328e+01
4.475334e+02	-3.101600e+01
4.501183e+02	-3.106622e+01
4.527182e+02	-3.111236e+01
4.553330e+02	-3.116494e+01
4.579630e+02	-3.121766e+01
4.606082e+02	-3.126279e+01
4.632687e+02	-3.131531e+01
4.659445e+02	-3.136859e+01
4.686358e+02	-3.141265e+01
4.713426e+02	-3.146834e+01
4.740650e+02	-3.151336e+01
4.768032e+02	-3.155452e+01
4.795572e+02	-3.161440e+01
4.823271e+02	-3.166126e+01
4.851130e+02	-3.171325e+01
4.879150e+02	-3.175882e+01
4.907332e+02	-3.181394e+01
4.935676e+02	-3.186745e+01
4.964185e+02	-3.191638e+01
4.992858e+02	-3.196916e+01
5.021696e+02	-3.201947e+01
5.050701e+02	-3.206287e+01
5.079874e+02	-3.212492e+01
5.109215e+02	-3.216662e+01
5.138726e+02	-3.221874e+01
5.168407e+02	-3.227099e+01
5.198259e+02	-3.231690e+01
5.228284e+02	-3.237328e+01
5.258482e+02	-3.241475e+01
5.288855e+02	-3.247628e+01
5.319403e+02	-3.251256e+01
5.350128e+02	-3.257105e+01
5.381030e+02	-3.262035e+01
5.412111e+02	-3.267116e+01
5.443371e+02	-3.272016e+01
5.474812e+02	-3.277074e+01
5.506434e+02	-3.282252e+01
5.538239e+02	-3.286878e+01
5.570228e+02	-3.291601e+01
5.602401e+02	-3.297195e+01
5.634760e+02	-3.302327e+01
5.667306e+02	-3.307171e+01
5.700040e+02	-3.311734e+01
5.732964e+02	-3.316588e+01
5.766077e+02	-3.322162e+01
5.799382e+02	-3.326709e+01
5.832879e+02	-3.331783e+01
5.866569e+02	-3.337729e+01
5.900454e+02	-3.342042e+01
5.934535e+02	-3.346846e+01
5.968813e+02	-3.351874e+01
6.003288e+02	-3.357394e+01
6.037963e+02	-3.362252e+01
6.072838e+02	-3.367114e+01
6.107914e+02	-3.372019e+01
6.143194e+02	-3.377183e+01
6.178676e+02	-3.382026e+01
6.214364e+02	-3.387492e+01
6.250258e+02	-3.393198e+01
6.286359e+02	-3.397242e+01
6.322669e+02	-3.402344e+01
6.359189e+02	-3.407991e+01
6.395919e+02	-3.412023e+01
6.432862e+02	-3.417833e+01
6.470017e+02	-3.423231e+01
6.507388e+02	-3.427629e+01
6.544974e+02	-3.433635e+01
6.582778e+02	-3.438049e+01
6.620800e+02	-3.443074e+01
6.659041e+02	-3.447913e+01
6.697504e+02	-3.452470e+01
6.736188e+02	-3.458199e+01
6.775096e+02	-3.464107e+01
6.814229e+02	-3.467838e+01
6.853587e+02	-3.472321e+01
6.893173e+02	-3.478596e+01
6.932988e+02	-3.483343e+01
6.973033e+02	-3.487412e+01
7.013309e+02	-3.493439e+01
