Frequency(Hz)	Magnitude(dB)
1.000000e+01	-2.253842e+00
1.005776e+01	-2.273936e+00
1.011585e+01	-2.294621e+00
1.017428e+01	-2.315128e+00
1.023305e+01	-2.335955e+00
1.029215e+01	-2.356667e+00
1.035160e+01	-2.377736e+00
1.041139e+01	-2.398968e+00
1.047153e+01	-2.420258e+00
1.053201e+01	-2.441629e+00
1.059284e+01	-2.463185e+00
1.065403e+01	-2.484943e+00
1.071556e+01	-2.506915e+00
1.077746e+01	-2.528880e+00
1.083971e+01	-2.551023e+00
1.090232e+01	-2.573441e+00
1.096529e+01	-2.595813e+00
1.102862e+01	-2.618630e+00
1.109232e+01	-2.640996e+00
1.115639e+01	-2.663759e+00
1.122083e+01	-2.686964e+00
1.128564e+01	-2.710137e+00
1.135083e+01	-2.733249e+00
1.141639e+01	-2.756952e+00
1.148233e+01	-2.780278e+00
1.154865e+01	-2.803969e+00
1.161536e+01	-2.828018e+00
1.168245e+01	-2.852060e+00
1.174992e+01	-2.876054e+00
1.181779e+01	-2.900548e+00
1.188605e+01	-2.925104e+00
1.195470e+01	-2.949413e+00
1.202375e+01	-2.974189e+00
1.209320e+01	-2.999052e+00
1.216305e+01	-3.024199e+00
1.223330e+01	-3.049185e+00
1.230396e+01	-3.074871e+00
1.237503e+01	-3.100055e+00
1.244651e+01	-3.125695e+00
1.251840e+01	-3.151542e+00
1.259070e+01	-3.177321e+00
1.266343e+01	-3.202968e+00
1.273657e+01	-3.229512e+00
1.281014e+01	-3.255901e+00
1.288413e+01	-3.282208e+00
1.295855e+01	-3.309020e+00
1.303339e+01	-3.335846e+00
1.310867e+01	-3.362513e+00
1.318439e+01	-3.389454e+00
1.326054e+01	-3.417050e+00
1.333713e+01	-3.444116e+00
1.341417e+01	-3.471399e+00
1.349165e+01	-3.499170e+00
1.356958e+01	-3.526993e+00
1.364795e+01	-3.554837e+00
1.372678e+01	-3.582742e+00
1.380607e+01	-3.610889e+00
1.388581e+01	-3.639427e+00
1.396602e+01	-3.667462e+00
1.404668e+01	-3.696523e+00
1.412782e+01	-3.725161e+00
1.420942e+01	-3.754022e+00
1.429149e+01	-3.782821e+00
1.437404e+01	-3.812282e+00
1.445706e+01	-3.841597e+00
1.454057e+01	-3.870936e+00
1.462455e+01	-3.900671e+00
1.470902e+01	-3.930148e+00
1.479398e+01	-3.959850e+00
1.487943e+01	-3.990125e+00
1.496537e+01	-4.020316e+00
1.505181e+01	-4.050359e+00
1.513875e+01	-4.080884e+00
1.522619e+01	-4.111484e+00
1.531414e+01	-4.142211e+00
1.540259e+01	-4.173179e+00
1.549156e+01	-4.204048e+00
1.558103e+01	-4.234865e+00
1.567103e+01	-4.266512e+00
1.576155e+01	-4.297356e+00
1.585258e+01	-4.328919e+00
1.594415e+01	-4.360605e+00
1.603624e+01	-4.392190e+00
1.612886e+01	-4.424340e+00
1.622202e+01	-4.456200e+00
1.631572e+01	-4.488145e+00
1.640996e+01	-4.520935e+00
1.650474e+01	-4.553228e+00
1.660008e+01	-4.585720e+00
1.669596e+01	-4.618591e+00
1.679239e+01	-4.651431e+00
1.688938e+01	-4.684253e+00
1.698694e+01	-4.717207e+00
1.708505e+01	-4.750677e+00
1.718373e+01	-4.783761e+00
1.728299e+01	-4.817416e+00
1.738281e+01	-4.850818e+00
1.748322e+01	-4.884544e+00
1.758420e+01	-4.918573e+00
1.768576e+01	-4.952737e+00
1.778792e+01	-4.986609e+00
1.789066e+01	-5.020634e+00
1.799399e+01	-5.055080e+00
1.809793e+01	-5.089543e+00
1.820246e+01	-5.123975e+00
1.830760e+01	-5.159020e+00
1.841334e+01	-5.193635e+00
1.851969e+01	-5.228736e+00
1.862666e+01	-5.263789e+00
1.873425e+01	-5.298946e+00
1.884246e+01	-5.334331e+00
1.895129e+01	-5.369672e+00
1.906075e+01	-5.405129e+00
1.917085e+01	-5.440829e+00
1.928158e+01	-5.476621e+00
1.939295e+01	-5.512708e+00
1.950496e+01	-5.548531e+00
1.961762e+01	-5.584864e+00
1.973093e+01	-5.621016e+00
1.984490e+01	-5.657489e+00
1.995952e+01	-5.693479e+00
2.007480e+01	-5.730420e+00
2.019076e+01	-5.767196e+00
2.030738e+01	-5.804112e+00
2.042467e+01	-5.840772e+00
2.054264e+01	-5.878235e+00
2.066130e+01	-5.915097e+00
2.078064e+01	-5.952130e+00
2.090066e+01	-5.989831e+00
2.102139e+01	-6.027004e+00
2.114280e+01	-6.065292e+00
2.126492e+01	-6.102406e+00
2.138775e+01	-6.140784e+00
2.151128e+01	-6.178368e+00
2.163553e+01	-6.216175e+00
2.176050e+01	-6.254356e+00
2.188619e+01	-6.292745e+00
2.201260e+01	-6.331092e+00
2.213974e+01	-6.369254e+00
2.226762e+01	-6.407921e+00
2.239624e+01	-6.446510e+00
2.252560e+01	-6.485575e+00
2.265571e+01	-6.524059e+00
2.278656e+01	-6.563136e+00
2.291818e+01	-6.602186e+00
2.305055e+01	-6.640936e+00
2.318369e+01	-6.680358e+00
2.331760e+01	-6.719834e+00
2.345228e+01	-6.759195e+00
2.358774e+01	-6.798994e+00
2.372398e+01	-6.838256e+00
2.386101e+01	-6.878322e+00
2.399883e+01	-6.917885e+00
2.413745e+01	-6.958505e+00
2.427686e+01	-6.998132e+00
2.441709e+01	-7.037860e+00
2.455812e+01	-7.078033e+00
2.469997e+01	-7.118340e+00
2.484263e+01	-7.158713e+00
2.498612e+01	-7.199199e+00
2.513044e+01	-7.239694e+00
2.527559e+01	-7.280533e+00
2.542158e+01	-7.320911e+00
2.556842e+01	-7.361722e+00
2.571610e+01	-7.402854e+00
2.586463e+01	-7.444050e+00
2.601403e+01	-7.484607e+00
2.616428e+01	-7.526237e+00
2.631541e+01	-7.567010e+00
2.646740e+01	-7.608167e+00
2.662028e+01	-7.649442e+00
2.677404e+01	-7.691149e+00
2.692868e+01	-7.733259e+00
2.708422e+01	-7.774322e+00
2.724066e+01	-7.816254e+00
2.739800e+01	-7.857788e+00
2.755625e+01	-7.899718e+00
2.771541e+01	-7.941879e+00
2.787550e+01	-7.984107e+00
2.803650e+01	-8.025858e+00
2.819844e+01	-8.068312e+00
2.836131e+01	-8.110374e+00
2.852513e+01	-8.153224e+00
2.868989e+01	-8.195059e+00
2.885560e+01	-8.237640e+00
2.902227e+01	-8.280357e+00
2.918990e+01	-8.323191e+00
2.935850e+01	-8.365568e+00
2.952807e+01	-8.407850e+00
2.969863e+01	-8.451344e+00
2.987016e+01	-8.494613e+00
3.004269e+01	-8.537104e+00
3.021622e+01	-8.579977e+00
3.039075e+01	-8.623143e+00
3.056628e+01	-8.666605e+00
3.074283e+01	-8.709120e+00
3.092040e+01	-8.753547e+00
3.109900e+01	-8.796212e+00
3.127862e+01	-8.839800e+00
3.145929e+01	-8.883229e+00
3.164099e+01	-8.926691e+00
3.182375e+01	-8.970563e+00
3.200756e+01	-9.014061e+00
3.219244e+01	-9.058008e+00
3.237838e+01	-9.101627e+00
3.256540e+01	-9.145664e+00
3.275349e+01	-9.190196e+00
3.294268e+01	-9.233694e+00
3.313295e+01	-9.278044e+00
3.332433e+01	-9.321943e+00
3.351681e+01	-9.366405e+00
3.371040e+01	-9.410400e+00
3.390511e+01	-9.455211e+00
3.410094e+01	-9.499612e+00
3.429791e+01	-9.544109e+00
3.449601e+01	-9.588096e+00
3.469526e+01	-9.633030e+00
3.489566e+01	-9.677417e+00
3.509721e+01	-9.721828e+00
3.529993e+01	-9.766308e+00
3.550382e+01	-9.811487e+00
3.570889e+01	-9.856860e+00
3.591515e+01	-9.901381e+00
3.612259e+01	-9.945788e+00
3.633123e+01	-9.990941e+00
3.654108e+01	-1.003609e+01
3.675214e+01	-1.008118e+01
3.696442e+01	-1.012687e+01
3.717792e+01	-1.017190e+01
3.739266e+01	-1.021744e+01
3.760864e+01	-1.026170e+01
3.782587e+01	-1.030714e+01
3.804435e+01	-1.035325e+01
3.826409e+01	-1.039814e+01
3.848510e+01	-1.044349e+01
3.870739e+01	-1.048903e+01
3.893096e+01	-1.053482e+01
3.915583e+01	-1.058060e+01
3.938199e+01	-1.062564e+01
3.960946e+01	-1.067184e+01
3.983824e+01	-1.071835e+01
4.006834e+01	-1.076357e+01
4.029978e+01	-1.080931e+01
4.053255e+01	-1.085583e+01
4.076666e+01	-1.090093e+01
4.100213e+01	-1.094688e+01
4.123896e+01	-1.099302e+01
4.147715e+01	-1.103923e+01
4.171672e+01	-1.108505e+01
4.195767e+01	-1.113136e+01
4.220002e+01	-1.117781e+01
4.244377e+01	-1.122364e+01
4.268892e+01	-1.126997e+01
4.293549e+01	-1.131640e+01
4.318348e+01	-1.136300e+01
4.343291e+01	-1.140881e+01
4.368377e+01	-1.145565e+01
4.393609e+01	-1.150258e+01
4.418986e+01	-1.154874e+01
4.444510e+01	-1.159520e+01
4.470182e+01	-1.164150e+01
4.496001e+01	-1.168814e+01
4.521970e+01	-1.173534e+01
4.548089e+01	-1.178206e+01
4.574358e+01	-1.182845e+01
4.600779e+01	-1.187556e+01
4.627353e+01	-1.192246e+01
4.654081e+01	-1.196849e+01
4.680963e+01	-1.201587e+01
4.708000e+01	-1.206195e+01
4.735193e+01	-1.211005e+01
4.762543e+01	-1.215604e+01
4.790051e+01	-1.220292e+01
4.817719e+01	-1.225088e+01
4.845545e+01	-1.229704e+01
4.873533e+01	-1.234493e+01
4.901682e+01	-1.239225e+01
4.929994e+01	-1.243951e+01
4.958470e+01	-1.248608e+01
4.987110e+01	-1.253361e+01
5.015915e+01	-1.258111e+01
5.044887e+01	-1.262745e+01
5.074026e+01	-1.267522e+01
5.103333e+01	-1.272243e+01
5.132810e+01	-1.276996e+01
5.162457e+01	-1.281744e+01
5.192275e+01	-1.286533e+01
5.222265e+01	-1.291266e+01
5.252429e+01	-1.295972e+01
5.282767e+01	-1.300720e+01
5.313280e+01	-1.305493e+01
5.343969e+01	-1.310210e+01
5.374836e+01	-1.314940e+01
5.405880e+01	-1.319662e+01
5.437105e+01	-1.324515e+01
5.468509e+01	-1.329276e+01
5.500095e+01	-1.334050e+01
5.531863e+01	-1.338900e+01
5.563815e+01	-1.343590e+01
5.595951e+01	-1.348378e+01
5.628273e+01	-1.353146e+01
5.660782e+01	-1.357937e+01
5.693479e+01	-1.362751e+01
5.726364e+01	-1.367524e+01
5.759439e+01	-1.372280e+01
5.792705e+01	-1.377056e+01
5.826164e+01	-1.381895e+01
5.859815e+01	-1.386635e+01
5.893662e+01	-1.391487e+01
5.927703e+01	-1.396264e+01
5.961941e+01	-1.401090e+01
5.996377e+01	-1.405882e+01
6.031012e+01	-1.410590e+01
6.065847e+01	-1.415457e+01
6.100883e+01	-1.420334e+01
6.136121e+01	-1.425197e+01
6.171563e+01	-1.429995e+01
6.207210e+01	-1.434752e+01
6.243063e+01	-1.439523e+01
6.279122e+01	-1.444486e+01
6.315390e+01	-1.449261e+01
6.351868e+01	-1.454045e+01
6.388556e+01	-1.458871e+01
6.425456e+01	-1.463733e+01
6.462569e+01	-1.468574e+01
6.499897e+01	-1.473440e+01
6.537440e+01	-1.478326e+01
6.575200e+01	-1.482982e+01
6.613178e+01	-1.487904e+01
6.651375e+01	-1.492749e+01
6.689793e+01	-1.497555e+01
6.728433e+01	-1.502411e+01
6.767297e+01	-1.507370e+01
6.806384e+01	-1.512131e+01
6.845698e+01	-1.516961e+01
6.885238e+01	-1.521885e+01
6.925007e+01	-1.526581e+01
6.965005e+01	-1.531535e+01
7.005235e+01	-1.536317e+01
7.045697e+01	-1.541227e+01
7.086393e+01	-1.546224e+01
7.127323e+01	-1.550966e+01
7.168490e+01	-1.555820e+01
7.209895e+01	-1.560730e+01
7.251539e+01	-1.565572e+01
7.293424e+01	-1.570415e+01
7.335551e+01	-1.575323e+01
7.377920e+01	-1.580110e+01
7.420535e+01	-1.585041e+01
7.463396e+01	-1.589910e+01
7.506504e+01	-1.594717e+01
7.549861e+01	-1.599667e+01
7.593469e+01	-1.604510e+01
7.637328e+01	-1.609466e+01
7.681441e+01	-1.614329e+01
7.725809e+01	-1.619215e+01
7.770433e+01	-1.624021e+01
7.815315e+01	-1.628973e+01
7.860456e+01	-1.633771e+01
7.905857e+01	-1.638722e+01
7.951521e+01	-1.643628e+01
7.997449e+01	-1.648493e+01
8.043642e+01	-1.653412e+01
8.090102e+01	-1.658195e+01
8.136830e+01	-1.662987e+01
8.183828e+01	-1.668070e+01
8.231097e+01	-1.672982e+01
8.278640e+01	-1.677889e+01
8.326457e+01	-1.682743e+01
8.374550e+01	-1.687630e+01
8.422921e+01	-1.692642e+01
8.471572e+01	-1.697420e+01
8.520503e+01	-1.702382e+01
8.569717e+01	-1.707363e+01
8.619215e+01	-1.712264e+01
8.669000e+01	-1.717119e+01
8.719071e+01	-1.721958e+01
8.769432e+01	-1.726880e+01
8.820084e+01	-1.731859e+01
8.871029e+01	-1.736777e+01
8.922267e+01	-1.741729e+01
8.973802e+01	-1.746580e+01
9.025634e+01	-1.751513e+01
9.077766e+01	-1.756414e+01
9.130199e+01	-1.761366e+01
9.182935e+01	-1.766264e+01
9.235975e+01	-1.771125e+01
9.289321e+01	-1.775962e+01
9.342976e+01	-1.781010e+01
9.396941e+01	-1.785915e+01
9.451217e+01	-1.790820e+01
9.505807e+01	-1.795600e+01
9.560712e+01	-1.800543e+01
9.615934e+01	-1.805633e+01
9.671476e+01	-1.810620e+01
9.727338e+01	-1.815468e+01
9.783522e+01	-1.820310e+01
9.840032e+01	-1.825267e+01
9.896867e+01	-1.830249e+01
9.954031e+01	-1.835149e+01
1.001153e+02	-1.840138e+01
1.006935e+02	-1.845012e+01
1.012751e+02	-1.849925e+01
1.018601e+02	-1.854926e+01
1.024484e+02	-1.859775e+01
1.030402e+02	-1.864851e+01
1.036353e+02	-1.869732e+01
1.042339e+02	-1.874680e+01
1.048360e+02	-1.879403e+01
1.054415e+02	-1.884509e+01
1.060505e+02	-1.889506e+01
1.066631e+02	-1.894394e+01
1.072791e+02	-1.899214e+01
1.078988e+02	-1.904133e+01
1.085220e+02	-1.909219e+01
1.091488e+02	-1.914245e+01
1.097793e+02	-1.919003e+01
1.104133e+02	-1.923905e+01
1.110511e+02	-1.929005e+01
1.116925e+02	-1.933930e+01
1.123376e+02	-1.938997e+01
1.129865e+02	-1.943825e+01
1.136391e+02	-1.948713e+01
1.142955e+02	-1.953648e+01
1.149556e+02	-1.958728e+01
1.156196e+02	-1.963525e+01
1.162874e+02	-1.968408e+01
1.169591e+02	-1.973367e+01
1.176347e+02	-1.978355e+01
1.183141e+02	-1.983359e+01
1.189975e+02	-1.988336e+01
1.196848e+02	-1.993076e+01
1.203761e+02	-1.998160e+01
1.210714e+02	-2.003110e+01
1.217707e+02	-2.008211e+01
1.224740e+02	-2.013137e+01
1.231814e+02	-2.018022e+01
1.238929e+02	-2.022983e+01
1.246085e+02	-2.027823e+01
1.253283e+02	-2.032904e+01
1.260522e+02	-2.037838e+01
1.267802e+02	-2.042823e+01
1.275125e+02	-2.047846e+01
1.282490e+02	-2.052793e+01
1.289898e+02	-2.057740e+01
1.297348e+02	-2.062767e+01
1.304842e+02	-2.067711e+01
1.312378e+02	-2.072434e+01
1.319959e+02	-2.077525e+01
1.327583e+02	-2.082630e+01
1.335251e+02	-2.087554e+01
1.342963e+02	-2.092536e+01
1.350720e+02	-2.097353e+01
1.358522e+02	-2.102413e+01
1.366368e+02	-2.107405e+01
1.374260e+02	-2.112174e+01
1.382198e+02	-2.117260e+01
1.390182e+02	-2.122362e+01
1.398211e+02	-2.127127e+01
1.406287e+02	-2.131962e+01
1.414410e+02	-2.137348e+01
1.422579e+02	-2.142192e+01
1.430796e+02	-2.147136e+01
1.439060e+02	-2.151995e+01
1.447372e+02	-2.156905e+01
1.455732e+02	-2.162026e+01
1.464141e+02	-2.166786e+01
1.472597e+02	-2.171843e+01
1.481103e+02	-2.176732e+01
1.489658e+02	-2.181829e+01
1.498262e+02	-2.186711e+01
1.506916e+02	-2.191927e+01
1.515620e+02	-2.196790e+01
1.524374e+02	-2.201608e+01
1.533179e+02	-2.206632e+01
1.542034e+02	-2.211784e+01
1.550941e+02	-2.216911e+01
1.559899e+02	-2.221674e+01
1.568909e+02	-2.226503e+01
1.577971e+02	-2.231559e+01
1.587085e+02	-2.236764e+01
1.596252e+02	-2.241468e+01
1.605472e+02	-2.246514e+01
1.614745e+02	-2.251546e+01
1.624072e+02	-2.256592e+01
1.633453e+02	-2.261581e+01
1.642887e+02	-2.266263e+01
1.652377e+02	-2.271585e+01
1.661921e+02	-2.276438e+01
1.671520e+02	-2.281516e+01
1.681175e+02	-2.286505e+01
1.690885e+02	-2.291610e+01
1.700651e+02	-2.296409e+01
1.710474e+02	-2.301310e+01
1.720354e+02	-2.306386e+01
1.730291e+02	-2.311406e+01
1.740285e+02	-2.316351e+01
1.750337e+02	-2.321209e+01
1.760446e+02	-2.326095e+01
1.770615e+02	-2.331179e+01
1.780842e+02	-2.336386e+01
1.791128e+02	-2.340956e+01
1.801473e+02	-2.346137e+01
1.811878e+02	-2.351196e+01
1.822344e+02	-2.356033e+01
1.832870e+02	-2.361147e+01
1.843456e+02	-2.366143e+01
1.854104e+02	-2.371063e+01
1.864813e+02	-2.375924e+01
1.875584e+02	-2.381205e+01
1.886418e+02	-2.385838e+01
1.897313e+02	-2.391084e+01
1.908272e+02	-2.395902e+01
1.919294e+02	-2.401091e+01
1.930380e+02	-2.406053e+01
1.941530e+02	-2.410981e+01
1.952744e+02	-2.415797e+01
1.964023e+02	-2.420833e+01
1.975367e+02	-2.426042e+01
1.986777e+02	-2.430731e+01
1.998252e+02	-2.435832e+01
2.009794e+02	-2.440809e+01
2.021403e+02	-2.445908e+01
2.033078e+02	-2.450926e+01
2.044821e+02	-2.456125e+01
2.056632e+02	-2.460819e+01
2.068511e+02	-2.465952e+01
2.080459e+02	-2.470819e+01
2.092475e+02	-2.475799e+01
2.104561e+02	-2.481015e+01
2.116717e+02	-2.485824e+01
2.128943e+02	-2.490510e+01
2.141240e+02	-2.495865e+01
2.153608e+02	-2.500555e+01
2.166047e+02	-2.505510e+01
2.178558e+02	-2.510909e+01
2.191141e+02	-2.515469e+01
2.203797e+02	-2.520702e+01
2.216526e+02	-2.525635e+01
2.229329e+02	-2.530736e+01
2.242205e+02	-2.535510e+01
2.255156e+02	-2.540669e+01
2.268182e+02	-2.545542e+01
2.281283e+02	-2.550744e+01
2.294459e+02	-2.555799e+01
2.307712e+02	-2.560467e+01
2.321041e+02	-2.565856e+01
2.334447e+02	-2.570676e+01
2.347931e+02	-2.575475e+01
2.361493e+02	-2.580620e+01
2.375133e+02	-2.585604e+01
2.388851e+02	-2.590534e+01
2.402649e+02	-2.595679e+01
2.416527e+02	-2.600385e+01
2.430484e+02	-2.605350e+01
2.444523e+02	-2.610259e+01
2.458642e+02	-2.615734e+01
2.472843e+02	-2.620629e+01
2.487126e+02	-2.625531e+01
2.501492e+02	-2.630651e+01
2.515940e+02	-2.635326e+01
2.530472e+02	-2.640656e+01
2.545088e+02	-2.645279e+01
2.559789e+02	-2.650317e+01
2.574574e+02	-2.655835e+01
2.589444e+02	-2.660541e+01
2.604401e+02	-2.665807e+01
2.619444e+02	-2.670309e+01
2.634574e+02	-2.675585e+01
2.649791e+02	-2.680547e+01
2.665096e+02	-2.685343e+01
2.680489e+02	-2.690439e+01
2.695972e+02	-2.695582e+01
2.711544e+02	-2.700263e+01
2.727205e+02	-2.705534e+01
2.742958e+02	-2.710339e+01
2.758801e+02	-2.715510e+01
2.774736e+02	-2.720122e+01
2.790762e+02	-2.725329e+01
2.806882e+02	-2.730821e+01
2.823094e+02	-2.735381e+01
2.839400e+02	-2.740511e+01
2.855800e+02	-2.745641e+01
2.872295e+02	-2.750662e+01
2.888886e+02	-2.755704e+01
2.905572e+02	-2.760625e+01
2.922354e+02	-2.765249e+01
2.939234e+02	-2.770175e+01
2.956211e+02	-2.775325e+01
2.973286e+02	-2.780164e+01
2.990459e+02	-2.785616e+01
3.007732e+02	-2.790483e+01
3.025104e+02	-2.795769e+01
3.042577e+02	-2.800427e+01
3.060151e+02	-2.805486e+01
3.077826e+02	-2.810660e+01
3.095604e+02	-2.815676e+01
3.113484e+02	-2.820680e+01
3.131467e+02	-2.825489e+01
3.149554e+02	-2.830550e+01
3.167746e+02	-2.835404e+01
3.186043e+02	-2.840564e+01
3.204445e+02	-2.845709e+01
3.222954e+02	-2.850785e+01
3.241570e+02	-2.855352e+01
3.260293e+02	-2.860201e+01
3.279124e+02	-2.865424e+01
3.298064e+02	-2.871098e+01
3.317114e+02	-2.875033e+01
3.336273e+02	-2.880503e+01
3.355544e+02	-2.885615e+01
3.374925e+02	-2.890696e+01
3.394418e+02	-2.895407e+01
3.414024e+02	-2.900760e+01
3.433744e+02	-2.905219e+01
3.453577e+02	-2.910415e+01
3.473525e+02	-2.915731e+01
3.493588e+02	-2.920652e+01
3.513766e+02	-2.925273e+01
3.534062e+02	-2.930567e+01
3.554474e+02	-2.935683e+01
3.575005e+02	-2.940615e+01
3.595654e+02	-2.945628e+01
3.616422e+02	-2.950447e+01
3.637311e+02	-2.955547e+01
3.658320e+02	-2.960326e+01
3.679450e+02	-2.965742e+01
3.700702e+02	-2.970464e+01
3.722077e+02	-2.975466e+01
3.743576e+02	-2.980445e+01
3.765199e+02	-2.985782e+01
3.786946e+02	-2.990461e+01
3.808820e+02	-2.995965e+01
3.830819e+02	-3.000492e+01
3.852946e+02	-3.005641e+01
3.875200e+02	-3.010982e+01
3.897583e+02	-3.015628e+01
3.920096e+02	-3.020490e+01
3.942738e+02	-3.025681e+01
3.965511e+02	-3.030793e+01
3.988416e+02	-3.036253e+01
4.011452e+02	-3.041068e+01
4.034622e+02	-3.046074e+01
4.057926e+02	-3.050784e+01
4.081365e+02	-3.055796e+01
4.104938e+02	-3.060505e+01
4.128648e+02	-3.065614e+01
4.152495e+02	-3.071066e+01
4.176480e+02	-3.076090e+01
4.200603e+02	-3.081242e+01
4.224866e+02	-3.085690e+01
4.249268e+02	-3.091257e+01
4.273812e+02	-3.095846e+01
4.298497e+02	-3.100876e+01
4.323325e+02	-3.106214e+01
4.348297e+02	-3.111023e+01
4.373412e+02	-3.115704e+01
4.398673e+02	-3.121359e+01
4.424079e+02	-3.125886e+01
4.449633e+02	-3.130937e+01
4.475334e+02	-3.135914e+01
4.501183e+02	-3.141061e+01
4.527182e+02	-3.146337e+01
4.553330e+02	-3.151191e+01
4.579630e+02	-3.156111e+01
4.606082e+02	-3.161000e+01
4.632687e+02	-3.165934e+01
4.659445e+02	-3.171463e+01
4.686358e+02	-3.175892e+01
4.713426e+02	-3.180621e+01
4.740650e+02	-3.185848e+01
4.768032e+02	-3.190677e+01
4.795572e+02	-3.195902e+01
4.823271e+02	-3.200966e+01
4.851130e+02	-3.206277e+01
4.879150e+02	-3.211733e+01
4.907332e+02	-3.216800e+01
4.935676e+02	-3.221312e+01
4.964185e+02	-3.226902e+01
4.992858e+02	-3.231767e+01
5.021696e+02	-3.236245e+01
5.050701e+02	-3.241441e+01
5.079874e+02	-3.247011e+01
5.109215e+02	-3.251544e+01
5.138726e+02	-3.256545e+01
5.168407e+02	-3.261617e+01
5.198259e+02	-3.266473e+01
5.228284e+02	-3.271337e+01
5.258482e+02	-3.276197e+01
5.288855e+02	-3.281633e+01
5.319403e+02	-3.286786e+01
5.350128e+02	-3.291131e+01
5.381030e+02	-3.296592e+01
5.412111e+02	-3.301355e+01
5.443371e+02	-3.305938e+01
5.474812e+02	-3.311490e+01
5.506434e+02	-3.317522e+01
5.538239e+02	-3.321638e+01
5.570228e+02	-3.327010e+01
5.602401e+02	-3.332213e+01
5.634760e+02	-3.337508e+01
5.667306e+02	-3.342220e+01
5.700040e+02	-3.346776e+01
5.732964e+02	-3.351980e+01
5.766077e+02	-3.356623e+01
5.799382e+02	-3.362039e+01
5.832879e+02	-3.366557e+01
5.866569e+02	-3.371955e+01
5.900454e+02	-3.377627e+01
5.934535e+02	-3.382083e+01
5.968813e+02	-3.387198e+01
6.003288e+02	-3.392540e+01
6.037963e+02	-3.396477e+01
6.072838e+02	-3.402273e+01
6.107914e+02	-3.407598e+01
6.143194e+02	-3.411789e+01
6.178676e+02	-3.417790e+01
6.214364e+02	-3.422874e+01
6.250258e+02	-3.427402e+01
6.286359e+02	-3.433020e+01
6.322669e+02	-3.436698e+01
6.359189e+02	-3.442204e+01
6.395919e+02	-3.447154e+01
6.432862e+02	-3.452462e+01
6.470017e+02	-3.457752e+01
6.507388e+02	-3.462633e+01
6.544974e+02	-3.467598e+01
6.582778e+02	-3.472295e+01
6.620800e+02	-3.478046e+01
6.659041e+02	-3.483166e+01
6.697504e+02	-3.488114e+01
6.736188e+02	-3.492724e+01
6.775096e+02	-3.498745e+01
6.814229e+02	-3.502657e+01
6.853587e+02	-3.507468e+01
6.893173e+02	-3.513093e+01
6.932988e+02	-3.517697e+01
6.973033e+02	-3.523036e+01
7.013309e+02	-3.527817e+01
