Frequency(Hz)	Magnitude(dB)
1.000000e+01	-2.017916e+00
1.005776e+01	-2.036566e+00
1.011585e+01	-2.055399e+00
1.017428e+01	-2.074448e+00
1.023305e+01	-2.093112e+00
1.029215e+01	-2.112384e+00
1.035160e+01	-2.131836e+00
1.041139e+01	-2.151239e+00
1.047153e+01	-2.171043e+00
1.053201e+01	-2.190529e+00
1.059284e+01	-2.210323e+00
1.065403e+01	-2.230672e+00
1.071556e+01	-2.250564e+00
1.077746e+01	-2.271193e+00
1.083971e+01	-2.291431e+00
1.090232e+01	-2.312011e+00
1.096529e+01	-2.332724e+00
1.102862e+01	-2.353546e+00
1.109232e+01	-2.374597e+00
1.115639e+01	-2.395545e+00
1.122083e+01	-2.417052e+00
1.128564e+01	-2.438367e+00
1.135083e+01	-2.460088e+00
1.141639e+01	-2.481533e+00
1.148233e+01	-2.503651e+00
1.154865e+01	-2.525611e+00
1.161536e+01	-2.547839e+00
1.168245e+01	-2.569989e+00
1.174992e+01	-2.592302e+00
1.181779e+01	-2.615067e+00
1.188605e+01	-2.637485e+00
1.195470e+01	-2.660545e+00
1.202375e+01	-2.683332e+00
1.209320e+01	-2.706565e+00
1.216305e+01	-2.729718e+00
1.223330e+01	-2.753239e+00
1.230396e+01	-2.776884e+00
1.237503e+01	-2.800791e+00
1.244651e+01	-2.824442e+00
1.251840e+01	-2.848408e+00
1.259070e+01	-2.872333e+00
1.266343e+01	-2.896879e+00
1.273657e+01	-2.921035e+00
1.281014e+01	-2.945582e+00
1.288413e+01	-2.970282e+00
1.295855e+01	-2.995312e+00
1.303339e+01	-3.020297e+00
1.310867e+01	-3.045412e+00
1.318439e+01	-3.070967e+00
1.326054e+01	-3.095898e+00
1.333713e+01	-3.121920e+00
1.341417e+01	-3.147380e+00
1.349165e+01	-3.173276e+00
1.356958e+01	-3.199265e+00
1.364795e+01	-3.225331e+00
1.372678e+01	-3.251605e+00
1.380607e+01	-3.278225e+00
1.388581e+01	-3.304711e+00
1.396602e+01	-3.331571e+00
1.404668e+01	-3.358268e+00
1.412782e+01	-3.385545e+00
1.420942e+01	-3.412590e+00
1.429149e+01	-3.439661e+00
1.437404e+01	-3.467219e+00
1.445706e+01	-3.494822e+00
1.454057e+01	-3.522442e+00
1.462455e+01	-3.550564e+00
1.470902e+01	-3.578733e+00
1.479398e+01	-3.606741e+00
1.487943e+01	-3.634782e+00
1.496537e+01	-3.663212e+00
1.505181e+01	-3.691885e+00
1.513875e+01	-3.720603e+00
1.522619e+01	-3.749402e+00
1.531414e+01	-3.778424e+00
1.540259e+01	-3.807789e+00
1.549156e+01	-3.836671e+00
1.558103e+01	-3.866282e+00
1.567103e+01	-3.895810e+00
1.576155e+01	-3.925700e+00
1.585258e+01	-3.955568e+00
1.594415e+01	-3.985300e+00
1.603624e+01	-4.015509e+00
1.612886e+01	-4.045881e+00
1.622202e+01	-4.076087e+00
1.631572e+01	-4.106557e+00
1.640996e+01	-4.137177e+00
1.650474e+01	-4.168005e+00
1.660008e+01	-4.198878e+00
1.669596e+01	-4.230211e+00
1.679239e+01	-4.261382e+00
1.688938e+01	-4.292532e+00
1.698694e+01	-4.323996e+00
1.708505e+01	-4.355479e+00
1.718373e+01	-4.387673e+00
1.728299e+01	-4.419435e+00
1.738281e+01	-4.451296e+00
1.748322e+01	-4.483583e+00
1.758420e+01	-4.515808e+00
1.768576e+01	-4.548037e+00
1.778792e+01	-4.580670e+00
1.789066e+01	-4.613395e+00
1.799399e+01	-4.645980e+00
1.809793e+01	-4.678730e+00
1.820246e+01	-4.712131e+00
1.830760e+01	-4.745230e+00
1.841334e+01	-4.778757e+00
1.851969e+01	-4.812155e+00
1.862666e+01	-4.845576e+00
1.873425e+01	-4.879640e+00
1.884246e+01	-4.913202e+00
1.895129e+01	-4.947425e+00
1.906075e+01	-4.981040e+00
1.917085e+01	-5.015413e+00
1.928158e+01	-5.049553e+00
1.939295e+01	-5.084288e+00
1.950496e+01	-5.118673e+00
1.961762e+01	-5.153422e+00
1.973093e+01	-5.188304e+00
1.984490e+01	-5.223355e+00
1.995952e+01	-5.258278e+00
2.007480e+01	-5.293525e+00
2.019076e+01	-5.328751e+00
2.030738e+01	-5.364177e+00
2.042467e+01	-5.399379e+00
2.054264e+01	-5.435455e+00
2.066130e+01	-5.471373e+00
2.078064e+01	-5.507391e+00
2.090066e+01	-5.543031e+00
2.102139e+01	-5.579272e+00
2.114280e+01	-5.615118e+00
2.126492e+01	-5.651857e+00
2.138775e+01	-5.688403e+00
2.151128e+01	-5.724984e+00
2.163553e+01	-5.761612e+00
2.176050e+01	-5.798344e+00
2.188619e+01	-5.834939e+00
2.201260e+01	-5.872247e+00
2.213974e+01	-5.909170e+00
2.226762e+01	-5.946602e+00
2.239624e+01	-5.983976e+00
2.252560e+01	-6.021626e+00
2.265571e+01	-6.058688e+00
2.278656e+01	-6.096658e+00
2.291818e+01	-6.134515e+00
2.305055e+01	-6.172235e+00
2.318369e+01	-6.210558e+00
2.331760e+01	-6.248699e+00
2.345228e+01	-6.286696e+00
2.358774e+01	-6.324972e+00
2.372398e+01	-6.363621e+00
2.386101e+01	-6.401868e+00
2.399883e+01	-6.439965e+00
2.413745e+01	-6.478788e+00
2.427686e+01	-6.517890e+00
2.441709e+01	-6.557118e+00
2.455812e+01	-6.595820e+00
2.469997e+01	-6.635230e+00
2.484263e+01	-6.674428e+00
2.498612e+01	-6.713849e+00
2.513044e+01	-6.753431e+00
2.527559e+01	-6.792952e+00
2.542158e+01	-6.832132e+00
2.556842e+01	-6.871936e+00
2.571610e+01	-6.911948e+00
2.586463e+01	-6.951436e+00
2.601403e+01	-6.991544e+00
2.616428e+01	-7.031952e+00
2.631541e+01	-7.072070e+00
2.646740e+01	-7.112265e+00
2.662028e+01	-7.152668e+00
2.677404e+01	-7.192446e+00
2.692868e+01	-7.233263e+00
2.708422e+01	-7.274175e+00
2.724066e+01	-7.314360e+00
2.739800e+01	-7.355587e+00
2.755625e+01	-7.396754e+00
2.771541e+01	-7.437549e+00
2.787550e+01	-7.478343e+00
2.803650e+01	-7.519886e+00
2.819844e+01	-7.560751e+00
2.836131e+01	-7.602183e+00
2.852513e+01	-7.643370e+00
2.868989e+01	-7.685240e+00
2.885560e+01	-7.726531e+00
2.902227e+01	-7.768159e+00
2.918990e+01	-7.809774e+00
2.935850e+01	-7.851830e+00
2.952807e+01	-7.893234e+00
2.969863e+01	-7.934916e+00
2.987016e+01	-7.977286e+00
3.004269e+01	-8.019618e+00
3.021622e+01	-8.061333e+00
3.039075e+01	-8.103967e+00
3.056628e+01	-8.146526e+00
3.074283e+01	-8.188779e+00
3.092040e+01	-8.230859e+00
3.109900e+01	-8.273392e+00
3.127862e+01	-8.316357e+00
3.145929e+01	-8.358709e+00
3.164099e+01	-8.401766e+00
3.182375e+01	-8.444828e+00
3.200756e+01	-8.487494e+00
3.219244e+01	-8.530272e+00
3.237838e+01	-8.573477e+00
3.256540e+01	-8.616122e+00
3.275349e+01	-8.659360e+00
3.294268e+01	-8.702825e+00
3.313295e+01	-8.746010e+00
3.332433e+01	-8.790079e+00
3.351681e+01	-8.832971e+00
3.371040e+01	-8.876818e+00
3.390511e+01	-8.920609e+00
3.410094e+01	-8.963579e+00
3.429791e+01	-9.007748e+00
3.449601e+01	-9.051276e+00
3.469526e+01	-9.095425e+00
3.489566e+01	-9.139316e+00
3.509721e+01	-9.182909e+00
3.529993e+01	-9.227266e+00
3.550382e+01	-9.271284e+00
3.570889e+01	-9.315390e+00
3.591515e+01	-9.359711e+00
3.612259e+01	-9.403672e+00
3.633123e+01	-9.448215e+00
3.654108e+01	-9.492547e+00
3.675214e+01	-9.536711e+00
3.696442e+01	-9.581372e+00
3.717792e+01	-9.625722e+00
3.739266e+01	-9.670537e+00
3.760864e+01	-9.715257e+00
3.782587e+01	-9.759631e+00
3.804435e+01	-9.804850e+00
3.826409e+01	-9.849419e+00
3.848510e+01	-9.894243e+00
3.870739e+01	-9.939386e+00
3.893096e+01	-9.984280e+00
3.915583e+01	-1.002954e+01
3.938199e+01	-1.007439e+01
3.960946e+01	-1.011935e+01
3.983824e+01	-1.016472e+01
4.006834e+01	-1.021001e+01
4.029978e+01	-1.025536e+01
4.053255e+01	-1.029982e+01
4.076666e+01	-1.034575e+01
4.100213e+01	-1.039173e+01
4.123896e+01	-1.043632e+01
4.147715e+01	-1.048192e+01
4.171672e+01	-1.052748e+01
4.195767e+01	-1.057321e+01
4.220002e+01	-1.061882e+01
4.244377e+01	-1.066467e+01
4.268892e+01	-1.071075e+01
4.293549e+01	-1.075638e+01
4.318348e+01	-1.080224e+01
4.343291e+01	-1.084793e+01
4.368377e+01	-1.089408e+01
4.393609e+01	-1.094018e+01
4.418986e+01	-1.098551e+01
4.444510e+01	-1.103221e+01
4.470182e+01	-1.107817e+01
4.496001e+01	-1.112485e+01
4.521970e+01	-1.117077e+01
4.548089e+01	-1.121683e+01
4.574358e+01	-1.126281e+01
4.600779e+01	-1.130926e+01
4.627353e+01	-1.135570e+01
4.654081e+01	-1.140267e+01
4.680963e+01	-1.144864e+01
4.708000e+01	-1.149503e+01
4.735193e+01	-1.154086e+01
4.762543e+01	-1.158813e+01
4.790051e+01	-1.163534e+01
4.817719e+01	-1.168106e+01
4.845545e+01	-1.172760e+01
4.873533e+01	-1.177430e+01
4.901682e+01	-1.182153e+01
4.929994e+01	-1.186830e+01
4.958470e+01	-1.191523e+01
4.987110e+01	-1.196161e+01
5.015915e+01	-1.200853e+01
5.044887e+01	-1.205601e+01
5.074026e+01	-1.210234e+01
5.103333e+01	-1.214989e+01
5.132810e+01	-1.219578e+01
5.162457e+01	-1.224323e+01
5.192275e+01	-1.228959e+01
5.222265e+01	-1.233752e+01
5.252429e+01	-1.238442e+01
5.282767e+01	-1.243199e+01
5.313280e+01	-1.247852e+01
5.343969e+01	-1.252597e+01
5.374836e+01	-1.257348e+01
5.405880e+01	-1.262092e+01
5.437105e+01	-1.266811e+01
5.468509e+01	-1.271485e+01
5.500095e+01	-1.276267e+01
5.531863e+01	-1.280957e+01
5.563815e+01	-1.285739e+01
5.595951e+01	-1.290531e+01
5.628273e+01	-1.295245e+01
5.660782e+01	-1.300010e+01
5.693479e+01	-1.304789e+01
5.726364e+01	-1.309503e+01
5.759439e+01	-1.314268e+01
5.792705e+01	-1.319001e+01
5.826164e+01	-1.323761e+01
5.859815e+01	-1.328579e+01
5.893662e+01	-1.333350e+01
5.927703e+01	-1.338037e+01
5.961941e+01	-1.342881e+01
5.996377e+01	-1.347606e+01
6.031012e+01	-1.352384e+01
6.065847e+01	-1.357214e+01
6.100883e+01	-1.361939e+01
6.136121e+01	-1.366797e+01
6.171563e+01	-1.371507e+01
6.207210e+01	-1.376354e+01
6.243063e+01	-1.381104e+01
6.279122e+01	-1.385928e+01
6.315390e+01	-1.390748e+01
6.351868e+01	-1.395556e+01
6.388556e+01	-1.400368e+01
6.425456e+01	-1.405143e+01
6.462569e+01	-1.410000e+01
6.499897e+01	-1.414729e+01
6.537440e+01	-1.419634e+01
6.575200e+01	-1.424290e+01
6.613178e+01	-1.429235e+01
6.651375e+01	-1.434003e+01
6.689793e+01	-1.438896e+01
6.728433e+01	-1.443689e+01
6.767297e+01	-1.448479e+01
6.806384e+01	-1.453279e+01
6.845698e+01	-1.458090e+01
6.885238e+01	-1.462965e+01
6.925007e+01	-1.467826e+01
6.965005e+01	-1.472639e+01
7.005235e+01	-1.477487e+01
7.045697e+01	-1.482247e+01
7.086393e+01	-1.487082e+01
7.127323e+01	-1.491963e+01
7.168490e+01	-1.496820e+01
7.209895e+01	-1.501653e+01
7.251539e+01	-1.506490e+01
7.293424e+01	-1.511340e+01
7.335551e+01	-1.516164e+01
7.377920e+01	-1.521073e+01
7.420535e+01	-1.525840e+01
7.463396e+01	-1.530739e+01
7.506504e+01	-1.535659e+01
7.549861e+01	-1.540522e+01
7.593469e+01	-1.545255e+01
7.637328e+01	-1.550183e+01
7.681441e+01	-1.555114e+01
7.725809e+01	-1.559892e+01
7.770433e+01	-1.564855e+01
7.815315e+01	-1.569648e+01
7.860456e+01	-1.574580e+01
7.905857e+01	-1.579264e+01
7.951521e+01	-1.584301e+01
7.997449e+01	-1.589178e+01
8.043642e+01	-1.593989e+01
8.090102e+01	-1.598841e+01
8.136830e+01	-1.603780e+01
8.183828e+01	-1.608667e+01
8.231097e+01	-1.613529e+01
8.278640e+01	-1.618505e+01
8.326457e+01	-1.623309e+01
8.374550e+01	-1.628270e+01
8.422921e+01	-1.633060e+01
8.471572e+01	-1.637925e+01
8.520503e+01	-1.642840e+01
8.569717e+01	-1.647727e+01
8.619215e+01	-1.652684e+01
8.669000e+01	-1.657540e+01
8.719071e+01	-1.662511e+01
8.769432e+01	-1.667211e+01
8.820084e+01	-1.672063e+01
8.871029e+01	-1.677030e+01
8.922267e+01	-1.682019e+01
8.973802e+01	-1.686925e+01
9.025634e+01	-1.691708e+01
9.077766e+01	-1.696742e+01
9.130199e+01	-1.701502e+01
9.182935e+01	-1.706430e+01
9.235975e+01	-1.711467e+01
9.289321e+01	-1.716331e+01
9.342976e+01	-1.721155e+01
9.396941e+01	-1.726129e+01
9.451217e+01	-1.731019e+01
9.505807e+01	-1.735905e+01
9.560712e+01	-1.740908e+01
9.615934e+01	-1.745827e+01
9.671476e+01	-1.750690e+01
9.727338e+01	-1.755632e+01
9.783522e+01	-1.760423e+01
9.840032e+01	-1.765541e+01
9.896867e+01	-1.770334e+01
9.954031e+01	-1.775295e+01
1.001153e+02	-1.780189e+01
1.006935e+02	-1.785192e+01
1.012751e+02	-1.790017e+01
1.018601e+02	-1.795036e+01
1.024484e+02	-1.799967e+01
1.030402e+02	-1.804744e+01
1.036353e+02	-1.809683e+01
1.042339e+02	-1.814748e+01
1.048360e+02	-1.819577e+01
1.054415e+02	-1.824633e+01
1.060505e+02	-1.829455e+01
1.066631e+02	-1.834505e+01
1.072791e+02	-1.839275e+01
1.078988e+02	-1.844292e+01
1.085220e+02	-1.849105e+01
1.091488e+02	-1.853993e+01
1.097793e+02	-1.859231e+01
1.104133e+02	-1.864080e+01
1.110511e+02	-1.868919e+01
1.116925e+02	-1.873783e+01
1.123376e+02	-1.878916e+01
1.129865e+02	-1.883797e+01
1.136391e+02	-1.888681e+01
1.142955e+02	-1.893467e+01
1.149556e+02	-1.898503e+01
1.156196e+02	-1.903537e+01
1.162874e+02	-1.908423e+01
1.169591e+02	-1.913452e+01
1.176347e+02	-1.918324e+01
1.183141e+02	-1.923294e+01
1.189975e+02	-1.928285e+01
1.196848e+02	-1.933152e+01
1.203761e+02	-1.938113e+01
1.210714e+02	-1.943065e+01
1.217707e+02	-1.947932e+01
1.224740e+02	-1.952865e+01
1.231814e+02	-1.957974e+01
1.238929e+02	-1.962832e+01
1.246085e+02	-1.967983e+01
1.253283e+02	-1.972756e+01
1.260522e+02	-1.977650e+01
1.267802e+02	-1.982642e+01
1.275125e+02	-1.987644e+01
1.282490e+02	-1.992606e+01
1.289898e+02	-1.997469e+01
1.297348e+02	-2.002444e+01
1.304842e+02	-2.007335e+01
1.312378e+02	-2.012269e+01
1.319959e+02	-2.017420e+01
1.327583e+02	-2.022252e+01
1.335251e+02	-2.027288e+01
1.342963e+02	-2.032129e+01
1.350720e+02	-2.037140e+01
1.358522e+02	-2.042105e+01
1.366368e+02	-2.046906e+01
1.374260e+02	-2.052064e+01
1.382198e+02	-2.057127e+01
1.390182e+02	-2.061958e+01
1.398211e+02	-2.066867e+01
1.406287e+02	-2.071889e+01
1.414410e+02	-2.076923e+01
1.422579e+02	-2.081784e+01
1.430796e+02	-2.086740e+01
1.439060e+02	-2.091625e+01
1.447372e+02	-2.096743e+01
1.455732e+02	-2.101656e+01
1.464141e+02	-2.106633e+01
1.472597e+02	-2.111587e+01
1.481103e+02	-2.116377e+01
1.489658e+02	-2.121384e+01
1.498262e+02	-2.126582e+01
1.506916e+02	-2.131499e+01
1.515620e+02	-2.136296e+01
1.524374e+02	-2.141409e+01
1.533179e+02	-2.146250e+01
1.542034e+02	-2.151377e+01
1.550941e+02	-2.156337e+01
1.559899e+02	-2.161327e+01
1.568909e+02	-2.166332e+01
1.577971e+02	-2.171275e+01
1.587085e+02	-2.176151e+01
1.596252e+02	-2.181106e+01
1.605472e+02	-2.186026e+01
1.614745e+02	-2.191034e+01
1.624072e+02	-2.195887e+01
1.633453e+02	-2.200980e+01
1.642887e+02	-2.206084e+01
1.652377e+02	-2.211009e+01
1.661921e+02	-2.215907e+01
1.671520e+02	-2.220920e+01
1.681175e+02	-2.225919e+01
1.690885e+02	-2.230812e+01
1.700651e+02	-2.235897e+01
1.710474e+02	-2.240920e+01
1.720354e+02	-2.245807e+01
1.730291e+02	-2.250723e+01
1.740285e+02	-2.255793e+01
1.750337e+02	-2.260542e+01
1.760446e+02	-2.265726e+01
1.770615e+02	-2.270584e+01
1.780842e+02	-2.275513e+01
1.791128e+02	-2.280564e+01
1.801473e+02	-2.285658e+01
1.811878e+02	-2.290619e+01
1.822344e+02	-2.295488e+01
1.832870e+02	-2.300373e+01
1.843456e+02	-2.305505e+01
1.854104e+02	-2.310632e+01
1.864813e+02	-2.315446e+01
1.875584e+02	-2.320337e+01
1.886418e+02	-2.325581e+01
1.897313e+02	-2.330281e+01
1.908272e+02	-2.335592e+01
1.919294e+02	-2.340346e+01
1.930380e+02	-2.345238e+01
1.941530e+02	-2.350245e+01
1.952744e+02	-2.355376e+01
1.964023e+02	-2.360121e+01
1.975367e+02	-2.365044e+01
1.986777e+02	-2.370303e+01
1.998252e+02	-2.375434e+01
2.009794e+02	-2.380128e+01
2.021403e+02	-2.385178e+01
2.033078e+02	-2.390454e+01
2.044821e+02	-2.394993e+01
2.056632e+02	-2.400110e+01
2.068511e+02	-2.405320e+01
2.080459e+02	-2.410228e+01
2.092475e+02	-2.415372e+01
2.104561e+02	-2.420060e+01
2.116717e+02	-2.424915e+01
2.128943e+02	-2.430165e+01
2.141240e+02	-2.435033e+01
2.153608e+02	-2.440033e+01
2.166047e+02	-2.445248e+01
2.178558e+02	-2.450227e+01
2.191141e+02	-2.455273e+01
2.203797e+02	-2.460110e+01
2.216526e+02	-2.465173e+01
2.229329e+02	-2.470180e+01
2.242205e+02	-2.475087e+01
2.255156e+02	-2.480042e+01
2.268182e+02	-2.485224e+01
2.281283e+02	-2.489761e+01
2.294459e+02	-2.495049e+01
2.307712e+02	-2.500129e+01
2.321041e+02	-2.504864e+01
2.334447e+02	-2.510094e+01
2.347931e+02	-2.514971e+01
2.361493e+02	-2.520125e+01
2.375133e+02	-2.525042e+01
2.388851e+02	-2.529994e+01
2.402649e+02	-2.534803e+01
2.416527e+02	-2.539925e+01
2.430484e+02	-2.544969e+01
2.444523e+02	-2.549962e+01
2.458642e+02	-2.555126e+01
2.472843e+02	-2.559971e+01
2.487126e+02	-2.564567e+01
2.501492e+02	-2.569920e+01
2.515940e+02	-2.574599e+01
2.530472e+02	-2.580205e+01
2.545088e+02	-2.584909e+01
2.559789e+02	-2.589920e+01
2.574574e+02	-2.594771e+01
2.589444e+02	-2.599585e+01
2.604401e+02	-2.604925e+01
2.619444e+02	-2.609851e+01
2.634574e+02	-2.614914e+01
2.649791e+02	-2.619953e+01
2.665096e+02	-2.624886e+01
2.680489e+02	-2.629756e+01
2.695972e+02	-2.634833e+01
2.711544e+02	-2.640173e+01
2.727205e+02	-2.644669e+01
2.742958e+02	-2.650018e+01
2.758801e+02	-2.654843e+01
2.774736e+02	-2.659677e+01
2.790762e+02	-2.664953e+01
2.806882e+02	-2.669924e+01
2.823094e+02	-2.674835e+01
2.839400e+02	-2.679824e+01
2.855800e+02	-2.684633e+01
2.872295e+02	-2.689904e+01
2.888886e+02	-2.694333e+01
2.905572e+02	-2.700096e+01
2.922354e+02	-2.704427e+01
2.939234e+02	-2.709875e+01
2.956211e+02	-2.715038e+01
2.973286e+02	-2.720062e+01
2.990459e+02	-2.724838e+01
3.007732e+02	-2.730102e+01
3.025104e+02	-2.734938e+01
3.042577e+02	-2.739952e+01
3.060151e+02	-2.744549e+01
3.077826e+02	-2.749612e+01
3.095604e+02	-2.755149e+01
3.113484e+02	-2.759872e+01
3.131467e+02	-2.764991e+01
3.149554e+02	-2.769698e+01
3.167746e+02	-2.775141e+01
3.186043e+02	-2.779765e+01
3.204445e+02	-2.784782e+01
3.222954e+02	-2.790220e+01
3.241570e+02	-2.794849e+01
3.260293e+02	-2.799965e+01
3.279124e+02	-2.804603e+01
3.298064e+02	-2.809970e+01
3.317114e+02	-2.814914e+01
3.336273e+02	-2.819461e+01
3.355544e+02	-2.825038e+01
3.374925e+02	-2.829630e+01
3.394418e+02	-2.834998e+01
3.414024e+02	-2.839852e+01
3.433744e+02	-2.845045e+01
3.453577e+02	-2.850178e+01
3.473525e+02	-2.855008e+01
3.493588e+02	-2.859900e+01
3.513766e+02	-2.865022e+01
3.534062e+02	-2.869477e+01
3.554474e+02	-2.875165e+01
3.575005e+02	-2.879996e+01
3.595654e+02	-2.884819e+01
3.616422e+02	-2.890112e+01
3.637311e+02	-2.894720e+01
3.658320e+02	-2.899518e+01
3.679450e+02	-2.904594e+01
3.700702e+02	-2.910323e+01
3.722077e+02	-2.915103e+01
3.743576e+02	-2.919835e+01
3.765199e+02	-2.925063e+01
3.786946e+02	-2.929682e+01
3.808820e+02	-2.935061e+01
3.830819e+02	-2.939816e+01
3.852946e+02	-2.944914e+01
3.875200e+02	-2.949980e+01
3.897583e+02	-2.955657e+01
3.920096e+02	-2.959789e+01
3.942738e+02	-2.965050e+01
3.965511e+02	-2.969577e+01
3.988416e+02	-2.974809e+01
4.011452e+02	-2.980412e+01
4.034622e+02	-2.985318e+01
4.057926e+02	-2.989774e+01
4.081365e+02	-2.995023e+01
4.104938e+02	-2.999830e+01
4.128648e+02	-3.004712e+01
4.152495e+02	-3.009989e+01
4.176480e+02	-3.015244e+01
4.200603e+02	-3.019854e+01
4.224866e+02	-3.024860e+01
4.249268e+02	-3.029877e+01
4.273812e+02	-3.035038e+01
4.298497e+02	-3.039873e+01
4.323325e+02	-3.044551e+01
4.348297e+02	-3.049421e+01
4.373412e+02	-3.055475e+01
4.398673e+02	-3.060327e+01
4.424079e+02	-3.064628e+01
4.449633e+02	-3.070326e+01
4.475334e+02	-3.075391e+01
4.501183e+02	-3.079912e+01
4.527182e+02	-3.085317e+01
4.553330e+02	-3.090543e+01
4.579630e+02	-3.095442e+01
4.606082e+02	-3.099986e+01
4.632687e+02	-3.105281e+01
4.659445e+02	-3.110249e+01
4.686358e+02	-3.115484e+01
4.713426e+02	-3.120975e+01
4.740650e+02	-3.124976e+01
4.768032e+02	-3.130336e+01
4.795572e+02	-3.135907e+01
4.823271e+02	-3.141111e+01
4.851130e+02	-3.145476e+01
4.879150e+02	-3.150365e+01
4.907332e+02	-3.155467e+01
4.935676e+02	-3.160376e+01
4.964185e+02	-3.165549e+01
4.992858e+02	-3.170378e+01
5.021696e+02	-3.175540e+01
5.050701e+02	-3.180634e+01
5.079874e+02	-3.185950e+01
5.109215e+02	-3.190712e+01
5.138726e+02	-3.195371e+01
5.168407e+02	-3.201244e+01
5.198259e+02	-3.205628e+01
5.228284e+02	-3.210851e+01
5.258482e+02	-3.215842e+01
5.288855e+02	-3.220830e+01
5.319403e+02	-3.225583e+01
5.350128e+02	-3.231208e+01
5.381030e+02	-3.235614e+01
5.412111e+02	-3.240913e+01
5.443371e+02	-3.246374e+01
5.474812e+02	-3.251072e+01
5.506434e+02	-3.255880e+01
5.538239e+02	-3.261353e+01
5.570228e+02	-3.266291e+01
5.602401e+02	-3.271196e+01
5.634760e+02	-3.276268e+01
5.667306e+02	-3.281067e+01
5.700040e+02	-3.285858e+01
5.732964e+02	-3.291509e+01
5.766077e+02	-3.296755e+01
5.799382e+02	-3.301175e+01
5.832879e+02	-3.306720e+01
5.866569e+02	-3.311651e+01
5.900454e+02	-3.315978e+01
5.934535e+02	-3.321160e+01
5.968813e+02	-3.325989e+01
6.003288e+02	-3.330816e+01
6.037963e+02	-3.336542e+01
6.072838e+02	-3.340897e+01
6.107914e+02	-3.346893e+01
6.143194e+02	-3.351614e+01
6.178676e+02	-3.356548e+01
6.214364e+02	-3.361558e+01
6.250258e+02	-3.366246e+01
6.286359e+02	-3.371811e+01
6.322669e+02	-3.377608e+01
6.359189e+02	-3.381870e+01
6.395919e+02	-3.387257e+01
6.432862e+02	-3.392123e+01
6.470017e+02	-3.397563e+01
6.507388e+02	-3.401783e+01
6.544974e+02	-3.406968e+01
6.582778e+02	-3.412043e+01
6.620800e+02	-3.416848e+01
6.659041e+02	-3.422386e+01
6.697504e+02	-3.427375e+01
6.736188e+02	-3.431633e+01
6.775096e+02	-3.437350e+01
6.814229e+02	-3.441672e+01
6.853587e+02	-3.446787e+01
6.893173e+02	-3.452879e+01
6.932988e+02	-3.456915e+01
6.973033e+02	-3.461779e+01
7.013309e+02	-3.466792e+01
