Frequency(Hz)	Magnitude(dB)
1.000000e+01	-2.022830e+00
1.005776e+01	-2.041438e+00
1.011585e+01	-2.060251e+00
1.017428e+01	-2.079439e+00
1.023305e+01	-2.098319e+00
1.029215e+01	-2.117700e+00
1.035160e+01	-2.137060e+00
1.041139e+01	-2.156538e+00
1.047153e+01	-2.176267e+00
1.053201e+01	-2.196035e+00
1.059284e+01	-2.216141e+00
1.065403e+01	-2.236068e+00
1.071556e+01	-2.256262e+00
1.077746e+01	-2.276523e+00
1.083971e+01	-2.297098e+00
1.090232e+01	-2.317643e+00
1.096529e+01	-2.338234e+00
1.102862e+01	-2.359159e+00
1.109232e+01	-2.380106e+00
1.115639e+01	-2.401508e+00
1.122083e+01	-2.422557e+00
1.128564e+01	-2.444044e+00
1.135083e+01	-2.465976e+00
1.141639e+01	-2.487656e+00
1.148233e+01	-2.509493e+00
1.154865e+01	-2.531491e+00
1.161536e+01	-2.553835e+00
1.168245e+01	-2.576115e+00
1.174992e+01	-2.598638e+00
1.181779e+01	-2.620857e+00
1.188605e+01	-2.643862e+00
1.195470e+01	-2.666757e+00
1.202375e+01	-2.689789e+00
1.209320e+01	-2.712735e+00
1.216305e+01	-2.736221e+00
1.223330e+01	-2.759516e+00
1.230396e+01	-2.783059e+00
1.237503e+01	-2.806943e+00
1.244651e+01	-2.830773e+00
1.251840e+01	-2.854819e+00
1.259070e+01	-2.878983e+00
1.266343e+01	-2.903245e+00
1.273657e+01	-2.927746e+00
1.281014e+01	-2.952543e+00
1.288413e+01	-2.977017e+00
1.295855e+01	-3.001982e+00
1.303339e+01	-3.027197e+00
1.310867e+01	-3.052283e+00
1.318439e+01	-3.077729e+00
1.326054e+01	-3.102961e+00
1.333713e+01	-3.128432e+00
1.341417e+01	-3.154455e+00
1.349165e+01	-3.180186e+00
1.356958e+01	-3.206455e+00
1.364795e+01	-3.232363e+00
1.372678e+01	-3.258928e+00
1.380607e+01	-3.285230e+00
1.388581e+01	-3.311959e+00
1.396602e+01	-3.338828e+00
1.404668e+01	-3.365734e+00
1.412782e+01	-3.392629e+00
1.420942e+01	-3.420249e+00
1.429149e+01	-3.447348e+00
1.437404e+01	-3.474600e+00
1.445706e+01	-3.502415e+00
1.454057e+01	-3.529925e+00
1.462455e+01	-3.558198e+00
1.470902e+01	-3.585999e+00
1.479398e+01	-3.614254e+00
1.487943e+01	-3.642706e+00
1.496537e+01	-3.670835e+00
1.505181e+01	-3.699615e+00
1.513875e+01	-3.728453e+00
1.522619e+01	-3.757369e+00
1.531414e+01	-3.786203e+00
1.540259e+01	-3.815451e+00
1.549156e+01	-3.844951e+00
1.558103e+01	-3.874308e+00
1.567103e+01	-3.903875e+00
1.576155e+01	-3.933524e+00
1.585258e+01	-3.963323e+00
1.594415e+01	-3.993435e+00
1.603624e+01	-4.023633e+00
1.612886e+01	-4.053908e+00
1.622202e+01	-4.084260e+00
1.631572e+01	-4.114992e+00
1.640996e+01	-4.145432e+00
1.650474e+01	-4.176439e+00
1.660008e+01	-4.207111e+00
1.669596e+01	-4.238529e+00
1.679239e+01	-4.269922e+00
1.688938e+01	-4.301354e+00
1.698694e+01	-4.332785e+00
1.708505e+01	-4.364066e+00
1.718373e+01	-4.396093e+00
1.728299e+01	-4.427972e+00
1.738281e+01	-4.459860e+00
1.748322e+01	-4.491979e+00
1.758420e+01	-4.524529e+00
1.768576e+01	-4.557016e+00
1.778792e+01	-4.589576e+00
1.789066e+01	-4.622081e+00
1.799399e+01	-4.654917e+00
1.809793e+01	-4.687690e+00
1.820246e+01	-4.721175e+00
1.830760e+01	-4.754291e+00
1.841334e+01	-4.787487e+00
1.851969e+01	-4.821095e+00
1.862666e+01	-4.854976e+00
1.873425e+01	-4.888636e+00
1.884246e+01	-4.922434e+00
1.895129e+01	-4.956347e+00
1.906075e+01	-4.990314e+00
1.917085e+01	-5.024792e+00
1.928158e+01	-5.059036e+00
1.939295e+01	-5.093517e+00
1.950496e+01	-5.128083e+00
1.961762e+01	-5.162840e+00
1.973093e+01	-5.197615e+00
1.984490e+01	-5.232659e+00
1.995952e+01	-5.267881e+00
2.007480e+01	-5.302851e+00
2.019076e+01	-5.338540e+00
2.030738e+01	-5.373715e+00
2.042467e+01	-5.409297e+00
2.054264e+01	-5.444879e+00
2.066130e+01	-5.480554e+00
2.078064e+01	-5.516852e+00
2.090066e+01	-5.552863e+00
2.102139e+01	-5.588791e+00
2.114280e+01	-5.624846e+00
2.126492e+01	-5.661340e+00
2.138775e+01	-5.697957e+00
2.151128e+01	-5.734518e+00
2.163553e+01	-5.771357e+00
2.176050e+01	-5.808245e+00
2.188619e+01	-5.845407e+00
2.201260e+01	-5.882336e+00
2.213974e+01	-5.919313e+00
2.226762e+01	-5.956601e+00
2.239624e+01	-5.994108e+00
2.252560e+01	-6.031647e+00
2.265571e+01	-6.069104e+00
2.278656e+01	-6.106886e+00
2.291818e+01	-6.144558e+00
2.305055e+01	-6.182437e+00
2.318369e+01	-6.220939e+00
2.331760e+01	-6.258679e+00
2.345228e+01	-6.297169e+00
2.358774e+01	-6.335433e+00
2.372398e+01	-6.373761e+00
2.386101e+01	-6.412279e+00
2.399883e+01	-6.451206e+00
2.413745e+01	-6.489875e+00
2.427686e+01	-6.528294e+00
2.441709e+01	-6.567311e+00
2.455812e+01	-6.606572e+00
2.469997e+01	-6.645455e+00
2.484263e+01	-6.685202e+00
2.498612e+01	-6.724234e+00
2.513044e+01	-6.763993e+00
2.527559e+01	-6.803190e+00
2.542158e+01	-6.843369e+00
2.556842e+01	-6.882848e+00
2.571610e+01	-6.922703e+00
2.586463e+01	-6.962259e+00
2.601403e+01	-7.002498e+00
2.616428e+01	-7.042483e+00
2.631541e+01	-7.082161e+00
2.646740e+01	-7.123020e+00
2.662028e+01	-7.163566e+00
2.677404e+01	-7.203724e+00
2.692868e+01	-7.244617e+00
2.708422e+01	-7.284955e+00
2.724066e+01	-7.325525e+00
2.739800e+01	-7.366321e+00
2.755625e+01	-7.407472e+00
2.771541e+01	-7.448682e+00
2.787550e+01	-7.489747e+00
2.803650e+01	-7.530572e+00
2.819844e+01	-7.571785e+00
2.836131e+01	-7.613270e+00
2.852513e+01	-7.654744e+00
2.868989e+01	-7.696301e+00
2.885560e+01	-7.737818e+00
2.902227e+01	-7.779004e+00
2.918990e+01	-7.820851e+00
2.935850e+01	-7.862373e+00
2.952807e+01	-7.904568e+00
2.969863e+01	-7.946487e+00
2.987016e+01	-7.988398e+00
3.004269e+01	-8.030814e+00
3.021622e+01	-8.073177e+00
3.039075e+01	-8.115408e+00
3.056628e+01	-8.157708e+00
3.074283e+01	-8.200500e+00
3.092040e+01	-8.242647e+00
3.109900e+01	-8.285032e+00
3.127862e+01	-8.327493e+00
3.145929e+01	-8.370230e+00
3.164099e+01	-8.412988e+00
3.182375e+01	-8.455736e+00
3.200756e+01	-8.499041e+00
3.219244e+01	-8.541696e+00
3.237838e+01	-8.584851e+00
3.256540e+01	-8.628186e+00
3.275349e+01	-8.671163e+00
3.294268e+01	-8.715059e+00
3.313295e+01	-8.758083e+00
3.332433e+01	-8.801695e+00
3.351681e+01	-8.845057e+00
3.371040e+01	-8.888177e+00
3.390511e+01	-8.931903e+00
3.410094e+01	-8.975620e+00
3.429791e+01	-9.019597e+00
3.449601e+01	-9.063323e+00
3.469526e+01	-9.106955e+00
3.489566e+01	-9.150749e+00
3.509721e+01	-9.195020e+00
3.529993e+01	-9.238567e+00
3.550382e+01	-9.282958e+00
3.570889e+01	-9.327304e+00
3.591515e+01	-9.371448e+00
3.612259e+01	-9.415709e+00
3.633123e+01	-9.460179e+00
3.654108e+01	-9.504690e+00
3.675214e+01	-9.548982e+00
3.696442e+01	-9.592990e+00
3.717792e+01	-9.638043e+00
3.739266e+01	-9.682514e+00
3.760864e+01	-9.726918e+00
3.782587e+01	-9.772148e+00
3.804435e+01	-9.816535e+00
3.826409e+01	-9.861645e+00
3.848510e+01	-9.906193e+00
3.870739e+01	-9.950767e+00
3.893096e+01	-9.996260e+00
3.915583e+01	-1.004174e+01
3.938199e+01	-1.008673e+01
3.960946e+01	-1.013173e+01
3.983824e+01	-1.017685e+01
4.006834e+01	-1.022249e+01
4.029978e+01	-1.026698e+01
4.053255e+01	-1.031327e+01
4.076666e+01	-1.035838e+01
4.100213e+01	-1.040395e+01
4.123896e+01	-1.044886e+01
4.147715e+01	-1.049434e+01
4.171672e+01	-1.053973e+01
4.195767e+01	-1.058563e+01
4.220002e+01	-1.063206e+01
4.244377e+01	-1.067751e+01
4.268892e+01	-1.072329e+01
4.293549e+01	-1.076862e+01
4.318348e+01	-1.081452e+01
4.343291e+01	-1.086072e+01
4.368377e+01	-1.090657e+01
4.393609e+01	-1.095279e+01
4.418986e+01	-1.099865e+01
4.444510e+01	-1.104449e+01
4.470182e+01	-1.109038e+01
4.496001e+01	-1.113668e+01
4.521970e+01	-1.118309e+01
4.548089e+01	-1.122898e+01
4.574358e+01	-1.127600e+01
4.600779e+01	-1.132137e+01
4.627353e+01	-1.136867e+01
4.654081e+01	-1.141477e+01
4.680963e+01	-1.146094e+01
4.708000e+01	-1.150757e+01
4.735193e+01	-1.155423e+01
4.762543e+01	-1.160032e+01
4.790051e+01	-1.164715e+01
4.817719e+01	-1.169389e+01
4.845545e+01	-1.174031e+01
4.873533e+01	-1.178749e+01
4.901682e+01	-1.183371e+01
4.929994e+01	-1.188018e+01
4.958470e+01	-1.192716e+01
4.987110e+01	-1.197440e+01
5.015915e+01	-1.202086e+01
5.044887e+01	-1.206799e+01
5.074026e+01	-1.211498e+01
5.103333e+01	-1.216197e+01
5.132810e+01	-1.220906e+01
5.162457e+01	-1.225618e+01
5.192275e+01	-1.230277e+01
5.222265e+01	-1.234981e+01
5.252429e+01	-1.239714e+01
5.282767e+01	-1.244453e+01
5.313280e+01	-1.249205e+01
5.343969e+01	-1.253891e+01
5.374836e+01	-1.258552e+01
5.405880e+01	-1.263278e+01
5.437105e+01	-1.268071e+01
5.468509e+01	-1.272785e+01
5.500095e+01	-1.277595e+01
5.531863e+01	-1.282312e+01
5.563815e+01	-1.287018e+01
5.595951e+01	-1.291786e+01
5.628273e+01	-1.296563e+01
5.660782e+01	-1.301236e+01
5.693479e+01	-1.306050e+01
5.726364e+01	-1.310791e+01
5.759439e+01	-1.315619e+01
5.792705e+01	-1.320447e+01
5.826164e+01	-1.325078e+01
5.859815e+01	-1.329893e+01
5.893662e+01	-1.334670e+01
5.927703e+01	-1.339366e+01
5.961941e+01	-1.344217e+01
5.996377e+01	-1.348953e+01
6.031012e+01	-1.353708e+01
6.065847e+01	-1.358529e+01
6.100883e+01	-1.363349e+01
6.136121e+01	-1.368106e+01
6.171563e+01	-1.372883e+01
6.207210e+01	-1.377713e+01
6.243063e+01	-1.382425e+01
6.279122e+01	-1.387255e+01
6.315390e+01	-1.392033e+01
6.351868e+01	-1.396891e+01
6.388556e+01	-1.401647e+01
6.425456e+01	-1.406403e+01
6.462569e+01	-1.411213e+01
6.499897e+01	-1.416104e+01
6.537440e+01	-1.420893e+01
6.575200e+01	-1.425707e+01
6.613178e+01	-1.430494e+01
6.651375e+01	-1.435279e+01
6.689793e+01	-1.440140e+01
6.728433e+01	-1.444848e+01
6.767297e+01	-1.449793e+01
6.806384e+01	-1.454626e+01
6.845698e+01	-1.459444e+01
6.885238e+01	-1.464333e+01
6.925007e+01	-1.469090e+01
6.965005e+01	-1.473871e+01
7.005235e+01	-1.478769e+01
7.045697e+01	-1.483611e+01
7.086393e+01	-1.488441e+01
7.127323e+01	-1.493301e+01
7.168490e+01	-1.498111e+01
7.209895e+01	-1.502980e+01
7.251539e+01	-1.507813e+01
7.293424e+01	-1.512640e+01
7.335551e+01	-1.517504e+01
7.377920e+01	-1.522414e+01
7.420535e+01	-1.527274e+01
7.463396e+01	-1.532043e+01
7.506504e+01	-1.536979e+01
7.549861e+01	-1.541825e+01
7.593469e+01	-1.546644e+01
7.637328e+01	-1.551564e+01
7.681441e+01	-1.556370e+01
7.725809e+01	-1.561246e+01
7.770433e+01	-1.566005e+01
7.815315e+01	-1.570967e+01
7.860456e+01	-1.575929e+01
7.905857e+01	-1.580660e+01
7.951521e+01	-1.585558e+01
7.997449e+01	-1.590517e+01
8.043642e+01	-1.595321e+01
8.090102e+01	-1.600278e+01
8.136830e+01	-1.605117e+01
8.183828e+01	-1.610014e+01
8.231097e+01	-1.614922e+01
8.278640e+01	-1.619769e+01
8.326457e+01	-1.624705e+01
8.374550e+01	-1.629608e+01
8.422921e+01	-1.634332e+01
8.471572e+01	-1.639340e+01
8.520503e+01	-1.644160e+01
8.569717e+01	-1.649057e+01
8.619215e+01	-1.653982e+01
8.669000e+01	-1.658808e+01
8.719071e+01	-1.663739e+01
8.769432e+01	-1.668602e+01
8.820084e+01	-1.673567e+01
8.871029e+01	-1.678530e+01
8.922267e+01	-1.683393e+01
8.973802e+01	-1.688265e+01
9.025634e+01	-1.693109e+01
9.077766e+01	-1.698027e+01
9.130199e+01	-1.702963e+01
9.182935e+01	-1.707840e+01
9.235975e+01	-1.712707e+01
9.289321e+01	-1.717659e+01
9.342976e+01	-1.722623e+01
9.396941e+01	-1.727513e+01
9.451217e+01	-1.732259e+01
9.505807e+01	-1.737388e+01
9.560712e+01	-1.742266e+01
9.615934e+01	-1.747141e+01
9.671476e+01	-1.751994e+01
9.727338e+01	-1.757006e+01
9.783522e+01	-1.761892e+01
9.840032e+01	-1.766853e+01
9.896867e+01	-1.771698e+01
9.954031e+01	-1.776626e+01
1.001153e+02	-1.781521e+01
1.006935e+02	-1.786482e+01
1.012751e+02	-1.791300e+01
1.018601e+02	-1.796270e+01
1.024484e+02	-1.801238e+01
1.030402e+02	-1.806112e+01
1.036353e+02	-1.811057e+01
1.042339e+02	-1.816031e+01
1.048360e+02	-1.820952e+01
1.054415e+02	-1.825944e+01
1.060505e+02	-1.830847e+01
1.066631e+02	-1.835789e+01
1.072791e+02	-1.840483e+01
1.078988e+02	-1.845602e+01
1.085220e+02	-1.850522e+01
1.091488e+02	-1.855495e+01
1.097793e+02	-1.860521e+01
1.104133e+02	-1.865181e+01
1.110511e+02	-1.870241e+01
1.116925e+02	-1.875089e+01
1.123376e+02	-1.880102e+01
1.129865e+02	-1.885206e+01
1.136391e+02	-1.890221e+01
1.142955e+02	-1.895013e+01
1.149556e+02	-1.899932e+01
1.156196e+02	-1.904881e+01
1.162874e+02	-1.909792e+01
1.169591e+02	-1.914757e+01
1.176347e+02	-1.919655e+01
1.183141e+02	-1.924648e+01
1.189975e+02	-1.929516e+01
1.196848e+02	-1.934555e+01
1.203761e+02	-1.939346e+01
1.210714e+02	-1.944400e+01
1.217707e+02	-1.949316e+01
1.224740e+02	-1.954177e+01
1.231814e+02	-1.959302e+01
1.238929e+02	-1.964236e+01
1.246085e+02	-1.969057e+01
1.253283e+02	-1.973941e+01
1.260522e+02	-1.979003e+01
1.267802e+02	-1.984040e+01
1.275125e+02	-1.988858e+01
1.282490e+02	-1.993856e+01
1.289898e+02	-1.998863e+01
1.297348e+02	-2.003775e+01
1.304842e+02	-2.008687e+01
1.312378e+02	-2.013593e+01
1.319959e+02	-2.018738e+01
1.327583e+02	-2.023555e+01
1.335251e+02	-2.028453e+01
1.342963e+02	-2.033436e+01
1.350720e+02	-2.038464e+01
1.358522e+02	-2.043573e+01
1.366368e+02	-2.048411e+01
1.374260e+02	-2.053459e+01
1.382198e+02	-2.058314e+01
1.390182e+02	-2.063321e+01
1.398211e+02	-2.068187e+01
1.406287e+02	-2.073229e+01
1.414410e+02	-2.078099e+01
1.422579e+02	-2.083270e+01
1.430796e+02	-2.088142e+01
1.439060e+02	-2.093107e+01
1.447372e+02	-2.097841e+01
1.455732e+02	-2.102936e+01
1.464141e+02	-2.107864e+01
1.472597e+02	-2.112933e+01
1.481103e+02	-2.117788e+01
1.489658e+02	-2.122908e+01
1.498262e+02	-2.127846e+01
1.506916e+02	-2.132842e+01
1.515620e+02	-2.137937e+01
1.524374e+02	-2.142799e+01
1.533179e+02	-2.147726e+01
1.542034e+02	-2.152651e+01
1.550941e+02	-2.157634e+01
1.559899e+02	-2.162557e+01
1.568909e+02	-2.167573e+01
1.577971e+02	-2.172575e+01
1.587085e+02	-2.177637e+01
1.596252e+02	-2.182549e+01
1.605472e+02	-2.187320e+01
1.614745e+02	-2.192493e+01
1.624072e+02	-2.197386e+01
1.633453e+02	-2.202206e+01
1.642887e+02	-2.207422e+01
1.652377e+02	-2.212137e+01
1.661921e+02	-2.217280e+01
1.671520e+02	-2.222392e+01
1.681175e+02	-2.227157e+01
1.690885e+02	-2.232236e+01
1.700651e+02	-2.237187e+01
1.710474e+02	-2.242112e+01
1.720354e+02	-2.247421e+01
1.730291e+02	-2.251920e+01
1.740285e+02	-2.257132e+01
1.750337e+02	-2.261981e+01
1.760446e+02	-2.266901e+01
1.770615e+02	-2.272165e+01
1.780842e+02	-2.276986e+01
1.791128e+02	-2.282157e+01
1.801473e+02	-2.286931e+01
1.811878e+02	-2.291913e+01
1.822344e+02	-2.297120e+01
1.832870e+02	-2.301927e+01
1.843456e+02	-2.306634e+01
1.854104e+02	-2.311895e+01
1.864813e+02	-2.316754e+01
1.875584e+02	-2.321977e+01
1.886418e+02	-2.326865e+01
1.897313e+02	-2.331954e+01
1.908272e+02	-2.336598e+01
1.919294e+02	-2.341621e+01
1.930380e+02	-2.346799e+01
1.941530e+02	-2.351898e+01
1.952744e+02	-2.356634e+01
1.964023e+02	-2.361429e+01
1.975367e+02	-2.366669e+01
1.986777e+02	-2.371680e+01
1.998252e+02	-2.376484e+01
2.009794e+02	-2.381536e+01
2.021403e+02	-2.386786e+01
2.033078e+02	-2.391555e+01
2.044821e+02	-2.396563e+01
2.056632e+02	-2.401638e+01
2.068511e+02	-2.406604e+01
2.080459e+02	-2.411606e+01
2.092475e+02	-2.416354e+01
2.104561e+02	-2.421647e+01
2.116717e+02	-2.426262e+01
2.128943e+02	-2.431419e+01
2.141240e+02	-2.436457e+01
2.153608e+02	-2.441450e+01
2.166047e+02	-2.446352e+01
2.178558e+02	-2.451319e+01
2.191141e+02	-2.456334e+01
2.203797e+02	-2.461065e+01
2.216526e+02	-2.466100e+01
2.229329e+02	-2.471236e+01
2.242205e+02	-2.476290e+01
2.255156e+02	-2.481481e+01
2.268182e+02	-2.486176e+01
2.281283e+02	-2.491167e+01
2.294459e+02	-2.496428e+01
2.307712e+02	-2.501378e+01
2.321041e+02	-2.506190e+01
2.334447e+02	-2.511336e+01
2.347931e+02	-2.516405e+01
2.361493e+02	-2.521499e+01
2.375133e+02	-2.526249e+01
2.388851e+02	-2.531266e+01
2.402649e+02	-2.536060e+01
2.416527e+02	-2.541303e+01
2.430484e+02	-2.546318e+01
2.444523e+02	-2.551213e+01
2.458642e+02	-2.556340e+01
2.472843e+02	-2.561471e+01
2.487126e+02	-2.566017e+01
2.501492e+02	-2.570913e+01
2.515940e+02	-2.576333e+01
2.530472e+02	-2.581208e+01
2.545088e+02	-2.586333e+01
2.559789e+02	-2.591249e+01
2.574574e+02	-2.596237e+01
2.589444e+02	-2.601406e+01
2.604401e+02	-2.606294e+01
2.619444e+02	-2.611384e+01
2.634574e+02	-2.616091e+01
2.649791e+02	-2.621139e+01
2.665096e+02	-2.626502e+01
2.680489e+02	-2.631383e+01
2.695972e+02	-2.636300e+01
2.711544e+02	-2.641142e+01
2.727205e+02	-2.646236e+01
2.742958e+02	-2.650779e+01
2.758801e+02	-2.656112e+01
2.774736e+02	-2.661003e+01
2.790762e+02	-2.665943e+01
2.806882e+02	-2.671353e+01
2.823094e+02	-2.676159e+01
2.839400e+02	-2.681059e+01
2.855800e+02	-2.686351e+01
2.872295e+02	-2.690956e+01
2.888886e+02	-2.696264e+01
2.905572e+02	-2.701155e+01
2.922354e+02	-2.706211e+01
2.939234e+02	-2.711107e+01
2.956211e+02	-2.716099e+01
2.973286e+02	-2.721092e+01
2.990459e+02	-2.726077e+01
3.007732e+02	-2.731217e+01
3.025104e+02	-2.736122e+01
3.042577e+02	-2.741551e+01
3.060151e+02	-2.745997e+01
3.077826e+02	-2.750926e+01
3.095604e+02	-2.756289e+01
3.113484e+02	-2.761157e+01
3.131467e+02	-2.766113e+01
3.149554e+02	-2.770950e+01
3.167746e+02	-2.776148e+01
3.186043e+02	-2.780877e+01
3.204445e+02	-2.786223e+01
3.222954e+02	-2.791232e+01
3.241570e+02	-2.796330e+01
3.260293e+02	-2.801003e+01
3.279124e+02	-2.805984e+01
3.298064e+02	-2.811303e+01
3.317114e+02	-2.816014e+01
3.336273e+02	-2.821263e+01
3.355544e+02	-2.825821e+01
3.374925e+02	-2.831047e+01
3.394418e+02	-2.836556e+01
3.414024e+02	-2.840946e+01
3.433744e+02	-2.845784e+01
3.453577e+02	-2.850969e+01
3.473525e+02	-2.856198e+01
3.493588e+02	-2.861138e+01
3.513766e+02	-2.866942e+01
3.534062e+02	-2.871502e+01
3.554474e+02	-2.876226e+01
3.575005e+02	-2.881020e+01
3.595654e+02	-2.886277e+01
3.616422e+02	-2.891465e+01
3.637311e+02	-2.896296e+01
3.658320e+02	-2.901283e+01
3.679450e+02	-2.906293e+01
3.700702e+02	-2.911353e+01
3.722077e+02	-2.916372e+01
3.743576e+02	-2.921473e+01
3.765199e+02	-2.926184e+01
3.786946e+02	-2.931644e+01
3.808820e+02	-2.935924e+01
3.830819e+02	-2.941599e+01
3.852946e+02	-2.945953e+01
3.875200e+02	-2.951141e+01
3.897583e+02	-2.956087e+01
3.920096e+02	-2.961757e+01
3.942738e+02	-2.966309e+01
3.965511e+02	-2.971765e+01
3.988416e+02	-2.976544e+01
4.011452e+02	-2.981471e+01
4.034622e+02	-2.986920e+01
4.057926e+02	-2.992090e+01
4.081365e+02	-2.996963e+01
4.104938e+02	-3.001505e+01
4.128648e+02	-3.006539e+01
4.152495e+02	-3.011623e+01
4.176480e+02	-3.016184e+01
4.200603e+02	-3.020917e+01
4.224866e+02	-3.026916e+01
4.249268e+02	-3.031434e+01
4.273812e+02	-3.036776e+01
4.298497e+02	-3.041809e+01
4.323325e+02	-3.046253e+01
4.348297e+02	-3.051931e+01
4.373412e+02	-3.056429e+01
4.398673e+02	-3.061659e+01
4.424079e+02	-3.066759e+01
4.449633e+02	-3.071785e+01
4.475334e+02	-3.077117e+01
4.501183e+02	-3.081710e+01
4.527182e+02	-3.087074e+01
4.553330e+02	-3.091978e+01
4.579630e+02	-3.096674e+01
4.606082e+02	-3.102137e+01
4.632687e+02	-3.107315e+01
4.659445e+02	-3.112223e+01
4.686358e+02	-3.117145e+01
4.713426e+02	-3.121134e+01
4.740650e+02	-3.126793e+01
4.768032e+02	-3.131345e+01
4.795572e+02	-3.136592e+01
4.823271e+02	-3.142078e+01
4.851130e+02	-3.147176e+01
4.879150e+02	-3.152141e+01
4.907332e+02	-3.156778e+01
4.935676e+02	-3.162199e+01
4.964185e+02	-3.167228e+01
4.992858e+02	-3.171979e+01
5.021696e+02	-3.177555e+01
5.050701e+02	-3.182472e+01
5.079874e+02	-3.187395e+01
5.109215e+02	-3.191985e+01
5.138726e+02	-3.196579e+01
5.168407e+02	-3.201981e+01
5.198259e+02	-3.207261e+01
5.228284e+02	-3.212263e+01
5.258482e+02	-3.216817e+01
5.288855e+02	-3.221906e+01
5.319403e+02	-3.226954e+01
5.350128e+02	-3.231588e+01
5.381030e+02	-3.237459e+01
5.412111e+02	-3.242297e+01
5.443371e+02	-3.247019e+01
5.474812e+02	-3.252051e+01
5.506434e+02	-3.257780e+01
5.538239e+02	-3.262302e+01
5.570228e+02	-3.267654e+01
5.602401e+02	-3.271805e+01
5.634760e+02	-3.277527e+01
5.667306e+02	-3.282347e+01
5.700040e+02	-3.287595e+01
5.732964e+02	-3.292778e+01
5.766077e+02	-3.297058e+01
5.799382e+02	-3.302823e+01
5.832879e+02	-3.307488e+01
5.866569e+02	-3.312660e+01
5.900454e+02	-3.317251e+01
5.934535e+02	-3.322995e+01
5.968813e+02	-3.327619e+01
6.003288e+02	-3.333170e+01
6.037963e+02	-3.337862e+01
6.072838e+02	-3.342985e+01
6.107914e+02	-3.348165e+01
6.143194e+02	-3.352320e+01
6.178676e+02	-3.357723e+01
6.214364e+02	-3.363667e+01
6.250258e+02	-3.367770e+01
6.286359e+02	-3.373369e+01
6.322669e+02	-3.378187e+01
6.359189e+02	-3.383393e+01
6.395919e+02	-3.388220e+01
6.432862e+02	-3.392727e+01
6.470017e+02	-3.398059e+01
6.507388e+02	-3.403691e+01
6.544974e+02	-3.408485e+01
6.582778e+02	-3.413173e+01
6.620800e+02	-3.418665e+01
6.659041e+02	-3.422819e+01
6.697504e+02	-3.428032e+01
6.736188e+02	-3.433674e+01
6.775096e+02	-3.438013e+01
6.814229e+02	-3.442970e+01
6.853587e+02	-3.448541e+01
6.893173e+02	-3.453168e+01
6.932988e+02	-3.458748e+01
6.973033e+02	-3.464138e+01
7.013309e+02	-3.468988e+01
