Frequency(Hz)	Magnitude(dB)
1.000000e+01	-2.091815e+00
1.005776e+01	-2.110790e+00
1.011585e+01	-2.130267e+00
1.017428e+01	-2.149767e+00
1.023305e+01	-2.169215e+00
1.029215e+01	-2.188971e+00
1.035160e+01	-2.208856e+00
1.041139e+01	-2.228983e+00
1.047153e+01	-2.249085e+00
1.053201e+01	-2.269560e+00
1.059284e+01	-2.289821e+00
1.065403e+01	-2.310328e+00
1.071556e+01	-2.331018e+00
1.077746e+01	-2.351743e+00
1.083971e+01	-2.372762e+00
1.090232e+01	-2.393911e+00
1.096529e+01	-2.415037e+00
1.102862e+01	-2.436762e+00
1.109232e+01	-2.458422e+00
1.115639e+01	-2.479985e+00
1.122083e+01	-2.501872e+00
1.128564e+01	-2.523715e+00
1.135083e+01	-2.545912e+00
1.141639e+01	-2.568180e+00
1.148233e+01	-2.590420e+00
1.154865e+01	-2.613091e+00
1.161536e+01	-2.635668e+00
1.168245e+01	-2.658484e+00
1.174992e+01	-2.681639e+00
1.181779e+01	-2.704700e+00
1.188605e+01	-2.727825e+00
1.195470e+01	-2.751349e+00
1.202375e+01	-2.775007e+00
1.209320e+01	-2.798681e+00
1.216305e+01	-2.822455e+00
1.223330e+01	-2.846465e+00
1.230396e+01	-2.870392e+00
1.237503e+01	-2.894655e+00
1.244651e+01	-2.918973e+00
1.251840e+01	-2.943866e+00
1.259070e+01	-2.968599e+00
1.266343e+01	-2.993322e+00
1.273657e+01	-3.018255e+00
1.281014e+01	-3.043429e+00
1.288413e+01	-3.068652e+00
1.295855e+01	-3.093999e+00
1.303339e+01	-3.119591e+00
1.310867e+01	-3.145188e+00
1.318439e+01	-3.171409e+00
1.326054e+01	-3.197390e+00
1.333713e+01	-3.223553e+00
1.341417e+01	-3.249594e+00
1.349165e+01	-3.276121e+00
1.356958e+01	-3.302833e+00
1.364795e+01	-3.329324e+00
1.372678e+01	-3.356282e+00
1.380607e+01	-3.383248e+00
1.388581e+01	-3.410358e+00
1.396602e+01	-3.437698e+00
1.404668e+01	-3.464952e+00
1.412782e+01	-3.492660e+00
1.420942e+01	-3.520462e+00
1.429149e+01	-3.548397e+00
1.437404e+01	-3.576011e+00
1.445706e+01	-3.604415e+00
1.454057e+01	-3.632639e+00
1.462455e+01	-3.661007e+00
1.470902e+01	-3.689381e+00
1.479398e+01	-3.718411e+00
1.487943e+01	-3.747030e+00
1.496537e+01	-3.776381e+00
1.505181e+01	-3.805295e+00
1.513875e+01	-3.834288e+00
1.522619e+01	-3.863969e+00
1.531414e+01	-3.893471e+00
1.540259e+01	-3.923093e+00
1.549156e+01	-3.953367e+00
1.558103e+01	-3.982923e+00
1.567103e+01	-4.013112e+00
1.576155e+01	-4.043298e+00
1.585258e+01	-4.073550e+00
1.594415e+01	-4.104143e+00
1.603624e+01	-4.134860e+00
1.612886e+01	-4.165759e+00
1.622202e+01	-4.196345e+00
1.631572e+01	-4.227622e+00
1.640996e+01	-4.258874e+00
1.650474e+01	-4.290241e+00
1.660008e+01	-4.321649e+00
1.669596e+01	-4.353123e+00
1.679239e+01	-4.384951e+00
1.688938e+01	-4.416919e+00
1.698694e+01	-4.448901e+00
1.708505e+01	-4.480920e+00
1.718373e+01	-4.513119e+00
1.728299e+01	-4.545828e+00
1.738281e+01	-4.577921e+00
1.748322e+01	-4.610882e+00
1.758420e+01	-4.643389e+00
1.768576e+01	-4.676598e+00
1.778792e+01	-4.709153e+00
1.789066e+01	-4.742811e+00
1.799399e+01	-4.776017e+00
1.809793e+01	-4.809391e+00
1.820246e+01	-4.843368e+00
1.830760e+01	-4.876651e+00
1.841334e+01	-4.910405e+00
1.851969e+01	-4.944425e+00
1.862666e+01	-4.978630e+00
1.873425e+01	-5.012859e+00
1.884246e+01	-5.047180e+00
1.895129e+01	-5.081667e+00
1.906075e+01	-5.115995e+00
1.917085e+01	-5.150734e+00
1.928158e+01	-5.185492e+00
1.939295e+01	-5.220386e+00
1.950496e+01	-5.255587e+00
1.961762e+01	-5.290531e+00
1.973093e+01	-5.325914e+00
1.984490e+01	-5.361169e+00
1.995952e+01	-5.397134e+00
2.007480e+01	-5.432375e+00
2.019076e+01	-5.468566e+00
2.030738e+01	-5.504296e+00
2.042467e+01	-5.540218e+00
2.054264e+01	-5.575954e+00
2.066130e+01	-5.612203e+00
2.078064e+01	-5.648595e+00
2.090066e+01	-5.685247e+00
2.102139e+01	-5.721827e+00
2.114280e+01	-5.758338e+00
2.126492e+01	-5.795239e+00
2.138775e+01	-5.832120e+00
2.151128e+01	-5.869113e+00
2.163553e+01	-5.906212e+00
2.176050e+01	-5.943602e+00
2.188619e+01	-5.980967e+00
2.201260e+01	-6.018133e+00
2.213974e+01	-6.056017e+00
2.226762e+01	-6.093695e+00
2.239624e+01	-6.131342e+00
2.252560e+01	-6.169335e+00
2.265571e+01	-6.207492e+00
2.278656e+01	-6.245526e+00
2.291818e+01	-6.283649e+00
2.305055e+01	-6.322163e+00
2.318369e+01	-6.360343e+00
2.331760e+01	-6.399072e+00
2.345228e+01	-6.437629e+00
2.358774e+01	-6.476627e+00
2.372398e+01	-6.515093e+00
2.386101e+01	-6.553671e+00
2.399883e+01	-6.592945e+00
2.413745e+01	-6.631676e+00
2.427686e+01	-6.671679e+00
2.441709e+01	-6.710373e+00
2.455812e+01	-6.750103e+00
2.469997e+01	-6.789583e+00
2.484263e+01	-6.828939e+00
2.498612e+01	-6.868966e+00
2.513044e+01	-6.908342e+00
2.527559e+01	-6.948447e+00
2.542158e+01	-6.988448e+00
2.556842e+01	-7.028345e+00
2.571610e+01	-7.068699e+00
2.586463e+01	-7.109112e+00
2.601403e+01	-7.149237e+00
2.616428e+01	-7.189685e+00
2.631541e+01	-7.230081e+00
2.646740e+01	-7.270941e+00
2.662028e+01	-7.311650e+00
2.677404e+01	-7.352386e+00
2.692868e+01	-7.393029e+00
2.708422e+01	-7.433917e+00
2.724066e+01	-7.475301e+00
2.739800e+01	-7.516524e+00
2.755625e+01	-7.557550e+00
2.771541e+01	-7.598838e+00
2.787550e+01	-7.640133e+00
2.803650e+01	-7.681829e+00
2.819844e+01	-7.722983e+00
2.836131e+01	-7.764369e+00
2.852513e+01	-7.806427e+00
2.868989e+01	-7.848584e+00
2.885560e+01	-7.890199e+00
2.902227e+01	-7.932336e+00
2.918990e+01	-7.973941e+00
2.935850e+01	-8.016230e+00
2.952807e+01	-8.058027e+00
2.969863e+01	-8.100220e+00
2.987016e+01	-8.142870e+00
3.004269e+01	-8.185211e+00
3.021622e+01	-8.227338e+00
3.039075e+01	-8.269899e+00
3.056628e+01	-8.312825e+00
3.074283e+01	-8.355507e+00
3.092040e+01	-8.398322e+00
3.109900e+01	-8.441576e+00
3.127862e+01	-8.483947e+00
3.145929e+01	-8.526840e+00
3.164099e+01	-8.570047e+00
3.182375e+01	-8.613270e+00
3.200756e+01	-8.656261e+00
3.219244e+01	-8.699698e+00
3.237838e+01	-8.742584e+00
3.256540e+01	-8.786196e+00
3.275349e+01	-8.829606e+00
3.294268e+01	-8.873082e+00
3.313295e+01	-8.916429e+00
3.332433e+01	-8.960502e+00
3.351681e+01	-9.003915e+00
3.371040e+01	-9.047636e+00
3.390511e+01	-9.091649e+00
3.410094e+01	-9.135796e+00
3.429791e+01	-9.179764e+00
3.449601e+01	-9.223329e+00
3.469526e+01	-9.267298e+00
3.489566e+01	-9.311843e+00
3.509721e+01	-9.355935e+00
3.529993e+01	-9.399586e+00
3.550382e+01	-9.444824e+00
3.570889e+01	-9.488219e+00
3.591515e+01	-9.533259e+00
3.612259e+01	-9.577648e+00
3.633123e+01	-9.622141e+00
3.654108e+01	-9.667105e+00
3.675214e+01	-9.711653e+00
3.696442e+01	-9.756062e+00
3.717792e+01	-9.800476e+00
3.739266e+01	-9.845675e+00
3.760864e+01	-9.890623e+00
3.782587e+01	-9.935614e+00
3.804435e+01	-9.980998e+00
3.826409e+01	-1.002583e+01
3.848510e+01	-1.007003e+01
3.870739e+01	-1.011593e+01
3.893096e+01	-1.016111e+01
3.915583e+01	-1.020569e+01
3.938199e+01	-1.025126e+01
3.960946e+01	-1.029620e+01
3.983824e+01	-1.034195e+01
4.006834e+01	-1.038749e+01
4.029978e+01	-1.043313e+01
4.053255e+01	-1.047865e+01
4.076666e+01	-1.052436e+01
4.100213e+01	-1.056980e+01
4.123896e+01	-1.061555e+01
4.147715e+01	-1.066129e+01
4.171672e+01	-1.070678e+01
4.195767e+01	-1.075297e+01
4.220002e+01	-1.079787e+01
4.244377e+01	-1.084390e+01
4.268892e+01	-1.089019e+01
4.293549e+01	-1.093708e+01
4.318348e+01	-1.098231e+01
4.343291e+01	-1.102834e+01
4.368377e+01	-1.107486e+01
4.393609e+01	-1.112070e+01
4.418986e+01	-1.116659e+01
4.444510e+01	-1.121272e+01
4.470182e+01	-1.125943e+01
4.496001e+01	-1.130524e+01
4.521970e+01	-1.135214e+01
4.548089e+01	-1.139841e+01
4.574358e+01	-1.144475e+01
4.600779e+01	-1.149117e+01
4.627353e+01	-1.153752e+01
4.654081e+01	-1.158377e+01
4.680963e+01	-1.163099e+01
4.708000e+01	-1.167719e+01
4.735193e+01	-1.172427e+01
4.762543e+01	-1.177036e+01
4.790051e+01	-1.181776e+01
4.817719e+01	-1.186389e+01
4.845545e+01	-1.191119e+01
4.873533e+01	-1.195793e+01
4.901682e+01	-1.200518e+01
4.929994e+01	-1.205168e+01
4.958470e+01	-1.209907e+01
4.987110e+01	-1.214519e+01
5.015915e+01	-1.219215e+01
5.044887e+01	-1.224005e+01
5.074026e+01	-1.228640e+01
5.103333e+01	-1.233383e+01
5.132810e+01	-1.238062e+01
5.162457e+01	-1.242777e+01
5.192275e+01	-1.247483e+01
5.222265e+01	-1.252240e+01
5.252429e+01	-1.256973e+01
5.282767e+01	-1.261692e+01
5.313280e+01	-1.266389e+01
5.343969e+01	-1.271161e+01
5.374836e+01	-1.275925e+01
5.405880e+01	-1.280670e+01
5.437105e+01	-1.285373e+01
5.468509e+01	-1.290054e+01
5.500095e+01	-1.294868e+01
5.531863e+01	-1.299645e+01
5.563815e+01	-1.304405e+01
5.595951e+01	-1.309080e+01
5.628273e+01	-1.313846e+01
5.660782e+01	-1.318666e+01
5.693479e+01	-1.323433e+01
5.726364e+01	-1.328174e+01
5.759439e+01	-1.332894e+01
5.792705e+01	-1.337711e+01
5.826164e+01	-1.342436e+01
5.859815e+01	-1.347249e+01
5.893662e+01	-1.351975e+01
5.927703e+01	-1.356824e+01
5.961941e+01	-1.361563e+01
5.996377e+01	-1.366421e+01
6.031012e+01	-1.371089e+01
6.065847e+01	-1.375934e+01
6.100883e+01	-1.380745e+01
6.136121e+01	-1.385585e+01
6.171563e+01	-1.390450e+01
6.207210e+01	-1.395137e+01
6.243063e+01	-1.400077e+01
6.279122e+01	-1.404711e+01
6.315390e+01	-1.409533e+01
6.351868e+01	-1.414373e+01
6.388556e+01	-1.419165e+01
6.425456e+01	-1.423921e+01
6.462569e+01	-1.428813e+01
6.499897e+01	-1.433596e+01
6.537440e+01	-1.438509e+01
6.575200e+01	-1.443159e+01
6.613178e+01	-1.448056e+01
6.651375e+01	-1.452954e+01
6.689793e+01	-1.457781e+01
6.728433e+01	-1.462601e+01
6.767297e+01	-1.467520e+01
6.806384e+01	-1.472183e+01
6.845698e+01	-1.477128e+01
6.885238e+01	-1.481953e+01
6.925007e+01	-1.486750e+01
6.965005e+01	-1.491608e+01
7.005235e+01	-1.496425e+01
7.045697e+01	-1.501312e+01
7.086393e+01	-1.506089e+01
7.127323e+01	-1.510967e+01
7.168490e+01	-1.515906e+01
7.209895e+01	-1.520680e+01
7.251539e+01	-1.525536e+01
7.293424e+01	-1.530354e+01
7.335551e+01	-1.535270e+01
7.377920e+01	-1.540075e+01
7.420535e+01	-1.544992e+01
7.463396e+01	-1.549865e+01
7.506504e+01	-1.554675e+01
7.549861e+01	-1.559454e+01
7.593469e+01	-1.564412e+01
7.637328e+01	-1.569298e+01
7.681441e+01	-1.574230e+01
7.725809e+01	-1.579038e+01
7.770433e+01	-1.583872e+01
7.815315e+01	-1.588773e+01
7.860456e+01	-1.593654e+01
7.905857e+01	-1.598539e+01
7.951521e+01	-1.603421e+01
7.997449e+01	-1.608201e+01
8.043642e+01	-1.613286e+01
8.090102e+01	-1.618054e+01
8.136830e+01	-1.622954e+01
8.183828e+01	-1.627811e+01
8.231097e+01	-1.632753e+01
8.278640e+01	-1.637650e+01
8.326457e+01	-1.642439e+01
8.374550e+01	-1.647329e+01
8.422921e+01	-1.652261e+01
8.471572e+01	-1.657130e+01
8.520503e+01	-1.662009e+01
8.569717e+01	-1.666858e+01
8.619215e+01	-1.671818e+01
8.669000e+01	-1.676754e+01
8.719071e+01	-1.681608e+01
8.769432e+01	-1.686561e+01
8.820084e+01	-1.691457e+01
8.871029e+01	-1.696207e+01
8.922267e+01	-1.701346e+01
8.973802e+01	-1.706224e+01
9.025634e+01	-1.711038e+01
9.077766e+01	-1.715958e+01
9.130199e+01	-1.720833e+01
9.182935e+01	-1.725875e+01
9.235975e+01	-1.730603e+01
9.289321e+01	-1.735500e+01
9.342976e+01	-1.740466e+01
9.396941e+01	-1.745484e+01
9.451217e+01	-1.750296e+01
9.505807e+01	-1.755225e+01
9.560712e+01	-1.760186e+01
9.615934e+01	-1.764996e+01
9.671476e+01	-1.769937e+01
9.727338e+01	-1.774862e+01
9.783522e+01	-1.779954e+01
9.840032e+01	-1.784792e+01
9.896867e+01	-1.789753e+01
9.954031e+01	-1.794680e+01
1.001153e+02	-1.799558e+01
1.006935e+02	-1.804302e+01
1.012751e+02	-1.809387e+01
1.018601e+02	-1.814322e+01
1.024484e+02	-1.819271e+01
1.030402e+02	-1.823975e+01
1.036353e+02	-1.829092e+01
1.042339e+02	-1.833937e+01
1.048360e+02	-1.839028e+01
1.054415e+02	-1.843872e+01
1.060505e+02	-1.848749e+01
1.066631e+02	-1.853564e+01
1.072791e+02	-1.858684e+01
1.078988e+02	-1.863613e+01
1.085220e+02	-1.868538e+01
1.091488e+02	-1.873507e+01
1.097793e+02	-1.878392e+01
1.104133e+02	-1.883270e+01
1.110511e+02	-1.888333e+01
1.116925e+02	-1.893139e+01
1.123376e+02	-1.898084e+01
1.129865e+02	-1.903149e+01
1.136391e+02	-1.908080e+01
1.142955e+02	-1.913023e+01
1.149556e+02	-1.918032e+01
1.156196e+02	-1.922828e+01
1.162874e+02	-1.927803e+01
1.169591e+02	-1.932766e+01
1.176347e+02	-1.937893e+01
1.183141e+02	-1.942690e+01
1.189975e+02	-1.947568e+01
1.196848e+02	-1.952397e+01
1.203761e+02	-1.957428e+01
1.210714e+02	-1.962411e+01
1.217707e+02	-1.967335e+01
1.224740e+02	-1.972133e+01
1.231814e+02	-1.977252e+01
1.238929e+02	-1.982193e+01
1.246085e+02	-1.987275e+01
1.253283e+02	-1.992111e+01
1.260522e+02	-1.997056e+01
1.267802e+02	-2.001998e+01
1.275125e+02	-2.007078e+01
1.282490e+02	-2.011997e+01
1.289898e+02	-2.016977e+01
1.297348e+02	-2.021874e+01
1.304842e+02	-2.027000e+01
1.312378e+02	-2.031739e+01
1.319959e+02	-2.036827e+01
1.327583e+02	-2.041727e+01
1.335251e+02	-2.046607e+01
1.342963e+02	-2.051621e+01
1.350720e+02	-2.056753e+01
1.358522e+02	-2.061595e+01
1.366368e+02	-2.066398e+01
1.374260e+02	-2.071443e+01
1.382198e+02	-2.076407e+01
1.390182e+02	-2.081290e+01
1.398211e+02	-2.086327e+01
1.406287e+02	-2.091277e+01
1.414410e+02	-2.096283e+01
1.422579e+02	-2.101417e+01
1.430796e+02	-2.105973e+01
1.439060e+02	-2.111238e+01
1.447372e+02	-2.116237e+01
1.455732e+02	-2.121003e+01
1.464141e+02	-2.126293e+01
1.472597e+02	-2.131065e+01
1.481103e+02	-2.136096e+01
1.489658e+02	-2.140975e+01
1.498262e+02	-2.145974e+01
1.506916e+02	-2.150950e+01
1.515620e+02	-2.155852e+01
1.524374e+02	-2.160947e+01
1.533179e+02	-2.165662e+01
1.542034e+02	-2.170795e+01
1.550941e+02	-2.175803e+01
1.559899e+02	-2.180786e+01
1.568909e+02	-2.185592e+01
1.577971e+02	-2.190497e+01
1.587085e+02	-2.195789e+01
1.596252e+02	-2.200781e+01
1.605472e+02	-2.205724e+01
1.614745e+02	-2.210749e+01
1.624072e+02	-2.215596e+01
1.633453e+02	-2.220642e+01
1.642887e+02	-2.225686e+01
1.652377e+02	-2.230762e+01
1.661921e+02	-2.235564e+01
1.671520e+02	-2.240400e+01
1.681175e+02	-2.245379e+01
1.690885e+02	-2.250181e+01
1.700651e+02	-2.255219e+01
1.710474e+02	-2.260264e+01
1.720354e+02	-2.265124e+01
1.730291e+02	-2.270501e+01
1.740285e+02	-2.275185e+01
1.750337e+02	-2.280050e+01
1.760446e+02	-2.285250e+01
1.770615e+02	-2.290213e+01
1.780842e+02	-2.295063e+01
1.791128e+02	-2.300220e+01
1.801473e+02	-2.305189e+01
1.811878e+02	-2.310215e+01
1.822344e+02	-2.315034e+01
1.832870e+02	-2.319997e+01
1.843456e+02	-2.325181e+01
1.854104e+02	-2.329846e+01
1.864813e+02	-2.335061e+01
1.875584e+02	-2.340049e+01
1.886418e+02	-2.344861e+01
1.897313e+02	-2.349937e+01
1.908272e+02	-2.354728e+01
1.919294e+02	-2.359913e+01
1.930380e+02	-2.364976e+01
1.941530e+02	-2.369958e+01
1.952744e+02	-2.374888e+01
1.964023e+02	-2.380158e+01
1.975367e+02	-2.384762e+01
1.986777e+02	-2.389499e+01
1.998252e+02	-2.395092e+01
2.009794e+02	-2.399791e+01
2.021403e+02	-2.404836e+01
2.033078e+02	-2.409469e+01
2.044821e+02	-2.414693e+01
2.056632e+02	-2.419824e+01
2.068511e+02	-2.424708e+01
2.080459e+02	-2.429895e+01
2.092475e+02	-2.434619e+01
2.104561e+02	-2.439440e+01
2.116717e+02	-2.444540e+01
2.128943e+02	-2.449704e+01
2.141240e+02	-2.454804e+01
2.153608e+02	-2.459624e+01
2.166047e+02	-2.465101e+01
2.178558e+02	-2.469653e+01
2.191141e+02	-2.474731e+01
2.203797e+02	-2.479571e+01
2.216526e+02	-2.484801e+01
2.229329e+02	-2.489694e+01
2.242205e+02	-2.494812e+01
2.255156e+02	-2.499319e+01
2.268182e+02	-2.504603e+01
2.281283e+02	-2.509445e+01
2.294459e+02	-2.514666e+01
2.307712e+02	-2.519340e+01
2.321041e+02	-2.524180e+01
2.334447e+02	-2.529797e+01
2.347931e+02	-2.534451e+01
2.361493e+02	-2.539391e+01
2.375133e+02	-2.544315e+01
2.388851e+02	-2.549469e+01
2.402649e+02	-2.554555e+01
2.416527e+02	-2.559529e+01
2.430484e+02	-2.564218e+01
2.444523e+02	-2.569513e+01
2.458642e+02	-2.574587e+01
2.472843e+02	-2.579299e+01
2.487126e+02	-2.584403e+01
2.501492e+02	-2.589650e+01
2.515940e+02	-2.594485e+01
2.530472e+02	-2.599323e+01
2.545088e+02	-2.604461e+01
2.559789e+02	-2.609290e+01
2.574574e+02	-2.614441e+01
2.589444e+02	-2.619295e+01
2.604401e+02	-2.624323e+01
2.619444e+02	-2.629152e+01
2.634574e+02	-2.634483e+01
2.649791e+02	-2.639649e+01
2.665096e+02	-2.644533e+01
2.680489e+02	-2.649227e+01
2.695972e+02	-2.654535e+01
2.711544e+02	-2.659302e+01
2.727205e+02	-2.664509e+01
2.742958e+02	-2.669719e+01
2.758801e+02	-2.674157e+01
2.774736e+02	-2.679600e+01
2.790762e+02	-2.684502e+01
2.806882e+02	-2.689581e+01
2.823094e+02	-2.694451e+01
2.839400e+02	-2.699821e+01
2.855800e+02	-2.704387e+01
2.872295e+02	-2.709196e+01
2.888886e+02	-2.714290e+01
2.905572e+02	-2.719245e+01
2.922354e+02	-2.724348e+01
2.939234e+02	-2.729206e+01
2.956211e+02	-2.734381e+01
2.973286e+02	-2.739637e+01
2.990459e+02	-2.744350e+01
3.007732e+02	-2.749488e+01
3.025104e+02	-2.754541e+01
3.042577e+02	-2.759685e+01
3.060151e+02	-2.763848e+01
3.077826e+02	-2.769596e+01
3.095604e+02	-2.774494e+01
3.113484e+02	-2.779375e+01
3.131467e+02	-2.784249e+01
3.149554e+02	-2.789283e+01
3.167746e+02	-2.794224e+01
3.186043e+02	-2.799559e+01
3.204445e+02	-2.804237e+01
3.222954e+02	-2.809496e+01
3.241570e+02	-2.814508e+01
3.260293e+02	-2.819024e+01
3.279124e+02	-2.824365e+01
3.298064e+02	-2.829676e+01
3.317114e+02	-2.834296e+01
3.336273e+02	-2.839525e+01
3.355544e+02	-2.844720e+01
3.374925e+02	-2.849216e+01
3.394418e+02	-2.854090e+01
3.414024e+02	-2.859275e+01
3.433744e+02	-2.864617e+01
3.453577e+02	-2.869421e+01
3.473525e+02	-2.874498e+01
3.493588e+02	-2.879387e+01
3.513766e+02	-2.884419e+01
3.534062e+02	-2.889288e+01
3.554474e+02	-2.894176e+01
3.575005e+02	-2.899146e+01
3.595654e+02	-2.903931e+01
3.616422e+02	-2.909768e+01
3.637311e+02	-2.914252e+01
3.658320e+02	-2.919605e+01
3.679450e+02	-2.924171e+01
3.700702e+02	-2.929248e+01
3.722077e+02	-2.934308e+01
3.743576e+02	-2.939908e+01
3.765199e+02	-2.944446e+01
3.786946e+02	-2.949586e+01
3.808820e+02	-2.954401e+01
3.830819e+02	-2.959457e+01
3.852946e+02	-2.964611e+01
3.875200e+02	-2.969576e+01
3.897583e+02	-2.974900e+01
3.920096e+02	-2.980016e+01
3.942738e+02	-2.984668e+01
3.965511e+02	-2.989480e+01
3.988416e+02	-2.994566e+01
4.011452e+02	-2.999483e+01
4.034622e+02	-3.004529e+01
4.057926e+02	-3.009487e+01
4.081365e+02	-3.014489e+01
4.104938e+02	-3.019959e+01
4.128648e+02	-3.025027e+01
4.152495e+02	-3.029641e+01
4.176480e+02	-3.034194e+01
4.200603e+02	-3.039459e+01
4.224866e+02	-3.044955e+01
4.249268e+02	-3.049813e+01
4.273812e+02	-3.054531e+01
4.298497e+02	-3.059840e+01
4.323325e+02	-3.064924e+01
4.348297e+02	-3.069691e+01
4.373412e+02	-3.074984e+01
4.398673e+02	-3.079877e+01
4.424079e+02	-3.085116e+01
4.449633e+02	-3.089949e+01
4.475334e+02	-3.095064e+01
4.501183e+02	-3.099627e+01
4.527182e+02	-3.104972e+01
4.553330e+02	-3.109577e+01
4.579630e+02	-3.114697e+01
4.606082e+02	-3.119919e+01
4.632687e+02	-3.125092e+01
4.659445e+02	-3.130438e+01
4.686358e+02	-3.135253e+01
4.713426e+02	-3.139975e+01
4.740650e+02	-3.144642e+01
4.768032e+02	-3.149467e+01
4.795572e+02	-3.154838e+01
4.823271e+02	-3.160766e+01
4.851130e+02	-3.165499e+01
4.879150e+02	-3.169796e+01
4.907332e+02	-3.175363e+01
4.935676e+02	-3.180615e+01
4.964185e+02	-3.184902e+01
4.992858e+02	-3.190421e+01
5.021696e+02	-3.195392e+01
5.050701e+02	-3.200113e+01
5.079874e+02	-3.205234e+01
5.109215e+02	-3.210735e+01
5.138726e+02	-3.214770e+01
5.168407e+02	-3.220900e+01
5.198259e+02	-3.225533e+01
5.228284e+02	-3.230289e+01
5.258482e+02	-3.235617e+01
5.288855e+02	-3.240568e+01
5.319403e+02	-3.245712e+01
5.350128e+02	-3.250313e+01
5.381030e+02	-3.255249e+01
5.412111e+02	-3.260787e+01
5.443371e+02	-3.265571e+01
5.474812e+02	-3.270059e+01
5.506434e+02	-3.275829e+01
5.538239e+02	-3.280066e+01
5.570228e+02	-3.285743e+01
5.602401e+02	-3.290887e+01
5.634760e+02	-3.295471e+01
5.667306e+02	-3.300092e+01
5.700040e+02	-3.305677e+01
5.732964e+02	-3.310632e+01
5.766077e+02	-3.315252e+01
5.799382e+02	-3.320660e+01
5.832879e+02	-3.325467e+01
5.866569e+02	-3.330812e+01
5.900454e+02	-3.336079e+01
5.934535e+02	-3.340524e+01
5.968813e+02	-3.346291e+01
6.003288e+02	-3.350784e+01
6.037963e+02	-3.355996e+01
6.072838e+02	-3.361436e+01
6.107914e+02	-3.366149e+01
6.143194e+02	-3.371969e+01
6.178676e+02	-3.376293e+01
6.214364e+02	-3.380245e+01
6.250258e+02	-3.386255e+01
6.286359e+02	-3.391084e+01
6.322669e+02	-3.397282e+01
6.359189e+02	-3.401676e+01
6.395919e+02	-3.406745e+01
6.432862e+02	-3.411542e+01
6.470017e+02	-3.415809e+01
6.507388e+02	-3.421111e+01
6.544974e+02	-3.425862e+01
6.582778e+02	-3.430900e+01
6.620800e+02	-3.437396e+01
6.659041e+02	-3.441913e+01
6.697504e+02	-3.447132e+01
6.736188e+02	-3.450980e+01
6.775096e+02	-3.456741e+01
6.814229e+02	-3.461036e+01
6.853587e+02	-3.466361e+01
6.893173e+02	-3.471387e+01
6.932988e+02	-3.476488e+01
6.973033e+02	-3.482448e+01
7.013309e+02	-3.486523e+01
