Frequency(Hz)	Magnitude(dB)
1.000000e+01	-2.094467e+00
1.005776e+01	-2.113777e+00
1.011585e+01	-2.133117e+00
1.017428e+01	-2.152444e+00
1.023305e+01	-2.171960e+00
1.029215e+01	-2.192004e+00
1.035160e+01	-2.211859e+00
1.041139e+01	-2.231778e+00
1.047153e+01	-2.252283e+00
1.053201e+01	-2.272341e+00
1.059284e+01	-2.292606e+00
1.065403e+01	-2.313329e+00
1.071556e+01	-2.334173e+00
1.077746e+01	-2.354938e+00
1.083971e+01	-2.375895e+00
1.090232e+01	-2.397029e+00
1.096529e+01	-2.418457e+00
1.102862e+01	-2.439919e+00
1.109232e+01	-2.461379e+00
1.115639e+01	-2.483193e+00
1.122083e+01	-2.504974e+00
1.128564e+01	-2.526960e+00
1.135083e+01	-2.549024e+00
1.141639e+01	-2.571254e+00
1.148233e+01	-2.593809e+00
1.154865e+01	-2.616126e+00
1.161536e+01	-2.639032e+00
1.168245e+01	-2.661950e+00
1.174992e+01	-2.684598e+00
1.181779e+01	-2.707936e+00
1.188605e+01	-2.731131e+00
1.195470e+01	-2.754580e+00
1.202375e+01	-2.778234e+00
1.209320e+01	-2.802001e+00
1.216305e+01	-2.825994e+00
1.223330e+01	-2.849855e+00
1.230396e+01	-2.874165e+00
1.237503e+01	-2.898263e+00
1.244651e+01	-2.922745e+00
1.251840e+01	-2.947392e+00
1.259070e+01	-2.972031e+00
1.266343e+01	-2.997029e+00
1.273657e+01	-3.021739e+00
1.281014e+01	-3.047110e+00
1.288413e+01	-3.072243e+00
1.295855e+01	-3.097807e+00
1.303339e+01	-3.123529e+00
1.310867e+01	-3.149268e+00
1.318439e+01	-3.175158e+00
1.326054e+01	-3.200996e+00
1.333713e+01	-3.227075e+00
1.341417e+01	-3.253538e+00
1.349165e+01	-3.279863e+00
1.356958e+01	-3.306326e+00
1.364795e+01	-3.333376e+00
1.372678e+01	-3.360413e+00
1.380607e+01	-3.387194e+00
1.388581e+01	-3.414362e+00
1.396602e+01	-3.441365e+00
1.404668e+01	-3.468979e+00
1.412782e+01	-3.496669e+00
1.420942e+01	-3.524595e+00
1.429149e+01	-3.551896e+00
1.437404e+01	-3.580260e+00
1.445706e+01	-3.608649e+00
1.454057e+01	-3.636696e+00
1.462455e+01	-3.665270e+00
1.470902e+01	-3.693571e+00
1.479398e+01	-3.722269e+00
1.487943e+01	-3.751335e+00
1.496537e+01	-3.780444e+00
1.505181e+01	-3.809426e+00
1.513875e+01	-3.838946e+00
1.522619e+01	-3.868222e+00
1.531414e+01	-3.897940e+00
1.540259e+01	-3.927442e+00
1.549156e+01	-3.957228e+00
1.558103e+01	-3.987250e+00
1.567103e+01	-4.017187e+00
1.576155e+01	-4.047742e+00
1.585258e+01	-4.078030e+00
1.594415e+01	-4.108773e+00
1.603624e+01	-4.139728e+00
1.612886e+01	-4.169998e+00
1.622202e+01	-4.201207e+00
1.631572e+01	-4.232308e+00
1.640996e+01	-4.263441e+00
1.650474e+01	-4.294883e+00
1.660008e+01	-4.326381e+00
1.669596e+01	-4.357836e+00
1.679239e+01	-4.389454e+00
1.688938e+01	-4.421430e+00
1.698694e+01	-4.453162e+00
1.708505e+01	-4.485641e+00
1.718373e+01	-4.518000e+00
1.728299e+01	-4.550297e+00
1.738281e+01	-4.582888e+00
1.748322e+01	-4.615757e+00
1.758420e+01	-4.648398e+00
1.768576e+01	-4.681746e+00
1.778792e+01	-4.714465e+00
1.789066e+01	-4.747716e+00
1.799399e+01	-4.780861e+00
1.809793e+01	-4.814284e+00
1.820246e+01	-4.847757e+00
1.830760e+01	-4.881488e+00
1.841334e+01	-4.915398e+00
1.851969e+01	-4.949376e+00
1.862666e+01	-4.983486e+00
1.873425e+01	-5.017593e+00
1.884246e+01	-5.052263e+00
1.895129e+01	-5.086535e+00
1.906075e+01	-5.121247e+00
1.917085e+01	-5.155746e+00
1.928158e+01	-5.190316e+00
1.939295e+01	-5.225702e+00
1.950496e+01	-5.260860e+00
1.961762e+01	-5.295513e+00
1.973093e+01	-5.331156e+00
1.984490e+01	-5.366460e+00
1.995952e+01	-5.402410e+00
2.007480e+01	-5.437492e+00
2.019076e+01	-5.473610e+00
2.030738e+01	-5.509425e+00
2.042467e+01	-5.545604e+00
2.054264e+01	-5.581386e+00
2.066130e+01	-5.617982e+00
2.078064e+01	-5.654155e+00
2.090066e+01	-5.690652e+00
2.102139e+01	-5.727291e+00
2.114280e+01	-5.764126e+00
2.126492e+01	-5.800963e+00
2.138775e+01	-5.838097e+00
2.151128e+01	-5.874693e+00
2.163553e+01	-5.911765e+00
2.176050e+01	-5.948957e+00
2.188619e+01	-5.986156e+00
2.201260e+01	-6.023975e+00
2.213974e+01	-6.061336e+00
2.226762e+01	-6.099240e+00
2.239624e+01	-6.137115e+00
2.252560e+01	-6.175146e+00
2.265571e+01	-6.212761e+00
2.278656e+01	-6.251028e+00
2.291818e+01	-6.289153e+00
2.305055e+01	-6.327437e+00
2.318369e+01	-6.366215e+00
2.331760e+01	-6.404519e+00
2.345228e+01	-6.443590e+00
2.358774e+01	-6.481963e+00
2.372398e+01	-6.520735e+00
2.386101e+01	-6.559480e+00
2.399883e+01	-6.598837e+00
2.413745e+01	-6.637946e+00
2.427686e+01	-6.677371e+00
2.441709e+01	-6.716446e+00
2.455812e+01	-6.755992e+00
2.469997e+01	-6.795152e+00
2.484263e+01	-6.834793e+00
2.498612e+01	-6.874333e+00
2.513044e+01	-6.914432e+00
2.527559e+01	-6.954165e+00
2.542158e+01	-6.994171e+00
2.556842e+01	-7.034399e+00
2.571610e+01	-7.074321e+00
2.586463e+01	-7.114921e+00
2.601403e+01	-7.155354e+00
2.616428e+01	-7.195808e+00
2.631541e+01	-7.235973e+00
2.646740e+01	-7.276620e+00
2.662028e+01	-7.317694e+00
2.677404e+01	-7.357752e+00
2.692868e+01	-7.399239e+00
2.708422e+01	-7.439868e+00
2.724066e+01	-7.480980e+00
2.739800e+01	-7.522462e+00
2.755625e+01	-7.563498e+00
2.771541e+01	-7.604796e+00
2.787550e+01	-7.646084e+00
2.803650e+01	-7.687551e+00
2.819844e+01	-7.729108e+00
2.836131e+01	-7.770473e+00
2.852513e+01	-7.812571e+00
2.868989e+01	-7.853970e+00
2.885560e+01	-7.896039e+00
2.902227e+01	-7.937904e+00
2.918990e+01	-7.980075e+00
2.935850e+01	-8.022497e+00
2.952807e+01	-8.064156e+00
2.969863e+01	-8.106817e+00
2.987016e+01	-8.148954e+00
3.004269e+01	-8.191168e+00
3.021622e+01	-8.234043e+00
3.039075e+01	-8.276439e+00
3.056628e+01	-8.319013e+00
3.074283e+01	-8.361724e+00
3.092040e+01	-8.404342e+00
3.109900e+01	-8.447574e+00
3.127862e+01	-8.490182e+00
3.145929e+01	-8.533254e+00
3.164099e+01	-8.575793e+00
3.182375e+01	-8.619506e+00
3.200756e+01	-8.662325e+00
3.219244e+01	-8.705918e+00
3.237838e+01	-8.748959e+00
3.256540e+01	-8.792386e+00
3.275349e+01	-8.835595e+00
3.294268e+01	-8.879542e+00
3.313295e+01	-8.923054e+00
3.332433e+01	-8.966887e+00
3.351681e+01	-9.010547e+00
3.371040e+01	-9.054134e+00
3.390511e+01	-9.097539e+00
3.410094e+01	-9.142399e+00
3.429791e+01	-9.185500e+00
3.449601e+01	-9.229715e+00
3.469526e+01	-9.273866e+00
3.489566e+01	-9.318517e+00
3.509721e+01	-9.362916e+00
3.529993e+01	-9.406515e+00
3.550382e+01	-9.450919e+00
3.570889e+01	-9.495034e+00
3.591515e+01	-9.540034e+00
3.612259e+01	-9.584219e+00
3.633123e+01	-9.628802e+00
3.654108e+01	-9.673385e+00
3.675214e+01	-9.717767e+00
3.696442e+01	-9.762559e+00
3.717792e+01	-9.807572e+00
3.739266e+01	-9.852136e+00
3.760864e+01	-9.897176e+00
3.782587e+01	-9.942113e+00
3.804435e+01	-9.986659e+00
3.826409e+01	-1.003206e+01
3.848510e+01	-1.007735e+01
3.870739e+01	-1.012289e+01
3.893096e+01	-1.016747e+01
3.915583e+01	-1.021278e+01
3.938199e+01	-1.025838e+01
3.960946e+01	-1.030309e+01
3.983824e+01	-1.034902e+01
4.006834e+01	-1.039435e+01
4.029978e+01	-1.043961e+01
4.053255e+01	-1.048502e+01
4.076666e+01	-1.053109e+01
4.100213e+01	-1.057652e+01
4.123896e+01	-1.062149e+01
4.147715e+01	-1.066790e+01
4.171672e+01	-1.071358e+01
4.195767e+01	-1.076001e+01
4.220002e+01	-1.080527e+01
4.244377e+01	-1.085099e+01
4.268892e+01	-1.089767e+01
4.293549e+01	-1.094352e+01
4.318348e+01	-1.098929e+01
4.343291e+01	-1.103447e+01
4.368377e+01	-1.108132e+01
4.393609e+01	-1.112825e+01
4.418986e+01	-1.117335e+01
4.444510e+01	-1.121994e+01
4.470182e+01	-1.126623e+01
4.496001e+01	-1.131209e+01
4.521970e+01	-1.135883e+01
4.548089e+01	-1.140472e+01
4.574358e+01	-1.145156e+01
4.600779e+01	-1.149777e+01
4.627353e+01	-1.154388e+01
4.654081e+01	-1.159103e+01
4.680963e+01	-1.163803e+01
4.708000e+01	-1.168432e+01
4.735193e+01	-1.173079e+01
4.762543e+01	-1.177740e+01
4.790051e+01	-1.182412e+01
4.817719e+01	-1.187117e+01
4.845545e+01	-1.191793e+01
4.873533e+01	-1.196489e+01
4.901682e+01	-1.201204e+01
4.929994e+01	-1.205839e+01
4.958470e+01	-1.210526e+01
4.987110e+01	-1.215187e+01
5.015915e+01	-1.219928e+01
5.044887e+01	-1.224670e+01
5.074026e+01	-1.229320e+01
5.103333e+01	-1.234073e+01
5.132810e+01	-1.238747e+01
5.162457e+01	-1.243474e+01
5.192275e+01	-1.248250e+01
5.222265e+01	-1.252861e+01
5.252429e+01	-1.257729e+01
5.282767e+01	-1.262386e+01
5.313280e+01	-1.267128e+01
5.343969e+01	-1.271837e+01
5.374836e+01	-1.276628e+01
5.405880e+01	-1.281333e+01
5.437105e+01	-1.286005e+01
5.468509e+01	-1.290814e+01
5.500095e+01	-1.295538e+01
5.531863e+01	-1.300327e+01
5.563815e+01	-1.305075e+01
5.595951e+01	-1.309802e+01
5.628273e+01	-1.314559e+01
5.660782e+01	-1.319318e+01
5.693479e+01	-1.324059e+01
5.726364e+01	-1.328936e+01
5.759439e+01	-1.333621e+01
5.792705e+01	-1.338395e+01
5.826164e+01	-1.343070e+01
5.859815e+01	-1.347947e+01
5.893662e+01	-1.352774e+01
5.927703e+01	-1.357498e+01
5.961941e+01	-1.362384e+01
5.996377e+01	-1.367046e+01
6.031012e+01	-1.371854e+01
6.065847e+01	-1.376671e+01
6.100883e+01	-1.381557e+01
6.136121e+01	-1.386307e+01
6.171563e+01	-1.391079e+01
6.207210e+01	-1.395870e+01
6.243063e+01	-1.400668e+01
6.279122e+01	-1.405477e+01
6.315390e+01	-1.410222e+01
6.351868e+01	-1.415097e+01
6.388556e+01	-1.419885e+01
6.425456e+01	-1.424761e+01
6.462569e+01	-1.429524e+01
6.499897e+01	-1.434377e+01
6.537440e+01	-1.439181e+01
6.575200e+01	-1.443920e+01
6.613178e+01	-1.448743e+01
6.651375e+01	-1.453631e+01
6.689793e+01	-1.458486e+01
6.728433e+01	-1.463322e+01
6.767297e+01	-1.468133e+01
6.806384e+01	-1.472881e+01
6.845698e+01	-1.477684e+01
6.885238e+01	-1.482660e+01
6.925007e+01	-1.487486e+01
6.965005e+01	-1.492193e+01
7.005235e+01	-1.497137e+01
7.045697e+01	-1.501946e+01
7.086393e+01	-1.506811e+01
7.127323e+01	-1.511714e+01
7.168490e+01	-1.516528e+01
7.209895e+01	-1.521380e+01
7.251539e+01	-1.526318e+01
7.293424e+01	-1.531131e+01
7.335551e+01	-1.535991e+01
7.377920e+01	-1.540816e+01
7.420535e+01	-1.545671e+01
7.463396e+01	-1.550465e+01
7.506504e+01	-1.555349e+01
7.549861e+01	-1.560269e+01
7.593469e+01	-1.565010e+01
7.637328e+01	-1.569932e+01
7.681441e+01	-1.574789e+01
7.725809e+01	-1.579703e+01
7.770433e+01	-1.584601e+01
7.815315e+01	-1.589477e+01
7.860456e+01	-1.594316e+01
7.905857e+01	-1.599313e+01
7.951521e+01	-1.604102e+01
7.997449e+01	-1.609019e+01
8.043642e+01	-1.613837e+01
8.090102e+01	-1.618847e+01
8.136830e+01	-1.623640e+01
8.183828e+01	-1.628584e+01
8.231097e+01	-1.633432e+01
8.278640e+01	-1.638340e+01
8.326457e+01	-1.643109e+01
8.374550e+01	-1.648102e+01
8.422921e+01	-1.653001e+01
8.471572e+01	-1.657817e+01
8.520503e+01	-1.662793e+01
8.569717e+01	-1.667605e+01
8.619215e+01	-1.672596e+01
8.669000e+01	-1.677436e+01
8.719071e+01	-1.682269e+01
8.769432e+01	-1.687363e+01
8.820084e+01	-1.692114e+01
8.871029e+01	-1.697117e+01
8.922267e+01	-1.701987e+01
8.973802e+01	-1.706891e+01
9.025634e+01	-1.711703e+01
9.077766e+01	-1.716632e+01
9.130199e+01	-1.721598e+01
9.182935e+01	-1.726560e+01
9.235975e+01	-1.731270e+01
9.289321e+01	-1.736419e+01
9.342976e+01	-1.741218e+01
9.396941e+01	-1.746143e+01
9.451217e+01	-1.751074e+01
9.505807e+01	-1.755927e+01
9.560712e+01	-1.760896e+01
9.615934e+01	-1.765683e+01
9.671476e+01	-1.770666e+01
9.727338e+01	-1.775662e+01
9.783522e+01	-1.780561e+01
9.840032e+01	-1.785473e+01
9.896867e+01	-1.790249e+01
9.954031e+01	-1.795245e+01
1.001153e+02	-1.800262e+01
1.006935e+02	-1.805255e+01
1.012751e+02	-1.810123e+01
1.018601e+02	-1.815103e+01
1.024484e+02	-1.819939e+01
1.030402e+02	-1.824934e+01
1.036353e+02	-1.829738e+01
1.042339e+02	-1.834661e+01
1.048360e+02	-1.839729e+01
1.054415e+02	-1.844491e+01
1.060505e+02	-1.849567e+01
1.066631e+02	-1.854322e+01
1.072791e+02	-1.859350e+01
1.078988e+02	-1.864380e+01
1.085220e+02	-1.869162e+01
1.091488e+02	-1.874232e+01
1.097793e+02	-1.879143e+01
1.104133e+02	-1.884161e+01
1.110511e+02	-1.889054e+01
1.116925e+02	-1.893868e+01
1.123376e+02	-1.898767e+01
1.129865e+02	-1.903931e+01
1.136391e+02	-1.908798e+01
1.142955e+02	-1.913629e+01
1.149556e+02	-1.918670e+01
1.156196e+02	-1.923654e+01
1.162874e+02	-1.928608e+01
1.169591e+02	-1.933338e+01
1.176347e+02	-1.938467e+01
1.183141e+02	-1.943379e+01
1.189975e+02	-1.948396e+01
1.196848e+02	-1.953254e+01
1.203761e+02	-1.958089e+01
1.210714e+02	-1.963145e+01
1.217707e+02	-1.968133e+01
1.224740e+02	-1.973153e+01
1.231814e+02	-1.977945e+01
1.238929e+02	-1.982744e+01
1.246085e+02	-1.987779e+01
1.253283e+02	-1.992883e+01
1.260522e+02	-1.997825e+01
1.267802e+02	-2.002607e+01
1.275125e+02	-2.007664e+01
1.282490e+02	-2.012751e+01
1.289898e+02	-2.017528e+01
1.297348e+02	-2.022503e+01
1.304842e+02	-2.027698e+01
1.312378e+02	-2.032583e+01
1.319959e+02	-2.037477e+01
1.327583e+02	-2.042649e+01
1.335251e+02	-2.047342e+01
1.342963e+02	-2.052424e+01
1.350720e+02	-2.057438e+01
1.358522e+02	-2.062304e+01
1.366368e+02	-2.067230e+01
1.374260e+02	-2.072151e+01
1.382198e+02	-2.077109e+01
1.390182e+02	-2.082020e+01
1.398211e+02	-2.087127e+01
1.406287e+02	-2.092040e+01
1.414410e+02	-2.096873e+01
1.422579e+02	-2.101870e+01
1.430796e+02	-2.106982e+01
1.439060e+02	-2.111998e+01
1.447372e+02	-2.116821e+01
1.455732e+02	-2.121840e+01
1.464141e+02	-2.126931e+01
1.472597e+02	-2.131759e+01
1.481103e+02	-2.136729e+01
1.489658e+02	-2.141521e+01
1.498262e+02	-2.146595e+01
1.506916e+02	-2.151720e+01
1.515620e+02	-2.156615e+01
1.524374e+02	-2.161729e+01
1.533179e+02	-2.166604e+01
1.542034e+02	-2.171588e+01
1.550941e+02	-2.176518e+01
1.559899e+02	-2.181484e+01
1.568909e+02	-2.186351e+01
1.577971e+02	-2.191435e+01
1.587085e+02	-2.196256e+01
1.596252e+02	-2.200992e+01
1.605472e+02	-2.206340e+01
1.614745e+02	-2.211159e+01
1.624072e+02	-2.216273e+01
1.633453e+02	-2.221225e+01
1.642887e+02	-2.226258e+01
1.652377e+02	-2.231203e+01
1.661921e+02	-2.236224e+01
1.671520e+02	-2.241244e+01
1.681175e+02	-2.245905e+01
1.690885e+02	-2.250962e+01
1.700651e+02	-2.255904e+01
1.710474e+02	-2.260948e+01
1.720354e+02	-2.265751e+01
1.730291e+02	-2.271130e+01
1.740285e+02	-2.275968e+01
1.750337e+02	-2.281066e+01
1.760446e+02	-2.286053e+01
1.770615e+02	-2.290854e+01
1.780842e+02	-2.295922e+01
1.791128e+02	-2.300846e+01
1.801473e+02	-2.305835e+01
1.811878e+02	-2.310564e+01
1.822344e+02	-2.315551e+01
1.832870e+02	-2.320970e+01
1.843456e+02	-2.325678e+01
1.854104e+02	-2.330675e+01
1.864813e+02	-2.335840e+01
1.875584e+02	-2.340502e+01
1.886418e+02	-2.345807e+01
1.897313e+02	-2.350623e+01
1.908272e+02	-2.355813e+01
1.919294e+02	-2.360530e+01
1.930380e+02	-2.365466e+01
1.941530e+02	-2.370653e+01
1.952744e+02	-2.375473e+01
1.964023e+02	-2.380635e+01
1.975367e+02	-2.385617e+01
1.986777e+02	-2.390722e+01
1.998252e+02	-2.395530e+01
2.009794e+02	-2.400694e+01
2.021403e+02	-2.405323e+01
2.033078e+02	-2.410587e+01
2.044821e+02	-2.415323e+01
2.056632e+02	-2.420432e+01
2.068511e+02	-2.425351e+01
2.080459e+02	-2.430540e+01
2.092475e+02	-2.435236e+01
2.104561e+02	-2.440376e+01
2.116717e+02	-2.445329e+01
2.128943e+02	-2.450666e+01
2.141240e+02	-2.455638e+01
2.153608e+02	-2.460507e+01
2.166047e+02	-2.465360e+01
2.178558e+02	-2.470215e+01
2.191141e+02	-2.475349e+01
2.203797e+02	-2.480310e+01
2.216526e+02	-2.485289e+01
2.229329e+02	-2.490488e+01
2.242205e+02	-2.495590e+01
2.255156e+02	-2.499980e+01
2.268182e+02	-2.505091e+01
2.281283e+02	-2.510250e+01
2.294459e+02	-2.515219e+01
2.307712e+02	-2.520291e+01
2.321041e+02	-2.525470e+01
2.334447e+02	-2.530165e+01
2.347931e+02	-2.535273e+01
2.361493e+02	-2.540078e+01
2.375133e+02	-2.545085e+01
2.388851e+02	-2.550252e+01
2.402649e+02	-2.555491e+01
2.416527e+02	-2.560327e+01
2.430484e+02	-2.565485e+01
2.444523e+02	-2.570151e+01
2.458642e+02	-2.574981e+01
2.472843e+02	-2.580104e+01
2.487126e+02	-2.585061e+01
2.501492e+02	-2.590304e+01
2.515940e+02	-2.595213e+01
2.530472e+02	-2.600270e+01
2.545088e+02	-2.605138e+01
2.559789e+02	-2.610277e+01
2.574574e+02	-2.615302e+01
2.589444e+02	-2.620165e+01
2.604401e+02	-2.625290e+01
2.619444e+02	-2.630379e+01
2.634574e+02	-2.635170e+01
2.649791e+02	-2.640093e+01
2.665096e+02	-2.644846e+01
2.680489e+02	-2.650114e+01
2.695972e+02	-2.655137e+01
2.711544e+02	-2.660001e+01
2.727205e+02	-2.665194e+01
2.742958e+02	-2.670155e+01
2.758801e+02	-2.675085e+01
2.774736e+02	-2.680131e+01
2.790762e+02	-2.685440e+01
2.806882e+02	-2.690285e+01
2.823094e+02	-2.694839e+01
2.839400e+02	-2.700143e+01
2.855800e+02	-2.704959e+01
2.872295e+02	-2.710347e+01
2.888886e+02	-2.714973e+01
2.905572e+02	-2.720138e+01
2.922354e+02	-2.725349e+01
2.939234e+02	-2.730007e+01
2.956211e+02	-2.735348e+01
2.973286e+02	-2.740139e+01
2.990459e+02	-2.745037e+01
3.007732e+02	-2.750165e+01
3.025104e+02	-2.754903e+01
3.042577e+02	-2.760305e+01
3.060151e+02	-2.765055e+01
3.077826e+02	-2.770273e+01
3.095604e+02	-2.775220e+01
3.113484e+02	-2.780067e+01
3.131467e+02	-2.785479e+01
3.149554e+02	-2.790134e+01
3.167746e+02	-2.795020e+01
3.186043e+02	-2.800232e+01
3.204445e+02	-2.805165e+01
3.222954e+02	-2.809907e+01
3.241570e+02	-2.815208e+01
3.260293e+02	-2.820482e+01
3.279124e+02	-2.824915e+01
3.298064e+02	-2.829940e+01
3.317114e+02	-2.835461e+01
3.336273e+02	-2.840056e+01
3.355544e+02	-2.845294e+01
3.374925e+02	-2.850062e+01
3.394418e+02	-2.855008e+01
3.414024e+02	-2.860147e+01
3.433744e+02	-2.865658e+01
3.453577e+02	-2.870112e+01
3.473525e+02	-2.875030e+01
3.493588e+02	-2.880434e+01
3.513766e+02	-2.885327e+01
3.534062e+02	-2.890243e+01
3.554474e+02	-2.895114e+01
3.575005e+02	-2.900830e+01
3.595654e+02	-2.904961e+01
3.616422e+02	-2.910341e+01
3.637311e+02	-2.915223e+01
3.658320e+02	-2.920050e+01
3.679450e+02	-2.925637e+01
3.700702e+02	-2.930306e+01
3.722077e+02	-2.935217e+01
3.743576e+02	-2.940846e+01
3.765199e+02	-2.945367e+01
3.786946e+02	-2.949962e+01
3.808820e+02	-2.955299e+01
3.830819e+02	-2.960670e+01
3.852946e+02	-2.964831e+01
3.875200e+02	-2.970245e+01
3.897583e+02	-2.975159e+01
3.920096e+02	-2.980201e+01
3.942738e+02	-2.984935e+01
3.965511e+02	-2.990334e+01
3.988416e+02	-2.995691e+01
4.011452e+02	-2.999925e+01
4.034622e+02	-3.005961e+01
4.057926e+02	-3.010360e+01
4.081365e+02	-3.015347e+01
4.104938e+02	-3.020349e+01
4.128648e+02	-3.025614e+01
4.152495e+02	-3.030001e+01
4.176480e+02	-3.035836e+01
4.200603e+02	-3.040817e+01
4.224866e+02	-3.045292e+01
4.249268e+02	-3.050348e+01
4.273812e+02	-3.055037e+01
4.298497e+02	-3.060092e+01
4.323325e+02	-3.066085e+01
4.348297e+02	-3.070249e+01
4.373412e+02	-3.075452e+01
4.398673e+02	-3.080536e+01
4.424079e+02	-3.085684e+01
4.449633e+02	-3.090916e+01
4.475334e+02	-3.095294e+01
4.501183e+02	-3.100765e+01
4.527182e+02	-3.105827e+01
4.553330e+02	-3.110132e+01
4.579630e+02	-3.115272e+01
4.606082e+02	-3.120510e+01
4.632687e+02	-3.125380e+01
4.659445e+02	-3.130507e+01
4.686358e+02	-3.135611e+01
4.713426e+02	-3.141171e+01
4.740650e+02	-3.145877e+01
4.768032e+02	-3.150939e+01
4.795572e+02	-3.155746e+01
4.823271e+02	-3.160827e+01
4.851130e+02	-3.166438e+01
4.879150e+02	-3.170678e+01
4.907332e+02	-3.176118e+01
4.935676e+02	-3.181305e+01
4.964185e+02	-3.185446e+01
4.992858e+02	-3.191201e+01
5.021696e+02	-3.195834e+01
5.050701e+02	-3.201086e+01
5.079874e+02	-3.206121e+01
5.109215e+02	-3.211038e+01
5.138726e+02	-3.216060e+01
5.168407e+02	-3.221496e+01
5.198259e+02	-3.226122e+01
5.228284e+02	-3.230815e+01
5.258482e+02	-3.236410e+01
5.288855e+02	-3.241128e+01
5.319403e+02	-3.246248e+01
5.350128e+02	-3.250840e+01
5.381030e+02	-3.255789e+01
5.412111e+02	-3.261727e+01
5.443371e+02	-3.266028e+01
5.474812e+02	-3.271373e+01
5.506434e+02	-3.276183e+01
5.538239e+02	-3.281008e+01
5.570228e+02	-3.285855e+01
5.602401e+02	-3.290675e+01
5.634760e+02	-3.296313e+01
5.667306e+02	-3.301703e+01
5.700040e+02	-3.306664e+01
5.732964e+02	-3.311545e+01
5.766077e+02	-3.317292e+01
5.799382e+02	-3.321469e+01
5.832879e+02	-3.325948e+01
5.866569e+02	-3.331840e+01
5.900454e+02	-3.336925e+01
5.934535e+02	-3.340822e+01
5.968813e+02	-3.346947e+01
6.003288e+02	-3.351080e+01
6.037963e+02	-3.357412e+01
6.072838e+02	-3.362016e+01
6.107914e+02	-3.367003e+01
6.143194e+02	-3.372051e+01
6.178676e+02	-3.376596e+01
6.214364e+02	-3.382285e+01
6.250258e+02	-3.387063e+01
6.286359e+02	-3.391752e+01
6.322669e+02	-3.396941e+01
6.359189e+02	-3.402255e+01
6.395919e+02	-3.407082e+01
6.432862e+02	-3.411760e+01
6.470017e+02	-3.417619e+01
6.507388e+02	-3.422394e+01
6.544974e+02	-3.427222e+01
6.582778e+02	-3.431576e+01
6.620800e+02	-3.437008e+01
6.659041e+02	-3.441382e+01
6.697504e+02	-3.447313e+01
6.736188e+02	-3.452576e+01
6.775096e+02	-3.457394e+01
6.814229e+02	-3.462208e+01
6.853587e+02	-3.467766e+01
6.893173e+02	-3.472298e+01
6.932988e+02	-3.477084e+01
6.973033e+02	-3.482870e+01
7.013309e+02	-3.488079e+01
