Frequency(Hz)	Magnitude(dB)
1.000000e+01	-2.081715e+00
1.005776e+01	-2.101000e+00
1.011585e+01	-2.119981e+00
1.017428e+01	-2.139446e+00
1.023305e+01	-2.159007e+00
1.029215e+01	-2.178688e+00
1.035160e+01	-2.198752e+00
1.041139e+01	-2.218314e+00
1.047153e+01	-2.238519e+00
1.053201e+01	-2.258794e+00
1.059284e+01	-2.279018e+00
1.065403e+01	-2.299713e+00
1.071556e+01	-2.320295e+00
1.077746e+01	-2.340968e+00
1.083971e+01	-2.362026e+00
1.090232e+01	-2.383038e+00
1.096529e+01	-2.404132e+00
1.102862e+01	-2.425639e+00
1.109232e+01	-2.446992e+00
1.115639e+01	-2.468798e+00
1.122083e+01	-2.490311e+00
1.128564e+01	-2.512156e+00
1.135083e+01	-2.534411e+00
1.141639e+01	-2.556606e+00
1.148233e+01	-2.578782e+00
1.154865e+01	-2.601375e+00
1.161536e+01	-2.624007e+00
1.168245e+01	-2.646793e+00
1.174992e+01	-2.669505e+00
1.181779e+01	-2.692439e+00
1.188605e+01	-2.715970e+00
1.195470e+01	-2.739292e+00
1.202375e+01	-2.762655e+00
1.209320e+01	-2.786288e+00
1.216305e+01	-2.810165e+00
1.223330e+01	-2.834206e+00
1.230396e+01	-2.857934e+00
1.237503e+01	-2.882298e+00
1.244651e+01	-2.906492e+00
1.251840e+01	-2.931207e+00
1.259070e+01	-2.955441e+00
1.266343e+01	-2.980380e+00
1.273657e+01	-3.005196e+00
1.281014e+01	-3.030448e+00
1.288413e+01	-3.055615e+00
1.295855e+01	-3.080797e+00
1.303339e+01	-3.106408e+00
1.310867e+01	-3.132131e+00
1.318439e+01	-3.158127e+00
1.326054e+01	-3.183832e+00
1.333713e+01	-3.209411e+00
1.341417e+01	-3.235826e+00
1.349165e+01	-3.262419e+00
1.356958e+01	-3.288906e+00
1.364795e+01	-3.315459e+00
1.372678e+01	-3.342215e+00
1.380607e+01	-3.369298e+00
1.388581e+01	-3.396410e+00
1.396602e+01	-3.423355e+00
1.404668e+01	-3.450713e+00
1.412782e+01	-3.478223e+00
1.420942e+01	-3.506210e+00
1.429149e+01	-3.533716e+00
1.437404e+01	-3.561651e+00
1.445706e+01	-3.589889e+00
1.454057e+01	-3.617724e+00
1.462455e+01	-3.646404e+00
1.470902e+01	-3.674933e+00
1.479398e+01	-3.703663e+00
1.487943e+01	-3.731958e+00
1.496537e+01	-3.761209e+00
1.505181e+01	-3.790126e+00
1.513875e+01	-3.819286e+00
1.522619e+01	-3.848777e+00
1.531414e+01	-3.878088e+00
1.540259e+01	-3.907416e+00
1.549156e+01	-3.937428e+00
1.558103e+01	-3.967455e+00
1.567103e+01	-3.997495e+00
1.576155e+01	-4.027487e+00
1.585258e+01	-4.057832e+00
1.594415e+01	-4.088220e+00
1.603624e+01	-4.118895e+00
1.612886e+01	-4.149606e+00
1.622202e+01	-4.180554e+00
1.631572e+01	-4.211536e+00
1.640996e+01	-4.242844e+00
1.650474e+01	-4.274008e+00
1.660008e+01	-4.305492e+00
1.669596e+01	-4.336839e+00
1.679239e+01	-4.368465e+00
1.688938e+01	-4.400386e+00
1.698694e+01	-4.432526e+00
1.708505e+01	-4.464297e+00
1.718373e+01	-4.496584e+00
1.728299e+01	-4.528749e+00
1.738281e+01	-4.561269e+00
1.748322e+01	-4.593799e+00
1.758420e+01	-4.626365e+00
1.768576e+01	-4.659240e+00
1.778792e+01	-4.692348e+00
1.789066e+01	-4.725371e+00
1.799399e+01	-4.758487e+00
1.809793e+01	-4.792271e+00
1.820246e+01	-4.825571e+00
1.830760e+01	-4.859359e+00
1.841334e+01	-4.893055e+00
1.851969e+01	-4.926701e+00
1.862666e+01	-4.960727e+00
1.873425e+01	-4.994818e+00
1.884246e+01	-5.029050e+00
1.895129e+01	-5.063784e+00
1.906075e+01	-5.098032e+00
1.917085e+01	-5.133106e+00
1.928158e+01	-5.167884e+00
1.939295e+01	-5.202338e+00
1.950496e+01	-5.237476e+00
1.961762e+01	-5.272538e+00
1.973093e+01	-5.307749e+00
1.984490e+01	-5.342786e+00
1.995952e+01	-5.378350e+00
2.007480e+01	-5.413927e+00
2.019076e+01	-5.449971e+00
2.030738e+01	-5.485425e+00
2.042467e+01	-5.521603e+00
2.054264e+01	-5.557761e+00
2.066130e+01	-5.593425e+00
2.078064e+01	-5.629966e+00
2.090066e+01	-5.666285e+00
2.102139e+01	-5.702948e+00
2.114280e+01	-5.739767e+00
2.126492e+01	-5.776264e+00
2.138775e+01	-5.813013e+00
2.151128e+01	-5.850089e+00
2.163553e+01	-5.887035e+00
2.176050e+01	-5.924385e+00
2.188619e+01	-5.961613e+00
2.201260e+01	-5.998853e+00
2.213974e+01	-6.036498e+00
2.226762e+01	-6.074031e+00
2.239624e+01	-6.112007e+00
2.252560e+01	-6.149667e+00
2.265571e+01	-6.188113e+00
2.278656e+01	-6.225908e+00
2.291818e+01	-6.264019e+00
2.305055e+01	-6.302458e+00
2.318369e+01	-6.340275e+00
2.331760e+01	-6.379263e+00
2.345228e+01	-6.417399e+00
2.358774e+01	-6.456488e+00
2.372398e+01	-6.495093e+00
2.386101e+01	-6.533835e+00
2.399883e+01	-6.572667e+00
2.413745e+01	-6.611526e+00
2.427686e+01	-6.651214e+00
2.441709e+01	-6.690608e+00
2.455812e+01	-6.729442e+00
2.469997e+01	-6.769052e+00
2.484263e+01	-6.808594e+00
2.498612e+01	-6.848473e+00
2.513044e+01	-6.888300e+00
2.527559e+01	-6.927963e+00
2.542158e+01	-6.967456e+00
2.556842e+01	-7.007761e+00
2.571610e+01	-7.047394e+00
2.586463e+01	-7.087960e+00
2.601403e+01	-7.128057e+00
2.616428e+01	-7.168666e+00
2.631541e+01	-7.209124e+00
2.646740e+01	-7.249811e+00
2.662028e+01	-7.290525e+00
2.677404e+01	-7.330952e+00
2.692868e+01	-7.371874e+00
2.708422e+01	-7.412837e+00
2.724066e+01	-7.453562e+00
2.739800e+01	-7.495066e+00
2.755625e+01	-7.535961e+00
2.771541e+01	-7.577231e+00
2.787550e+01	-7.618566e+00
2.803650e+01	-7.660335e+00
2.819844e+01	-7.701698e+00
2.836131e+01	-7.743288e+00
2.852513e+01	-7.784690e+00
2.868989e+01	-7.826596e+00
2.885560e+01	-7.868264e+00
2.902227e+01	-7.910386e+00
2.918990e+01	-7.952208e+00
2.935850e+01	-7.994088e+00
2.952807e+01	-8.036419e+00
2.969863e+01	-8.078462e+00
2.987016e+01	-8.120618e+00
3.004269e+01	-8.163373e+00
3.021622e+01	-8.205804e+00
3.039075e+01	-8.247893e+00
3.056628e+01	-8.290698e+00
3.074283e+01	-8.333052e+00
3.092040e+01	-8.376197e+00
3.109900e+01	-8.418455e+00
3.127862e+01	-8.461521e+00
3.145929e+01	-8.505051e+00
3.164099e+01	-8.547427e+00
3.182375e+01	-8.590388e+00
3.200756e+01	-8.634008e+00
3.219244e+01	-8.677187e+00
3.237838e+01	-8.720222e+00
3.256540e+01	-8.763738e+00
3.275349e+01	-8.807429e+00
3.294268e+01	-8.850945e+00
3.313295e+01	-8.893901e+00
3.332433e+01	-8.937571e+00
3.351681e+01	-8.981313e+00
3.371040e+01	-9.025052e+00
3.390511e+01	-9.069055e+00
3.410094e+01	-9.112643e+00
3.429791e+01	-9.156301e+00
3.449601e+01	-9.200705e+00
3.469526e+01	-9.244827e+00
3.489566e+01	-9.288950e+00
3.509721e+01	-9.332962e+00
3.529993e+01	-9.377425e+00
3.550382e+01	-9.421421e+00
3.570889e+01	-9.465936e+00
3.591515e+01	-9.510217e+00
3.612259e+01	-9.554701e+00
3.633123e+01	-9.598941e+00
3.654108e+01	-9.644072e+00
3.675214e+01	-9.688160e+00
3.696442e+01	-9.733006e+00
3.717792e+01	-9.777733e+00
3.739266e+01	-9.821835e+00
3.760864e+01	-9.867475e+00
3.782587e+01	-9.912149e+00
3.804435e+01	-9.957202e+00
3.826409e+01	-1.000214e+01
3.848510e+01	-1.004761e+01
3.870739e+01	-1.009223e+01
3.893096e+01	-1.013760e+01
3.915583e+01	-1.018295e+01
3.938199e+01	-1.022782e+01
3.960946e+01	-1.027345e+01
3.983824e+01	-1.031831e+01
4.006834e+01	-1.036378e+01
4.029978e+01	-1.040944e+01
4.053255e+01	-1.045525e+01
4.076666e+01	-1.050057e+01
4.100213e+01	-1.054641e+01
4.123896e+01	-1.059113e+01
4.147715e+01	-1.063742e+01
4.171672e+01	-1.068340e+01
4.195767e+01	-1.072864e+01
4.220002e+01	-1.077496e+01
4.244377e+01	-1.082070e+01
4.268892e+01	-1.086686e+01
4.293549e+01	-1.091260e+01
4.318348e+01	-1.095842e+01
4.343291e+01	-1.100451e+01
4.368377e+01	-1.105042e+01
4.393609e+01	-1.109678e+01
4.418986e+01	-1.114286e+01
4.444510e+01	-1.118925e+01
4.470182e+01	-1.123568e+01
4.496001e+01	-1.128130e+01
4.521970e+01	-1.132803e+01
4.548089e+01	-1.137465e+01
4.574358e+01	-1.142059e+01
4.600779e+01	-1.146728e+01
4.627353e+01	-1.151330e+01
4.654081e+01	-1.155999e+01
4.680963e+01	-1.160712e+01
4.708000e+01	-1.165335e+01
4.735193e+01	-1.169998e+01
4.762543e+01	-1.174667e+01
4.790051e+01	-1.179356e+01
4.817719e+01	-1.183969e+01
4.845545e+01	-1.188677e+01
4.873533e+01	-1.193333e+01
4.901682e+01	-1.198094e+01
4.929994e+01	-1.202729e+01
4.958470e+01	-1.207465e+01
4.987110e+01	-1.212109e+01
5.015915e+01	-1.216833e+01
5.044887e+01	-1.221510e+01
5.074026e+01	-1.226143e+01
5.103333e+01	-1.230926e+01
5.132810e+01	-1.235642e+01
5.162457e+01	-1.240385e+01
5.192275e+01	-1.245020e+01
5.222265e+01	-1.249811e+01
5.252429e+01	-1.254529e+01
5.282767e+01	-1.259199e+01
5.313280e+01	-1.263967e+01
5.343969e+01	-1.268693e+01
5.374836e+01	-1.273382e+01
5.405880e+01	-1.278150e+01
5.437105e+01	-1.282865e+01
5.468509e+01	-1.287683e+01
5.500095e+01	-1.292374e+01
5.531863e+01	-1.297134e+01
5.563815e+01	-1.301928e+01
5.595951e+01	-1.306691e+01
5.628273e+01	-1.311411e+01
5.660782e+01	-1.316175e+01
5.693479e+01	-1.320964e+01
5.726364e+01	-1.325714e+01
5.759439e+01	-1.330481e+01
5.792705e+01	-1.335186e+01
5.826164e+01	-1.340020e+01
5.859815e+01	-1.344786e+01
5.893662e+01	-1.349534e+01
5.927703e+01	-1.354281e+01
5.961941e+01	-1.359175e+01
5.996377e+01	-1.363853e+01
6.031012e+01	-1.368751e+01
6.065847e+01	-1.373401e+01
6.100883e+01	-1.378282e+01
6.136121e+01	-1.383028e+01
6.171563e+01	-1.387853e+01
6.207210e+01	-1.392676e+01
6.243063e+01	-1.397483e+01
6.279122e+01	-1.402230e+01
6.315390e+01	-1.407110e+01
6.351868e+01	-1.411909e+01
6.388556e+01	-1.416693e+01
6.425456e+01	-1.421553e+01
6.462569e+01	-1.426342e+01
6.499897e+01	-1.431207e+01
6.537440e+01	-1.435942e+01
6.575200e+01	-1.440800e+01
6.613178e+01	-1.445546e+01
6.651375e+01	-1.450410e+01
6.689793e+01	-1.455311e+01
6.728433e+01	-1.460049e+01
6.767297e+01	-1.464972e+01
6.806384e+01	-1.469755e+01
6.845698e+01	-1.474577e+01
6.885238e+01	-1.479391e+01
6.925007e+01	-1.484347e+01
6.965005e+01	-1.489170e+01
7.005235e+01	-1.493840e+01
7.045697e+01	-1.498789e+01
7.086393e+01	-1.503580e+01
7.127323e+01	-1.508508e+01
7.168490e+01	-1.513368e+01
7.209895e+01	-1.518129e+01
7.251539e+01	-1.523069e+01
7.293424e+01	-1.527861e+01
7.335551e+01	-1.532666e+01
7.377920e+01	-1.537670e+01
7.420535e+01	-1.542452e+01
7.463396e+01	-1.547404e+01
7.506504e+01	-1.552181e+01
7.549861e+01	-1.557007e+01
7.593469e+01	-1.561847e+01
7.637328e+01	-1.566783e+01
7.681441e+01	-1.571643e+01
7.725809e+01	-1.576547e+01
7.770433e+01	-1.581380e+01
7.815315e+01	-1.586254e+01
7.860456e+01	-1.591138e+01
7.905857e+01	-1.595999e+01
7.951521e+01	-1.600882e+01
7.997449e+01	-1.605719e+01
8.043642e+01	-1.610614e+01
8.090102e+01	-1.615579e+01
8.136830e+01	-1.620458e+01
8.183828e+01	-1.625279e+01
8.231097e+01	-1.630179e+01
8.278640e+01	-1.635040e+01
8.326457e+01	-1.639902e+01
8.374550e+01	-1.644699e+01
8.422921e+01	-1.649684e+01
8.471572e+01	-1.654777e+01
8.520503e+01	-1.659452e+01
8.569717e+01	-1.664383e+01
8.619215e+01	-1.669439e+01
8.669000e+01	-1.674210e+01
8.719071e+01	-1.679058e+01
8.769432e+01	-1.683971e+01
8.820084e+01	-1.688928e+01
8.871029e+01	-1.693764e+01
8.922267e+01	-1.698698e+01
8.973802e+01	-1.703527e+01
9.025634e+01	-1.708567e+01
9.077766e+01	-1.713381e+01
9.130199e+01	-1.718226e+01
9.182935e+01	-1.723162e+01
9.235975e+01	-1.728188e+01
9.289321e+01	-1.733015e+01
9.342976e+01	-1.737844e+01
9.396941e+01	-1.742771e+01
9.451217e+01	-1.747789e+01
9.505807e+01	-1.752790e+01
9.560712e+01	-1.757454e+01
9.615934e+01	-1.762503e+01
9.671476e+01	-1.767453e+01
9.727338e+01	-1.772384e+01
9.783522e+01	-1.777346e+01
9.840032e+01	-1.782286e+01
9.896867e+01	-1.787199e+01
9.954031e+01	-1.791998e+01
1.001153e+02	-1.796875e+01
1.006935e+02	-1.801866e+01
1.012751e+02	-1.806703e+01
1.018601e+02	-1.811715e+01
1.024484e+02	-1.816681e+01
1.030402e+02	-1.821598e+01
1.036353e+02	-1.826525e+01
1.042339e+02	-1.831447e+01
1.048360e+02	-1.836303e+01
1.054415e+02	-1.841152e+01
1.060505e+02	-1.846290e+01
1.066631e+02	-1.851060e+01
1.072791e+02	-1.856154e+01
1.078988e+02	-1.861046e+01
1.085220e+02	-1.866082e+01
1.091488e+02	-1.870934e+01
1.097793e+02	-1.875688e+01
1.104133e+02	-1.880710e+01
1.110511e+02	-1.885828e+01
1.116925e+02	-1.890635e+01
1.123376e+02	-1.895619e+01
1.129865e+02	-1.900476e+01
1.136391e+02	-1.905381e+01
1.142955e+02	-1.910477e+01
1.149556e+02	-1.915252e+01
1.156196e+02	-1.920240e+01
1.162874e+02	-1.925185e+01
1.169591e+02	-1.930248e+01
1.176347e+02	-1.935050e+01
1.183141e+02	-1.940138e+01
1.189975e+02	-1.944973e+01
1.196848e+02	-1.950023e+01
1.203761e+02	-1.954948e+01
1.210714e+02	-1.959714e+01
1.217707e+02	-1.964883e+01
1.224740e+02	-1.969733e+01
1.231814e+02	-1.974669e+01
1.238929e+02	-1.979780e+01
1.246085e+02	-1.984678e+01
1.253283e+02	-1.989771e+01
1.260522e+02	-1.994533e+01
1.267802e+02	-1.999589e+01
1.275125e+02	-2.004463e+01
1.282490e+02	-2.009468e+01
1.289898e+02	-2.014457e+01
1.297348e+02	-2.019174e+01
1.304842e+02	-2.024157e+01
1.312378e+02	-2.029334e+01
1.319959e+02	-2.034121e+01
1.327583e+02	-2.039206e+01
1.335251e+02	-2.044039e+01
1.342963e+02	-2.048967e+01
1.350720e+02	-2.054048e+01
1.358522e+02	-2.059108e+01
1.366368e+02	-2.063941e+01
1.374260e+02	-2.069038e+01
1.382198e+02	-2.073705e+01
1.390182e+02	-2.078965e+01
1.398211e+02	-2.083902e+01
1.406287e+02	-2.088734e+01
1.414410e+02	-2.093870e+01
1.422579e+02	-2.098680e+01
1.430796e+02	-2.103503e+01
1.439060e+02	-2.108808e+01
1.447372e+02	-2.113580e+01
1.455732e+02	-2.118496e+01
1.464141e+02	-2.123301e+01
1.472597e+02	-2.128388e+01
1.481103e+02	-2.133400e+01
1.489658e+02	-2.138322e+01
1.498262e+02	-2.143395e+01
1.506916e+02	-2.148552e+01
1.515620e+02	-2.153242e+01
1.524374e+02	-2.158335e+01
1.533179e+02	-2.163283e+01
1.542034e+02	-2.168239e+01
1.550941e+02	-2.173246e+01
1.559899e+02	-2.178091e+01
1.568909e+02	-2.183099e+01
1.577971e+02	-2.188291e+01
1.587085e+02	-2.193023e+01
1.596252e+02	-2.198071e+01
1.605472e+02	-2.203196e+01
1.614745e+02	-2.207889e+01
1.624072e+02	-2.212782e+01
1.633453e+02	-2.217714e+01
1.642887e+02	-2.222847e+01
1.652377e+02	-2.227841e+01
1.661921e+02	-2.232851e+01
1.671520e+02	-2.237854e+01
1.681175e+02	-2.242719e+01
1.690885e+02	-2.248006e+01
1.700651e+02	-2.252734e+01
1.710474e+02	-2.257982e+01
1.720354e+02	-2.262565e+01
1.730291e+02	-2.267613e+01
1.740285e+02	-2.272617e+01
1.750337e+02	-2.277497e+01
1.760446e+02	-2.282789e+01
1.770615e+02	-2.287665e+01
1.780842e+02	-2.292536e+01
1.791128e+02	-2.297599e+01
1.801473e+02	-2.302494e+01
1.811878e+02	-2.307635e+01
1.822344e+02	-2.312504e+01
1.832870e+02	-2.317254e+01
1.843456e+02	-2.322592e+01
1.854104e+02	-2.327587e+01
1.864813e+02	-2.332503e+01
1.875584e+02	-2.337317e+01
1.886418e+02	-2.342539e+01
1.897313e+02	-2.347356e+01
1.908272e+02	-2.352193e+01
1.919294e+02	-2.357263e+01
1.930380e+02	-2.362290e+01
1.941530e+02	-2.367366e+01
1.952744e+02	-2.372426e+01
1.964023e+02	-2.377270e+01
1.975367e+02	-2.382360e+01
1.986777e+02	-2.387333e+01
1.998252e+02	-2.392300e+01
2.009794e+02	-2.397353e+01
2.021403e+02	-2.402285e+01
2.033078e+02	-2.407237e+01
2.044821e+02	-2.412339e+01
2.056632e+02	-2.417460e+01
2.068511e+02	-2.421961e+01
2.080459e+02	-2.427310e+01
2.092475e+02	-2.432231e+01
2.104561e+02	-2.437116e+01
2.116717e+02	-2.442068e+01
2.128943e+02	-2.446937e+01
2.141240e+02	-2.452101e+01
2.153608e+02	-2.457160e+01
2.166047e+02	-2.462121e+01
2.178558e+02	-2.467276e+01
2.191141e+02	-2.471906e+01
2.203797e+02	-2.476932e+01
2.216526e+02	-2.482177e+01
2.229329e+02	-2.486888e+01
2.242205e+02	-2.492211e+01
2.255156e+02	-2.497204e+01
2.268182e+02	-2.502093e+01
2.281283e+02	-2.506998e+01
2.294459e+02	-2.511708e+01
2.307712e+02	-2.516972e+01
2.321041e+02	-2.522198e+01
2.334447e+02	-2.527084e+01
2.347931e+02	-2.531972e+01
2.361493e+02	-2.536812e+01
2.375133e+02	-2.541774e+01
2.388851e+02	-2.546724e+01
2.402649e+02	-2.551785e+01
2.416527e+02	-2.556860e+01
2.430484e+02	-2.561872e+01
2.444523e+02	-2.566706e+01
2.458642e+02	-2.572012e+01
2.472843e+02	-2.576982e+01
2.487126e+02	-2.581816e+01
2.501492e+02	-2.586926e+01
2.515940e+02	-2.591858e+01
2.530472e+02	-2.596875e+01
2.545088e+02	-2.601828e+01
2.559789e+02	-2.606947e+01
2.574574e+02	-2.611695e+01
2.589444e+02	-2.616907e+01
2.604401e+02	-2.621956e+01
2.619444e+02	-2.626929e+01
2.634574e+02	-2.631676e+01
2.649791e+02	-2.636938e+01
2.665096e+02	-2.642054e+01
2.680489e+02	-2.646687e+01
2.695972e+02	-2.651770e+01
2.711544e+02	-2.656693e+01
2.727205e+02	-2.661772e+01
2.742958e+02	-2.666571e+01
2.758801e+02	-2.671768e+01
2.774736e+02	-2.676554e+01
2.790762e+02	-2.681959e+01
2.806882e+02	-2.686923e+01
2.823094e+02	-2.692404e+01
2.839400e+02	-2.696869e+01
2.855800e+02	-2.701591e+01
2.872295e+02	-2.706690e+01
2.888886e+02	-2.711792e+01
2.905572e+02	-2.716870e+01
2.922354e+02	-2.721713e+01
2.939234e+02	-2.726844e+01
2.956211e+02	-2.731458e+01
2.973286e+02	-2.736586e+01
2.990459e+02	-2.741792e+01
3.007732e+02	-2.746822e+01
3.025104e+02	-2.751960e+01
3.042577e+02	-2.757201e+01
3.060151e+02	-2.761658e+01
3.077826e+02	-2.766444e+01
3.095604e+02	-2.771866e+01
3.113484e+02	-2.776483e+01
3.131467e+02	-2.781623e+01
3.149554e+02	-2.786979e+01
3.167746e+02	-2.791742e+01
3.186043e+02	-2.796794e+01
3.204445e+02	-2.801757e+01
3.222954e+02	-2.806917e+01
3.241570e+02	-2.811330e+01
3.260293e+02	-2.816601e+01
3.279124e+02	-2.821648e+01
3.298064e+02	-2.826968e+01
3.317114e+02	-2.831823e+01
3.336273e+02	-2.837033e+01
3.355544e+02	-2.841922e+01
3.374925e+02	-2.847054e+01
3.394418e+02	-2.852036e+01
3.414024e+02	-2.857061e+01
3.433744e+02	-2.861671e+01
3.453577e+02	-2.867100e+01
3.473525e+02	-2.871768e+01
3.493588e+02	-2.877038e+01
3.513766e+02	-2.881845e+01
3.534062e+02	-2.886927e+01
3.554474e+02	-2.891603e+01
3.575005e+02	-2.896962e+01
3.595654e+02	-2.901949e+01
3.616422e+02	-2.906963e+01
3.637311e+02	-2.912317e+01
3.658320e+02	-2.916405e+01
3.679450e+02	-2.922084e+01
3.700702e+02	-2.926883e+01
3.722077e+02	-2.931427e+01
3.743576e+02	-2.937262e+01
3.765199e+02	-2.941599e+01
3.786946e+02	-2.947188e+01
3.808820e+02	-2.952209e+01
3.830819e+02	-2.956801e+01
3.852946e+02	-2.962352e+01
3.875200e+02	-2.966838e+01
3.897583e+02	-2.972086e+01
3.920096e+02	-2.976696e+01
3.942738e+02	-2.981972e+01
3.965511e+02	-2.986768e+01
3.988416e+02	-2.991857e+01
4.011452e+02	-2.997301e+01
4.034622e+02	-3.002106e+01
4.057926e+02	-3.007223e+01
4.081365e+02	-3.012007e+01
4.104938e+02	-3.017498e+01
4.128648e+02	-3.021885e+01
4.152495e+02	-3.027012e+01
4.176480e+02	-3.032173e+01
4.200603e+02	-3.037046e+01
4.224866e+02	-3.042092e+01
4.249268e+02	-3.047554e+01
4.273812e+02	-3.051933e+01
4.298497e+02	-3.057763e+01
4.323325e+02	-3.062623e+01
4.348297e+02	-3.067678e+01
4.373412e+02	-3.072342e+01
4.398673e+02	-3.077102e+01
4.424079e+02	-3.082571e+01
4.449633e+02	-3.086936e+01
4.475334e+02	-3.091907e+01
4.501183e+02	-3.097390e+01
4.527182e+02	-3.102425e+01
4.553330e+02	-3.106423e+01
4.579630e+02	-3.112563e+01
4.606082e+02	-3.117401e+01
4.632687e+02	-3.122703e+01
4.659445e+02	-3.127257e+01
4.686358e+02	-3.131877e+01
4.713426e+02	-3.137404e+01
4.740650e+02	-3.142339e+01
4.768032e+02	-3.147063e+01
4.795572e+02	-3.152426e+01
4.823271e+02	-3.157464e+01
4.851130e+02	-3.162778e+01
4.879150e+02	-3.167988e+01
4.907332e+02	-3.172872e+01
4.935676e+02	-3.177762e+01
4.964185e+02	-3.182483e+01
4.992858e+02	-3.187590e+01
5.021696e+02	-3.192383e+01
5.050701e+02	-3.197084e+01
5.079874e+02	-3.202541e+01
5.109215e+02	-3.208068e+01
5.138726e+02	-3.212175e+01
5.168407e+02	-3.217872e+01
5.198259e+02	-3.222767e+01
5.228284e+02	-3.227795e+01
5.258482e+02	-3.232869e+01
5.288855e+02	-3.237959e+01
5.319403e+02	-3.242911e+01
5.350128e+02	-3.247799e+01
5.381030e+02	-3.252641e+01
5.412111e+02	-3.257809e+01
5.443371e+02	-3.262460e+01
5.474812e+02	-3.268259e+01
5.506434e+02	-3.273544e+01
5.538239e+02	-3.277704e+01
5.570228e+02	-3.282568e+01
5.602401e+02	-3.288223e+01
5.634760e+02	-3.292406e+01
5.667306e+02	-3.298391e+01
5.700040e+02	-3.303416e+01
5.732964e+02	-3.308493e+01
5.766077e+02	-3.312583e+01
5.799382e+02	-3.317594e+01
5.832879e+02	-3.322474e+01
5.866569e+02	-3.328191e+01
5.900454e+02	-3.333313e+01
5.934535e+02	-3.338597e+01
5.968813e+02	-3.342993e+01
6.003288e+02	-3.348660e+01
6.037963e+02	-3.352764e+01
6.072838e+02	-3.358457e+01
6.107914e+02	-3.363440e+01
6.143194e+02	-3.369050e+01
6.178676e+02	-3.373538e+01
6.214364e+02	-3.377928e+01
6.250258e+02	-3.383202e+01
6.286359e+02	-3.388628e+01
6.322669e+02	-3.392281e+01
6.359189e+02	-3.399207e+01
6.395919e+02	-3.404299e+01
6.432862e+02	-3.409577e+01
6.470017e+02	-3.413128e+01
6.507388e+02	-3.418710e+01
6.544974e+02	-3.423543e+01
6.582778e+02	-3.428664e+01
6.620800e+02	-3.434346e+01
6.659041e+02	-3.439219e+01
6.697504e+02	-3.443391e+01
6.736188e+02	-3.448970e+01
6.775096e+02	-3.454091e+01
6.814229e+02	-3.460023e+01
6.853587e+02	-3.464234e+01
6.893173e+02	-3.468730e+01
6.932988e+02	-3.474240e+01
6.973033e+02	-3.479122e+01
7.013309e+02	-3.484183e+01
