Frequency(Hz)	Magnitude(dB)
1.000000e+01	-2.195331e+00
1.005776e+01	-2.215265e+00
1.011585e+01	-2.235195e+00
1.017428e+01	-2.255423e+00
1.023305e+01	-2.275865e+00
1.029215e+01	-2.296293e+00
1.035160e+01	-2.316898e+00
1.041139e+01	-2.337615e+00
1.047153e+01	-2.358370e+00
1.053201e+01	-2.379493e+00
1.059284e+01	-2.400733e+00
1.065403e+01	-2.422036e+00
1.071556e+01	-2.443783e+00
1.077746e+01	-2.464971e+00
1.083971e+01	-2.486830e+00
1.090232e+01	-2.508837e+00
1.096529e+01	-2.530901e+00
1.102862e+01	-2.552907e+00
1.109232e+01	-2.575132e+00
1.115639e+01	-2.597697e+00
1.122083e+01	-2.620302e+00
1.128564e+01	-2.642842e+00
1.135083e+01	-2.665906e+00
1.141639e+01	-2.688894e+00
1.148233e+01	-2.712029e+00
1.154865e+01	-2.735615e+00
1.161536e+01	-2.758907e+00
1.168245e+01	-2.782420e+00
1.174992e+01	-2.806327e+00
1.181779e+01	-2.830163e+00
1.188605e+01	-2.853995e+00
1.195470e+01	-2.878374e+00
1.202375e+01	-2.902498e+00
1.209320e+01	-2.927006e+00
1.216305e+01	-2.951563e+00
1.223330e+01	-2.976010e+00
1.230396e+01	-3.001227e+00
1.237503e+01	-3.026069e+00
1.244651e+01	-3.051504e+00
1.251840e+01	-3.076721e+00
1.259070e+01	-3.102147e+00
1.266343e+01	-3.127873e+00
1.273657e+01	-3.153583e+00
1.281014e+01	-3.179619e+00
1.288413e+01	-3.205637e+00
1.295855e+01	-3.231766e+00
1.303339e+01	-3.258232e+00
1.310867e+01	-3.284428e+00
1.318439e+01	-3.311142e+00
1.326054e+01	-3.338221e+00
1.333713e+01	-3.364970e+00
1.341417e+01	-3.391947e+00
1.349165e+01	-3.419068e+00
1.356958e+01	-3.446200e+00
1.364795e+01	-3.473827e+00
1.372678e+01	-3.501573e+00
1.380607e+01	-3.529299e+00
1.388581e+01	-3.557222e+00
1.396602e+01	-3.585228e+00
1.404668e+01	-3.613279e+00
1.412782e+01	-3.641987e+00
1.420942e+01	-3.670050e+00
1.429149e+01	-3.698890e+00
1.437404e+01	-3.727322e+00
1.445706e+01	-3.756204e+00
1.454057e+01	-3.785234e+00
1.462455e+01	-3.814596e+00
1.470902e+01	-3.843959e+00
1.479398e+01	-3.873429e+00
1.487943e+01	-3.902702e+00
1.496537e+01	-3.932811e+00
1.505181e+01	-3.962683e+00
1.513875e+01	-3.992418e+00
1.522619e+01	-4.022842e+00
1.531414e+01	-4.053099e+00
1.540259e+01	-4.083327e+00
1.549156e+01	-4.113681e+00
1.558103e+01	-4.144796e+00
1.567103e+01	-4.175582e+00
1.576155e+01	-4.206432e+00
1.585258e+01	-4.237497e+00
1.594415e+01	-4.268990e+00
1.603624e+01	-4.300082e+00
1.612886e+01	-4.331521e+00
1.622202e+01	-4.363325e+00
1.631572e+01	-4.394918e+00
1.640996e+01	-4.427128e+00
1.650474e+01	-4.458857e+00
1.660008e+01	-4.491151e+00
1.669596e+01	-4.523480e+00
1.679239e+01	-4.555883e+00
1.688938e+01	-4.588596e+00
1.698694e+01	-4.621290e+00
1.708505e+01	-4.654221e+00
1.718373e+01	-4.687195e+00
1.728299e+01	-4.719996e+00
1.738281e+01	-4.753414e+00
1.748322e+01	-4.786580e+00
1.758420e+01	-4.820118e+00
1.768576e+01	-4.853638e+00
1.778792e+01	-4.887550e+00
1.789066e+01	-4.921410e+00
1.799399e+01	-4.955380e+00
1.809793e+01	-4.989545e+00
1.820246e+01	-5.023481e+00
1.830760e+01	-5.058112e+00
1.841334e+01	-5.092575e+00
1.851969e+01	-5.126968e+00
1.862666e+01	-5.161924e+00
1.873425e+01	-5.196432e+00
1.884246e+01	-5.231828e+00
1.895129e+01	-5.266639e+00
1.906075e+01	-5.301799e+00
1.917085e+01	-5.337238e+00
1.928158e+01	-5.372762e+00
1.939295e+01	-5.408110e+00
1.950496e+01	-5.443732e+00
1.961762e+01	-5.479831e+00
1.973093e+01	-5.515835e+00
1.984490e+01	-5.551647e+00
1.995952e+01	-5.587729e+00
2.007480e+01	-5.624219e+00
2.019076e+01	-5.660545e+00
2.030738e+01	-5.696912e+00
2.042467e+01	-5.733329e+00
2.054264e+01	-5.770144e+00
2.066130e+01	-5.807003e+00
2.078064e+01	-5.844212e+00
2.090066e+01	-5.880931e+00
2.102139e+01	-5.917955e+00
2.114280e+01	-5.955468e+00
2.126492e+01	-5.993253e+00
2.138775e+01	-6.030310e+00
2.151128e+01	-6.067788e+00
2.163553e+01	-6.105453e+00
2.176050e+01	-6.143022e+00
2.188619e+01	-6.181589e+00
2.201260e+01	-6.219617e+00
2.213974e+01	-6.257612e+00
2.226762e+01	-6.295838e+00
2.239624e+01	-6.334401e+00
2.252560e+01	-6.372627e+00
2.265571e+01	-6.411182e+00
2.278656e+01	-6.449556e+00
2.291818e+01	-6.488766e+00
2.305055e+01	-6.527535e+00
2.318369e+01	-6.566347e+00
2.331760e+01	-6.605350e+00
2.345228e+01	-6.644559e+00
2.358774e+01	-6.683995e+00
2.372398e+01	-6.722883e+00
2.386101e+01	-6.762683e+00
2.399883e+01	-6.802057e+00
2.413745e+01	-6.841540e+00
2.427686e+01	-6.881371e+00
2.441709e+01	-6.921295e+00
2.455812e+01	-6.961631e+00
2.469997e+01	-7.001545e+00
2.484263e+01	-7.041114e+00
2.498612e+01	-7.081915e+00
2.513044e+01	-7.121514e+00
2.527559e+01	-7.161989e+00
2.542158e+01	-7.202403e+00
2.556842e+01	-7.243112e+00
2.571610e+01	-7.283976e+00
2.586463e+01	-7.324486e+00
2.601403e+01	-7.365131e+00
2.616428e+01	-7.405933e+00
2.631541e+01	-7.447161e+00
2.646740e+01	-7.488425e+00
2.662028e+01	-7.529333e+00
2.677404e+01	-7.570539e+00
2.692868e+01	-7.611772e+00
2.708422e+01	-7.653315e+00
2.724066e+01	-7.694936e+00
2.739800e+01	-7.736155e+00
2.755625e+01	-7.778100e+00
2.771541e+01	-7.819389e+00
2.787550e+01	-7.861526e+00
2.803650e+01	-7.903670e+00
2.819844e+01	-7.945154e+00
2.836131e+01	-7.987540e+00
2.852513e+01	-8.029816e+00
2.868989e+01	-8.071861e+00
2.885560e+01	-8.113872e+00
2.902227e+01	-8.155880e+00
2.918990e+01	-8.198604e+00
2.935850e+01	-8.241215e+00
2.952807e+01	-8.283857e+00
2.969863e+01	-8.326512e+00
2.987016e+01	-8.369321e+00
3.004269e+01	-8.411874e+00
3.021622e+01	-8.454846e+00
3.039075e+01	-8.497486e+00
3.056628e+01	-8.540155e+00
3.074283e+01	-8.583756e+00
3.092040e+01	-8.626544e+00
3.109900e+01	-8.670256e+00
3.127862e+01	-8.713248e+00
3.145929e+01	-8.756206e+00
3.164099e+01	-8.799598e+00
3.182375e+01	-8.843672e+00
3.200756e+01	-8.886951e+00
3.219244e+01	-8.930581e+00
3.237838e+01	-8.974807e+00
3.256540e+01	-9.017372e+00
3.275349e+01	-9.061551e+00
3.294268e+01	-9.105110e+00
3.313295e+01	-9.149687e+00
3.332433e+01	-9.193973e+00
3.351681e+01	-9.237577e+00
3.371040e+01	-9.281453e+00
3.390511e+01	-9.325494e+00
3.410094e+01	-9.369880e+00
3.429791e+01	-9.414404e+00
3.449601e+01	-9.458534e+00
3.469526e+01	-9.502943e+00
3.489566e+01	-9.547269e+00
3.509721e+01	-9.591888e+00
3.529993e+01	-9.636746e+00
3.550382e+01	-9.681000e+00
3.570889e+01	-9.725641e+00
3.591515e+01	-9.770493e+00
3.612259e+01	-9.814554e+00
3.633123e+01	-9.860355e+00
3.654108e+01	-9.905027e+00
3.675214e+01	-9.949780e+00
3.696442e+01	-9.994984e+00
3.717792e+01	-1.003978e+01
3.739266e+01	-1.008442e+01
3.760864e+01	-1.013013e+01
3.782587e+01	-1.017563e+01
3.804435e+01	-1.022091e+01
3.826409e+01	-1.026579e+01
3.848510e+01	-1.031159e+01
3.870739e+01	-1.035682e+01
3.893096e+01	-1.040181e+01
3.915583e+01	-1.044771e+01
3.938199e+01	-1.049354e+01
3.960946e+01	-1.053871e+01
3.983824e+01	-1.058448e+01
4.006834e+01	-1.063006e+01
4.029978e+01	-1.067575e+01
4.053255e+01	-1.072122e+01
4.076666e+01	-1.076728e+01
4.100213e+01	-1.081349e+01
4.123896e+01	-1.085901e+01
4.147715e+01	-1.090525e+01
4.171672e+01	-1.095127e+01
4.195767e+01	-1.099738e+01
4.220002e+01	-1.104274e+01
4.244377e+01	-1.108902e+01
4.268892e+01	-1.113522e+01
4.293549e+01	-1.118153e+01
4.318348e+01	-1.122793e+01
4.343291e+01	-1.127423e+01
4.368377e+01	-1.131998e+01
4.393609e+01	-1.136723e+01
4.418986e+01	-1.141345e+01
4.444510e+01	-1.145984e+01
4.470182e+01	-1.150584e+01
4.496001e+01	-1.155302e+01
4.521970e+01	-1.159907e+01
4.548089e+01	-1.164624e+01
4.574358e+01	-1.169192e+01
4.600779e+01	-1.173935e+01
4.627353e+01	-1.178589e+01
4.654081e+01	-1.183223e+01
4.680963e+01	-1.187946e+01
4.708000e+01	-1.192534e+01
4.735193e+01	-1.197280e+01
4.762543e+01	-1.201943e+01
4.790051e+01	-1.206624e+01
4.817719e+01	-1.211410e+01
4.845545e+01	-1.216059e+01
4.873533e+01	-1.220751e+01
4.901682e+01	-1.225435e+01
4.929994e+01	-1.230143e+01
4.958470e+01	-1.234840e+01
4.987110e+01	-1.239594e+01
5.015915e+01	-1.244318e+01
5.044887e+01	-1.249080e+01
5.074026e+01	-1.253757e+01
5.103333e+01	-1.258413e+01
5.132810e+01	-1.263172e+01
5.162457e+01	-1.267928e+01
5.192275e+01	-1.272552e+01
5.222265e+01	-1.277454e+01
5.252429e+01	-1.282081e+01
5.282767e+01	-1.286965e+01
5.313280e+01	-1.291614e+01
5.343969e+01	-1.296364e+01
5.374836e+01	-1.301130e+01
5.405880e+01	-1.305866e+01
5.437105e+01	-1.310630e+01
5.468509e+01	-1.315311e+01
5.500095e+01	-1.320172e+01
5.531863e+01	-1.324891e+01
5.563815e+01	-1.329732e+01
5.595951e+01	-1.334442e+01
5.628273e+01	-1.339129e+01
5.660782e+01	-1.344054e+01
5.693479e+01	-1.348794e+01
5.726364e+01	-1.353571e+01
5.759439e+01	-1.358408e+01
5.792705e+01	-1.363126e+01
5.826164e+01	-1.367842e+01
5.859815e+01	-1.372763e+01
5.893662e+01	-1.377499e+01
5.927703e+01	-1.382305e+01
5.961941e+01	-1.387075e+01
5.996377e+01	-1.391826e+01
6.031012e+01	-1.396675e+01
6.065847e+01	-1.401468e+01
6.100883e+01	-1.406296e+01
6.136121e+01	-1.411110e+01
6.171563e+01	-1.415862e+01
6.207210e+01	-1.420711e+01
6.243063e+01	-1.425579e+01
6.279122e+01	-1.430320e+01
6.315390e+01	-1.435214e+01
6.351868e+01	-1.440031e+01
6.388556e+01	-1.444715e+01
6.425456e+01	-1.449643e+01
6.462569e+01	-1.454450e+01
6.499897e+01	-1.459244e+01
6.537440e+01	-1.464115e+01
6.575200e+01	-1.468922e+01
6.613178e+01	-1.473815e+01
6.651375e+01	-1.478627e+01
6.689793e+01	-1.483460e+01
6.728433e+01	-1.488304e+01
6.767297e+01	-1.493178e+01
6.806384e+01	-1.497962e+01
6.845698e+01	-1.502870e+01
6.885238e+01	-1.507689e+01
6.925007e+01	-1.512502e+01
6.965005e+01	-1.517362e+01
7.005235e+01	-1.522234e+01
7.045697e+01	-1.527073e+01
7.086393e+01	-1.531951e+01
7.127323e+01	-1.536849e+01
7.168490e+01	-1.541669e+01
7.209895e+01	-1.546489e+01
7.251539e+01	-1.551408e+01
7.293424e+01	-1.556186e+01
7.335551e+01	-1.561083e+01
7.377920e+01	-1.565962e+01
7.420535e+01	-1.570784e+01
7.463396e+01	-1.575629e+01
7.506504e+01	-1.580448e+01
7.549861e+01	-1.585433e+01
7.593469e+01	-1.590317e+01
7.637328e+01	-1.595137e+01
7.681441e+01	-1.600075e+01
7.725809e+01	-1.604951e+01
7.770433e+01	-1.609749e+01
7.815315e+01	-1.614791e+01
7.860456e+01	-1.619411e+01
7.905857e+01	-1.624462e+01
7.951521e+01	-1.629330e+01
7.997449e+01	-1.634212e+01
8.043642e+01	-1.639144e+01
8.090102e+01	-1.644071e+01
8.136830e+01	-1.648937e+01
8.183828e+01	-1.653708e+01
8.231097e+01	-1.658603e+01
8.278640e+01	-1.663682e+01
8.326457e+01	-1.668537e+01
8.374550e+01	-1.673462e+01
8.422921e+01	-1.678269e+01
8.471572e+01	-1.683078e+01
8.520503e+01	-1.688087e+01
8.569717e+01	-1.692885e+01
8.619215e+01	-1.697907e+01
8.669000e+01	-1.702718e+01
8.719071e+01	-1.707663e+01
8.769432e+01	-1.712562e+01
8.820084e+01	-1.717486e+01
8.871029e+01	-1.722494e+01
8.922267e+01	-1.727342e+01
8.973802e+01	-1.732209e+01
9.025634e+01	-1.737135e+01
9.077766e+01	-1.742011e+01
9.130199e+01	-1.747080e+01
9.182935e+01	-1.751797e+01
9.235975e+01	-1.756884e+01
9.289321e+01	-1.761733e+01
9.342976e+01	-1.766605e+01
9.396941e+01	-1.771606e+01
9.451217e+01	-1.776516e+01
9.505807e+01	-1.781321e+01
9.560712e+01	-1.786339e+01
9.615934e+01	-1.791099e+01
9.671476e+01	-1.795977e+01
9.727338e+01	-1.801024e+01
9.783522e+01	-1.806085e+01
9.840032e+01	-1.810905e+01
9.896867e+01	-1.815880e+01
9.954031e+01	-1.820761e+01
1.001153e+02	-1.825654e+01
1.006935e+02	-1.830639e+01
1.012751e+02	-1.835605e+01
1.018601e+02	-1.840431e+01
1.024484e+02	-1.845439e+01
1.030402e+02	-1.850449e+01
1.036353e+02	-1.855223e+01
1.042339e+02	-1.860202e+01
1.048360e+02	-1.865281e+01
1.054415e+02	-1.870001e+01
1.060505e+02	-1.874965e+01
1.066631e+02	-1.879851e+01
1.072791e+02	-1.884919e+01
1.078988e+02	-1.889955e+01
1.085220e+02	-1.894777e+01
1.091488e+02	-1.899678e+01
1.097793e+02	-1.904676e+01
1.104133e+02	-1.909491e+01
1.110511e+02	-1.914584e+01
1.116925e+02	-1.919440e+01
1.123376e+02	-1.924375e+01
1.129865e+02	-1.929512e+01
1.136391e+02	-1.934361e+01
1.142955e+02	-1.939325e+01
1.149556e+02	-1.944349e+01
1.156196e+02	-1.949241e+01
1.162874e+02	-1.954164e+01
1.169591e+02	-1.959102e+01
1.176347e+02	-1.964004e+01
1.183141e+02	-1.969071e+01
1.189975e+02	-1.974038e+01
1.196848e+02	-1.978856e+01
1.203761e+02	-1.983897e+01
1.210714e+02	-1.988717e+01
1.217707e+02	-1.993887e+01
1.224740e+02	-1.998645e+01
1.231814e+02	-2.003647e+01
1.238929e+02	-2.008607e+01
1.246085e+02	-2.013506e+01
1.253283e+02	-2.018403e+01
1.260522e+02	-2.023440e+01
1.267802e+02	-2.028381e+01
1.275125e+02	-2.033475e+01
1.282490e+02	-2.038140e+01
1.289898e+02	-2.043419e+01
1.297348e+02	-2.048241e+01
1.304842e+02	-2.053249e+01
1.312378e+02	-2.058145e+01
1.319959e+02	-2.063009e+01
1.327583e+02	-2.068073e+01
1.335251e+02	-2.072857e+01
1.342963e+02	-2.077960e+01
1.350720e+02	-2.083138e+01
1.358522e+02	-2.087750e+01
1.366368e+02	-2.092768e+01
1.374260e+02	-2.097802e+01
1.382198e+02	-2.102842e+01
1.390182e+02	-2.107769e+01
1.398211e+02	-2.112557e+01
1.406287e+02	-2.117700e+01
1.414410e+02	-2.122525e+01
1.422579e+02	-2.127616e+01
1.430796e+02	-2.132578e+01
1.439060e+02	-2.137481e+01
1.447372e+02	-2.142596e+01
1.455732e+02	-2.147468e+01
1.464141e+02	-2.152352e+01
1.472597e+02	-2.157346e+01
1.481103e+02	-2.162384e+01
1.489658e+02	-2.167288e+01
1.498262e+02	-2.172281e+01
1.506916e+02	-2.177203e+01
1.515620e+02	-2.182358e+01
1.524374e+02	-2.187321e+01
1.533179e+02	-2.192228e+01
1.542034e+02	-2.197227e+01
1.550941e+02	-2.202296e+01
1.559899e+02	-2.206824e+01
1.568909e+02	-2.212222e+01
1.577971e+02	-2.217012e+01
1.587085e+02	-2.222020e+01
1.596252e+02	-2.226998e+01
1.605472e+02	-2.231878e+01
1.614745e+02	-2.236886e+01
1.624072e+02	-2.242098e+01
1.633453e+02	-2.246906e+01
1.642887e+02	-2.251970e+01
1.652377e+02	-2.256864e+01
1.661921e+02	-2.261870e+01
1.671520e+02	-2.266960e+01
1.681175e+02	-2.271857e+01
1.690885e+02	-2.277035e+01
1.700651e+02	-2.281942e+01
1.710474e+02	-2.286693e+01
1.720354e+02	-2.291729e+01
1.730291e+02	-2.296650e+01
1.740285e+02	-2.301765e+01
1.750337e+02	-2.306839e+01
1.760446e+02	-2.311735e+01
1.770615e+02	-2.316846e+01
1.780842e+02	-2.321623e+01
1.791128e+02	-2.326507e+01
1.801473e+02	-2.331649e+01
1.811878e+02	-2.336684e+01
1.822344e+02	-2.341651e+01
1.832870e+02	-2.346409e+01
1.843456e+02	-2.351356e+01
1.854104e+02	-2.356410e+01
1.864813e+02	-2.361300e+01
1.875584e+02	-2.366484e+01
1.886418e+02	-2.371480e+01
1.897313e+02	-2.376568e+01
1.908272e+02	-2.381323e+01
1.919294e+02	-2.386469e+01
1.930380e+02	-2.391253e+01
1.941530e+02	-2.396315e+01
1.952744e+02	-2.401424e+01
1.964023e+02	-2.406427e+01
1.975367e+02	-2.411244e+01
1.986777e+02	-2.416362e+01
1.998252e+02	-2.421278e+01
2.009794e+02	-2.426300e+01
2.021403e+02	-2.431291e+01
2.033078e+02	-2.436354e+01
2.044821e+02	-2.441490e+01
2.056632e+02	-2.446333e+01
2.068511e+02	-2.451277e+01
2.080459e+02	-2.456209e+01
2.092475e+02	-2.461423e+01
2.104561e+02	-2.466208e+01
2.116717e+02	-2.471202e+01
2.128943e+02	-2.476432e+01
2.141240e+02	-2.481288e+01
2.153608e+02	-2.486408e+01
2.166047e+02	-2.491343e+01
2.178558e+02	-2.496310e+01
2.191141e+02	-2.501029e+01
2.203797e+02	-2.506063e+01
2.216526e+02	-2.511383e+01
2.229329e+02	-2.516111e+01
2.242205e+02	-2.521155e+01
2.255156e+02	-2.526015e+01
2.268182e+02	-2.531097e+01
2.281283e+02	-2.536253e+01
2.294459e+02	-2.541064e+01
2.307712e+02	-2.545952e+01
2.321041e+02	-2.550929e+01
2.334447e+02	-2.556016e+01
2.347931e+02	-2.560789e+01
2.361493e+02	-2.566009e+01
2.375133e+02	-2.570871e+01
2.388851e+02	-2.575979e+01
2.402649e+02	-2.580833e+01
2.416527e+02	-2.586165e+01
2.430484e+02	-2.590967e+01
2.444523e+02	-2.596043e+01
2.458642e+02	-2.600953e+01
2.472843e+02	-2.605916e+01
2.487126e+02	-2.610958e+01
2.501492e+02	-2.616042e+01
2.515940e+02	-2.621011e+01
2.530472e+02	-2.626003e+01
2.545088e+02	-2.631163e+01
2.559789e+02	-2.636353e+01
2.574574e+02	-2.640945e+01
2.589444e+02	-2.646033e+01
2.604401e+02	-2.650568e+01
2.619444e+02	-2.655903e+01
2.634574e+02	-2.661193e+01
2.649791e+02	-2.665857e+01
2.665096e+02	-2.671266e+01
2.680489e+02	-2.675954e+01
2.695972e+02	-2.680552e+01
2.711544e+02	-2.685973e+01
2.727205e+02	-2.691101e+01
2.742958e+02	-2.695861e+01
2.758801e+02	-2.700851e+01
2.774736e+02	-2.705829e+01
2.790762e+02	-2.711003e+01
2.806882e+02	-2.715904e+01
2.823094e+02	-2.720830e+01
2.839400e+02	-2.726044e+01
2.855800e+02	-2.730843e+01
2.872295e+02	-2.736060e+01
2.888886e+02	-2.741419e+01
2.905572e+02	-2.746059e+01
2.922354e+02	-2.750797e+01
2.939234e+02	-2.756037e+01
2.956211e+02	-2.760968e+01
2.973286e+02	-2.766530e+01
2.990459e+02	-2.770914e+01
3.007732e+02	-2.775976e+01
3.025104e+02	-2.781013e+01
3.042577e+02	-2.785894e+01
3.060151e+02	-2.790996e+01
3.077826e+02	-2.796053e+01
3.095604e+02	-2.800350e+01
3.113484e+02	-2.805622e+01
3.131467e+02	-2.811067e+01
3.149554e+02	-2.815632e+01
3.167746e+02	-2.820893e+01
3.186043e+02	-2.825825e+01
3.204445e+02	-2.831393e+01
3.222954e+02	-2.835991e+01
3.241570e+02	-2.840985e+01
3.260293e+02	-2.845698e+01
3.279124e+02	-2.851263e+01
3.298064e+02	-2.855635e+01
3.317114e+02	-2.860995e+01
3.336273e+02	-2.866433e+01
3.355544e+02	-2.871294e+01
3.374925e+02	-2.875813e+01
3.394418e+02	-2.880888e+01
3.414024e+02	-2.885935e+01
3.433744e+02	-2.890795e+01
3.453577e+02	-2.895874e+01
3.473525e+02	-2.900562e+01
3.493588e+02	-2.906063e+01
3.513766e+02	-2.911380e+01
3.534062e+02	-2.916167e+01
3.554474e+02	-2.920937e+01
3.575005e+02	-2.926479e+01
3.595654e+02	-2.930885e+01
3.616422e+02	-2.935575e+01
3.637311e+02	-2.941072e+01
3.658320e+02	-2.945997e+01
3.679450e+02	-2.950910e+01
3.700702e+02	-2.956388e+01
3.722077e+02	-2.961085e+01
3.743576e+02	-2.966475e+01
3.765199e+02	-2.971334e+01
3.786946e+02	-2.975505e+01
3.808820e+02	-2.981104e+01
3.830819e+02	-2.985821e+01
3.852946e+02	-2.990957e+01
3.875200e+02	-2.996019e+01
3.897583e+02	-3.000826e+01
3.920096e+02	-3.006387e+01
3.942738e+02	-3.011295e+01
3.965511e+02	-3.016444e+01
3.988416e+02	-3.020871e+01
4.011452e+02	-3.026257e+01
4.034622e+02	-3.031161e+01
4.057926e+02	-3.036337e+01
4.081365e+02	-3.041450e+01
4.104938e+02	-3.046515e+01
4.128648e+02	-3.051238e+01
4.152495e+02	-3.056437e+01
4.176480e+02	-3.061104e+01
4.200603e+02	-3.066253e+01
4.224866e+02	-3.070869e+01
4.249268e+02	-3.076024e+01
4.273812e+02	-3.081579e+01
4.298497e+02	-3.085978e+01
4.323325e+02	-3.091228e+01
4.348297e+02	-3.096722e+01
4.373412e+02	-3.101595e+01
4.398673e+02	-3.106658e+01
4.424079e+02	-3.110853e+01
4.449633e+02	-3.116149e+01
4.475334e+02	-3.121425e+01
4.501183e+02	-3.126935e+01
4.527182e+02	-3.131440e+01
4.553330e+02	-3.136902e+01
4.579630e+02	-3.141026e+01
4.606082e+02	-3.146625e+01
4.632687e+02	-3.151296e+01
4.659445e+02	-3.156580e+01
4.686358e+02	-3.161950e+01
4.713426e+02	-3.166485e+01
4.740650e+02	-3.171377e+01
4.768032e+02	-3.176330e+01
4.795572e+02	-3.181593e+01
4.823271e+02	-3.185989e+01
4.851130e+02	-3.191169e+01
4.879150e+02	-3.197065e+01
4.907332e+02	-3.202500e+01
4.935676e+02	-3.206290e+01
4.964185e+02	-3.212125e+01
4.992858e+02	-3.216607e+01
5.021696e+02	-3.222919e+01
5.050701e+02	-3.226892e+01
5.079874e+02	-3.231976e+01
5.109215e+02	-3.236768e+01
5.138726e+02	-3.242227e+01
5.168407e+02	-3.246243e+01
5.198259e+02	-3.251709e+01
5.228284e+02	-3.256694e+01
5.258482e+02	-3.261912e+01
5.288855e+02	-3.267236e+01
5.319403e+02	-3.271444e+01
5.350128e+02	-3.277309e+01
5.381030e+02	-3.282297e+01
5.412111e+02	-3.287128e+01
5.443371e+02	-3.292101e+01
5.474812e+02	-3.296397e+01
5.506434e+02	-3.301272e+01
5.538239e+02	-3.306935e+01
5.570228e+02	-3.311844e+01
5.602401e+02	-3.317636e+01
5.634760e+02	-3.322369e+01
5.667306e+02	-3.327128e+01
5.700040e+02	-3.331964e+01
5.732964e+02	-3.337811e+01
5.766077e+02	-3.342574e+01
5.799382e+02	-3.346678e+01
5.832879e+02	-3.352157e+01
5.866569e+02	-3.358070e+01
5.900454e+02	-3.362175e+01
5.934535e+02	-3.367280e+01
5.968813e+02	-3.372993e+01
6.003288e+02	-3.377959e+01
6.037963e+02	-3.382956e+01
6.072838e+02	-3.388196e+01
6.107914e+02	-3.392432e+01
6.143194e+02	-3.397720e+01
6.178676e+02	-3.402578e+01
6.214364e+02	-3.407719e+01
6.250258e+02	-3.412550e+01
6.286359e+02	-3.418023e+01
6.322669e+02	-3.423799e+01
6.359189e+02	-3.427354e+01
6.395919e+02	-3.432503e+01
6.432862e+02	-3.438373e+01
6.470017e+02	-3.442203e+01
6.507388e+02	-3.448603e+01
6.544974e+02	-3.453781e+01
6.582778e+02	-3.458473e+01
6.620800e+02	-3.463850e+01
6.659041e+02	-3.467917e+01
6.697504e+02	-3.473091e+01
6.736188e+02	-3.478725e+01
6.775096e+02	-3.484304e+01
6.814229e+02	-3.488858e+01
6.853587e+02	-3.493277e+01
6.893173e+02	-3.499008e+01
6.932988e+02	-3.503880e+01
6.973033e+02	-3.508160e+01
7.013309e+02	-3.514457e+01
