Frequency(Hz)	Magnitude(dB)
1.000000e+01	-2.203593e+00
1.005776e+01	-2.223798e+00
1.011585e+01	-2.243663e+00
1.017428e+01	-2.264289e+00
1.023305e+01	-2.284328e+00
1.029215e+01	-2.305056e+00
1.035160e+01	-2.325624e+00
1.041139e+01	-2.346657e+00
1.047153e+01	-2.367450e+00
1.053201e+01	-2.388405e+00
1.059284e+01	-2.409845e+00
1.065403e+01	-2.431027e+00
1.071556e+01	-2.452800e+00
1.077746e+01	-2.474289e+00
1.083971e+01	-2.496057e+00
1.090232e+01	-2.517926e+00
1.096529e+01	-2.540066e+00
1.102862e+01	-2.562373e+00
1.109232e+01	-2.584614e+00
1.115639e+01	-2.607364e+00
1.122083e+01	-2.630066e+00
1.128564e+01	-2.652667e+00
1.135083e+01	-2.675501e+00
1.141639e+01	-2.698758e+00
1.148233e+01	-2.721888e+00
1.154865e+01	-2.745374e+00
1.161536e+01	-2.768857e+00
1.168245e+01	-2.792310e+00
1.174992e+01	-2.816202e+00
1.181779e+01	-2.840316e+00
1.188605e+01	-2.864403e+00
1.195470e+01	-2.888515e+00
1.202375e+01	-2.912890e+00
1.209320e+01	-2.937577e+00
1.216305e+01	-2.962053e+00
1.223330e+01	-2.987007e+00
1.230396e+01	-3.011983e+00
1.237503e+01	-3.036961e+00
1.244651e+01	-3.062030e+00
1.251840e+01	-3.087359e+00
1.259070e+01	-3.113233e+00
1.266343e+01	-3.138718e+00
1.273657e+01	-3.164552e+00
1.281014e+01	-3.190507e+00
1.288413e+01	-3.216582e+00
1.295855e+01	-3.242798e+00
1.303339e+01	-3.269192e+00
1.310867e+01	-3.295699e+00
1.318439e+01	-3.322458e+00
1.326054e+01	-3.349381e+00
1.333713e+01	-3.376187e+00
1.341417e+01	-3.403452e+00
1.349165e+01	-3.430530e+00
1.356958e+01	-3.458001e+00
1.364795e+01	-3.485606e+00
1.372678e+01	-3.513430e+00
1.380607e+01	-3.541235e+00
1.388581e+01	-3.569062e+00
1.396602e+01	-3.596975e+00
1.404668e+01	-3.625287e+00
1.412782e+01	-3.653569e+00
1.420942e+01	-3.682275e+00
1.429149e+01	-3.711062e+00
1.437404e+01	-3.739609e+00
1.445706e+01	-3.768538e+00
1.454057e+01	-3.797835e+00
1.462455e+01	-3.826909e+00
1.470902e+01	-3.856440e+00
1.479398e+01	-3.885985e+00
1.487943e+01	-3.915386e+00
1.496537e+01	-3.944966e+00
1.505181e+01	-3.975116e+00
1.513875e+01	-4.005368e+00
1.522619e+01	-4.035778e+00
1.531414e+01	-4.065995e+00
1.540259e+01	-4.096480e+00
1.549156e+01	-4.126918e+00
1.558103e+01	-4.157738e+00
1.567103e+01	-4.188337e+00
1.576155e+01	-4.219559e+00
1.585258e+01	-4.250768e+00
1.594415e+01	-4.282161e+00
1.603624e+01	-4.313666e+00
1.612886e+01	-4.344810e+00
1.622202e+01	-4.376672e+00
1.631572e+01	-4.408513e+00
1.640996e+01	-4.440451e+00
1.650474e+01	-4.472604e+00
1.660008e+01	-4.504673e+00
1.669596e+01	-4.537055e+00
1.679239e+01	-4.569662e+00
1.688938e+01	-4.602304e+00
1.698694e+01	-4.635158e+00
1.708505e+01	-4.668009e+00
1.718373e+01	-4.701011e+00
1.728299e+01	-4.733983e+00
1.738281e+01	-4.767370e+00
1.748322e+01	-4.800884e+00
1.758420e+01	-4.834647e+00
1.768576e+01	-4.868362e+00
1.778792e+01	-4.901684e+00
1.789066e+01	-4.935735e+00
1.799399e+01	-4.969619e+00
1.809793e+01	-5.003949e+00
1.820246e+01	-5.038051e+00
1.830760e+01	-5.072507e+00
1.841334e+01	-5.107201e+00
1.851969e+01	-5.141407e+00
1.862666e+01	-5.176597e+00
1.873425e+01	-5.211546e+00
1.884246e+01	-5.246353e+00
1.895129e+01	-5.281138e+00
1.906075e+01	-5.316619e+00
1.917085e+01	-5.352261e+00
1.928158e+01	-5.388027e+00
1.939295e+01	-5.423319e+00
1.950496e+01	-5.459177e+00
1.961762e+01	-5.495125e+00
1.973093e+01	-5.530669e+00
1.984490e+01	-5.566945e+00
1.995952e+01	-5.603160e+00
2.007480e+01	-5.639564e+00
2.019076e+01	-5.675860e+00
2.030738e+01	-5.712535e+00
2.042467e+01	-5.749025e+00
2.054264e+01	-5.785890e+00
2.066130e+01	-5.822913e+00
2.078064e+01	-5.859521e+00
2.090066e+01	-5.896783e+00
2.102139e+01	-5.933909e+00
2.114280e+01	-5.971413e+00
2.126492e+01	-6.008496e+00
2.138775e+01	-6.046176e+00
2.151128e+01	-6.084332e+00
2.163553e+01	-6.121419e+00
2.176050e+01	-6.159841e+00
2.188619e+01	-6.197621e+00
2.201260e+01	-6.235802e+00
2.213974e+01	-6.274033e+00
2.226762e+01	-6.311925e+00
2.239624e+01	-6.350910e+00
2.252560e+01	-6.389499e+00
2.265571e+01	-6.427719e+00
2.278656e+01	-6.466350e+00
2.291818e+01	-6.505014e+00
2.305055e+01	-6.543785e+00
2.318369e+01	-6.582842e+00
2.331760e+01	-6.622170e+00
2.345228e+01	-6.661307e+00
2.358774e+01	-6.700705e+00
2.372398e+01	-6.739873e+00
2.386101e+01	-6.779263e+00
2.399883e+01	-6.818957e+00
2.413745e+01	-6.858575e+00
2.427686e+01	-6.898232e+00
2.441709e+01	-6.938232e+00
2.455812e+01	-6.978182e+00
2.469997e+01	-7.018071e+00
2.484263e+01	-7.058363e+00
2.498612e+01	-7.098437e+00
2.513044e+01	-7.138735e+00
2.527559e+01	-7.179148e+00
2.542158e+01	-7.219607e+00
2.556842e+01	-7.260453e+00
2.571610e+01	-7.300749e+00
2.586463e+01	-7.341684e+00
2.601403e+01	-7.382833e+00
2.616428e+01	-7.423120e+00
2.631541e+01	-7.464503e+00
2.646740e+01	-7.505779e+00
2.662028e+01	-7.547011e+00
2.677404e+01	-7.588372e+00
2.692868e+01	-7.629384e+00
2.708422e+01	-7.670736e+00
2.724066e+01	-7.712122e+00
2.739800e+01	-7.753993e+00
2.755625e+01	-7.795933e+00
2.771541e+01	-7.837263e+00
2.787550e+01	-7.879000e+00
2.803650e+01	-7.920895e+00
2.819844e+01	-7.963033e+00
2.836131e+01	-8.005231e+00
2.852513e+01	-8.047455e+00
2.868989e+01	-8.089766e+00
2.885560e+01	-8.131823e+00
2.902227e+01	-8.174374e+00
2.918990e+01	-8.217088e+00
2.935850e+01	-8.259028e+00
2.952807e+01	-8.301925e+00
2.969863e+01	-8.344367e+00
2.987016e+01	-8.387101e+00
3.004269e+01	-8.429758e+00
3.021622e+01	-8.472635e+00
3.039075e+01	-8.515705e+00
3.056628e+01	-8.558939e+00
3.074283e+01	-8.602039e+00
3.092040e+01	-8.645335e+00
3.109900e+01	-8.688428e+00
3.127862e+01	-8.732025e+00
3.145929e+01	-8.775118e+00
3.164099e+01	-8.818249e+00
3.182375e+01	-8.861769e+00
3.200756e+01	-8.905653e+00
3.219244e+01	-8.948861e+00
3.237838e+01	-8.992518e+00
3.256540e+01	-9.036269e+00
3.275349e+01	-9.080551e+00
3.294268e+01	-9.123909e+00
3.313295e+01	-9.168245e+00
3.332433e+01	-9.212145e+00
3.351681e+01	-9.255844e+00
3.371040e+01	-9.300091e+00
3.390511e+01	-9.344034e+00
3.410094e+01	-9.389128e+00
3.429791e+01	-9.433287e+00
3.449601e+01	-9.477238e+00
3.469526e+01	-9.522227e+00
3.489566e+01	-9.566335e+00
3.509721e+01	-9.610702e+00
3.529993e+01	-9.655600e+00
3.550382e+01	-9.700277e+00
3.570889e+01	-9.744675e+00
3.591515e+01	-9.789277e+00
3.612259e+01	-9.834121e+00
3.633123e+01	-9.879522e+00
3.654108e+01	-9.924057e+00
3.675214e+01	-9.968390e+00
3.696442e+01	-1.001415e+01
3.717792e+01	-1.005895e+01
3.739266e+01	-1.010406e+01
3.760864e+01	-1.014915e+01
3.782587e+01	-1.019479e+01
3.804435e+01	-1.024018e+01
3.826409e+01	-1.028494e+01
3.848510e+01	-1.033029e+01
3.870739e+01	-1.037598e+01
3.893096e+01	-1.042130e+01
3.915583e+01	-1.046625e+01
3.938199e+01	-1.051243e+01
3.960946e+01	-1.055828e+01
3.983824e+01	-1.060351e+01
4.006834e+01	-1.064940e+01
4.029978e+01	-1.069490e+01
4.053255e+01	-1.074106e+01
4.076666e+01	-1.078625e+01
4.100213e+01	-1.083249e+01
4.123896e+01	-1.087774e+01
4.147715e+01	-1.092483e+01
4.171672e+01	-1.097048e+01
4.195767e+01	-1.101632e+01
4.220002e+01	-1.106241e+01
4.244377e+01	-1.110881e+01
4.268892e+01	-1.115507e+01
4.293549e+01	-1.120108e+01
4.318348e+01	-1.124706e+01
4.343291e+01	-1.129368e+01
4.368377e+01	-1.134041e+01
4.393609e+01	-1.138602e+01
4.418986e+01	-1.143276e+01
4.444510e+01	-1.147910e+01
4.470182e+01	-1.152602e+01
4.496001e+01	-1.157220e+01
4.521970e+01	-1.161820e+01
4.548089e+01	-1.166545e+01
4.574358e+01	-1.171267e+01
4.600779e+01	-1.175875e+01
4.627353e+01	-1.180519e+01
4.654081e+01	-1.185218e+01
4.680963e+01	-1.189869e+01
4.708000e+01	-1.194567e+01
4.735193e+01	-1.199234e+01
4.762543e+01	-1.203896e+01
4.790051e+01	-1.208636e+01
4.817719e+01	-1.213301e+01
4.845545e+01	-1.218018e+01
4.873533e+01	-1.222750e+01
4.901682e+01	-1.227460e+01
4.929994e+01	-1.232112e+01
4.958470e+01	-1.236816e+01
4.987110e+01	-1.241584e+01
5.015915e+01	-1.246302e+01
5.044887e+01	-1.250931e+01
5.074026e+01	-1.255698e+01
5.103333e+01	-1.260530e+01
5.132810e+01	-1.265173e+01
5.162457e+01	-1.270014e+01
5.192275e+01	-1.274637e+01
5.222265e+01	-1.279388e+01
5.252429e+01	-1.284113e+01
5.282767e+01	-1.288861e+01
5.313280e+01	-1.293580e+01
5.343969e+01	-1.298393e+01
5.374836e+01	-1.303132e+01
5.405880e+01	-1.307893e+01
5.437105e+01	-1.312671e+01
5.468509e+01	-1.317356e+01
5.500095e+01	-1.322184e+01
5.531863e+01	-1.326913e+01
5.563815e+01	-1.331771e+01
5.595951e+01	-1.336388e+01
5.628273e+01	-1.341219e+01
5.660782e+01	-1.346011e+01
5.693479e+01	-1.350770e+01
5.726364e+01	-1.355573e+01
5.759439e+01	-1.360366e+01
5.792705e+01	-1.365118e+01
5.826164e+01	-1.369920e+01
5.859815e+01	-1.374723e+01
5.893662e+01	-1.379548e+01
5.927703e+01	-1.384351e+01
5.961941e+01	-1.389140e+01
5.996377e+01	-1.393937e+01
6.031012e+01	-1.398683e+01
6.065847e+01	-1.403477e+01
6.100883e+01	-1.408321e+01
6.136121e+01	-1.413134e+01
6.171563e+01	-1.417900e+01
6.207210e+01	-1.422756e+01
6.243063e+01	-1.427447e+01
6.279122e+01	-1.432404e+01
6.315390e+01	-1.437199e+01
6.351868e+01	-1.441991e+01
6.388556e+01	-1.446853e+01
6.425456e+01	-1.451581e+01
6.462569e+01	-1.456505e+01
6.499897e+01	-1.461301e+01
6.537440e+01	-1.466131e+01
6.575200e+01	-1.471029e+01
6.613178e+01	-1.475865e+01
6.651375e+01	-1.480670e+01
6.689793e+01	-1.485436e+01
6.728433e+01	-1.490341e+01
6.767297e+01	-1.495168e+01
6.806384e+01	-1.500059e+01
6.845698e+01	-1.504910e+01
6.885238e+01	-1.509730e+01
6.925007e+01	-1.514534e+01
6.965005e+01	-1.519434e+01
7.005235e+01	-1.524209e+01
7.045697e+01	-1.529224e+01
7.086393e+01	-1.533923e+01
7.127323e+01	-1.538846e+01
7.168490e+01	-1.543688e+01
7.209895e+01	-1.548560e+01
7.251539e+01	-1.553487e+01
7.293424e+01	-1.558322e+01
7.335551e+01	-1.563131e+01
7.377920e+01	-1.568001e+01
7.420535e+01	-1.572832e+01
7.463396e+01	-1.577725e+01
7.506504e+01	-1.582630e+01
7.549861e+01	-1.587585e+01
7.593469e+01	-1.592327e+01
7.637328e+01	-1.597155e+01
7.681441e+01	-1.602164e+01
7.725809e+01	-1.607097e+01
7.770433e+01	-1.611897e+01
7.815315e+01	-1.616798e+01
7.860456e+01	-1.621655e+01
7.905857e+01	-1.626635e+01
7.951521e+01	-1.631368e+01
7.997449e+01	-1.636313e+01
8.043642e+01	-1.641124e+01
8.090102e+01	-1.645937e+01
8.136830e+01	-1.651010e+01
8.183828e+01	-1.655849e+01
8.231097e+01	-1.660804e+01
8.278640e+01	-1.665608e+01
8.326457e+01	-1.670527e+01
8.374550e+01	-1.675451e+01
8.422921e+01	-1.680334e+01
8.471572e+01	-1.685214e+01
8.520503e+01	-1.690122e+01
8.569717e+01	-1.695004e+01
8.619215e+01	-1.699891e+01
8.669000e+01	-1.704854e+01
8.719071e+01	-1.709833e+01
8.769432e+01	-1.714568e+01
8.820084e+01	-1.719596e+01
8.871029e+01	-1.724563e+01
8.922267e+01	-1.729329e+01
8.973802e+01	-1.734294e+01
9.025634e+01	-1.739163e+01
9.077766e+01	-1.744096e+01
9.130199e+01	-1.749068e+01
9.182935e+01	-1.754031e+01
9.235975e+01	-1.758819e+01
9.289321e+01	-1.763894e+01
9.342976e+01	-1.768832e+01
9.396941e+01	-1.773545e+01
9.451217e+01	-1.778473e+01
9.505807e+01	-1.783416e+01
9.560712e+01	-1.788439e+01
9.615934e+01	-1.793283e+01
9.671476e+01	-1.798199e+01
9.727338e+01	-1.803199e+01
9.783522e+01	-1.808148e+01
9.840032e+01	-1.813173e+01
9.896867e+01	-1.817838e+01
9.954031e+01	-1.822890e+01
1.001153e+02	-1.827721e+01
1.006935e+02	-1.832673e+01
1.012751e+02	-1.837743e+01
1.018601e+02	-1.842637e+01
1.024484e+02	-1.847399e+01
1.030402e+02	-1.852431e+01
1.036353e+02	-1.857501e+01
1.042339e+02	-1.862218e+01
1.048360e+02	-1.867218e+01
1.054415e+02	-1.872061e+01
1.060505e+02	-1.877152e+01
1.066631e+02	-1.882107e+01
1.072791e+02	-1.886897e+01
1.078988e+02	-1.892046e+01
1.085220e+02	-1.896855e+01
1.091488e+02	-1.901977e+01
1.097793e+02	-1.906690e+01
1.104133e+02	-1.911651e+01
1.110511e+02	-1.916556e+01
1.116925e+02	-1.921434e+01
1.123376e+02	-1.926642e+01
1.129865e+02	-1.931495e+01
1.136391e+02	-1.936510e+01
1.142955e+02	-1.941406e+01
1.149556e+02	-1.946316e+01
1.156196e+02	-1.951308e+01
1.162874e+02	-1.956193e+01
1.169591e+02	-1.961181e+01
1.176347e+02	-1.966062e+01
1.183141e+02	-1.970876e+01
1.189975e+02	-1.975842e+01
1.196848e+02	-1.981015e+01
1.203761e+02	-1.985834e+01
1.210714e+02	-1.990769e+01
1.217707e+02	-1.995893e+01
1.224740e+02	-2.000817e+01
1.231814e+02	-2.005701e+01
1.238929e+02	-2.010543e+01
1.246085e+02	-2.015757e+01
1.253283e+02	-2.020651e+01
1.260522e+02	-2.025484e+01
1.267802e+02	-2.030438e+01
1.275125e+02	-2.035606e+01
1.282490e+02	-2.040353e+01
1.289898e+02	-2.045232e+01
1.297348e+02	-2.050123e+01
1.304842e+02	-2.055388e+01
1.312378e+02	-2.060407e+01
1.319959e+02	-2.065327e+01
1.327583e+02	-2.070211e+01
1.335251e+02	-2.075169e+01
1.342963e+02	-2.080028e+01
1.350720e+02	-2.084985e+01
1.358522e+02	-2.090066e+01
1.366368e+02	-2.094974e+01
1.374260e+02	-2.100030e+01
1.382198e+02	-2.104981e+01
1.390182e+02	-2.109842e+01
1.398211e+02	-2.114840e+01
1.406287e+02	-2.119833e+01
1.414410e+02	-2.124795e+01
1.422579e+02	-2.129776e+01
1.430796e+02	-2.134544e+01
1.439060e+02	-2.139635e+01
1.447372e+02	-2.144637e+01
1.455732e+02	-2.149643e+01
1.464141e+02	-2.154437e+01
1.472597e+02	-2.159489e+01
1.481103e+02	-2.164488e+01
1.489658e+02	-2.169556e+01
1.498262e+02	-2.174548e+01
1.506916e+02	-2.179310e+01
1.515620e+02	-2.184506e+01
1.524374e+02	-2.189574e+01
1.533179e+02	-2.194413e+01
1.542034e+02	-2.199409e+01
1.550941e+02	-2.204234e+01
1.559899e+02	-2.209279e+01
1.568909e+02	-2.214249e+01
1.577971e+02	-2.219184e+01
1.587085e+02	-2.224226e+01
1.596252e+02	-2.229278e+01
1.605472e+02	-2.234210e+01
1.614745e+02	-2.238895e+01
1.624072e+02	-2.244042e+01
1.633453e+02	-2.249246e+01
1.642887e+02	-2.254061e+01
1.652377e+02	-2.258881e+01
1.661921e+02	-2.263932e+01
1.671520e+02	-2.269101e+01
1.681175e+02	-2.273945e+01
1.690885e+02	-2.279060e+01
1.700651e+02	-2.283823e+01
1.710474e+02	-2.288818e+01
1.720354e+02	-2.293802e+01
1.730291e+02	-2.298737e+01
1.740285e+02	-2.303794e+01
1.750337e+02	-2.308644e+01
1.760446e+02	-2.313843e+01
1.770615e+02	-2.318854e+01
1.780842e+02	-2.323905e+01
1.791128e+02	-2.328648e+01
1.801473e+02	-2.333663e+01
1.811878e+02	-2.338685e+01
1.822344e+02	-2.343708e+01
1.832870e+02	-2.348858e+01
1.843456e+02	-2.353564e+01
1.854104e+02	-2.358567e+01
1.864813e+02	-2.363384e+01
1.875584e+02	-2.368599e+01
1.886418e+02	-2.373473e+01
1.897313e+02	-2.378372e+01
1.908272e+02	-2.383683e+01
1.919294e+02	-2.388559e+01
1.930380e+02	-2.393556e+01
1.941530e+02	-2.398347e+01
1.952744e+02	-2.403677e+01
1.964023e+02	-2.408678e+01
1.975367e+02	-2.413565e+01
1.986777e+02	-2.418526e+01
1.998252e+02	-2.423236e+01
2.009794e+02	-2.428142e+01
2.021403e+02	-2.433421e+01
2.033078e+02	-2.438567e+01
2.044821e+02	-2.443196e+01
2.056632e+02	-2.448157e+01
2.068511e+02	-2.453554e+01
2.080459e+02	-2.458276e+01
2.092475e+02	-2.463494e+01
2.104561e+02	-2.468219e+01
2.116717e+02	-2.473310e+01
2.128943e+02	-2.478328e+01
2.141240e+02	-2.483195e+01
2.153608e+02	-2.488084e+01
2.166047e+02	-2.493420e+01
2.178558e+02	-2.498200e+01
2.191141e+02	-2.503423e+01
2.203797e+02	-2.508289e+01
2.216526e+02	-2.513169e+01
2.229329e+02	-2.518260e+01
2.242205e+02	-2.523412e+01
2.255156e+02	-2.528416e+01
2.268182e+02	-2.533301e+01
2.281283e+02	-2.538188e+01
2.294459e+02	-2.543094e+01
2.307712e+02	-2.548175e+01
2.321041e+02	-2.553042e+01
2.334447e+02	-2.558079e+01
2.347931e+02	-2.563090e+01
2.361493e+02	-2.568446e+01
2.375133e+02	-2.573104e+01
2.388851e+02	-2.578257e+01
2.402649e+02	-2.583133e+01
2.416527e+02	-2.588180e+01
2.430484e+02	-2.593141e+01
2.444523e+02	-2.597986e+01
2.458642e+02	-2.603371e+01
2.472843e+02	-2.608275e+01
2.487126e+02	-2.613277e+01
2.501492e+02	-2.618280e+01
2.515940e+02	-2.622959e+01
2.530472e+02	-2.627927e+01
2.545088e+02	-2.633109e+01
2.559789e+02	-2.638123e+01
2.574574e+02	-2.643021e+01
2.589444e+02	-2.648423e+01
2.604401e+02	-2.652911e+01
2.619444e+02	-2.657988e+01
2.634574e+02	-2.663257e+01
2.649791e+02	-2.668013e+01
2.665096e+02	-2.672982e+01
2.680489e+02	-2.678118e+01
2.695972e+02	-2.683013e+01
2.711544e+02	-2.687885e+01
2.727205e+02	-2.693141e+01
2.742958e+02	-2.697780e+01
2.758801e+02	-2.703181e+01
2.774736e+02	-2.707913e+01
2.790762e+02	-2.713330e+01
2.806882e+02	-2.717921e+01
2.823094e+02	-2.723244e+01
2.839400e+02	-2.727797e+01
2.855800e+02	-2.732939e+01
2.872295e+02	-2.737732e+01
2.888886e+02	-2.743262e+01
2.905572e+02	-2.747863e+01
2.922354e+02	-2.753382e+01
2.939234e+02	-2.757848e+01
2.956211e+02	-2.763192e+01
2.973286e+02	-2.767714e+01
2.990459e+02	-2.773036e+01
3.007732e+02	-2.778396e+01
3.025104e+02	-2.783493e+01
3.042577e+02	-2.787759e+01
3.060151e+02	-2.793120e+01
3.077826e+02	-2.798310e+01
3.095604e+02	-2.803227e+01
3.113484e+02	-2.807800e+01
3.131467e+02	-2.813050e+01
3.149554e+02	-2.818449e+01
3.167746e+02	-2.823299e+01
3.186043e+02	-2.827952e+01
3.204445e+02	-2.833040e+01
3.222954e+02	-2.838525e+01
3.241570e+02	-2.843398e+01
3.260293e+02	-2.847886e+01
3.279124e+02	-2.853292e+01
3.298064e+02	-2.858112e+01
3.317114e+02	-2.863422e+01
3.336273e+02	-2.868160e+01
3.355544e+02	-2.873133e+01
3.374925e+02	-2.877853e+01
3.394418e+02	-2.883138e+01
3.414024e+02	-2.888208e+01
3.433744e+02	-2.892916e+01
3.453577e+02	-2.898507e+01
3.473525e+02	-2.902885e+01
3.493588e+02	-2.908843e+01
3.513766e+02	-2.913259e+01
3.534062e+02	-2.918118e+01
3.554474e+02	-2.923528e+01
3.575005e+02	-2.927989e+01
3.595654e+02	-2.933465e+01
3.616422e+02	-2.938245e+01
3.637311e+02	-2.942888e+01
3.658320e+02	-2.948359e+01
3.679450e+02	-2.953175e+01
3.700702e+02	-2.958428e+01
3.722077e+02	-2.962773e+01
3.743576e+02	-2.968854e+01
3.765199e+02	-2.973401e+01
3.786946e+02	-2.978527e+01
3.808820e+02	-2.983165e+01
3.830819e+02	-2.988083e+01
3.852946e+02	-2.993187e+01
3.875200e+02	-2.998643e+01
3.897583e+02	-3.003101e+01
3.920096e+02	-3.008160e+01
3.942738e+02	-3.012794e+01
3.965511e+02	-3.018025e+01
3.988416e+02	-3.023078e+01
4.011452e+02	-3.028139e+01
4.034622e+02	-3.033259e+01
4.057926e+02	-3.038199e+01
4.081365e+02	-3.042947e+01
4.104938e+02	-3.048713e+01
4.128648e+02	-3.053360e+01
4.152495e+02	-3.058495e+01
4.176480e+02	-3.063649e+01
4.200603e+02	-3.068455e+01
4.224866e+02	-3.072986e+01
4.249268e+02	-3.078746e+01
4.273812e+02	-3.083360e+01
4.298497e+02	-3.088490e+01
4.323325e+02	-3.093565e+01
4.348297e+02	-3.098725e+01
4.373412e+02	-3.103137e+01
4.398673e+02	-3.108389e+01
4.424079e+02	-3.113568e+01
4.449633e+02	-3.119433e+01
4.475334e+02	-3.124176e+01
4.501183e+02	-3.129443e+01
4.527182e+02	-3.134113e+01
4.553330e+02	-3.139030e+01
4.579630e+02	-3.143736e+01
4.606082e+02	-3.149415e+01
4.632687e+02	-3.153925e+01
4.659445e+02	-3.158645e+01
4.686358e+02	-3.163543e+01
4.713426e+02	-3.168316e+01
4.740650e+02	-3.173507e+01
4.768032e+02	-3.178531e+01
4.795572e+02	-3.184273e+01
4.823271e+02	-3.188909e+01
4.851130e+02	-3.193818e+01
4.879150e+02	-3.199226e+01
4.907332e+02	-3.204233e+01
4.935676e+02	-3.209245e+01
4.964185e+02	-3.214118e+01
4.992858e+02	-3.219428e+01
5.021696e+02	-3.223687e+01
5.050701e+02	-3.229405e+01
5.079874e+02	-3.234761e+01
5.109215e+02	-3.238680e+01
5.138726e+02	-3.243994e+01
5.168407e+02	-3.249174e+01
5.198259e+02	-3.253899e+01
5.228284e+02	-3.259089e+01
5.258482e+02	-3.264768e+01
5.288855e+02	-3.269169e+01
5.319403e+02	-3.273541e+01
5.350128e+02	-3.279082e+01
5.381030e+02	-3.284559e+01
5.412111e+02	-3.289729e+01
5.443371e+02	-3.293827e+01
5.474812e+02	-3.298808e+01
5.506434e+02	-3.303982e+01
5.538239e+02	-3.310005e+01
5.570228e+02	-3.314073e+01
5.602401e+02	-3.320546e+01
5.634760e+02	-3.324468e+01
5.667306e+02	-3.329559e+01
5.700040e+02	-3.335129e+01
5.732964e+02	-3.339433e+01
5.766077e+02	-3.344434e+01
5.799382e+02	-3.349656e+01
5.832879e+02	-3.354493e+01
5.866569e+02	-3.359856e+01
5.900454e+02	-3.364500e+01
5.934535e+02	-3.369349e+01
5.968813e+02	-3.374604e+01
6.003288e+02	-3.379853e+01
6.037963e+02	-3.384882e+01
6.072838e+02	-3.389550e+01
6.107914e+02	-3.394259e+01
6.143194e+02	-3.399732e+01
6.178676e+02	-3.405050e+01
6.214364e+02	-3.410946e+01
6.250258e+02	-3.414748e+01
6.286359e+02	-3.419815e+01
6.322669e+02	-3.424707e+01
6.359189e+02	-3.430239e+01
6.395919e+02	-3.434780e+01
6.432862e+02	-3.440406e+01
6.470017e+02	-3.445887e+01
6.507388e+02	-3.450216e+01
6.544974e+02	-3.455960e+01
6.582778e+02	-3.460651e+01
6.620800e+02	-3.465776e+01
6.659041e+02	-3.470035e+01
6.697504e+02	-3.476204e+01
6.736188e+02	-3.479989e+01
6.775096e+02	-3.485287e+01
6.814229e+02	-3.490406e+01
6.853587e+02	-3.495037e+01
6.893173e+02	-3.501157e+01
6.932988e+02	-3.505611e+01
6.973033e+02	-3.511326e+01
7.013309e+02	-3.515463e+01
