Frequency(Hz)	Magnitude(dB)
1.000000e+01	-2.242039e+00
1.005776e+01	-2.262557e+00
1.011585e+01	-2.282795e+00
1.017428e+01	-2.303209e+00
1.023305e+01	-2.323964e+00
1.029215e+01	-2.344757e+00
1.035160e+01	-2.365780e+00
1.041139e+01	-2.386812e+00
1.047153e+01	-2.408169e+00
1.053201e+01	-2.429431e+00
1.059284e+01	-2.451053e+00
1.065403e+01	-2.472562e+00
1.071556e+01	-2.494447e+00
1.077746e+01	-2.516145e+00
1.083971e+01	-2.538449e+00
1.090232e+01	-2.560611e+00
1.096529e+01	-2.583197e+00
1.102862e+01	-2.605383e+00
1.109232e+01	-2.628001e+00
1.115639e+01	-2.650804e+00
1.122083e+01	-2.673915e+00
1.128564e+01	-2.696784e+00
1.135083e+01	-2.720047e+00
1.141639e+01	-2.743432e+00
1.148233e+01	-2.766850e+00
1.154865e+01	-2.790744e+00
1.161536e+01	-2.814243e+00
1.168245e+01	-2.838276e+00
1.174992e+01	-2.862453e+00
1.181779e+01	-2.886380e+00
1.188605e+01	-2.910839e+00
1.195470e+01	-2.935574e+00
1.202375e+01	-2.960337e+00
1.209320e+01	-2.984864e+00
1.216305e+01	-3.009855e+00
1.223330e+01	-3.034852e+00
1.230396e+01	-3.060165e+00
1.237503e+01	-3.085558e+00
1.244651e+01	-3.111046e+00
1.251840e+01	-3.136665e+00
1.259070e+01	-3.162142e+00
1.266343e+01	-3.188370e+00
1.273657e+01	-3.214484e+00
1.281014e+01	-3.240643e+00
1.288413e+01	-3.267212e+00
1.295855e+01	-3.293625e+00
1.303339e+01	-3.320626e+00
1.310867e+01	-3.346982e+00
1.318439e+01	-3.374102e+00
1.326054e+01	-3.401360e+00
1.333713e+01	-3.428078e+00
1.341417e+01	-3.455670e+00
1.349165e+01	-3.483376e+00
1.356958e+01	-3.510891e+00
1.364795e+01	-3.538621e+00
1.372678e+01	-3.566873e+00
1.380607e+01	-3.595003e+00
1.388581e+01	-3.623286e+00
1.396602e+01	-3.651619e+00
1.404668e+01	-3.679919e+00
1.412782e+01	-3.708760e+00
1.420942e+01	-3.737576e+00
1.429149e+01	-3.766333e+00
1.437404e+01	-3.795181e+00
1.445706e+01	-3.824773e+00
1.454057e+01	-3.853740e+00
1.462455e+01	-3.883534e+00
1.470902e+01	-3.913002e+00
1.479398e+01	-3.942863e+00
1.487943e+01	-3.972845e+00
1.496537e+01	-4.002743e+00
1.505181e+01	-4.032958e+00
1.513875e+01	-4.063366e+00
1.522619e+01	-4.093895e+00
1.531414e+01	-4.124278e+00
1.540259e+01	-4.155192e+00
1.549156e+01	-4.186174e+00
1.558103e+01	-4.217043e+00
1.567103e+01	-4.248414e+00
1.576155e+01	-4.279699e+00
1.585258e+01	-4.310933e+00
1.594415e+01	-4.342630e+00
1.603624e+01	-4.374224e+00
1.612886e+01	-4.405890e+00
1.622202e+01	-4.438020e+00
1.631572e+01	-4.470030e+00
1.640996e+01	-4.502076e+00
1.650474e+01	-4.534660e+00
1.660008e+01	-4.567113e+00
1.669596e+01	-4.599934e+00
1.679239e+01	-4.632528e+00
1.688938e+01	-4.665072e+00
1.698694e+01	-4.698212e+00
1.708505e+01	-4.731277e+00
1.718373e+01	-4.764547e+00
1.728299e+01	-4.797957e+00
1.738281e+01	-4.831660e+00
1.748322e+01	-4.865290e+00
1.758420e+01	-4.898889e+00
1.768576e+01	-4.932888e+00
1.778792e+01	-4.967057e+00
1.789066e+01	-5.001105e+00
1.799399e+01	-5.035395e+00
1.809793e+01	-5.069866e+00
1.820246e+01	-5.104408e+00
1.830760e+01	-5.138934e+00
1.841334e+01	-5.173587e+00
1.851969e+01	-5.208450e+00
1.862666e+01	-5.243627e+00
1.873425e+01	-5.279027e+00
1.884246e+01	-5.313736e+00
1.895129e+01	-5.349189e+00
1.906075e+01	-5.384682e+00
1.917085e+01	-5.420394e+00
1.928158e+01	-5.456020e+00
1.939295e+01	-5.491833e+00
1.950496e+01	-5.528021e+00
1.961762e+01	-5.564241e+00
1.973093e+01	-5.600526e+00
1.984490e+01	-5.636546e+00
1.995952e+01	-5.672760e+00
2.007480e+01	-5.709602e+00
2.019076e+01	-5.746202e+00
2.030738e+01	-5.783021e+00
2.042467e+01	-5.819922e+00
2.054264e+01	-5.856861e+00
2.066130e+01	-5.893790e+00
2.078064e+01	-5.930998e+00
2.090066e+01	-5.968572e+00
2.102139e+01	-6.006177e+00
2.114280e+01	-6.043500e+00
2.126492e+01	-6.080863e+00
2.138775e+01	-6.118485e+00
2.151128e+01	-6.156576e+00
2.163553e+01	-6.194588e+00
2.176050e+01	-6.232333e+00
2.188619e+01	-6.270693e+00
2.201260e+01	-6.309442e+00
2.213974e+01	-6.347244e+00
2.226762e+01	-6.385813e+00
2.239624e+01	-6.424426e+00
2.252560e+01	-6.463125e+00
2.265571e+01	-6.501877e+00
2.278656e+01	-6.540760e+00
2.291818e+01	-6.579973e+00
2.305055e+01	-6.618700e+00
2.318369e+01	-6.658097e+00
2.331760e+01	-6.697615e+00
2.345228e+01	-6.736734e+00
2.358774e+01	-6.775660e+00
2.372398e+01	-6.815783e+00
2.386101e+01	-6.855114e+00
2.399883e+01	-6.894818e+00
2.413745e+01	-6.935099e+00
2.427686e+01	-6.975056e+00
2.441709e+01	-7.015105e+00
2.455812e+01	-7.055135e+00
2.469997e+01	-7.094953e+00
2.484263e+01	-7.135298e+00
2.498612e+01	-7.175573e+00
2.513044e+01	-7.216563e+00
2.527559e+01	-7.257292e+00
2.542158e+01	-7.298018e+00
2.556842e+01	-7.338436e+00
2.571610e+01	-7.379218e+00
2.586463e+01	-7.420122e+00
2.601403e+01	-7.461410e+00
2.616428e+01	-7.502569e+00
2.631541e+01	-7.543583e+00
2.646740e+01	-7.584637e+00
2.662028e+01	-7.625707e+00
2.677404e+01	-7.667848e+00
2.692868e+01	-7.709456e+00
2.708422e+01	-7.750977e+00
2.724066e+01	-7.792173e+00
2.739800e+01	-7.834269e+00
2.755625e+01	-7.875840e+00
2.771541e+01	-7.917822e+00
2.787550e+01	-7.959876e+00
2.803650e+01	-8.001539e+00
2.819844e+01	-8.043932e+00
2.836131e+01	-8.085813e+00
2.852513e+01	-8.129043e+00
2.868989e+01	-8.170888e+00
2.885560e+01	-8.213024e+00
2.902227e+01	-8.255656e+00
2.918990e+01	-8.298479e+00
2.935850e+01	-8.341072e+00
2.952807e+01	-8.383894e+00
2.969863e+01	-8.426286e+00
2.987016e+01	-8.469424e+00
3.004269e+01	-8.512321e+00
3.021622e+01	-8.555504e+00
3.039075e+01	-8.598317e+00
3.056628e+01	-8.641469e+00
3.074283e+01	-8.684571e+00
3.092040e+01	-8.728057e+00
3.109900e+01	-8.771331e+00
3.127862e+01	-8.814608e+00
3.145929e+01	-8.858053e+00
3.164099e+01	-8.901729e+00
3.182375e+01	-8.945953e+00
3.200756e+01	-8.989026e+00
3.219244e+01	-9.033516e+00
3.237838e+01	-9.076612e+00
3.256540e+01	-9.120940e+00
3.275349e+01	-9.164638e+00
3.294268e+01	-9.208741e+00
3.313295e+01	-9.252827e+00
3.332433e+01	-9.297018e+00
3.351681e+01	-9.340506e+00
3.371040e+01	-9.385248e+00
3.390511e+01	-9.429203e+00
3.410094e+01	-9.473627e+00
3.429791e+01	-9.518532e+00
3.449601e+01	-9.562149e+00
3.469526e+01	-9.607033e+00
3.489566e+01	-9.651009e+00
3.509721e+01	-9.696534e+00
3.529993e+01	-9.741089e+00
3.550382e+01	-9.785959e+00
3.570889e+01	-9.830838e+00
3.591515e+01	-9.875386e+00
3.612259e+01	-9.920364e+00
3.633123e+01	-9.965524e+00
3.654108e+01	-1.001067e+01
3.675214e+01	-1.005519e+01
3.696442e+01	-1.010047e+01
3.717792e+01	-1.014610e+01
3.739266e+01	-1.019106e+01
3.760864e+01	-1.023630e+01
3.782587e+01	-1.028145e+01
3.804435e+01	-1.032681e+01
3.826409e+01	-1.037270e+01
3.848510e+01	-1.041716e+01
3.870739e+01	-1.046349e+01
3.893096e+01	-1.050859e+01
3.915583e+01	-1.055457e+01
3.938199e+01	-1.060062e+01
3.960946e+01	-1.064535e+01
3.983824e+01	-1.069111e+01
4.006834e+01	-1.073714e+01
4.029978e+01	-1.078295e+01
4.053255e+01	-1.082867e+01
4.076666e+01	-1.087498e+01
4.100213e+01	-1.092097e+01
4.123896e+01	-1.096724e+01
4.147715e+01	-1.101295e+01
4.171672e+01	-1.105905e+01
4.195767e+01	-1.110510e+01
4.220002e+01	-1.115140e+01
4.244377e+01	-1.119739e+01
4.268892e+01	-1.124376e+01
4.293549e+01	-1.128989e+01
4.318348e+01	-1.133604e+01
4.343291e+01	-1.138257e+01
4.368377e+01	-1.142896e+01
4.393609e+01	-1.147544e+01
4.418986e+01	-1.152150e+01
4.444510e+01	-1.156898e+01
4.470182e+01	-1.161499e+01
4.496001e+01	-1.166112e+01
4.521970e+01	-1.170798e+01
4.548089e+01	-1.175484e+01
4.574358e+01	-1.180180e+01
4.600779e+01	-1.184833e+01
4.627353e+01	-1.189496e+01
4.654081e+01	-1.194184e+01
4.680963e+01	-1.198848e+01
4.708000e+01	-1.203588e+01
4.735193e+01	-1.208307e+01
4.762543e+01	-1.212996e+01
4.790051e+01	-1.217611e+01
4.817719e+01	-1.222264e+01
4.845545e+01	-1.227027e+01
4.873533e+01	-1.231765e+01
4.901682e+01	-1.236495e+01
4.929994e+01	-1.241231e+01
4.958470e+01	-1.245870e+01
4.987110e+01	-1.250588e+01
5.015915e+01	-1.255358e+01
5.044887e+01	-1.260102e+01
5.074026e+01	-1.264790e+01
5.103333e+01	-1.269565e+01
5.132810e+01	-1.274223e+01
5.162457e+01	-1.279070e+01
5.192275e+01	-1.283849e+01
5.222265e+01	-1.288499e+01
5.252429e+01	-1.293245e+01
5.282767e+01	-1.297948e+01
5.313280e+01	-1.302740e+01
5.343969e+01	-1.307525e+01
5.374836e+01	-1.312285e+01
5.405880e+01	-1.317066e+01
5.437105e+01	-1.321810e+01
5.468509e+01	-1.326631e+01
5.500095e+01	-1.331360e+01
5.531863e+01	-1.336161e+01
5.563815e+01	-1.340880e+01
5.595951e+01	-1.345676e+01
5.628273e+01	-1.350437e+01
5.660782e+01	-1.355237e+01
5.693479e+01	-1.360006e+01
5.726364e+01	-1.364751e+01
5.759439e+01	-1.369576e+01
5.792705e+01	-1.374368e+01
5.826164e+01	-1.379140e+01
5.859815e+01	-1.383975e+01
5.893662e+01	-1.388778e+01
5.927703e+01	-1.393534e+01
5.961941e+01	-1.398327e+01
5.996377e+01	-1.403211e+01
6.031012e+01	-1.407966e+01
6.065847e+01	-1.412738e+01
6.100883e+01	-1.417540e+01
6.136121e+01	-1.422328e+01
6.171563e+01	-1.427191e+01
6.207210e+01	-1.432073e+01
6.243063e+01	-1.436898e+01
6.279122e+01	-1.441633e+01
6.315390e+01	-1.446527e+01
6.351868e+01	-1.451288e+01
6.388556e+01	-1.456149e+01
6.425456e+01	-1.460987e+01
6.462569e+01	-1.465827e+01
6.499897e+01	-1.470636e+01
6.537440e+01	-1.475466e+01
6.575200e+01	-1.480308e+01
6.613178e+01	-1.485099e+01
6.651375e+01	-1.489883e+01
6.689793e+01	-1.494840e+01
6.728433e+01	-1.499659e+01
6.767297e+01	-1.504420e+01
6.806384e+01	-1.509308e+01
6.845698e+01	-1.514143e+01
6.885238e+01	-1.518987e+01
6.925007e+01	-1.523844e+01
6.965005e+01	-1.528679e+01
7.005235e+01	-1.533580e+01
7.045697e+01	-1.538448e+01
7.086393e+01	-1.543269e+01
7.127323e+01	-1.548179e+01
7.168490e+01	-1.552954e+01
7.209895e+01	-1.557836e+01
7.251539e+01	-1.562646e+01
7.293424e+01	-1.567573e+01
7.335551e+01	-1.572508e+01
7.377920e+01	-1.577381e+01
7.420535e+01	-1.582232e+01
7.463396e+01	-1.587193e+01
7.506504e+01	-1.592039e+01
7.549861e+01	-1.596805e+01
7.593469e+01	-1.601809e+01
7.637328e+01	-1.606628e+01
7.681441e+01	-1.611552e+01
7.725809e+01	-1.616358e+01
7.770433e+01	-1.621257e+01
7.815315e+01	-1.626097e+01
7.860456e+01	-1.631082e+01
7.905857e+01	-1.635994e+01
7.951521e+01	-1.640812e+01
7.997449e+01	-1.645712e+01
8.043642e+01	-1.650559e+01
8.090102e+01	-1.655499e+01
8.136830e+01	-1.660378e+01
8.183828e+01	-1.665290e+01
8.231097e+01	-1.670202e+01
8.278640e+01	-1.675043e+01
8.326457e+01	-1.679987e+01
8.374550e+01	-1.684881e+01
8.422921e+01	-1.689815e+01
8.471572e+01	-1.694720e+01
8.520503e+01	-1.699530e+01
8.569717e+01	-1.704378e+01
8.619215e+01	-1.709319e+01
8.669000e+01	-1.714366e+01
8.719071e+01	-1.719076e+01
8.769432e+01	-1.724058e+01
8.820084e+01	-1.729015e+01
8.871029e+01	-1.733938e+01
8.922267e+01	-1.738826e+01
8.973802e+01	-1.743651e+01
9.025634e+01	-1.748663e+01
9.077766e+01	-1.753393e+01
9.130199e+01	-1.758554e+01
9.182935e+01	-1.763451e+01
9.235975e+01	-1.768388e+01
9.289321e+01	-1.773277e+01
9.342976e+01	-1.778071e+01
9.396941e+01	-1.783127e+01
9.451217e+01	-1.788011e+01
9.505807e+01	-1.792961e+01
9.560712e+01	-1.797876e+01
9.615934e+01	-1.802809e+01
9.671476e+01	-1.807617e+01
9.727338e+01	-1.812604e+01
9.783522e+01	-1.817655e+01
9.840032e+01	-1.822401e+01
9.896867e+01	-1.827394e+01
9.954031e+01	-1.832418e+01
1.001153e+02	-1.837337e+01
1.006935e+02	-1.842119e+01
1.012751e+02	-1.847270e+01
1.018601e+02	-1.852006e+01
1.024484e+02	-1.857111e+01
1.030402e+02	-1.861896e+01
1.036353e+02	-1.866791e+01
1.042339e+02	-1.871862e+01
1.048360e+02	-1.876632e+01
1.054415e+02	-1.881586e+01
1.060505e+02	-1.886515e+01
1.066631e+02	-1.891566e+01
1.072791e+02	-1.896645e+01
1.078988e+02	-1.901286e+01
1.085220e+02	-1.906297e+01
1.091488e+02	-1.911363e+01
1.097793e+02	-1.916201e+01
1.104133e+02	-1.921113e+01
1.110511e+02	-1.926123e+01
1.116925e+02	-1.931150e+01
1.123376e+02	-1.935999e+01
1.129865e+02	-1.940950e+01
1.136391e+02	-1.945876e+01
1.142955e+02	-1.950936e+01
1.149556e+02	-1.955739e+01
1.156196e+02	-1.960832e+01
1.162874e+02	-1.965724e+01
1.169591e+02	-1.970629e+01
1.176347e+02	-1.975576e+01
1.183141e+02	-1.980541e+01
1.189975e+02	-1.985414e+01
1.196848e+02	-1.990267e+01
1.203761e+02	-1.995419e+01
1.210714e+02	-2.000380e+01
1.217707e+02	-2.005222e+01
1.224740e+02	-2.010236e+01
1.231814e+02	-2.015210e+01
1.238929e+02	-2.020138e+01
1.246085e+02	-2.025080e+01
1.253283e+02	-2.030314e+01
1.260522e+02	-2.034978e+01
1.267802e+02	-2.039978e+01
1.275125e+02	-2.045010e+01
1.282490e+02	-2.050073e+01
1.289898e+02	-2.054866e+01
1.297348e+02	-2.059899e+01
1.304842e+02	-2.064784e+01
1.312378e+02	-2.069822e+01
1.319959e+02	-2.074928e+01
1.327583e+02	-2.079650e+01
1.335251e+02	-2.084774e+01
1.342963e+02	-2.089662e+01
1.350720e+02	-2.094596e+01
1.358522e+02	-2.099535e+01
1.366368e+02	-2.104573e+01
1.374260e+02	-2.109449e+01
1.382198e+02	-2.114409e+01
1.390182e+02	-2.119343e+01
1.398211e+02	-2.124534e+01
1.406287e+02	-2.129360e+01
1.414410e+02	-2.134300e+01
1.422579e+02	-2.139353e+01
1.430796e+02	-2.144137e+01
1.439060e+02	-2.149235e+01
1.447372e+02	-2.154153e+01
1.455732e+02	-2.159167e+01
1.464141e+02	-2.164184e+01
1.472597e+02	-2.169015e+01
1.481103e+02	-2.173843e+01
1.489658e+02	-2.178940e+01
1.498262e+02	-2.184143e+01
1.506916e+02	-2.189019e+01
1.515620e+02	-2.193832e+01
1.524374e+02	-2.198964e+01
1.533179e+02	-2.203996e+01
1.542034e+02	-2.208697e+01
1.550941e+02	-2.214073e+01
1.559899e+02	-2.218928e+01
1.568909e+02	-2.223986e+01
1.577971e+02	-2.228756e+01
1.587085e+02	-2.233560e+01
1.596252e+02	-2.238589e+01
1.605472e+02	-2.243762e+01
1.614745e+02	-2.248548e+01
1.624072e+02	-2.253372e+01
1.633453e+02	-2.258513e+01
1.642887e+02	-2.263695e+01
1.652377e+02	-2.268500e+01
1.661921e+02	-2.273517e+01
1.671520e+02	-2.278391e+01
1.681175e+02	-2.283404e+01
1.690885e+02	-2.288636e+01
1.700651e+02	-2.293459e+01
1.710474e+02	-2.298370e+01
1.720354e+02	-2.303380e+01
1.730291e+02	-2.308407e+01
1.740285e+02	-2.313331e+01
1.750337e+02	-2.318207e+01
1.760446e+02	-2.323348e+01
1.770615e+02	-2.328436e+01
1.780842e+02	-2.333295e+01
1.791128e+02	-2.338246e+01
1.801473e+02	-2.343193e+01
1.811878e+02	-2.348423e+01
1.822344e+02	-2.353359e+01
1.832870e+02	-2.358296e+01
1.843456e+02	-2.363080e+01
1.854104e+02	-2.367982e+01
1.864813e+02	-2.373194e+01
1.875584e+02	-2.378127e+01
1.886418e+02	-2.383116e+01
1.897313e+02	-2.388251e+01
1.908272e+02	-2.392932e+01
1.919294e+02	-2.398028e+01
1.930380e+02	-2.402858e+01
1.941530e+02	-2.407867e+01
1.952744e+02	-2.412978e+01
1.964023e+02	-2.417952e+01
1.975367e+02	-2.422993e+01
1.986777e+02	-2.427989e+01
1.998252e+02	-2.432826e+01
2.009794e+02	-2.438009e+01
2.021403e+02	-2.442561e+01
2.033078e+02	-2.447876e+01
2.044821e+02	-2.452899e+01
2.056632e+02	-2.457981e+01
2.068511e+02	-2.462963e+01
2.080459e+02	-2.468055e+01
2.092475e+02	-2.472923e+01
2.104561e+02	-2.477596e+01
2.116717e+02	-2.482890e+01
2.128943e+02	-2.487846e+01
2.141240e+02	-2.492904e+01
2.153608e+02	-2.498033e+01
2.166047e+02	-2.502984e+01
2.178558e+02	-2.507893e+01
2.191141e+02	-2.512769e+01
2.203797e+02	-2.517613e+01
2.216526e+02	-2.522906e+01
2.229329e+02	-2.527797e+01
2.242205e+02	-2.532727e+01
2.255156e+02	-2.538070e+01
2.268182e+02	-2.543027e+01
2.281283e+02	-2.547899e+01
2.294459e+02	-2.552766e+01
2.307712e+02	-2.557809e+01
2.321041e+02	-2.562670e+01
2.334447e+02	-2.567552e+01
2.347931e+02	-2.572611e+01
2.361493e+02	-2.577743e+01
2.375133e+02	-2.582848e+01
2.388851e+02	-2.587886e+01
2.402649e+02	-2.592555e+01
2.416527e+02	-2.597590e+01
2.430484e+02	-2.602465e+01
2.444523e+02	-2.607832e+01
2.458642e+02	-2.613133e+01
2.472843e+02	-2.617425e+01
2.487126e+02	-2.622592e+01
2.501492e+02	-2.627504e+01
2.515940e+02	-2.632936e+01
2.530472e+02	-2.637755e+01
2.545088e+02	-2.642506e+01
2.559789e+02	-2.647721e+01
2.574574e+02	-2.652727e+01
2.589444e+02	-2.657480e+01
2.604401e+02	-2.662594e+01
2.619444e+02	-2.668043e+01
2.634574e+02	-2.672850e+01
2.649791e+02	-2.677420e+01
2.665096e+02	-2.682721e+01
2.680489e+02	-2.687714e+01
2.695972e+02	-2.692459e+01
2.711544e+02	-2.697613e+01
2.727205e+02	-2.702968e+01
2.742958e+02	-2.707969e+01
2.758801e+02	-2.712826e+01
2.774736e+02	-2.717456e+01
2.790762e+02	-2.722699e+01
2.806882e+02	-2.728010e+01
2.823094e+02	-2.732813e+01
2.839400e+02	-2.737593e+01
2.855800e+02	-2.742659e+01
2.872295e+02	-2.747577e+01
2.888886e+02	-2.752649e+01
2.905572e+02	-2.757560e+01
2.922354e+02	-2.762811e+01
2.939234e+02	-2.767804e+01
2.956211e+02	-2.772725e+01
2.973286e+02	-2.777680e+01
2.990459e+02	-2.782684e+01
3.007732e+02	-2.787648e+01
3.025104e+02	-2.792924e+01
3.042577e+02	-2.797336e+01
3.060151e+02	-2.802923e+01
3.077826e+02	-2.807400e+01
3.095604e+02	-2.812682e+01
3.113484e+02	-2.817558e+01
3.131467e+02	-2.822727e+01
3.149554e+02	-2.827870e+01
3.167746e+02	-2.832633e+01
3.186043e+02	-2.837855e+01
3.204445e+02	-2.842535e+01
3.222954e+02	-2.847394e+01
3.241570e+02	-2.852727e+01
3.260293e+02	-2.857658e+01
3.279124e+02	-2.862341e+01
3.298064e+02	-2.867637e+01
3.317114e+02	-2.872840e+01
3.336273e+02	-2.877497e+01
3.355544e+02	-2.882508e+01
3.374925e+02	-2.887909e+01
3.394418e+02	-2.892591e+01
3.414024e+02	-2.897562e+01
3.433744e+02	-2.902895e+01
3.453577e+02	-2.907733e+01
3.473525e+02	-2.913162e+01
3.493588e+02	-2.917705e+01
3.513766e+02	-2.922632e+01
3.534062e+02	-2.927793e+01
3.554474e+02	-2.932581e+01
3.575005e+02	-2.937495e+01
3.595654e+02	-2.942872e+01
3.616422e+02	-2.948313e+01
3.637311e+02	-2.952895e+01
3.658320e+02	-2.957736e+01
3.679450e+02	-2.962627e+01
3.700702e+02	-2.967958e+01
3.722077e+02	-2.972654e+01
3.743576e+02	-2.977762e+01
3.765199e+02	-2.982562e+01
3.786946e+02	-2.987890e+01
3.808820e+02	-2.992853e+01
3.830819e+02	-2.997809e+01
3.852946e+02	-3.003324e+01
3.875200e+02	-3.008189e+01
3.897583e+02	-3.012882e+01
3.920096e+02	-3.018166e+01
3.942738e+02	-3.022816e+01
3.965511e+02	-3.027732e+01
3.988416e+02	-3.033182e+01
4.011452e+02	-3.038264e+01
4.034622e+02	-3.042952e+01
4.057926e+02	-3.047885e+01
4.081365e+02	-3.052797e+01
4.104938e+02	-3.057640e+01
4.128648e+02	-3.062786e+01
4.152495e+02	-3.068344e+01
4.176480e+02	-3.073038e+01
4.200603e+02	-3.077911e+01
4.224866e+02	-3.082995e+01
4.249268e+02	-3.087750e+01
4.273812e+02	-3.092930e+01
4.298497e+02	-3.098211e+01
4.323325e+02	-3.103354e+01
4.348297e+02	-3.108209e+01
4.373412e+02	-3.112349e+01
4.398673e+02	-3.118112e+01
4.424079e+02	-3.123631e+01
4.449633e+02	-3.128674e+01
4.475334e+02	-3.133647e+01
4.501183e+02	-3.137920e+01
4.527182e+02	-3.143902e+01
4.553330e+02	-3.147985e+01
4.579630e+02	-3.153636e+01
4.606082e+02	-3.157703e+01
4.632687e+02	-3.163484e+01
4.659445e+02	-3.168184e+01
4.686358e+02	-3.173148e+01
4.713426e+02	-3.179027e+01
4.740650e+02	-3.183401e+01
4.768032e+02	-3.188788e+01
4.795572e+02	-3.193381e+01
4.823271e+02	-3.199139e+01
4.851130e+02	-3.203299e+01
4.879150e+02	-3.208531e+01
4.907332e+02	-3.213776e+01
4.935676e+02	-3.218602e+01
4.964185e+02	-3.223935e+01
4.992858e+02	-3.229071e+01
5.021696e+02	-3.233543e+01
5.050701e+02	-3.238598e+01
5.079874e+02	-3.243423e+01
5.109215e+02	-3.248109e+01
5.138726e+02	-3.253674e+01
5.168407e+02	-3.258387e+01
5.198259e+02	-3.263836e+01
5.228284e+02	-3.268572e+01
5.258482e+02	-3.273299e+01
5.288855e+02	-3.278991e+01
5.319403e+02	-3.283791e+01
5.350128e+02	-3.288670e+01
5.381030e+02	-3.293783e+01
5.412111e+02	-3.298947e+01
5.443371e+02	-3.303501e+01
5.474812e+02	-3.308790e+01
5.506434e+02	-3.313962e+01
5.538239e+02	-3.319125e+01
5.570228e+02	-3.323895e+01
5.602401e+02	-3.329168e+01
5.634760e+02	-3.333858e+01
5.667306e+02	-3.338359e+01
5.700040e+02	-3.344830e+01
5.732964e+02	-3.348400e+01
5.766077e+02	-3.353410e+01
5.799382e+02	-3.359022e+01
5.832879e+02	-3.364419e+01
5.866569e+02	-3.369239e+01
5.900454e+02	-3.374254e+01
5.934535e+02	-3.379665e+01
5.968813e+02	-3.384628e+01
6.003288e+02	-3.389479e+01
6.037963e+02	-3.394628e+01
6.072838e+02	-3.399972e+01
6.107914e+02	-3.404316e+01
6.143194e+02	-3.409089e+01
6.178676e+02	-3.414954e+01
6.214364e+02	-3.419585e+01
6.250258e+02	-3.424431e+01
6.286359e+02	-3.429415e+01
6.322669e+02	-3.434315e+01
6.359189e+02	-3.439355e+01
6.395919e+02	-3.444536e+01
6.432862e+02	-3.450112e+01
6.470017e+02	-3.454778e+01
6.507388e+02	-3.459169e+01
6.544974e+02	-3.465303e+01
6.582778e+02	-3.470078e+01
6.620800e+02	-3.474434e+01
6.659041e+02	-3.479583e+01
6.697504e+02	-3.484787e+01
6.736188e+02	-3.490257e+01
6.775096e+02	-3.495408e+01
6.814229e+02	-3.500085e+01
6.853587e+02	-3.504952e+01
6.893173e+02	-3.509916e+01
6.932988e+02	-3.515144e+01
6.973033e+02	-3.519089e+01
7.013309e+02	-3.525146e+01
