Frequency(Hz)	Magnitude(dB)
1.000000e+01	-1.601622e-05
1.005776e+01	-1.620177e-05
1.011585e+01	-1.638948e-05
1.017428e+01	-1.657935e-05
1.023305e+01	-1.677143e-05
1.029215e+01	-1.696573e-05
1.035160e+01	-1.716228e-05
1.041139e+01	-1.736111e-05
1.047153e+01	-1.756224e-05
1.053201e+01	-1.776571e-05
1.059284e+01	-1.797153e-05
1.065403e+01	-1.817973e-05
1.071556e+01	-1.839035e-05
1.077746e+01	-1.860341e-05
1.083971e+01	-1.881893e-05
1.090232e+01	-1.903695e-05
1.096529e+01	-1.925750e-05
1.102862e+01	-1.948060e-05
1.109232e+01	-1.970629e-05
1.115639e+01	-1.993459e-05
1.122083e+01	-2.016554e-05
1.128564e+01	-2.039916e-05
1.135083e+01	-2.063549e-05
1.141639e+01	-2.087456e-05
1.148233e+01	-2.111640e-05
1.154865e+01	-2.136104e-05
1.161536e+01	-2.160851e-05
1.168245e+01	-2.185885e-05
1.174992e+01	-2.211209e-05
1.181779e+01	-2.236826e-05
1.188605e+01	-2.262741e-05
1.195470e+01	-2.288955e-05
1.202375e+01	-2.315473e-05
1.209320e+01	-2.342299e-05
1.216305e+01	-2.369435e-05
1.223330e+01	-2.396885e-05
1.230396e+01	-2.424654e-05
1.237503e+01	-2.452744e-05
1.244651e+01	-2.481159e-05
1.251840e+01	-2.509904e-05
1.259070e+01	-2.538982e-05
1.266343e+01	-2.568397e-05
1.273657e+01	-2.598152e-05
1.281014e+01	-2.628253e-05
1.288413e+01	-2.658702e-05
1.295855e+01	-2.689503e-05
1.303339e+01	-2.720662e-05
1.310867e+01	-2.752181e-05
1.318439e+01	-2.784066e-05
1.326054e+01	-2.816320e-05
1.333713e+01	-2.848948e-05
1.341417e+01	-2.881954e-05
1.349165e+01	-2.915342e-05
1.356958e+01	-2.949117e-05
1.364795e+01	-2.983283e-05
1.372678e+01	-3.017845e-05
1.380607e+01	-3.052807e-05
1.388581e+01	-3.088175e-05
1.396602e+01	-3.123952e-05
1.404668e+01	-3.160144e-05
1.412782e+01	-3.196755e-05
1.420942e+01	-3.233790e-05
1.429149e+01	-3.271254e-05
1.437404e+01	-3.309153e-05
1.445706e+01	-3.347490e-05
1.454057e+01	-3.386271e-05
1.462455e+01	-3.425502e-05
1.470902e+01	-3.465187e-05
1.479398e+01	-3.505332e-05
1.487943e+01	-3.545942e-05
1.496537e+01	-3.587023e-05
1.505181e+01	-3.628580e-05
1.513875e+01	-3.670617e-05
1.522619e+01	-3.713142e-05
1.531414e+01	-3.756160e-05
1.540259e+01	-3.799676e-05
1.549156e+01	-3.843696e-05
1.558103e+01	-3.888226e-05
1.567103e+01	-3.933272e-05
1.576155e+01	-3.978840e-05
1.585258e+01	-4.024936e-05
1.594415e+01	-4.071566e-05
1.603624e+01	-4.118736e-05
1.612886e+01	-4.166452e-05
1.622202e+01	-4.214721e-05
1.631572e+01	-4.263550e-05
1.640996e+01	-4.312944e-05
1.650474e+01	-4.362910e-05
1.660008e+01	-4.413456e-05
1.669596e+01	-4.464587e-05
1.679239e+01	-4.516310e-05
1.688938e+01	-4.568632e-05
1.698694e+01	-4.621561e-05
1.708505e+01	-4.675103e-05
1.718373e+01	-4.729265e-05
1.728299e+01	-4.784054e-05
1.738281e+01	-4.839479e-05
1.748322e+01	-4.895545e-05
1.758420e+01	-4.952261e-05
1.768576e+01	-5.009634e-05
1.778792e+01	-5.067672e-05
1.789066e+01	-5.126382e-05
1.799399e+01	-5.185772e-05
1.809793e+01	-5.245850e-05
1.820246e+01	-5.306624e-05
1.830760e+01	-5.368103e-05
1.841334e+01	-5.430293e-05
1.851969e+01	-5.493204e-05
1.862666e+01	-5.556844e-05
1.873425e+01	-5.621221e-05
1.884246e+01	-5.686344e-05
1.895129e+01	-5.752222e-05
1.906075e+01	-5.818863e-05
1.917085e+01	-5.886275e-05
1.928158e+01	-5.954469e-05
1.939295e+01	-6.023453e-05
1.950496e+01	-6.093236e-05
1.961762e+01	-6.163827e-05
1.973093e+01	-6.235236e-05
1.984490e+01	-6.307472e-05
1.995952e+01	-6.380546e-05
2.007480e+01	-6.454466e-05
2.019076e+01	-6.529242e-05
2.030738e+01	-6.604884e-05
2.042467e+01	-6.681403e-05
2.054264e+01	-6.758809e-05
2.066130e+01	-6.837111e-05
2.078064e+01	-6.916320e-05
2.090066e+01	-6.996447e-05
2.102139e+01	-7.077502e-05
2.114280e+01	-7.159496e-05
2.126492e+01	-7.242440e-05
2.138775e+01	-7.326345e-05
2.151128e+01	-7.411222e-05
2.163553e+01	-7.497082e-05
2.176050e+01	-7.583937e-05
2.188619e+01	-7.671799e-05
2.201260e+01	-7.760678e-05
2.213974e+01	-7.850587e-05
2.226762e+01	-7.941537e-05
2.239624e+01	-8.033541e-05
2.252560e+01	-8.126611e-05
2.265571e+01	-8.220759e-05
2.278656e+01	-8.315998e-05
2.291818e+01	-8.412340e-05
2.305055e+01	-8.509799e-05
2.318369e+01	-8.608386e-05
2.331760e+01	-8.708116e-05
2.345228e+01	-8.809001e-05
2.358774e+01	-8.911054e-05
2.372398e+01	-9.014290e-05
2.386101e+01	-9.118722e-05
2.399883e+01	-9.224364e-05
2.413745e+01	-9.331230e-05
2.427686e+01	-9.439333e-05
2.441709e+01	-9.548690e-05
2.455812e+01	-9.659313e-05
2.469997e+01	-9.771217e-05
2.484263e+01	-9.884418e-05
2.498612e+01	-9.998931e-05
2.513044e+01	-1.011477e-04
2.527559e+01	-1.023195e-04
2.542158e+01	-1.035049e-04
2.556842e+01	-1.047040e-04
2.571610e+01	-1.059170e-04
2.586463e+01	-1.071441e-04
2.601403e+01	-1.083854e-04
2.616428e+01	-1.096410e-04
2.631541e+01	-1.109112e-04
2.646740e+01	-1.121961e-04
2.662028e+01	-1.134960e-04
2.677404e+01	-1.148108e-04
2.692868e+01	-1.161409e-04
2.708422e+01	-1.174864e-04
2.724066e+01	-1.188475e-04
2.739800e+01	-1.202244e-04
2.755625e+01	-1.216172e-04
2.771541e+01	-1.230261e-04
2.787550e+01	-1.244514e-04
2.803650e+01	-1.258932e-04
2.819844e+01	-1.273517e-04
2.836131e+01	-1.288271e-04
2.852513e+01	-1.303195e-04
2.868989e+01	-1.318293e-04
2.885560e+01	-1.333566e-04
2.902227e+01	-1.349015e-04
2.918990e+01	-1.364644e-04
2.935850e+01	-1.380453e-04
2.952807e+01	-1.396446e-04
2.969863e+01	-1.412624e-04
2.987016e+01	-1.428989e-04
3.004269e+01	-1.445544e-04
3.021622e+01	-1.462291e-04
3.039075e+01	-1.479232e-04
3.056628e+01	-1.496369e-04
3.074283e+01	-1.513704e-04
3.092040e+01	-1.531241e-04
3.109900e+01	-1.548980e-04
3.127862e+01	-1.566925e-04
3.145929e+01	-1.585078e-04
3.164099e+01	-1.603441e-04
3.182375e+01	-1.622017e-04
3.200756e+01	-1.640808e-04
3.219244e+01	-1.659817e-04
3.237838e+01	-1.679046e-04
3.256540e+01	-1.698498e-04
3.275349e+01	-1.718175e-04
3.294268e+01	-1.738081e-04
3.313295e+01	-1.758216e-04
3.332433e+01	-1.778585e-04
3.351681e+01	-1.799190e-04
3.371040e+01	-1.820034e-04
3.390511e+01	-1.841119e-04
3.410094e+01	-1.862449e-04
3.429791e+01	-1.884025e-04
3.449601e+01	-1.905852e-04
3.469526e+01	-1.927931e-04
3.489566e+01	-1.950266e-04
3.509721e+01	-1.972860e-04
3.529993e+01	-1.995715e-04
3.550382e+01	-2.018836e-04
3.570889e+01	-2.042224e-04
3.591515e+01	-2.065883e-04
3.612259e+01	-2.089816e-04
3.633123e+01	-2.114027e-04
3.654108e+01	-2.138518e-04
3.675214e+01	-2.163293e-04
3.696442e+01	-2.188354e-04
3.717792e+01	-2.213706e-04
3.739266e+01	-2.239352e-04
3.760864e+01	-2.265295e-04
3.782587e+01	-2.291538e-04
3.804435e+01	-2.318086e-04
3.826409e+01	-2.344941e-04
3.848510e+01	-2.372107e-04
3.870739e+01	-2.399588e-04
3.893096e+01	-2.427387e-04
3.915583e+01	-2.455508e-04
3.938199e+01	-2.483955e-04
3.960946e+01	-2.512731e-04
3.983824e+01	-2.541841e-04
4.006834e+01	-2.571288e-04
4.029978e+01	-2.601076e-04
4.053255e+01	-2.631210e-04
4.076666e+01	-2.661692e-04
4.100213e+01	-2.692528e-04
4.123896e+01	-2.723720e-04
4.147715e+01	-2.755274e-04
4.171672e+01	-2.787194e-04
4.195767e+01	-2.819483e-04
4.220002e+01	-2.852147e-04
4.244377e+01	-2.885188e-04
4.268892e+01	-2.918613e-04
4.293549e+01	-2.952425e-04
4.318348e+01	-2.986628e-04
4.343291e+01	-3.021228e-04
4.368377e+01	-3.056229e-04
4.393609e+01	-3.091635e-04
4.418986e+01	-3.127451e-04
4.444510e+01	-3.163682e-04
4.470182e+01	-3.200333e-04
4.496001e+01	-3.237408e-04
4.521970e+01	-3.274913e-04
4.548089e+01	-3.312852e-04
4.574358e+01	-3.351231e-04
4.600779e+01	-3.390054e-04
4.627353e+01	-3.429328e-04
4.654081e+01	-3.469056e-04
4.680963e+01	-3.509244e-04
4.708000e+01	-3.549898e-04
4.735193e+01	-3.591023e-04
4.762543e+01	-3.632624e-04
4.790051e+01	-3.674707e-04
4.817719e+01	-3.717278e-04
4.845545e+01	-3.760342e-04
4.873533e+01	-3.803904e-04
4.901682e+01	-3.847972e-04
4.929994e+01	-3.892550e-04
4.958470e+01	-3.937644e-04
4.987110e+01	-3.983260e-04
5.015915e+01	-4.029405e-04
5.044887e+01	-4.076085e-04
5.074026e+01	-4.123305e-04
5.103333e+01	-4.171073e-04
5.132810e+01	-4.219393e-04
5.162457e+01	-4.268274e-04
5.192275e+01	-4.317721e-04
5.222265e+01	-4.367740e-04
5.252429e+01	-4.418339e-04
5.282767e+01	-4.469524e-04
5.313280e+01	-4.521302e-04
5.343969e+01	-4.573680e-04
5.374836e+01	-4.626664e-04
5.405880e+01	-4.680263e-04
5.437105e+01	-4.734482e-04
5.468509e+01	-4.789329e-04
5.500095e+01	-4.844812e-04
5.531863e+01	-4.900937e-04
5.563815e+01	-4.957712e-04
5.595951e+01	-5.015145e-04
5.628273e+01	-5.073244e-04
5.660782e+01	-5.132015e-04
5.693479e+01	-5.191468e-04
5.726364e+01	-5.251609e-04
5.759439e+01	-5.312446e-04
5.792705e+01	-5.373989e-04
5.826164e+01	-5.436244e-04
5.859815e+01	-5.499220e-04
5.893662e+01	-5.562926e-04
5.927703e+01	-5.627370e-04
5.961941e+01	-5.692560e-04
5.996377e+01	-5.758506e-04
6.031012e+01	-5.825215e-04
6.065847e+01	-5.892697e-04
6.100883e+01	-5.960961e-04
6.136121e+01	-6.030016e-04
6.171563e+01	-6.099870e-04
6.207210e+01	-6.170534e-04
6.243063e+01	-6.242016e-04
6.279122e+01	-6.314326e-04
6.315390e+01	-6.387474e-04
6.351868e+01	-6.461469e-04
6.388556e+01	-6.536322e-04
6.425456e+01	-6.612041e-04
6.462569e+01	-6.688637e-04
6.499897e+01	-6.766121e-04
6.537440e+01	-6.844502e-04
6.575200e+01	-6.923791e-04
6.613178e+01	-7.003999e-04
6.651375e+01	-7.085136e-04
6.689793e+01	-7.167212e-04
6.728433e+01	-7.250239e-04
6.767297e+01	-7.334228e-04
6.806384e+01	-7.419190e-04
6.845698e+01	-7.505136e-04
6.885238e+01	-7.592077e-04
6.925007e+01	-7.680026e-04
6.965005e+01	-7.768993e-04
7.005235e+01	-7.858991e-04
7.045697e+01	-7.950031e-04
7.086393e+01	-8.042126e-04
7.127323e+01	-8.135287e-04
7.168490e+01	-8.229528e-04
7.209895e+01	-8.324860e-04
7.251539e+01	-8.421297e-04
7.293424e+01	-8.518850e-04
7.335551e+01	-8.617533e-04
7.377920e+01	-8.717360e-04
7.420535e+01	-8.818343e-04
7.463396e+01	-8.920495e-04
7.506504e+01	-9.023831e-04
7.549861e+01	-9.128363e-04
7.593469e+01	-9.234107e-04
7.637328e+01	-9.341075e-04
7.681441e+01	-9.449282e-04
7.725809e+01	-9.558742e-04
7.770433e+01	-9.669471e-04
7.815315e+01	-9.781481e-04
7.860456e+01	-9.894790e-04
7.905857e+01	-1.000941e-03
7.951521e+01	-1.012536e-03
7.997449e+01	-1.024265e-03
8.043642e+01	-1.036130e-03
8.090102e+01	-1.048132e-03
8.136830e+01	-1.060274e-03
8.183828e+01	-1.072556e-03
8.231097e+01	-1.084980e-03
8.278640e+01	-1.097548e-03
8.326457e+01	-1.110262e-03
8.374550e+01	-1.123123e-03
8.422921e+01	-1.136133e-03
8.471572e+01	-1.149294e-03
8.520503e+01	-1.162607e-03
8.569717e+01	-1.176074e-03
8.619215e+01	-1.189697e-03
8.669000e+01	-1.203478e-03
8.719071e+01	-1.217419e-03
8.769432e+01	-1.231521e-03
8.820084e+01	-1.245787e-03
8.871029e+01	-1.260217e-03
8.922267e+01	-1.274815e-03
8.973802e+01	-1.289582e-03
9.025634e+01	-1.304520e-03
9.077766e+01	-1.319631e-03
9.130199e+01	-1.334917e-03
9.182935e+01	-1.350380e-03
9.235975e+01	-1.366022e-03
9.289321e+01	-1.381845e-03
9.342976e+01	-1.397852e-03
9.396941e+01	-1.414043e-03
9.451217e+01	-1.430423e-03
9.505807e+01	-1.446992e-03
9.560712e+01	-1.463753e-03
9.615934e+01	-1.480708e-03
9.671476e+01	-1.497859e-03
9.727338e+01	-1.515209e-03
9.783522e+01	-1.532760e-03
9.840032e+01	-1.550515e-03
9.896867e+01	-1.568475e-03
9.954031e+01	-1.586643e-03
1.001153e+02	-1.605021e-03
1.006935e+02	-1.623612e-03
1.012751e+02	-1.642418e-03
1.018601e+02	-1.661443e-03
1.024484e+02	-1.680687e-03
1.030402e+02	-1.700154e-03
1.036353e+02	-1.719847e-03
1.042339e+02	-1.739768e-03
1.048360e+02	-1.759920e-03
1.054415e+02	-1.780305e-03
1.060505e+02	-1.800926e-03
1.066631e+02	-1.821786e-03
1.072791e+02	-1.842887e-03
1.078988e+02	-1.864233e-03
1.085220e+02	-1.885826e-03
1.091488e+02	-1.907669e-03
1.097793e+02	-1.929765e-03
1.104133e+02	-1.952116e-03
1.110511e+02	-1.974727e-03
1.116925e+02	-1.997600e-03
1.123376e+02	-2.020737e-03
1.129865e+02	-2.044142e-03
1.136391e+02	-2.067818e-03
1.142955e+02	-2.091769e-03
1.149556e+02	-2.115997e-03
1.156196e+02	-2.140505e-03
1.162874e+02	-2.165297e-03
1.169591e+02	-2.190376e-03
1.176347e+02	-2.215746e-03
1.183141e+02	-2.241409e-03
1.189975e+02	-2.267370e-03
1.196848e+02	-2.293631e-03
1.203761e+02	-2.320196e-03
1.210714e+02	-2.347069e-03
1.217707e+02	-2.374253e-03
1.224740e+02	-2.401752e-03
1.231814e+02	-2.429569e-03
1.238929e+02	-2.457708e-03
1.246085e+02	-2.486173e-03
1.253283e+02	-2.514968e-03
1.260522e+02	-2.544096e-03
1.267802e+02	-2.573561e-03
1.275125e+02	-2.603368e-03
1.282490e+02	-2.633519e-03
1.289898e+02	-2.664020e-03
1.297348e+02	-2.694874e-03
1.304842e+02	-2.726085e-03
1.312378e+02	-2.757657e-03
1.319959e+02	-2.789595e-03
1.327583e+02	-2.821903e-03
1.335251e+02	-2.854584e-03
1.342963e+02	-2.887644e-03
1.350720e+02	-2.921087e-03
1.358522e+02	-2.954917e-03
1.366368e+02	-2.989139e-03
1.374260e+02	-3.023757e-03
1.382198e+02	-3.058776e-03
1.390182e+02	-3.094200e-03
1.398211e+02	-3.130034e-03
1.406287e+02	-3.166283e-03
1.414410e+02	-3.202952e-03
1.422579e+02	-3.240045e-03
1.430796e+02	-3.277567e-03
1.439060e+02	-3.315524e-03
1.447372e+02	-3.353921e-03
1.455732e+02	-3.392761e-03
1.464141e+02	-3.432052e-03
1.472597e+02	-3.471797e-03
1.481103e+02	-3.512003e-03
1.489658e+02	-3.552673e-03
1.498262e+02	-3.593815e-03
1.506916e+02	-3.635433e-03
1.515620e+02	-3.677532e-03
1.524374e+02	-3.720119e-03
1.533179e+02	-3.763199e-03
1.542034e+02	-3.806778e-03
1.550941e+02	-3.850861e-03
1.559899e+02	-3.895454e-03
1.568909e+02	-3.940563e-03
1.577971e+02	-3.986195e-03
1.587085e+02	-4.032354e-03
1.596252e+02	-4.079048e-03
1.605472e+02	-4.126282e-03
1.614745e+02	-4.174063e-03
1.624072e+02	-4.222398e-03
1.633453e+02	-4.271291e-03
1.642887e+02	-4.320750e-03
1.652377e+02	-4.370782e-03
1.661921e+02	-4.421393e-03
1.671520e+02	-4.472589e-03
1.681175e+02	-4.524379e-03
1.690885e+02	-4.576767e-03
1.700651e+02	-4.629762e-03
1.710474e+02	-4.683370e-03
1.720354e+02	-4.737598e-03
1.730291e+02	-4.792454e-03
1.740285e+02	-4.847945e-03
1.750337e+02	-4.904078e-03
1.760446e+02	-4.960860e-03
1.770615e+02	-5.018300e-03
1.780842e+02	-5.076404e-03
1.791128e+02	-5.135181e-03
1.801473e+02	-5.194637e-03
1.811878e+02	-5.254782e-03
1.822344e+02	-5.315623e-03
1.832870e+02	-5.377167e-03
1.843456e+02	-5.439424e-03
1.854104e+02	-5.502401e-03
1.864813e+02	-5.566107e-03
1.875584e+02	-5.630550e-03
1.886418e+02	-5.695738e-03
1.897313e+02	-5.761681e-03
1.908272e+02	-5.828387e-03
1.919294e+02	-5.895864e-03
1.930380e+02	-5.964122e-03
1.941530e+02	-6.033170e-03
1.952744e+02	-6.103017e-03
1.964023e+02	-6.173671e-03
1.975367e+02	-6.245143e-03
1.986777e+02	-6.317442e-03
1.998252e+02	-6.390577e-03
2.009794e+02	-6.464559e-03
2.021403e+02	-6.539396e-03
2.033078e+02	-6.615098e-03
2.044821e+02	-6.691677e-03
2.056632e+02	-6.769141e-03
2.068511e+02	-6.847501e-03
2.080459e+02	-6.926768e-03
2.092475e+02	-7.006951e-03
2.104561e+02	-7.088062e-03
2.116717e+02	-7.170111e-03
2.128943e+02	-7.253109e-03
2.141240e+02	-7.337067e-03
2.153608e+02	-7.421996e-03
2.166047e+02	-7.507907e-03
2.178558e+02	-7.594812e-03
2.191141e+02	-7.682722e-03
2.203797e+02	-7.771648e-03
2.216526e+02	-7.861603e-03
2.229329e+02	-7.952598e-03
2.242205e+02	-8.044645e-03
2.255156e+02	-8.137757e-03
2.268182e+02	-8.231946e-03
2.281283e+02	-8.327223e-03
2.294459e+02	-8.423602e-03
2.307712e+02	-8.521096e-03
2.321041e+02	-8.619717e-03
2.334447e+02	-8.719478e-03
2.347931e+02	-8.820392e-03
2.361493e+02	-8.922473e-03
2.375133e+02	-9.025735e-03
2.388851e+02	-9.130190e-03
2.402649e+02	-9.235853e-03
2.416527e+02	-9.342737e-03
2.430484e+02	-9.450857e-03
2.444523e+02	-9.560226e-03
2.458642e+02	-9.670860e-03
2.472843e+02	-9.782773e-03
2.487126e+02	-9.895980e-03
2.501492e+02	-1.001049e-02
2.515940e+02	-1.012633e-02
2.530472e+02	-1.024351e-02
2.545088e+02	-1.036204e-02
2.559789e+02	-1.048194e-02
2.574574e+02	-1.060323e-02
2.589444e+02	-1.072592e-02
2.604401e+02	-1.085003e-02
2.619444e+02	-1.097557e-02
2.634574e+02	-1.110256e-02
2.649791e+02	-1.123102e-02
2.665096e+02	-1.136096e-02
2.680489e+02	-1.149241e-02
2.695972e+02	-1.162537e-02
2.711544e+02	-1.175987e-02
2.727205e+02	-1.189592e-02
2.742958e+02	-1.203355e-02
2.758801e+02	-1.217277e-02
2.774736e+02	-1.231359e-02
2.790762e+02	-1.245604e-02
2.806882e+02	-1.260014e-02
2.823094e+02	-1.274590e-02
2.839400e+02	-1.289334e-02
2.855800e+02	-1.304249e-02
2.872295e+02	-1.319336e-02
2.888886e+02	-1.334597e-02
2.905572e+02	-1.350035e-02
2.922354e+02	-1.365651e-02
2.939234e+02	-1.381447e-02
2.956211e+02	-1.397425e-02
2.973286e+02	-1.413588e-02
2.990459e+02	-1.429938e-02
3.007732e+02	-1.446477e-02
3.025104e+02	-1.463206e-02
3.042577e+02	-1.480129e-02
3.060151e+02	-1.497247e-02
3.077826e+02	-1.514562e-02
3.095604e+02	-1.532078e-02
3.113484e+02	-1.549796e-02
3.131467e+02	-1.567718e-02
3.149554e+02	-1.585847e-02
3.167746e+02	-1.604186e-02
3.186043e+02	-1.622736e-02
3.204445e+02	-1.641500e-02
3.222954e+02	-1.660480e-02
3.241570e+02	-1.679680e-02
3.260293e+02	-1.699102e-02
3.279124e+02	-1.718747e-02
3.298064e+02	-1.738619e-02
3.317114e+02	-1.758721e-02
3.336273e+02	-1.779054e-02
3.355544e+02	-1.799622e-02
3.374925e+02	-1.820427e-02
3.394418e+02	-1.841472e-02
3.414024e+02	-1.862760e-02
3.433744e+02	-1.884294e-02
3.453577e+02	-1.906076e-02
3.473525e+02	-1.928109e-02
3.493588e+02	-1.950396e-02
3.513766e+02	-1.972941e-02
3.534062e+02	-1.995745e-02
3.554474e+02	-2.018812e-02
3.575005e+02	-2.042146e-02
3.595654e+02	-2.065748e-02
3.616422e+02	-2.089622e-02
3.637311e+02	-2.113772e-02
3.658320e+02	-2.138200e-02
3.679450e+02	-2.162910e-02
3.700702e+02	-2.187904e-02
3.722077e+02	-2.213187e-02
3.743576e+02	-2.238761e-02
3.765199e+02	-2.264630e-02
3.786946e+02	-2.290797e-02
3.808820e+02	-2.317265e-02
3.830819e+02	-2.344039e-02
3.852946e+02	-2.371121e-02
3.875200e+02	-2.398514e-02
3.897583e+02	-2.426224e-02
3.920096e+02	-2.454253e-02
3.942738e+02	-2.482604e-02
3.965511e+02	-2.511283e-02
3.988416e+02	-2.540291e-02
4.011452e+02	-2.569634e-02
4.034622e+02	-2.599314e-02
4.057926e+02	-2.629336e-02
4.081365e+02	-2.659704e-02
4.104938e+02	-2.690422e-02
4.128648e+02	-2.721493e-02
4.152495e+02	-2.752922e-02
4.176480e+02	-2.784713e-02
4.200603e+02	-2.816870e-02
4.224866e+02	-2.849396e-02
4.249268e+02	-2.882297e-02
4.273812e+02	-2.915577e-02
4.298497e+02	-2.949240e-02
4.323325e+02	-2.983290e-02
4.348297e+02	-3.017732e-02
4.373412e+02	-3.052570e-02
4.398673e+02	-3.087808e-02
4.424079e+02	-3.123452e-02
4.449633e+02	-3.159506e-02
4.475334e+02	-3.195975e-02
4.501183e+02	-3.232863e-02
4.527182e+02	-3.270175e-02
4.553330e+02	-3.307916e-02
4.579630e+02	-3.346091e-02
4.606082e+02	-3.384705e-02
4.632687e+02	-3.423763e-02
4.659445e+02	-3.463269e-02
4.686358e+02	-3.503230e-02
4.713426e+02	-3.543650e-02
4.740650e+02	-3.584534e-02
4.768032e+02	-3.625888e-02
4.795572e+02	-3.667717e-02
4.823271e+02	-3.710026e-02
4.851130e+02	-3.752822e-02
4.879150e+02	-3.796109e-02
4.907332e+02	-3.839893e-02
4.935676e+02	-3.884179e-02
4.964185e+02	-3.928975e-02
4.992858e+02	-3.974284e-02
5.021696e+02	-4.020114e-02
5.050701e+02	-4.066469e-02
5.079874e+02	-4.113357e-02
5.109215e+02	-4.160782e-02
5.138726e+02	-4.208752e-02
5.168407e+02	-4.257272e-02
5.198259e+02	-4.306348e-02
5.228284e+02	-4.355988e-02
5.258482e+02	-4.406196e-02
5.288855e+02	-4.456981e-02
5.319403e+02	-4.508347e-02
5.350128e+02	-4.560303e-02
5.381030e+02	-4.612854e-02
5.412111e+02	-4.666008e-02
5.443371e+02	-4.719770e-02
5.474812e+02	-4.774149e-02
5.506434e+02	-4.829151e-02
5.538239e+02	-4.884782e-02
5.570228e+02	-4.941051e-02
5.602401e+02	-4.997965e-02
5.634760e+02	-5.055530e-02
5.667306e+02	-5.113754e-02
5.700040e+02	-5.172645e-02
5.732964e+02	-5.232210e-02
5.766077e+02	-5.292456e-02
5.799382e+02	-5.353392e-02
5.832879e+02	-5.415026e-02
5.866569e+02	-5.477364e-02
5.900454e+02	-5.540415e-02
5.934535e+02	-5.604188e-02
5.968813e+02	-5.668689e-02
6.003288e+02	-5.733929e-02
6.037963e+02	-5.799914e-02
6.072838e+02	-5.866653e-02
6.107914e+02	-5.934155e-02
6.143194e+02	-6.002428e-02
6.178676e+02	-6.071481e-02
6.214364e+02	-6.141323e-02
6.250258e+02	-6.211962e-02
6.286359e+02	-6.283408e-02
6.322669e+02	-6.355670e-02
6.359189e+02	-6.428757e-02
6.395919e+02	-6.502678e-02
6.432862e+02	-6.577442e-02
6.470017e+02	-6.653060e-02
6.507388e+02	-6.729539e-02
6.544974e+02	-6.806892e-02
6.582778e+02	-6.885126e-02
6.620800e+02	-6.964252e-02
6.659041e+02	-7.044280e-02
6.697504e+02	-7.125221e-02
6.736188e+02	-7.207083e-02
6.775096e+02	-7.289878e-02
6.814229e+02	-7.373616e-02
6.853587e+02	-7.458308e-02
6.893173e+02	-7.543964e-02
6.932988e+02	-7.630595e-02
6.973033e+02	-7.718212e-02
7.013309e+02	-7.806826e-02
