Frequency(Hz)	Magnitude(dB)
1.000000e+01	-1.559346e-05
1.005776e+01	-1.577412e-05
1.011585e+01	-1.595686e-05
1.017428e+01	-1.614173e-05
1.023305e+01	-1.632873e-05
1.029215e+01	-1.651791e-05
1.035160e+01	-1.670927e-05
1.041139e+01	-1.690285e-05
1.047153e+01	-1.709868e-05
1.053201e+01	-1.729677e-05
1.059284e+01	-1.749716e-05
1.065403e+01	-1.769986e-05
1.071556e+01	-1.790492e-05
1.077746e+01	-1.811235e-05
1.083971e+01	-1.832219e-05
1.090232e+01	-1.853446e-05
1.096529e+01	-1.874919e-05
1.102862e+01	-1.896640e-05
1.109232e+01	-1.918613e-05
1.115639e+01	-1.940841e-05
1.122083e+01	-1.963326e-05
1.128564e+01	-1.986071e-05
1.135083e+01	-2.009080e-05
1.141639e+01	-2.032356e-05
1.148233e+01	-2.055902e-05
1.154865e+01	-2.079720e-05
1.161536e+01	-2.103814e-05
1.168245e+01	-2.128187e-05
1.174992e+01	-2.152843e-05
1.181779e+01	-2.177784e-05
1.188605e+01	-2.203014e-05
1.195470e+01	-2.228536e-05
1.202375e+01	-2.254355e-05
1.209320e+01	-2.280472e-05
1.216305e+01	-2.306892e-05
1.223330e+01	-2.333618e-05
1.230396e+01	-2.360653e-05
1.237503e+01	-2.388002e-05
1.244651e+01	-2.415667e-05
1.251840e+01	-2.443654e-05
1.259070e+01	-2.471964e-05
1.266343e+01	-2.500602e-05
1.273657e+01	-2.529572e-05
1.281014e+01	-2.558878e-05
1.288413e+01	-2.588523e-05
1.295855e+01	-2.618512e-05
1.303339e+01	-2.648848e-05
1.310867e+01	-2.679536e-05
1.318439e+01	-2.710579e-05
1.326054e+01	-2.741981e-05
1.333713e+01	-2.773748e-05
1.341417e+01	-2.805882e-05
1.349165e+01	-2.838389e-05
1.356958e+01	-2.871273e-05
1.364795e+01	-2.904537e-05
1.372678e+01	-2.938187e-05
1.380607e+01	-2.972226e-05
1.388581e+01	-3.006660e-05
1.396602e+01	-3.041493e-05
1.404668e+01	-3.076730e-05
1.412782e+01	-3.112374e-05
1.420942e+01	-3.148432e-05
1.429149e+01	-3.184907e-05
1.437404e+01	-3.221805e-05
1.445706e+01	-3.259131e-05
1.454057e+01	-3.296888e-05
1.462455e+01	-3.335084e-05
1.470902e+01	-3.373721e-05
1.479398e+01	-3.412807e-05
1.487943e+01	-3.452345e-05
1.496537e+01	-3.492341e-05
1.505181e+01	-3.532801e-05
1.513875e+01	-3.573729e-05
1.522619e+01	-3.615131e-05
1.531414e+01	-3.657014e-05
1.540259e+01	-3.699381e-05
1.549156e+01	-3.742239e-05
1.558103e+01	-3.785594e-05
1.567103e+01	-3.829451e-05
1.576155e+01	-3.873816e-05
1.585258e+01	-3.918695e-05
1.594415e+01	-3.964094e-05
1.603624e+01	-4.010019e-05
1.612886e+01	-4.056476e-05
1.622202e+01	-4.103471e-05
1.631572e+01	-4.151010e-05
1.640996e+01	-4.199101e-05
1.650474e+01	-4.247748e-05
1.660008e+01	-4.296960e-05
1.669596e+01	-4.346741e-05
1.679239e+01	-4.397099e-05
1.688938e+01	-4.448040e-05
1.698694e+01	-4.499572e-05
1.708505e+01	-4.551700e-05
1.718373e+01	-4.604433e-05
1.728299e+01	-4.657776e-05
1.738281e+01	-4.711737e-05
1.748322e+01	-4.766324e-05
1.758420e+01	-4.821543e-05
1.768576e+01	-4.877401e-05
1.778792e+01	-4.933907e-05
1.789066e+01	-4.991067e-05
1.799399e+01	-5.048890e-05
1.809793e+01	-5.107382e-05
1.820246e+01	-5.166552e-05
1.830760e+01	-5.226408e-05
1.841334e+01	-5.286957e-05
1.851969e+01	-5.348208e-05
1.862666e+01	-5.410168e-05
1.873425e+01	-5.472846e-05
1.884246e+01	-5.536250e-05
1.895129e+01	-5.600388e-05
1.906075e+01	-5.665270e-05
1.917085e+01	-5.730903e-05
1.928158e+01	-5.797297e-05
1.939295e+01	-5.864460e-05
1.950496e+01	-5.932401e-05
1.961762e+01	-6.001129e-05
1.973093e+01	-6.070653e-05
1.984490e+01	-6.140983e-05
1.995952e+01	-6.212127e-05
2.007480e+01	-6.284096e-05
2.019076e+01	-6.356898e-05
2.030738e+01	-6.430544e-05
2.042467e+01	-6.505043e-05
2.054264e+01	-6.580406e-05
2.066130e+01	-6.656641e-05
2.078064e+01	-6.733759e-05
2.090066e+01	-6.811771e-05
2.102139e+01	-6.890687e-05
2.114280e+01	-6.970517e-05
2.126492e+01	-7.051271e-05
2.138775e+01	-7.132962e-05
2.151128e+01	-7.215598e-05
2.163553e+01	-7.299192e-05
2.176050e+01	-7.383755e-05
2.188619e+01	-7.469297e-05
2.201260e+01	-7.555830e-05
2.213974e+01	-7.643366e-05
2.226762e+01	-7.731915e-05
2.239624e+01	-7.821491e-05
2.252560e+01	-7.912104e-05
2.265571e+01	-8.003768e-05
2.278656e+01	-8.096493e-05
2.291818e+01	-8.190292e-05
2.305055e+01	-8.285178e-05
2.318369e+01	-8.381163e-05
2.331760e+01	-8.478260e-05
2.345228e+01	-8.576482e-05
2.358774e+01	-8.675842e-05
2.372398e+01	-8.776353e-05
2.386101e+01	-8.878029e-05
2.399883e+01	-8.980882e-05
2.413745e+01	-9.084927e-05
2.427686e+01	-9.190177e-05
2.441709e+01	-9.296647e-05
2.455812e+01	-9.404350e-05
2.469997e+01	-9.513301e-05
2.484263e+01	-9.623514e-05
2.498612e+01	-9.735004e-05
2.513044e+01	-9.847785e-05
2.527559e+01	-9.961873e-05
2.542158e+01	-1.007728e-04
2.556842e+01	-1.019403e-04
2.571610e+01	-1.031213e-04
2.586463e+01	-1.043160e-04
2.601403e+01	-1.055245e-04
2.616428e+01	-1.067470e-04
2.631541e+01	-1.079837e-04
2.646740e+01	-1.092347e-04
2.662028e+01	-1.105002e-04
2.677404e+01	-1.117803e-04
2.692868e+01	-1.130753e-04
2.708422e+01	-1.143853e-04
2.724066e+01	-1.157105e-04
2.739800e+01	-1.170510e-04
2.755625e+01	-1.184071e-04
2.771541e+01	-1.197788e-04
2.787550e+01	-1.211665e-04
2.803650e+01	-1.225702e-04
2.819844e+01	-1.239902e-04
2.836131e+01	-1.254266e-04
2.852513e+01	-1.268797e-04
2.868989e+01	-1.283496e-04
2.885560e+01	-1.298366e-04
2.902227e+01	-1.313407e-04
2.918990e+01	-1.328623e-04
2.935850e+01	-1.344016e-04
2.952807e+01	-1.359586e-04
2.969863e+01	-1.375337e-04
2.987016e+01	-1.391270e-04
3.004269e+01	-1.407388e-04
3.021622e+01	-1.423693e-04
3.039075e+01	-1.440187e-04
3.056628e+01	-1.456871e-04
3.074283e+01	-1.473749e-04
3.092040e+01	-1.490823e-04
3.109900e+01	-1.508094e-04
3.127862e+01	-1.525566e-04
3.145929e+01	-1.543239e-04
3.164099e+01	-1.561118e-04
3.182375e+01	-1.579204e-04
3.200756e+01	-1.597499e-04
3.219244e+01	-1.616006e-04
3.237838e+01	-1.634727e-04
3.256540e+01	-1.653666e-04
3.275349e+01	-1.672824e-04
3.294268e+01	-1.692203e-04
3.313295e+01	-1.711808e-04
3.332433e+01	-1.731639e-04
3.351681e+01	-1.751700e-04
3.371040e+01	-1.771994e-04
3.390511e+01	-1.792522e-04
3.410094e+01	-1.813289e-04
3.429791e+01	-1.834296e-04
3.449601e+01	-1.855546e-04
3.469526e+01	-1.877043e-04
3.489566e+01	-1.898788e-04
3.509721e+01	-1.920786e-04
3.529993e+01	-1.943038e-04
3.550382e+01	-1.965548e-04
3.570889e+01	-1.988319e-04
3.591515e+01	-2.011354e-04
3.612259e+01	-2.034655e-04
3.633123e+01	-2.058227e-04
3.654108e+01	-2.082071e-04
3.675214e+01	-2.106192e-04
3.696442e+01	-2.130592e-04
3.717792e+01	-2.155275e-04
3.739266e+01	-2.180244e-04
3.760864e+01	-2.205502e-04
3.782587e+01	-2.231053e-04
3.804435e+01	-2.256900e-04
3.826409e+01	-2.283046e-04
3.848510e+01	-2.309495e-04
3.870739e+01	-2.336250e-04
3.893096e+01	-2.363316e-04
3.915583e+01	-2.390695e-04
3.938199e+01	-2.418391e-04
3.960946e+01	-2.446408e-04
3.983824e+01	-2.474749e-04
4.006834e+01	-2.503419e-04
4.029978e+01	-2.532421e-04
4.053255e+01	-2.561759e-04
4.076666e+01	-2.591437e-04
4.100213e+01	-2.621458e-04
4.123896e+01	-2.651828e-04
4.147715e+01	-2.682549e-04
4.171672e+01	-2.713626e-04
4.195767e+01	-2.745063e-04
4.220002e+01	-2.776864e-04
4.244377e+01	-2.809034e-04
4.268892e+01	-2.841576e-04
4.293549e+01	-2.874496e-04
4.318348e+01	-2.907796e-04
4.343291e+01	-2.941483e-04
4.368377e+01	-2.975560e-04
4.393609e+01	-3.010031e-04
4.418986e+01	-3.044902e-04
4.444510e+01	-3.080177e-04
4.470182e+01	-3.115860e-04
4.496001e+01	-3.151957e-04
4.521970e+01	-3.188472e-04
4.548089e+01	-3.225410e-04
4.574358e+01	-3.262776e-04
4.600779e+01	-3.300575e-04
4.627353e+01	-3.338811e-04
4.654081e+01	-3.377491e-04
4.680963e+01	-3.416618e-04
4.708000e+01	-3.456199e-04
4.735193e+01	-3.496239e-04
4.762543e+01	-3.536742e-04
4.790051e+01	-3.577714e-04
4.817719e+01	-3.619161e-04
4.845545e+01	-3.661089e-04
4.873533e+01	-3.703502e-04
4.901682e+01	-3.746406e-04
4.929994e+01	-3.789807e-04
4.958470e+01	-3.833711e-04
4.987110e+01	-3.878124e-04
5.015915e+01	-3.923051e-04
5.044887e+01	-3.968498e-04
5.074026e+01	-4.014472e-04
5.103333e+01	-4.060979e-04
5.132810e+01	-4.108024e-04
5.162457e+01	-4.155615e-04
5.192275e+01	-4.203756e-04
5.222265e+01	-4.252456e-04
5.252429e+01	-4.301719e-04
5.282767e+01	-4.351553e-04
5.313280e+01	-4.401964e-04
5.343969e+01	-4.452960e-04
5.374836e+01	-4.504546e-04
5.405880e+01	-4.556730e-04
5.437105e+01	-4.609518e-04
5.468509e+01	-4.662917e-04
5.500095e+01	-4.716936e-04
5.531863e+01	-4.771580e-04
5.563815e+01	-4.826857e-04
5.595951e+01	-4.882774e-04
5.628273e+01	-4.939339e-04
5.660782e+01	-4.996559e-04
5.693479e+01	-5.054443e-04
5.726364e+01	-5.112996e-04
5.759439e+01	-5.172228e-04
5.792705e+01	-5.232146e-04
5.826164e+01	-5.292758e-04
5.859815e+01	-5.354073e-04
5.893662e+01	-5.416097e-04
5.927703e+01	-5.478840e-04
5.961941e+01	-5.542310e-04
5.996377e+01	-5.606515e-04
6.031012e+01	-5.671464e-04
6.065847e+01	-5.737165e-04
6.100883e+01	-5.803627e-04
6.136121e+01	-5.870859e-04
6.171563e+01	-5.938870e-04
6.207210e+01	-6.007669e-04
6.243063e+01	-6.077264e-04
6.279122e+01	-6.147666e-04
6.315390e+01	-6.218884e-04
6.351868e+01	-6.290926e-04
6.388556e+01	-6.363803e-04
6.425456e+01	-6.437524e-04
6.462569e+01	-6.512098e-04
6.499897e+01	-6.587537e-04
6.537440e+01	-6.663850e-04
6.575200e+01	-6.741046e-04
6.613178e+01	-6.819137e-04
6.651375e+01	-6.898132e-04
6.689793e+01	-6.978043e-04
6.728433e+01	-7.058879e-04
6.767297e+01	-7.140651e-04
6.806384e+01	-7.223370e-04
6.845698e+01	-7.307048e-04
6.885238e+01	-7.391695e-04
6.925007e+01	-7.477323e-04
6.965005e+01	-7.563942e-04
7.005235e+01	-7.651564e-04
7.045697e+01	-7.740202e-04
7.086393e+01	-7.829866e-04
7.127323e+01	-7.920569e-04
7.168490e+01	-8.012323e-04
7.209895e+01	-8.105139e-04
7.251539e+01	-8.199030e-04
7.293424e+01	-8.294009e-04
7.335551e+01	-8.390088e-04
7.377920e+01	-8.487280e-04
7.420535e+01	-8.585598e-04
7.463396e+01	-8.685055e-04
7.506504e+01	-8.785663e-04
7.549861e+01	-8.887437e-04
7.593469e+01	-8.990390e-04
7.637328e+01	-9.094535e-04
7.681441e+01	-9.199887e-04
7.725809e+01	-9.306458e-04
7.770433e+01	-9.414265e-04
7.815315e+01	-9.523319e-04
7.860456e+01	-9.633637e-04
7.905857e+01	-9.745233e-04
7.951521e+01	-9.858122e-04
7.997449e+01	-9.972317e-04
8.043642e+01	-1.008784e-03
8.090102e+01	-1.020469e-03
8.136830e+01	-1.032290e-03
8.183828e+01	-1.044248e-03
8.231097e+01	-1.056345e-03
8.278640e+01	-1.068581e-03
8.326457e+01	-1.080959e-03
8.374550e+01	-1.093481e-03
8.422921e+01	-1.106148e-03
8.471572e+01	-1.118961e-03
8.520503e+01	-1.131923e-03
8.569717e+01	-1.145035e-03
8.619215e+01	-1.158299e-03
8.669000e+01	-1.171716e-03
8.719071e+01	-1.185289e-03
8.769432e+01	-1.199019e-03
8.820084e+01	-1.212908e-03
8.871029e+01	-1.226958e-03
8.922267e+01	-1.241170e-03
8.973802e+01	-1.255547e-03
9.025634e+01	-1.270091e-03
9.077766e+01	-1.284803e-03
9.130199e+01	-1.299686e-03
9.182935e+01	-1.314741e-03
9.235975e+01	-1.329970e-03
9.289321e+01	-1.345376e-03
9.342976e+01	-1.360960e-03
9.396941e+01	-1.376724e-03
9.451217e+01	-1.392672e-03
9.505807e+01	-1.408804e-03
9.560712e+01	-1.425122e-03
9.615934e+01	-1.441630e-03
9.671476e+01	-1.458329e-03
9.727338e+01	-1.475221e-03
9.783522e+01	-1.492309e-03
9.840032e+01	-1.509595e-03
9.896867e+01	-1.527081e-03
9.954031e+01	-1.544769e-03
1.001153e+02	-1.562663e-03
1.006935e+02	-1.580763e-03
1.012751e+02	-1.599073e-03
1.018601e+02	-1.617596e-03
1.024484e+02	-1.636332e-03
1.030402e+02	-1.655286e-03
1.036353e+02	-1.674459e-03
1.042339e+02	-1.693855e-03
1.048360e+02	-1.713474e-03
1.054415e+02	-1.733321e-03
1.060505e+02	-1.753398e-03
1.066631e+02	-1.773708e-03
1.072791e+02	-1.794252e-03
1.078988e+02	-1.815035e-03
1.085220e+02	-1.836058e-03
1.091488e+02	-1.857325e-03
1.097793e+02	-1.878838e-03
1.104133e+02	-1.900600e-03
1.110511e+02	-1.922614e-03
1.116925e+02	-1.944883e-03
1.123376e+02	-1.967410e-03
1.129865e+02	-1.990198e-03
1.136391e+02	-2.013249e-03
1.142955e+02	-2.036568e-03
1.149556e+02	-2.060156e-03
1.156196e+02	-2.084018e-03
1.162874e+02	-2.108156e-03
1.169591e+02	-2.132574e-03
1.176347e+02	-2.157274e-03
1.183141e+02	-2.182260e-03
1.189975e+02	-2.207536e-03
1.196848e+02	-2.233104e-03
1.203761e+02	-2.258969e-03
1.210714e+02	-2.285133e-03
1.217707e+02	-2.311599e-03
1.224740e+02	-2.338373e-03
1.231814e+02	-2.365456e-03
1.238929e+02	-2.392853e-03
1.246085e+02	-2.420567e-03
1.253283e+02	-2.448602e-03
1.260522e+02	-2.476961e-03
1.267802e+02	-2.505649e-03
1.275125e+02	-2.534670e-03
1.282490e+02	-2.564026e-03
1.289898e+02	-2.593722e-03
1.297348e+02	-2.623762e-03
1.304842e+02	-2.654149e-03
1.312378e+02	-2.684889e-03
1.319959e+02	-2.715984e-03
1.327583e+02	-2.747440e-03
1.335251e+02	-2.779259e-03
1.342963e+02	-2.811447e-03
1.350720e+02	-2.844008e-03
1.358522e+02	-2.876946e-03
1.366368e+02	-2.910264e-03
1.374260e+02	-2.943969e-03
1.382198e+02	-2.978064e-03
1.390182e+02	-3.012554e-03
1.398211e+02	-3.047443e-03
1.406287e+02	-3.082736e-03
1.414410e+02	-3.118437e-03
1.422579e+02	-3.154552e-03
1.430796e+02	-3.191085e-03
1.439060e+02	-3.228041e-03
1.447372e+02	-3.265424e-03
1.455732e+02	-3.303241e-03
1.464141e+02	-3.341495e-03
1.472597e+02	-3.380192e-03
1.481103e+02	-3.419337e-03
1.489658e+02	-3.458935e-03
1.498262e+02	-3.498991e-03
1.506916e+02	-3.539511e-03
1.515620e+02	-3.580501e-03
1.524374e+02	-3.621964e-03
1.533179e+02	-3.663908e-03
1.542034e+02	-3.706337e-03
1.550941e+02	-3.749258e-03
1.559899e+02	-3.792675e-03
1.568909e+02	-3.836594e-03
1.577971e+02	-3.881022e-03
1.587085e+02	-3.925965e-03
1.596252e+02	-3.971427e-03
1.605472e+02	-4.017416e-03
1.614745e+02	-4.063937e-03
1.624072e+02	-4.110996e-03
1.633453e+02	-4.158600e-03
1.642887e+02	-4.206755e-03
1.652377e+02	-4.255468e-03
1.661921e+02	-4.304744e-03
1.671520e+02	-4.354591e-03
1.681175e+02	-4.405014e-03
1.690885e+02	-4.456021e-03
1.700651e+02	-4.507618e-03
1.710474e+02	-4.559813e-03
1.720354e+02	-4.612611e-03
1.730291e+02	-4.666021e-03
1.740285e+02	-4.720048e-03
1.750337e+02	-4.774701e-03
1.760446e+02	-4.829987e-03
1.770615e+02	-4.885912e-03
1.780842e+02	-4.942484e-03
1.791128e+02	-4.999711e-03
1.801473e+02	-5.057600e-03
1.811878e+02	-5.116159e-03
1.822344e+02	-5.175396e-03
1.832870e+02	-5.235318e-03
1.843456e+02	-5.295933e-03
1.854104e+02	-5.357250e-03
1.864813e+02	-5.419276e-03
1.875584e+02	-5.482020e-03
1.886418e+02	-5.545490e-03
1.897313e+02	-5.609694e-03
1.908272e+02	-5.674642e-03
1.919294e+02	-5.740340e-03
1.930380e+02	-5.806799e-03
1.941530e+02	-5.874027e-03
1.952744e+02	-5.942032e-03
1.964023e+02	-6.010824e-03
1.975367e+02	-6.080412e-03
1.986777e+02	-6.150805e-03
1.998252e+02	-6.222013e-03
2.009794e+02	-6.294044e-03
2.021403e+02	-6.366909e-03
2.033078e+02	-6.440616e-03
2.044821e+02	-6.515176e-03
2.056632e+02	-6.590599e-03
2.068511e+02	-6.666894e-03
2.080459e+02	-6.744071e-03
2.092475e+02	-6.822141e-03
2.104561e+02	-6.901115e-03
2.116717e+02	-6.981001e-03
2.128943e+02	-7.061812e-03
2.141240e+02	-7.143557e-03
2.153608e+02	-7.226248e-03
2.166047e+02	-7.309896e-03
2.178558e+02	-7.394510e-03
2.191141e+02	-7.480104e-03
2.203797e+02	-7.566687e-03
2.216526e+02	-7.654271e-03
2.229329e+02	-7.742869e-03
2.242205e+02	-7.832491e-03
2.255156e+02	-7.923149e-03
2.268182e+02	-8.014856e-03
2.281283e+02	-8.107623e-03
2.294459e+02	-8.201463e-03
2.307712e+02	-8.296388e-03
2.321041e+02	-8.392410e-03
2.334447e+02	-8.489543e-03
2.347931e+02	-8.587799e-03
2.361493e+02	-8.687191e-03
2.375133e+02	-8.787732e-03
2.388851e+02	-8.889436e-03
2.402649e+02	-8.992315e-03
2.416527e+02	-9.096384e-03
2.430484e+02	-9.201656e-03
2.444523e+02	-9.308145e-03
2.458642e+02	-9.415865e-03
2.472843e+02	-9.524830e-03
2.487126e+02	-9.635055e-03
2.501492e+02	-9.746554e-03
2.515940e+02	-9.859341e-03
2.530472e+02	-9.973433e-03
2.545088e+02	-1.008884e-02
2.559789e+02	-1.020559e-02
2.574574e+02	-1.032368e-02
2.589444e+02	-1.044314e-02
2.604401e+02	-1.056398e-02
2.619444e+02	-1.068621e-02
2.634574e+02	-1.080986e-02
2.649791e+02	-1.093494e-02
2.665096e+02	-1.106146e-02
2.680489e+02	-1.118944e-02
2.695972e+02	-1.131891e-02
2.711544e+02	-1.144987e-02
2.727205e+02	-1.158234e-02
2.742958e+02	-1.171634e-02
2.758801e+02	-1.185189e-02
2.774736e+02	-1.198901e-02
2.790762e+02	-1.212771e-02
2.806882e+02	-1.226801e-02
2.823094e+02	-1.240994e-02
2.839400e+02	-1.255350e-02
2.855800e+02	-1.269872e-02
2.872295e+02	-1.284562e-02
2.888886e+02	-1.299422e-02
2.905572e+02	-1.314453e-02
2.922354e+02	-1.329658e-02
2.939234e+02	-1.345038e-02
2.956211e+02	-1.360597e-02
2.973286e+02	-1.376334e-02
2.990459e+02	-1.392254e-02
3.007732e+02	-1.408357e-02
3.025104e+02	-1.424647e-02
3.042577e+02	-1.441124e-02
3.060151e+02	-1.457792e-02
3.077826e+02	-1.474652e-02
3.095604e+02	-1.491706e-02
3.113484e+02	-1.508958e-02
3.131467e+02	-1.526409e-02
3.149554e+02	-1.544061e-02
3.167746e+02	-1.561917e-02
3.186043e+02	-1.579979e-02
3.204445e+02	-1.598250e-02
3.222954e+02	-1.616732e-02
3.241570e+02	-1.635427e-02
3.260293e+02	-1.654337e-02
3.279124e+02	-1.673466e-02
3.298064e+02	-1.692816e-02
3.317114e+02	-1.712388e-02
3.336273e+02	-1.732187e-02
3.355544e+02	-1.752214e-02
3.374925e+02	-1.772473e-02
3.394418e+02	-1.792965e-02
3.414024e+02	-1.813693e-02
3.433744e+02	-1.834661e-02
3.453577e+02	-1.855870e-02
3.473525e+02	-1.877324e-02
3.493588e+02	-1.899026e-02
3.513766e+02	-1.920978e-02
3.534062e+02	-1.943183e-02
3.554474e+02	-1.965644e-02
3.575005e+02	-1.988364e-02
3.595654e+02	-2.011346e-02
3.616422e+02	-2.034593e-02
3.637311e+02	-2.058108e-02
3.658320e+02	-2.081895e-02
3.679450e+02	-2.105955e-02
3.700702e+02	-2.130293e-02
3.722077e+02	-2.154912e-02
3.743576e+02	-2.179814e-02
3.765199e+02	-2.205004e-02
3.786946e+02	-2.230483e-02
3.808820e+02	-2.256257e-02
3.830819e+02	-2.282327e-02
3.852946e+02	-2.308698e-02
3.875200e+02	-2.335373e-02
3.897583e+02	-2.362355e-02
3.920096e+02	-2.389647e-02
3.942738e+02	-2.417255e-02
3.965511e+02	-2.445180e-02
3.988416e+02	-2.473427e-02
4.011452e+02	-2.502000e-02
4.034622e+02	-2.530901e-02
4.057926e+02	-2.560136e-02
4.081365e+02	-2.589707e-02
4.104938e+02	-2.619618e-02
4.128648e+02	-2.649874e-02
4.152495e+02	-2.680479e-02
4.176480e+02	-2.711436e-02
4.200603e+02	-2.742749e-02
4.224866e+02	-2.774422e-02
4.249268e+02	-2.806461e-02
4.273812e+02	-2.838868e-02
4.298497e+02	-2.871647e-02
4.323325e+02	-2.904805e-02
4.348297e+02	-2.938343e-02
4.373412e+02	-2.972268e-02
4.398673e+02	-3.006583e-02
4.424079e+02	-3.041292e-02
4.449633e+02	-3.076401e-02
4.475334e+02	-3.111914e-02
4.501183e+02	-3.147835e-02
4.527182e+02	-3.184170e-02
4.553330e+02	-3.220922e-02
4.579630e+02	-3.258097e-02
4.606082e+02	-3.295699e-02
4.632687e+02	-3.333733e-02
4.659445e+02	-3.372205e-02
4.686358e+02	-3.411119e-02
4.713426e+02	-3.450480e-02
4.740650e+02	-3.490294e-02
4.768032e+02	-3.530565e-02
4.795572e+02	-3.571299e-02
4.823271e+02	-3.612501e-02
4.851130e+02	-3.654176e-02
4.879150e+02	-3.696330e-02
4.907332e+02	-3.738968e-02
4.935676e+02	-3.782096e-02
4.964185e+02	-3.825719e-02
4.992858e+02	-3.869843e-02
5.021696e+02	-3.914473e-02
5.050701e+02	-3.959616e-02
5.079874e+02	-4.005277e-02
5.109215e+02	-4.051462e-02
5.138726e+02	-4.098177e-02
5.168407e+02	-4.145429e-02
5.198259e+02	-4.193222e-02
5.228284e+02	-4.241564e-02
5.258482e+02	-4.290460e-02
5.288855e+02	-4.339917e-02
5.319403e+02	-4.389941e-02
5.350128e+02	-4.440539e-02
5.381030e+02	-4.491718e-02
5.412111e+02	-4.543482e-02
5.443371e+02	-4.595841e-02
5.474812e+02	-4.648799e-02
5.506434e+02	-4.702364e-02
5.538239e+02	-4.756544e-02
5.570228e+02	-4.811343e-02
5.602401e+02	-4.866771e-02
5.634760e+02	-4.922834e-02
5.667306e+02	-4.979538e-02
5.700040e+02	-5.036892e-02
5.732964e+02	-5.094903e-02
5.766077e+02	-5.153578e-02
5.799382e+02	-5.212924e-02
5.832879e+02	-5.272950e-02
5.866569e+02	-5.333663e-02
5.900454e+02	-5.395070e-02
5.934535e+02	-5.457180e-02
5.968813e+02	-5.520001e-02
6.003288e+02	-5.583539e-02
6.037963e+02	-5.647805e-02
6.072838e+02	-5.712805e-02
6.107914e+02	-5.778549e-02
6.143194e+02	-5.845043e-02
6.178676e+02	-5.912298e-02
6.214364e+02	-5.980321e-02
6.250258e+02	-6.049122e-02
6.286359e+02	-6.118708e-02
6.322669e+02	-6.189089e-02
6.359189e+02	-6.260274e-02
6.395919e+02	-6.332272e-02
6.432862e+02	-6.405091e-02
6.470017e+02	-6.478742e-02
6.507388e+02	-6.553233e-02
6.544974e+02	-6.628574e-02
6.582778e+02	-6.704774e-02
6.620800e+02	-6.781844e-02
6.659041e+02	-6.859792e-02
6.697504e+02	-6.938629e-02
6.736188e+02	-7.018365e-02
6.775096e+02	-7.099010e-02
6.814229e+02	-7.180574e-02
6.853587e+02	-7.263066e-02
6.893173e+02	-7.346499e-02
6.932988e+02	-7.430882e-02
6.973033e+02	-7.516225e-02
7.013309e+02	-7.602540e-02
