Frequency(Hz)	Magnitude(dB)
1.000000e+01	-2.287254e+00
1.005776e+01	-2.307911e+00
1.011585e+01	-2.328561e+00
1.017428e+01	-2.349506e+00
1.023305e+01	-2.370172e+00
1.029215e+01	-2.391539e+00
1.035160e+01	-2.412569e+00
1.041139e+01	-2.434242e+00
1.047153e+01	-2.455793e+00
1.053201e+01	-2.477398e+00
1.059284e+01	-2.499260e+00
1.065403e+01	-2.521004e+00
1.071556e+01	-2.543178e+00
1.077746e+01	-2.565322e+00
1.083971e+01	-2.587901e+00
1.090232e+01	-2.610231e+00
1.096529e+01	-2.632981e+00
1.102862e+01	-2.655799e+00
1.109232e+01	-2.678768e+00
1.115639e+01	-2.701820e+00
1.122083e+01	-2.725196e+00
1.128564e+01	-2.748326e+00
1.135083e+01	-2.772246e+00
1.141639e+01	-2.795871e+00
1.148233e+01	-2.819586e+00
1.154865e+01	-2.843271e+00
1.161536e+01	-2.867513e+00
1.168245e+01	-2.891664e+00
1.174992e+01	-2.916212e+00
1.181779e+01	-2.940908e+00
1.188605e+01	-2.965633e+00
1.195470e+01	-2.990403e+00
1.202375e+01	-3.015260e+00
1.209320e+01	-3.040371e+00
1.216305e+01	-3.065635e+00
1.223330e+01	-3.091076e+00
1.230396e+01	-3.116519e+00
1.237503e+01	-3.142400e+00
1.244651e+01	-3.168151e+00
1.251840e+01	-3.194079e+00
1.259070e+01	-3.220290e+00
1.266343e+01	-3.246513e+00
1.273657e+01	-3.272813e+00
1.281014e+01	-3.299558e+00
1.288413e+01	-3.326238e+00
1.295855e+01	-3.352972e+00
1.303339e+01	-3.379803e+00
1.310867e+01	-3.406960e+00
1.318439e+01	-3.434442e+00
1.326054e+01	-3.461711e+00
1.333713e+01	-3.489245e+00
1.341417e+01	-3.517079e+00
1.349165e+01	-3.544829e+00
1.356958e+01	-3.572743e+00
1.364795e+01	-3.600941e+00
1.372678e+01	-3.629366e+00
1.380607e+01	-3.657558e+00
1.388581e+01	-3.686189e+00
1.396602e+01	-3.714561e+00
1.404668e+01	-3.743625e+00
1.412782e+01	-3.772815e+00
1.420942e+01	-3.801823e+00
1.429149e+01	-3.830973e+00
1.437404e+01	-3.860172e+00
1.445706e+01	-3.890031e+00
1.454057e+01	-3.919681e+00
1.462455e+01	-3.949507e+00
1.470902e+01	-3.979250e+00
1.479398e+01	-4.009466e+00
1.487943e+01	-4.039802e+00
1.496537e+01	-4.070179e+00
1.505181e+01	-4.100409e+00
1.513875e+01	-4.131269e+00
1.522619e+01	-4.161913e+00
1.531414e+01	-4.192634e+00
1.540259e+01	-4.223760e+00
1.549156e+01	-4.255031e+00
1.558103e+01	-4.286529e+00
1.567103e+01	-4.318011e+00
1.576155e+01	-4.349349e+00
1.585258e+01	-4.380994e+00
1.594415e+01	-4.412995e+00
1.603624e+01	-4.444808e+00
1.612886e+01	-4.477101e+00
1.622202e+01	-4.509359e+00
1.631572e+01	-4.541699e+00
1.640996e+01	-4.574236e+00
1.650474e+01	-4.606574e+00
1.660008e+01	-4.639687e+00
1.669596e+01	-4.672691e+00
1.679239e+01	-4.705440e+00
1.688938e+01	-4.738659e+00
1.698694e+01	-4.771926e+00
1.708505e+01	-4.805563e+00
1.718373e+01	-4.838845e+00
1.728299e+01	-4.872231e+00
1.738281e+01	-4.906434e+00
1.748322e+01	-4.940178e+00
1.758420e+01	-4.974343e+00
1.768576e+01	-5.008351e+00
1.778792e+01	-5.042845e+00
1.789066e+01	-5.077259e+00
1.799399e+01	-5.111874e+00
1.809793e+01	-5.146513e+00
1.820246e+01	-5.181424e+00
1.830760e+01	-5.216309e+00
1.841334e+01	-5.251433e+00
1.851969e+01	-5.286427e+00
1.862666e+01	-5.321758e+00
1.873425e+01	-5.356983e+00
1.884246e+01	-5.392518e+00
1.895129e+01	-5.428285e+00
1.906075e+01	-5.463937e+00
1.917085e+01	-5.499926e+00
1.928158e+01	-5.535478e+00
1.939295e+01	-5.571704e+00
1.950496e+01	-5.607824e+00
1.961762e+01	-5.644359e+00
1.973093e+01	-5.681033e+00
1.984490e+01	-5.717554e+00
1.995952e+01	-5.754369e+00
2.007480e+01	-5.790921e+00
2.019076e+01	-5.827800e+00
2.030738e+01	-5.865356e+00
2.042467e+01	-5.902024e+00
2.054264e+01	-5.939113e+00
2.066130e+01	-5.976467e+00
2.078064e+01	-6.013955e+00
2.090066e+01	-6.051358e+00
2.102139e+01	-6.089617e+00
2.114280e+01	-6.127011e+00
2.126492e+01	-6.164559e+00
2.138775e+01	-6.202671e+00
2.151128e+01	-6.240808e+00
2.163553e+01	-6.279204e+00
2.176050e+01	-6.317349e+00
2.188619e+01	-6.355957e+00
2.201260e+01	-6.394251e+00
2.213974e+01	-6.433045e+00
2.226762e+01	-6.471533e+00
2.239624e+01	-6.510649e+00
2.252560e+01	-6.549433e+00
2.265571e+01	-6.588022e+00
2.278656e+01	-6.627524e+00
2.291818e+01	-6.666384e+00
2.305055e+01	-6.705818e+00
2.318369e+01	-6.745214e+00
2.331760e+01	-6.784929e+00
2.345228e+01	-6.824508e+00
2.358774e+01	-6.863711e+00
2.372398e+01	-6.904060e+00
2.386101e+01	-6.943739e+00
2.399883e+01	-6.983582e+00
2.413745e+01	-7.024062e+00
2.427686e+01	-7.064075e+00
2.441709e+01	-7.103884e+00
2.455812e+01	-7.144404e+00
2.469997e+01	-7.184894e+00
2.484263e+01	-7.225065e+00
2.498612e+01	-7.265874e+00
2.513044e+01	-7.306345e+00
2.527559e+01	-7.347317e+00
2.542158e+01	-7.388504e+00
2.556842e+01	-7.428949e+00
2.571610e+01	-7.470367e+00
2.586463e+01	-7.511133e+00
2.601403e+01	-7.552491e+00
2.616428e+01	-7.593964e+00
2.631541e+01	-7.635108e+00
2.646740e+01	-7.676596e+00
2.662028e+01	-7.717844e+00
2.677404e+01	-7.759871e+00
2.692868e+01	-7.801597e+00
2.708422e+01	-7.843670e+00
2.724066e+01	-7.885010e+00
2.739800e+01	-7.926591e+00
2.755625e+01	-7.969228e+00
2.771541e+01	-8.011029e+00
2.787550e+01	-8.053118e+00
2.803650e+01	-8.095422e+00
2.819844e+01	-8.137739e+00
2.836131e+01	-8.179526e+00
2.852513e+01	-8.222268e+00
2.868989e+01	-8.264794e+00
2.885560e+01	-8.307683e+00
2.902227e+01	-8.350152e+00
2.918990e+01	-8.392984e+00
2.935850e+01	-8.435847e+00
2.952807e+01	-8.478497e+00
2.969863e+01	-8.521679e+00
2.987016e+01	-8.564937e+00
3.004269e+01	-8.607914e+00
3.021622e+01	-8.650934e+00
3.039075e+01	-8.694445e+00
3.056628e+01	-8.737864e+00
3.074283e+01	-8.780795e+00
3.092040e+01	-8.824451e+00
3.109900e+01	-8.867763e+00
3.127862e+01	-8.911301e+00
3.145929e+01	-8.954790e+00
3.164099e+01	-8.998797e+00
3.182375e+01	-9.042770e+00
3.200756e+01	-9.086258e+00
3.219244e+01	-9.130391e+00
3.237838e+01	-9.173594e+00
3.256540e+01	-9.218016e+00
3.275349e+01	-9.262293e+00
3.294268e+01	-9.306563e+00
3.313295e+01	-9.350649e+00
3.332433e+01	-9.394964e+00
3.351681e+01	-9.439479e+00
3.371040e+01	-9.483939e+00
3.390511e+01	-9.527937e+00
3.410094e+01	-9.572040e+00
3.429791e+01	-9.616900e+00
3.449601e+01	-9.661518e+00
3.469526e+01	-9.706489e+00
3.489566e+01	-9.750821e+00
3.509721e+01	-9.795781e+00
3.529993e+01	-9.840486e+00
3.550382e+01	-9.884942e+00
3.570889e+01	-9.930007e+00
3.591515e+01	-9.975327e+00
3.612259e+01	-1.002007e+01
3.633123e+01	-1.006545e+01
3.654108e+01	-1.011019e+01
3.675214e+01	-1.015511e+01
3.696442e+01	-1.020083e+01
3.717792e+01	-1.024611e+01
3.739266e+01	-1.029102e+01
3.760864e+01	-1.033671e+01
3.782587e+01	-1.038175e+01
3.804435e+01	-1.042780e+01
3.826409e+01	-1.047323e+01
3.848510e+01	-1.051910e+01
3.870739e+01	-1.056410e+01
3.893096e+01	-1.060988e+01
3.915583e+01	-1.065592e+01
3.938199e+01	-1.070119e+01
3.960946e+01	-1.074763e+01
3.983824e+01	-1.079295e+01
4.006834e+01	-1.083837e+01
4.029978e+01	-1.088490e+01
4.053255e+01	-1.093106e+01
4.076666e+01	-1.097632e+01
4.100213e+01	-1.102305e+01
4.123896e+01	-1.106863e+01
4.147715e+01	-1.111509e+01
4.171672e+01	-1.116075e+01
4.195767e+01	-1.120787e+01
4.220002e+01	-1.125379e+01
4.244377e+01	-1.129970e+01
4.268892e+01	-1.134632e+01
4.293549e+01	-1.139267e+01
4.318348e+01	-1.143913e+01
4.343291e+01	-1.148528e+01
4.368377e+01	-1.153171e+01
4.393609e+01	-1.157841e+01
4.418986e+01	-1.162533e+01
4.444510e+01	-1.167125e+01
4.470182e+01	-1.171825e+01
4.496001e+01	-1.176536e+01
4.521970e+01	-1.181200e+01
4.548089e+01	-1.185892e+01
4.574358e+01	-1.190600e+01
4.600779e+01	-1.195200e+01
4.627353e+01	-1.199921e+01
4.654081e+01	-1.204600e+01
4.680963e+01	-1.209312e+01
4.708000e+01	-1.214007e+01
4.735193e+01	-1.218676e+01
4.762543e+01	-1.223393e+01
4.790051e+01	-1.228058e+01
4.817719e+01	-1.232752e+01
4.845545e+01	-1.237582e+01
4.873533e+01	-1.242159e+01
4.901682e+01	-1.246881e+01
4.929994e+01	-1.251702e+01
4.958470e+01	-1.256410e+01
4.987110e+01	-1.261117e+01
5.015915e+01	-1.265806e+01
5.044887e+01	-1.270559e+01
5.074026e+01	-1.275312e+01
5.103333e+01	-1.280040e+01
5.132810e+01	-1.284811e+01
5.162457e+01	-1.289549e+01
5.192275e+01	-1.294291e+01
5.222265e+01	-1.299078e+01
5.252429e+01	-1.303800e+01
5.282767e+01	-1.308553e+01
5.313280e+01	-1.313309e+01
5.343969e+01	-1.318058e+01
5.374836e+01	-1.322856e+01
5.405880e+01	-1.327633e+01
5.437105e+01	-1.332291e+01
5.468509e+01	-1.337104e+01
5.500095e+01	-1.341866e+01
5.531863e+01	-1.346709e+01
5.563815e+01	-1.351456e+01
5.595951e+01	-1.356200e+01
5.628273e+01	-1.361016e+01
5.660782e+01	-1.365839e+01
5.693479e+01	-1.370525e+01
5.726364e+01	-1.375345e+01
5.759439e+01	-1.380114e+01
5.792705e+01	-1.385028e+01
5.826164e+01	-1.389746e+01
5.859815e+01	-1.394548e+01
5.893662e+01	-1.399416e+01
5.927703e+01	-1.404155e+01
5.961941e+01	-1.408938e+01
5.996377e+01	-1.413868e+01
6.031012e+01	-1.418594e+01
6.065847e+01	-1.423415e+01
6.100883e+01	-1.428243e+01
6.136121e+01	-1.433051e+01
6.171563e+01	-1.437879e+01
6.207210e+01	-1.442677e+01
6.243063e+01	-1.447549e+01
6.279122e+01	-1.452318e+01
6.315390e+01	-1.457209e+01
6.351868e+01	-1.462002e+01
6.388556e+01	-1.466784e+01
6.425456e+01	-1.471593e+01
6.462569e+01	-1.476490e+01
6.499897e+01	-1.481297e+01
6.537440e+01	-1.486222e+01
6.575200e+01	-1.490957e+01
6.613178e+01	-1.495883e+01
6.651375e+01	-1.500714e+01
6.689793e+01	-1.505480e+01
6.728433e+01	-1.510289e+01
6.767297e+01	-1.515192e+01
6.806384e+01	-1.520153e+01
6.845698e+01	-1.524926e+01
6.885238e+01	-1.529815e+01
6.925007e+01	-1.534699e+01
6.965005e+01	-1.539489e+01
7.005235e+01	-1.544374e+01
7.045697e+01	-1.549292e+01
7.086393e+01	-1.554073e+01
7.127323e+01	-1.558882e+01
7.168490e+01	-1.563800e+01
7.209895e+01	-1.568649e+01
7.251539e+01	-1.573546e+01
7.293424e+01	-1.578478e+01
7.335551e+01	-1.583325e+01
7.377920e+01	-1.588134e+01
7.420535e+01	-1.593006e+01
7.463396e+01	-1.597944e+01
7.506504e+01	-1.602726e+01
7.549861e+01	-1.607743e+01
7.593469e+01	-1.612511e+01
7.637328e+01	-1.617466e+01
7.681441e+01	-1.622366e+01
7.725809e+01	-1.627184e+01
7.770433e+01	-1.632073e+01
7.815315e+01	-1.637066e+01
7.860456e+01	-1.641856e+01
7.905857e+01	-1.646731e+01
7.951521e+01	-1.651630e+01
7.997449e+01	-1.656540e+01
8.043642e+01	-1.661441e+01
8.090102e+01	-1.666312e+01
8.136830e+01	-1.671390e+01
8.183828e+01	-1.676116e+01
8.231097e+01	-1.680915e+01
8.278640e+01	-1.685987e+01
8.326457e+01	-1.690776e+01
8.374550e+01	-1.695592e+01
8.422921e+01	-1.700765e+01
8.471572e+01	-1.705523e+01
8.520503e+01	-1.710418e+01
8.569717e+01	-1.715432e+01
8.619215e+01	-1.720257e+01
8.669000e+01	-1.725040e+01
8.719071e+01	-1.730021e+01
8.769432e+01	-1.734981e+01
8.820084e+01	-1.739960e+01
8.871029e+01	-1.744862e+01
8.922267e+01	-1.749722e+01
8.973802e+01	-1.754753e+01
9.025634e+01	-1.759534e+01
9.077766e+01	-1.764336e+01
9.130199e+01	-1.769427e+01
9.182935e+01	-1.774266e+01
9.235975e+01	-1.779293e+01
9.289321e+01	-1.784218e+01
9.342976e+01	-1.789141e+01
9.396941e+01	-1.794020e+01
9.451217e+01	-1.798880e+01
9.505807e+01	-1.803793e+01
9.560712e+01	-1.808805e+01
9.615934e+01	-1.813711e+01
9.671476e+01	-1.818565e+01
9.727338e+01	-1.823574e+01
9.783522e+01	-1.828358e+01
9.840032e+01	-1.833450e+01
9.896867e+01	-1.838328e+01
9.954031e+01	-1.843191e+01
1.001153e+02	-1.848182e+01
1.006935e+02	-1.853255e+01
1.012751e+02	-1.858066e+01
1.018601e+02	-1.862930e+01
1.024484e+02	-1.867825e+01
1.030402e+02	-1.872826e+01
1.036353e+02	-1.877867e+01
1.042339e+02	-1.882798e+01
1.048360e+02	-1.887574e+01
1.054415e+02	-1.892547e+01
1.060505e+02	-1.897406e+01
1.066631e+02	-1.902551e+01
1.072791e+02	-1.907401e+01
1.078988e+02	-1.912373e+01
1.085220e+02	-1.917274e+01
1.091488e+02	-1.922284e+01
1.097793e+02	-1.927278e+01
1.104133e+02	-1.932232e+01
1.110511e+02	-1.937199e+01
1.116925e+02	-1.942094e+01
1.123376e+02	-1.947094e+01
1.129865e+02	-1.951997e+01
1.136391e+02	-1.957072e+01
1.142955e+02	-1.961970e+01
1.149556e+02	-1.966741e+01
1.156196e+02	-1.971744e+01
1.162874e+02	-1.976625e+01
1.169591e+02	-1.981535e+01
1.176347e+02	-1.986661e+01
1.183141e+02	-1.991533e+01
1.189975e+02	-1.996369e+01
1.196848e+02	-2.001511e+01
1.203761e+02	-2.006360e+01
1.210714e+02	-2.011360e+01
1.217707e+02	-2.016272e+01
1.224740e+02	-2.021254e+01
1.231814e+02	-2.026285e+01
1.238929e+02	-2.031168e+01
1.246085e+02	-2.036283e+01
1.253283e+02	-2.041238e+01
1.260522e+02	-2.046009e+01
1.267802e+02	-2.050940e+01
1.275125e+02	-2.056122e+01
1.282490e+02	-2.061022e+01
1.289898e+02	-2.065805e+01
1.297348e+02	-2.070856e+01
1.304842e+02	-2.075732e+01
1.312378e+02	-2.080662e+01
1.319959e+02	-2.085737e+01
1.327583e+02	-2.090543e+01
1.335251e+02	-2.095481e+01
1.342963e+02	-2.100703e+01
1.350720e+02	-2.105547e+01
1.358522e+02	-2.110526e+01
1.366368e+02	-2.115589e+01
1.374260e+02	-2.120457e+01
1.382198e+02	-2.125543e+01
1.390182e+02	-2.130409e+01
1.398211e+02	-2.135397e+01
1.406287e+02	-2.140482e+01
1.414410e+02	-2.145088e+01
1.422579e+02	-2.150116e+01
1.430796e+02	-2.155316e+01
1.439060e+02	-2.160414e+01
1.447372e+02	-2.165197e+01
1.455732e+02	-2.170084e+01
1.464141e+02	-2.175148e+01
1.472597e+02	-2.180061e+01
1.481103e+02	-2.185218e+01
1.489658e+02	-2.190103e+01
1.498262e+02	-2.194990e+01
1.506916e+02	-2.200016e+01
1.515620e+02	-2.205124e+01
1.524374e+02	-2.209785e+01
1.533179e+02	-2.215032e+01
1.542034e+02	-2.219843e+01
1.550941e+02	-2.225006e+01
1.559899e+02	-2.229706e+01
1.568909e+02	-2.234806e+01
1.577971e+02	-2.239791e+01
1.587085e+02	-2.244648e+01
1.596252e+02	-2.249784e+01
1.605472e+02	-2.254637e+01
1.614745e+02	-2.259513e+01
1.624072e+02	-2.264686e+01
1.633453e+02	-2.269744e+01
1.642887e+02	-2.274401e+01
1.652377e+02	-2.279610e+01
1.661921e+02	-2.284355e+01
1.671520e+02	-2.289591e+01
1.681175e+02	-2.294622e+01
1.690885e+02	-2.299478e+01
1.700651e+02	-2.304724e+01
1.710474e+02	-2.309595e+01
1.720354e+02	-2.314439e+01
1.730291e+02	-2.319563e+01
1.740285e+02	-2.324433e+01
1.750337e+02	-2.329211e+01
1.760446e+02	-2.334375e+01
1.770615e+02	-2.339413e+01
1.780842e+02	-2.344282e+01
1.791128e+02	-2.349138e+01
1.801473e+02	-2.354325e+01
1.811878e+02	-2.359428e+01
1.822344e+02	-2.364612e+01
1.832870e+02	-2.369264e+01
1.843456e+02	-2.374163e+01
1.854104e+02	-2.379176e+01
1.864813e+02	-2.384418e+01
1.875584e+02	-2.389083e+01
1.886418e+02	-2.394338e+01
1.897313e+02	-2.399163e+01
1.908272e+02	-2.404270e+01
1.919294e+02	-2.409206e+01
1.930380e+02	-2.413930e+01
1.941530e+02	-2.419193e+01
1.952744e+02	-2.424026e+01
1.964023e+02	-2.429140e+01
1.975367e+02	-2.434021e+01
1.986777e+02	-2.439046e+01
1.998252e+02	-2.443909e+01
2.009794e+02	-2.448969e+01
2.021403e+02	-2.453927e+01
2.033078e+02	-2.459162e+01
2.044821e+02	-2.463899e+01
2.056632e+02	-2.469104e+01
2.068511e+02	-2.474045e+01
2.080459e+02	-2.479002e+01
2.092475e+02	-2.484385e+01
2.104561e+02	-2.489083e+01
2.116717e+02	-2.494015e+01
2.128943e+02	-2.499173e+01
2.141240e+02	-2.504081e+01
2.153608e+02	-2.508758e+01
2.166047e+02	-2.513665e+01
2.178558e+02	-2.518917e+01
2.191141e+02	-2.523966e+01
2.203797e+02	-2.528749e+01
2.216526e+02	-2.533839e+01
2.229329e+02	-2.539120e+01
2.242205e+02	-2.543918e+01
2.255156e+02	-2.548960e+01
2.268182e+02	-2.554122e+01
2.281283e+02	-2.558847e+01
2.294459e+02	-2.564027e+01
2.307712e+02	-2.568791e+01
2.321041e+02	-2.573869e+01
2.334447e+02	-2.579032e+01
2.347931e+02	-2.583964e+01
2.361493e+02	-2.588883e+01
2.375133e+02	-2.593656e+01
2.388851e+02	-2.598647e+01
2.402649e+02	-2.603717e+01
2.416527e+02	-2.609019e+01
2.430484e+02	-2.613875e+01
2.444523e+02	-2.618777e+01
2.458642e+02	-2.623740e+01
2.472843e+02	-2.628865e+01
2.487126e+02	-2.633648e+01
2.501492e+02	-2.638575e+01
2.515940e+02	-2.643780e+01
2.530472e+02	-2.648659e+01
2.545088e+02	-2.653939e+01
2.559789e+02	-2.658821e+01
2.574574e+02	-2.663856e+01
2.589444e+02	-2.668864e+01
2.604401e+02	-2.673910e+01
2.619444e+02	-2.678956e+01
2.634574e+02	-2.684039e+01
2.649791e+02	-2.688662e+01
2.665096e+02	-2.693933e+01
2.680489e+02	-2.698901e+01
2.695972e+02	-2.704072e+01
2.711544e+02	-2.708822e+01
2.727205e+02	-2.713676e+01
2.742958e+02	-2.718569e+01
2.758801e+02	-2.723914e+01
2.774736e+02	-2.728602e+01
2.790762e+02	-2.733734e+01
2.806882e+02	-2.738475e+01
2.823094e+02	-2.743396e+01
2.839400e+02	-2.748705e+01
2.855800e+02	-2.753756e+01
2.872295e+02	-2.758727e+01
2.888886e+02	-2.763674e+01
2.905572e+02	-2.768737e+01
2.922354e+02	-2.773753e+01
2.939234e+02	-2.778763e+01
2.956211e+02	-2.784115e+01
2.973286e+02	-2.788779e+01
2.990459e+02	-2.793930e+01
3.007732e+02	-2.798694e+01
3.025104e+02	-2.804161e+01
3.042577e+02	-2.808655e+01
3.060151e+02	-2.813809e+01
3.077826e+02	-2.818576e+01
3.095604e+02	-2.823928e+01
3.113484e+02	-2.829218e+01
3.131467e+02	-2.833545e+01
3.149554e+02	-2.838540e+01
3.167746e+02	-2.843805e+01
3.186043e+02	-2.848580e+01
3.204445e+02	-2.853434e+01
3.222954e+02	-2.858962e+01
3.241570e+02	-2.863920e+01
3.260293e+02	-2.868807e+01
3.279124e+02	-2.873876e+01
3.298064e+02	-2.878647e+01
3.317114e+02	-2.883902e+01
3.336273e+02	-2.889179e+01
3.355544e+02	-2.893825e+01
3.374925e+02	-2.899201e+01
3.394418e+02	-2.903527e+01
3.414024e+02	-2.908737e+01
3.433744e+02	-2.913316e+01
3.453577e+02	-2.918580e+01
3.473525e+02	-2.924154e+01
3.493588e+02	-2.928550e+01
3.513766e+02	-2.933962e+01
3.534062e+02	-2.939022e+01
3.554474e+02	-2.944327e+01
3.575005e+02	-2.948710e+01
3.595654e+02	-2.954337e+01
3.616422e+02	-2.959387e+01
3.637311e+02	-2.963915e+01
3.658320e+02	-2.969640e+01
3.679450e+02	-2.974106e+01
3.700702e+02	-2.978783e+01
3.722077e+02	-2.983755e+01
3.743576e+02	-2.989147e+01
3.765199e+02	-2.994419e+01
3.786946e+02	-2.998688e+01
3.808820e+02	-3.004506e+01
3.830819e+02	-3.009120e+01
3.852946e+02	-3.014340e+01
3.875200e+02	-3.018898e+01
3.897583e+02	-3.024309e+01
3.920096e+02	-3.029155e+01
3.942738e+02	-3.034145e+01
3.965511e+02	-3.039614e+01
3.988416e+02	-3.044429e+01
4.011452e+02	-3.049419e+01
4.034622e+02	-3.054031e+01
4.057926e+02	-3.059584e+01
4.081365e+02	-3.063456e+01
4.104938e+02	-3.069225e+01
4.128648e+02	-3.074536e+01
4.152495e+02	-3.079002e+01
4.176480e+02	-3.084106e+01
4.200603e+02	-3.089451e+01
4.224866e+02	-3.093889e+01
4.249268e+02	-3.099266e+01
4.273812e+02	-3.104492e+01
4.298497e+02	-3.109057e+01
4.323325e+02	-3.113729e+01
4.348297e+02	-3.118755e+01
4.373412e+02	-3.124734e+01
4.398673e+02	-3.128611e+01
4.424079e+02	-3.134043e+01
4.449633e+02	-3.139230e+01
4.475334e+02	-3.144440e+01
4.501183e+02	-3.148994e+01
4.527182e+02	-3.154528e+01
4.553330e+02	-3.159892e+01
4.579630e+02	-3.164648e+01
4.606082e+02	-3.168926e+01
4.632687e+02	-3.174555e+01
4.659445e+02	-3.179964e+01
4.686358e+02	-3.184122e+01
4.713426e+02	-3.189277e+01
4.740650e+02	-3.193901e+01
4.768032e+02	-3.199519e+01
4.795572e+02	-3.204624e+01
4.823271e+02	-3.209572e+01
4.851130e+02	-3.214658e+01
4.879150e+02	-3.219556e+01
4.907332e+02	-3.225140e+01
4.935676e+02	-3.229193e+01
4.964185e+02	-3.234582e+01
4.992858e+02	-3.239598e+01
5.021696e+02	-3.245582e+01
5.050701e+02	-3.249304e+01
5.079874e+02	-3.254748e+01
5.109215e+02	-3.260078e+01
5.138726e+02	-3.264758e+01
5.168407e+02	-3.269915e+01
5.198259e+02	-3.275571e+01
5.228284e+02	-3.281067e+01
5.258482e+02	-3.285274e+01
5.288855e+02	-3.290603e+01
5.319403e+02	-3.294636e+01
5.350128e+02	-3.300082e+01
5.381030e+02	-3.305540e+01
5.412111e+02	-3.310596e+01
5.443371e+02	-3.315459e+01
5.474812e+02	-3.320691e+01
5.506434e+02	-3.325796e+01
5.538239e+02	-3.329930e+01
5.570228e+02	-3.334585e+01
5.602401e+02	-3.340468e+01
5.634760e+02	-3.344770e+01
5.667306e+02	-3.349902e+01
5.700040e+02	-3.354724e+01
5.732964e+02	-3.360564e+01
5.766077e+02	-3.364977e+01
5.799382e+02	-3.370375e+01
5.832879e+02	-3.375926e+01
5.866569e+02	-3.380580e+01
5.900454e+02	-3.385532e+01
5.934535e+02	-3.390494e+01
5.968813e+02	-3.395459e+01
6.003288e+02	-3.400608e+01
6.037963e+02	-3.405201e+01
6.072838e+02	-3.409913e+01
6.107914e+02	-3.415187e+01
6.143194e+02	-3.420499e+01
6.178676e+02	-3.425777e+01
6.214364e+02	-3.430844e+01
6.250258e+02	-3.436498e+01
6.286359e+02	-3.440151e+01
6.322669e+02	-3.446258e+01
6.359189e+02	-3.450783e+01
6.395919e+02	-3.456153e+01
6.432862e+02	-3.461152e+01
6.470017e+02	-3.466513e+01
6.507388e+02	-3.471028e+01
6.544974e+02	-3.476305e+01
6.582778e+02	-3.480468e+01
6.620800e+02	-3.486575e+01
6.659041e+02	-3.491084e+01
6.697504e+02	-3.496559e+01
6.736188e+02	-3.501488e+01
6.775096e+02	-3.506888e+01
6.814229e+02	-3.511991e+01
6.853587e+02	-3.516500e+01
6.893173e+02	-3.522100e+01
6.932988e+02	-3.527184e+01
6.973033e+02	-3.531628e+01
7.013309e+02	-3.536509e+01
