Frequency(Hz)	Magnitude(dB)
1.000000e+01	-1.964369e+00
1.005776e+01	-1.982906e+00
1.011585e+01	-2.001100e+00
1.017428e+01	-2.019867e+00
1.023305e+01	-2.038390e+00
1.029215e+01	-2.057332e+00
1.035160e+01	-2.076191e+00
1.041139e+01	-2.095205e+00
1.047153e+01	-2.114319e+00
1.053201e+01	-2.133674e+00
1.059284e+01	-2.153486e+00
1.065403e+01	-2.172963e+00
1.071556e+01	-2.192605e+00
1.077746e+01	-2.212551e+00
1.083971e+01	-2.232520e+00
1.090232e+01	-2.252725e+00
1.096529e+01	-2.273166e+00
1.102862e+01	-2.293551e+00
1.109232e+01	-2.314353e+00
1.115639e+01	-2.334904e+00
1.122083e+01	-2.355893e+00
1.128564e+01	-2.376871e+00
1.135083e+01	-2.397925e+00
1.141639e+01	-2.419310e+00
1.148233e+01	-2.440623e+00
1.154865e+01	-2.462266e+00
1.161536e+01	-2.484140e+00
1.168245e+01	-2.505858e+00
1.174992e+01	-2.527791e+00
1.181779e+01	-2.549923e+00
1.188605e+01	-2.572183e+00
1.195470e+01	-2.594821e+00
1.202375e+01	-2.617221e+00
1.209320e+01	-2.640183e+00
1.216305e+01	-2.662821e+00
1.223330e+01	-2.685828e+00
1.230396e+01	-2.708857e+00
1.237503e+01	-2.732379e+00
1.244651e+01	-2.755695e+00
1.251840e+01	-2.779344e+00
1.259070e+01	-2.803056e+00
1.266343e+01	-2.826846e+00
1.273657e+01	-2.850841e+00
1.281014e+01	-2.875090e+00
1.288413e+01	-2.899381e+00
1.295855e+01	-2.923670e+00
1.303339e+01	-2.948094e+00
1.310867e+01	-2.973191e+00
1.318439e+01	-2.998016e+00
1.326054e+01	-3.023089e+00
1.333713e+01	-3.047990e+00
1.341417e+01	-3.073481e+00
1.349165e+01	-3.099036e+00
1.356958e+01	-3.124453e+00
1.364795e+01	-3.150246e+00
1.372678e+01	-3.176226e+00
1.380607e+01	-3.202333e+00
1.388581e+01	-3.228196e+00
1.396602e+01	-3.254590e+00
1.404668e+01	-3.281010e+00
1.412782e+01	-3.307637e+00
1.420942e+01	-3.334454e+00
1.429149e+01	-3.361390e+00
1.437404e+01	-3.388242e+00
1.445706e+01	-3.415237e+00
1.454057e+01	-3.442585e+00
1.462455e+01	-3.470088e+00
1.470902e+01	-3.497873e+00
1.479398e+01	-3.525774e+00
1.487943e+01	-3.553306e+00
1.496537e+01	-3.581532e+00
1.505181e+01	-3.609496e+00
1.513875e+01	-3.637509e+00
1.522619e+01	-3.666339e+00
1.531414e+01	-3.694842e+00
1.540259e+01	-3.723685e+00
1.549156e+01	-3.752470e+00
1.558103e+01	-3.781580e+00
1.567103e+01	-3.810966e+00
1.576155e+01	-3.839922e+00
1.585258e+01	-3.869351e+00
1.594415e+01	-3.898968e+00
1.603624e+01	-3.928659e+00
1.612886e+01	-3.958421e+00
1.622202e+01	-3.988439e+00
1.631572e+01	-4.018538e+00
1.640996e+01	-4.048988e+00
1.650474e+01	-4.079264e+00
1.660008e+01	-4.109847e+00
1.669596e+01	-4.140489e+00
1.679239e+01	-4.171697e+00
1.688938e+01	-4.202450e+00
1.698694e+01	-4.233360e+00
1.708505e+01	-4.264669e+00
1.718373e+01	-4.296196e+00
1.728299e+01	-4.327532e+00
1.738281e+01	-4.359047e+00
1.748322e+01	-4.390835e+00
1.758420e+01	-4.422667e+00
1.768576e+01	-4.454606e+00
1.778792e+01	-4.486696e+00
1.789066e+01	-4.519109e+00
1.799399e+01	-4.551479e+00
1.809793e+01	-4.584331e+00
1.820246e+01	-4.616504e+00
1.830760e+01	-4.649769e+00
1.841334e+01	-4.682501e+00
1.851969e+01	-4.715827e+00
1.862666e+01	-4.748959e+00
1.873425e+01	-4.782100e+00
1.884246e+01	-4.815813e+00
1.895129e+01	-4.849335e+00
1.906075e+01	-4.882878e+00
1.917085e+01	-4.917132e+00
1.928158e+01	-4.950742e+00
1.939295e+01	-4.984959e+00
1.950496e+01	-5.019275e+00
1.961762e+01	-5.053359e+00
1.973093e+01	-5.088071e+00
1.984490e+01	-5.122433e+00
1.995952e+01	-5.157105e+00
2.007480e+01	-5.191911e+00
2.019076e+01	-5.226872e+00
2.030738e+01	-5.261964e+00
2.042467e+01	-5.296971e+00
2.054264e+01	-5.332635e+00
2.066130e+01	-5.367913e+00
2.078064e+01	-5.403681e+00
2.090066e+01	-5.439029e+00
2.102139e+01	-5.475247e+00
2.114280e+01	-5.511011e+00
2.126492e+01	-5.546603e+00
2.138775e+01	-5.583250e+00
2.151128e+01	-5.619131e+00
2.163553e+01	-5.655467e+00
2.176050e+01	-5.691901e+00
2.188619e+01	-5.728327e+00
2.201260e+01	-5.765609e+00
2.213974e+01	-5.801930e+00
2.226762e+01	-5.838737e+00
2.239624e+01	-5.875600e+00
2.252560e+01	-5.913557e+00
2.265571e+01	-5.950657e+00
2.278656e+01	-5.988036e+00
2.291818e+01	-6.025275e+00
2.305055e+01	-6.062955e+00
2.318369e+01	-6.100771e+00
2.331760e+01	-6.138245e+00
2.345228e+01	-6.176454e+00
2.358774e+01	-6.214550e+00
2.372398e+01	-6.252621e+00
2.386101e+01	-6.290752e+00
2.399883e+01	-6.329103e+00
2.413745e+01	-6.367173e+00
2.427686e+01	-6.406128e+00
2.441709e+01	-6.444721e+00
2.455812e+01	-6.483533e+00
2.469997e+01	-6.522250e+00
2.484263e+01	-6.561115e+00
2.498612e+01	-6.600191e+00
2.513044e+01	-6.639243e+00
2.527559e+01	-6.678319e+00
2.542158e+01	-6.717935e+00
2.556842e+01	-6.757284e+00
2.571610e+01	-6.796904e+00
2.586463e+01	-6.836239e+00
2.601403e+01	-6.876073e+00
2.616428e+01	-6.916025e+00
2.631541e+01	-6.955412e+00
2.646740e+01	-6.995933e+00
2.662028e+01	-7.036037e+00
2.677404e+01	-7.076315e+00
2.692868e+01	-7.116590e+00
2.708422e+01	-7.156498e+00
2.724066e+01	-7.196891e+00
2.739800e+01	-7.237839e+00
2.755625e+01	-7.278280e+00
2.771541e+01	-7.319069e+00
2.787550e+01	-7.360078e+00
2.803650e+01	-7.400755e+00
2.819844e+01	-7.441604e+00
2.836131e+01	-7.482563e+00
2.852513e+01	-7.523938e+00
2.868989e+01	-7.565356e+00
2.885560e+01	-7.606493e+00
2.902227e+01	-7.647641e+00
2.918990e+01	-7.689644e+00
2.935850e+01	-7.730378e+00
2.952807e+01	-7.772271e+00
2.969863e+01	-7.814085e+00
2.987016e+01	-7.855951e+00
3.004269e+01	-7.897739e+00
3.021622e+01	-7.940062e+00
3.039075e+01	-7.981501e+00
3.056628e+01	-8.024139e+00
3.074283e+01	-8.066448e+00
3.092040e+01	-8.107940e+00
3.109900e+01	-8.150400e+00
3.127862e+01	-8.192864e+00
3.145929e+01	-8.235513e+00
3.164099e+01	-8.278359e+00
3.182375e+01	-8.320875e+00
3.200756e+01	-8.363003e+00
3.219244e+01	-8.406032e+00
3.237838e+01	-8.449187e+00
3.256540e+01	-8.491696e+00
3.275349e+01	-8.534827e+00
3.294268e+01	-8.577859e+00
3.313295e+01	-8.621263e+00
3.332433e+01	-8.664368e+00
3.351681e+01	-8.707701e+00
3.371040e+01	-8.751008e+00
3.390511e+01	-8.794296e+00
3.410094e+01	-8.837715e+00
3.429791e+01	-8.881277e+00
3.449601e+01	-8.924792e+00
3.469526e+01	-8.968560e+00
3.489566e+01	-9.012009e+00
3.509721e+01	-9.055521e+00
3.529993e+01	-9.099199e+00
3.550382e+01	-9.143707e+00
3.570889e+01	-9.187318e+00
3.591515e+01	-9.231801e+00
3.612259e+01	-9.276060e+00
3.633123e+01	-9.320383e+00
3.654108e+01	-9.364501e+00
3.675214e+01	-9.408417e+00
3.696442e+01	-9.452819e+00
3.717792e+01	-9.497298e+00
3.739266e+01	-9.541601e+00
3.760864e+01	-9.585812e+00
3.782587e+01	-9.630493e+00
3.804435e+01	-9.675368e+00
3.826409e+01	-9.720140e+00
3.848510e+01	-9.764176e+00
3.870739e+01	-9.808990e+00
3.893096e+01	-9.853706e+00
3.915583e+01	-9.899492e+00
3.938199e+01	-9.944315e+00
3.960946e+01	-9.988728e+00
3.983824e+01	-1.003404e+01
4.006834e+01	-1.007904e+01
4.029978e+01	-1.012368e+01
4.053255e+01	-1.016933e+01
4.076666e+01	-1.021477e+01
4.100213e+01	-1.025951e+01
4.123896e+01	-1.030489e+01
4.147715e+01	-1.035054e+01
4.171672e+01	-1.039592e+01
4.195767e+01	-1.044186e+01
4.220002e+01	-1.048699e+01
4.244377e+01	-1.053279e+01
4.268892e+01	-1.057808e+01
4.293549e+01	-1.062438e+01
4.318348e+01	-1.066962e+01
4.343291e+01	-1.071544e+01
4.368377e+01	-1.076031e+01
4.393609e+01	-1.080697e+01
4.418986e+01	-1.085325e+01
4.444510e+01	-1.089887e+01
4.470182e+01	-1.094539e+01
4.496001e+01	-1.099130e+01
4.521970e+01	-1.103702e+01
4.548089e+01	-1.108262e+01
4.574358e+01	-1.112924e+01
4.600779e+01	-1.117518e+01
4.627353e+01	-1.122162e+01
4.654081e+01	-1.126805e+01
4.680963e+01	-1.131392e+01
4.708000e+01	-1.136079e+01
4.735193e+01	-1.140711e+01
4.762543e+01	-1.145341e+01
4.790051e+01	-1.150029e+01
4.817719e+01	-1.154626e+01
4.845545e+01	-1.159246e+01
4.873533e+01	-1.163981e+01
4.901682e+01	-1.168561e+01
4.929994e+01	-1.173242e+01
4.958470e+01	-1.177941e+01
4.987110e+01	-1.182655e+01
5.015915e+01	-1.187288e+01
5.044887e+01	-1.192007e+01
5.074026e+01	-1.196626e+01
5.103333e+01	-1.201350e+01
5.132810e+01	-1.206069e+01
5.162457e+01	-1.210696e+01
5.192275e+01	-1.215398e+01
5.222265e+01	-1.220136e+01
5.252429e+01	-1.224813e+01
5.282767e+01	-1.229505e+01
5.313280e+01	-1.234274e+01
5.343969e+01	-1.238929e+01
5.374836e+01	-1.243645e+01
5.405880e+01	-1.248327e+01
5.437105e+01	-1.253128e+01
5.468509e+01	-1.257801e+01
5.500095e+01	-1.262549e+01
5.531863e+01	-1.267322e+01
5.563815e+01	-1.272043e+01
5.595951e+01	-1.276763e+01
5.628273e+01	-1.281505e+01
5.660782e+01	-1.286253e+01
5.693479e+01	-1.291001e+01
5.726364e+01	-1.295716e+01
5.759439e+01	-1.300467e+01
5.792705e+01	-1.305195e+01
5.826164e+01	-1.310023e+01
5.859815e+01	-1.314774e+01
5.893662e+01	-1.319578e+01
5.927703e+01	-1.324307e+01
5.961941e+01	-1.329003e+01
5.996377e+01	-1.333814e+01
6.031012e+01	-1.338602e+01
6.065847e+01	-1.343336e+01
6.100883e+01	-1.348149e+01
6.136121e+01	-1.352936e+01
6.171563e+01	-1.357693e+01
6.207210e+01	-1.362481e+01
6.243063e+01	-1.367261e+01
6.279122e+01	-1.372066e+01
6.315390e+01	-1.376853e+01
6.351868e+01	-1.381650e+01
6.388556e+01	-1.386368e+01
6.425456e+01	-1.391262e+01
6.462569e+01	-1.396077e+01
6.499897e+01	-1.400860e+01
6.537440e+01	-1.405669e+01
6.575200e+01	-1.410418e+01
6.613178e+01	-1.415292e+01
6.651375e+01	-1.420122e+01
6.689793e+01	-1.424913e+01
6.728433e+01	-1.429739e+01
6.767297e+01	-1.434556e+01
6.806384e+01	-1.439281e+01
6.845698e+01	-1.444241e+01
6.885238e+01	-1.449063e+01
6.925007e+01	-1.453811e+01
6.965005e+01	-1.458611e+01
7.005235e+01	-1.463508e+01
7.045697e+01	-1.468335e+01
7.086393e+01	-1.473161e+01
7.127323e+01	-1.477975e+01
7.168490e+01	-1.482855e+01
7.209895e+01	-1.487660e+01
7.251539e+01	-1.492537e+01
7.293424e+01	-1.497335e+01
7.335551e+01	-1.502243e+01
7.377920e+01	-1.506991e+01
7.420535e+01	-1.511877e+01
7.463396e+01	-1.516772e+01
7.506504e+01	-1.521626e+01
7.549861e+01	-1.526417e+01
7.593469e+01	-1.531241e+01
7.637328e+01	-1.536103e+01
7.681441e+01	-1.540996e+01
7.725809e+01	-1.545872e+01
7.770433e+01	-1.550694e+01
7.815315e+01	-1.555625e+01
7.860456e+01	-1.560452e+01
7.905857e+01	-1.565379e+01
7.951521e+01	-1.570240e+01
7.997449e+01	-1.575087e+01
8.043642e+01	-1.579904e+01
8.090102e+01	-1.584832e+01
8.136830e+01	-1.589656e+01
8.183828e+01	-1.594569e+01
8.231097e+01	-1.599500e+01
8.278640e+01	-1.604270e+01
8.326457e+01	-1.609210e+01
8.374550e+01	-1.614127e+01
8.422921e+01	-1.619045e+01
8.471572e+01	-1.623834e+01
8.520503e+01	-1.628737e+01
8.569717e+01	-1.633503e+01
8.619215e+01	-1.638526e+01
8.669000e+01	-1.643472e+01
8.719071e+01	-1.648263e+01
8.769432e+01	-1.653140e+01
8.820084e+01	-1.658052e+01
8.871029e+01	-1.663013e+01
8.922267e+01	-1.667939e+01
8.973802e+01	-1.672703e+01
9.025634e+01	-1.677728e+01
9.077766e+01	-1.682525e+01
9.130199e+01	-1.687368e+01
9.182935e+01	-1.692404e+01
9.235975e+01	-1.697241e+01
9.289321e+01	-1.702139e+01
9.342976e+01	-1.707050e+01
9.396941e+01	-1.711896e+01
9.451217e+01	-1.716922e+01
9.505807e+01	-1.721880e+01
9.560712e+01	-1.726766e+01
9.615934e+01	-1.731472e+01
9.671476e+01	-1.736558e+01
9.727338e+01	-1.741485e+01
9.783522e+01	-1.746317e+01
9.840032e+01	-1.751164e+01
9.896867e+01	-1.756206e+01
9.954031e+01	-1.761070e+01
1.001153e+02	-1.765931e+01
1.006935e+02	-1.770838e+01
1.012751e+02	-1.775808e+01
1.018601e+02	-1.780714e+01
1.024484e+02	-1.785560e+01
1.030402e+02	-1.790568e+01
1.036353e+02	-1.795540e+01
1.042339e+02	-1.800384e+01
1.048360e+02	-1.805535e+01
1.054415e+02	-1.810259e+01
1.060505e+02	-1.815170e+01
1.066631e+02	-1.820106e+01
1.072791e+02	-1.825075e+01
1.078988e+02	-1.830060e+01
1.085220e+02	-1.834837e+01
1.091488e+02	-1.839783e+01
1.097793e+02	-1.844885e+01
1.104133e+02	-1.849742e+01
1.110511e+02	-1.854648e+01
1.116925e+02	-1.859694e+01
1.123376e+02	-1.864582e+01
1.129865e+02	-1.869376e+01
1.136391e+02	-1.874479e+01
1.142955e+02	-1.879374e+01
1.149556e+02	-1.884329e+01
1.156196e+02	-1.889253e+01
1.162874e+02	-1.893996e+01
1.169591e+02	-1.899089e+01
1.176347e+02	-1.904086e+01
1.183141e+02	-1.909087e+01
1.189975e+02	-1.913969e+01
1.196848e+02	-1.918909e+01
1.203761e+02	-1.923943e+01
1.210714e+02	-1.928666e+01
1.217707e+02	-1.933737e+01
1.224740e+02	-1.938612e+01
1.231814e+02	-1.943591e+01
1.238929e+02	-1.948470e+01
1.246085e+02	-1.953417e+01
1.253283e+02	-1.958383e+01
1.260522e+02	-1.963435e+01
1.267802e+02	-1.968285e+01
1.275125e+02	-1.973189e+01
1.282490e+02	-1.978130e+01
1.289898e+02	-1.983269e+01
1.297348e+02	-1.988161e+01
1.304842e+02	-1.993065e+01
1.312378e+02	-1.997985e+01
1.319959e+02	-2.002925e+01
1.327583e+02	-2.007896e+01
1.335251e+02	-2.012881e+01
1.342963e+02	-2.017820e+01
1.350720e+02	-2.022866e+01
1.358522e+02	-2.027676e+01
1.366368e+02	-2.032680e+01
1.374260e+02	-2.037711e+01
1.382198e+02	-2.042453e+01
1.390182e+02	-2.047464e+01
1.398211e+02	-2.052485e+01
1.406287e+02	-2.057600e+01
1.414410e+02	-2.062547e+01
1.422579e+02	-2.067450e+01
1.430796e+02	-2.072366e+01
1.439060e+02	-2.077502e+01
1.447372e+02	-2.082244e+01
1.455732e+02	-2.087247e+01
1.464141e+02	-2.092201e+01
1.472597e+02	-2.097172e+01
1.481103e+02	-2.102176e+01
1.489658e+02	-2.107050e+01
1.498262e+02	-2.112099e+01
1.506916e+02	-2.116965e+01
1.515620e+02	-2.121958e+01
1.524374e+02	-2.127066e+01
1.533179e+02	-2.132121e+01
1.542034e+02	-2.136764e+01
1.550941e+02	-2.141842e+01
1.559899e+02	-2.146890e+01
1.568909e+02	-2.151628e+01
1.577971e+02	-2.156662e+01
1.587085e+02	-2.161748e+01
1.596252e+02	-2.166698e+01
1.605472e+02	-2.171740e+01
1.614745e+02	-2.176659e+01
1.624072e+02	-2.181562e+01
1.633453e+02	-2.186760e+01
1.642887e+02	-2.191519e+01
1.652377e+02	-2.196697e+01
1.661921e+02	-2.201515e+01
1.671520e+02	-2.206526e+01
1.681175e+02	-2.211549e+01
1.690885e+02	-2.216578e+01
1.700651e+02	-2.221545e+01
1.710474e+02	-2.226559e+01
1.720354e+02	-2.231353e+01
1.730291e+02	-2.236364e+01
1.740285e+02	-2.241369e+01
1.750337e+02	-2.246349e+01
1.760446e+02	-2.251207e+01
1.770615e+02	-2.256235e+01
1.780842e+02	-2.261177e+01
1.791128e+02	-2.266351e+01
1.801473e+02	-2.271249e+01
1.811878e+02	-2.276204e+01
1.822344e+02	-2.281175e+01
1.832870e+02	-2.286379e+01
1.843456e+02	-2.291087e+01
1.854104e+02	-2.296119e+01
1.864813e+02	-2.301115e+01
1.875584e+02	-2.306110e+01
1.886418e+02	-2.310809e+01
1.897313e+02	-2.316310e+01
1.908272e+02	-2.321086e+01
1.919294e+02	-2.325945e+01
1.930380e+02	-2.330937e+01
1.941530e+02	-2.335870e+01
1.952744e+02	-2.340895e+01
1.964023e+02	-2.345840e+01
1.975367e+02	-2.350752e+01
1.986777e+02	-2.355606e+01
1.998252e+02	-2.361080e+01
2.009794e+02	-2.365806e+01
2.021403e+02	-2.370916e+01
2.033078e+02	-2.375634e+01
2.044821e+02	-2.380614e+01
2.056632e+02	-2.385847e+01
2.068511e+02	-2.390675e+01
2.080459e+02	-2.395844e+01
2.092475e+02	-2.400559e+01
2.104561e+02	-2.405960e+01
2.116717e+02	-2.410789e+01
2.128943e+02	-2.415793e+01
2.141240e+02	-2.420917e+01
2.153608e+02	-2.425542e+01
2.166047e+02	-2.430584e+01
2.178558e+02	-2.435505e+01
2.191141e+02	-2.440460e+01
2.203797e+02	-2.445404e+01
2.216526e+02	-2.450753e+01
2.229329e+02	-2.455439e+01
2.242205e+02	-2.460515e+01
2.255156e+02	-2.465172e+01
2.268182e+02	-2.470664e+01
2.281283e+02	-2.475416e+01
2.294459e+02	-2.480375e+01
2.307712e+02	-2.485325e+01
2.321041e+02	-2.490423e+01
2.334447e+02	-2.495516e+01
2.347931e+02	-2.500737e+01
2.361493e+02	-2.505281e+01
2.375133e+02	-2.510204e+01
2.388851e+02	-2.515704e+01
2.402649e+02	-2.520326e+01
2.416527e+02	-2.525580e+01
2.430484e+02	-2.530592e+01
2.444523e+02	-2.535366e+01
2.458642e+02	-2.540557e+01
2.472843e+02	-2.545299e+01
2.487126e+02	-2.550277e+01
2.501492e+02	-2.555550e+01
2.515940e+02	-2.560423e+01
2.530472e+02	-2.565354e+01
2.545088e+02	-2.570802e+01
2.559789e+02	-2.575477e+01
2.574574e+02	-2.580474e+01
2.589444e+02	-2.584935e+01
2.604401e+02	-2.590353e+01
2.619444e+02	-2.595351e+01
2.634574e+02	-2.600553e+01
2.649791e+02	-2.605296e+01
2.665096e+02	-2.610333e+01
2.680489e+02	-2.615353e+01
2.695972e+02	-2.620532e+01
2.711544e+02	-2.625430e+01
2.727205e+02	-2.630397e+01
2.742958e+02	-2.635647e+01
2.758801e+02	-2.640315e+01
2.774736e+02	-2.645445e+01
2.790762e+02	-2.650632e+01
2.806882e+02	-2.655266e+01
2.823094e+02	-2.660404e+01
2.839400e+02	-2.665419e+01
2.855800e+02	-2.670256e+01
2.872295e+02	-2.675480e+01
2.888886e+02	-2.680234e+01
2.905572e+02	-2.685504e+01
2.922354e+02	-2.690381e+01
2.939234e+02	-2.695248e+01
2.956211e+02	-2.700417e+01
2.973286e+02	-2.705632e+01
2.990459e+02	-2.710418e+01
3.007732e+02	-2.715456e+01
3.025104e+02	-2.720362e+01
3.042577e+02	-2.725252e+01
3.060151e+02	-2.730622e+01
3.077826e+02	-2.735515e+01
3.095604e+02	-2.740047e+01
3.113484e+02	-2.745333e+01
3.131467e+02	-2.750080e+01
3.149554e+02	-2.755253e+01
3.167746e+02	-2.760142e+01
3.186043e+02	-2.765179e+01
3.204445e+02	-2.770357e+01
3.222954e+02	-2.775174e+01
3.241570e+02	-2.780452e+01
3.260293e+02	-2.785426e+01
3.279124e+02	-2.790361e+01
3.298064e+02	-2.795462e+01
3.317114e+02	-2.800230e+01
3.336273e+02	-2.805488e+01
3.355544e+02	-2.810663e+01
3.374925e+02	-2.815503e+01
3.394418e+02	-2.820265e+01
3.414024e+02	-2.825415e+01
3.433744e+02	-2.830228e+01
3.453577e+02	-2.835201e+01
3.473525e+02	-2.840213e+01
3.493588e+02	-2.845177e+01
3.513766e+02	-2.850173e+01
3.534062e+02	-2.855307e+01
3.554474e+02	-2.860431e+01
3.575005e+02	-2.865699e+01
3.595654e+02	-2.870350e+01
3.616422e+02	-2.875356e+01
3.637311e+02	-2.880258e+01
3.658320e+02	-2.885493e+01
3.679450e+02	-2.890577e+01
3.700702e+02	-2.895665e+01
3.722077e+02	-2.900476e+01
3.743576e+02	-2.905612e+01
3.765199e+02	-2.910827e+01
3.786946e+02	-2.915337e+01
3.808820e+02	-2.920870e+01
3.830819e+02	-2.925520e+01
3.852946e+02	-2.930378e+01
3.875200e+02	-2.935856e+01
3.897583e+02	-2.940287e+01
3.920096e+02	-2.945525e+01
3.942738e+02	-2.950303e+01
3.965511e+02	-2.955385e+01
3.988416e+02	-2.960504e+01
4.011452e+02	-2.965494e+01
4.034622e+02	-2.970953e+01
4.057926e+02	-2.975633e+01
4.081365e+02	-2.980812e+01
4.104938e+02	-2.985834e+01
4.128648e+02	-2.990619e+01
4.152495e+02	-2.995655e+01
4.176480e+02	-3.000558e+01
4.200603e+02	-3.005679e+01
4.224866e+02	-3.010695e+01
4.249268e+02	-3.015685e+01
4.273812e+02	-3.020231e+01
4.298497e+02	-3.025238e+01
4.323325e+02	-3.030802e+01
4.348297e+02	-3.035708e+01
4.373412e+02	-3.040753e+01
4.398673e+02	-3.046146e+01
4.424079e+02	-3.050826e+01
4.449633e+02	-3.055969e+01
4.475334e+02	-3.060505e+01
4.501183e+02	-3.065576e+01
4.527182e+02	-3.070892e+01
4.553330e+02	-3.075857e+01
4.579630e+02	-3.080910e+01
4.606082e+02	-3.085576e+01
4.632687e+02	-3.090974e+01
4.659445e+02	-3.095726e+01
4.686358e+02	-3.101173e+01
4.713426e+02	-3.105805e+01
4.740650e+02	-3.110909e+01
4.768032e+02	-3.116225e+01
4.795572e+02	-3.120728e+01
4.823271e+02	-3.126356e+01
4.851130e+02	-3.131017e+01
4.879150e+02	-3.136206e+01
4.907332e+02	-3.140865e+01
4.935676e+02	-3.146367e+01
4.964185e+02	-3.151238e+01
4.992858e+02	-3.155631e+01
5.021696e+02	-3.161159e+01
5.050701e+02	-3.165913e+01
5.079874e+02	-3.171234e+01
5.109215e+02	-3.176480e+01
5.138726e+02	-3.181444e+01
5.168407e+02	-3.185394e+01
5.198259e+02	-3.191133e+01
5.228284e+02	-3.196447e+01
5.258482e+02	-3.201019e+01
5.288855e+02	-3.206644e+01
5.319403e+02	-3.211465e+01
5.350128e+02	-3.216299e+01
5.381030e+02	-3.222103e+01
5.412111e+02	-3.226460e+01
5.443371e+02	-3.231409e+01
5.474812e+02	-3.236465e+01
5.506434e+02	-3.241391e+01
5.538239e+02	-3.247151e+01
5.570228e+02	-3.251104e+01
5.602401e+02	-3.256071e+01
5.634760e+02	-3.261717e+01
5.667306e+02	-3.266713e+01
5.700040e+02	-3.271650e+01
5.732964e+02	-3.276617e+01
5.766077e+02	-3.281490e+01
5.799382e+02	-3.286967e+01
5.832879e+02	-3.291969e+01
5.866569e+02	-3.296519e+01
5.900454e+02	-3.300640e+01
5.934535e+02	-3.307854e+01
5.968813e+02	-3.312446e+01
6.003288e+02	-3.316655e+01
6.037963e+02	-3.321735e+01
6.072838e+02	-3.327191e+01
6.107914e+02	-3.331301e+01
6.143194e+02	-3.337673e+01
6.178676e+02	-3.342331e+01
6.214364e+02	-3.346968e+01
6.250258e+02	-3.351383e+01
6.286359e+02	-3.357171e+01
6.322669e+02	-3.362117e+01
6.359189e+02	-3.367272e+01
6.395919e+02	-3.372571e+01
6.432862e+02	-3.376910e+01
6.470017e+02	-3.382740e+01
6.507388e+02	-3.387155e+01
6.544974e+02	-3.392230e+01
6.582778e+02	-3.397078e+01
6.620800e+02	-3.402020e+01
6.659041e+02	-3.407598e+01
6.697504e+02	-3.412031e+01
6.736188e+02	-3.417936e+01
6.775096e+02	-3.423276e+01
6.814229e+02	-3.427619e+01
6.853587e+02	-3.432890e+01
6.893173e+02	-3.436297e+01
6.932988e+02	-3.442784e+01
6.973033e+02	-3.447572e+01
7.013309e+02	-3.453046e+01
