Frequency(Hz)	Magnitude(dB)
1.000000e+01	-2.288085e+00
1.005776e+01	-2.308465e+00
1.011585e+01	-2.329231e+00
1.017428e+01	-2.350025e+00
1.023305e+01	-2.370903e+00
1.029215e+01	-2.392187e+00
1.035160e+01	-2.413161e+00
1.041139e+01	-2.434712e+00
1.047153e+01	-2.456121e+00
1.053201e+01	-2.477807e+00
1.059284e+01	-2.499701e+00
1.065403e+01	-2.521655e+00
1.071556e+01	-2.543719e+00
1.077746e+01	-2.566098e+00
1.083971e+01	-2.588478e+00
1.090232e+01	-2.611106e+00
1.096529e+01	-2.633381e+00
1.102862e+01	-2.656398e+00
1.109232e+01	-2.679222e+00
1.115639e+01	-2.702348e+00
1.122083e+01	-2.725634e+00
1.128564e+01	-2.749080e+00
1.135083e+01	-2.772802e+00
1.141639e+01	-2.796532e+00
1.148233e+01	-2.820173e+00
1.154865e+01	-2.843991e+00
1.161536e+01	-2.868074e+00
1.168245e+01	-2.892370e+00
1.174992e+01	-2.916784e+00
1.181779e+01	-2.941480e+00
1.188605e+01	-2.966131e+00
1.195470e+01	-2.991062e+00
1.202375e+01	-3.015911e+00
1.209320e+01	-3.041161e+00
1.216305e+01	-3.066232e+00
1.223330e+01	-3.091497e+00
1.230396e+01	-3.117158e+00
1.237503e+01	-3.142737e+00
1.244651e+01	-3.168662e+00
1.251840e+01	-3.194729e+00
1.259070e+01	-3.221025e+00
1.266343e+01	-3.247057e+00
1.273657e+01	-3.273801e+00
1.281014e+01	-3.300140e+00
1.288413e+01	-3.326718e+00
1.295855e+01	-3.353702e+00
1.303339e+01	-3.380787e+00
1.310867e+01	-3.407749e+00
1.318439e+01	-3.435179e+00
1.326054e+01	-3.462340e+00
1.333713e+01	-3.489988e+00
1.341417e+01	-3.517622e+00
1.349165e+01	-3.545559e+00
1.356958e+01	-3.573429e+00
1.364795e+01	-3.601455e+00
1.372678e+01	-3.630086e+00
1.380607e+01	-3.658261e+00
1.388581e+01	-3.686772e+00
1.396602e+01	-3.715536e+00
1.404668e+01	-3.744258e+00
1.412782e+01	-3.773361e+00
1.420942e+01	-3.802354e+00
1.429149e+01	-3.831636e+00
1.437404e+01	-3.861143e+00
1.445706e+01	-3.890547e+00
1.454057e+01	-3.920324e+00
1.462455e+01	-3.950191e+00
1.470902e+01	-3.980107e+00
1.479398e+01	-4.010079e+00
1.487943e+01	-4.040270e+00
1.496537e+01	-4.070774e+00
1.505181e+01	-4.101174e+00
1.513875e+01	-4.131790e+00
1.522619e+01	-4.162898e+00
1.531414e+01	-4.193600e+00
1.540259e+01	-4.224620e+00
1.549156e+01	-4.255779e+00
1.558103e+01	-4.286998e+00
1.567103e+01	-4.318657e+00
1.576155e+01	-4.350200e+00
1.585258e+01	-4.382044e+00
1.594415e+01	-4.413916e+00
1.603624e+01	-4.445652e+00
1.612886e+01	-4.478194e+00
1.622202e+01	-4.510192e+00
1.631572e+01	-4.542401e+00
1.640996e+01	-4.574835e+00
1.650474e+01	-4.607446e+00
1.660008e+01	-4.640317e+00
1.669596e+01	-4.673234e+00
1.679239e+01	-4.706528e+00
1.688938e+01	-4.739450e+00
1.698694e+01	-4.772836e+00
1.708505e+01	-4.806168e+00
1.718373e+01	-4.839847e+00
1.728299e+01	-4.873581e+00
1.738281e+01	-4.907490e+00
1.748322e+01	-4.941352e+00
1.758420e+01	-4.975105e+00
1.768576e+01	-5.009394e+00
1.778792e+01	-5.043796e+00
1.789066e+01	-5.078191e+00
1.799399e+01	-5.112989e+00
1.809793e+01	-5.147117e+00
1.820246e+01	-5.182128e+00
1.830760e+01	-5.216845e+00
1.841334e+01	-5.252278e+00
1.851969e+01	-5.287092e+00
1.862666e+01	-5.322593e+00
1.873425e+01	-5.358181e+00
1.884246e+01	-5.393407e+00
1.895129e+01	-5.429036e+00
1.906075e+01	-5.464884e+00
1.917085e+01	-5.500704e+00
1.928158e+01	-5.536758e+00
1.939295e+01	-5.573137e+00
1.950496e+01	-5.608918e+00
1.961762e+01	-5.645376e+00
1.973093e+01	-5.682000e+00
1.984490e+01	-5.718370e+00
1.995952e+01	-5.755111e+00
2.007480e+01	-5.791711e+00
2.019076e+01	-5.828795e+00
2.030738e+01	-5.865792e+00
2.042467e+01	-5.902858e+00
2.054264e+01	-5.939792e+00
2.066130e+01	-5.977500e+00
2.078064e+01	-6.014838e+00
2.090066e+01	-6.052384e+00
2.102139e+01	-6.090244e+00
2.114280e+01	-6.127649e+00
2.126492e+01	-6.165636e+00
2.138775e+01	-6.203970e+00
2.151128e+01	-6.241718e+00
2.163553e+01	-6.280300e+00
2.176050e+01	-6.318729e+00
2.188619e+01	-6.356656e+00
2.201260e+01	-6.395235e+00
2.213974e+01	-6.433504e+00
2.226762e+01	-6.472340e+00
2.239624e+01	-6.511566e+00
2.252560e+01	-6.550267e+00
2.265571e+01	-6.589415e+00
2.278656e+01	-6.628055e+00
2.291818e+01	-6.667528e+00
2.305055e+01	-6.706876e+00
2.318369e+01	-6.746066e+00
2.331760e+01	-6.785360e+00
2.345228e+01	-6.825020e+00
2.358774e+01	-6.864958e+00
2.372398e+01	-6.904860e+00
2.386101e+01	-6.944681e+00
2.399883e+01	-6.984718e+00
2.413745e+01	-7.024764e+00
2.427686e+01	-7.064716e+00
2.441709e+01	-7.104862e+00
2.455812e+01	-7.145464e+00
2.469997e+01	-7.185944e+00
2.484263e+01	-7.226194e+00
2.498612e+01	-7.267051e+00
2.513044e+01	-7.307747e+00
2.527559e+01	-7.348271e+00
2.542158e+01	-7.388822e+00
2.556842e+01	-7.430437e+00
2.571610e+01	-7.471322e+00
2.586463e+01	-7.512417e+00
2.601403e+01	-7.553345e+00
2.616428e+01	-7.594882e+00
2.631541e+01	-7.636225e+00
2.646740e+01	-7.677890e+00
2.662028e+01	-7.719173e+00
2.677404e+01	-7.760535e+00
2.692868e+01	-7.802429e+00
2.708422e+01	-7.844120e+00
2.724066e+01	-7.886166e+00
2.739800e+01	-7.927953e+00
2.755625e+01	-7.970115e+00
2.771541e+01	-8.011773e+00
2.787550e+01	-8.053736e+00
2.803650e+01	-8.096307e+00
2.819844e+01	-8.138441e+00
2.836131e+01	-8.181164e+00
2.852513e+01	-8.223714e+00
2.868989e+01	-8.266205e+00
2.885560e+01	-8.308228e+00
2.902227e+01	-8.350797e+00
2.918990e+01	-8.393993e+00
2.935850e+01	-8.436959e+00
2.952807e+01	-8.479483e+00
2.969863e+01	-8.522845e+00
2.987016e+01	-8.565679e+00
3.004269e+01	-8.608513e+00
3.021622e+01	-8.652120e+00
3.039075e+01	-8.695637e+00
3.056628e+01	-8.738740e+00
3.074283e+01	-8.782126e+00
3.092040e+01	-8.825225e+00
3.109900e+01	-8.869031e+00
3.127862e+01	-8.912878e+00
3.145929e+01	-8.956434e+00
3.164099e+01	-9.000281e+00
3.182375e+01	-9.043557e+00
3.200756e+01	-9.087776e+00
3.219244e+01	-9.131070e+00
3.237838e+01	-9.175093e+00
3.256540e+01	-9.218990e+00
3.275349e+01	-9.263102e+00
3.294268e+01	-9.307776e+00
3.313295e+01	-9.351583e+00
3.332433e+01	-9.395413e+00
3.351681e+01	-9.440060e+00
3.371040e+01	-9.485031e+00
3.390511e+01	-9.528665e+00
3.410094e+01	-9.573141e+00
3.429791e+01	-9.617683e+00
3.449601e+01	-9.662549e+00
3.469526e+01	-9.707142e+00
3.489566e+01	-9.752033e+00
3.509721e+01	-9.796783e+00
3.529993e+01	-9.841715e+00
3.550382e+01	-9.886601e+00
3.570889e+01	-9.931094e+00
3.591515e+01	-9.975998e+00
3.612259e+01	-1.002117e+01
3.633123e+01	-1.006627e+01
3.654108e+01	-1.011144e+01
3.675214e+01	-1.015673e+01
3.696442e+01	-1.020163e+01
3.717792e+01	-1.024692e+01
3.739266e+01	-1.029260e+01
3.760864e+01	-1.033784e+01
3.782587e+01	-1.038335e+01
3.804435e+01	-1.042847e+01
3.826409e+01	-1.047399e+01
3.848510e+01	-1.052017e+01
3.870739e+01	-1.056572e+01
3.893096e+01	-1.061092e+01
3.915583e+01	-1.065704e+01
3.938199e+01	-1.070216e+01
3.960946e+01	-1.074829e+01
3.983824e+01	-1.079456e+01
4.006834e+01	-1.084000e+01
4.029978e+01	-1.088528e+01
4.053255e+01	-1.093170e+01
4.076666e+01	-1.097825e+01
4.100213e+01	-1.102353e+01
4.123896e+01	-1.107007e+01
4.147715e+01	-1.111643e+01
4.171672e+01	-1.116285e+01
4.195767e+01	-1.120822e+01
4.220002e+01	-1.125520e+01
4.244377e+01	-1.130151e+01
4.268892e+01	-1.134829e+01
4.293549e+01	-1.139384e+01
4.318348e+01	-1.144005e+01
4.343291e+01	-1.148669e+01
4.368377e+01	-1.153327e+01
4.393609e+01	-1.157962e+01
4.418986e+01	-1.162602e+01
4.444510e+01	-1.167271e+01
4.470182e+01	-1.171969e+01
4.496001e+01	-1.176564e+01
4.521970e+01	-1.181254e+01
4.548089e+01	-1.186006e+01
4.574358e+01	-1.190650e+01
4.600779e+01	-1.195319e+01
4.627353e+01	-1.200081e+01
4.654081e+01	-1.204683e+01
4.680963e+01	-1.209391e+01
4.708000e+01	-1.214144e+01
4.735193e+01	-1.218785e+01
4.762543e+01	-1.223433e+01
4.790051e+01	-1.228177e+01
4.817719e+01	-1.232876e+01
4.845545e+01	-1.237606e+01
4.873533e+01	-1.242397e+01
4.901682e+01	-1.247078e+01
4.929994e+01	-1.251848e+01
4.958470e+01	-1.256580e+01
4.987110e+01	-1.261272e+01
5.015915e+01	-1.265915e+01
5.044887e+01	-1.270675e+01
5.074026e+01	-1.275478e+01
5.103333e+01	-1.280202e+01
5.132810e+01	-1.284959e+01
5.162457e+01	-1.289660e+01
5.192275e+01	-1.294398e+01
5.222265e+01	-1.299167e+01
5.252429e+01	-1.303926e+01
5.282767e+01	-1.308669e+01
5.313280e+01	-1.313485e+01
5.343969e+01	-1.318123e+01
5.374836e+01	-1.322931e+01
5.405880e+01	-1.327805e+01
5.437105e+01	-1.332473e+01
5.468509e+01	-1.337301e+01
5.500095e+01	-1.342011e+01
5.531863e+01	-1.346753e+01
5.563815e+01	-1.351545e+01
5.595951e+01	-1.356390e+01
5.628273e+01	-1.361130e+01
5.660782e+01	-1.365895e+01
5.693479e+01	-1.370666e+01
5.726364e+01	-1.375396e+01
5.759439e+01	-1.380291e+01
5.792705e+01	-1.385096e+01
5.826164e+01	-1.389909e+01
5.859815e+01	-1.394675e+01
5.893662e+01	-1.399462e+01
5.927703e+01	-1.404281e+01
5.961941e+01	-1.409083e+01
5.996377e+01	-1.413902e+01
6.031012e+01	-1.418749e+01
6.065847e+01	-1.423497e+01
6.100883e+01	-1.428361e+01
6.136121e+01	-1.433163e+01
6.171563e+01	-1.438042e+01
6.207210e+01	-1.442830e+01
6.243063e+01	-1.447579e+01
6.279122e+01	-1.452493e+01
6.315390e+01	-1.457311e+01
6.351868e+01	-1.462177e+01
6.388556e+01	-1.466928e+01
6.425456e+01	-1.471810e+01
6.462569e+01	-1.476638e+01
6.499897e+01	-1.481443e+01
6.537440e+01	-1.486245e+01
6.575200e+01	-1.491149e+01
6.613178e+01	-1.495915e+01
6.651375e+01	-1.500833e+01
6.689793e+01	-1.505696e+01
6.728433e+01	-1.510416e+01
6.767297e+01	-1.515353e+01
6.806384e+01	-1.520235e+01
6.845698e+01	-1.525033e+01
6.885238e+01	-1.529998e+01
6.925007e+01	-1.534837e+01
6.965005e+01	-1.539673e+01
7.005235e+01	-1.544471e+01
7.045697e+01	-1.549313e+01
7.086393e+01	-1.554181e+01
7.127323e+01	-1.559164e+01
7.168490e+01	-1.563984e+01
7.209895e+01	-1.568801e+01
7.251539e+01	-1.573782e+01
7.293424e+01	-1.578506e+01
7.335551e+01	-1.583418e+01
7.377920e+01	-1.588228e+01
7.420535e+01	-1.593178e+01
7.463396e+01	-1.597996e+01
7.506504e+01	-1.602945e+01
7.549861e+01	-1.607827e+01
7.593469e+01	-1.612735e+01
7.637328e+01	-1.617668e+01
7.681441e+01	-1.622442e+01
7.725809e+01	-1.627435e+01
7.770433e+01	-1.632170e+01
7.815315e+01	-1.637125e+01
7.860456e+01	-1.642077e+01
7.905857e+01	-1.646951e+01
7.951521e+01	-1.651738e+01
7.997449e+01	-1.656652e+01
8.043642e+01	-1.661550e+01
8.090102e+01	-1.666398e+01
8.136830e+01	-1.671313e+01
8.183828e+01	-1.676221e+01
8.231097e+01	-1.681211e+01
8.278640e+01	-1.685976e+01
8.326457e+01	-1.691032e+01
8.374550e+01	-1.695934e+01
8.422921e+01	-1.700717e+01
8.471572e+01	-1.705647e+01
8.520503e+01	-1.710559e+01
8.569717e+01	-1.715520e+01
8.619215e+01	-1.720311e+01
8.669000e+01	-1.725257e+01
8.719071e+01	-1.730138e+01
8.769432e+01	-1.735046e+01
8.820084e+01	-1.740062e+01
8.871029e+01	-1.745037e+01
8.922267e+01	-1.749811e+01
8.973802e+01	-1.754688e+01
9.025634e+01	-1.759591e+01
9.077766e+01	-1.764543e+01
9.130199e+01	-1.769429e+01
9.182935e+01	-1.774445e+01
9.235975e+01	-1.779373e+01
9.289321e+01	-1.784385e+01
9.342976e+01	-1.789191e+01
9.396941e+01	-1.794226e+01
9.451217e+01	-1.799162e+01
9.505807e+01	-1.803866e+01
9.560712e+01	-1.808880e+01
9.615934e+01	-1.813763e+01
9.671476e+01	-1.818837e+01
9.727338e+01	-1.823817e+01
9.783522e+01	-1.828565e+01
9.840032e+01	-1.833535e+01
9.896867e+01	-1.838476e+01
9.954031e+01	-1.843409e+01
1.001153e+02	-1.848405e+01
1.006935e+02	-1.853187e+01
1.012751e+02	-1.858162e+01
1.018601e+02	-1.863083e+01
1.024484e+02	-1.868010e+01
1.030402e+02	-1.873040e+01
1.036353e+02	-1.877904e+01
1.042339e+02	-1.882830e+01
1.048360e+02	-1.887834e+01
1.054415e+02	-1.892662e+01
1.060505e+02	-1.897715e+01
1.066631e+02	-1.902619e+01
1.072791e+02	-1.907634e+01
1.078988e+02	-1.912475e+01
1.085220e+02	-1.917501e+01
1.091488e+02	-1.922295e+01
1.097793e+02	-1.927348e+01
1.104133e+02	-1.932231e+01
1.110511e+02	-1.937234e+01
1.116925e+02	-1.942037e+01
1.123376e+02	-1.947144e+01
1.129865e+02	-1.952150e+01
1.136391e+02	-1.957040e+01
1.142955e+02	-1.962041e+01
1.149556e+02	-1.967004e+01
1.156196e+02	-1.971768e+01
1.162874e+02	-1.976921e+01
1.169591e+02	-1.981695e+01
1.176347e+02	-1.986852e+01
1.183141e+02	-1.991645e+01
1.189975e+02	-1.996557e+01
1.196848e+02	-2.001462e+01
1.203761e+02	-2.006402e+01
1.210714e+02	-2.011513e+01
1.217707e+02	-2.016447e+01
1.224740e+02	-2.021288e+01
1.231814e+02	-2.026526e+01
1.238929e+02	-2.031307e+01
1.246085e+02	-2.036138e+01
1.253283e+02	-2.041197e+01
1.260522e+02	-2.046149e+01
1.267802e+02	-2.051079e+01
1.275125e+02	-2.056194e+01
1.282490e+02	-2.061139e+01
1.289898e+02	-2.066103e+01
1.297348e+02	-2.071081e+01
1.304842e+02	-2.075751e+01
1.312378e+02	-2.080695e+01
1.319959e+02	-2.085733e+01
1.327583e+02	-2.090803e+01
1.335251e+02	-2.095772e+01
1.342963e+02	-2.100755e+01
1.350720e+02	-2.105636e+01
1.358522e+02	-2.110556e+01
1.366368e+02	-2.115773e+01
1.374260e+02	-2.120599e+01
1.382198e+02	-2.125588e+01
1.390182e+02	-2.130567e+01
1.398211e+02	-2.135642e+01
1.406287e+02	-2.140451e+01
1.414410e+02	-2.145538e+01
1.422579e+02	-2.150410e+01
1.430796e+02	-2.155346e+01
1.439060e+02	-2.160302e+01
1.447372e+02	-2.165337e+01
1.455732e+02	-2.170189e+01
1.464141e+02	-2.175385e+01
1.472597e+02	-2.180160e+01
1.481103e+02	-2.185161e+01
1.489658e+02	-2.190305e+01
1.498262e+02	-2.195115e+01
1.506916e+02	-2.200063e+01
1.515620e+02	-2.205112e+01
1.524374e+02	-2.210068e+01
1.533179e+02	-2.215176e+01
1.542034e+02	-2.219757e+01
1.550941e+02	-2.225186e+01
1.559899e+02	-2.229946e+01
1.568909e+02	-2.234942e+01
1.577971e+02	-2.240154e+01
1.587085e+02	-2.245025e+01
1.596252e+02	-2.249885e+01
1.605472e+02	-2.254814e+01
1.614745e+02	-2.259588e+01
1.624072e+02	-2.264959e+01
1.633453e+02	-2.269879e+01
1.642887e+02	-2.274760e+01
1.652377e+02	-2.279994e+01
1.661921e+02	-2.284755e+01
1.671520e+02	-2.289709e+01
1.681175e+02	-2.294634e+01
1.690885e+02	-2.299679e+01
1.700651e+02	-2.304552e+01
1.710474e+02	-2.309622e+01
1.720354e+02	-2.314677e+01
1.730291e+02	-2.319466e+01
1.740285e+02	-2.324536e+01
1.750337e+02	-2.329564e+01
1.760446e+02	-2.334623e+01
1.770615e+02	-2.339681e+01
1.780842e+02	-2.344603e+01
1.791128e+02	-2.349437e+01
1.801473e+02	-2.354335e+01
1.811878e+02	-2.359583e+01
1.822344e+02	-2.364274e+01
1.832870e+02	-2.369409e+01
1.843456e+02	-2.374459e+01
1.854104e+02	-2.379360e+01
1.864813e+02	-2.384274e+01
1.875584e+02	-2.389491e+01
1.886418e+02	-2.394240e+01
1.897313e+02	-2.399216e+01
1.908272e+02	-2.404058e+01
1.919294e+02	-2.409337e+01
1.930380e+02	-2.414412e+01
1.941530e+02	-2.419254e+01
1.952744e+02	-2.424256e+01
1.964023e+02	-2.429172e+01
1.975367e+02	-2.434378e+01
1.986777e+02	-2.439237e+01
1.998252e+02	-2.444201e+01
2.009794e+02	-2.449374e+01
2.021403e+02	-2.454050e+01
2.033078e+02	-2.459129e+01
2.044821e+02	-2.463958e+01
2.056632e+02	-2.469356e+01
2.068511e+02	-2.474148e+01
2.080459e+02	-2.479149e+01
2.092475e+02	-2.484191e+01
2.104561e+02	-2.489130e+01
2.116717e+02	-2.494009e+01
2.128943e+02	-2.498888e+01
2.141240e+02	-2.504157e+01
2.153608e+02	-2.509087e+01
2.166047e+02	-2.513912e+01
2.178558e+02	-2.518933e+01
2.191141e+02	-2.524106e+01
2.203797e+02	-2.529168e+01
2.216526e+02	-2.534103e+01
2.229329e+02	-2.538929e+01
2.242205e+02	-2.543967e+01
2.255156e+02	-2.549161e+01
2.268182e+02	-2.554061e+01
2.281283e+02	-2.558844e+01
2.294459e+02	-2.563861e+01
2.307712e+02	-2.568851e+01
2.321041e+02	-2.573672e+01
2.334447e+02	-2.578706e+01
2.347931e+02	-2.584017e+01
2.361493e+02	-2.589114e+01
2.375133e+02	-2.594165e+01
2.388851e+02	-2.599054e+01
2.402649e+02	-2.603960e+01
2.416527e+02	-2.609243e+01
2.430484e+02	-2.614137e+01
2.444523e+02	-2.618782e+01
2.458642e+02	-2.623680e+01
2.472843e+02	-2.628901e+01
2.487126e+02	-2.633698e+01
2.501492e+02	-2.638829e+01
2.515940e+02	-2.643863e+01
2.530472e+02	-2.648831e+01
2.545088e+02	-2.653767e+01
2.559789e+02	-2.658891e+01
2.574574e+02	-2.663884e+01
2.589444e+02	-2.668523e+01
2.604401e+02	-2.673988e+01
2.619444e+02	-2.678868e+01
2.634574e+02	-2.683932e+01
2.649791e+02	-2.688809e+01
2.665096e+02	-2.694218e+01
2.680489e+02	-2.698726e+01
2.695972e+02	-2.703917e+01
2.711544e+02	-2.708850e+01
2.727205e+02	-2.713632e+01
2.742958e+02	-2.718756e+01
2.758801e+02	-2.723986e+01
2.774736e+02	-2.728940e+01
2.790762e+02	-2.733672e+01
2.806882e+02	-2.738663e+01
2.823094e+02	-2.743953e+01
2.839400e+02	-2.749142e+01
2.855800e+02	-2.753855e+01
2.872295e+02	-2.758947e+01
2.888886e+02	-2.763590e+01
2.905572e+02	-2.768623e+01
2.922354e+02	-2.773714e+01
2.939234e+02	-2.778814e+01
2.956211e+02	-2.783940e+01
2.973286e+02	-2.788890e+01
2.990459e+02	-2.793790e+01
3.007732e+02	-2.798623e+01
3.025104e+02	-2.803552e+01
3.042577e+02	-2.809294e+01
3.060151e+02	-2.813834e+01
3.077826e+02	-2.818773e+01
3.095604e+02	-2.823863e+01
3.113484e+02	-2.828536e+01
3.131467e+02	-2.833783e+01
3.149554e+02	-2.838965e+01
3.167746e+02	-2.844168e+01
3.186043e+02	-2.848932e+01
3.204445e+02	-2.853984e+01
3.222954e+02	-2.858966e+01
3.241570e+02	-2.863686e+01
3.260293e+02	-2.869188e+01
3.279124e+02	-2.874004e+01
3.298064e+02	-2.878509e+01
3.317114e+02	-2.884160e+01
3.336273e+02	-2.888832e+01
3.355544e+02	-2.893788e+01
3.374925e+02	-2.898659e+01
3.394418e+02	-2.903929e+01
3.414024e+02	-2.909109e+01
3.433744e+02	-2.913600e+01
3.453577e+02	-2.919098e+01
3.473525e+02	-2.923973e+01
3.493588e+02	-2.928773e+01
3.513766e+02	-2.933779e+01
3.534062e+02	-2.939149e+01
3.554474e+02	-2.944200e+01
3.575005e+02	-2.948567e+01
3.595654e+02	-2.954072e+01
3.616422e+02	-2.959023e+01
3.637311e+02	-2.964039e+01
3.658320e+02	-2.968609e+01
3.679450e+02	-2.974069e+01
3.700702e+02	-2.978693e+01
3.722077e+02	-2.984483e+01
3.743576e+02	-2.989068e+01
3.765199e+02	-2.993898e+01
3.786946e+02	-2.999128e+01
3.808820e+02	-3.003641e+01
3.830819e+02	-3.009162e+01
3.852946e+02	-3.014044e+01
3.875200e+02	-3.018807e+01
3.897583e+02	-3.024504e+01
3.920096e+02	-3.029230e+01
3.942738e+02	-3.033908e+01
3.965511e+02	-3.038795e+01
3.988416e+02	-3.044192e+01
4.011452e+02	-3.049161e+01
4.034622e+02	-3.054240e+01
4.057926e+02	-3.059291e+01
4.081365e+02	-3.064084e+01
4.104938e+02	-3.068763e+01
4.128648e+02	-3.074571e+01
4.152495e+02	-3.079787e+01
4.176480e+02	-3.084013e+01
4.200603e+02	-3.089085e+01
4.224866e+02	-3.093806e+01
4.249268e+02	-3.099121e+01
4.273812e+02	-3.104066e+01
4.298497e+02	-3.109205e+01
4.323325e+02	-3.114337e+01
4.348297e+02	-3.119454e+01
4.373412e+02	-3.124643e+01
4.398673e+02	-3.129760e+01
4.424079e+02	-3.134554e+01
4.449633e+02	-3.139483e+01
4.475334e+02	-3.144541e+01
4.501183e+02	-3.149433e+01
4.527182e+02	-3.154497e+01
4.553330e+02	-3.159256e+01
4.579630e+02	-3.164550e+01
4.606082e+02	-3.169513e+01
4.632687e+02	-3.174016e+01
4.659445e+02	-3.179007e+01
4.686358e+02	-3.184756e+01
4.713426e+02	-3.189872e+01
4.740650e+02	-3.194480e+01
4.768032e+02	-3.199148e+01
4.795572e+02	-3.204980e+01
4.823271e+02	-3.209721e+01
4.851130e+02	-3.214584e+01
4.879150e+02	-3.219869e+01
4.907332e+02	-3.224557e+01
4.935676e+02	-3.229162e+01
4.964185e+02	-3.234684e+01
4.992858e+02	-3.239714e+01
5.021696e+02	-3.245028e+01
5.050701e+02	-3.250089e+01
5.079874e+02	-3.254964e+01
5.109215e+02	-3.259797e+01
5.138726e+02	-3.264675e+01
5.168407e+02	-3.269975e+01
5.198259e+02	-3.275094e+01
5.228284e+02	-3.279858e+01
5.258482e+02	-3.284518e+01
5.288855e+02	-3.289431e+01
5.319403e+02	-3.294811e+01
5.350128e+02	-3.300346e+01
5.381030e+02	-3.305711e+01
5.412111e+02	-3.309795e+01
5.443371e+02	-3.314741e+01
5.474812e+02	-3.320389e+01
5.506434e+02	-3.324471e+01
5.538239e+02	-3.330516e+01
5.570228e+02	-3.335341e+01
5.602401e+02	-3.340420e+01
5.634760e+02	-3.345748e+01
5.667306e+02	-3.350520e+01
5.700040e+02	-3.354220e+01
5.732964e+02	-3.360250e+01
5.766077e+02	-3.365142e+01
5.799382e+02	-3.370310e+01
5.832879e+02	-3.374977e+01
5.866569e+02	-3.380638e+01
5.900454e+02	-3.385319e+01
5.934535e+02	-3.391164e+01
5.968813e+02	-3.395286e+01
6.003288e+02	-3.400457e+01
6.037963e+02	-3.406109e+01
6.072838e+02	-3.410981e+01
6.107914e+02	-3.415448e+01
6.143194e+02	-3.421914e+01
6.178676e+02	-3.426040e+01
6.214364e+02	-3.430787e+01
6.250258e+02	-3.435969e+01
6.286359e+02	-3.440765e+01
6.322669e+02	-3.445283e+01
6.359189e+02	-3.451179e+01
6.395919e+02	-3.455635e+01
6.432862e+02	-3.460691e+01
6.470017e+02	-3.465646e+01
6.507388e+02	-3.471261e+01
6.544974e+02	-3.476344e+01
6.582778e+02	-3.481208e+01
6.620800e+02	-3.486328e+01
6.659041e+02	-3.491545e+01
6.697504e+02	-3.495179e+01
6.736188e+02	-3.500880e+01
6.775096e+02	-3.505786e+01
6.814229e+02	-3.511055e+01
6.853587e+02	-3.516231e+01
6.893173e+02	-3.522179e+01
6.932988e+02	-3.525615e+01
6.973033e+02	-3.532128e+01
7.013309e+02	-3.535618e+01
