Frequency(Hz)	Magnitude(dB)
1.000000e+01	-1.630924e-05
1.005776e+01	-1.649818e-05
1.011585e+01	-1.668932e-05
1.017428e+01	-1.688267e-05
1.023305e+01	-1.707826e-05
1.029215e+01	-1.727612e-05
1.035160e+01	-1.747626e-05
1.041139e+01	-1.767873e-05
1.047153e+01	-1.788354e-05
1.053201e+01	-1.809073e-05
1.059284e+01	-1.830031e-05
1.065403e+01	-1.851233e-05
1.071556e+01	-1.872680e-05
1.077746e+01	-1.894375e-05
1.083971e+01	-1.916322e-05
1.090232e+01	-1.938523e-05
1.096529e+01	-1.960982e-05
1.102862e+01	-1.983700e-05
1.109232e+01	-2.006682e-05
1.115639e+01	-2.029930e-05
1.122083e+01	-2.053447e-05
1.128564e+01	-2.077237e-05
1.135083e+01	-2.101302e-05
1.141639e+01	-2.125646e-05
1.148233e+01	-2.150272e-05
1.154865e+01	-2.175184e-05
1.161536e+01	-2.200384e-05
1.168245e+01	-2.225876e-05
1.174992e+01	-2.251663e-05
1.181779e+01	-2.277749e-05
1.188605e+01	-2.304137e-05
1.195470e+01	-2.330831e-05
1.202375e+01	-2.357835e-05
1.209320e+01	-2.385151e-05
1.216305e+01	-2.412783e-05
1.223330e+01	-2.440736e-05
1.230396e+01	-2.469012e-05
1.237503e+01	-2.497617e-05
1.244651e+01	-2.526552e-05
1.251840e+01	-2.555823e-05
1.259070e+01	-2.585433e-05
1.266343e+01	-2.615385e-05
1.273657e+01	-2.645685e-05
1.281014e+01	-2.676336e-05
1.288413e+01	-2.707342e-05
1.295855e+01	-2.738707e-05
1.303339e+01	-2.770436e-05
1.310867e+01	-2.802532e-05
1.318439e+01	-2.835000e-05
1.326054e+01	-2.867844e-05
1.333713e+01	-2.901069e-05
1.341417e+01	-2.934679e-05
1.349165e+01	-2.968678e-05
1.356958e+01	-3.003070e-05
1.364795e+01	-3.037862e-05
1.372678e+01	-3.073056e-05
1.380607e+01	-3.108658e-05
1.388581e+01	-3.144673e-05
1.396602e+01	-3.181105e-05
1.404668e+01	-3.217958e-05
1.412782e+01	-3.255239e-05
1.420942e+01	-3.292952e-05
1.429149e+01	-3.331102e-05
1.437404e+01	-3.369693e-05
1.445706e+01	-3.408732e-05
1.454057e+01	-3.448223e-05
1.462455e+01	-3.488171e-05
1.470902e+01	-3.528583e-05
1.479398e+01	-3.569462e-05
1.487943e+01	-3.610815e-05
1.496537e+01	-3.652647e-05
1.505181e+01	-3.694964e-05
1.513875e+01	-3.737771e-05
1.522619e+01	-3.781074e-05
1.531414e+01	-3.824878e-05
1.540259e+01	-3.869191e-05
1.549156e+01	-3.914016e-05
1.558103e+01	-3.959361e-05
1.567103e+01	-4.005231e-05
1.576155e+01	-4.051632e-05
1.585258e+01	-4.098571e-05
1.594415e+01	-4.146054e-05
1.603624e+01	-4.194087e-05
1.612886e+01	-4.242677e-05
1.622202e+01	-4.291829e-05
1.631572e+01	-4.341551e-05
1.640996e+01	-4.391849e-05
1.650474e+01	-4.442729e-05
1.660008e+01	-4.494199e-05
1.669596e+01	-4.546265e-05
1.679239e+01	-4.598935e-05
1.688938e+01	-4.652215e-05
1.698694e+01	-4.706112e-05
1.708505e+01	-4.760633e-05
1.718373e+01	-4.815786e-05
1.728299e+01	-4.871578e-05
1.738281e+01	-4.928016e-05
1.748322e+01	-4.985108e-05
1.758420e+01	-5.042862e-05
1.768576e+01	-5.101284e-05
1.778792e+01	-5.160384e-05
1.789066e+01	-5.220168e-05
1.799399e+01	-5.280645e-05
1.809793e+01	-5.341822e-05
1.820246e+01	-5.403708e-05
1.830760e+01	-5.466311e-05
1.841334e+01	-5.529640e-05
1.851969e+01	-5.593702e-05
1.862666e+01	-5.658506e-05
1.873425e+01	-5.724061e-05
1.884246e+01	-5.790375e-05
1.895129e+01	-5.857458e-05
1.906075e+01	-5.925318e-05
1.917085e+01	-5.993964e-05
1.928158e+01	-6.063405e-05
1.939295e+01	-6.133651e-05
1.950496e+01	-6.204710e-05
1.961762e+01	-6.276593e-05
1.973093e+01	-6.349308e-05
1.984490e+01	-6.422866e-05
1.995952e+01	-6.497277e-05
2.007480e+01	-6.572549e-05
2.019076e+01	-6.648693e-05
2.030738e+01	-6.725719e-05
2.042467e+01	-6.803638e-05
2.054264e+01	-6.882460e-05
2.066130e+01	-6.962194e-05
2.078064e+01	-7.042852e-05
2.090066e+01	-7.124445e-05
2.102139e+01	-7.206983e-05
2.114280e+01	-7.290477e-05
2.126492e+01	-7.374939e-05
2.138775e+01	-7.460379e-05
2.151128e+01	-7.546809e-05
2.163553e+01	-7.634240e-05
2.176050e+01	-7.722684e-05
2.188619e+01	-7.812152e-05
2.201260e+01	-7.902658e-05
2.213974e+01	-7.994211e-05
2.226762e+01	-8.086826e-05
2.239624e+01	-8.180513e-05
2.252560e+01	-8.275285e-05
2.265571e+01	-8.371156e-05
2.278656e+01	-8.468137e-05
2.291818e+01	-8.566242e-05
2.305055e+01	-8.665483e-05
2.318369e+01	-8.765874e-05
2.331760e+01	-8.867428e-05
2.345228e+01	-8.970159e-05
2.358774e+01	-9.074080e-05
2.372398e+01	-9.179204e-05
2.386101e+01	-9.285547e-05
2.399883e+01	-9.393121e-05
2.413745e+01	-9.501942e-05
2.427686e+01	-9.612024e-05
2.441709e+01	-9.723380e-05
2.455812e+01	-9.836027e-05
2.469997e+01	-9.949979e-05
2.484263e+01	-1.006525e-04
2.498612e+01	-1.018186e-04
2.513044e+01	-1.029982e-04
2.527559e+01	-1.041914e-04
2.542158e+01	-1.053985e-04
2.556842e+01	-1.066195e-04
2.571610e+01	-1.078547e-04
2.586463e+01	-1.091043e-04
2.601403e+01	-1.103682e-04
2.616428e+01	-1.116469e-04
2.631541e+01	-1.129403e-04
2.646740e+01	-1.142487e-04
2.662028e+01	-1.155723e-04
2.677404e+01	-1.169112e-04
2.692868e+01	-1.182657e-04
2.708422e+01	-1.196358e-04
2.724066e+01	-1.210218e-04
2.739800e+01	-1.224238e-04
2.755625e+01	-1.238421e-04
2.771541e+01	-1.252769e-04
2.787550e+01	-1.267282e-04
2.803650e+01	-1.281964e-04
2.819844e+01	-1.296815e-04
2.836131e+01	-1.311839e-04
2.852513e+01	-1.327037e-04
2.868989e+01	-1.342411e-04
2.885560e+01	-1.357963e-04
2.902227e+01	-1.373695e-04
2.918990e+01	-1.389609e-04
2.935850e+01	-1.405708e-04
2.952807e+01	-1.421993e-04
2.969863e+01	-1.438467e-04
2.987016e+01	-1.455132e-04
3.004269e+01	-1.471990e-04
3.021622e+01	-1.489043e-04
3.039075e+01	-1.506294e-04
3.056628e+01	-1.523744e-04
3.074283e+01	-1.541397e-04
3.092040e+01	-1.559254e-04
3.109900e+01	-1.577318e-04
3.127862e+01	-1.595591e-04
3.145929e+01	-1.614076e-04
3.164099e+01	-1.632776e-04
3.182375e+01	-1.651691e-04
3.200756e+01	-1.670826e-04
3.219244e+01	-1.690183e-04
3.237838e+01	-1.709764e-04
3.256540e+01	-1.729572e-04
3.275349e+01	-1.749609e-04
3.294268e+01	-1.769878e-04
3.313295e+01	-1.790382e-04
3.332433e+01	-1.811124e-04
3.351681e+01	-1.832106e-04
3.371040e+01	-1.853331e-04
3.390511e+01	-1.874802e-04
3.410094e+01	-1.896521e-04
3.429791e+01	-1.918492e-04
3.449601e+01	-1.940718e-04
3.469526e+01	-1.963201e-04
3.489566e+01	-1.985945e-04
3.509721e+01	-2.008952e-04
3.529993e+01	-2.032226e-04
3.550382e+01	-2.055769e-04
3.570889e+01	-2.079586e-04
3.591515e+01	-2.103678e-04
3.612259e+01	-2.128049e-04
3.633123e+01	-2.152702e-04
3.654108e+01	-2.177641e-04
3.675214e+01	-2.202869e-04
3.696442e+01	-2.228389e-04
3.717792e+01	-2.254205e-04
3.739266e+01	-2.280320e-04
3.760864e+01	-2.306737e-04
3.782587e+01	-2.333461e-04
3.804435e+01	-2.360494e-04
3.826409e+01	-2.387840e-04
3.848510e+01	-2.415503e-04
3.870739e+01	-2.443487e-04
3.893096e+01	-2.471794e-04
3.915583e+01	-2.500430e-04
3.938199e+01	-2.529397e-04
3.960946e+01	-2.558700e-04
3.983824e+01	-2.588343e-04
4.006834e+01	-2.618328e-04
4.029978e+01	-2.648661e-04
4.053255e+01	-2.679346e-04
4.076666e+01	-2.710386e-04
4.100213e+01	-2.741786e-04
4.123896e+01	-2.773549e-04
4.147715e+01	-2.805680e-04
4.171672e+01	-2.838184e-04
4.195767e+01	-2.871064e-04
4.220002e+01	-2.904325e-04
4.244377e+01	-2.937971e-04
4.268892e+01	-2.972007e-04
4.293549e+01	-3.006437e-04
4.318348e+01	-3.041267e-04
4.343291e+01	-3.076499e-04
4.368377e+01	-3.112140e-04
4.393609e+01	-3.148194e-04
4.418986e+01	-3.184665e-04
4.444510e+01	-3.221559e-04
4.470182e+01	-3.258880e-04
4.496001e+01	-3.296634e-04
4.521970e+01	-3.334825e-04
4.548089e+01	-3.373458e-04
4.574358e+01	-3.412539e-04
4.600779e+01	-3.452073e-04
4.627353e+01	-3.492064e-04
4.654081e+01	-3.532519e-04
4.680963e+01	-3.573443e-04
4.708000e+01	-3.614840e-04
4.735193e+01	-3.656718e-04
4.762543e+01	-3.699080e-04
4.790051e+01	-3.741933e-04
4.817719e+01	-3.785282e-04
4.845545e+01	-3.829134e-04
4.873533e+01	-3.873494e-04
4.901682e+01	-3.918367e-04
4.929994e+01	-3.963760e-04
4.958470e+01	-4.009679e-04
4.987110e+01	-4.056130e-04
5.015915e+01	-4.103120e-04
5.044887e+01	-4.150653e-04
5.074026e+01	-4.198737e-04
5.103333e+01	-4.247378e-04
5.132810e+01	-4.296583e-04
5.162457e+01	-4.346358e-04
5.192275e+01	-4.396709e-04
5.222265e+01	-4.447643e-04
5.252429e+01	-4.499168e-04
5.282767e+01	-4.551289e-04
5.313280e+01	-4.604014e-04
5.343969e+01	-4.657350e-04
5.374836e+01	-4.711304e-04
5.405880e+01	-4.765883e-04
5.437105e+01	-4.821094e-04
5.468509e+01	-4.876944e-04
5.500095e+01	-4.933442e-04
5.531863e+01	-4.990594e-04
5.563815e+01	-5.048408e-04
5.595951e+01	-5.106892e-04
5.628273e+01	-5.166053e-04
5.660782e+01	-5.225900e-04
5.693479e+01	-5.286439e-04
5.726364e+01	-5.347681e-04
5.759439e+01	-5.409631e-04
5.792705e+01	-5.472299e-04
5.826164e+01	-5.535693e-04
5.859815e+01	-5.599822e-04
5.893662e+01	-5.664693e-04
5.927703e+01	-5.730316e-04
5.961941e+01	-5.796698e-04
5.996377e+01	-5.863850e-04
6.031012e+01	-5.931780e-04
6.065847e+01	-6.000496e-04
6.100883e+01	-6.070009e-04
6.136121e+01	-6.140327e-04
6.171563e+01	-6.211459e-04
6.207210e+01	-6.283415e-04
6.243063e+01	-6.356205e-04
6.279122e+01	-6.429838e-04
6.315390e+01	-6.504324e-04
6.351868e+01	-6.579673e-04
6.388556e+01	-6.655894e-04
6.425456e+01	-6.732998e-04
6.462569e+01	-6.810996e-04
6.499897e+01	-6.889897e-04
6.537440e+01	-6.969712e-04
6.575200e+01	-7.050451e-04
6.613178e+01	-7.132126e-04
6.651375e+01	-7.214747e-04
6.689793e+01	-7.298325e-04
6.728433e+01	-7.382871e-04
6.767297e+01	-7.468396e-04
6.806384e+01	-7.554912e-04
6.845698e+01	-7.642430e-04
6.885238e+01	-7.730961e-04
6.925007e+01	-7.820519e-04
6.965005e+01	-7.911113e-04
7.005235e+01	-8.002757e-04
7.045697e+01	-8.095463e-04
7.086393e+01	-8.189242e-04
7.127323e+01	-8.284108e-04
7.168490e+01	-8.380072e-04
7.209895e+01	-8.477148e-04
7.251539e+01	-8.575348e-04
7.293424e+01	-8.674686e-04
7.335551e+01	-8.775175e-04
7.377920e+01	-8.876827e-04
7.420535e+01	-8.979657e-04
7.463396e+01	-9.083678e-04
7.506504e+01	-9.188904e-04
7.549861e+01	-9.295348e-04
7.593469e+01	-9.403026e-04
7.637328e+01	-9.511950e-04
7.681441e+01	-9.622137e-04
7.725809e+01	-9.733599e-04
7.770433e+01	-9.846353e-04
7.815315e+01	-9.960412e-04
7.860456e+01	-1.007579e-03
7.905857e+01	-1.019251e-03
7.951521e+01	-1.031058e-03
7.997449e+01	-1.043002e-03
8.043642e+01	-1.055084e-03
8.090102e+01	-1.067305e-03
8.136830e+01	-1.079669e-03
8.183828e+01	-1.092176e-03
8.231097e+01	-1.104827e-03
8.278640e+01	-1.117625e-03
8.326457e+01	-1.130572e-03
8.374550e+01	-1.143668e-03
8.422921e+01	-1.156916e-03
8.471572e+01	-1.170317e-03
8.520503e+01	-1.183874e-03
8.569717e+01	-1.197587e-03
8.619215e+01	-1.211460e-03
8.669000e+01	-1.225493e-03
8.719071e+01	-1.239689e-03
8.769432e+01	-1.254049e-03
8.820084e+01	-1.268575e-03
8.871029e+01	-1.283270e-03
8.922267e+01	-1.298134e-03
8.973802e+01	-1.313171e-03
9.025634e+01	-1.328382e-03
9.077766e+01	-1.343770e-03
9.130199e+01	-1.359335e-03
9.182935e+01	-1.375081e-03
9.235975e+01	-1.391009e-03
9.289321e+01	-1.407122e-03
9.342976e+01	-1.423421e-03
9.396941e+01	-1.439909e-03
9.451217e+01	-1.456588e-03
9.505807e+01	-1.473460e-03
9.560712e+01	-1.490528e-03
9.615934e+01	-1.507793e-03
9.671476e+01	-1.525258e-03
9.727338e+01	-1.542925e-03
9.783522e+01	-1.560797e-03
9.840032e+01	-1.578876e-03
9.896867e+01	-1.597164e-03
9.954031e+01	-1.615665e-03
1.001153e+02	-1.634379e-03
1.006935e+02	-1.653310e-03
1.012751e+02	-1.672460e-03
1.018601e+02	-1.691833e-03
1.024484e+02	-1.711429e-03
1.030402e+02	-1.731252e-03
1.036353e+02	-1.751305e-03
1.042339e+02	-1.771591e-03
1.048360e+02	-1.792111e-03
1.054415e+02	-1.812868e-03
1.060505e+02	-1.833867e-03
1.066631e+02	-1.855108e-03
1.072791e+02	-1.876595e-03
1.078988e+02	-1.898331e-03
1.085220e+02	-1.920319e-03
1.091488e+02	-1.942562e-03
1.097793e+02	-1.965062e-03
1.104133e+02	-1.987822e-03
1.110511e+02	-2.010846e-03
1.116925e+02	-2.034137e-03
1.123376e+02	-2.057697e-03
1.129865e+02	-2.081531e-03
1.136391e+02	-2.105640e-03
1.142955e+02	-2.130028e-03
1.149556e+02	-2.154699e-03
1.156196e+02	-2.179656e-03
1.162874e+02	-2.204901e-03
1.169591e+02	-2.230439e-03
1.176347e+02	-2.256272e-03
1.183141e+02	-2.282405e-03
1.189975e+02	-2.308840e-03
1.196848e+02	-2.335582e-03
1.203761e+02	-2.362633e-03
1.210714e+02	-2.389997e-03
1.217707e+02	-2.417678e-03
1.224740e+02	-2.445679e-03
1.231814e+02	-2.474005e-03
1.238929e+02	-2.502659e-03
1.246085e+02	-2.531644e-03
1.253283e+02	-2.560965e-03
1.260522e+02	-2.590626e-03
1.267802e+02	-2.620630e-03
1.275125e+02	-2.650981e-03
1.282490e+02	-2.681684e-03
1.289898e+02	-2.712743e-03
1.297348e+02	-2.744160e-03
1.304842e+02	-2.775942e-03
1.312378e+02	-2.808092e-03
1.319959e+02	-2.840614e-03
1.327583e+02	-2.873512e-03
1.335251e+02	-2.906791e-03
1.342963e+02	-2.940456e-03
1.350720e+02	-2.974510e-03
1.358522e+02	-3.008958e-03
1.366368e+02	-3.043806e-03
1.374260e+02	-3.079057e-03
1.382198e+02	-3.114715e-03
1.390182e+02	-3.150787e-03
1.398211e+02	-3.187276e-03
1.406287e+02	-3.224188e-03
1.414410e+02	-3.261527e-03
1.422579e+02	-3.299298e-03
1.430796e+02	-3.337507e-03
1.439060e+02	-3.376158e-03
1.447372e+02	-3.415256e-03
1.455732e+02	-3.454807e-03
1.464141e+02	-3.494816e-03
1.472597e+02	-3.535288e-03
1.481103e+02	-3.576228e-03
1.489658e+02	-3.617642e-03
1.498262e+02	-3.659536e-03
1.506916e+02	-3.701914e-03
1.515620e+02	-3.744783e-03
1.524374e+02	-3.788149e-03
1.533179e+02	-3.832016e-03
1.542034e+02	-3.876391e-03
1.550941e+02	-3.921280e-03
1.559899e+02	-3.966688e-03
1.568909e+02	-4.012622e-03
1.577971e+02	-4.059087e-03
1.587085e+02	-4.106091e-03
1.596252e+02	-4.153638e-03
1.605472e+02	-4.201736e-03
1.614745e+02	-4.250390e-03
1.624072e+02	-4.299608e-03
1.633453e+02	-4.349395e-03
1.642887e+02	-4.399758e-03
1.652377e+02	-4.450704e-03
1.661921e+02	-4.502240e-03
1.671520e+02	-4.554372e-03
1.681175e+02	-4.607108e-03
1.690885e+02	-4.660453e-03
1.700651e+02	-4.714417e-03
1.710474e+02	-4.769004e-03
1.720354e+02	-4.824224e-03
1.730291e+02	-4.880082e-03
1.740285e+02	-4.936587e-03
1.750337e+02	-4.993746e-03
1.760446e+02	-5.051566e-03
1.770615e+02	-5.110055e-03
1.780842e+02	-5.169221e-03
1.791128e+02	-5.229071e-03
1.801473e+02	-5.289615e-03
1.811878e+02	-5.350858e-03
1.822344e+02	-5.412811e-03
1.832870e+02	-5.475480e-03
1.843456e+02	-5.538874e-03
1.854104e+02	-5.603002e-03
1.864813e+02	-5.667872e-03
1.875584e+02	-5.733492e-03
1.886418e+02	-5.799872e-03
1.897313e+02	-5.867019e-03
1.908272e+02	-5.934943e-03
1.919294e+02	-6.003654e-03
1.930380e+02	-6.073159e-03
1.941530e+02	-6.143468e-03
1.952744e+02	-6.214591e-03
1.964023e+02	-6.286536e-03
1.975367e+02	-6.359314e-03
1.986777e+02	-6.432933e-03
1.998252e+02	-6.507404e-03
2.009794e+02	-6.582737e-03
2.021403e+02	-6.658941e-03
2.033078e+02	-6.736027e-03
2.044821e+02	-6.814004e-03
2.056632e+02	-6.892883e-03
2.068511e+02	-6.972675e-03
2.080459e+02	-7.053389e-03
2.092475e+02	-7.135037e-03
2.104561e+02	-7.217629e-03
2.116717e+02	-7.301177e-03
2.128943e+02	-7.385691e-03
2.141240e+02	-7.471182e-03
2.153608e+02	-7.557662e-03
2.166047e+02	-7.645142e-03
2.178558e+02	-7.733634e-03
2.191141e+02	-7.823149e-03
2.203797e+02	-7.913700e-03
2.216526e+02	-8.005297e-03
2.229329e+02	-8.097954e-03
2.242205e+02	-8.191682e-03
2.255156e+02	-8.286494e-03
2.268182e+02	-8.382402e-03
2.281283e+02	-8.479419e-03
2.294459e+02	-8.577558e-03
2.307712e+02	-8.676832e-03
2.321041e+02	-8.777253e-03
2.334447e+02	-8.878836e-03
2.347931e+02	-8.981593e-03
2.361493e+02	-9.085538e-03
2.375133e+02	-9.190684e-03
2.388851e+02	-9.297046e-03
2.402649e+02	-9.404638e-03
2.416527e+02	-9.513473e-03
2.430484e+02	-9.623567e-03
2.444523e+02	-9.734933e-03
2.458642e+02	-9.847586e-03
2.472843e+02	-9.961542e-03
2.487126e+02	-1.007681e-02
2.501492e+02	-1.019342e-02
2.515940e+02	-1.031137e-02
2.530472e+02	-1.043069e-02
2.545088e+02	-1.055138e-02
2.559789e+02	-1.067347e-02
2.574574e+02	-1.079697e-02
2.589444e+02	-1.092190e-02
2.604401e+02	-1.104827e-02
2.619444e+02	-1.117610e-02
2.634574e+02	-1.130541e-02
2.649791e+02	-1.143622e-02
2.665096e+02	-1.156853e-02
2.680489e+02	-1.170237e-02
2.695972e+02	-1.183776e-02
2.711544e+02	-1.197472e-02
2.727205e+02	-1.211325e-02
2.742958e+02	-1.225339e-02
2.758801e+02	-1.239515e-02
2.774736e+02	-1.253854e-02
2.790762e+02	-1.268359e-02
2.806882e+02	-1.283031e-02
2.823094e+02	-1.297873e-02
2.839400e+02	-1.312887e-02
2.855800e+02	-1.328073e-02
2.872295e+02	-1.343436e-02
2.888886e+02	-1.358975e-02
2.905572e+02	-1.374694e-02
2.922354e+02	-1.390595e-02
2.939234e+02	-1.406679e-02
2.956211e+02	-1.422949e-02
2.973286e+02	-1.439407e-02
2.990459e+02	-1.456055e-02
3.007732e+02	-1.472895e-02
3.025104e+02	-1.489929e-02
3.042577e+02	-1.507160e-02
3.060151e+02	-1.524590e-02
3.077826e+02	-1.542222e-02
3.095604e+02	-1.560057e-02
3.113484e+02	-1.578097e-02
3.131467e+02	-1.596346e-02
3.149554e+02	-1.614806e-02
3.167746e+02	-1.633478e-02
3.186043e+02	-1.652367e-02
3.204445e+02	-1.671473e-02
3.222954e+02	-1.690799e-02
3.241570e+02	-1.710349e-02
3.260293e+02	-1.730124e-02
3.279124e+02	-1.750128e-02
3.298064e+02	-1.770362e-02
3.317114e+02	-1.790829e-02
3.336273e+02	-1.811533e-02
3.355544e+02	-1.832476e-02
3.374925e+02	-1.853660e-02
3.394418e+02	-1.875089e-02
3.414024e+02	-1.896765e-02
3.433744e+02	-1.918690e-02
3.453577e+02	-1.940869e-02
3.473525e+02	-1.963303e-02
3.493588e+02	-1.985997e-02
3.513766e+02	-2.008952e-02
3.534062e+02	-2.032171e-02
3.554474e+02	-2.055658e-02
3.575005e+02	-2.079417e-02
3.595654e+02	-2.103449e-02
3.616422e+02	-2.127758e-02
3.637311e+02	-2.152347e-02
3.658320e+02	-2.177220e-02
3.679450e+02	-2.202379e-02
3.700702e+02	-2.227829e-02
3.722077e+02	-2.253571e-02
3.743576e+02	-2.279611e-02
3.765199e+02	-2.305950e-02
3.786946e+02	-2.332594e-02
3.808820e+02	-2.359544e-02
3.830819e+02	-2.386804e-02
3.852946e+02	-2.414379e-02
3.875200e+02	-2.442271e-02
3.897583e+02	-2.470485e-02
3.920096e+02	-2.499023e-02
3.942738e+02	-2.527890e-02
3.965511e+02	-2.557090e-02
3.988416e+02	-2.586626e-02
4.011452e+02	-2.616502e-02
4.034622e+02	-2.646723e-02
4.057926e+02	-2.677291e-02
4.081365e+02	-2.708211e-02
4.104938e+02	-2.739487e-02
4.128648e+02	-2.771123e-02
4.152495e+02	-2.803123e-02
4.176480e+02	-2.835492e-02
4.200603e+02	-2.868233e-02
4.224866e+02	-2.901351e-02
4.249268e+02	-2.934850e-02
4.273812e+02	-2.968734e-02
4.298497e+02	-3.003008e-02
4.323325e+02	-3.037677e-02
4.348297e+02	-3.072744e-02
4.373412e+02	-3.108215e-02
4.398673e+02	-3.144094e-02
4.424079e+02	-3.180385e-02
4.449633e+02	-3.217094e-02
4.475334e+02	-3.254225e-02
4.501183e+02	-3.291783e-02
4.527182e+02	-3.329772e-02
4.553330e+02	-3.368198e-02
4.579630e+02	-3.407066e-02
4.606082e+02	-3.446381e-02
4.632687e+02	-3.486148e-02
4.659445e+02	-3.526371e-02
4.686358e+02	-3.567057e-02
4.713426e+02	-3.608210e-02
4.740650e+02	-3.649836e-02
4.768032e+02	-3.691940e-02
4.795572e+02	-3.734528e-02
4.823271e+02	-3.777604e-02
4.851130e+02	-3.821176e-02
4.879150e+02	-3.865248e-02
4.907332e+02	-3.909826e-02
4.935676e+02	-3.954915e-02
4.964185e+02	-4.000522e-02
4.992858e+02	-4.046653e-02
5.021696e+02	-4.093313e-02
5.050701e+02	-4.140509e-02
5.079874e+02	-4.188246e-02
5.109215e+02	-4.236530e-02
5.138726e+02	-4.285369e-02
5.168407e+02	-4.334768e-02
5.198259e+02	-4.384733e-02
5.228284e+02	-4.435271e-02
5.258482e+02	-4.486389e-02
5.288855e+02	-4.538093e-02
5.319403e+02	-4.590390e-02
5.350128e+02	-4.643286e-02
5.381030e+02	-4.696788e-02
5.412111e+02	-4.750903e-02
5.443371e+02	-4.805638e-02
5.474812e+02	-4.861001e-02
5.506434e+02	-4.916997e-02
5.538239e+02	-4.973635e-02
5.570228e+02	-5.030922e-02
5.602401e+02	-5.088864e-02
5.634760e+02	-5.147470e-02
5.667306e+02	-5.206747e-02
5.700040e+02	-5.266702e-02
5.732964e+02	-5.327343e-02
5.766077e+02	-5.388679e-02
5.799382e+02	-5.450716e-02
5.832879e+02	-5.513462e-02
5.866569e+02	-5.576926e-02
5.900454e+02	-5.641116e-02
5.934535e+02	-5.706040e-02
5.968813e+02	-5.771706e-02
6.003288e+02	-5.838123e-02
6.037963e+02	-5.905299e-02
6.072838e+02	-5.973242e-02
6.107914e+02	-6.041962e-02
6.143194e+02	-6.111467e-02
6.178676e+02	-6.181765e-02
6.214364e+02	-6.252867e-02
6.250258e+02	-6.324780e-02
6.286359e+02	-6.397514e-02
6.322669e+02	-6.471078e-02
6.359189e+02	-6.545482e-02
6.395919e+02	-6.620735e-02
6.432862e+02	-6.696846e-02
6.470017e+02	-6.773825e-02
6.507388e+02	-6.851682e-02
6.544974e+02	-6.930427e-02
6.582778e+02	-7.010070e-02
6.620800e+02	-7.090620e-02
6.659041e+02	-7.172089e-02
6.697504e+02	-7.254485e-02
6.736188e+02	-7.337820e-02
6.775096e+02	-7.422104e-02
6.814229e+02	-7.507348e-02
6.853587e+02	-7.593562e-02
6.893173e+02	-7.680758e-02
6.932988e+02	-7.768946e-02
6.973033e+02	-7.858137e-02
7.013309e+02	-7.948343e-02
