Frequency(Hz)	Magnitude(dB)
1.000000e+01	-1.701269e-05
1.005776e+01	-1.720979e-05
1.011585e+01	-1.740917e-05
1.017428e+01	-1.761085e-05
1.023305e+01	-1.781488e-05
1.029215e+01	-1.802127e-05
1.035160e+01	-1.823005e-05
1.041139e+01	-1.844125e-05
1.047153e+01	-1.865490e-05
1.053201e+01	-1.887102e-05
1.059284e+01	-1.908965e-05
1.065403e+01	-1.931080e-05
1.071556e+01	-1.953452e-05
1.077746e+01	-1.976084e-05
1.083971e+01	-1.998977e-05
1.090232e+01	-2.022136e-05
1.096529e+01	-2.045563e-05
1.102862e+01	-2.069261e-05
1.109232e+01	-2.093234e-05
1.115639e+01	-2.117485e-05
1.122083e+01	-2.142016e-05
1.128564e+01	-2.166832e-05
1.135083e+01	-2.191935e-05
1.141639e+01	-2.217329e-05
1.148233e+01	-2.243018e-05
1.154865e+01	-2.269004e-05
1.161536e+01	-2.295291e-05
1.168245e+01	-2.321882e-05
1.174992e+01	-2.348782e-05
1.181779e+01	-2.375993e-05
1.188605e+01	-2.403519e-05
1.195470e+01	-2.431365e-05
1.202375e+01	-2.459533e-05
1.209320e+01	-2.488027e-05
1.216305e+01	-2.516851e-05
1.223330e+01	-2.546010e-05
1.230396e+01	-2.575506e-05
1.237503e+01	-2.605344e-05
1.244651e+01	-2.635527e-05
1.251840e+01	-2.666061e-05
1.259070e+01	-2.696948e-05
1.266343e+01	-2.728192e-05
1.273657e+01	-2.759799e-05
1.281014e+01	-2.791772e-05
1.288413e+01	-2.824115e-05
1.295855e+01	-2.856834e-05
1.303339e+01	-2.889931e-05
1.310867e+01	-2.923411e-05
1.318439e+01	-2.957280e-05
1.326054e+01	-2.991540e-05
1.333713e+01	-3.026198e-05
1.341417e+01	-3.061257e-05
1.349165e+01	-3.096723e-05
1.356958e+01	-3.132599e-05
1.364795e+01	-3.168891e-05
1.372678e+01	-3.205603e-05
1.380607e+01	-3.242741e-05
1.388581e+01	-3.280309e-05
1.396602e+01	-3.318312e-05
1.404668e+01	-3.356755e-05
1.412782e+01	-3.395644e-05
1.420942e+01	-3.434984e-05
1.429149e+01	-3.474779e-05
1.437404e+01	-3.515035e-05
1.445706e+01	-3.555757e-05
1.454057e+01	-3.596952e-05
1.462455e+01	-3.638623e-05
1.470902e+01	-3.680777e-05
1.479398e+01	-3.723420e-05
1.487943e+01	-3.766557e-05
1.496537e+01	-3.810193e-05
1.505181e+01	-3.854335e-05
1.513875e+01	-3.898988e-05
1.522619e+01	-3.944159e-05
1.531414e+01	-3.989853e-05
1.540259e+01	-4.036076e-05
1.549156e+01	-4.082835e-05
1.558103e+01	-4.130136e-05
1.567103e+01	-4.177984e-05
1.576155e+01	-4.226387e-05
1.585258e+01	-4.275351e-05
1.594415e+01	-4.324882e-05
1.603624e+01	-4.374986e-05
1.612886e+01	-4.425672e-05
1.622202e+01	-4.476944e-05
1.631572e+01	-4.528810e-05
1.640996e+01	-4.581278e-05
1.650474e+01	-4.634353e-05
1.660008e+01	-4.688043e-05
1.669596e+01	-4.742355e-05
1.679239e+01	-4.797296e-05
1.688938e+01	-4.852874e-05
1.698694e+01	-4.909095e-05
1.708505e+01	-4.965968e-05
1.718373e+01	-5.023500e-05
1.728299e+01	-5.081698e-05
1.738281e+01	-5.140571e-05
1.748322e+01	-5.200125e-05
1.758420e+01	-5.260370e-05
1.768576e+01	-5.321312e-05
1.778792e+01	-5.382961e-05
1.789066e+01	-5.445324e-05
1.799399e+01	-5.508409e-05
1.809793e+01	-5.572225e-05
1.820246e+01	-5.636780e-05
1.830760e+01	-5.702084e-05
1.841334e+01	-5.768143e-05
1.851969e+01	-5.834968e-05
1.862666e+01	-5.902568e-05
1.873425e+01	-5.970950e-05
1.884246e+01	-6.040125e-05
1.895129e+01	-6.110101e-05
1.906075e+01	-6.180888e-05
1.917085e+01	-6.252494e-05
1.928158e+01	-6.324931e-05
1.939295e+01	-6.398206e-05
1.950496e+01	-6.472331e-05
1.961762e+01	-6.547314e-05
1.973093e+01	-6.623166e-05
1.984490e+01	-6.699897e-05
1.995952e+01	-6.777516e-05
2.007480e+01	-6.856035e-05
2.019076e+01	-6.935463e-05
2.030738e+01	-7.015812e-05
2.042467e+01	-7.097091e-05
2.054264e+01	-7.179313e-05
2.066130e+01	-7.262486e-05
2.078064e+01	-7.346623e-05
2.090066e+01	-7.431735e-05
2.102139e+01	-7.517833e-05
2.114280e+01	-7.604929e-05
2.126492e+01	-7.693033e-05
2.138775e+01	-7.782158e-05
2.151128e+01	-7.872316e-05
2.163553e+01	-7.963518e-05
2.176050e+01	-8.055777e-05
2.188619e+01	-8.149105e-05
2.201260e+01	-8.243513e-05
2.213974e+01	-8.339016e-05
2.226762e+01	-8.435625e-05
2.239624e+01	-8.533353e-05
2.252560e+01	-8.632213e-05
2.265571e+01	-8.732219e-05
2.278656e+01	-8.833383e-05
2.291818e+01	-8.935719e-05
2.305055e+01	-9.039241e-05
2.318369e+01	-9.143962e-05
2.331760e+01	-9.249896e-05
2.345228e+01	-9.357057e-05
2.358774e+01	-9.465460e-05
2.372398e+01	-9.575119e-05
2.386101e+01	-9.686048e-05
2.399883e+01	-9.798263e-05
2.413745e+01	-9.911777e-05
2.427686e+01	-1.002661e-04
2.441709e+01	-1.014277e-04
2.455812e+01	-1.026027e-04
2.469997e+01	-1.037914e-04
2.484263e+01	-1.049938e-04
2.498612e+01	-1.062102e-04
2.513044e+01	-1.074406e-04
2.527559e+01	-1.086854e-04
2.542158e+01	-1.099445e-04
2.556842e+01	-1.112182e-04
2.571610e+01	-1.125067e-04
2.586463e+01	-1.138101e-04
2.601403e+01	-1.151286e-04
2.616428e+01	-1.164624e-04
2.631541e+01	-1.178116e-04
2.646740e+01	-1.191765e-04
2.662028e+01	-1.205571e-04
2.677404e+01	-1.219538e-04
2.692868e+01	-1.233667e-04
2.708422e+01	-1.247959e-04
2.724066e+01	-1.262417e-04
2.739800e+01	-1.277042e-04
2.755625e+01	-1.291836e-04
2.771541e+01	-1.306803e-04
2.787550e+01	-1.321942e-04
2.803650e+01	-1.337257e-04
2.819844e+01	-1.352749e-04
2.836131e+01	-1.368421e-04
2.852513e+01	-1.384274e-04
2.868989e+01	-1.400311e-04
2.885560e+01	-1.416534e-04
2.902227e+01	-1.432944e-04
2.918990e+01	-1.449545e-04
2.935850e+01	-1.466338e-04
2.952807e+01	-1.483326e-04
2.969863e+01	-1.500510e-04
2.987016e+01	-1.517894e-04
3.004269e+01	-1.535479e-04
3.021622e+01	-1.553267e-04
3.039075e+01	-1.571262e-04
3.056628e+01	-1.589465e-04
3.074283e+01	-1.607879e-04
3.092040e+01	-1.626507e-04
3.109900e+01	-1.645350e-04
3.127862e+01	-1.664411e-04
3.145929e+01	-1.683694e-04
3.164099e+01	-1.703199e-04
3.182375e+01	-1.722931e-04
3.200756e+01	-1.742891e-04
3.219244e+01	-1.763083e-04
3.237838e+01	-1.783508e-04
3.256540e+01	-1.804170e-04
3.275349e+01	-1.825072e-04
3.294268e+01	-1.846215e-04
3.313295e+01	-1.867604e-04
3.332433e+01	-1.889240e-04
3.351681e+01	-1.911127e-04
3.371040e+01	-1.933267e-04
3.390511e+01	-1.955664e-04
3.410094e+01	-1.978320e-04
3.429791e+01	-2.001239e-04
3.449601e+01	-2.024424e-04
3.469526e+01	-2.047877e-04
3.489566e+01	-2.071601e-04
3.509721e+01	-2.095601e-04
3.529993e+01	-2.119878e-04
3.550382e+01	-2.144437e-04
3.570889e+01	-2.169280e-04
3.591515e+01	-2.194411e-04
3.612259e+01	-2.219834e-04
3.633123e+01	-2.245550e-04
3.654108e+01	-2.271565e-04
3.675214e+01	-2.297881e-04
3.696442e+01	-2.324502e-04
3.717792e+01	-2.351431e-04
3.739266e+01	-2.378672e-04
3.760864e+01	-2.406229e-04
3.782587e+01	-2.434105e-04
3.804435e+01	-2.462304e-04
3.826409e+01	-2.490830e-04
3.848510e+01	-2.519686e-04
3.870739e+01	-2.548876e-04
3.893096e+01	-2.578405e-04
3.915583e+01	-2.608276e-04
3.938199e+01	-2.638492e-04
3.960946e+01	-2.669059e-04
3.983824e+01	-2.699980e-04
4.006834e+01	-2.731259e-04
4.029978e+01	-2.762900e-04
4.053255e+01	-2.794908e-04
4.076666e+01	-2.827287e-04
4.100213e+01	-2.860041e-04
4.123896e+01	-2.893174e-04
4.147715e+01	-2.926691e-04
4.171672e+01	-2.960597e-04
4.195767e+01	-2.994895e-04
4.220002e+01	-3.029590e-04
4.244377e+01	-3.064688e-04
4.268892e+01	-3.100192e-04
4.293549e+01	-3.136107e-04
4.318348e+01	-3.172438e-04
4.343291e+01	-3.209190e-04
4.368377e+01	-3.246368e-04
4.393609e+01	-3.283977e-04
4.418986e+01	-3.322021e-04
4.444510e+01	-3.360507e-04
4.470182e+01	-3.399437e-04
4.496001e+01	-3.438819e-04
4.521970e+01	-3.478657e-04
4.548089e+01	-3.518957e-04
4.574358e+01	-3.559723e-04
4.600779e+01	-3.600962e-04
4.627353e+01	-3.642678e-04
4.654081e+01	-3.684878e-04
4.680963e+01	-3.727567e-04
4.708000e+01	-3.770750e-04
4.735193e+01	-3.814433e-04
4.762543e+01	-3.858622e-04
4.790051e+01	-3.903323e-04
4.817719e+01	-3.948542e-04
4.845545e+01	-3.994285e-04
4.873533e+01	-4.040558e-04
4.901682e+01	-4.087367e-04
4.929994e+01	-4.134718e-04
4.958470e+01	-4.182617e-04
4.987110e+01	-4.231072e-04
5.015915e+01	-4.280087e-04
5.044887e+01	-4.329671e-04
5.074026e+01	-4.379829e-04
5.103333e+01	-4.430568e-04
5.132810e+01	-4.481895e-04
5.162457e+01	-4.533816e-04
5.192275e+01	-4.586339e-04
5.222265e+01	-4.639470e-04
5.252429e+01	-4.693216e-04
5.282767e+01	-4.747586e-04
5.313280e+01	-4.802585e-04
5.343969e+01	-4.858221e-04
5.374836e+01	-4.914501e-04
5.405880e+01	-4.971434e-04
5.437105e+01	-5.029026e-04
5.468509e+01	-5.087285e-04
5.500095e+01	-5.146220e-04
5.531863e+01	-5.205836e-04
5.563815e+01	-5.266144e-04
5.595951e+01	-5.327150e-04
5.628273e+01	-5.388862e-04
5.660782e+01	-5.451290e-04
5.693479e+01	-5.514441e-04
5.726364e+01	-5.578323e-04
5.759439e+01	-5.642945e-04
5.792705e+01	-5.708316e-04
5.826164e+01	-5.774444e-04
5.859815e+01	-5.841338e-04
5.893662e+01	-5.909007e-04
5.927703e+01	-5.977460e-04
5.961941e+01	-6.046705e-04
5.996377e+01	-6.116753e-04
6.031012e+01	-6.187612e-04
6.065847e+01	-6.259292e-04
6.100883e+01	-6.331803e-04
6.136121e+01	-6.405153e-04
6.171563e+01	-6.479353e-04
6.207210e+01	-6.554412e-04
6.243063e+01	-6.630341e-04
6.279122e+01	-6.707150e-04
6.315390e+01	-6.784848e-04
6.351868e+01	-6.863446e-04
6.388556e+01	-6.942954e-04
6.425456e+01	-7.023384e-04
6.462569e+01	-7.104745e-04
6.499897e+01	-7.187049e-04
6.537440e+01	-7.270306e-04
6.575200e+01	-7.354527e-04
6.613178e+01	-7.439724e-04
6.651375e+01	-7.525908e-04
6.689793e+01	-7.613090e-04
6.728433e+01	-7.701282e-04
6.767297e+01	-7.790495e-04
6.806384e+01	-7.880742e-04
6.845698e+01	-7.972034e-04
6.885238e+01	-8.064384e-04
6.925007e+01	-8.157803e-04
6.965005e+01	-8.252304e-04
7.005235e+01	-8.347900e-04
7.045697e+01	-8.444604e-04
7.086393e+01	-8.542427e-04
7.127323e+01	-8.641384e-04
7.168490e+01	-8.741486e-04
7.209895e+01	-8.842749e-04
7.251539e+01	-8.945184e-04
7.293424e+01	-9.048805e-04
7.335551e+01	-9.153627e-04
7.377920e+01	-9.259663e-04
7.420535e+01	-9.366927e-04
7.463396e+01	-9.475434e-04
7.506504e+01	-9.585197e-04
7.549861e+01	-9.696232e-04
7.593469e+01	-9.808553e-04
7.637328e+01	-9.922175e-04
7.681441e+01	-1.003711e-03
7.725809e+01	-1.015338e-03
7.770433e+01	-1.027100e-03
7.815315e+01	-1.038998e-03
7.860456e+01	-1.051033e-03
7.905857e+01	-1.063208e-03
7.951521e+01	-1.075524e-03
7.997449e+01	-1.087983e-03
8.043642e+01	-1.100586e-03
8.090102e+01	-1.113335e-03
8.136830e+01	-1.126231e-03
8.183828e+01	-1.139277e-03
8.231097e+01	-1.152474e-03
8.278640e+01	-1.165824e-03
8.326457e+01	-1.179329e-03
8.374550e+01	-1.192990e-03
8.422921e+01	-1.206809e-03
8.471572e+01	-1.220788e-03
8.520503e+01	-1.234930e-03
8.569717e+01	-1.249234e-03
8.619215e+01	-1.263705e-03
8.669000e+01	-1.278343e-03
8.719071e+01	-1.293151e-03
8.769432e+01	-1.308130e-03
8.820084e+01	-1.323283e-03
8.871029e+01	-1.338611e-03
8.922267e+01	-1.354117e-03
8.973802e+01	-1.369802e-03
9.025634e+01	-1.385669e-03
9.077766e+01	-1.401720e-03
9.130199e+01	-1.417957e-03
9.182935e+01	-1.434381e-03
9.235975e+01	-1.450996e-03
9.289321e+01	-1.467804e-03
9.342976e+01	-1.484806e-03
9.396941e+01	-1.502005e-03
9.451217e+01	-1.519403e-03
9.505807e+01	-1.537002e-03
9.560712e+01	-1.554806e-03
9.615934e+01	-1.572815e-03
9.671476e+01	-1.591033e-03
9.727338e+01	-1.609463e-03
9.783522e+01	-1.628105e-03
9.840032e+01	-1.646964e-03
9.896867e+01	-1.666040e-03
9.954031e+01	-1.685338e-03
1.001153e+02	-1.704859e-03
1.006935e+02	-1.724607e-03
1.012751e+02	-1.744583e-03
1.018601e+02	-1.764790e-03
1.024484e+02	-1.785232e-03
1.030402e+02	-1.805910e-03
1.036353e+02	-1.826827e-03
1.042339e+02	-1.847987e-03
1.048360e+02	-1.869392e-03
1.054415e+02	-1.891044e-03
1.060505e+02	-1.912948e-03
1.066631e+02	-1.935105e-03
1.072791e+02	-1.957519e-03
1.078988e+02	-1.980192e-03
1.085220e+02	-2.003128e-03
1.091488e+02	-2.026329e-03
1.097793e+02	-2.049799e-03
1.104133e+02	-2.073541e-03
1.110511e+02	-2.097557e-03
1.116925e+02	-2.121852e-03
1.123376e+02	-2.146428e-03
1.129865e+02	-2.171289e-03
1.136391e+02	-2.196438e-03
1.142955e+02	-2.221878e-03
1.149556e+02	-2.247612e-03
1.156196e+02	-2.273644e-03
1.162874e+02	-2.299978e-03
1.169591e+02	-2.326617e-03
1.176347e+02	-2.353564e-03
1.183141e+02	-2.380823e-03
1.189975e+02	-2.408398e-03
1.196848e+02	-2.436292e-03
1.203761e+02	-2.464509e-03
1.210714e+02	-2.493053e-03
1.217707e+02	-2.521927e-03
1.224740e+02	-2.551136e-03
1.231814e+02	-2.580683e-03
1.238929e+02	-2.610572e-03
1.246085e+02	-2.640806e-03
1.253283e+02	-2.671392e-03
1.260522e+02	-2.702331e-03
1.267802e+02	-2.733628e-03
1.275125e+02	-2.765288e-03
1.282490e+02	-2.797314e-03
1.289898e+02	-2.829711e-03
1.297348e+02	-2.862483e-03
1.304842e+02	-2.895635e-03
1.312378e+02	-2.929170e-03
1.319959e+02	-2.963094e-03
1.327583e+02	-2.997410e-03
1.335251e+02	-3.032124e-03
1.342963e+02	-3.067239e-03
1.350720e+02	-3.102761e-03
1.358522e+02	-3.138695e-03
1.366368e+02	-3.175044e-03
1.374260e+02	-3.211814e-03
1.382198e+02	-3.249010e-03
1.390182e+02	-3.286636e-03
1.398211e+02	-3.324698e-03
1.406287e+02	-3.363201e-03
1.414410e+02	-3.402149e-03
1.422579e+02	-3.441548e-03
1.430796e+02	-3.481403e-03
1.439060e+02	-3.521720e-03
1.447372e+02	-3.562503e-03
1.455732e+02	-3.603759e-03
1.464141e+02	-3.645492e-03
1.472597e+02	-3.687708e-03
1.481103e+02	-3.730412e-03
1.489658e+02	-3.773611e-03
1.498262e+02	-3.817310e-03
1.506916e+02	-3.861515e-03
1.515620e+02	-3.906232e-03
1.524374e+02	-3.951466e-03
1.533179e+02	-3.997223e-03
1.542034e+02	-4.043511e-03
1.550941e+02	-4.090334e-03
1.559899e+02	-4.137699e-03
1.568909e+02	-4.185612e-03
1.577971e+02	-4.234079e-03
1.587085e+02	-4.283108e-03
1.596252e+02	-4.332704e-03
1.605472e+02	-4.382874e-03
1.614745e+02	-4.433625e-03
1.624072e+02	-4.484963e-03
1.633453e+02	-4.536896e-03
1.642887e+02	-4.589429e-03
1.652377e+02	-4.642570e-03
1.661921e+02	-4.696326e-03
1.671520e+02	-4.750705e-03
1.681175e+02	-4.805712e-03
1.690885e+02	-4.861357e-03
1.700651e+02	-4.917645e-03
1.710474e+02	-4.974584e-03
1.720354e+02	-5.032183e-03
1.730291e+02	-5.090447e-03
1.740285e+02	-5.149387e-03
1.750337e+02	-5.209008e-03
1.760446e+02	-5.269319e-03
1.770615e+02	-5.330328e-03
1.780842e+02	-5.392042e-03
1.791128e+02	-5.454471e-03
1.801473e+02	-5.517623e-03
1.811878e+02	-5.581504e-03
1.822344e+02	-5.646126e-03
1.832870e+02	-5.711494e-03
1.843456e+02	-5.777619e-03
1.854104e+02	-5.844509e-03
1.864813e+02	-5.912173e-03
1.875584e+02	-5.980620e-03
1.886418e+02	-6.049859e-03
1.897313e+02	-6.119898e-03
1.908272e+02	-6.190748e-03
1.919294e+02	-6.262418e-03
1.930380e+02	-6.334917e-03
1.941530e+02	-6.408254e-03
1.952744e+02	-6.482440e-03
1.964023e+02	-6.557484e-03
1.975367e+02	-6.633396e-03
1.986777e+02	-6.710186e-03
1.998252e+02	-6.787864e-03
2.009794e+02	-6.866441e-03
2.021403e+02	-6.945926e-03
2.033078e+02	-7.026332e-03
2.044821e+02	-7.107667e-03
2.056632e+02	-7.189942e-03
2.068511e+02	-7.273170e-03
2.080459e+02	-7.357360e-03
2.092475e+02	-7.442523e-03
2.104561e+02	-7.528672e-03
2.116717e+02	-7.615817e-03
2.128943e+02	-7.703970e-03
2.141240e+02	-7.793142e-03
2.153608e+02	-7.883345e-03
2.166047e+02	-7.974592e-03
2.178558e+02	-8.066893e-03
2.191141e+02	-8.160262e-03
2.203797e+02	-8.254711e-03
2.216526e+02	-8.350252e-03
2.229329e+02	-8.446897e-03
2.242205e+02	-8.544660e-03
2.255156e+02	-8.643553e-03
2.268182e+02	-8.743590e-03
2.281283e+02	-8.844783e-03
2.294459e+02	-8.947147e-03
2.307712e+02	-9.050693e-03
2.321041e+02	-9.155437e-03
2.334447e+02	-9.261392e-03
2.347931e+02	-9.368571e-03
2.361493e+02	-9.476990e-03
2.375133e+02	-9.586662e-03
2.388851e+02	-9.697601e-03
2.402649e+02	-9.809823e-03
2.416527e+02	-9.923342e-03
2.430484e+02	-1.003817e-02
2.444523e+02	-1.015433e-02
2.458642e+02	-1.027183e-02
2.472843e+02	-1.039069e-02
2.487126e+02	-1.051092e-02
2.501492e+02	-1.063255e-02
2.515940e+02	-1.075557e-02
2.530472e+02	-1.088002e-02
2.545088e+02	-1.100591e-02
2.559789e+02	-1.113325e-02
2.574574e+02	-1.126207e-02
2.589444e+02	-1.139237e-02
2.604401e+02	-1.152418e-02
2.619444e+02	-1.165751e-02
2.634574e+02	-1.179238e-02
2.649791e+02	-1.192881e-02
2.665096e+02	-1.206682e-02
2.680489e+02	-1.220642e-02
2.695972e+02	-1.234763e-02
2.711544e+02	-1.249047e-02
2.727205e+02	-1.263497e-02
2.742958e+02	-1.278113e-02
2.758801e+02	-1.292898e-02
2.774736e+02	-1.307854e-02
2.790762e+02	-1.322983e-02
2.806882e+02	-1.338286e-02
2.823094e+02	-1.353766e-02
2.839400e+02	-1.369425e-02
2.855800e+02	-1.385265e-02
2.872295e+02	-1.401288e-02
2.888886e+02	-1.417495e-02
2.905572e+02	-1.433890e-02
2.922354e+02	-1.450474e-02
2.939234e+02	-1.467250e-02
2.956211e+02	-1.484219e-02
2.973286e+02	-1.501385e-02
2.990459e+02	-1.518748e-02
3.007732e+02	-1.536312e-02
3.025104e+02	-1.554078e-02
3.042577e+02	-1.572050e-02
3.060151e+02	-1.590229e-02
3.077826e+02	-1.608618e-02
3.095604e+02	-1.627219e-02
3.113484e+02	-1.646035e-02
3.131467e+02	-1.665068e-02
3.149554e+02	-1.684321e-02
3.167746e+02	-1.703796e-02
3.186043e+02	-1.723496e-02
3.204445e+02	-1.743423e-02
3.222954e+02	-1.763579e-02
3.241570e+02	-1.783969e-02
3.260293e+02	-1.804594e-02
3.279124e+02	-1.825456e-02
3.298064e+02	-1.846559e-02
3.317114e+02	-1.867906e-02
3.336273e+02	-1.889499e-02
3.355544e+02	-1.911341e-02
3.374925e+02	-1.933435e-02
3.394418e+02	-1.955784e-02
3.414024e+02	-1.978390e-02
3.433744e+02	-2.001257e-02
3.453577e+02	-2.024388e-02
3.473525e+02	-2.047786e-02
3.493588e+02	-2.071453e-02
3.513766e+02	-2.095394e-02
3.534062e+02	-2.119610e-02
3.554474e+02	-2.144105e-02
3.575005e+02	-2.168883e-02
3.595654e+02	-2.193946e-02
3.616422e+02	-2.219299e-02
3.637311e+02	-2.244943e-02
3.658320e+02	-2.270883e-02
3.679450e+02	-2.297122e-02
3.700702e+02	-2.323664e-02
3.722077e+02	-2.350511e-02
3.743576e+02	-2.377667e-02
3.765199e+02	-2.405137e-02
3.786946e+02	-2.432922e-02
3.808820e+02	-2.461028e-02
3.830819e+02	-2.489458e-02
3.852946e+02	-2.518215e-02
3.875200e+02	-2.547304e-02
3.897583e+02	-2.576727e-02
3.920096e+02	-2.606489e-02
3.942738e+02	-2.636594e-02
3.965511e+02	-2.667046e-02
3.988416e+02	-2.697848e-02
4.011452e+02	-2.729004e-02
4.034622e+02	-2.760520e-02
4.057926e+02	-2.792398e-02
4.081365e+02	-2.824643e-02
4.104938e+02	-2.857260e-02
4.128648e+02	-2.890251e-02
4.152495e+02	-2.923622e-02
4.176480e+02	-2.957378e-02
4.200603e+02	-2.991521e-02
4.224866e+02	-3.026058e-02
4.249268e+02	-3.060992e-02
4.273812e+02	-3.096327e-02
4.298497e+02	-3.132069e-02
4.323325e+02	-3.168222e-02
4.348297e+02	-3.204791e-02
4.373412e+02	-3.241781e-02
4.398673e+02	-3.279195e-02
4.424079e+02	-3.317040e-02
4.449633e+02	-3.355320e-02
4.475334e+02	-3.394040e-02
4.501183e+02	-3.433205e-02
4.527182e+02	-3.472820e-02
4.553330e+02	-3.512891e-02
4.579630e+02	-3.553422e-02
4.606082e+02	-3.594418e-02
4.632687e+02	-3.635886e-02
4.659445e+02	-3.677830e-02
4.686358e+02	-3.720255e-02
4.713426e+02	-3.763168e-02
4.740650e+02	-3.806574e-02
4.768032e+02	-3.850478e-02
4.795572e+02	-3.894887e-02
4.823271e+02	-3.939805e-02
4.851130e+02	-3.985239e-02
4.879150e+02	-4.031194e-02
4.907332e+02	-4.077677e-02
4.935676e+02	-4.124693e-02
4.964185e+02	-4.172248e-02
4.992858e+02	-4.220350e-02
5.021696e+02	-4.269003e-02
5.050701e+02	-4.318214e-02
5.079874e+02	-4.367989e-02
5.109215e+02	-4.418336e-02
5.138726e+02	-4.469259e-02
5.168407e+02	-4.520767e-02
5.198259e+02	-4.572865e-02
5.228284e+02	-4.625560e-02
5.258482e+02	-4.678859e-02
5.288855e+02	-4.732769e-02
5.319403e+02	-4.787297e-02
5.350128e+02	-4.842449e-02
5.381030e+02	-4.898234e-02
5.412111e+02	-4.954657e-02
5.443371e+02	-5.011726e-02
5.474812e+02	-5.069449e-02
5.506434e+02	-5.127832e-02
5.538239e+02	-5.186885e-02
5.570228e+02	-5.246612e-02
5.602401e+02	-5.307024e-02
5.634760e+02	-5.368127e-02
5.667306e+02	-5.429929e-02
5.700040e+02	-5.492438e-02
5.732964e+02	-5.555661e-02
5.766077e+02	-5.619608e-02
5.799382e+02	-5.684287e-02
5.832879e+02	-5.749704e-02
5.866569e+02	-5.815870e-02
5.900454e+02	-5.882791e-02
5.934535e+02	-5.950478e-02
5.968813e+02	-6.018937e-02
6.003288e+02	-6.088179e-02
6.037963e+02	-6.158212e-02
6.072838e+02	-6.229044e-02
6.107914e+02	-6.300686e-02
6.143194e+02	-6.373145e-02
6.178676e+02	-6.446431e-02
6.214364e+02	-6.520554e-02
6.250258e+02	-6.595522e-02
6.286359e+02	-6.671346e-02
6.322669e+02	-6.748035e-02
6.359189e+02	-6.825598e-02
6.395919e+02	-6.904046e-02
6.432862e+02	-6.983388e-02
6.470017e+02	-7.063634e-02
6.507388e+02	-7.144795e-02
6.544974e+02	-7.226881e-02
6.582778e+02	-7.309902e-02
6.620800e+02	-7.393868e-02
6.659041e+02	-7.478791e-02
6.697504e+02	-7.564680e-02
6.736188e+02	-7.651547e-02
6.775096e+02	-7.739403e-02
6.814229e+02	-7.828258e-02
6.853587e+02	-7.918124e-02
6.893173e+02	-8.009013e-02
6.932988e+02	-8.100934e-02
6.973033e+02	-8.193901e-02
7.013309e+02	-8.287925e-02
