Frequency(Hz)	Magnitude(dB)
1.000000e+01	-2.134933e+00
1.005776e+01	-2.154488e+00
1.011585e+01	-2.174134e+00
1.017428e+01	-2.193847e+00
1.023305e+01	-2.213746e+00
1.029215e+01	-2.233957e+00
1.035160e+01	-2.253900e+00
1.041139e+01	-2.274266e+00
1.047153e+01	-2.294793e+00
1.053201e+01	-2.315521e+00
1.059284e+01	-2.336182e+00
1.065403e+01	-2.357005e+00
1.071556e+01	-2.378140e+00
1.077746e+01	-2.399275e+00
1.083971e+01	-2.420397e+00
1.090232e+01	-2.442083e+00
1.096529e+01	-2.463508e+00
1.102862e+01	-2.485172e+00
1.109232e+01	-2.506791e+00
1.115639e+01	-2.529065e+00
1.122083e+01	-2.551175e+00
1.128564e+01	-2.573674e+00
1.135083e+01	-2.596184e+00
1.141639e+01	-2.618727e+00
1.148233e+01	-2.641346e+00
1.154865e+01	-2.664176e+00
1.161536e+01	-2.687150e+00
1.168245e+01	-2.710254e+00
1.174992e+01	-2.733753e+00
1.181779e+01	-2.757146e+00
1.188605e+01	-2.780684e+00
1.195470e+01	-2.804544e+00
1.202375e+01	-2.828305e+00
1.209320e+01	-2.852284e+00
1.216305e+01	-2.876561e+00
1.223330e+01	-2.900705e+00
1.230396e+01	-2.925288e+00
1.237503e+01	-2.949815e+00
1.244651e+01	-2.974592e+00
1.251840e+01	-2.999442e+00
1.259070e+01	-3.024334e+00
1.266343e+01	-3.049494e+00
1.273657e+01	-3.074785e+00
1.281014e+01	-3.100336e+00
1.288413e+01	-3.125896e+00
1.295855e+01	-3.151492e+00
1.303339e+01	-3.177439e+00
1.310867e+01	-3.203471e+00
1.318439e+01	-3.229984e+00
1.326054e+01	-3.256098e+00
1.333713e+01	-3.282472e+00
1.341417e+01	-3.309211e+00
1.349165e+01	-3.336276e+00
1.356958e+01	-3.362729e+00
1.364795e+01	-3.389820e+00
1.372678e+01	-3.417279e+00
1.380607e+01	-3.444453e+00
1.388581e+01	-3.471543e+00
1.396602e+01	-3.499409e+00
1.404668e+01	-3.527202e+00
1.412782e+01	-3.555091e+00
1.420942e+01	-3.582991e+00
1.429149e+01	-3.611139e+00
1.437404e+01	-3.639590e+00
1.445706e+01	-3.667875e+00
1.454057e+01	-3.696490e+00
1.462455e+01	-3.725393e+00
1.470902e+01	-3.754467e+00
1.479398e+01	-3.783284e+00
1.487943e+01	-3.812351e+00
1.496537e+01	-3.841533e+00
1.505181e+01	-3.871309e+00
1.513875e+01	-3.900676e+00
1.522619e+01	-3.930299e+00
1.531414e+01	-3.960443e+00
1.540259e+01	-3.990282e+00
1.549156e+01	-4.020416e+00
1.558103e+01	-4.050590e+00
1.567103e+01	-4.081146e+00
1.576155e+01	-4.111572e+00
1.585258e+01	-4.142261e+00
1.594415e+01	-4.173146e+00
1.603624e+01	-4.204298e+00
1.612886e+01	-4.235293e+00
1.622202e+01	-4.266446e+00
1.631572e+01	-4.297742e+00
1.640996e+01	-4.329251e+00
1.650474e+01	-4.360711e+00
1.660008e+01	-4.392750e+00
1.669596e+01	-4.424879e+00
1.679239e+01	-4.456629e+00
1.688938e+01	-4.488889e+00
1.698694e+01	-4.521292e+00
1.708505e+01	-4.553834e+00
1.718373e+01	-4.586008e+00
1.728299e+01	-4.618969e+00
1.738281e+01	-4.651403e+00
1.748322e+01	-4.684652e+00
1.758420e+01	-4.717452e+00
1.768576e+01	-4.750644e+00
1.778792e+01	-4.784061e+00
1.789066e+01	-4.817978e+00
1.799399e+01	-4.851254e+00
1.809793e+01	-4.885126e+00
1.820246e+01	-4.918620e+00
1.830760e+01	-4.952876e+00
1.841334e+01	-4.986786e+00
1.851969e+01	-5.021068e+00
1.862666e+01	-5.055390e+00
1.873425e+01	-5.090138e+00
1.884246e+01	-5.124574e+00
1.895129e+01	-5.159152e+00
1.906075e+01	-5.193711e+00
1.917085e+01	-5.229053e+00
1.928158e+01	-5.263887e+00
1.939295e+01	-5.299170e+00
1.950496e+01	-5.334538e+00
1.961762e+01	-5.369986e+00
1.973093e+01	-5.405567e+00
1.984490e+01	-5.441121e+00
1.995952e+01	-5.476947e+00
2.007480e+01	-5.512819e+00
2.019076e+01	-5.549036e+00
2.030738e+01	-5.585123e+00
2.042467e+01	-5.621396e+00
2.054264e+01	-5.657865e+00
2.066130e+01	-5.694302e+00
2.078064e+01	-5.731002e+00
2.090066e+01	-5.767493e+00
2.102139e+01	-5.804411e+00
2.114280e+01	-5.841150e+00
2.126492e+01	-5.878422e+00
2.138775e+01	-5.915632e+00
2.151128e+01	-5.952810e+00
2.163553e+01	-5.990461e+00
2.176050e+01	-6.028106e+00
2.188619e+01	-6.065472e+00
2.201260e+01	-6.102989e+00
2.213974e+01	-6.140948e+00
2.226762e+01	-6.178766e+00
2.239624e+01	-6.216531e+00
2.252560e+01	-6.254957e+00
2.265571e+01	-6.293053e+00
2.278656e+01	-6.331418e+00
2.291818e+01	-6.369574e+00
2.305055e+01	-6.408322e+00
2.318369e+01	-6.446885e+00
2.331760e+01	-6.485669e+00
2.345228e+01	-6.524678e+00
2.358774e+01	-6.563289e+00
2.372398e+01	-6.602228e+00
2.386101e+01	-6.641559e+00
2.399883e+01	-6.680686e+00
2.413745e+01	-6.720728e+00
2.427686e+01	-6.759384e+00
2.441709e+01	-6.799419e+00
2.455812e+01	-6.839030e+00
2.469997e+01	-6.878512e+00
2.484263e+01	-6.918413e+00
2.498612e+01	-6.958119e+00
2.513044e+01	-6.997984e+00
2.527559e+01	-7.038706e+00
2.542158e+01	-7.078617e+00
2.556842e+01	-7.118841e+00
2.571610e+01	-7.159363e+00
2.586463e+01	-7.200119e+00
2.601403e+01	-7.240219e+00
2.616428e+01	-7.280738e+00
2.631541e+01	-7.321638e+00
2.646740e+01	-7.361999e+00
2.662028e+01	-7.403200e+00
2.677404e+01	-7.443987e+00
2.692868e+01	-7.485120e+00
2.708422e+01	-7.526609e+00
2.724066e+01	-7.567605e+00
2.739800e+01	-7.608679e+00
2.755625e+01	-7.650579e+00
2.771541e+01	-7.691834e+00
2.787550e+01	-7.733513e+00
2.803650e+01	-7.775022e+00
2.819844e+01	-7.816827e+00
2.836131e+01	-7.858530e+00
2.852513e+01	-7.900066e+00
2.868989e+01	-7.942396e+00
2.885560e+01	-7.984456e+00
2.902227e+01	-8.026536e+00
2.918990e+01	-8.068715e+00
2.935850e+01	-8.110674e+00
2.952807e+01	-8.153203e+00
2.969863e+01	-8.195905e+00
2.987016e+01	-8.237671e+00
3.004269e+01	-8.280835e+00
3.021622e+01	-8.323341e+00
3.039075e+01	-8.366099e+00
3.056628e+01	-8.408764e+00
3.074283e+01	-8.452060e+00
3.092040e+01	-8.494157e+00
3.109900e+01	-8.537136e+00
3.127862e+01	-8.580670e+00
3.145929e+01	-8.623314e+00
3.164099e+01	-8.666665e+00
3.182375e+01	-8.710421e+00
3.200756e+01	-8.753446e+00
3.219244e+01	-8.796600e+00
3.237838e+01	-8.840177e+00
3.256540e+01	-8.884148e+00
3.275349e+01	-8.927412e+00
3.294268e+01	-8.970880e+00
3.313295e+01	-9.014693e+00
3.332433e+01	-9.058585e+00
3.351681e+01	-9.102521e+00
3.371040e+01	-9.145952e+00
3.390511e+01	-9.190357e+00
3.410094e+01	-9.234014e+00
3.429791e+01	-9.278216e+00
3.449601e+01	-9.322984e+00
3.469526e+01	-9.366916e+00
3.489566e+01	-9.411102e+00
3.509721e+01	-9.455058e+00
3.529993e+01	-9.500041e+00
3.550382e+01	-9.544076e+00
3.570889e+01	-9.588975e+00
3.591515e+01	-9.633092e+00
3.612259e+01	-9.677554e+00
3.633123e+01	-9.722560e+00
3.654108e+01	-9.766804e+00
3.675214e+01	-9.811958e+00
3.696442e+01	-9.856292e+00
3.717792e+01	-9.901439e+00
3.739266e+01	-9.946511e+00
3.760864e+01	-9.991647e+00
3.782587e+01	-1.003642e+01
3.804435e+01	-1.008165e+01
3.826409e+01	-1.012704e+01
3.848510e+01	-1.017129e+01
3.870739e+01	-1.021742e+01
3.893096e+01	-1.026291e+01
3.915583e+01	-1.030840e+01
3.938199e+01	-1.035335e+01
3.960946e+01	-1.039909e+01
3.983824e+01	-1.044456e+01
4.006834e+01	-1.049023e+01
4.029978e+01	-1.053572e+01
4.053255e+01	-1.058084e+01
4.076666e+01	-1.062701e+01
4.100213e+01	-1.067255e+01
4.123896e+01	-1.071784e+01
4.147715e+01	-1.076447e+01
4.171672e+01	-1.080942e+01
4.195767e+01	-1.085558e+01
4.220002e+01	-1.090147e+01
4.244377e+01	-1.094776e+01
4.268892e+01	-1.099364e+01
4.293549e+01	-1.103980e+01
4.318348e+01	-1.108593e+01
4.343291e+01	-1.113202e+01
4.368377e+01	-1.117818e+01
4.393609e+01	-1.122368e+01
4.418986e+01	-1.127104e+01
4.444510e+01	-1.131678e+01
4.470182e+01	-1.136266e+01
4.496001e+01	-1.140946e+01
4.521970e+01	-1.145625e+01
4.548089e+01	-1.150273e+01
4.574358e+01	-1.154942e+01
4.600779e+01	-1.159505e+01
4.627353e+01	-1.164195e+01
4.654081e+01	-1.168869e+01
4.680963e+01	-1.173572e+01
4.708000e+01	-1.178225e+01
4.735193e+01	-1.182881e+01
4.762543e+01	-1.187635e+01
4.790051e+01	-1.192204e+01
4.817719e+01	-1.196936e+01
4.845545e+01	-1.201656e+01
4.873533e+01	-1.206315e+01
4.901682e+01	-1.210980e+01
4.929994e+01	-1.215699e+01
4.958470e+01	-1.220327e+01
4.987110e+01	-1.225127e+01
5.015915e+01	-1.229854e+01
5.044887e+01	-1.234513e+01
5.074026e+01	-1.239250e+01
5.103333e+01	-1.243986e+01
5.132810e+01	-1.248717e+01
5.162457e+01	-1.253479e+01
5.192275e+01	-1.258148e+01
5.222265e+01	-1.262803e+01
5.252429e+01	-1.267620e+01
5.282767e+01	-1.272298e+01
5.313280e+01	-1.276983e+01
5.343969e+01	-1.281824e+01
5.374836e+01	-1.286497e+01
5.405880e+01	-1.291265e+01
5.437105e+01	-1.296009e+01
5.468509e+01	-1.300747e+01
5.500095e+01	-1.305511e+01
5.531863e+01	-1.310238e+01
5.563815e+01	-1.315025e+01
5.595951e+01	-1.319867e+01
5.628273e+01	-1.324560e+01
5.660782e+01	-1.329316e+01
5.693479e+01	-1.334139e+01
5.726364e+01	-1.338825e+01
5.759439e+01	-1.343654e+01
5.792705e+01	-1.348444e+01
5.826164e+01	-1.353226e+01
5.859815e+01	-1.357956e+01
5.893662e+01	-1.362845e+01
5.927703e+01	-1.367527e+01
5.961941e+01	-1.372371e+01
5.996377e+01	-1.377119e+01
6.031012e+01	-1.382003e+01
6.065847e+01	-1.386645e+01
6.100883e+01	-1.391489e+01
6.136121e+01	-1.396390e+01
6.171563e+01	-1.401121e+01
6.207210e+01	-1.405912e+01
6.243063e+01	-1.410748e+01
6.279122e+01	-1.415522e+01
6.315390e+01	-1.420350e+01
6.351868e+01	-1.425202e+01
6.388556e+01	-1.429992e+01
6.425456e+01	-1.434855e+01
6.462569e+01	-1.439656e+01
6.499897e+01	-1.444517e+01
6.537440e+01	-1.449299e+01
6.575200e+01	-1.454107e+01
6.613178e+01	-1.459057e+01
6.651375e+01	-1.463822e+01
6.689793e+01	-1.468629e+01
6.728433e+01	-1.473386e+01
6.767297e+01	-1.478263e+01
6.806384e+01	-1.483114e+01
6.845698e+01	-1.487982e+01
6.885238e+01	-1.492843e+01
6.925007e+01	-1.497708e+01
6.965005e+01	-1.502468e+01
7.005235e+01	-1.507333e+01
7.045697e+01	-1.512129e+01
7.086393e+01	-1.516995e+01
7.127323e+01	-1.521914e+01
7.168490e+01	-1.526792e+01
7.209895e+01	-1.531657e+01
7.251539e+01	-1.536450e+01
7.293424e+01	-1.541242e+01
7.335551e+01	-1.546174e+01
7.377920e+01	-1.551033e+01
7.420535e+01	-1.555789e+01
7.463396e+01	-1.560744e+01
7.506504e+01	-1.565557e+01
7.549861e+01	-1.570467e+01
7.593469e+01	-1.575378e+01
7.637328e+01	-1.580287e+01
7.681441e+01	-1.585107e+01
7.725809e+01	-1.589874e+01
7.770433e+01	-1.594883e+01
7.815315e+01	-1.599767e+01
7.860456e+01	-1.604629e+01
7.905857e+01	-1.609372e+01
7.951521e+01	-1.614394e+01
7.997449e+01	-1.619187e+01
8.043642e+01	-1.624095e+01
8.090102e+01	-1.629075e+01
8.136830e+01	-1.633934e+01
8.183828e+01	-1.638751e+01
8.231097e+01	-1.643700e+01
8.278640e+01	-1.648676e+01
8.326457e+01	-1.653475e+01
8.374550e+01	-1.658361e+01
8.422921e+01	-1.663300e+01
8.471572e+01	-1.668135e+01
8.520503e+01	-1.673026e+01
8.569717e+01	-1.677928e+01
8.619215e+01	-1.682788e+01
8.669000e+01	-1.687747e+01
8.719071e+01	-1.692629e+01
8.769432e+01	-1.697587e+01
8.820084e+01	-1.702419e+01
8.871029e+01	-1.707269e+01
8.922267e+01	-1.712179e+01
8.973802e+01	-1.717178e+01
9.025634e+01	-1.722126e+01
9.077766e+01	-1.726933e+01
9.130199e+01	-1.731795e+01
9.182935e+01	-1.736852e+01
9.235975e+01	-1.741660e+01
9.289321e+01	-1.746611e+01
9.342976e+01	-1.751574e+01
9.396941e+01	-1.756437e+01
9.451217e+01	-1.761292e+01
9.505807e+01	-1.766264e+01
9.560712e+01	-1.771170e+01
9.615934e+01	-1.776108e+01
9.671476e+01	-1.781097e+01
9.727338e+01	-1.785810e+01
9.783522e+01	-1.790752e+01
9.840032e+01	-1.795845e+01
9.896867e+01	-1.800678e+01
9.954031e+01	-1.805656e+01
1.001153e+02	-1.810523e+01
1.006935e+02	-1.815518e+01
1.012751e+02	-1.820423e+01
1.018601e+02	-1.825376e+01
1.024484e+02	-1.830293e+01
1.030402e+02	-1.835073e+01
1.036353e+02	-1.840160e+01
1.042339e+02	-1.845188e+01
1.048360e+02	-1.849955e+01
1.054415e+02	-1.854804e+01
1.060505e+02	-1.859925e+01
1.066631e+02	-1.864803e+01
1.072791e+02	-1.869700e+01
1.078988e+02	-1.874721e+01
1.085220e+02	-1.879698e+01
1.091488e+02	-1.884473e+01
1.097793e+02	-1.889481e+01
1.104133e+02	-1.894399e+01
1.110511e+02	-1.899228e+01
1.116925e+02	-1.904315e+01
1.123376e+02	-1.909413e+01
1.129865e+02	-1.914262e+01
1.136391e+02	-1.919104e+01
1.142955e+02	-1.923988e+01
1.149556e+02	-1.929010e+01
1.156196e+02	-1.934012e+01
1.162874e+02	-1.939093e+01
1.169591e+02	-1.943784e+01
1.176347e+02	-1.948886e+01
1.183141e+02	-1.953783e+01
1.189975e+02	-1.958572e+01
1.196848e+02	-1.963536e+01
1.203761e+02	-1.968519e+01
1.210714e+02	-1.973592e+01
1.217707e+02	-1.978593e+01
1.224740e+02	-1.983478e+01
1.231814e+02	-1.988627e+01
1.238929e+02	-1.993297e+01
1.246085e+02	-1.998212e+01
1.253283e+02	-2.003248e+01
1.260522e+02	-2.008239e+01
1.267802e+02	-2.013283e+01
1.275125e+02	-2.018186e+01
1.282490e+02	-2.023278e+01
1.289898e+02	-2.028006e+01
1.297348e+02	-2.033110e+01
1.304842e+02	-2.038056e+01
1.312378e+02	-2.042830e+01
1.319959e+02	-2.048026e+01
1.327583e+02	-2.052988e+01
1.335251e+02	-2.057797e+01
1.342963e+02	-2.062792e+01
1.350720e+02	-2.067466e+01
1.358522e+02	-2.072561e+01
1.366368e+02	-2.077726e+01
1.374260e+02	-2.082695e+01
1.382198e+02	-2.087538e+01
1.390182e+02	-2.092392e+01
1.398211e+02	-2.097688e+01
1.406287e+02	-2.102560e+01
1.414410e+02	-2.107518e+01
1.422579e+02	-2.112359e+01
1.430796e+02	-2.117302e+01
1.439060e+02	-2.122323e+01
1.447372e+02	-2.127082e+01
1.455732e+02	-2.132176e+01
1.464141e+02	-2.137219e+01
1.472597e+02	-2.142264e+01
1.481103e+02	-2.147147e+01
1.489658e+02	-2.152040e+01
1.498262e+02	-2.157267e+01
1.506916e+02	-2.162104e+01
1.515620e+02	-2.167070e+01
1.524374e+02	-2.171990e+01
1.533179e+02	-2.177042e+01
1.542034e+02	-2.181888e+01
1.550941e+02	-2.186923e+01
1.559899e+02	-2.192022e+01
1.568909e+02	-2.197044e+01
1.577971e+02	-2.201782e+01
1.587085e+02	-2.206864e+01
1.596252e+02	-2.211972e+01
1.605472e+02	-2.216843e+01
1.614745e+02	-2.221756e+01
1.624072e+02	-2.226787e+01
1.633453e+02	-2.231745e+01
1.642887e+02	-2.236639e+01
1.652377e+02	-2.241659e+01
1.661921e+02	-2.246730e+01
1.671520e+02	-2.251740e+01
1.681175e+02	-2.256413e+01
1.690885e+02	-2.261588e+01
1.700651e+02	-2.266629e+01
1.710474e+02	-2.271371e+01
1.720354e+02	-2.276575e+01
1.730291e+02	-2.281481e+01
1.740285e+02	-2.286495e+01
1.750337e+02	-2.291377e+01
1.760446e+02	-2.296197e+01
1.770615e+02	-2.301471e+01
1.780842e+02	-2.306412e+01
1.791128e+02	-2.311433e+01
1.801473e+02	-2.316336e+01
1.811878e+02	-2.321219e+01
1.822344e+02	-2.326514e+01
1.832870e+02	-2.331186e+01
1.843456e+02	-2.336320e+01
1.854104e+02	-2.341236e+01
1.864813e+02	-2.346341e+01
1.875584e+02	-2.351113e+01
1.886418e+02	-2.355964e+01
1.897313e+02	-2.361317e+01
1.908272e+02	-2.366062e+01
1.919294e+02	-2.371212e+01
1.930380e+02	-2.375982e+01
1.941530e+02	-2.380971e+01
1.952744e+02	-2.386109e+01
1.964023e+02	-2.391107e+01
1.975367e+02	-2.396049e+01
1.986777e+02	-2.400698e+01
1.998252e+02	-2.405995e+01
2.009794e+02	-2.411000e+01
2.021403e+02	-2.416138e+01
2.033078e+02	-2.421022e+01
2.044821e+02	-2.425850e+01
2.056632e+02	-2.430931e+01
2.068511e+02	-2.435837e+01
2.080459e+02	-2.441068e+01
2.092475e+02	-2.446110e+01
2.104561e+02	-2.450917e+01
2.116717e+02	-2.456115e+01
2.128943e+02	-2.460791e+01
2.141240e+02	-2.465919e+01
2.153608e+02	-2.470911e+01
2.166047e+02	-2.475899e+01
2.178558e+02	-2.480967e+01
2.191141e+02	-2.485703e+01
2.203797e+02	-2.490781e+01
2.216526e+02	-2.495790e+01
2.229329e+02	-2.500734e+01
2.242205e+02	-2.505734e+01
2.255156e+02	-2.510795e+01
2.268182e+02	-2.515696e+01
2.281283e+02	-2.521086e+01
2.294459e+02	-2.525512e+01
2.307712e+02	-2.530844e+01
2.321041e+02	-2.535595e+01
2.334447e+02	-2.541186e+01
2.347931e+02	-2.545951e+01
2.361493e+02	-2.550669e+01
2.375133e+02	-2.555813e+01
2.388851e+02	-2.560632e+01
2.402649e+02	-2.565608e+01
2.416527e+02	-2.570856e+01
2.430484e+02	-2.575679e+01
2.444523e+02	-2.580891e+01
2.458642e+02	-2.585735e+01
2.472843e+02	-2.590530e+01
2.487126e+02	-2.595581e+01
2.501492e+02	-2.600717e+01
2.515940e+02	-2.605670e+01
2.530472e+02	-2.610463e+01
2.545088e+02	-2.615714e+01
2.559789e+02	-2.620747e+01
2.574574e+02	-2.625479e+01
2.589444e+02	-2.630482e+01
2.604401e+02	-2.635274e+01
2.619444e+02	-2.640645e+01
2.634574e+02	-2.645648e+01
2.649791e+02	-2.650649e+01
2.665096e+02	-2.655604e+01
2.680489e+02	-2.660633e+01
2.695972e+02	-2.665694e+01
2.711544e+02	-2.670685e+01
2.727205e+02	-2.675388e+01
2.742958e+02	-2.680734e+01
2.758801e+02	-2.685386e+01
2.774736e+02	-2.690745e+01
2.790762e+02	-2.695546e+01
2.806882e+02	-2.700348e+01
2.823094e+02	-2.705468e+01
2.839400e+02	-2.710774e+01
2.855800e+02	-2.715381e+01
2.872295e+02	-2.720626e+01
2.888886e+02	-2.725882e+01
2.905572e+02	-2.731049e+01
2.922354e+02	-2.735485e+01
2.939234e+02	-2.740353e+01
2.956211e+02	-2.745296e+01
2.973286e+02	-2.750738e+01
2.990459e+02	-2.755406e+01
3.007732e+02	-2.760626e+01
3.025104e+02	-2.765658e+01
3.042577e+02	-2.770806e+01
3.060151e+02	-2.775702e+01
3.077826e+02	-2.781150e+01
3.095604e+02	-2.785763e+01
3.113484e+02	-2.790661e+01
3.131467e+02	-2.795513e+01
3.149554e+02	-2.800530e+01
3.167746e+02	-2.805503e+01
3.186043e+02	-2.811031e+01
3.204445e+02	-2.815480e+01
3.222954e+02	-2.820848e+01
3.241570e+02	-2.825972e+01
3.260293e+02	-2.831211e+01
3.279124e+02	-2.835603e+01
3.298064e+02	-2.840339e+01
3.317114e+02	-2.845569e+01
3.336273e+02	-2.850529e+01
3.355544e+02	-2.855535e+01
3.374925e+02	-2.860249e+01
3.394418e+02	-2.865722e+01
3.414024e+02	-2.870531e+01
3.433744e+02	-2.875671e+01
3.453577e+02	-2.880730e+01
3.473525e+02	-2.885571e+01
3.493588e+02	-2.890990e+01
3.513766e+02	-2.895918e+01
3.534062e+02	-2.901019e+01
3.554474e+02	-2.905829e+01
3.575005e+02	-2.911009e+01
3.595654e+02	-2.915927e+01
3.616422e+02	-2.920930e+01
3.637311e+02	-2.925672e+01
3.658320e+02	-2.930627e+01
3.679450e+02	-2.935763e+01
3.700702e+02	-2.941431e+01
3.722077e+02	-2.945716e+01
3.743576e+02	-2.950967e+01
3.765199e+02	-2.956067e+01
3.786946e+02	-2.961125e+01
3.808820e+02	-2.966055e+01
3.830819e+02	-2.970913e+01
3.852946e+02	-2.976155e+01
3.875200e+02	-2.980879e+01
3.897583e+02	-2.986204e+01
3.920096e+02	-2.990995e+01
3.942738e+02	-2.995447e+01
3.965511e+02	-3.001403e+01
3.988416e+02	-3.005956e+01
4.011452e+02	-3.010930e+01
4.034622e+02	-3.016377e+01
4.057926e+02	-3.021120e+01
4.081365e+02	-3.026065e+01
4.104938e+02	-3.031045e+01
4.128648e+02	-3.036286e+01
4.152495e+02	-3.041507e+01
4.176480e+02	-3.046078e+01
4.200603e+02	-3.050663e+01
4.224866e+02	-3.055764e+01
4.249268e+02	-3.061092e+01
4.273812e+02	-3.066001e+01
4.298497e+02	-3.070470e+01
4.323325e+02	-3.075854e+01
4.348297e+02	-3.080587e+01
4.373412e+02	-3.086426e+01
4.398673e+02	-3.091238e+01
4.424079e+02	-3.095832e+01
4.449633e+02	-3.101377e+01
4.475334e+02	-3.106321e+01
4.501183e+02	-3.111406e+01
4.527182e+02	-3.115401e+01
4.553330e+02	-3.121419e+01
4.579630e+02	-3.125742e+01
4.606082e+02	-3.131554e+01
4.632687e+02	-3.136430e+01
4.659445e+02	-3.140737e+01
4.686358e+02	-3.146518e+01
4.713426e+02	-3.151566e+01
4.740650e+02	-3.156603e+01
4.768032e+02	-3.161708e+01
4.795572e+02	-3.166403e+01
4.823271e+02	-3.171252e+01
4.851130e+02	-3.176205e+01
4.879150e+02	-3.181122e+01
4.907332e+02	-3.186813e+01
4.935676e+02	-3.192119e+01
4.964185e+02	-3.196604e+01
4.992858e+02	-3.202037e+01
5.021696e+02	-3.206410e+01
5.050701e+02	-3.211786e+01
5.079874e+02	-3.216244e+01
5.109215e+02	-3.221384e+01
5.138726e+02	-3.226672e+01
5.168407e+02	-3.232025e+01
5.198259e+02	-3.236651e+01
5.228284e+02	-3.242038e+01
5.258482e+02	-3.246589e+01
5.288855e+02	-3.251755e+01
5.319403e+02	-3.256419e+01
5.350128e+02	-3.262197e+01
5.381030e+02	-3.266870e+01
5.412111e+02	-3.271314e+01
5.443371e+02	-3.276636e+01
5.474812e+02	-3.281560e+01
5.506434e+02	-3.286968e+01
5.538239e+02	-3.291407e+01
5.570228e+02	-3.297032e+01
5.602401e+02	-3.301151e+01
5.634760e+02	-3.307054e+01
5.667306e+02	-3.311736e+01
5.700040e+02	-3.316879e+01
5.732964e+02	-3.321844e+01
5.766077e+02	-3.327344e+01
5.799382e+02	-3.332989e+01
5.832879e+02	-3.337283e+01
5.866569e+02	-3.342726e+01
5.900454e+02	-3.346804e+01
5.934535e+02	-3.352320e+01
5.968813e+02	-3.357365e+01
6.003288e+02	-3.362388e+01
6.037963e+02	-3.367451e+01
6.072838e+02	-3.373088e+01
6.107914e+02	-3.377182e+01
6.143194e+02	-3.382511e+01
6.178676e+02	-3.387621e+01
6.214364e+02	-3.392355e+01
6.250258e+02	-3.397626e+01
6.286359e+02	-3.402155e+01
6.322669e+02	-3.407219e+01
6.359189e+02	-3.412802e+01
6.395919e+02	-3.417002e+01
6.432862e+02	-3.423025e+01
6.470017e+02	-3.427418e+01
6.507388e+02	-3.433083e+01
6.544974e+02	-3.437698e+01
6.582778e+02	-3.442124e+01
6.620800e+02	-3.447750e+01
6.659041e+02	-3.451951e+01
6.697504e+02	-3.458120e+01
6.736188e+02	-3.463211e+01
6.775096e+02	-3.467896e+01
6.814229e+02	-3.473029e+01
6.853587e+02	-3.478241e+01
6.893173e+02	-3.483698e+01
6.932988e+02	-3.488799e+01
6.973033e+02	-3.493304e+01
7.013309e+02	-3.498243e+01
