Frequency(Hz)	Magnitude(dB)
1.000000e+01	-2.135230e+00
1.005776e+01	-2.154670e+00
1.011585e+01	-2.174323e+00
1.017428e+01	-2.194156e+00
1.023305e+01	-2.214172e+00
1.029215e+01	-2.234064e+00
1.035160e+01	-2.254285e+00
1.041139e+01	-2.274458e+00
1.047153e+01	-2.295054e+00
1.053201e+01	-2.315448e+00
1.059284e+01	-2.336352e+00
1.065403e+01	-2.357260e+00
1.071556e+01	-2.378350e+00
1.077746e+01	-2.399389e+00
1.083971e+01	-2.420562e+00
1.090232e+01	-2.442039e+00
1.096529e+01	-2.463869e+00
1.102862e+01	-2.485383e+00
1.109232e+01	-2.507401e+00
1.115639e+01	-2.529531e+00
1.122083e+01	-2.551459e+00
1.128564e+01	-2.573722e+00
1.135083e+01	-2.596323e+00
1.141639e+01	-2.618843e+00
1.148233e+01	-2.641617e+00
1.154865e+01	-2.664374e+00
1.161536e+01	-2.687371e+00
1.168245e+01	-2.710453e+00
1.174992e+01	-2.733930e+00
1.181779e+01	-2.757274e+00
1.188605e+01	-2.780861e+00
1.195470e+01	-2.804589e+00
1.202375e+01	-2.828478e+00
1.209320e+01	-2.852490e+00
1.216305e+01	-2.876658e+00
1.223330e+01	-2.900879e+00
1.230396e+01	-2.925404e+00
1.237503e+01	-2.950190e+00
1.244651e+01	-2.974910e+00
1.251840e+01	-2.999692e+00
1.259070e+01	-3.024651e+00
1.266343e+01	-3.049797e+00
1.273657e+01	-3.074967e+00
1.281014e+01	-3.100743e+00
1.288413e+01	-3.126256e+00
1.295855e+01	-3.152022e+00
1.303339e+01	-3.178126e+00
1.310867e+01	-3.203800e+00
1.318439e+01	-3.230190e+00
1.326054e+01	-3.256303e+00
1.333713e+01	-3.282742e+00
1.341417e+01	-3.309328e+00
1.349165e+01	-3.335872e+00
1.356958e+01	-3.362973e+00
1.364795e+01	-3.390088e+00
1.372678e+01	-3.417414e+00
1.380607e+01	-3.444374e+00
1.388581e+01	-3.472128e+00
1.396602e+01	-3.499746e+00
1.404668e+01	-3.527417e+00
1.412782e+01	-3.555387e+00
1.420942e+01	-3.583338e+00
1.429149e+01	-3.611545e+00
1.437404e+01	-3.639901e+00
1.445706e+01	-3.668264e+00
1.454057e+01	-3.696991e+00
1.462455e+01	-3.725744e+00
1.470902e+01	-3.754511e+00
1.479398e+01	-3.783563e+00
1.487943e+01	-3.812502e+00
1.496537e+01	-3.841926e+00
1.505181e+01	-3.871655e+00
1.513875e+01	-3.901210e+00
1.522619e+01	-3.930873e+00
1.531414e+01	-3.960784e+00
1.540259e+01	-3.990642e+00
1.549156e+01	-4.020482e+00
1.558103e+01	-4.051059e+00
1.567103e+01	-4.081123e+00
1.576155e+01	-4.112000e+00
1.585258e+01	-4.142837e+00
1.594415e+01	-4.173629e+00
1.603624e+01	-4.204354e+00
1.612886e+01	-4.235605e+00
1.622202e+01	-4.267010e+00
1.631572e+01	-4.298363e+00
1.640996e+01	-4.329660e+00
1.650474e+01	-4.361069e+00
1.660008e+01	-4.393033e+00
1.669596e+01	-4.425111e+00
1.679239e+01	-4.456749e+00
1.688938e+01	-4.488884e+00
1.698694e+01	-4.521661e+00
1.708505e+01	-4.553824e+00
1.718373e+01	-4.586548e+00
1.728299e+01	-4.619006e+00
1.738281e+01	-4.651894e+00
1.748322e+01	-4.684799e+00
1.758420e+01	-4.718094e+00
1.768576e+01	-4.751323e+00
1.778792e+01	-4.784455e+00
1.789066e+01	-4.818167e+00
1.799399e+01	-4.851602e+00
1.809793e+01	-4.885295e+00
1.820246e+01	-4.919174e+00
1.830760e+01	-4.953030e+00
1.841334e+01	-4.986978e+00
1.851969e+01	-5.021208e+00
1.862666e+01	-5.055671e+00
1.873425e+01	-5.090415e+00
1.884246e+01	-5.124755e+00
1.895129e+01	-5.159509e+00
1.906075e+01	-5.194231e+00
1.917085e+01	-5.229190e+00
1.928158e+01	-5.264271e+00
1.939295e+01	-5.299793e+00
1.950496e+01	-5.334997e+00
1.961762e+01	-5.370519e+00
1.973093e+01	-5.405956e+00
1.984490e+01	-5.441703e+00
1.995952e+01	-5.477368e+00
2.007480e+01	-5.513355e+00
2.019076e+01	-5.549337e+00
2.030738e+01	-5.585522e+00
2.042467e+01	-5.621743e+00
2.054264e+01	-5.658172e+00
2.066130e+01	-5.694590e+00
2.078064e+01	-5.731324e+00
2.090066e+01	-5.767644e+00
2.102139e+01	-5.804498e+00
2.114280e+01	-5.841648e+00
2.126492e+01	-5.878812e+00
2.138775e+01	-5.915680e+00
2.151128e+01	-5.953231e+00
2.163553e+01	-5.990591e+00
2.176050e+01	-6.027972e+00
2.188619e+01	-6.065661e+00
2.201260e+01	-6.103683e+00
2.213974e+01	-6.141435e+00
2.226762e+01	-6.178973e+00
2.239624e+01	-6.216896e+00
2.252560e+01	-6.255053e+00
2.265571e+01	-6.293443e+00
2.278656e+01	-6.331865e+00
2.291818e+01	-6.370224e+00
2.305055e+01	-6.408600e+00
2.318369e+01	-6.447714e+00
2.331760e+01	-6.485944e+00
2.345228e+01	-6.524964e+00
2.358774e+01	-6.563876e+00
2.372398e+01	-6.603277e+00
2.386101e+01	-6.642040e+00
2.399883e+01	-6.681239e+00
2.413745e+01	-6.720831e+00
2.427686e+01	-6.759937e+00
2.441709e+01	-6.799834e+00
2.455812e+01	-6.838503e+00
2.469997e+01	-6.878907e+00
2.484263e+01	-6.919002e+00
2.498612e+01	-6.959032e+00
2.513044e+01	-6.998584e+00
2.527559e+01	-7.038616e+00
2.542158e+01	-7.079123e+00
2.556842e+01	-7.119021e+00
2.571610e+01	-7.159583e+00
2.586463e+01	-7.200304e+00
2.601403e+01	-7.240473e+00
2.616428e+01	-7.280978e+00
2.631541e+01	-7.321438e+00
2.646740e+01	-7.362488e+00
2.662028e+01	-7.403832e+00
2.677404e+01	-7.444335e+00
2.692868e+01	-7.485436e+00
2.708422e+01	-7.526408e+00
2.724066e+01	-7.568133e+00
2.739800e+01	-7.609166e+00
2.755625e+01	-7.650154e+00
2.771541e+01	-7.692344e+00
2.787550e+01	-7.734010e+00
2.803650e+01	-7.775041e+00
2.819844e+01	-7.816989e+00
2.836131e+01	-7.858785e+00
2.852513e+01	-7.900676e+00
2.868989e+01	-7.942615e+00
2.885560e+01	-7.984881e+00
2.902227e+01	-8.027024e+00
2.918990e+01	-8.068790e+00
2.935850e+01	-8.110927e+00
2.952807e+01	-8.153466e+00
2.969863e+01	-8.195783e+00
2.987016e+01	-8.238551e+00
3.004269e+01	-8.281314e+00
3.021622e+01	-8.323431e+00
3.039075e+01	-8.366550e+00
3.056628e+01	-8.409044e+00
3.074283e+01	-8.451755e+00
3.092040e+01	-8.494934e+00
3.109900e+01	-8.537477e+00
3.127862e+01	-8.580905e+00
3.145929e+01	-8.624118e+00
3.164099e+01	-8.667402e+00
3.182375e+01	-8.710980e+00
3.200756e+01	-8.753743e+00
3.219244e+01	-8.797009e+00
3.237838e+01	-8.840574e+00
3.256540e+01	-8.883710e+00
3.275349e+01	-8.927980e+00
3.294268e+01	-8.971699e+00
3.313295e+01	-9.015051e+00
3.332433e+01	-9.058666e+00
3.351681e+01	-9.102333e+00
3.371040e+01	-9.146432e+00
3.390511e+01	-9.190013e+00
3.410094e+01	-9.234444e+00
3.429791e+01	-9.278991e+00
3.449601e+01	-9.322903e+00
3.469526e+01	-9.366897e+00
3.489566e+01	-9.411402e+00
3.509721e+01	-9.455658e+00
3.529993e+01	-9.499929e+00
3.550382e+01	-9.543930e+00
3.570889e+01	-9.589090e+00
3.591515e+01	-9.633824e+00
3.612259e+01	-9.678354e+00
3.633123e+01	-9.722614e+00
3.654108e+01	-9.767839e+00
3.675214e+01	-9.812203e+00
3.696442e+01	-9.857572e+00
3.717792e+01	-9.901516e+00
3.739266e+01	-9.947202e+00
3.760864e+01	-9.991855e+00
3.782587e+01	-1.003690e+01
3.804435e+01	-1.008231e+01
3.826409e+01	-1.012712e+01
3.848510e+01	-1.017323e+01
3.870739e+01	-1.021750e+01
3.893096e+01	-1.026266e+01
3.915583e+01	-1.030868e+01
3.938199e+01	-1.035342e+01
3.960946e+01	-1.039908e+01
3.983824e+01	-1.044509e+01
4.006834e+01	-1.048992e+01
4.029978e+01	-1.053575e+01
4.053255e+01	-1.058113e+01
4.076666e+01	-1.062703e+01
4.100213e+01	-1.067277e+01
4.123896e+01	-1.071926e+01
4.147715e+01	-1.076460e+01
4.171672e+01	-1.080979e+01
4.195767e+01	-1.085570e+01
4.220002e+01	-1.090148e+01
4.244377e+01	-1.094798e+01
4.268892e+01	-1.099493e+01
4.293549e+01	-1.103998e+01
4.318348e+01	-1.108617e+01
4.343291e+01	-1.113254e+01
4.368377e+01	-1.117769e+01
4.393609e+01	-1.122424e+01
4.418986e+01	-1.127103e+01
4.444510e+01	-1.131738e+01
4.470182e+01	-1.136360e+01
4.496001e+01	-1.141023e+01
4.521970e+01	-1.145612e+01
4.548089e+01	-1.150319e+01
4.574358e+01	-1.154955e+01
4.600779e+01	-1.159658e+01
4.627353e+01	-1.164378e+01
4.654081e+01	-1.168933e+01
4.680963e+01	-1.173589e+01
4.708000e+01	-1.178310e+01
4.735193e+01	-1.182931e+01
4.762543e+01	-1.187607e+01
4.790051e+01	-1.192290e+01
4.817719e+01	-1.196959e+01
4.845545e+01	-1.201717e+01
4.873533e+01	-1.206381e+01
4.901682e+01	-1.211040e+01
4.929994e+01	-1.215729e+01
4.958470e+01	-1.220490e+01
4.987110e+01	-1.225128e+01
5.015915e+01	-1.229834e+01
5.044887e+01	-1.234554e+01
5.074026e+01	-1.239285e+01
5.103333e+01	-1.244028e+01
5.132810e+01	-1.248772e+01
5.162457e+01	-1.253500e+01
5.192275e+01	-1.258140e+01
5.222265e+01	-1.262849e+01
5.252429e+01	-1.267612e+01
5.282767e+01	-1.272406e+01
5.313280e+01	-1.277109e+01
5.343969e+01	-1.281836e+01
5.374836e+01	-1.286543e+01
5.405880e+01	-1.291272e+01
5.437105e+01	-1.296040e+01
5.468509e+01	-1.300845e+01
5.500095e+01	-1.305500e+01
5.531863e+01	-1.310356e+01
5.563815e+01	-1.315061e+01
5.595951e+01	-1.319893e+01
5.628273e+01	-1.324606e+01
5.660782e+01	-1.329383e+01
5.693479e+01	-1.334166e+01
5.726364e+01	-1.338959e+01
5.759439e+01	-1.343626e+01
5.792705e+01	-1.348472e+01
5.826164e+01	-1.353228e+01
5.859815e+01	-1.357987e+01
5.893662e+01	-1.362861e+01
5.927703e+01	-1.367599e+01
5.961941e+01	-1.372327e+01
5.996377e+01	-1.377294e+01
6.031012e+01	-1.381920e+01
6.065847e+01	-1.386753e+01
6.100883e+01	-1.391537e+01
6.136121e+01	-1.396408e+01
6.171563e+01	-1.401216e+01
6.207210e+01	-1.405938e+01
6.243063e+01	-1.410841e+01
6.279122e+01	-1.415559e+01
6.315390e+01	-1.420378e+01
6.351868e+01	-1.425207e+01
6.388556e+01	-1.429970e+01
6.425456e+01	-1.434856e+01
6.462569e+01	-1.439716e+01
6.499897e+01	-1.444466e+01
6.537440e+01	-1.449276e+01
6.575200e+01	-1.454073e+01
6.613178e+01	-1.458984e+01
6.651375e+01	-1.463775e+01
6.689793e+01	-1.468654e+01
6.728433e+01	-1.473443e+01
6.767297e+01	-1.478298e+01
6.806384e+01	-1.483151e+01
6.845698e+01	-1.488013e+01
6.885238e+01	-1.492822e+01
6.925007e+01	-1.497691e+01
6.965005e+01	-1.502498e+01
7.005235e+01	-1.507381e+01
7.045697e+01	-1.512206e+01
7.086393e+01	-1.517083e+01
7.127323e+01	-1.521980e+01
7.168490e+01	-1.526792e+01
7.209895e+01	-1.531533e+01
7.251539e+01	-1.536554e+01
7.293424e+01	-1.541350e+01
7.335551e+01	-1.546124e+01
7.377920e+01	-1.551017e+01
7.420535e+01	-1.555875e+01
7.463396e+01	-1.560807e+01
7.506504e+01	-1.565629e+01
7.549861e+01	-1.570510e+01
7.593469e+01	-1.575369e+01
7.637328e+01	-1.580297e+01
7.681441e+01	-1.585138e+01
7.725809e+01	-1.590039e+01
7.770433e+01	-1.594935e+01
7.815315e+01	-1.599750e+01
7.860456e+01	-1.604633e+01
7.905857e+01	-1.609606e+01
7.951521e+01	-1.614459e+01
7.997449e+01	-1.619264e+01
8.043642e+01	-1.624205e+01
8.090102e+01	-1.629028e+01
8.136830e+01	-1.633943e+01
8.183828e+01	-1.638803e+01
8.231097e+01	-1.643665e+01
8.278640e+01	-1.648561e+01
8.326457e+01	-1.653478e+01
8.374550e+01	-1.658395e+01
8.422921e+01	-1.663277e+01
8.471572e+01	-1.668214e+01
8.520503e+01	-1.673008e+01
8.569717e+01	-1.678091e+01
8.619215e+01	-1.682819e+01
8.669000e+01	-1.687756e+01
8.719071e+01	-1.692720e+01
8.769432e+01	-1.697574e+01
8.820084e+01	-1.702482e+01
8.871029e+01	-1.707354e+01
8.922267e+01	-1.712193e+01
8.973802e+01	-1.717149e+01
9.025634e+01	-1.722195e+01
9.077766e+01	-1.727026e+01
9.130199e+01	-1.731923e+01
9.182935e+01	-1.736830e+01
9.235975e+01	-1.741797e+01
9.289321e+01	-1.746699e+01
9.342976e+01	-1.751649e+01
9.396941e+01	-1.756578e+01
9.451217e+01	-1.761308e+01
9.505807e+01	-1.766347e+01
9.560712e+01	-1.771453e+01
9.615934e+01	-1.776177e+01
9.671476e+01	-1.781044e+01
9.727338e+01	-1.786069e+01
9.783522e+01	-1.790835e+01
9.840032e+01	-1.795870e+01
9.896867e+01	-1.800803e+01
9.954031e+01	-1.805670e+01
1.001153e+02	-1.810591e+01
1.006935e+02	-1.815560e+01
1.012751e+02	-1.820459e+01
1.018601e+02	-1.825301e+01
1.024484e+02	-1.830420e+01
1.030402e+02	-1.835286e+01
1.036353e+02	-1.840199e+01
1.042339e+02	-1.845069e+01
1.048360e+02	-1.850122e+01
1.054415e+02	-1.854871e+01
1.060505e+02	-1.859913e+01
1.066631e+02	-1.864886e+01
1.072791e+02	-1.869759e+01
1.078988e+02	-1.874771e+01
1.085220e+02	-1.879561e+01
1.091488e+02	-1.884519e+01
1.097793e+02	-1.889673e+01
1.104133e+02	-1.894310e+01
1.110511e+02	-1.899295e+01
1.116925e+02	-1.904262e+01
1.123376e+02	-1.909350e+01
1.129865e+02	-1.914257e+01
1.136391e+02	-1.919179e+01
1.142955e+02	-1.924289e+01
1.149556e+02	-1.929033e+01
1.156196e+02	-1.934008e+01
1.162874e+02	-1.939089e+01
1.169591e+02	-1.943957e+01
1.176347e+02	-1.948701e+01
1.183141e+02	-1.953827e+01
1.189975e+02	-1.958749e+01
1.196848e+02	-1.963836e+01
1.203761e+02	-1.968633e+01
1.210714e+02	-1.973718e+01
1.217707e+02	-1.978506e+01
1.224740e+02	-1.983673e+01
1.231814e+02	-1.988347e+01
1.238929e+02	-1.993493e+01
1.246085e+02	-1.998459e+01
1.253283e+02	-2.003320e+01
1.260522e+02	-2.008311e+01
1.267802e+02	-2.013275e+01
1.275125e+02	-2.018158e+01
1.282490e+02	-2.023029e+01
1.289898e+02	-2.028075e+01
1.297348e+02	-2.033006e+01
1.304842e+02	-2.038024e+01
1.312378e+02	-2.043160e+01
1.319959e+02	-2.047991e+01
1.327583e+02	-2.052922e+01
1.335251e+02	-2.057806e+01
1.342963e+02	-2.062677e+01
1.350720e+02	-2.067777e+01
1.358522e+02	-2.072869e+01
1.366368e+02	-2.077600e+01
1.374260e+02	-2.082577e+01
1.382198e+02	-2.087628e+01
1.390182e+02	-2.092608e+01
1.398211e+02	-2.097454e+01
1.406287e+02	-2.102634e+01
1.414410e+02	-2.107448e+01
1.422579e+02	-2.112427e+01
1.430796e+02	-2.117456e+01
1.439060e+02	-2.122377e+01
1.447372e+02	-2.127393e+01
1.455732e+02	-2.132518e+01
1.464141e+02	-2.136969e+01
1.472597e+02	-2.142013e+01
1.481103e+02	-2.147192e+01
1.489658e+02	-2.152118e+01
1.498262e+02	-2.157161e+01
1.506916e+02	-2.162122e+01
1.515620e+02	-2.167139e+01
1.524374e+02	-2.172103e+01
1.533179e+02	-2.177093e+01
1.542034e+02	-2.181829e+01
1.550941e+02	-2.187094e+01
1.559899e+02	-2.191953e+01
1.568909e+02	-2.196986e+01
1.577971e+02	-2.201953e+01
1.587085e+02	-2.206854e+01
1.596252e+02	-2.211784e+01
1.605472e+02	-2.216848e+01
1.614745e+02	-2.221838e+01
1.624072e+02	-2.226808e+01
1.633453e+02	-2.231792e+01
1.642887e+02	-2.236767e+01
1.652377e+02	-2.241801e+01
1.661921e+02	-2.246694e+01
1.671520e+02	-2.251714e+01
1.681175e+02	-2.256603e+01
1.690885e+02	-2.261329e+01
1.700651e+02	-2.266618e+01
1.710474e+02	-2.271524e+01
1.720354e+02	-2.276574e+01
1.730291e+02	-2.281506e+01
1.740285e+02	-2.286469e+01
1.750337e+02	-2.291578e+01
1.760446e+02	-2.296322e+01
1.770615e+02	-2.301408e+01
1.780842e+02	-2.306629e+01
1.791128e+02	-2.311268e+01
1.801473e+02	-2.316398e+01
1.811878e+02	-2.321482e+01
1.822344e+02	-2.326456e+01
1.832870e+02	-2.331453e+01
1.843456e+02	-2.336195e+01
1.854104e+02	-2.341474e+01
1.864813e+02	-2.346328e+01
1.875584e+02	-2.351385e+01
1.886418e+02	-2.356167e+01
1.897313e+02	-2.361224e+01
1.908272e+02	-2.366153e+01
1.919294e+02	-2.371062e+01
1.930380e+02	-2.376259e+01
1.941530e+02	-2.380905e+01
1.952744e+02	-2.386336e+01
1.964023e+02	-2.391073e+01
1.975367e+02	-2.395993e+01
1.986777e+02	-2.400952e+01
1.998252e+02	-2.406113e+01
2.009794e+02	-2.411267e+01
2.021403e+02	-2.416096e+01
2.033078e+02	-2.420815e+01
2.044821e+02	-2.426079e+01
2.056632e+02	-2.431342e+01
2.068511e+02	-2.435884e+01
2.080459e+02	-2.440916e+01
2.092475e+02	-2.446141e+01
2.104561e+02	-2.451007e+01
2.116717e+02	-2.455786e+01
2.128943e+02	-2.460822e+01
2.141240e+02	-2.466094e+01
2.153608e+02	-2.470719e+01
2.166047e+02	-2.476029e+01
2.178558e+02	-2.480749e+01
2.191141e+02	-2.485801e+01
2.203797e+02	-2.490936e+01
2.216526e+02	-2.495737e+01
2.229329e+02	-2.500839e+01
2.242205e+02	-2.505805e+01
2.255156e+02	-2.510672e+01
2.268182e+02	-2.515812e+01
2.281283e+02	-2.520598e+01
2.294459e+02	-2.526024e+01
2.307712e+02	-2.530961e+01
2.321041e+02	-2.535806e+01
2.334447e+02	-2.540756e+01
2.347931e+02	-2.546005e+01
2.361493e+02	-2.550629e+01
2.375133e+02	-2.555725e+01
2.388851e+02	-2.560905e+01
2.402649e+02	-2.565643e+01
2.416527e+02	-2.570789e+01
2.430484e+02	-2.575813e+01
2.444523e+02	-2.580703e+01
2.458642e+02	-2.585743e+01
2.472843e+02	-2.590906e+01
2.487126e+02	-2.595769e+01
2.501492e+02	-2.600747e+01
2.515940e+02	-2.605760e+01
2.530472e+02	-2.610648e+01
2.545088e+02	-2.615537e+01
2.559789e+02	-2.620614e+01
2.574574e+02	-2.625613e+01
2.589444e+02	-2.630647e+01
2.604401e+02	-2.635584e+01
2.619444e+02	-2.640763e+01
2.634574e+02	-2.645945e+01
2.649791e+02	-2.650604e+01
2.665096e+02	-2.655519e+01
2.680489e+02	-2.660601e+01
2.695972e+02	-2.665323e+01
2.711544e+02	-2.670782e+01
2.727205e+02	-2.675905e+01
2.742958e+02	-2.680906e+01
2.758801e+02	-2.685333e+01
2.774736e+02	-2.690826e+01
2.790762e+02	-2.695800e+01
2.806882e+02	-2.700441e+01
2.823094e+02	-2.705657e+01
2.839400e+02	-2.710903e+01
2.855800e+02	-2.715612e+01
2.872295e+02	-2.720583e+01
2.888886e+02	-2.725754e+01
2.905572e+02	-2.731053e+01
2.922354e+02	-2.735859e+01
2.939234e+02	-2.740655e+01
2.956211e+02	-2.745589e+01
2.973286e+02	-2.750664e+01
2.990459e+02	-2.755359e+01
3.007732e+02	-2.760506e+01
3.025104e+02	-2.765475e+01
3.042577e+02	-2.770537e+01
3.060151e+02	-2.775874e+01
3.077826e+02	-2.780124e+01
3.095604e+02	-2.785414e+01
3.113484e+02	-2.790516e+01
3.131467e+02	-2.795689e+01
3.149554e+02	-2.800562e+01
3.167746e+02	-2.805844e+01
3.186043e+02	-2.810772e+01
3.204445e+02	-2.815558e+01
3.222954e+02	-2.820472e+01
3.241570e+02	-2.826264e+01
3.260293e+02	-2.830650e+01
3.279124e+02	-2.835741e+01
3.298064e+02	-2.840865e+01
3.317114e+02	-2.845638e+01
3.336273e+02	-2.850866e+01
3.355544e+02	-2.855969e+01
3.374925e+02	-2.860664e+01
3.394418e+02	-2.865676e+01
3.414024e+02	-2.870015e+01
3.433744e+02	-2.875846e+01
3.453577e+02	-2.881271e+01
3.473525e+02	-2.885823e+01
3.493588e+02	-2.890935e+01
3.513766e+02	-2.895721e+01
3.534062e+02	-2.900745e+01
3.554474e+02	-2.905866e+01
3.575005e+02	-2.910828e+01
3.595654e+02	-2.915822e+01
3.616422e+02	-2.920898e+01
3.637311e+02	-2.925757e+01
3.658320e+02	-2.930860e+01
3.679450e+02	-2.936012e+01
3.700702e+02	-2.941249e+01
3.722077e+02	-2.945935e+01
3.743576e+02	-2.950736e+01
3.765199e+02	-2.955907e+01
3.786946e+02	-2.960642e+01
3.808820e+02	-2.966247e+01
3.830819e+02	-2.970937e+01
3.852946e+02	-2.975670e+01
3.875200e+02	-2.981031e+01
3.897583e+02	-2.985411e+01
3.920096e+02	-2.990814e+01
3.942738e+02	-2.996106e+01
3.965511e+02	-3.001223e+01
3.988416e+02	-3.005570e+01
4.011452e+02	-3.011436e+01
4.034622e+02	-3.016170e+01
4.057926e+02	-3.021351e+01
4.081365e+02	-3.025812e+01
4.104938e+02	-3.031248e+01
4.128648e+02	-3.036009e+01
4.152495e+02	-3.041349e+01
4.176480e+02	-3.046271e+01
4.200603e+02	-3.050797e+01
4.224866e+02	-3.056398e+01
4.249268e+02	-3.061088e+01
4.273812e+02	-3.066491e+01
4.298497e+02	-3.071190e+01
4.323325e+02	-3.076126e+01
4.348297e+02	-3.081406e+01
4.373412e+02	-3.085964e+01
4.398673e+02	-3.090631e+01
4.424079e+02	-3.096123e+01
4.449633e+02	-3.100803e+01
4.475334e+02	-3.106586e+01
4.501183e+02	-3.110915e+01
4.527182e+02	-3.116150e+01
4.553330e+02	-3.120827e+01
4.579630e+02	-3.126623e+01
4.606082e+02	-3.131433e+01
4.632687e+02	-3.136576e+01
4.659445e+02	-3.141990e+01
4.686358e+02	-3.146713e+01
4.713426e+02	-3.151584e+01
4.740650e+02	-3.156103e+01
4.768032e+02	-3.161055e+01
4.795572e+02	-3.166619e+01
4.823271e+02	-3.171625e+01
4.851130e+02	-3.176574e+01
4.879150e+02	-3.181664e+01
4.907332e+02	-3.186673e+01
4.935676e+02	-3.191888e+01
4.964185e+02	-3.197132e+01
4.992858e+02	-3.201748e+01
5.021696e+02	-3.206728e+01
5.050701e+02	-3.211763e+01
5.079874e+02	-3.216786e+01
5.109215e+02	-3.221887e+01
5.138726e+02	-3.226419e+01
5.168407e+02	-3.231675e+01
5.198259e+02	-3.236375e+01
5.228284e+02	-3.241846e+01
5.258482e+02	-3.246890e+01
5.288855e+02	-3.251434e+01
5.319403e+02	-3.257327e+01
5.350128e+02	-3.261317e+01
5.381030e+02	-3.266817e+01
5.412111e+02	-3.271853e+01
5.443371e+02	-3.276474e+01
5.474812e+02	-3.282786e+01
5.506434e+02	-3.287240e+01
5.538239e+02	-3.292855e+01
5.570228e+02	-3.297195e+01
5.602401e+02	-3.301111e+01
5.634760e+02	-3.307286e+01
5.667306e+02	-3.311361e+01
5.700040e+02	-3.317231e+01
5.732964e+02	-3.321812e+01
5.766077e+02	-3.326608e+01
5.799382e+02	-3.332274e+01
5.832879e+02	-3.337292e+01
5.866569e+02	-3.341467e+01
5.900454e+02	-3.347881e+01
5.934535e+02	-3.353254e+01
5.968813e+02	-3.357056e+01
6.003288e+02	-3.362356e+01
6.037963e+02	-3.366860e+01
6.072838e+02	-3.372556e+01
6.107914e+02	-3.377595e+01
6.143194e+02	-3.382127e+01
6.178676e+02	-3.387450e+01
6.214364e+02	-3.392157e+01
6.250258e+02	-3.398011e+01
6.286359e+02	-3.402579e+01
6.322669e+02	-3.407444e+01
6.359189e+02	-3.413333e+01
6.395919e+02	-3.416965e+01
6.432862e+02	-3.423113e+01
6.470017e+02	-3.427745e+01
6.507388e+02	-3.432875e+01
6.544974e+02	-3.437621e+01
6.582778e+02	-3.442955e+01
6.620800e+02	-3.448764e+01
6.659041e+02	-3.452625e+01
6.697504e+02	-3.458114e+01
6.736188e+02	-3.462731e+01
6.775096e+02	-3.468805e+01
6.814229e+02	-3.473348e+01
6.853587e+02	-3.477888e+01
6.893173e+02	-3.482572e+01
6.932988e+02	-3.487777e+01
6.973033e+02	-3.493147e+01
7.013309e+02	-3.498832e+01
