Frequency(Hz)	Magnitude(dB)
1.000000e+01	-2.148337e+00
1.005776e+01	-2.168021e+00
1.011585e+01	-2.187607e+00
1.017428e+01	-2.207340e+00
1.023305e+01	-2.227517e+00
1.029215e+01	-2.247554e+00
1.035160e+01	-2.267850e+00
1.041139e+01	-2.288495e+00
1.047153e+01	-2.308821e+00
1.053201e+01	-2.329495e+00
1.059284e+01	-2.350468e+00
1.065403e+01	-2.371240e+00
1.071556e+01	-2.392570e+00
1.077746e+01	-2.413693e+00
1.083971e+01	-2.435387e+00
1.090232e+01	-2.456827e+00
1.096529e+01	-2.478572e+00
1.102862e+01	-2.500211e+00
1.109232e+01	-2.522228e+00
1.115639e+01	-2.544327e+00
1.122083e+01	-2.566563e+00
1.128564e+01	-2.589116e+00
1.135083e+01	-2.611670e+00
1.141639e+01	-2.634044e+00
1.148233e+01	-2.656968e+00
1.154865e+01	-2.679875e+00
1.161536e+01	-2.702915e+00
1.168245e+01	-2.726187e+00
1.174992e+01	-2.749825e+00
1.181779e+01	-2.773297e+00
1.188605e+01	-2.797067e+00
1.195470e+01	-2.820550e+00
1.202375e+01	-2.844715e+00
1.209320e+01	-2.868965e+00
1.216305e+01	-2.893039e+00
1.223330e+01	-2.917441e+00
1.230396e+01	-2.942054e+00
1.237503e+01	-2.966796e+00
1.244651e+01	-2.991596e+00
1.251840e+01	-3.016488e+00
1.259070e+01	-3.041584e+00
1.266343e+01	-3.066929e+00
1.273657e+01	-3.092290e+00
1.281014e+01	-3.117709e+00
1.288413e+01	-3.143495e+00
1.295855e+01	-3.169501e+00
1.303339e+01	-3.195343e+00
1.310867e+01	-3.221678e+00
1.318439e+01	-3.247899e+00
1.326054e+01	-3.274319e+00
1.333713e+01	-3.300689e+00
1.341417e+01	-3.327359e+00
1.349165e+01	-3.354350e+00
1.356958e+01	-3.381498e+00
1.364795e+01	-3.408480e+00
1.372678e+01	-3.435687e+00
1.380607e+01	-3.463267e+00
1.388581e+01	-3.490595e+00
1.396602e+01	-3.518344e+00
1.404668e+01	-3.546394e+00
1.412782e+01	-3.574391e+00
1.420942e+01	-3.602303e+00
1.429149e+01	-3.630605e+00
1.437404e+01	-3.658745e+00
1.445706e+01	-3.687549e+00
1.454057e+01	-3.716262e+00
1.462455e+01	-3.745304e+00
1.470902e+01	-3.773790e+00
1.479398e+01	-3.803179e+00
1.487943e+01	-3.832607e+00
1.496537e+01	-3.861919e+00
1.505181e+01	-3.891286e+00
1.513875e+01	-3.920723e+00
1.522619e+01	-3.950750e+00
1.531414e+01	-3.980831e+00
1.540259e+01	-4.010905e+00
1.549156e+01	-4.041286e+00
1.558103e+01	-4.071356e+00
1.567103e+01	-4.102156e+00
1.576155e+01	-4.132820e+00
1.585258e+01	-4.163449e+00
1.594415e+01	-4.194239e+00
1.603624e+01	-4.225380e+00
1.612886e+01	-4.256338e+00
1.622202e+01	-4.287882e+00
1.631572e+01	-4.319407e+00
1.640996e+01	-4.350741e+00
1.650474e+01	-4.382793e+00
1.660008e+01	-4.414614e+00
1.669596e+01	-4.446553e+00
1.679239e+01	-4.478755e+00
1.688938e+01	-4.511120e+00
1.698694e+01	-4.543382e+00
1.708505e+01	-4.575952e+00
1.718373e+01	-4.608341e+00
1.728299e+01	-4.641084e+00
1.738281e+01	-4.674159e+00
1.748322e+01	-4.707385e+00
1.758420e+01	-4.740128e+00
1.768576e+01	-4.773750e+00
1.778792e+01	-4.806897e+00
1.789066e+01	-4.840493e+00
1.799399e+01	-4.874277e+00
1.809793e+01	-4.908200e+00
1.820246e+01	-4.942177e+00
1.830760e+01	-4.975792e+00
1.841334e+01	-5.010304e+00
1.851969e+01	-5.044623e+00
1.862666e+01	-5.079334e+00
1.873425e+01	-5.113300e+00
1.884246e+01	-5.148215e+00
1.895129e+01	-5.183047e+00
1.906075e+01	-5.217769e+00
1.917085e+01	-5.252835e+00
1.928158e+01	-5.288273e+00
1.939295e+01	-5.323442e+00
1.950496e+01	-5.358593e+00
1.961762e+01	-5.394412e+00
1.973093e+01	-5.429436e+00
1.984490e+01	-5.465889e+00
1.995952e+01	-5.501930e+00
2.007480e+01	-5.537591e+00
2.019076e+01	-5.573801e+00
2.030738e+01	-5.609954e+00
2.042467e+01	-5.646325e+00
2.054264e+01	-5.682752e+00
2.066130e+01	-5.719253e+00
2.078064e+01	-5.756042e+00
2.090066e+01	-5.792844e+00
2.102139e+01	-5.829772e+00
2.114280e+01	-5.866586e+00
2.126492e+01	-5.903918e+00
2.138775e+01	-5.941117e+00
2.151128e+01	-5.978219e+00
2.163553e+01	-6.015956e+00
2.176050e+01	-6.053079e+00
2.188619e+01	-6.090855e+00
2.201260e+01	-6.128795e+00
2.213974e+01	-6.166656e+00
2.226762e+01	-6.204749e+00
2.239624e+01	-6.242792e+00
2.252560e+01	-6.280949e+00
2.265571e+01	-6.319491e+00
2.278656e+01	-6.357775e+00
2.291818e+01	-6.396056e+00
2.305055e+01	-6.434877e+00
2.318369e+01	-6.473337e+00
2.331760e+01	-6.512450e+00
2.345228e+01	-6.551187e+00
2.358774e+01	-6.590316e+00
2.372398e+01	-6.629265e+00
2.386101e+01	-6.668244e+00
2.399883e+01	-6.708113e+00
2.413745e+01	-6.747286e+00
2.427686e+01	-6.786509e+00
2.441709e+01	-6.826443e+00
2.455812e+01	-6.865933e+00
2.469997e+01	-6.905835e+00
2.484263e+01	-6.945734e+00
2.498612e+01	-6.985769e+00
2.513044e+01	-7.025183e+00
2.527559e+01	-7.066062e+00
2.542158e+01	-7.105863e+00
2.556842e+01	-7.146168e+00
2.571610e+01	-7.186951e+00
2.586463e+01	-7.227230e+00
2.601403e+01	-7.267451e+00
2.616428e+01	-7.308891e+00
2.631541e+01	-7.349753e+00
2.646740e+01	-7.390032e+00
2.662028e+01	-7.431080e+00
2.677404e+01	-7.472044e+00
2.692868e+01	-7.513617e+00
2.708422e+01	-7.554534e+00
2.724066e+01	-7.595864e+00
2.739800e+01	-7.637253e+00
2.755625e+01	-7.678637e+00
2.771541e+01	-7.720345e+00
2.787550e+01	-7.762192e+00
2.803650e+01	-7.803778e+00
2.819844e+01	-7.844795e+00
2.836131e+01	-7.887086e+00
2.852513e+01	-7.928970e+00
2.868989e+01	-7.970894e+00
2.885560e+01	-8.012753e+00
2.902227e+01	-8.055143e+00
2.918990e+01	-8.097387e+00
2.935850e+01	-8.139876e+00
2.952807e+01	-8.181769e+00
2.969863e+01	-8.224684e+00
2.987016e+01	-8.267523e+00
3.004269e+01	-8.309644e+00
3.021622e+01	-8.352348e+00
3.039075e+01	-8.395338e+00
3.056628e+01	-8.437726e+00
3.074283e+01	-8.480836e+00
3.092040e+01	-8.523935e+00
3.109900e+01	-8.566950e+00
3.127862e+01	-8.610241e+00
3.145929e+01	-8.653153e+00
3.164099e+01	-8.696734e+00
3.182375e+01	-8.739728e+00
3.200756e+01	-8.783125e+00
3.219244e+01	-8.826644e+00
3.237838e+01	-8.869346e+00
3.256540e+01	-8.913814e+00
3.275349e+01	-8.957581e+00
3.294268e+01	-9.000841e+00
3.313295e+01	-9.044826e+00
3.332433e+01	-9.088563e+00
3.351681e+01	-9.132904e+00
3.371040e+01	-9.176028e+00
3.390511e+01	-9.220455e+00
3.410094e+01	-9.264611e+00
3.429791e+01	-9.308736e+00
3.449601e+01	-9.353226e+00
3.469526e+01	-9.396795e+00
3.489566e+01	-9.441467e+00
3.509721e+01	-9.485482e+00
3.529993e+01	-9.530364e+00
3.550382e+01	-9.574450e+00
3.570889e+01	-9.618645e+00
3.591515e+01	-9.663637e+00
3.612259e+01	-9.708407e+00
3.633123e+01	-9.753192e+00
3.654108e+01	-9.797552e+00
3.675214e+01	-9.842590e+00
3.696442e+01	-9.887310e+00
3.717792e+01	-9.932235e+00
3.739266e+01	-9.976823e+00
3.760864e+01	-1.002267e+01
3.782587e+01	-1.006773e+01
3.804435e+01	-1.011230e+01
3.826409e+01	-1.015782e+01
3.848510e+01	-1.020313e+01
3.870739e+01	-1.024813e+01
3.893096e+01	-1.029373e+01
3.915583e+01	-1.033877e+01
3.938199e+01	-1.038469e+01
3.960946e+01	-1.043056e+01
3.983824e+01	-1.047562e+01
4.006834e+01	-1.052089e+01
4.029978e+01	-1.056656e+01
4.053255e+01	-1.061193e+01
4.076666e+01	-1.065795e+01
4.100213e+01	-1.070377e+01
4.123896e+01	-1.074934e+01
4.147715e+01	-1.079559e+01
4.171672e+01	-1.084117e+01
4.195767e+01	-1.088740e+01
4.220002e+01	-1.093270e+01
4.244377e+01	-1.097907e+01
4.268892e+01	-1.102493e+01
4.293549e+01	-1.107100e+01
4.318348e+01	-1.111724e+01
4.343291e+01	-1.116367e+01
4.368377e+01	-1.120968e+01
4.393609e+01	-1.125636e+01
4.418986e+01	-1.130222e+01
4.444510e+01	-1.134848e+01
4.470182e+01	-1.139522e+01
4.496001e+01	-1.144145e+01
4.521970e+01	-1.148771e+01
4.548089e+01	-1.153474e+01
4.574358e+01	-1.158130e+01
4.600779e+01	-1.162794e+01
4.627353e+01	-1.167421e+01
4.654081e+01	-1.172031e+01
4.680963e+01	-1.176777e+01
4.708000e+01	-1.181384e+01
4.735193e+01	-1.186076e+01
4.762543e+01	-1.190793e+01
4.790051e+01	-1.195452e+01
4.817719e+01	-1.200149e+01
4.845545e+01	-1.204773e+01
4.873533e+01	-1.209537e+01
4.901682e+01	-1.214264e+01
4.929994e+01	-1.218864e+01
4.958470e+01	-1.223634e+01
4.987110e+01	-1.228346e+01
5.015915e+01	-1.233035e+01
5.044887e+01	-1.237755e+01
5.074026e+01	-1.242459e+01
5.103333e+01	-1.247134e+01
5.132810e+01	-1.251895e+01
5.162457e+01	-1.256609e+01
5.192275e+01	-1.261355e+01
5.222265e+01	-1.266152e+01
5.252429e+01	-1.270810e+01
5.282767e+01	-1.275542e+01
5.313280e+01	-1.280374e+01
5.343969e+01	-1.285071e+01
5.374836e+01	-1.289808e+01
5.405880e+01	-1.294529e+01
5.437105e+01	-1.299260e+01
5.468509e+01	-1.303987e+01
5.500095e+01	-1.308774e+01
5.531863e+01	-1.313511e+01
5.563815e+01	-1.318297e+01
5.595951e+01	-1.323072e+01
5.628273e+01	-1.327837e+01
5.660782e+01	-1.332600e+01
5.693479e+01	-1.337405e+01
5.726364e+01	-1.342192e+01
5.759439e+01	-1.346949e+01
5.792705e+01	-1.351699e+01
5.826164e+01	-1.356513e+01
5.859815e+01	-1.361198e+01
5.893662e+01	-1.366139e+01
5.927703e+01	-1.370802e+01
5.961941e+01	-1.375659e+01
5.996377e+01	-1.380529e+01
6.031012e+01	-1.385307e+01
6.065847e+01	-1.389979e+01
6.100883e+01	-1.394863e+01
6.136121e+01	-1.399636e+01
6.171563e+01	-1.404406e+01
6.207210e+01	-1.409249e+01
6.243063e+01	-1.414037e+01
6.279122e+01	-1.418835e+01
6.315390e+01	-1.423587e+01
6.351868e+01	-1.428495e+01
6.388556e+01	-1.433288e+01
6.425456e+01	-1.438124e+01
6.462569e+01	-1.443006e+01
6.499897e+01	-1.447739e+01
6.537440e+01	-1.452586e+01
6.575200e+01	-1.457432e+01
6.613178e+01	-1.462230e+01
6.651375e+01	-1.467084e+01
6.689793e+01	-1.471922e+01
6.728433e+01	-1.476690e+01
6.767297e+01	-1.481535e+01
6.806384e+01	-1.486408e+01
6.845698e+01	-1.491215e+01
6.885238e+01	-1.496144e+01
6.925007e+01	-1.500931e+01
6.965005e+01	-1.505718e+01
7.005235e+01	-1.510618e+01
7.045697e+01	-1.515486e+01
7.086393e+01	-1.520259e+01
7.127323e+01	-1.525259e+01
7.168490e+01	-1.530002e+01
7.209895e+01	-1.534959e+01
7.251539e+01	-1.539737e+01
7.293424e+01	-1.544526e+01
7.335551e+01	-1.549536e+01
7.377920e+01	-1.554339e+01
7.420535e+01	-1.559268e+01
7.463396e+01	-1.564043e+01
7.506504e+01	-1.568988e+01
7.549861e+01	-1.573862e+01
7.593469e+01	-1.578683e+01
7.637328e+01	-1.583549e+01
7.681441e+01	-1.588418e+01
7.725809e+01	-1.593314e+01
7.770433e+01	-1.598276e+01
7.815315e+01	-1.602962e+01
7.860456e+01	-1.607869e+01
7.905857e+01	-1.612792e+01
7.951521e+01	-1.617795e+01
7.997449e+01	-1.622560e+01
8.043642e+01	-1.627422e+01
8.090102e+01	-1.632259e+01
8.136830e+01	-1.637309e+01
8.183828e+01	-1.642096e+01
8.231097e+01	-1.646990e+01
8.278640e+01	-1.651997e+01
8.326457e+01	-1.656838e+01
8.374550e+01	-1.661661e+01
8.422921e+01	-1.666553e+01
8.471572e+01	-1.671560e+01
8.520503e+01	-1.676314e+01
8.569717e+01	-1.681334e+01
8.619215e+01	-1.686124e+01
8.669000e+01	-1.691038e+01
8.719071e+01	-1.696063e+01
8.769432e+01	-1.700874e+01
8.820084e+01	-1.705802e+01
8.871029e+01	-1.710601e+01
8.922267e+01	-1.715584e+01
8.973802e+01	-1.720409e+01
9.025634e+01	-1.725420e+01
9.077766e+01	-1.730324e+01
9.130199e+01	-1.735201e+01
9.182935e+01	-1.740237e+01
9.235975e+01	-1.745082e+01
9.289321e+01	-1.750069e+01
9.342976e+01	-1.754811e+01
9.396941e+01	-1.759797e+01
9.451217e+01	-1.764728e+01
9.505807e+01	-1.769675e+01
9.560712e+01	-1.774713e+01
9.615934e+01	-1.779399e+01
9.671476e+01	-1.784429e+01
9.727338e+01	-1.789309e+01
9.783522e+01	-1.794216e+01
9.840032e+01	-1.799243e+01
9.896867e+01	-1.804166e+01
9.954031e+01	-1.809050e+01
1.001153e+02	-1.813960e+01
1.006935e+02	-1.818944e+01
1.012751e+02	-1.823814e+01
1.018601e+02	-1.828711e+01
1.024484e+02	-1.833588e+01
1.030402e+02	-1.838663e+01
1.036353e+02	-1.843614e+01
1.042339e+02	-1.848281e+01
1.048360e+02	-1.853339e+01
1.054415e+02	-1.858338e+01
1.060505e+02	-1.863217e+01
1.066631e+02	-1.868152e+01
1.072791e+02	-1.873139e+01
1.078988e+02	-1.878132e+01
1.085220e+02	-1.882999e+01
1.091488e+02	-1.887788e+01
1.097793e+02	-1.892834e+01
1.104133e+02	-1.897850e+01
1.110511e+02	-1.902759e+01
1.116925e+02	-1.907656e+01
1.123376e+02	-1.912647e+01
1.129865e+02	-1.917486e+01
1.136391e+02	-1.922524e+01
1.142955e+02	-1.927523e+01
1.149556e+02	-1.932307e+01
1.156196e+02	-1.937268e+01
1.162874e+02	-1.942271e+01
1.169591e+02	-1.947308e+01
1.176347e+02	-1.952143e+01
1.183141e+02	-1.957127e+01
1.189975e+02	-1.962058e+01
1.196848e+02	-1.967050e+01
1.203761e+02	-1.971940e+01
1.210714e+02	-1.977080e+01
1.217707e+02	-1.981777e+01
1.224740e+02	-1.986933e+01
1.231814e+02	-1.991805e+01
1.238929e+02	-1.996933e+01
1.246085e+02	-2.001643e+01
1.253283e+02	-2.006672e+01
1.260522e+02	-2.011789e+01
1.267802e+02	-2.016663e+01
1.275125e+02	-2.021588e+01
1.282490e+02	-2.026411e+01
1.289898e+02	-2.031442e+01
1.297348e+02	-2.036488e+01
1.304842e+02	-2.041370e+01
1.312378e+02	-2.046347e+01
1.319959e+02	-2.051231e+01
1.327583e+02	-2.056338e+01
1.335251e+02	-2.061283e+01
1.342963e+02	-2.066220e+01
1.350720e+02	-2.071151e+01
1.358522e+02	-2.076178e+01
1.366368e+02	-2.080993e+01
1.374260e+02	-2.086010e+01
1.382198e+02	-2.090866e+01
1.390182e+02	-2.095987e+01
1.398211e+02	-2.100928e+01
1.406287e+02	-2.106042e+01
1.414410e+02	-2.110862e+01
1.422579e+02	-2.115739e+01
1.430796e+02	-2.120849e+01
1.439060e+02	-2.125555e+01
1.447372e+02	-2.130734e+01
1.455732e+02	-2.135468e+01
1.464141e+02	-2.140616e+01
1.472597e+02	-2.145652e+01
1.481103e+02	-2.150552e+01
1.489658e+02	-2.155488e+01
1.498262e+02	-2.160482e+01
1.506916e+02	-2.165519e+01
1.515620e+02	-2.170240e+01
1.524374e+02	-2.175588e+01
1.533179e+02	-2.180505e+01
1.542034e+02	-2.185426e+01
1.550941e+02	-2.190397e+01
1.559899e+02	-2.195450e+01
1.568909e+02	-2.200250e+01
1.577971e+02	-2.205233e+01
1.587085e+02	-2.210246e+01
1.596252e+02	-2.215161e+01
1.605472e+02	-2.220099e+01
1.614745e+02	-2.225081e+01
1.624072e+02	-2.230121e+01
1.633453e+02	-2.235172e+01
1.642887e+02	-2.240076e+01
1.652377e+02	-2.245141e+01
1.661921e+02	-2.249930e+01
1.671520e+02	-2.255041e+01
1.681175e+02	-2.259958e+01
1.690885e+02	-2.265002e+01
1.700651e+02	-2.269965e+01
1.710474e+02	-2.274848e+01
1.720354e+02	-2.279954e+01
1.730291e+02	-2.284740e+01
1.740285e+02	-2.289830e+01
1.750337e+02	-2.294896e+01
1.760446e+02	-2.299678e+01
1.770615e+02	-2.304835e+01
1.780842e+02	-2.309878e+01
1.791128e+02	-2.314742e+01
1.801473e+02	-2.319543e+01
1.811878e+02	-2.324666e+01
1.822344e+02	-2.329789e+01
1.832870e+02	-2.334534e+01
1.843456e+02	-2.339579e+01
1.854104e+02	-2.344787e+01
1.864813e+02	-2.349499e+01
1.875584e+02	-2.354716e+01
1.886418e+02	-2.359765e+01
1.897313e+02	-2.364717e+01
1.908272e+02	-2.369400e+01
1.919294e+02	-2.374596e+01
1.930380e+02	-2.379677e+01
1.941530e+02	-2.384624e+01
1.952744e+02	-2.389634e+01
1.964023e+02	-2.394165e+01
1.975367e+02	-2.399183e+01
1.986777e+02	-2.404437e+01
1.998252e+02	-2.409442e+01
2.009794e+02	-2.414538e+01
2.021403e+02	-2.419502e+01
2.033078e+02	-2.424401e+01
2.044821e+02	-2.429235e+01
2.056632e+02	-2.434083e+01
2.068511e+02	-2.439341e+01
2.080459e+02	-2.444334e+01
2.092475e+02	-2.449301e+01
2.104561e+02	-2.454239e+01
2.116717e+02	-2.459243e+01
2.128943e+02	-2.464240e+01
2.141240e+02	-2.469356e+01
2.153608e+02	-2.474167e+01
2.166047e+02	-2.479050e+01
2.178558e+02	-2.484292e+01
2.191141e+02	-2.489211e+01
2.203797e+02	-2.493983e+01
2.216526e+02	-2.499245e+01
2.229329e+02	-2.504281e+01
2.242205e+02	-2.509128e+01
2.255156e+02	-2.514173e+01
2.268182e+02	-2.518963e+01
2.281283e+02	-2.523927e+01
2.294459e+02	-2.529479e+01
2.307712e+02	-2.534088e+01
2.321041e+02	-2.539351e+01
2.334447e+02	-2.544184e+01
2.347931e+02	-2.549465e+01
2.361493e+02	-2.554245e+01
2.375133e+02	-2.559020e+01
2.388851e+02	-2.564190e+01
2.402649e+02	-2.568972e+01
2.416527e+02	-2.574172e+01
2.430484e+02	-2.578998e+01
2.444523e+02	-2.584006e+01
2.458642e+02	-2.589187e+01
2.472843e+02	-2.594352e+01
2.487126e+02	-2.598965e+01
2.501492e+02	-2.603942e+01
2.515940e+02	-2.609452e+01
2.530472e+02	-2.614013e+01
2.545088e+02	-2.619076e+01
2.559789e+02	-2.623899e+01
2.574574e+02	-2.629278e+01
2.589444e+02	-2.634281e+01
2.604401e+02	-2.638909e+01
2.619444e+02	-2.644222e+01
2.634574e+02	-2.649081e+01
2.649791e+02	-2.653845e+01
2.665096e+02	-2.659111e+01
2.680489e+02	-2.663849e+01
2.695972e+02	-2.668983e+01
2.711544e+02	-2.673795e+01
2.727205e+02	-2.679403e+01
2.742958e+02	-2.684063e+01
2.758801e+02	-2.689070e+01
2.774736e+02	-2.693991e+01
2.790762e+02	-2.699135e+01
2.806882e+02	-2.704318e+01
2.823094e+02	-2.709071e+01
2.839400e+02	-2.714092e+01
2.855800e+02	-2.719093e+01
2.872295e+02	-2.723979e+01
2.888886e+02	-2.729019e+01
2.905572e+02	-2.734093e+01
2.922354e+02	-2.739026e+01
2.939234e+02	-2.744101e+01
2.956211e+02	-2.749228e+01
2.973286e+02	-2.754021e+01
2.990459e+02	-2.759045e+01
3.007732e+02	-2.764195e+01
3.025104e+02	-2.769112e+01
3.042577e+02	-2.773949e+01
3.060151e+02	-2.778920e+01
3.077826e+02	-2.783771e+01
3.095604e+02	-2.788940e+01
3.113484e+02	-2.793623e+01
3.131467e+02	-2.798902e+01
3.149554e+02	-2.803820e+01
3.167746e+02	-2.808834e+01
3.186043e+02	-2.813718e+01
3.204445e+02	-2.818956e+01
3.222954e+02	-2.824332e+01
3.241570e+02	-2.829155e+01
3.260293e+02	-2.834012e+01
3.279124e+02	-2.839081e+01
3.298064e+02	-2.844353e+01
3.317114e+02	-2.849395e+01
3.336273e+02	-2.854339e+01
3.355544e+02	-2.858959e+01
3.374925e+02	-2.864349e+01
3.394418e+02	-2.869080e+01
3.414024e+02	-2.873932e+01
3.433744e+02	-2.879158e+01
3.453577e+02	-2.884023e+01
3.473525e+02	-2.889428e+01
3.493588e+02	-2.894499e+01
3.513766e+02	-2.899163e+01
3.534062e+02	-2.904020e+01
3.554474e+02	-2.908854e+01
3.575005e+02	-2.913801e+01
3.595654e+02	-2.918992e+01
3.616422e+02	-2.924529e+01
3.637311e+02	-2.929052e+01
3.658320e+02	-2.933852e+01
3.679450e+02	-2.939438e+01
3.700702e+02	-2.944202e+01
3.722077e+02	-2.948908e+01
3.743576e+02	-2.954119e+01
3.765199e+02	-2.959339e+01
3.786946e+02	-2.964092e+01
3.808820e+02	-2.969170e+01
3.830819e+02	-2.974214e+01
3.852946e+02	-2.979259e+01
3.875200e+02	-2.984537e+01
3.897583e+02	-2.988918e+01
3.920096e+02	-2.993831e+01
3.942738e+02	-2.999396e+01
3.965511e+02	-3.003931e+01
3.988416e+02	-3.009321e+01
4.011452e+02	-3.014139e+01
4.034622e+02	-3.019184e+01
4.057926e+02	-3.024400e+01
4.081365e+02	-3.029074e+01
4.104938e+02	-3.034268e+01
4.128648e+02	-3.039584e+01
4.152495e+02	-3.044143e+01
4.176480e+02	-3.049761e+01
4.200603e+02	-3.054304e+01
4.224866e+02	-3.059350e+01
4.249268e+02	-3.064582e+01
4.273812e+02	-3.069554e+01
4.298497e+02	-3.074287e+01
4.323325e+02	-3.078966e+01
4.348297e+02	-3.084847e+01
4.373412e+02	-3.090000e+01
4.398673e+02	-3.095317e+01
4.424079e+02	-3.099709e+01
4.449633e+02	-3.104482e+01
4.475334e+02	-3.109228e+01
4.501183e+02	-3.115008e+01
4.527182e+02	-3.119702e+01
4.553330e+02	-3.124486e+01
4.579630e+02	-3.129823e+01
4.606082e+02	-3.134633e+01
4.632687e+02	-3.139763e+01
4.659445e+02	-3.144874e+01
4.686358e+02	-3.149699e+01
4.713426e+02	-3.154582e+01
4.740650e+02	-3.160057e+01
4.768032e+02	-3.165360e+01
4.795572e+02	-3.169218e+01
4.823271e+02	-3.175077e+01
4.851130e+02	-3.179170e+01
4.879150e+02	-3.184567e+01
4.907332e+02	-3.189757e+01
4.935676e+02	-3.194178e+01
4.964185e+02	-3.199683e+01
4.992858e+02	-3.205030e+01
5.021696e+02	-3.209738e+01
5.050701e+02	-3.215332e+01
5.079874e+02	-3.219536e+01
5.109215e+02	-3.225090e+01
5.138726e+02	-3.230077e+01
5.168407e+02	-3.235713e+01
5.198259e+02	-3.240115e+01
5.228284e+02	-3.244786e+01
5.258482e+02	-3.249908e+01
5.288855e+02	-3.255070e+01
5.319403e+02	-3.259721e+01
5.350128e+02	-3.265924e+01
5.381030e+02	-3.270203e+01
5.412111e+02	-3.274598e+01
5.443371e+02	-3.280276e+01
5.474812e+02	-3.285144e+01
5.506434e+02	-3.290572e+01
5.538239e+02	-3.296087e+01
5.570228e+02	-3.300065e+01
5.602401e+02	-3.305276e+01
5.634760e+02	-3.310586e+01
5.667306e+02	-3.315418e+01
5.700040e+02	-3.319993e+01
5.732964e+02	-3.324689e+01
5.766077e+02	-3.330041e+01
5.799382e+02	-3.335360e+01
5.832879e+02	-3.340425e+01
5.866569e+02	-3.346453e+01
5.900454e+02	-3.350291e+01
5.934535e+02	-3.355045e+01
5.968813e+02	-3.360757e+01
6.003288e+02	-3.365687e+01
6.037963e+02	-3.371155e+01
6.072838e+02	-3.375222e+01
6.107914e+02	-3.379930e+01
6.143194e+02	-3.386557e+01
6.178676e+02	-3.390649e+01
6.214364e+02	-3.395656e+01
6.250258e+02	-3.401229e+01
6.286359e+02	-3.405582e+01
6.322669e+02	-3.411342e+01
6.359189e+02	-3.415963e+01
6.395919e+02	-3.421378e+01
6.432862e+02	-3.425496e+01
6.470017e+02	-3.431713e+01
6.507388e+02	-3.436196e+01
6.544974e+02	-3.440795e+01
6.582778e+02	-3.445860e+01
6.620800e+02	-3.451052e+01
6.659041e+02	-3.457006e+01
6.697504e+02	-3.461374e+01
6.736188e+02	-3.466591e+01
6.775096e+02	-3.470727e+01
6.814229e+02	-3.475713e+01
6.853587e+02	-3.480874e+01
6.893173e+02	-3.485806e+01
6.932988e+02	-3.491409e+01
6.973033e+02	-3.495463e+01
7.013309e+02	-3.501582e+01
