Frequency(Hz)	Magnitude(dB)
1.000000e+01	-2.092762e+00
1.005776e+01	-2.111937e+00
1.011585e+01	-2.131316e+00
1.017428e+01	-2.150785e+00
1.023305e+01	-2.170177e+00
1.029215e+01	-2.190149e+00
1.035160e+01	-2.210082e+00
1.041139e+01	-2.229994e+00
1.047153e+01	-2.250284e+00
1.053201e+01	-2.270391e+00
1.059284e+01	-2.290778e+00
1.065403e+01	-2.311641e+00
1.071556e+01	-2.332254e+00
1.077746e+01	-2.353043e+00
1.083971e+01	-2.373936e+00
1.090232e+01	-2.395202e+00
1.096529e+01	-2.416370e+00
1.102862e+01	-2.437803e+00
1.109232e+01	-2.459555e+00
1.115639e+01	-2.481293e+00
1.122083e+01	-2.503101e+00
1.128564e+01	-2.524907e+00
1.135083e+01	-2.547223e+00
1.141639e+01	-2.569458e+00
1.148233e+01	-2.591952e+00
1.154865e+01	-2.614359e+00
1.161536e+01	-2.637193e+00
1.168245e+01	-2.659804e+00
1.174992e+01	-2.682847e+00
1.181779e+01	-2.706201e+00
1.188605e+01	-2.729315e+00
1.195470e+01	-2.752734e+00
1.202375e+01	-2.776124e+00
1.209320e+01	-2.799850e+00
1.216305e+01	-2.823782e+00
1.223330e+01	-2.847778e+00
1.230396e+01	-2.871841e+00
1.237503e+01	-2.896182e+00
1.244651e+01	-2.920691e+00
1.251840e+01	-2.945085e+00
1.259070e+01	-2.969848e+00
1.266343e+01	-2.994578e+00
1.273657e+01	-3.019794e+00
1.281014e+01	-3.045042e+00
1.288413e+01	-3.070285e+00
1.295855e+01	-3.095608e+00
1.303339e+01	-3.121125e+00
1.310867e+01	-3.147033e+00
1.318439e+01	-3.172736e+00
1.326054e+01	-3.198823e+00
1.333713e+01	-3.225004e+00
1.341417e+01	-3.250864e+00
1.349165e+01	-3.277543e+00
1.356958e+01	-3.304208e+00
1.364795e+01	-3.330882e+00
1.372678e+01	-3.357843e+00
1.380607e+01	-3.384795e+00
1.388581e+01	-3.411876e+00
1.396602e+01	-3.439236e+00
1.404668e+01	-3.466674e+00
1.412782e+01	-3.494020e+00
1.420942e+01	-3.521903e+00
1.429149e+01	-3.549690e+00
1.437404e+01	-3.577768e+00
1.445706e+01	-3.605796e+00
1.454057e+01	-3.634115e+00
1.462455e+01	-3.662622e+00
1.470902e+01	-3.691323e+00
1.479398e+01	-3.720078e+00
1.487943e+01	-3.749073e+00
1.496537e+01	-3.777746e+00
1.505181e+01	-3.806728e+00
1.513875e+01	-3.836153e+00
1.522619e+01	-3.865660e+00
1.531414e+01	-3.895453e+00
1.540259e+01	-3.924912e+00
1.549156e+01	-3.955161e+00
1.558103e+01	-3.985003e+00
1.567103e+01	-4.014653e+00
1.576155e+01	-4.044894e+00
1.585258e+01	-4.075307e+00
1.594415e+01	-4.105977e+00
1.603624e+01	-4.136523e+00
1.612886e+01	-4.167272e+00
1.622202e+01	-4.198397e+00
1.631572e+01	-4.229249e+00
1.640996e+01	-4.260351e+00
1.650474e+01	-4.292148e+00
1.660008e+01	-4.323622e+00
1.669596e+01	-4.354957e+00
1.679239e+01	-4.386966e+00
1.688938e+01	-4.418520e+00
1.698694e+01	-4.450662e+00
1.708505e+01	-4.482797e+00
1.718373e+01	-4.515156e+00
1.728299e+01	-4.547142e+00
1.738281e+01	-4.579692e+00
1.748322e+01	-4.612574e+00
1.758420e+01	-4.645363e+00
1.768576e+01	-4.678144e+00
1.778792e+01	-4.711481e+00
1.789066e+01	-4.744435e+00
1.799399e+01	-4.777803e+00
1.809793e+01	-4.811438e+00
1.820246e+01	-4.844857e+00
1.830760e+01	-4.878463e+00
1.841334e+01	-4.912351e+00
1.851969e+01	-4.946469e+00
1.862666e+01	-4.980475e+00
1.873425e+01	-5.014657e+00
1.884246e+01	-5.049213e+00
1.895129e+01	-5.083533e+00
1.906075e+01	-5.118150e+00
1.917085e+01	-5.152599e+00
1.928158e+01	-5.187343e+00
1.939295e+01	-5.222473e+00
1.950496e+01	-5.257623e+00
1.961762e+01	-5.292483e+00
1.973093e+01	-5.327901e+00
1.984490e+01	-5.363453e+00
1.995952e+01	-5.399034e+00
2.007480e+01	-5.434605e+00
2.019076e+01	-5.470359e+00
2.030738e+01	-5.506042e+00
2.042467e+01	-5.542189e+00
2.054264e+01	-5.578160e+00
2.066130e+01	-5.614538e+00
2.078064e+01	-5.650774e+00
2.090066e+01	-5.687470e+00
2.102139e+01	-5.723899e+00
2.114280e+01	-5.760596e+00
2.126492e+01	-5.797728e+00
2.138775e+01	-5.834475e+00
2.151128e+01	-5.871518e+00
2.163553e+01	-5.908409e+00
2.176050e+01	-5.945698e+00
2.188619e+01	-5.983149e+00
2.201260e+01	-6.020698e+00
2.213974e+01	-6.058195e+00
2.226762e+01	-6.095792e+00
2.239624e+01	-6.133420e+00
2.252560e+01	-6.171147e+00
2.265571e+01	-6.209281e+00
2.278656e+01	-6.248225e+00
2.291818e+01	-6.285928e+00
2.305055e+01	-6.324130e+00
2.318369e+01	-6.362711e+00
2.331760e+01	-6.401257e+00
2.345228e+01	-6.439331e+00
2.358774e+01	-6.478042e+00
2.372398e+01	-6.517158e+00
2.386101e+01	-6.556121e+00
2.399883e+01	-6.594884e+00
2.413745e+01	-6.634026e+00
2.427686e+01	-6.673208e+00
2.441709e+01	-6.712718e+00
2.455812e+01	-6.752092e+00
2.469997e+01	-6.791672e+00
2.484263e+01	-6.831403e+00
2.498612e+01	-6.870817e+00
2.513044e+01	-6.910523e+00
2.527559e+01	-6.950527e+00
2.542158e+01	-6.990378e+00
2.556842e+01	-7.031100e+00
2.571610e+01	-7.070823e+00
2.586463e+01	-7.110804e+00
2.601403e+01	-7.151506e+00
2.616428e+01	-7.191865e+00
2.631541e+01	-7.232355e+00
2.646740e+01	-7.273220e+00
2.662028e+01	-7.313664e+00
2.677404e+01	-7.354609e+00
2.692868e+01	-7.395791e+00
2.708422e+01	-7.436313e+00
2.724066e+01	-7.477364e+00
2.739800e+01	-7.518262e+00
2.755625e+01	-7.559904e+00
2.771541e+01	-7.600920e+00
2.787550e+01	-7.642572e+00
2.803650e+01	-7.683631e+00
2.819844e+01	-7.725382e+00
2.836131e+01	-7.767127e+00
2.852513e+01	-7.808842e+00
2.868989e+01	-7.850671e+00
2.885560e+01	-7.892041e+00
2.902227e+01	-7.933885e+00
2.918990e+01	-7.976416e+00
2.935850e+01	-8.017769e+00
2.952807e+01	-8.060728e+00
2.969863e+01	-8.102999e+00
2.987016e+01	-8.145419e+00
3.004269e+01	-8.187161e+00
3.021622e+01	-8.229845e+00
3.039075e+01	-8.272273e+00
3.056628e+01	-8.315229e+00
3.074283e+01	-8.357753e+00
3.092040e+01	-8.400565e+00
3.109900e+01	-8.443511e+00
3.127862e+01	-8.486200e+00
3.145929e+01	-8.529778e+00
3.164099e+01	-8.572133e+00
3.182375e+01	-8.615373e+00
3.200756e+01	-8.658508e+00
3.219244e+01	-8.701732e+00
3.237838e+01	-8.745245e+00
3.256540e+01	-8.788526e+00
3.275349e+01	-8.832476e+00
3.294268e+01	-8.875542e+00
3.313295e+01	-8.918695e+00
3.332433e+01	-8.963639e+00
3.351681e+01	-9.006690e+00
3.371040e+01	-9.050244e+00
3.390511e+01	-9.094183e+00
3.410094e+01	-9.137723e+00
3.429791e+01	-9.181493e+00
3.449601e+01	-9.225752e+00
3.469526e+01	-9.270028e+00
3.489566e+01	-9.314544e+00
3.509721e+01	-9.358305e+00
3.529993e+01	-9.402779e+00
3.550382e+01	-9.446476e+00
3.570889e+01	-9.491288e+00
3.591515e+01	-9.535835e+00
3.612259e+01	-9.580405e+00
3.633123e+01	-9.624792e+00
3.654108e+01	-9.669263e+00
3.675214e+01	-9.714068e+00
3.696442e+01	-9.758497e+00
3.717792e+01	-9.803635e+00
3.739266e+01	-9.848149e+00
3.760864e+01	-9.893220e+00
3.782587e+01	-9.937884e+00
3.804435e+01	-9.983173e+00
3.826409e+01	-1.002818e+01
3.848510e+01	-1.007313e+01
3.870739e+01	-1.011864e+01
3.893096e+01	-1.016358e+01
3.915583e+01	-1.020834e+01
3.938199e+01	-1.025413e+01
3.960946e+01	-1.029896e+01
3.983824e+01	-1.034444e+01
4.006834e+01	-1.039015e+01
4.029978e+01	-1.043534e+01
4.053255e+01	-1.048146e+01
4.076666e+01	-1.052607e+01
4.100213e+01	-1.057293e+01
4.123896e+01	-1.061786e+01
4.147715e+01	-1.066377e+01
4.171672e+01	-1.070941e+01
4.195767e+01	-1.075525e+01
4.220002e+01	-1.080113e+01
4.244377e+01	-1.084682e+01
4.268892e+01	-1.089287e+01
4.293549e+01	-1.093908e+01
4.318348e+01	-1.098513e+01
4.343291e+01	-1.103094e+01
4.368377e+01	-1.107737e+01
4.393609e+01	-1.112325e+01
4.418986e+01	-1.116919e+01
4.444510e+01	-1.121597e+01
4.470182e+01	-1.126174e+01
4.496001e+01	-1.130856e+01
4.521970e+01	-1.135490e+01
4.548089e+01	-1.140072e+01
4.574358e+01	-1.144750e+01
4.600779e+01	-1.149338e+01
4.627353e+01	-1.154084e+01
4.654081e+01	-1.158710e+01
4.680963e+01	-1.163373e+01
4.708000e+01	-1.168004e+01
4.735193e+01	-1.172671e+01
4.762543e+01	-1.177325e+01
4.790051e+01	-1.182039e+01
4.817719e+01	-1.186698e+01
4.845545e+01	-1.191294e+01
4.873533e+01	-1.196044e+01
4.901682e+01	-1.200701e+01
4.929994e+01	-1.205401e+01
4.958470e+01	-1.210170e+01
4.987110e+01	-1.214782e+01
5.015915e+01	-1.219462e+01
5.044887e+01	-1.224153e+01
5.074026e+01	-1.228935e+01
5.103333e+01	-1.233626e+01
5.132810e+01	-1.238280e+01
5.162457e+01	-1.243066e+01
5.192275e+01	-1.247763e+01
5.222265e+01	-1.252497e+01
5.252429e+01	-1.257264e+01
5.282767e+01	-1.261921e+01
5.313280e+01	-1.266630e+01
5.343969e+01	-1.271386e+01
5.374836e+01	-1.276202e+01
5.405880e+01	-1.280915e+01
5.437105e+01	-1.285615e+01
5.468509e+01	-1.290391e+01
5.500095e+01	-1.295140e+01
5.531863e+01	-1.299861e+01
5.563815e+01	-1.304586e+01
5.595951e+01	-1.309439e+01
5.628273e+01	-1.314101e+01
5.660782e+01	-1.318938e+01
5.693479e+01	-1.323574e+01
5.726364e+01	-1.328420e+01
5.759439e+01	-1.333124e+01
5.792705e+01	-1.337964e+01
5.826164e+01	-1.342749e+01
5.859815e+01	-1.347512e+01
5.893662e+01	-1.352261e+01
5.927703e+01	-1.357127e+01
5.961941e+01	-1.361798e+01
5.996377e+01	-1.366688e+01
6.031012e+01	-1.371450e+01
6.065847e+01	-1.376161e+01
6.100883e+01	-1.380975e+01
6.136121e+01	-1.385851e+01
6.171563e+01	-1.390615e+01
6.207210e+01	-1.395464e+01
6.243063e+01	-1.400227e+01
6.279122e+01	-1.405053e+01
6.315390e+01	-1.409919e+01
6.351868e+01	-1.414701e+01
6.388556e+01	-1.419482e+01
6.425456e+01	-1.424268e+01
6.462569e+01	-1.429150e+01
6.499897e+01	-1.433928e+01
6.537440e+01	-1.438722e+01
6.575200e+01	-1.443536e+01
6.613178e+01	-1.448395e+01
6.651375e+01	-1.453227e+01
6.689793e+01	-1.457981e+01
6.728433e+01	-1.462868e+01
6.767297e+01	-1.467660e+01
6.806384e+01	-1.472526e+01
6.845698e+01	-1.477314e+01
6.885238e+01	-1.482202e+01
6.925007e+01	-1.486981e+01
6.965005e+01	-1.491868e+01
7.005235e+01	-1.496773e+01
7.045697e+01	-1.501552e+01
7.086393e+01	-1.506541e+01
7.127323e+01	-1.511287e+01
7.168490e+01	-1.516138e+01
7.209895e+01	-1.520993e+01
7.251539e+01	-1.525849e+01
7.293424e+01	-1.530687e+01
7.335551e+01	-1.535584e+01
7.377920e+01	-1.540385e+01
7.420535e+01	-1.545280e+01
7.463396e+01	-1.550105e+01
7.506504e+01	-1.554925e+01
7.549861e+01	-1.559797e+01
7.593469e+01	-1.564716e+01
7.637328e+01	-1.569518e+01
7.681441e+01	-1.574400e+01
7.725809e+01	-1.579220e+01
7.770433e+01	-1.583998e+01
7.815315e+01	-1.589113e+01
7.860456e+01	-1.593823e+01
7.905857e+01	-1.598738e+01
7.951521e+01	-1.603800e+01
7.997449e+01	-1.608547e+01
8.043642e+01	-1.613353e+01
8.090102e+01	-1.618286e+01
8.136830e+01	-1.623246e+01
8.183828e+01	-1.628112e+01
8.231097e+01	-1.633013e+01
8.278640e+01	-1.637833e+01
8.326457e+01	-1.642650e+01
8.374550e+01	-1.647550e+01
8.422921e+01	-1.652541e+01
8.471572e+01	-1.657414e+01
8.520503e+01	-1.662264e+01
8.569717e+01	-1.667175e+01
8.619215e+01	-1.671958e+01
8.669000e+01	-1.677013e+01
8.719071e+01	-1.681896e+01
8.769432e+01	-1.686841e+01
8.820084e+01	-1.691793e+01
8.871029e+01	-1.696525e+01
8.922267e+01	-1.701544e+01
8.973802e+01	-1.706348e+01
9.025634e+01	-1.711348e+01
9.077766e+01	-1.716154e+01
9.130199e+01	-1.721170e+01
9.182935e+01	-1.725916e+01
9.235975e+01	-1.730993e+01
9.289321e+01	-1.735883e+01
9.342976e+01	-1.740661e+01
9.396941e+01	-1.745722e+01
9.451217e+01	-1.750587e+01
9.505807e+01	-1.755508e+01
9.560712e+01	-1.760519e+01
9.615934e+01	-1.765222e+01
9.671476e+01	-1.770327e+01
9.727338e+01	-1.775197e+01
9.783522e+01	-1.780048e+01
9.840032e+01	-1.785008e+01
9.896867e+01	-1.789998e+01
9.954031e+01	-1.794777e+01
1.001153e+02	-1.799796e+01
1.006935e+02	-1.804637e+01
1.012751e+02	-1.809564e+01
1.018601e+02	-1.814582e+01
1.024484e+02	-1.819487e+01
1.030402e+02	-1.824387e+01
1.036353e+02	-1.829333e+01
1.042339e+02	-1.834396e+01
1.048360e+02	-1.839288e+01
1.054415e+02	-1.844137e+01
1.060505e+02	-1.848947e+01
1.066631e+02	-1.853979e+01
1.072791e+02	-1.858907e+01
1.078988e+02	-1.863937e+01
1.085220e+02	-1.868729e+01
1.091488e+02	-1.873746e+01
1.097793e+02	-1.878516e+01
1.104133e+02	-1.883665e+01
1.110511e+02	-1.888558e+01
1.116925e+02	-1.893467e+01
1.123376e+02	-1.898532e+01
1.129865e+02	-1.903349e+01
1.136391e+02	-1.908326e+01
1.142955e+02	-1.913268e+01
1.149556e+02	-1.918227e+01
1.156196e+02	-1.923272e+01
1.162874e+02	-1.928029e+01
1.169591e+02	-1.932890e+01
1.176347e+02	-1.937997e+01
1.183141e+02	-1.943018e+01
1.189975e+02	-1.947759e+01
1.196848e+02	-1.952802e+01
1.203761e+02	-1.957799e+01
1.210714e+02	-1.962542e+01
1.217707e+02	-1.967602e+01
1.224740e+02	-1.972624e+01
1.231814e+02	-1.977511e+01
1.238929e+02	-1.982475e+01
1.246085e+02	-1.987503e+01
1.253283e+02	-1.992636e+01
1.260522e+02	-1.997211e+01
1.267802e+02	-2.002237e+01
1.275125e+02	-2.007412e+01
1.282490e+02	-2.012192e+01
1.289898e+02	-2.017164e+01
1.297348e+02	-2.022210e+01
1.304842e+02	-2.027014e+01
1.312378e+02	-2.031884e+01
1.319959e+02	-2.037018e+01
1.327583e+02	-2.041816e+01
1.335251e+02	-2.046846e+01
1.342963e+02	-2.051924e+01
1.350720e+02	-2.056855e+01
1.358522e+02	-2.061916e+01
1.366368e+02	-2.066696e+01
1.374260e+02	-2.071577e+01
1.382198e+02	-2.076743e+01
1.390182e+02	-2.081816e+01
1.398211e+02	-2.086672e+01
1.406287e+02	-2.091461e+01
1.414410e+02	-2.096599e+01
1.422579e+02	-2.101622e+01
1.430796e+02	-2.106554e+01
1.439060e+02	-2.111419e+01
1.447372e+02	-2.116427e+01
1.455732e+02	-2.121411e+01
1.464141e+02	-2.126284e+01
1.472597e+02	-2.131258e+01
1.481103e+02	-2.136230e+01
1.489658e+02	-2.141183e+01
1.498262e+02	-2.146199e+01
1.506916e+02	-2.150978e+01
1.515620e+02	-2.156252e+01
1.524374e+02	-2.161178e+01
1.533179e+02	-2.166050e+01
1.542034e+02	-2.171116e+01
1.550941e+02	-2.176111e+01
1.559899e+02	-2.181066e+01
1.568909e+02	-2.186030e+01
1.577971e+02	-2.190898e+01
1.587085e+02	-2.196001e+01
1.596252e+02	-2.200811e+01
1.605472e+02	-2.205856e+01
1.614745e+02	-2.210848e+01
1.624072e+02	-2.215715e+01
1.633453e+02	-2.220785e+01
1.642887e+02	-2.225669e+01
1.652377e+02	-2.230694e+01
1.661921e+02	-2.235906e+01
1.671520e+02	-2.240688e+01
1.681175e+02	-2.245835e+01
1.690885e+02	-2.250584e+01
1.700651e+02	-2.255633e+01
1.710474e+02	-2.260671e+01
1.720354e+02	-2.265711e+01
1.730291e+02	-2.270486e+01
1.740285e+02	-2.275633e+01
1.750337e+02	-2.280805e+01
1.760446e+02	-2.285575e+01
1.770615e+02	-2.290542e+01
1.780842e+02	-2.295406e+01
1.791128e+02	-2.300496e+01
1.801473e+02	-2.305499e+01
1.811878e+02	-2.310149e+01
1.822344e+02	-2.315618e+01
1.832870e+02	-2.320559e+01
1.843456e+02	-2.325304e+01
1.854104e+02	-2.330353e+01
1.864813e+02	-2.335310e+01
1.875584e+02	-2.340022e+01
1.886418e+02	-2.345173e+01
1.897313e+02	-2.350267e+01
1.908272e+02	-2.355158e+01
1.919294e+02	-2.360292e+01
1.930380e+02	-2.365188e+01
1.941530e+02	-2.370315e+01
1.952744e+02	-2.375192e+01
1.964023e+02	-2.380074e+01
1.975367e+02	-2.385188e+01
1.986777e+02	-2.390165e+01
1.998252e+02	-2.395032e+01
2.009794e+02	-2.400116e+01
2.021403e+02	-2.404747e+01
2.033078e+02	-2.409960e+01
2.044821e+02	-2.414886e+01
2.056632e+02	-2.420161e+01
2.068511e+02	-2.424915e+01
2.080459e+02	-2.429971e+01
2.092475e+02	-2.435159e+01
2.104561e+02	-2.439736e+01
2.116717e+02	-2.445015e+01
2.128943e+02	-2.450168e+01
2.141240e+02	-2.454983e+01
2.153608e+02	-2.459940e+01
2.166047e+02	-2.464549e+01
2.178558e+02	-2.469880e+01
2.191141e+02	-2.474739e+01
2.203797e+02	-2.479507e+01
2.216526e+02	-2.484996e+01
2.229329e+02	-2.489861e+01
2.242205e+02	-2.494479e+01
2.255156e+02	-2.500314e+01
2.268182e+02	-2.504796e+01
2.281283e+02	-2.509800e+01
2.294459e+02	-2.514671e+01
2.307712e+02	-2.520097e+01
2.321041e+02	-2.524736e+01
2.334447e+02	-2.529667e+01
2.347931e+02	-2.534933e+01
2.361493e+02	-2.539821e+01
2.375133e+02	-2.544767e+01
2.388851e+02	-2.549903e+01
2.402649e+02	-2.554910e+01
2.416527e+02	-2.559801e+01
2.430484e+02	-2.564700e+01
2.444523e+02	-2.569537e+01
2.458642e+02	-2.574806e+01
2.472843e+02	-2.579880e+01
2.487126e+02	-2.584517e+01
2.501492e+02	-2.589593e+01
2.515940e+02	-2.594847e+01
2.530472e+02	-2.599695e+01
2.545088e+02	-2.604704e+01
2.559789e+02	-2.609837e+01
2.574574e+02	-2.614717e+01
2.589444e+02	-2.619675e+01
2.604401e+02	-2.624655e+01
2.619444e+02	-2.629936e+01
2.634574e+02	-2.634625e+01
2.649791e+02	-2.639722e+01
2.665096e+02	-2.644462e+01
2.680489e+02	-2.649596e+01
2.695972e+02	-2.654666e+01
2.711544e+02	-2.659224e+01
2.727205e+02	-2.664830e+01
2.742958e+02	-2.669653e+01
2.758801e+02	-2.675024e+01
2.774736e+02	-2.679667e+01
2.790762e+02	-2.684685e+01
2.806882e+02	-2.689753e+01
2.823094e+02	-2.694739e+01
2.839400e+02	-2.699964e+01
2.855800e+02	-2.704631e+01
2.872295e+02	-2.710010e+01
2.888886e+02	-2.714859e+01
2.905572e+02	-2.719657e+01
2.922354e+02	-2.724690e+01
2.939234e+02	-2.730184e+01
2.956211e+02	-2.734626e+01
2.973286e+02	-2.739875e+01
2.990459e+02	-2.745221e+01
3.007732e+02	-2.749962e+01
3.025104e+02	-2.754454e+01
3.042577e+02	-2.760052e+01
3.060151e+02	-2.764722e+01
3.077826e+02	-2.769912e+01
3.095604e+02	-2.774742e+01
3.113484e+02	-2.779842e+01
3.131467e+02	-2.784761e+01
3.149554e+02	-2.789474e+01
3.167746e+02	-2.794478e+01
3.186043e+02	-2.799756e+01
3.204445e+02	-2.804591e+01
3.222954e+02	-2.809713e+01
3.241570e+02	-2.814979e+01
3.260293e+02	-2.819550e+01
3.279124e+02	-2.824987e+01
3.298064e+02	-2.829837e+01
3.317114e+02	-2.834407e+01
3.336273e+02	-2.839766e+01
3.355544e+02	-2.844503e+01
3.374925e+02	-2.849291e+01
3.394418e+02	-2.854546e+01
3.414024e+02	-2.859747e+01
3.433744e+02	-2.865069e+01
3.453577e+02	-2.869800e+01
3.473525e+02	-2.874344e+01
3.493588e+02	-2.880058e+01
3.513766e+02	-2.884825e+01
3.534062e+02	-2.889359e+01
3.554474e+02	-2.894835e+01
3.575005e+02	-2.899384e+01
3.595654e+02	-2.904804e+01
3.616422e+02	-2.909430e+01
3.637311e+02	-2.914593e+01
3.658320e+02	-2.919615e+01
3.679450e+02	-2.925137e+01
3.700702e+02	-2.929903e+01
3.722077e+02	-2.934540e+01
3.743576e+02	-2.939517e+01
3.765199e+02	-2.944772e+01
3.786946e+02	-2.949891e+01
3.808820e+02	-2.954844e+01
3.830819e+02	-2.959829e+01
3.852946e+02	-2.964906e+01
3.875200e+02	-2.969874e+01
3.897583e+02	-2.974705e+01
3.920096e+02	-2.980010e+01
3.942738e+02	-2.984856e+01
3.965511e+02	-2.989628e+01
3.988416e+02	-2.995152e+01
4.011452e+02	-2.999716e+01
4.034622e+02	-3.005115e+01
4.057926e+02	-3.009716e+01
4.081365e+02	-3.015009e+01
4.104938e+02	-3.019852e+01
4.128648e+02	-3.025433e+01
4.152495e+02	-3.030255e+01
4.176480e+02	-3.034824e+01
4.200603e+02	-3.040018e+01
4.224866e+02	-3.044531e+01
4.249268e+02	-3.050219e+01
4.273812e+02	-3.055306e+01
4.298497e+02	-3.060436e+01
4.323325e+02	-3.064717e+01
4.348297e+02	-3.069717e+01
4.373412e+02	-3.074934e+01
4.398673e+02	-3.080590e+01
4.424079e+02	-3.085083e+01
4.449633e+02	-3.089984e+01
4.475334e+02	-3.094693e+01
4.501183e+02	-3.099306e+01
4.527182e+02	-3.105302e+01
4.553330e+02	-3.110432e+01
4.579630e+02	-3.115248e+01
4.606082e+02	-3.119804e+01
4.632687e+02	-3.125843e+01
4.659445e+02	-3.130513e+01
4.686358e+02	-3.135205e+01
4.713426e+02	-3.140298e+01
4.740650e+02	-3.145634e+01
4.768032e+02	-3.151376e+01
4.795572e+02	-3.156132e+01
4.823271e+02	-3.160570e+01
4.851130e+02	-3.165442e+01
4.879150e+02	-3.170290e+01
4.907332e+02	-3.175226e+01
4.935676e+02	-3.180468e+01
4.964185e+02	-3.185169e+01
4.992858e+02	-3.190345e+01
5.021696e+02	-3.195166e+01
5.050701e+02	-3.200346e+01
5.079874e+02	-3.205031e+01
5.109215e+02	-3.210444e+01
5.138726e+02	-3.215831e+01
5.168407e+02	-3.220015e+01
5.198259e+02	-3.225081e+01
5.228284e+02	-3.230764e+01
5.258482e+02	-3.235337e+01
5.288855e+02	-3.240275e+01
5.319403e+02	-3.245825e+01
5.350128e+02	-3.250293e+01
5.381030e+02	-3.255307e+01
5.412111e+02	-3.261152e+01
5.443371e+02	-3.265256e+01
5.474812e+02	-3.271196e+01
5.506434e+02	-3.276948e+01
5.538239e+02	-3.281126e+01
5.570228e+02	-3.286586e+01
5.602401e+02	-3.290668e+01
5.634760e+02	-3.295440e+01
5.667306e+02	-3.301349e+01
5.700040e+02	-3.305932e+01
5.732964e+02	-3.311081e+01
5.766077e+02	-3.315219e+01
5.799382e+02	-3.321299e+01
5.832879e+02	-3.326003e+01
5.866569e+02	-3.330988e+01
5.900454e+02	-3.336231e+01
5.934535e+02	-3.340820e+01
5.968813e+02	-3.346267e+01
6.003288e+02	-3.350876e+01
6.037963e+02	-3.356668e+01
6.072838e+02	-3.361315e+01
6.107914e+02	-3.367187e+01
6.143194e+02	-3.370607e+01
6.178676e+02	-3.377452e+01
6.214364e+02	-3.381185e+01
6.250258e+02	-3.386194e+01
6.286359e+02	-3.391638e+01
6.322669e+02	-3.396360e+01
6.359189e+02	-3.401478e+01
6.395919e+02	-3.405973e+01
6.432862e+02	-3.411500e+01
6.470017e+02	-3.417243e+01
6.507388e+02	-3.422274e+01
6.544974e+02	-3.426683e+01
6.582778e+02	-3.432242e+01
6.620800e+02	-3.436795e+01
6.659041e+02	-3.441888e+01
6.697504e+02	-3.446822e+01
6.736188e+02	-3.452431e+01
6.775096e+02	-3.457334e+01
6.814229e+02	-3.462190e+01
6.853587e+02	-3.467751e+01
6.893173e+02	-3.471547e+01
6.932988e+02	-3.477313e+01
6.973033e+02	-3.482476e+01
7.013309e+02	-3.487082e+01
