Frequency(Hz)	Magnitude(dB)
1.000000e+01	-2.274794e+00
1.005776e+01	-2.295143e+00
1.011585e+01	-2.316050e+00
1.017428e+01	-2.336678e+00
1.023305e+01	-2.357616e+00
1.029215e+01	-2.378471e+00
1.035160e+01	-2.399567e+00
1.041139e+01	-2.421060e+00
1.047153e+01	-2.442434e+00
1.053201e+01	-2.464150e+00
1.059284e+01	-2.485729e+00
1.065403e+01	-2.507884e+00
1.071556e+01	-2.529885e+00
1.077746e+01	-2.551721e+00
1.083971e+01	-2.574294e+00
1.090232e+01	-2.596558e+00
1.096529e+01	-2.619389e+00
1.102862e+01	-2.642069e+00
1.109232e+01	-2.665003e+00
1.115639e+01	-2.687772e+00
1.122083e+01	-2.710797e+00
1.128564e+01	-2.734067e+00
1.135083e+01	-2.757639e+00
1.141639e+01	-2.781337e+00
1.148233e+01	-2.804982e+00
1.154865e+01	-2.828950e+00
1.161536e+01	-2.852711e+00
1.168245e+01	-2.877098e+00
1.174992e+01	-2.901657e+00
1.181779e+01	-2.925668e+00
1.188605e+01	-2.950270e+00
1.195470e+01	-2.975289e+00
1.202375e+01	-2.999970e+00
1.209320e+01	-3.025205e+00
1.216305e+01	-3.050239e+00
1.223330e+01	-3.075359e+00
1.230396e+01	-3.101170e+00
1.237503e+01	-3.126655e+00
1.244651e+01	-3.152329e+00
1.251840e+01	-3.178210e+00
1.259070e+01	-3.204229e+00
1.266343e+01	-3.230438e+00
1.273657e+01	-3.256927e+00
1.281014e+01	-3.283126e+00
1.288413e+01	-3.309755e+00
1.295855e+01	-3.336583e+00
1.303339e+01	-3.363639e+00
1.310867e+01	-3.390604e+00
1.318439e+01	-3.417733e+00
1.326054e+01	-3.445023e+00
1.333713e+01	-3.472459e+00
1.341417e+01	-3.500213e+00
1.349165e+01	-3.527850e+00
1.356958e+01	-3.555849e+00
1.364795e+01	-3.583809e+00
1.372678e+01	-3.611665e+00
1.380607e+01	-3.640385e+00
1.388581e+01	-3.668728e+00
1.396602e+01	-3.697309e+00
1.404668e+01	-3.726045e+00
1.412782e+01	-3.755169e+00
1.420942e+01	-3.783868e+00
1.429149e+01	-3.812932e+00
1.437404e+01	-3.842500e+00
1.445706e+01	-3.872269e+00
1.454057e+01	-3.901474e+00
1.462455e+01	-3.931270e+00
1.470902e+01	-3.961121e+00
1.479398e+01	-3.991220e+00
1.487943e+01	-4.021013e+00
1.496537e+01	-4.051435e+00
1.505181e+01	-4.081821e+00
1.513875e+01	-4.112432e+00
1.522619e+01	-4.143102e+00
1.531414e+01	-4.173920e+00
1.540259e+01	-4.204960e+00
1.549156e+01	-4.236213e+00
1.558103e+01	-4.267436e+00
1.567103e+01	-4.298454e+00
1.576155e+01	-4.330129e+00
1.585258e+01	-4.361823e+00
1.594415e+01	-4.393402e+00
1.603624e+01	-4.425308e+00
1.612886e+01	-4.457596e+00
1.622202e+01	-4.489726e+00
1.631572e+01	-4.521648e+00
1.640996e+01	-4.554363e+00
1.650474e+01	-4.586856e+00
1.660008e+01	-4.619509e+00
1.669596e+01	-4.652366e+00
1.679239e+01	-4.685195e+00
1.688938e+01	-4.718451e+00
1.698694e+01	-4.751795e+00
1.708505e+01	-4.785336e+00
1.718373e+01	-4.818120e+00
1.728299e+01	-4.851937e+00
1.738281e+01	-4.886032e+00
1.748322e+01	-4.919760e+00
1.758420e+01	-4.953669e+00
1.768576e+01	-4.987728e+00
1.778792e+01	-5.021943e+00
1.789066e+01	-5.056413e+00
1.799399e+01	-5.090542e+00
1.809793e+01	-5.125347e+00
1.820246e+01	-5.160255e+00
1.830760e+01	-5.194950e+00
1.841334e+01	-5.229682e+00
1.851969e+01	-5.264967e+00
1.862666e+01	-5.300138e+00
1.873425e+01	-5.335446e+00
1.884246e+01	-5.370605e+00
1.895129e+01	-5.406178e+00
1.906075e+01	-5.442155e+00
1.917085e+01	-5.477986e+00
1.928158e+01	-5.513886e+00
1.939295e+01	-5.549822e+00
1.950496e+01	-5.585968e+00
1.961762e+01	-5.622400e+00
1.973093e+01	-5.658839e+00
1.984490e+01	-5.695178e+00
1.995952e+01	-5.731786e+00
2.007480e+01	-5.768351e+00
2.019076e+01	-5.805415e+00
2.030738e+01	-5.842249e+00
2.042467e+01	-5.879143e+00
2.054264e+01	-5.916520e+00
2.066130e+01	-5.953367e+00
2.078064e+01	-5.990857e+00
2.090066e+01	-6.028687e+00
2.102139e+01	-6.066218e+00
2.114280e+01	-6.103806e+00
2.126492e+01	-6.141756e+00
2.138775e+01	-6.179582e+00
2.151128e+01	-6.217568e+00
2.163553e+01	-6.255897e+00
2.176050e+01	-6.294213e+00
2.188619e+01	-6.332578e+00
2.201260e+01	-6.370747e+00
2.213974e+01	-6.409502e+00
2.226762e+01	-6.448123e+00
2.239624e+01	-6.486729e+00
2.252560e+01	-6.525593e+00
2.265571e+01	-6.564607e+00
2.278656e+01	-6.603476e+00
2.291818e+01	-6.642612e+00
2.305055e+01	-6.681552e+00
2.318369e+01	-6.721354e+00
2.331760e+01	-6.760527e+00
2.345228e+01	-6.799648e+00
2.358774e+01	-6.839864e+00
2.372398e+01	-6.879642e+00
2.386101e+01	-6.919090e+00
2.399883e+01	-6.959336e+00
2.413745e+01	-6.999296e+00
2.427686e+01	-7.039144e+00
2.441709e+01	-7.079269e+00
2.455812e+01	-7.119307e+00
2.469997e+01	-7.160078e+00
2.484263e+01	-7.200763e+00
2.498612e+01	-7.240819e+00
2.513044e+01	-7.281753e+00
2.527559e+01	-7.322210e+00
2.542158e+01	-7.363503e+00
2.556842e+01	-7.404491e+00
2.571610e+01	-7.445085e+00
2.586463e+01	-7.486104e+00
2.601403e+01	-7.527610e+00
2.616428e+01	-7.568680e+00
2.631541e+01	-7.609704e+00
2.646740e+01	-7.651052e+00
2.662028e+01	-7.692700e+00
2.677404e+01	-7.734420e+00
2.692868e+01	-7.775907e+00
2.708422e+01	-7.817780e+00
2.724066e+01	-7.859220e+00
2.739800e+01	-7.901641e+00
2.755625e+01	-7.943443e+00
2.771541e+01	-7.985521e+00
2.787550e+01	-8.027291e+00
2.803650e+01	-8.069894e+00
2.819844e+01	-8.111917e+00
2.836131e+01	-8.154026e+00
2.852513e+01	-8.196891e+00
2.868989e+01	-8.239442e+00
2.885560e+01	-8.281650e+00
2.902227e+01	-8.324315e+00
2.918990e+01	-8.367198e+00
2.935850e+01	-8.409885e+00
2.952807e+01	-8.452196e+00
2.969863e+01	-8.495196e+00
2.987016e+01	-8.538573e+00
3.004269e+01	-8.581671e+00
3.021622e+01	-8.624667e+00
3.039075e+01	-8.668069e+00
3.056628e+01	-8.711160e+00
3.074283e+01	-8.754426e+00
3.092040e+01	-8.797597e+00
3.109900e+01	-8.841380e+00
3.127862e+01	-8.884874e+00
3.145929e+01	-8.928314e+00
3.164099e+01	-8.972068e+00
3.182375e+01	-9.015496e+00
3.200756e+01	-9.059701e+00
3.219244e+01	-9.104023e+00
3.237838e+01	-9.147746e+00
3.256540e+01	-9.191718e+00
3.275349e+01	-9.235431e+00
3.294268e+01	-9.279636e+00
3.313295e+01	-9.323575e+00
3.332433e+01	-9.367885e+00
3.351681e+01	-9.411719e+00
3.371040e+01	-9.456376e+00
3.390511e+01	-9.500576e+00
3.410094e+01	-9.545399e+00
3.429791e+01	-9.589952e+00
3.449601e+01	-9.634562e+00
3.469526e+01	-9.678628e+00
3.489566e+01	-9.723395e+00
3.509721e+01	-9.768380e+00
3.529993e+01	-9.812965e+00
3.550382e+01	-9.858066e+00
3.570889e+01	-9.902675e+00
3.591515e+01	-9.947337e+00
3.612259e+01	-9.992175e+00
3.633123e+01	-1.003814e+01
3.654108e+01	-1.008334e+01
3.675214e+01	-1.012813e+01
3.696442e+01	-1.017293e+01
3.717792e+01	-1.021861e+01
3.739266e+01	-1.026370e+01
3.760864e+01	-1.030927e+01
3.782587e+01	-1.035493e+01
3.804435e+01	-1.040004e+01
3.826409e+01	-1.044534e+01
3.848510e+01	-1.049059e+01
3.870739e+01	-1.053626e+01
3.893096e+01	-1.058220e+01
3.915583e+01	-1.062762e+01
3.938199e+01	-1.067320e+01
3.960946e+01	-1.071926e+01
3.983824e+01	-1.076484e+01
4.006834e+01	-1.081104e+01
4.029978e+01	-1.085686e+01
4.053255e+01	-1.090170e+01
4.076666e+01	-1.094807e+01
4.100213e+01	-1.099489e+01
4.123896e+01	-1.104069e+01
4.147715e+01	-1.108697e+01
4.171672e+01	-1.113332e+01
4.195767e+01	-1.117966e+01
4.220002e+01	-1.122556e+01
4.244377e+01	-1.127179e+01
4.268892e+01	-1.131819e+01
4.293549e+01	-1.136523e+01
4.318348e+01	-1.141088e+01
4.343291e+01	-1.145712e+01
4.368377e+01	-1.150333e+01
4.393609e+01	-1.155062e+01
4.418986e+01	-1.159649e+01
4.444510e+01	-1.164348e+01
4.470182e+01	-1.168958e+01
4.496001e+01	-1.173650e+01
4.521970e+01	-1.178333e+01
4.548089e+01	-1.182974e+01
4.574358e+01	-1.187642e+01
4.600779e+01	-1.192362e+01
4.627353e+01	-1.197019e+01
4.654081e+01	-1.201725e+01
4.680963e+01	-1.206416e+01
4.708000e+01	-1.211163e+01
4.735193e+01	-1.215799e+01
4.762543e+01	-1.220545e+01
4.790051e+01	-1.225265e+01
4.817719e+01	-1.229918e+01
4.845545e+01	-1.234586e+01
4.873533e+01	-1.239354e+01
4.901682e+01	-1.244122e+01
4.929994e+01	-1.248741e+01
4.958470e+01	-1.253546e+01
4.987110e+01	-1.258229e+01
5.015915e+01	-1.262922e+01
5.044887e+01	-1.267715e+01
5.074026e+01	-1.272418e+01
5.103333e+01	-1.277200e+01
5.132810e+01	-1.281863e+01
5.162457e+01	-1.286644e+01
5.192275e+01	-1.291328e+01
5.222265e+01	-1.296093e+01
5.252429e+01	-1.300957e+01
5.282767e+01	-1.305641e+01
5.313280e+01	-1.310447e+01
5.343969e+01	-1.315129e+01
5.374836e+01	-1.319907e+01
5.405880e+01	-1.324692e+01
5.437105e+01	-1.329462e+01
5.468509e+01	-1.334223e+01
5.500095e+01	-1.339047e+01
5.531863e+01	-1.343741e+01
5.563815e+01	-1.348550e+01
5.595951e+01	-1.353350e+01
5.628273e+01	-1.358064e+01
5.660782e+01	-1.362882e+01
5.693479e+01	-1.367640e+01
5.726364e+01	-1.372543e+01
5.759439e+01	-1.377212e+01
5.792705e+01	-1.382053e+01
5.826164e+01	-1.386786e+01
5.859815e+01	-1.391568e+01
5.893662e+01	-1.396482e+01
5.927703e+01	-1.401180e+01
5.961941e+01	-1.406070e+01
5.996377e+01	-1.410773e+01
6.031012e+01	-1.415660e+01
6.065847e+01	-1.420520e+01
6.100883e+01	-1.425335e+01
6.136121e+01	-1.430092e+01
6.171563e+01	-1.435038e+01
6.207210e+01	-1.439720e+01
6.243063e+01	-1.444593e+01
6.279122e+01	-1.449393e+01
6.315390e+01	-1.454238e+01
6.351868e+01	-1.458959e+01
6.388556e+01	-1.463888e+01
6.425456e+01	-1.468669e+01
6.462569e+01	-1.473517e+01
6.499897e+01	-1.478329e+01
6.537440e+01	-1.483257e+01
6.575200e+01	-1.488035e+01
6.613178e+01	-1.492874e+01
6.651375e+01	-1.497781e+01
6.689793e+01	-1.502541e+01
6.728433e+01	-1.507440e+01
6.767297e+01	-1.512299e+01
6.806384e+01	-1.517194e+01
6.845698e+01	-1.521969e+01
6.885238e+01	-1.526791e+01
6.925007e+01	-1.531660e+01
6.965005e+01	-1.536387e+01
7.005235e+01	-1.541399e+01
7.045697e+01	-1.546298e+01
7.086393e+01	-1.551080e+01
7.127323e+01	-1.555979e+01
7.168490e+01	-1.560811e+01
7.209895e+01	-1.565745e+01
7.251539e+01	-1.570637e+01
7.293424e+01	-1.575445e+01
7.335551e+01	-1.580332e+01
7.377920e+01	-1.585253e+01
7.420535e+01	-1.590038e+01
7.463396e+01	-1.595039e+01
7.506504e+01	-1.599804e+01
7.549861e+01	-1.604765e+01
7.593469e+01	-1.609480e+01
7.637328e+01	-1.614424e+01
7.681441e+01	-1.619339e+01
7.725809e+01	-1.624283e+01
7.770433e+01	-1.629051e+01
7.815315e+01	-1.633942e+01
7.860456e+01	-1.638731e+01
7.905857e+01	-1.643757e+01
7.951521e+01	-1.648666e+01
7.997449e+01	-1.653545e+01
8.043642e+01	-1.658441e+01
8.090102e+01	-1.663404e+01
8.136830e+01	-1.668166e+01
8.183828e+01	-1.673121e+01
8.231097e+01	-1.678022e+01
8.278640e+01	-1.682964e+01
8.326457e+01	-1.687856e+01
8.374550e+01	-1.692765e+01
8.422921e+01	-1.697632e+01
8.471572e+01	-1.702566e+01
8.520503e+01	-1.707509e+01
8.569717e+01	-1.712295e+01
8.619215e+01	-1.717288e+01
8.669000e+01	-1.722116e+01
8.719071e+01	-1.727042e+01
8.769432e+01	-1.732062e+01
8.820084e+01	-1.736962e+01
8.871029e+01	-1.741733e+01
8.922267e+01	-1.746713e+01
8.973802e+01	-1.751733e+01
9.025634e+01	-1.756511e+01
9.077766e+01	-1.761465e+01
9.130199e+01	-1.766500e+01
9.182935e+01	-1.771247e+01
9.235975e+01	-1.776246e+01
9.289321e+01	-1.781122e+01
9.342976e+01	-1.786165e+01
9.396941e+01	-1.790844e+01
9.451217e+01	-1.795974e+01
9.505807e+01	-1.800923e+01
9.560712e+01	-1.805748e+01
9.615934e+01	-1.810664e+01
9.671476e+01	-1.815534e+01
9.727338e+01	-1.820514e+01
9.783522e+01	-1.825442e+01
9.840032e+01	-1.830308e+01
9.896867e+01	-1.835362e+01
9.954031e+01	-1.840313e+01
1.001153e+02	-1.845150e+01
1.006935e+02	-1.849987e+01
1.012751e+02	-1.855074e+01
1.018601e+02	-1.859919e+01
1.024484e+02	-1.864873e+01
1.030402e+02	-1.869819e+01
1.036353e+02	-1.874776e+01
1.042339e+02	-1.879596e+01
1.048360e+02	-1.884628e+01
1.054415e+02	-1.889504e+01
1.060505e+02	-1.894464e+01
1.066631e+02	-1.899413e+01
1.072791e+02	-1.904389e+01
1.078988e+02	-1.909335e+01
1.085220e+02	-1.914213e+01
1.091488e+02	-1.919171e+01
1.097793e+02	-1.924241e+01
1.104133e+02	-1.929014e+01
1.110511e+02	-1.934170e+01
1.116925e+02	-1.938973e+01
1.123376e+02	-1.944013e+01
1.129865e+02	-1.948797e+01
1.136391e+02	-1.953955e+01
1.142955e+02	-1.958745e+01
1.149556e+02	-1.963848e+01
1.156196e+02	-1.968765e+01
1.162874e+02	-1.973663e+01
1.169591e+02	-1.978509e+01
1.176347e+02	-1.983679e+01
1.183141e+02	-1.988545e+01
1.189975e+02	-1.993545e+01
1.196848e+02	-1.998354e+01
1.203761e+02	-2.003431e+01
1.210714e+02	-2.008409e+01
1.217707e+02	-2.013247e+01
1.224740e+02	-2.018230e+01
1.231814e+02	-2.023172e+01
1.238929e+02	-2.028273e+01
1.246085e+02	-2.033144e+01
1.253283e+02	-2.038053e+01
1.260522e+02	-2.042981e+01
1.267802e+02	-2.048180e+01
1.275125e+02	-2.053019e+01
1.282490e+02	-2.057905e+01
1.289898e+02	-2.062845e+01
1.297348e+02	-2.067714e+01
1.304842e+02	-2.072839e+01
1.312378e+02	-2.077682e+01
1.319959e+02	-2.082785e+01
1.327583e+02	-2.087406e+01
1.335251e+02	-2.092635e+01
1.342963e+02	-2.097698e+01
1.350720e+02	-2.102564e+01
1.358522e+02	-2.107466e+01
1.366368e+02	-2.112661e+01
1.374260e+02	-2.117438e+01
1.382198e+02	-2.122391e+01
1.390182e+02	-2.127336e+01
1.398211e+02	-2.132351e+01
1.406287e+02	-2.137471e+01
1.414410e+02	-2.142316e+01
1.422579e+02	-2.147026e+01
1.430796e+02	-2.152068e+01
1.439060e+02	-2.157281e+01
1.447372e+02	-2.162129e+01
1.455732e+02	-2.167127e+01
1.464141e+02	-2.172114e+01
1.472597e+02	-2.177028e+01
1.481103e+02	-2.182178e+01
1.489658e+02	-2.186977e+01
1.498262e+02	-2.191945e+01
1.506916e+02	-2.196986e+01
1.515620e+02	-2.202068e+01
1.524374e+02	-2.206835e+01
1.533179e+02	-2.211787e+01
1.542034e+02	-2.216847e+01
1.550941e+02	-2.221671e+01
1.559899e+02	-2.226855e+01
1.568909e+02	-2.231883e+01
1.577971e+02	-2.236818e+01
1.587085e+02	-2.241814e+01
1.596252e+02	-2.246611e+01
1.605472e+02	-2.251795e+01
1.614745e+02	-2.256428e+01
1.624072e+02	-2.261766e+01
1.633453e+02	-2.266594e+01
1.642887e+02	-2.271499e+01
1.652377e+02	-2.276578e+01
1.661921e+02	-2.281526e+01
1.671520e+02	-2.286446e+01
1.681175e+02	-2.291583e+01
1.690885e+02	-2.296563e+01
1.700651e+02	-2.301510e+01
1.710474e+02	-2.306636e+01
1.720354e+02	-2.311402e+01
1.730291e+02	-2.316228e+01
1.740285e+02	-2.321299e+01
1.750337e+02	-2.326392e+01
1.760446e+02	-2.331527e+01
1.770615e+02	-2.336150e+01
1.780842e+02	-2.341420e+01
1.791128e+02	-2.346293e+01
1.801473e+02	-2.351214e+01
1.811878e+02	-2.356307e+01
1.822344e+02	-2.361155e+01
1.832870e+02	-2.366296e+01
1.843456e+02	-2.371505e+01
1.854104e+02	-2.376281e+01
1.864813e+02	-2.381293e+01
1.875584e+02	-2.386163e+01
1.886418e+02	-2.390968e+01
1.897313e+02	-2.396437e+01
1.908272e+02	-2.400965e+01
1.919294e+02	-2.406197e+01
1.930380e+02	-2.410995e+01
1.941530e+02	-2.415875e+01
1.952744e+02	-2.421033e+01
1.964023e+02	-2.426067e+01
1.975367e+02	-2.431073e+01
1.986777e+02	-2.436058e+01
1.998252e+02	-2.441132e+01
2.009794e+02	-2.446049e+01
2.021403e+02	-2.451288e+01
2.033078e+02	-2.455917e+01
2.044821e+02	-2.461145e+01
2.056632e+02	-2.466077e+01
2.068511e+02	-2.471104e+01
2.080459e+02	-2.475859e+01
2.092475e+02	-2.481135e+01
2.104561e+02	-2.485995e+01
2.116717e+02	-2.490765e+01
2.128943e+02	-2.495794e+01
2.141240e+02	-2.501028e+01
2.153608e+02	-2.505691e+01
2.166047e+02	-2.510730e+01
2.178558e+02	-2.515514e+01
2.191141e+02	-2.520590e+01
2.203797e+02	-2.525378e+01
2.216526e+02	-2.530999e+01
2.229329e+02	-2.535877e+01
2.242205e+02	-2.540757e+01
2.255156e+02	-2.545947e+01
2.268182e+02	-2.550846e+01
2.281283e+02	-2.556127e+01
2.294459e+02	-2.560756e+01
2.307712e+02	-2.565915e+01
2.321041e+02	-2.570825e+01
2.334447e+02	-2.575681e+01
2.347931e+02	-2.580685e+01
2.361493e+02	-2.585803e+01
2.375133e+02	-2.590590e+01
2.388851e+02	-2.595792e+01
2.402649e+02	-2.600504e+01
2.416527e+02	-2.605896e+01
2.430484e+02	-2.610512e+01
2.444523e+02	-2.615853e+01
2.458642e+02	-2.620921e+01
2.472843e+02	-2.625620e+01
2.487126e+02	-2.630694e+01
2.501492e+02	-2.635520e+01
2.515940e+02	-2.640672e+01
2.530472e+02	-2.645757e+01
2.545088e+02	-2.650416e+01
2.559789e+02	-2.655697e+01
2.574574e+02	-2.660707e+01
2.589444e+02	-2.665793e+01
2.604401e+02	-2.670758e+01
2.619444e+02	-2.675580e+01
2.634574e+02	-2.680484e+01
2.649791e+02	-2.685433e+01
2.665096e+02	-2.691002e+01
2.680489e+02	-2.695512e+01
2.695972e+02	-2.700586e+01
2.711544e+02	-2.705825e+01
2.727205e+02	-2.710901e+01
2.742958e+02	-2.715782e+01
2.758801e+02	-2.720669e+01
2.774736e+02	-2.725607e+01
2.790762e+02	-2.730729e+01
2.806882e+02	-2.735497e+01
2.823094e+02	-2.740637e+01
2.839400e+02	-2.745316e+01
2.855800e+02	-2.750855e+01
2.872295e+02	-2.755851e+01
2.888886e+02	-2.760731e+01
2.905572e+02	-2.765743e+01
2.922354e+02	-2.770708e+01
2.939234e+02	-2.775985e+01
2.956211e+02	-2.780299e+01
2.973286e+02	-2.785513e+01
2.990459e+02	-2.790390e+01
3.007732e+02	-2.795991e+01
3.025104e+02	-2.800349e+01
3.042577e+02	-2.805478e+01
3.060151e+02	-2.810693e+01
3.077826e+02	-2.815670e+01
3.095604e+02	-2.820489e+01
3.113484e+02	-2.825623e+01
3.131467e+02	-2.830719e+01
3.149554e+02	-2.835310e+01
3.167746e+02	-2.840626e+01
3.186043e+02	-2.845723e+01
3.204445e+02	-2.850877e+01
3.222954e+02	-2.855750e+01
3.241570e+02	-2.860780e+01
3.260293e+02	-2.865937e+01
3.279124e+02	-2.870985e+01
3.298064e+02	-2.875674e+01
3.317114e+02	-2.880952e+01
3.336273e+02	-2.885581e+01
3.355544e+02	-2.890772e+01
3.374925e+02	-2.895523e+01
3.394418e+02	-2.901138e+01
3.414024e+02	-2.905595e+01
3.433744e+02	-2.910545e+01
3.453577e+02	-2.915436e+01
3.473525e+02	-2.920794e+01
3.493588e+02	-2.925402e+01
3.513766e+02	-2.930672e+01
3.534062e+02	-2.935400e+01
3.554474e+02	-2.940439e+01
3.575005e+02	-2.946075e+01
3.595654e+02	-2.950601e+01
3.616422e+02	-2.955926e+01
3.637311e+02	-2.960988e+01
3.658320e+02	-2.966016e+01
3.679450e+02	-2.970781e+01
3.700702e+02	-2.975379e+01
3.722077e+02	-2.980960e+01
3.743576e+02	-2.985933e+01
3.765199e+02	-2.990879e+01
3.786946e+02	-2.996297e+01
3.808820e+02	-3.000562e+01
3.830819e+02	-3.005783e+01
3.852946e+02	-3.010673e+01
3.875200e+02	-3.015861e+01
3.897583e+02	-3.021385e+01
3.920096e+02	-3.025756e+01
3.942738e+02	-3.030500e+01
3.965511e+02	-3.035958e+01
3.988416e+02	-3.041076e+01
4.011452e+02	-3.045984e+01
4.034622e+02	-3.051297e+01
4.057926e+02	-3.055773e+01
4.081365e+02	-3.060770e+01
4.104938e+02	-3.066190e+01
4.128648e+02	-3.071169e+01
4.152495e+02	-3.076426e+01
4.176480e+02	-3.081416e+01
4.200603e+02	-3.086120e+01
4.224866e+02	-3.090996e+01
4.249268e+02	-3.096249e+01
4.273812e+02	-3.100765e+01
4.298497e+02	-3.106180e+01
4.323325e+02	-3.110966e+01
4.348297e+02	-3.116618e+01
4.373412e+02	-3.120565e+01
4.398673e+02	-3.126134e+01
4.424079e+02	-3.130813e+01
4.449633e+02	-3.136486e+01
4.475334e+02	-3.140715e+01
4.501183e+02	-3.146002e+01
4.527182e+02	-3.150454e+01
4.553330e+02	-3.156692e+01
4.579630e+02	-3.161075e+01
4.606082e+02	-3.165664e+01
4.632687e+02	-3.170946e+01
4.659445e+02	-3.176124e+01
4.686358e+02	-3.181269e+01
4.713426e+02	-3.186300e+01
4.740650e+02	-3.191546e+01
4.768032e+02	-3.196598e+01
4.795572e+02	-3.201904e+01
4.823271e+02	-3.206413e+01
4.851130e+02	-3.210843e+01
4.879150e+02	-3.215943e+01
4.907332e+02	-3.220898e+01
4.935676e+02	-3.226147e+01
4.964185e+02	-3.230941e+01
4.992858e+02	-3.236350e+01
5.021696e+02	-3.241621e+01
5.050701e+02	-3.245822e+01
5.079874e+02	-3.251467e+01
5.109215e+02	-3.256778e+01
5.138726e+02	-3.261207e+01
5.168407e+02	-3.266805e+01
5.198259e+02	-3.271613e+01
5.228284e+02	-3.276121e+01
5.258482e+02	-3.281873e+01
5.288855e+02	-3.286187e+01
5.319403e+02	-3.292417e+01
5.350128e+02	-3.296830e+01
5.381030e+02	-3.301848e+01
5.412111e+02	-3.306743e+01
5.443371e+02	-3.311711e+01
5.474812e+02	-3.316927e+01
5.506434e+02	-3.321806e+01
5.538239e+02	-3.327613e+01
5.570228e+02	-3.332526e+01
5.602401e+02	-3.337213e+01
5.634760e+02	-3.342473e+01
5.667306e+02	-3.347175e+01
5.700040e+02	-3.352497e+01
5.732964e+02	-3.357009e+01
5.766077e+02	-3.362353e+01
5.799382e+02	-3.366725e+01
5.832879e+02	-3.372250e+01
5.866569e+02	-3.377578e+01
5.900454e+02	-3.382123e+01
5.934535e+02	-3.387963e+01
5.968813e+02	-3.392458e+01
6.003288e+02	-3.398251e+01
6.037963e+02	-3.401939e+01
6.072838e+02	-3.408494e+01
6.107914e+02	-3.411397e+01
6.143194e+02	-3.417328e+01
6.178676e+02	-3.422441e+01
6.214364e+02	-3.427973e+01
6.250258e+02	-3.431940e+01
6.286359e+02	-3.437170e+01
6.322669e+02	-3.443129e+01
6.359189e+02	-3.446738e+01
6.395919e+02	-3.452559e+01
6.432862e+02	-3.457740e+01
6.470017e+02	-3.462456e+01
6.507388e+02	-3.467918e+01
6.544974e+02	-3.473001e+01
6.582778e+02	-3.477046e+01
6.620800e+02	-3.482766e+01
6.659041e+02	-3.487323e+01
6.697504e+02	-3.492651e+01
6.736188e+02	-3.497872e+01
6.775096e+02	-3.503563e+01
6.814229e+02	-3.508552e+01
6.853587e+02	-3.512588e+01
6.893173e+02	-3.518174e+01
6.932988e+02	-3.522138e+01
6.973033e+02	-3.527377e+01
7.013309e+02	-3.533503e+01
