Frequency(Hz)	Magnitude(dB)
1.000000e+01	-2.142153e+00
1.005776e+01	-2.161946e+00
1.011585e+01	-2.181228e+00
1.017428e+01	-2.201318e+00
1.023305e+01	-2.221232e+00
1.029215e+01	-2.241423e+00
1.035160e+01	-2.261767e+00
1.041139e+01	-2.281973e+00
1.047153e+01	-2.302308e+00
1.053201e+01	-2.322975e+00
1.059284e+01	-2.343805e+00
1.065403e+01	-2.364887e+00
1.071556e+01	-2.385831e+00
1.077746e+01	-2.407012e+00
1.083971e+01	-2.428532e+00
1.090232e+01	-2.449996e+00
1.096529e+01	-2.471449e+00
1.102862e+01	-2.493363e+00
1.109232e+01	-2.515268e+00
1.115639e+01	-2.537277e+00
1.122083e+01	-2.559450e+00
1.128564e+01	-2.581946e+00
1.135083e+01	-2.604254e+00
1.141639e+01	-2.627194e+00
1.148233e+01	-2.649727e+00
1.154865e+01	-2.673037e+00
1.161536e+01	-2.695824e+00
1.168245e+01	-2.719144e+00
1.174992e+01	-2.742352e+00
1.181779e+01	-2.765802e+00
1.188605e+01	-2.789382e+00
1.195470e+01	-2.813219e+00
1.202375e+01	-2.837078e+00
1.209320e+01	-2.861749e+00
1.216305e+01	-2.885392e+00
1.223330e+01	-2.909941e+00
1.230396e+01	-2.934472e+00
1.237503e+01	-2.958732e+00
1.244651e+01	-2.983656e+00
1.251840e+01	-3.008723e+00
1.259070e+01	-3.033966e+00
1.266343e+01	-3.058995e+00
1.273657e+01	-3.084583e+00
1.281014e+01	-3.110086e+00
1.288413e+01	-3.135497e+00
1.295855e+01	-3.161417e+00
1.303339e+01	-3.187387e+00
1.310867e+01	-3.213233e+00
1.318439e+01	-3.239451e+00
1.326054e+01	-3.266066e+00
1.333713e+01	-3.292328e+00
1.341417e+01	-3.318971e+00
1.349165e+01	-3.345853e+00
1.356958e+01	-3.372835e+00
1.364795e+01	-3.399973e+00
1.372678e+01	-3.427030e+00
1.380607e+01	-3.454555e+00
1.388581e+01	-3.481957e+00
1.396602e+01	-3.509787e+00
1.404668e+01	-3.537403e+00
1.412782e+01	-3.565338e+00
1.420942e+01	-3.593889e+00
1.429149e+01	-3.621901e+00
1.437404e+01	-3.650175e+00
1.445706e+01	-3.678741e+00
1.454057e+01	-3.707460e+00
1.462455e+01	-3.735987e+00
1.470902e+01	-3.764938e+00
1.479398e+01	-3.794037e+00
1.487943e+01	-3.823185e+00
1.496537e+01	-3.852593e+00
1.505181e+01	-3.882018e+00
1.513875e+01	-3.911945e+00
1.522619e+01	-3.941643e+00
1.531414e+01	-3.971300e+00
1.540259e+01	-4.001498e+00
1.549156e+01	-4.031834e+00
1.558103e+01	-4.061897e+00
1.567103e+01	-4.092395e+00
1.576155e+01	-4.122966e+00
1.585258e+01	-4.153714e+00
1.594415e+01	-4.184634e+00
1.603624e+01	-4.215831e+00
1.612886e+01	-4.246823e+00
1.622202e+01	-4.278379e+00
1.631572e+01	-4.309584e+00
1.640996e+01	-4.341133e+00
1.650474e+01	-4.372652e+00
1.660008e+01	-4.404723e+00
1.669596e+01	-4.436308e+00
1.679239e+01	-4.468934e+00
1.688938e+01	-4.501149e+00
1.698694e+01	-4.533330e+00
1.708505e+01	-4.565640e+00
1.718373e+01	-4.598478e+00
1.728299e+01	-4.630682e+00
1.738281e+01	-4.663917e+00
1.748322e+01	-4.696818e+00
1.758420e+01	-4.730107e+00
1.768576e+01	-4.763431e+00
1.778792e+01	-4.796918e+00
1.789066e+01	-4.830212e+00
1.799399e+01	-4.863704e+00
1.809793e+01	-4.897536e+00
1.820246e+01	-4.931649e+00
1.830760e+01	-4.965565e+00
1.841334e+01	-4.999616e+00
1.851969e+01	-5.033774e+00
1.862666e+01	-5.068217e+00
1.873425e+01	-5.102945e+00
1.884246e+01	-5.137541e+00
1.895129e+01	-5.172418e+00
1.906075e+01	-5.207045e+00
1.917085e+01	-5.241947e+00
1.928158e+01	-5.277070e+00
1.939295e+01	-5.312548e+00
1.950496e+01	-5.347677e+00
1.961762e+01	-5.383129e+00
1.973093e+01	-5.418846e+00
1.984490e+01	-5.454827e+00
1.995952e+01	-5.490340e+00
2.007480e+01	-5.526206e+00
2.019076e+01	-5.562616e+00
2.030738e+01	-5.599106e+00
2.042467e+01	-5.635139e+00
2.054264e+01	-5.671466e+00
2.066130e+01	-5.707979e+00
2.078064e+01	-5.744548e+00
2.090066e+01	-5.781494e+00
2.102139e+01	-5.818228e+00
2.114280e+01	-5.855090e+00
2.126492e+01	-5.892245e+00
2.138775e+01	-5.929266e+00
2.151128e+01	-5.966896e+00
2.163553e+01	-6.004252e+00
2.176050e+01	-6.041484e+00
2.188619e+01	-6.079318e+00
2.201260e+01	-6.117083e+00
2.213974e+01	-6.154828e+00
2.226762e+01	-6.192657e+00
2.239624e+01	-6.230854e+00
2.252560e+01	-6.269163e+00
2.265571e+01	-6.307270e+00
2.278656e+01	-6.346126e+00
2.291818e+01	-6.384167e+00
2.305055e+01	-6.422717e+00
2.318369e+01	-6.461565e+00
2.331760e+01	-6.500424e+00
2.345228e+01	-6.538884e+00
2.358774e+01	-6.578384e+00
2.372398e+01	-6.617210e+00
2.386101e+01	-6.656247e+00
2.399883e+01	-6.695417e+00
2.413745e+01	-6.734977e+00
2.427686e+01	-6.774665e+00
2.441709e+01	-6.813669e+00
2.455812e+01	-6.853395e+00
2.469997e+01	-6.893292e+00
2.484263e+01	-6.933337e+00
2.498612e+01	-6.973008e+00
2.513044e+01	-7.013005e+00
2.527559e+01	-7.053234e+00
2.542158e+01	-7.093277e+00
2.556842e+01	-7.133825e+00
2.571610e+01	-7.174498e+00
2.586463e+01	-7.214544e+00
2.601403e+01	-7.255007e+00
2.616428e+01	-7.295698e+00
2.631541e+01	-7.336422e+00
2.646740e+01	-7.377430e+00
2.662028e+01	-7.418232e+00
2.677404e+01	-7.459532e+00
2.692868e+01	-7.500078e+00
2.708422e+01	-7.541487e+00
2.724066e+01	-7.582944e+00
2.739800e+01	-7.624187e+00
2.755625e+01	-7.665697e+00
2.771541e+01	-7.707447e+00
2.787550e+01	-7.748818e+00
2.803650e+01	-7.790214e+00
2.819844e+01	-7.831852e+00
2.836131e+01	-7.874457e+00
2.852513e+01	-7.915741e+00
2.868989e+01	-7.957823e+00
2.885560e+01	-7.999535e+00
2.902227e+01	-8.041851e+00
2.918990e+01	-8.084004e+00
2.935850e+01	-8.126376e+00
2.952807e+01	-8.168935e+00
2.969863e+01	-8.211187e+00
2.987016e+01	-8.253893e+00
3.004269e+01	-8.296539e+00
3.021622e+01	-8.338692e+00
3.039075e+01	-8.382125e+00
3.056628e+01	-8.424736e+00
3.074283e+01	-8.467257e+00
3.092040e+01	-8.510765e+00
3.109900e+01	-8.553325e+00
3.127862e+01	-8.596386e+00
3.145929e+01	-8.639877e+00
3.164099e+01	-8.682751e+00
3.182375e+01	-8.725966e+00
3.200756e+01	-8.769267e+00
3.219244e+01	-8.812485e+00
3.237838e+01	-8.856374e+00
3.256540e+01	-8.900354e+00
3.275349e+01	-8.943338e+00
3.294268e+01	-8.987618e+00
3.313295e+01	-9.030456e+00
3.332433e+01	-9.075290e+00
3.351681e+01	-9.118531e+00
3.371040e+01	-9.162628e+00
3.390511e+01	-9.206729e+00
3.410094e+01	-9.249929e+00
3.429791e+01	-9.294801e+00
3.449601e+01	-9.338917e+00
3.469526e+01	-9.383329e+00
3.489566e+01	-9.427562e+00
3.509721e+01	-9.472445e+00
3.529993e+01	-9.516171e+00
3.550382e+01	-9.560804e+00
3.570889e+01	-9.605043e+00
3.591515e+01	-9.649550e+00
3.612259e+01	-9.694031e+00
3.633123e+01	-9.739436e+00
3.654108e+01	-9.784060e+00
3.675214e+01	-9.828893e+00
3.696442e+01	-9.873204e+00
3.717792e+01	-9.918707e+00
3.739266e+01	-9.963668e+00
3.760864e+01	-1.000777e+01
3.782587e+01	-1.005311e+01
3.804435e+01	-1.009805e+01
3.826409e+01	-1.014339e+01
3.848510e+01	-1.018878e+01
3.870739e+01	-1.023464e+01
3.893096e+01	-1.027936e+01
3.915583e+01	-1.032463e+01
3.938199e+01	-1.036989e+01
3.960946e+01	-1.041540e+01
3.983824e+01	-1.046091e+01
4.006834e+01	-1.050650e+01
4.029978e+01	-1.055200e+01
4.053255e+01	-1.059780e+01
4.076666e+01	-1.064409e+01
4.100213e+01	-1.068928e+01
4.123896e+01	-1.073544e+01
4.147715e+01	-1.078088e+01
4.171672e+01	-1.082619e+01
4.195767e+01	-1.087257e+01
4.220002e+01	-1.091872e+01
4.244377e+01	-1.096503e+01
4.268892e+01	-1.101082e+01
4.293549e+01	-1.105680e+01
4.318348e+01	-1.110339e+01
4.343291e+01	-1.114928e+01
4.368377e+01	-1.119493e+01
4.393609e+01	-1.124156e+01
4.418986e+01	-1.128755e+01
4.444510e+01	-1.133482e+01
4.470182e+01	-1.138042e+01
4.496001e+01	-1.142669e+01
4.521970e+01	-1.147367e+01
4.548089e+01	-1.151931e+01
4.574358e+01	-1.156631e+01
4.600779e+01	-1.161349e+01
4.627353e+01	-1.165989e+01
4.654081e+01	-1.170637e+01
4.680963e+01	-1.175314e+01
4.708000e+01	-1.179933e+01
4.735193e+01	-1.184615e+01
4.762543e+01	-1.189260e+01
4.790051e+01	-1.193941e+01
4.817719e+01	-1.198692e+01
4.845545e+01	-1.203351e+01
4.873533e+01	-1.208009e+01
4.901682e+01	-1.212745e+01
4.929994e+01	-1.217451e+01
4.958470e+01	-1.222132e+01
4.987110e+01	-1.226883e+01
5.015915e+01	-1.231526e+01
5.044887e+01	-1.236312e+01
5.074026e+01	-1.240981e+01
5.103333e+01	-1.245731e+01
5.132810e+01	-1.250483e+01
5.162457e+01	-1.255141e+01
5.192275e+01	-1.259834e+01
5.222265e+01	-1.264559e+01
5.252429e+01	-1.269357e+01
5.282767e+01	-1.274025e+01
5.313280e+01	-1.278879e+01
5.343969e+01	-1.283513e+01
5.374836e+01	-1.288315e+01
5.405880e+01	-1.293066e+01
5.437105e+01	-1.297838e+01
5.468509e+01	-1.302559e+01
5.500095e+01	-1.307257e+01
5.531863e+01	-1.312088e+01
5.563815e+01	-1.316866e+01
5.595951e+01	-1.321633e+01
5.628273e+01	-1.326395e+01
5.660782e+01	-1.331123e+01
5.693479e+01	-1.335900e+01
5.726364e+01	-1.340688e+01
5.759439e+01	-1.345421e+01
5.792705e+01	-1.350231e+01
5.826164e+01	-1.354991e+01
5.859815e+01	-1.359804e+01
5.893662e+01	-1.364561e+01
5.927703e+01	-1.369358e+01
5.961941e+01	-1.374151e+01
5.996377e+01	-1.378885e+01
6.031012e+01	-1.383755e+01
6.065847e+01	-1.388521e+01
6.100883e+01	-1.393275e+01
6.136121e+01	-1.398149e+01
6.171563e+01	-1.402958e+01
6.207210e+01	-1.407788e+01
6.243063e+01	-1.412507e+01
6.279122e+01	-1.417346e+01
6.315390e+01	-1.422138e+01
6.351868e+01	-1.426953e+01
6.388556e+01	-1.431726e+01
6.425456e+01	-1.436583e+01
6.462569e+01	-1.441386e+01
6.499897e+01	-1.446264e+01
6.537440e+01	-1.451091e+01
6.575200e+01	-1.455897e+01
6.613178e+01	-1.460754e+01
6.651375e+01	-1.465628e+01
6.689793e+01	-1.470458e+01
6.728433e+01	-1.475312e+01
6.767297e+01	-1.480121e+01
6.806384e+01	-1.484961e+01
6.845698e+01	-1.489831e+01
6.885238e+01	-1.494518e+01
6.925007e+01	-1.499504e+01
6.965005e+01	-1.504391e+01
7.005235e+01	-1.509096e+01
7.045697e+01	-1.513946e+01
7.086393e+01	-1.518834e+01
7.127323e+01	-1.523644e+01
7.168490e+01	-1.528604e+01
7.209895e+01	-1.533396e+01
7.251539e+01	-1.538294e+01
7.293424e+01	-1.542990e+01
7.335551e+01	-1.547961e+01
7.377920e+01	-1.552874e+01
7.420535e+01	-1.557695e+01
7.463396e+01	-1.562606e+01
7.506504e+01	-1.567479e+01
7.549861e+01	-1.572273e+01
7.593469e+01	-1.577147e+01
7.637328e+01	-1.581971e+01
7.681441e+01	-1.586883e+01
7.725809e+01	-1.591718e+01
7.770433e+01	-1.596561e+01
7.815315e+01	-1.601536e+01
7.860456e+01	-1.606411e+01
7.905857e+01	-1.611264e+01
7.951521e+01	-1.616168e+01
7.997449e+01	-1.621110e+01
8.043642e+01	-1.625915e+01
8.090102e+01	-1.630857e+01
8.136830e+01	-1.635746e+01
8.183828e+01	-1.640646e+01
8.231097e+01	-1.645495e+01
8.278640e+01	-1.650437e+01
8.326457e+01	-1.655123e+01
8.374550e+01	-1.660085e+01
8.422921e+01	-1.665053e+01
8.471572e+01	-1.669986e+01
8.520503e+01	-1.674849e+01
8.569717e+01	-1.679604e+01
8.619215e+01	-1.684731e+01
8.669000e+01	-1.689471e+01
8.719071e+01	-1.694482e+01
8.769432e+01	-1.699239e+01
8.820084e+01	-1.704255e+01
8.871029e+01	-1.709189e+01
8.922267e+01	-1.714096e+01
8.973802e+01	-1.718965e+01
9.025634e+01	-1.723865e+01
9.077766e+01	-1.728742e+01
9.130199e+01	-1.733654e+01
9.182935e+01	-1.738697e+01
9.235975e+01	-1.743533e+01
9.289321e+01	-1.748332e+01
9.342976e+01	-1.753250e+01
9.396941e+01	-1.758221e+01
9.451217e+01	-1.763240e+01
9.505807e+01	-1.768060e+01
9.560712e+01	-1.772958e+01
9.615934e+01	-1.777945e+01
9.671476e+01	-1.782850e+01
9.727338e+01	-1.787762e+01
9.783522e+01	-1.792672e+01
9.840032e+01	-1.797750e+01
9.896867e+01	-1.802542e+01
9.954031e+01	-1.807388e+01
1.001153e+02	-1.812394e+01
1.006935e+02	-1.817264e+01
1.012751e+02	-1.822305e+01
1.018601e+02	-1.827313e+01
1.024484e+02	-1.832094e+01
1.030402e+02	-1.837086e+01
1.036353e+02	-1.842037e+01
1.042339e+02	-1.846802e+01
1.048360e+02	-1.851877e+01
1.054415e+02	-1.856744e+01
1.060505e+02	-1.861643e+01
1.066631e+02	-1.866729e+01
1.072791e+02	-1.871454e+01
1.078988e+02	-1.876413e+01
1.085220e+02	-1.881489e+01
1.091488e+02	-1.886277e+01
1.097793e+02	-1.891354e+01
1.104133e+02	-1.896289e+01
1.110511e+02	-1.901204e+01
1.116925e+02	-1.906182e+01
1.123376e+02	-1.911006e+01
1.129865e+02	-1.916115e+01
1.136391e+02	-1.920890e+01
1.142955e+02	-1.925839e+01
1.149556e+02	-1.930801e+01
1.156196e+02	-1.935851e+01
1.162874e+02	-1.940682e+01
1.169591e+02	-1.945660e+01
1.176347e+02	-1.950662e+01
1.183141e+02	-1.955600e+01
1.189975e+02	-1.960603e+01
1.196848e+02	-1.965513e+01
1.203761e+02	-1.970424e+01
1.210714e+02	-1.975332e+01
1.217707e+02	-1.980359e+01
1.224740e+02	-1.985280e+01
1.231814e+02	-1.990162e+01
1.238929e+02	-1.995301e+01
1.246085e+02	-2.000192e+01
1.253283e+02	-2.005069e+01
1.260522e+02	-2.009973e+01
1.267802e+02	-2.015051e+01
1.275125e+02	-2.019974e+01
1.282490e+02	-2.024970e+01
1.289898e+02	-2.029942e+01
1.297348e+02	-2.035005e+01
1.304842e+02	-2.039792e+01
1.312378e+02	-2.044797e+01
1.319959e+02	-2.049556e+01
1.327583e+02	-2.054700e+01
1.335251e+02	-2.059642e+01
1.342963e+02	-2.064445e+01
1.350720e+02	-2.069413e+01
1.358522e+02	-2.074653e+01
1.366368e+02	-2.079468e+01
1.374260e+02	-2.084355e+01
1.382198e+02	-2.089479e+01
1.390182e+02	-2.094208e+01
1.398211e+02	-2.099238e+01
1.406287e+02	-2.104187e+01
1.414410e+02	-2.109244e+01
1.422579e+02	-2.114324e+01
1.430796e+02	-2.119038e+01
1.439060e+02	-2.124126e+01
1.447372e+02	-2.129164e+01
1.455732e+02	-2.134030e+01
1.464141e+02	-2.139136e+01
1.472597e+02	-2.144067e+01
1.481103e+02	-2.148940e+01
1.489658e+02	-2.153980e+01
1.498262e+02	-2.158890e+01
1.506916e+02	-2.163923e+01
1.515620e+02	-2.168726e+01
1.524374e+02	-2.173740e+01
1.533179e+02	-2.178908e+01
1.542034e+02	-2.183725e+01
1.550941e+02	-2.188930e+01
1.559899e+02	-2.193602e+01
1.568909e+02	-2.198636e+01
1.577971e+02	-2.203722e+01
1.587085e+02	-2.208577e+01
1.596252e+02	-2.213680e+01
1.605472e+02	-2.218579e+01
1.614745e+02	-2.223685e+01
1.624072e+02	-2.228612e+01
1.633453e+02	-2.233582e+01
1.642887e+02	-2.238461e+01
1.652377e+02	-2.243551e+01
1.661921e+02	-2.248331e+01
1.671520e+02	-2.253333e+01
1.681175e+02	-2.258687e+01
1.690885e+02	-2.263285e+01
1.700651e+02	-2.268369e+01
1.710474e+02	-2.273488e+01
1.720354e+02	-2.278394e+01
1.730291e+02	-2.283334e+01
1.740285e+02	-2.288164e+01
1.750337e+02	-2.293438e+01
1.760446e+02	-2.298053e+01
1.770615e+02	-2.303173e+01
1.780842e+02	-2.308071e+01
1.791128e+02	-2.313284e+01
1.801473e+02	-2.318200e+01
1.811878e+02	-2.323135e+01
1.822344e+02	-2.328447e+01
1.832870e+02	-2.332968e+01
1.843456e+02	-2.337893e+01
1.854104e+02	-2.343170e+01
1.864813e+02	-2.348177e+01
1.875584e+02	-2.353033e+01
1.886418e+02	-2.357771e+01
1.897313e+02	-2.362841e+01
1.908272e+02	-2.367972e+01
1.919294e+02	-2.373085e+01
1.930380e+02	-2.378004e+01
1.941530e+02	-2.383059e+01
1.952744e+02	-2.387990e+01
1.964023e+02	-2.392876e+01
1.975367e+02	-2.397863e+01
1.986777e+02	-2.402937e+01
1.998252e+02	-2.407782e+01
2.009794e+02	-2.412677e+01
2.021403e+02	-2.417950e+01
2.033078e+02	-2.422690e+01
2.044821e+02	-2.427891e+01
2.056632e+02	-2.432865e+01
2.068511e+02	-2.437726e+01
2.080459e+02	-2.442887e+01
2.092475e+02	-2.448065e+01
2.104561e+02	-2.452560e+01
2.116717e+02	-2.457667e+01
2.128943e+02	-2.462822e+01
2.141240e+02	-2.467572e+01
2.153608e+02	-2.472514e+01
2.166047e+02	-2.477422e+01
2.178558e+02	-2.482588e+01
2.191141e+02	-2.487736e+01
2.203797e+02	-2.492842e+01
2.216526e+02	-2.497686e+01
2.229329e+02	-2.502522e+01
2.242205e+02	-2.507725e+01
2.255156e+02	-2.512710e+01
2.268182e+02	-2.517481e+01
2.281283e+02	-2.522638e+01
2.294459e+02	-2.527595e+01
2.307712e+02	-2.532791e+01
2.321041e+02	-2.537292e+01
2.334447e+02	-2.542543e+01
2.347931e+02	-2.547579e+01
2.361493e+02	-2.552258e+01
2.375133e+02	-2.557349e+01
2.388851e+02	-2.562393e+01
2.402649e+02	-2.567436e+01
2.416527e+02	-2.572614e+01
2.430484e+02	-2.577535e+01
2.444523e+02	-2.582393e+01
2.458642e+02	-2.587310e+01
2.472843e+02	-2.592694e+01
2.487126e+02	-2.597277e+01
2.501492e+02	-2.602568e+01
2.515940e+02	-2.607226e+01
2.530472e+02	-2.612731e+01
2.545088e+02	-2.617694e+01
2.559789e+02	-2.622451e+01
2.574574e+02	-2.627431e+01
2.589444e+02	-2.632702e+01
2.604401e+02	-2.637778e+01
2.619444e+02	-2.642526e+01
2.634574e+02	-2.647475e+01
2.649791e+02	-2.652716e+01
2.665096e+02	-2.657499e+01
2.680489e+02	-2.662363e+01
2.695972e+02	-2.667425e+01
2.711544e+02	-2.672606e+01
2.727205e+02	-2.677273e+01
2.742958e+02	-2.682366e+01
2.758801e+02	-2.687329e+01
2.774736e+02	-2.692315e+01
2.790762e+02	-2.697141e+01
2.806882e+02	-2.702826e+01
2.823094e+02	-2.707177e+01
2.839400e+02	-2.712495e+01
2.855800e+02	-2.717689e+01
2.872295e+02	-2.722052e+01
2.888886e+02	-2.727717e+01
2.905572e+02	-2.732334e+01
2.922354e+02	-2.737582e+01
2.939234e+02	-2.742532e+01
2.956211e+02	-2.747286e+01
2.973286e+02	-2.752521e+01
2.990459e+02	-2.757696e+01
3.007732e+02	-2.762290e+01
3.025104e+02	-2.767461e+01
3.042577e+02	-2.772472e+01
3.060151e+02	-2.777549e+01
3.077826e+02	-2.782414e+01
3.095604e+02	-2.787217e+01
3.113484e+02	-2.792483e+01
3.131467e+02	-2.797362e+01
3.149554e+02	-2.802558e+01
3.167746e+02	-2.807635e+01
3.186043e+02	-2.812173e+01
3.204445e+02	-2.817808e+01
3.222954e+02	-2.822631e+01
3.241570e+02	-2.827612e+01
3.260293e+02	-2.832456e+01
3.279124e+02	-2.837519e+01
3.298064e+02	-2.842608e+01
3.317114e+02	-2.847295e+01
3.336273e+02	-2.852128e+01
3.355544e+02	-2.857195e+01
3.374925e+02	-2.862702e+01
3.394418e+02	-2.867741e+01
3.414024e+02	-2.873043e+01
3.433744e+02	-2.877762e+01
3.453577e+02	-2.882185e+01
3.473525e+02	-2.887449e+01
3.493588e+02	-2.892631e+01
3.513766e+02	-2.897441e+01
3.534062e+02	-2.902412e+01
3.554474e+02	-2.907097e+01
3.575005e+02	-2.912780e+01
3.595654e+02	-2.917675e+01
3.616422e+02	-2.922300e+01
3.637311e+02	-2.927776e+01
3.658320e+02	-2.932730e+01
3.679450e+02	-2.938014e+01
3.700702e+02	-2.942960e+01
3.722077e+02	-2.947383e+01
3.743576e+02	-2.952264e+01
3.765199e+02	-2.957744e+01
3.786946e+02	-2.963054e+01
3.808820e+02	-2.967161e+01
3.830819e+02	-2.972305e+01
3.852946e+02	-2.977527e+01
3.875200e+02	-2.982933e+01
3.897583e+02	-2.988266e+01
3.920096e+02	-2.992565e+01
3.942738e+02	-2.997886e+01
3.965511e+02	-3.002909e+01
3.988416e+02	-3.007662e+01
4.011452e+02	-3.012633e+01
4.034622e+02	-3.017417e+01
4.057926e+02	-3.022426e+01
4.081365e+02	-3.027473e+01
4.104938e+02	-3.032982e+01
4.128648e+02	-3.037463e+01
4.152495e+02	-3.042837e+01
4.176480e+02	-3.047833e+01
4.200603e+02	-3.052563e+01
4.224866e+02	-3.057919e+01
4.249268e+02	-3.063138e+01
4.273812e+02	-3.068703e+01
4.298497e+02	-3.072820e+01
4.323325e+02	-3.078017e+01
4.348297e+02	-3.082788e+01
4.373412e+02	-3.087999e+01
4.398673e+02	-3.092969e+01
4.424079e+02	-3.098355e+01
4.449633e+02	-3.102527e+01
4.475334e+02	-3.108102e+01
4.501183e+02	-3.112268e+01
4.527182e+02	-3.118248e+01
4.553330e+02	-3.123234e+01
4.579630e+02	-3.128449e+01
4.606082e+02	-3.132774e+01
4.632687e+02	-3.137780e+01
4.659445e+02	-3.142803e+01
4.686358e+02	-3.148126e+01
4.713426e+02	-3.152835e+01
4.740650e+02	-3.158051e+01
4.768032e+02	-3.163693e+01
4.795572e+02	-3.167870e+01
4.823271e+02	-3.173258e+01
4.851130e+02	-3.178374e+01
4.879150e+02	-3.182649e+01
4.907332e+02	-3.188014e+01
4.935676e+02	-3.193998e+01
4.964185e+02	-3.197757e+01
4.992858e+02	-3.202767e+01
5.021696e+02	-3.208401e+01
5.050701e+02	-3.213968e+01
5.079874e+02	-3.218382e+01
5.109215e+02	-3.223154e+01
5.138726e+02	-3.227926e+01
5.168407e+02	-3.233573e+01
5.198259e+02	-3.238660e+01
5.228284e+02	-3.243028e+01
5.258482e+02	-3.247990e+01
5.288855e+02	-3.253380e+01
5.319403e+02	-3.258492e+01
5.350128e+02	-3.263925e+01
5.381030e+02	-3.268816e+01
5.412111e+02	-3.273441e+01
5.443371e+02	-3.278625e+01
5.474812e+02	-3.283858e+01
5.506434e+02	-3.289049e+01
5.538239e+02	-3.293794e+01
5.570228e+02	-3.298877e+01
5.602401e+02	-3.303485e+01
5.634760e+02	-3.309307e+01
5.667306e+02	-3.314037e+01
5.700040e+02	-3.319627e+01
5.732964e+02	-3.323604e+01
5.766077e+02	-3.328826e+01
5.799382e+02	-3.334032e+01
5.832879e+02	-3.339142e+01
5.866569e+02	-3.344087e+01
5.900454e+02	-3.349211e+01
5.934535e+02	-3.354136e+01
5.968813e+02	-3.358846e+01
6.003288e+02	-3.364481e+01
6.037963e+02	-3.369010e+01
6.072838e+02	-3.373714e+01
6.107914e+02	-3.378985e+01
6.143194e+02	-3.384115e+01
6.178676e+02	-3.389195e+01
6.214364e+02	-3.394459e+01
6.250258e+02	-3.399532e+01
6.286359e+02	-3.404369e+01
6.322669e+02	-3.410107e+01
6.359189e+02	-3.414512e+01
6.395919e+02	-3.419931e+01
6.432862e+02	-3.424022e+01
6.470017e+02	-3.429528e+01
6.507388e+02	-3.434861e+01
6.544974e+02	-3.439509e+01
6.582778e+02	-3.443649e+01
6.620800e+02	-3.449225e+01
6.659041e+02	-3.454705e+01
6.697504e+02	-3.460083e+01
6.736188e+02	-3.463522e+01
6.775096e+02	-3.469261e+01
6.814229e+02	-3.474418e+01
6.853587e+02	-3.479886e+01
6.893173e+02	-3.484287e+01
6.932988e+02	-3.489898e+01
6.973033e+02	-3.493816e+01
7.013309e+02	-3.499472e+01
