Frequency(Hz)	Magnitude(dB)
1.000000e+01	-2.040031e+00
1.005776e+01	-2.058706e+00
1.011585e+01	-2.077841e+00
1.017428e+01	-2.096930e+00
1.023305e+01	-2.116060e+00
1.029215e+01	-2.135267e+00
1.035160e+01	-2.154849e+00
1.041139e+01	-2.174444e+00
1.047153e+01	-2.194419e+00
1.053201e+01	-2.214192e+00
1.059284e+01	-2.234051e+00
1.065403e+01	-2.254314e+00
1.071556e+01	-2.274865e+00
1.077746e+01	-2.295312e+00
1.083971e+01	-2.315816e+00
1.090232e+01	-2.336726e+00
1.096529e+01	-2.357299e+00
1.102862e+01	-2.378625e+00
1.109232e+01	-2.399543e+00
1.115639e+01	-2.421037e+00
1.122083e+01	-2.442664e+00
1.128564e+01	-2.464133e+00
1.135083e+01	-2.485512e+00
1.141639e+01	-2.507596e+00
1.148233e+01	-2.529536e+00
1.154865e+01	-2.551716e+00
1.161536e+01	-2.574054e+00
1.168245e+01	-2.596569e+00
1.174992e+01	-2.619116e+00
1.181779e+01	-2.641818e+00
1.188605e+01	-2.664713e+00
1.195470e+01	-2.687844e+00
1.202375e+01	-2.710946e+00
1.209320e+01	-2.734205e+00
1.216305e+01	-2.757629e+00
1.223330e+01	-2.781319e+00
1.230396e+01	-2.804744e+00
1.237503e+01	-2.828961e+00
1.244651e+01	-2.852786e+00
1.251840e+01	-2.876644e+00
1.259070e+01	-2.901324e+00
1.266343e+01	-2.925745e+00
1.273657e+01	-2.950346e+00
1.281014e+01	-2.975165e+00
1.288413e+01	-2.999847e+00
1.295855e+01	-3.025039e+00
1.303339e+01	-3.050395e+00
1.310867e+01	-3.075228e+00
1.318439e+01	-3.100970e+00
1.326054e+01	-3.126403e+00
1.333713e+01	-3.152098e+00
1.341417e+01	-3.178137e+00
1.349165e+01	-3.204323e+00
1.356958e+01	-3.230432e+00
1.364795e+01	-3.256475e+00
1.372678e+01	-3.283085e+00
1.380607e+01	-3.309676e+00
1.388581e+01	-3.336388e+00
1.396602e+01	-3.363433e+00
1.404668e+01	-3.390277e+00
1.412782e+01	-3.417599e+00
1.420942e+01	-3.445014e+00
1.429149e+01	-3.472520e+00
1.437404e+01	-3.500069e+00
1.445706e+01	-3.527966e+00
1.454057e+01	-3.555622e+00
1.462455e+01	-3.583887e+00
1.470902e+01	-3.611902e+00
1.479398e+01	-3.640198e+00
1.487943e+01	-3.668432e+00
1.496537e+01	-3.697227e+00
1.505181e+01	-3.726225e+00
1.513875e+01	-3.754961e+00
1.522619e+01	-3.783816e+00
1.531414e+01	-3.813197e+00
1.540259e+01	-3.842239e+00
1.549156e+01	-3.871751e+00
1.558103e+01	-3.901405e+00
1.567103e+01	-3.931053e+00
1.576155e+01	-3.960870e+00
1.585258e+01	-3.990945e+00
1.594415e+01	-4.021098e+00
1.603624e+01	-4.051368e+00
1.612886e+01	-4.081780e+00
1.622202e+01	-4.112541e+00
1.631572e+01	-4.143180e+00
1.640996e+01	-4.173721e+00
1.650474e+01	-4.204698e+00
1.660008e+01	-4.235947e+00
1.669596e+01	-4.267041e+00
1.679239e+01	-4.298315e+00
1.688938e+01	-4.329939e+00
1.698694e+01	-4.361866e+00
1.708505e+01	-4.393426e+00
1.718373e+01	-4.425391e+00
1.728299e+01	-4.457367e+00
1.738281e+01	-4.489387e+00
1.748322e+01	-4.521917e+00
1.758420e+01	-4.554429e+00
1.768576e+01	-4.586621e+00
1.778792e+01	-4.619482e+00
1.789066e+01	-4.652319e+00
1.799399e+01	-4.685442e+00
1.809793e+01	-4.718209e+00
1.820246e+01	-4.751623e+00
1.830760e+01	-4.784744e+00
1.841334e+01	-4.818468e+00
1.851969e+01	-4.851913e+00
1.862666e+01	-4.885471e+00
1.873425e+01	-4.919468e+00
1.884246e+01	-4.953522e+00
1.895129e+01	-4.987599e+00
1.906075e+01	-5.021676e+00
1.917085e+01	-5.056156e+00
1.928158e+01	-5.090698e+00
1.939295e+01	-5.125217e+00
1.950496e+01	-5.159822e+00
1.961762e+01	-5.194873e+00
1.973093e+01	-5.229779e+00
1.984490e+01	-5.265060e+00
1.995952e+01	-5.300345e+00
2.007480e+01	-5.335438e+00
2.019076e+01	-5.370487e+00
2.030738e+01	-5.406239e+00
2.042467e+01	-5.442115e+00
2.054264e+01	-5.477738e+00
2.066130e+01	-5.513678e+00
2.078064e+01	-5.549479e+00
2.090066e+01	-5.585945e+00
2.102139e+01	-5.622094e+00
2.114280e+01	-5.658622e+00
2.126492e+01	-5.694766e+00
2.138775e+01	-5.731743e+00
2.151128e+01	-5.768366e+00
2.163553e+01	-5.805002e+00
2.176050e+01	-5.842113e+00
2.188619e+01	-5.878938e+00
2.201260e+01	-5.916604e+00
2.213974e+01	-5.953507e+00
2.226762e+01	-5.991321e+00
2.239624e+01	-6.028782e+00
2.252560e+01	-6.066295e+00
2.265571e+01	-6.103800e+00
2.278656e+01	-6.141375e+00
2.291818e+01	-6.179340e+00
2.305055e+01	-6.217627e+00
2.318369e+01	-6.255836e+00
2.331760e+01	-6.293698e+00
2.345228e+01	-6.332011e+00
2.358774e+01	-6.370701e+00
2.372398e+01	-6.409368e+00
2.386101e+01	-6.447690e+00
2.399883e+01	-6.486712e+00
2.413745e+01	-6.525714e+00
2.427686e+01	-6.564361e+00
2.441709e+01	-6.603359e+00
2.455812e+01	-6.642473e+00
2.469997e+01	-6.681883e+00
2.484263e+01	-6.721512e+00
2.498612e+01	-6.760218e+00
2.513044e+01	-6.799871e+00
2.527559e+01	-6.839247e+00
2.542158e+01	-6.879827e+00
2.556842e+01	-6.919386e+00
2.571610e+01	-6.958999e+00
2.586463e+01	-6.999092e+00
2.601403e+01	-7.039473e+00
2.616428e+01	-7.079466e+00
2.631541e+01	-7.119639e+00
2.646740e+01	-7.160034e+00
2.662028e+01	-7.200582e+00
2.677404e+01	-7.241211e+00
2.692868e+01	-7.281446e+00
2.708422e+01	-7.322328e+00
2.724066e+01	-7.363029e+00
2.739800e+01	-7.403956e+00
2.755625e+01	-7.444610e+00
2.771541e+01	-7.485778e+00
2.787550e+01	-7.527230e+00
2.803650e+01	-7.568389e+00
2.819844e+01	-7.609693e+00
2.836131e+01	-7.651135e+00
2.852513e+01	-7.692695e+00
2.868989e+01	-7.733971e+00
2.885560e+01	-7.775800e+00
2.902227e+01	-7.817933e+00
2.918990e+01	-7.859122e+00
2.935850e+01	-7.901127e+00
2.952807e+01	-7.943524e+00
2.969863e+01	-7.985382e+00
2.987016e+01	-8.027108e+00
3.004269e+01	-8.069315e+00
3.021622e+01	-8.111639e+00
3.039075e+01	-8.153750e+00
3.056628e+01	-8.196579e+00
3.074283e+01	-8.238940e+00
3.092040e+01	-8.281265e+00
3.109900e+01	-8.324170e+00
3.127862e+01	-8.366846e+00
3.145929e+01	-8.409120e+00
3.164099e+01	-8.452640e+00
3.182375e+01	-8.495478e+00
3.200756e+01	-8.538397e+00
3.219244e+01	-8.581587e+00
3.237838e+01	-8.624239e+00
3.256540e+01	-8.668153e+00
3.275349e+01	-8.710924e+00
3.294268e+01	-8.754130e+00
3.313295e+01	-8.797458e+00
3.332433e+01	-8.841062e+00
3.351681e+01	-8.884718e+00
3.371040e+01	-8.927682e+00
3.390511e+01	-8.972271e+00
3.410094e+01	-9.015666e+00
3.429791e+01	-9.059801e+00
3.449601e+01	-9.103277e+00
3.469526e+01	-9.146968e+00
3.489566e+01	-9.191072e+00
3.509721e+01	-9.235247e+00
3.529993e+01	-9.279483e+00
3.550382e+01	-9.323087e+00
3.570889e+01	-9.367824e+00
3.591515e+01	-9.411981e+00
3.612259e+01	-9.456204e+00
3.633123e+01	-9.500471e+00
3.654108e+01	-9.544820e+00
3.675214e+01	-9.589532e+00
3.696442e+01	-9.633785e+00
3.717792e+01	-9.678688e+00
3.739266e+01	-9.723425e+00
3.760864e+01	-9.767847e+00
3.782587e+01	-9.812867e+00
3.804435e+01	-9.857654e+00
3.826409e+01	-9.902470e+00
3.848510e+01	-9.947983e+00
3.870739e+01	-9.992374e+00
3.893096e+01	-1.003798e+01
3.915583e+01	-1.008365e+01
3.938199e+01	-1.012720e+01
3.960946e+01	-1.017282e+01
3.983824e+01	-1.021851e+01
4.006834e+01	-1.026363e+01
4.029978e+01	-1.030879e+01
4.053255e+01	-1.035427e+01
4.076666e+01	-1.039974e+01
4.100213e+01	-1.044482e+01
4.123896e+01	-1.049056e+01
4.147715e+01	-1.053648e+01
4.171672e+01	-1.058176e+01
4.195767e+01	-1.062806e+01
4.220002e+01	-1.067336e+01
4.244377e+01	-1.071854e+01
4.268892e+01	-1.076499e+01
4.293549e+01	-1.081058e+01
4.318348e+01	-1.085661e+01
4.343291e+01	-1.090268e+01
4.368377e+01	-1.094911e+01
4.393609e+01	-1.099429e+01
4.418986e+01	-1.104084e+01
4.444510e+01	-1.108691e+01
4.470182e+01	-1.113333e+01
4.496001e+01	-1.117994e+01
4.521970e+01	-1.122516e+01
4.548089e+01	-1.127105e+01
4.574358e+01	-1.131793e+01
4.600779e+01	-1.136460e+01
4.627353e+01	-1.141034e+01
4.654081e+01	-1.145736e+01
4.680963e+01	-1.150342e+01
4.708000e+01	-1.154998e+01
4.735193e+01	-1.159655e+01
4.762543e+01	-1.164296e+01
4.790051e+01	-1.169022e+01
4.817719e+01	-1.173631e+01
4.845545e+01	-1.178269e+01
4.873533e+01	-1.182958e+01
4.901682e+01	-1.187669e+01
4.929994e+01	-1.192367e+01
4.958470e+01	-1.197033e+01
4.987110e+01	-1.201695e+01
5.015915e+01	-1.206402e+01
5.044887e+01	-1.211034e+01
5.074026e+01	-1.215825e+01
5.103333e+01	-1.220499e+01
5.132810e+01	-1.225162e+01
5.162457e+01	-1.229849e+01
5.192275e+01	-1.234557e+01
5.222265e+01	-1.239280e+01
5.252429e+01	-1.244088e+01
5.282767e+01	-1.248831e+01
5.313280e+01	-1.253503e+01
5.343969e+01	-1.258152e+01
5.374836e+01	-1.262979e+01
5.405880e+01	-1.267615e+01
5.437105e+01	-1.272414e+01
5.468509e+01	-1.277147e+01
5.500095e+01	-1.281890e+01
5.531863e+01	-1.286595e+01
5.563815e+01	-1.291362e+01
5.595951e+01	-1.296121e+01
5.628273e+01	-1.300896e+01
5.660782e+01	-1.305629e+01
5.693479e+01	-1.310456e+01
5.726364e+01	-1.315118e+01
5.759439e+01	-1.319918e+01
5.792705e+01	-1.324664e+01
5.826164e+01	-1.329432e+01
5.859815e+01	-1.334226e+01
5.893662e+01	-1.338968e+01
5.927703e+01	-1.343807e+01
5.961941e+01	-1.348526e+01
5.996377e+01	-1.353312e+01
6.031012e+01	-1.358075e+01
6.065847e+01	-1.362833e+01
6.100883e+01	-1.367624e+01
6.136121e+01	-1.372388e+01
6.171563e+01	-1.377237e+01
6.207210e+01	-1.382079e+01
6.243063e+01	-1.386815e+01
6.279122e+01	-1.391609e+01
6.315390e+01	-1.396403e+01
6.351868e+01	-1.401221e+01
6.388556e+01	-1.406095e+01
6.425456e+01	-1.410796e+01
6.462569e+01	-1.415723e+01
6.499897e+01	-1.420473e+01
6.537440e+01	-1.425292e+01
6.575200e+01	-1.430094e+01
6.613178e+01	-1.434929e+01
6.651375e+01	-1.439681e+01
6.689793e+01	-1.444557e+01
6.728433e+01	-1.449355e+01
6.767297e+01	-1.454258e+01
6.806384e+01	-1.459057e+01
6.845698e+01	-1.463926e+01
6.885238e+01	-1.468681e+01
6.925007e+01	-1.473543e+01
6.965005e+01	-1.478332e+01
7.005235e+01	-1.483184e+01
7.045697e+01	-1.488087e+01
7.086393e+01	-1.492925e+01
7.127323e+01	-1.497738e+01
7.168490e+01	-1.502563e+01
7.209895e+01	-1.507434e+01
7.251539e+01	-1.512260e+01
7.293424e+01	-1.517048e+01
7.335551e+01	-1.521926e+01
7.377920e+01	-1.526761e+01
7.420535e+01	-1.531588e+01
7.463396e+01	-1.536575e+01
7.506504e+01	-1.541320e+01
7.549861e+01	-1.546185e+01
7.593469e+01	-1.551191e+01
7.637328e+01	-1.555992e+01
7.681441e+01	-1.560830e+01
7.725809e+01	-1.565763e+01
7.770433e+01	-1.570610e+01
7.815315e+01	-1.575492e+01
7.860456e+01	-1.580313e+01
7.905857e+01	-1.585134e+01
7.951521e+01	-1.590016e+01
7.997449e+01	-1.594922e+01
8.043642e+01	-1.599783e+01
8.090102e+01	-1.604727e+01
8.136830e+01	-1.609704e+01
8.183828e+01	-1.614531e+01
8.231097e+01	-1.619258e+01
8.278640e+01	-1.624330e+01
8.326457e+01	-1.629076e+01
8.374550e+01	-1.633983e+01
8.422921e+01	-1.638978e+01
8.471572e+01	-1.643753e+01
8.520503e+01	-1.648618e+01
8.569717e+01	-1.653543e+01
8.619215e+01	-1.658518e+01
8.669000e+01	-1.663329e+01
8.719071e+01	-1.668200e+01
8.769432e+01	-1.673133e+01
8.820084e+01	-1.678032e+01
8.871029e+01	-1.682911e+01
8.922267e+01	-1.687870e+01
8.973802e+01	-1.692822e+01
9.025634e+01	-1.697587e+01
9.077766e+01	-1.702436e+01
9.130199e+01	-1.707354e+01
9.182935e+01	-1.712318e+01
9.235975e+01	-1.717233e+01
9.289321e+01	-1.722183e+01
9.342976e+01	-1.727036e+01
9.396941e+01	-1.731956e+01
9.451217e+01	-1.736810e+01
9.505807e+01	-1.741768e+01
9.560712e+01	-1.746754e+01
9.615934e+01	-1.751696e+01
9.671476e+01	-1.756588e+01
9.727338e+01	-1.761447e+01
9.783522e+01	-1.766386e+01
9.840032e+01	-1.771275e+01
9.896867e+01	-1.776288e+01
9.954031e+01	-1.781126e+01
1.001153e+02	-1.786043e+01
1.006935e+02	-1.791082e+01
1.012751e+02	-1.795900e+01
1.018601e+02	-1.800891e+01
1.024484e+02	-1.805688e+01
1.030402e+02	-1.810668e+01
1.036353e+02	-1.815477e+01
1.042339e+02	-1.820535e+01
1.048360e+02	-1.825373e+01
1.054415e+02	-1.830338e+01
1.060505e+02	-1.835261e+01
1.066631e+02	-1.840246e+01
1.072791e+02	-1.845083e+01
1.078988e+02	-1.850129e+01
1.085220e+02	-1.855035e+01
1.091488e+02	-1.860026e+01
1.097793e+02	-1.864783e+01
1.104133e+02	-1.869864e+01
1.110511e+02	-1.874710e+01
1.116925e+02	-1.879721e+01
1.123376e+02	-1.884688e+01
1.129865e+02	-1.889592e+01
1.136391e+02	-1.894559e+01
1.142955e+02	-1.899545e+01
1.149556e+02	-1.904350e+01
1.156196e+02	-1.909462e+01
1.162874e+02	-1.914388e+01
1.169591e+02	-1.919258e+01
1.176347e+02	-1.924258e+01
1.183141e+02	-1.929137e+01
1.189975e+02	-1.934165e+01
1.196848e+02	-1.939015e+01
1.203761e+02	-1.943935e+01
1.210714e+02	-1.948928e+01
1.217707e+02	-1.953902e+01
1.224740e+02	-1.958850e+01
1.231814e+02	-1.963726e+01
1.238929e+02	-1.968871e+01
1.246085e+02	-1.973696e+01
1.253283e+02	-1.978625e+01
1.260522e+02	-1.983611e+01
1.267802e+02	-1.988492e+01
1.275125e+02	-1.993462e+01
1.282490e+02	-1.998393e+01
1.289898e+02	-2.003308e+01
1.297348e+02	-2.008237e+01
1.304842e+02	-2.013464e+01
1.312378e+02	-2.018344e+01
1.319959e+02	-2.023296e+01
1.327583e+02	-2.028258e+01
1.335251e+02	-2.033082e+01
1.342963e+02	-2.038102e+01
1.350720e+02	-2.043170e+01
1.358522e+02	-2.048026e+01
1.366368e+02	-2.052903e+01
1.374260e+02	-2.057837e+01
1.382198e+02	-2.062923e+01
1.390182e+02	-2.067863e+01
1.398211e+02	-2.072664e+01
1.406287e+02	-2.077666e+01
1.414410e+02	-2.082617e+01
1.422579e+02	-2.087596e+01
1.430796e+02	-2.092498e+01
1.439060e+02	-2.097795e+01
1.447372e+02	-2.102631e+01
1.455732e+02	-2.107575e+01
1.464141e+02	-2.112563e+01
1.472597e+02	-2.117461e+01
1.481103e+02	-2.122304e+01
1.489658e+02	-2.127393e+01
1.498262e+02	-2.132393e+01
1.506916e+02	-2.137163e+01
1.515620e+02	-2.142347e+01
1.524374e+02	-2.147138e+01
1.533179e+02	-2.152139e+01
1.542034e+02	-2.157154e+01
1.550941e+02	-2.161982e+01
1.559899e+02	-2.167169e+01
1.568909e+02	-2.172148e+01
1.577971e+02	-2.177011e+01
1.587085e+02	-2.182180e+01
1.596252e+02	-2.186902e+01
1.605472e+02	-2.192147e+01
1.614745e+02	-2.197146e+01
1.624072e+02	-2.201862e+01
1.633453e+02	-2.206995e+01
1.642887e+02	-2.211882e+01
1.652377e+02	-2.216837e+01
1.661921e+02	-2.221769e+01
1.671520e+02	-2.226899e+01
1.681175e+02	-2.231666e+01
1.690885e+02	-2.236852e+01
1.700651e+02	-2.241571e+01
1.710474e+02	-2.246698e+01
1.720354e+02	-2.251750e+01
1.730291e+02	-2.256710e+01
1.740285e+02	-2.261755e+01
1.750337e+02	-2.266723e+01
1.760446e+02	-2.271545e+01
1.770615e+02	-2.276478e+01
1.780842e+02	-2.281613e+01
1.791128e+02	-2.286583e+01
1.801473e+02	-2.291391e+01
1.811878e+02	-2.296514e+01
1.822344e+02	-2.301825e+01
1.832870e+02	-2.306355e+01
1.843456e+02	-2.311507e+01
1.854104e+02	-2.315936e+01
1.864813e+02	-2.321094e+01
1.875584e+02	-2.326419e+01
1.886418e+02	-2.331275e+01
1.897313e+02	-2.336187e+01
1.908272e+02	-2.341285e+01
1.919294e+02	-2.346290e+01
1.930380e+02	-2.351645e+01
1.941530e+02	-2.356327e+01
1.952744e+02	-2.361216e+01
1.964023e+02	-2.366307e+01
1.975367e+02	-2.371325e+01
1.986777e+02	-2.376286e+01
1.998252e+02	-2.381101e+01
2.009794e+02	-2.386472e+01
2.021403e+02	-2.391097e+01
2.033078e+02	-2.396290e+01
2.044821e+02	-2.401362e+01
2.056632e+02	-2.406074e+01
2.068511e+02	-2.410983e+01
2.080459e+02	-2.416304e+01
2.092475e+02	-2.421206e+01
2.104561e+02	-2.426102e+01
2.116717e+02	-2.431062e+01
2.128943e+02	-2.435956e+01
2.141240e+02	-2.440704e+01
2.153608e+02	-2.446094e+01
2.166047e+02	-2.451081e+01
2.178558e+02	-2.455923e+01
2.191141e+02	-2.460958e+01
2.203797e+02	-2.465931e+01
2.216526e+02	-2.470904e+01
2.229329e+02	-2.475965e+01
2.242205e+02	-2.481168e+01
2.255156e+02	-2.485994e+01
2.268182e+02	-2.490820e+01
2.281283e+02	-2.495643e+01
2.294459e+02	-2.500964e+01
2.307712e+02	-2.505598e+01
2.321041e+02	-2.510910e+01
2.334447e+02	-2.516014e+01
2.347931e+02	-2.520590e+01
2.361493e+02	-2.525813e+01
2.375133e+02	-2.530827e+01
2.388851e+02	-2.535870e+01
2.402649e+02	-2.540673e+01
2.416527e+02	-2.545630e+01
2.430484e+02	-2.550924e+01
2.444523e+02	-2.555790e+01
2.458642e+02	-2.560912e+01
2.472843e+02	-2.565821e+01
2.487126e+02	-2.570599e+01
2.501492e+02	-2.575601e+01
2.515940e+02	-2.580993e+01
2.530472e+02	-2.585733e+01
2.545088e+02	-2.590853e+01
2.559789e+02	-2.595836e+01
2.574574e+02	-2.600748e+01
2.589444e+02	-2.605869e+01
2.604401e+02	-2.610592e+01
2.619444e+02	-2.615430e+01
2.634574e+02	-2.620903e+01
2.649791e+02	-2.625709e+01
2.665096e+02	-2.631008e+01
2.680489e+02	-2.636040e+01
2.695972e+02	-2.640885e+01
2.711544e+02	-2.645714e+01
2.727205e+02	-2.650574e+01
2.742958e+02	-2.655819e+01
2.758801e+02	-2.660472e+01
2.774736e+02	-2.665687e+01
2.790762e+02	-2.670701e+01
2.806882e+02	-2.675297e+01
2.823094e+02	-2.680454e+01
2.839400e+02	-2.685712e+01
2.855800e+02	-2.690625e+01
2.872295e+02	-2.696104e+01
2.888886e+02	-2.700857e+01
2.905572e+02	-2.705942e+01
2.922354e+02	-2.710932e+01
2.939234e+02	-2.716040e+01
2.956211e+02	-2.720923e+01
2.973286e+02	-2.725435e+01
2.990459e+02	-2.730459e+01
3.007732e+02	-2.735854e+01
3.025104e+02	-2.740852e+01
3.042577e+02	-2.745339e+01
3.060151e+02	-2.750283e+01
3.077826e+02	-2.755850e+01
3.095604e+02	-2.760680e+01
3.113484e+02	-2.765464e+01
3.131467e+02	-2.771009e+01
3.149554e+02	-2.775413e+01
3.167746e+02	-2.780346e+01
3.186043e+02	-2.785466e+01
3.204445e+02	-2.790223e+01
3.222954e+02	-2.795638e+01
3.241570e+02	-2.800909e+01
3.260293e+02	-2.805535e+01
3.279124e+02	-2.810924e+01
3.298064e+02	-2.815482e+01
3.317114e+02	-2.820547e+01
3.336273e+02	-2.825843e+01
3.355544e+02	-2.830383e+01
3.374925e+02	-2.835599e+01
3.394418e+02	-2.840476e+01
3.414024e+02	-2.845409e+01
3.433744e+02	-2.850570e+01
3.453577e+02	-2.855298e+01
3.473525e+02	-2.861074e+01
3.493588e+02	-2.865936e+01
3.513766e+02	-2.871148e+01
3.534062e+02	-2.875956e+01
3.554474e+02	-2.880507e+01
3.575005e+02	-2.885749e+01
3.595654e+02	-2.891208e+01
3.616422e+02	-2.895645e+01
3.637311e+02	-2.901067e+01
3.658320e+02	-2.906115e+01
3.679450e+02	-2.910607e+01
3.700702e+02	-2.915851e+01
3.722077e+02	-2.920716e+01
3.743576e+02	-2.925983e+01
3.765199e+02	-2.930786e+01
3.786946e+02	-2.935830e+01
3.808820e+02	-2.940778e+01
3.830819e+02	-2.945657e+01
3.852946e+02	-2.951126e+01
3.875200e+02	-2.956037e+01
3.897583e+02	-2.961193e+01
3.920096e+02	-2.965793e+01
3.942738e+02	-2.971604e+01
3.965511e+02	-2.976027e+01
3.988416e+02	-2.981073e+01
4.011452e+02	-2.985899e+01
4.034622e+02	-2.991013e+01
4.057926e+02	-2.995914e+01
4.081365e+02	-3.000762e+01
4.104938e+02	-3.005909e+01
4.128648e+02	-3.010869e+01
4.152495e+02	-3.015605e+01
4.176480e+02	-3.021219e+01
4.200603e+02	-3.026121e+01
4.224866e+02	-3.030947e+01
4.249268e+02	-3.036574e+01
4.273812e+02	-3.040511e+01
4.298497e+02	-3.045973e+01
4.323325e+02	-3.051455e+01
4.348297e+02	-3.056262e+01
4.373412e+02	-3.060891e+01
4.398673e+02	-3.066480e+01
4.424079e+02	-3.070857e+01
4.449633e+02	-3.076324e+01
4.475334e+02	-3.081009e+01
4.501183e+02	-3.086370e+01
4.527182e+02	-3.091598e+01
4.553330e+02	-3.095673e+01
4.579630e+02	-3.101405e+01
4.606082e+02	-3.106750e+01
4.632687e+02	-3.111352e+01
4.659445e+02	-3.116144e+01
4.686358e+02	-3.121275e+01
4.713426e+02	-3.126494e+01
4.740650e+02	-3.131516e+01
4.768032e+02	-3.136265e+01
4.795572e+02	-3.141168e+01
4.823271e+02	-3.146100e+01
4.851130e+02	-3.151027e+01
4.879150e+02	-3.156586e+01
4.907332e+02	-3.161418e+01
4.935676e+02	-3.166710e+01
4.964185e+02	-3.171177e+01
4.992858e+02	-3.176560e+01
5.021696e+02	-3.181236e+01
5.050701e+02	-3.185918e+01
5.079874e+02	-3.192588e+01
5.109215e+02	-3.196691e+01
5.138726e+02	-3.201622e+01
5.168407e+02	-3.206406e+01
5.198259e+02	-3.211147e+01
5.228284e+02	-3.216677e+01
5.258482e+02	-3.222017e+01
5.288855e+02	-3.227194e+01
5.319403e+02	-3.231628e+01
5.350128e+02	-3.236479e+01
5.381030e+02	-3.242087e+01
5.412111e+02	-3.246137e+01
5.443371e+02	-3.251400e+01
5.474812e+02	-3.256839e+01
5.506434e+02	-3.261264e+01
5.538239e+02	-3.266555e+01
5.570228e+02	-3.271696e+01
5.602401e+02	-3.276422e+01
5.634760e+02	-3.282532e+01
5.667306e+02	-3.286812e+01
5.700040e+02	-3.292257e+01
5.732964e+02	-3.296903e+01
5.766077e+02	-3.301417e+01
5.799382e+02	-3.307245e+01
5.832879e+02	-3.312209e+01
5.866569e+02	-3.317536e+01
5.900454e+02	-3.321346e+01
5.934535e+02	-3.326474e+01
5.968813e+02	-3.331779e+01
6.003288e+02	-3.337364e+01
6.037963e+02	-3.342748e+01
6.072838e+02	-3.347545e+01
6.107914e+02	-3.352655e+01
6.143194e+02	-3.357245e+01
6.178676e+02	-3.362322e+01
6.214364e+02	-3.367101e+01
6.250258e+02	-3.372236e+01
6.286359e+02	-3.378275e+01
6.322669e+02	-3.382948e+01
6.359189e+02	-3.386922e+01
6.395919e+02	-3.392370e+01
6.432862e+02	-3.398165e+01
6.470017e+02	-3.402722e+01
6.507388e+02	-3.407368e+01
6.544974e+02	-3.412773e+01
6.582778e+02	-3.417912e+01
6.620800e+02	-3.422225e+01
6.659041e+02	-3.427387e+01
6.697504e+02	-3.432540e+01
6.736188e+02	-3.438092e+01
6.775096e+02	-3.443065e+01
6.814229e+02	-3.447386e+01
6.853587e+02	-3.453149e+01
6.893173e+02	-3.457693e+01
6.932988e+02	-3.463831e+01
6.973033e+02	-3.468031e+01
7.013309e+02	-3.472980e+01
