Frequency(Hz)	Magnitude(dB)
1.000000e+01	-2.237133e+00
1.005776e+01	-2.257371e+00
1.011585e+01	-2.277726e+00
1.017428e+01	-2.298273e+00
1.023305e+01	-2.318926e+00
1.029215e+01	-2.339854e+00
1.035160e+01	-2.360544e+00
1.041139e+01	-2.381513e+00
1.047153e+01	-2.402810e+00
1.053201e+01	-2.424242e+00
1.059284e+01	-2.445801e+00
1.065403e+01	-2.467315e+00
1.071556e+01	-2.489078e+00
1.077746e+01	-2.510892e+00
1.083971e+01	-2.532870e+00
1.090232e+01	-2.555070e+00
1.096529e+01	-2.577234e+00
1.102862e+01	-2.599935e+00
1.109232e+01	-2.622559e+00
1.115639e+01	-2.645173e+00
1.122083e+01	-2.668009e+00
1.128564e+01	-2.691060e+00
1.135083e+01	-2.714502e+00
1.141639e+01	-2.737476e+00
1.148233e+01	-2.760974e+00
1.154865e+01	-2.784719e+00
1.161536e+01	-2.808433e+00
1.168245e+01	-2.832477e+00
1.174992e+01	-2.856403e+00
1.181779e+01	-2.880515e+00
1.188605e+01	-2.904843e+00
1.195470e+01	-2.929383e+00
1.202375e+01	-2.953849e+00
1.209320e+01	-2.978670e+00
1.216305e+01	-3.003671e+00
1.223330e+01	-3.028680e+00
1.230396e+01	-3.053957e+00
1.237503e+01	-3.079101e+00
1.244651e+01	-3.104478e+00
1.251840e+01	-3.130381e+00
1.259070e+01	-3.156120e+00
1.266343e+01	-3.181970e+00
1.273657e+01	-3.207738e+00
1.281014e+01	-3.234232e+00
1.288413e+01	-3.260544e+00
1.295855e+01	-3.286770e+00
1.303339e+01	-3.313770e+00
1.310867e+01	-3.340459e+00
1.318439e+01	-3.367377e+00
1.326054e+01	-3.394241e+00
1.333713e+01	-3.421667e+00
1.341417e+01	-3.449050e+00
1.349165e+01	-3.476323e+00
1.356958e+01	-3.503708e+00
1.364795e+01	-3.532025e+00
1.372678e+01	-3.559832e+00
1.380607e+01	-3.587769e+00
1.388581e+01	-3.616068e+00
1.396602e+01	-3.644206e+00
1.404668e+01	-3.672929e+00
1.412782e+01	-3.701120e+00
1.420942e+01	-3.730071e+00
1.429149e+01	-3.759183e+00
1.437404e+01	-3.788124e+00
1.445706e+01	-3.817266e+00
1.454057e+01	-3.846447e+00
1.462455e+01	-3.876189e+00
1.470902e+01	-3.905812e+00
1.479398e+01	-3.935546e+00
1.487943e+01	-3.965340e+00
1.496537e+01	-3.995412e+00
1.505181e+01	-4.025529e+00
1.513875e+01	-4.055681e+00
1.522619e+01	-4.086533e+00
1.531414e+01	-4.117001e+00
1.540259e+01	-4.147697e+00
1.549156e+01	-4.178350e+00
1.558103e+01	-4.209378e+00
1.567103e+01	-4.240792e+00
1.576155e+01	-4.271808e+00
1.585258e+01	-4.303222e+00
1.594415e+01	-4.334686e+00
1.603624e+01	-4.366350e+00
1.612886e+01	-4.398081e+00
1.622202e+01	-4.430086e+00
1.631572e+01	-4.462373e+00
1.640996e+01	-4.494362e+00
1.650474e+01	-4.526498e+00
1.660008e+01	-4.559249e+00
1.669596e+01	-4.591294e+00
1.679239e+01	-4.624284e+00
1.688938e+01	-4.657307e+00
1.698694e+01	-4.690023e+00
1.708505e+01	-4.723000e+00
1.718373e+01	-4.756289e+00
1.728299e+01	-4.789859e+00
1.738281e+01	-4.823466e+00
1.748322e+01	-4.856985e+00
1.758420e+01	-4.890566e+00
1.768576e+01	-4.924344e+00
1.778792e+01	-4.958477e+00
1.789066e+01	-4.992770e+00
1.799399e+01	-5.026914e+00
1.809793e+01	-5.061321e+00
1.820246e+01	-5.095763e+00
1.830760e+01	-5.130451e+00
1.841334e+01	-5.165011e+00
1.851969e+01	-5.199978e+00
1.862666e+01	-5.234797e+00
1.873425e+01	-5.269910e+00
1.884246e+01	-5.305034e+00
1.895129e+01	-5.340600e+00
1.906075e+01	-5.375831e+00
1.917085e+01	-5.411697e+00
1.928158e+01	-5.447116e+00
1.939295e+01	-5.483057e+00
1.950496e+01	-5.519159e+00
1.961762e+01	-5.555487e+00
1.973093e+01	-5.591125e+00
1.984490e+01	-5.627512e+00
1.995952e+01	-5.663670e+00
2.007480e+01	-5.700535e+00
2.019076e+01	-5.736960e+00
2.030738e+01	-5.773748e+00
2.042467e+01	-5.810661e+00
2.054264e+01	-5.847447e+00
2.066130e+01	-5.884605e+00
2.078064e+01	-5.921954e+00
2.090066e+01	-5.959066e+00
2.102139e+01	-5.996460e+00
2.114280e+01	-6.033770e+00
2.126492e+01	-6.071900e+00
2.138775e+01	-6.109326e+00
2.151128e+01	-6.147139e+00
2.163553e+01	-6.185024e+00
2.176050e+01	-6.223097e+00
2.188619e+01	-6.261183e+00
2.201260e+01	-6.299477e+00
2.213974e+01	-6.337934e+00
2.226762e+01	-6.376244e+00
2.239624e+01	-6.414894e+00
2.252560e+01	-6.453457e+00
2.265571e+01	-6.491938e+00
2.278656e+01	-6.531135e+00
2.291818e+01	-6.570056e+00
2.305055e+01	-6.609453e+00
2.318369e+01	-6.648006e+00
2.331760e+01	-6.687354e+00
2.345228e+01	-6.726960e+00
2.358774e+01	-6.766392e+00
2.372398e+01	-6.806054e+00
2.386101e+01	-6.845425e+00
2.399883e+01	-6.885232e+00
2.413745e+01	-6.924874e+00
2.427686e+01	-6.964591e+00
2.441709e+01	-7.004816e+00
2.455812e+01	-7.044906e+00
2.469997e+01	-7.085349e+00
2.484263e+01	-7.125485e+00
2.498612e+01	-7.165474e+00
2.513044e+01	-7.206555e+00
2.527559e+01	-7.247152e+00
2.542158e+01	-7.287483e+00
2.556842e+01	-7.328422e+00
2.571610e+01	-7.369020e+00
2.586463e+01	-7.410569e+00
2.601403e+01	-7.451082e+00
2.616428e+01	-7.492003e+00
2.631541e+01	-7.533162e+00
2.646740e+01	-7.574625e+00
2.662028e+01	-7.615654e+00
2.677404e+01	-7.657167e+00
2.692868e+01	-7.698513e+00
2.708422e+01	-7.740540e+00
2.724066e+01	-7.782222e+00
2.739800e+01	-7.823460e+00
2.755625e+01	-7.865518e+00
2.771541e+01	-7.907531e+00
2.787550e+01	-7.949141e+00
2.803650e+01	-7.991156e+00
2.819844e+01	-8.033382e+00
2.836131e+01	-8.075521e+00
2.852513e+01	-8.117752e+00
2.868989e+01	-8.160214e+00
2.885560e+01	-8.202599e+00
2.902227e+01	-8.245620e+00
2.918990e+01	-8.287873e+00
2.935850e+01	-8.330317e+00
2.952807e+01	-8.373500e+00
2.969863e+01	-8.415843e+00
2.987016e+01	-8.458369e+00
3.004269e+01	-8.501772e+00
3.021622e+01	-8.544849e+00
3.039075e+01	-8.587588e+00
3.056628e+01	-8.630410e+00
3.074283e+01	-8.674233e+00
3.092040e+01	-8.717605e+00
3.109900e+01	-8.760559e+00
3.127862e+01	-8.804148e+00
3.145929e+01	-8.847557e+00
3.164099e+01	-8.891476e+00
3.182375e+01	-8.934680e+00
3.200756e+01	-8.978343e+00
3.219244e+01	-9.022024e+00
3.237838e+01	-9.065917e+00
3.256540e+01	-9.109649e+00
3.275349e+01	-9.153291e+00
3.294268e+01	-9.197522e+00
3.313295e+01	-9.241697e+00
3.332433e+01	-9.285776e+00
3.351681e+01	-9.329805e+00
3.371040e+01	-9.373674e+00
3.390511e+01	-9.418507e+00
3.410094e+01	-9.462926e+00
3.429791e+01	-9.506618e+00
3.449601e+01	-9.551357e+00
3.469526e+01	-9.596005e+00
3.489566e+01	-9.640891e+00
3.509721e+01	-9.685366e+00
3.529993e+01	-9.729959e+00
3.550382e+01	-9.774896e+00
3.570889e+01	-9.819328e+00
3.591515e+01	-9.864185e+00
3.612259e+01	-9.909161e+00
3.633123e+01	-9.954352e+00
3.654108e+01	-9.998765e+00
3.675214e+01	-1.004466e+01
3.696442e+01	-1.008913e+01
3.717792e+01	-1.013497e+01
3.739266e+01	-1.017975e+01
3.760864e+01	-1.022544e+01
3.782587e+01	-1.027009e+01
3.804435e+01	-1.031560e+01
3.826409e+01	-1.036147e+01
3.848510e+01	-1.040617e+01
3.870739e+01	-1.045192e+01
3.893096e+01	-1.049763e+01
3.915583e+01	-1.054336e+01
3.938199e+01	-1.058835e+01
3.960946e+01	-1.063484e+01
3.983824e+01	-1.068047e+01
4.006834e+01	-1.072562e+01
4.029978e+01	-1.077159e+01
4.053255e+01	-1.081693e+01
4.076666e+01	-1.086339e+01
4.100213e+01	-1.090890e+01
4.123896e+01	-1.095514e+01
4.147715e+01	-1.100187e+01
4.171672e+01	-1.104763e+01
4.195767e+01	-1.109421e+01
4.220002e+01	-1.113923e+01
4.244377e+01	-1.118620e+01
4.268892e+01	-1.123216e+01
4.293549e+01	-1.127823e+01
4.318348e+01	-1.132527e+01
4.343291e+01	-1.137134e+01
4.368377e+01	-1.141695e+01
4.393609e+01	-1.146459e+01
4.418986e+01	-1.151043e+01
4.444510e+01	-1.155725e+01
4.470182e+01	-1.160326e+01
4.496001e+01	-1.165012e+01
4.521970e+01	-1.169662e+01
4.548089e+01	-1.174355e+01
4.574358e+01	-1.178991e+01
4.600779e+01	-1.183721e+01
4.627353e+01	-1.188339e+01
4.654081e+01	-1.193053e+01
4.680963e+01	-1.197732e+01
4.708000e+01	-1.202420e+01
4.735193e+01	-1.207091e+01
4.762543e+01	-1.211798e+01
4.790051e+01	-1.216495e+01
4.817719e+01	-1.221234e+01
4.845545e+01	-1.225863e+01
4.873533e+01	-1.230563e+01
4.901682e+01	-1.235322e+01
4.929994e+01	-1.240049e+01
4.958470e+01	-1.244772e+01
4.987110e+01	-1.249463e+01
5.015915e+01	-1.254188e+01
5.044887e+01	-1.258898e+01
5.074026e+01	-1.263647e+01
5.103333e+01	-1.268392e+01
5.132810e+01	-1.273078e+01
5.162457e+01	-1.277866e+01
5.192275e+01	-1.282625e+01
5.222265e+01	-1.287286e+01
5.252429e+01	-1.292041e+01
5.282767e+01	-1.296714e+01
5.313280e+01	-1.301547e+01
5.343969e+01	-1.306376e+01
5.374836e+01	-1.311075e+01
5.405880e+01	-1.315896e+01
5.437105e+01	-1.320573e+01
5.468509e+01	-1.325391e+01
5.500095e+01	-1.330095e+01
5.531863e+01	-1.334899e+01
5.563815e+01	-1.339640e+01
5.595951e+01	-1.344467e+01
5.628273e+01	-1.349216e+01
5.660782e+01	-1.353999e+01
5.693479e+01	-1.358763e+01
5.726364e+01	-1.363629e+01
5.759439e+01	-1.368371e+01
5.792705e+01	-1.373144e+01
5.826164e+01	-1.377949e+01
5.859815e+01	-1.382718e+01
5.893662e+01	-1.387547e+01
5.927703e+01	-1.392343e+01
5.961941e+01	-1.397158e+01
5.996377e+01	-1.401964e+01
6.031012e+01	-1.406854e+01
6.065847e+01	-1.411545e+01
6.100883e+01	-1.416431e+01
6.136121e+01	-1.421123e+01
6.171563e+01	-1.425912e+01
6.207210e+01	-1.430814e+01
6.243063e+01	-1.435648e+01
6.279122e+01	-1.440479e+01
6.315390e+01	-1.445264e+01
6.351868e+01	-1.450189e+01
6.388556e+01	-1.454896e+01
6.425456e+01	-1.459728e+01
6.462569e+01	-1.464618e+01
6.499897e+01	-1.469511e+01
6.537440e+01	-1.474288e+01
6.575200e+01	-1.479055e+01
6.613178e+01	-1.483926e+01
6.651375e+01	-1.488759e+01
6.689793e+01	-1.493642e+01
6.728433e+01	-1.498420e+01
6.767297e+01	-1.503249e+01
6.806384e+01	-1.508104e+01
6.845698e+01	-1.512998e+01
6.885238e+01	-1.517818e+01
6.925007e+01	-1.522845e+01
6.965005e+01	-1.527479e+01
7.005235e+01	-1.532373e+01
7.045697e+01	-1.537281e+01
7.086393e+01	-1.542236e+01
7.127323e+01	-1.546965e+01
7.168490e+01	-1.551802e+01
7.209895e+01	-1.556683e+01
7.251539e+01	-1.561537e+01
7.293424e+01	-1.566367e+01
7.335551e+01	-1.571324e+01
7.377920e+01	-1.576130e+01
7.420535e+01	-1.581001e+01
7.463396e+01	-1.585901e+01
7.506504e+01	-1.590873e+01
7.549861e+01	-1.595675e+01
7.593469e+01	-1.600576e+01
7.637328e+01	-1.605454e+01
7.681441e+01	-1.610326e+01
7.725809e+01	-1.615129e+01
7.770433e+01	-1.620041e+01
7.815315e+01	-1.624866e+01
7.860456e+01	-1.629826e+01
7.905857e+01	-1.634763e+01
7.951521e+01	-1.639551e+01
7.997449e+01	-1.644467e+01
8.043642e+01	-1.649369e+01
8.090102e+01	-1.654397e+01
8.136830e+01	-1.659117e+01
8.183828e+01	-1.664185e+01
8.231097e+01	-1.669015e+01
8.278640e+01	-1.673848e+01
8.326457e+01	-1.678703e+01
8.374550e+01	-1.683706e+01
8.422921e+01	-1.688509e+01
8.471572e+01	-1.693523e+01
8.520503e+01	-1.698235e+01
8.569717e+01	-1.703340e+01
8.619215e+01	-1.708054e+01
8.669000e+01	-1.713053e+01
8.719071e+01	-1.718000e+01
8.769432e+01	-1.722859e+01
8.820084e+01	-1.727696e+01
8.871029e+01	-1.732676e+01
8.922267e+01	-1.737546e+01
8.973802e+01	-1.742585e+01
9.025634e+01	-1.747549e+01
9.077766e+01	-1.752396e+01
9.130199e+01	-1.757201e+01
9.182935e+01	-1.762075e+01
9.235975e+01	-1.767106e+01
9.289321e+01	-1.771988e+01
9.342976e+01	-1.776934e+01
9.396941e+01	-1.781837e+01
9.451217e+01	-1.786777e+01
9.505807e+01	-1.791590e+01
9.560712e+01	-1.796776e+01
9.615934e+01	-1.801477e+01
9.671476e+01	-1.806548e+01
9.727338e+01	-1.811417e+01
9.783522e+01	-1.816309e+01
9.840032e+01	-1.821237e+01
9.896867e+01	-1.826224e+01
9.954031e+01	-1.831224e+01
1.001153e+02	-1.836063e+01
1.006935e+02	-1.841050e+01
1.012751e+02	-1.846030e+01
1.018601e+02	-1.850846e+01
1.024484e+02	-1.855795e+01
1.030402e+02	-1.860631e+01
1.036353e+02	-1.865649e+01
1.042339e+02	-1.870619e+01
1.048360e+02	-1.875555e+01
1.054415e+02	-1.880423e+01
1.060505e+02	-1.885271e+01
1.066631e+02	-1.890246e+01
1.072791e+02	-1.895249e+01
1.078988e+02	-1.900268e+01
1.085220e+02	-1.905068e+01
1.091488e+02	-1.910023e+01
1.097793e+02	-1.915066e+01
1.104133e+02	-1.919975e+01
1.110511e+02	-1.924977e+01
1.116925e+02	-1.929822e+01
1.123376e+02	-1.934721e+01
1.129865e+02	-1.939691e+01
1.136391e+02	-1.944688e+01
1.142955e+02	-1.949749e+01
1.149556e+02	-1.954444e+01
1.156196e+02	-1.959413e+01
1.162874e+02	-1.964608e+01
1.169591e+02	-1.969364e+01
1.176347e+02	-1.974357e+01
1.183141e+02	-1.979344e+01
1.189975e+02	-1.984276e+01
1.196848e+02	-1.989270e+01
1.203761e+02	-1.994230e+01
1.210714e+02	-1.999045e+01
1.217707e+02	-2.004107e+01
1.224740e+02	-2.009031e+01
1.231814e+02	-2.014051e+01
1.238929e+02	-2.018960e+01
1.246085e+02	-2.023934e+01
1.253283e+02	-2.028793e+01
1.260522e+02	-2.033887e+01
1.267802e+02	-2.038791e+01
1.275125e+02	-2.043818e+01
1.282490e+02	-2.048872e+01
1.289898e+02	-2.053749e+01
1.297348e+02	-2.058429e+01
1.304842e+02	-2.063645e+01
1.312378e+02	-2.068450e+01
1.319959e+02	-2.073410e+01
1.327583e+02	-2.078527e+01
1.335251e+02	-2.083285e+01
1.342963e+02	-2.088443e+01
1.350720e+02	-2.093195e+01
1.358522e+02	-2.098357e+01
1.366368e+02	-2.103227e+01
1.374260e+02	-2.108057e+01
1.382198e+02	-2.113124e+01
1.390182e+02	-2.118086e+01
1.398211e+02	-2.123256e+01
1.406287e+02	-2.128039e+01
1.414410e+02	-2.133107e+01
1.422579e+02	-2.138024e+01
1.430796e+02	-2.142914e+01
1.439060e+02	-2.148024e+01
1.447372e+02	-2.153061e+01
1.455732e+02	-2.157834e+01
1.464141e+02	-2.162924e+01
1.472597e+02	-2.167886e+01
1.481103e+02	-2.172906e+01
1.489658e+02	-2.177888e+01
1.498262e+02	-2.183001e+01
1.506916e+02	-2.187680e+01
1.515620e+02	-2.192951e+01
1.524374e+02	-2.197749e+01
1.533179e+02	-2.202594e+01
1.542034e+02	-2.207692e+01
1.550941e+02	-2.212485e+01
1.559899e+02	-2.217644e+01
1.568909e+02	-2.222454e+01
1.577971e+02	-2.227639e+01
1.587085e+02	-2.232668e+01
1.596252e+02	-2.237569e+01
1.605472e+02	-2.242532e+01
1.614745e+02	-2.247562e+01
1.624072e+02	-2.252360e+01
1.633453e+02	-2.257307e+01
1.642887e+02	-2.262220e+01
1.652377e+02	-2.267127e+01
1.661921e+02	-2.272400e+01
1.671520e+02	-2.277261e+01
1.681175e+02	-2.282172e+01
1.690885e+02	-2.287259e+01
1.700651e+02	-2.292507e+01
1.710474e+02	-2.297132e+01
1.720354e+02	-2.302016e+01
1.730291e+02	-2.307331e+01
1.740285e+02	-2.312201e+01
1.750337e+02	-2.317082e+01
1.760446e+02	-2.322041e+01
1.770615e+02	-2.327189e+01
1.780842e+02	-2.332269e+01
1.791128e+02	-2.337227e+01
1.801473e+02	-2.341779e+01
1.811878e+02	-2.346934e+01
1.822344e+02	-2.351864e+01
1.832870e+02	-2.357001e+01
1.843456e+02	-2.362060e+01
1.854104e+02	-2.366805e+01
1.864813e+02	-2.372061e+01
1.875584e+02	-2.376827e+01
1.886418e+02	-2.381790e+01
1.897313e+02	-2.386980e+01
1.908272e+02	-2.391940e+01
1.919294e+02	-2.396848e+01
1.930380e+02	-2.401712e+01
1.941530e+02	-2.406773e+01
1.952744e+02	-2.411780e+01
1.964023e+02	-2.416835e+01
1.975367e+02	-2.421737e+01
1.986777e+02	-2.426764e+01
1.998252e+02	-2.431816e+01
2.009794e+02	-2.436706e+01
2.021403e+02	-2.441834e+01
2.033078e+02	-2.446765e+01
2.044821e+02	-2.451639e+01
2.056632e+02	-2.456731e+01
2.068511e+02	-2.461471e+01
2.080459e+02	-2.466664e+01
2.092475e+02	-2.471660e+01
2.104561e+02	-2.476984e+01
2.116717e+02	-2.481545e+01
2.128943e+02	-2.486719e+01
2.141240e+02	-2.491808e+01
2.153608e+02	-2.496572e+01
2.166047e+02	-2.501557e+01
2.178558e+02	-2.506423e+01
2.191141e+02	-2.511552e+01
2.203797e+02	-2.516373e+01
2.216526e+02	-2.521563e+01
2.229329e+02	-2.526469e+01
2.242205e+02	-2.531609e+01
2.255156e+02	-2.536583e+01
2.268182e+02	-2.541574e+01
2.281283e+02	-2.546448e+01
2.294459e+02	-2.551628e+01
2.307712e+02	-2.556331e+01
2.321041e+02	-2.561927e+01
2.334447e+02	-2.566370e+01
2.347931e+02	-2.571450e+01
2.361493e+02	-2.576413e+01
2.375133e+02	-2.581594e+01
2.388851e+02	-2.586464e+01
2.402649e+02	-2.591312e+01
2.416527e+02	-2.596448e+01
2.430484e+02	-2.601102e+01
2.444523e+02	-2.606511e+01
2.458642e+02	-2.611374e+01
2.472843e+02	-2.616656e+01
2.487126e+02	-2.621685e+01
2.501492e+02	-2.626571e+01
2.515940e+02	-2.631296e+01
2.530472e+02	-2.636397e+01
2.545088e+02	-2.641666e+01
2.559789e+02	-2.646218e+01
2.574574e+02	-2.651595e+01
2.589444e+02	-2.656257e+01
2.604401e+02	-2.661324e+01
2.619444e+02	-2.666184e+01
2.634574e+02	-2.671187e+01
2.649791e+02	-2.676857e+01
2.665096e+02	-2.681292e+01
2.680489e+02	-2.686466e+01
2.695972e+02	-2.691318e+01
2.711544e+02	-2.696251e+01
2.727205e+02	-2.701690e+01
2.742958e+02	-2.706509e+01
2.758801e+02	-2.711511e+01
2.774736e+02	-2.716540e+01
2.790762e+02	-2.721549e+01
2.806882e+02	-2.726026e+01
2.823094e+02	-2.731354e+01
2.839400e+02	-2.736469e+01
2.855800e+02	-2.741378e+01
2.872295e+02	-2.746460e+01
2.888886e+02	-2.751549e+01
2.905572e+02	-2.756514e+01
2.922354e+02	-2.761343e+01
2.939234e+02	-2.766276e+01
2.956211e+02	-2.771378e+01
2.973286e+02	-2.776641e+01
2.990459e+02	-2.781389e+01
3.007732e+02	-2.786502e+01
3.025104e+02	-2.791630e+01
3.042577e+02	-2.796600e+01
3.060151e+02	-2.801439e+01
3.077826e+02	-2.806199e+01
3.095604e+02	-2.811568e+01
3.113484e+02	-2.816222e+01
3.131467e+02	-2.821284e+01
3.149554e+02	-2.826692e+01
3.167746e+02	-2.831433e+01
3.186043e+02	-2.836603e+01
3.204445e+02	-2.841151e+01
3.222954e+02	-2.846672e+01
3.241570e+02	-2.851838e+01
3.260293e+02	-2.856318e+01
3.279124e+02	-2.861267e+01
3.298064e+02	-2.866178e+01
3.317114e+02	-2.871605e+01
3.336273e+02	-2.876513e+01
3.355544e+02	-2.881095e+01
3.374925e+02	-2.886325e+01
3.394418e+02	-2.891614e+01
3.414024e+02	-2.896671e+01
3.433744e+02	-2.902055e+01
3.453577e+02	-2.906513e+01
3.473525e+02	-2.911402e+01
3.493588e+02	-2.916495e+01
3.513766e+02	-2.921813e+01
3.534062e+02	-2.926646e+01
3.554474e+02	-2.931815e+01
3.575005e+02	-2.936985e+01
3.595654e+02	-2.941508e+01
3.616422e+02	-2.947023e+01
3.637311e+02	-2.951597e+01
3.658320e+02	-2.957073e+01
3.679450e+02	-2.961624e+01
3.700702e+02	-2.966811e+01
3.722077e+02	-2.971660e+01
3.743576e+02	-2.976716e+01
3.765199e+02	-2.981784e+01
3.786946e+02	-2.986537e+01
3.808820e+02	-2.991335e+01
3.830819e+02	-2.996754e+01
3.852946e+02	-3.001280e+01
3.875200e+02	-3.006524e+01
3.897583e+02	-3.012052e+01
3.920096e+02	-3.016402e+01
3.942738e+02	-3.021827e+01
3.965511e+02	-3.027186e+01
3.988416e+02	-3.031606e+01
4.011452e+02	-3.036877e+01
4.034622e+02	-3.042130e+01
4.057926e+02	-3.046787e+01
4.081365e+02	-3.051585e+01
4.104938e+02	-3.056870e+01
4.128648e+02	-3.061115e+01
4.152495e+02	-3.066660e+01
4.176480e+02	-3.072296e+01
4.200603e+02	-3.076516e+01
4.224866e+02	-3.081753e+01
4.249268e+02	-3.086672e+01
4.273812e+02	-3.091877e+01
4.298497e+02	-3.096369e+01
4.323325e+02	-3.102094e+01
4.348297e+02	-3.106338e+01
4.373412e+02	-3.111963e+01
4.398673e+02	-3.116649e+01
4.424079e+02	-3.121845e+01
4.449633e+02	-3.127037e+01
4.475334e+02	-3.131883e+01
4.501183e+02	-3.136678e+01
4.527182e+02	-3.142193e+01
4.553330e+02	-3.147166e+01
4.579630e+02	-3.151657e+01
4.606082e+02	-3.157310e+01
4.632687e+02	-3.162120e+01
4.659445e+02	-3.166868e+01
4.686358e+02	-3.171928e+01
4.713426e+02	-3.176790e+01
4.740650e+02	-3.181722e+01
4.768032e+02	-3.187161e+01
4.795572e+02	-3.192304e+01
4.823271e+02	-3.197497e+01
4.851130e+02	-3.202430e+01
4.879150e+02	-3.207252e+01
4.907332e+02	-3.211803e+01
4.935676e+02	-3.217409e+01
4.964185e+02	-3.222012e+01
4.992858e+02	-3.226858e+01
5.021696e+02	-3.232515e+01
5.050701e+02	-3.237452e+01
5.079874e+02	-3.242813e+01
5.109215e+02	-3.247531e+01
5.138726e+02	-3.252839e+01
5.168407e+02	-3.256801e+01
5.198259e+02	-3.262938e+01
5.228284e+02	-3.267049e+01
5.258482e+02	-3.272223e+01
5.288855e+02	-3.276832e+01
5.319403e+02	-3.282514e+01
5.350128e+02	-3.287240e+01
5.381030e+02	-3.293097e+01
5.412111e+02	-3.297427e+01
5.443371e+02	-3.302355e+01
5.474812e+02	-3.307310e+01
5.506434e+02	-3.313043e+01
5.538239e+02	-3.317443e+01
5.570228e+02	-3.322734e+01
5.602401e+02	-3.328573e+01
5.634760e+02	-3.333329e+01
5.667306e+02	-3.337206e+01
5.700040e+02	-3.343126e+01
5.732964e+02	-3.347909e+01
5.766077e+02	-3.353510e+01
5.799382e+02	-3.358791e+01
5.832879e+02	-3.363193e+01
5.866569e+02	-3.368502e+01
5.900454e+02	-3.373103e+01
5.934535e+02	-3.377656e+01
5.968813e+02	-3.383601e+01
6.003288e+02	-3.387903e+01
6.037963e+02	-3.393188e+01
6.072838e+02	-3.398447e+01
6.107914e+02	-3.403321e+01
6.143194e+02	-3.409225e+01
6.178676e+02	-3.412723e+01
6.214364e+02	-3.418996e+01
6.250258e+02	-3.423310e+01
6.286359e+02	-3.429204e+01
6.322669e+02	-3.433544e+01
6.359189e+02	-3.439102e+01
6.395919e+02	-3.443807e+01
6.432862e+02	-3.449618e+01
6.470017e+02	-3.454355e+01
6.507388e+02	-3.459384e+01
6.544974e+02	-3.462918e+01
6.582778e+02	-3.468973e+01
6.620800e+02	-3.473207e+01
6.659041e+02	-3.479687e+01
6.697504e+02	-3.483298e+01
6.736188e+02	-3.488985e+01
6.775096e+02	-3.493931e+01
6.814229e+02	-3.498588e+01
6.853587e+02	-3.503291e+01
6.893173e+02	-3.508552e+01
6.932988e+02	-3.514254e+01
6.973033e+02	-3.518691e+01
7.013309e+02	-3.523901e+01
