Frequency(Hz)	Magnitude(dB)
1.000000e+01	-2.118816e+00
1.005776e+01	-2.138196e+00
1.011585e+01	-2.157700e+00
1.017428e+01	-2.177301e+00
1.023305e+01	-2.197002e+00
1.029215e+01	-2.216945e+00
1.035160e+01	-2.236937e+00
1.041139e+01	-2.257416e+00
1.047153e+01	-2.277623e+00
1.053201e+01	-2.298098e+00
1.059284e+01	-2.318825e+00
1.065403e+01	-2.339523e+00
1.071556e+01	-2.360550e+00
1.077746e+01	-2.381604e+00
1.083971e+01	-2.402588e+00
1.090232e+01	-2.424113e+00
1.096529e+01	-2.445580e+00
1.102862e+01	-2.467009e+00
1.109232e+01	-2.488764e+00
1.115639e+01	-2.510683e+00
1.122083e+01	-2.532553e+00
1.128564e+01	-2.555014e+00
1.135083e+01	-2.577181e+00
1.141639e+01	-2.599710e+00
1.148233e+01	-2.622403e+00
1.154865e+01	-2.645012e+00
1.161536e+01	-2.667963e+00
1.168245e+01	-2.690753e+00
1.174992e+01	-2.714247e+00
1.181779e+01	-2.737436e+00
1.188605e+01	-2.761052e+00
1.195470e+01	-2.784541e+00
1.202375e+01	-2.808061e+00
1.209320e+01	-2.832266e+00
1.216305e+01	-2.856478e+00
1.223330e+01	-2.880508e+00
1.230396e+01	-2.904650e+00
1.237503e+01	-2.929416e+00
1.244651e+01	-2.953940e+00
1.251840e+01	-2.978669e+00
1.259070e+01	-3.003304e+00
1.266343e+01	-3.028469e+00
1.273657e+01	-3.053741e+00
1.281014e+01	-3.079118e+00
1.288413e+01	-3.104609e+00
1.295855e+01	-3.130140e+00
1.303339e+01	-3.155904e+00
1.310867e+01	-3.181907e+00
1.318439e+01	-3.207782e+00
1.326054e+01	-3.234092e+00
1.333713e+01	-3.260333e+00
1.341417e+01	-3.286657e+00
1.349165e+01	-3.313506e+00
1.356958e+01	-3.340290e+00
1.364795e+01	-3.367263e+00
1.372678e+01	-3.394229e+00
1.380607e+01	-3.421204e+00
1.388581e+01	-3.448742e+00
1.396602e+01	-3.476407e+00
1.404668e+01	-3.503718e+00
1.412782e+01	-3.531653e+00
1.420942e+01	-3.559466e+00
1.429149e+01	-3.587689e+00
1.437404e+01	-3.615812e+00
1.445706e+01	-3.644294e+00
1.454057e+01	-3.672916e+00
1.462455e+01	-3.701290e+00
1.470902e+01	-3.729952e+00
1.479398e+01	-3.758930e+00
1.487943e+01	-3.787958e+00
1.496537e+01	-3.817349e+00
1.505181e+01	-3.846420e+00
1.513875e+01	-3.876098e+00
1.522619e+01	-3.905602e+00
1.531414e+01	-3.935413e+00
1.540259e+01	-3.965153e+00
1.549156e+01	-3.995179e+00
1.558103e+01	-4.025354e+00
1.567103e+01	-4.055616e+00
1.576155e+01	-4.085923e+00
1.585258e+01	-4.116726e+00
1.594415e+01	-4.147466e+00
1.603624e+01	-4.178433e+00
1.612886e+01	-4.209379e+00
1.622202e+01	-4.240254e+00
1.631572e+01	-4.271489e+00
1.640996e+01	-4.302883e+00
1.650474e+01	-4.334457e+00
1.660008e+01	-4.366213e+00
1.669596e+01	-4.397950e+00
1.679239e+01	-4.429888e+00
1.688938e+01	-4.461935e+00
1.698694e+01	-4.494025e+00
1.708505e+01	-4.526665e+00
1.718373e+01	-4.558826e+00
1.728299e+01	-4.591125e+00
1.738281e+01	-4.624179e+00
1.748322e+01	-4.657102e+00
1.758420e+01	-4.689651e+00
1.768576e+01	-4.722850e+00
1.778792e+01	-4.756252e+00
1.789066e+01	-4.789481e+00
1.799399e+01	-4.822986e+00
1.809793e+01	-4.856592e+00
1.820246e+01	-4.890273e+00
1.830760e+01	-4.924293e+00
1.841334e+01	-4.958250e+00
1.851969e+01	-4.992554e+00
1.862666e+01	-5.026777e+00
1.873425e+01	-5.061148e+00
1.884246e+01	-5.095583e+00
1.895129e+01	-5.129763e+00
1.906075e+01	-5.164786e+00
1.917085e+01	-5.199683e+00
1.928158e+01	-5.234500e+00
1.939295e+01	-5.269664e+00
1.950496e+01	-5.305132e+00
1.961762e+01	-5.340518e+00
1.973093e+01	-5.376005e+00
1.984490e+01	-5.411607e+00
1.995952e+01	-5.447241e+00
2.007480e+01	-5.482289e+00
2.019076e+01	-5.518605e+00
2.030738e+01	-5.554984e+00
2.042467e+01	-5.591075e+00
2.054264e+01	-5.627077e+00
2.066130e+01	-5.664127e+00
2.078064e+01	-5.700042e+00
2.090066e+01	-5.736867e+00
2.102139e+01	-5.773628e+00
2.114280e+01	-5.810380e+00
2.126492e+01	-5.847416e+00
2.138775e+01	-5.884551e+00
2.151128e+01	-5.921727e+00
2.163553e+01	-5.958886e+00
2.176050e+01	-5.996489e+00
2.188619e+01	-6.033976e+00
2.201260e+01	-6.071517e+00
2.213974e+01	-6.109187e+00
2.226762e+01	-6.146762e+00
2.239624e+01	-6.184812e+00
2.252560e+01	-6.222860e+00
2.265571e+01	-6.260790e+00
2.278656e+01	-6.299516e+00
2.291818e+01	-6.337456e+00
2.305055e+01	-6.376067e+00
2.318369e+01	-6.414477e+00
2.331760e+01	-6.453439e+00
2.345228e+01	-6.491837e+00
2.358774e+01	-6.531137e+00
2.372398e+01	-6.569917e+00
2.386101e+01	-6.608842e+00
2.399883e+01	-6.648099e+00
2.413745e+01	-6.687359e+00
2.427686e+01	-6.726569e+00
2.441709e+01	-6.766085e+00
2.455812e+01	-6.805234e+00
2.469997e+01	-6.845774e+00
2.484263e+01	-6.885380e+00
2.498612e+01	-6.924813e+00
2.513044e+01	-6.964485e+00
2.527559e+01	-7.004886e+00
2.542158e+01	-7.044866e+00
2.556842e+01	-7.085325e+00
2.571610e+01	-7.125295e+00
2.586463e+01	-7.165832e+00
2.601403e+01	-7.206052e+00
2.616428e+01	-7.246675e+00
2.631541e+01	-7.287302e+00
2.646740e+01	-7.328591e+00
2.662028e+01	-7.368887e+00
2.677404e+01	-7.410246e+00
2.692868e+01	-7.450627e+00
2.708422e+01	-7.492047e+00
2.724066e+01	-7.533246e+00
2.739800e+01	-7.574180e+00
2.755625e+01	-7.615706e+00
2.771541e+01	-7.657009e+00
2.787550e+01	-7.698663e+00
2.803650e+01	-7.739692e+00
2.819844e+01	-7.781544e+00
2.836131e+01	-7.823549e+00
2.852513e+01	-7.865587e+00
2.868989e+01	-7.907147e+00
2.885560e+01	-7.949194e+00
2.902227e+01	-7.991103e+00
2.918990e+01	-8.033437e+00
2.935850e+01	-8.075776e+00
2.952807e+01	-8.117948e+00
2.969863e+01	-8.160065e+00
2.987016e+01	-8.202214e+00
3.004269e+01	-8.245099e+00
3.021622e+01	-8.287374e+00
3.039075e+01	-8.330319e+00
3.056628e+01	-8.372695e+00
3.074283e+01	-8.415801e+00
3.092040e+01	-8.458350e+00
3.109900e+01	-8.501152e+00
3.127862e+01	-8.544729e+00
3.145929e+01	-8.587388e+00
3.164099e+01	-8.630143e+00
3.182375e+01	-8.674036e+00
3.200756e+01	-8.717578e+00
3.219244e+01	-8.760285e+00
3.237838e+01	-8.803712e+00
3.256540e+01	-8.847145e+00
3.275349e+01	-8.890940e+00
3.294268e+01	-8.934572e+00
3.313295e+01	-8.978253e+00
3.332433e+01	-9.021645e+00
3.351681e+01	-9.065781e+00
3.371040e+01	-9.109994e+00
3.390511e+01	-9.153345e+00
3.410094e+01	-9.197395e+00
3.429791e+01	-9.241901e+00
3.449601e+01	-9.285853e+00
3.469526e+01	-9.329575e+00
3.489566e+01	-9.374106e+00
3.509721e+01	-9.418243e+00
3.529993e+01	-9.462233e+00
3.550382e+01	-9.506599e+00
3.570889e+01	-9.551304e+00
3.591515e+01	-9.595917e+00
3.612259e+01	-9.640493e+00
3.633123e+01	-9.685265e+00
3.654108e+01	-9.729243e+00
3.675214e+01	-9.774344e+00
3.696442e+01	-9.819069e+00
3.717792e+01	-9.864328e+00
3.739266e+01	-9.908717e+00
3.760864e+01	-9.953539e+00
3.782587e+01	-9.998774e+00
3.804435e+01	-1.004392e+01
3.826409e+01	-1.008907e+01
3.848510e+01	-1.013374e+01
3.870739e+01	-1.017967e+01
3.893096e+01	-1.022407e+01
3.915583e+01	-1.027015e+01
3.938199e+01	-1.031509e+01
3.960946e+01	-1.036095e+01
3.983824e+01	-1.040590e+01
4.006834e+01	-1.045163e+01
4.029978e+01	-1.049726e+01
4.053255e+01	-1.054296e+01
4.076666e+01	-1.058791e+01
4.100213e+01	-1.063437e+01
4.123896e+01	-1.067990e+01
4.147715e+01	-1.072618e+01
4.171672e+01	-1.077149e+01
4.195767e+01	-1.081712e+01
4.220002e+01	-1.086281e+01
4.244377e+01	-1.090944e+01
4.268892e+01	-1.095476e+01
4.293549e+01	-1.100150e+01
4.318348e+01	-1.104688e+01
4.343291e+01	-1.109301e+01
4.368377e+01	-1.113965e+01
4.393609e+01	-1.118571e+01
4.418986e+01	-1.123166e+01
4.444510e+01	-1.127830e+01
4.470182e+01	-1.132438e+01
4.496001e+01	-1.137149e+01
4.521970e+01	-1.141696e+01
4.548089e+01	-1.146335e+01
4.574358e+01	-1.151064e+01
4.600779e+01	-1.155687e+01
4.627353e+01	-1.160324e+01
4.654081e+01	-1.164960e+01
4.680963e+01	-1.169650e+01
4.708000e+01	-1.174323e+01
4.735193e+01	-1.178990e+01
4.762543e+01	-1.183643e+01
4.790051e+01	-1.188328e+01
4.817719e+01	-1.192945e+01
4.845545e+01	-1.197664e+01
4.873533e+01	-1.202316e+01
4.901682e+01	-1.207147e+01
4.929994e+01	-1.211738e+01
4.958470e+01	-1.216445e+01
4.987110e+01	-1.221162e+01
5.015915e+01	-1.225817e+01
5.044887e+01	-1.230535e+01
5.074026e+01	-1.235316e+01
5.103333e+01	-1.239992e+01
5.132810e+01	-1.244723e+01
5.162457e+01	-1.249492e+01
5.192275e+01	-1.254070e+01
5.222265e+01	-1.258950e+01
5.252429e+01	-1.263614e+01
5.282767e+01	-1.268367e+01
5.313280e+01	-1.273111e+01
5.343969e+01	-1.277769e+01
5.374836e+01	-1.282565e+01
5.405880e+01	-1.287285e+01
5.437105e+01	-1.292071e+01
5.468509e+01	-1.296824e+01
5.500095e+01	-1.301569e+01
5.531863e+01	-1.306286e+01
5.563815e+01	-1.311098e+01
5.595951e+01	-1.315838e+01
5.628273e+01	-1.320534e+01
5.660782e+01	-1.325326e+01
5.693479e+01	-1.330158e+01
5.726364e+01	-1.334851e+01
5.759439e+01	-1.339576e+01
5.792705e+01	-1.344462e+01
5.826164e+01	-1.349231e+01
5.859815e+01	-1.354017e+01
5.893662e+01	-1.358738e+01
5.927703e+01	-1.363588e+01
5.961941e+01	-1.368307e+01
5.996377e+01	-1.373054e+01
6.031012e+01	-1.377925e+01
6.065847e+01	-1.382698e+01
6.100883e+01	-1.387454e+01
6.136121e+01	-1.392337e+01
6.171563e+01	-1.397104e+01
6.207210e+01	-1.401880e+01
6.243063e+01	-1.406653e+01
6.279122e+01	-1.411577e+01
6.315390e+01	-1.416315e+01
6.351868e+01	-1.421125e+01
6.388556e+01	-1.425990e+01
6.425456e+01	-1.430669e+01
6.462569e+01	-1.435554e+01
6.499897e+01	-1.440468e+01
6.537440e+01	-1.445205e+01
6.575200e+01	-1.449995e+01
6.613178e+01	-1.455003e+01
6.651375e+01	-1.459724e+01
6.689793e+01	-1.464538e+01
6.728433e+01	-1.469374e+01
6.767297e+01	-1.474233e+01
6.806384e+01	-1.479063e+01
6.845698e+01	-1.483957e+01
6.885238e+01	-1.488756e+01
6.925007e+01	-1.493557e+01
6.965005e+01	-1.498381e+01
7.005235e+01	-1.503266e+01
7.045697e+01	-1.508096e+01
7.086393e+01	-1.512956e+01
7.127323e+01	-1.517815e+01
7.168490e+01	-1.522641e+01
7.209895e+01	-1.527520e+01
7.251539e+01	-1.532344e+01
7.293424e+01	-1.537312e+01
7.335551e+01	-1.542067e+01
7.377920e+01	-1.546924e+01
7.420535e+01	-1.551748e+01
7.463396e+01	-1.556705e+01
7.506504e+01	-1.561565e+01
7.549861e+01	-1.566389e+01
7.593469e+01	-1.571221e+01
7.637328e+01	-1.576205e+01
7.681441e+01	-1.581023e+01
7.725809e+01	-1.585892e+01
7.770433e+01	-1.590762e+01
7.815315e+01	-1.595661e+01
7.860456e+01	-1.600460e+01
7.905857e+01	-1.605436e+01
7.951521e+01	-1.610271e+01
7.997449e+01	-1.615193e+01
8.043642e+01	-1.620125e+01
8.090102e+01	-1.624858e+01
8.136830e+01	-1.629880e+01
8.183828e+01	-1.634688e+01
8.231097e+01	-1.639617e+01
8.278640e+01	-1.644468e+01
8.326457e+01	-1.649388e+01
8.374550e+01	-1.654298e+01
8.422921e+01	-1.659179e+01
8.471572e+01	-1.663996e+01
8.520503e+01	-1.669043e+01
8.569717e+01	-1.673828e+01
8.619215e+01	-1.678719e+01
8.669000e+01	-1.683578e+01
8.719071e+01	-1.688573e+01
8.769432e+01	-1.693286e+01
8.820084e+01	-1.698336e+01
8.871029e+01	-1.703158e+01
8.922267e+01	-1.708134e+01
8.973802e+01	-1.712991e+01
9.025634e+01	-1.718005e+01
9.077766e+01	-1.722870e+01
9.130199e+01	-1.727848e+01
9.182935e+01	-1.732644e+01
9.235975e+01	-1.737458e+01
9.289321e+01	-1.742465e+01
9.342976e+01	-1.747296e+01
9.396941e+01	-1.752241e+01
9.451217e+01	-1.757292e+01
9.505807e+01	-1.762190e+01
9.560712e+01	-1.766918e+01
9.615934e+01	-1.772058e+01
9.671476e+01	-1.776814e+01
9.727338e+01	-1.781943e+01
9.783522e+01	-1.786772e+01
9.840032e+01	-1.791748e+01
9.896867e+01	-1.796619e+01
9.954031e+01	-1.801560e+01
1.001153e+02	-1.806576e+01
1.006935e+02	-1.811224e+01
1.012751e+02	-1.816190e+01
1.018601e+02	-1.821307e+01
1.024484e+02	-1.826117e+01
1.030402e+02	-1.831004e+01
1.036353e+02	-1.836033e+01
1.042339e+02	-1.841069e+01
1.048360e+02	-1.845966e+01
1.054415e+02	-1.850785e+01
1.060505e+02	-1.855679e+01
1.066631e+02	-1.860660e+01
1.072791e+02	-1.865474e+01
1.078988e+02	-1.870537e+01
1.085220e+02	-1.875463e+01
1.091488e+02	-1.880375e+01
1.097793e+02	-1.885356e+01
1.104133e+02	-1.890233e+01
1.110511e+02	-1.895155e+01
1.116925e+02	-1.900076e+01
1.123376e+02	-1.905137e+01
1.129865e+02	-1.909983e+01
1.136391e+02	-1.915081e+01
1.142955e+02	-1.919992e+01
1.149556e+02	-1.924857e+01
1.156196e+02	-1.929720e+01
1.162874e+02	-1.934751e+01
1.169591e+02	-1.939822e+01
1.176347e+02	-1.944685e+01
1.183141e+02	-1.949604e+01
1.189975e+02	-1.954599e+01
1.196848e+02	-1.959502e+01
1.203761e+02	-1.964463e+01
1.210714e+02	-1.969290e+01
1.217707e+02	-1.974288e+01
1.224740e+02	-1.979274e+01
1.231814e+02	-1.984360e+01
1.238929e+02	-1.989245e+01
1.246085e+02	-1.994179e+01
1.253283e+02	-1.999107e+01
1.260522e+02	-2.004160e+01
1.267802e+02	-2.009145e+01
1.275125e+02	-2.014114e+01
1.282490e+02	-2.018939e+01
1.289898e+02	-2.023959e+01
1.297348e+02	-2.028992e+01
1.304842e+02	-2.033668e+01
1.312378e+02	-2.038801e+01
1.319959e+02	-2.043665e+01
1.327583e+02	-2.048654e+01
1.335251e+02	-2.053736e+01
1.342963e+02	-2.058551e+01
1.350720e+02	-2.063582e+01
1.358522e+02	-2.068407e+01
1.366368e+02	-2.073432e+01
1.374260e+02	-2.078636e+01
1.382198e+02	-2.083247e+01
1.390182e+02	-2.088409e+01
1.398211e+02	-2.093171e+01
1.406287e+02	-2.098355e+01
1.414410e+02	-2.103151e+01
1.422579e+02	-2.108321e+01
1.430796e+02	-2.113215e+01
1.439060e+02	-2.118083e+01
1.447372e+02	-2.123160e+01
1.455732e+02	-2.128157e+01
1.464141e+02	-2.132860e+01
1.472597e+02	-2.138028e+01
1.481103e+02	-2.142931e+01
1.489658e+02	-2.148008e+01
1.498262e+02	-2.152896e+01
1.506916e+02	-2.157819e+01
1.515620e+02	-2.162965e+01
1.524374e+02	-2.167572e+01
1.533179e+02	-2.172786e+01
1.542034e+02	-2.177825e+01
1.550941e+02	-2.182685e+01
1.559899e+02	-2.187696e+01
1.568909e+02	-2.192611e+01
1.577971e+02	-2.197554e+01
1.587085e+02	-2.202705e+01
1.596252e+02	-2.207692e+01
1.605472e+02	-2.212544e+01
1.614745e+02	-2.217663e+01
1.624072e+02	-2.222747e+01
1.633453e+02	-2.227453e+01
1.642887e+02	-2.232571e+01
1.652377e+02	-2.237581e+01
1.661921e+02	-2.242237e+01
1.671520e+02	-2.247389e+01
1.681175e+02	-2.252537e+01
1.690885e+02	-2.257363e+01
1.700651e+02	-2.262319e+01
1.710474e+02	-2.267341e+01
1.720354e+02	-2.272220e+01
1.730291e+02	-2.277117e+01
1.740285e+02	-2.282039e+01
1.750337e+02	-2.287255e+01
1.760446e+02	-2.292154e+01
1.770615e+02	-2.297254e+01
1.780842e+02	-2.302119e+01
1.791128e+02	-2.307212e+01
1.801473e+02	-2.312151e+01
1.811878e+02	-2.317151e+01
1.822344e+02	-2.322045e+01
1.832870e+02	-2.327101e+01
1.843456e+02	-2.332155e+01
1.854104e+02	-2.337046e+01
1.864813e+02	-2.341850e+01
1.875584e+02	-2.347070e+01
1.886418e+02	-2.352023e+01
1.897313e+02	-2.356876e+01
1.908272e+02	-2.362058e+01
1.919294e+02	-2.366948e+01
1.930380e+02	-2.372007e+01
1.941530e+02	-2.376857e+01
1.952744e+02	-2.382021e+01
1.964023e+02	-2.387175e+01
1.975367e+02	-2.392025e+01
1.986777e+02	-2.397084e+01
1.998252e+02	-2.402032e+01
2.009794e+02	-2.406609e+01
2.021403e+02	-2.411568e+01
2.033078e+02	-2.416867e+01
2.044821e+02	-2.421770e+01
2.056632e+02	-2.426686e+01
2.068511e+02	-2.431534e+01
2.080459e+02	-2.436520e+01
2.092475e+02	-2.441951e+01
2.104561e+02	-2.446829e+01
2.116717e+02	-2.451652e+01
2.128943e+02	-2.456648e+01
2.141240e+02	-2.461654e+01
2.153608e+02	-2.466621e+01
2.166047e+02	-2.471674e+01
2.178558e+02	-2.476627e+01
2.191141e+02	-2.481446e+01
2.203797e+02	-2.486568e+01
2.216526e+02	-2.491635e+01
2.229329e+02	-2.496727e+01
2.242205e+02	-2.501591e+01
2.255156e+02	-2.506264e+01
2.268182e+02	-2.511718e+01
2.281283e+02	-2.516567e+01
2.294459e+02	-2.521437e+01
2.307712e+02	-2.526659e+01
2.321041e+02	-2.531763e+01
2.334447e+02	-2.536570e+01
2.347931e+02	-2.541605e+01
2.361493e+02	-2.546064e+01
2.375133e+02	-2.551521e+01
2.388851e+02	-2.556377e+01
2.402649e+02	-2.561466e+01
2.416527e+02	-2.566571e+01
2.430484e+02	-2.571648e+01
2.444523e+02	-2.576502e+01
2.458642e+02	-2.581508e+01
2.472843e+02	-2.586546e+01
2.487126e+02	-2.591501e+01
2.501492e+02	-2.596562e+01
2.515940e+02	-2.601412e+01
2.530472e+02	-2.606307e+01
2.545088e+02	-2.611444e+01
2.559789e+02	-2.616358e+01
2.574574e+02	-2.621432e+01
2.589444e+02	-2.626139e+01
2.604401e+02	-2.631415e+01
2.619444e+02	-2.636509e+01
2.634574e+02	-2.641403e+01
2.649791e+02	-2.646413e+01
2.665096e+02	-2.651424e+01
2.680489e+02	-2.656478e+01
2.695972e+02	-2.661381e+01
2.711544e+02	-2.666268e+01
2.727205e+02	-2.671093e+01
2.742958e+02	-2.676251e+01
2.758801e+02	-2.681553e+01
2.774736e+02	-2.686720e+01
2.790762e+02	-2.691629e+01
2.806882e+02	-2.696443e+01
2.823094e+02	-2.701483e+01
2.839400e+02	-2.706155e+01
2.855800e+02	-2.711518e+01
2.872295e+02	-2.716246e+01
2.888886e+02	-2.721212e+01
2.905572e+02	-2.726510e+01
2.922354e+02	-2.731300e+01
2.939234e+02	-2.736528e+01
2.956211e+02	-2.741259e+01
2.973286e+02	-2.746606e+01
2.990459e+02	-2.751838e+01
3.007732e+02	-2.756434e+01
3.025104e+02	-2.760867e+01
3.042577e+02	-2.766449e+01
3.060151e+02	-2.771411e+01
3.077826e+02	-2.776153e+01
3.095604e+02	-2.781319e+01
3.113484e+02	-2.786303e+01
3.131467e+02	-2.791532e+01
3.149554e+02	-2.796220e+01
3.167746e+02	-2.801016e+01
3.186043e+02	-2.806218e+01
3.204445e+02	-2.811663e+01
3.222954e+02	-2.816217e+01
3.241570e+02	-2.821281e+01
3.260293e+02	-2.826065e+01
3.279124e+02	-2.831220e+01
3.298064e+02	-2.836248e+01
3.317114e+02	-2.841616e+01
3.336273e+02	-2.846283e+01
3.355544e+02	-2.851338e+01
3.374925e+02	-2.856515e+01
3.394418e+02	-2.861522e+01
3.414024e+02	-2.866473e+01
3.433744e+02	-2.871460e+01
3.453577e+02	-2.876732e+01
3.473525e+02	-2.881323e+01
3.493588e+02	-2.886425e+01
3.513766e+02	-2.891873e+01
3.534062e+02	-2.896534e+01
3.554474e+02	-2.901548e+01
3.575005e+02	-2.906831e+01
3.595654e+02	-2.911646e+01
3.616422e+02	-2.916587e+01
3.637311e+02	-2.921335e+01
3.658320e+02	-2.926279e+01
3.679450e+02	-2.931055e+01
3.700702e+02	-2.936673e+01
3.722077e+02	-2.941620e+01
3.743576e+02	-2.946470e+01
3.765199e+02	-2.951257e+01
3.786946e+02	-2.956537e+01
3.808820e+02	-2.961673e+01
3.830819e+02	-2.966591e+01
3.852946e+02	-2.971870e+01
3.875200e+02	-2.976426e+01
3.897583e+02	-2.981285e+01
3.920096e+02	-2.987013e+01
3.942738e+02	-2.992035e+01
3.965511e+02	-2.996642e+01
3.988416e+02	-3.001630e+01
4.011452e+02	-3.006816e+01
4.034622e+02	-3.011347e+01
4.057926e+02	-3.016799e+01
4.081365e+02	-3.022067e+01
4.104938e+02	-3.026666e+01
4.128648e+02	-3.031704e+01
4.152495e+02	-3.037003e+01
4.176480e+02	-3.041338e+01
4.200603e+02	-3.046354e+01
4.224866e+02	-3.051652e+01
4.249268e+02	-3.056620e+01
4.273812e+02	-3.061577e+01
4.298497e+02	-3.066909e+01
4.323325e+02	-3.071662e+01
4.348297e+02	-3.076736e+01
4.373412e+02	-3.081449e+01
4.398673e+02	-3.087216e+01
4.424079e+02	-3.092071e+01
4.449633e+02	-3.097090e+01
4.475334e+02	-3.101569e+01
4.501183e+02	-3.107030e+01
4.527182e+02	-3.112081e+01
4.553330e+02	-3.116870e+01
4.579630e+02	-3.121762e+01
4.606082e+02	-3.127350e+01
4.632687e+02	-3.131911e+01
4.659445e+02	-3.136791e+01
4.686358e+02	-3.142082e+01
4.713426e+02	-3.147512e+01
4.740650e+02	-3.151720e+01
4.768032e+02	-3.157272e+01
4.795572e+02	-3.162185e+01
4.823271e+02	-3.167024e+01
4.851130e+02	-3.172142e+01
4.879150e+02	-3.177700e+01
4.907332e+02	-3.181731e+01
4.935676e+02	-3.187734e+01
4.964185e+02	-3.192680e+01
4.992858e+02	-3.197508e+01
5.021696e+02	-3.202301e+01
5.050701e+02	-3.207976e+01
5.079874e+02	-3.212952e+01
5.109215e+02	-3.216783e+01
5.138726e+02	-3.222416e+01
5.168407e+02	-3.227257e+01
5.198259e+02	-3.232430e+01
5.228284e+02	-3.237095e+01
5.258482e+02	-3.242404e+01
5.288855e+02	-3.247835e+01
5.319403e+02	-3.251855e+01
5.350128e+02	-3.257207e+01
5.381030e+02	-3.262673e+01
5.412111e+02	-3.267017e+01
5.443371e+02	-3.272455e+01
5.474812e+02	-3.277176e+01
5.506434e+02	-3.282447e+01
5.538239e+02	-3.288119e+01
5.570228e+02	-3.292821e+01
5.602401e+02	-3.297195e+01
5.634760e+02	-3.302151e+01
5.667306e+02	-3.307981e+01
5.700040e+02	-3.312552e+01
5.732964e+02	-3.317612e+01
5.766077e+02	-3.323450e+01
5.799382e+02	-3.327628e+01
5.832879e+02	-3.333077e+01
5.866569e+02	-3.337961e+01
5.900454e+02	-3.343041e+01
5.934535e+02	-3.347940e+01
5.968813e+02	-3.352870e+01
6.003288e+02	-3.357743e+01
6.037963e+02	-3.362248e+01
6.072838e+02	-3.368728e+01
6.107914e+02	-3.372462e+01
6.143194e+02	-3.378410e+01
6.178676e+02	-3.382477e+01
6.214364e+02	-3.388357e+01
6.250258e+02	-3.392639e+01
6.286359e+02	-3.397982e+01
6.322669e+02	-3.402981e+01
6.359189e+02	-3.407925e+01
6.395919e+02	-3.413522e+01
6.432862e+02	-3.417788e+01
6.470017e+02	-3.423649e+01
6.507388e+02	-3.428571e+01
6.544974e+02	-3.434011e+01
6.582778e+02	-3.438526e+01
6.620800e+02	-3.444072e+01
6.659041e+02	-3.449110e+01
6.697504e+02	-3.453561e+01
6.736188e+02	-3.458818e+01
6.775096e+02	-3.463401e+01
6.814229e+02	-3.468255e+01
6.853587e+02	-3.474201e+01
6.893173e+02	-3.478029e+01
6.932988e+02	-3.483529e+01
6.973033e+02	-3.489036e+01
7.013309e+02	-3.493417e+01
