Frequency(Hz)	Magnitude(dB)
1.000000e+01	-2.305110e+00
1.005776e+01	-2.325752e+00
1.011585e+01	-2.346551e+00
1.017428e+01	-2.367380e+00
1.023305e+01	-2.388691e+00
1.029215e+01	-2.409672e+00
1.035160e+01	-2.431081e+00
1.041139e+01	-2.452701e+00
1.047153e+01	-2.474292e+00
1.053201e+01	-2.496127e+00
1.059284e+01	-2.518049e+00
1.065403e+01	-2.540062e+00
1.071556e+01	-2.562274e+00
1.077746e+01	-2.584685e+00
1.083971e+01	-2.607377e+00
1.090232e+01	-2.630020e+00
1.096529e+01	-2.652752e+00
1.102862e+01	-2.675559e+00
1.109232e+01	-2.698873e+00
1.115639e+01	-2.722045e+00
1.122083e+01	-2.745264e+00
1.128564e+01	-2.768834e+00
1.135083e+01	-2.792482e+00
1.141639e+01	-2.816109e+00
1.148233e+01	-2.840220e+00
1.154865e+01	-2.864134e+00
1.161536e+01	-2.888634e+00
1.168245e+01	-2.912450e+00
1.174992e+01	-2.937326e+00
1.181779e+01	-2.961961e+00
1.188605e+01	-2.986750e+00
1.195470e+01	-3.011727e+00
1.202375e+01	-3.036814e+00
1.209320e+01	-3.062330e+00
1.216305e+01	-3.087495e+00
1.223330e+01	-3.113014e+00
1.230396e+01	-3.138912e+00
1.237503e+01	-3.164513e+00
1.244651e+01	-3.190347e+00
1.251840e+01	-3.216731e+00
1.259070e+01	-3.242746e+00
1.266343e+01	-3.269323e+00
1.273657e+01	-3.295687e+00
1.281014e+01	-3.322446e+00
1.288413e+01	-3.349229e+00
1.295855e+01	-3.376287e+00
1.303339e+01	-3.403290e+00
1.310867e+01	-3.430752e+00
1.318439e+01	-3.458191e+00
1.326054e+01	-3.485572e+00
1.333713e+01	-3.513267e+00
1.341417e+01	-3.541000e+00
1.349165e+01	-3.568994e+00
1.356958e+01	-3.597146e+00
1.364795e+01	-3.625510e+00
1.372678e+01	-3.653783e+00
1.380607e+01	-3.682409e+00
1.388581e+01	-3.710877e+00
1.396602e+01	-3.739885e+00
1.404668e+01	-3.768810e+00
1.412782e+01	-3.797700e+00
1.420942e+01	-3.826909e+00
1.429149e+01	-3.856542e+00
1.437404e+01	-3.885814e+00
1.445706e+01	-3.915304e+00
1.454057e+01	-3.945455e+00
1.462455e+01	-3.975257e+00
1.470902e+01	-4.005246e+00
1.479398e+01	-4.035521e+00
1.487943e+01	-4.066019e+00
1.496537e+01	-4.096220e+00
1.505181e+01	-4.127036e+00
1.513875e+01	-4.157686e+00
1.522619e+01	-4.188446e+00
1.531414e+01	-4.219518e+00
1.540259e+01	-4.250541e+00
1.549156e+01	-4.281961e+00
1.558103e+01	-4.313118e+00
1.567103e+01	-4.345204e+00
1.576155e+01	-4.376639e+00
1.585258e+01	-4.408705e+00
1.594415e+01	-4.440703e+00
1.603624e+01	-4.472570e+00
1.612886e+01	-4.504627e+00
1.622202e+01	-4.537300e+00
1.631572e+01	-4.569653e+00
1.640996e+01	-4.602449e+00
1.650474e+01	-4.634959e+00
1.660008e+01	-4.667879e+00
1.669596e+01	-4.701022e+00
1.679239e+01	-4.733999e+00
1.688938e+01	-4.767140e+00
1.698694e+01	-4.800997e+00
1.708505e+01	-4.834404e+00
1.718373e+01	-4.868056e+00
1.728299e+01	-4.901903e+00
1.738281e+01	-4.935721e+00
1.748322e+01	-4.969453e+00
1.758420e+01	-5.003934e+00
1.768576e+01	-5.038203e+00
1.778792e+01	-5.072604e+00
1.789066e+01	-5.106936e+00
1.799399e+01	-5.141730e+00
1.809793e+01	-5.176663e+00
1.820246e+01	-5.211215e+00
1.830760e+01	-5.246667e+00
1.841334e+01	-5.281323e+00
1.851969e+01	-5.316731e+00
1.862666e+01	-5.352422e+00
1.873425e+01	-5.387947e+00
1.884246e+01	-5.423223e+00
1.895129e+01	-5.458967e+00
1.906075e+01	-5.494926e+00
1.917085e+01	-5.530733e+00
1.928158e+01	-5.566923e+00
1.939295e+01	-5.603345e+00
1.950496e+01	-5.639447e+00
1.961762e+01	-5.675857e+00
1.973093e+01	-5.712509e+00
1.984490e+01	-5.748973e+00
1.995952e+01	-5.785956e+00
2.007480e+01	-5.822621e+00
2.019076e+01	-5.859742e+00
2.030738e+01	-5.896834e+00
2.042467e+01	-5.933786e+00
2.054264e+01	-5.971358e+00
2.066130e+01	-6.008931e+00
2.078064e+01	-6.046479e+00
2.090066e+01	-6.084275e+00
2.102139e+01	-6.121703e+00
2.114280e+01	-6.159713e+00
2.126492e+01	-6.197639e+00
2.138775e+01	-6.235573e+00
2.151128e+01	-6.274118e+00
2.163553e+01	-6.312045e+00
2.176050e+01	-6.350252e+00
2.188619e+01	-6.389150e+00
2.201260e+01	-6.427756e+00
2.213974e+01	-6.466227e+00
2.226762e+01	-6.505617e+00
2.239624e+01	-6.544033e+00
2.252560e+01	-6.582777e+00
2.265571e+01	-6.622165e+00
2.278656e+01	-6.661288e+00
2.291818e+01	-6.700545e+00
2.305055e+01	-6.739494e+00
2.318369e+01	-6.779599e+00
2.331760e+01	-6.819040e+00
2.345228e+01	-6.858467e+00
2.358774e+01	-6.898546e+00
2.372398e+01	-6.938519e+00
2.386101e+01	-6.978212e+00
2.399883e+01	-7.018290e+00
2.413745e+01	-7.058334e+00
2.427686e+01	-7.098470e+00
2.441709e+01	-7.138853e+00
2.455812e+01	-7.179291e+00
2.469997e+01	-7.219900e+00
2.484263e+01	-7.260416e+00
2.498612e+01	-7.300913e+00
2.513044e+01	-7.341756e+00
2.527559e+01	-7.382753e+00
2.542158e+01	-7.423515e+00
2.556842e+01	-7.464573e+00
2.571610e+01	-7.505506e+00
2.586463e+01	-7.546692e+00
2.601403e+01	-7.587952e+00
2.616428e+01	-7.629530e+00
2.631541e+01	-7.671256e+00
2.646740e+01	-7.712183e+00
2.662028e+01	-7.754254e+00
2.677404e+01	-7.795747e+00
2.692868e+01	-7.837344e+00
2.708422e+01	-7.879495e+00
2.724066e+01	-7.921169e+00
2.739800e+01	-7.963118e+00
2.755625e+01	-8.005543e+00
2.771541e+01	-8.047676e+00
2.787550e+01	-8.089112e+00
2.803650e+01	-8.132189e+00
2.819844e+01	-8.174135e+00
2.836131e+01	-8.216411e+00
2.852513e+01	-8.259131e+00
2.868989e+01	-8.301697e+00
2.885560e+01	-8.344406e+00
2.902227e+01	-8.387265e+00
2.918990e+01	-8.430305e+00
2.935850e+01	-8.472580e+00
2.952807e+01	-8.515911e+00
2.969863e+01	-8.558904e+00
2.987016e+01	-8.601791e+00
3.004269e+01	-8.645229e+00
3.021622e+01	-8.687985e+00
3.039075e+01	-8.731422e+00
3.056628e+01	-8.775160e+00
3.074283e+01	-8.818551e+00
3.092040e+01	-8.862182e+00
3.109900e+01	-8.905296e+00
3.127862e+01	-8.949388e+00
3.145929e+01	-8.993025e+00
3.164099e+01	-9.036605e+00
3.182375e+01	-9.080128e+00
3.200756e+01	-9.124016e+00
3.219244e+01	-9.168418e+00
3.237838e+01	-9.212147e+00
3.256540e+01	-9.256545e+00
3.275349e+01	-9.300360e+00
3.294268e+01	-9.344692e+00
3.313295e+01	-9.388221e+00
3.332433e+01	-9.433526e+00
3.351681e+01	-9.477554e+00
3.371040e+01	-9.521581e+00
3.390511e+01	-9.566354e+00
3.410094e+01	-9.610842e+00
3.429791e+01	-9.655688e+00
3.449601e+01	-9.699718e+00
3.469526e+01	-9.744820e+00
3.489566e+01	-9.789322e+00
3.509721e+01	-9.834543e+00
3.529993e+01	-9.878985e+00
3.550382e+01	-9.923827e+00
3.570889e+01	-9.969049e+00
3.591515e+01	-1.001445e+01
3.612259e+01	-1.005890e+01
3.633123e+01	-1.010430e+01
3.654108e+01	-1.014945e+01
3.675214e+01	-1.019430e+01
3.696442e+01	-1.023964e+01
3.717792e+01	-1.028535e+01
3.739266e+01	-1.033041e+01
3.760864e+01	-1.037600e+01
3.782587e+01	-1.042153e+01
3.804435e+01	-1.046690e+01
3.826409e+01	-1.051241e+01
3.848510e+01	-1.055814e+01
3.870739e+01	-1.060391e+01
3.893096e+01	-1.064962e+01
3.915583e+01	-1.069541e+01
3.938199e+01	-1.074123e+01
3.960946e+01	-1.078682e+01
3.983824e+01	-1.083276e+01
4.006834e+01	-1.087830e+01
4.029978e+01	-1.092444e+01
4.053255e+01	-1.097022e+01
4.076666e+01	-1.101597e+01
4.100213e+01	-1.106270e+01
4.123896e+01	-1.110898e+01
4.147715e+01	-1.115528e+01
4.171672e+01	-1.120153e+01
4.195767e+01	-1.124758e+01
4.220002e+01	-1.129337e+01
4.244377e+01	-1.133952e+01
4.268892e+01	-1.138664e+01
4.293549e+01	-1.143249e+01
4.318348e+01	-1.147885e+01
4.343291e+01	-1.152630e+01
4.368377e+01	-1.157193e+01
4.393609e+01	-1.161852e+01
4.418986e+01	-1.166542e+01
4.444510e+01	-1.171194e+01
4.470182e+01	-1.175906e+01
4.496001e+01	-1.180459e+01
4.521970e+01	-1.185179e+01
4.548089e+01	-1.189903e+01
4.574358e+01	-1.194589e+01
4.600779e+01	-1.199203e+01
4.627353e+01	-1.203946e+01
4.654081e+01	-1.208640e+01
4.680963e+01	-1.213373e+01
4.708000e+01	-1.218060e+01
4.735193e+01	-1.222732e+01
4.762543e+01	-1.227438e+01
4.790051e+01	-1.232165e+01
4.817719e+01	-1.236892e+01
4.845545e+01	-1.241546e+01
4.873533e+01	-1.246289e+01
4.901682e+01	-1.250966e+01
4.929994e+01	-1.255767e+01
4.958470e+01	-1.260447e+01
4.987110e+01	-1.265223e+01
5.015915e+01	-1.269874e+01
5.044887e+01	-1.274673e+01
5.074026e+01	-1.279404e+01
5.103333e+01	-1.284132e+01
5.132810e+01	-1.288877e+01
5.162457e+01	-1.293639e+01
5.192275e+01	-1.298414e+01
5.222265e+01	-1.303153e+01
5.252429e+01	-1.307859e+01
5.282767e+01	-1.312714e+01
5.313280e+01	-1.317387e+01
5.343969e+01	-1.322144e+01
5.374836e+01	-1.326895e+01
5.405880e+01	-1.331668e+01
5.437105e+01	-1.336454e+01
5.468509e+01	-1.341308e+01
5.500095e+01	-1.345994e+01
5.531863e+01	-1.350837e+01
5.563815e+01	-1.355614e+01
5.595951e+01	-1.360318e+01
5.628273e+01	-1.365143e+01
5.660782e+01	-1.370021e+01
5.693479e+01	-1.374787e+01
5.726364e+01	-1.379583e+01
5.759439e+01	-1.384349e+01
5.792705e+01	-1.389148e+01
5.826164e+01	-1.393943e+01
5.859815e+01	-1.398798e+01
5.893662e+01	-1.403502e+01
5.927703e+01	-1.408319e+01
5.961941e+01	-1.413184e+01
5.996377e+01	-1.417999e+01
6.031012e+01	-1.422794e+01
6.065847e+01	-1.427627e+01
6.100883e+01	-1.432395e+01
6.136121e+01	-1.437267e+01
6.171563e+01	-1.442095e+01
6.207210e+01	-1.446836e+01
6.243063e+01	-1.451627e+01
6.279122e+01	-1.456535e+01
6.315390e+01	-1.461338e+01
6.351868e+01	-1.466139e+01
6.388556e+01	-1.470929e+01
6.425456e+01	-1.475738e+01
6.462569e+01	-1.480700e+01
6.499897e+01	-1.485531e+01
6.537440e+01	-1.490398e+01
6.575200e+01	-1.495219e+01
6.613178e+01	-1.499920e+01
6.651375e+01	-1.504823e+01
6.689793e+01	-1.509702e+01
6.728433e+01	-1.514601e+01
6.767297e+01	-1.519399e+01
6.806384e+01	-1.524387e+01
6.845698e+01	-1.529195e+01
6.885238e+01	-1.533968e+01
6.925007e+01	-1.538796e+01
6.965005e+01	-1.543709e+01
7.005235e+01	-1.548541e+01
7.045697e+01	-1.553472e+01
7.086393e+01	-1.558226e+01
7.127323e+01	-1.563160e+01
7.168490e+01	-1.567971e+01
7.209895e+01	-1.572830e+01
7.251539e+01	-1.577847e+01
7.293424e+01	-1.582558e+01
7.335551e+01	-1.587496e+01
7.377920e+01	-1.592472e+01
7.420535e+01	-1.597255e+01
7.463396e+01	-1.602145e+01
7.506504e+01	-1.607138e+01
7.549861e+01	-1.611846e+01
7.593469e+01	-1.616890e+01
7.637328e+01	-1.621726e+01
7.681441e+01	-1.626529e+01
7.725809e+01	-1.631451e+01
7.770433e+01	-1.636260e+01
7.815315e+01	-1.641259e+01
7.860456e+01	-1.646115e+01
7.905857e+01	-1.651030e+01
7.951521e+01	-1.655875e+01
7.997449e+01	-1.660763e+01
8.043642e+01	-1.665617e+01
8.090102e+01	-1.670565e+01
8.136830e+01	-1.675420e+01
8.183828e+01	-1.680384e+01
8.231097e+01	-1.685268e+01
8.278640e+01	-1.690144e+01
8.326457e+01	-1.695110e+01
8.374550e+01	-1.700028e+01
8.422921e+01	-1.704908e+01
8.471572e+01	-1.709857e+01
8.520503e+01	-1.714674e+01
8.569717e+01	-1.719555e+01
8.619215e+01	-1.724453e+01
8.669000e+01	-1.729416e+01
8.719071e+01	-1.734275e+01
8.769432e+01	-1.739207e+01
8.820084e+01	-1.744137e+01
8.871029e+01	-1.749053e+01
8.922267e+01	-1.753982e+01
8.973802e+01	-1.758890e+01
9.025634e+01	-1.763840e+01
9.077766e+01	-1.768704e+01
9.130199e+01	-1.773624e+01
9.182935e+01	-1.778475e+01
9.235975e+01	-1.783566e+01
9.289321e+01	-1.788369e+01
9.342976e+01	-1.793299e+01
9.396941e+01	-1.798121e+01
9.451217e+01	-1.803240e+01
9.505807e+01	-1.808015e+01
9.560712e+01	-1.813005e+01
9.615934e+01	-1.817868e+01
9.671476e+01	-1.822823e+01
9.727338e+01	-1.827763e+01
9.783522e+01	-1.832771e+01
9.840032e+01	-1.837574e+01
9.896867e+01	-1.842610e+01
9.954031e+01	-1.847415e+01
1.001153e+02	-1.852430e+01
1.006935e+02	-1.857363e+01
1.012751e+02	-1.862339e+01
1.018601e+02	-1.867211e+01
1.024484e+02	-1.872188e+01
1.030402e+02	-1.877167e+01
1.036353e+02	-1.882204e+01
1.042339e+02	-1.887132e+01
1.048360e+02	-1.891962e+01
1.054415e+02	-1.896966e+01
1.060505e+02	-1.901892e+01
1.066631e+02	-1.906703e+01
1.072791e+02	-1.911768e+01
1.078988e+02	-1.916604e+01
1.085220e+02	-1.921519e+01
1.091488e+02	-1.926651e+01
1.097793e+02	-1.931385e+01
1.104133e+02	-1.936455e+01
1.110511e+02	-1.941305e+01
1.116925e+02	-1.946342e+01
1.123376e+02	-1.951213e+01
1.129865e+02	-1.956220e+01
1.136391e+02	-1.961194e+01
1.142955e+02	-1.966017e+01
1.149556e+02	-1.971038e+01
1.156196e+02	-1.975885e+01
1.162874e+02	-1.981012e+01
1.169591e+02	-1.986011e+01
1.176347e+02	-1.990691e+01
1.183141e+02	-1.995834e+01
1.189975e+02	-2.000810e+01
1.196848e+02	-2.005589e+01
1.203761e+02	-2.010685e+01
1.210714e+02	-2.015607e+01
1.217707e+02	-2.020546e+01
1.224740e+02	-2.025626e+01
1.231814e+02	-2.030414e+01
1.238929e+02	-2.035256e+01
1.246085e+02	-2.040448e+01
1.253283e+02	-2.045365e+01
1.260522e+02	-2.050386e+01
1.267802e+02	-2.055270e+01
1.275125e+02	-2.060320e+01
1.282490e+02	-2.065380e+01
1.289898e+02	-2.070156e+01
1.297348e+02	-2.075181e+01
1.304842e+02	-2.080065e+01
1.312378e+02	-2.085032e+01
1.319959e+02	-2.089881e+01
1.327583e+02	-2.094982e+01
1.335251e+02	-2.099965e+01
1.342963e+02	-2.104901e+01
1.350720e+02	-2.109796e+01
1.358522e+02	-2.114824e+01
1.366368e+02	-2.119841e+01
1.374260e+02	-2.124852e+01
1.382198e+02	-2.129822e+01
1.390182e+02	-2.134545e+01
1.398211e+02	-2.139710e+01
1.406287e+02	-2.144533e+01
1.414410e+02	-2.149679e+01
1.422579e+02	-2.154713e+01
1.430796e+02	-2.159652e+01
1.439060e+02	-2.164486e+01
1.447372e+02	-2.169538e+01
1.455732e+02	-2.174366e+01
1.464141e+02	-2.179256e+01
1.472597e+02	-2.184400e+01
1.481103e+02	-2.189340e+01
1.489658e+02	-2.194503e+01
1.498262e+02	-2.199209e+01
1.506916e+02	-2.204423e+01
1.515620e+02	-2.209333e+01
1.524374e+02	-2.214187e+01
1.533179e+02	-2.219213e+01
1.542034e+02	-2.224101e+01
1.550941e+02	-2.229238e+01
1.559899e+02	-2.234191e+01
1.568909e+02	-2.239223e+01
1.577971e+02	-2.244040e+01
1.587085e+02	-2.248989e+01
1.596252e+02	-2.254017e+01
1.605472e+02	-2.259061e+01
1.614745e+02	-2.263894e+01
1.624072e+02	-2.268984e+01
1.633453e+02	-2.273971e+01
1.642887e+02	-2.278987e+01
1.652377e+02	-2.283953e+01
1.661921e+02	-2.289126e+01
1.671520e+02	-2.293766e+01
1.681175e+02	-2.299084e+01
1.690885e+02	-2.303916e+01
1.700651e+02	-2.308848e+01
1.710474e+02	-2.313811e+01
1.720354e+02	-2.318963e+01
1.730291e+02	-2.323715e+01
1.740285e+02	-2.328730e+01
1.750337e+02	-2.333667e+01
1.760446e+02	-2.338763e+01
1.770615e+02	-2.343787e+01
1.780842e+02	-2.348723e+01
1.791128e+02	-2.353550e+01
1.801473e+02	-2.358786e+01
1.811878e+02	-2.363380e+01
1.822344e+02	-2.368609e+01
1.832870e+02	-2.373669e+01
1.843456e+02	-2.378613e+01
1.854104e+02	-2.383643e+01
1.864813e+02	-2.388700e+01
1.875584e+02	-2.393669e+01
1.886418e+02	-2.398431e+01
1.897313e+02	-2.403482e+01
1.908272e+02	-2.408479e+01
1.919294e+02	-2.413465e+01
1.930380e+02	-2.418435e+01
1.941530e+02	-2.423229e+01
1.952744e+02	-2.428270e+01
1.964023e+02	-2.433617e+01
1.975367e+02	-2.438801e+01
1.986777e+02	-2.443216e+01
1.998252e+02	-2.448010e+01
2.009794e+02	-2.453222e+01
2.021403e+02	-2.458483e+01
2.033078e+02	-2.463080e+01
2.044821e+02	-2.468186e+01
2.056632e+02	-2.473397e+01
2.068511e+02	-2.478532e+01
2.080459e+02	-2.483259e+01
2.092475e+02	-2.488157e+01
2.104561e+02	-2.493164e+01
2.116717e+02	-2.498512e+01
2.128943e+02	-2.502775e+01
2.141240e+02	-2.508298e+01
2.153608e+02	-2.513296e+01
2.166047e+02	-2.518247e+01
2.178558e+02	-2.523454e+01
2.191141e+02	-2.528365e+01
2.203797e+02	-2.532914e+01
2.216526e+02	-2.538310e+01
2.229329e+02	-2.543083e+01
2.242205e+02	-2.548051e+01
2.255156e+02	-2.553273e+01
2.268182e+02	-2.558040e+01
2.281283e+02	-2.563055e+01
2.294459e+02	-2.568200e+01
2.307712e+02	-2.573238e+01
2.321041e+02	-2.578132e+01
2.334447e+02	-2.583143e+01
2.347931e+02	-2.587975e+01
2.361493e+02	-2.593030e+01
2.375133e+02	-2.598250e+01
2.388851e+02	-2.603026e+01
2.402649e+02	-2.608127e+01
2.416527e+02	-2.613271e+01
2.430484e+02	-2.618463e+01
2.444523e+02	-2.623221e+01
2.458642e+02	-2.628033e+01
2.472843e+02	-2.633176e+01
2.487126e+02	-2.638171e+01
2.501492e+02	-2.642980e+01
2.515940e+02	-2.647864e+01
2.530472e+02	-2.653213e+01
2.545088e+02	-2.657865e+01
2.559789e+02	-2.662981e+01
2.574574e+02	-2.668000e+01
2.589444e+02	-2.673106e+01
2.604401e+02	-2.678265e+01
2.619444e+02	-2.682974e+01
2.634574e+02	-2.688092e+01
2.649791e+02	-2.693372e+01
2.665096e+02	-2.698266e+01
2.680489e+02	-2.703522e+01
2.695972e+02	-2.707954e+01
2.711544e+02	-2.712832e+01
2.727205e+02	-2.718260e+01
2.742958e+02	-2.723323e+01
2.758801e+02	-2.728351e+01
2.774736e+02	-2.733164e+01
2.790762e+02	-2.738421e+01
2.806882e+02	-2.743141e+01
2.823094e+02	-2.747934e+01
2.839400e+02	-2.753150e+01
2.855800e+02	-2.758172e+01
2.872295e+02	-2.763004e+01
2.888886e+02	-2.768307e+01
2.905572e+02	-2.772825e+01
2.922354e+02	-2.777716e+01
2.939234e+02	-2.782993e+01
2.956211e+02	-2.788134e+01
2.973286e+02	-2.793177e+01
2.990459e+02	-2.797898e+01
3.007732e+02	-2.803183e+01
3.025104e+02	-2.808252e+01
3.042577e+02	-2.813169e+01
3.060151e+02	-2.818496e+01
3.077826e+02	-2.822538e+01
3.095604e+02	-2.828147e+01
3.113484e+02	-2.832852e+01
3.131467e+02	-2.837759e+01
3.149554e+02	-2.843268e+01
3.167746e+02	-2.848180e+01
3.186043e+02	-2.853731e+01
3.204445e+02	-2.858179e+01
3.222954e+02	-2.862781e+01
3.241570e+02	-2.867964e+01
3.260293e+02	-2.872901e+01
3.279124e+02	-2.877979e+01
3.298064e+02	-2.883127e+01
3.317114e+02	-2.887793e+01
3.336273e+02	-2.893266e+01
3.355544e+02	-2.898507e+01
3.374925e+02	-2.903301e+01
3.394418e+02	-2.908568e+01
3.414024e+02	-2.913750e+01
3.433744e+02	-2.918402e+01
3.453577e+02	-2.923346e+01
3.473525e+02	-2.927921e+01
3.493588e+02	-2.932803e+01
3.513766e+02	-2.937945e+01
3.534062e+02	-2.943653e+01
3.554474e+02	-2.947908e+01
3.575005e+02	-2.952915e+01
3.595654e+02	-2.958086e+01
3.616422e+02	-2.963304e+01
3.637311e+02	-2.968296e+01
3.658320e+02	-2.973001e+01
3.679450e+02	-2.977955e+01
3.700702e+02	-2.983148e+01
3.722077e+02	-2.988431e+01
3.743576e+02	-2.992740e+01
3.765199e+02	-2.998280e+01
3.786946e+02	-3.003734e+01
3.808820e+02	-3.008508e+01
3.830819e+02	-3.013252e+01
3.852946e+02	-3.018264e+01
3.875200e+02	-3.023177e+01
3.897583e+02	-3.028804e+01
3.920096e+02	-3.034055e+01
3.942738e+02	-3.038687e+01
3.965511e+02	-3.043627e+01
3.988416e+02	-3.048198e+01
4.011452e+02	-3.053292e+01
4.034622e+02	-3.058235e+01
4.057926e+02	-3.063111e+01
4.081365e+02	-3.068686e+01
4.104938e+02	-3.073494e+01
4.128648e+02	-3.078813e+01
4.152495e+02	-3.083302e+01
4.176480e+02	-3.088295e+01
4.200603e+02	-3.093365e+01
4.224866e+02	-3.098507e+01
4.249268e+02	-3.102995e+01
4.273812e+02	-3.108376e+01
4.298497e+02	-3.114250e+01
4.323325e+02	-3.118742e+01
4.348297e+02	-3.122882e+01
4.373412e+02	-3.128452e+01
4.398673e+02	-3.133718e+01
4.424079e+02	-3.138542e+01
4.449633e+02	-3.143589e+01
4.475334e+02	-3.148753e+01
4.501183e+02	-3.153556e+01
4.527182e+02	-3.158869e+01
4.553330e+02	-3.163360e+01
4.579630e+02	-3.168697e+01
4.606082e+02	-3.172768e+01
4.632687e+02	-3.178085e+01
4.659445e+02	-3.183586e+01
4.686358e+02	-3.188825e+01
4.713426e+02	-3.194475e+01
4.740650e+02	-3.199475e+01
4.768032e+02	-3.203484e+01
4.795572e+02	-3.209210e+01
4.823271e+02	-3.213765e+01
4.851130e+02	-3.218716e+01
4.879150e+02	-3.223734e+01
4.907332e+02	-3.228364e+01
4.935676e+02	-3.234241e+01
4.964185e+02	-3.238703e+01
4.992858e+02	-3.244268e+01
5.021696e+02	-3.248550e+01
5.050701e+02	-3.253525e+01
5.079874e+02	-3.258530e+01
5.109215e+02	-3.263868e+01
5.138726e+02	-3.268696e+01
5.168407e+02	-3.274325e+01
5.198259e+02	-3.278899e+01
5.228284e+02	-3.285248e+01
5.258482e+02	-3.289271e+01
5.288855e+02	-3.294122e+01
5.319403e+02	-3.298809e+01
5.350128e+02	-3.303940e+01
5.381030e+02	-3.309078e+01
5.412111e+02	-3.314502e+01
5.443371e+02	-3.319071e+01
5.474812e+02	-3.324848e+01
5.506434e+02	-3.329576e+01
5.538239e+02	-3.334347e+01
5.570228e+02	-3.340275e+01
5.602401e+02	-3.343829e+01
5.634760e+02	-3.349445e+01
5.667306e+02	-3.354912e+01
5.700040e+02	-3.359445e+01
5.732964e+02	-3.364652e+01
5.766077e+02	-3.369001e+01
5.799382e+02	-3.374737e+01
5.832879e+02	-3.379293e+01
5.866569e+02	-3.384648e+01
5.900454e+02	-3.389381e+01
5.934535e+02	-3.394533e+01
5.968813e+02	-3.399161e+01
6.003288e+02	-3.404422e+01
6.037963e+02	-3.409734e+01
6.072838e+02	-3.414309e+01
6.107914e+02	-3.419038e+01
6.143194e+02	-3.424790e+01
6.178676e+02	-3.430200e+01
6.214364e+02	-3.434663e+01
6.250258e+02	-3.439480e+01
6.286359e+02	-3.444862e+01
6.322669e+02	-3.450725e+01
6.359189e+02	-3.454860e+01
6.395919e+02	-3.460299e+01
6.432862e+02	-3.465237e+01
6.470017e+02	-3.470347e+01
6.507388e+02	-3.475652e+01
6.544974e+02	-3.479760e+01
6.582778e+02	-3.484592e+01
6.620800e+02	-3.491176e+01
6.659041e+02	-3.494464e+01
6.697504e+02	-3.501303e+01
6.736188e+02	-3.505568e+01
6.775096e+02	-3.511914e+01
6.814229e+02	-3.515355e+01
6.853587e+02	-3.520024e+01
6.893173e+02	-3.525337e+01
6.932988e+02	-3.530341e+01
6.973033e+02	-3.535289e+01
7.013309e+02	-3.540909e+01
