Frequency(Hz)	Magnitude(dB)
1.000000e+01	-2.179288e+00
1.005776e+01	-2.199227e+00
1.011585e+01	-2.219078e+00
1.017428e+01	-2.239343e+00
1.023305e+01	-2.259442e+00
1.029215e+01	-2.279851e+00
1.035160e+01	-2.300250e+00
1.041139e+01	-2.321108e+00
1.047153e+01	-2.341714e+00
1.053201e+01	-2.362667e+00
1.059284e+01	-2.383743e+00
1.065403e+01	-2.404666e+00
1.071556e+01	-2.426116e+00
1.077746e+01	-2.447643e+00
1.083971e+01	-2.469343e+00
1.090232e+01	-2.491109e+00
1.096529e+01	-2.512999e+00
1.102862e+01	-2.535079e+00
1.109232e+01	-2.557202e+00
1.115639e+01	-2.579557e+00
1.122083e+01	-2.601943e+00
1.128564e+01	-2.624614e+00
1.135083e+01	-2.647311e+00
1.141639e+01	-2.670440e+00
1.148233e+01	-2.693294e+00
1.154865e+01	-2.716720e+00
1.161536e+01	-2.739778e+00
1.168245e+01	-2.763200e+00
1.174992e+01	-2.787125e+00
1.181779e+01	-2.810784e+00
1.188605e+01	-2.834761e+00
1.195470e+01	-2.858631e+00
1.202375e+01	-2.883070e+00
1.209320e+01	-2.907138e+00
1.216305e+01	-2.931660e+00
1.223330e+01	-2.956281e+00
1.230396e+01	-2.981191e+00
1.237503e+01	-3.005934e+00
1.244651e+01	-3.031019e+00
1.251840e+01	-3.056449e+00
1.259070e+01	-3.081524e+00
1.266343e+01	-3.107196e+00
1.273657e+01	-3.132821e+00
1.281014e+01	-3.158659e+00
1.288413e+01	-3.184571e+00
1.295855e+01	-3.210771e+00
1.303339e+01	-3.236797e+00
1.310867e+01	-3.262912e+00
1.318439e+01	-3.289596e+00
1.326054e+01	-3.316413e+00
1.333713e+01	-3.342979e+00
1.341417e+01	-3.369960e+00
1.349165e+01	-3.397042e+00
1.356958e+01	-3.424131e+00
1.364795e+01	-3.451786e+00
1.372678e+01	-3.479119e+00
1.380607e+01	-3.506648e+00
1.388581e+01	-3.534607e+00
1.396602e+01	-3.562589e+00
1.404668e+01	-3.590627e+00
1.412782e+01	-3.618551e+00
1.420942e+01	-3.647229e+00
1.429149e+01	-3.675654e+00
1.437404e+01	-3.704156e+00
1.445706e+01	-3.733311e+00
1.454057e+01	-3.762035e+00
1.462455e+01	-3.791302e+00
1.470902e+01	-3.820251e+00
1.479398e+01	-3.849647e+00
1.487943e+01	-3.878948e+00
1.496537e+01	-3.908715e+00
1.505181e+01	-3.938376e+00
1.513875e+01	-3.968153e+00
1.522619e+01	-3.998341e+00
1.531414e+01	-4.028681e+00
1.540259e+01	-4.058852e+00
1.549156e+01	-4.089149e+00
1.558103e+01	-4.119722e+00
1.567103e+01	-4.150386e+00
1.576155e+01	-4.181462e+00
1.585258e+01	-4.212398e+00
1.594415e+01	-4.243595e+00
1.603624e+01	-4.274772e+00
1.612886e+01	-4.306262e+00
1.622202e+01	-4.338136e+00
1.631572e+01	-4.369555e+00
1.640996e+01	-4.401155e+00
1.650474e+01	-4.433045e+00
1.660008e+01	-4.465310e+00
1.669596e+01	-4.497478e+00
1.679239e+01	-4.529980e+00
1.688938e+01	-4.562522e+00
1.698694e+01	-4.595175e+00
1.708505e+01	-4.627192e+00
1.718373e+01	-4.660658e+00
1.728299e+01	-4.693590e+00
1.738281e+01	-4.726568e+00
1.748322e+01	-4.759681e+00
1.758420e+01	-4.793044e+00
1.768576e+01	-4.826480e+00
1.778792e+01	-4.859975e+00
1.789066e+01	-4.894109e+00
1.799399e+01	-4.927733e+00
1.809793e+01	-4.961909e+00
1.820246e+01	-4.995949e+00
1.830760e+01	-5.030170e+00
1.841334e+01	-5.064809e+00
1.851969e+01	-5.099061e+00
1.862666e+01	-5.133625e+00
1.873425e+01	-5.168515e+00
1.884246e+01	-5.203346e+00
1.895129e+01	-5.238205e+00
1.906075e+01	-5.273444e+00
1.917085e+01	-5.308564e+00
1.928158e+01	-5.343954e+00
1.939295e+01	-5.379361e+00
1.950496e+01	-5.415087e+00
1.961762e+01	-5.450723e+00
1.973093e+01	-5.486544e+00
1.984490e+01	-5.522446e+00
1.995952e+01	-5.558457e+00
2.007480e+01	-5.594522e+00
2.019076e+01	-5.631092e+00
2.030738e+01	-5.667565e+00
2.042467e+01	-5.704008e+00
2.054264e+01	-5.740789e+00
2.066130e+01	-5.776987e+00
2.078064e+01	-5.814278e+00
2.090066e+01	-5.851165e+00
2.102139e+01	-5.888055e+00
2.114280e+01	-5.925205e+00
2.126492e+01	-5.962379e+00
2.138775e+01	-6.000124e+00
2.151128e+01	-6.037331e+00
2.163553e+01	-6.075493e+00
2.176050e+01	-6.112763e+00
2.188619e+01	-6.150780e+00
2.201260e+01	-6.188664e+00
2.213974e+01	-6.227059e+00
2.226762e+01	-6.265164e+00
2.239624e+01	-6.303247e+00
2.252560e+01	-6.341501e+00
2.265571e+01	-6.379817e+00
2.278656e+01	-6.418855e+00
2.291818e+01	-6.457130e+00
2.305055e+01	-6.496044e+00
2.318369e+01	-6.534808e+00
2.331760e+01	-6.573835e+00
2.345228e+01	-6.612914e+00
2.358774e+01	-6.652248e+00
2.372398e+01	-6.691205e+00
2.386101e+01	-6.730850e+00
2.399883e+01	-6.770470e+00
2.413745e+01	-6.809860e+00
2.427686e+01	-6.849383e+00
2.441709e+01	-6.889023e+00
2.455812e+01	-6.928955e+00
2.469997e+01	-6.968569e+00
2.484263e+01	-7.008980e+00
2.498612e+01	-7.049014e+00
2.513044e+01	-7.089223e+00
2.527559e+01	-7.129489e+00
2.542158e+01	-7.169446e+00
2.556842e+01	-7.210465e+00
2.571610e+01	-7.250801e+00
2.586463e+01	-7.291475e+00
2.601403e+01	-7.332279e+00
2.616428e+01	-7.373480e+00
2.631541e+01	-7.413354e+00
2.646740e+01	-7.455028e+00
2.662028e+01	-7.496277e+00
2.677404e+01	-7.537301e+00
2.692868e+01	-7.578704e+00
2.708422e+01	-7.619832e+00
2.724066e+01	-7.661139e+00
2.739800e+01	-7.702794e+00
2.755625e+01	-7.744474e+00
2.771541e+01	-7.785715e+00
2.787550e+01	-7.827617e+00
2.803650e+01	-7.869352e+00
2.819844e+01	-7.911409e+00
2.836131e+01	-7.953430e+00
2.852513e+01	-7.995442e+00
2.868989e+01	-8.037786e+00
2.885560e+01	-8.079896e+00
2.902227e+01	-8.122364e+00
2.918990e+01	-8.164213e+00
2.935850e+01	-8.206737e+00
2.952807e+01	-8.249529e+00
2.969863e+01	-8.291736e+00
2.987016e+01	-8.334757e+00
3.004269e+01	-8.377336e+00
3.021622e+01	-8.420235e+00
3.039075e+01	-8.463179e+00
3.056628e+01	-8.505877e+00
3.074283e+01	-8.548411e+00
3.092040e+01	-8.591835e+00
3.109900e+01	-8.635483e+00
3.127862e+01	-8.678298e+00
3.145929e+01	-8.721459e+00
3.164099e+01	-8.765359e+00
3.182375e+01	-8.808344e+00
3.200756e+01	-8.851934e+00
3.219244e+01	-8.895307e+00
3.237838e+01	-8.938882e+00
3.256540e+01	-8.982587e+00
3.275349e+01	-9.026346e+00
3.294268e+01	-9.070149e+00
3.313295e+01	-9.114182e+00
3.332433e+01	-9.158048e+00
3.351681e+01	-9.201739e+00
3.371040e+01	-9.245816e+00
3.390511e+01	-9.290192e+00
3.410094e+01	-9.334240e+00
3.429791e+01	-9.378631e+00
3.449601e+01	-9.422363e+00
3.469526e+01	-9.466756e+00
3.489566e+01	-9.511239e+00
3.509721e+01	-9.555665e+00
3.529993e+01	-9.600476e+00
3.550382e+01	-9.645594e+00
3.570889e+01	-9.689604e+00
3.591515e+01	-9.733818e+00
3.612259e+01	-9.779453e+00
3.633123e+01	-9.824138e+00
3.654108e+01	-9.868554e+00
3.675214e+01	-9.913520e+00
3.696442e+01	-9.958282e+00
3.717792e+01	-1.000291e+01
3.739266e+01	-1.004875e+01
3.760864e+01	-1.009367e+01
3.782587e+01	-1.013839e+01
3.804435e+01	-1.018406e+01
3.826409e+01	-1.022974e+01
3.848510e+01	-1.027461e+01
3.870739e+01	-1.032016e+01
3.893096e+01	-1.036544e+01
3.915583e+01	-1.041070e+01
3.938199e+01	-1.045638e+01
3.960946e+01	-1.050146e+01
3.983824e+01	-1.054756e+01
4.006834e+01	-1.059275e+01
4.029978e+01	-1.063883e+01
4.053255e+01	-1.068437e+01
4.076666e+01	-1.073006e+01
4.100213e+01	-1.077583e+01
4.123896e+01	-1.082204e+01
4.147715e+01	-1.086800e+01
4.171672e+01	-1.091376e+01
4.195767e+01	-1.095995e+01
4.220002e+01	-1.100586e+01
4.244377e+01	-1.105251e+01
4.268892e+01	-1.109823e+01
4.293549e+01	-1.114437e+01
4.318348e+01	-1.119081e+01
4.343291e+01	-1.123677e+01
4.368377e+01	-1.128291e+01
4.393609e+01	-1.132938e+01
4.418986e+01	-1.137586e+01
4.444510e+01	-1.142252e+01
4.470182e+01	-1.146823e+01
4.496001e+01	-1.151482e+01
4.521970e+01	-1.156140e+01
4.548089e+01	-1.160813e+01
4.574358e+01	-1.165496e+01
4.600779e+01	-1.170075e+01
4.627353e+01	-1.174795e+01
4.654081e+01	-1.179470e+01
4.680963e+01	-1.184087e+01
4.708000e+01	-1.188785e+01
4.735193e+01	-1.193478e+01
4.762543e+01	-1.198152e+01
4.790051e+01	-1.202885e+01
4.817719e+01	-1.207554e+01
4.845545e+01	-1.212225e+01
4.873533e+01	-1.216919e+01
4.901682e+01	-1.221626e+01
4.929994e+01	-1.226305e+01
4.958470e+01	-1.231016e+01
4.987110e+01	-1.235693e+01
5.015915e+01	-1.240458e+01
5.044887e+01	-1.245173e+01
5.074026e+01	-1.249936e+01
5.103333e+01	-1.254622e+01
5.132810e+01	-1.259390e+01
5.162457e+01	-1.264083e+01
5.192275e+01	-1.268788e+01
5.222265e+01	-1.273560e+01
5.252429e+01	-1.278273e+01
5.282767e+01	-1.283047e+01
5.313280e+01	-1.287827e+01
5.343969e+01	-1.292576e+01
5.374836e+01	-1.297278e+01
5.405880e+01	-1.302075e+01
5.437105e+01	-1.306776e+01
5.468509e+01	-1.311514e+01
5.500095e+01	-1.316396e+01
5.531863e+01	-1.321071e+01
5.563815e+01	-1.325808e+01
5.595951e+01	-1.330592e+01
5.628273e+01	-1.335349e+01
5.660782e+01	-1.340145e+01
5.693479e+01	-1.344915e+01
5.726364e+01	-1.349741e+01
5.759439e+01	-1.354423e+01
5.792705e+01	-1.359241e+01
5.826164e+01	-1.363968e+01
5.859815e+01	-1.368793e+01
5.893662e+01	-1.373571e+01
5.927703e+01	-1.378416e+01
5.961941e+01	-1.383195e+01
5.996377e+01	-1.387966e+01
6.031012e+01	-1.392829e+01
6.065847e+01	-1.397651e+01
6.100883e+01	-1.402394e+01
6.136121e+01	-1.407235e+01
6.171563e+01	-1.412003e+01
6.207210e+01	-1.416842e+01
6.243063e+01	-1.421685e+01
6.279122e+01	-1.426396e+01
6.315390e+01	-1.431316e+01
6.351868e+01	-1.436045e+01
6.388556e+01	-1.440846e+01
6.425456e+01	-1.445722e+01
6.462569e+01	-1.450584e+01
6.499897e+01	-1.455440e+01
6.537440e+01	-1.460243e+01
6.575200e+01	-1.465032e+01
6.613178e+01	-1.469863e+01
6.651375e+01	-1.474625e+01
6.689793e+01	-1.479470e+01
6.728433e+01	-1.484379e+01
6.767297e+01	-1.489293e+01
6.806384e+01	-1.494038e+01
6.845698e+01	-1.498836e+01
6.885238e+01	-1.503749e+01
6.925007e+01	-1.508575e+01
6.965005e+01	-1.513417e+01
7.005235e+01	-1.518349e+01
7.045697e+01	-1.523160e+01
7.086393e+01	-1.528010e+01
7.127323e+01	-1.532854e+01
7.168490e+01	-1.537829e+01
7.209895e+01	-1.542501e+01
7.251539e+01	-1.547407e+01
7.293424e+01	-1.552281e+01
7.335551e+01	-1.557152e+01
7.377920e+01	-1.562048e+01
7.420535e+01	-1.566825e+01
7.463396e+01	-1.571806e+01
7.506504e+01	-1.576596e+01
7.549861e+01	-1.581501e+01
7.593469e+01	-1.586402e+01
7.637328e+01	-1.591269e+01
7.681441e+01	-1.596075e+01
7.725809e+01	-1.601050e+01
7.770433e+01	-1.605892e+01
7.815315e+01	-1.610753e+01
7.860456e+01	-1.615554e+01
7.905857e+01	-1.620514e+01
7.951521e+01	-1.625485e+01
7.997449e+01	-1.630255e+01
8.043642e+01	-1.635292e+01
8.090102e+01	-1.640063e+01
8.136830e+01	-1.645022e+01
8.183828e+01	-1.649886e+01
8.231097e+01	-1.654646e+01
8.278640e+01	-1.659732e+01
8.326457e+01	-1.664574e+01
8.374550e+01	-1.669351e+01
8.422921e+01	-1.674342e+01
8.471572e+01	-1.679289e+01
8.520503e+01	-1.684097e+01
8.569717e+01	-1.689039e+01
8.619215e+01	-1.693851e+01
8.669000e+01	-1.698812e+01
8.719071e+01	-1.703714e+01
8.769432e+01	-1.708557e+01
8.820084e+01	-1.713463e+01
8.871029e+01	-1.718277e+01
8.922267e+01	-1.723421e+01
8.973802e+01	-1.728252e+01
9.025634e+01	-1.733327e+01
9.077766e+01	-1.738078e+01
9.130199e+01	-1.742884e+01
9.182935e+01	-1.747802e+01
9.235975e+01	-1.752828e+01
9.289321e+01	-1.757660e+01
9.342976e+01	-1.762601e+01
9.396941e+01	-1.767606e+01
9.451217e+01	-1.772474e+01
9.505807e+01	-1.777391e+01
9.560712e+01	-1.782243e+01
9.615934e+01	-1.787232e+01
9.671476e+01	-1.792038e+01
9.727338e+01	-1.796993e+01
9.783522e+01	-1.801990e+01
9.840032e+01	-1.806979e+01
9.896867e+01	-1.811920e+01
9.954031e+01	-1.816716e+01
1.001153e+02	-1.821784e+01
1.006935e+02	-1.826649e+01
1.012751e+02	-1.831619e+01
1.018601e+02	-1.836359e+01
1.024484e+02	-1.841445e+01
1.030402e+02	-1.846394e+01
1.036353e+02	-1.851220e+01
1.042339e+02	-1.856148e+01
1.048360e+02	-1.861096e+01
1.054415e+02	-1.866036e+01
1.060505e+02	-1.870999e+01
1.066631e+02	-1.875999e+01
1.072791e+02	-1.880926e+01
1.078988e+02	-1.885810e+01
1.085220e+02	-1.890679e+01
1.091488e+02	-1.895864e+01
1.097793e+02	-1.900750e+01
1.104133e+02	-1.905453e+01
1.110511e+02	-1.910482e+01
1.116925e+02	-1.915409e+01
1.123376e+02	-1.920437e+01
1.129865e+02	-1.925236e+01
1.136391e+02	-1.930227e+01
1.142955e+02	-1.935301e+01
1.149556e+02	-1.940136e+01
1.156196e+02	-1.945019e+01
1.162874e+02	-1.950187e+01
1.169591e+02	-1.955131e+01
1.176347e+02	-1.959996e+01
1.183141e+02	-1.964880e+01
1.189975e+02	-1.969834e+01
1.196848e+02	-1.975014e+01
1.203761e+02	-1.979714e+01
1.210714e+02	-1.984914e+01
1.217707e+02	-1.989641e+01
1.224740e+02	-1.994832e+01
1.231814e+02	-1.999597e+01
1.238929e+02	-2.004564e+01
1.246085e+02	-2.009480e+01
1.253283e+02	-2.014563e+01
1.260522e+02	-2.019459e+01
1.267802e+02	-2.024266e+01
1.275125e+02	-2.029333e+01
1.282490e+02	-2.034198e+01
1.289898e+02	-2.039262e+01
1.297348e+02	-2.044116e+01
1.304842e+02	-2.049284e+01
1.312378e+02	-2.054210e+01
1.319959e+02	-2.058961e+01
1.327583e+02	-2.063991e+01
1.335251e+02	-2.068966e+01
1.342963e+02	-2.073980e+01
1.350720e+02	-2.078812e+01
1.358522e+02	-2.083954e+01
1.366368e+02	-2.088891e+01
1.374260e+02	-2.093924e+01
1.382198e+02	-2.098853e+01
1.390182e+02	-2.103705e+01
1.398211e+02	-2.108663e+01
1.406287e+02	-2.113552e+01
1.414410e+02	-2.118479e+01
1.422579e+02	-2.123516e+01
1.430796e+02	-2.128588e+01
1.439060e+02	-2.133587e+01
1.447372e+02	-2.138520e+01
1.455732e+02	-2.143408e+01
1.464141e+02	-2.148454e+01
1.472597e+02	-2.153379e+01
1.481103e+02	-2.158404e+01
1.489658e+02	-2.163471e+01
1.498262e+02	-2.168358e+01
1.506916e+02	-2.173460e+01
1.515620e+02	-2.178335e+01
1.524374e+02	-2.183324e+01
1.533179e+02	-2.188195e+01
1.542034e+02	-2.193139e+01
1.550941e+02	-2.197929e+01
1.559899e+02	-2.203040e+01
1.568909e+02	-2.208185e+01
1.577971e+02	-2.212961e+01
1.587085e+02	-2.217955e+01
1.596252e+02	-2.223063e+01
1.605472e+02	-2.228011e+01
1.614745e+02	-2.233002e+01
1.624072e+02	-2.238103e+01
1.633453e+02	-2.242883e+01
1.642887e+02	-2.247942e+01
1.652377e+02	-2.252992e+01
1.661921e+02	-2.257837e+01
1.671520e+02	-2.262912e+01
1.681175e+02	-2.267822e+01
1.690885e+02	-2.272745e+01
1.700651e+02	-2.277645e+01
1.710474e+02	-2.282930e+01
1.720354e+02	-2.287754e+01
1.730291e+02	-2.292687e+01
1.740285e+02	-2.297631e+01
1.750337e+02	-2.302535e+01
1.760446e+02	-2.307655e+01
1.770615e+02	-2.312316e+01
1.780842e+02	-2.317568e+01
1.791128e+02	-2.322540e+01
1.801473e+02	-2.327388e+01
1.811878e+02	-2.332515e+01
1.822344e+02	-2.337593e+01
1.832870e+02	-2.342572e+01
1.843456e+02	-2.347477e+01
1.854104e+02	-2.352523e+01
1.864813e+02	-2.357299e+01
1.875584e+02	-2.362361e+01
1.886418e+02	-2.367561e+01
1.897313e+02	-2.372339e+01
1.908272e+02	-2.377302e+01
1.919294e+02	-2.382359e+01
1.930380e+02	-2.387447e+01
1.941530e+02	-2.392503e+01
1.952744e+02	-2.397438e+01
1.964023e+02	-2.402403e+01
1.975367e+02	-2.407187e+01
1.986777e+02	-2.412302e+01
1.998252e+02	-2.417255e+01
2.009794e+02	-2.422347e+01
2.021403e+02	-2.427341e+01
2.033078e+02	-2.432264e+01
2.044821e+02	-2.436865e+01
2.056632e+02	-2.442386e+01
2.068511e+02	-2.447404e+01
2.080459e+02	-2.452300e+01
2.092475e+02	-2.457352e+01
2.104561e+02	-2.462037e+01
2.116717e+02	-2.467027e+01
2.128943e+02	-2.472216e+01
2.141240e+02	-2.477269e+01
2.153608e+02	-2.482142e+01
2.166047e+02	-2.487285e+01
2.178558e+02	-2.492126e+01
2.191141e+02	-2.496976e+01
2.203797e+02	-2.502118e+01
2.216526e+02	-2.507057e+01
2.229329e+02	-2.512090e+01
2.242205e+02	-2.517161e+01
2.255156e+02	-2.521969e+01
2.268182e+02	-2.527116e+01
2.281283e+02	-2.532318e+01
2.294459e+02	-2.536837e+01
2.307712e+02	-2.541971e+01
2.321041e+02	-2.547048e+01
2.334447e+02	-2.552143e+01
2.347931e+02	-2.556681e+01
2.361493e+02	-2.561900e+01
2.375133e+02	-2.567050e+01
2.388851e+02	-2.572026e+01
2.402649e+02	-2.576934e+01
2.416527e+02	-2.582189e+01
2.430484e+02	-2.587199e+01
2.444523e+02	-2.592366e+01
2.458642e+02	-2.596943e+01
2.472843e+02	-2.602016e+01
2.487126e+02	-2.606911e+01
2.501492e+02	-2.611610e+01
2.515940e+02	-2.617016e+01
2.530472e+02	-2.621622e+01
2.545088e+02	-2.626654e+01
2.559789e+02	-2.631876e+01
2.574574e+02	-2.636738e+01
2.589444e+02	-2.641676e+01
2.604401e+02	-2.646792e+01
2.619444e+02	-2.651835e+01
2.634574e+02	-2.656846e+01
2.649791e+02	-2.661842e+01
2.665096e+02	-2.666734e+01
2.680489e+02	-2.672168e+01
2.695972e+02	-2.677291e+01
2.711544e+02	-2.682078e+01
2.727205e+02	-2.687037e+01
2.742958e+02	-2.691996e+01
2.758801e+02	-2.696782e+01
2.774736e+02	-2.702030e+01
2.790762e+02	-2.706851e+01
2.806882e+02	-2.712038e+01
2.823094e+02	-2.716686e+01
2.839400e+02	-2.721952e+01
2.855800e+02	-2.727279e+01
2.872295e+02	-2.731645e+01
2.888886e+02	-2.737257e+01
2.905572e+02	-2.741301e+01
2.922354e+02	-2.746582e+01
2.939234e+02	-2.751680e+01
2.956211e+02	-2.756971e+01
2.973286e+02	-2.761747e+01
2.990459e+02	-2.766973e+01
3.007732e+02	-2.771599e+01
3.025104e+02	-2.776703e+01
3.042577e+02	-2.782018e+01
3.060151e+02	-2.786801e+01
3.077826e+02	-2.791814e+01
3.095604e+02	-2.796681e+01
3.113484e+02	-2.801797e+01
3.131467e+02	-2.806711e+01
3.149554e+02	-2.811946e+01
3.167746e+02	-2.816632e+01
3.186043e+02	-2.821857e+01
3.204445e+02	-2.827179e+01
3.222954e+02	-2.831680e+01
3.241570e+02	-2.836969e+01
3.260293e+02	-2.841641e+01
3.279124e+02	-2.846733e+01
3.298064e+02	-2.851977e+01
3.317114e+02	-2.857154e+01
3.336273e+02	-2.861760e+01
3.355544e+02	-2.867346e+01
3.374925e+02	-2.872161e+01
3.394418e+02	-2.877061e+01
3.414024e+02	-2.882107e+01
3.433744e+02	-2.886881e+01
3.453577e+02	-2.892557e+01
3.473525e+02	-2.897121e+01
3.493588e+02	-2.901727e+01
3.513766e+02	-2.906970e+01
3.534062e+02	-2.911801e+01
3.554474e+02	-2.917328e+01
3.575005e+02	-2.922013e+01
3.595654e+02	-2.926739e+01
3.616422e+02	-2.932027e+01
3.637311e+02	-2.936587e+01
3.658320e+02	-2.941768e+01
3.679450e+02	-2.946769e+01
3.700702e+02	-2.952171e+01
3.722077e+02	-2.957171e+01
3.743576e+02	-2.961890e+01
3.765199e+02	-2.967200e+01
3.786946e+02	-2.972290e+01
3.808820e+02	-2.976620e+01
3.830819e+02	-2.981779e+01
3.852946e+02	-2.987120e+01
3.875200e+02	-2.992552e+01
3.897583e+02	-2.996900e+01
3.920096e+02	-3.002138e+01
3.942738e+02	-3.006669e+01
3.965511e+02	-3.012272e+01
3.988416e+02	-3.016818e+01
4.011452e+02	-3.022479e+01
4.034622e+02	-3.027429e+01
4.057926e+02	-3.032092e+01
4.081365e+02	-3.037377e+01
4.104938e+02	-3.041949e+01
4.128648e+02	-3.047238e+01
4.152495e+02	-3.052110e+01
4.176480e+02	-3.057223e+01
4.200603e+02	-3.062550e+01
4.224866e+02	-3.067584e+01
4.249268e+02	-3.072363e+01
4.273812e+02	-3.077452e+01
4.298497e+02	-3.082209e+01
4.323325e+02	-3.087088e+01
4.348297e+02	-3.092560e+01
4.373412e+02	-3.097409e+01
4.398673e+02	-3.101975e+01
4.424079e+02	-3.107388e+01
4.449633e+02	-3.112494e+01
4.475334e+02	-3.117081e+01
4.501183e+02	-3.122535e+01
4.527182e+02	-3.127522e+01
4.553330e+02	-3.132364e+01
4.579630e+02	-3.137392e+01
4.606082e+02	-3.141920e+01
4.632687e+02	-3.147761e+01
4.659445e+02	-3.152526e+01
4.686358e+02	-3.157771e+01
4.713426e+02	-3.163113e+01
4.740650e+02	-3.167068e+01
4.768032e+02	-3.172849e+01
4.795572e+02	-3.177816e+01
4.823271e+02	-3.182175e+01
4.851130e+02	-3.187611e+01
4.879150e+02	-3.192348e+01
4.907332e+02	-3.197422e+01
4.935676e+02	-3.202924e+01
4.964185e+02	-3.208305e+01
4.992858e+02	-3.213119e+01
5.021696e+02	-3.218260e+01
5.050701e+02	-3.222876e+01
5.079874e+02	-3.227957e+01
5.109215e+02	-3.233010e+01
5.138726e+02	-3.238100e+01
5.168407e+02	-3.242746e+01
5.198259e+02	-3.247560e+01
5.228284e+02	-3.252669e+01
5.258482e+02	-3.258845e+01
5.288855e+02	-3.263306e+01
5.319403e+02	-3.267529e+01
5.350128e+02	-3.272831e+01
5.381030e+02	-3.277774e+01
5.412111e+02	-3.282191e+01
5.443371e+02	-3.287451e+01
5.474812e+02	-3.292971e+01
5.506434e+02	-3.298635e+01
5.538239e+02	-3.302923e+01
5.570228e+02	-3.307665e+01
5.602401e+02	-3.313019e+01
5.634760e+02	-3.317727e+01
5.667306e+02	-3.323714e+01
5.700040e+02	-3.328453e+01
5.732964e+02	-3.333777e+01
5.766077e+02	-3.337685e+01
5.799382e+02	-3.343369e+01
5.832879e+02	-3.348446e+01
5.866569e+02	-3.353490e+01
5.900454e+02	-3.358446e+01
5.934535e+02	-3.363482e+01
5.968813e+02	-3.368726e+01
6.003288e+02	-3.373999e+01
6.037963e+02	-3.378003e+01
6.072838e+02	-3.384117e+01
6.107914e+02	-3.388569e+01
6.143194e+02	-3.394377e+01
6.178676e+02	-3.399043e+01
6.214364e+02	-3.403677e+01
6.250258e+02	-3.408358e+01
6.286359e+02	-3.412597e+01
6.322669e+02	-3.419524e+01
6.359189e+02	-3.423858e+01
6.395919e+02	-3.429369e+01
6.432862e+02	-3.433802e+01
6.470017e+02	-3.438524e+01
6.507388e+02	-3.443737e+01
6.544974e+02	-3.448576e+01
6.582778e+02	-3.453703e+01
6.620800e+02	-3.459378e+01
6.659041e+02	-3.464157e+01
6.697504e+02	-3.468606e+01
6.736188e+02	-3.474016e+01
6.775096e+02	-3.479285e+01
6.814229e+02	-3.484137e+01
6.853587e+02	-3.489330e+01
6.893173e+02	-3.494573e+01
6.932988e+02	-3.499110e+01
6.973033e+02	-3.504562e+01
7.013309e+02	-3.510058e+01
