Frequency(Hz)	Magnitude(dB)
1.000000e+01	-2.361772e+00
1.005776e+01	-2.382668e+00
1.011585e+01	-2.403750e+00
1.017428e+01	-2.425316e+00
1.023305e+01	-2.446652e+00
1.029215e+01	-2.468305e+00
1.035160e+01	-2.490264e+00
1.041139e+01	-2.512016e+00
1.047153e+01	-2.534144e+00
1.053201e+01	-2.556334e+00
1.059284e+01	-2.578624e+00
1.065403e+01	-2.601136e+00
1.071556e+01	-2.623858e+00
1.077746e+01	-2.646609e+00
1.083971e+01	-2.669321e+00
1.090232e+01	-2.692454e+00
1.096529e+01	-2.715615e+00
1.102862e+01	-2.739121e+00
1.109232e+01	-2.762278e+00
1.115639e+01	-2.786275e+00
1.122083e+01	-2.809715e+00
1.128564e+01	-2.833654e+00
1.135083e+01	-2.857834e+00
1.141639e+01	-2.881805e+00
1.148233e+01	-2.906238e+00
1.154865e+01	-2.930552e+00
1.161536e+01	-2.955343e+00
1.168245e+01	-2.980072e+00
1.174992e+01	-3.005072e+00
1.181779e+01	-3.029938e+00
1.188605e+01	-3.055283e+00
1.195470e+01	-3.080603e+00
1.202375e+01	-3.106091e+00
1.209320e+01	-3.131570e+00
1.216305e+01	-3.157406e+00
1.223330e+01	-3.183254e+00
1.230396e+01	-3.209451e+00
1.237503e+01	-3.235501e+00
1.244651e+01	-3.262105e+00
1.251840e+01	-3.288443e+00
1.259070e+01	-3.315008e+00
1.266343e+01	-3.342139e+00
1.273657e+01	-3.368629e+00
1.281014e+01	-3.396092e+00
1.288413e+01	-3.422905e+00
1.295855e+01	-3.450468e+00
1.303339e+01	-3.478012e+00
1.310867e+01	-3.505600e+00
1.318439e+01	-3.533603e+00
1.326054e+01	-3.561323e+00
1.333713e+01	-3.589585e+00
1.341417e+01	-3.617387e+00
1.349165e+01	-3.646070e+00
1.356958e+01	-3.674470e+00
1.364795e+01	-3.702884e+00
1.372678e+01	-3.731762e+00
1.380607e+01	-3.760708e+00
1.388581e+01	-3.789593e+00
1.396602e+01	-3.819037e+00
1.404668e+01	-3.848403e+00
1.412782e+01	-3.877708e+00
1.420942e+01	-3.907195e+00
1.429149e+01	-3.937212e+00
1.437404e+01	-3.967009e+00
1.445706e+01	-3.997018e+00
1.454057e+01	-4.027278e+00
1.462455e+01	-4.057038e+00
1.470902e+01	-4.087952e+00
1.479398e+01	-4.118558e+00
1.487943e+01	-4.149202e+00
1.496537e+01	-4.179999e+00
1.505181e+01	-4.211050e+00
1.513875e+01	-4.242177e+00
1.522619e+01	-4.273547e+00
1.531414e+01	-4.304852e+00
1.540259e+01	-4.336523e+00
1.549156e+01	-4.368127e+00
1.558103e+01	-4.399862e+00
1.567103e+01	-4.431785e+00
1.576155e+01	-4.463798e+00
1.585258e+01	-4.495963e+00
1.594415e+01	-4.528246e+00
1.603624e+01	-4.560773e+00
1.612886e+01	-4.593380e+00
1.622202e+01	-4.626001e+00
1.631572e+01	-4.658805e+00
1.640996e+01	-4.691719e+00
1.650474e+01	-4.725117e+00
1.660008e+01	-4.758360e+00
1.669596e+01	-4.791628e+00
1.679239e+01	-4.825257e+00
1.688938e+01	-4.858730e+00
1.698694e+01	-4.892457e+00
1.708505e+01	-4.926187e+00
1.718373e+01	-4.960202e+00
1.728299e+01	-4.994729e+00
1.738281e+01	-5.028622e+00
1.748322e+01	-5.063089e+00
1.758420e+01	-5.097336e+00
1.768576e+01	-5.132262e+00
1.778792e+01	-5.167069e+00
1.789066e+01	-5.201906e+00
1.799399e+01	-5.237107e+00
1.809793e+01	-5.271859e+00
1.820246e+01	-5.307427e+00
1.830760e+01	-5.342357e+00
1.841334e+01	-5.377727e+00
1.851969e+01	-5.413607e+00
1.862666e+01	-5.449129e+00
1.873425e+01	-5.484942e+00
1.884246e+01	-5.520617e+00
1.895129e+01	-5.556793e+00
1.906075e+01	-5.593259e+00
1.917085e+01	-5.629218e+00
1.928158e+01	-5.665967e+00
1.939295e+01	-5.702356e+00
1.950496e+01	-5.739091e+00
1.961762e+01	-5.775561e+00
1.973093e+01	-5.812737e+00
1.984490e+01	-5.849704e+00
1.995952e+01	-5.886424e+00
2.007480e+01	-5.923973e+00
2.019076e+01	-5.961000e+00
2.030738e+01	-5.998431e+00
2.042467e+01	-6.035787e+00
2.054264e+01	-6.073664e+00
2.066130e+01	-6.111407e+00
2.078064e+01	-6.149049e+00
2.090066e+01	-6.187238e+00
2.102139e+01	-6.224964e+00
2.114280e+01	-6.263545e+00
2.126492e+01	-6.302055e+00
2.138775e+01	-6.339631e+00
2.151128e+01	-6.378695e+00
2.163553e+01	-6.417124e+00
2.176050e+01	-6.455368e+00
2.188619e+01	-6.494501e+00
2.201260e+01	-6.533060e+00
2.213974e+01	-6.572402e+00
2.226762e+01	-6.611176e+00
2.239624e+01	-6.650333e+00
2.252560e+01	-6.689575e+00
2.265571e+01	-6.728654e+00
2.278656e+01	-6.768571e+00
2.291818e+01	-6.808146e+00
2.305055e+01	-6.847612e+00
2.318369e+01	-6.886995e+00
2.331760e+01	-6.927011e+00
2.345228e+01	-6.966771e+00
2.358774e+01	-7.007099e+00
2.372398e+01	-7.047538e+00
2.386101e+01	-7.087515e+00
2.399883e+01	-7.127962e+00
2.413745e+01	-7.168127e+00
2.427686e+01	-7.208763e+00
2.441709e+01	-7.249234e+00
2.455812e+01	-7.289841e+00
2.469997e+01	-7.330632e+00
2.484263e+01	-7.371318e+00
2.498612e+01	-7.412221e+00
2.513044e+01	-7.453260e+00
2.527559e+01	-7.494478e+00
2.542158e+01	-7.535582e+00
2.556842e+01	-7.576675e+00
2.571610e+01	-7.618029e+00
2.586463e+01	-7.659481e+00
2.601403e+01	-7.700936e+00
2.616428e+01	-7.742701e+00
2.631541e+01	-7.784131e+00
2.646740e+01	-7.825829e+00
2.662028e+01	-7.867822e+00
2.677404e+01	-7.909490e+00
2.692868e+01	-7.951525e+00
2.708422e+01	-7.993558e+00
2.724066e+01	-8.035731e+00
2.739800e+01	-8.078242e+00
2.755625e+01	-8.120407e+00
2.771541e+01	-8.162717e+00
2.787550e+01	-8.205039e+00
2.803650e+01	-8.247513e+00
2.819844e+01	-8.290288e+00
2.836131e+01	-8.332627e+00
2.852513e+01	-8.375528e+00
2.868989e+01	-8.418444e+00
2.885560e+01	-8.461279e+00
2.902227e+01	-8.504204e+00
2.918990e+01	-8.547162e+00
2.935850e+01	-8.590085e+00
2.952807e+01	-8.633260e+00
2.969863e+01	-8.676070e+00
2.987016e+01	-8.719211e+00
3.004269e+01	-8.763175e+00
3.021622e+01	-8.806513e+00
3.039075e+01	-8.849744e+00
3.056628e+01	-8.893739e+00
3.074283e+01	-8.936848e+00
3.092040e+01	-8.980463e+00
3.109900e+01	-9.024505e+00
3.127862e+01	-9.068339e+00
3.145929e+01	-9.112137e+00
3.164099e+01	-9.156132e+00
3.182375e+01	-9.199855e+00
3.200756e+01	-9.243578e+00
3.219244e+01	-9.288490e+00
3.237838e+01	-9.332056e+00
3.256540e+01	-9.376437e+00
3.275349e+01	-9.420929e+00
3.294268e+01	-9.465056e+00
3.313295e+01	-9.509615e+00
3.332433e+01	-9.553837e+00
3.351681e+01	-9.598487e+00
3.371040e+01	-9.643423e+00
3.390511e+01	-9.687566e+00
3.410094e+01	-9.732157e+00
3.429791e+01	-9.777416e+00
3.449601e+01	-9.821738e+00
3.469526e+01	-9.866826e+00
3.489566e+01	-9.911736e+00
3.509721e+01	-9.956730e+00
3.529993e+01	-1.000172e+01
3.550382e+01	-1.004656e+01
3.570889e+01	-1.009161e+01
3.591515e+01	-1.013684e+01
3.612259e+01	-1.018202e+01
3.633123e+01	-1.022767e+01
3.654108e+01	-1.027246e+01
3.675214e+01	-1.031813e+01
3.696442e+01	-1.036358e+01
3.717792e+01	-1.040961e+01
3.739266e+01	-1.045469e+01
3.760864e+01	-1.050004e+01
3.782587e+01	-1.054591e+01
3.804435e+01	-1.059120e+01
3.826409e+01	-1.063642e+01
3.848510e+01	-1.068289e+01
3.870739e+01	-1.072832e+01
3.893096e+01	-1.077426e+01
3.915583e+01	-1.082008e+01
3.938199e+01	-1.086546e+01
3.960946e+01	-1.091101e+01
3.983824e+01	-1.095782e+01
4.006834e+01	-1.100421e+01
4.029978e+01	-1.104985e+01
4.053255e+01	-1.109636e+01
4.076666e+01	-1.114251e+01
4.100213e+01	-1.118839e+01
4.123896e+01	-1.123491e+01
4.147715e+01	-1.128100e+01
4.171672e+01	-1.132687e+01
4.195767e+01	-1.137382e+01
4.220002e+01	-1.141971e+01
4.244377e+01	-1.146604e+01
4.268892e+01	-1.151330e+01
4.293549e+01	-1.155886e+01
4.318348e+01	-1.160614e+01
4.343291e+01	-1.165238e+01
4.368377e+01	-1.169961e+01
4.393609e+01	-1.174579e+01
4.418986e+01	-1.179195e+01
4.444510e+01	-1.183960e+01
4.470182e+01	-1.188623e+01
4.496001e+01	-1.193330e+01
4.521970e+01	-1.197958e+01
4.548089e+01	-1.202643e+01
4.574358e+01	-1.207355e+01
4.600779e+01	-1.212107e+01
4.627353e+01	-1.216725e+01
4.654081e+01	-1.221465e+01
4.680963e+01	-1.226149e+01
4.708000e+01	-1.230870e+01
4.735193e+01	-1.235568e+01
4.762543e+01	-1.240305e+01
4.790051e+01	-1.245081e+01
4.817719e+01	-1.249736e+01
4.845545e+01	-1.254450e+01
4.873533e+01	-1.259193e+01
4.901682e+01	-1.263897e+01
4.929994e+01	-1.268656e+01
4.958470e+01	-1.273354e+01
4.987110e+01	-1.278028e+01
5.015915e+01	-1.282866e+01
5.044887e+01	-1.287581e+01
5.074026e+01	-1.292369e+01
5.103333e+01	-1.297117e+01
5.132810e+01	-1.301782e+01
5.162457e+01	-1.306551e+01
5.192275e+01	-1.311316e+01
5.222265e+01	-1.316052e+01
5.252429e+01	-1.320811e+01
5.282767e+01	-1.325591e+01
5.313280e+01	-1.330405e+01
5.343969e+01	-1.335073e+01
5.374836e+01	-1.339904e+01
5.405880e+01	-1.344712e+01
5.437105e+01	-1.349458e+01
5.468509e+01	-1.354305e+01
5.500095e+01	-1.359115e+01
5.531863e+01	-1.363877e+01
5.563815e+01	-1.368592e+01
5.595951e+01	-1.373510e+01
5.628273e+01	-1.378234e+01
5.660782e+01	-1.383000e+01
5.693479e+01	-1.387811e+01
5.726364e+01	-1.392613e+01
5.759439e+01	-1.397453e+01
5.792705e+01	-1.402135e+01
5.826164e+01	-1.407077e+01
5.859815e+01	-1.411839e+01
5.893662e+01	-1.416566e+01
5.927703e+01	-1.421382e+01
5.961941e+01	-1.426196e+01
5.996377e+01	-1.431084e+01
6.031012e+01	-1.435869e+01
6.065847e+01	-1.440740e+01
6.100883e+01	-1.445434e+01
6.136121e+01	-1.450275e+01
6.171563e+01	-1.455238e+01
6.207210e+01	-1.459954e+01
6.243063e+01	-1.464788e+01
6.279122e+01	-1.469671e+01
6.315390e+01	-1.474528e+01
6.351868e+01	-1.479363e+01
6.388556e+01	-1.484192e+01
6.425456e+01	-1.489052e+01
6.462569e+01	-1.493988e+01
6.499897e+01	-1.498747e+01
6.537440e+01	-1.503545e+01
6.575200e+01	-1.508357e+01
6.613178e+01	-1.513147e+01
6.651375e+01	-1.518053e+01
6.689793e+01	-1.523053e+01
6.728433e+01	-1.527713e+01
6.767297e+01	-1.532601e+01
6.806384e+01	-1.537497e+01
6.845698e+01	-1.542352e+01
6.885238e+01	-1.547203e+01
6.925007e+01	-1.552161e+01
6.965005e+01	-1.557072e+01
7.005235e+01	-1.561868e+01
7.045697e+01	-1.566691e+01
7.086393e+01	-1.571574e+01
7.127323e+01	-1.576285e+01
7.168490e+01	-1.581342e+01
7.209895e+01	-1.586126e+01
7.251539e+01	-1.591070e+01
7.293424e+01	-1.595876e+01
7.335551e+01	-1.600827e+01
7.377920e+01	-1.605639e+01
7.420535e+01	-1.610644e+01
7.463396e+01	-1.615444e+01
7.506504e+01	-1.620270e+01
7.549861e+01	-1.625245e+01
7.593469e+01	-1.630109e+01
7.637328e+01	-1.634899e+01
7.681441e+01	-1.639840e+01
7.725809e+01	-1.644694e+01
7.770433e+01	-1.649614e+01
7.815315e+01	-1.654484e+01
7.860456e+01	-1.659393e+01
7.905857e+01	-1.664326e+01
7.951521e+01	-1.669216e+01
7.997449e+01	-1.674074e+01
8.043642e+01	-1.678938e+01
8.090102e+01	-1.683899e+01
8.136830e+01	-1.688933e+01
8.183828e+01	-1.693693e+01
8.231097e+01	-1.698620e+01
8.278640e+01	-1.703425e+01
8.326457e+01	-1.708379e+01
8.374550e+01	-1.713344e+01
8.422921e+01	-1.718183e+01
8.471572e+01	-1.723089e+01
8.520503e+01	-1.728004e+01
8.569717e+01	-1.732987e+01
8.619215e+01	-1.737849e+01
8.669000e+01	-1.742788e+01
8.719071e+01	-1.747688e+01
8.769432e+01	-1.752589e+01
8.820084e+01	-1.757614e+01
8.871029e+01	-1.762336e+01
8.922267e+01	-1.767385e+01
8.973802e+01	-1.772374e+01
9.025634e+01	-1.777172e+01
9.077766e+01	-1.782222e+01
9.130199e+01	-1.786911e+01
9.182935e+01	-1.792043e+01
9.235975e+01	-1.796824e+01
9.289321e+01	-1.801823e+01
9.342976e+01	-1.806909e+01
9.396941e+01	-1.811656e+01
9.451217e+01	-1.816453e+01
9.505807e+01	-1.821411e+01
9.560712e+01	-1.826371e+01
9.615934e+01	-1.831341e+01
9.671476e+01	-1.836375e+01
9.727338e+01	-1.841282e+01
9.783522e+01	-1.846225e+01
9.840032e+01	-1.851105e+01
9.896867e+01	-1.856099e+01
9.954031e+01	-1.860993e+01
1.001153e+02	-1.865890e+01
1.006935e+02	-1.870844e+01
1.012751e+02	-1.875769e+01
1.018601e+02	-1.880758e+01
1.024484e+02	-1.885615e+01
1.030402e+02	-1.890738e+01
1.036353e+02	-1.895529e+01
1.042339e+02	-1.900450e+01
1.048360e+02	-1.905514e+01
1.054415e+02	-1.910269e+01
1.060505e+02	-1.915196e+01
1.066631e+02	-1.920276e+01
1.072791e+02	-1.925288e+01
1.078988e+02	-1.930156e+01
1.085220e+02	-1.935133e+01
1.091488e+02	-1.940058e+01
1.097793e+02	-1.944853e+01
1.104133e+02	-1.949916e+01
1.110511e+02	-1.954792e+01
1.116925e+02	-1.959784e+01
1.123376e+02	-1.964774e+01
1.129865e+02	-1.969623e+01
1.136391e+02	-1.974637e+01
1.142955e+02	-1.979656e+01
1.149556e+02	-1.984631e+01
1.156196e+02	-1.989458e+01
1.162874e+02	-1.994484e+01
1.169591e+02	-1.999428e+01
1.176347e+02	-2.004428e+01
1.183141e+02	-2.009396e+01
1.189975e+02	-2.014395e+01
1.196848e+02	-2.019135e+01
1.203761e+02	-2.024296e+01
1.210714e+02	-2.029006e+01
1.217707e+02	-2.034190e+01
1.224740e+02	-2.038916e+01
1.231814e+02	-2.044259e+01
1.238929e+02	-2.048931e+01
1.246085e+02	-2.053923e+01
1.253283e+02	-2.058843e+01
1.260522e+02	-2.063811e+01
1.267802e+02	-2.068829e+01
1.275125e+02	-2.073592e+01
1.282490e+02	-2.078676e+01
1.289898e+02	-2.083707e+01
1.297348e+02	-2.088641e+01
1.304842e+02	-2.093590e+01
1.312378e+02	-2.098680e+01
1.319959e+02	-2.103506e+01
1.327583e+02	-2.108494e+01
1.335251e+02	-2.113322e+01
1.342963e+02	-2.118519e+01
1.350720e+02	-2.123540e+01
1.358522e+02	-2.128469e+01
1.366368e+02	-2.133300e+01
1.374260e+02	-2.138216e+01
1.382198e+02	-2.143177e+01
1.390182e+02	-2.148297e+01
1.398211e+02	-2.153366e+01
1.406287e+02	-2.158300e+01
1.414410e+02	-2.163139e+01
1.422579e+02	-2.168184e+01
1.430796e+02	-2.173163e+01
1.439060e+02	-2.177844e+01
1.447372e+02	-2.182695e+01
1.455732e+02	-2.187831e+01
1.464141e+02	-2.193057e+01
1.472597e+02	-2.197962e+01
1.481103e+02	-2.203021e+01
1.489658e+02	-2.208056e+01
1.498262e+02	-2.212985e+01
1.506916e+02	-2.217867e+01
1.515620e+02	-2.222864e+01
1.524374e+02	-2.227728e+01
1.533179e+02	-2.232839e+01
1.542034e+02	-2.237751e+01
1.550941e+02	-2.242679e+01
1.559899e+02	-2.247727e+01
1.568909e+02	-2.252729e+01
1.577971e+02	-2.257699e+01
1.587085e+02	-2.262621e+01
1.596252e+02	-2.267708e+01
1.605472e+02	-2.272764e+01
1.614745e+02	-2.277474e+01
1.624072e+02	-2.282477e+01
1.633453e+02	-2.287508e+01
1.642887e+02	-2.292711e+01
1.652377e+02	-2.297545e+01
1.661921e+02	-2.302603e+01
1.671520e+02	-2.307413e+01
1.681175e+02	-2.312118e+01
1.690885e+02	-2.317384e+01
1.700651e+02	-2.322476e+01
1.710474e+02	-2.327371e+01
1.720354e+02	-2.332324e+01
1.730291e+02	-2.337379e+01
1.740285e+02	-2.342242e+01
1.750337e+02	-2.347552e+01
1.760446e+02	-2.352295e+01
1.770615e+02	-2.356930e+01
1.780842e+02	-2.362283e+01
1.791128e+02	-2.367304e+01
1.801473e+02	-2.371942e+01
1.811878e+02	-2.377164e+01
1.822344e+02	-2.382245e+01
1.832870e+02	-2.387075e+01
1.843456e+02	-2.392066e+01
1.854104e+02	-2.397121e+01
1.864813e+02	-2.402139e+01
1.875584e+02	-2.406997e+01
1.886418e+02	-2.411837e+01
1.897313e+02	-2.417115e+01
1.908272e+02	-2.421920e+01
1.919294e+02	-2.427276e+01
1.930380e+02	-2.431851e+01
1.941530e+02	-2.436904e+01
1.952744e+02	-2.441921e+01
1.964023e+02	-2.446950e+01
1.975367e+02	-2.452019e+01
1.986777e+02	-2.456845e+01
1.998252e+02	-2.461813e+01
2.009794e+02	-2.466883e+01
2.021403e+02	-2.471828e+01
2.033078e+02	-2.476769e+01
2.044821e+02	-2.481635e+01
2.056632e+02	-2.486848e+01
2.068511e+02	-2.491928e+01
2.080459e+02	-2.497000e+01
2.092475e+02	-2.501733e+01
2.104561e+02	-2.507052e+01
2.116717e+02	-2.512013e+01
2.128943e+02	-2.517123e+01
2.141240e+02	-2.521770e+01
2.153608e+02	-2.526946e+01
2.166047e+02	-2.531783e+01
2.178558e+02	-2.536793e+01
2.191141e+02	-2.541829e+01
2.203797e+02	-2.546685e+01
2.216526e+02	-2.551831e+01
2.229329e+02	-2.556890e+01
2.242205e+02	-2.561672e+01
2.255156e+02	-2.566685e+01
2.268182e+02	-2.571628e+01
2.281283e+02	-2.576621e+01
2.294459e+02	-2.581820e+01
2.307712e+02	-2.586910e+01
2.321041e+02	-2.592012e+01
2.334447e+02	-2.596703e+01
2.347931e+02	-2.601894e+01
2.361493e+02	-2.606648e+01
2.375133e+02	-2.611671e+01
2.388851e+02	-2.616812e+01
2.402649e+02	-2.621807e+01
2.416527e+02	-2.626336e+01
2.430484e+02	-2.631939e+01
2.444523e+02	-2.636593e+01
2.458642e+02	-2.641723e+01
2.472843e+02	-2.646428e+01
2.487126e+02	-2.651773e+01
2.501492e+02	-2.656981e+01
2.515940e+02	-2.661766e+01
2.530472e+02	-2.666691e+01
2.545088e+02	-2.672034e+01
2.559789e+02	-2.676482e+01
2.574574e+02	-2.682033e+01
2.589444e+02	-2.686847e+01
2.604401e+02	-2.691681e+01
2.619444e+02	-2.696846e+01
2.634574e+02	-2.701521e+01
2.649791e+02	-2.706474e+01
2.665096e+02	-2.711753e+01
2.680489e+02	-2.716937e+01
2.695972e+02	-2.721737e+01
2.711544e+02	-2.726268e+01
2.727205e+02	-2.731391e+01
2.742958e+02	-2.736993e+01
2.758801e+02	-2.741909e+01
2.774736e+02	-2.746681e+01
2.790762e+02	-2.751658e+01
2.806882e+02	-2.756572e+01
2.823094e+02	-2.761678e+01
2.839400e+02	-2.766548e+01
2.855800e+02	-2.771647e+01
2.872295e+02	-2.776914e+01
2.888886e+02	-2.781693e+01
2.905572e+02	-2.786882e+01
2.922354e+02	-2.791369e+01
2.939234e+02	-2.796447e+01
2.956211e+02	-2.801672e+01
2.973286e+02	-2.806821e+01
2.990459e+02	-2.811653e+01
3.007732e+02	-2.816494e+01
3.025104e+02	-2.821624e+01
3.042577e+02	-2.827242e+01
3.060151e+02	-2.831760e+01
3.077826e+02	-2.836484e+01
3.095604e+02	-2.841575e+01
3.113484e+02	-2.846958e+01
3.131467e+02	-2.852004e+01
3.149554e+02	-2.856700e+01
3.167746e+02	-2.861812e+01
3.186043e+02	-2.866895e+01
3.204445e+02	-2.871963e+01
3.222954e+02	-2.876727e+01
3.241570e+02	-2.881745e+01
3.260293e+02	-2.886786e+01
3.279124e+02	-2.891446e+01
3.298064e+02	-2.896624e+01
3.317114e+02	-2.901341e+01
3.336273e+02	-2.906628e+01
3.355544e+02	-2.911295e+01
3.374925e+02	-2.916900e+01
3.394418e+02	-2.921730e+01
3.414024e+02	-2.927184e+01
3.433744e+02	-2.932143e+01
3.453577e+02	-2.936564e+01
3.473525e+02	-2.942198e+01
3.493588e+02	-2.947147e+01
3.513766e+02	-2.951542e+01
3.534062e+02	-2.956841e+01
3.554474e+02	-2.962312e+01
3.575005e+02	-2.966518e+01
3.595654e+02	-2.972137e+01
3.616422e+02	-2.976769e+01
3.637311e+02	-2.982218e+01
3.658320e+02	-2.986971e+01
3.679450e+02	-2.992102e+01
3.700702e+02	-2.997302e+01
3.722077e+02	-3.002035e+01
3.743576e+02	-3.006895e+01
3.765199e+02	-3.011685e+01
3.786946e+02	-3.017077e+01
3.808820e+02	-3.021366e+01
3.830819e+02	-3.026796e+01
3.852946e+02	-3.031582e+01
3.875200e+02	-3.037246e+01
3.897583e+02	-3.042669e+01
3.920096e+02	-3.047358e+01
3.942738e+02	-3.051944e+01
3.965511e+02	-3.057129e+01
3.988416e+02	-3.061714e+01
4.011452e+02	-3.066774e+01
4.034622e+02	-3.072187e+01
4.057926e+02	-3.076799e+01
4.081365e+02	-3.082178e+01
4.104938e+02	-3.086952e+01
4.128648e+02	-3.092220e+01
4.152495e+02	-3.097403e+01
4.176480e+02	-3.102193e+01
4.200603e+02	-3.106929e+01
4.224866e+02	-3.111817e+01
4.249268e+02	-3.117287e+01
4.273812e+02	-3.122039e+01
4.298497e+02	-3.127135e+01
4.323325e+02	-3.132422e+01
4.348297e+02	-3.137575e+01
4.373412e+02	-3.142151e+01
4.398673e+02	-3.147292e+01
4.424079e+02	-3.152130e+01
4.449633e+02	-3.156991e+01
4.475334e+02	-3.162086e+01
4.501183e+02	-3.167530e+01
4.527182e+02	-3.171536e+01
4.553330e+02	-3.177635e+01
4.579630e+02	-3.182849e+01
4.606082e+02	-3.187213e+01
4.632687e+02	-3.191640e+01
4.659445e+02	-3.197948e+01
4.686358e+02	-3.202794e+01
4.713426e+02	-3.207864e+01
4.740650e+02	-3.212866e+01
4.768032e+02	-3.217091e+01
4.795572e+02	-3.223282e+01
4.823271e+02	-3.227633e+01
4.851130e+02	-3.232439e+01
4.879150e+02	-3.237210e+01
4.907332e+02	-3.242548e+01
4.935676e+02	-3.248087e+01
4.964185e+02	-3.252978e+01
4.992858e+02	-3.257887e+01
5.021696e+02	-3.262468e+01
5.050701e+02	-3.268091e+01
5.079874e+02	-3.272981e+01
5.109215e+02	-3.278581e+01
5.138726e+02	-3.282694e+01
5.168407e+02	-3.288081e+01
5.198259e+02	-3.292691e+01
5.228284e+02	-3.297902e+01
5.258482e+02	-3.303446e+01
5.288855e+02	-3.307382e+01
5.319403e+02	-3.313111e+01
5.350128e+02	-3.318439e+01
5.381030e+02	-3.322769e+01
5.412111e+02	-3.328176e+01
5.443371e+02	-3.333340e+01
5.474812e+02	-3.338548e+01
5.506434e+02	-3.343328e+01
5.538239e+02	-3.347351e+01
5.570228e+02	-3.353113e+01
5.602401e+02	-3.357799e+01
5.634760e+02	-3.362398e+01
5.667306e+02	-3.368618e+01
5.700040e+02	-3.372699e+01
5.732964e+02	-3.377861e+01
5.766077e+02	-3.383203e+01
5.799382e+02	-3.387790e+01
5.832879e+02	-3.393738e+01
5.866569e+02	-3.397830e+01
5.900454e+02	-3.403624e+01
5.934535e+02	-3.407826e+01
5.968813e+02	-3.413764e+01
6.003288e+02	-3.418644e+01
6.037963e+02	-3.424082e+01
6.072838e+02	-3.429050e+01
6.107914e+02	-3.434129e+01
6.143194e+02	-3.438280e+01
6.178676e+02	-3.443537e+01
6.214364e+02	-3.448443e+01
6.250258e+02	-3.454373e+01
6.286359e+02	-3.457578e+01
6.322669e+02	-3.464078e+01
6.359189e+02	-3.468547e+01
6.395919e+02	-3.474041e+01
6.432862e+02	-3.479128e+01
6.470017e+02	-3.483539e+01
6.507388e+02	-3.490061e+01
6.544974e+02	-3.494480e+01
6.582778e+02	-3.499642e+01
6.620800e+02	-3.504130e+01
6.659041e+02	-3.509760e+01
6.697504e+02	-3.514989e+01
6.736188e+02	-3.519098e+01
6.775096e+02	-3.524070e+01
6.814229e+02	-3.529567e+01
6.853587e+02	-3.534116e+01
6.893173e+02	-3.539344e+01
6.932988e+02	-3.544547e+01
6.973033e+02	-3.550052e+01
7.013309e+02	-3.555043e+01
