Frequency(Hz)	Magnitude(dB)
1.000000e+01	-2.042605e+00
1.005776e+01	-2.061491e+00
1.011585e+01	-2.080682e+00
1.017428e+01	-2.099638e+00
1.023305e+01	-2.118851e+00
1.029215e+01	-2.138527e+00
1.035160e+01	-2.157970e+00
1.041139e+01	-2.177554e+00
1.047153e+01	-2.197384e+00
1.053201e+01	-2.217231e+00
1.059284e+01	-2.237485e+00
1.065403e+01	-2.257397e+00
1.071556e+01	-2.277791e+00
1.077746e+01	-2.298552e+00
1.083971e+01	-2.319039e+00
1.090232e+01	-2.339823e+00
1.096529e+01	-2.360614e+00
1.102862e+01	-2.381800e+00
1.109232e+01	-2.402882e+00
1.115639e+01	-2.424216e+00
1.122083e+01	-2.445779e+00
1.128564e+01	-2.467287e+00
1.135083e+01	-2.488973e+00
1.141639e+01	-2.510992e+00
1.148233e+01	-2.532988e+00
1.154865e+01	-2.555162e+00
1.161536e+01	-2.577454e+00
1.168245e+01	-2.599869e+00
1.174992e+01	-2.622300e+00
1.181779e+01	-2.645365e+00
1.188605e+01	-2.668186e+00
1.195470e+01	-2.691182e+00
1.202375e+01	-2.714432e+00
1.209320e+01	-2.737998e+00
1.216305e+01	-2.761303e+00
1.223330e+01	-2.784715e+00
1.230396e+01	-2.808472e+00
1.237503e+01	-2.832507e+00
1.244651e+01	-2.856612e+00
1.251840e+01	-2.880626e+00
1.259070e+01	-2.904908e+00
1.266343e+01	-2.929566e+00
1.273657e+01	-2.954119e+00
1.281014e+01	-2.978901e+00
1.288413e+01	-3.003603e+00
1.295855e+01	-3.028643e+00
1.303339e+01	-3.053942e+00
1.310867e+01	-3.079550e+00
1.318439e+01	-3.104691e+00
1.326054e+01	-3.130005e+00
1.333713e+01	-3.156283e+00
1.341417e+01	-3.182188e+00
1.349165e+01	-3.208186e+00
1.356958e+01	-3.234235e+00
1.364795e+01	-3.261050e+00
1.372678e+01	-3.287164e+00
1.380607e+01	-3.313938e+00
1.388581e+01	-3.340682e+00
1.396602e+01	-3.367661e+00
1.404668e+01	-3.394472e+00
1.412782e+01	-3.421894e+00
1.420942e+01	-3.449062e+00
1.429149e+01	-3.476782e+00
1.437404e+01	-3.504288e+00
1.445706e+01	-3.532182e+00
1.454057e+01	-3.559599e+00
1.462455e+01	-3.588134e+00
1.470902e+01	-3.616014e+00
1.479398e+01	-3.644436e+00
1.487943e+01	-3.672987e+00
1.496537e+01	-3.701620e+00
1.505181e+01	-3.730257e+00
1.513875e+01	-3.759118e+00
1.522619e+01	-3.788426e+00
1.531414e+01	-3.817401e+00
1.540259e+01	-3.846968e+00
1.549156e+01	-3.876405e+00
1.558103e+01	-3.906052e+00
1.567103e+01	-3.935693e+00
1.576155e+01	-3.965689e+00
1.585258e+01	-3.995445e+00
1.594415e+01	-4.025604e+00
1.603624e+01	-4.055999e+00
1.612886e+01	-4.086692e+00
1.622202e+01	-4.116775e+00
1.631572e+01	-4.147547e+00
1.640996e+01	-4.178456e+00
1.650474e+01	-4.209513e+00
1.660008e+01	-4.240632e+00
1.669596e+01	-4.271948e+00
1.679239e+01	-4.303005e+00
1.688938e+01	-4.334881e+00
1.698694e+01	-4.366516e+00
1.708505e+01	-4.398165e+00
1.718373e+01	-4.430037e+00
1.728299e+01	-4.462186e+00
1.738281e+01	-4.494419e+00
1.748322e+01	-4.526715e+00
1.758420e+01	-4.559430e+00
1.768576e+01	-4.591531e+00
1.778792e+01	-4.624408e+00
1.789066e+01	-4.657465e+00
1.799399e+01	-4.690347e+00
1.809793e+01	-4.723415e+00
1.820246e+01	-4.756499e+00
1.830760e+01	-4.789785e+00
1.841334e+01	-4.823455e+00
1.851969e+01	-4.856868e+00
1.862666e+01	-4.890678e+00
1.873425e+01	-4.924706e+00
1.884246e+01	-4.958621e+00
1.895129e+01	-4.992759e+00
1.906075e+01	-5.026909e+00
1.917085e+01	-5.061195e+00
1.928158e+01	-5.095982e+00
1.939295e+01	-5.130420e+00
1.950496e+01	-5.165053e+00
1.961762e+01	-5.200411e+00
1.973093e+01	-5.234792e+00
1.984490e+01	-5.270082e+00
1.995952e+01	-5.305066e+00
2.007480e+01	-5.340647e+00
2.019076e+01	-5.376368e+00
2.030738e+01	-5.411602e+00
2.042467e+01	-5.447757e+00
2.054264e+01	-5.483285e+00
2.066130e+01	-5.519183e+00
2.078064e+01	-5.555111e+00
2.090066e+01	-5.591246e+00
2.102139e+01	-5.627356e+00
2.114280e+01	-5.664140e+00
2.126492e+01	-5.700532e+00
2.138775e+01	-5.737313e+00
2.151128e+01	-5.773962e+00
2.163553e+01	-5.810908e+00
2.176050e+01	-5.847858e+00
2.188619e+01	-5.884846e+00
2.201260e+01	-5.921953e+00
2.213974e+01	-5.959186e+00
2.226762e+01	-5.996365e+00
2.239624e+01	-6.034065e+00
2.252560e+01	-6.071540e+00
2.265571e+01	-6.109523e+00
2.278656e+01	-6.147371e+00
2.291818e+01	-6.185027e+00
2.305055e+01	-6.223338e+00
2.318369e+01	-6.261615e+00
2.331760e+01	-6.299567e+00
2.345228e+01	-6.337866e+00
2.358774e+01	-6.376289e+00
2.372398e+01	-6.414832e+00
2.386101e+01	-6.453772e+00
2.399883e+01	-6.492438e+00
2.413745e+01	-6.531402e+00
2.427686e+01	-6.570317e+00
2.441709e+01	-6.609346e+00
2.455812e+01	-6.648588e+00
2.469997e+01	-6.687656e+00
2.484263e+01	-6.727421e+00
2.498612e+01	-6.766315e+00
2.513044e+01	-6.805989e+00
2.527559e+01	-6.845896e+00
2.542158e+01	-6.885292e+00
2.556842e+01	-6.925230e+00
2.571610e+01	-6.965120e+00
2.586463e+01	-7.005118e+00
2.601403e+01	-7.045238e+00
2.616428e+01	-7.085449e+00
2.631541e+01	-7.125875e+00
2.646740e+01	-7.166297e+00
2.662028e+01	-7.206712e+00
2.677404e+01	-7.247190e+00
2.692868e+01	-7.287951e+00
2.708422e+01	-7.328352e+00
2.724066e+01	-7.369637e+00
2.739800e+01	-7.410055e+00
2.755625e+01	-7.451345e+00
2.771541e+01	-7.492190e+00
2.787550e+01	-7.533200e+00
2.803650e+01	-7.574963e+00
2.819844e+01	-7.616391e+00
2.836131e+01	-7.657406e+00
2.852513e+01	-7.698972e+00
2.868989e+01	-7.740314e+00
2.885560e+01	-7.782420e+00
2.902227e+01	-7.823906e+00
2.918990e+01	-7.865706e+00
2.935850e+01	-7.907727e+00
2.952807e+01	-7.949477e+00
2.969863e+01	-7.991432e+00
2.987016e+01	-8.033577e+00
3.004269e+01	-8.075904e+00
3.021622e+01	-8.118082e+00
3.039075e+01	-8.160560e+00
3.056628e+01	-8.202932e+00
3.074283e+01	-8.245488e+00
3.092040e+01	-8.287790e+00
3.109900e+01	-8.330648e+00
3.127862e+01	-8.373419e+00
3.145929e+01	-8.416023e+00
3.164099e+01	-8.458868e+00
3.182375e+01	-8.502181e+00
3.200756e+01	-8.544957e+00
3.219244e+01	-8.587649e+00
3.237838e+01	-8.631096e+00
3.256540e+01	-8.674009e+00
3.275349e+01	-8.717446e+00
3.294268e+01	-8.760756e+00
3.313295e+01	-8.804001e+00
3.332433e+01	-8.847706e+00
3.351681e+01	-8.891622e+00
3.371040e+01	-8.934848e+00
3.390511e+01	-8.979017e+00
3.410094e+01	-9.022514e+00
3.429791e+01	-9.066452e+00
3.449601e+01	-9.110282e+00
3.469526e+01	-9.153612e+00
3.489566e+01	-9.197678e+00
3.509721e+01	-9.241881e+00
3.529993e+01	-9.286511e+00
3.550382e+01	-9.329820e+00
3.570889e+01	-9.374388e+00
3.591515e+01	-9.418423e+00
3.612259e+01	-9.462954e+00
3.633123e+01	-9.507360e+00
3.654108e+01	-9.551618e+00
3.675214e+01	-9.596668e+00
3.696442e+01	-9.640655e+00
3.717792e+01	-9.685850e+00
3.739266e+01	-9.729985e+00
3.760864e+01	-9.774566e+00
3.782587e+01	-9.819488e+00
3.804435e+01	-9.863937e+00
3.826409e+01	-9.909200e+00
3.848510e+01	-9.954321e+00
3.870739e+01	-9.999476e+00
3.893096e+01	-1.004479e+01
3.915583e+01	-1.008901e+01
3.938199e+01	-1.013499e+01
3.960946e+01	-1.017991e+01
3.983824e+01	-1.022491e+01
4.006834e+01	-1.027037e+01
4.029978e+01	-1.031590e+01
4.053255e+01	-1.036144e+01
4.076666e+01	-1.040643e+01
4.100213e+01	-1.045171e+01
4.123896e+01	-1.049813e+01
4.147715e+01	-1.054345e+01
4.171672e+01	-1.058842e+01
4.195767e+01	-1.063468e+01
4.220002e+01	-1.068053e+01
4.244377e+01	-1.072528e+01
4.268892e+01	-1.077142e+01
4.293549e+01	-1.081757e+01
4.318348e+01	-1.086343e+01
4.343291e+01	-1.090929e+01
4.368377e+01	-1.095636e+01
4.393609e+01	-1.100175e+01
4.418986e+01	-1.104767e+01
4.444510e+01	-1.109375e+01
4.470182e+01	-1.114000e+01
4.496001e+01	-1.118648e+01
4.521970e+01	-1.123188e+01
4.548089e+01	-1.127878e+01
4.574358e+01	-1.132537e+01
4.600779e+01	-1.137122e+01
4.627353e+01	-1.141774e+01
4.654081e+01	-1.146432e+01
4.680963e+01	-1.151067e+01
4.708000e+01	-1.155757e+01
4.735193e+01	-1.160327e+01
4.762543e+01	-1.165043e+01
4.790051e+01	-1.169739e+01
4.817719e+01	-1.174412e+01
4.845545e+01	-1.179065e+01
4.873533e+01	-1.183699e+01
4.901682e+01	-1.188416e+01
4.929994e+01	-1.193094e+01
4.958470e+01	-1.197761e+01
4.987110e+01	-1.202418e+01
5.015915e+01	-1.207166e+01
5.044887e+01	-1.211840e+01
5.074026e+01	-1.216488e+01
5.103333e+01	-1.221125e+01
5.132810e+01	-1.225875e+01
5.162457e+01	-1.230636e+01
5.192275e+01	-1.235300e+01
5.222265e+01	-1.240083e+01
5.252429e+01	-1.244744e+01
5.282767e+01	-1.249488e+01
5.313280e+01	-1.254204e+01
5.343969e+01	-1.258909e+01
5.374836e+01	-1.263638e+01
5.405880e+01	-1.268520e+01
5.437105e+01	-1.273076e+01
5.468509e+01	-1.277758e+01
5.500095e+01	-1.282632e+01
5.531863e+01	-1.287389e+01
5.563815e+01	-1.292095e+01
5.595951e+01	-1.296820e+01
5.628273e+01	-1.301599e+01
5.660782e+01	-1.306345e+01
5.693479e+01	-1.311104e+01
5.726364e+01	-1.315864e+01
5.759439e+01	-1.320644e+01
5.792705e+01	-1.325387e+01
5.826164e+01	-1.330160e+01
5.859815e+01	-1.334957e+01
5.893662e+01	-1.339684e+01
5.927703e+01	-1.344473e+01
5.961941e+01	-1.349259e+01
5.996377e+01	-1.354048e+01
6.031012e+01	-1.358878e+01
6.065847e+01	-1.363606e+01
6.100883e+01	-1.368399e+01
6.136121e+01	-1.373163e+01
6.171563e+01	-1.377975e+01
6.207210e+01	-1.382726e+01
6.243063e+01	-1.387560e+01
6.279122e+01	-1.392362e+01
6.315390e+01	-1.397170e+01
6.351868e+01	-1.401935e+01
6.388556e+01	-1.406781e+01
6.425456e+01	-1.411545e+01
6.462569e+01	-1.416334e+01
6.499897e+01	-1.421201e+01
6.537440e+01	-1.425988e+01
6.575200e+01	-1.430816e+01
6.613178e+01	-1.435750e+01
6.651375e+01	-1.440378e+01
6.689793e+01	-1.445237e+01
6.728433e+01	-1.450059e+01
6.767297e+01	-1.454970e+01
6.806384e+01	-1.459813e+01
6.845698e+01	-1.464572e+01
6.885238e+01	-1.469468e+01
6.925007e+01	-1.474248e+01
6.965005e+01	-1.479124e+01
7.005235e+01	-1.483876e+01
7.045697e+01	-1.488842e+01
7.086393e+01	-1.493707e+01
7.127323e+01	-1.498488e+01
7.168490e+01	-1.503294e+01
7.209895e+01	-1.508156e+01
7.251539e+01	-1.513080e+01
7.293424e+01	-1.517891e+01
7.335551e+01	-1.522788e+01
7.377920e+01	-1.527519e+01
7.420535e+01	-1.532355e+01
7.463396e+01	-1.537231e+01
7.506504e+01	-1.542184e+01
7.549861e+01	-1.546938e+01
7.593469e+01	-1.551844e+01
7.637328e+01	-1.556727e+01
7.681441e+01	-1.561599e+01
7.725809e+01	-1.566526e+01
7.770433e+01	-1.571355e+01
7.815315e+01	-1.576210e+01
7.860456e+01	-1.581077e+01
7.905857e+01	-1.585991e+01
7.951521e+01	-1.590816e+01
7.997449e+01	-1.595678e+01
8.043642e+01	-1.600547e+01
8.090102e+01	-1.605435e+01
8.136830e+01	-1.610237e+01
8.183828e+01	-1.615290e+01
8.231097e+01	-1.620030e+01
8.278640e+01	-1.624951e+01
8.326457e+01	-1.629894e+01
8.374550e+01	-1.634645e+01
8.422921e+01	-1.639676e+01
8.471572e+01	-1.644437e+01
8.520503e+01	-1.649401e+01
8.569717e+01	-1.654290e+01
8.619215e+01	-1.659186e+01
8.669000e+01	-1.664070e+01
8.719071e+01	-1.668998e+01
8.769432e+01	-1.673858e+01
8.820084e+01	-1.678851e+01
8.871029e+01	-1.683660e+01
8.922267e+01	-1.688502e+01
8.973802e+01	-1.693443e+01
9.025634e+01	-1.698405e+01
9.077766e+01	-1.703182e+01
9.130199e+01	-1.708247e+01
9.182935e+01	-1.712973e+01
9.235975e+01	-1.718062e+01
9.289321e+01	-1.722893e+01
9.342976e+01	-1.727744e+01
9.396941e+01	-1.732691e+01
9.451217e+01	-1.737691e+01
9.505807e+01	-1.742531e+01
9.560712e+01	-1.747299e+01
9.615934e+01	-1.752185e+01
9.671476e+01	-1.757306e+01
9.727338e+01	-1.762166e+01
9.783522e+01	-1.767130e+01
9.840032e+01	-1.772086e+01
9.896867e+01	-1.776934e+01
9.954031e+01	-1.781835e+01
1.001153e+02	-1.786871e+01
1.006935e+02	-1.791701e+01
1.012751e+02	-1.796656e+01
1.018601e+02	-1.801580e+01
1.024484e+02	-1.806572e+01
1.030402e+02	-1.811409e+01
1.036353e+02	-1.816385e+01
1.042339e+02	-1.821262e+01
1.048360e+02	-1.826217e+01
1.054415e+02	-1.831181e+01
1.060505e+02	-1.836079e+01
1.066631e+02	-1.840972e+01
1.072791e+02	-1.845942e+01
1.078988e+02	-1.850884e+01
1.085220e+02	-1.855817e+01
1.091488e+02	-1.860726e+01
1.097793e+02	-1.865745e+01
1.104133e+02	-1.870561e+01
1.110511e+02	-1.875450e+01
1.116925e+02	-1.880401e+01
1.123376e+02	-1.885274e+01
1.129865e+02	-1.890216e+01
1.136391e+02	-1.895284e+01
1.142955e+02	-1.900214e+01
1.149556e+02	-1.905328e+01
1.156196e+02	-1.910157e+01
1.162874e+02	-1.915194e+01
1.169591e+02	-1.919948e+01
1.176347e+02	-1.924955e+01
1.183141e+02	-1.929884e+01
1.189975e+02	-1.934818e+01
1.196848e+02	-1.939836e+01
1.203761e+02	-1.944783e+01
1.210714e+02	-1.949612e+01
1.217707e+02	-1.954714e+01
1.224740e+02	-1.959498e+01
1.231814e+02	-1.964467e+01
1.238929e+02	-1.969324e+01
1.246085e+02	-1.974438e+01
1.253283e+02	-1.979338e+01
1.260522e+02	-1.984355e+01
1.267802e+02	-1.989279e+01
1.275125e+02	-1.994385e+01
1.282490e+02	-1.999099e+01
1.289898e+02	-2.004187e+01
1.297348e+02	-2.009096e+01
1.304842e+02	-2.014063e+01
1.312378e+02	-2.018971e+01
1.319959e+02	-2.024050e+01
1.327583e+02	-2.029031e+01
1.335251e+02	-2.033818e+01
1.342963e+02	-2.038784e+01
1.350720e+02	-2.043830e+01
1.358522e+02	-2.048787e+01
1.366368e+02	-2.053692e+01
1.374260e+02	-2.058760e+01
1.382198e+02	-2.063777e+01
1.390182e+02	-2.068672e+01
1.398211e+02	-2.073500e+01
1.406287e+02	-2.078400e+01
1.414410e+02	-2.083617e+01
1.422579e+02	-2.088489e+01
1.430796e+02	-2.093301e+01
1.439060e+02	-2.098417e+01
1.447372e+02	-2.103229e+01
1.455732e+02	-2.108293e+01
1.464141e+02	-2.113208e+01
1.472597e+02	-2.118062e+01
1.481103e+02	-2.123140e+01
1.489658e+02	-2.128123e+01
1.498262e+02	-2.132890e+01
1.506916e+02	-2.138041e+01
1.515620e+02	-2.143150e+01
1.524374e+02	-2.148006e+01
1.533179e+02	-2.152927e+01
1.542034e+02	-2.158117e+01
1.550941e+02	-2.162946e+01
1.559899e+02	-2.168085e+01
1.568909e+02	-2.172934e+01
1.577971e+02	-2.177846e+01
1.587085e+02	-2.182760e+01
1.596252e+02	-2.187891e+01
1.605472e+02	-2.192791e+01
1.614745e+02	-2.197514e+01
1.624072e+02	-2.202688e+01
1.633453e+02	-2.207455e+01
1.642887e+02	-2.212708e+01
1.652377e+02	-2.217708e+01
1.661921e+02	-2.222670e+01
1.671520e+02	-2.227501e+01
1.681175e+02	-2.232590e+01
1.690885e+02	-2.237632e+01
1.700651e+02	-2.242589e+01
1.710474e+02	-2.247203e+01
1.720354e+02	-2.252460e+01
1.730291e+02	-2.257484e+01
1.740285e+02	-2.262360e+01
1.750337e+02	-2.267468e+01
1.760446e+02	-2.272373e+01
1.770615e+02	-2.277267e+01
1.780842e+02	-2.281984e+01
1.791128e+02	-2.287316e+01
1.801473e+02	-2.292052e+01
1.811878e+02	-2.297155e+01
1.822344e+02	-2.302304e+01
1.832870e+02	-2.307134e+01
1.843456e+02	-2.312217e+01
1.854104e+02	-2.317218e+01
1.864813e+02	-2.321993e+01
1.875584e+02	-2.327086e+01
1.886418e+02	-2.332043e+01
1.897313e+02	-2.337110e+01
1.908272e+02	-2.342071e+01
1.919294e+02	-2.346846e+01
1.930380e+02	-2.352004e+01
1.941530e+02	-2.357109e+01
1.952744e+02	-2.361866e+01
1.964023e+02	-2.367024e+01
1.975367e+02	-2.371990e+01
1.986777e+02	-2.377009e+01
1.998252e+02	-2.381839e+01
2.009794e+02	-2.387058e+01
2.021403e+02	-2.391753e+01
2.033078e+02	-2.396912e+01
2.044821e+02	-2.401867e+01
2.056632e+02	-2.406941e+01
2.068511e+02	-2.411976e+01
2.080459e+02	-2.416674e+01
2.092475e+02	-2.421814e+01
2.104561e+02	-2.426725e+01
2.116717e+02	-2.431739e+01
2.128943e+02	-2.437035e+01
2.141240e+02	-2.441912e+01
2.153608e+02	-2.446940e+01
2.166047e+02	-2.451737e+01
2.178558e+02	-2.456485e+01
2.191141e+02	-2.461822e+01
2.203797e+02	-2.466876e+01
2.216526e+02	-2.471600e+01
2.229329e+02	-2.476950e+01
2.242205e+02	-2.481638e+01
2.255156e+02	-2.486807e+01
2.268182e+02	-2.491791e+01
2.281283e+02	-2.496476e+01
2.294459e+02	-2.501722e+01
2.307712e+02	-2.506658e+01
2.321041e+02	-2.511689e+01
2.334447e+02	-2.516571e+01
2.347931e+02	-2.521714e+01
2.361493e+02	-2.526491e+01
2.375133e+02	-2.531314e+01
2.388851e+02	-2.536660e+01
2.402649e+02	-2.541853e+01
2.416527e+02	-2.546617e+01
2.430484e+02	-2.551589e+01
2.444523e+02	-2.556974e+01
2.458642e+02	-2.561655e+01
2.472843e+02	-2.566470e+01
2.487126e+02	-2.571314e+01
2.501492e+02	-2.576507e+01
2.515940e+02	-2.581435e+01
2.530472e+02	-2.586636e+01
2.545088e+02	-2.591403e+01
2.559789e+02	-2.596600e+01
2.574574e+02	-2.601500e+01
2.589444e+02	-2.606395e+01
2.604401e+02	-2.611563e+01
2.619444e+02	-2.616484e+01
2.634574e+02	-2.621681e+01
2.649791e+02	-2.626737e+01
2.665096e+02	-2.631725e+01
2.680489e+02	-2.636796e+01
2.695972e+02	-2.641491e+01
2.711544e+02	-2.646553e+01
2.727205e+02	-2.650974e+01
2.742958e+02	-2.656347e+01
2.758801e+02	-2.661476e+01
2.774736e+02	-2.666736e+01
2.790762e+02	-2.671477e+01
2.806882e+02	-2.676405e+01
2.823094e+02	-2.681845e+01
2.839400e+02	-2.686510e+01
2.855800e+02	-2.691381e+01
2.872295e+02	-2.696325e+01
2.888886e+02	-2.701583e+01
2.905572e+02	-2.706466e+01
2.922354e+02	-2.711205e+01
2.939234e+02	-2.716615e+01
2.956211e+02	-2.721295e+01
2.973286e+02	-2.726271e+01
2.990459e+02	-2.731652e+01
3.007732e+02	-2.736515e+01
3.025104e+02	-2.741390e+01
3.042577e+02	-2.746328e+01
3.060151e+02	-2.751592e+01
3.077826e+02	-2.756492e+01
3.095604e+02	-2.761035e+01
3.113484e+02	-2.766759e+01
3.131467e+02	-2.771730e+01
3.149554e+02	-2.776669e+01
3.167746e+02	-2.781303e+01
3.186043e+02	-2.786444e+01
3.204445e+02	-2.791488e+01
3.222954e+02	-2.796446e+01
3.241570e+02	-2.801371e+01
3.260293e+02	-2.806540e+01
3.279124e+02	-2.811300e+01
3.298064e+02	-2.816446e+01
3.317114e+02	-2.821465e+01
3.336273e+02	-2.826571e+01
3.355544e+02	-2.831715e+01
3.374925e+02	-2.836367e+01
3.394418e+02	-2.841262e+01
3.414024e+02	-2.846698e+01
3.433744e+02	-2.851559e+01
3.453577e+02	-2.856751e+01
3.473525e+02	-2.861581e+01
3.493588e+02	-2.866743e+01
3.513766e+02	-2.871374e+01
3.534062e+02	-2.876516e+01
3.554474e+02	-2.881498e+01
3.575005e+02	-2.886371e+01
3.595654e+02	-2.891585e+01
3.616422e+02	-2.896050e+01
3.637311e+02	-2.901874e+01
3.658320e+02	-2.906200e+01
3.679450e+02	-2.912063e+01
3.700702e+02	-2.916664e+01
3.722077e+02	-2.921058e+01
3.743576e+02	-2.926979e+01
3.765199e+02	-2.931257e+01
3.786946e+02	-2.936533e+01
3.808820e+02	-2.941683e+01
3.830819e+02	-2.946355e+01
3.852946e+02	-2.951977e+01
3.875200e+02	-2.956565e+01
3.897583e+02	-2.961536e+01
3.920096e+02	-2.966450e+01
3.942738e+02	-2.971653e+01
3.965511e+02	-2.976369e+01
3.988416e+02	-2.981718e+01
4.011452e+02	-2.987075e+01
4.034622e+02	-2.991955e+01
4.057926e+02	-2.996789e+01
4.081365e+02	-3.001697e+01
4.104938e+02	-3.006745e+01
4.128648e+02	-3.011962e+01
4.152495e+02	-3.016484e+01
4.176480e+02	-3.021857e+01
4.200603e+02	-3.026451e+01
4.224866e+02	-3.031999e+01
4.249268e+02	-3.037211e+01
4.273812e+02	-3.042007e+01
4.298497e+02	-3.047202e+01
4.323325e+02	-3.051346e+01
4.348297e+02	-3.056617e+01
4.373412e+02	-3.061869e+01
4.398673e+02	-3.066755e+01
4.424079e+02	-3.072106e+01
4.449633e+02	-3.076820e+01
4.475334e+02	-3.082122e+01
4.501183e+02	-3.086333e+01
4.527182e+02	-3.092245e+01
4.553330e+02	-3.096623e+01
4.579630e+02	-3.102028e+01
4.606082e+02	-3.107136e+01
4.632687e+02	-3.112329e+01
4.659445e+02	-3.117513e+01
4.686358e+02	-3.121998e+01
4.713426e+02	-3.126783e+01
4.740650e+02	-3.131932e+01
4.768032e+02	-3.136966e+01
4.795572e+02	-3.142073e+01
4.823271e+02	-3.147419e+01
4.851130e+02	-3.152650e+01
4.879150e+02	-3.157672e+01
4.907332e+02	-3.162003e+01
4.935676e+02	-3.167311e+01
4.964185e+02	-3.171927e+01
4.992858e+02	-3.177417e+01
5.021696e+02	-3.181912e+01
5.050701e+02	-3.186542e+01
5.079874e+02	-3.192262e+01
5.109215e+02	-3.197273e+01
5.138726e+02	-3.202208e+01
5.168407e+02	-3.208122e+01
5.198259e+02	-3.212262e+01
5.228284e+02	-3.217558e+01
5.258482e+02	-3.222803e+01
5.288855e+02	-3.227250e+01
5.319403e+02	-3.231803e+01
5.350128e+02	-3.236649e+01
5.381030e+02	-3.242231e+01
5.412111e+02	-3.247614e+01
5.443371e+02	-3.252088e+01
5.474812e+02	-3.258187e+01
5.506434e+02	-3.262447e+01
5.538239e+02	-3.267386e+01
5.570228e+02	-3.272680e+01
5.602401e+02	-3.277401e+01
5.634760e+02	-3.282280e+01
5.667306e+02	-3.287779e+01
5.700040e+02	-3.292445e+01
5.732964e+02	-3.296901e+01
5.766077e+02	-3.302936e+01
5.799382e+02	-3.307966e+01
5.832879e+02	-3.312566e+01
5.866569e+02	-3.317607e+01
5.900454e+02	-3.322752e+01
5.934535e+02	-3.328192e+01
5.968813e+02	-3.333247e+01
6.003288e+02	-3.337541e+01
6.037963e+02	-3.343035e+01
6.072838e+02	-3.348138e+01
6.107914e+02	-3.353010e+01
6.143194e+02	-3.357424e+01
6.178676e+02	-3.363098e+01
6.214364e+02	-3.367733e+01
6.250258e+02	-3.373974e+01
6.286359e+02	-3.378093e+01
6.322669e+02	-3.383180e+01
6.359189e+02	-3.388506e+01
6.395919e+02	-3.392914e+01
6.432862e+02	-3.399247e+01
6.470017e+02	-3.403007e+01
6.507388e+02	-3.408336e+01
6.544974e+02	-3.412976e+01
6.582778e+02	-3.419332e+01
6.620800e+02	-3.423393e+01
6.659041e+02	-3.427843e+01
6.697504e+02	-3.433793e+01
6.736188e+02	-3.438174e+01
6.775096e+02	-3.443855e+01
6.814229e+02	-3.449231e+01
6.853587e+02	-3.453833e+01
6.893173e+02	-3.458714e+01
6.932988e+02	-3.463290e+01
6.973033e+02	-3.468823e+01
7.013309e+02	-3.474309e+01
