Frequency(Hz)	Magnitude(dB)
1.000000e+01	-2.202083e+00
1.005776e+01	-2.222299e+00
1.011585e+01	-2.242195e+00
1.017428e+01	-2.262334e+00
1.023305e+01	-2.282837e+00
1.029215e+01	-2.303451e+00
1.035160e+01	-2.324041e+00
1.041139e+01	-2.344711e+00
1.047153e+01	-2.365776e+00
1.053201e+01	-2.386873e+00
1.059284e+01	-2.408038e+00
1.065403e+01	-2.429878e+00
1.071556e+01	-2.450810e+00
1.077746e+01	-2.472825e+00
1.083971e+01	-2.494324e+00
1.090232e+01	-2.516250e+00
1.096529e+01	-2.538517e+00
1.102862e+01	-2.560480e+00
1.109232e+01	-2.582739e+00
1.115639e+01	-2.605467e+00
1.122083e+01	-2.628035e+00
1.128564e+01	-2.650667e+00
1.135083e+01	-2.673930e+00
1.141639e+01	-2.696649e+00
1.148233e+01	-2.719895e+00
1.154865e+01	-2.743358e+00
1.161536e+01	-2.766858e+00
1.168245e+01	-2.790377e+00
1.174992e+01	-2.814123e+00
1.181779e+01	-2.838343e+00
1.188605e+01	-2.862202e+00
1.195470e+01	-2.886534e+00
1.202375e+01	-2.910940e+00
1.209320e+01	-2.935284e+00
1.216305e+01	-2.960007e+00
1.223330e+01	-2.984698e+00
1.230396e+01	-3.009745e+00
1.237503e+01	-3.035121e+00
1.244651e+01	-3.060314e+00
1.251840e+01	-3.085359e+00
1.259070e+01	-3.110901e+00
1.266343e+01	-3.136574e+00
1.273657e+01	-3.162273e+00
1.281014e+01	-3.188599e+00
1.288413e+01	-3.214320e+00
1.295855e+01	-3.240553e+00
1.303339e+01	-3.267249e+00
1.310867e+01	-3.293623e+00
1.318439e+01	-3.320410e+00
1.326054e+01	-3.347327e+00
1.333713e+01	-3.374176e+00
1.341417e+01	-3.401126e+00
1.349165e+01	-3.428615e+00
1.356958e+01	-3.455770e+00
1.364795e+01	-3.483115e+00
1.372678e+01	-3.511189e+00
1.380607e+01	-3.538841e+00
1.388581e+01	-3.566684e+00
1.396602e+01	-3.594690e+00
1.404668e+01	-3.623071e+00
1.412782e+01	-3.651447e+00
1.420942e+01	-3.679755e+00
1.429149e+01	-3.708619e+00
1.437404e+01	-3.737529e+00
1.445706e+01	-3.766273e+00
1.454057e+01	-3.795214e+00
1.462455e+01	-3.824639e+00
1.470902e+01	-3.853959e+00
1.479398e+01	-3.883500e+00
1.487943e+01	-3.912915e+00
1.496537e+01	-3.942961e+00
1.505181e+01	-3.972782e+00
1.513875e+01	-4.002724e+00
1.522619e+01	-4.032932e+00
1.531414e+01	-4.063186e+00
1.540259e+01	-4.093805e+00
1.549156e+01	-4.124487e+00
1.558103e+01	-4.155072e+00
1.567103e+01	-4.186061e+00
1.576155e+01	-4.216996e+00
1.585258e+01	-4.248345e+00
1.594415e+01	-4.279333e+00
1.603624e+01	-4.310688e+00
1.612886e+01	-4.342587e+00
1.622202e+01	-4.373977e+00
1.631572e+01	-4.405751e+00
1.640996e+01	-4.437958e+00
1.650474e+01	-4.469989e+00
1.660008e+01	-4.502135e+00
1.669596e+01	-4.534660e+00
1.679239e+01	-4.567219e+00
1.688938e+01	-4.599731e+00
1.698694e+01	-4.632648e+00
1.708505e+01	-4.665357e+00
1.718373e+01	-4.698381e+00
1.728299e+01	-4.731696e+00
1.738281e+01	-4.764695e+00
1.748322e+01	-4.798092e+00
1.758420e+01	-4.831857e+00
1.768576e+01	-4.865139e+00
1.778792e+01	-4.898845e+00
1.789066e+01	-4.932767e+00
1.799399e+01	-4.967090e+00
1.809793e+01	-5.001175e+00
1.820246e+01	-5.035440e+00
1.830760e+01	-5.069857e+00
1.841334e+01	-5.104173e+00
1.851969e+01	-5.138820e+00
1.862666e+01	-5.173419e+00
1.873425e+01	-5.208441e+00
1.884246e+01	-5.243538e+00
1.895129e+01	-5.278932e+00
1.906075e+01	-5.313898e+00
1.917085e+01	-5.349561e+00
1.928158e+01	-5.384676e+00
1.939295e+01	-5.420507e+00
1.950496e+01	-5.456308e+00
1.961762e+01	-5.491772e+00
1.973093e+01	-5.527530e+00
1.984490e+01	-5.563973e+00
1.995952e+01	-5.600333e+00
2.007480e+01	-5.636901e+00
2.019076e+01	-5.672947e+00
2.030738e+01	-5.709454e+00
2.042467e+01	-5.745952e+00
2.054264e+01	-5.782869e+00
2.066130e+01	-5.819878e+00
2.078064e+01	-5.856895e+00
2.090066e+01	-5.894037e+00
2.102139e+01	-5.930921e+00
2.114280e+01	-5.968430e+00
2.126492e+01	-6.005685e+00
2.138775e+01	-6.043088e+00
2.151128e+01	-6.081045e+00
2.163553e+01	-6.118816e+00
2.176050e+01	-6.156555e+00
2.188619e+01	-6.194140e+00
2.201260e+01	-6.232639e+00
2.213974e+01	-6.270838e+00
2.226762e+01	-6.309042e+00
2.239624e+01	-6.347574e+00
2.252560e+01	-6.385939e+00
2.265571e+01	-6.424549e+00
2.278656e+01	-6.463135e+00
2.291818e+01	-6.502222e+00
2.305055e+01	-6.540929e+00
2.318369e+01	-6.579495e+00
2.331760e+01	-6.618884e+00
2.345228e+01	-6.658467e+00
2.358774e+01	-6.697279e+00
2.372398e+01	-6.736427e+00
2.386101e+01	-6.775994e+00
2.399883e+01	-6.815591e+00
2.413745e+01	-6.855297e+00
2.427686e+01	-6.895123e+00
2.441709e+01	-6.935007e+00
2.455812e+01	-6.974717e+00
2.469997e+01	-7.014879e+00
2.484263e+01	-7.055419e+00
2.498612e+01	-7.095384e+00
2.513044e+01	-7.135384e+00
2.527559e+01	-7.176091e+00
2.542158e+01	-7.216572e+00
2.556842e+01	-7.256695e+00
2.571610e+01	-7.297398e+00
2.586463e+01	-7.338431e+00
2.601403e+01	-7.379307e+00
2.616428e+01	-7.420045e+00
2.631541e+01	-7.461263e+00
2.646740e+01	-7.502007e+00
2.662028e+01	-7.543132e+00
2.677404e+01	-7.584535e+00
2.692868e+01	-7.625930e+00
2.708422e+01	-7.667447e+00
2.724066e+01	-7.708689e+00
2.739800e+01	-7.750491e+00
2.755625e+01	-7.791920e+00
2.771541e+01	-7.833655e+00
2.787550e+01	-7.875695e+00
2.803650e+01	-7.917795e+00
2.819844e+01	-7.959728e+00
2.836131e+01	-8.001757e+00
2.852513e+01	-8.044156e+00
2.868989e+01	-8.086215e+00
2.885560e+01	-8.127980e+00
2.902227e+01	-8.171051e+00
2.918990e+01	-8.213221e+00
2.935850e+01	-8.255686e+00
2.952807e+01	-8.298414e+00
2.969863e+01	-8.341235e+00
2.987016e+01	-8.383317e+00
3.004269e+01	-8.426465e+00
3.021622e+01	-8.469341e+00
3.039075e+01	-8.512517e+00
3.056628e+01	-8.555137e+00
3.074283e+01	-8.598387e+00
3.092040e+01	-8.641815e+00
3.109900e+01	-8.684891e+00
3.127862e+01	-8.728045e+00
3.145929e+01	-8.771547e+00
3.164099e+01	-8.814567e+00
3.182375e+01	-8.858271e+00
3.200756e+01	-8.901713e+00
3.219244e+01	-8.945397e+00
3.237838e+01	-8.989514e+00
3.256540e+01	-9.033024e+00
3.275349e+01	-9.076664e+00
3.294268e+01	-9.120804e+00
3.313295e+01	-9.164144e+00
3.332433e+01	-9.208561e+00
3.351681e+01	-9.252826e+00
3.371040e+01	-9.296955e+00
3.390511e+01	-9.340807e+00
3.410094e+01	-9.385274e+00
3.429791e+01	-9.429201e+00
3.449601e+01	-9.473846e+00
3.469526e+01	-9.518057e+00
3.489566e+01	-9.562569e+00
3.509721e+01	-9.607138e+00
3.529993e+01	-9.651217e+00
3.550382e+01	-9.696111e+00
3.570889e+01	-9.741453e+00
3.591515e+01	-9.785779e+00
3.612259e+01	-9.830595e+00
3.633123e+01	-9.875834e+00
3.654108e+01	-9.919742e+00
3.675214e+01	-9.965571e+00
3.696442e+01	-1.001083e+01
3.717792e+01	-1.005582e+01
3.739266e+01	-1.010040e+01
3.760864e+01	-1.014578e+01
3.782587e+01	-1.019088e+01
3.804435e+01	-1.023561e+01
3.826409e+01	-1.028141e+01
3.848510e+01	-1.032646e+01
3.870739e+01	-1.037217e+01
3.893096e+01	-1.041765e+01
3.915583e+01	-1.046370e+01
3.938199e+01	-1.050829e+01
3.960946e+01	-1.055440e+01
3.983824e+01	-1.059980e+01
4.006834e+01	-1.064542e+01
4.029978e+01	-1.069115e+01
4.053255e+01	-1.073705e+01
4.076666e+01	-1.078349e+01
4.100213e+01	-1.082838e+01
4.123896e+01	-1.087489e+01
4.147715e+01	-1.092078e+01
4.171672e+01	-1.096731e+01
4.195767e+01	-1.101274e+01
4.220002e+01	-1.105870e+01
4.244377e+01	-1.110553e+01
4.268892e+01	-1.115043e+01
4.293549e+01	-1.119739e+01
4.318348e+01	-1.124305e+01
4.343291e+01	-1.128955e+01
4.368377e+01	-1.133644e+01
4.393609e+01	-1.138276e+01
4.418986e+01	-1.142875e+01
4.444510e+01	-1.147568e+01
4.470182e+01	-1.152127e+01
4.496001e+01	-1.156877e+01
4.521970e+01	-1.161537e+01
4.548089e+01	-1.166198e+01
4.574358e+01	-1.170845e+01
4.600779e+01	-1.175493e+01
4.627353e+01	-1.180190e+01
4.654081e+01	-1.184842e+01
4.680963e+01	-1.189485e+01
4.708000e+01	-1.194207e+01
4.735193e+01	-1.198865e+01
4.762543e+01	-1.203596e+01
4.790051e+01	-1.208240e+01
4.817719e+01	-1.213036e+01
4.845545e+01	-1.217720e+01
4.873533e+01	-1.222437e+01
4.901682e+01	-1.227045e+01
4.929994e+01	-1.231749e+01
4.958470e+01	-1.236485e+01
4.987110e+01	-1.241170e+01
5.015915e+01	-1.245895e+01
5.044887e+01	-1.250635e+01
5.074026e+01	-1.255325e+01
5.103333e+01	-1.260161e+01
5.132810e+01	-1.264871e+01
5.162457e+01	-1.269483e+01
5.192275e+01	-1.274253e+01
5.222265e+01	-1.279020e+01
5.252429e+01	-1.283762e+01
5.282767e+01	-1.288544e+01
5.313280e+01	-1.293252e+01
5.343969e+01	-1.298039e+01
5.374836e+01	-1.302763e+01
5.405880e+01	-1.307551e+01
5.437105e+01	-1.312336e+01
5.468509e+01	-1.316992e+01
5.500095e+01	-1.321757e+01
5.531863e+01	-1.326517e+01
5.563815e+01	-1.331332e+01
5.595951e+01	-1.336052e+01
5.628273e+01	-1.340749e+01
5.660782e+01	-1.345598e+01
5.693479e+01	-1.350413e+01
5.726364e+01	-1.355201e+01
5.759439e+01	-1.359857e+01
5.792705e+01	-1.364769e+01
5.826164e+01	-1.369563e+01
5.859815e+01	-1.374345e+01
5.893662e+01	-1.379158e+01
5.927703e+01	-1.383893e+01
5.961941e+01	-1.388831e+01
5.996377e+01	-1.393545e+01
6.031012e+01	-1.398322e+01
6.065847e+01	-1.403092e+01
6.100883e+01	-1.407975e+01
6.136121e+01	-1.412806e+01
6.171563e+01	-1.417562e+01
6.207210e+01	-1.422397e+01
6.243063e+01	-1.427161e+01
6.279122e+01	-1.432039e+01
6.315390e+01	-1.436773e+01
6.351868e+01	-1.441586e+01
6.388556e+01	-1.446445e+01
6.425456e+01	-1.451274e+01
6.462569e+01	-1.456057e+01
6.499897e+01	-1.460985e+01
6.537440e+01	-1.465697e+01
6.575200e+01	-1.470628e+01
6.613178e+01	-1.475477e+01
6.651375e+01	-1.480330e+01
6.689793e+01	-1.485076e+01
6.728433e+01	-1.489964e+01
6.767297e+01	-1.494781e+01
6.806384e+01	-1.499648e+01
6.845698e+01	-1.504611e+01
6.885238e+01	-1.509410e+01
6.925007e+01	-1.514159e+01
6.965005e+01	-1.519012e+01
7.005235e+01	-1.523814e+01
7.045697e+01	-1.528676e+01
7.086393e+01	-1.533596e+01
7.127323e+01	-1.538450e+01
7.168490e+01	-1.543242e+01
7.209895e+01	-1.548237e+01
7.251539e+01	-1.553127e+01
7.293424e+01	-1.557852e+01
7.335551e+01	-1.562743e+01
7.377920e+01	-1.567597e+01
7.420535e+01	-1.572590e+01
7.463396e+01	-1.577445e+01
7.506504e+01	-1.582247e+01
7.549861e+01	-1.587087e+01
7.593469e+01	-1.591989e+01
7.637328e+01	-1.596841e+01
7.681441e+01	-1.601748e+01
7.725809e+01	-1.606494e+01
7.770433e+01	-1.611545e+01
7.815315e+01	-1.616413e+01
7.860456e+01	-1.621233e+01
7.905857e+01	-1.626134e+01
7.951521e+01	-1.631060e+01
7.997449e+01	-1.635966e+01
8.043642e+01	-1.640825e+01
8.090102e+01	-1.645629e+01
8.136830e+01	-1.650574e+01
8.183828e+01	-1.655454e+01
8.231097e+01	-1.660486e+01
8.278640e+01	-1.665220e+01
8.326457e+01	-1.670271e+01
8.374550e+01	-1.675020e+01
8.422921e+01	-1.679936e+01
8.471572e+01	-1.684948e+01
8.520503e+01	-1.689710e+01
8.569717e+01	-1.694629e+01
8.619215e+01	-1.699536e+01
8.669000e+01	-1.704350e+01
8.719071e+01	-1.709240e+01
8.769432e+01	-1.714249e+01
8.820084e+01	-1.719198e+01
8.871029e+01	-1.724092e+01
8.922267e+01	-1.729036e+01
8.973802e+01	-1.733773e+01
9.025634e+01	-1.738766e+01
9.077766e+01	-1.743735e+01
9.130199e+01	-1.748657e+01
9.182935e+01	-1.753425e+01
9.235975e+01	-1.758379e+01
9.289321e+01	-1.763542e+01
9.342976e+01	-1.768399e+01
9.396941e+01	-1.773150e+01
9.451217e+01	-1.778124e+01
9.505807e+01	-1.783102e+01
9.560712e+01	-1.787944e+01
9.615934e+01	-1.793027e+01
9.671476e+01	-1.797784e+01
9.727338e+01	-1.802818e+01
9.783522e+01	-1.807661e+01
9.840032e+01	-1.812667e+01
9.896867e+01	-1.817665e+01
9.954031e+01	-1.822561e+01
1.001153e+02	-1.827322e+01
1.006935e+02	-1.832333e+01
1.012751e+02	-1.837170e+01
1.018601e+02	-1.842106e+01
1.024484e+02	-1.847115e+01
1.030402e+02	-1.852032e+01
1.036353e+02	-1.857070e+01
1.042339e+02	-1.861966e+01
1.048360e+02	-1.866960e+01
1.054415e+02	-1.871837e+01
1.060505e+02	-1.876849e+01
1.066631e+02	-1.881729e+01
1.072791e+02	-1.886666e+01
1.078988e+02	-1.891504e+01
1.085220e+02	-1.896635e+01
1.091488e+02	-1.901358e+01
1.097793e+02	-1.906241e+01
1.104133e+02	-1.911326e+01
1.110511e+02	-1.916200e+01
1.116925e+02	-1.921182e+01
1.123376e+02	-1.926273e+01
1.129865e+02	-1.930935e+01
1.136391e+02	-1.936070e+01
1.142955e+02	-1.941023e+01
1.149556e+02	-1.945887e+01
1.156196e+02	-1.950849e+01
1.162874e+02	-1.955857e+01
1.169591e+02	-1.960800e+01
1.176347e+02	-1.965592e+01
1.183141e+02	-1.970586e+01
1.189975e+02	-1.975584e+01
1.196848e+02	-1.980710e+01
1.203761e+02	-1.985624e+01
1.210714e+02	-1.990357e+01
1.217707e+02	-1.995460e+01
1.224740e+02	-2.000541e+01
1.231814e+02	-2.005289e+01
1.238929e+02	-2.010297e+01
1.246085e+02	-2.015062e+01
1.253283e+02	-2.020355e+01
1.260522e+02	-2.025156e+01
1.267802e+02	-2.030187e+01
1.275125e+02	-2.035195e+01
1.282490e+02	-2.039969e+01
1.289898e+02	-2.044949e+01
1.297348e+02	-2.050002e+01
1.304842e+02	-2.054919e+01
1.312378e+02	-2.059763e+01
1.319959e+02	-2.065085e+01
1.327583e+02	-2.069853e+01
1.335251e+02	-2.074838e+01
1.342963e+02	-2.079753e+01
1.350720e+02	-2.084663e+01
1.358522e+02	-2.089561e+01
1.366368e+02	-2.094481e+01
1.374260e+02	-2.099521e+01
1.382198e+02	-2.104606e+01
1.390182e+02	-2.109324e+01
1.398211e+02	-2.114374e+01
1.406287e+02	-2.119375e+01
1.414410e+02	-2.124332e+01
1.422579e+02	-2.129287e+01
1.430796e+02	-2.134198e+01
1.439060e+02	-2.139304e+01
1.447372e+02	-2.144339e+01
1.455732e+02	-2.149166e+01
1.464141e+02	-2.154188e+01
1.472597e+02	-2.159084e+01
1.481103e+02	-2.164222e+01
1.489658e+02	-2.169005e+01
1.498262e+02	-2.174047e+01
1.506916e+02	-2.179045e+01
1.515620e+02	-2.183922e+01
1.524374e+02	-2.188870e+01
1.533179e+02	-2.194048e+01
1.542034e+02	-2.199028e+01
1.550941e+02	-2.203961e+01
1.559899e+02	-2.208925e+01
1.568909e+02	-2.213814e+01
1.577971e+02	-2.218602e+01
1.587085e+02	-2.223868e+01
1.596252e+02	-2.228748e+01
1.605472e+02	-2.233723e+01
1.614745e+02	-2.238785e+01
1.624072e+02	-2.243561e+01
1.633453e+02	-2.248659e+01
1.642887e+02	-2.253496e+01
1.652377e+02	-2.258373e+01
1.661921e+02	-2.263605e+01
1.671520e+02	-2.268624e+01
1.681175e+02	-2.273711e+01
1.690885e+02	-2.278424e+01
1.700651e+02	-2.283481e+01
1.710474e+02	-2.288498e+01
1.720354e+02	-2.293499e+01
1.730291e+02	-2.298237e+01
1.740285e+02	-2.303096e+01
1.750337e+02	-2.308650e+01
1.760446e+02	-2.313373e+01
1.770615e+02	-2.318663e+01
1.780842e+02	-2.323462e+01
1.791128e+02	-2.328421e+01
1.801473e+02	-2.333306e+01
1.811878e+02	-2.338010e+01
1.822344e+02	-2.343046e+01
1.832870e+02	-2.348029e+01
1.843456e+02	-2.353315e+01
1.854104e+02	-2.358349e+01
1.864813e+02	-2.362982e+01
1.875584e+02	-2.368159e+01
1.886418e+02	-2.373088e+01
1.897313e+02	-2.378251e+01
1.908272e+02	-2.383314e+01
1.919294e+02	-2.388161e+01
1.930380e+02	-2.392855e+01
1.941530e+02	-2.398078e+01
1.952744e+02	-2.403190e+01
1.964023e+02	-2.408007e+01
1.975367e+02	-2.413043e+01
1.986777e+02	-2.417772e+01
1.998252e+02	-2.423323e+01
2.009794e+02	-2.428124e+01
2.021403e+02	-2.433053e+01
2.033078e+02	-2.437778e+01
2.044821e+02	-2.443227e+01
2.056632e+02	-2.447926e+01
2.068511e+02	-2.453099e+01
2.080459e+02	-2.458032e+01
2.092475e+02	-2.462834e+01
2.104561e+02	-2.467873e+01
2.116717e+02	-2.472931e+01
2.128943e+02	-2.477780e+01
2.141240e+02	-2.482802e+01
2.153608e+02	-2.487993e+01
2.166047e+02	-2.492404e+01
2.178558e+02	-2.497780e+01
2.191141e+02	-2.503043e+01
2.203797e+02	-2.507752e+01
2.216526e+02	-2.512940e+01
2.229329e+02	-2.518064e+01
2.242205e+02	-2.522666e+01
2.255156e+02	-2.527821e+01
2.268182e+02	-2.532564e+01
2.281283e+02	-2.537956e+01
2.294459e+02	-2.542447e+01
2.307712e+02	-2.547521e+01
2.321041e+02	-2.552893e+01
2.334447e+02	-2.557549e+01
2.347931e+02	-2.562803e+01
2.361493e+02	-2.567898e+01
2.375133e+02	-2.572674e+01
2.388851e+02	-2.577889e+01
2.402649e+02	-2.582558e+01
2.416527e+02	-2.587941e+01
2.430484e+02	-2.593111e+01
2.444523e+02	-2.597572e+01
2.458642e+02	-2.602592e+01
2.472843e+02	-2.607515e+01
2.487126e+02	-2.612720e+01
2.501492e+02	-2.617494e+01
2.515940e+02	-2.622763e+01
2.530472e+02	-2.627693e+01
2.545088e+02	-2.632624e+01
2.559789e+02	-2.637753e+01
2.574574e+02	-2.642726e+01
2.589444e+02	-2.647491e+01
2.604401e+02	-2.652756e+01
2.619444e+02	-2.657866e+01
2.634574e+02	-2.662580e+01
2.649791e+02	-2.667811e+01
2.665096e+02	-2.672761e+01
2.680489e+02	-2.677551e+01
2.695972e+02	-2.682839e+01
2.711544e+02	-2.687308e+01
2.727205e+02	-2.692595e+01
2.742958e+02	-2.697659e+01
2.758801e+02	-2.702751e+01
2.774736e+02	-2.707385e+01
2.790762e+02	-2.712858e+01
2.806882e+02	-2.717981e+01
2.823094e+02	-2.722673e+01
2.839400e+02	-2.727487e+01
2.855800e+02	-2.732617e+01
2.872295e+02	-2.737705e+01
2.888886e+02	-2.742113e+01
2.905572e+02	-2.747521e+01
2.922354e+02	-2.752685e+01
2.939234e+02	-2.757757e+01
2.956211e+02	-2.762230e+01
2.973286e+02	-2.767546e+01
2.990459e+02	-2.772471e+01
3.007732e+02	-2.777558e+01
3.025104e+02	-2.782764e+01
3.042577e+02	-2.787750e+01
3.060151e+02	-2.792738e+01
3.077826e+02	-2.797659e+01
3.095604e+02	-2.802589e+01
3.113484e+02	-2.807509e+01
3.131467e+02	-2.813141e+01
3.149554e+02	-2.817699e+01
3.167746e+02	-2.822698e+01
3.186043e+02	-2.828360e+01
3.204445e+02	-2.832758e+01
3.222954e+02	-2.837982e+01
3.241570e+02	-2.842437e+01
3.260293e+02	-2.847657e+01
3.279124e+02	-2.853003e+01
3.298064e+02	-2.857910e+01
3.317114e+02	-2.862468e+01
3.336273e+02	-2.867653e+01
3.355544e+02	-2.872719e+01
3.374925e+02	-2.877536e+01
3.394418e+02	-2.882581e+01
3.414024e+02	-2.887340e+01
3.433744e+02	-2.892389e+01
3.453577e+02	-2.897658e+01
3.473525e+02	-2.903088e+01
3.493588e+02	-2.907510e+01
3.513766e+02	-2.912884e+01
3.534062e+02	-2.917683e+01
3.554474e+02	-2.922016e+01
3.575005e+02	-2.927682e+01
3.595654e+02	-2.932423e+01
3.616422e+02	-2.937654e+01
3.637311e+02	-2.942731e+01
3.658320e+02	-2.947915e+01
3.679450e+02	-2.952583e+01
3.700702e+02	-2.957627e+01
3.722077e+02	-2.962694e+01
3.743576e+02	-2.968333e+01
3.765199e+02	-2.972521e+01
3.786946e+02	-2.977690e+01
3.808820e+02	-2.982893e+01
3.830819e+02	-2.988303e+01
3.852946e+02	-2.993266e+01
3.875200e+02	-2.997962e+01
3.897583e+02	-3.003510e+01
3.920096e+02	-3.007952e+01
3.942738e+02	-3.013137e+01
3.965511e+02	-3.018109e+01
3.988416e+02	-3.023015e+01
4.011452e+02	-3.027466e+01
4.034622e+02	-3.032359e+01
4.057926e+02	-3.038191e+01
4.081365e+02	-3.043291e+01
4.104938e+02	-3.048053e+01
4.128648e+02	-3.052491e+01
4.152495e+02	-3.058239e+01
4.176480e+02	-3.063132e+01
4.200603e+02	-3.068140e+01
4.224866e+02	-3.072689e+01
4.249268e+02	-3.078175e+01
4.273812e+02	-3.083705e+01
4.298497e+02	-3.087626e+01
4.323325e+02	-3.093411e+01
4.348297e+02	-3.097822e+01
4.373412e+02	-3.103152e+01
4.398673e+02	-3.108553e+01
4.424079e+02	-3.113000e+01
4.449633e+02	-3.118231e+01
4.475334e+02	-3.123085e+01
4.501183e+02	-3.127705e+01
4.527182e+02	-3.133712e+01
4.553330e+02	-3.137640e+01
4.579630e+02	-3.143332e+01
4.606082e+02	-3.148459e+01
4.632687e+02	-3.153918e+01
4.659445e+02	-3.158787e+01
4.686358e+02	-3.163093e+01
4.713426e+02	-3.167818e+01
4.740650e+02	-3.173483e+01
4.768032e+02	-3.178294e+01
4.795572e+02	-3.182774e+01
4.823271e+02	-3.188779e+01
4.851130e+02	-3.193246e+01
4.879150e+02	-3.198330e+01
4.907332e+02	-3.203208e+01
4.935676e+02	-3.207892e+01
4.964185e+02	-3.212741e+01
4.992858e+02	-3.218158e+01
5.021696e+02	-3.224080e+01
5.050701e+02	-3.228675e+01
5.079874e+02	-3.233336e+01
5.109215e+02	-3.239040e+01
5.138726e+02	-3.243373e+01
5.168407e+02	-3.248799e+01
5.198259e+02	-3.253167e+01
5.228284e+02	-3.258588e+01
5.258482e+02	-3.263150e+01
5.288855e+02	-3.269222e+01
5.319403e+02	-3.273920e+01
5.350128e+02	-3.278369e+01
5.381030e+02	-3.283202e+01
5.412111e+02	-3.288404e+01
5.443371e+02	-3.294113e+01
5.474812e+02	-3.298062e+01
5.506434e+02	-3.303755e+01
5.538239e+02	-3.309055e+01
5.570228e+02	-3.313319e+01
5.602401e+02	-3.319223e+01
5.634760e+02	-3.323492e+01
5.667306e+02	-3.328703e+01
5.700040e+02	-3.334199e+01
5.732964e+02	-3.338630e+01
5.766077e+02	-3.345343e+01
5.799382e+02	-3.348485e+01
5.832879e+02	-3.354402e+01
5.866569e+02	-3.358694e+01
5.900454e+02	-3.363508e+01
5.934535e+02	-3.369458e+01
5.968813e+02	-3.373465e+01
6.003288e+02	-3.379573e+01
6.037963e+02	-3.384281e+01
6.072838e+02	-3.388671e+01
6.107914e+02	-3.394043e+01
6.143194e+02	-3.398754e+01
6.178676e+02	-3.404658e+01
6.214364e+02	-3.409434e+01
6.250258e+02	-3.413145e+01
6.286359e+02	-3.420058e+01
6.322669e+02	-3.424476e+01
6.359189e+02	-3.429960e+01
6.395919e+02	-3.434822e+01
6.432862e+02	-3.439329e+01
6.470017e+02	-3.444665e+01
6.507388e+02	-3.449701e+01
6.544974e+02	-3.454212e+01
6.582778e+02	-3.460134e+01
6.620800e+02	-3.464855e+01
6.659041e+02	-3.469585e+01
6.697504e+02	-3.474496e+01
6.736188e+02	-3.479492e+01
6.775096e+02	-3.484978e+01
6.814229e+02	-3.490042e+01
6.853587e+02	-3.495464e+01
6.893173e+02	-3.499092e+01
6.932988e+02	-3.504446e+01
6.973033e+02	-3.510536e+01
7.013309e+02	-3.515531e+01
