Frequency(Hz)	Magnitude(dB)
1.000000e+01	-1.602992e-05
1.005776e+01	-1.621563e-05
1.011585e+01	-1.640349e-05
1.017428e+01	-1.659353e-05
1.023305e+01	-1.678577e-05
1.029215e+01	-1.698024e-05
1.035160e+01	-1.717696e-05
1.041139e+01	-1.737596e-05
1.047153e+01	-1.757726e-05
1.053201e+01	-1.778090e-05
1.059284e+01	-1.798690e-05
1.065403e+01	-1.819528e-05
1.071556e+01	-1.840608e-05
1.077746e+01	-1.861932e-05
1.083971e+01	-1.883503e-05
1.090232e+01	-1.905323e-05
1.096529e+01	-1.927397e-05
1.102862e+01	-1.949726e-05
1.109232e+01	-1.972315e-05
1.115639e+01	-1.995164e-05
1.122083e+01	-2.018279e-05
1.128564e+01	-2.041661e-05
1.135083e+01	-2.065314e-05
1.141639e+01	-2.089241e-05
1.148233e+01	-2.113446e-05
1.154865e+01	-2.137931e-05
1.161536e+01	-2.162699e-05
1.168245e+01	-2.187754e-05
1.174992e+01	-2.213100e-05
1.181779e+01	-2.238739e-05
1.188605e+01	-2.264676e-05
1.195470e+01	-2.290913e-05
1.202375e+01	-2.317453e-05
1.209320e+01	-2.344302e-05
1.216305e+01	-2.371461e-05
1.223330e+01	-2.398935e-05
1.230396e+01	-2.426727e-05
1.237503e+01	-2.454841e-05
1.244651e+01	-2.483281e-05
1.251840e+01	-2.512051e-05
1.259070e+01	-2.541154e-05
1.266343e+01	-2.570593e-05
1.273657e+01	-2.600374e-05
1.281014e+01	-2.630500e-05
1.288413e+01	-2.660975e-05
1.295855e+01	-2.691803e-05
1.303339e+01	-2.722989e-05
1.310867e+01	-2.754535e-05
1.318439e+01	-2.786447e-05
1.326054e+01	-2.818729e-05
1.333713e+01	-2.851384e-05
1.341417e+01	-2.884418e-05
1.349165e+01	-2.917835e-05
1.356958e+01	-2.951639e-05
1.364795e+01	-2.985834e-05
1.372678e+01	-3.020426e-05
1.380607e+01	-3.055418e-05
1.388581e+01	-3.090816e-05
1.396602e+01	-3.126624e-05
1.404668e+01	-3.162847e-05
1.412782e+01	-3.199489e-05
1.420942e+01	-3.236556e-05
1.429149e+01	-3.274052e-05
1.437404e+01	-3.311983e-05
1.445706e+01	-3.350353e-05
1.454057e+01	-3.389167e-05
1.462455e+01	-3.428432e-05
1.470902e+01	-3.468151e-05
1.479398e+01	-3.508330e-05
1.487943e+01	-3.548975e-05
1.496537e+01	-3.590091e-05
1.505181e+01	-3.631683e-05
1.513875e+01	-3.673757e-05
1.522619e+01	-3.716318e-05
1.531414e+01	-3.759372e-05
1.540259e+01	-3.802926e-05
1.549156e+01	-3.846983e-05
1.558103e+01	-3.891551e-05
1.567103e+01	-3.936636e-05
1.576155e+01	-3.982243e-05
1.585258e+01	-4.028378e-05
1.594415e+01	-4.075048e-05
1.603624e+01	-4.122258e-05
1.612886e+01	-4.170015e-05
1.622202e+01	-4.218326e-05
1.631572e+01	-4.267196e-05
1.640996e+01	-4.316632e-05
1.650474e+01	-4.366642e-05
1.660008e+01	-4.417230e-05
1.669596e+01	-4.468405e-05
1.679239e+01	-4.520172e-05
1.688938e+01	-4.572539e-05
1.698694e+01	-4.625513e-05
1.708505e+01	-4.679101e-05
1.718373e+01	-4.733309e-05
1.728299e+01	-4.788146e-05
1.738281e+01	-4.843617e-05
1.748322e+01	-4.899732e-05
1.758420e+01	-4.956496e-05
1.768576e+01	-5.013918e-05
1.778792e+01	-5.072005e-05
1.789066e+01	-5.130766e-05
1.799399e+01	-5.190207e-05
1.809793e+01	-5.250336e-05
1.820246e+01	-5.311163e-05
1.830760e+01	-5.372694e-05
1.841334e+01	-5.434937e-05
1.851969e+01	-5.497902e-05
1.862666e+01	-5.561596e-05
1.873425e+01	-5.626029e-05
1.884246e+01	-5.691207e-05
1.895129e+01	-5.757141e-05
1.906075e+01	-5.823839e-05
1.917085e+01	-5.891309e-05
1.928158e+01	-5.959561e-05
1.939295e+01	-6.028604e-05
1.950496e+01	-6.098446e-05
1.961762e+01	-6.169098e-05
1.973093e+01	-6.240568e-05
1.984490e+01	-6.312867e-05
1.995952e+01	-6.386002e-05
2.007480e+01	-6.459985e-05
2.019076e+01	-6.534826e-05
2.030738e+01	-6.610533e-05
2.042467e+01	-6.687117e-05
2.054264e+01	-6.764589e-05
2.066130e+01	-6.842958e-05
2.078064e+01	-6.922235e-05
2.090066e+01	-7.002430e-05
2.102139e+01	-7.083554e-05
2.114280e+01	-7.165619e-05
2.126492e+01	-7.248634e-05
2.138775e+01	-7.332610e-05
2.151128e+01	-7.417560e-05
2.163553e+01	-7.503494e-05
2.176050e+01	-7.590423e-05
2.188619e+01	-7.678360e-05
2.201260e+01	-7.767315e-05
2.213974e+01	-7.857300e-05
2.226762e+01	-7.948329e-05
2.239624e+01	-8.040411e-05
2.252560e+01	-8.133561e-05
2.265571e+01	-8.227790e-05
2.278656e+01	-8.323110e-05
2.291818e+01	-8.419535e-05
2.305055e+01	-8.517076e-05
2.318369e+01	-8.615748e-05
2.331760e+01	-8.715563e-05
2.345228e+01	-8.816534e-05
2.358774e+01	-8.918675e-05
2.372398e+01	-9.021999e-05
2.386101e+01	-9.126521e-05
2.399883e+01	-9.232253e-05
2.413745e+01	-9.339210e-05
2.427686e+01	-9.447406e-05
2.441709e+01	-9.556856e-05
2.455812e+01	-9.667573e-05
2.469997e+01	-9.779574e-05
2.484263e+01	-9.892871e-05
2.498612e+01	-1.000748e-04
2.513044e+01	-1.012342e-04
2.527559e+01	-1.024070e-04
2.542158e+01	-1.035934e-04
2.556842e+01	-1.047936e-04
2.571610e+01	-1.060076e-04
2.586463e+01	-1.072357e-04
2.601403e+01	-1.084781e-04
2.616428e+01	-1.097348e-04
2.631541e+01	-1.110061e-04
2.646740e+01	-1.122921e-04
2.662028e+01	-1.135930e-04
2.677404e+01	-1.149090e-04
2.692868e+01	-1.162402e-04
2.708422e+01	-1.175869e-04
2.724066e+01	-1.189492e-04
2.739800e+01	-1.203272e-04
2.755625e+01	-1.217212e-04
2.771541e+01	-1.231314e-04
2.787550e+01	-1.245578e-04
2.803650e+01	-1.260009e-04
2.819844e+01	-1.274606e-04
2.836131e+01	-1.289372e-04
2.852513e+01	-1.304310e-04
2.868989e+01	-1.319421e-04
2.885560e+01	-1.334706e-04
2.902227e+01	-1.350169e-04
2.918990e+01	-1.365811e-04
2.935850e+01	-1.381634e-04
2.952807e+01	-1.397640e-04
2.969863e+01	-1.413832e-04
2.987016e+01	-1.430211e-04
3.004269e+01	-1.446780e-04
3.021622e+01	-1.463541e-04
3.039075e+01	-1.480497e-04
3.056628e+01	-1.497648e-04
3.074283e+01	-1.514999e-04
3.092040e+01	-1.532550e-04
3.109900e+01	-1.550305e-04
3.127862e+01	-1.568265e-04
3.145929e+01	-1.586434e-04
3.164099e+01	-1.604813e-04
3.182375e+01	-1.623404e-04
3.200756e+01	-1.642212e-04
3.219244e+01	-1.661237e-04
3.237838e+01	-1.680482e-04
3.256540e+01	-1.699951e-04
3.275349e+01	-1.719645e-04
3.294268e+01	-1.739567e-04
3.313295e+01	-1.759720e-04
3.332433e+01	-1.780106e-04
3.351681e+01	-1.800729e-04
3.371040e+01	-1.821590e-04
3.390511e+01	-1.842694e-04
3.410094e+01	-1.864041e-04
3.429791e+01	-1.885636e-04
3.449601e+01	-1.907481e-04
3.469526e+01	-1.929580e-04
3.489566e+01	-1.951934e-04
3.509721e+01	-1.974547e-04
3.529993e+01	-1.997422e-04
3.550382e+01	-2.020562e-04
3.570889e+01	-2.043971e-04
3.591515e+01	-2.067650e-04
3.612259e+01	-2.091604e-04
3.633123e+01	-2.115835e-04
3.654108e+01	-2.140347e-04
3.675214e+01	-2.165143e-04
3.696442e+01	-2.190226e-04
3.717792e+01	-2.215600e-04
3.739266e+01	-2.241267e-04
3.760864e+01	-2.267232e-04
3.782587e+01	-2.293498e-04
3.804435e+01	-2.320068e-04
3.826409e+01	-2.346946e-04
3.848510e+01	-2.374135e-04
3.870739e+01	-2.401640e-04
3.893096e+01	-2.429463e-04
3.915583e+01	-2.457608e-04
3.938199e+01	-2.486079e-04
3.960946e+01	-2.514880e-04
3.983824e+01	-2.544015e-04
4.006834e+01	-2.573487e-04
4.029978e+01	-2.603301e-04
4.053255e+01	-2.633460e-04
4.076666e+01	-2.663968e-04
4.100213e+01	-2.694830e-04
4.123896e+01	-2.726049e-04
4.147715e+01	-2.757630e-04
4.171672e+01	-2.789577e-04
4.195767e+01	-2.821894e-04
4.220002e+01	-2.854586e-04
4.244377e+01	-2.887656e-04
4.268892e+01	-2.921109e-04
4.293549e+01	-2.954950e-04
4.318348e+01	-2.989182e-04
4.343291e+01	-3.023812e-04
4.368377e+01	-3.058842e-04
4.393609e+01	-3.094278e-04
4.418986e+01	-3.130125e-04
4.444510e+01	-3.166387e-04
4.470182e+01	-3.203069e-04
4.496001e+01	-3.240176e-04
4.521970e+01	-3.277713e-04
4.548089e+01	-3.315685e-04
4.574358e+01	-3.354097e-04
4.600779e+01	-3.392953e-04
4.627353e+01	-3.432260e-04
4.654081e+01	-3.472022e-04
4.680963e+01	-3.512245e-04
4.708000e+01	-3.552934e-04
4.735193e+01	-3.594094e-04
4.762543e+01	-3.635730e-04
4.790051e+01	-3.677850e-04
4.817719e+01	-3.720457e-04
4.845545e+01	-3.763557e-04
4.873533e+01	-3.807157e-04
4.901682e+01	-3.851262e-04
4.929994e+01	-3.895878e-04
4.958470e+01	-3.941011e-04
4.987110e+01	-3.986667e-04
5.015915e+01	-4.032851e-04
5.044887e+01	-4.079571e-04
5.074026e+01	-4.126831e-04
5.103333e+01	-4.174640e-04
5.132810e+01	-4.223002e-04
5.162457e+01	-4.271924e-04
5.192275e+01	-4.321413e-04
5.222265e+01	-4.371475e-04
5.252429e+01	-4.422117e-04
5.282767e+01	-4.473346e-04
5.313280e+01	-4.525168e-04
5.343969e+01	-4.577591e-04
5.374836e+01	-4.630621e-04
5.405880e+01	-4.684265e-04
5.437105e+01	-4.738530e-04
5.468509e+01	-4.793424e-04
5.500095e+01	-4.848954e-04
5.531863e+01	-4.905128e-04
5.563815e+01	-4.961952e-04
5.595951e+01	-5.019434e-04
5.628273e+01	-5.077582e-04
5.660782e+01	-5.136404e-04
5.693479e+01	-5.195907e-04
5.726364e+01	-5.256099e-04
5.759439e+01	-5.316989e-04
5.792705e+01	-5.378584e-04
5.826164e+01	-5.440892e-04
5.859815e+01	-5.503923e-04
5.893662e+01	-5.567683e-04
5.927703e+01	-5.632182e-04
5.961941e+01	-5.697428e-04
5.996377e+01	-5.763430e-04
6.031012e+01	-5.830196e-04
6.065847e+01	-5.897736e-04
6.100883e+01	-5.966058e-04
6.136121e+01	-6.035172e-04
6.171563e+01	-6.105086e-04
6.207210e+01	-6.175810e-04
6.243063e+01	-6.247354e-04
6.279122e+01	-6.319726e-04
6.315390e+01	-6.392936e-04
6.351868e+01	-6.466994e-04
6.388556e+01	-6.541911e-04
6.425456e+01	-6.617695e-04
6.462569e+01	-6.694357e-04
6.499897e+01	-6.771907e-04
6.537440e+01	-6.850355e-04
6.575200e+01	-6.929712e-04
6.613178e+01	-7.009988e-04
6.651375e+01	-7.091194e-04
6.689793e+01	-7.173341e-04
6.728433e+01	-7.256439e-04
6.767297e+01	-7.340499e-04
6.806384e+01	-7.425534e-04
6.845698e+01	-7.511553e-04
6.885238e+01	-7.598569e-04
6.925007e+01	-7.686593e-04
6.965005e+01	-7.775636e-04
7.005235e+01	-7.865711e-04
7.045697e+01	-7.956829e-04
7.086393e+01	-8.049002e-04
7.127323e+01	-8.142243e-04
7.168490e+01	-8.236565e-04
7.209895e+01	-8.331978e-04
7.251539e+01	-8.428497e-04
7.293424e+01	-8.526134e-04
7.335551e+01	-8.624902e-04
7.377920e+01	-8.724814e-04
7.420535e+01	-8.825883e-04
7.463396e+01	-8.928122e-04
7.506504e+01	-9.031546e-04
7.549861e+01	-9.136168e-04
7.593469e+01	-9.242002e-04
7.637328e+01	-9.349062e-04
7.681441e+01	-9.457361e-04
7.725809e+01	-9.566915e-04
7.770433e+01	-9.677738e-04
7.815315e+01	-9.789845e-04
7.860456e+01	-9.903250e-04
7.905857e+01	-1.001797e-03
7.951521e+01	-1.013402e-03
7.997449e+01	-1.025141e-03
8.043642e+01	-1.037016e-03
8.090102e+01	-1.049029e-03
8.136830e+01	-1.061180e-03
8.183828e+01	-1.073473e-03
8.231097e+01	-1.085908e-03
8.278640e+01	-1.098487e-03
8.326457e+01	-1.111211e-03
8.374550e+01	-1.124083e-03
8.422921e+01	-1.137104e-03
8.471572e+01	-1.150276e-03
8.520503e+01	-1.163601e-03
8.569717e+01	-1.177080e-03
8.619215e+01	-1.190715e-03
8.669000e+01	-1.204507e-03
8.719071e+01	-1.218460e-03
8.769432e+01	-1.232574e-03
8.820084e+01	-1.246852e-03
8.871029e+01	-1.261295e-03
8.922267e+01	-1.275905e-03
8.973802e+01	-1.290685e-03
9.025634e+01	-1.305635e-03
9.077766e+01	-1.320759e-03
9.130199e+01	-1.336058e-03
9.182935e+01	-1.351534e-03
9.235975e+01	-1.367190e-03
9.289321e+01	-1.383027e-03
9.342976e+01	-1.399047e-03
9.396941e+01	-1.415252e-03
9.451217e+01	-1.431646e-03
9.505807e+01	-1.448229e-03
9.560712e+01	-1.465004e-03
9.615934e+01	-1.481974e-03
9.671476e+01	-1.499140e-03
9.727338e+01	-1.516505e-03
9.783522e+01	-1.534071e-03
9.840032e+01	-1.551840e-03
9.896867e+01	-1.569816e-03
9.954031e+01	-1.587999e-03
1.001153e+02	-1.606393e-03
1.006935e+02	-1.625000e-03
1.012751e+02	-1.643822e-03
1.018601e+02	-1.662863e-03
1.024484e+02	-1.682124e-03
1.030402e+02	-1.701608e-03
1.036353e+02	-1.721318e-03
1.042339e+02	-1.741256e-03
1.048360e+02	-1.761424e-03
1.054415e+02	-1.781827e-03
1.060505e+02	-1.802465e-03
1.066631e+02	-1.823343e-03
1.072791e+02	-1.844462e-03
1.078988e+02	-1.865826e-03
1.085220e+02	-1.887438e-03
1.091488e+02	-1.909299e-03
1.097793e+02	-1.931414e-03
1.104133e+02	-1.953785e-03
1.110511e+02	-1.976415e-03
1.116925e+02	-1.999307e-03
1.123376e+02	-2.022464e-03
1.129865e+02	-2.045890e-03
1.136391e+02	-2.069586e-03
1.142955e+02	-2.093557e-03
1.149556e+02	-2.117805e-03
1.156196e+02	-2.142335e-03
1.162874e+02	-2.167148e-03
1.169591e+02	-2.192249e-03
1.176347e+02	-2.217640e-03
1.183141e+02	-2.243325e-03
1.189975e+02	-2.269308e-03
1.196848e+02	-2.295592e-03
1.203761e+02	-2.322180e-03
1.210714e+02	-2.349075e-03
1.217707e+02	-2.376283e-03
1.224740e+02	-2.403805e-03
1.231814e+02	-2.431646e-03
1.238929e+02	-2.459809e-03
1.246085e+02	-2.488298e-03
1.253283e+02	-2.517117e-03
1.260522e+02	-2.546270e-03
1.267802e+02	-2.575761e-03
1.275125e+02	-2.605593e-03
1.282490e+02	-2.635770e-03
1.289898e+02	-2.666297e-03
1.297348e+02	-2.697177e-03
1.304842e+02	-2.728415e-03
1.312378e+02	-2.760014e-03
1.319959e+02	-2.791979e-03
1.327583e+02	-2.824314e-03
1.335251e+02	-2.857024e-03
1.342963e+02	-2.890112e-03
1.350720e+02	-2.923584e-03
1.358522e+02	-2.957443e-03
1.366368e+02	-2.991694e-03
1.374260e+02	-3.026341e-03
1.382198e+02	-3.061390e-03
1.390182e+02	-3.096844e-03
1.398211e+02	-3.132709e-03
1.406287e+02	-3.168989e-03
1.414410e+02	-3.205689e-03
1.422579e+02	-3.242814e-03
1.430796e+02	-3.280368e-03
1.439060e+02	-3.318358e-03
1.447372e+02	-3.356787e-03
1.455732e+02	-3.395661e-03
1.464141e+02	-3.434985e-03
1.472597e+02	-3.474764e-03
1.481103e+02	-3.515004e-03
1.489658e+02	-3.555709e-03
1.498262e+02	-3.596886e-03
1.506916e+02	-3.638539e-03
1.515620e+02	-3.680675e-03
1.524374e+02	-3.723298e-03
1.533179e+02	-3.766415e-03
1.542034e+02	-3.810030e-03
1.550941e+02	-3.854151e-03
1.559899e+02	-3.898782e-03
1.568909e+02	-3.943930e-03
1.577971e+02	-3.989601e-03
1.587085e+02	-4.035800e-03
1.596252e+02	-4.082533e-03
1.605472e+02	-4.129808e-03
1.614745e+02	-4.177630e-03
1.624072e+02	-4.226005e-03
1.633453e+02	-4.274940e-03
1.642887e+02	-4.324442e-03
1.652377e+02	-4.374516e-03
1.661921e+02	-4.425170e-03
1.671520e+02	-4.476411e-03
1.681175e+02	-4.528244e-03
1.690885e+02	-4.580677e-03
1.700651e+02	-4.633717e-03
1.710474e+02	-4.687371e-03
1.720354e+02	-4.741645e-03
1.730291e+02	-4.796548e-03
1.740285e+02	-4.852086e-03
1.750337e+02	-4.908267e-03
1.760446e+02	-4.965098e-03
1.770615e+02	-5.022587e-03
1.780842e+02	-5.080740e-03
1.791128e+02	-5.139567e-03
1.801473e+02	-5.199075e-03
1.811878e+02	-5.259271e-03
1.822344e+02	-5.320163e-03
1.832870e+02	-5.381760e-03
1.843456e+02	-5.444070e-03
1.854104e+02	-5.507101e-03
1.864813e+02	-5.570861e-03
1.875584e+02	-5.635359e-03
1.886418e+02	-5.700603e-03
1.897313e+02	-5.766602e-03
1.908272e+02	-5.833365e-03
1.919294e+02	-5.900900e-03
1.930380e+02	-5.969216e-03
1.941530e+02	-6.038323e-03
1.952744e+02	-6.108229e-03
1.964023e+02	-6.178944e-03
1.975367e+02	-6.250477e-03
1.986777e+02	-6.322837e-03
1.998252e+02	-6.396035e-03
2.009794e+02	-6.470079e-03
2.021403e+02	-6.544980e-03
2.033078e+02	-6.620747e-03
2.044821e+02	-6.697391e-03
2.056632e+02	-6.774921e-03
2.068511e+02	-6.853348e-03
2.080459e+02	-6.932682e-03
2.092475e+02	-7.012934e-03
2.104561e+02	-7.094114e-03
2.116717e+02	-7.176233e-03
2.128943e+02	-7.259302e-03
2.141240e+02	-7.343332e-03
2.153608e+02	-7.428333e-03
2.166047e+02	-7.514317e-03
2.178558e+02	-7.601296e-03
2.191141e+02	-7.689281e-03
2.203797e+02	-7.778283e-03
2.216526e+02	-7.868315e-03
2.229329e+02	-7.959387e-03
2.242205e+02	-8.051513e-03
2.255156e+02	-8.144704e-03
2.268182e+02	-8.238973e-03
2.281283e+02	-8.334331e-03
2.294459e+02	-8.430792e-03
2.307712e+02	-8.528369e-03
2.321041e+02	-8.627074e-03
2.334447e+02	-8.726920e-03
2.347931e+02	-8.827920e-03
2.361493e+02	-8.930089e-03
2.375133e+02	-9.033438e-03
2.388851e+02	-9.137982e-03
2.402649e+02	-9.243735e-03
2.416527e+02	-9.350710e-03
2.430484e+02	-9.458922e-03
2.444523e+02	-9.568385e-03
2.458642e+02	-9.679113e-03
2.472843e+02	-9.791121e-03
2.487126e+02	-9.904424e-03
2.501492e+02	-1.001904e-02
2.515940e+02	-1.013497e-02
2.530472e+02	-1.025225e-02
2.545088e+02	-1.037088e-02
2.559789e+02	-1.049089e-02
2.574574e+02	-1.061228e-02
2.589444e+02	-1.073507e-02
2.604401e+02	-1.085928e-02
2.619444e+02	-1.098493e-02
2.634574e+02	-1.111203e-02
2.649791e+02	-1.124060e-02
2.665096e+02	-1.137065e-02
2.680489e+02	-1.150221e-02
2.695972e+02	-1.163529e-02
2.711544e+02	-1.176990e-02
2.727205e+02	-1.190607e-02
2.742958e+02	-1.204381e-02
2.758801e+02	-1.218315e-02
2.774736e+02	-1.232409e-02
2.790762e+02	-1.246666e-02
2.806882e+02	-1.261088e-02
2.823094e+02	-1.275677e-02
2.839400e+02	-1.290434e-02
2.855800e+02	-1.305361e-02
2.872295e+02	-1.320461e-02
2.888886e+02	-1.335735e-02
2.905572e+02	-1.351186e-02
2.922354e+02	-1.366815e-02
2.939234e+02	-1.382625e-02
2.956211e+02	-1.398617e-02
2.973286e+02	-1.414794e-02
2.990459e+02	-1.431157e-02
3.007732e+02	-1.447710e-02
3.025104e+02	-1.464453e-02
3.042577e+02	-1.481390e-02
3.060151e+02	-1.498523e-02
3.077826e+02	-1.515853e-02
3.095604e+02	-1.533384e-02
3.113484e+02	-1.551116e-02
3.131467e+02	-1.569054e-02
3.149554e+02	-1.587198e-02
3.167746e+02	-1.605552e-02
3.186043e+02	-1.624118e-02
3.204445e+02	-1.642898e-02
3.222954e+02	-1.661895e-02
3.241570e+02	-1.681111e-02
3.260293e+02	-1.700549e-02
3.279124e+02	-1.720211e-02
3.298064e+02	-1.740100e-02
3.317114e+02	-1.760219e-02
3.336273e+02	-1.780569e-02
3.355544e+02	-1.801155e-02
3.374925e+02	-1.821977e-02
3.394418e+02	-1.843041e-02
3.414024e+02	-1.864347e-02
3.433744e+02	-1.885898e-02
3.453577e+02	-1.907699e-02
3.473525e+02	-1.929751e-02
3.493588e+02	-1.952057e-02
3.513766e+02	-1.974620e-02
3.534062e+02	-1.997444e-02
3.554474e+02	-2.020531e-02
3.575005e+02	-2.043884e-02
3.595654e+02	-2.067506e-02
3.616422e+02	-2.091401e-02
3.637311e+02	-2.115571e-02
3.658320e+02	-2.140020e-02
3.679450e+02	-2.164751e-02
3.700702e+02	-2.189766e-02
3.722077e+02	-2.215070e-02
3.743576e+02	-2.240666e-02
3.765199e+02	-2.266557e-02
3.786946e+02	-2.292746e-02
3.808820e+02	-2.319237e-02
3.830819e+02	-2.346033e-02
3.852946e+02	-2.373137e-02
3.875200e+02	-2.400555e-02
3.897583e+02	-2.428287e-02
3.920096e+02	-2.456340e-02
3.942738e+02	-2.484716e-02
3.965511e+02	-2.513418e-02
3.988416e+02	-2.542451e-02
4.011452e+02	-2.571818e-02
4.034622e+02	-2.601524e-02
4.057926e+02	-2.631572e-02
4.081365e+02	-2.661965e-02
4.104938e+02	-2.692709e-02
4.128648e+02	-2.723806e-02
4.152495e+02	-2.755262e-02
4.176480e+02	-2.787079e-02
4.200603e+02	-2.819263e-02
4.224866e+02	-2.851817e-02
4.249268e+02	-2.884746e-02
4.273812e+02	-2.918054e-02
4.298497e+02	-2.951745e-02
4.323325e+02	-2.985824e-02
4.348297e+02	-3.020295e-02
4.373412e+02	-3.055162e-02
4.398673e+02	-3.090431e-02
4.424079e+02	-3.126105e-02
4.449633e+02	-3.162189e-02
4.475334e+02	-3.198688e-02
4.501183e+02	-3.235607e-02
4.527182e+02	-3.272951e-02
4.553330e+02	-3.310724e-02
4.579630e+02	-3.348931e-02
4.606082e+02	-3.387577e-02
4.632687e+02	-3.426668e-02
4.659445e+02	-3.466208e-02
4.686358e+02	-3.506202e-02
4.713426e+02	-3.546656e-02
4.740650e+02	-3.587575e-02
4.768032e+02	-3.628963e-02
4.795572e+02	-3.670828e-02
4.823271e+02	-3.713173e-02
4.851130e+02	-3.756004e-02
4.879150e+02	-3.799327e-02
4.907332e+02	-3.843148e-02
4.935676e+02	-3.887472e-02
4.964185e+02	-3.932305e-02
4.992858e+02	-3.977652e-02
5.021696e+02	-4.023520e-02
5.050701e+02	-4.069915e-02
5.079874e+02	-4.116842e-02
5.109215e+02	-4.164307e-02
5.138726e+02	-4.212317e-02
5.168407e+02	-4.260877e-02
5.198259e+02	-4.309995e-02
5.228284e+02	-4.359676e-02
5.258482e+02	-4.409927e-02
5.288855e+02	-4.460754e-02
5.319403e+02	-4.512164e-02
5.350128e+02	-4.564163e-02
5.381030e+02	-4.616758e-02
5.412111e+02	-4.669956e-02
5.443371e+02	-4.723763e-02
5.474812e+02	-4.778188e-02
5.506434e+02	-4.833235e-02
5.538239e+02	-4.888914e-02
5.570228e+02	-4.945230e-02
5.602401e+02	-5.002191e-02
5.634760e+02	-5.059804e-02
5.667306e+02	-5.118077e-02
5.700040e+02	-5.177017e-02
5.732964e+02	-5.236631e-02
5.766077e+02	-5.296928e-02
5.799382e+02	-5.357915e-02
5.832879e+02	-5.419600e-02
5.866569e+02	-5.481990e-02
5.900454e+02	-5.545094e-02
5.934535e+02	-5.608920e-02
5.968813e+02	-5.673475e-02
6.003288e+02	-5.738769e-02
6.037963e+02	-5.804809e-02
6.072838e+02	-5.871603e-02
6.107914e+02	-5.939161e-02
6.143194e+02	-6.007491e-02
6.178676e+02	-6.076602e-02
6.214364e+02	-6.146502e-02
6.250258e+02	-6.217200e-02
6.286359e+02	-6.288706e-02
6.322669e+02	-6.361027e-02
6.359189e+02	-6.434175e-02
6.395919e+02	-6.508157e-02
6.432862e+02	-6.582984e-02
6.470017e+02	-6.658664e-02
6.507388e+02	-6.735207e-02
6.544974e+02	-6.812623e-02
6.582778e+02	-6.890922e-02
6.620800e+02	-6.970114e-02
6.659041e+02	-7.050209e-02
6.697504e+02	-7.131216e-02
6.736188e+02	-7.213146e-02
6.775096e+02	-7.296010e-02
6.814229e+02	-7.379817e-02
6.853587e+02	-7.464579e-02
6.893173e+02	-7.550306e-02
6.932988e+02	-7.637008e-02
6.973033e+02	-7.724698e-02
7.013309e+02	-7.813385e-02
