Frequency(Hz)	Magnitude(dB)
1.000000e+01	-2.217910e+00
1.005776e+01	-2.238235e+00
1.011585e+01	-2.258577e+00
1.017428e+01	-2.278610e+00
1.023305e+01	-2.299236e+00
1.029215e+01	-2.319954e+00
1.035160e+01	-2.340603e+00
1.041139e+01	-2.361589e+00
1.047153e+01	-2.382541e+00
1.053201e+01	-2.403925e+00
1.059284e+01	-2.425300e+00
1.065403e+01	-2.446501e+00
1.071556e+01	-2.468274e+00
1.077746e+01	-2.490280e+00
1.083971e+01	-2.512047e+00
1.090232e+01	-2.533756e+00
1.096529e+01	-2.556121e+00
1.102862e+01	-2.578504e+00
1.109232e+01	-2.601007e+00
1.115639e+01	-2.623377e+00
1.122083e+01	-2.646386e+00
1.128564e+01	-2.669260e+00
1.135083e+01	-2.692053e+00
1.141639e+01	-2.715579e+00
1.148233e+01	-2.738545e+00
1.154865e+01	-2.762567e+00
1.161536e+01	-2.785941e+00
1.168245e+01	-2.809679e+00
1.174992e+01	-2.833473e+00
1.181779e+01	-2.857569e+00
1.188605e+01	-2.881881e+00
1.195470e+01	-2.906251e+00
1.202375e+01	-2.930663e+00
1.209320e+01	-2.955294e+00
1.216305e+01	-2.980008e+00
1.223330e+01	-3.004943e+00
1.230396e+01	-3.029796e+00
1.237503e+01	-3.055103e+00
1.244651e+01	-3.080604e+00
1.251840e+01	-3.105924e+00
1.259070e+01	-3.131480e+00
1.266343e+01	-3.157443e+00
1.273657e+01	-3.182867e+00
1.281014e+01	-3.209150e+00
1.288413e+01	-3.235654e+00
1.295855e+01	-3.261946e+00
1.303339e+01	-3.288256e+00
1.310867e+01	-3.315164e+00
1.318439e+01	-3.341821e+00
1.326054e+01	-3.368759e+00
1.333713e+01	-3.395763e+00
1.341417e+01	-3.423023e+00
1.349165e+01	-3.450154e+00
1.356958e+01	-3.477751e+00
1.364795e+01	-3.505207e+00
1.372678e+01	-3.533253e+00
1.380607e+01	-3.561095e+00
1.388581e+01	-3.589198e+00
1.396602e+01	-3.617681e+00
1.404668e+01	-3.645664e+00
1.412782e+01	-3.674326e+00
1.420942e+01	-3.702809e+00
1.429149e+01	-3.731498e+00
1.437404e+01	-3.760699e+00
1.445706e+01	-3.789515e+00
1.454057e+01	-3.818731e+00
1.462455e+01	-3.848033e+00
1.470902e+01	-3.877392e+00
1.479398e+01	-3.907107e+00
1.487943e+01	-3.936981e+00
1.496537e+01	-3.966902e+00
1.505181e+01	-3.996673e+00
1.513875e+01	-4.027091e+00
1.522619e+01	-4.057159e+00
1.531414e+01	-4.087480e+00
1.540259e+01	-4.118250e+00
1.549156e+01	-4.148869e+00
1.558103e+01	-4.180175e+00
1.567103e+01	-4.211066e+00
1.576155e+01	-4.242209e+00
1.585258e+01	-4.273239e+00
1.594415e+01	-4.304716e+00
1.603624e+01	-4.336448e+00
1.612886e+01	-4.367988e+00
1.622202e+01	-4.399901e+00
1.631572e+01	-4.431648e+00
1.640996e+01	-4.463625e+00
1.650474e+01	-4.495833e+00
1.660008e+01	-4.528182e+00
1.669596e+01	-4.560585e+00
1.679239e+01	-4.593404e+00
1.688938e+01	-4.625744e+00
1.698694e+01	-4.658466e+00
1.708505e+01	-4.691865e+00
1.718373e+01	-4.724967e+00
1.728299e+01	-4.758144e+00
1.738281e+01	-4.791314e+00
1.748322e+01	-4.825049e+00
1.758420e+01	-4.858630e+00
1.768576e+01	-4.892316e+00
1.778792e+01	-4.926150e+00
1.789066e+01	-4.959950e+00
1.799399e+01	-4.994243e+00
1.809793e+01	-5.028555e+00
1.820246e+01	-5.063197e+00
1.830760e+01	-5.097337e+00
1.841334e+01	-5.132109e+00
1.851969e+01	-5.166573e+00
1.862666e+01	-5.201721e+00
1.873425e+01	-5.236685e+00
1.884246e+01	-5.271708e+00
1.895129e+01	-5.306744e+00
1.906075e+01	-5.342484e+00
1.917085e+01	-5.377827e+00
1.928158e+01	-5.413413e+00
1.939295e+01	-5.449115e+00
1.950496e+01	-5.484845e+00
1.961762e+01	-5.520997e+00
1.973093e+01	-5.556974e+00
1.984490e+01	-5.592838e+00
1.995952e+01	-5.629220e+00
2.007480e+01	-5.665711e+00
2.019076e+01	-5.702353e+00
2.030738e+01	-5.739076e+00
2.042467e+01	-5.775576e+00
2.054264e+01	-5.812540e+00
2.066130e+01	-5.849545e+00
2.078064e+01	-5.886421e+00
2.090066e+01	-5.923720e+00
2.102139e+01	-5.961118e+00
2.114280e+01	-5.998367e+00
2.126492e+01	-6.035446e+00
2.138775e+01	-6.073100e+00
2.151128e+01	-6.111204e+00
2.163553e+01	-6.149101e+00
2.176050e+01	-6.186987e+00
2.188619e+01	-6.224763e+00
2.201260e+01	-6.263008e+00
2.213974e+01	-6.301372e+00
2.226762e+01	-6.339973e+00
2.239624e+01	-6.378647e+00
2.252560e+01	-6.416535e+00
2.265571e+01	-6.455305e+00
2.278656e+01	-6.494358e+00
2.291818e+01	-6.532904e+00
2.305055e+01	-6.571843e+00
2.318369e+01	-6.610821e+00
2.331760e+01	-6.650121e+00
2.345228e+01	-6.689384e+00
2.358774e+01	-6.728874e+00
2.372398e+01	-6.768371e+00
2.386101e+01	-6.808098e+00
2.399883e+01	-6.847179e+00
2.413745e+01	-6.887618e+00
2.427686e+01	-6.926860e+00
2.441709e+01	-6.967237e+00
2.455812e+01	-7.007076e+00
2.469997e+01	-7.046655e+00
2.484263e+01	-7.087478e+00
2.498612e+01	-7.127365e+00
2.513044e+01	-7.167811e+00
2.527559e+01	-7.208136e+00
2.542158e+01	-7.248932e+00
2.556842e+01	-7.289362e+00
2.571610e+01	-7.330630e+00
2.586463e+01	-7.371453e+00
2.601403e+01	-7.412276e+00
2.616428e+01	-7.453280e+00
2.631541e+01	-7.494712e+00
2.646740e+01	-7.535363e+00
2.662028e+01	-7.576178e+00
2.677404e+01	-7.618074e+00
2.692868e+01	-7.659567e+00
2.708422e+01	-7.700726e+00
2.724066e+01	-7.742616e+00
2.739800e+01	-7.783843e+00
2.755625e+01	-7.825668e+00
2.771541e+01	-7.867704e+00
2.787550e+01	-7.909549e+00
2.803650e+01	-7.951190e+00
2.819844e+01	-7.993274e+00
2.836131e+01	-8.035456e+00
2.852513e+01	-8.077465e+00
2.868989e+01	-8.120516e+00
2.885560e+01	-8.162415e+00
2.902227e+01	-8.204879e+00
2.918990e+01	-8.246873e+00
2.935850e+01	-8.289608e+00
2.952807e+01	-8.332291e+00
2.969863e+01	-8.375398e+00
2.987016e+01	-8.418568e+00
3.004269e+01	-8.460823e+00
3.021622e+01	-8.503571e+00
3.039075e+01	-8.547254e+00
3.056628e+01	-8.589717e+00
3.074283e+01	-8.633623e+00
3.092040e+01	-8.676136e+00
3.109900e+01	-8.719397e+00
3.127862e+01	-8.762679e+00
3.145929e+01	-8.806491e+00
3.164099e+01	-8.849939e+00
3.182375e+01	-8.892893e+00
3.200756e+01	-8.937024e+00
3.219244e+01	-8.980429e+00
3.237838e+01	-9.024068e+00
3.256540e+01	-9.068023e+00
3.275349e+01	-9.111444e+00
3.294268e+01	-9.155729e+00
3.313295e+01	-9.199911e+00
3.332433e+01	-9.244439e+00
3.351681e+01	-9.288301e+00
3.371040e+01	-9.332390e+00
3.390511e+01	-9.376711e+00
3.410094e+01	-9.420027e+00
3.429791e+01	-9.464825e+00
3.449601e+01	-9.509475e+00
3.469526e+01	-9.554217e+00
3.489566e+01	-9.598325e+00
3.509721e+01	-9.642649e+00
3.529993e+01	-9.687286e+00
3.550382e+01	-9.732328e+00
3.570889e+01	-9.776649e+00
3.591515e+01	-9.821293e+00
3.612259e+01	-9.866411e+00
3.633123e+01	-9.911346e+00
3.654108e+01	-9.956893e+00
3.675214e+01	-1.000158e+01
3.696442e+01	-1.004655e+01
3.717792e+01	-1.009133e+01
3.739266e+01	-1.013673e+01
3.760864e+01	-1.018206e+01
3.782587e+01	-1.022706e+01
3.804435e+01	-1.027278e+01
3.826409e+01	-1.031796e+01
3.848510e+01	-1.036301e+01
3.870739e+01	-1.040859e+01
3.893096e+01	-1.045452e+01
3.915583e+01	-1.049975e+01
3.938199e+01	-1.054535e+01
3.960946e+01	-1.059072e+01
3.983824e+01	-1.063746e+01
4.006834e+01	-1.068233e+01
4.029978e+01	-1.072805e+01
4.053255e+01	-1.077350e+01
4.076666e+01	-1.081992e+01
4.100213e+01	-1.086597e+01
4.123896e+01	-1.091194e+01
4.147715e+01	-1.095699e+01
4.171672e+01	-1.100338e+01
4.195767e+01	-1.104958e+01
4.220002e+01	-1.109565e+01
4.244377e+01	-1.114256e+01
4.268892e+01	-1.118847e+01
4.293549e+01	-1.123455e+01
4.318348e+01	-1.128101e+01
4.343291e+01	-1.132692e+01
4.368377e+01	-1.137335e+01
4.393609e+01	-1.142027e+01
4.418986e+01	-1.146598e+01
4.444510e+01	-1.151297e+01
4.470182e+01	-1.155943e+01
4.496001e+01	-1.160581e+01
4.521970e+01	-1.165235e+01
4.548089e+01	-1.169897e+01
4.574358e+01	-1.174578e+01
4.600779e+01	-1.179186e+01
4.627353e+01	-1.183943e+01
4.654081e+01	-1.188606e+01
4.680963e+01	-1.193257e+01
4.708000e+01	-1.197980e+01
4.735193e+01	-1.202636e+01
4.762543e+01	-1.207336e+01
4.790051e+01	-1.211999e+01
4.817719e+01	-1.216733e+01
4.845545e+01	-1.221312e+01
4.873533e+01	-1.226110e+01
4.901682e+01	-1.230793e+01
4.929994e+01	-1.235593e+01
4.958470e+01	-1.240275e+01
4.987110e+01	-1.244971e+01
5.015915e+01	-1.249689e+01
5.044887e+01	-1.254333e+01
5.074026e+01	-1.259223e+01
5.103333e+01	-1.263833e+01
5.132810e+01	-1.268638e+01
5.162457e+01	-1.273416e+01
5.192275e+01	-1.278012e+01
5.222265e+01	-1.282838e+01
5.252429e+01	-1.287628e+01
5.282767e+01	-1.292323e+01
5.313280e+01	-1.297052e+01
5.343969e+01	-1.301864e+01
5.374836e+01	-1.306582e+01
5.405880e+01	-1.311307e+01
5.437105e+01	-1.316061e+01
5.468509e+01	-1.320838e+01
5.500095e+01	-1.325591e+01
5.531863e+01	-1.330292e+01
5.563815e+01	-1.335202e+01
5.595951e+01	-1.339939e+01
5.628273e+01	-1.344751e+01
5.660782e+01	-1.349398e+01
5.693479e+01	-1.354166e+01
5.726364e+01	-1.359021e+01
5.759439e+01	-1.363800e+01
5.792705e+01	-1.368553e+01
5.826164e+01	-1.373418e+01
5.859815e+01	-1.378224e+01
5.893662e+01	-1.383026e+01
5.927703e+01	-1.387731e+01
5.961941e+01	-1.392546e+01
5.996377e+01	-1.397377e+01
6.031012e+01	-1.402115e+01
6.065847e+01	-1.407074e+01
6.100883e+01	-1.411817e+01
6.136121e+01	-1.416570e+01
6.171563e+01	-1.421433e+01
6.207210e+01	-1.426184e+01
6.243063e+01	-1.431076e+01
6.279122e+01	-1.435847e+01
6.315390e+01	-1.440654e+01
6.351868e+01	-1.445447e+01
6.388556e+01	-1.450387e+01
6.425456e+01	-1.455112e+01
6.462569e+01	-1.459935e+01
6.499897e+01	-1.464826e+01
6.537440e+01	-1.469628e+01
6.575200e+01	-1.474435e+01
6.613178e+01	-1.479337e+01
6.651375e+01	-1.484104e+01
6.689793e+01	-1.489008e+01
6.728433e+01	-1.493877e+01
6.767297e+01	-1.498692e+01
6.806384e+01	-1.503556e+01
6.845698e+01	-1.508455e+01
6.885238e+01	-1.513267e+01
6.925007e+01	-1.517935e+01
6.965005e+01	-1.523027e+01
7.005235e+01	-1.527811e+01
7.045697e+01	-1.532660e+01
7.086393e+01	-1.537479e+01
7.127323e+01	-1.542349e+01
7.168490e+01	-1.547298e+01
7.209895e+01	-1.552016e+01
7.251539e+01	-1.556967e+01
7.293424e+01	-1.561818e+01
7.335551e+01	-1.566674e+01
7.377920e+01	-1.571478e+01
7.420535e+01	-1.576423e+01
7.463396e+01	-1.581284e+01
7.506504e+01	-1.586233e+01
7.549861e+01	-1.591098e+01
7.593469e+01	-1.595916e+01
7.637328e+01	-1.600724e+01
7.681441e+01	-1.605619e+01
7.725809e+01	-1.610593e+01
7.770433e+01	-1.615417e+01
7.815315e+01	-1.620339e+01
7.860456e+01	-1.625185e+01
7.905857e+01	-1.630085e+01
7.951521e+01	-1.635094e+01
7.997449e+01	-1.639864e+01
8.043642e+01	-1.644784e+01
8.090102e+01	-1.649616e+01
8.136830e+01	-1.654550e+01
8.183828e+01	-1.659288e+01
8.231097e+01	-1.664370e+01
8.278640e+01	-1.669264e+01
8.326457e+01	-1.674108e+01
8.374550e+01	-1.678872e+01
8.422921e+01	-1.683934e+01
8.471572e+01	-1.688863e+01
8.520503e+01	-1.693719e+01
8.569717e+01	-1.698509e+01
8.619215e+01	-1.703383e+01
8.669000e+01	-1.708371e+01
8.719071e+01	-1.713290e+01
8.769432e+01	-1.718115e+01
8.820084e+01	-1.723082e+01
8.871029e+01	-1.728022e+01
8.922267e+01	-1.732849e+01
8.973802e+01	-1.737901e+01
9.025634e+01	-1.742853e+01
9.077766e+01	-1.747646e+01
9.130199e+01	-1.752498e+01
9.182935e+01	-1.757434e+01
9.235975e+01	-1.762545e+01
9.289321e+01	-1.767358e+01
9.342976e+01	-1.772286e+01
9.396941e+01	-1.777241e+01
9.451217e+01	-1.782044e+01
9.505807e+01	-1.786976e+01
9.560712e+01	-1.792042e+01
9.615934e+01	-1.796910e+01
9.671476e+01	-1.801799e+01
9.727338e+01	-1.806587e+01
9.783522e+01	-1.811630e+01
9.840032e+01	-1.816485e+01
9.896867e+01	-1.821501e+01
9.954031e+01	-1.826377e+01
1.001153e+02	-1.831326e+01
1.006935e+02	-1.836311e+01
1.012751e+02	-1.841211e+01
1.018601e+02	-1.846111e+01
1.024484e+02	-1.850962e+01
1.030402e+02	-1.856094e+01
1.036353e+02	-1.861039e+01
1.042339e+02	-1.865825e+01
1.048360e+02	-1.870817e+01
1.054415e+02	-1.875726e+01
1.060505e+02	-1.880777e+01
1.066631e+02	-1.885534e+01
1.072791e+02	-1.890521e+01
1.078988e+02	-1.895603e+01
1.085220e+02	-1.900414e+01
1.091488e+02	-1.905354e+01
1.097793e+02	-1.910420e+01
1.104133e+02	-1.915183e+01
1.110511e+02	-1.920037e+01
1.116925e+02	-1.925140e+01
1.123376e+02	-1.930024e+01
1.129865e+02	-1.935095e+01
1.136391e+02	-1.939886e+01
1.142955e+02	-1.944798e+01
1.149556e+02	-1.949881e+01
1.156196e+02	-1.954843e+01
1.162874e+02	-1.959665e+01
1.169591e+02	-1.964738e+01
1.176347e+02	-1.969708e+01
1.183141e+02	-1.974642e+01
1.189975e+02	-1.979579e+01
1.196848e+02	-1.984481e+01
1.203761e+02	-1.989562e+01
1.210714e+02	-1.994503e+01
1.217707e+02	-1.999187e+01
1.224740e+02	-2.004335e+01
1.231814e+02	-2.009256e+01
1.238929e+02	-2.014251e+01
1.246085e+02	-2.019158e+01
1.253283e+02	-2.023915e+01
1.260522e+02	-2.029209e+01
1.267802e+02	-2.033955e+01
1.275125e+02	-2.039080e+01
1.282490e+02	-2.044205e+01
1.289898e+02	-2.049010e+01
1.297348e+02	-2.053899e+01
1.304842e+02	-2.058739e+01
1.312378e+02	-2.063785e+01
1.319959e+02	-2.068798e+01
1.327583e+02	-2.073537e+01
1.335251e+02	-2.078694e+01
1.342963e+02	-2.083723e+01
1.350720e+02	-2.088520e+01
1.358522e+02	-2.093587e+01
1.366368e+02	-2.098738e+01
1.374260e+02	-2.103449e+01
1.382198e+02	-2.108417e+01
1.390182e+02	-2.113642e+01
1.398211e+02	-2.118395e+01
1.406287e+02	-2.123482e+01
1.414410e+02	-2.128257e+01
1.422579e+02	-2.133173e+01
1.430796e+02	-2.138128e+01
1.439060e+02	-2.143270e+01
1.447372e+02	-2.148173e+01
1.455732e+02	-2.153299e+01
1.464141e+02	-2.158360e+01
1.472597e+02	-2.163227e+01
1.481103e+02	-2.168115e+01
1.489658e+02	-2.173082e+01
1.498262e+02	-2.178067e+01
1.506916e+02	-2.182986e+01
1.515620e+02	-2.187924e+01
1.524374e+02	-2.193003e+01
1.533179e+02	-2.197949e+01
1.542034e+02	-2.202833e+01
1.550941e+02	-2.207691e+01
1.559899e+02	-2.212760e+01
1.568909e+02	-2.217834e+01
1.577971e+02	-2.222891e+01
1.587085e+02	-2.227616e+01
1.596252e+02	-2.232769e+01
1.605472e+02	-2.237803e+01
1.614745e+02	-2.242614e+01
1.624072e+02	-2.247650e+01
1.633453e+02	-2.252862e+01
1.642887e+02	-2.257760e+01
1.652377e+02	-2.262560e+01
1.661921e+02	-2.267629e+01
1.671520e+02	-2.272387e+01
1.681175e+02	-2.277471e+01
1.690885e+02	-2.282442e+01
1.700651e+02	-2.287511e+01
1.710474e+02	-2.292474e+01
1.720354e+02	-2.297143e+01
1.730291e+02	-2.302411e+01
1.740285e+02	-2.307338e+01
1.750337e+02	-2.312306e+01
1.760446e+02	-2.317509e+01
1.770615e+02	-2.322339e+01
1.780842e+02	-2.327211e+01
1.791128e+02	-2.332188e+01
1.801473e+02	-2.337278e+01
1.811878e+02	-2.342410e+01
1.822344e+02	-2.347256e+01
1.832870e+02	-2.352227e+01
1.843456e+02	-2.357427e+01
1.854104e+02	-2.362333e+01
1.864813e+02	-2.367353e+01
1.875584e+02	-2.371896e+01
1.886418e+02	-2.377325e+01
1.897313e+02	-2.382323e+01
1.908272e+02	-2.387346e+01
1.919294e+02	-2.392197e+01
1.930380e+02	-2.397099e+01
1.941530e+02	-2.401738e+01
1.952744e+02	-2.407034e+01
1.964023e+02	-2.412072e+01
1.975367e+02	-2.416906e+01
1.986777e+02	-2.421910e+01
1.998252e+02	-2.427123e+01
2.009794e+02	-2.432068e+01
2.021403e+02	-2.437169e+01
2.033078e+02	-2.441900e+01
2.044821e+02	-2.446666e+01
2.056632e+02	-2.451867e+01
2.068511e+02	-2.456990e+01
2.080459e+02	-2.462123e+01
2.092475e+02	-2.466898e+01
2.104561e+02	-2.472000e+01
2.116717e+02	-2.476913e+01
2.128943e+02	-2.481877e+01
2.141240e+02	-2.486686e+01
2.153608e+02	-2.491969e+01
2.166047e+02	-2.496802e+01
2.178558e+02	-2.501992e+01
2.191141e+02	-2.506704e+01
2.203797e+02	-2.511867e+01
2.216526e+02	-2.516962e+01
2.229329e+02	-2.521932e+01
2.242205e+02	-2.526925e+01
2.255156e+02	-2.532025e+01
2.268182e+02	-2.536555e+01
2.281283e+02	-2.541746e+01
2.294459e+02	-2.546796e+01
2.307712e+02	-2.551890e+01
2.321041e+02	-2.556833e+01
2.334447e+02	-2.561807e+01
2.347931e+02	-2.566931e+01
2.361493e+02	-2.571902e+01
2.375133e+02	-2.576872e+01
2.388851e+02	-2.581437e+01
2.402649e+02	-2.586581e+01
2.416527e+02	-2.591617e+01
2.430484e+02	-2.596930e+01
2.444523e+02	-2.601673e+01
2.458642e+02	-2.606642e+01
2.472843e+02	-2.611885e+01
2.487126e+02	-2.616911e+01
2.501492e+02	-2.621625e+01
2.515940e+02	-2.626661e+01
2.530472e+02	-2.631871e+01
2.545088e+02	-2.636548e+01
2.559789e+02	-2.641744e+01
2.574574e+02	-2.646710e+01
2.589444e+02	-2.651624e+01
2.604401e+02	-2.656581e+01
2.619444e+02	-2.661384e+01
2.634574e+02	-2.666288e+01
2.649791e+02	-2.671243e+01
2.665096e+02	-2.676941e+01
2.680489e+02	-2.681736e+01
2.695972e+02	-2.686731e+01
2.711544e+02	-2.691849e+01
2.727205e+02	-2.696366e+01
2.742958e+02	-2.701584e+01
2.758801e+02	-2.706818e+01
2.774736e+02	-2.711830e+01
2.790762e+02	-2.716742e+01
2.806882e+02	-2.721928e+01
2.823094e+02	-2.726787e+01
2.839400e+02	-2.731675e+01
2.855800e+02	-2.736665e+01
2.872295e+02	-2.741586e+01
2.888886e+02	-2.746916e+01
2.905572e+02	-2.751454e+01
2.922354e+02	-2.756676e+01
2.939234e+02	-2.762071e+01
2.956211e+02	-2.766143e+01
2.973286e+02	-2.771470e+01
2.990459e+02	-2.776581e+01
3.007732e+02	-2.781612e+01
3.025104e+02	-2.786687e+01
3.042577e+02	-2.791815e+01
3.060151e+02	-2.796868e+01
3.077826e+02	-2.801195e+01
3.095604e+02	-2.806447e+01
3.113484e+02	-2.811775e+01
3.131467e+02	-2.816600e+01
3.149554e+02	-2.821723e+01
3.167746e+02	-2.826549e+01
3.186043e+02	-2.831277e+01
3.204445e+02	-2.836774e+01
3.222954e+02	-2.841779e+01
3.241570e+02	-2.846770e+01
3.260293e+02	-2.851532e+01
3.279124e+02	-2.856624e+01
3.298064e+02	-2.861441e+01
3.317114e+02	-2.866634e+01
3.336273e+02	-2.871661e+01
3.355544e+02	-2.876703e+01
3.374925e+02	-2.881824e+01
3.394418e+02	-2.886778e+01
3.414024e+02	-2.891481e+01
3.433744e+02	-2.896827e+01
3.453577e+02	-2.902170e+01
3.473525e+02	-2.906603e+01
3.493588e+02	-2.911931e+01
3.513766e+02	-2.916973e+01
3.534062e+02	-2.921253e+01
3.554474e+02	-2.926910e+01
3.575005e+02	-2.931597e+01
3.595654e+02	-2.936197e+01
3.616422e+02	-2.941858e+01
3.637311e+02	-2.946701e+01
3.658320e+02	-2.951876e+01
3.679450e+02	-2.957457e+01
3.700702e+02	-2.961614e+01
3.722077e+02	-2.966759e+01
3.743576e+02	-2.972320e+01
3.765199e+02	-2.976856e+01
3.786946e+02	-2.982139e+01
3.808820e+02	-2.986615e+01
3.830819e+02	-2.991571e+01
3.852946e+02	-2.996919e+01
3.875200e+02	-3.001609e+01
3.897583e+02	-3.007156e+01
3.920096e+02	-3.011826e+01
3.942738e+02	-3.017248e+01
3.965511e+02	-3.021863e+01
3.988416e+02	-3.026934e+01
4.011452e+02	-3.032021e+01
4.034622e+02	-3.037014e+01
4.057926e+02	-3.041850e+01
4.081365e+02	-3.047009e+01
4.104938e+02	-3.051828e+01
4.128648e+02	-3.057013e+01
4.152495e+02	-3.061468e+01
4.176480e+02	-3.066883e+01
4.200603e+02	-3.072154e+01
4.224866e+02	-3.076628e+01
4.249268e+02	-3.081767e+01
4.273812e+02	-3.087227e+01
4.298497e+02	-3.092472e+01
4.323325e+02	-3.097368e+01
4.348297e+02	-3.102028e+01
4.373412e+02	-3.107078e+01
4.398673e+02	-3.112284e+01
4.424079e+02	-3.117381e+01
4.449633e+02	-3.122369e+01
4.475334e+02	-3.127396e+01
4.501183e+02	-3.132060e+01
4.527182e+02	-3.136829e+01
4.553330e+02	-3.142060e+01
4.579630e+02	-3.147420e+01
4.606082e+02	-3.152542e+01
4.632687e+02	-3.157223e+01
4.659445e+02	-3.162548e+01
4.686358e+02	-3.167519e+01
4.713426e+02	-3.172584e+01
4.740650e+02	-3.177506e+01
4.768032e+02	-3.182199e+01
4.795572e+02	-3.187638e+01
4.823271e+02	-3.192787e+01
4.851130e+02	-3.196825e+01
4.879150e+02	-3.202345e+01
4.907332e+02	-3.207896e+01
4.935676e+02	-3.212649e+01
4.964185e+02	-3.217357e+01
4.992858e+02	-3.222016e+01
5.021696e+02	-3.227848e+01
5.050701e+02	-3.232684e+01
5.079874e+02	-3.237157e+01
5.109215e+02	-3.242616e+01
5.138726e+02	-3.247571e+01
5.168407e+02	-3.252526e+01
5.198259e+02	-3.257540e+01
5.228284e+02	-3.263008e+01
5.258482e+02	-3.267664e+01
5.288855e+02	-3.273382e+01
5.319403e+02	-3.278281e+01
5.350128e+02	-3.283373e+01
5.381030e+02	-3.287729e+01
5.412111e+02	-3.293528e+01
5.443371e+02	-3.298375e+01
5.474812e+02	-3.302061e+01
5.506434e+02	-3.308410e+01
5.538239e+02	-3.313483e+01
5.570228e+02	-3.318291e+01
5.602401e+02	-3.323478e+01
5.634760e+02	-3.328064e+01
5.667306e+02	-3.333391e+01
5.700040e+02	-3.338195e+01
5.732964e+02	-3.342884e+01
5.766077e+02	-3.348232e+01
5.799382e+02	-3.353138e+01
5.832879e+02	-3.358389e+01
5.866569e+02	-3.363143e+01
5.900454e+02	-3.368138e+01
5.934535e+02	-3.373460e+01
5.968813e+02	-3.378218e+01
6.003288e+02	-3.382786e+01
6.037963e+02	-3.388144e+01
6.072838e+02	-3.393728e+01
6.107914e+02	-3.397911e+01
6.143194e+02	-3.403636e+01
6.178676e+02	-3.409341e+01
6.214364e+02	-3.413773e+01
6.250258e+02	-3.418927e+01
6.286359e+02	-3.423747e+01
6.322669e+02	-3.427721e+01
6.359189e+02	-3.433913e+01
6.395919e+02	-3.438375e+01
6.432862e+02	-3.444052e+01
6.470017e+02	-3.449476e+01
6.507388e+02	-3.454177e+01
6.544974e+02	-3.458051e+01
6.582778e+02	-3.464375e+01
6.620800e+02	-3.468636e+01
6.659041e+02	-3.474422e+01
6.697504e+02	-3.479237e+01
6.736188e+02	-3.484373e+01
6.775096e+02	-3.489449e+01
6.814229e+02	-3.494245e+01
6.853587e+02	-3.498709e+01
6.893173e+02	-3.504142e+01
6.932988e+02	-3.509002e+01
6.973033e+02	-3.514269e+01
7.013309e+02	-3.519166e+01
