Frequency(Hz)	Magnitude(dB)
1.000000e+01	-1.795693e-05
1.005776e+01	-1.816497e-05
1.011585e+01	-1.837542e-05
1.017428e+01	-1.858830e-05
1.023305e+01	-1.880365e-05
1.029215e+01	-1.902149e-05
1.035160e+01	-1.924186e-05
1.041139e+01	-1.946478e-05
1.047153e+01	-1.969029e-05
1.053201e+01	-1.991841e-05
1.059284e+01	-2.014917e-05
1.065403e+01	-2.038260e-05
1.071556e+01	-2.061874e-05
1.077746e+01	-2.085761e-05
1.083971e+01	-2.109925e-05
1.090232e+01	-2.134369e-05
1.096529e+01	-2.159096e-05
1.102862e+01	-2.184110e-05
1.109232e+01	-2.209413e-05
1.115639e+01	-2.235010e-05
1.122083e+01	-2.260903e-05
1.128564e+01	-2.287096e-05
1.135083e+01	-2.313593e-05
1.141639e+01	-2.340396e-05
1.148233e+01	-2.367511e-05
1.154865e+01	-2.394939e-05
1.161536e+01	-2.422685e-05
1.168245e+01	-2.450752e-05
1.174992e+01	-2.479145e-05
1.181779e+01	-2.507866e-05
1.188605e+01	-2.536920e-05
1.195470e+01	-2.566311e-05
1.202375e+01	-2.596043e-05
1.209320e+01	-2.626118e-05
1.216305e+01	-2.656543e-05
1.223330e+01	-2.687319e-05
1.230396e+01	-2.718453e-05
1.237503e+01	-2.749946e-05
1.244651e+01	-2.781805e-05
1.251840e+01	-2.814033e-05
1.259070e+01	-2.846634e-05
1.266343e+01	-2.879613e-05
1.273657e+01	-2.912974e-05
1.281014e+01	-2.946722e-05
1.288413e+01	-2.980860e-05
1.295855e+01	-3.015394e-05
1.303339e+01	-3.050328e-05
1.310867e+01	-3.085667e-05
1.318439e+01	-3.121415e-05
1.326054e+01	-3.157578e-05
1.333713e+01	-3.194159e-05
1.341417e+01	-3.231164e-05
1.349165e+01	-3.268598e-05
1.356958e+01	-3.306465e-05
1.364795e+01	-3.344772e-05
1.372678e+01	-3.383522e-05
1.380607e+01	-3.422720e-05
1.388581e+01	-3.462373e-05
1.396602e+01	-3.502486e-05
1.404668e+01	-3.543063e-05
1.412782e+01	-3.584110e-05
1.420942e+01	-3.625633e-05
1.429149e+01	-3.667637e-05
1.437404e+01	-3.710127e-05
1.445706e+01	-3.753110e-05
1.454057e+01	-3.796590e-05
1.462455e+01	-3.840575e-05
1.470902e+01	-3.885069e-05
1.479398e+01	-3.930078e-05
1.487943e+01	-3.975609e-05
1.496537e+01	-4.021667e-05
1.505181e+01	-4.068259e-05
1.513875e+01	-4.115391e-05
1.522619e+01	-4.163069e-05
1.531414e+01	-4.211299e-05
1.540259e+01	-4.260088e-05
1.549156e+01	-4.309442e-05
1.558103e+01	-4.359368e-05
1.567103e+01	-4.409872e-05
1.576155e+01	-4.460961e-05
1.585258e+01	-4.512642e-05
1.594415e+01	-4.564922e-05
1.603624e+01	-4.617808e-05
1.612886e+01	-4.671306e-05
1.622202e+01	-4.725424e-05
1.631572e+01	-4.780169e-05
1.640996e+01	-4.835549e-05
1.650474e+01	-4.891569e-05
1.660008e+01	-4.948239e-05
1.669596e+01	-5.005566e-05
1.679239e+01	-5.063556e-05
1.688938e+01	-5.122219e-05
1.698694e+01	-5.181561e-05
1.708505e+01	-5.241590e-05
1.718373e+01	-5.302315e-05
1.728299e+01	-5.363743e-05
1.738281e+01	-5.425884e-05
1.748322e+01	-5.488744e-05
1.758420e+01	-5.552332e-05
1.768576e+01	-5.616657e-05
1.778792e+01	-5.681727e-05
1.789066e+01	-5.747551e-05
1.799399e+01	-5.814137e-05
1.809793e+01	-5.881495e-05
1.820246e+01	-5.949634e-05
1.830760e+01	-6.018561e-05
1.841334e+01	-6.088287e-05
1.851969e+01	-6.158821e-05
1.862666e+01	-6.230173e-05
1.873425e+01	-6.302350e-05
1.884246e+01	-6.375364e-05
1.895129e+01	-6.449224e-05
1.906075e+01	-6.523940e-05
1.917085e+01	-6.599521e-05
1.928158e+01	-6.675977e-05
1.939295e+01	-6.753320e-05
1.950496e+01	-6.831558e-05
1.961762e+01	-6.910703e-05
1.973093e+01	-6.990765e-05
1.984490e+01	-7.071754e-05
1.995952e+01	-7.153682e-05
2.007480e+01	-7.236559e-05
2.019076e+01	-7.320396e-05
2.030738e+01	-7.405204e-05
2.042467e+01	-7.490994e-05
2.054264e+01	-7.577779e-05
2.066130e+01	-7.665569e-05
2.078064e+01	-7.754376e-05
2.090066e+01	-7.844211e-05
2.102139e+01	-7.935088e-05
2.114280e+01	-8.027017e-05
2.126492e+01	-8.120012e-05
2.138775e+01	-8.214083e-05
2.151128e+01	-8.309245e-05
2.163553e+01	-8.405509e-05
2.176050e+01	-8.502888e-05
2.188619e+01	-8.601396e-05
2.201260e+01	-8.701044e-05
2.213974e+01	-8.801847e-05
2.226762e+01	-8.903818e-05
2.239624e+01	-9.006970e-05
2.252560e+01	-9.111317e-05
2.265571e+01	-9.216873e-05
2.278656e+01	-9.323652e-05
2.291818e+01	-9.431668e-05
2.305055e+01	-9.540936e-05
2.318369e+01	-9.651469e-05
2.331760e+01	-9.763282e-05
2.345228e+01	-9.876392e-05
2.358774e+01	-9.990811e-05
2.372398e+01	-1.010656e-04
2.386101e+01	-1.022364e-04
2.399883e+01	-1.034208e-04
2.413745e+01	-1.046190e-04
2.427686e+01	-1.058310e-04
2.441709e+01	-1.070571e-04
2.455812e+01	-1.082973e-04
2.469997e+01	-1.095520e-04
2.484263e+01	-1.108212e-04
2.498612e+01	-1.121050e-04
2.513044e+01	-1.134038e-04
2.527559e+01	-1.147176e-04
2.542158e+01	-1.160466e-04
2.556842e+01	-1.173910e-04
2.571610e+01	-1.187510e-04
2.586463e+01	-1.201268e-04
2.601403e+01	-1.215184e-04
2.616428e+01	-1.229262e-04
2.631541e+01	-1.243504e-04
2.646740e+01	-1.257910e-04
2.662028e+01	-1.272483e-04
2.677404e+01	-1.287225e-04
2.692868e+01	-1.302137e-04
2.708422e+01	-1.317223e-04
2.724066e+01	-1.332483e-04
2.739800e+01	-1.347920e-04
2.755625e+01	-1.363535e-04
2.771541e+01	-1.379332e-04
2.787550e+01	-1.395312e-04
2.803650e+01	-1.411477e-04
2.819844e+01	-1.427829e-04
2.836131e+01	-1.444370e-04
2.852513e+01	-1.461103e-04
2.868989e+01	-1.478030e-04
2.885560e+01	-1.495154e-04
2.902227e+01	-1.512475e-04
2.918990e+01	-1.529997e-04
2.935850e+01	-1.547722e-04
2.952807e+01	-1.565653e-04
2.969863e+01	-1.583791e-04
2.987016e+01	-1.602139e-04
3.004269e+01	-1.620700e-04
3.021622e+01	-1.639476e-04
3.039075e+01	-1.658469e-04
3.056628e+01	-1.677683e-04
3.074283e+01	-1.697119e-04
3.092040e+01	-1.716780e-04
3.109900e+01	-1.736669e-04
3.127862e+01	-1.756789e-04
3.145929e+01	-1.777141e-04
3.164099e+01	-1.797729e-04
3.182375e+01	-1.818556e-04
3.200756e+01	-1.839624e-04
3.219244e+01	-1.860936e-04
3.237838e+01	-1.882495e-04
3.256540e+01	-1.904304e-04
3.275349e+01	-1.926365e-04
3.294268e+01	-1.948682e-04
3.313295e+01	-1.971258e-04
3.332433e+01	-1.994095e-04
3.351681e+01	-2.017196e-04
3.371040e+01	-2.040566e-04
3.390511e+01	-2.064206e-04
3.410094e+01	-2.088119e-04
3.429791e+01	-2.112310e-04
3.449601e+01	-2.136781e-04
3.469526e+01	-2.161536e-04
3.489566e+01	-2.186577e-04
3.509721e+01	-2.211909e-04
3.529993e+01	-2.237534e-04
3.550382e+01	-2.263456e-04
3.570889e+01	-2.289678e-04
3.591515e+01	-2.316203e-04
3.612259e+01	-2.343037e-04
3.633123e+01	-2.370181e-04
3.654108e+01	-2.397639e-04
3.675214e+01	-2.425416e-04
3.696442e+01	-2.453514e-04
3.717792e+01	-2.481938e-04
3.739266e+01	-2.510691e-04
3.760864e+01	-2.539777e-04
3.782587e+01	-2.569200e-04
3.804435e+01	-2.598964e-04
3.826409e+01	-2.629073e-04
3.848510e+01	-2.659531e-04
3.870739e+01	-2.690341e-04
3.893096e+01	-2.721508e-04
3.915583e+01	-2.753037e-04
3.938199e+01	-2.784931e-04
3.960946e+01	-2.817194e-04
3.983824e+01	-2.849831e-04
4.006834e+01	-2.882846e-04
4.029978e+01	-2.916243e-04
4.053255e+01	-2.950027e-04
4.076666e+01	-2.984203e-04
4.100213e+01	-3.018775e-04
4.123896e+01	-3.053747e-04
4.147715e+01	-3.089124e-04
4.171672e+01	-3.124911e-04
4.195767e+01	-3.161113e-04
4.220002e+01	-3.197734e-04
4.244377e+01	-3.234779e-04
4.268892e+01	-3.272254e-04
4.293549e+01	-3.310162e-04
4.318348e+01	-3.348510e-04
4.343291e+01	-3.387302e-04
4.368377e+01	-3.426543e-04
4.393609e+01	-3.466239e-04
4.418986e+01	-3.506394e-04
4.444510e+01	-3.547015e-04
4.470182e+01	-3.588107e-04
4.496001e+01	-3.629674e-04
4.521970e+01	-3.671723e-04
4.548089e+01	-3.714259e-04
4.574358e+01	-3.757288e-04
4.600779e+01	-3.800816e-04
4.627353e+01	-3.844847e-04
4.654081e+01	-3.889389e-04
4.680963e+01	-3.934446e-04
4.708000e+01	-3.980026e-04
4.735193e+01	-4.026134e-04
4.762543e+01	-4.072775e-04
4.790051e+01	-4.119957e-04
4.817719e+01	-4.167686e-04
4.845545e+01	-4.215967e-04
4.873533e+01	-4.264808e-04
4.901682e+01	-4.314214e-04
4.929994e+01	-4.364193e-04
4.958470e+01	-4.414751e-04
4.987110e+01	-4.465895e-04
5.015915e+01	-4.517631e-04
5.044887e+01	-4.569966e-04
5.074026e+01	-4.622907e-04
5.103333e+01	-4.676462e-04
5.132810e+01	-4.730637e-04
5.162457e+01	-4.785440e-04
5.192275e+01	-4.840878e-04
5.222265e+01	-4.896957e-04
5.252429e+01	-4.953687e-04
5.282767e+01	-5.011073e-04
5.313280e+01	-5.069124e-04
5.343969e+01	-5.127848e-04
5.374836e+01	-5.187252e-04
5.405880e+01	-5.247344e-04
5.437105e+01	-5.308133e-04
5.468509e+01	-5.369625e-04
5.500095e+01	-5.431830e-04
5.531863e+01	-5.494755e-04
5.563815e+01	-5.558409e-04
5.595951e+01	-5.622801e-04
5.628273e+01	-5.687938e-04
5.660782e+01	-5.753830e-04
5.693479e+01	-5.820485e-04
5.726364e+01	-5.887913e-04
5.759439e+01	-5.956121e-04
5.792705e+01	-6.025120e-04
5.826164e+01	-6.094917e-04
5.859815e+01	-6.165524e-04
5.893662e+01	-6.236948e-04
5.927703e+01	-6.309199e-04
5.961941e+01	-6.382288e-04
5.996377e+01	-6.456223e-04
6.031012e+01	-6.531014e-04
6.065847e+01	-6.606672e-04
6.100883e+01	-6.683206e-04
6.136121e+01	-6.760627e-04
6.171563e+01	-6.838945e-04
6.207210e+01	-6.918169e-04
6.243063e+01	-6.998312e-04
6.279122e+01	-7.079383e-04
6.315390e+01	-7.161392e-04
6.351868e+01	-7.244352e-04
6.388556e+01	-7.328273e-04
6.425456e+01	-7.413166e-04
6.462569e+01	-7.499042e-04
6.499897e+01	-7.585913e-04
6.537440e+01	-7.673790e-04
6.575200e+01	-7.762685e-04
6.613178e+01	-7.852610e-04
6.651375e+01	-7.943576e-04
6.689793e+01	-8.035596e-04
6.728433e+01	-8.128682e-04
6.767297e+01	-8.222846e-04
6.806384e+01	-8.318101e-04
6.845698e+01	-8.414459e-04
6.885238e+01	-8.511933e-04
6.925007e+01	-8.610536e-04
6.965005e+01	-8.710282e-04
7.005235e+01	-8.811183e-04
7.045697e+01	-8.913252e-04
7.086393e+01	-9.016504e-04
7.127323e+01	-9.120952e-04
7.168490e+01	-9.226609e-04
7.209895e+01	-9.333490e-04
7.251539e+01	-9.441610e-04
7.293424e+01	-9.550981e-04
7.335551e+01	-9.661620e-04
7.377920e+01	-9.773540e-04
7.420535e+01	-9.886756e-04
7.463396e+01	-1.000128e-03
7.506504e+01	-1.011714e-03
7.549861e+01	-1.023433e-03
7.593469e+01	-1.035289e-03
7.637328e+01	-1.047281e-03
7.681441e+01	-1.059413e-03
7.725809e+01	-1.071685e-03
7.770433e+01	-1.084099e-03
7.815315e+01	-1.096657e-03
7.860456e+01	-1.109361e-03
7.905857e+01	-1.122211e-03
7.951521e+01	-1.135211e-03
7.997449e+01	-1.148361e-03
8.043642e+01	-1.161663e-03
8.090102e+01	-1.175119e-03
8.136830e+01	-1.188731e-03
8.183828e+01	-1.202501e-03
8.231097e+01	-1.216431e-03
8.278640e+01	-1.230521e-03
8.326457e+01	-1.244775e-03
8.374550e+01	-1.259194e-03
8.422921e+01	-1.273780e-03
8.471572e+01	-1.288535e-03
8.520503e+01	-1.303461e-03
8.569717e+01	-1.318560e-03
8.619215e+01	-1.333833e-03
8.669000e+01	-1.349284e-03
8.719071e+01	-1.364913e-03
8.769432e+01	-1.380723e-03
8.820084e+01	-1.396717e-03
8.871029e+01	-1.412895e-03
8.922267e+01	-1.429262e-03
8.973802e+01	-1.445817e-03
9.025634e+01	-1.462564e-03
9.077766e+01	-1.479506e-03
9.130199e+01	-1.496643e-03
9.182935e+01	-1.513979e-03
9.235975e+01	-1.531516e-03
9.289321e+01	-1.549256e-03
9.342976e+01	-1.567201e-03
9.396941e+01	-1.585354e-03
9.451217e+01	-1.603718e-03
9.505807e+01	-1.622294e-03
9.560712e+01	-1.641085e-03
9.615934e+01	-1.660094e-03
9.671476e+01	-1.679323e-03
9.727338e+01	-1.698774e-03
9.783522e+01	-1.718451e-03
9.840032e+01	-1.738356e-03
9.896867e+01	-1.758491e-03
9.954031e+01	-1.778859e-03
1.001153e+02	-1.799464e-03
1.006935e+02	-1.820307e-03
1.012751e+02	-1.841391e-03
1.018601e+02	-1.862719e-03
1.024484e+02	-1.884295e-03
1.030402e+02	-1.906120e-03
1.036353e+02	-1.928198e-03
1.042339e+02	-1.950532e-03
1.048360e+02	-1.973124e-03
1.054415e+02	-1.995978e-03
1.060505e+02	-2.019097e-03
1.066631e+02	-2.042483e-03
1.072791e+02	-2.066140e-03
1.078988e+02	-2.090071e-03
1.085220e+02	-2.114279e-03
1.091488e+02	-2.138767e-03
1.097793e+02	-2.163539e-03
1.104133e+02	-2.188598e-03
1.110511e+02	-2.213947e-03
1.116925e+02	-2.239590e-03
1.123376e+02	-2.265529e-03
1.129865e+02	-2.291769e-03
1.136391e+02	-2.318313e-03
1.142955e+02	-2.345164e-03
1.149556e+02	-2.372326e-03
1.156196e+02	-2.399802e-03
1.162874e+02	-2.427597e-03
1.169591e+02	-2.455713e-03
1.176347e+02	-2.484155e-03
1.183141e+02	-2.512926e-03
1.189975e+02	-2.542031e-03
1.196848e+02	-2.571472e-03
1.203761e+02	-2.601254e-03
1.210714e+02	-2.631382e-03
1.217707e+02	-2.661857e-03
1.224740e+02	-2.692686e-03
1.231814e+02	-2.723872e-03
1.238929e+02	-2.755419e-03
1.246085e+02	-2.787331e-03
1.253283e+02	-2.819612e-03
1.260522e+02	-2.852267e-03
1.267802e+02	-2.885301e-03
1.275125e+02	-2.918716e-03
1.282490e+02	-2.952519e-03
1.289898e+02	-2.986713e-03
1.297348e+02	-3.021303e-03
1.304842e+02	-3.056293e-03
1.312378e+02	-3.091688e-03
1.319959e+02	-3.127493e-03
1.327583e+02	-3.163713e-03
1.335251e+02	-3.200352e-03
1.342963e+02	-3.237415e-03
1.350720e+02	-3.274907e-03
1.358522e+02	-3.312833e-03
1.366368e+02	-3.351199e-03
1.374260e+02	-3.390008e-03
1.382198e+02	-3.429266e-03
1.390182e+02	-3.468980e-03
1.398211e+02	-3.509152e-03
1.406287e+02	-3.549790e-03
1.414410e+02	-3.590898e-03
1.422579e+02	-3.632482e-03
1.430796e+02	-3.674548e-03
1.439060e+02	-3.717100e-03
1.447372e+02	-3.760145e-03
1.455732e+02	-3.803688e-03
1.464141e+02	-3.847735e-03
1.472597e+02	-3.892292e-03
1.481103e+02	-3.937365e-03
1.489658e+02	-3.982960e-03
1.498262e+02	-4.029082e-03
1.506916e+02	-4.075738e-03
1.515620e+02	-4.122934e-03
1.524374e+02	-4.170676e-03
1.533179e+02	-4.218971e-03
1.542034e+02	-4.267825e-03
1.550941e+02	-4.317244e-03
1.559899e+02	-4.367235e-03
1.568909e+02	-4.417805e-03
1.577971e+02	-4.468960e-03
1.587085e+02	-4.520707e-03
1.596252e+02	-4.573053e-03
1.605472e+02	-4.626005e-03
1.614745e+02	-4.679570e-03
1.624072e+02	-4.733754e-03
1.633453e+02	-4.788565e-03
1.642887e+02	-4.844011e-03
1.652377e+02	-4.900099e-03
1.661921e+02	-4.956835e-03
1.671520e+02	-5.014228e-03
1.681175e+02	-5.072285e-03
1.690885e+02	-5.131014e-03
1.700651e+02	-5.190423e-03
1.710474e+02	-5.250519e-03
1.720354e+02	-5.311310e-03
1.730291e+02	-5.372805e-03
1.740285e+02	-5.435011e-03
1.750337e+02	-5.497937e-03
1.760446e+02	-5.561591e-03
1.770615e+02	-5.625982e-03
1.780842e+02	-5.691118e-03
1.791128e+02	-5.757007e-03
1.801473e+02	-5.823658e-03
1.811878e+02	-5.891081e-03
1.822344e+02	-5.959284e-03
1.832870e+02	-6.028276e-03
1.843456e+02	-6.098066e-03
1.854104e+02	-6.168663e-03
1.864813e+02	-6.240077e-03
1.875584e+02	-6.312318e-03
1.886418e+02	-6.385393e-03
1.897313e+02	-6.459315e-03
1.908272e+02	-6.534091e-03
1.919294e+02	-6.609733e-03
1.930380e+02	-6.686249e-03
1.941530e+02	-6.763650e-03
1.952744e+02	-6.841947e-03
1.964023e+02	-6.921149e-03
1.975367e+02	-7.001268e-03
1.986777e+02	-7.082313e-03
1.998252e+02	-7.164296e-03
2.009794e+02	-7.247227e-03
2.021403e+02	-7.331116e-03
2.033078e+02	-7.415977e-03
2.044821e+02	-7.501818e-03
2.056632e+02	-7.588653e-03
2.068511e+02	-7.676491e-03
2.080459e+02	-7.765346e-03
2.092475e+02	-7.855228e-03
2.104561e+02	-7.946149e-03
2.116717e+02	-8.038122e-03
2.128943e+02	-8.131158e-03
2.141240e+02	-8.225270e-03
2.153608e+02	-8.320470e-03
2.166047e+02	-8.416772e-03
2.178558e+02	-8.514186e-03
2.191141e+02	-8.612727e-03
2.203797e+02	-8.712407e-03
2.216526e+02	-8.813240e-03
2.229329e+02	-8.915239e-03
2.242205e+02	-9.018417e-03
2.255156e+02	-9.122787e-03
2.268182e+02	-9.228364e-03
2.281283e+02	-9.335162e-03
2.294459e+02	-9.443194e-03
2.307712e+02	-9.552476e-03
2.321041e+02	-9.663020e-03
2.334447e+02	-9.774842e-03
2.347931e+02	-9.887957e-03
2.361493e+02	-1.000238e-02
2.375133e+02	-1.011812e-02
2.388851e+02	-1.023521e-02
2.402649e+02	-1.035364e-02
2.416527e+02	-1.047345e-02
2.430484e+02	-1.059464e-02
2.444523e+02	-1.071723e-02
2.458642e+02	-1.084123e-02
2.472843e+02	-1.096667e-02
2.487126e+02	-1.109356e-02
2.501492e+02	-1.122192e-02
2.515940e+02	-1.135175e-02
2.530472e+02	-1.148309e-02
2.545088e+02	-1.161595e-02
2.559789e+02	-1.175034e-02
2.574574e+02	-1.188628e-02
2.589444e+02	-1.202380e-02
2.604401e+02	-1.216290e-02
2.619444e+02	-1.230361e-02
2.634574e+02	-1.244595e-02
2.649791e+02	-1.258993e-02
2.665096e+02	-1.273557e-02
2.680489e+02	-1.288289e-02
2.695972e+02	-1.303192e-02
2.711544e+02	-1.318267e-02
2.727205e+02	-1.333516e-02
2.742958e+02	-1.348941e-02
2.758801e+02	-1.364544e-02
2.774736e+02	-1.380328e-02
2.790762e+02	-1.396293e-02
2.806882e+02	-1.412443e-02
2.823094e+02	-1.428780e-02
2.839400e+02	-1.445305e-02
2.855800e+02	-1.462021e-02
2.872295e+02	-1.478930e-02
2.888886e+02	-1.496034e-02
2.905572e+02	-1.513336e-02
2.922354e+02	-1.530837e-02
2.939234e+02	-1.548541e-02
2.956211e+02	-1.566448e-02
2.973286e+02	-1.584563e-02
2.990459e+02	-1.602886e-02
3.007732e+02	-1.621421e-02
3.025104e+02	-1.640170e-02
3.042577e+02	-1.659136e-02
3.060151e+02	-1.678320e-02
3.077826e+02	-1.697726e-02
3.095604e+02	-1.717355e-02
3.113484e+02	-1.737211e-02
3.131467e+02	-1.757297e-02
3.149554e+02	-1.777614e-02
3.167746e+02	-1.798165e-02
3.186043e+02	-1.818953e-02
3.204445e+02	-1.839982e-02
3.222954e+02	-1.861252e-02
3.241570e+02	-1.882769e-02
3.260293e+02	-1.904533e-02
3.279124e+02	-1.926548e-02
3.298064e+02	-1.948818e-02
3.317114e+02	-1.971344e-02
3.336273e+02	-1.994130e-02
3.355544e+02	-2.017179e-02
3.374925e+02	-2.040493e-02
3.394418e+02	-2.064076e-02
3.414024e+02	-2.087931e-02
3.433744e+02	-2.112062e-02
3.453577e+02	-2.136470e-02
3.473525e+02	-2.161160e-02
3.493588e+02	-2.186134e-02
3.513766e+02	-2.211397e-02
3.534062e+02	-2.236950e-02
3.554474e+02	-2.262798e-02
3.575005e+02	-2.288944e-02
3.595654e+02	-2.315391e-02
3.616422e+02	-2.342143e-02
3.637311e+02	-2.369203e-02
3.658320e+02	-2.396575e-02
3.679450e+02	-2.424262e-02
3.700702e+02	-2.452268e-02
3.722077e+02	-2.480597e-02
3.743576e+02	-2.509252e-02
3.765199e+02	-2.538237e-02
3.786946e+02	-2.567556e-02
3.808820e+02	-2.597213e-02
3.830819e+02	-2.627211e-02
3.852946e+02	-2.657554e-02
3.875200e+02	-2.688247e-02
3.897583e+02	-2.719293e-02
3.920096e+02	-2.750697e-02
3.942738e+02	-2.782462e-02
3.965511e+02	-2.814593e-02
3.988416e+02	-2.847094e-02
4.011452e+02	-2.879968e-02
4.034622e+02	-2.913221e-02
4.057926e+02	-2.946857e-02
4.081365e+02	-2.980880e-02
4.104938e+02	-3.015294e-02
4.128648e+02	-3.050104e-02
4.152495e+02	-3.085314e-02
4.176480e+02	-3.120929e-02
4.200603e+02	-3.156954e-02
4.224866e+02	-3.193394e-02
4.249268e+02	-3.230252e-02
4.273812e+02	-3.267534e-02
4.298497e+02	-3.305245e-02
4.323325e+02	-3.343389e-02
4.348297e+02	-3.381972e-02
4.373412e+02	-3.420999e-02
4.398673e+02	-3.460473e-02
4.424079e+02	-3.500402e-02
4.449633e+02	-3.540789e-02
4.475334e+02	-3.581641e-02
4.501183e+02	-3.622962e-02
4.527182e+02	-3.664757e-02
4.553330e+02	-3.707033e-02
4.579630e+02	-3.749794e-02
4.606082e+02	-3.793046e-02
4.632687e+02	-3.836795e-02
4.659445e+02	-3.881046e-02
4.686358e+02	-3.925805e-02
4.713426e+02	-3.971078e-02
4.740650e+02	-4.016871e-02
4.768032e+02	-4.063190e-02
4.795572e+02	-4.110040e-02
4.823271e+02	-4.157427e-02
4.851130e+02	-4.205358e-02
4.879150e+02	-4.253839e-02
4.907332e+02	-4.302877e-02
4.935676e+02	-4.352476e-02
4.964185e+02	-4.402645e-02
4.992858e+02	-4.453389e-02
5.021696e+02	-4.504714e-02
5.050701e+02	-4.556628e-02
5.079874e+02	-4.609138e-02
5.109215e+02	-4.662249e-02
5.138726e+02	-4.715968e-02
5.168407e+02	-4.770303e-02
5.198259e+02	-4.825261e-02
5.228284e+02	-4.880848e-02
5.258482e+02	-4.937072e-02
5.288855e+02	-4.993940e-02
5.319403e+02	-5.051460e-02
5.350128e+02	-5.109637e-02
5.381030e+02	-5.168481e-02
5.412111e+02	-5.227999e-02
5.443371e+02	-5.288197e-02
5.474812e+02	-5.349085e-02
5.506434e+02	-5.410669e-02
5.538239e+02	-5.472957e-02
5.570228e+02	-5.535958e-02
5.602401e+02	-5.599680e-02
5.634760e+02	-5.664130e-02
5.667306e+02	-5.729318e-02
5.700040e+02	-5.795250e-02
5.732964e+02	-5.861936e-02
5.766077e+02	-5.929384e-02
5.799382e+02	-5.997603e-02
5.832879e+02	-6.066601e-02
5.866569e+02	-6.136388e-02
5.900454e+02	-6.206971e-02
5.934535e+02	-6.278360e-02
5.968813e+02	-6.350565e-02
6.003288e+02	-6.423593e-02
6.037963e+02	-6.497456e-02
6.072838e+02	-6.572161e-02
6.107914e+02	-6.647718e-02
6.143194e+02	-6.724137e-02
6.178676e+02	-6.801428e-02
6.214364e+02	-6.879600e-02
6.250258e+02	-6.958664e-02
6.286359e+02	-7.038628e-02
6.322669e+02	-7.119504e-02
6.359189e+02	-7.201302e-02
6.395919e+02	-7.284032e-02
6.432862e+02	-7.367703e-02
6.470017e+02	-7.452328e-02
6.507388e+02	-7.537916e-02
6.544974e+02	-7.624479e-02
6.582778e+02	-7.712027e-02
6.620800e+02	-7.800571e-02
6.659041e+02	-7.890122e-02
6.697504e+02	-7.980692e-02
6.736188e+02	-8.072292e-02
6.775096e+02	-8.164933e-02
6.814229e+02	-8.258627e-02
6.853587e+02	-8.353386e-02
6.893173e+02	-8.449222e-02
6.932988e+02	-8.546147e-02
6.973033e+02	-8.644172e-02
7.013309e+02	-8.743310e-02
