Frequency(Hz)	Magnitude(dB)
1.000000e+01	-2.338280e+00
1.005776e+01	-2.359399e+00
1.011585e+01	-2.380332e+00
1.017428e+01	-2.401542e+00
1.023305e+01	-2.422915e+00
1.029215e+01	-2.444251e+00
1.035160e+01	-2.466060e+00
1.041139e+01	-2.487850e+00
1.047153e+01	-2.509593e+00
1.053201e+01	-2.531587e+00
1.059284e+01	-2.553663e+00
1.065403e+01	-2.576111e+00
1.071556e+01	-2.598639e+00
1.077746e+01	-2.621349e+00
1.083971e+01	-2.644362e+00
1.090232e+01	-2.666846e+00
1.096529e+01	-2.689705e+00
1.102862e+01	-2.713234e+00
1.109232e+01	-2.736416e+00
1.115639e+01	-2.759722e+00
1.122083e+01	-2.783361e+00
1.128564e+01	-2.807070e+00
1.135083e+01	-2.830909e+00
1.141639e+01	-2.854988e+00
1.148233e+01	-2.879130e+00
1.154865e+01	-2.903353e+00
1.161536e+01	-2.927964e+00
1.168245e+01	-2.952622e+00
1.174992e+01	-2.977358e+00
1.181779e+01	-3.002245e+00
1.188605e+01	-3.027295e+00
1.195470e+01	-3.052303e+00
1.202375e+01	-3.077562e+00
1.209320e+01	-3.103142e+00
1.216305e+01	-3.129064e+00
1.223330e+01	-3.154779e+00
1.230396e+01	-3.180457e+00
1.237503e+01	-3.206459e+00
1.244651e+01	-3.232862e+00
1.251840e+01	-3.258911e+00
1.259070e+01	-3.285465e+00
1.266343e+01	-3.312277e+00
1.273657e+01	-3.338976e+00
1.281014e+01	-3.365914e+00
1.288413e+01	-3.393022e+00
1.295855e+01	-3.419931e+00
1.303339e+01	-3.447362e+00
1.310867e+01	-3.474570e+00
1.318439e+01	-3.502034e+00
1.326054e+01	-3.530367e+00
1.333713e+01	-3.558145e+00
1.341417e+01	-3.586347e+00
1.349165e+01	-3.614334e+00
1.356958e+01	-3.642781e+00
1.364795e+01	-3.671182e+00
1.372678e+01	-3.699787e+00
1.380607e+01	-3.728595e+00
1.388581e+01	-3.757637e+00
1.396602e+01	-3.786439e+00
1.404668e+01	-3.815871e+00
1.412782e+01	-3.845028e+00
1.420942e+01	-3.874471e+00
1.429149e+01	-3.903883e+00
1.437404e+01	-3.934174e+00
1.445706e+01	-3.963704e+00
1.454057e+01	-3.993684e+00
1.462455e+01	-4.023687e+00
1.470902e+01	-4.054096e+00
1.479398e+01	-4.084644e+00
1.487943e+01	-4.115103e+00
1.496537e+01	-4.145996e+00
1.505181e+01	-4.176650e+00
1.513875e+01	-4.207426e+00
1.522619e+01	-4.238784e+00
1.531414e+01	-4.269867e+00
1.540259e+01	-4.301353e+00
1.549156e+01	-4.332847e+00
1.558103e+01	-4.364493e+00
1.567103e+01	-4.396573e+00
1.576155e+01	-4.427933e+00
1.585258e+01	-4.460017e+00
1.594415e+01	-4.492412e+00
1.603624e+01	-4.524677e+00
1.612886e+01	-4.557110e+00
1.622202e+01	-4.589732e+00
1.631572e+01	-4.622251e+00
1.640996e+01	-4.655433e+00
1.650474e+01	-4.688096e+00
1.660008e+01	-4.721255e+00
1.669596e+01	-4.754819e+00
1.679239e+01	-4.788020e+00
1.688938e+01	-4.821387e+00
1.698694e+01	-4.855202e+00
1.708505e+01	-4.888482e+00
1.718373e+01	-4.922429e+00
1.728299e+01	-4.956677e+00
1.738281e+01	-4.990731e+00
1.748322e+01	-5.024997e+00
1.758420e+01	-5.059259e+00
1.768576e+01	-5.093942e+00
1.778792e+01	-5.128340e+00
1.789066e+01	-5.163297e+00
1.799399e+01	-5.198174e+00
1.809793e+01	-5.232680e+00
1.820246e+01	-5.268086e+00
1.830760e+01	-5.303216e+00
1.841334e+01	-5.338361e+00
1.851969e+01	-5.374118e+00
1.862666e+01	-5.409614e+00
1.873425e+01	-5.445407e+00
1.884246e+01	-5.480938e+00
1.895129e+01	-5.516809e+00
1.906075e+01	-5.552875e+00
1.917085e+01	-5.589315e+00
1.928158e+01	-5.625355e+00
1.939295e+01	-5.662239e+00
1.950496e+01	-5.698420e+00
1.961762e+01	-5.735039e+00
1.973093e+01	-5.771501e+00
1.984490e+01	-5.808443e+00
1.995952e+01	-5.845513e+00
2.007480e+01	-5.882678e+00
2.019076e+01	-5.919444e+00
2.030738e+01	-5.957258e+00
2.042467e+01	-5.994388e+00
2.054264e+01	-6.032008e+00
2.066130e+01	-6.069645e+00
2.078064e+01	-6.106781e+00
2.090066e+01	-6.145312e+00
2.102139e+01	-6.183032e+00
2.114280e+01	-6.221020e+00
2.126492e+01	-6.259153e+00
2.138775e+01	-6.297225e+00
2.151128e+01	-6.335844e+00
2.163553e+01	-6.374121e+00
2.176050e+01	-6.412757e+00
2.188619e+01	-6.451372e+00
2.201260e+01	-6.489710e+00
2.213974e+01	-6.529263e+00
2.226762e+01	-6.568058e+00
2.239624e+01	-6.607164e+00
2.252560e+01	-6.646053e+00
2.265571e+01	-6.685148e+00
2.278656e+01	-6.724291e+00
2.291818e+01	-6.764305e+00
2.305055e+01	-6.803610e+00
2.318369e+01	-6.843007e+00
2.331760e+01	-6.883024e+00
2.345228e+01	-6.922853e+00
2.358774e+01	-6.962699e+00
2.372398e+01	-7.003096e+00
2.386101e+01	-7.042700e+00
2.399883e+01	-7.082842e+00
2.413745e+01	-7.123453e+00
2.427686e+01	-7.164015e+00
2.441709e+01	-7.204276e+00
2.455812e+01	-7.244900e+00
2.469997e+01	-7.285125e+00
2.484263e+01	-7.326140e+00
2.498612e+01	-7.367111e+00
2.513044e+01	-7.407626e+00
2.527559e+01	-7.448388e+00
2.542158e+01	-7.489368e+00
2.556842e+01	-7.530887e+00
2.571610e+01	-7.572033e+00
2.586463e+01	-7.613509e+00
2.601403e+01	-7.655052e+00
2.616428e+01	-7.696616e+00
2.631541e+01	-7.737916e+00
2.646740e+01	-7.779247e+00
2.662028e+01	-7.821271e+00
2.677404e+01	-7.862845e+00
2.692868e+01	-7.904759e+00
2.708422e+01	-7.946776e+00
2.724066e+01	-7.989004e+00
2.739800e+01	-8.030733e+00
2.755625e+01	-8.073298e+00
2.771541e+01	-8.115350e+00
2.787550e+01	-8.157543e+00
2.803650e+01	-8.200378e+00
2.819844e+01	-8.242776e+00
2.836131e+01	-8.285147e+00
2.852513e+01	-8.327837e+00
2.868989e+01	-8.370721e+00
2.885560e+01	-8.413603e+00
2.902227e+01	-8.456487e+00
2.918990e+01	-8.499044e+00
2.935850e+01	-8.542455e+00
2.952807e+01	-8.585464e+00
2.969863e+01	-8.628469e+00
2.987016e+01	-8.671915e+00
3.004269e+01	-8.715460e+00
3.021622e+01	-8.758400e+00
3.039075e+01	-8.801231e+00
3.056628e+01	-8.845148e+00
3.074283e+01	-8.888580e+00
3.092040e+01	-8.932088e+00
3.109900e+01	-8.975658e+00
3.127862e+01	-9.020149e+00
3.145929e+01	-9.063694e+00
3.164099e+01	-9.107405e+00
3.182375e+01	-9.150894e+00
3.200756e+01	-9.195509e+00
3.219244e+01	-9.238913e+00
3.237838e+01	-9.283119e+00
3.256540e+01	-9.327290e+00
3.275349e+01	-9.371225e+00
3.294268e+01	-9.416299e+00
3.313295e+01	-9.460415e+00
3.332433e+01	-9.504964e+00
3.351681e+01	-9.549284e+00
3.371040e+01	-9.593202e+00
3.390511e+01	-9.637962e+00
3.410094e+01	-9.683005e+00
3.429791e+01	-9.726831e+00
3.449601e+01	-9.772278e+00
3.469526e+01	-9.816567e+00
3.489566e+01	-9.861781e+00
3.509721e+01	-9.907183e+00
3.529993e+01	-9.951528e+00
3.550382e+01	-9.996865e+00
3.570889e+01	-1.004192e+01
3.591515e+01	-1.008706e+01
3.612259e+01	-1.013195e+01
3.633123e+01	-1.017641e+01
3.654108e+01	-1.022220e+01
3.675214e+01	-1.026777e+01
3.696442e+01	-1.031346e+01
3.717792e+01	-1.035869e+01
3.739266e+01	-1.040409e+01
3.760864e+01	-1.044958e+01
3.782587e+01	-1.049521e+01
3.804435e+01	-1.054049e+01
3.826409e+01	-1.058602e+01
3.848510e+01	-1.063176e+01
3.870739e+01	-1.067744e+01
3.893096e+01	-1.072351e+01
3.915583e+01	-1.076942e+01
3.938199e+01	-1.081474e+01
3.960946e+01	-1.086121e+01
3.983824e+01	-1.090662e+01
4.006834e+01	-1.095279e+01
4.029978e+01	-1.099879e+01
4.053255e+01	-1.104456e+01
4.076666e+01	-1.109080e+01
4.100213e+01	-1.113689e+01
4.123896e+01	-1.118331e+01
4.147715e+01	-1.122948e+01
4.171672e+01	-1.127555e+01
4.195767e+01	-1.132175e+01
4.220002e+01	-1.136818e+01
4.244377e+01	-1.141477e+01
4.268892e+01	-1.146147e+01
4.293549e+01	-1.150815e+01
4.318348e+01	-1.155432e+01
4.343291e+01	-1.160079e+01
4.368377e+01	-1.164748e+01
4.393609e+01	-1.169457e+01
4.418986e+01	-1.174095e+01
4.444510e+01	-1.178797e+01
4.470182e+01	-1.183432e+01
4.496001e+01	-1.188140e+01
4.521970e+01	-1.192752e+01
4.548089e+01	-1.197545e+01
4.574358e+01	-1.202138e+01
4.600779e+01	-1.206869e+01
4.627353e+01	-1.211524e+01
4.654081e+01	-1.216203e+01
4.680963e+01	-1.220862e+01
4.708000e+01	-1.225602e+01
4.735193e+01	-1.230332e+01
4.762543e+01	-1.235031e+01
4.790051e+01	-1.239761e+01
4.817719e+01	-1.244507e+01
4.845545e+01	-1.249143e+01
4.873533e+01	-1.253865e+01
4.901682e+01	-1.258567e+01
4.929994e+01	-1.263398e+01
4.958470e+01	-1.268022e+01
4.987110e+01	-1.272873e+01
5.015915e+01	-1.277557e+01
5.044887e+01	-1.282310e+01
5.074026e+01	-1.287018e+01
5.103333e+01	-1.291768e+01
5.132810e+01	-1.296523e+01
5.162457e+01	-1.301287e+01
5.192275e+01	-1.306048e+01
5.222265e+01	-1.310790e+01
5.252429e+01	-1.315538e+01
5.282767e+01	-1.320304e+01
5.313280e+01	-1.325060e+01
5.343969e+01	-1.329877e+01
5.374836e+01	-1.334703e+01
5.405880e+01	-1.339422e+01
5.437105e+01	-1.344162e+01
5.468509e+01	-1.348948e+01
5.500095e+01	-1.353786e+01
5.531863e+01	-1.358512e+01
5.563815e+01	-1.363317e+01
5.595951e+01	-1.368072e+01
5.628273e+01	-1.372937e+01
5.660782e+01	-1.377577e+01
5.693479e+01	-1.382467e+01
5.726364e+01	-1.387260e+01
5.759439e+01	-1.392042e+01
5.792705e+01	-1.396910e+01
5.826164e+01	-1.401680e+01
5.859815e+01	-1.406425e+01
5.893662e+01	-1.411308e+01
5.927703e+01	-1.416102e+01
5.961941e+01	-1.420848e+01
5.996377e+01	-1.425778e+01
6.031012e+01	-1.430519e+01
6.065847e+01	-1.435428e+01
6.100883e+01	-1.440221e+01
6.136121e+01	-1.444961e+01
6.171563e+01	-1.449833e+01
6.207210e+01	-1.454619e+01
6.243063e+01	-1.459499e+01
6.279122e+01	-1.464279e+01
6.315390e+01	-1.469034e+01
6.351868e+01	-1.473972e+01
6.388556e+01	-1.478829e+01
6.425456e+01	-1.483654e+01
6.462569e+01	-1.488505e+01
6.499897e+01	-1.493233e+01
6.537440e+01	-1.498109e+01
6.575200e+01	-1.503027e+01
6.613178e+01	-1.507824e+01
6.651375e+01	-1.512825e+01
6.689793e+01	-1.517618e+01
6.728433e+01	-1.522402e+01
6.767297e+01	-1.527219e+01
6.806384e+01	-1.532056e+01
6.845698e+01	-1.536937e+01
6.885238e+01	-1.541847e+01
6.925007e+01	-1.546673e+01
6.965005e+01	-1.551594e+01
7.005235e+01	-1.556436e+01
7.045697e+01	-1.561276e+01
7.086393e+01	-1.566255e+01
7.127323e+01	-1.570955e+01
7.168490e+01	-1.575887e+01
7.209895e+01	-1.580797e+01
7.251539e+01	-1.585799e+01
7.293424e+01	-1.590467e+01
7.335551e+01	-1.595333e+01
7.377920e+01	-1.600194e+01
7.420535e+01	-1.605190e+01
7.463396e+01	-1.610019e+01
7.506504e+01	-1.614864e+01
7.549861e+01	-1.619764e+01
7.593469e+01	-1.624831e+01
7.637328e+01	-1.629568e+01
7.681441e+01	-1.634394e+01
7.725809e+01	-1.639477e+01
7.770433e+01	-1.644239e+01
7.815315e+01	-1.649056e+01
7.860456e+01	-1.654015e+01
7.905857e+01	-1.658991e+01
7.951521e+01	-1.663708e+01
7.997449e+01	-1.668742e+01
8.043642e+01	-1.673491e+01
8.090102e+01	-1.678556e+01
8.136830e+01	-1.683341e+01
8.183828e+01	-1.688233e+01
8.231097e+01	-1.693271e+01
8.278640e+01	-1.698015e+01
8.326457e+01	-1.703027e+01
8.374550e+01	-1.707868e+01
8.422921e+01	-1.712801e+01
8.471572e+01	-1.717643e+01
8.520503e+01	-1.722568e+01
8.569717e+01	-1.727470e+01
8.619215e+01	-1.732360e+01
8.669000e+01	-1.737339e+01
8.719071e+01	-1.742134e+01
8.769432e+01	-1.747191e+01
8.820084e+01	-1.751964e+01
8.871029e+01	-1.756945e+01
8.922267e+01	-1.761928e+01
8.973802e+01	-1.766816e+01
9.025634e+01	-1.771692e+01
9.077766e+01	-1.776640e+01
9.130199e+01	-1.781524e+01
9.182935e+01	-1.786449e+01
9.235975e+01	-1.791347e+01
9.289321e+01	-1.796395e+01
9.342976e+01	-1.801194e+01
9.396941e+01	-1.806137e+01
9.451217e+01	-1.811071e+01
9.505807e+01	-1.816028e+01
9.560712e+01	-1.820955e+01
9.615934e+01	-1.825905e+01
9.671476e+01	-1.830712e+01
9.727338e+01	-1.835734e+01
9.783522e+01	-1.840621e+01
9.840032e+01	-1.845660e+01
9.896867e+01	-1.850581e+01
9.954031e+01	-1.855475e+01
1.001153e+02	-1.860429e+01
1.006935e+02	-1.865287e+01
1.012751e+02	-1.870297e+01
1.018601e+02	-1.875202e+01
1.024484e+02	-1.880145e+01
1.030402e+02	-1.884995e+01
1.036353e+02	-1.890082e+01
1.042339e+02	-1.894889e+01
1.048360e+02	-1.899795e+01
1.054415e+02	-1.904839e+01
1.060505e+02	-1.909832e+01
1.066631e+02	-1.914600e+01
1.072791e+02	-1.919587e+01
1.078988e+02	-1.924593e+01
1.085220e+02	-1.929644e+01
1.091488e+02	-1.934544e+01
1.097793e+02	-1.939534e+01
1.104133e+02	-1.944456e+01
1.110511e+02	-1.949434e+01
1.116925e+02	-1.954405e+01
1.123376e+02	-1.959201e+01
1.129865e+02	-1.964063e+01
1.136391e+02	-1.969241e+01
1.142955e+02	-1.974080e+01
1.149556e+02	-1.978994e+01
1.156196e+02	-1.984037e+01
1.162874e+02	-1.989048e+01
1.169591e+02	-1.993811e+01
1.176347e+02	-1.998842e+01
1.183141e+02	-2.003815e+01
1.189975e+02	-2.008827e+01
1.196848e+02	-2.013630e+01
1.203761e+02	-2.018587e+01
1.210714e+02	-2.023698e+01
1.217707e+02	-2.028525e+01
1.224740e+02	-2.033509e+01
1.231814e+02	-2.038416e+01
1.238929e+02	-2.043418e+01
1.246085e+02	-2.048503e+01
1.253283e+02	-2.053239e+01
1.260522e+02	-2.058348e+01
1.267802e+02	-2.063328e+01
1.275125e+02	-2.068240e+01
1.282490e+02	-2.073176e+01
1.289898e+02	-2.078179e+01
1.297348e+02	-2.083181e+01
1.304842e+02	-2.088079e+01
1.312378e+02	-2.093148e+01
1.319959e+02	-2.097967e+01
1.327583e+02	-2.103117e+01
1.335251e+02	-2.108117e+01
1.342963e+02	-2.113080e+01
1.350720e+02	-2.117951e+01
1.358522e+02	-2.122753e+01
1.366368e+02	-2.127972e+01
1.374260e+02	-2.132869e+01
1.382198e+02	-2.137967e+01
1.390182e+02	-2.142727e+01
1.398211e+02	-2.147699e+01
1.406287e+02	-2.152622e+01
1.414410e+02	-2.157681e+01
1.422579e+02	-2.162695e+01
1.430796e+02	-2.167630e+01
1.439060e+02	-2.172639e+01
1.447372e+02	-2.177455e+01
1.455732e+02	-2.182322e+01
1.464141e+02	-2.187239e+01
1.472597e+02	-2.192502e+01
1.481103e+02	-2.197376e+01
1.489658e+02	-2.202395e+01
1.498262e+02	-2.207324e+01
1.506916e+02	-2.212335e+01
1.515620e+02	-2.217253e+01
1.524374e+02	-2.222305e+01
1.533179e+02	-2.227287e+01
1.542034e+02	-2.232363e+01
1.550941e+02	-2.237164e+01
1.559899e+02	-2.242149e+01
1.568909e+02	-2.247282e+01
1.577971e+02	-2.251991e+01
1.587085e+02	-2.256985e+01
1.596252e+02	-2.261850e+01
1.605472e+02	-2.266747e+01
1.614745e+02	-2.271950e+01
1.624072e+02	-2.277152e+01
1.633453e+02	-2.281962e+01
1.642887e+02	-2.286836e+01
1.652377e+02	-2.291937e+01
1.661921e+02	-2.297133e+01
1.671520e+02	-2.301947e+01
1.681175e+02	-2.306901e+01
1.690885e+02	-2.312009e+01
1.700651e+02	-2.316872e+01
1.710474e+02	-2.321765e+01
1.720354e+02	-2.326838e+01
1.730291e+02	-2.332048e+01
1.740285e+02	-2.336743e+01
1.750337e+02	-2.341667e+01
1.760446e+02	-2.346727e+01
1.770615e+02	-2.351748e+01
1.780842e+02	-2.356781e+01
1.791128e+02	-2.361809e+01
1.801473e+02	-2.366584e+01
1.811878e+02	-2.371796e+01
1.822344e+02	-2.376635e+01
1.832870e+02	-2.381579e+01
1.843456e+02	-2.386475e+01
1.854104e+02	-2.391624e+01
1.864813e+02	-2.396664e+01
1.875584e+02	-2.401526e+01
1.886418e+02	-2.406627e+01
1.897313e+02	-2.411355e+01
1.908272e+02	-2.416078e+01
1.919294e+02	-2.421674e+01
1.930380e+02	-2.426491e+01
1.941530e+02	-2.431653e+01
1.952744e+02	-2.436653e+01
1.964023e+02	-2.441547e+01
1.975367e+02	-2.446169e+01
1.986777e+02	-2.451116e+01
1.998252e+02	-2.456355e+01
2.009794e+02	-2.461471e+01
2.021403e+02	-2.466330e+01
2.033078e+02	-2.471390e+01
2.044821e+02	-2.476321e+01
2.056632e+02	-2.481470e+01
2.068511e+02	-2.486491e+01
2.080459e+02	-2.491368e+01
2.092475e+02	-2.496345e+01
2.104561e+02	-2.501178e+01
2.116717e+02	-2.506559e+01
2.128943e+02	-2.511799e+01
2.141240e+02	-2.516262e+01
2.153608e+02	-2.521720e+01
2.166047e+02	-2.526210e+01
2.178558e+02	-2.531408e+01
2.191141e+02	-2.536330e+01
2.203797e+02	-2.541132e+01
2.216526e+02	-2.546229e+01
2.229329e+02	-2.551215e+01
2.242205e+02	-2.556674e+01
2.255156e+02	-2.561219e+01
2.268182e+02	-2.566422e+01
2.281283e+02	-2.571022e+01
2.294459e+02	-2.576311e+01
2.307712e+02	-2.580821e+01
2.321041e+02	-2.586355e+01
2.334447e+02	-2.591211e+01
2.347931e+02	-2.596254e+01
2.361493e+02	-2.600995e+01
2.375133e+02	-2.606087e+01
2.388851e+02	-2.611289e+01
2.402649e+02	-2.616062e+01
2.416527e+02	-2.621030e+01
2.430484e+02	-2.626108e+01
2.444523e+02	-2.631355e+01
2.458642e+02	-2.636138e+01
2.472843e+02	-2.641018e+01
2.487126e+02	-2.646009e+01
2.501492e+02	-2.651217e+01
2.515940e+02	-2.655990e+01
2.530472e+02	-2.661073e+01
2.545088e+02	-2.666337e+01
2.559789e+02	-2.670972e+01
2.574574e+02	-2.675913e+01
2.589444e+02	-2.681318e+01
2.604401e+02	-2.686269e+01
2.619444e+02	-2.691280e+01
2.634574e+02	-2.696415e+01
2.649791e+02	-2.700900e+01
2.665096e+02	-2.706130e+01
2.680489e+02	-2.710796e+01
2.695972e+02	-2.716338e+01
2.711544e+02	-2.721340e+01
2.727205e+02	-2.726131e+01
2.742958e+02	-2.730973e+01
2.758801e+02	-2.736217e+01
2.774736e+02	-2.740938e+01
2.790762e+02	-2.745785e+01
2.806882e+02	-2.751105e+01
2.823094e+02	-2.756224e+01
2.839400e+02	-2.761016e+01
2.855800e+02	-2.766442e+01
2.872295e+02	-2.771103e+01
2.888886e+02	-2.775856e+01
2.905572e+02	-2.780981e+01
2.922354e+02	-2.785910e+01
2.939234e+02	-2.791224e+01
2.956211e+02	-2.796500e+01
2.973286e+02	-2.800945e+01
2.990459e+02	-2.806400e+01
3.007732e+02	-2.811541e+01
3.025104e+02	-2.816146e+01
3.042577e+02	-2.820964e+01
3.060151e+02	-2.826277e+01
3.077826e+02	-2.831273e+01
3.095604e+02	-2.836290e+01
3.113484e+02	-2.841278e+01
3.131467e+02	-2.846155e+01
3.149554e+02	-2.851300e+01
3.167746e+02	-2.856101e+01
3.186043e+02	-2.861083e+01
3.204445e+02	-2.866019e+01
3.222954e+02	-2.871124e+01
3.241570e+02	-2.876363e+01
3.260293e+02	-2.881230e+01
3.279124e+02	-2.886027e+01
3.298064e+02	-2.891363e+01
3.317114e+02	-2.896628e+01
3.336273e+02	-2.901223e+01
3.355544e+02	-2.906273e+01
3.374925e+02	-2.911606e+01
3.394418e+02	-2.916124e+01
3.414024e+02	-2.921546e+01
3.433744e+02	-2.926469e+01
3.453577e+02	-2.930882e+01
3.473525e+02	-2.936282e+01
3.493588e+02	-2.941095e+01
3.513766e+02	-2.946432e+01
3.534062e+02	-2.950946e+01
3.554474e+02	-2.956777e+01
3.575005e+02	-2.961006e+01
3.595654e+02	-2.966357e+01
3.616422e+02	-2.971218e+01
3.637311e+02	-2.976065e+01
3.658320e+02	-2.981595e+01
3.679450e+02	-2.986331e+01
3.700702e+02	-2.991799e+01
3.722077e+02	-2.996203e+01
3.743576e+02	-3.001569e+01
3.765199e+02	-3.005953e+01
3.786946e+02	-3.010980e+01
3.808820e+02	-3.015857e+01
3.830819e+02	-3.021432e+01
3.852946e+02	-3.026553e+01
3.875200e+02	-3.031518e+01
3.897583e+02	-3.036534e+01
3.920096e+02	-3.041885e+01
3.942738e+02	-3.046398e+01
3.965511e+02	-3.052111e+01
3.988416e+02	-3.056385e+01
4.011452e+02	-3.061417e+01
4.034622e+02	-3.066741e+01
4.057926e+02	-3.071431e+01
4.081365e+02	-3.076430e+01
4.104938e+02	-3.081429e+01
4.128648e+02	-3.087063e+01
4.152495e+02	-3.091220e+01
4.176480e+02	-3.096565e+01
4.200603e+02	-3.101410e+01
4.224866e+02	-3.106868e+01
4.249268e+02	-3.111634e+01
4.273812e+02	-3.116602e+01
4.298497e+02	-3.121729e+01
4.323325e+02	-3.127309e+01
4.348297e+02	-3.131024e+01
4.373412e+02	-3.137046e+01
4.398673e+02	-3.142292e+01
4.424079e+02	-3.146778e+01
4.449633e+02	-3.151602e+01
4.475334e+02	-3.156579e+01
4.501183e+02	-3.162161e+01
4.527182e+02	-3.166652e+01
4.553330e+02	-3.172242e+01
4.579630e+02	-3.177000e+01
4.606082e+02	-3.181590e+01
4.632687e+02	-3.187205e+01
4.659445e+02	-3.191764e+01
4.686358e+02	-3.196920e+01
4.713426e+02	-3.202663e+01
4.740650e+02	-3.206748e+01
4.768032e+02	-3.212385e+01
4.795572e+02	-3.216698e+01
4.823271e+02	-3.221729e+01
4.851130e+02	-3.227255e+01
4.879150e+02	-3.232098e+01
4.907332e+02	-3.236847e+01
4.935676e+02	-3.241768e+01
4.964185e+02	-3.247699e+01
4.992858e+02	-3.251721e+01
5.021696e+02	-3.256651e+01
5.050701e+02	-3.262037e+01
5.079874e+02	-3.267900e+01
5.109215e+02	-3.272755e+01
5.138726e+02	-3.277111e+01
5.168407e+02	-3.282465e+01
5.198259e+02	-3.286546e+01
5.228284e+02	-3.292653e+01
5.258482e+02	-3.296979e+01
5.288855e+02	-3.302090e+01
5.319403e+02	-3.307833e+01
5.350128e+02	-3.311710e+01
5.381030e+02	-3.316904e+01
5.412111e+02	-3.321942e+01
5.443371e+02	-3.327565e+01
5.474812e+02	-3.332923e+01
5.506434e+02	-3.338042e+01
5.538239e+02	-3.343416e+01
5.570228e+02	-3.347769e+01
5.602401e+02	-3.352864e+01
5.634760e+02	-3.357438e+01
5.667306e+02	-3.362763e+01
5.700040e+02	-3.368415e+01
5.732964e+02	-3.372912e+01
5.766077e+02	-3.377788e+01
5.799382e+02	-3.382490e+01
5.832879e+02	-3.388026e+01
5.866569e+02	-3.392623e+01
5.900454e+02	-3.397583e+01
5.934535e+02	-3.403456e+01
5.968813e+02	-3.408079e+01
6.003288e+02	-3.413364e+01
6.037963e+02	-3.418243e+01
6.072838e+02	-3.422902e+01
6.107914e+02	-3.428711e+01
6.143194e+02	-3.433373e+01
6.178676e+02	-3.438571e+01
6.214364e+02	-3.443941e+01
6.250258e+02	-3.448813e+01
6.286359e+02	-3.452770e+01
6.322669e+02	-3.458287e+01
6.359189e+02	-3.463268e+01
6.395919e+02	-3.468419e+01
6.432862e+02	-3.472923e+01
6.470017e+02	-3.478294e+01
6.507388e+02	-3.483012e+01
6.544974e+02	-3.488176e+01
6.582778e+02	-3.493922e+01
6.620800e+02	-3.498297e+01
6.659041e+02	-3.503691e+01
6.697504e+02	-3.509070e+01
6.736188e+02	-3.514310e+01
6.775096e+02	-3.518200e+01
6.814229e+02	-3.523595e+01
6.853587e+02	-3.526668e+01
6.893173e+02	-3.534085e+01
6.932988e+02	-3.539368e+01
6.973033e+02	-3.543868e+01
7.013309e+02	-3.548715e+01
