Frequency(Hz)	Magnitude(dB)
1.000000e+01	-2.176897e+00
1.005776e+01	-2.196518e+00
1.011585e+01	-2.216311e+00
1.017428e+01	-2.236449e+00
1.023305e+01	-2.256488e+00
1.029215e+01	-2.277148e+00
1.035160e+01	-2.297645e+00
1.041139e+01	-2.318153e+00
1.047153e+01	-2.338767e+00
1.053201e+01	-2.359923e+00
1.059284e+01	-2.380861e+00
1.065403e+01	-2.402179e+00
1.071556e+01	-2.423379e+00
1.077746e+01	-2.444920e+00
1.083971e+01	-2.466415e+00
1.090232e+01	-2.488175e+00
1.096529e+01	-2.510159e+00
1.102862e+01	-2.532072e+00
1.109232e+01	-2.554395e+00
1.115639e+01	-2.577032e+00
1.122083e+01	-2.599034e+00
1.128564e+01	-2.622025e+00
1.135083e+01	-2.644559e+00
1.141639e+01	-2.667250e+00
1.148233e+01	-2.690319e+00
1.154865e+01	-2.713615e+00
1.161536e+01	-2.736788e+00
1.168245e+01	-2.760202e+00
1.174992e+01	-2.783822e+00
1.181779e+01	-2.807607e+00
1.188605e+01	-2.831507e+00
1.195470e+01	-2.855750e+00
1.202375e+01	-2.879617e+00
1.209320e+01	-2.904182e+00
1.216305e+01	-2.928539e+00
1.223330e+01	-2.953137e+00
1.230396e+01	-2.978006e+00
1.237503e+01	-3.002518e+00
1.244651e+01	-3.027742e+00
1.251840e+01	-3.052734e+00
1.259070e+01	-3.078274e+00
1.266343e+01	-3.103802e+00
1.273657e+01	-3.129636e+00
1.281014e+01	-3.155246e+00
1.288413e+01	-3.181206e+00
1.295855e+01	-3.206967e+00
1.303339e+01	-3.233580e+00
1.310867e+01	-3.259687e+00
1.318439e+01	-3.286174e+00
1.326054e+01	-3.312760e+00
1.333713e+01	-3.339220e+00
1.341417e+01	-3.366512e+00
1.349165e+01	-3.393578e+00
1.356958e+01	-3.420640e+00
1.364795e+01	-3.447710e+00
1.372678e+01	-3.475457e+00
1.380607e+01	-3.503136e+00
1.388581e+01	-3.530892e+00
1.396602e+01	-3.558696e+00
1.404668e+01	-3.586828e+00
1.412782e+01	-3.614821e+00
1.420942e+01	-3.643418e+00
1.429149e+01	-3.671903e+00
1.437404e+01	-3.700463e+00
1.445706e+01	-3.729346e+00
1.454057e+01	-3.758295e+00
1.462455e+01	-3.787124e+00
1.470902e+01	-3.816208e+00
1.479398e+01	-3.845929e+00
1.487943e+01	-3.875011e+00
1.496537e+01	-3.904737e+00
1.505181e+01	-3.934468e+00
1.513875e+01	-3.964542e+00
1.522619e+01	-3.994555e+00
1.531414e+01	-4.024444e+00
1.540259e+01	-4.054965e+00
1.549156e+01	-4.085132e+00
1.558103e+01	-4.115702e+00
1.567103e+01	-4.146464e+00
1.576155e+01	-4.177374e+00
1.585258e+01	-4.208261e+00
1.594415e+01	-4.239403e+00
1.603624e+01	-4.270929e+00
1.612886e+01	-4.302042e+00
1.622202e+01	-4.333405e+00
1.631572e+01	-4.365266e+00
1.640996e+01	-4.396944e+00
1.650474e+01	-4.429037e+00
1.660008e+01	-4.461077e+00
1.669596e+01	-4.492927e+00
1.679239e+01	-4.525221e+00
1.688938e+01	-4.557792e+00
1.698694e+01	-4.590568e+00
1.708505e+01	-4.623152e+00
1.718373e+01	-4.655889e+00
1.728299e+01	-4.688746e+00
1.738281e+01	-4.722080e+00
1.748322e+01	-4.755287e+00
1.758420e+01	-4.788827e+00
1.768576e+01	-4.822273e+00
1.778792e+01	-4.855863e+00
1.789066e+01	-4.889687e+00
1.799399e+01	-4.923319e+00
1.809793e+01	-4.957386e+00
1.820246e+01	-4.991304e+00
1.830760e+01	-5.025624e+00
1.841334e+01	-5.059974e+00
1.851969e+01	-5.094483e+00
1.862666e+01	-5.129166e+00
1.873425e+01	-5.164073e+00
1.884246e+01	-5.198786e+00
1.895129e+01	-5.233941e+00
1.906075e+01	-5.268576e+00
1.917085e+01	-5.303985e+00
1.928158e+01	-5.339037e+00
1.939295e+01	-5.374774e+00
1.950496e+01	-5.410277e+00
1.961762e+01	-5.446058e+00
1.973093e+01	-5.482195e+00
1.984490e+01	-5.518002e+00
1.995952e+01	-5.553769e+00
2.007480e+01	-5.589870e+00
2.019076e+01	-5.626508e+00
2.030738e+01	-5.662658e+00
2.042467e+01	-5.699154e+00
2.054264e+01	-5.736035e+00
2.066130e+01	-5.772213e+00
2.078064e+01	-5.809344e+00
2.090066e+01	-5.845831e+00
2.102139e+01	-5.883182e+00
2.114280e+01	-5.920482e+00
2.126492e+01	-5.957663e+00
2.138775e+01	-5.994868e+00
2.151128e+01	-6.032788e+00
2.163553e+01	-6.070317e+00
2.176050e+01	-6.107796e+00
2.188619e+01	-6.145652e+00
2.201260e+01	-6.183757e+00
2.213974e+01	-6.222207e+00
2.226762e+01	-6.260107e+00
2.239624e+01	-6.297990e+00
2.252560e+01	-6.336687e+00
2.265571e+01	-6.375205e+00
2.278656e+01	-6.413522e+00
2.291818e+01	-6.452526e+00
2.305055e+01	-6.490845e+00
2.318369e+01	-6.529728e+00
2.331760e+01	-6.568614e+00
2.345228e+01	-6.607945e+00
2.358774e+01	-6.647056e+00
2.372398e+01	-6.686453e+00
2.386101e+01	-6.725678e+00
2.399883e+01	-6.764978e+00
2.413745e+01	-6.804238e+00
2.427686e+01	-6.844248e+00
2.441709e+01	-6.884072e+00
2.455812e+01	-6.923901e+00
2.469997e+01	-6.963826e+00
2.484263e+01	-7.003769e+00
2.498612e+01	-7.043462e+00
2.513044e+01	-7.083991e+00
2.527559e+01	-7.124425e+00
2.542158e+01	-7.164390e+00
2.556842e+01	-7.204839e+00
2.571610e+01	-7.245805e+00
2.586463e+01	-7.286294e+00
2.601403e+01	-7.326708e+00
2.616428e+01	-7.367704e+00
2.631541e+01	-7.408602e+00
2.646740e+01	-7.449544e+00
2.662028e+01	-7.490759e+00
2.677404e+01	-7.531920e+00
2.692868e+01	-7.572620e+00
2.708422e+01	-7.614269e+00
2.724066e+01	-7.655631e+00
2.739800e+01	-7.697178e+00
2.755625e+01	-7.738842e+00
2.771541e+01	-7.780677e+00
2.787550e+01	-7.822773e+00
2.803650e+01	-7.864028e+00
2.819844e+01	-7.906174e+00
2.836131e+01	-7.947768e+00
2.852513e+01	-7.990000e+00
2.868989e+01	-8.032251e+00
2.885560e+01	-8.074233e+00
2.902227e+01	-8.116432e+00
2.918990e+01	-8.159029e+00
2.935850e+01	-8.201280e+00
2.952807e+01	-8.243441e+00
2.969863e+01	-8.285969e+00
2.987016e+01	-8.328627e+00
3.004269e+01	-8.371802e+00
3.021622e+01	-8.414602e+00
3.039075e+01	-8.457321e+00
3.056628e+01	-8.500151e+00
3.074283e+01	-8.543441e+00
3.092040e+01	-8.586024e+00
3.109900e+01	-8.628990e+00
3.127862e+01	-8.672309e+00
3.145929e+01	-8.715434e+00
3.164099e+01	-8.758978e+00
3.182375e+01	-8.802254e+00
3.200756e+01	-8.846434e+00
3.219244e+01	-8.889479e+00
3.237838e+01	-8.933660e+00
3.256540e+01	-8.976875e+00
3.275349e+01	-9.020420e+00
3.294268e+01	-9.064607e+00
3.313295e+01	-9.108038e+00
3.332433e+01	-9.152097e+00
3.351681e+01	-9.195915e+00
3.371040e+01	-9.240609e+00
3.390511e+01	-9.284207e+00
3.410094e+01	-9.328508e+00
3.429791e+01	-9.372785e+00
3.449601e+01	-9.416919e+00
3.469526e+01	-9.461038e+00
3.489566e+01	-9.505921e+00
3.509721e+01	-9.550028e+00
3.529993e+01	-9.594680e+00
3.550382e+01	-9.639322e+00
3.570889e+01	-9.683907e+00
3.591515e+01	-9.728542e+00
3.612259e+01	-9.773336e+00
3.633123e+01	-9.818254e+00
3.654108e+01	-9.862491e+00
3.675214e+01	-9.908022e+00
3.696442e+01	-9.952904e+00
3.717792e+01	-9.997676e+00
3.739266e+01	-1.004256e+01
3.760864e+01	-1.008732e+01
3.782587e+01	-1.013263e+01
3.804435e+01	-1.017834e+01
3.826409e+01	-1.022374e+01
3.848510e+01	-1.026813e+01
3.870739e+01	-1.031422e+01
3.893096e+01	-1.035924e+01
3.915583e+01	-1.040512e+01
3.938199e+01	-1.045027e+01
3.960946e+01	-1.049597e+01
3.983824e+01	-1.054179e+01
4.006834e+01	-1.058702e+01
4.029978e+01	-1.063346e+01
4.053255e+01	-1.067874e+01
4.076666e+01	-1.072399e+01
4.100213e+01	-1.077029e+01
4.123896e+01	-1.081612e+01
4.147715e+01	-1.086127e+01
4.171672e+01	-1.090843e+01
4.195767e+01	-1.095381e+01
4.220002e+01	-1.099964e+01
4.244377e+01	-1.104570e+01
4.268892e+01	-1.109148e+01
4.293549e+01	-1.113816e+01
4.318348e+01	-1.118435e+01
4.343291e+01	-1.123089e+01
4.368377e+01	-1.127690e+01
4.393609e+01	-1.132297e+01
4.418986e+01	-1.136974e+01
4.444510e+01	-1.141631e+01
4.470182e+01	-1.146245e+01
4.496001e+01	-1.150885e+01
4.521970e+01	-1.155538e+01
4.548089e+01	-1.160192e+01
4.574358e+01	-1.164834e+01
4.600779e+01	-1.169535e+01
4.627353e+01	-1.174196e+01
4.654081e+01	-1.178869e+01
4.680963e+01	-1.183546e+01
4.708000e+01	-1.188217e+01
4.735193e+01	-1.192925e+01
4.762543e+01	-1.197586e+01
4.790051e+01	-1.202222e+01
4.817719e+01	-1.206942e+01
4.845545e+01	-1.211624e+01
4.873533e+01	-1.216335e+01
4.901682e+01	-1.221074e+01
4.929994e+01	-1.225767e+01
4.958470e+01	-1.230461e+01
4.987110e+01	-1.235150e+01
5.015915e+01	-1.239842e+01
5.044887e+01	-1.244610e+01
5.074026e+01	-1.249261e+01
5.103333e+01	-1.254020e+01
5.132810e+01	-1.258737e+01
5.162457e+01	-1.263505e+01
5.192275e+01	-1.268283e+01
5.222265e+01	-1.272906e+01
5.252429e+01	-1.277632e+01
5.282767e+01	-1.282393e+01
5.313280e+01	-1.287209e+01
5.343969e+01	-1.291900e+01
5.374836e+01	-1.296712e+01
5.405880e+01	-1.301439e+01
5.437105e+01	-1.306152e+01
5.468509e+01	-1.310943e+01
5.500095e+01	-1.315788e+01
5.531863e+01	-1.320452e+01
5.563815e+01	-1.325232e+01
5.595951e+01	-1.330001e+01
5.628273e+01	-1.334758e+01
5.660782e+01	-1.339577e+01
5.693479e+01	-1.344339e+01
5.726364e+01	-1.349094e+01
5.759439e+01	-1.353821e+01
5.792705e+01	-1.358593e+01
5.826164e+01	-1.363421e+01
5.859815e+01	-1.368223e+01
5.893662e+01	-1.372965e+01
5.927703e+01	-1.377782e+01
5.961941e+01	-1.382615e+01
5.996377e+01	-1.387424e+01
6.031012e+01	-1.392161e+01
6.065847e+01	-1.396960e+01
6.100883e+01	-1.401780e+01
6.136121e+01	-1.406538e+01
6.171563e+01	-1.411317e+01
6.207210e+01	-1.416204e+01
6.243063e+01	-1.421020e+01
6.279122e+01	-1.425819e+01
6.315390e+01	-1.430625e+01
6.351868e+01	-1.435430e+01
6.388556e+01	-1.440256e+01
6.425456e+01	-1.445096e+01
6.462569e+01	-1.449968e+01
6.499897e+01	-1.454763e+01
6.537440e+01	-1.459598e+01
6.575200e+01	-1.464279e+01
6.613178e+01	-1.469233e+01
6.651375e+01	-1.473980e+01
6.689793e+01	-1.478993e+01
6.728433e+01	-1.483719e+01
6.767297e+01	-1.488591e+01
6.806384e+01	-1.493478e+01
6.845698e+01	-1.498286e+01
6.885238e+01	-1.503131e+01
6.925007e+01	-1.508000e+01
6.965005e+01	-1.512823e+01
7.005235e+01	-1.517717e+01
7.045697e+01	-1.522581e+01
7.086393e+01	-1.527431e+01
7.127323e+01	-1.532243e+01
7.168490e+01	-1.537044e+01
7.209895e+01	-1.541957e+01
7.251539e+01	-1.546784e+01
7.293424e+01	-1.551662e+01
7.335551e+01	-1.556527e+01
7.377920e+01	-1.561448e+01
7.420535e+01	-1.566245e+01
7.463396e+01	-1.571176e+01
7.506504e+01	-1.575897e+01
7.549861e+01	-1.580858e+01
7.593469e+01	-1.585778e+01
7.637328e+01	-1.590699e+01
7.681441e+01	-1.595440e+01
7.725809e+01	-1.600399e+01
7.770433e+01	-1.605250e+01
7.815315e+01	-1.610079e+01
7.860456e+01	-1.615046e+01
7.905857e+01	-1.619915e+01
7.951521e+01	-1.624793e+01
7.997449e+01	-1.629653e+01
8.043642e+01	-1.634573e+01
8.090102e+01	-1.639357e+01
8.136830e+01	-1.644314e+01
8.183828e+01	-1.649108e+01
8.231097e+01	-1.654067e+01
8.278640e+01	-1.659040e+01
8.326457e+01	-1.663938e+01
8.374550e+01	-1.668672e+01
8.422921e+01	-1.673751e+01
8.471572e+01	-1.678634e+01
8.520503e+01	-1.683473e+01
8.569717e+01	-1.688358e+01
8.619215e+01	-1.693324e+01
8.669000e+01	-1.698223e+01
8.719071e+01	-1.702941e+01
8.769432e+01	-1.707949e+01
8.820084e+01	-1.712846e+01
8.871029e+01	-1.717777e+01
8.922267e+01	-1.722782e+01
8.973802e+01	-1.727616e+01
9.025634e+01	-1.732521e+01
9.077766e+01	-1.737513e+01
9.130199e+01	-1.742318e+01
9.182935e+01	-1.747340e+01
9.235975e+01	-1.752190e+01
9.289321e+01	-1.757107e+01
9.342976e+01	-1.761956e+01
9.396941e+01	-1.767044e+01
9.451217e+01	-1.771883e+01
9.505807e+01	-1.776756e+01
9.560712e+01	-1.781677e+01
9.615934e+01	-1.786603e+01
9.671476e+01	-1.791573e+01
9.727338e+01	-1.796419e+01
9.783522e+01	-1.801377e+01
9.840032e+01	-1.806186e+01
9.896867e+01	-1.811298e+01
9.954031e+01	-1.816235e+01
1.001153e+02	-1.820962e+01
1.006935e+02	-1.825973e+01
1.012751e+02	-1.831073e+01
1.018601e+02	-1.835855e+01
1.024484e+02	-1.840859e+01
1.030402e+02	-1.845718e+01
1.036353e+02	-1.850636e+01
1.042339e+02	-1.855542e+01
1.048360e+02	-1.860587e+01
1.054415e+02	-1.865434e+01
1.060505e+02	-1.870408e+01
1.066631e+02	-1.875279e+01
1.072791e+02	-1.880255e+01
1.078988e+02	-1.885109e+01
1.085220e+02	-1.890271e+01
1.091488e+02	-1.895117e+01
1.097793e+02	-1.900090e+01
1.104133e+02	-1.905065e+01
1.110511e+02	-1.909920e+01
1.116925e+02	-1.914958e+01
1.123376e+02	-1.919931e+01
1.129865e+02	-1.924711e+01
1.136391e+02	-1.929721e+01
1.142955e+02	-1.934594e+01
1.149556e+02	-1.939531e+01
1.156196e+02	-1.944449e+01
1.162874e+02	-1.949505e+01
1.169591e+02	-1.954380e+01
1.176347e+02	-1.959301e+01
1.183141e+02	-1.964260e+01
1.189975e+02	-1.969295e+01
1.196848e+02	-1.974327e+01
1.203761e+02	-1.979114e+01
1.210714e+02	-1.984108e+01
1.217707e+02	-1.988942e+01
1.224740e+02	-1.993969e+01
1.231814e+02	-1.999037e+01
1.238929e+02	-2.003903e+01
1.246085e+02	-2.008734e+01
1.253283e+02	-2.013838e+01
1.260522e+02	-2.018642e+01
1.267802e+02	-2.023751e+01
1.275125e+02	-2.028684e+01
1.282490e+02	-2.033621e+01
1.289898e+02	-2.038537e+01
1.297348e+02	-2.043609e+01
1.304842e+02	-2.048526e+01
1.312378e+02	-2.053441e+01
1.319959e+02	-2.058505e+01
1.327583e+02	-2.063375e+01
1.335251e+02	-2.068159e+01
1.342963e+02	-2.073406e+01
1.350720e+02	-2.078372e+01
1.358522e+02	-2.083270e+01
1.366368e+02	-2.088162e+01
1.374260e+02	-2.093187e+01
1.382198e+02	-2.098106e+01
1.390182e+02	-2.103154e+01
1.398211e+02	-2.108221e+01
1.406287e+02	-2.113162e+01
1.414410e+02	-2.117883e+01
1.422579e+02	-2.123131e+01
1.430796e+02	-2.127843e+01
1.439060e+02	-2.132720e+01
1.447372e+02	-2.137921e+01
1.455732e+02	-2.142837e+01
1.464141e+02	-2.147956e+01
1.472597e+02	-2.152971e+01
1.481103e+02	-2.157955e+01
1.489658e+02	-2.162823e+01
1.498262e+02	-2.167747e+01
1.506916e+02	-2.172668e+01
1.515620e+02	-2.177660e+01
1.524374e+02	-2.182597e+01
1.533179e+02	-2.187685e+01
1.542034e+02	-2.192367e+01
1.550941e+02	-2.197483e+01
1.559899e+02	-2.202432e+01
1.568909e+02	-2.207477e+01
1.577971e+02	-2.212466e+01
1.587085e+02	-2.217306e+01
1.596252e+02	-2.222275e+01
1.605472e+02	-2.227455e+01
1.614745e+02	-2.232316e+01
1.624072e+02	-2.237168e+01
1.633453e+02	-2.242295e+01
1.642887e+02	-2.247389e+01
1.652377e+02	-2.252217e+01
1.661921e+02	-2.257160e+01
1.671520e+02	-2.262167e+01
1.681175e+02	-2.267139e+01
1.690885e+02	-2.272324e+01
1.700651e+02	-2.277048e+01
1.710474e+02	-2.282219e+01
1.720354e+02	-2.286995e+01
1.730291e+02	-2.291877e+01
1.740285e+02	-2.296929e+01
1.750337e+02	-2.302036e+01
1.760446e+02	-2.307075e+01
1.770615e+02	-2.311743e+01
1.780842e+02	-2.316876e+01
1.791128e+02	-2.321923e+01
1.801473e+02	-2.326713e+01
1.811878e+02	-2.331830e+01
1.822344e+02	-2.336846e+01
1.832870e+02	-2.341979e+01
1.843456e+02	-2.346938e+01
1.854104e+02	-2.351884e+01
1.864813e+02	-2.356781e+01
1.875584e+02	-2.361819e+01
1.886418e+02	-2.366449e+01
1.897313e+02	-2.371796e+01
1.908272e+02	-2.376721e+01
1.919294e+02	-2.381791e+01
1.930380e+02	-2.386926e+01
1.941530e+02	-2.391868e+01
1.952744e+02	-2.396808e+01
1.964023e+02	-2.401740e+01
1.975367e+02	-2.406647e+01
1.986777e+02	-2.411656e+01
1.998252e+02	-2.416590e+01
2.009794e+02	-2.421549e+01
2.021403e+02	-2.426612e+01
2.033078e+02	-2.431752e+01
2.044821e+02	-2.436529e+01
2.056632e+02	-2.441696e+01
2.068511e+02	-2.446751e+01
2.080459e+02	-2.451537e+01
2.092475e+02	-2.456722e+01
2.104561e+02	-2.461660e+01
2.116717e+02	-2.466460e+01
2.128943e+02	-2.471351e+01
2.141240e+02	-2.477041e+01
2.153608e+02	-2.481236e+01
2.166047e+02	-2.486394e+01
2.178558e+02	-2.491462e+01
2.191141e+02	-2.496050e+01
2.203797e+02	-2.501706e+01
2.216526e+02	-2.506351e+01
2.229329e+02	-2.511839e+01
2.242205e+02	-2.516626e+01
2.255156e+02	-2.521897e+01
2.268182e+02	-2.526361e+01
2.281283e+02	-2.530936e+01
2.294459e+02	-2.536477e+01
2.307712e+02	-2.541239e+01
2.321041e+02	-2.546589e+01
2.334447e+02	-2.551096e+01
2.347931e+02	-2.556322e+01
2.361493e+02	-2.561416e+01
2.375133e+02	-2.566574e+01
2.388851e+02	-2.571364e+01
2.402649e+02	-2.576304e+01
2.416527e+02	-2.581250e+01
2.430484e+02	-2.586344e+01
2.444523e+02	-2.591204e+01
2.458642e+02	-2.596458e+01
2.472843e+02	-2.601270e+01
2.487126e+02	-2.606506e+01
2.501492e+02	-2.611413e+01
2.515940e+02	-2.616357e+01
2.530472e+02	-2.621145e+01
2.545088e+02	-2.626129e+01
2.559789e+02	-2.631173e+01
2.574574e+02	-2.635965e+01
2.589444e+02	-2.641111e+01
2.604401e+02	-2.646232e+01
2.619444e+02	-2.651490e+01
2.634574e+02	-2.656455e+01
2.649791e+02	-2.661247e+01
2.665096e+02	-2.666220e+01
2.680489e+02	-2.671274e+01
2.695972e+02	-2.676171e+01
2.711544e+02	-2.681232e+01
2.727205e+02	-2.686271e+01
2.742958e+02	-2.691398e+01
2.758801e+02	-2.696582e+01
2.774736e+02	-2.701305e+01
2.790762e+02	-2.706466e+01
2.806882e+02	-2.711226e+01
2.823094e+02	-2.716233e+01
2.839400e+02	-2.721291e+01
2.855800e+02	-2.726277e+01
2.872295e+02	-2.731213e+01
2.888886e+02	-2.736458e+01
2.905572e+02	-2.740874e+01
2.922354e+02	-2.746235e+01
2.939234e+02	-2.751237e+01
2.956211e+02	-2.756398e+01
2.973286e+02	-2.761390e+01
2.990459e+02	-2.766205e+01
3.007732e+02	-2.771141e+01
3.025104e+02	-2.776179e+01
3.042577e+02	-2.781287e+01
3.060151e+02	-2.786291e+01
3.077826e+02	-2.791059e+01
3.095604e+02	-2.796342e+01
3.113484e+02	-2.801337e+01
3.131467e+02	-2.806209e+01
3.149554e+02	-2.811455e+01
3.167746e+02	-2.816096e+01
3.186043e+02	-2.821104e+01
3.204445e+02	-2.826313e+01
3.222954e+02	-2.831284e+01
3.241570e+02	-2.836236e+01
3.260293e+02	-2.840742e+01
3.279124e+02	-2.846434e+01
3.298064e+02	-2.851261e+01
3.317114e+02	-2.856322e+01
3.336273e+02	-2.861306e+01
3.355544e+02	-2.865895e+01
3.374925e+02	-2.871243e+01
3.394418e+02	-2.876564e+01
3.414024e+02	-2.881365e+01
3.433744e+02	-2.886380e+01
3.453577e+02	-2.891438e+01
3.473525e+02	-2.896249e+01
3.493588e+02	-2.901606e+01
3.513766e+02	-2.906772e+01
3.534062e+02	-2.911479e+01
3.554474e+02	-2.916188e+01
3.575005e+02	-2.921622e+01
3.595654e+02	-2.926476e+01
3.616422e+02	-2.931107e+01
3.637311e+02	-2.936091e+01
3.658320e+02	-2.941172e+01
3.679450e+02	-2.945924e+01
3.700702e+02	-2.951716e+01
3.722077e+02	-2.956442e+01
3.743576e+02	-2.961591e+01
3.765199e+02	-2.966500e+01
3.786946e+02	-2.971785e+01
3.808820e+02	-2.976393e+01
3.830819e+02	-2.981817e+01
3.852946e+02	-2.986669e+01
3.875200e+02	-2.991205e+01
3.897583e+02	-2.996826e+01
3.920096e+02	-3.001713e+01
3.942738e+02	-3.005915e+01
3.965511e+02	-3.011426e+01
3.988416e+02	-3.016082e+01
4.011452e+02	-3.021214e+01
4.034622e+02	-3.026630e+01
4.057926e+02	-3.031149e+01
4.081365e+02	-3.036912e+01
4.104938e+02	-3.040981e+01
4.128648e+02	-3.046206e+01
4.152495e+02	-3.052125e+01
4.176480e+02	-3.056580e+01
4.200603e+02	-3.061722e+01
4.224866e+02	-3.066323e+01
4.249268e+02	-3.071828e+01
4.273812e+02	-3.076727e+01
4.298497e+02	-3.081844e+01
4.323325e+02	-3.086945e+01
4.348297e+02	-3.091275e+01
4.373412e+02	-3.097163e+01
4.398673e+02	-3.101659e+01
4.424079e+02	-3.107469e+01
4.449633e+02	-3.111972e+01
4.475334e+02	-3.117565e+01
4.501183e+02	-3.121469e+01
4.527182e+02	-3.126908e+01
4.553330e+02	-3.131779e+01
4.579630e+02	-3.136767e+01
4.606082e+02	-3.141604e+01
4.632687e+02	-3.147076e+01
4.659445e+02	-3.151721e+01
4.686358e+02	-3.156810e+01
4.713426e+02	-3.161847e+01
4.740650e+02	-3.166866e+01
4.768032e+02	-3.172243e+01
4.795572e+02	-3.177280e+01
4.823271e+02	-3.181955e+01
4.851130e+02	-3.187009e+01
4.879150e+02	-3.192522e+01
4.907332e+02	-3.197859e+01
4.935676e+02	-3.201882e+01
4.964185e+02	-3.206945e+01
4.992858e+02	-3.212022e+01
5.021696e+02	-3.216872e+01
5.050701e+02	-3.222197e+01
5.079874e+02	-3.226910e+01
5.109215e+02	-3.232256e+01
5.138726e+02	-3.236852e+01
5.168407e+02	-3.242656e+01
5.198259e+02	-3.247262e+01
5.228284e+02	-3.252356e+01
5.258482e+02	-3.256515e+01
5.288855e+02	-3.262582e+01
5.319403e+02	-3.267339e+01
5.350128e+02	-3.272884e+01
5.381030e+02	-3.277250e+01
5.412111e+02	-3.282160e+01
5.443371e+02	-3.287171e+01
5.474812e+02	-3.292736e+01
5.506434e+02	-3.297862e+01
5.538239e+02	-3.302108e+01
5.570228e+02	-3.306977e+01
5.602401e+02	-3.312307e+01
5.634760e+02	-3.317981e+01
5.667306e+02	-3.322602e+01
5.700040e+02	-3.327387e+01
5.732964e+02	-3.332243e+01
5.766077e+02	-3.338684e+01
5.799382e+02	-3.342722e+01
5.832879e+02	-3.347392e+01
5.866569e+02	-3.352686e+01
5.900454e+02	-3.357241e+01
5.934535e+02	-3.362529e+01
5.968813e+02	-3.368093e+01
6.003288e+02	-3.373286e+01
6.037963e+02	-3.377632e+01
6.072838e+02	-3.382657e+01
6.107914e+02	-3.388122e+01
6.143194e+02	-3.393314e+01
6.178676e+02	-3.397654e+01
6.214364e+02	-3.403361e+01
6.250258e+02	-3.407512e+01
6.286359e+02	-3.412823e+01
6.322669e+02	-3.418366e+01
6.359189e+02	-3.423790e+01
6.395919e+02	-3.428833e+01
6.432862e+02	-3.433186e+01
6.470017e+02	-3.438804e+01
6.507388e+02	-3.443137e+01
6.544974e+02	-3.448069e+01
6.582778e+02	-3.453218e+01
6.620800e+02	-3.457563e+01
6.659041e+02	-3.464006e+01
6.697504e+02	-3.468254e+01
6.736188e+02	-3.473805e+01
6.775096e+02	-3.477755e+01
6.814229e+02	-3.484103e+01
6.853587e+02	-3.488304e+01
6.893173e+02	-3.493822e+01
6.932988e+02	-3.499031e+01
6.973033e+02	-3.504442e+01
7.013309e+02	-3.508480e+01
