Frequency(Hz)	Magnitude(dB)
1.000000e+01	-1.677624e-05
1.005776e+01	-1.697059e-05
1.011585e+01	-1.716720e-05
1.017428e+01	-1.736609e-05
1.023305e+01	-1.756728e-05
1.029215e+01	-1.777080e-05
1.035160e+01	-1.797668e-05
1.041139e+01	-1.818495e-05
1.047153e+01	-1.839562e-05
1.053201e+01	-1.860874e-05
1.059284e+01	-1.882433e-05
1.065403e+01	-1.904241e-05
1.071556e+01	-1.926302e-05
1.077746e+01	-1.948619e-05
1.083971e+01	-1.971194e-05
1.090232e+01	-1.994031e-05
1.096529e+01	-2.017132e-05
1.102862e+01	-2.040501e-05
1.109232e+01	-2.064141e-05
1.115639e+01	-2.088055e-05
1.122083e+01	-2.112245e-05
1.128564e+01	-2.136716e-05
1.135083e+01	-2.161471e-05
1.141639e+01	-2.186512e-05
1.148233e+01	-2.211843e-05
1.154865e+01	-2.237468e-05
1.161536e+01	-2.263390e-05
1.168245e+01	-2.289611e-05
1.174992e+01	-2.316137e-05
1.181779e+01	-2.342970e-05
1.188605e+01	-2.370114e-05
1.195470e+01	-2.397573e-05
1.202375e+01	-2.425349e-05
1.209320e+01	-2.453447e-05
1.216305e+01	-2.481871e-05
1.223330e+01	-2.510624e-05
1.230396e+01	-2.539710e-05
1.237503e+01	-2.569133e-05
1.244651e+01	-2.598898e-05
1.251840e+01	-2.629006e-05
1.259070e+01	-2.659464e-05
1.266343e+01	-2.690275e-05
1.273657e+01	-2.721442e-05
1.281014e+01	-2.752971e-05
1.288413e+01	-2.784865e-05
1.295855e+01	-2.817128e-05
1.303339e+01	-2.849765e-05
1.310867e+01	-2.882780e-05
1.318439e+01	-2.916178e-05
1.326054e+01	-2.949963e-05
1.333713e+01	-2.984139e-05
1.341417e+01	-3.018710e-05
1.349165e+01	-3.053683e-05
1.356958e+01	-3.089061e-05
1.364795e+01	-3.124848e-05
1.372678e+01	-3.161050e-05
1.380607e+01	-3.197672e-05
1.388581e+01	-3.234718e-05
1.396602e+01	-3.272193e-05
1.404668e+01	-3.310102e-05
1.412782e+01	-3.348450e-05
1.420942e+01	-3.387243e-05
1.429149e+01	-3.426484e-05
1.437404e+01	-3.466181e-05
1.445706e+01	-3.506338e-05
1.454057e+01	-3.546959e-05
1.462455e+01	-3.588052e-05
1.470902e+01	-3.629620e-05
1.479398e+01	-3.671670e-05
1.487943e+01	-3.714207e-05
1.496537e+01	-3.757237e-05
1.505181e+01	-3.800766e-05
1.513875e+01	-3.844798e-05
1.522619e+01	-3.889341e-05
1.531414e+01	-3.934400e-05
1.540259e+01	-3.979981e-05
1.549156e+01	-4.026090e-05
1.558103e+01	-4.072733e-05
1.567103e+01	-4.119917e-05
1.576155e+01	-4.167647e-05
1.585258e+01	-4.215930e-05
1.594415e+01	-4.264773e-05
1.603624e+01	-4.314181e-05
1.612886e+01	-4.364162e-05
1.622202e+01	-4.414721e-05
1.631572e+01	-4.465867e-05
1.640996e+01	-4.517605e-05
1.650474e+01	-4.569942e-05
1.660008e+01	-4.622886e-05
1.669596e+01	-4.676443e-05
1.679239e+01	-4.730621e-05
1.688938e+01	-4.785426e-05
1.698694e+01	-4.840866e-05
1.708505e+01	-4.896949e-05
1.718373e+01	-4.953681e-05
1.728299e+01	-5.011071e-05
1.738281e+01	-5.069125e-05
1.748322e+01	-5.127852e-05
1.758420e+01	-5.187259e-05
1.768576e+01	-5.247354e-05
1.778792e+01	-5.308146e-05
1.789066e+01	-5.369642e-05
1.799399e+01	-5.431851e-05
1.809793e+01	-5.494780e-05
1.820246e+01	-5.558438e-05
1.830760e+01	-5.622833e-05
1.841334e+01	-5.687975e-05
1.851969e+01	-5.753872e-05
1.862666e+01	-5.820531e-05
1.873425e+01	-5.887963e-05
1.884246e+01	-5.956177e-05
1.895129e+01	-6.025180e-05
1.906075e+01	-6.094983e-05
1.917085e+01	-6.165595e-05
1.928158e+01	-6.237024e-05
1.939295e+01	-6.309281e-05
1.950496e+01	-6.382376e-05
1.961762e+01	-6.456317e-05
1.973093e+01	-6.531114e-05
1.984490e+01	-6.606778e-05
1.995952e+01	-6.683319e-05
2.007480e+01	-6.760747e-05
2.019076e+01	-6.839071e-05
2.030738e+01	-6.918303e-05
2.042467e+01	-6.998453e-05
2.054264e+01	-7.079531e-05
2.066130e+01	-7.161549e-05
2.078064e+01	-7.244517e-05
2.090066e+01	-7.328446e-05
2.102139e+01	-7.413347e-05
2.114280e+01	-7.499232e-05
2.126492e+01	-7.586112e-05
2.138775e+01	-7.673999e-05
2.151128e+01	-7.762903e-05
2.163553e+01	-7.852838e-05
2.176050e+01	-7.943814e-05
2.188619e+01	-8.035845e-05
2.201260e+01	-8.128942e-05
2.213974e+01	-8.223117e-05
2.226762e+01	-8.318383e-05
2.239624e+01	-8.414753e-05
2.252560e+01	-8.512239e-05
2.265571e+01	-8.610855e-05
2.278656e+01	-8.710613e-05
2.291818e+01	-8.811527e-05
2.305055e+01	-8.913610e-05
2.318369e+01	-9.016875e-05
2.331760e+01	-9.121337e-05
2.345228e+01	-9.227009e-05
2.358774e+01	-9.333906e-05
2.372398e+01	-9.442040e-05
2.386101e+01	-9.551428e-05
2.399883e+01	-9.662083e-05
2.413745e+01	-9.774019e-05
2.427686e+01	-9.887253e-05
2.441709e+01	-1.000180e-04
2.455812e+01	-1.011767e-04
2.469997e+01	-1.023488e-04
2.484263e+01	-1.035346e-04
2.498612e+01	-1.047340e-04
2.513044e+01	-1.059474e-04
2.527559e+01	-1.071748e-04
2.542158e+01	-1.084164e-04
2.556842e+01	-1.096725e-04
2.571610e+01	-1.109430e-04
2.586463e+01	-1.122283e-04
2.601403e+01	-1.135285e-04
2.616428e+01	-1.148437e-04
2.631541e+01	-1.161742e-04
2.646740e+01	-1.175201e-04
2.662028e+01	-1.188816e-04
2.677404e+01	-1.202589e-04
2.692868e+01	-1.216521e-04
2.708422e+01	-1.230614e-04
2.724066e+01	-1.244871e-04
2.739800e+01	-1.259293e-04
2.755625e+01	-1.273882e-04
2.771541e+01	-1.288640e-04
2.787550e+01	-1.303569e-04
2.803650e+01	-1.318671e-04
2.819844e+01	-1.333948e-04
2.836131e+01	-1.349402e-04
2.852513e+01	-1.365035e-04
2.868989e+01	-1.380849e-04
2.885560e+01	-1.396846e-04
2.902227e+01	-1.413029e-04
2.918990e+01	-1.429399e-04
2.935850e+01	-1.445959e-04
2.952807e+01	-1.462710e-04
2.969863e+01	-1.479656e-04
2.987016e+01	-1.496798e-04
3.004269e+01	-1.514138e-04
3.021622e+01	-1.531680e-04
3.039075e+01	-1.549424e-04
3.056628e+01	-1.567375e-04
3.074283e+01	-1.585533e-04
3.092040e+01	-1.603901e-04
3.109900e+01	-1.622482e-04
3.127862e+01	-1.641279e-04
3.145929e+01	-1.660293e-04
3.164099e+01	-1.679528e-04
3.182375e+01	-1.698985e-04
3.200756e+01	-1.718668e-04
3.219244e+01	-1.738579e-04
3.237838e+01	-1.758721e-04
3.256540e+01	-1.779095e-04
3.275349e+01	-1.799706e-04
3.294268e+01	-1.820556e-04
3.313295e+01	-1.841647e-04
3.332433e+01	-1.862983e-04
3.351681e+01	-1.884565e-04
3.371040e+01	-1.906398e-04
3.390511e+01	-1.928484e-04
3.410094e+01	-1.950825e-04
3.429791e+01	-1.973426e-04
3.449601e+01	-1.996288e-04
3.469526e+01	-2.019415e-04
3.489566e+01	-2.042810e-04
3.509721e+01	-2.066476e-04
3.529993e+01	-2.090416e-04
3.550382e+01	-2.114633e-04
3.570889e+01	-2.139131e-04
3.591515e+01	-2.163913e-04
3.612259e+01	-2.188982e-04
3.633123e+01	-2.214341e-04
3.654108e+01	-2.239994e-04
3.675214e+01	-2.265945e-04
3.696442e+01	-2.292196e-04
3.717792e+01	-2.318751e-04
3.739266e+01	-2.345613e-04
3.760864e+01	-2.372787e-04
3.782587e+01	-2.400276e-04
3.804435e+01	-2.428083e-04
3.826409e+01	-2.456212e-04
3.848510e+01	-2.484667e-04
3.870739e+01	-2.513452e-04
3.893096e+01	-2.542570e-04
3.915583e+01	-2.572026e-04
3.938199e+01	-2.601822e-04
3.960946e+01	-2.631964e-04
3.983824e+01	-2.662455e-04
4.006834e+01	-2.693300e-04
4.029978e+01	-2.724501e-04
4.053255e+01	-2.756064e-04
4.076666e+01	-2.787993e-04
4.100213e+01	-2.820292e-04
4.123896e+01	-2.852965e-04
4.147715e+01	-2.886016e-04
4.171672e+01	-2.919450e-04
4.195767e+01	-2.953272e-04
4.220002e+01	-2.987485e-04
4.244377e+01	-3.022094e-04
4.268892e+01	-3.057105e-04
4.293549e+01	-3.092521e-04
4.318348e+01	-3.128348e-04
4.343291e+01	-3.164589e-04
4.368377e+01	-3.201250e-04
4.393609e+01	-3.238336e-04
4.418986e+01	-3.275852e-04
4.444510e+01	-3.313802e-04
4.470182e+01	-3.352192e-04
4.496001e+01	-3.391027e-04
4.521970e+01	-3.430311e-04
4.548089e+01	-3.470050e-04
4.574358e+01	-3.510250e-04
4.600779e+01	-3.550916e-04
4.627353e+01	-3.592053e-04
4.654081e+01	-3.633666e-04
4.680963e+01	-3.675761e-04
4.708000e+01	-3.718344e-04
4.735193e+01	-3.761420e-04
4.762543e+01	-3.804995e-04
4.790051e+01	-3.849075e-04
4.817719e+01	-3.893666e-04
4.845545e+01	-3.938773e-04
4.873533e+01	-3.984403e-04
4.901682e+01	-4.030561e-04
4.929994e+01	-4.077254e-04
4.958470e+01	-4.124488e-04
4.987110e+01	-4.172269e-04
5.015915e+01	-4.220603e-04
5.044887e+01	-4.269498e-04
5.074026e+01	-4.318959e-04
5.103333e+01	-4.368992e-04
5.132810e+01	-4.419606e-04
5.162457e+01	-4.470806e-04
5.192275e+01	-4.522598e-04
5.222265e+01	-4.574991e-04
5.252429e+01	-4.627991e-04
5.282767e+01	-4.681605e-04
5.313280e+01	-4.735839e-04
5.343969e+01	-4.790702e-04
5.374836e+01	-4.846201e-04
5.405880e+01	-4.902342e-04
5.437105e+01	-4.959134e-04
5.468509e+01	-5.016584e-04
5.500095e+01	-5.074699e-04
5.531863e+01	-5.133487e-04
5.563815e+01	-5.192956e-04
5.595951e+01	-5.253115e-04
5.628273e+01	-5.313970e-04
5.660782e+01	-5.375530e-04
5.693479e+01	-5.437803e-04
5.726364e+01	-5.500797e-04
5.759439e+01	-5.564521e-04
5.792705e+01	-5.628984e-04
5.826164e+01	-5.694193e-04
5.859815e+01	-5.760157e-04
5.893662e+01	-5.826886e-04
5.927703e+01	-5.894387e-04
5.961941e+01	-5.962671e-04
5.996377e+01	-6.031745e-04
6.031012e+01	-6.101619e-04
6.065847e+01	-6.172303e-04
6.100883e+01	-6.243806e-04
6.136121e+01	-6.316137e-04
6.171563e+01	-6.389306e-04
6.207210e+01	-6.463322e-04
6.243063e+01	-6.538196e-04
6.279122e+01	-6.613937e-04
6.315390e+01	-6.690555e-04
6.351868e+01	-6.768061e-04
6.388556e+01	-6.846465e-04
6.425456e+01	-6.925777e-04
6.462569e+01	-7.006007e-04
6.499897e+01	-7.087167e-04
6.537440e+01	-7.169267e-04
6.575200e+01	-7.252318e-04
6.613178e+01	-7.336331e-04
6.651375e+01	-7.421317e-04
6.689793e+01	-7.507288e-04
6.728433e+01	-7.594254e-04
6.767297e+01	-7.682228e-04
6.806384e+01	-7.771221e-04
6.845698e+01	-7.861244e-04
6.885238e+01	-7.952311e-04
6.925007e+01	-8.044432e-04
6.965005e+01	-8.137620e-04
7.005235e+01	-8.231888e-04
7.045697e+01	-8.327247e-04
7.086393e+01	-8.423711e-04
7.127323e+01	-8.521293e-04
7.168490e+01	-8.620004e-04
7.209895e+01	-8.719860e-04
7.251539e+01	-8.820871e-04
7.293424e+01	-8.923053e-04
7.335551e+01	-9.026418e-04
7.377920e+01	-9.130981e-04
7.420535e+01	-9.236754e-04
7.463396e+01	-9.343753e-04
7.506504e+01	-9.451991e-04
7.549861e+01	-9.561483e-04
7.593469e+01	-9.672243e-04
7.637328e+01	-9.784286e-04
7.681441e+01	-9.897627e-04
7.725809e+01	-1.001228e-03
7.770433e+01	-1.012826e-03
7.815315e+01	-1.024559e-03
7.860456e+01	-1.036427e-03
7.905857e+01	-1.048433e-03
7.951521e+01	-1.060578e-03
7.997449e+01	-1.072863e-03
8.043642e+01	-1.085291e-03
8.090102e+01	-1.097863e-03
8.136830e+01	-1.110580e-03
8.183828e+01	-1.123445e-03
8.231097e+01	-1.136459e-03
8.278640e+01	-1.149623e-03
8.326457e+01	-1.162940e-03
8.374550e+01	-1.176411e-03
8.422921e+01	-1.190039e-03
8.471572e+01	-1.203824e-03
8.520503e+01	-1.217768e-03
8.569717e+01	-1.231874e-03
8.619215e+01	-1.246144e-03
8.669000e+01	-1.260579e-03
8.719071e+01	-1.275181e-03
8.769432e+01	-1.289952e-03
8.820084e+01	-1.304894e-03
8.871029e+01	-1.320009e-03
8.922267e+01	-1.335300e-03
8.973802e+01	-1.350767e-03
9.025634e+01	-1.366414e-03
9.077766e+01	-1.382241e-03
9.130199e+01	-1.398252e-03
9.182935e+01	-1.414449e-03
9.235975e+01	-1.430833e-03
9.289321e+01	-1.447407e-03
9.342976e+01	-1.464173e-03
9.396941e+01	-1.481132e-03
9.451217e+01	-1.498289e-03
9.505807e+01	-1.515644e-03
9.560712e+01	-1.533200e-03
9.615934e+01	-1.550959e-03
9.671476e+01	-1.568924e-03
9.727338e+01	-1.587097e-03
9.783522e+01	-1.605481e-03
9.840032e+01	-1.624077e-03
9.896867e+01	-1.642889e-03
9.954031e+01	-1.661919e-03
1.001153e+02	-1.681169e-03
1.006935e+02	-1.700642e-03
1.012751e+02	-1.720340e-03
1.018601e+02	-1.740267e-03
1.024484e+02	-1.760424e-03
1.030402e+02	-1.780815e-03
1.036353e+02	-1.801442e-03
1.042339e+02	-1.822308e-03
1.048360e+02	-1.843415e-03
1.054415e+02	-1.864767e-03
1.060505e+02	-1.886366e-03
1.066631e+02	-1.908216e-03
1.072791e+02	-1.930318e-03
1.078988e+02	-1.952676e-03
1.085220e+02	-1.975293e-03
1.091488e+02	-1.998172e-03
1.097793e+02	-2.021316e-03
1.104133e+02	-2.044728e-03
1.110511e+02	-2.068411e-03
1.116925e+02	-2.092369e-03
1.123376e+02	-2.116603e-03
1.129865e+02	-2.141119e-03
1.136391e+02	-2.165918e-03
1.142955e+02	-2.191004e-03
1.149556e+02	-2.216381e-03
1.156196e+02	-2.242052e-03
1.162874e+02	-2.268020e-03
1.169591e+02	-2.294289e-03
1.176347e+02	-2.320861e-03
1.183141e+02	-2.347742e-03
1.189975e+02	-2.374934e-03
1.196848e+02	-2.402440e-03
1.203761e+02	-2.430265e-03
1.210714e+02	-2.458413e-03
1.217707e+02	-2.486886e-03
1.224740e+02	-2.515689e-03
1.231814e+02	-2.544825e-03
1.238929e+02	-2.574299e-03
1.246085e+02	-2.604114e-03
1.253283e+02	-2.634274e-03
1.260522e+02	-2.664783e-03
1.267802e+02	-2.695646e-03
1.275125e+02	-2.726866e-03
1.282490e+02	-2.758447e-03
1.289898e+02	-2.790395e-03
1.297348e+02	-2.822711e-03
1.304842e+02	-2.855403e-03
1.312378e+02	-2.888472e-03
1.319959e+02	-2.921925e-03
1.327583e+02	-2.955764e-03
1.335251e+02	-2.989996e-03
1.342963e+02	-3.024624e-03
1.350720e+02	-3.059652e-03
1.358522e+02	-3.095087e-03
1.366368e+02	-3.130931e-03
1.374260e+02	-3.167190e-03
1.382198e+02	-3.203870e-03
1.390182e+02	-3.240973e-03
1.398211e+02	-3.278507e-03
1.406287e+02	-3.316475e-03
1.414410e+02	-3.354882e-03
1.422579e+02	-3.393734e-03
1.430796e+02	-3.433036e-03
1.439060e+02	-3.472792e-03
1.447372e+02	-3.513009e-03
1.455732e+02	-3.553692e-03
1.464141e+02	-3.594845e-03
1.472597e+02	-3.636475e-03
1.481103e+02	-3.678586e-03
1.489658e+02	-3.721186e-03
1.498262e+02	-3.764278e-03
1.506916e+02	-3.807869e-03
1.515620e+02	-3.851964e-03
1.524374e+02	-3.896570e-03
1.533179e+02	-3.941692e-03
1.542034e+02	-3.987337e-03
1.550941e+02	-4.033510e-03
1.559899e+02	-4.080217e-03
1.568909e+02	-4.127465e-03
1.577971e+02	-4.175260e-03
1.587085e+02	-4.223608e-03
1.596252e+02	-4.272515e-03
1.605472e+02	-4.321989e-03
1.614745e+02	-4.372035e-03
1.624072e+02	-4.422660e-03
1.633453e+02	-4.473871e-03
1.642887e+02	-4.525675e-03
1.652377e+02	-4.578079e-03
1.661921e+02	-4.631088e-03
1.671520e+02	-4.684712e-03
1.681175e+02	-4.738956e-03
1.690885e+02	-4.793827e-03
1.700651e+02	-4.849334e-03
1.710474e+02	-4.905483e-03
1.720354e+02	-4.962282e-03
1.730291e+02	-5.019738e-03
1.740285e+02	-5.077859e-03
1.750337e+02	-5.136652e-03
1.760446e+02	-5.196126e-03
1.770615e+02	-5.256288e-03
1.780842e+02	-5.317146e-03
1.791128e+02	-5.378708e-03
1.801473e+02	-5.440983e-03
1.811878e+02	-5.503978e-03
1.822344e+02	-5.567702e-03
1.832870e+02	-5.632163e-03
1.843456e+02	-5.697370e-03
1.854104e+02	-5.763332e-03
1.864813e+02	-5.830057e-03
1.875584e+02	-5.897553e-03
1.886418e+02	-5.965831e-03
1.897313e+02	-6.034899e-03
1.908272e+02	-6.104765e-03
1.919294e+02	-6.175440e-03
1.930380e+02	-6.246933e-03
1.941530e+02	-6.319252e-03
1.952744e+02	-6.392408e-03
1.964023e+02	-6.466411e-03
1.975367e+02	-6.541269e-03
1.986777e+02	-6.616993e-03
1.998252e+02	-6.693594e-03
2.009794e+02	-6.771080e-03
2.021403e+02	-6.849463e-03
2.033078e+02	-6.928752e-03
2.044821e+02	-7.008959e-03
2.056632e+02	-7.090093e-03
2.068511e+02	-7.172165e-03
2.080459e+02	-7.255187e-03
2.092475e+02	-7.339169e-03
2.104561e+02	-7.424122e-03
2.116717e+02	-7.510058e-03
2.128943e+02	-7.596988e-03
2.141240e+02	-7.684922e-03
2.153608e+02	-7.773874e-03
2.166047e+02	-7.863855e-03
2.178558e+02	-7.954876e-03
2.191141e+02	-8.046950e-03
2.203797e+02	-8.140088e-03
2.216526e+02	-8.234303e-03
2.229329e+02	-8.329608e-03
2.242205e+02	-8.426015e-03
2.255156e+02	-8.523536e-03
2.268182e+02	-8.622185e-03
2.281283e+02	-8.721975e-03
2.294459e+02	-8.822918e-03
2.307712e+02	-8.925029e-03
2.321041e+02	-9.028319e-03
2.334447e+02	-9.132805e-03
2.347931e+02	-9.238497e-03
2.361493e+02	-9.345412e-03
2.375133e+02	-9.453563e-03
2.388851e+02	-9.562964e-03
2.402649e+02	-9.673630e-03
2.416527e+02	-9.785574e-03
2.430484e+02	-9.898813e-03
2.444523e+02	-1.001336e-02
2.458642e+02	-1.012923e-02
2.472843e+02	-1.024644e-02
2.487126e+02	-1.036501e-02
2.501492e+02	-1.048494e-02
2.515940e+02	-1.060627e-02
2.530472e+02	-1.072899e-02
2.545088e+02	-1.085313e-02
2.559789e+02	-1.097871e-02
2.574574e+02	-1.110574e-02
2.589444e+02	-1.123423e-02
2.604401e+02	-1.136421e-02
2.619444e+02	-1.149570e-02
2.634574e+02	-1.162870e-02
2.649791e+02	-1.176324e-02
2.665096e+02	-1.189933e-02
2.680489e+02	-1.203699e-02
2.695972e+02	-1.217625e-02
2.711544e+02	-1.231711e-02
2.727205e+02	-1.245961e-02
2.742958e+02	-1.260374e-02
2.758801e+02	-1.274955e-02
2.774736e+02	-1.289703e-02
2.790762e+02	-1.304622e-02
2.806882e+02	-1.319714e-02
2.823094e+02	-1.334979e-02
2.839400e+02	-1.350421e-02
2.855800e+02	-1.366041e-02
2.872295e+02	-1.381842e-02
2.888886e+02	-1.397825e-02
2.905572e+02	-1.413993e-02
2.922354e+02	-1.430347e-02
2.939234e+02	-1.446891e-02
2.956211e+02	-1.463625e-02
2.973286e+02	-1.480552e-02
2.990459e+02	-1.497675e-02
3.007732e+02	-1.514996e-02
3.025104e+02	-1.532516e-02
3.042577e+02	-1.550239e-02
3.060151e+02	-1.568166e-02
3.077826e+02	-1.586301e-02
3.095604e+02	-1.604644e-02
3.113484e+02	-1.623200e-02
3.131467e+02	-1.641969e-02
3.149554e+02	-1.660955e-02
3.167746e+02	-1.680161e-02
3.186043e+02	-1.699588e-02
3.204445e+02	-1.719239e-02
3.222954e+02	-1.739116e-02
3.241570e+02	-1.759224e-02
3.260293e+02	-1.779563e-02
3.279124e+02	-1.800136e-02
3.298064e+02	-1.820948e-02
3.317114e+02	-1.841999e-02
3.336273e+02	-1.863293e-02
3.355544e+02	-1.884833e-02
3.374925e+02	-1.906621e-02
3.394418e+02	-1.928660e-02
3.414024e+02	-1.950954e-02
3.433744e+02	-1.973505e-02
3.453577e+02	-1.996316e-02
3.473525e+02	-2.019389e-02
3.493588e+02	-2.042729e-02
3.513766e+02	-2.066338e-02
3.534062e+02	-2.090220e-02
3.554474e+02	-2.114376e-02
3.575005e+02	-2.138811e-02
3.595654e+02	-2.163528e-02
3.616422e+02	-2.188530e-02
3.637311e+02	-2.213820e-02
3.658320e+02	-2.239401e-02
3.679450e+02	-2.265277e-02
3.700702e+02	-2.291451e-02
3.722077e+02	-2.317927e-02
3.743576e+02	-2.344708e-02
3.765199e+02	-2.371798e-02
3.786946e+02	-2.399200e-02
3.808820e+02	-2.426917e-02
3.830819e+02	-2.454954e-02
3.852946e+02	-2.483314e-02
3.875200e+02	-2.512000e-02
3.897583e+02	-2.541017e-02
3.920096e+02	-2.570368e-02
3.942738e+02	-2.600056e-02
3.965511e+02	-2.630087e-02
3.988416e+02	-2.660464e-02
4.011452e+02	-2.691190e-02
4.034622e+02	-2.722270e-02
4.057926e+02	-2.753708e-02
4.081365e+02	-2.785508e-02
4.104938e+02	-2.817674e-02
4.128648e+02	-2.850210e-02
4.152495e+02	-2.883120e-02
4.176480e+02	-2.916409e-02
4.200603e+02	-2.950082e-02
4.224866e+02	-2.984141e-02
4.249268e+02	-3.018593e-02
4.273812e+02	-3.053441e-02
4.298497e+02	-3.088689e-02
4.323325e+02	-3.124344e-02
4.348297e+02	-3.160408e-02
4.373412e+02	-3.196887e-02
4.398673e+02	-3.233785e-02
4.424079e+02	-3.271108e-02
4.449633e+02	-3.308860e-02
4.475334e+02	-3.347046e-02
4.501183e+02	-3.385671e-02
4.527182e+02	-3.424739e-02
4.553330e+02	-3.464257e-02
4.579630e+02	-3.504229e-02
4.606082e+02	-3.544660e-02
4.632687e+02	-3.585556e-02
4.659445e+02	-3.626922e-02
4.686358e+02	-3.668763e-02
4.713426e+02	-3.711084e-02
4.740650e+02	-3.753892e-02
4.768032e+02	-3.797191e-02
4.795572e+02	-3.840987e-02
4.823271e+02	-3.885287e-02
4.851130e+02	-3.930094e-02
4.879150e+02	-3.975417e-02
4.907332e+02	-4.021259e-02
4.935676e+02	-4.067628e-02
4.964185e+02	-4.114528e-02
4.992858e+02	-4.161967e-02
5.021696e+02	-4.209951e-02
5.050701e+02	-4.258484e-02
5.079874e+02	-4.307575e-02
5.109215e+02	-4.357228e-02
5.138726e+02	-4.407451e-02
5.168407e+02	-4.458250e-02
5.198259e+02	-4.509631e-02
5.228284e+02	-4.561601e-02
5.258482e+02	-4.614167e-02
5.288855e+02	-4.667336e-02
5.319403e+02	-4.721114e-02
5.350128e+02	-4.775508e-02
5.381030e+02	-4.830525e-02
5.412111e+02	-4.886172e-02
5.443371e+02	-4.942457e-02
5.474812e+02	-4.999387e-02
5.506434e+02	-5.056968e-02
5.538239e+02	-5.115209e-02
5.570228e+02	-5.174116e-02
5.602401e+02	-5.233698e-02
5.634760e+02	-5.293961e-02
5.667306e+02	-5.354915e-02
5.700040e+02	-5.416565e-02
5.732964e+02	-5.478921e-02
5.766077e+02	-5.541990e-02
5.799382e+02	-5.605781e-02
5.832879e+02	-5.670301e-02
5.866569e+02	-5.735558e-02
5.900454e+02	-5.801562e-02
5.934535e+02	-5.868320e-02
5.968813e+02	-5.935840e-02
6.003288e+02	-6.004133e-02
6.037963e+02	-6.073205e-02
6.072838e+02	-6.143067e-02
6.107914e+02	-6.213726e-02
6.143194e+02	-6.285192e-02
6.178676e+02	-6.357475e-02
6.214364e+02	-6.430582e-02
6.250258e+02	-6.504524e-02
6.286359e+02	-6.579309e-02
6.322669e+02	-6.654948e-02
6.359189e+02	-6.731449e-02
6.395919e+02	-6.808823e-02
6.432862e+02	-6.887079e-02
6.470017e+02	-6.966227e-02
6.507388e+02	-7.046278e-02
6.544974e+02	-7.127241e-02
6.582778e+02	-7.209126e-02
6.620800e+02	-7.291945e-02
6.659041e+02	-7.375706e-02
6.697504e+02	-7.460422e-02
6.736188e+02	-7.546102e-02
6.775096e+02	-7.632757e-02
6.814229e+02	-7.720399e-02
6.853587e+02	-7.809038e-02
6.893173e+02	-7.898685e-02
6.932988e+02	-7.989352e-02
6.973033e+02	-8.081050e-02
7.013309e+02	-8.173790e-02
