Frequency(Hz)	Magnitude(dB)
1.000000e+01	-1.526485e-05
1.005776e+01	-1.544169e-05
1.011585e+01	-1.562059e-05
1.017428e+01	-1.580156e-05
1.023305e+01	-1.598462e-05
1.029215e+01	-1.616981e-05
1.035160e+01	-1.635714e-05
1.041139e+01	-1.654664e-05
1.047153e+01	-1.673834e-05
1.053201e+01	-1.693226e-05
1.059284e+01	-1.712842e-05
1.065403e+01	-1.732686e-05
1.071556e+01	-1.752760e-05
1.077746e+01	-1.773066e-05
1.083971e+01	-1.793607e-05
1.090232e+01	-1.814387e-05
1.096529e+01	-1.835407e-05
1.102862e+01	-1.856670e-05
1.109232e+01	-1.878180e-05
1.115639e+01	-1.899940e-05
1.122083e+01	-1.921951e-05
1.128564e+01	-1.944217e-05
1.135083e+01	-1.966742e-05
1.141639e+01	-1.989527e-05
1.148233e+01	-2.012576e-05
1.154865e+01	-2.035892e-05
1.161536e+01	-2.059478e-05
1.168245e+01	-2.083338e-05
1.174992e+01	-2.107474e-05
1.181779e+01	-2.131890e-05
1.188605e+01	-2.156588e-05
1.195470e+01	-2.181573e-05
1.202375e+01	-2.206847e-05
1.209320e+01	-2.232414e-05
1.216305e+01	-2.258277e-05
1.223330e+01	-2.284439e-05
1.230396e+01	-2.310905e-05
1.237503e+01	-2.337678e-05
1.244651e+01	-2.364760e-05
1.251840e+01	-2.392157e-05
1.259070e+01	-2.419870e-05
1.266343e+01	-2.447905e-05
1.273657e+01	-2.476265e-05
1.281014e+01	-2.504953e-05
1.288413e+01	-2.533973e-05
1.295855e+01	-2.563330e-05
1.303339e+01	-2.593027e-05
1.310867e+01	-2.623068e-05
1.318439e+01	-2.653457e-05
1.326054e+01	-2.684197e-05
1.333713e+01	-2.715295e-05
1.341417e+01	-2.746752e-05
1.349165e+01	-2.778574e-05
1.356958e+01	-2.810764e-05
1.364795e+01	-2.843327e-05
1.372678e+01	-2.876268e-05
1.380607e+01	-2.909590e-05
1.388581e+01	-2.943299e-05
1.396602e+01	-2.977398e-05
1.404668e+01	-3.011891e-05
1.412782e+01	-3.046785e-05
1.420942e+01	-3.082083e-05
1.429149e+01	-3.117789e-05
1.437404e+01	-3.153910e-05
1.445706e+01	-3.190448e-05
1.454057e+01	-3.227410e-05
1.462455e+01	-3.264801e-05
1.470902e+01	-3.302624e-05
1.479398e+01	-3.340886e-05
1.487943e+01	-3.379591e-05
1.496537e+01	-3.418744e-05
1.505181e+01	-3.458351e-05
1.513875e+01	-3.498417e-05
1.522619e+01	-3.538947e-05
1.531414e+01	-3.579947e-05
1.540259e+01	-3.621421e-05
1.549156e+01	-3.663376e-05
1.558103e+01	-3.705817e-05
1.567103e+01	-3.748750e-05
1.576155e+01	-3.792180e-05
1.585258e+01	-3.836113e-05
1.594415e+01	-3.880555e-05
1.603624e+01	-3.925513e-05
1.612886e+01	-3.970991e-05
1.622202e+01	-4.016995e-05
1.631572e+01	-4.063533e-05
1.640996e+01	-4.110610e-05
1.650474e+01	-4.158232e-05
1.660008e+01	-4.206407e-05
1.669596e+01	-4.255139e-05
1.679239e+01	-4.304435e-05
1.688938e+01	-4.354303e-05
1.698694e+01	-4.404749e-05
1.708505e+01	-4.455779e-05
1.718373e+01	-4.507400e-05
1.728299e+01	-4.559619e-05
1.738281e+01	-4.612443e-05
1.748322e+01	-4.665880e-05
1.758420e+01	-4.719935e-05
1.768576e+01	-4.774616e-05
1.778792e+01	-4.829931e-05
1.789066e+01	-4.885887e-05
1.799399e+01	-4.942491e-05
1.809793e+01	-4.999751e-05
1.820246e+01	-5.057674e-05
1.830760e+01	-5.116268e-05
1.841334e+01	-5.175541e-05
1.851969e+01	-5.235501e-05
1.862666e+01	-5.296155e-05
1.873425e+01	-5.357512e-05
1.884246e+01	-5.419580e-05
1.895129e+01	-5.482367e-05
1.906075e+01	-5.545882e-05
1.917085e+01	-5.610132e-05
1.928158e+01	-5.675126e-05
1.939295e+01	-5.740874e-05
1.950496e+01	-5.807383e-05
1.961762e+01	-5.874663e-05
1.973093e+01	-5.942722e-05
1.984490e+01	-6.011570e-05
1.995952e+01	-6.081215e-05
2.007480e+01	-6.151667e-05
2.019076e+01	-6.222935e-05
2.030738e+01	-6.295029e-05
2.042467e+01	-6.367958e-05
2.054264e+01	-6.441732e-05
2.066130e+01	-6.516361e-05
2.078064e+01	-6.591854e-05
2.090066e+01	-6.668222e-05
2.102139e+01	-6.745475e-05
2.114280e+01	-6.823622e-05
2.126492e+01	-6.902675e-05
2.138775e+01	-6.982644e-05
2.151128e+01	-7.063539e-05
2.163553e+01	-7.145372e-05
2.176050e+01	-7.228152e-05
2.188619e+01	-7.311892e-05
2.201260e+01	-7.396601e-05
2.213974e+01	-7.482292e-05
2.226762e+01	-7.568976e-05
2.239624e+01	-7.656664e-05
2.252560e+01	-7.745368e-05
2.265571e+01	-7.835099e-05
2.278656e+01	-7.925870e-05
2.291818e+01	-8.017693e-05
2.305055e+01	-8.110579e-05
2.318369e+01	-8.204541e-05
2.331760e+01	-8.299592e-05
2.345228e+01	-8.395744e-05
2.358774e+01	-8.493011e-05
2.372398e+01	-8.591403e-05
2.386101e+01	-8.690936e-05
2.399883e+01	-8.791622e-05
2.413745e+01	-8.893475e-05
2.427686e+01	-8.996507e-05
2.441709e+01	-9.100733e-05
2.455812e+01	-9.206166e-05
2.469997e+01	-9.312821e-05
2.484263e+01	-9.420712e-05
2.498612e+01	-9.529852e-05
2.513044e+01	-9.640257e-05
2.527559e+01	-9.751941e-05
2.542158e+01	-9.864918e-05
2.556842e+01	-9.979205e-05
2.571610e+01	-1.009482e-04
2.586463e+01	-1.021177e-04
2.601403e+01	-1.033007e-04
2.616428e+01	-1.044975e-04
2.631541e+01	-1.057081e-04
2.646740e+01	-1.069327e-04
2.662028e+01	-1.081715e-04
2.677404e+01	-1.094247e-04
2.692868e+01	-1.106924e-04
2.708422e+01	-1.119748e-04
2.724066e+01	-1.132721e-04
2.739800e+01	-1.145843e-04
2.755625e+01	-1.159118e-04
2.771541e+01	-1.172546e-04
2.787550e+01	-1.186131e-04
2.803650e+01	-1.199872e-04
2.819844e+01	-1.213773e-04
2.836131e+01	-1.227834e-04
2.852513e+01	-1.242059e-04
2.868989e+01	-1.256448e-04
2.885560e+01	-1.271004e-04
2.902227e+01	-1.285729e-04
2.918990e+01	-1.300625e-04
2.935850e+01	-1.315692e-04
2.952807e+01	-1.330935e-04
2.969863e+01	-1.346354e-04
2.987016e+01	-1.361951e-04
3.004269e+01	-1.377730e-04
3.021622e+01	-1.393691e-04
3.039075e+01	-1.409837e-04
3.056628e+01	-1.426170e-04
3.074283e+01	-1.442692e-04
3.092040e+01	-1.459406e-04
3.109900e+01	-1.476313e-04
3.127862e+01	-1.493417e-04
3.145929e+01	-1.510718e-04
3.164099e+01	-1.528220e-04
3.182375e+01	-1.545924e-04
3.200756e+01	-1.563834e-04
3.219244e+01	-1.581951e-04
3.237838e+01	-1.600278e-04
3.256540e+01	-1.618817e-04
3.275349e+01	-1.637571e-04
3.294268e+01	-1.656543e-04
3.313295e+01	-1.675734e-04
3.332433e+01	-1.695147e-04
3.351681e+01	-1.714786e-04
3.371040e+01	-1.734652e-04
3.390511e+01	-1.754748e-04
3.410094e+01	-1.775077e-04
3.429791e+01	-1.795641e-04
3.449601e+01	-1.816443e-04
3.469526e+01	-1.837487e-04
3.489566e+01	-1.858774e-04
3.509721e+01	-1.880308e-04
3.529993e+01	-1.902092e-04
3.550382e+01	-1.924127e-04
3.570889e+01	-1.946419e-04
3.591515e+01	-1.968968e-04
3.612259e+01	-1.991778e-04
3.633123e+01	-2.014853e-04
3.654108e+01	-2.038195e-04
3.675214e+01	-2.061808e-04
3.696442e+01	-2.085694e-04
3.717792e+01	-2.109857e-04
3.739266e+01	-2.134299e-04
3.760864e+01	-2.159025e-04
3.782587e+01	-2.184037e-04
3.804435e+01	-2.209339e-04
3.826409e+01	-2.234935e-04
3.848510e+01	-2.260826e-04
3.870739e+01	-2.287018e-04
3.893096e+01	-2.313513e-04
3.915583e+01	-2.340315e-04
3.938199e+01	-2.367427e-04
3.960946e+01	-2.394854e-04
3.983824e+01	-2.422598e-04
4.006834e+01	-2.450664e-04
4.029978e+01	-2.479055e-04
4.053255e+01	-2.507774e-04
4.076666e+01	-2.536827e-04
4.100213e+01	-2.566216e-04
4.123896e+01	-2.595945e-04
4.147715e+01	-2.626019e-04
4.171672e+01	-2.656441e-04
4.195767e+01	-2.687216e-04
4.220002e+01	-2.718347e-04
4.244377e+01	-2.749839e-04
4.268892e+01	-2.781695e-04
4.293549e+01	-2.813921e-04
4.318348e+01	-2.846520e-04
4.343291e+01	-2.879497e-04
4.368377e+01	-2.912855e-04
4.393609e+01	-2.946600e-04
4.418986e+01	-2.980736e-04
4.444510e+01	-3.015268e-04
4.470182e+01	-3.050199e-04
4.496001e+01	-3.085536e-04
4.521970e+01	-3.121281e-04
4.548089e+01	-3.157441e-04
4.574358e+01	-3.194019e-04
4.600779e+01	-3.231021e-04
4.627353e+01	-3.268452e-04
4.654081e+01	-3.306317e-04
4.680963e+01	-3.344620e-04
4.708000e+01	-3.383367e-04
4.735193e+01	-3.422562e-04
4.762543e+01	-3.462212e-04
4.790051e+01	-3.502321e-04
4.817719e+01	-3.542895e-04
4.845545e+01	-3.583939e-04
4.873533e+01	-3.625458e-04
4.901682e+01	-3.667458e-04
4.929994e+01	-3.709945e-04
4.958470e+01	-3.752924e-04
4.987110e+01	-3.796400e-04
5.015915e+01	-3.840381e-04
5.044887e+01	-3.884871e-04
5.074026e+01	-3.929876e-04
5.103333e+01	-3.975403e-04
5.132810e+01	-4.021457e-04
5.162457e+01	-4.068044e-04
5.192275e+01	-4.115171e-04
5.222265e+01	-4.162844e-04
5.252429e+01	-4.211070e-04
5.282767e+01	-4.259854e-04
5.313280e+01	-4.309203e-04
5.343969e+01	-4.359124e-04
5.374836e+01	-4.409623e-04
5.405880e+01	-4.460707e-04
5.437105e+01	-4.512383e-04
5.468509e+01	-4.564657e-04
5.500095e+01	-4.617537e-04
5.531863e+01	-4.671030e-04
5.563815e+01	-4.725142e-04
5.595951e+01	-4.779881e-04
5.628273e+01	-4.835254e-04
5.660782e+01	-4.891269e-04
5.693479e+01	-4.947932e-04
5.726364e+01	-5.005252e-04
5.759439e+01	-5.063236e-04
5.792705e+01	-5.121891e-04
5.826164e+01	-5.181226e-04
5.859815e+01	-5.241249e-04
5.893662e+01	-5.301966e-04
5.927703e+01	-5.363387e-04
5.961941e+01	-5.425520e-04
5.996377e+01	-5.488372e-04
6.031012e+01	-5.551952e-04
6.065847e+01	-5.616269e-04
6.100883e+01	-5.681331e-04
6.136121e+01	-5.747146e-04
6.171563e+01	-5.813724e-04
6.207210e+01	-5.881073e-04
6.243063e+01	-5.949202e-04
6.279122e+01	-6.018121e-04
6.315390e+01	-6.087837e-04
6.351868e+01	-6.158362e-04
6.388556e+01	-6.229703e-04
6.425456e+01	-6.301870e-04
6.462569e+01	-6.374874e-04
6.499897e+01	-6.448723e-04
6.537440e+01	-6.523428e-04
6.575200e+01	-6.598998e-04
6.613178e+01	-6.675443e-04
6.651375e+01	-6.752774e-04
6.689793e+01	-6.831000e-04
6.728433e+01	-6.910133e-04
6.767297e+01	-6.990182e-04
6.806384e+01	-7.071159e-04
6.845698e+01	-7.153074e-04
6.885238e+01	-7.235937e-04
6.925007e+01	-7.319760e-04
6.965005e+01	-7.404554e-04
7.005235e+01	-7.490331e-04
7.045697e+01	-7.577101e-04
7.086393e+01	-7.664876e-04
7.127323e+01	-7.753668e-04
7.168490e+01	-7.843488e-04
7.209895e+01	-7.934349e-04
7.251539e+01	-8.026262e-04
7.293424e+01	-8.119239e-04
7.335551e+01	-8.213294e-04
7.377920e+01	-8.308438e-04
7.420535e+01	-8.404685e-04
7.463396e+01	-8.502046e-04
7.506504e+01	-8.600534e-04
7.549861e+01	-8.700164e-04
7.593469e+01	-8.800947e-04
7.637328e+01	-8.902898e-04
7.681441e+01	-9.006030e-04
7.725809e+01	-9.110357e-04
7.770433e+01	-9.215891e-04
7.815315e+01	-9.322649e-04
7.860456e+01	-9.430642e-04
7.905857e+01	-9.539887e-04
7.951521e+01	-9.650397e-04
7.997449e+01	-9.762187e-04
8.043642e+01	-9.875271e-04
8.090102e+01	-9.989666e-04
8.136830e+01	-1.010539e-03
8.183828e+01	-1.022245e-03
8.231097e+01	-1.034086e-03
8.278640e+01	-1.046065e-03
8.326457e+01	-1.058182e-03
8.374550e+01	-1.070440e-03
8.422921e+01	-1.082840e-03
8.471572e+01	-1.095383e-03
8.520503e+01	-1.108072e-03
8.569717e+01	-1.120908e-03
8.619215e+01	-1.133892e-03
8.669000e+01	-1.147027e-03
8.719071e+01	-1.160314e-03
8.769432e+01	-1.173754e-03
8.820084e+01	-1.187351e-03
8.871029e+01	-1.201105e-03
8.922267e+01	-1.215018e-03
8.973802e+01	-1.229092e-03
9.025634e+01	-1.243329e-03
9.077766e+01	-1.257732e-03
9.130199e+01	-1.272301e-03
9.182935e+01	-1.287038e-03
9.235975e+01	-1.301947e-03
9.289321e+01	-1.317028e-03
9.342976e+01	-1.332284e-03
9.396941e+01	-1.347716e-03
9.451217e+01	-1.363327e-03
9.505807e+01	-1.379119e-03
9.560712e+01	-1.395094e-03
9.615934e+01	-1.411254e-03
9.671476e+01	-1.427601e-03
9.727338e+01	-1.444138e-03
9.783522e+01	-1.460866e-03
9.840032e+01	-1.477787e-03
9.896867e+01	-1.494905e-03
9.954031e+01	-1.512221e-03
1.001153e+02	-1.529737e-03
1.006935e+02	-1.547456e-03
1.012751e+02	-1.565381e-03
1.018601e+02	-1.583513e-03
1.024484e+02	-1.601855e-03
1.030402e+02	-1.620409e-03
1.036353e+02	-1.639179e-03
1.042339e+02	-1.658165e-03
1.048360e+02	-1.677372e-03
1.054415e+02	-1.696801e-03
1.060505e+02	-1.716455e-03
1.066631e+02	-1.736337e-03
1.072791e+02	-1.756449e-03
1.078988e+02	-1.776793e-03
1.085220e+02	-1.797374e-03
1.091488e+02	-1.818192e-03
1.097793e+02	-1.839252e-03
1.104133e+02	-1.860556e-03
1.110511e+02	-1.882106e-03
1.116925e+02	-1.903906e-03
1.123376e+02	-1.925958e-03
1.129865e+02	-1.948266e-03
1.136391e+02	-1.970832e-03
1.142955e+02	-1.993660e-03
1.149556e+02	-2.016751e-03
1.156196e+02	-2.040110e-03
1.162874e+02	-2.063740e-03
1.169591e+02	-2.087643e-03
1.176347e+02	-2.111823e-03
1.183141e+02	-2.136283e-03
1.189975e+02	-2.161027e-03
1.196848e+02	-2.186056e-03
1.203761e+02	-2.211376e-03
1.210714e+02	-2.236989e-03
1.217707e+02	-2.262898e-03
1.224740e+02	-2.289107e-03
1.231814e+02	-2.315620e-03
1.238929e+02	-2.342440e-03
1.246085e+02	-2.369570e-03
1.253283e+02	-2.397015e-03
1.260522e+02	-2.424777e-03
1.267802e+02	-2.452861e-03
1.275125e+02	-2.481270e-03
1.282490e+02	-2.510008e-03
1.289898e+02	-2.539078e-03
1.297348e+02	-2.568486e-03
1.304842e+02	-2.598233e-03
1.312378e+02	-2.628325e-03
1.319959e+02	-2.658766e-03
1.327583e+02	-2.689559e-03
1.335251e+02	-2.720708e-03
1.342963e+02	-2.752218e-03
1.350720e+02	-2.784093e-03
1.358522e+02	-2.816337e-03
1.366368e+02	-2.848955e-03
1.374260e+02	-2.881950e-03
1.382198e+02	-2.915326e-03
1.390182e+02	-2.949090e-03
1.398211e+02	-2.983244e-03
1.406287e+02	-3.017794e-03
1.414410e+02	-3.052743e-03
1.422579e+02	-3.088098e-03
1.430796e+02	-3.123861e-03
1.439060e+02	-3.160039e-03
1.447372e+02	-3.196635e-03
1.455732e+02	-3.233655e-03
1.464141e+02	-3.271104e-03
1.472597e+02	-3.308986e-03
1.481103e+02	-3.347307e-03
1.489658e+02	-3.386071e-03
1.498262e+02	-3.425284e-03
1.506916e+02	-3.464951e-03
1.515620e+02	-3.505077e-03
1.524374e+02	-3.545668e-03
1.533179e+02	-3.586728e-03
1.542034e+02	-3.628264e-03
1.550941e+02	-3.670280e-03
1.559899e+02	-3.712783e-03
1.568909e+02	-3.755778e-03
1.577971e+02	-3.799271e-03
1.587085e+02	-3.843267e-03
1.596252e+02	-3.887772e-03
1.605472e+02	-3.932793e-03
1.614745e+02	-3.978334e-03
1.624072e+02	-4.024403e-03
1.633453e+02	-4.071005e-03
1.642887e+02	-4.118146e-03
1.652377e+02	-4.165833e-03
1.661921e+02	-4.214072e-03
1.671520e+02	-4.262869e-03
1.681175e+02	-4.312231e-03
1.690885e+02	-4.362164e-03
1.700651e+02	-4.412675e-03
1.710474e+02	-4.463771e-03
1.720354e+02	-4.515458e-03
1.730291e+02	-4.567743e-03
1.740285e+02	-4.620633e-03
1.750337e+02	-4.674135e-03
1.760446e+02	-4.728257e-03
1.770615e+02	-4.783005e-03
1.780842e+02	-4.838386e-03
1.791128e+02	-4.894408e-03
1.801473e+02	-4.951079e-03
1.811878e+02	-5.008405e-03
1.822344e+02	-5.066395e-03
1.832870e+02	-5.125056e-03
1.843456e+02	-5.184396e-03
1.854104e+02	-5.244422e-03
1.864813e+02	-5.305143e-03
1.875584e+02	-5.366566e-03
1.886418e+02	-5.428700e-03
1.897313e+02	-5.491553e-03
1.908272e+02	-5.555133e-03
1.919294e+02	-5.619449e-03
1.930380e+02	-5.684509e-03
1.941530e+02	-5.750322e-03
1.952744e+02	-5.816896e-03
1.964023e+02	-5.884241e-03
1.975367e+02	-5.952365e-03
1.986777e+02	-6.021276e-03
1.998252e+02	-6.090985e-03
2.009794e+02	-6.161501e-03
2.021403e+02	-6.232832e-03
2.033078e+02	-6.304988e-03
2.044821e+02	-6.377979e-03
2.056632e+02	-6.451815e-03
2.068511e+02	-6.526505e-03
2.080459e+02	-6.602058e-03
2.092475e+02	-6.678486e-03
2.104561e+02	-6.755797e-03
2.116717e+02	-6.834003e-03
2.128943e+02	-6.913114e-03
2.141240e+02	-6.993139e-03
2.153608e+02	-7.074091e-03
2.166047e+02	-7.155978e-03
2.178558e+02	-7.238813e-03
2.191141e+02	-7.322605e-03
2.203797e+02	-7.407367e-03
2.216526e+02	-7.493109e-03
2.229329e+02	-7.579842e-03
2.242205e+02	-7.667579e-03
2.255156e+02	-7.756330e-03
2.268182e+02	-7.846108e-03
2.281283e+02	-7.936924e-03
2.294459e+02	-8.028790e-03
2.307712e+02	-8.121718e-03
2.321041e+02	-8.215721e-03
2.334447e+02	-8.310811e-03
2.347931e+02	-8.407001e-03
2.361493e+02	-8.504302e-03
2.375133e+02	-8.602729e-03
2.388851e+02	-8.702294e-03
2.402649e+02	-8.803009e-03
2.416527e+02	-8.904890e-03
2.430484e+02	-9.007948e-03
2.444523e+02	-9.112197e-03
2.458642e+02	-9.217652e-03
2.472843e+02	-9.324326e-03
2.487126e+02	-9.432233e-03
2.501492e+02	-9.541387e-03
2.515940e+02	-9.651803e-03
2.530472e+02	-9.763496e-03
2.545088e+02	-9.876480e-03
2.559789e+02	-9.990769e-03
2.574574e+02	-1.010638e-02
2.589444e+02	-1.022333e-02
2.604401e+02	-1.034162e-02
2.619444e+02	-1.046129e-02
2.634574e+02	-1.058234e-02
2.649791e+02	-1.070479e-02
2.665096e+02	-1.082865e-02
2.680489e+02	-1.095394e-02
2.695972e+02	-1.108068e-02
2.711544e+02	-1.120889e-02
2.727205e+02	-1.133858e-02
2.742958e+02	-1.146977e-02
2.758801e+02	-1.160247e-02
2.774736e+02	-1.173670e-02
2.790762e+02	-1.187249e-02
2.806882e+02	-1.200984e-02
2.823094e+02	-1.214879e-02
2.839400e+02	-1.228933e-02
2.855800e+02	-1.243150e-02
2.872295e+02	-1.257532e-02
2.888886e+02	-1.272079e-02
2.905572e+02	-1.286794e-02
2.922354e+02	-1.301680e-02
2.939234e+02	-1.316737e-02
2.956211e+02	-1.331969e-02
2.973286e+02	-1.347376e-02
2.990459e+02	-1.362961e-02
3.007732e+02	-1.378726e-02
3.025104e+02	-1.394673e-02
3.042577e+02	-1.410804e-02
3.060151e+02	-1.427122e-02
3.077826e+02	-1.443628e-02
3.095604e+02	-1.460325e-02
3.113484e+02	-1.477214e-02
3.131467e+02	-1.494298e-02
3.149554e+02	-1.511580e-02
3.167746e+02	-1.529061e-02
3.186043e+02	-1.546744e-02
3.204445e+02	-1.564631e-02
3.222954e+02	-1.582724e-02
3.241570e+02	-1.601027e-02
3.260293e+02	-1.619540e-02
3.279124e+02	-1.638268e-02
3.298064e+02	-1.657211e-02
3.317114e+02	-1.676373e-02
3.336273e+02	-1.695756e-02
3.355544e+02	-1.715363e-02
3.374925e+02	-1.735196e-02
3.394418e+02	-1.755258e-02
3.414024e+02	-1.775552e-02
3.433744e+02	-1.796079e-02
3.453577e+02	-1.816843e-02
3.473525e+02	-1.837847e-02
3.493588e+02	-1.859094e-02
3.513766e+02	-1.880585e-02
3.534062e+02	-1.902324e-02
3.554474e+02	-1.924314e-02
3.575005e+02	-1.946557e-02
3.595654e+02	-1.969058e-02
3.616422e+02	-1.991817e-02
3.637311e+02	-2.014839e-02
3.658320e+02	-2.038127e-02
3.679450e+02	-2.061683e-02
3.700702e+02	-2.085510e-02
3.722077e+02	-2.109612e-02
3.743576e+02	-2.133993e-02
3.765199e+02	-2.158654e-02
3.786946e+02	-2.183599e-02
3.808820e+02	-2.208832e-02
3.830819e+02	-2.234356e-02
3.852946e+02	-2.260174e-02
3.875200e+02	-2.286290e-02
3.897583e+02	-2.312706e-02
3.920096e+02	-2.339427e-02
3.942738e+02	-2.366456e-02
3.965511e+02	-2.393796e-02
3.988416e+02	-2.421451e-02
4.011452e+02	-2.449425e-02
4.034622e+02	-2.477721e-02
4.057926e+02	-2.506343e-02
4.081365e+02	-2.535295e-02
4.104938e+02	-2.564580e-02
4.128648e+02	-2.594202e-02
4.152495e+02	-2.624165e-02
4.176480e+02	-2.654474e-02
4.200603e+02	-2.685131e-02
4.224866e+02	-2.716142e-02
4.249268e+02	-2.747509e-02
4.273812e+02	-2.779237e-02
4.298497e+02	-2.811331e-02
4.323325e+02	-2.843794e-02
4.348297e+02	-2.876631e-02
4.373412e+02	-2.909845e-02
4.398673e+02	-2.943442e-02
4.424079e+02	-2.977425e-02
4.449633e+02	-3.011799e-02
4.475334e+02	-3.046569e-02
4.501183e+02	-3.081739e-02
4.527182e+02	-3.117313e-02
4.553330e+02	-3.153297e-02
4.579630e+02	-3.189694e-02
4.606082e+02	-3.226510e-02
4.632687e+02	-3.263749e-02
4.659445e+02	-3.301416e-02
4.686358e+02	-3.339516e-02
4.713426e+02	-3.378054e-02
4.740650e+02	-3.417036e-02
4.768032e+02	-3.456465e-02
4.795572e+02	-3.496347e-02
4.823271e+02	-3.536688e-02
4.851130e+02	-3.577492e-02
4.879150e+02	-3.618765e-02
4.907332e+02	-3.660513e-02
4.935676e+02	-3.702739e-02
4.964185e+02	-3.745451e-02
4.992858e+02	-3.788653e-02
5.021696e+02	-3.832352e-02
5.050701e+02	-3.876552e-02
5.079874e+02	-3.921260e-02
5.109215e+02	-3.966480e-02
5.138726e+02	-4.012220e-02
5.168407e+02	-4.058485e-02
5.198259e+02	-4.105281e-02
5.228284e+02	-4.152614e-02
5.258482e+02	-4.200490e-02
5.288855e+02	-4.248915e-02
5.319403e+02	-4.297896e-02
5.350128e+02	-4.347438e-02
5.381030e+02	-4.397549e-02
5.412111e+02	-4.448234e-02
5.443371e+02	-4.499501e-02
5.474812e+02	-4.551355e-02
5.506434e+02	-4.603804e-02
5.538239e+02	-4.656853e-02
5.570228e+02	-4.710511e-02
5.602401e+02	-4.764784e-02
5.634760e+02	-4.819678e-02
5.667306e+02	-4.875201e-02
5.700040e+02	-4.931361e-02
5.732964e+02	-4.988163e-02
5.766077e+02	-5.045616e-02
5.799382e+02	-5.103727e-02
5.832879e+02	-5.162503e-02
5.866569e+02	-5.221951e-02
5.900454e+02	-5.282081e-02
5.934535e+02	-5.342898e-02
5.968813e+02	-5.404411e-02
6.003288e+02	-5.466628e-02
6.037963e+02	-5.529557e-02
6.072838e+02	-5.593205e-02
6.107914e+02	-5.657581e-02
6.143194e+02	-5.722693e-02
6.178676e+02	-5.788550e-02
6.214364e+02	-5.855159e-02
6.250258e+02	-5.922530e-02
6.286359e+02	-5.990670e-02
6.322669e+02	-6.059589e-02
6.359189e+02	-6.129295e-02
6.395919e+02	-6.199797e-02
6.432862e+02	-6.271105e-02
6.470017e+02	-6.343226e-02
6.507388e+02	-6.416171e-02
6.544974e+02	-6.489948e-02
6.582778e+02	-6.564567e-02
6.620800e+02	-6.640038e-02
6.659041e+02	-6.716369e-02
6.697504e+02	-6.793571e-02
6.736188e+02	-6.871653e-02
6.775096e+02	-6.950626e-02
6.814229e+02	-7.030499e-02
6.853587e+02	-7.111282e-02
6.893173e+02	-7.192986e-02
6.932988e+02	-7.275620e-02
6.973033e+02	-7.359196e-02
7.013309e+02	-7.443724e-02
