Frequency(Hz)	Magnitude(dB)
1.000000e+01	-1.933653e+00
1.005776e+01	-1.951434e+00
1.011585e+01	-1.969478e+00
1.017428e+01	-1.987805e+00
1.023305e+01	-2.006653e+00
1.029215e+01	-2.024813e+00
1.035160e+01	-2.043770e+00
1.041139e+01	-2.062635e+00
1.047153e+01	-2.081653e+00
1.053201e+01	-2.100827e+00
1.059284e+01	-2.119899e+00
1.065403e+01	-2.139309e+00
1.071556e+01	-2.158879e+00
1.077746e+01	-2.178589e+00
1.083971e+01	-2.198234e+00
1.090232e+01	-2.218323e+00
1.096529e+01	-2.238363e+00
1.102862e+01	-2.258764e+00
1.109232e+01	-2.278934e+00
1.115639e+01	-2.299427e+00
1.122083e+01	-2.320056e+00
1.128564e+01	-2.340911e+00
1.135083e+01	-2.361773e+00
1.141639e+01	-2.382582e+00
1.148233e+01	-2.403824e+00
1.154865e+01	-2.425656e+00
1.161536e+01	-2.446885e+00
1.168245e+01	-2.468403e+00
1.174992e+01	-2.490192e+00
1.181779e+01	-2.512271e+00
1.188605e+01	-2.534115e+00
1.195470e+01	-2.556023e+00
1.202375e+01	-2.578599e+00
1.209320e+01	-2.601165e+00
1.216305e+01	-2.623797e+00
1.223330e+01	-2.646448e+00
1.230396e+01	-2.669324e+00
1.237503e+01	-2.692044e+00
1.244651e+01	-2.715489e+00
1.251840e+01	-2.739055e+00
1.259070e+01	-2.762524e+00
1.266343e+01	-2.786002e+00
1.273657e+01	-2.809655e+00
1.281014e+01	-2.833827e+00
1.288413e+01	-2.857632e+00
1.295855e+01	-2.881865e+00
1.303339e+01	-2.906347e+00
1.310867e+01	-2.930824e+00
1.318439e+01	-2.955403e+00
1.326054e+01	-2.979916e+00
1.333713e+01	-3.004968e+00
1.341417e+01	-3.029790e+00
1.349165e+01	-3.055286e+00
1.356958e+01	-3.080516e+00
1.364795e+01	-3.106067e+00
1.372678e+01	-3.131913e+00
1.380607e+01	-3.157428e+00
1.388581e+01	-3.183150e+00
1.396602e+01	-3.209626e+00
1.404668e+01	-3.235903e+00
1.412782e+01	-3.262068e+00
1.420942e+01	-3.288417e+00
1.429149e+01	-3.315110e+00
1.437404e+01	-3.342017e+00
1.445706e+01	-3.368802e+00
1.454057e+01	-3.395941e+00
1.462455e+01	-3.423272e+00
1.470902e+01	-3.450604e+00
1.479398e+01	-3.477991e+00
1.487943e+01	-3.505722e+00
1.496537e+01	-3.533350e+00
1.505181e+01	-3.561145e+00
1.513875e+01	-3.589371e+00
1.522619e+01	-3.617408e+00
1.531414e+01	-3.645953e+00
1.540259e+01	-3.674325e+00
1.549156e+01	-3.702920e+00
1.558103e+01	-3.732190e+00
1.567103e+01	-3.760797e+00
1.576155e+01	-3.789930e+00
1.585258e+01	-3.818931e+00
1.594415e+01	-3.848196e+00
1.603624e+01	-3.877759e+00
1.612886e+01	-3.907359e+00
1.622202e+01	-3.937089e+00
1.631572e+01	-3.967212e+00
1.640996e+01	-3.997258e+00
1.650474e+01	-4.027267e+00
1.660008e+01	-4.057667e+00
1.669596e+01	-4.088023e+00
1.679239e+01	-4.118611e+00
1.688938e+01	-4.149365e+00
1.698694e+01	-4.180008e+00
1.708505e+01	-4.211110e+00
1.718373e+01	-4.242430e+00
1.728299e+01	-4.273678e+00
1.738281e+01	-4.304975e+00
1.748322e+01	-4.336406e+00
1.758420e+01	-4.368161e+00
1.768576e+01	-4.399771e+00
1.778792e+01	-4.431881e+00
1.789066e+01	-4.463858e+00
1.799399e+01	-4.496162e+00
1.809793e+01	-4.528413e+00
1.820246e+01	-4.560831e+00
1.830760e+01	-4.593550e+00
1.841334e+01	-4.626073e+00
1.851969e+01	-4.658838e+00
1.862666e+01	-4.691778e+00
1.873425e+01	-4.724986e+00
1.884246e+01	-4.758079e+00
1.895129e+01	-4.791734e+00
1.906075e+01	-4.825293e+00
1.917085e+01	-4.858773e+00
1.928158e+01	-4.892613e+00
1.939295e+01	-4.926406e+00
1.950496e+01	-4.960668e+00
1.961762e+01	-4.994709e+00
1.973093e+01	-5.028910e+00
1.984490e+01	-5.063049e+00
1.995952e+01	-5.097557e+00
2.007480e+01	-5.132292e+00
2.019076e+01	-5.166847e+00
2.030738e+01	-5.201861e+00
2.042467e+01	-5.236890e+00
2.054264e+01	-5.272141e+00
2.066130e+01	-5.307035e+00
2.078064e+01	-5.342397e+00
2.090066e+01	-5.378110e+00
2.102139e+01	-5.413510e+00
2.114280e+01	-5.449325e+00
2.126492e+01	-5.485032e+00
2.138775e+01	-5.520891e+00
2.151128e+01	-5.557571e+00
2.163553e+01	-5.593080e+00
2.176050e+01	-5.629431e+00
2.188619e+01	-5.665751e+00
2.201260e+01	-5.702130e+00
2.213974e+01	-5.739447e+00
2.226762e+01	-5.775631e+00
2.239624e+01	-5.812959e+00
2.252560e+01	-5.849730e+00
2.265571e+01	-5.886711e+00
2.278656e+01	-5.923750e+00
2.291818e+01	-5.961403e+00
2.305055e+01	-5.998478e+00
2.318369e+01	-6.035952e+00
2.331760e+01	-6.073536e+00
2.345228e+01	-6.111406e+00
2.358774e+01	-6.149338e+00
2.372398e+01	-6.187162e+00
2.386101e+01	-6.225405e+00
2.399883e+01	-6.263283e+00
2.413745e+01	-6.301806e+00
2.427686e+01	-6.339804e+00
2.441709e+01	-6.378567e+00
2.455812e+01	-6.417031e+00
2.469997e+01	-6.455516e+00
2.484263e+01	-6.494688e+00
2.498612e+01	-6.533449e+00
2.513044e+01	-6.572326e+00
2.527559e+01	-6.610853e+00
2.542158e+01	-6.650560e+00
2.556842e+01	-6.689933e+00
2.571610e+01	-6.729210e+00
2.586463e+01	-6.768480e+00
2.601403e+01	-6.808310e+00
2.616428e+01	-6.847478e+00
2.631541e+01	-6.887053e+00
2.646740e+01	-6.927607e+00
2.662028e+01	-6.967180e+00
2.677404e+01	-7.007189e+00
2.692868e+01	-7.047291e+00
2.708422e+01	-7.087790e+00
2.724066e+01	-7.128090e+00
2.739800e+01	-7.167953e+00
2.755625e+01	-7.208329e+00
2.771541e+01	-7.249443e+00
2.787550e+01	-7.289666e+00
2.803650e+01	-7.330603e+00
2.819844e+01	-7.371567e+00
2.836131e+01	-7.412217e+00
2.852513e+01	-7.453507e+00
2.868989e+01	-7.494753e+00
2.885560e+01	-7.535477e+00
2.902227e+01	-7.576795e+00
2.918990e+01	-7.618301e+00
2.935850e+01	-7.659594e+00
2.952807e+01	-7.701045e+00
2.969863e+01	-7.742616e+00
2.987016e+01	-7.784236e+00
3.004269e+01	-7.825806e+00
3.021622e+01	-7.867677e+00
3.039075e+01	-7.909584e+00
3.056628e+01	-7.951418e+00
3.074283e+01	-7.993539e+00
3.092040e+01	-8.035731e+00
3.109900e+01	-8.077661e+00
3.127862e+01	-8.120203e+00
3.145929e+01	-8.162607e+00
3.164099e+01	-8.205183e+00
3.182375e+01	-8.247663e+00
3.200756e+01	-8.289884e+00
3.219244e+01	-8.332624e+00
3.237838e+01	-8.375601e+00
3.256540e+01	-8.417881e+00
3.275349e+01	-8.461152e+00
3.294268e+01	-8.503993e+00
3.313295e+01	-8.547137e+00
3.332433e+01	-8.589889e+00
3.351681e+01	-8.633160e+00
3.371040e+01	-8.676514e+00
3.390511e+01	-8.719720e+00
3.410094e+01	-8.763220e+00
3.429791e+01	-8.806711e+00
3.449601e+01	-8.849857e+00
3.469526e+01	-8.893260e+00
3.489566e+01	-8.937577e+00
3.509721e+01	-8.980820e+00
3.529993e+01	-9.024478e+00
3.550382e+01	-9.068111e+00
3.570889e+01	-9.111959e+00
3.591515e+01	-9.156100e+00
3.612259e+01	-9.199571e+00
3.633123e+01	-9.244145e+00
3.654108e+01	-9.288735e+00
3.675214e+01	-9.332287e+00
3.696442e+01	-9.376438e+00
3.717792e+01	-9.421122e+00
3.739266e+01	-9.465550e+00
3.760864e+01	-9.509463e+00
3.782587e+01	-9.554100e+00
3.804435e+01	-9.598660e+00
3.826409e+01	-9.643591e+00
3.848510e+01	-9.687630e+00
3.870739e+01	-9.732030e+00
3.893096e+01	-9.777602e+00
3.915583e+01	-9.822001e+00
3.938199e+01	-9.867107e+00
3.960946e+01	-9.911456e+00
3.983824e+01	-9.956855e+00
4.006834e+01	-1.000200e+01
4.029978e+01	-1.004683e+01
4.053255e+01	-1.009154e+01
4.076666e+01	-1.013699e+01
4.100213e+01	-1.018333e+01
4.123896e+01	-1.022723e+01
4.147715e+01	-1.027281e+01
4.171672e+01	-1.031778e+01
4.195767e+01	-1.036358e+01
4.220002e+01	-1.040932e+01
4.244377e+01	-1.045444e+01
4.268892e+01	-1.050012e+01
4.293549e+01	-1.054584e+01
4.318348e+01	-1.059106e+01
4.343291e+01	-1.063713e+01
4.368377e+01	-1.068242e+01
4.393609e+01	-1.072811e+01
4.418986e+01	-1.077350e+01
4.444510e+01	-1.081995e+01
4.470182e+01	-1.086623e+01
4.496001e+01	-1.091206e+01
4.521970e+01	-1.095769e+01
4.548089e+01	-1.100453e+01
4.574358e+01	-1.104997e+01
4.600779e+01	-1.109607e+01
4.627353e+01	-1.114255e+01
4.654081e+01	-1.118895e+01
4.680963e+01	-1.123461e+01
4.708000e+01	-1.128176e+01
4.735193e+01	-1.132817e+01
4.762543e+01	-1.137380e+01
4.790051e+01	-1.142019e+01
4.817719e+01	-1.146620e+01
4.845545e+01	-1.151337e+01
4.873533e+01	-1.155958e+01
4.901682e+01	-1.160595e+01
4.929994e+01	-1.165290e+01
4.958470e+01	-1.169889e+01
4.987110e+01	-1.174578e+01
5.015915e+01	-1.179278e+01
5.044887e+01	-1.184009e+01
5.074026e+01	-1.188623e+01
5.103333e+01	-1.193318e+01
5.132810e+01	-1.198021e+01
5.162457e+01	-1.202702e+01
5.192275e+01	-1.207384e+01
5.222265e+01	-1.211974e+01
5.252429e+01	-1.216703e+01
5.282767e+01	-1.221458e+01
5.313280e+01	-1.226165e+01
5.343969e+01	-1.230900e+01
5.374836e+01	-1.235566e+01
5.405880e+01	-1.240207e+01
5.437105e+01	-1.244989e+01
5.468509e+01	-1.249724e+01
5.500095e+01	-1.254422e+01
5.531863e+01	-1.259128e+01
5.563815e+01	-1.263883e+01
5.595951e+01	-1.268673e+01
5.628273e+01	-1.273391e+01
5.660782e+01	-1.278111e+01
5.693479e+01	-1.282814e+01
5.726364e+01	-1.287597e+01
5.759439e+01	-1.292337e+01
5.792705e+01	-1.297099e+01
5.826164e+01	-1.301850e+01
5.859815e+01	-1.306628e+01
5.893662e+01	-1.311306e+01
5.927703e+01	-1.316105e+01
5.961941e+01	-1.320880e+01
5.996377e+01	-1.325732e+01
6.031012e+01	-1.330412e+01
6.065847e+01	-1.335110e+01
6.100883e+01	-1.340020e+01
6.136121e+01	-1.344740e+01
6.171563e+01	-1.349512e+01
6.207210e+01	-1.354278e+01
6.243063e+01	-1.359047e+01
6.279122e+01	-1.363835e+01
6.315390e+01	-1.368682e+01
6.351868e+01	-1.373379e+01
6.388556e+01	-1.378198e+01
6.425456e+01	-1.383038e+01
6.462569e+01	-1.387826e+01
6.499897e+01	-1.392634e+01
6.537440e+01	-1.397404e+01
6.575200e+01	-1.402208e+01
6.613178e+01	-1.406960e+01
6.651375e+01	-1.411901e+01
6.689793e+01	-1.416645e+01
6.728433e+01	-1.421441e+01
6.767297e+01	-1.426248e+01
6.806384e+01	-1.430990e+01
6.845698e+01	-1.435949e+01
6.885238e+01	-1.440736e+01
6.925007e+01	-1.445492e+01
6.965005e+01	-1.450346e+01
7.005235e+01	-1.455214e+01
7.045697e+01	-1.460091e+01
7.086393e+01	-1.464781e+01
7.127323e+01	-1.469628e+01
7.168490e+01	-1.474546e+01
7.209895e+01	-1.479428e+01
7.251539e+01	-1.484235e+01
7.293424e+01	-1.489037e+01
7.335551e+01	-1.493848e+01
7.377920e+01	-1.498687e+01
7.420535e+01	-1.503543e+01
7.463396e+01	-1.508397e+01
7.506504e+01	-1.513240e+01
7.549861e+01	-1.518107e+01
7.593469e+01	-1.522925e+01
7.637328e+01	-1.527747e+01
7.681441e+01	-1.532686e+01
7.725809e+01	-1.537535e+01
7.770433e+01	-1.542356e+01
7.815315e+01	-1.547255e+01
7.860456e+01	-1.552131e+01
7.905857e+01	-1.556900e+01
7.951521e+01	-1.561862e+01
7.997449e+01	-1.566707e+01
8.043642e+01	-1.571585e+01
8.090102e+01	-1.576409e+01
8.136830e+01	-1.581368e+01
8.183828e+01	-1.586214e+01
8.231097e+01	-1.591067e+01
8.278640e+01	-1.595943e+01
8.326457e+01	-1.600796e+01
8.374550e+01	-1.605677e+01
8.422921e+01	-1.610610e+01
8.471572e+01	-1.615382e+01
8.520503e+01	-1.620239e+01
8.569717e+01	-1.625192e+01
8.619215e+01	-1.630137e+01
8.669000e+01	-1.634860e+01
8.719071e+01	-1.639900e+01
8.769432e+01	-1.644758e+01
8.820084e+01	-1.649692e+01
8.871029e+01	-1.654616e+01
8.922267e+01	-1.659442e+01
8.973802e+01	-1.664386e+01
9.025634e+01	-1.669164e+01
9.077766e+01	-1.674049e+01
9.130199e+01	-1.679064e+01
9.182935e+01	-1.683963e+01
9.235975e+01	-1.688836e+01
9.289321e+01	-1.693679e+01
9.342976e+01	-1.698689e+01
9.396941e+01	-1.703447e+01
9.451217e+01	-1.708467e+01
9.505807e+01	-1.713262e+01
9.560712e+01	-1.718251e+01
9.615934e+01	-1.723053e+01
9.671476e+01	-1.728184e+01
9.727338e+01	-1.733049e+01
9.783522e+01	-1.737845e+01
9.840032e+01	-1.742740e+01
9.896867e+01	-1.747692e+01
9.954031e+01	-1.752603e+01
1.001153e+02	-1.757449e+01
1.006935e+02	-1.762459e+01
1.012751e+02	-1.767342e+01
1.018601e+02	-1.772240e+01
1.024484e+02	-1.777158e+01
1.030402e+02	-1.782128e+01
1.036353e+02	-1.787039e+01
1.042339e+02	-1.791905e+01
1.048360e+02	-1.797011e+01
1.054415e+02	-1.801900e+01
1.060505e+02	-1.806671e+01
1.066631e+02	-1.811693e+01
1.072791e+02	-1.816514e+01
1.078988e+02	-1.821587e+01
1.085220e+02	-1.826475e+01
1.091488e+02	-1.831284e+01
1.097793e+02	-1.836332e+01
1.104133e+02	-1.841283e+01
1.110511e+02	-1.846157e+01
1.116925e+02	-1.851143e+01
1.123376e+02	-1.856068e+01
1.129865e+02	-1.861039e+01
1.136391e+02	-1.866004e+01
1.142955e+02	-1.870744e+01
1.149556e+02	-1.875801e+01
1.156196e+02	-1.880876e+01
1.162874e+02	-1.885624e+01
1.169591e+02	-1.890715e+01
1.176347e+02	-1.895519e+01
1.183141e+02	-1.900485e+01
1.189975e+02	-1.905369e+01
1.196848e+02	-1.910529e+01
1.203761e+02	-1.915406e+01
1.210714e+02	-1.920324e+01
1.217707e+02	-1.925140e+01
1.224740e+02	-1.930158e+01
1.231814e+02	-1.934992e+01
1.238929e+02	-1.939960e+01
1.246085e+02	-1.944945e+01
1.253283e+02	-1.950052e+01
1.260522e+02	-1.954942e+01
1.267802e+02	-1.959757e+01
1.275125e+02	-1.964714e+01
1.282490e+02	-1.969684e+01
1.289898e+02	-1.974685e+01
1.297348e+02	-1.979492e+01
1.304842e+02	-1.984541e+01
1.312378e+02	-1.989480e+01
1.319959e+02	-1.994692e+01
1.327583e+02	-1.999319e+01
1.335251e+02	-2.004463e+01
1.342963e+02	-2.009351e+01
1.350720e+02	-2.014285e+01
1.358522e+02	-2.019232e+01
1.366368e+02	-2.024088e+01
1.374260e+02	-2.029012e+01
1.382198e+02	-2.034073e+01
1.390182e+02	-2.039036e+01
1.398211e+02	-2.044042e+01
1.406287e+02	-2.048917e+01
1.414410e+02	-2.053836e+01
1.422579e+02	-2.058840e+01
1.430796e+02	-2.063755e+01
1.439060e+02	-2.068891e+01
1.447372e+02	-2.073834e+01
1.455732e+02	-2.078702e+01
1.464141e+02	-2.083628e+01
1.472597e+02	-2.088776e+01
1.481103e+02	-2.093734e+01
1.489658e+02	-2.098734e+01
1.498262e+02	-2.103567e+01
1.506916e+02	-2.108599e+01
1.515620e+02	-2.113574e+01
1.524374e+02	-2.118618e+01
1.533179e+02	-2.123598e+01
1.542034e+02	-2.128250e+01
1.550941e+02	-2.133404e+01
1.559899e+02	-2.138437e+01
1.568909e+02	-2.143264e+01
1.577971e+02	-2.148363e+01
1.587085e+02	-2.153340e+01
1.596252e+02	-2.158157e+01
1.605472e+02	-2.163381e+01
1.614745e+02	-2.168122e+01
1.624072e+02	-2.173223e+01
1.633453e+02	-2.178100e+01
1.642887e+02	-2.183164e+01
1.652377e+02	-2.188047e+01
1.661921e+02	-2.192983e+01
1.671520e+02	-2.197908e+01
1.681175e+02	-2.202987e+01
1.690885e+02	-2.207987e+01
1.700651e+02	-2.212886e+01
1.710474e+02	-2.217741e+01
1.720354e+02	-2.222988e+01
1.730291e+02	-2.227814e+01
1.740285e+02	-2.232786e+01
1.750337e+02	-2.237732e+01
1.760446e+02	-2.242789e+01
1.770615e+02	-2.247762e+01
1.780842e+02	-2.252847e+01
1.791128e+02	-2.257677e+01
1.801473e+02	-2.262763e+01
1.811878e+02	-2.267537e+01
1.822344e+02	-2.272533e+01
1.832870e+02	-2.277710e+01
1.843456e+02	-2.282536e+01
1.854104e+02	-2.287633e+01
1.864813e+02	-2.292654e+01
1.875584e+02	-2.297454e+01
1.886418e+02	-2.302650e+01
1.897313e+02	-2.307565e+01
1.908272e+02	-2.312400e+01
1.919294e+02	-2.317500e+01
1.930380e+02	-2.322478e+01
1.941530e+02	-2.327433e+01
1.952744e+02	-2.332467e+01
1.964023e+02	-2.337373e+01
1.975367e+02	-2.342230e+01
1.986777e+02	-2.347211e+01
1.998252e+02	-2.352335e+01
2.009794e+02	-2.357301e+01
2.021403e+02	-2.362300e+01
2.033078e+02	-2.367047e+01
2.044821e+02	-2.372250e+01
2.056632e+02	-2.377273e+01
2.068511e+02	-2.382118e+01
2.080459e+02	-2.387257e+01
2.092475e+02	-2.392480e+01
2.104561e+02	-2.397187e+01
2.116717e+02	-2.402068e+01
2.128943e+02	-2.407335e+01
2.141240e+02	-2.412244e+01
2.153608e+02	-2.417114e+01
2.166047e+02	-2.422202e+01
2.178558e+02	-2.427332e+01
2.191141e+02	-2.431758e+01
2.203797e+02	-2.437253e+01
2.216526e+02	-2.441778e+01
2.229329e+02	-2.446981e+01
2.242205e+02	-2.452122e+01
2.255156e+02	-2.456929e+01
2.268182e+02	-2.462023e+01
2.281283e+02	-2.467015e+01
2.294459e+02	-2.472158e+01
2.307712e+02	-2.476878e+01
2.321041e+02	-2.482072e+01
2.334447e+02	-2.487172e+01
2.347931e+02	-2.491774e+01
2.361493e+02	-2.496595e+01
2.375133e+02	-2.501967e+01
2.388851e+02	-2.506807e+01
2.402649e+02	-2.512053e+01
2.416527e+02	-2.517125e+01
2.430484e+02	-2.521716e+01
2.444523e+02	-2.527010e+01
2.458642e+02	-2.532065e+01
2.472843e+02	-2.536829e+01
2.487126e+02	-2.541964e+01
2.501492e+02	-2.547052e+01
2.515940e+02	-2.551787e+01
2.530472e+02	-2.556761e+01
2.545088e+02	-2.562020e+01
2.559789e+02	-2.566661e+01
2.574574e+02	-2.571982e+01
2.589444e+02	-2.576850e+01
2.604401e+02	-2.581970e+01
2.619444e+02	-2.586813e+01
2.634574e+02	-2.591716e+01
2.649791e+02	-2.596788e+01
2.665096e+02	-2.601733e+01
2.680489e+02	-2.606989e+01
2.695972e+02	-2.612088e+01
2.711544e+02	-2.616609e+01
2.727205e+02	-2.621924e+01
2.742958e+02	-2.626710e+01
2.758801e+02	-2.631769e+01
2.774736e+02	-2.636819e+01
2.790762e+02	-2.641841e+01
2.806882e+02	-2.646576e+01
2.823094e+02	-2.651860e+01
2.839400e+02	-2.656699e+01
2.855800e+02	-2.661539e+01
2.872295e+02	-2.666861e+01
2.888886e+02	-2.671874e+01
2.905572e+02	-2.676741e+01
2.922354e+02	-2.681447e+01
2.939234e+02	-2.686809e+01
2.956211e+02	-2.691791e+01
2.973286e+02	-2.696666e+01
2.990459e+02	-2.701582e+01
3.007732e+02	-2.706982e+01
3.025104e+02	-2.711693e+01
3.042577e+02	-2.716633e+01
3.060151e+02	-2.721704e+01
3.077826e+02	-2.726777e+01
3.095604e+02	-2.731860e+01
3.113484e+02	-2.737009e+01
3.131467e+02	-2.741842e+01
3.149554e+02	-2.746664e+01
3.167746e+02	-2.751812e+01
3.186043e+02	-2.757076e+01
3.204445e+02	-2.761648e+01
3.222954e+02	-2.766623e+01
3.241570e+02	-2.772420e+01
3.260293e+02	-2.776559e+01
3.279124e+02	-2.781570e+01
3.298064e+02	-2.786808e+01
3.317114e+02	-2.791609e+01
3.336273e+02	-2.796599e+01
3.355544e+02	-2.801262e+01
3.374925e+02	-2.807076e+01
3.394418e+02	-2.812133e+01
3.414024e+02	-2.816886e+01
3.433744e+02	-2.822195e+01
3.453577e+02	-2.826626e+01
3.473525e+02	-2.831905e+01
3.493588e+02	-2.837047e+01
3.513766e+02	-2.841705e+01
3.534062e+02	-2.846869e+01
3.554474e+02	-2.851738e+01
3.575005e+02	-2.856627e+01
3.595654e+02	-2.861868e+01
3.616422e+02	-2.866431e+01
3.637311e+02	-2.872061e+01
3.658320e+02	-2.876911e+01
3.679450e+02	-2.881872e+01
3.700702e+02	-2.887404e+01
3.722077e+02	-2.892017e+01
3.743576e+02	-2.897150e+01
3.765199e+02	-2.902071e+01
3.786946e+02	-2.907291e+01
3.808820e+02	-2.911722e+01
3.830819e+02	-2.917093e+01
3.852946e+02	-2.921871e+01
3.875200e+02	-2.927269e+01
3.897583e+02	-2.931788e+01
3.920096e+02	-2.936715e+01
3.942738e+02	-2.941995e+01
3.965511e+02	-2.947541e+01
3.988416e+02	-2.952231e+01
4.011452e+02	-2.956473e+01
4.034622e+02	-2.962263e+01
4.057926e+02	-2.967429e+01
4.081365e+02	-2.972296e+01
4.104938e+02	-2.976915e+01
4.128648e+02	-2.982030e+01
4.152495e+02	-2.986789e+01
4.176480e+02	-2.992193e+01
4.200603e+02	-2.996718e+01
4.224866e+02	-3.002162e+01
4.249268e+02	-3.007202e+01
4.273812e+02	-3.012447e+01
4.298497e+02	-3.017160e+01
4.323325e+02	-3.022387e+01
4.348297e+02	-3.027390e+01
4.373412e+02	-3.032621e+01
4.398673e+02	-3.037023e+01
4.424079e+02	-3.041842e+01
4.449633e+02	-3.047684e+01
4.475334e+02	-3.052672e+01
4.501183e+02	-3.057284e+01
4.527182e+02	-3.062332e+01
4.553330e+02	-3.067019e+01
4.579630e+02	-3.072504e+01
4.606082e+02	-3.077480e+01
4.632687e+02	-3.082868e+01
4.659445e+02	-3.086858e+01
4.686358e+02	-3.092418e+01
4.713426e+02	-3.097406e+01
4.740650e+02	-3.102133e+01
4.768032e+02	-3.107816e+01
4.795572e+02	-3.112997e+01
4.823271e+02	-3.117217e+01
4.851130e+02	-3.123035e+01
4.879150e+02	-3.127636e+01
4.907332e+02	-3.132541e+01
4.935676e+02	-3.138125e+01
4.964185e+02	-3.142554e+01
4.992858e+02	-3.146771e+01
5.021696e+02	-3.152835e+01
5.050701e+02	-3.157721e+01
5.079874e+02	-3.162683e+01
5.109215e+02	-3.168151e+01
5.138726e+02	-3.172715e+01
5.168407e+02	-3.178080e+01
5.198259e+02	-3.182767e+01
5.228284e+02	-3.187377e+01
5.258482e+02	-3.193043e+01
5.288855e+02	-3.198411e+01
5.319403e+02	-3.202775e+01
5.350128e+02	-3.208453e+01
5.381030e+02	-3.213173e+01
5.412111e+02	-3.217745e+01
5.443371e+02	-3.222475e+01
5.474812e+02	-3.228958e+01
5.506434e+02	-3.232024e+01
5.538239e+02	-3.238343e+01
5.570228e+02	-3.242699e+01
5.602401e+02	-3.247691e+01
5.634760e+02	-3.252970e+01
5.667306e+02	-3.258474e+01
5.700040e+02	-3.263177e+01
5.732964e+02	-3.268411e+01
5.766077e+02	-3.273231e+01
5.799382e+02	-3.278356e+01
5.832879e+02	-3.283214e+01
5.866569e+02	-3.288075e+01
5.900454e+02	-3.293613e+01
5.934535e+02	-3.297776e+01
5.968813e+02	-3.303357e+01
6.003288e+02	-3.307117e+01
6.037963e+02	-3.313327e+01
6.072838e+02	-3.318675e+01
6.107914e+02	-3.322980e+01
6.143194e+02	-3.328674e+01
6.178676e+02	-3.333374e+01
6.214364e+02	-3.338308e+01
6.250258e+02	-3.343256e+01
6.286359e+02	-3.348649e+01
6.322669e+02	-3.353714e+01
6.359189e+02	-3.358633e+01
6.395919e+02	-3.363897e+01
6.432862e+02	-3.368330e+01
6.470017e+02	-3.374257e+01
6.507388e+02	-3.378643e+01
6.544974e+02	-3.383854e+01
6.582778e+02	-3.389124e+01
6.620800e+02	-3.393896e+01
6.659041e+02	-3.398544e+01
6.697504e+02	-3.404133e+01
6.736188e+02	-3.408554e+01
6.775096e+02	-3.414638e+01
6.814229e+02	-3.419930e+01
6.853587e+02	-3.423538e+01
6.893173e+02	-3.429057e+01
6.932988e+02	-3.433768e+01
6.973033e+02	-3.438578e+01
7.013309e+02	-3.444629e+01
