Frequency(Hz)	Magnitude(dB)
1.000000e+01	-2.156806e+00
1.005776e+01	-2.176428e+00
1.011585e+01	-2.196079e+00
1.017428e+01	-2.216114e+00
1.023305e+01	-2.236116e+00
1.029215e+01	-2.256458e+00
1.035160e+01	-2.276669e+00
1.041139e+01	-2.297241e+00
1.047153e+01	-2.317655e+00
1.053201e+01	-2.338391e+00
1.059284e+01	-2.359544e+00
1.065403e+01	-2.380624e+00
1.071556e+01	-2.401798e+00
1.077746e+01	-2.423130e+00
1.083971e+01	-2.444405e+00
1.090232e+01	-2.466275e+00
1.096529e+01	-2.487696e+00
1.102862e+01	-2.509524e+00
1.109232e+01	-2.531825e+00
1.115639e+01	-2.553943e+00
1.122083e+01	-2.576079e+00
1.128564e+01	-2.598706e+00
1.135083e+01	-2.621192e+00
1.141639e+01	-2.643974e+00
1.148233e+01	-2.666864e+00
1.154865e+01	-2.689938e+00
1.161536e+01	-2.713317e+00
1.168245e+01	-2.736386e+00
1.174992e+01	-2.759787e+00
1.181779e+01	-2.783432e+00
1.188605e+01	-2.807274e+00
1.195470e+01	-2.830905e+00
1.202375e+01	-2.855034e+00
1.209320e+01	-2.879268e+00
1.216305e+01	-2.903524e+00
1.223330e+01	-2.927912e+00
1.230396e+01	-2.952611e+00
1.237503e+01	-2.977487e+00
1.244651e+01	-3.002514e+00
1.251840e+01	-3.027476e+00
1.259070e+01	-3.052821e+00
1.266343e+01	-3.077650e+00
1.273657e+01	-3.103359e+00
1.281014e+01	-3.128975e+00
1.288413e+01	-3.154569e+00
1.295855e+01	-3.180406e+00
1.303339e+01	-3.206838e+00
1.310867e+01	-3.232910e+00
1.318439e+01	-3.259121e+00
1.326054e+01	-3.285775e+00
1.333713e+01	-3.312409e+00
1.341417e+01	-3.339207e+00
1.349165e+01	-3.366052e+00
1.356958e+01	-3.393013e+00
1.364795e+01	-3.420389e+00
1.372678e+01	-3.447300e+00
1.380607e+01	-3.475190e+00
1.388581e+01	-3.502490e+00
1.396602e+01	-3.530428e+00
1.404668e+01	-3.558474e+00
1.412782e+01	-3.586388e+00
1.420942e+01	-3.614692e+00
1.429149e+01	-3.642960e+00
1.437404e+01	-3.671472e+00
1.445706e+01	-3.699824e+00
1.454057e+01	-3.728951e+00
1.462455e+01	-3.757783e+00
1.470902e+01	-3.786706e+00
1.479398e+01	-3.815788e+00
1.487943e+01	-3.845254e+00
1.496537e+01	-3.874807e+00
1.505181e+01	-3.904095e+00
1.513875e+01	-3.933916e+00
1.522619e+01	-3.964020e+00
1.531414e+01	-3.993750e+00
1.540259e+01	-4.023866e+00
1.549156e+01	-4.054258e+00
1.558103e+01	-4.084592e+00
1.567103e+01	-4.115272e+00
1.576155e+01	-4.145903e+00
1.585258e+01	-4.177050e+00
1.594415e+01	-4.208027e+00
1.603624e+01	-4.238463e+00
1.612886e+01	-4.270344e+00
1.622202e+01	-4.301007e+00
1.631572e+01	-4.332728e+00
1.640996e+01	-4.364569e+00
1.650474e+01	-4.396026e+00
1.660008e+01	-4.428099e+00
1.669596e+01	-4.460245e+00
1.679239e+01	-4.492642e+00
1.688938e+01	-4.524845e+00
1.698694e+01	-4.557381e+00
1.708505e+01	-4.589605e+00
1.718373e+01	-4.622659e+00
1.728299e+01	-4.655269e+00
1.738281e+01	-4.688171e+00
1.748322e+01	-4.721680e+00
1.758420e+01	-4.754640e+00
1.768576e+01	-4.787978e+00
1.778792e+01	-4.821477e+00
1.789066e+01	-4.854961e+00
1.799399e+01	-4.889091e+00
1.809793e+01	-4.922654e+00
1.820246e+01	-4.956958e+00
1.830760e+01	-4.991124e+00
1.841334e+01	-5.025092e+00
1.851969e+01	-5.059272e+00
1.862666e+01	-5.093881e+00
1.873425e+01	-5.128300e+00
1.884246e+01	-5.163146e+00
1.895129e+01	-5.198239e+00
1.906075e+01	-5.233025e+00
1.917085e+01	-5.268005e+00
1.928158e+01	-5.303325e+00
1.939295e+01	-5.338294e+00
1.950496e+01	-5.373918e+00
1.961762e+01	-5.409585e+00
1.973093e+01	-5.445604e+00
1.984490e+01	-5.481353e+00
1.995952e+01	-5.517134e+00
2.007480e+01	-5.553258e+00
2.019076e+01	-5.589401e+00
2.030738e+01	-5.625399e+00
2.042467e+01	-5.661935e+00
2.054264e+01	-5.698386e+00
2.066130e+01	-5.735077e+00
2.078064e+01	-5.771747e+00
2.090066e+01	-5.808652e+00
2.102139e+01	-5.845811e+00
2.114280e+01	-5.882407e+00
2.126492e+01	-5.919812e+00
2.138775e+01	-5.957068e+00
2.151128e+01	-5.994392e+00
2.163553e+01	-6.032042e+00
2.176050e+01	-6.069495e+00
2.188619e+01	-6.107522e+00
2.201260e+01	-6.145233e+00
2.213974e+01	-6.183311e+00
2.226762e+01	-6.220863e+00
2.239624e+01	-6.259644e+00
2.252560e+01	-6.297517e+00
2.265571e+01	-6.336057e+00
2.278656e+01	-6.374168e+00
2.291818e+01	-6.412833e+00
2.305055e+01	-6.451378e+00
2.318369e+01	-6.490600e+00
2.331760e+01	-6.528917e+00
2.345228e+01	-6.567763e+00
2.358774e+01	-6.607192e+00
2.372398e+01	-6.646302e+00
2.386101e+01	-6.685774e+00
2.399883e+01	-6.725098e+00
2.413745e+01	-6.764440e+00
2.427686e+01	-6.803838e+00
2.441709e+01	-6.843490e+00
2.455812e+01	-6.882995e+00
2.469997e+01	-6.923228e+00
2.484263e+01	-6.962966e+00
2.498612e+01	-7.002731e+00
2.513044e+01	-7.043004e+00
2.527559e+01	-7.083192e+00
2.542158e+01	-7.123340e+00
2.556842e+01	-7.164036e+00
2.571610e+01	-7.204282e+00
2.586463e+01	-7.244658e+00
2.601403e+01	-7.285181e+00
2.616428e+01	-7.326449e+00
2.631541e+01	-7.366997e+00
2.646740e+01	-7.407898e+00
2.662028e+01	-7.448717e+00
2.677404e+01	-7.489850e+00
2.692868e+01	-7.530998e+00
2.708422e+01	-7.572633e+00
2.724066e+01	-7.613704e+00
2.739800e+01	-7.654992e+00
2.755625e+01	-7.696824e+00
2.771541e+01	-7.738100e+00
2.787550e+01	-7.779739e+00
2.803650e+01	-7.821427e+00
2.819844e+01	-7.863400e+00
2.836131e+01	-7.905133e+00
2.852513e+01	-7.947334e+00
2.868989e+01	-7.989081e+00
2.885560e+01	-8.030904e+00
2.902227e+01	-8.073331e+00
2.918990e+01	-8.115772e+00
2.935850e+01	-8.158114e+00
2.952807e+01	-8.200655e+00
2.969863e+01	-8.242865e+00
2.987016e+01	-8.285709e+00
3.004269e+01	-8.327947e+00
3.021622e+01	-8.370509e+00
3.039075e+01	-8.413419e+00
3.056628e+01	-8.456589e+00
3.074283e+01	-8.499857e+00
3.092040e+01	-8.542614e+00
3.109900e+01	-8.585356e+00
3.127862e+01	-8.628861e+00
3.145929e+01	-8.671698e+00
3.164099e+01	-8.714918e+00
3.182375e+01	-8.758112e+00
3.200756e+01	-8.801980e+00
3.219244e+01	-8.845213e+00
3.237838e+01	-8.888603e+00
3.256540e+01	-8.932053e+00
3.275349e+01	-8.976019e+00
3.294268e+01	-9.019906e+00
3.313295e+01	-9.063538e+00
3.332433e+01	-9.107416e+00
3.351681e+01	-9.151240e+00
3.371040e+01	-9.195443e+00
3.390511e+01	-9.239631e+00
3.410094e+01	-9.283276e+00
3.429791e+01	-9.327685e+00
3.449601e+01	-9.371790e+00
3.469526e+01	-9.415875e+00
3.489566e+01	-9.460616e+00
3.509721e+01	-9.505055e+00
3.529993e+01	-9.549971e+00
3.550382e+01	-9.594285e+00
3.570889e+01	-9.638376e+00
3.591515e+01	-9.682800e+00
3.612259e+01	-9.727630e+00
3.633123e+01	-9.772246e+00
3.654108e+01	-9.817219e+00
3.675214e+01	-9.862202e+00
3.696442e+01	-9.907094e+00
3.717792e+01	-9.952251e+00
3.739266e+01	-9.996750e+00
3.760864e+01	-1.004236e+01
3.782587e+01	-1.008666e+01
3.804435e+01	-1.013204e+01
3.826409e+01	-1.017729e+01
3.848510e+01	-1.022279e+01
3.870739e+01	-1.026787e+01
3.893096e+01	-1.031352e+01
3.915583e+01	-1.035895e+01
3.938199e+01	-1.040391e+01
3.960946e+01	-1.044927e+01
3.983824e+01	-1.049506e+01
4.006834e+01	-1.054047e+01
4.029978e+01	-1.058621e+01
4.053255e+01	-1.063214e+01
4.076666e+01	-1.067753e+01
4.100213e+01	-1.072321e+01
4.123896e+01	-1.076959e+01
4.147715e+01	-1.081470e+01
4.171672e+01	-1.086083e+01
4.195767e+01	-1.090637e+01
4.220002e+01	-1.095285e+01
4.244377e+01	-1.099846e+01
4.268892e+01	-1.104469e+01
4.293549e+01	-1.109162e+01
4.318348e+01	-1.113749e+01
4.343291e+01	-1.118346e+01
4.368377e+01	-1.122974e+01
4.393609e+01	-1.127598e+01
4.418986e+01	-1.132217e+01
4.444510e+01	-1.136868e+01
4.470182e+01	-1.141537e+01
4.496001e+01	-1.146144e+01
4.521970e+01	-1.150821e+01
4.548089e+01	-1.155427e+01
4.574358e+01	-1.160103e+01
4.600779e+01	-1.164745e+01
4.627353e+01	-1.169381e+01
4.654081e+01	-1.174092e+01
4.680963e+01	-1.178772e+01
4.708000e+01	-1.183501e+01
4.735193e+01	-1.188134e+01
4.762543e+01	-1.192796e+01
4.790051e+01	-1.197485e+01
4.817719e+01	-1.202169e+01
4.845545e+01	-1.206853e+01
4.873533e+01	-1.211547e+01
4.901682e+01	-1.216270e+01
4.929994e+01	-1.220941e+01
4.958470e+01	-1.225689e+01
4.987110e+01	-1.230349e+01
5.015915e+01	-1.235038e+01
5.044887e+01	-1.239770e+01
5.074026e+01	-1.244522e+01
5.103333e+01	-1.249223e+01
5.132810e+01	-1.253959e+01
5.162457e+01	-1.258695e+01
5.192275e+01	-1.263380e+01
5.222265e+01	-1.268062e+01
5.252429e+01	-1.272797e+01
5.282767e+01	-1.277594e+01
5.313280e+01	-1.282369e+01
5.343969e+01	-1.287055e+01
5.374836e+01	-1.291767e+01
5.405880e+01	-1.296581e+01
5.437105e+01	-1.301351e+01
5.468509e+01	-1.306107e+01
5.500095e+01	-1.310858e+01
5.531863e+01	-1.315581e+01
5.563815e+01	-1.320351e+01
5.595951e+01	-1.325084e+01
5.628273e+01	-1.329940e+01
5.660782e+01	-1.334613e+01
5.693479e+01	-1.339402e+01
5.726364e+01	-1.344246e+01
5.759439e+01	-1.349058e+01
5.792705e+01	-1.353802e+01
5.826164e+01	-1.358585e+01
5.859815e+01	-1.363339e+01
5.893662e+01	-1.368067e+01
5.927703e+01	-1.372899e+01
5.961941e+01	-1.377672e+01
5.996377e+01	-1.382451e+01
6.031012e+01	-1.387231e+01
6.065847e+01	-1.392248e+01
6.100883e+01	-1.396899e+01
6.136121e+01	-1.401742e+01
6.171563e+01	-1.406528e+01
6.207210e+01	-1.411296e+01
6.243063e+01	-1.416056e+01
6.279122e+01	-1.420965e+01
6.315390e+01	-1.425681e+01
6.351868e+01	-1.430553e+01
6.388556e+01	-1.435373e+01
6.425456e+01	-1.440177e+01
6.462569e+01	-1.445076e+01
6.499897e+01	-1.449817e+01
6.537440e+01	-1.454651e+01
6.575200e+01	-1.459457e+01
6.613178e+01	-1.464386e+01
6.651375e+01	-1.469277e+01
6.689793e+01	-1.474053e+01
6.728433e+01	-1.478773e+01
6.767297e+01	-1.483671e+01
6.806384e+01	-1.488436e+01
6.845698e+01	-1.493367e+01
6.885238e+01	-1.498028e+01
6.925007e+01	-1.503061e+01
6.965005e+01	-1.507924e+01
7.005235e+01	-1.512778e+01
7.045697e+01	-1.517556e+01
7.086393e+01	-1.522482e+01
7.127323e+01	-1.527335e+01
7.168490e+01	-1.532101e+01
7.209895e+01	-1.536989e+01
7.251539e+01	-1.541891e+01
7.293424e+01	-1.546726e+01
7.335551e+01	-1.551538e+01
7.377920e+01	-1.556512e+01
7.420535e+01	-1.561238e+01
7.463396e+01	-1.566204e+01
7.506504e+01	-1.571008e+01
7.549861e+01	-1.575916e+01
7.593469e+01	-1.580814e+01
7.637328e+01	-1.585670e+01
7.681441e+01	-1.590550e+01
7.725809e+01	-1.595380e+01
7.770433e+01	-1.600275e+01
7.815315e+01	-1.605196e+01
7.860456e+01	-1.610026e+01
7.905857e+01	-1.614912e+01
7.951521e+01	-1.619841e+01
7.997449e+01	-1.624802e+01
8.043642e+01	-1.629578e+01
8.090102e+01	-1.634493e+01
8.136830e+01	-1.639353e+01
8.183828e+01	-1.644350e+01
8.231097e+01	-1.649081e+01
8.278640e+01	-1.653950e+01
8.326457e+01	-1.658901e+01
8.374550e+01	-1.663661e+01
8.422921e+01	-1.668597e+01
8.471572e+01	-1.673569e+01
8.520503e+01	-1.678405e+01
8.569717e+01	-1.683416e+01
8.619215e+01	-1.688231e+01
8.669000e+01	-1.693229e+01
8.719071e+01	-1.698080e+01
8.769432e+01	-1.702897e+01
8.820084e+01	-1.707840e+01
8.871029e+01	-1.712754e+01
8.922267e+01	-1.717704e+01
8.973802e+01	-1.722500e+01
9.025634e+01	-1.727524e+01
9.077766e+01	-1.732422e+01
9.130199e+01	-1.737414e+01
9.182935e+01	-1.742302e+01
9.235975e+01	-1.747065e+01
9.289321e+01	-1.752155e+01
9.342976e+01	-1.757036e+01
9.396941e+01	-1.761969e+01
9.451217e+01	-1.766830e+01
9.505807e+01	-1.771725e+01
9.560712e+01	-1.776669e+01
9.615934e+01	-1.781548e+01
9.671476e+01	-1.786399e+01
9.727338e+01	-1.791519e+01
9.783522e+01	-1.796237e+01
9.840032e+01	-1.801342e+01
9.896867e+01	-1.806167e+01
9.954031e+01	-1.811238e+01
1.001153e+02	-1.816113e+01
1.006935e+02	-1.821016e+01
1.012751e+02	-1.825870e+01
1.018601e+02	-1.830900e+01
1.024484e+02	-1.835861e+01
1.030402e+02	-1.840760e+01
1.036353e+02	-1.845644e+01
1.042339e+02	-1.850602e+01
1.048360e+02	-1.855651e+01
1.054415e+02	-1.860445e+01
1.060505e+02	-1.865332e+01
1.066631e+02	-1.870309e+01
1.072791e+02	-1.875328e+01
1.078988e+02	-1.880014e+01
1.085220e+02	-1.885106e+01
1.091488e+02	-1.890060e+01
1.097793e+02	-1.895105e+01
1.104133e+02	-1.899890e+01
1.110511e+02	-1.904905e+01
1.116925e+02	-1.909800e+01
1.123376e+02	-1.914774e+01
1.129865e+02	-1.919861e+01
1.136391e+02	-1.924659e+01
1.142955e+02	-1.929563e+01
1.149556e+02	-1.934447e+01
1.156196e+02	-1.939589e+01
1.162874e+02	-1.944330e+01
1.169591e+02	-1.949333e+01
1.176347e+02	-1.954434e+01
1.183141e+02	-1.959206e+01
1.189975e+02	-1.964276e+01
1.196848e+02	-1.969138e+01
1.203761e+02	-1.974096e+01
1.210714e+02	-1.979124e+01
1.217707e+02	-1.983959e+01
1.224740e+02	-1.988952e+01
1.231814e+02	-1.993892e+01
1.238929e+02	-1.998933e+01
1.246085e+02	-2.003850e+01
1.253283e+02	-2.008894e+01
1.260522e+02	-2.013745e+01
1.267802e+02	-2.018648e+01
1.275125e+02	-2.023734e+01
1.282490e+02	-2.028578e+01
1.289898e+02	-2.033667e+01
1.297348e+02	-2.038603e+01
1.304842e+02	-2.043529e+01
1.312378e+02	-2.048328e+01
1.319959e+02	-2.053547e+01
1.327583e+02	-2.058270e+01
1.335251e+02	-2.063357e+01
1.342963e+02	-2.068170e+01
1.350720e+02	-2.073141e+01
1.358522e+02	-2.078213e+01
1.366368e+02	-2.083301e+01
1.374260e+02	-2.088241e+01
1.382198e+02	-2.093093e+01
1.390182e+02	-2.098038e+01
1.398211e+02	-2.102903e+01
1.406287e+02	-2.108088e+01
1.414410e+02	-2.113149e+01
1.422579e+02	-2.117800e+01
1.430796e+02	-2.122851e+01
1.439060e+02	-2.127774e+01
1.447372e+02	-2.133023e+01
1.455732e+02	-2.137655e+01
1.464141e+02	-2.142635e+01
1.472597e+02	-2.147696e+01
1.481103e+02	-2.152600e+01
1.489658e+02	-2.157632e+01
1.498262e+02	-2.162469e+01
1.506916e+02	-2.167637e+01
1.515620e+02	-2.172678e+01
1.524374e+02	-2.177480e+01
1.533179e+02	-2.182397e+01
1.542034e+02	-2.187414e+01
1.550941e+02	-2.192437e+01
1.559899e+02	-2.197375e+01
1.568909e+02	-2.202626e+01
1.577971e+02	-2.207320e+01
1.587085e+02	-2.212181e+01
1.596252e+02	-2.217439e+01
1.605472e+02	-2.222357e+01
1.614745e+02	-2.227137e+01
1.624072e+02	-2.232263e+01
1.633453e+02	-2.237286e+01
1.642887e+02	-2.242340e+01
1.652377e+02	-2.247144e+01
1.661921e+02	-2.252139e+01
1.671520e+02	-2.257209e+01
1.681175e+02	-2.262229e+01
1.690885e+02	-2.267035e+01
1.700651e+02	-2.272090e+01
1.710474e+02	-2.277262e+01
1.720354e+02	-2.282068e+01
1.730291e+02	-2.287057e+01
1.740285e+02	-2.291988e+01
1.750337e+02	-2.296871e+01
1.760446e+02	-2.301710e+01
1.770615e+02	-2.307115e+01
1.780842e+02	-2.311854e+01
1.791128e+02	-2.317052e+01
1.801473e+02	-2.321748e+01
1.811878e+02	-2.326820e+01
1.822344e+02	-2.331953e+01
1.832870e+02	-2.336717e+01
1.843456e+02	-2.341914e+01
1.854104e+02	-2.346656e+01
1.864813e+02	-2.352059e+01
1.875584e+02	-2.356814e+01
1.886418e+02	-2.361549e+01
1.897313e+02	-2.366620e+01
1.908272e+02	-2.371925e+01
1.919294e+02	-2.376628e+01
1.930380e+02	-2.381601e+01
1.941530e+02	-2.386754e+01
1.952744e+02	-2.391794e+01
1.964023e+02	-2.396561e+01
1.975367e+02	-2.401763e+01
1.986777e+02	-2.406581e+01
1.998252e+02	-2.411507e+01
2.009794e+02	-2.416398e+01
2.021403e+02	-2.421215e+01
2.033078e+02	-2.426307e+01
2.044821e+02	-2.431420e+01
2.056632e+02	-2.436331e+01
2.068511e+02	-2.441735e+01
2.080459e+02	-2.446479e+01
2.092475e+02	-2.451450e+01
2.104561e+02	-2.456366e+01
2.116717e+02	-2.461567e+01
2.128943e+02	-2.466415e+01
2.141240e+02	-2.471280e+01
2.153608e+02	-2.476495e+01
2.166047e+02	-2.481281e+01
2.178558e+02	-2.486375e+01
2.191141e+02	-2.491710e+01
2.203797e+02	-2.496423e+01
2.216526e+02	-2.501091e+01
2.229329e+02	-2.506317e+01
2.242205e+02	-2.511349e+01
2.255156e+02	-2.516409e+01
2.268182e+02	-2.521221e+01
2.281283e+02	-2.526240e+01
2.294459e+02	-2.531198e+01
2.307712e+02	-2.536305e+01
2.321041e+02	-2.541154e+01
2.334447e+02	-2.546493e+01
2.347931e+02	-2.551133e+01
2.361493e+02	-2.556389e+01
2.375133e+02	-2.560886e+01
2.388851e+02	-2.566480e+01
2.402649e+02	-2.571342e+01
2.416527e+02	-2.576278e+01
2.430484e+02	-2.581248e+01
2.444523e+02	-2.586357e+01
2.458642e+02	-2.591350e+01
2.472843e+02	-2.596354e+01
2.487126e+02	-2.600930e+01
2.501492e+02	-2.606397e+01
2.515940e+02	-2.611354e+01
2.530472e+02	-2.615957e+01
2.545088e+02	-2.621142e+01
2.559789e+02	-2.626309e+01
2.574574e+02	-2.631429e+01
2.589444e+02	-2.636358e+01
2.604401e+02	-2.641499e+01
2.619444e+02	-2.646273e+01
2.634574e+02	-2.651394e+01
2.649791e+02	-2.656121e+01
2.665096e+02	-2.661162e+01
2.680489e+02	-2.665861e+01
2.695972e+02	-2.671191e+01
2.711544e+02	-2.676475e+01
2.727205e+02	-2.681580e+01
2.742958e+02	-2.686319e+01
2.758801e+02	-2.691249e+01
2.774736e+02	-2.696469e+01
2.790762e+02	-2.701123e+01
2.806882e+02	-2.706179e+01
2.823094e+02	-2.710897e+01
2.839400e+02	-2.716375e+01
2.855800e+02	-2.721105e+01
2.872295e+02	-2.726296e+01
2.888886e+02	-2.731343e+01
2.905572e+02	-2.736153e+01
2.922354e+02	-2.741362e+01
2.939234e+02	-2.745941e+01
2.956211e+02	-2.750833e+01
2.973286e+02	-2.756491e+01
2.990459e+02	-2.761263e+01
3.007732e+02	-2.766030e+01
3.025104e+02	-2.771314e+01
3.042577e+02	-2.776021e+01
3.060151e+02	-2.781078e+01
3.077826e+02	-2.786244e+01
3.095604e+02	-2.791219e+01
3.113484e+02	-2.796073e+01
3.131467e+02	-2.801497e+01
3.149554e+02	-2.806249e+01
3.167746e+02	-2.811262e+01
3.186043e+02	-2.815814e+01
3.204445e+02	-2.821336e+01
3.222954e+02	-2.826169e+01
3.241570e+02	-2.831359e+01
3.260293e+02	-2.835891e+01
3.279124e+02	-2.841242e+01
3.298064e+02	-2.846219e+01
3.317114e+02	-2.851518e+01
3.336273e+02	-2.856694e+01
3.355544e+02	-2.861732e+01
3.374925e+02	-2.865842e+01
3.394418e+02	-2.871535e+01
3.414024e+02	-2.876259e+01
3.433744e+02	-2.881566e+01
3.453577e+02	-2.886541e+01
3.473525e+02	-2.891254e+01
3.493588e+02	-2.896383e+01
3.513766e+02	-2.901708e+01
3.534062e+02	-2.906100e+01
3.554474e+02	-2.910964e+01
3.575005e+02	-2.916043e+01
3.595654e+02	-2.921244e+01
3.616422e+02	-2.926213e+01
3.637311e+02	-2.930862e+01
3.658320e+02	-2.936141e+01
3.679450e+02	-2.941103e+01
3.700702e+02	-2.946594e+01
3.722077e+02	-2.951259e+01
3.743576e+02	-2.956297e+01
3.765199e+02	-2.961699e+01
3.786946e+02	-2.966279e+01
3.808820e+02	-2.971768e+01
3.830819e+02	-2.976196e+01
3.852946e+02	-2.981235e+01
3.875200e+02	-2.986933e+01
3.897583e+02	-2.991693e+01
3.920096e+02	-2.996231e+01
3.942738e+02	-3.001269e+01
3.965511e+02	-3.006434e+01
3.988416e+02	-3.011463e+01
4.011452e+02	-3.015994e+01
4.034622e+02	-3.021270e+01
4.057926e+02	-3.026126e+01
4.081365e+02	-3.031373e+01
4.104938e+02	-3.036373e+01
4.128648e+02	-3.041432e+01
4.152495e+02	-3.046641e+01
4.176480e+02	-3.051472e+01
4.200603e+02	-3.056382e+01
4.224866e+02	-3.061764e+01
4.249268e+02	-3.067066e+01
4.273812e+02	-3.071254e+01
4.298497e+02	-3.076760e+01
4.323325e+02	-3.081952e+01
4.348297e+02	-3.086535e+01
4.373412e+02	-3.091994e+01
4.398673e+02	-3.097095e+01
4.424079e+02	-3.101789e+01
4.449633e+02	-3.106927e+01
4.475334e+02	-3.111369e+01
4.501183e+02	-3.117131e+01
4.527182e+02	-3.122128e+01
4.553330e+02	-3.126531e+01
4.579630e+02	-3.131543e+01
4.606082e+02	-3.136622e+01
4.632687e+02	-3.141841e+01
4.659445e+02	-3.147196e+01
4.686358e+02	-3.152015e+01
4.713426e+02	-3.157297e+01
4.740650e+02	-3.161763e+01
4.768032e+02	-3.166757e+01
4.795572e+02	-3.172282e+01
4.823271e+02	-3.177195e+01
4.851130e+02	-3.181789e+01
4.879150e+02	-3.187435e+01
4.907332e+02	-3.192195e+01
4.935676e+02	-3.196630e+01
4.964185e+02	-3.202202e+01
4.992858e+02	-3.207162e+01
5.021696e+02	-3.211652e+01
5.050701e+02	-3.216773e+01
5.079874e+02	-3.221887e+01
5.109215e+02	-3.226778e+01
5.138726e+02	-3.232691e+01
5.168407e+02	-3.237085e+01
5.198259e+02	-3.242168e+01
5.228284e+02	-3.247451e+01
5.258482e+02	-3.251838e+01
5.288855e+02	-3.257015e+01
5.319403e+02	-3.261804e+01
5.350128e+02	-3.267166e+01
5.381030e+02	-3.272669e+01
5.412111e+02	-3.276799e+01
5.443371e+02	-3.281238e+01
5.474812e+02	-3.286951e+01
5.506434e+02	-3.293187e+01
5.538239e+02	-3.297947e+01
5.570228e+02	-3.302095e+01
5.602401e+02	-3.308266e+01
5.634760e+02	-3.312172e+01
5.667306e+02	-3.317524e+01
5.700040e+02	-3.322702e+01
5.732964e+02	-3.327337e+01
5.766077e+02	-3.332590e+01
5.799382e+02	-3.338114e+01
5.832879e+02	-3.342624e+01
5.866569e+02	-3.347964e+01
5.900454e+02	-3.352582e+01
5.934535e+02	-3.357572e+01
5.968813e+02	-3.362693e+01
6.003288e+02	-3.367063e+01
6.037963e+02	-3.372439e+01
6.072838e+02	-3.376815e+01
6.107914e+02	-3.381990e+01
6.143194e+02	-3.387831e+01
6.178676e+02	-3.392475e+01
6.214364e+02	-3.397533e+01
6.250258e+02	-3.403213e+01
6.286359e+02	-3.406927e+01
6.322669e+02	-3.413233e+01
6.359189e+02	-3.418434e+01
6.395919e+02	-3.423236e+01
6.432862e+02	-3.428158e+01
6.470017e+02	-3.433511e+01
6.507388e+02	-3.438293e+01
6.544974e+02	-3.443785e+01
6.582778e+02	-3.448484e+01
6.620800e+02	-3.453729e+01
6.659041e+02	-3.458399e+01
6.697504e+02	-3.463313e+01
6.736188e+02	-3.468575e+01
6.775096e+02	-3.472945e+01
6.814229e+02	-3.478275e+01
6.853587e+02	-3.483377e+01
6.893173e+02	-3.489185e+01
6.932988e+02	-3.494481e+01
6.973033e+02	-3.498719e+01
7.013309e+02	-3.503510e+01
