Frequency(Hz)	Magnitude(dB)
1.000000e+01	-1.921716e+00
1.005776e+01	-1.939812e+00
1.011585e+01	-1.957696e+00
1.017428e+01	-1.975987e+00
1.023305e+01	-1.994451e+00
1.029215e+01	-2.012709e+00
1.035160e+01	-2.031533e+00
1.041139e+01	-2.050219e+00
1.047153e+01	-2.069450e+00
1.053201e+01	-2.088312e+00
1.059284e+01	-2.107246e+00
1.065403e+01	-2.126503e+00
1.071556e+01	-2.146202e+00
1.077746e+01	-2.165907e+00
1.083971e+01	-2.185438e+00
1.090232e+01	-2.205268e+00
1.096529e+01	-2.225254e+00
1.102862e+01	-2.245202e+00
1.109232e+01	-2.265730e+00
1.115639e+01	-2.285935e+00
1.122083e+01	-2.306543e+00
1.128564e+01	-2.327061e+00
1.135083e+01	-2.348025e+00
1.141639e+01	-2.368853e+00
1.148233e+01	-2.389908e+00
1.154865e+01	-2.411130e+00
1.161536e+01	-2.432565e+00
1.168245e+01	-2.454066e+00
1.174992e+01	-2.475667e+00
1.181779e+01	-2.497668e+00
1.188605e+01	-2.519833e+00
1.195470e+01	-2.541631e+00
1.202375e+01	-2.563983e+00
1.209320e+01	-2.586394e+00
1.216305e+01	-2.608738e+00
1.223330e+01	-2.631615e+00
1.230396e+01	-2.654491e+00
1.237503e+01	-2.677484e+00
1.244651e+01	-2.700371e+00
1.251840e+01	-2.723365e+00
1.259070e+01	-2.747040e+00
1.266343e+01	-2.770437e+00
1.273657e+01	-2.794277e+00
1.281014e+01	-2.817924e+00
1.288413e+01	-2.841907e+00
1.295855e+01	-2.866134e+00
1.303339e+01	-2.890099e+00
1.310867e+01	-2.914661e+00
1.318439e+01	-2.939285e+00
1.326054e+01	-2.964038e+00
1.333713e+01	-2.988675e+00
1.341417e+01	-3.013703e+00
1.349165e+01	-3.038577e+00
1.356958e+01	-3.064161e+00
1.364795e+01	-3.089339e+00
1.372678e+01	-3.114759e+00
1.380607e+01	-3.140719e+00
1.388581e+01	-3.166286e+00
1.396602e+01	-3.192497e+00
1.404668e+01	-3.218521e+00
1.412782e+01	-3.244875e+00
1.420942e+01	-3.271089e+00
1.429149e+01	-3.297504e+00
1.437404e+01	-3.324423e+00
1.445706e+01	-3.351217e+00
1.454057e+01	-3.378004e+00
1.462455e+01	-3.405145e+00
1.470902e+01	-3.432441e+00
1.479398e+01	-3.460025e+00
1.487943e+01	-3.487518e+00
1.496537e+01	-3.515014e+00
1.505181e+01	-3.543014e+00
1.513875e+01	-3.571156e+00
1.522619e+01	-3.598926e+00
1.531414e+01	-3.627551e+00
1.540259e+01	-3.655428e+00
1.549156e+01	-3.684359e+00
1.558103e+01	-3.713108e+00
1.567103e+01	-3.741740e+00
1.576155e+01	-3.770542e+00
1.585258e+01	-3.799894e+00
1.594415e+01	-3.829073e+00
1.603624e+01	-3.858597e+00
1.612886e+01	-3.887816e+00
1.622202e+01	-3.917790e+00
1.631572e+01	-3.947462e+00
1.640996e+01	-3.977410e+00
1.650474e+01	-4.007536e+00
1.660008e+01	-4.037952e+00
1.669596e+01	-4.068109e+00
1.679239e+01	-4.098509e+00
1.688938e+01	-4.128983e+00
1.698694e+01	-4.159885e+00
1.708505e+01	-4.190734e+00
1.718373e+01	-4.221786e+00
1.728299e+01	-4.253163e+00
1.738281e+01	-4.284314e+00
1.748322e+01	-4.315810e+00
1.758420e+01	-4.347017e+00
1.768576e+01	-4.379115e+00
1.778792e+01	-4.410865e+00
1.789066e+01	-4.442865e+00
1.799399e+01	-4.474930e+00
1.809793e+01	-4.507001e+00
1.820246e+01	-4.539091e+00
1.830760e+01	-4.572004e+00
1.841334e+01	-4.604603e+00
1.851969e+01	-4.637218e+00
1.862666e+01	-4.670145e+00
1.873425e+01	-4.703019e+00
1.884246e+01	-4.736283e+00
1.895129e+01	-4.769766e+00
1.906075e+01	-4.803190e+00
1.917085e+01	-4.836497e+00
1.928158e+01	-4.870566e+00
1.939295e+01	-4.904032e+00
1.950496e+01	-4.938224e+00
1.961762e+01	-4.972034e+00
1.973093e+01	-5.006191e+00
1.984490e+01	-5.040682e+00
1.995952e+01	-5.074848e+00
2.007480e+01	-5.109160e+00
2.019076e+01	-5.144130e+00
2.030738e+01	-5.178821e+00
2.042467e+01	-5.214044e+00
2.054264e+01	-5.248973e+00
2.066130e+01	-5.283640e+00
2.078064e+01	-5.319267e+00
2.090066e+01	-5.354662e+00
2.102139e+01	-5.390433e+00
2.114280e+01	-5.425857e+00
2.126492e+01	-5.461568e+00
2.138775e+01	-5.497415e+00
2.151128e+01	-5.533343e+00
2.163553e+01	-5.569640e+00
2.176050e+01	-5.605338e+00
2.188619e+01	-5.642205e+00
2.201260e+01	-5.678739e+00
2.213974e+01	-5.715013e+00
2.226762e+01	-5.751657e+00
2.239624e+01	-5.788620e+00
2.252560e+01	-5.825453e+00
2.265571e+01	-5.862478e+00
2.278656e+01	-5.899445e+00
2.291818e+01	-5.936891e+00
2.305055e+01	-5.974121e+00
2.318369e+01	-6.011602e+00
2.331760e+01	-6.049159e+00
2.345228e+01	-6.086762e+00
2.358774e+01	-6.124452e+00
2.372398e+01	-6.162277e+00
2.386101e+01	-6.200284e+00
2.399883e+01	-6.238493e+00
2.413745e+01	-6.276879e+00
2.427686e+01	-6.315342e+00
2.441709e+01	-6.353438e+00
2.455812e+01	-6.392079e+00
2.469997e+01	-6.430229e+00
2.484263e+01	-6.468916e+00
2.498612e+01	-6.508030e+00
2.513044e+01	-6.546412e+00
2.527559e+01	-6.585721e+00
2.542158e+01	-6.624612e+00
2.556842e+01	-6.664039e+00
2.571610e+01	-6.703145e+00
2.586463e+01	-6.742423e+00
2.601403e+01	-6.782114e+00
2.616428e+01	-6.821586e+00
2.631541e+01	-6.861389e+00
2.646740e+01	-6.901131e+00
2.662028e+01	-6.941042e+00
2.677404e+01	-6.980605e+00
2.692868e+01	-7.020912e+00
2.708422e+01	-7.061149e+00
2.724066e+01	-7.101712e+00
2.739800e+01	-7.141823e+00
2.755625e+01	-7.182121e+00
2.771541e+01	-7.222329e+00
2.787550e+01	-7.262908e+00
2.803650e+01	-7.303752e+00
2.819844e+01	-7.344532e+00
2.836131e+01	-7.385637e+00
2.852513e+01	-7.426176e+00
2.868989e+01	-7.467613e+00
2.885560e+01	-7.508397e+00
2.902227e+01	-7.549383e+00
2.918990e+01	-7.591314e+00
2.935850e+01	-7.632757e+00
2.952807e+01	-7.673730e+00
2.969863e+01	-7.715077e+00
2.987016e+01	-7.757156e+00
3.004269e+01	-7.798773e+00
3.021622e+01	-7.840020e+00
3.039075e+01	-7.881930e+00
3.056628e+01	-7.924338e+00
3.074283e+01	-7.966037e+00
3.092040e+01	-8.008280e+00
3.109900e+01	-8.050267e+00
3.127862e+01	-8.092344e+00
3.145929e+01	-8.134865e+00
3.164099e+01	-8.177259e+00
3.182375e+01	-8.219720e+00
3.200756e+01	-8.262065e+00
3.219244e+01	-8.305174e+00
3.237838e+01	-8.347119e+00
3.256540e+01	-8.390292e+00
3.275349e+01	-8.432960e+00
3.294268e+01	-8.475735e+00
3.313295e+01	-8.519031e+00
3.332433e+01	-8.561799e+00
3.351681e+01	-8.604688e+00
3.371040e+01	-8.648253e+00
3.390511e+01	-8.691284e+00
3.410094e+01	-8.734701e+00
3.429791e+01	-8.777684e+00
3.449601e+01	-8.821302e+00
3.469526e+01	-8.864922e+00
3.489566e+01	-8.908847e+00
3.509721e+01	-8.952060e+00
3.529993e+01	-8.995631e+00
3.550382e+01	-9.039617e+00
3.570889e+01	-9.083084e+00
3.591515e+01	-9.127258e+00
3.612259e+01	-9.171155e+00
3.633123e+01	-9.215486e+00
3.654108e+01	-9.259555e+00
3.675214e+01	-9.303351e+00
3.696442e+01	-9.346960e+00
3.717792e+01	-9.391823e+00
3.739266e+01	-9.436360e+00
3.760864e+01	-9.480408e+00
3.782587e+01	-9.524730e+00
3.804435e+01	-9.569547e+00
3.826409e+01	-9.613976e+00
3.848510e+01	-9.658453e+00
3.870739e+01	-9.703027e+00
3.893096e+01	-9.748053e+00
3.915583e+01	-9.792344e+00
3.938199e+01	-9.837766e+00
3.960946e+01	-9.882814e+00
3.983824e+01	-9.927492e+00
4.006834e+01	-9.972467e+00
4.029978e+01	-1.001760e+01
4.053255e+01	-1.006228e+01
4.076666e+01	-1.010729e+01
4.100213e+01	-1.015229e+01
4.123896e+01	-1.019756e+01
4.147715e+01	-1.024251e+01
4.171672e+01	-1.028825e+01
4.195767e+01	-1.033349e+01
4.220002e+01	-1.037948e+01
4.244377e+01	-1.042465e+01
4.268892e+01	-1.046996e+01
4.293549e+01	-1.051575e+01
4.318348e+01	-1.056166e+01
4.343291e+01	-1.060604e+01
4.368377e+01	-1.065320e+01
4.393609e+01	-1.069887e+01
4.418986e+01	-1.074382e+01
4.444510e+01	-1.079056e+01
4.470182e+01	-1.083615e+01
4.496001e+01	-1.088199e+01
4.521970e+01	-1.092787e+01
4.548089e+01	-1.097329e+01
4.574358e+01	-1.101940e+01
4.600779e+01	-1.106586e+01
4.627353e+01	-1.111194e+01
4.654081e+01	-1.115746e+01
4.680963e+01	-1.120396e+01
4.708000e+01	-1.125055e+01
4.735193e+01	-1.129697e+01
4.762543e+01	-1.134333e+01
4.790051e+01	-1.139001e+01
4.817719e+01	-1.143595e+01
4.845545e+01	-1.148257e+01
4.873533e+01	-1.152868e+01
4.901682e+01	-1.157569e+01
4.929994e+01	-1.162267e+01
4.958470e+01	-1.166890e+01
4.987110e+01	-1.171509e+01
5.015915e+01	-1.176183e+01
5.044887e+01	-1.180862e+01
5.074026e+01	-1.185516e+01
5.103333e+01	-1.190195e+01
5.132810e+01	-1.194946e+01
5.162457e+01	-1.199648e+01
5.192275e+01	-1.204273e+01
5.222265e+01	-1.208986e+01
5.252429e+01	-1.213629e+01
5.282767e+01	-1.218377e+01
5.313280e+01	-1.223063e+01
5.343969e+01	-1.227747e+01
5.374836e+01	-1.232475e+01
5.405880e+01	-1.237238e+01
5.437105e+01	-1.241844e+01
5.468509e+01	-1.246648e+01
5.500095e+01	-1.251315e+01
5.531863e+01	-1.256050e+01
5.563815e+01	-1.260817e+01
5.595951e+01	-1.265498e+01
5.628273e+01	-1.270273e+01
5.660782e+01	-1.275029e+01
5.693479e+01	-1.279791e+01
5.726364e+01	-1.284446e+01
5.759439e+01	-1.289280e+01
5.792705e+01	-1.293986e+01
5.826164e+01	-1.298758e+01
5.859815e+01	-1.303436e+01
5.893662e+01	-1.308206e+01
5.927703e+01	-1.312932e+01
5.961941e+01	-1.317820e+01
5.996377e+01	-1.322478e+01
6.031012e+01	-1.327365e+01
6.065847e+01	-1.331965e+01
6.100883e+01	-1.336843e+01
6.136121e+01	-1.341551e+01
6.171563e+01	-1.346370e+01
6.207210e+01	-1.351115e+01
6.243063e+01	-1.355953e+01
6.279122e+01	-1.360734e+01
6.315390e+01	-1.365498e+01
6.351868e+01	-1.370283e+01
6.388556e+01	-1.375169e+01
6.425456e+01	-1.379858e+01
6.462569e+01	-1.384683e+01
6.499897e+01	-1.389457e+01
6.537440e+01	-1.394227e+01
6.575200e+01	-1.399121e+01
6.613178e+01	-1.403782e+01
6.651375e+01	-1.408644e+01
6.689793e+01	-1.413526e+01
6.728433e+01	-1.418216e+01
6.767297e+01	-1.423112e+01
6.806384e+01	-1.427923e+01
6.845698e+01	-1.432713e+01
6.885238e+01	-1.437522e+01
6.925007e+01	-1.442469e+01
6.965005e+01	-1.447170e+01
7.005235e+01	-1.452068e+01
7.045697e+01	-1.456879e+01
7.086393e+01	-1.461667e+01
7.127323e+01	-1.466526e+01
7.168490e+01	-1.471359e+01
7.209895e+01	-1.476158e+01
7.251539e+01	-1.481072e+01
7.293424e+01	-1.485877e+01
7.335551e+01	-1.490687e+01
7.377920e+01	-1.495478e+01
7.420535e+01	-1.500388e+01
7.463396e+01	-1.505188e+01
7.506504e+01	-1.510091e+01
7.549861e+01	-1.514947e+01
7.593469e+01	-1.519826e+01
7.637328e+01	-1.524631e+01
7.681441e+01	-1.529483e+01
7.725809e+01	-1.534293e+01
7.770433e+01	-1.539187e+01
7.815315e+01	-1.544112e+01
7.860456e+01	-1.548855e+01
7.905857e+01	-1.553818e+01
7.951521e+01	-1.558627e+01
7.997449e+01	-1.563647e+01
8.043642e+01	-1.568392e+01
8.090102e+01	-1.573181e+01
8.136830e+01	-1.578159e+01
8.183828e+01	-1.582938e+01
8.231097e+01	-1.587827e+01
8.278640e+01	-1.592719e+01
8.326457e+01	-1.597588e+01
8.374550e+01	-1.602531e+01
8.422921e+01	-1.607360e+01
8.471572e+01	-1.612225e+01
8.520503e+01	-1.617143e+01
8.569717e+01	-1.621984e+01
8.619215e+01	-1.626738e+01
8.669000e+01	-1.631782e+01
8.719071e+01	-1.636652e+01
8.769432e+01	-1.641578e+01
8.820084e+01	-1.646470e+01
8.871029e+01	-1.651195e+01
8.922267e+01	-1.656216e+01
8.973802e+01	-1.661066e+01
9.025634e+01	-1.665855e+01
9.077766e+01	-1.670969e+01
9.130199e+01	-1.675825e+01
9.182935e+01	-1.680587e+01
9.235975e+01	-1.685635e+01
9.289321e+01	-1.690471e+01
9.342976e+01	-1.695424e+01
9.396941e+01	-1.700257e+01
9.451217e+01	-1.705220e+01
9.505807e+01	-1.710034e+01
9.560712e+01	-1.715021e+01
9.615934e+01	-1.719950e+01
9.671476e+01	-1.724834e+01
9.727338e+01	-1.729639e+01
9.783522e+01	-1.734662e+01
9.840032e+01	-1.739562e+01
9.896867e+01	-1.744486e+01
9.954031e+01	-1.749291e+01
1.001153e+02	-1.754177e+01
1.006935e+02	-1.759294e+01
1.012751e+02	-1.764072e+01
1.018601e+02	-1.769047e+01
1.024484e+02	-1.773898e+01
1.030402e+02	-1.778855e+01
1.036353e+02	-1.783838e+01
1.042339e+02	-1.788787e+01
1.048360e+02	-1.793643e+01
1.054415e+02	-1.798627e+01
1.060505e+02	-1.803495e+01
1.066631e+02	-1.808512e+01
1.072791e+02	-1.813290e+01
1.078988e+02	-1.818242e+01
1.085220e+02	-1.823203e+01
1.091488e+02	-1.828211e+01
1.097793e+02	-1.832994e+01
1.104133e+02	-1.838042e+01
1.110511e+02	-1.843034e+01
1.116925e+02	-1.847832e+01
1.123376e+02	-1.852738e+01
1.129865e+02	-1.857831e+01
1.136391e+02	-1.862602e+01
1.142955e+02	-1.867694e+01
1.149556e+02	-1.872576e+01
1.156196e+02	-1.877344e+01
1.162874e+02	-1.882375e+01
1.169591e+02	-1.887407e+01
1.176347e+02	-1.892273e+01
1.183141e+02	-1.897230e+01
1.189975e+02	-1.902197e+01
1.196848e+02	-1.907114e+01
1.203761e+02	-1.911990e+01
1.210714e+02	-1.916870e+01
1.217707e+02	-1.921957e+01
1.224740e+02	-1.926978e+01
1.231814e+02	-1.931665e+01
1.238929e+02	-1.936701e+01
1.246085e+02	-1.941705e+01
1.253283e+02	-1.946601e+01
1.260522e+02	-1.951634e+01
1.267802e+02	-1.956727e+01
1.275125e+02	-1.961613e+01
1.282490e+02	-1.966405e+01
1.289898e+02	-1.971364e+01
1.297348e+02	-1.976423e+01
1.304842e+02	-1.981326e+01
1.312378e+02	-1.986320e+01
1.319959e+02	-1.991340e+01
1.327583e+02	-1.996203e+01
1.335251e+02	-2.001041e+01
1.342963e+02	-2.005936e+01
1.350720e+02	-2.011059e+01
1.358522e+02	-2.016218e+01
1.366368e+02	-2.020764e+01
1.374260e+02	-2.025955e+01
1.382198e+02	-2.030904e+01
1.390182e+02	-2.035703e+01
1.398211e+02	-2.040533e+01
1.406287e+02	-2.045756e+01
1.414410e+02	-2.050635e+01
1.422579e+02	-2.055574e+01
1.430796e+02	-2.060435e+01
1.439060e+02	-2.065548e+01
1.447372e+02	-2.070633e+01
1.455732e+02	-2.075564e+01
1.464141e+02	-2.080511e+01
1.472597e+02	-2.085459e+01
1.481103e+02	-2.090322e+01
1.489658e+02	-2.095422e+01
1.498262e+02	-2.100408e+01
1.506916e+02	-2.105344e+01
1.515620e+02	-2.110226e+01
1.524374e+02	-2.115275e+01
1.533179e+02	-2.120196e+01
1.542034e+02	-2.124921e+01
1.550941e+02	-2.130116e+01
1.559899e+02	-2.135142e+01
1.568909e+02	-2.139882e+01
1.577971e+02	-2.145069e+01
1.587085e+02	-2.149891e+01
1.596252e+02	-2.154967e+01
1.605472e+02	-2.159738e+01
1.614745e+02	-2.164896e+01
1.624072e+02	-2.169777e+01
1.633453e+02	-2.174687e+01
1.642887e+02	-2.179847e+01
1.652377e+02	-2.184797e+01
1.661921e+02	-2.189828e+01
1.671520e+02	-2.194724e+01
1.681175e+02	-2.199838e+01
1.690885e+02	-2.204438e+01
1.700651e+02	-2.209517e+01
1.710474e+02	-2.214672e+01
1.720354e+02	-2.219815e+01
1.730291e+02	-2.224510e+01
1.740285e+02	-2.229549e+01
1.750337e+02	-2.234438e+01
1.760446e+02	-2.239449e+01
1.770615e+02	-2.244281e+01
1.780842e+02	-2.249455e+01
1.791128e+02	-2.254579e+01
1.801473e+02	-2.259429e+01
1.811878e+02	-2.264396e+01
1.822344e+02	-2.269471e+01
1.832870e+02	-2.274226e+01
1.843456e+02	-2.279248e+01
1.854104e+02	-2.284388e+01
1.864813e+02	-2.289399e+01
1.875584e+02	-2.294344e+01
1.886418e+02	-2.299326e+01
1.897313e+02	-2.304030e+01
1.908272e+02	-2.309109e+01
1.919294e+02	-2.314170e+01
1.930380e+02	-2.319098e+01
1.941530e+02	-2.324015e+01
1.952744e+02	-2.329177e+01
1.964023e+02	-2.334014e+01
1.975367e+02	-2.338988e+01
1.986777e+02	-2.344027e+01
1.998252e+02	-2.348872e+01
2.009794e+02	-2.353939e+01
2.021403e+02	-2.359036e+01
2.033078e+02	-2.364152e+01
2.044821e+02	-2.369020e+01
2.056632e+02	-2.373891e+01
2.068511e+02	-2.378798e+01
2.080459e+02	-2.383926e+01
2.092475e+02	-2.388735e+01
2.104561e+02	-2.393769e+01
2.116717e+02	-2.398721e+01
2.128943e+02	-2.403799e+01
2.141240e+02	-2.409053e+01
2.153608e+02	-2.413935e+01
2.166047e+02	-2.418959e+01
2.178558e+02	-2.423748e+01
2.191141e+02	-2.428689e+01
2.203797e+02	-2.433685e+01
2.216526e+02	-2.438605e+01
2.229329e+02	-2.443984e+01
2.242205e+02	-2.448960e+01
2.255156e+02	-2.453924e+01
2.268182e+02	-2.458962e+01
2.281283e+02	-2.463698e+01
2.294459e+02	-2.468617e+01
2.307712e+02	-2.473647e+01
2.321041e+02	-2.478719e+01
2.334447e+02	-2.483829e+01
2.347931e+02	-2.488759e+01
2.361493e+02	-2.493645e+01
2.375133e+02	-2.498789e+01
2.388851e+02	-2.503328e+01
2.402649e+02	-2.508665e+01
2.416527e+02	-2.513605e+01
2.430484e+02	-2.518408e+01
2.444523e+02	-2.523568e+01
2.458642e+02	-2.528701e+01
2.472843e+02	-2.533556e+01
2.487126e+02	-2.538547e+01
2.501492e+02	-2.543605e+01
2.515940e+02	-2.548627e+01
2.530472e+02	-2.553710e+01
2.545088e+02	-2.558373e+01
2.559789e+02	-2.563501e+01
2.574574e+02	-2.568718e+01
2.589444e+02	-2.573196e+01
2.604401e+02	-2.578597e+01
2.619444e+02	-2.583600e+01
2.634574e+02	-2.588427e+01
2.649791e+02	-2.593370e+01
2.665096e+02	-2.598271e+01
2.680489e+02	-2.603423e+01
2.695972e+02	-2.608462e+01
2.711544e+02	-2.613520e+01
2.727205e+02	-2.618530e+01
2.742958e+02	-2.623263e+01
2.758801e+02	-2.628831e+01
2.774736e+02	-2.633261e+01
2.790762e+02	-2.638443e+01
2.806882e+02	-2.643578e+01
2.823094e+02	-2.648434e+01
2.839400e+02	-2.653547e+01
2.855800e+02	-2.658609e+01
2.872295e+02	-2.663351e+01
2.888886e+02	-2.668313e+01
2.905572e+02	-2.673566e+01
2.922354e+02	-2.678472e+01
2.939234e+02	-2.683198e+01
2.956211e+02	-2.688533e+01
2.973286e+02	-2.693742e+01
2.990459e+02	-2.698366e+01
3.007732e+02	-2.703017e+01
3.025104e+02	-2.708215e+01
3.042577e+02	-2.713414e+01
3.060151e+02	-2.718420e+01
3.077826e+02	-2.723534e+01
3.095604e+02	-2.728272e+01
3.113484e+02	-2.733443e+01
3.131467e+02	-2.738437e+01
3.149554e+02	-2.743553e+01
3.167746e+02	-2.748617e+01
3.186043e+02	-2.753127e+01
3.204445e+02	-2.758578e+01
3.222954e+02	-2.763525e+01
3.241570e+02	-2.768330e+01
3.260293e+02	-2.773284e+01
3.279124e+02	-2.778571e+01
3.298064e+02	-2.783446e+01
3.317114e+02	-2.788441e+01
3.336273e+02	-2.793167e+01
3.355544e+02	-2.798090e+01
3.374925e+02	-2.803696e+01
3.394418e+02	-2.808120e+01
3.414024e+02	-2.813555e+01
3.433744e+02	-2.818649e+01
3.453577e+02	-2.823457e+01
3.473525e+02	-2.828287e+01
3.493588e+02	-2.833674e+01
3.513766e+02	-2.838470e+01
3.534062e+02	-2.843615e+01
3.554474e+02	-2.848497e+01
3.575005e+02	-2.853778e+01
3.595654e+02	-2.858620e+01
3.616422e+02	-2.863246e+01
3.637311e+02	-2.868331e+01
3.658320e+02	-2.872943e+01
3.679450e+02	-2.878364e+01
3.700702e+02	-2.883494e+01
3.722077e+02	-2.888527e+01
3.743576e+02	-2.893337e+01
3.765199e+02	-2.898608e+01
3.786946e+02	-2.903026e+01
3.808820e+02	-2.908746e+01
3.830819e+02	-2.913435e+01
3.852946e+02	-2.918340e+01
3.875200e+02	-2.923255e+01
3.897583e+02	-2.928715e+01
3.920096e+02	-2.933466e+01
3.942738e+02	-2.938516e+01
3.965511e+02	-2.943858e+01
3.988416e+02	-2.948485e+01
4.011452e+02	-2.953678e+01
4.034622e+02	-2.958662e+01
4.057926e+02	-2.963473e+01
4.081365e+02	-2.968586e+01
4.104938e+02	-2.973328e+01
4.128648e+02	-2.978406e+01
4.152495e+02	-2.983579e+01
4.176480e+02	-2.988339e+01
4.200603e+02	-2.994177e+01
4.224866e+02	-2.998437e+01
4.249268e+02	-3.003671e+01
4.273812e+02	-3.008686e+01
4.298497e+02	-3.013598e+01
4.323325e+02	-3.018455e+01
4.348297e+02	-3.023636e+01
4.373412e+02	-3.028998e+01
4.398673e+02	-3.034036e+01
4.424079e+02	-3.038504e+01
4.449633e+02	-3.043722e+01
4.475334e+02	-3.048347e+01
4.501183e+02	-3.053520e+01
4.527182e+02	-3.058993e+01
4.553330e+02	-3.063269e+01
4.579630e+02	-3.068717e+01
4.606082e+02	-3.074052e+01
4.632687e+02	-3.078592e+01
4.659445e+02	-3.084039e+01
4.686358e+02	-3.089163e+01
4.713426e+02	-3.093517e+01
4.740650e+02	-3.098402e+01
4.768032e+02	-3.104173e+01
4.795572e+02	-3.108825e+01
4.823271e+02	-3.114004e+01
4.851130e+02	-3.119505e+01
4.879150e+02	-3.124279e+01
4.907332e+02	-3.128935e+01
4.935676e+02	-3.134210e+01
4.964185e+02	-3.139061e+01
4.992858e+02	-3.144246e+01
5.021696e+02	-3.149900e+01
5.050701e+02	-3.154803e+01
5.079874e+02	-3.159175e+01
5.109215e+02	-3.164443e+01
5.138726e+02	-3.168791e+01
5.168407e+02	-3.174278e+01
5.198259e+02	-3.179174e+01
5.228284e+02	-3.184381e+01
5.258482e+02	-3.189676e+01
5.288855e+02	-3.193905e+01
5.319403e+02	-3.198843e+01
5.350128e+02	-3.205050e+01
5.381030e+02	-3.209301e+01
5.412111e+02	-3.215058e+01
5.443371e+02	-3.219444e+01
5.474812e+02	-3.224185e+01
5.506434e+02	-3.229222e+01
5.538239e+02	-3.234619e+01
5.570228e+02	-3.239230e+01
5.602401e+02	-3.244120e+01
5.634760e+02	-3.249587e+01
5.667306e+02	-3.254338e+01
5.700040e+02	-3.259571e+01
5.732964e+02	-3.264436e+01
5.766077e+02	-3.269298e+01
5.799382e+02	-3.274526e+01
5.832879e+02	-3.279591e+01
5.866569e+02	-3.284584e+01
5.900454e+02	-3.289580e+01
5.934535e+02	-3.293886e+01
5.968813e+02	-3.299873e+01
6.003288e+02	-3.304061e+01
6.037963e+02	-3.309887e+01
6.072838e+02	-3.315134e+01
6.107914e+02	-3.319771e+01
6.143194e+02	-3.324947e+01
6.178676e+02	-3.330272e+01
6.214364e+02	-3.334181e+01
6.250258e+02	-3.339569e+01
6.286359e+02	-3.345478e+01
6.322669e+02	-3.350024e+01
6.359189e+02	-3.355034e+01
6.395919e+02	-3.358911e+01
6.432862e+02	-3.364820e+01
6.470017e+02	-3.369829e+01
6.507388e+02	-3.375116e+01
6.544974e+02	-3.380417e+01
6.582778e+02	-3.385327e+01
6.620800e+02	-3.389909e+01
6.659041e+02	-3.395387e+01
6.697504e+02	-3.399935e+01
6.736188e+02	-3.405065e+01
6.775096e+02	-3.410761e+01
6.814229e+02	-3.415570e+01
6.853587e+02	-3.420005e+01
6.893173e+02	-3.425198e+01
6.932988e+02	-3.429682e+01
6.973033e+02	-3.436045e+01
7.013309e+02	-3.440377e+01
