Frequency(Hz)	Magnitude(dB)
1.000000e+01	-2.274835e+00
1.005776e+01	-2.295360e+00
1.011585e+01	-2.315960e+00
1.017428e+01	-2.336758e+00
1.023305e+01	-2.357671e+00
1.029215e+01	-2.378524e+00
1.035160e+01	-2.399768e+00
1.041139e+01	-2.421127e+00
1.047153e+01	-2.442445e+00
1.053201e+01	-2.464142e+00
1.059284e+01	-2.486018e+00
1.065403e+01	-2.507601e+00
1.071556e+01	-2.529609e+00
1.077746e+01	-2.551774e+00
1.083971e+01	-2.574367e+00
1.090232e+01	-2.596665e+00
1.096529e+01	-2.619302e+00
1.102862e+01	-2.641628e+00
1.109232e+01	-2.664766e+00
1.115639e+01	-2.687932e+00
1.122083e+01	-2.710788e+00
1.128564e+01	-2.734294e+00
1.135083e+01	-2.757929e+00
1.141639e+01	-2.781171e+00
1.148233e+01	-2.804944e+00
1.154865e+01	-2.828946e+00
1.161536e+01	-2.852890e+00
1.168245e+01	-2.877109e+00
1.174992e+01	-2.901334e+00
1.181779e+01	-2.925757e+00
1.188605e+01	-2.950300e+00
1.195470e+01	-2.975155e+00
1.202375e+01	-3.000074e+00
1.209320e+01	-3.025091e+00
1.216305e+01	-3.050183e+00
1.223330e+01	-3.075395e+00
1.230396e+01	-3.100885e+00
1.237503e+01	-3.126494e+00
1.244651e+01	-3.152253e+00
1.251840e+01	-3.178076e+00
1.259070e+01	-3.204167e+00
1.266343e+01	-3.230708e+00
1.273657e+01	-3.256692e+00
1.281014e+01	-3.283204e+00
1.288413e+01	-3.309808e+00
1.295855e+01	-3.336735e+00
1.303339e+01	-3.363548e+00
1.310867e+01	-3.390378e+00
1.318439e+01	-3.417479e+00
1.326054e+01	-3.445132e+00
1.333713e+01	-3.472474e+00
1.341417e+01	-3.500140e+00
1.349165e+01	-3.527587e+00
1.356958e+01	-3.555835e+00
1.364795e+01	-3.583524e+00
1.372678e+01	-3.611870e+00
1.380607e+01	-3.640120e+00
1.388581e+01	-3.668580e+00
1.396602e+01	-3.697274e+00
1.404668e+01	-3.726180e+00
1.412782e+01	-3.755096e+00
1.420942e+01	-3.783739e+00
1.429149e+01	-3.813080e+00
1.437404e+01	-3.842575e+00
1.445706e+01	-3.871702e+00
1.454057e+01	-3.901442e+00
1.462455e+01	-3.930965e+00
1.470902e+01	-3.961004e+00
1.479398e+01	-3.991138e+00
1.487943e+01	-4.021240e+00
1.496537e+01	-4.051361e+00
1.505181e+01	-4.081920e+00
1.513875e+01	-4.112668e+00
1.522619e+01	-4.143125e+00
1.531414e+01	-4.174062e+00
1.540259e+01	-4.205033e+00
1.549156e+01	-4.236065e+00
1.558103e+01	-4.267379e+00
1.567103e+01	-4.298478e+00
1.576155e+01	-4.329915e+00
1.585258e+01	-4.361717e+00
1.594415e+01	-4.393453e+00
1.603624e+01	-4.425409e+00
1.612886e+01	-4.457595e+00
1.622202e+01	-4.489649e+00
1.631572e+01	-4.521785e+00
1.640996e+01	-4.554337e+00
1.650474e+01	-4.586953e+00
1.660008e+01	-4.619521e+00
1.669596e+01	-4.652177e+00
1.679239e+01	-4.685212e+00
1.688938e+01	-4.718209e+00
1.698694e+01	-4.751387e+00
1.708505e+01	-4.784734e+00
1.718373e+01	-4.818130e+00
1.728299e+01	-4.852028e+00
1.738281e+01	-4.885763e+00
1.748322e+01	-4.919624e+00
1.758420e+01	-4.953469e+00
1.768576e+01	-4.987627e+00
1.778792e+01	-5.021843e+00
1.789066e+01	-5.056126e+00
1.799399e+01	-5.090482e+00
1.809793e+01	-5.125012e+00
1.820246e+01	-5.159777e+00
1.830760e+01	-5.194553e+00
1.841334e+01	-5.229824e+00
1.851969e+01	-5.264704e+00
1.862666e+01	-5.300177e+00
1.873425e+01	-5.335337e+00
1.884246e+01	-5.370903e+00
1.895129e+01	-5.406421e+00
1.906075e+01	-5.441920e+00
1.917085e+01	-5.477849e+00
1.928158e+01	-5.513777e+00
1.939295e+01	-5.550004e+00
1.950496e+01	-5.586061e+00
1.961762e+01	-5.622439e+00
1.973093e+01	-5.658667e+00
1.984490e+01	-5.695182e+00
1.995952e+01	-5.731483e+00
2.007480e+01	-5.768184e+00
2.019076e+01	-5.805135e+00
2.030738e+01	-5.841826e+00
2.042467e+01	-5.879513e+00
2.054264e+01	-5.916420e+00
2.066130e+01	-5.953442e+00
2.078064e+01	-5.991074e+00
2.090066e+01	-6.028418e+00
2.102139e+01	-6.065955e+00
2.114280e+01	-6.104212e+00
2.126492e+01	-6.141966e+00
2.138775e+01	-6.179677e+00
2.151128e+01	-6.217815e+00
2.163553e+01	-6.256083e+00
2.176050e+01	-6.294102e+00
2.188619e+01	-6.332401e+00
2.201260e+01	-6.370573e+00
2.213974e+01	-6.409218e+00
2.226762e+01	-6.447954e+00
2.239624e+01	-6.486654e+00
2.252560e+01	-6.525724e+00
2.265571e+01	-6.564701e+00
2.278656e+01	-6.603718e+00
2.291818e+01	-6.642635e+00
2.305055e+01	-6.681620e+00
2.318369e+01	-6.721103e+00
2.331760e+01	-6.760444e+00
2.345228e+01	-6.800361e+00
2.358774e+01	-6.839798e+00
2.372398e+01	-6.879485e+00
2.386101e+01	-6.919728e+00
2.399883e+01	-6.959225e+00
2.413745e+01	-6.999166e+00
2.427686e+01	-7.038714e+00
2.441709e+01	-7.079594e+00
2.455812e+01	-7.119767e+00
2.469997e+01	-7.160108e+00
2.484263e+01	-7.200631e+00
2.498612e+01	-7.241140e+00
2.513044e+01	-7.281610e+00
2.527559e+01	-7.322201e+00
2.542158e+01	-7.363302e+00
2.556842e+01	-7.404101e+00
2.571610e+01	-7.445365e+00
2.586463e+01	-7.486255e+00
2.601403e+01	-7.527027e+00
2.616428e+01	-7.568389e+00
2.631541e+01	-7.609545e+00
2.646740e+01	-7.650884e+00
2.662028e+01	-7.692543e+00
2.677404e+01	-7.734683e+00
2.692868e+01	-7.775813e+00
2.708422e+01	-7.817392e+00
2.724066e+01	-7.859127e+00
2.739800e+01	-7.901136e+00
2.755625e+01	-7.943280e+00
2.771541e+01	-7.985324e+00
2.787550e+01	-8.027463e+00
2.803650e+01	-8.069415e+00
2.819844e+01	-8.111587e+00
2.836131e+01	-8.153994e+00
2.852513e+01	-8.196511e+00
2.868989e+01	-8.238688e+00
2.885560e+01	-8.281494e+00
2.902227e+01	-8.324143e+00
2.918990e+01	-8.366795e+00
2.935850e+01	-8.409329e+00
2.952807e+01	-8.452299e+00
2.969863e+01	-8.495300e+00
2.987016e+01	-8.538384e+00
3.004269e+01	-8.581534e+00
3.021622e+01	-8.624782e+00
3.039075e+01	-8.667387e+00
3.056628e+01	-8.711384e+00
3.074283e+01	-8.754471e+00
3.092040e+01	-8.797592e+00
3.109900e+01	-8.841645e+00
3.127862e+01	-8.884715e+00
3.145929e+01	-8.928509e+00
3.164099e+01	-8.971903e+00
3.182375e+01	-9.015530e+00
3.200756e+01	-9.059454e+00
3.219244e+01	-9.103413e+00
3.237838e+01	-9.147481e+00
3.256540e+01	-9.190709e+00
3.275349e+01	-9.234964e+00
3.294268e+01	-9.279370e+00
3.313295e+01	-9.323510e+00
3.332433e+01	-9.367894e+00
3.351681e+01	-9.412192e+00
3.371040e+01	-9.455850e+00
3.390511e+01	-9.500550e+00
3.410094e+01	-9.544988e+00
3.429791e+01	-9.589691e+00
3.449601e+01	-9.634197e+00
3.469526e+01	-9.678867e+00
3.489566e+01	-9.723287e+00
3.509721e+01	-9.768425e+00
3.529993e+01	-9.813040e+00
3.550382e+01	-9.857073e+00
3.570889e+01	-9.902414e+00
3.591515e+01	-9.947728e+00
3.612259e+01	-9.992859e+00
3.633123e+01	-1.003729e+01
3.654108e+01	-1.008234e+01
3.675214e+01	-1.012823e+01
3.696442e+01	-1.017293e+01
3.717792e+01	-1.021865e+01
3.739266e+01	-1.026403e+01
3.760864e+01	-1.030920e+01
3.782587e+01	-1.035410e+01
3.804435e+01	-1.039986e+01
3.826409e+01	-1.044530e+01
3.848510e+01	-1.049051e+01
3.870739e+01	-1.053582e+01
3.893096e+01	-1.058203e+01
3.915583e+01	-1.062826e+01
3.938199e+01	-1.067357e+01
3.960946e+01	-1.071918e+01
3.983824e+01	-1.076466e+01
4.006834e+01	-1.081058e+01
4.029978e+01	-1.085668e+01
4.053255e+01	-1.090227e+01
4.076666e+01	-1.094909e+01
4.100213e+01	-1.099451e+01
4.123896e+01	-1.104117e+01
4.147715e+01	-1.108719e+01
4.171672e+01	-1.113321e+01
4.195767e+01	-1.117951e+01
4.220002e+01	-1.122551e+01
4.244377e+01	-1.127170e+01
4.268892e+01	-1.131766e+01
4.293549e+01	-1.136418e+01
4.318348e+01	-1.141149e+01
4.343291e+01	-1.145721e+01
4.368377e+01	-1.150363e+01
4.393609e+01	-1.154996e+01
4.418986e+01	-1.159677e+01
4.444510e+01	-1.164264e+01
4.470182e+01	-1.168952e+01
4.496001e+01	-1.173609e+01
4.521970e+01	-1.178319e+01
4.548089e+01	-1.182963e+01
4.574358e+01	-1.187711e+01
4.600779e+01	-1.192322e+01
4.627353e+01	-1.197022e+01
4.654081e+01	-1.201750e+01
4.680963e+01	-1.206470e+01
4.708000e+01	-1.211102e+01
4.735193e+01	-1.215825e+01
4.762543e+01	-1.220499e+01
4.790051e+01	-1.225234e+01
4.817719e+01	-1.229923e+01
4.845545e+01	-1.234714e+01
4.873533e+01	-1.239328e+01
4.901682e+01	-1.244009e+01
4.929994e+01	-1.248731e+01
4.958470e+01	-1.253477e+01
4.987110e+01	-1.258157e+01
5.015915e+01	-1.262987e+01
5.044887e+01	-1.267710e+01
5.074026e+01	-1.272383e+01
5.103333e+01	-1.277180e+01
5.132810e+01	-1.281873e+01
5.162457e+01	-1.286647e+01
5.192275e+01	-1.291413e+01
5.222265e+01	-1.296076e+01
5.252429e+01	-1.300829e+01
5.282767e+01	-1.305634e+01
5.313280e+01	-1.310455e+01
5.343969e+01	-1.315053e+01
5.374836e+01	-1.319857e+01
5.405880e+01	-1.324645e+01
5.437105e+01	-1.329460e+01
5.468509e+01	-1.334251e+01
5.500095e+01	-1.339095e+01
5.531863e+01	-1.343766e+01
5.563815e+01	-1.348577e+01
5.595951e+01	-1.353298e+01
5.628273e+01	-1.358073e+01
5.660782e+01	-1.362901e+01
5.693479e+01	-1.367613e+01
5.726364e+01	-1.372517e+01
5.759439e+01	-1.377340e+01
5.792705e+01	-1.382044e+01
5.826164e+01	-1.386881e+01
5.859815e+01	-1.391662e+01
5.893662e+01	-1.396464e+01
5.927703e+01	-1.401216e+01
5.961941e+01	-1.406022e+01
5.996377e+01	-1.410882e+01
6.031012e+01	-1.415679e+01
6.065847e+01	-1.420520e+01
6.100883e+01	-1.425286e+01
6.136121e+01	-1.430175e+01
6.171563e+01	-1.434951e+01
6.207210e+01	-1.439782e+01
6.243063e+01	-1.444498e+01
6.279122e+01	-1.449380e+01
6.315390e+01	-1.454239e+01
6.351868e+01	-1.458974e+01
6.388556e+01	-1.463819e+01
6.425456e+01	-1.468775e+01
6.462569e+01	-1.473527e+01
6.499897e+01	-1.478380e+01
6.537440e+01	-1.483192e+01
6.575200e+01	-1.488016e+01
6.613178e+01	-1.492896e+01
6.651375e+01	-1.497749e+01
6.689793e+01	-1.502630e+01
6.728433e+01	-1.507496e+01
6.767297e+01	-1.512228e+01
6.806384e+01	-1.517122e+01
6.845698e+01	-1.521952e+01
6.885238e+01	-1.526837e+01
6.925007e+01	-1.531696e+01
6.965005e+01	-1.536566e+01
7.005235e+01	-1.541411e+01
7.045697e+01	-1.546256e+01
7.086393e+01	-1.551057e+01
7.127323e+01	-1.556041e+01
7.168490e+01	-1.560799e+01
7.209895e+01	-1.565750e+01
7.251539e+01	-1.570621e+01
7.293424e+01	-1.575511e+01
7.335551e+01	-1.580434e+01
7.377920e+01	-1.585236e+01
7.420535e+01	-1.590033e+01
7.463396e+01	-1.594976e+01
7.506504e+01	-1.599923e+01
7.549861e+01	-1.604694e+01
7.593469e+01	-1.609514e+01
7.637328e+01	-1.614487e+01
7.681441e+01	-1.619444e+01
7.725809e+01	-1.624384e+01
7.770433e+01	-1.629120e+01
7.815315e+01	-1.634040e+01
7.860456e+01	-1.638846e+01
7.905857e+01	-1.643775e+01
7.951521e+01	-1.648647e+01
7.997449e+01	-1.653533e+01
8.043642e+01	-1.658380e+01
8.090102e+01	-1.663275e+01
8.136830e+01	-1.668311e+01
8.183828e+01	-1.673081e+01
8.231097e+01	-1.678018e+01
8.278640e+01	-1.682974e+01
8.326457e+01	-1.687743e+01
8.374550e+01	-1.692824e+01
8.422921e+01	-1.697582e+01
8.471572e+01	-1.702502e+01
8.520503e+01	-1.707417e+01
8.569717e+01	-1.712427e+01
8.619215e+01	-1.717272e+01
8.669000e+01	-1.722224e+01
8.719071e+01	-1.727170e+01
8.769432e+01	-1.731819e+01
8.820084e+01	-1.736755e+01
8.871029e+01	-1.741769e+01
8.922267e+01	-1.746702e+01
8.973802e+01	-1.751639e+01
9.025634e+01	-1.756630e+01
9.077766e+01	-1.761329e+01
9.130199e+01	-1.766329e+01
9.182935e+01	-1.771288e+01
9.235975e+01	-1.776259e+01
9.289321e+01	-1.781236e+01
9.342976e+01	-1.786059e+01
9.396941e+01	-1.790933e+01
9.451217e+01	-1.796037e+01
9.505807e+01	-1.800999e+01
9.560712e+01	-1.805852e+01
9.615934e+01	-1.810769e+01
9.671476e+01	-1.815598e+01
9.727338e+01	-1.820591e+01
9.783522e+01	-1.825609e+01
9.840032e+01	-1.830456e+01
9.896867e+01	-1.835291e+01
9.954031e+01	-1.840299e+01
1.001153e+02	-1.845184e+01
1.006935e+02	-1.850165e+01
1.012751e+02	-1.855089e+01
1.018601e+02	-1.859918e+01
1.024484e+02	-1.864950e+01
1.030402e+02	-1.869890e+01
1.036353e+02	-1.874810e+01
1.042339e+02	-1.879704e+01
1.048360e+02	-1.884681e+01
1.054415e+02	-1.889545e+01
1.060505e+02	-1.894436e+01
1.066631e+02	-1.899411e+01
1.072791e+02	-1.904358e+01
1.078988e+02	-1.909399e+01
1.085220e+02	-1.914328e+01
1.091488e+02	-1.919221e+01
1.097793e+02	-1.924113e+01
1.104133e+02	-1.928938e+01
1.110511e+02	-1.934058e+01
1.116925e+02	-1.938931e+01
1.123376e+02	-1.943997e+01
1.129865e+02	-1.948951e+01
1.136391e+02	-1.953819e+01
1.142955e+02	-1.958766e+01
1.149556e+02	-1.963877e+01
1.156196e+02	-1.968760e+01
1.162874e+02	-1.973591e+01
1.169591e+02	-1.978520e+01
1.176347e+02	-1.983557e+01
1.183141e+02	-1.988534e+01
1.189975e+02	-1.993519e+01
1.196848e+02	-1.998490e+01
1.203761e+02	-2.003501e+01
1.210714e+02	-2.008384e+01
1.217707e+02	-2.013271e+01
1.224740e+02	-2.018373e+01
1.231814e+02	-2.023283e+01
1.238929e+02	-2.028171e+01
1.246085e+02	-2.033118e+01
1.253283e+02	-2.038040e+01
1.260522e+02	-2.043106e+01
1.267802e+02	-2.047841e+01
1.275125e+02	-2.052981e+01
1.282490e+02	-2.058052e+01
1.289898e+02	-2.062905e+01
1.297348e+02	-2.067834e+01
1.304842e+02	-2.072820e+01
1.312378e+02	-2.077869e+01
1.319959e+02	-2.082533e+01
1.327583e+02	-2.087667e+01
1.335251e+02	-2.092731e+01
1.342963e+02	-2.097811e+01
1.350720e+02	-2.102443e+01
1.358522e+02	-2.107459e+01
1.366368e+02	-2.112536e+01
1.374260e+02	-2.117588e+01
1.382198e+02	-2.122502e+01
1.390182e+02	-2.127516e+01
1.398211e+02	-2.132334e+01
1.406287e+02	-2.137351e+01
1.414410e+02	-2.142279e+01
1.422579e+02	-2.147156e+01
1.430796e+02	-2.152235e+01
1.439060e+02	-2.157153e+01
1.447372e+02	-2.162051e+01
1.455732e+02	-2.167143e+01
1.464141e+02	-2.172266e+01
1.472597e+02	-2.177071e+01
1.481103e+02	-2.182089e+01
1.489658e+02	-2.187111e+01
1.498262e+02	-2.192061e+01
1.506916e+02	-2.197017e+01
1.515620e+02	-2.202044e+01
1.524374e+02	-2.206886e+01
1.533179e+02	-2.211964e+01
1.542034e+02	-2.216944e+01
1.550941e+02	-2.221740e+01
1.559899e+02	-2.226621e+01
1.568909e+02	-2.231676e+01
1.577971e+02	-2.236782e+01
1.587085e+02	-2.241723e+01
1.596252e+02	-2.246752e+01
1.605472e+02	-2.251752e+01
1.614745e+02	-2.256545e+01
1.624072e+02	-2.261803e+01
1.633453e+02	-2.266790e+01
1.642887e+02	-2.271362e+01
1.652377e+02	-2.276634e+01
1.661921e+02	-2.281482e+01
1.671520e+02	-2.286407e+01
1.681175e+02	-2.291538e+01
1.690885e+02	-2.296441e+01
1.700651e+02	-2.301493e+01
1.710474e+02	-2.306479e+01
1.720354e+02	-2.311343e+01
1.730291e+02	-2.316407e+01
1.740285e+02	-2.321174e+01
1.750337e+02	-2.326345e+01
1.760446e+02	-2.331341e+01
1.770615e+02	-2.336345e+01
1.780842e+02	-2.341260e+01
1.791128e+02	-2.346282e+01
1.801473e+02	-2.351292e+01
1.811878e+02	-2.356266e+01
1.822344e+02	-2.361288e+01
1.832870e+02	-2.366122e+01
1.843456e+02	-2.371003e+01
1.854104e+02	-2.376241e+01
1.864813e+02	-2.381103e+01
1.875584e+02	-2.385915e+01
1.886418e+02	-2.391159e+01
1.897313e+02	-2.396028e+01
1.908272e+02	-2.401373e+01
1.919294e+02	-2.405942e+01
1.930380e+02	-2.411200e+01
1.941530e+02	-2.416066e+01
1.952744e+02	-2.421179e+01
1.964023e+02	-2.426169e+01
1.975367e+02	-2.431050e+01
1.986777e+02	-2.435902e+01
1.998252e+02	-2.441004e+01
2.009794e+02	-2.445987e+01
2.021403e+02	-2.450860e+01
2.033078e+02	-2.456080e+01
2.044821e+02	-2.460742e+01
2.056632e+02	-2.465977e+01
2.068511e+02	-2.470674e+01
2.080459e+02	-2.475827e+01
2.092475e+02	-2.481081e+01
2.104561e+02	-2.485950e+01
2.116717e+02	-2.491095e+01
2.128943e+02	-2.495912e+01
2.141240e+02	-2.500810e+01
2.153608e+02	-2.505691e+01
2.166047e+02	-2.511292e+01
2.178558e+02	-2.515634e+01
2.191141e+02	-2.520470e+01
2.203797e+02	-2.525911e+01
2.216526e+02	-2.531270e+01
2.229329e+02	-2.535772e+01
2.242205e+02	-2.540644e+01
2.255156e+02	-2.546088e+01
2.268182e+02	-2.550697e+01
2.281283e+02	-2.555890e+01
2.294459e+02	-2.560718e+01
2.307712e+02	-2.565884e+01
2.321041e+02	-2.570635e+01
2.334447e+02	-2.575909e+01
2.347931e+02	-2.580717e+01
2.361493e+02	-2.585879e+01
2.375133e+02	-2.590710e+01
2.388851e+02	-2.595612e+01
2.402649e+02	-2.600895e+01
2.416527e+02	-2.605835e+01
2.430484e+02	-2.610528e+01
2.444523e+02	-2.615776e+01
2.458642e+02	-2.620738e+01
2.472843e+02	-2.625776e+01
2.487126e+02	-2.631177e+01
2.501492e+02	-2.635928e+01
2.515940e+02	-2.640824e+01
2.530472e+02	-2.645649e+01
2.545088e+02	-2.650491e+01
2.559789e+02	-2.655857e+01
2.574574e+02	-2.660845e+01
2.589444e+02	-2.665826e+01
2.604401e+02	-2.670385e+01
2.619444e+02	-2.675562e+01
2.634574e+02	-2.680723e+01
2.649791e+02	-2.686138e+01
2.665096e+02	-2.690790e+01
2.680489e+02	-2.695817e+01
2.695972e+02	-2.700860e+01
2.711544e+02	-2.706143e+01
2.727205e+02	-2.710586e+01
2.742958e+02	-2.715969e+01
2.758801e+02	-2.721023e+01
2.774736e+02	-2.725732e+01
2.790762e+02	-2.730966e+01
2.806882e+02	-2.735611e+01
2.823094e+02	-2.740486e+01
2.839400e+02	-2.745580e+01
2.855800e+02	-2.750831e+01
2.872295e+02	-2.756190e+01
2.888886e+02	-2.760659e+01
2.905572e+02	-2.765669e+01
2.922354e+02	-2.770797e+01
2.939234e+02	-2.775767e+01
2.956211e+02	-2.780726e+01
2.973286e+02	-2.785792e+01
2.990459e+02	-2.790581e+01
3.007732e+02	-2.795799e+01
3.025104e+02	-2.801108e+01
3.042577e+02	-2.805802e+01
3.060151e+02	-2.810534e+01
3.077826e+02	-2.815542e+01
3.095604e+02	-2.820866e+01
3.113484e+02	-2.826214e+01
3.131467e+02	-2.830516e+01
3.149554e+02	-2.836067e+01
3.167746e+02	-2.840768e+01
3.186043e+02	-2.845779e+01
3.204445e+02	-2.850537e+01
3.222954e+02	-2.855813e+01
3.241570e+02	-2.860630e+01
3.260293e+02	-2.865988e+01
3.279124e+02	-2.871236e+01
3.298064e+02	-2.875802e+01
3.317114e+02	-2.881038e+01
3.336273e+02	-2.885672e+01
3.355544e+02	-2.890830e+01
3.374925e+02	-2.895614e+01
3.394418e+02	-2.901203e+01
3.414024e+02	-2.905583e+01
3.433744e+02	-2.911020e+01
3.453577e+02	-2.915229e+01
3.473525e+02	-2.920376e+01
3.493588e+02	-2.925404e+01
3.513766e+02	-2.930899e+01
3.534062e+02	-2.936251e+01
3.554474e+02	-2.940802e+01
3.575005e+02	-2.946215e+01
3.595654e+02	-2.950458e+01
3.616422e+02	-2.955653e+01
3.637311e+02	-2.960706e+01
3.658320e+02	-2.966118e+01
3.679450e+02	-2.971281e+01
3.700702e+02	-2.975943e+01
3.722077e+02	-2.981276e+01
3.743576e+02	-2.986050e+01
3.765199e+02	-2.991294e+01
3.786946e+02	-2.995836e+01
3.808820e+02	-3.000898e+01
3.830819e+02	-3.005778e+01
3.852946e+02	-3.011055e+01
3.875200e+02	-3.015978e+01
3.897583e+02	-3.021090e+01
3.920096e+02	-3.026124e+01
3.942738e+02	-3.031154e+01
3.965511e+02	-3.035684e+01
3.988416e+02	-3.041143e+01
4.011452e+02	-3.046211e+01
4.034622e+02	-3.051211e+01
4.057926e+02	-3.056302e+01
4.081365e+02	-3.061660e+01
4.104938e+02	-3.065811e+01
4.128648e+02	-3.070766e+01
4.152495e+02	-3.076459e+01
4.176480e+02	-3.081185e+01
4.200603e+02	-3.086249e+01
4.224866e+02	-3.090935e+01
4.249268e+02	-3.096219e+01
4.273812e+02	-3.100886e+01
4.298497e+02	-3.106171e+01
4.323325e+02	-3.111142e+01
4.348297e+02	-3.116207e+01
4.373412e+02	-3.121554e+01
4.398673e+02	-3.126181e+01
4.424079e+02	-3.131371e+01
4.449633e+02	-3.136168e+01
4.475334e+02	-3.141307e+01
4.501183e+02	-3.146701e+01
4.527182e+02	-3.151251e+01
4.553330e+02	-3.156332e+01
4.579630e+02	-3.161638e+01
4.606082e+02	-3.166448e+01
4.632687e+02	-3.171764e+01
4.659445e+02	-3.176300e+01
4.686358e+02	-3.181767e+01
4.713426e+02	-3.186163e+01
4.740650e+02	-3.190974e+01
4.768032e+02	-3.195869e+01
4.795572e+02	-3.201299e+01
4.823271e+02	-3.207016e+01
4.851130e+02	-3.212266e+01
4.879150e+02	-3.216963e+01
4.907332e+02	-3.221600e+01
4.935676e+02	-3.225922e+01
4.964185e+02	-3.231905e+01
4.992858e+02	-3.236226e+01
5.021696e+02	-3.241451e+01
5.050701e+02	-3.246435e+01
5.079874e+02	-3.252504e+01
5.109215e+02	-3.257259e+01
5.138726e+02	-3.261787e+01
5.168407e+02	-3.266986e+01
5.198259e+02	-3.272041e+01
5.228284e+02	-3.277059e+01
5.258482e+02	-3.281682e+01
5.288855e+02	-3.286787e+01
5.319403e+02	-3.291998e+01
5.350128e+02	-3.297571e+01
5.381030e+02	-3.302212e+01
5.412111e+02	-3.307093e+01
5.443371e+02	-3.312693e+01
5.474812e+02	-3.317345e+01
5.506434e+02	-3.322620e+01
5.538239e+02	-3.327375e+01
5.570228e+02	-3.332202e+01
5.602401e+02	-3.336885e+01
5.634760e+02	-3.342216e+01
5.667306e+02	-3.346991e+01
5.700040e+02	-3.352589e+01
5.732964e+02	-3.357465e+01
5.766077e+02	-3.362762e+01
5.799382e+02	-3.367661e+01
5.832879e+02	-3.372431e+01
5.866569e+02	-3.377143e+01
5.900454e+02	-3.382117e+01
5.934535e+02	-3.387646e+01
5.968813e+02	-3.392991e+01
6.003288e+02	-3.397875e+01
6.037963e+02	-3.402457e+01
6.072838e+02	-3.407339e+01
6.107914e+02	-3.412820e+01
6.143194e+02	-3.418549e+01
6.178676e+02	-3.422431e+01
6.214364e+02	-3.428031e+01
6.250258e+02	-3.432226e+01
6.286359e+02	-3.437721e+01
6.322669e+02	-3.441957e+01
6.359189e+02	-3.448816e+01
6.395919e+02	-3.452229e+01
6.432862e+02	-3.457993e+01
6.470017e+02	-3.462778e+01
6.507388e+02	-3.467566e+01
6.544974e+02	-3.472861e+01
6.582778e+02	-3.477778e+01
6.620800e+02	-3.483366e+01
6.659041e+02	-3.487626e+01
6.697504e+02	-3.494085e+01
6.736188e+02	-3.499000e+01
6.775096e+02	-3.502768e+01
6.814229e+02	-3.508129e+01
6.853587e+02	-3.513171e+01
6.893173e+02	-3.518926e+01
6.932988e+02	-3.523710e+01
6.973033e+02	-3.529534e+01
7.013309e+02	-3.533828e+01
