Frequency(Hz)	Magnitude(dB)
1.000000e+01	-2.318942e+00
1.005776e+01	-2.340003e+00
1.011585e+01	-2.360865e+00
1.017428e+01	-2.381786e+00
1.023305e+01	-2.403030e+00
1.029215e+01	-2.424123e+00
1.035160e+01	-2.445767e+00
1.041139e+01	-2.467297e+00
1.047153e+01	-2.489070e+00
1.053201e+01	-2.511112e+00
1.059284e+01	-2.533368e+00
1.065403e+01	-2.555584e+00
1.071556e+01	-2.577562e+00
1.077746e+01	-2.599793e+00
1.083971e+01	-2.622655e+00
1.090232e+01	-2.645403e+00
1.096529e+01	-2.668250e+00
1.102862e+01	-2.691312e+00
1.109232e+01	-2.714473e+00
1.115639e+01	-2.737718e+00
1.122083e+01	-2.761246e+00
1.128564e+01	-2.785047e+00
1.135083e+01	-2.808516e+00
1.141639e+01	-2.832629e+00
1.148233e+01	-2.856519e+00
1.154865e+01	-2.880783e+00
1.161536e+01	-2.905076e+00
1.168245e+01	-2.929541e+00
1.174992e+01	-2.953972e+00
1.181779e+01	-2.978963e+00
1.188605e+01	-3.003803e+00
1.195470e+01	-3.028723e+00
1.202375e+01	-3.053989e+00
1.209320e+01	-3.079407e+00
1.216305e+01	-3.104875e+00
1.223330e+01	-3.130762e+00
1.230396e+01	-3.156452e+00
1.237503e+01	-3.182260e+00
1.244651e+01	-3.208173e+00
1.251840e+01	-3.234663e+00
1.259070e+01	-3.260967e+00
1.266343e+01	-3.287139e+00
1.273657e+01	-3.314095e+00
1.281014e+01	-3.340910e+00
1.288413e+01	-3.367615e+00
1.295855e+01	-3.394816e+00
1.303339e+01	-3.422061e+00
1.310867e+01	-3.449168e+00
1.318439e+01	-3.476595e+00
1.326054e+01	-3.504504e+00
1.333713e+01	-3.532074e+00
1.341417e+01	-3.560020e+00
1.349165e+01	-3.588042e+00
1.356958e+01	-3.616273e+00
1.364795e+01	-3.644764e+00
1.372678e+01	-3.673066e+00
1.380607e+01	-3.701922e+00
1.388581e+01	-3.730702e+00
1.396602e+01	-3.759400e+00
1.404668e+01	-3.788400e+00
1.412782e+01	-3.817887e+00
1.420942e+01	-3.846917e+00
1.429149e+01	-3.876606e+00
1.437404e+01	-3.906075e+00
1.445706e+01	-3.935721e+00
1.454057e+01	-3.965697e+00
1.462455e+01	-3.995968e+00
1.470902e+01	-4.025871e+00
1.479398e+01	-4.055879e+00
1.487943e+01	-4.086529e+00
1.496537e+01	-4.117043e+00
1.505181e+01	-4.147727e+00
1.513875e+01	-4.178552e+00
1.522619e+01	-4.209730e+00
1.531414e+01	-4.240838e+00
1.540259e+01	-4.272295e+00
1.549156e+01	-4.303172e+00
1.558103e+01	-4.335066e+00
1.567103e+01	-4.366534e+00
1.576155e+01	-4.398309e+00
1.585258e+01	-4.430400e+00
1.594415e+01	-4.462385e+00
1.603624e+01	-4.494547e+00
1.612886e+01	-4.527210e+00
1.622202e+01	-4.559476e+00
1.631572e+01	-4.591732e+00
1.640996e+01	-4.624593e+00
1.650474e+01	-4.657244e+00
1.660008e+01	-4.690454e+00
1.669596e+01	-4.723653e+00
1.679239e+01	-4.757090e+00
1.688938e+01	-4.790374e+00
1.698694e+01	-4.823581e+00
1.708505e+01	-4.857279e+00
1.718373e+01	-4.890743e+00
1.728299e+01	-4.925217e+00
1.738281e+01	-4.958834e+00
1.748322e+01	-4.992990e+00
1.758420e+01	-5.027168e+00
1.768576e+01	-5.061411e+00
1.778792e+01	-5.095936e+00
1.789066e+01	-5.130726e+00
1.799399e+01	-5.165080e+00
1.809793e+01	-5.200444e+00
1.820246e+01	-5.235216e+00
1.830760e+01	-5.270261e+00
1.841334e+01	-5.305437e+00
1.851969e+01	-5.340748e+00
1.862666e+01	-5.376308e+00
1.873425e+01	-5.411822e+00
1.884246e+01	-5.447748e+00
1.895129e+01	-5.483523e+00
1.906075e+01	-5.519511e+00
1.917085e+01	-5.555187e+00
1.928158e+01	-5.591798e+00
1.939295e+01	-5.627716e+00
1.950496e+01	-5.664198e+00
1.961762e+01	-5.700788e+00
1.973093e+01	-5.737209e+00
1.984490e+01	-5.774035e+00
1.995952e+01	-5.810958e+00
2.007480e+01	-5.847926e+00
2.019076e+01	-5.885182e+00
2.030738e+01	-5.922294e+00
2.042467e+01	-5.959478e+00
2.054264e+01	-5.996922e+00
2.066130e+01	-6.034315e+00
2.078064e+01	-6.071893e+00
2.090066e+01	-6.109932e+00
2.102139e+01	-6.147732e+00
2.114280e+01	-6.185524e+00
2.126492e+01	-6.223248e+00
2.138775e+01	-6.261561e+00
2.151128e+01	-6.299733e+00
2.163553e+01	-6.338303e+00
2.176050e+01	-6.376708e+00
2.188619e+01	-6.415412e+00
2.201260e+01	-6.454197e+00
2.213974e+01	-6.492496e+00
2.226762e+01	-6.531607e+00
2.239624e+01	-6.570798e+00
2.252560e+01	-6.609664e+00
2.265571e+01	-6.648656e+00
2.278656e+01	-6.688038e+00
2.291818e+01	-6.727240e+00
2.305055e+01	-6.766073e+00
2.318369e+01	-6.806317e+00
2.331760e+01	-6.845508e+00
2.345228e+01	-6.885585e+00
2.358774e+01	-6.925036e+00
2.372398e+01	-6.965497e+00
2.386101e+01	-7.005794e+00
2.399883e+01	-7.045426e+00
2.413745e+01	-7.085843e+00
2.427686e+01	-7.125659e+00
2.441709e+01	-7.166359e+00
2.455812e+01	-7.206523e+00
2.469997e+01	-7.247452e+00
2.484263e+01	-7.288025e+00
2.498612e+01	-7.328751e+00
2.513044e+01	-7.369576e+00
2.527559e+01	-7.410459e+00
2.542158e+01	-7.451312e+00
2.556842e+01	-7.492796e+00
2.571610e+01	-7.533522e+00
2.586463e+01	-7.574600e+00
2.601403e+01	-7.616273e+00
2.616428e+01	-7.657444e+00
2.631541e+01	-7.699086e+00
2.646740e+01	-7.740710e+00
2.662028e+01	-7.782514e+00
2.677404e+01	-7.824177e+00
2.692868e+01	-7.866092e+00
2.708422e+01	-7.908096e+00
2.724066e+01	-7.949323e+00
2.739800e+01	-7.991996e+00
2.755625e+01	-8.033736e+00
2.771541e+01	-8.075898e+00
2.787550e+01	-8.118603e+00
2.803650e+01	-8.160566e+00
2.819844e+01	-8.203017e+00
2.836131e+01	-8.245500e+00
2.852513e+01	-8.288191e+00
2.868989e+01	-8.330805e+00
2.885560e+01	-8.373525e+00
2.902227e+01	-8.416555e+00
2.918990e+01	-8.459262e+00
2.935850e+01	-8.502141e+00
2.952807e+01	-8.545129e+00
2.969863e+01	-8.588606e+00
2.987016e+01	-8.631289e+00
3.004269e+01	-8.674329e+00
3.021622e+01	-8.717422e+00
3.039075e+01	-8.761144e+00
3.056628e+01	-8.804318e+00
3.074283e+01	-8.848235e+00
3.092040e+01	-8.891476e+00
3.109900e+01	-8.935559e+00
3.127862e+01	-8.978810e+00
3.145929e+01	-9.021881e+00
3.164099e+01	-9.066604e+00
3.182375e+01	-9.110226e+00
3.200756e+01	-9.154327e+00
3.219244e+01	-9.197906e+00
3.237838e+01	-9.242409e+00
3.256540e+01	-9.286178e+00
3.275349e+01	-9.330166e+00
3.294268e+01	-9.374687e+00
3.313295e+01	-9.418497e+00
3.332433e+01	-9.462986e+00
3.351681e+01	-9.507550e+00
3.371040e+01	-9.551759e+00
3.390511e+01	-9.596613e+00
3.410094e+01	-9.641268e+00
3.429791e+01	-9.685463e+00
3.449601e+01	-9.730103e+00
3.469526e+01	-9.774692e+00
3.489566e+01	-9.820101e+00
3.509721e+01	-9.864897e+00
3.529993e+01	-9.909416e+00
3.550382e+01	-9.954546e+00
3.570889e+01	-9.999397e+00
3.591515e+01	-1.004421e+01
3.612259e+01	-1.008954e+01
3.633123e+01	-1.013451e+01
3.654108e+01	-1.018032e+01
3.675214e+01	-1.022520e+01
3.696442e+01	-1.027068e+01
3.717792e+01	-1.031582e+01
3.739266e+01	-1.036105e+01
3.760864e+01	-1.040723e+01
3.782587e+01	-1.045228e+01
3.804435e+01	-1.049773e+01
3.826409e+01	-1.054335e+01
3.848510e+01	-1.058885e+01
3.870739e+01	-1.063492e+01
3.893096e+01	-1.068016e+01
3.915583e+01	-1.072587e+01
3.938199e+01	-1.077207e+01
3.960946e+01	-1.081827e+01
3.983824e+01	-1.086401e+01
4.006834e+01	-1.090979e+01
4.029978e+01	-1.095602e+01
4.053255e+01	-1.100197e+01
4.076666e+01	-1.104845e+01
4.100213e+01	-1.109329e+01
4.123896e+01	-1.113998e+01
4.147715e+01	-1.118618e+01
4.171672e+01	-1.123246e+01
4.195767e+01	-1.127918e+01
4.220002e+01	-1.132570e+01
4.244377e+01	-1.137114e+01
4.268892e+01	-1.141769e+01
4.293549e+01	-1.146389e+01
4.318348e+01	-1.151101e+01
4.343291e+01	-1.155720e+01
4.368377e+01	-1.160416e+01
4.393609e+01	-1.165057e+01
4.418986e+01	-1.169713e+01
4.444510e+01	-1.174395e+01
4.470182e+01	-1.179023e+01
4.496001e+01	-1.183702e+01
4.521970e+01	-1.188404e+01
4.548089e+01	-1.193076e+01
4.574358e+01	-1.197725e+01
4.600779e+01	-1.202396e+01
4.627353e+01	-1.207110e+01
4.654081e+01	-1.211802e+01
4.680963e+01	-1.216577e+01
4.708000e+01	-1.221199e+01
4.735193e+01	-1.225935e+01
4.762543e+01	-1.230659e+01
4.790051e+01	-1.235391e+01
4.817719e+01	-1.240074e+01
4.845545e+01	-1.244720e+01
4.873533e+01	-1.249481e+01
4.901682e+01	-1.254195e+01
4.929994e+01	-1.259012e+01
4.958470e+01	-1.263708e+01
4.987110e+01	-1.268415e+01
5.015915e+01	-1.273145e+01
5.044887e+01	-1.277916e+01
5.074026e+01	-1.282634e+01
5.103333e+01	-1.287388e+01
5.132810e+01	-1.292076e+01
5.162457e+01	-1.296853e+01
5.192275e+01	-1.301715e+01
5.222265e+01	-1.306373e+01
5.252429e+01	-1.311108e+01
5.282767e+01	-1.315894e+01
5.313280e+01	-1.320599e+01
5.343969e+01	-1.325410e+01
5.374836e+01	-1.330245e+01
5.405880e+01	-1.334910e+01
5.437105e+01	-1.339711e+01
5.468509e+01	-1.344541e+01
5.500095e+01	-1.349290e+01
5.531863e+01	-1.354005e+01
5.563815e+01	-1.358834e+01
5.595951e+01	-1.363677e+01
5.628273e+01	-1.368347e+01
5.660782e+01	-1.373229e+01
5.693479e+01	-1.378009e+01
5.726364e+01	-1.382741e+01
5.759439e+01	-1.387561e+01
5.792705e+01	-1.392301e+01
5.826164e+01	-1.397204e+01
5.859815e+01	-1.401943e+01
5.893662e+01	-1.406829e+01
5.927703e+01	-1.411676e+01
5.961941e+01	-1.416391e+01
5.996377e+01	-1.421173e+01
6.031012e+01	-1.426009e+01
6.065847e+01	-1.430838e+01
6.100883e+01	-1.435656e+01
6.136121e+01	-1.440466e+01
6.171563e+01	-1.445322e+01
6.207210e+01	-1.450145e+01
6.243063e+01	-1.455025e+01
6.279122e+01	-1.459807e+01
6.315390e+01	-1.464602e+01
6.351868e+01	-1.469483e+01
6.388556e+01	-1.474334e+01
6.425456e+01	-1.479190e+01
6.462569e+01	-1.483983e+01
6.499897e+01	-1.488789e+01
6.537440e+01	-1.493666e+01
6.575200e+01	-1.498497e+01
6.613178e+01	-1.503338e+01
6.651375e+01	-1.508201e+01
6.689793e+01	-1.512945e+01
6.728433e+01	-1.517778e+01
6.767297e+01	-1.522677e+01
6.806384e+01	-1.527558e+01
6.845698e+01	-1.532398e+01
6.885238e+01	-1.537247e+01
6.925007e+01	-1.542210e+01
6.965005e+01	-1.547019e+01
7.005235e+01	-1.551834e+01
7.045697e+01	-1.556667e+01
7.086393e+01	-1.561563e+01
7.127323e+01	-1.566413e+01
7.168490e+01	-1.571311e+01
7.209895e+01	-1.576184e+01
7.251539e+01	-1.581144e+01
7.293424e+01	-1.585983e+01
7.335551e+01	-1.590815e+01
7.377920e+01	-1.595654e+01
7.420535e+01	-1.600520e+01
7.463396e+01	-1.605522e+01
7.506504e+01	-1.610390e+01
7.549861e+01	-1.615218e+01
7.593469e+01	-1.620233e+01
7.637328e+01	-1.625016e+01
7.681441e+01	-1.629874e+01
7.725809e+01	-1.634886e+01
7.770433e+01	-1.639644e+01
7.815315e+01	-1.644566e+01
7.860456e+01	-1.649448e+01
7.905857e+01	-1.654227e+01
7.951521e+01	-1.659197e+01
7.997449e+01	-1.664076e+01
8.043642e+01	-1.668953e+01
8.090102e+01	-1.673942e+01
8.136830e+01	-1.678815e+01
8.183828e+01	-1.683685e+01
8.231097e+01	-1.688609e+01
8.278640e+01	-1.693481e+01
8.326457e+01	-1.698280e+01
8.374550e+01	-1.703284e+01
8.422921e+01	-1.708158e+01
8.471572e+01	-1.713184e+01
8.520503e+01	-1.718001e+01
8.569717e+01	-1.722862e+01
8.619215e+01	-1.727896e+01
8.669000e+01	-1.732645e+01
8.719071e+01	-1.737742e+01
8.769432e+01	-1.742492e+01
8.820084e+01	-1.747435e+01
8.871029e+01	-1.752476e+01
8.922267e+01	-1.757279e+01
8.973802e+01	-1.762201e+01
9.025634e+01	-1.767290e+01
9.077766e+01	-1.772086e+01
9.130199e+01	-1.776889e+01
9.182935e+01	-1.781901e+01
9.235975e+01	-1.786764e+01
9.289321e+01	-1.791790e+01
9.342976e+01	-1.796682e+01
9.396941e+01	-1.801751e+01
9.451217e+01	-1.806575e+01
9.505807e+01	-1.811383e+01
9.560712e+01	-1.816350e+01
9.615934e+01	-1.821184e+01
9.671476e+01	-1.826336e+01
9.727338e+01	-1.831217e+01
9.783522e+01	-1.836158e+01
9.840032e+01	-1.840998e+01
9.896867e+01	-1.845980e+01
9.954031e+01	-1.850816e+01
1.001153e+02	-1.855855e+01
1.006935e+02	-1.860731e+01
1.012751e+02	-1.865627e+01
1.018601e+02	-1.870639e+01
1.024484e+02	-1.875484e+01
1.030402e+02	-1.880485e+01
1.036353e+02	-1.885435e+01
1.042339e+02	-1.890324e+01
1.048360e+02	-1.895407e+01
1.054415e+02	-1.900186e+01
1.060505e+02	-1.905104e+01
1.066631e+02	-1.910170e+01
1.072791e+02	-1.915165e+01
1.078988e+02	-1.919991e+01
1.085220e+02	-1.924977e+01
1.091488e+02	-1.929823e+01
1.097793e+02	-1.934899e+01
1.104133e+02	-1.939845e+01
1.110511e+02	-1.944770e+01
1.116925e+02	-1.949682e+01
1.123376e+02	-1.954627e+01
1.129865e+02	-1.959444e+01
1.136391e+02	-1.964549e+01
1.142955e+02	-1.969501e+01
1.149556e+02	-1.974386e+01
1.156196e+02	-1.979391e+01
1.162874e+02	-1.984335e+01
1.169591e+02	-1.989237e+01
1.176347e+02	-1.994269e+01
1.183141e+02	-1.999199e+01
1.189975e+02	-2.004032e+01
1.196848e+02	-2.009110e+01
1.203761e+02	-2.014036e+01
1.210714e+02	-2.019069e+01
1.217707e+02	-2.023835e+01
1.224740e+02	-2.028951e+01
1.231814e+02	-2.033793e+01
1.238929e+02	-2.038813e+01
1.246085e+02	-2.043808e+01
1.253283e+02	-2.048812e+01
1.260522e+02	-2.053740e+01
1.267802e+02	-2.058608e+01
1.275125e+02	-2.063508e+01
1.282490e+02	-2.068561e+01
1.289898e+02	-2.073584e+01
1.297348e+02	-2.078573e+01
1.304842e+02	-2.083524e+01
1.312378e+02	-2.088271e+01
1.319959e+02	-2.093302e+01
1.327583e+02	-2.098384e+01
1.335251e+02	-2.103263e+01
1.342963e+02	-2.108355e+01
1.350720e+02	-2.113341e+01
1.358522e+02	-2.118169e+01
1.366368e+02	-2.123352e+01
1.374260e+02	-2.128019e+01
1.382198e+02	-2.133102e+01
1.390182e+02	-2.138124e+01
1.398211e+02	-2.143075e+01
1.406287e+02	-2.148073e+01
1.414410e+02	-2.153069e+01
1.422579e+02	-2.157917e+01
1.430796e+02	-2.162949e+01
1.439060e+02	-2.167819e+01
1.447372e+02	-2.172878e+01
1.455732e+02	-2.177792e+01
1.464141e+02	-2.182698e+01
1.472597e+02	-2.187735e+01
1.481103e+02	-2.192478e+01
1.489658e+02	-2.197842e+01
1.498262e+02	-2.202612e+01
1.506916e+02	-2.207749e+01
1.515620e+02	-2.212603e+01
1.524374e+02	-2.217625e+01
1.533179e+02	-2.222649e+01
1.542034e+02	-2.227542e+01
1.550941e+02	-2.232345e+01
1.559899e+02	-2.237596e+01
1.568909e+02	-2.242507e+01
1.577971e+02	-2.247325e+01
1.587085e+02	-2.252613e+01
1.596252e+02	-2.257278e+01
1.605472e+02	-2.262311e+01
1.614745e+02	-2.267322e+01
1.624072e+02	-2.272272e+01
1.633453e+02	-2.277506e+01
1.642887e+02	-2.282397e+01
1.652377e+02	-2.287134e+01
1.661921e+02	-2.292058e+01
1.671520e+02	-2.297360e+01
1.681175e+02	-2.302161e+01
1.690885e+02	-2.307419e+01
1.700651e+02	-2.312186e+01
1.710474e+02	-2.317085e+01
1.720354e+02	-2.321931e+01
1.730291e+02	-2.327444e+01
1.740285e+02	-2.332181e+01
1.750337e+02	-2.336917e+01
1.760446e+02	-2.341948e+01
1.770615e+02	-2.347036e+01
1.780842e+02	-2.352108e+01
1.791128e+02	-2.356931e+01
1.801473e+02	-2.362110e+01
1.811878e+02	-2.367113e+01
1.822344e+02	-2.372142e+01
1.832870e+02	-2.376895e+01
1.843456e+02	-2.381992e+01
1.854104e+02	-2.387033e+01
1.864813e+02	-2.392030e+01
1.875584e+02	-2.396906e+01
1.886418e+02	-2.401667e+01
1.897313e+02	-2.406999e+01
1.908272e+02	-2.411824e+01
1.919294e+02	-2.416873e+01
1.930380e+02	-2.421807e+01
1.941530e+02	-2.426739e+01
1.952744e+02	-2.431979e+01
1.964023e+02	-2.436789e+01
1.975367e+02	-2.441471e+01
1.986777e+02	-2.446755e+01
1.998252e+02	-2.451736e+01
2.009794e+02	-2.456793e+01
2.021403e+02	-2.461750e+01
2.033078e+02	-2.466762e+01
2.044821e+02	-2.471739e+01
2.056632e+02	-2.476694e+01
2.068511e+02	-2.481757e+01
2.080459e+02	-2.486493e+01
2.092475e+02	-2.492111e+01
2.104561e+02	-2.496639e+01
2.116717e+02	-2.501524e+01
2.128943e+02	-2.506641e+01
2.141240e+02	-2.511705e+01
2.153608e+02	-2.516579e+01
2.166047e+02	-2.521749e+01
2.178558e+02	-2.526633e+01
2.191141e+02	-2.531450e+01
2.203797e+02	-2.536391e+01
2.216526e+02	-2.541759e+01
2.229329e+02	-2.546600e+01
2.242205e+02	-2.551436e+01
2.255156e+02	-2.556765e+01
2.268182e+02	-2.561576e+01
2.281283e+02	-2.566604e+01
2.294459e+02	-2.571585e+01
2.307712e+02	-2.576371e+01
2.321041e+02	-2.581673e+01
2.334447e+02	-2.586682e+01
2.347931e+02	-2.591412e+01
2.361493e+02	-2.596443e+01
2.375133e+02	-2.601408e+01
2.388851e+02	-2.606378e+01
2.402649e+02	-2.611267e+01
2.416527e+02	-2.616380e+01
2.430484e+02	-2.621614e+01
2.444523e+02	-2.626654e+01
2.458642e+02	-2.631252e+01
2.472843e+02	-2.636504e+01
2.487126e+02	-2.641428e+01
2.501492e+02	-2.646448e+01
2.515940e+02	-2.651530e+01
2.530472e+02	-2.656073e+01
2.545088e+02	-2.661486e+01
2.559789e+02	-2.666339e+01
2.574574e+02	-2.671254e+01
2.589444e+02	-2.676330e+01
2.604401e+02	-2.681581e+01
2.619444e+02	-2.686289e+01
2.634574e+02	-2.691576e+01
2.649791e+02	-2.696141e+01
2.665096e+02	-2.701368e+01
2.680489e+02	-2.706427e+01
2.695972e+02	-2.711749e+01
2.711544e+02	-2.716654e+01
2.727205e+02	-2.721326e+01
2.742958e+02	-2.726462e+01
2.758801e+02	-2.730997e+01
2.774736e+02	-2.736324e+01
2.790762e+02	-2.741319e+01
2.806882e+02	-2.746321e+01
2.823094e+02	-2.751536e+01
2.839400e+02	-2.756295e+01
2.855800e+02	-2.761495e+01
2.872295e+02	-2.766227e+01
2.888886e+02	-2.771427e+01
2.905572e+02	-2.776508e+01
2.922354e+02	-2.781142e+01
2.939234e+02	-2.786139e+01
2.956211e+02	-2.791374e+01
2.973286e+02	-2.796571e+01
2.990459e+02	-2.801550e+01
3.007732e+02	-2.806314e+01
3.025104e+02	-2.811838e+01
3.042577e+02	-2.816645e+01
3.060151e+02	-2.821149e+01
3.077826e+02	-2.826461e+01
3.095604e+02	-2.831298e+01
3.113484e+02	-2.836721e+01
3.131467e+02	-2.841324e+01
3.149554e+02	-2.846858e+01
3.167746e+02	-2.851701e+01
3.186043e+02	-2.856346e+01
3.204445e+02	-2.861462e+01
3.222954e+02	-2.866747e+01
3.241570e+02	-2.871216e+01
3.260293e+02	-2.875746e+01
3.279124e+02	-2.881410e+01
3.298064e+02	-2.886287e+01
3.317114e+02	-2.891437e+01
3.336273e+02	-2.896363e+01
3.355544e+02	-2.901904e+01
3.374925e+02	-2.906077e+01
3.394418e+02	-2.911415e+01
3.414024e+02	-2.916231e+01
3.433744e+02	-2.921785e+01
3.453577e+02	-2.926440e+01
3.473525e+02	-2.931400e+01
3.493588e+02	-2.936721e+01
3.513766e+02	-2.941862e+01
3.534062e+02	-2.946933e+01
3.554474e+02	-2.951347e+01
3.575005e+02	-2.956158e+01
3.595654e+02	-2.962155e+01
3.616422e+02	-2.966473e+01
3.637311e+02	-2.971539e+01
3.658320e+02	-2.976872e+01
3.679450e+02	-2.981586e+01
3.700702e+02	-2.986874e+01
3.722077e+02	-2.991886e+01
3.743576e+02	-2.996297e+01
3.765199e+02	-3.001223e+01
3.786946e+02	-3.007276e+01
3.808820e+02	-3.011474e+01
3.830819e+02	-3.017154e+01
3.852946e+02	-3.022010e+01
3.875200e+02	-3.026954e+01
3.897583e+02	-3.031388e+01
3.920096e+02	-3.036828e+01
3.942738e+02	-3.041696e+01
3.965511e+02	-3.046876e+01
3.988416e+02	-3.052474e+01
4.011452e+02	-3.057017e+01
4.034622e+02	-3.062037e+01
4.057926e+02	-3.067297e+01
4.081365e+02	-3.071481e+01
4.104938e+02	-3.076487e+01
4.128648e+02	-3.081570e+01
4.152495e+02	-3.086782e+01
4.176480e+02	-3.091720e+01
4.200603e+02	-3.096642e+01
4.224866e+02	-3.101578e+01
4.249268e+02	-3.106900e+01
4.273812e+02	-3.111694e+01
4.298497e+02	-3.116557e+01
4.323325e+02	-3.121884e+01
4.348297e+02	-3.126916e+01
4.373412e+02	-3.132074e+01
4.398673e+02	-3.136992e+01
4.424079e+02	-3.141960e+01
4.449633e+02	-3.146595e+01
4.475334e+02	-3.151810e+01
4.501183e+02	-3.156760e+01
4.527182e+02	-3.162269e+01
4.553330e+02	-3.167433e+01
4.579630e+02	-3.172147e+01
4.606082e+02	-3.177093e+01
4.632687e+02	-3.182221e+01
4.659445e+02	-3.187316e+01
4.686358e+02	-3.192210e+01
4.713426e+02	-3.198084e+01
4.740650e+02	-3.201917e+01
4.768032e+02	-3.207689e+01
4.795572e+02	-3.212212e+01
4.823271e+02	-3.216812e+01
4.851130e+02	-3.222257e+01
4.879150e+02	-3.227400e+01
4.907332e+02	-3.232919e+01
4.935676e+02	-3.237030e+01
4.964185e+02	-3.242550e+01
4.992858e+02	-3.247864e+01
5.021696e+02	-3.252356e+01
5.050701e+02	-3.257827e+01
5.079874e+02	-3.262299e+01
5.109215e+02	-3.267821e+01
5.138726e+02	-3.273130e+01
5.168407e+02	-3.277528e+01
5.198259e+02	-3.282313e+01
5.228284e+02	-3.287318e+01
5.258482e+02	-3.292520e+01
5.288855e+02	-3.298093e+01
5.319403e+02	-3.302759e+01
5.350128e+02	-3.307578e+01
5.381030e+02	-3.312367e+01
5.412111e+02	-3.317656e+01
5.443371e+02	-3.322394e+01
5.474812e+02	-3.327655e+01
5.506434e+02	-3.332710e+01
5.538239e+02	-3.337663e+01
5.570228e+02	-3.342828e+01
5.602401e+02	-3.347922e+01
5.634760e+02	-3.352377e+01
5.667306e+02	-3.357075e+01
5.700040e+02	-3.363058e+01
5.732964e+02	-3.367998e+01
5.766077e+02	-3.372793e+01
5.799382e+02	-3.378206e+01
5.832879e+02	-3.382530e+01
5.866569e+02	-3.387823e+01
5.900454e+02	-3.392615e+01
5.934535e+02	-3.399141e+01
5.968813e+02	-3.403252e+01
6.003288e+02	-3.408361e+01
6.037963e+02	-3.413694e+01
6.072838e+02	-3.418171e+01
6.107914e+02	-3.423514e+01
6.143194e+02	-3.428144e+01
6.178676e+02	-3.433475e+01
6.214364e+02	-3.438475e+01
6.250258e+02	-3.443771e+01
6.286359e+02	-3.448513e+01
6.322669e+02	-3.453258e+01
6.359189e+02	-3.458635e+01
6.395919e+02	-3.464053e+01
6.432862e+02	-3.468848e+01
6.470017e+02	-3.472911e+01
6.507388e+02	-3.478214e+01
6.544974e+02	-3.483546e+01
6.582778e+02	-3.487814e+01
6.620800e+02	-3.493816e+01
6.659041e+02	-3.498903e+01
6.697504e+02	-3.503915e+01
6.736188e+02	-3.509081e+01
6.775096e+02	-3.513246e+01
6.814229e+02	-3.519863e+01
6.853587e+02	-3.523920e+01
6.893173e+02	-3.529055e+01
6.932988e+02	-3.534902e+01
6.973033e+02	-3.540388e+01
7.013309e+02	-3.544630e+01
