Frequency(Hz)	Magnitude(dB)
1.000000e+01	-2.217646e+00
1.005776e+01	-2.237890e+00
1.011585e+01	-2.257984e+00
1.017428e+01	-2.278394e+00
1.023305e+01	-2.298614e+00
1.029215e+01	-2.319404e+00
1.035160e+01	-2.340341e+00
1.041139e+01	-2.360953e+00
1.047153e+01	-2.382205e+00
1.053201e+01	-2.403587e+00
1.059284e+01	-2.424836e+00
1.065403e+01	-2.446197e+00
1.071556e+01	-2.467770e+00
1.077746e+01	-2.489717e+00
1.083971e+01	-2.511403e+00
1.090232e+01	-2.533452e+00
1.096529e+01	-2.555540e+00
1.102862e+01	-2.578103e+00
1.109232e+01	-2.600487e+00
1.115639e+01	-2.623001e+00
1.122083e+01	-2.645801e+00
1.128564e+01	-2.668634e+00
1.135083e+01	-2.691764e+00
1.141639e+01	-2.714980e+00
1.148233e+01	-2.738443e+00
1.154865e+01	-2.761860e+00
1.161536e+01	-2.785252e+00
1.168245e+01	-2.809350e+00
1.174992e+01	-2.833036e+00
1.181779e+01	-2.857095e+00
1.188605e+01	-2.881203e+00
1.195470e+01	-2.905784e+00
1.202375e+01	-2.929952e+00
1.209320e+01	-2.954684e+00
1.216305e+01	-2.979363e+00
1.223330e+01	-3.004415e+00
1.230396e+01	-3.029273e+00
1.237503e+01	-3.054636e+00
1.244651e+01	-3.079742e+00
1.251840e+01	-3.105387e+00
1.259070e+01	-3.130873e+00
1.266343e+01	-3.156777e+00
1.273657e+01	-3.182519e+00
1.281014e+01	-3.208721e+00
1.288413e+01	-3.234871e+00
1.295855e+01	-3.261196e+00
1.303339e+01	-3.287726e+00
1.310867e+01	-3.314574e+00
1.318439e+01	-3.341187e+00
1.326054e+01	-3.368009e+00
1.333713e+01	-3.395254e+00
1.341417e+01	-3.422310e+00
1.349165e+01	-3.449821e+00
1.356958e+01	-3.477249e+00
1.364795e+01	-3.505105e+00
1.372678e+01	-3.532607e+00
1.380607e+01	-3.560576e+00
1.388581e+01	-3.588482e+00
1.396602e+01	-3.616981e+00
1.404668e+01	-3.644905e+00
1.412782e+01	-3.673682e+00
1.420942e+01	-3.702238e+00
1.429149e+01	-3.731238e+00
1.437404e+01	-3.759918e+00
1.445706e+01	-3.789003e+00
1.454057e+01	-3.818218e+00
1.462455e+01	-3.847582e+00
1.470902e+01	-3.877014e+00
1.479398e+01	-3.906584e+00
1.487943e+01	-3.936360e+00
1.496537e+01	-3.966143e+00
1.505181e+01	-3.996307e+00
1.513875e+01	-4.026556e+00
1.522619e+01	-4.056784e+00
1.531414e+01	-4.087225e+00
1.540259e+01	-4.117937e+00
1.549156e+01	-4.148389e+00
1.558103e+01	-4.179205e+00
1.567103e+01	-4.210311e+00
1.576155e+01	-4.241180e+00
1.585258e+01	-4.272581e+00
1.594415e+01	-4.304127e+00
1.603624e+01	-4.335423e+00
1.612886e+01	-4.367501e+00
1.622202e+01	-4.398970e+00
1.631572e+01	-4.431032e+00
1.640996e+01	-4.462993e+00
1.650474e+01	-4.495048e+00
1.660008e+01	-4.527422e+00
1.669596e+01	-4.559867e+00
1.679239e+01	-4.592500e+00
1.688938e+01	-4.625015e+00
1.698694e+01	-4.658019e+00
1.708505e+01	-4.690819e+00
1.718373e+01	-4.724181e+00
1.728299e+01	-4.757445e+00
1.738281e+01	-4.790628e+00
1.748322e+01	-4.824103e+00
1.758420e+01	-4.857754e+00
1.768576e+01	-4.891859e+00
1.778792e+01	-4.925411e+00
1.789066e+01	-4.959337e+00
1.799399e+01	-4.993551e+00
1.809793e+01	-5.027850e+00
1.820246e+01	-5.062237e+00
1.830760e+01	-5.096893e+00
1.841334e+01	-5.131370e+00
1.851969e+01	-5.166282e+00
1.862666e+01	-5.200964e+00
1.873425e+01	-5.236182e+00
1.884246e+01	-5.271099e+00
1.895129e+01	-5.306106e+00
1.906075e+01	-5.341594e+00
1.917085e+01	-5.377279e+00
1.928158e+01	-5.412497e+00
1.939295e+01	-5.448299e+00
1.950496e+01	-5.484158e+00
1.961762e+01	-5.520290e+00
1.973093e+01	-5.556273e+00
1.984490e+01	-5.592242e+00
1.995952e+01	-5.628420e+00
2.007480e+01	-5.665188e+00
2.019076e+01	-5.701351e+00
2.030738e+01	-5.737868e+00
2.042467e+01	-5.774518e+00
2.054264e+01	-5.811765e+00
2.066130e+01	-5.848410e+00
2.078064e+01	-5.885681e+00
2.090066e+01	-5.922994e+00
2.102139e+01	-5.960164e+00
2.114280e+01	-5.997435e+00
2.126492e+01	-6.034914e+00
2.138775e+01	-6.072781e+00
2.151128e+01	-6.110359e+00
2.163553e+01	-6.148082e+00
2.176050e+01	-6.186256e+00
2.188619e+01	-6.223910e+00
2.201260e+01	-6.262447e+00
2.213974e+01	-6.300513e+00
2.226762e+01	-6.338878e+00
2.239624e+01	-6.377334e+00
2.252560e+01	-6.416450e+00
2.265571e+01	-6.454721e+00
2.278656e+01	-6.493302e+00
2.291818e+01	-6.532316e+00
2.305055e+01	-6.571216e+00
2.318369e+01	-6.610156e+00
2.331760e+01	-6.649240e+00
2.345228e+01	-6.688856e+00
2.358774e+01	-6.727849e+00
2.372398e+01	-6.767749e+00
2.386101e+01	-6.806983e+00
2.399883e+01	-6.846516e+00
2.413745e+01	-6.886505e+00
2.427686e+01	-6.926532e+00
2.441709e+01	-6.966166e+00
2.455812e+01	-7.005887e+00
2.469997e+01	-7.046148e+00
2.484263e+01	-7.085929e+00
2.498612e+01	-7.126894e+00
2.513044e+01	-7.167396e+00
2.527559e+01	-7.207329e+00
2.542158e+01	-7.247967e+00
2.556842e+01	-7.288589e+00
2.571610e+01	-7.329606e+00
2.586463e+01	-7.369899e+00
2.601403e+01	-7.411326e+00
2.616428e+01	-7.452040e+00
2.631541e+01	-7.493433e+00
2.646740e+01	-7.534335e+00
2.662028e+01	-7.575603e+00
2.677404e+01	-7.616623e+00
2.692868e+01	-7.658527e+00
2.708422e+01	-7.700163e+00
2.724066e+01	-7.741511e+00
2.739800e+01	-7.782872e+00
2.755625e+01	-7.825093e+00
2.771541e+01	-7.866566e+00
2.787550e+01	-7.908825e+00
2.803650e+01	-7.950659e+00
2.819844e+01	-7.992525e+00
2.836131e+01	-8.034840e+00
2.852513e+01	-8.077104e+00
2.868989e+01	-8.119133e+00
2.885560e+01	-8.161401e+00
2.902227e+01	-8.204017e+00
2.918990e+01	-8.246228e+00
2.935850e+01	-8.288549e+00
2.952807e+01	-8.331162e+00
2.969863e+01	-8.374818e+00
2.987016e+01	-8.417124e+00
3.004269e+01	-8.460462e+00
3.021622e+01	-8.502999e+00
3.039075e+01	-8.546348e+00
3.056628e+01	-8.588819e+00
3.074283e+01	-8.632349e+00
3.092040e+01	-8.675542e+00
3.109900e+01	-8.718867e+00
3.127862e+01	-8.761596e+00
3.145929e+01	-8.805486e+00
3.164099e+01	-8.848669e+00
3.182375e+01	-8.892312e+00
3.200756e+01	-8.935789e+00
3.219244e+01	-8.979542e+00
3.237838e+01	-9.023340e+00
3.256540e+01	-9.066715e+00
3.275349e+01	-9.111023e+00
3.294268e+01	-9.154864e+00
3.313295e+01	-9.198937e+00
3.332433e+01	-9.242575e+00
3.351681e+01	-9.286808e+00
3.371040e+01	-9.330691e+00
3.390511e+01	-9.375581e+00
3.410094e+01	-9.419832e+00
3.429791e+01	-9.464270e+00
3.449601e+01	-9.508500e+00
3.469526e+01	-9.552678e+00
3.489566e+01	-9.597849e+00
3.509721e+01	-9.641713e+00
3.529993e+01	-9.686635e+00
3.550382e+01	-9.731464e+00
3.570889e+01	-9.775726e+00
3.591515e+01	-9.821030e+00
3.612259e+01	-9.865321e+00
3.633123e+01	-9.911047e+00
3.654108e+01	-9.955207e+00
3.675214e+01	-1.000071e+01
3.696442e+01	-1.004531e+01
3.717792e+01	-1.009058e+01
3.739266e+01	-1.013557e+01
3.760864e+01	-1.018107e+01
3.782587e+01	-1.022627e+01
3.804435e+01	-1.027135e+01
3.826409e+01	-1.031667e+01
3.848510e+01	-1.036185e+01
3.870739e+01	-1.040718e+01
3.893096e+01	-1.045329e+01
3.915583e+01	-1.049876e+01
3.938199e+01	-1.054431e+01
3.960946e+01	-1.058998e+01
3.983824e+01	-1.063614e+01
4.006834e+01	-1.068160e+01
4.029978e+01	-1.072739e+01
4.053255e+01	-1.077304e+01
4.076666e+01	-1.081939e+01
4.100213e+01	-1.086483e+01
4.123896e+01	-1.091061e+01
4.147715e+01	-1.095706e+01
4.171672e+01	-1.100281e+01
4.195767e+01	-1.104868e+01
4.220002e+01	-1.109473e+01
4.244377e+01	-1.114124e+01
4.268892e+01	-1.118737e+01
4.293549e+01	-1.123297e+01
4.318348e+01	-1.128008e+01
4.343291e+01	-1.132604e+01
4.368377e+01	-1.137244e+01
4.393609e+01	-1.141831e+01
4.418986e+01	-1.146595e+01
4.444510e+01	-1.151218e+01
4.470182e+01	-1.155842e+01
4.496001e+01	-1.160495e+01
4.521970e+01	-1.165115e+01
4.548089e+01	-1.169824e+01
4.574358e+01	-1.174501e+01
4.600779e+01	-1.179165e+01
4.627353e+01	-1.183820e+01
4.654081e+01	-1.188512e+01
4.680963e+01	-1.193186e+01
4.708000e+01	-1.197817e+01
4.735193e+01	-1.202475e+01
4.762543e+01	-1.207275e+01
4.790051e+01	-1.212027e+01
4.817719e+01	-1.216640e+01
4.845545e+01	-1.221295e+01
4.873533e+01	-1.226013e+01
4.901682e+01	-1.230665e+01
4.929994e+01	-1.235379e+01
4.958470e+01	-1.240159e+01
4.987110e+01	-1.244881e+01
5.015915e+01	-1.249619e+01
5.044887e+01	-1.254358e+01
5.074026e+01	-1.259034e+01
5.103333e+01	-1.263728e+01
5.132810e+01	-1.268536e+01
5.162457e+01	-1.273258e+01
5.192275e+01	-1.278008e+01
5.222265e+01	-1.282692e+01
5.252429e+01	-1.287527e+01
5.282767e+01	-1.292272e+01
5.313280e+01	-1.297022e+01
5.343969e+01	-1.301742e+01
5.374836e+01	-1.306479e+01
5.405880e+01	-1.311245e+01
5.437105e+01	-1.315957e+01
5.468509e+01	-1.320759e+01
5.500095e+01	-1.325516e+01
5.531863e+01	-1.330255e+01
5.563815e+01	-1.334999e+01
5.595951e+01	-1.339788e+01
5.628273e+01	-1.344628e+01
5.660782e+01	-1.349357e+01
5.693479e+01	-1.354075e+01
5.726364e+01	-1.358879e+01
5.759439e+01	-1.363683e+01
5.792705e+01	-1.368506e+01
5.826164e+01	-1.373269e+01
5.859815e+01	-1.378096e+01
5.893662e+01	-1.382847e+01
5.927703e+01	-1.387674e+01
5.961941e+01	-1.392486e+01
5.996377e+01	-1.397268e+01
6.031012e+01	-1.402021e+01
6.065847e+01	-1.406828e+01
6.100883e+01	-1.411689e+01
6.136121e+01	-1.416495e+01
6.171563e+01	-1.421300e+01
6.207210e+01	-1.426164e+01
6.243063e+01	-1.430999e+01
6.279122e+01	-1.435815e+01
6.315390e+01	-1.440594e+01
6.351868e+01	-1.445362e+01
6.388556e+01	-1.450277e+01
6.425456e+01	-1.455103e+01
6.462569e+01	-1.459906e+01
6.499897e+01	-1.464763e+01
6.537440e+01	-1.469598e+01
6.575200e+01	-1.474332e+01
6.613178e+01	-1.479294e+01
6.651375e+01	-1.484108e+01
6.689793e+01	-1.488942e+01
6.728433e+01	-1.493650e+01
6.767297e+01	-1.498720e+01
6.806384e+01	-1.503463e+01
6.845698e+01	-1.508240e+01
6.885238e+01	-1.513066e+01
6.925007e+01	-1.517971e+01
6.965005e+01	-1.522753e+01
7.005235e+01	-1.527660e+01
7.045697e+01	-1.532514e+01
7.086393e+01	-1.537416e+01
7.127323e+01	-1.542232e+01
7.168490e+01	-1.547073e+01
7.209895e+01	-1.551994e+01
7.251539e+01	-1.556860e+01
7.293424e+01	-1.561742e+01
7.335551e+01	-1.566466e+01
7.377920e+01	-1.571324e+01
7.420535e+01	-1.576339e+01
7.463396e+01	-1.581170e+01
7.506504e+01	-1.585990e+01
7.549861e+01	-1.590898e+01
7.593469e+01	-1.595776e+01
7.637328e+01	-1.600741e+01
7.681441e+01	-1.605574e+01
7.725809e+01	-1.610391e+01
7.770433e+01	-1.615362e+01
7.815315e+01	-1.620157e+01
7.860456e+01	-1.624979e+01
7.905857e+01	-1.629888e+01
7.951521e+01	-1.634828e+01
7.997449e+01	-1.639726e+01
8.043642e+01	-1.644680e+01
8.090102e+01	-1.649511e+01
8.136830e+01	-1.654438e+01
8.183828e+01	-1.659160e+01
8.231097e+01	-1.664338e+01
8.278640e+01	-1.669125e+01
8.326457e+01	-1.673945e+01
8.374550e+01	-1.678892e+01
8.422921e+01	-1.683760e+01
8.471572e+01	-1.688658e+01
8.520503e+01	-1.693653e+01
8.569717e+01	-1.698529e+01
8.619215e+01	-1.703328e+01
8.669000e+01	-1.708251e+01
8.719071e+01	-1.713225e+01
8.769432e+01	-1.718095e+01
8.820084e+01	-1.723048e+01
8.871029e+01	-1.727886e+01
8.922267e+01	-1.732871e+01
8.973802e+01	-1.737782e+01
9.025634e+01	-1.742634e+01
9.077766e+01	-1.747649e+01
9.130199e+01	-1.752497e+01
9.182935e+01	-1.757357e+01
9.235975e+01	-1.762217e+01
9.289321e+01	-1.767355e+01
9.342976e+01	-1.772134e+01
9.396941e+01	-1.776987e+01
9.451217e+01	-1.781936e+01
9.505807e+01	-1.786972e+01
9.560712e+01	-1.791853e+01
9.615934e+01	-1.796731e+01
9.671476e+01	-1.801699e+01
9.727338e+01	-1.806612e+01
9.783522e+01	-1.811684e+01
9.840032e+01	-1.816478e+01
9.896867e+01	-1.821366e+01
9.954031e+01	-1.826337e+01
1.001153e+02	-1.831259e+01
1.006935e+02	-1.836151e+01
1.012751e+02	-1.841287e+01
1.018601e+02	-1.846043e+01
1.024484e+02	-1.850983e+01
1.030402e+02	-1.855863e+01
1.036353e+02	-1.860861e+01
1.042339e+02	-1.865752e+01
1.048360e+02	-1.870673e+01
1.054415e+02	-1.875591e+01
1.060505e+02	-1.880686e+01
1.066631e+02	-1.885515e+01
1.072791e+02	-1.890366e+01
1.078988e+02	-1.895225e+01
1.085220e+02	-1.900518e+01
1.091488e+02	-1.905304e+01
1.097793e+02	-1.910301e+01
1.104133e+02	-1.915266e+01
1.110511e+02	-1.920081e+01
1.116925e+02	-1.925114e+01
1.123376e+02	-1.929887e+01
1.129865e+02	-1.934869e+01
1.136391e+02	-1.939770e+01
1.142955e+02	-1.944961e+01
1.149556e+02	-1.949719e+01
1.156196e+02	-1.954764e+01
1.162874e+02	-1.959818e+01
1.169591e+02	-1.964752e+01
1.176347e+02	-1.969704e+01
1.183141e+02	-1.974563e+01
1.189975e+02	-1.979465e+01
1.196848e+02	-1.984517e+01
1.203761e+02	-1.989587e+01
1.210714e+02	-1.994410e+01
1.217707e+02	-1.999293e+01
1.224740e+02	-2.004367e+01
1.231814e+02	-2.009167e+01
1.238929e+02	-2.014097e+01
1.246085e+02	-2.019093e+01
1.253283e+02	-2.023951e+01
1.260522e+02	-2.029050e+01
1.267802e+02	-2.033964e+01
1.275125e+02	-2.038925e+01
1.282490e+02	-2.044075e+01
1.289898e+02	-2.048853e+01
1.297348e+02	-2.053740e+01
1.304842e+02	-2.058653e+01
1.312378e+02	-2.063764e+01
1.319959e+02	-2.068610e+01
1.327583e+02	-2.073576e+01
1.335251e+02	-2.078523e+01
1.342963e+02	-2.083711e+01
1.350720e+02	-2.088573e+01
1.358522e+02	-2.093443e+01
1.366368e+02	-2.098397e+01
1.374260e+02	-2.103363e+01
1.382198e+02	-2.108485e+01
1.390182e+02	-2.113284e+01
1.398211e+02	-2.118332e+01
1.406287e+02	-2.123367e+01
1.414410e+02	-2.128258e+01
1.422579e+02	-2.133237e+01
1.430796e+02	-2.138165e+01
1.439060e+02	-2.143165e+01
1.447372e+02	-2.148138e+01
1.455732e+02	-2.153144e+01
1.464141e+02	-2.158203e+01
1.472597e+02	-2.163007e+01
1.481103e+02	-2.168163e+01
1.489658e+02	-2.172869e+01
1.498262e+02	-2.177846e+01
1.506916e+02	-2.183106e+01
1.515620e+02	-2.187890e+01
1.524374e+02	-2.192885e+01
1.533179e+02	-2.197922e+01
1.542034e+02	-2.202830e+01
1.550941e+02	-2.207840e+01
1.559899e+02	-2.212619e+01
1.568909e+02	-2.217783e+01
1.577971e+02	-2.222592e+01
1.587085e+02	-2.227520e+01
1.596252e+02	-2.232803e+01
1.605472e+02	-2.237541e+01
1.614745e+02	-2.242589e+01
1.624072e+02	-2.247605e+01
1.633453e+02	-2.252603e+01
1.642887e+02	-2.257550e+01
1.652377e+02	-2.262518e+01
1.661921e+02	-2.267368e+01
1.671520e+02	-2.272380e+01
1.681175e+02	-2.277340e+01
1.690885e+02	-2.282342e+01
1.700651e+02	-2.287326e+01
1.710474e+02	-2.292508e+01
1.720354e+02	-2.297459e+01
1.730291e+02	-2.302222e+01
1.740285e+02	-2.307412e+01
1.750337e+02	-2.312364e+01
1.760446e+02	-2.317331e+01
1.770615e+02	-2.322117e+01
1.780842e+02	-2.327367e+01
1.791128e+02	-2.332133e+01
1.801473e+02	-2.337319e+01
1.811878e+02	-2.342305e+01
1.822344e+02	-2.347095e+01
1.832870e+02	-2.352053e+01
1.843456e+02	-2.357268e+01
1.854104e+02	-2.362155e+01
1.864813e+02	-2.366900e+01
1.875584e+02	-2.371770e+01
1.886418e+02	-2.377095e+01
1.897313e+02	-2.381934e+01
1.908272e+02	-2.387290e+01
1.919294e+02	-2.392132e+01
1.930380e+02	-2.397062e+01
1.941530e+02	-2.402058e+01
1.952744e+02	-2.407053e+01
1.964023e+02	-2.411889e+01
1.975367e+02	-2.416915e+01
1.986777e+02	-2.422031e+01
1.998252e+02	-2.426881e+01
2.009794e+02	-2.431739e+01
2.021403e+02	-2.436898e+01
2.033078e+02	-2.441722e+01
2.044821e+02	-2.446781e+01
2.056632e+02	-2.451496e+01
2.068511e+02	-2.456794e+01
2.080459e+02	-2.462128e+01
2.092475e+02	-2.466727e+01
2.104561e+02	-2.471615e+01
2.116717e+02	-2.476512e+01
2.128943e+02	-2.481791e+01
2.141240e+02	-2.486911e+01
2.153608e+02	-2.491551e+01
2.166047e+02	-2.496756e+01
2.178558e+02	-2.501809e+01
2.191141e+02	-2.506617e+01
2.203797e+02	-2.511727e+01
2.216526e+02	-2.517067e+01
2.229329e+02	-2.521713e+01
2.242205e+02	-2.526721e+01
2.255156e+02	-2.531772e+01
2.268182e+02	-2.536486e+01
2.281283e+02	-2.541995e+01
2.294459e+02	-2.546090e+01
2.307712e+02	-2.551673e+01
2.321041e+02	-2.556700e+01
2.334447e+02	-2.561658e+01
2.347931e+02	-2.566612e+01
2.361493e+02	-2.571771e+01
2.375133e+02	-2.576233e+01
2.388851e+02	-2.581618e+01
2.402649e+02	-2.586899e+01
2.416527e+02	-2.591703e+01
2.430484e+02	-2.596721e+01
2.444523e+02	-2.601474e+01
2.458642e+02	-2.606695e+01
2.472843e+02	-2.611265e+01
2.487126e+02	-2.616515e+01
2.501492e+02	-2.621596e+01
2.515940e+02	-2.626683e+01
2.530472e+02	-2.631479e+01
2.545088e+02	-2.636636e+01
2.559789e+02	-2.641797e+01
2.574574e+02	-2.646648e+01
2.589444e+02	-2.651285e+01
2.604401e+02	-2.656809e+01
2.619444e+02	-2.661495e+01
2.634574e+02	-2.666233e+01
2.649791e+02	-2.671348e+01
2.665096e+02	-2.676413e+01
2.680489e+02	-2.681302e+01
2.695972e+02	-2.686355e+01
2.711544e+02	-2.691602e+01
2.727205e+02	-2.696849e+01
2.742958e+02	-2.701477e+01
2.758801e+02	-2.706464e+01
2.774736e+02	-2.711871e+01
2.790762e+02	-2.716570e+01
2.806882e+02	-2.721881e+01
2.823094e+02	-2.726350e+01
2.839400e+02	-2.731223e+01
2.855800e+02	-2.736553e+01
2.872295e+02	-2.741477e+01
2.888886e+02	-2.746399e+01
2.905572e+02	-2.751716e+01
2.922354e+02	-2.756981e+01
2.939234e+02	-2.761322e+01
2.956211e+02	-2.766472e+01
2.973286e+02	-2.771569e+01
2.990459e+02	-2.776346e+01
3.007732e+02	-2.781784e+01
3.025104e+02	-2.786599e+01
3.042577e+02	-2.791618e+01
3.060151e+02	-2.796410e+01
3.077826e+02	-2.801683e+01
3.095604e+02	-2.806377e+01
3.113484e+02	-2.811512e+01
3.131467e+02	-2.816242e+01
3.149554e+02	-2.821506e+01
3.167746e+02	-2.826115e+01
3.186043e+02	-2.831928e+01
3.204445e+02	-2.836349e+01
3.222954e+02	-2.841556e+01
3.241570e+02	-2.847104e+01
3.260293e+02	-2.851776e+01
3.279124e+02	-2.856797e+01
3.298064e+02	-2.861712e+01
3.317114e+02	-2.866391e+01
3.336273e+02	-2.871494e+01
3.355544e+02	-2.876700e+01
3.374925e+02	-2.881457e+01
3.394418e+02	-2.886409e+01
3.414024e+02	-2.891925e+01
3.433744e+02	-2.896625e+01
3.453577e+02	-2.901305e+01
3.473525e+02	-2.906722e+01
3.493588e+02	-2.911225e+01
3.513766e+02	-2.916810e+01
3.534062e+02	-2.921926e+01
3.554474e+02	-2.927069e+01
3.575005e+02	-2.931472e+01
3.595654e+02	-2.936555e+01
3.616422e+02	-2.941779e+01
3.637311e+02	-2.946360e+01
3.658320e+02	-2.951713e+01
3.679450e+02	-2.956411e+01
3.700702e+02	-2.962095e+01
3.722077e+02	-2.966731e+01
3.743576e+02	-2.972035e+01
3.765199e+02	-2.976789e+01
3.786946e+02	-2.981699e+01
3.808820e+02	-2.986701e+01
3.830819e+02	-2.991835e+01
3.852946e+02	-2.996550e+01
3.875200e+02	-3.001817e+01
3.897583e+02	-3.006857e+01
3.920096e+02	-3.011599e+01
3.942738e+02	-3.016554e+01
3.965511e+02	-3.021575e+01
3.988416e+02	-3.026897e+01
4.011452e+02	-3.031626e+01
4.034622e+02	-3.036969e+01
4.057926e+02	-3.041931e+01
4.081365e+02	-3.046618e+01
4.104938e+02	-3.052023e+01
4.128648e+02	-3.057022e+01
4.152495e+02	-3.061838e+01
4.176480e+02	-3.067025e+01
4.200603e+02	-3.071742e+01
4.224866e+02	-3.076818e+01
4.249268e+02	-3.082384e+01
4.273812e+02	-3.087530e+01
4.298497e+02	-3.092027e+01
4.323325e+02	-3.096620e+01
4.348297e+02	-3.101681e+01
4.373412e+02	-3.107205e+01
4.398673e+02	-3.111570e+01
4.424079e+02	-3.116782e+01
4.449633e+02	-3.121876e+01
4.475334e+02	-3.127238e+01
4.501183e+02	-3.131920e+01
4.527182e+02	-3.137193e+01
4.553330e+02	-3.141949e+01
4.579630e+02	-3.147743e+01
4.606082e+02	-3.152588e+01
4.632687e+02	-3.157020e+01
4.659445e+02	-3.162300e+01
4.686358e+02	-3.167337e+01
4.713426e+02	-3.172495e+01
4.740650e+02	-3.177100e+01
4.768032e+02	-3.182394e+01
4.795572e+02	-3.187655e+01
4.823271e+02	-3.192867e+01
4.851130e+02	-3.197421e+01
4.879150e+02	-3.202385e+01
4.907332e+02	-3.207887e+01
4.935676e+02	-3.211951e+01
4.964185e+02	-3.217602e+01
4.992858e+02	-3.222346e+01
5.021696e+02	-3.228070e+01
5.050701e+02	-3.232746e+01
5.079874e+02	-3.237127e+01
5.109215e+02	-3.243328e+01
5.138726e+02	-3.247382e+01
5.168407e+02	-3.252212e+01
5.198259e+02	-3.257318e+01
5.228284e+02	-3.262670e+01
5.258482e+02	-3.267985e+01
5.288855e+02	-3.272534e+01
5.319403e+02	-3.277340e+01
5.350128e+02	-3.282648e+01
5.381030e+02	-3.288791e+01
5.412111e+02	-3.292865e+01
5.443371e+02	-3.297461e+01
5.474812e+02	-3.302577e+01
5.506434e+02	-3.307166e+01
5.538239e+02	-3.313118e+01
5.570228e+02	-3.317906e+01
5.602401e+02	-3.322801e+01
5.634760e+02	-3.327556e+01
5.667306e+02	-3.332759e+01
5.700040e+02	-3.336788e+01
5.732964e+02	-3.342638e+01
5.766077e+02	-3.348615e+01
5.799382e+02	-3.353069e+01
5.832879e+02	-3.357405e+01
5.866569e+02	-3.363054e+01
5.900454e+02	-3.368735e+01
5.934535e+02	-3.373475e+01
5.968813e+02	-3.378588e+01
6.003288e+02	-3.383947e+01
6.037963e+02	-3.388247e+01
6.072838e+02	-3.392777e+01
6.107914e+02	-3.397932e+01
6.143194e+02	-3.403794e+01
6.178676e+02	-3.408923e+01
6.214364e+02	-3.413811e+01
6.250258e+02	-3.418012e+01
6.286359e+02	-3.423405e+01
6.322669e+02	-3.428530e+01
6.359189e+02	-3.433879e+01
6.395919e+02	-3.438318e+01
6.432862e+02	-3.444712e+01
6.470017e+02	-3.448404e+01
6.507388e+02	-3.453301e+01
6.544974e+02	-3.458589e+01
6.582778e+02	-3.463888e+01
6.620800e+02	-3.468434e+01
6.659041e+02	-3.473838e+01
6.697504e+02	-3.477609e+01
6.736188e+02	-3.483481e+01
6.775096e+02	-3.489436e+01
6.814229e+02	-3.493563e+01
6.853587e+02	-3.498310e+01
6.893173e+02	-3.504293e+01
6.932988e+02	-3.509279e+01
6.973033e+02	-3.514701e+01
7.013309e+02	-3.519133e+01
