Frequency(Hz)	Magnitude(dB)
1.000000e+01	-2.022593e+00
1.005776e+01	-2.041254e+00
1.011585e+01	-2.059996e+00
1.017428e+01	-2.079126e+00
1.023305e+01	-2.098047e+00
1.029215e+01	-2.117387e+00
1.035160e+01	-2.136710e+00
1.041139e+01	-2.156244e+00
1.047153e+01	-2.175733e+00
1.053201e+01	-2.195789e+00
1.059284e+01	-2.215426e+00
1.065403e+01	-2.235566e+00
1.071556e+01	-2.255569e+00
1.077746e+01	-2.276151e+00
1.083971e+01	-2.296792e+00
1.090232e+01	-2.317206e+00
1.096529e+01	-2.338236e+00
1.102862e+01	-2.359120e+00
1.109232e+01	-2.380090e+00
1.115639e+01	-2.401106e+00
1.122083e+01	-2.422267e+00
1.128564e+01	-2.443943e+00
1.135083e+01	-2.465308e+00
1.141639e+01	-2.487268e+00
1.148233e+01	-2.509017e+00
1.154865e+01	-2.530977e+00
1.161536e+01	-2.553286e+00
1.168245e+01	-2.575604e+00
1.174992e+01	-2.598117e+00
1.181779e+01	-2.620735e+00
1.188605e+01	-2.643300e+00
1.195470e+01	-2.666402e+00
1.202375e+01	-2.689246e+00
1.209320e+01	-2.712404e+00
1.216305e+01	-2.735734e+00
1.223330e+01	-2.759004e+00
1.230396e+01	-2.782775e+00
1.237503e+01	-2.806443e+00
1.244651e+01	-2.830496e+00
1.251840e+01	-2.854616e+00
1.259070e+01	-2.878745e+00
1.266343e+01	-2.902743e+00
1.273657e+01	-2.927610e+00
1.281014e+01	-2.952030e+00
1.288413e+01	-2.976682e+00
1.295855e+01	-3.001543e+00
1.303339e+01	-3.026695e+00
1.310867e+01	-3.051906e+00
1.318439e+01	-3.077285e+00
1.326054e+01	-3.102526e+00
1.333713e+01	-3.128239e+00
1.341417e+01	-3.153888e+00
1.349165e+01	-3.179812e+00
1.356958e+01	-3.205921e+00
1.364795e+01	-3.232132e+00
1.372678e+01	-3.258607e+00
1.380607e+01	-3.285129e+00
1.388581e+01	-3.311578e+00
1.396602e+01	-3.338369e+00
1.404668e+01	-3.365162e+00
1.412782e+01	-3.392341e+00
1.420942e+01	-3.419252e+00
1.429149e+01	-3.447134e+00
1.437404e+01	-3.474277e+00
1.445706e+01	-3.501868e+00
1.454057e+01	-3.529634e+00
1.462455e+01	-3.557539e+00
1.470902e+01	-3.585871e+00
1.479398e+01	-3.613952e+00
1.487943e+01	-3.642375e+00
1.496537e+01	-3.670591e+00
1.505181e+01	-3.699102e+00
1.513875e+01	-3.727994e+00
1.522619e+01	-3.757036e+00
1.531414e+01	-3.786003e+00
1.540259e+01	-3.815207e+00
1.549156e+01	-3.844510e+00
1.558103e+01	-3.873794e+00
1.567103e+01	-3.903250e+00
1.576155e+01	-3.933040e+00
1.585258e+01	-3.962824e+00
1.594415e+01	-3.993016e+00
1.603624e+01	-4.023100e+00
1.612886e+01	-4.053454e+00
1.622202e+01	-4.083965e+00
1.631572e+01	-4.114564e+00
1.640996e+01	-4.145009e+00
1.650474e+01	-4.175998e+00
1.660008e+01	-4.206907e+00
1.669596e+01	-4.238191e+00
1.679239e+01	-4.269474e+00
1.688938e+01	-4.300569e+00
1.698694e+01	-4.332275e+00
1.708505e+01	-4.363818e+00
1.718373e+01	-4.395755e+00
1.728299e+01	-4.427477e+00
1.738281e+01	-4.459710e+00
1.748322e+01	-4.491732e+00
1.758420e+01	-4.523896e+00
1.768576e+01	-4.556267e+00
1.778792e+01	-4.589120e+00
1.789066e+01	-4.621475e+00
1.799399e+01	-4.654419e+00
1.809793e+01	-4.687545e+00
1.820246e+01	-4.720458e+00
1.830760e+01	-4.753771e+00
1.841334e+01	-4.786920e+00
1.851969e+01	-4.820326e+00
1.862666e+01	-4.854270e+00
1.873425e+01	-4.887671e+00
1.884246e+01	-4.921703e+00
1.895129e+01	-4.956039e+00
1.906075e+01	-4.990010e+00
1.917085e+01	-5.024168e+00
1.928158e+01	-5.058513e+00
1.939295e+01	-5.093073e+00
1.950496e+01	-5.127676e+00
1.961762e+01	-5.162262e+00
1.973093e+01	-5.197100e+00
1.984490e+01	-5.232249e+00
1.995952e+01	-5.267442e+00
2.007480e+01	-5.302513e+00
2.019076e+01	-5.337948e+00
2.030738e+01	-5.373245e+00
2.042467e+01	-5.408771e+00
2.054264e+01	-5.444701e+00
2.066130e+01	-5.480300e+00
2.078064e+01	-5.516063e+00
2.090066e+01	-5.552251e+00
2.102139e+01	-5.588552e+00
2.114280e+01	-5.624718e+00
2.126492e+01	-5.661276e+00
2.138775e+01	-5.697834e+00
2.151128e+01	-5.734088e+00
2.163553e+01	-5.770759e+00
2.176050e+01	-5.807652e+00
2.188619e+01	-5.844565e+00
2.201260e+01	-5.881651e+00
2.213974e+01	-5.919154e+00
2.226762e+01	-5.956162e+00
2.239624e+01	-5.993571e+00
2.252560e+01	-6.031013e+00
2.265571e+01	-6.068875e+00
2.278656e+01	-6.106302e+00
2.291818e+01	-6.144131e+00
2.305055e+01	-6.181883e+00
2.318369e+01	-6.220009e+00
2.331760e+01	-6.258308e+00
2.345228e+01	-6.296671e+00
2.358774e+01	-6.334698e+00
2.372398e+01	-6.373441e+00
2.386101e+01	-6.412134e+00
2.399883e+01	-6.450748e+00
2.413745e+01	-6.489140e+00
2.427686e+01	-6.527909e+00
2.441709e+01	-6.567239e+00
2.455812e+01	-6.606306e+00
2.469997e+01	-6.644899e+00
2.484263e+01	-6.684306e+00
2.498612e+01	-6.724272e+00
2.513044e+01	-6.763310e+00
2.527559e+01	-6.802690e+00
2.542158e+01	-6.842193e+00
2.556842e+01	-6.882145e+00
2.571610e+01	-6.921870e+00
2.586463e+01	-6.961977e+00
2.601403e+01	-7.001947e+00
2.616428e+01	-7.041960e+00
2.631541e+01	-7.082505e+00
2.646740e+01	-7.121896e+00
2.662028e+01	-7.162684e+00
2.677404e+01	-7.203148e+00
2.692868e+01	-7.243770e+00
2.708422e+01	-7.284350e+00
2.724066e+01	-7.325060e+00
2.739800e+01	-7.365869e+00
2.755625e+01	-7.406884e+00
2.771541e+01	-7.447779e+00
2.787550e+01	-7.489134e+00
2.803650e+01	-7.530039e+00
2.819844e+01	-7.571236e+00
2.836131e+01	-7.612624e+00
2.852513e+01	-7.654081e+00
2.868989e+01	-7.695127e+00
2.885560e+01	-7.736949e+00
2.902227e+01	-7.778875e+00
2.918990e+01	-7.820019e+00
2.935850e+01	-7.862048e+00
2.952807e+01	-7.904118e+00
2.969863e+01	-7.945938e+00
2.987016e+01	-7.987695e+00
3.004269e+01	-8.030204e+00
3.021622e+01	-8.072030e+00
3.039075e+01	-8.114563e+00
3.056628e+01	-8.156513e+00
3.074283e+01	-8.199245e+00
3.092040e+01	-8.241870e+00
3.109900e+01	-8.283907e+00
3.127862e+01	-8.326875e+00
3.145929e+01	-8.369860e+00
3.164099e+01	-8.412430e+00
3.182375e+01	-8.455810e+00
3.200756e+01	-8.497992e+00
3.219244e+01	-8.541104e+00
3.237838e+01	-8.584523e+00
3.256540e+01	-8.627706e+00
3.275349e+01	-8.670990e+00
3.294268e+01	-8.713904e+00
3.313295e+01	-8.757107e+00
3.332433e+01	-8.800769e+00
3.351681e+01	-8.844510e+00
3.371040e+01	-8.887659e+00
3.390511e+01	-8.931388e+00
3.410094e+01	-8.975101e+00
3.429791e+01	-9.018537e+00
3.449601e+01	-9.062581e+00
3.469526e+01	-9.106156e+00
3.489566e+01	-9.149989e+00
3.509721e+01	-9.193814e+00
3.529993e+01	-9.238031e+00
3.550382e+01	-9.282779e+00
3.570889e+01	-9.326712e+00
3.591515e+01	-9.370377e+00
3.612259e+01	-9.415382e+00
3.633123e+01	-9.459290e+00
3.654108e+01	-9.503638e+00
3.675214e+01	-9.548161e+00
3.696442e+01	-9.592261e+00
3.717792e+01	-9.636673e+00
3.739266e+01	-9.681807e+00
3.760864e+01	-9.726188e+00
3.782587e+01	-9.771463e+00
3.804435e+01	-9.815847e+00
3.826409e+01	-9.860969e+00
3.848510e+01	-9.905615e+00
3.870739e+01	-9.950546e+00
3.893096e+01	-9.995823e+00
3.915583e+01	-1.004084e+01
3.938199e+01	-1.008602e+01
3.960946e+01	-1.013078e+01
3.983824e+01	-1.017619e+01
4.006834e+01	-1.022159e+01
4.029978e+01	-1.026655e+01
4.053255e+01	-1.031222e+01
4.076666e+01	-1.035764e+01
4.100213e+01	-1.040296e+01
4.123896e+01	-1.044807e+01
4.147715e+01	-1.049371e+01
4.171672e+01	-1.053919e+01
4.195767e+01	-1.058465e+01
4.220002e+01	-1.063094e+01
4.244377e+01	-1.067636e+01
4.268892e+01	-1.072250e+01
4.293549e+01	-1.076806e+01
4.318348e+01	-1.081406e+01
4.343291e+01	-1.085965e+01
4.368377e+01	-1.090580e+01
4.393609e+01	-1.095142e+01
4.418986e+01	-1.099777e+01
4.444510e+01	-1.104408e+01
4.470182e+01	-1.108999e+01
4.496001e+01	-1.113572e+01
4.521970e+01	-1.118233e+01
4.548089e+01	-1.122903e+01
4.574358e+01	-1.127472e+01
4.600779e+01	-1.132115e+01
4.627353e+01	-1.136761e+01
4.654081e+01	-1.141350e+01
4.680963e+01	-1.146003e+01
4.708000e+01	-1.150658e+01
4.735193e+01	-1.155286e+01
4.762543e+01	-1.160000e+01
4.790051e+01	-1.164590e+01
4.817719e+01	-1.169301e+01
4.845545e+01	-1.173972e+01
4.873533e+01	-1.178644e+01
4.901682e+01	-1.183216e+01
4.929994e+01	-1.187973e+01
4.958470e+01	-1.192663e+01
4.987110e+01	-1.197418e+01
5.015915e+01	-1.202052e+01
5.044887e+01	-1.206669e+01
5.074026e+01	-1.211449e+01
5.103333e+01	-1.216088e+01
5.132810e+01	-1.220750e+01
5.162457e+01	-1.225527e+01
5.192275e+01	-1.230306e+01
5.222265e+01	-1.234886e+01
5.252429e+01	-1.239659e+01
5.282767e+01	-1.244379e+01
5.313280e+01	-1.249072e+01
5.343969e+01	-1.253791e+01
5.374836e+01	-1.258550e+01
5.405880e+01	-1.263243e+01
5.437105e+01	-1.267930e+01
5.468509e+01	-1.272705e+01
5.500095e+01	-1.277459e+01
5.531863e+01	-1.282126e+01
5.563815e+01	-1.286939e+01
5.595951e+01	-1.291718e+01
5.628273e+01	-1.296457e+01
5.660782e+01	-1.301215e+01
5.693479e+01	-1.305940e+01
5.726364e+01	-1.310664e+01
5.759439e+01	-1.315509e+01
5.792705e+01	-1.320263e+01
5.826164e+01	-1.324968e+01
5.859815e+01	-1.329835e+01
5.893662e+01	-1.334523e+01
5.927703e+01	-1.339324e+01
5.961941e+01	-1.344097e+01
5.996377e+01	-1.348917e+01
6.031012e+01	-1.353632e+01
6.065847e+01	-1.358406e+01
6.100883e+01	-1.363214e+01
6.136121e+01	-1.367928e+01
6.171563e+01	-1.372831e+01
6.207210e+01	-1.377563e+01
6.243063e+01	-1.382368e+01
6.279122e+01	-1.387172e+01
6.315390e+01	-1.391986e+01
6.351868e+01	-1.396735e+01
6.388556e+01	-1.401491e+01
6.425456e+01	-1.406335e+01
6.462569e+01	-1.411117e+01
6.499897e+01	-1.416016e+01
6.537440e+01	-1.420824e+01
6.575200e+01	-1.425603e+01
6.613178e+01	-1.430366e+01
6.651375e+01	-1.435231e+01
6.689793e+01	-1.440078e+01
6.728433e+01	-1.444909e+01
6.767297e+01	-1.449692e+01
6.806384e+01	-1.454501e+01
6.845698e+01	-1.459344e+01
6.885238e+01	-1.464191e+01
6.925007e+01	-1.469091e+01
6.965005e+01	-1.473735e+01
7.005235e+01	-1.478632e+01
7.045697e+01	-1.483591e+01
7.086393e+01	-1.488338e+01
7.127323e+01	-1.493222e+01
7.168490e+01	-1.498083e+01
7.209895e+01	-1.502838e+01
7.251539e+01	-1.507728e+01
7.293424e+01	-1.512653e+01
7.335551e+01	-1.517418e+01
7.377920e+01	-1.522332e+01
7.420535e+01	-1.527201e+01
7.463396e+01	-1.531972e+01
7.506504e+01	-1.536877e+01
7.549861e+01	-1.541699e+01
7.593469e+01	-1.546572e+01
7.637328e+01	-1.551496e+01
7.681441e+01	-1.556358e+01
7.725809e+01	-1.561066e+01
7.770433e+01	-1.566015e+01
7.815315e+01	-1.570931e+01
7.860456e+01	-1.575887e+01
7.905857e+01	-1.580649e+01
7.951521e+01	-1.585525e+01
7.997449e+01	-1.590389e+01
8.043642e+01	-1.595249e+01
8.090102e+01	-1.600241e+01
8.136830e+01	-1.605039e+01
8.183828e+01	-1.609834e+01
8.231097e+01	-1.614745e+01
8.278640e+01	-1.619667e+01
8.326457e+01	-1.624611e+01
8.374550e+01	-1.629369e+01
8.422921e+01	-1.634307e+01
8.471572e+01	-1.639227e+01
8.520503e+01	-1.644126e+01
8.569717e+01	-1.649041e+01
8.619215e+01	-1.653932e+01
8.669000e+01	-1.658751e+01
8.719071e+01	-1.663712e+01
8.769432e+01	-1.668542e+01
8.820084e+01	-1.673493e+01
8.871029e+01	-1.678415e+01
8.922267e+01	-1.683319e+01
8.973802e+01	-1.688153e+01
9.025634e+01	-1.693049e+01
9.077766e+01	-1.697980e+01
9.130199e+01	-1.702877e+01
9.182935e+01	-1.707787e+01
9.235975e+01	-1.712650e+01
9.289321e+01	-1.717514e+01
9.342976e+01	-1.722370e+01
9.396941e+01	-1.727307e+01
9.451217e+01	-1.732280e+01
9.505807e+01	-1.737384e+01
9.560712e+01	-1.742081e+01
9.615934e+01	-1.747101e+01
9.671476e+01	-1.751973e+01
9.727338e+01	-1.756881e+01
9.783522e+01	-1.761766e+01
9.840032e+01	-1.766760e+01
9.896867e+01	-1.771487e+01
9.954031e+01	-1.776480e+01
1.001153e+02	-1.781517e+01
1.006935e+02	-1.786410e+01
1.012751e+02	-1.791363e+01
1.018601e+02	-1.796170e+01
1.024484e+02	-1.801149e+01
1.030402e+02	-1.806097e+01
1.036353e+02	-1.810988e+01
1.042339e+02	-1.815912e+01
1.048360e+02	-1.820911e+01
1.054415e+02	-1.825824e+01
1.060505e+02	-1.830689e+01
1.066631e+02	-1.835551e+01
1.072791e+02	-1.840623e+01
1.078988e+02	-1.845496e+01
1.085220e+02	-1.850439e+01
1.091488e+02	-1.855327e+01
1.097793e+02	-1.860223e+01
1.104133e+02	-1.865254e+01
1.110511e+02	-1.870148e+01
1.116925e+02	-1.874960e+01
1.123376e+02	-1.880132e+01
1.129865e+02	-1.884997e+01
1.136391e+02	-1.889961e+01
1.142955e+02	-1.894900e+01
1.149556e+02	-1.899742e+01
1.156196e+02	-1.904733e+01
1.162874e+02	-1.909703e+01
1.169591e+02	-1.914692e+01
1.176347e+02	-1.919598e+01
1.183141e+02	-1.924417e+01
1.189975e+02	-1.929516e+01
1.196848e+02	-1.934389e+01
1.203761e+02	-1.939439e+01
1.210714e+02	-1.944220e+01
1.217707e+02	-1.949422e+01
1.224740e+02	-1.954244e+01
1.231814e+02	-1.959108e+01
1.238929e+02	-1.963954e+01
1.246085e+02	-1.968933e+01
1.253283e+02	-1.973954e+01
1.260522e+02	-1.978786e+01
1.267802e+02	-1.983736e+01
1.275125e+02	-1.988762e+01
1.282490e+02	-1.993800e+01
1.289898e+02	-1.998631e+01
1.297348e+02	-2.003694e+01
1.304842e+02	-2.008789e+01
1.312378e+02	-2.013625e+01
1.319959e+02	-2.018485e+01
1.327583e+02	-2.023544e+01
1.335251e+02	-2.028662e+01
1.342963e+02	-2.033463e+01
1.350720e+02	-2.038370e+01
1.358522e+02	-2.043288e+01
1.366368e+02	-2.048430e+01
1.374260e+02	-2.053223e+01
1.382198e+02	-2.058316e+01
1.390182e+02	-2.063208e+01
1.398211e+02	-2.068144e+01
1.406287e+02	-2.072992e+01
1.414410e+02	-2.078079e+01
1.422579e+02	-2.082914e+01
1.430796e+02	-2.088003e+01
1.439060e+02	-2.092990e+01
1.447372e+02	-2.097872e+01
1.455732e+02	-2.102951e+01
1.464141e+02	-2.107812e+01
1.472597e+02	-2.112683e+01
1.481103e+02	-2.117698e+01
1.489658e+02	-2.122740e+01
1.498262e+02	-2.127711e+01
1.506916e+02	-2.132685e+01
1.515620e+02	-2.137619e+01
1.524374e+02	-2.142501e+01
1.533179e+02	-2.147684e+01
1.542034e+02	-2.152636e+01
1.550941e+02	-2.157549e+01
1.559899e+02	-2.162283e+01
1.568909e+02	-2.167412e+01
1.577971e+02	-2.172386e+01
1.587085e+02	-2.177366e+01
1.596252e+02	-2.182384e+01
1.605472e+02	-2.187501e+01
1.614745e+02	-2.192168e+01
1.624072e+02	-2.197265e+01
1.633453e+02	-2.202389e+01
1.642887e+02	-2.207248e+01
1.652377e+02	-2.212157e+01
1.661921e+02	-2.217203e+01
1.671520e+02	-2.222086e+01
1.681175e+02	-2.227122e+01
1.690885e+02	-2.232197e+01
1.700651e+02	-2.237128e+01
1.710474e+02	-2.242296e+01
1.720354e+02	-2.247080e+01
1.730291e+02	-2.252063e+01
1.740285e+02	-2.257070e+01
1.750337e+02	-2.262179e+01
1.760446e+02	-2.267138e+01
1.770615e+02	-2.271901e+01
1.780842e+02	-2.276876e+01
1.791128e+02	-2.281927e+01
1.801473e+02	-2.286705e+01
1.811878e+02	-2.291965e+01
1.822344e+02	-2.296829e+01
1.832870e+02	-2.301939e+01
1.843456e+02	-2.306716e+01
1.854104e+02	-2.311962e+01
1.864813e+02	-2.316744e+01
1.875584e+02	-2.321727e+01
1.886418e+02	-2.326567e+01
1.897313e+02	-2.331659e+01
1.908272e+02	-2.336733e+01
1.919294e+02	-2.341737e+01
1.930380e+02	-2.346834e+01
1.941530e+02	-2.351531e+01
1.952744e+02	-2.356405e+01
1.964023e+02	-2.361636e+01
1.975367e+02	-2.366627e+01
1.986777e+02	-2.371604e+01
1.998252e+02	-2.376821e+01
2.009794e+02	-2.381478e+01
2.021403e+02	-2.386381e+01
2.033078e+02	-2.391438e+01
2.044821e+02	-2.396451e+01
2.056632e+02	-2.401693e+01
2.068511e+02	-2.406427e+01
2.080459e+02	-2.411397e+01
2.092475e+02	-2.416287e+01
2.104561e+02	-2.421181e+01
2.116717e+02	-2.426274e+01
2.128943e+02	-2.431520e+01
2.141240e+02	-2.436457e+01
2.153608e+02	-2.441799e+01
2.166047e+02	-2.446246e+01
2.178558e+02	-2.451388e+01
2.191141e+02	-2.456124e+01
2.203797e+02	-2.461180e+01
2.216526e+02	-2.466517e+01
2.229329e+02	-2.471080e+01
2.242205e+02	-2.476149e+01
2.255156e+02	-2.481092e+01
2.268182e+02	-2.486147e+01
2.281283e+02	-2.491192e+01
2.294459e+02	-2.496124e+01
2.307712e+02	-2.501574e+01
2.321041e+02	-2.506365e+01
2.334447e+02	-2.511398e+01
2.347931e+02	-2.516082e+01
2.361493e+02	-2.521223e+01
2.375133e+02	-2.526323e+01
2.388851e+02	-2.531142e+01
2.402649e+02	-2.536213e+01
2.416527e+02	-2.541229e+01
2.430484e+02	-2.546149e+01
2.444523e+02	-2.551083e+01
2.458642e+02	-2.556035e+01
2.472843e+02	-2.561004e+01
2.487126e+02	-2.565774e+01
2.501492e+02	-2.571347e+01
2.515940e+02	-2.576040e+01
2.530472e+02	-2.581304e+01
2.545088e+02	-2.585892e+01
2.559789e+02	-2.591262e+01
2.574574e+02	-2.596294e+01
2.589444e+02	-2.601061e+01
2.604401e+02	-2.606021e+01
2.619444e+02	-2.611082e+01
2.634574e+02	-2.615777e+01
2.649791e+02	-2.621038e+01
2.665096e+02	-2.625982e+01
2.680489e+02	-2.630787e+01
2.695972e+02	-2.636104e+01
2.711544e+02	-2.641103e+01
2.727205e+02	-2.645567e+01
2.742958e+02	-2.651150e+01
2.758801e+02	-2.655967e+01
2.774736e+02	-2.660975e+01
2.790762e+02	-2.665930e+01
2.806882e+02	-2.670765e+01
2.823094e+02	-2.676018e+01
2.839400e+02	-2.680950e+01
2.855800e+02	-2.685954e+01
2.872295e+02	-2.691150e+01
2.888886e+02	-2.695781e+01
2.905572e+02	-2.701076e+01
2.922354e+02	-2.706295e+01
2.939234e+02	-2.710366e+01
2.956211e+02	-2.716067e+01
2.973286e+02	-2.720812e+01
2.990459e+02	-2.725765e+01
3.007732e+02	-2.730980e+01
3.025104e+02	-2.735864e+01
3.042577e+02	-2.741120e+01
3.060151e+02	-2.745970e+01
3.077826e+02	-2.751297e+01
3.095604e+02	-2.756056e+01
3.113484e+02	-2.761004e+01
3.131467e+02	-2.766384e+01
3.149554e+02	-2.770656e+01
3.167746e+02	-2.775989e+01
3.186043e+02	-2.780966e+01
3.204445e+02	-2.785548e+01
3.222954e+02	-2.790937e+01
3.241570e+02	-2.795673e+01
3.260293e+02	-2.800813e+01
3.279124e+02	-2.806232e+01
3.298064e+02	-2.810869e+01
3.317114e+02	-2.816210e+01
3.336273e+02	-2.820878e+01
3.355544e+02	-2.825918e+01
3.374925e+02	-2.830858e+01
3.394418e+02	-2.835885e+01
3.414024e+02	-2.840649e+01
3.433744e+02	-2.846292e+01
3.453577e+02	-2.850909e+01
3.473525e+02	-2.855825e+01
3.493588e+02	-2.861325e+01
3.513766e+02	-2.866092e+01
3.534062e+02	-2.870930e+01
3.554474e+02	-2.876025e+01
3.575005e+02	-2.881059e+01
3.595654e+02	-2.885884e+01
3.616422e+02	-2.891109e+01
3.637311e+02	-2.895802e+01
3.658320e+02	-2.901281e+01
3.679450e+02	-2.906275e+01
3.700702e+02	-2.910716e+01
3.722077e+02	-2.915983e+01
3.743576e+02	-2.920573e+01
3.765199e+02	-2.926489e+01
3.786946e+02	-2.931134e+01
3.808820e+02	-2.935895e+01
3.830819e+02	-2.941122e+01
3.852946e+02	-2.946083e+01
3.875200e+02	-2.951083e+01
3.897583e+02	-2.955862e+01
3.920096e+02	-2.961305e+01
3.942738e+02	-2.966222e+01
3.965511e+02	-2.971564e+01
3.988416e+02	-2.976327e+01
4.011452e+02	-2.981286e+01
4.034622e+02	-2.986046e+01
4.057926e+02	-2.991220e+01
4.081365e+02	-2.996601e+01
4.104938e+02	-3.001132e+01
4.128648e+02	-3.006482e+01
4.152495e+02	-3.011238e+01
4.176480e+02	-3.016332e+01
4.200603e+02	-3.021081e+01
4.224866e+02	-3.025962e+01
4.249268e+02	-3.031356e+01
4.273812e+02	-3.036432e+01
4.298497e+02	-3.041568e+01
4.323325e+02	-3.046080e+01
4.348297e+02	-3.050966e+01
4.373412e+02	-3.056257e+01
4.398673e+02	-3.061674e+01
4.424079e+02	-3.066730e+01
4.449633e+02	-3.071236e+01
4.475334e+02	-3.075775e+01
4.501183e+02	-3.081163e+01
4.527182e+02	-3.086207e+01
4.553330e+02	-3.091206e+01
4.579630e+02	-3.096746e+01
4.606082e+02	-3.101301e+01
4.632687e+02	-3.106521e+01
4.659445e+02	-3.111284e+01
4.686358e+02	-3.115954e+01
4.713426e+02	-3.121725e+01
4.740650e+02	-3.126657e+01
4.768032e+02	-3.131632e+01
4.795572e+02	-3.136491e+01
4.823271e+02	-3.140900e+01
4.851130e+02	-3.146337e+01
4.879150e+02	-3.151709e+01
4.907332e+02	-3.156598e+01
4.935676e+02	-3.161716e+01
4.964185e+02	-3.167044e+01
4.992858e+02	-3.171035e+01
5.021696e+02	-3.177077e+01
5.050701e+02	-3.181331e+01
5.079874e+02	-3.186822e+01
5.109215e+02	-3.192040e+01
5.138726e+02	-3.196931e+01
5.168407e+02	-3.201352e+01
5.198259e+02	-3.206371e+01
5.228284e+02	-3.212210e+01
5.258482e+02	-3.216306e+01
5.288855e+02	-3.221524e+01
5.319403e+02	-3.226556e+01
5.350128e+02	-3.231792e+01
5.381030e+02	-3.237160e+01
5.412111e+02	-3.241771e+01
5.443371e+02	-3.246872e+01
5.474812e+02	-3.252108e+01
5.506434e+02	-3.256817e+01
5.538239e+02	-3.262043e+01
5.570228e+02	-3.266555e+01
5.602401e+02	-3.272508e+01
5.634760e+02	-3.277157e+01
5.667306e+02	-3.282514e+01
5.700040e+02	-3.286522e+01
5.732964e+02	-3.292297e+01
5.766077e+02	-3.296751e+01
5.799382e+02	-3.301901e+01
5.832879e+02	-3.307953e+01
5.866569e+02	-3.312436e+01
5.900454e+02	-3.317817e+01
5.934535e+02	-3.322512e+01
5.968813e+02	-3.327419e+01
6.003288e+02	-3.332458e+01
6.037963e+02	-3.336856e+01
6.072838e+02	-3.343036e+01
6.107914e+02	-3.347138e+01
6.143194e+02	-3.353359e+01
6.178676e+02	-3.357594e+01
6.214364e+02	-3.362215e+01
6.250258e+02	-3.367624e+01
6.286359e+02	-3.372637e+01
6.322669e+02	-3.377696e+01
6.359189e+02	-3.382496e+01
6.395919e+02	-3.387067e+01
6.432862e+02	-3.392002e+01
6.470017e+02	-3.397563e+01
6.507388e+02	-3.402475e+01
6.544974e+02	-3.408326e+01
6.582778e+02	-3.412832e+01
6.620800e+02	-3.418457e+01
6.659041e+02	-3.423518e+01
6.697504e+02	-3.427344e+01
6.736188e+02	-3.432730e+01
6.775096e+02	-3.437838e+01
6.814229e+02	-3.443081e+01
6.853587e+02	-3.448148e+01
6.893173e+02	-3.452605e+01
6.932988e+02	-3.458300e+01
6.973033e+02	-3.462776e+01
7.013309e+02	-3.467496e+01
