Frequency(Hz)	Magnitude(dB)
1.000000e+01	-1.930237e-05
1.005776e+01	-1.952600e-05
1.011585e+01	-1.975221e-05
1.017428e+01	-1.998104e-05
1.023305e+01	-2.021253e-05
1.029215e+01	-2.044670e-05
1.035160e+01	-2.068358e-05
1.041139e+01	-2.092320e-05
1.047153e+01	-2.116560e-05
1.053201e+01	-2.141081e-05
1.059284e+01	-2.165886e-05
1.065403e+01	-2.190978e-05
1.071556e+01	-2.216361e-05
1.077746e+01	-2.242038e-05
1.083971e+01	-2.268013e-05
1.090232e+01	-2.294288e-05
1.096529e+01	-2.320868e-05
1.102862e+01	-2.347756e-05
1.109232e+01	-2.374956e-05
1.115639e+01	-2.402470e-05
1.122083e+01	-2.430303e-05
1.128564e+01	-2.458459e-05
1.135083e+01	-2.486941e-05
1.141639e+01	-2.515753e-05
1.148233e+01	-2.544898e-05
1.154865e+01	-2.574381e-05
1.161536e+01	-2.604206e-05
1.168245e+01	-2.634377e-05
1.174992e+01	-2.664897e-05
1.181779e+01	-2.695770e-05
1.188605e+01	-2.727001e-05
1.195470e+01	-2.758594e-05
1.202375e+01	-2.790553e-05
1.209320e+01	-2.822882e-05
1.216305e+01	-2.855586e-05
1.223330e+01	-2.888669e-05
1.230396e+01	-2.922135e-05
1.237503e+01	-2.955988e-05
1.244651e+01	-2.990234e-05
1.251840e+01	-3.024877e-05
1.259070e+01	-3.059921e-05
1.266343e+01	-3.095371e-05
1.273657e+01	-3.131231e-05
1.281014e+01	-3.167507e-05
1.288413e+01	-3.204204e-05
1.295855e+01	-3.241325e-05
1.303339e+01	-3.278877e-05
1.310867e+01	-3.316863e-05
1.318439e+01	-3.355290e-05
1.326054e+01	-3.394162e-05
1.333713e+01	-3.433484e-05
1.341417e+01	-3.473261e-05
1.349165e+01	-3.513500e-05
1.356958e+01	-3.554205e-05
1.364795e+01	-3.595381e-05
1.372678e+01	-3.637034e-05
1.380607e+01	-3.679170e-05
1.388581e+01	-3.721794e-05
1.396602e+01	-3.764912e-05
1.404668e+01	-3.808529e-05
1.412782e+01	-3.852652e-05
1.420942e+01	-3.897286e-05
1.429149e+01	-3.942437e-05
1.437404e+01	-3.988111e-05
1.445706e+01	-4.034314e-05
1.454057e+01	-4.081053e-05
1.462455e+01	-4.128332e-05
1.470902e+01	-4.176160e-05
1.479398e+01	-4.224542e-05
1.487943e+01	-4.273484e-05
1.496537e+01	-4.322993e-05
1.505181e+01	-4.373076e-05
1.513875e+01	-4.423739e-05
1.522619e+01	-4.474989e-05
1.531414e+01	-4.526833e-05
1.540259e+01	-4.579277e-05
1.549156e+01	-4.632329e-05
1.558103e+01	-4.685996e-05
1.567103e+01	-4.740284e-05
1.576155e+01	-4.795201e-05
1.585258e+01	-4.850755e-05
1.594415e+01	-4.906952e-05
1.603624e+01	-4.963800e-05
1.612886e+01	-5.021307e-05
1.622202e+01	-5.079479e-05
1.631572e+01	-5.138326e-05
1.640996e+01	-5.197855e-05
1.650474e+01	-5.258073e-05
1.660008e+01	-5.318989e-05
1.669596e+01	-5.380611e-05
1.679239e+01	-5.442946e-05
1.688938e+01	-5.506004e-05
1.698694e+01	-5.569792e-05
1.708505e+01	-5.634319e-05
1.718373e+01	-5.699594e-05
1.728299e+01	-5.765625e-05
1.738281e+01	-5.832421e-05
1.748322e+01	-5.899991e-05
1.758420e+01	-5.968343e-05
1.768576e+01	-6.037488e-05
1.778792e+01	-6.107433e-05
1.789066e+01	-6.178189e-05
1.799399e+01	-6.249764e-05
1.809793e+01	-6.322169e-05
1.820246e+01	-6.395413e-05
1.830760e+01	-6.469505e-05
1.841334e+01	-6.544455e-05
1.851969e+01	-6.620274e-05
1.862666e+01	-6.696971e-05
1.873425e+01	-6.774557e-05
1.884246e+01	-6.853041e-05
1.895129e+01	-6.932435e-05
1.906075e+01	-7.012749e-05
1.917085e+01	-7.093993e-05
1.928158e+01	-7.176178e-05
1.939295e+01	-7.259315e-05
1.950496e+01	-7.343416e-05
1.961762e+01	-7.428490e-05
1.973093e+01	-7.514551e-05
1.984490e+01	-7.601608e-05
1.995952e+01	-7.689674e-05
2.007480e+01	-7.778760e-05
2.019076e+01	-7.868879e-05
2.030738e+01	-7.960041e-05
2.042467e+01	-8.052260e-05
2.054264e+01	-8.145546e-05
2.066130e+01	-8.239914e-05
2.078064e+01	-8.335375e-05
2.090066e+01	-8.431941e-05
2.102139e+01	-8.529627e-05
2.114280e+01	-8.628444e-05
2.126492e+01	-8.728406e-05
2.138775e+01	-8.829526e-05
2.151128e+01	-8.931817e-05
2.163553e+01	-9.035294e-05
2.176050e+01	-9.139969e-05
2.188619e+01	-9.245857e-05
2.201260e+01	-9.352972e-05
2.213974e+01	-9.461327e-05
2.226762e+01	-9.570938e-05
2.239624e+01	-9.681819e-05
2.252560e+01	-9.793984e-05
2.265571e+01	-9.907449e-05
2.278656e+01	-1.002223e-04
2.291818e+01	-1.013834e-04
2.305055e+01	-1.025579e-04
2.318369e+01	-1.037461e-04
2.331760e+01	-1.049480e-04
2.345228e+01	-1.061638e-04
2.358774e+01	-1.073937e-04
2.372398e+01	-1.086379e-04
2.386101e+01	-1.098965e-04
2.399883e+01	-1.111697e-04
2.413745e+01	-1.124576e-04
2.427686e+01	-1.137604e-04
2.441709e+01	-1.150783e-04
2.455812e+01	-1.164115e-04
2.469997e+01	-1.177602e-04
2.484263e+01	-1.191244e-04
2.498612e+01	-1.205045e-04
2.513044e+01	-1.219006e-04
2.527559e+01	-1.233128e-04
2.542158e+01	-1.247414e-04
2.556842e+01	-1.261865e-04
2.571610e+01	-1.276484e-04
2.586463e+01	-1.291272e-04
2.601403e+01	-1.306232e-04
2.616428e+01	-1.321365e-04
2.631541e+01	-1.336673e-04
2.646740e+01	-1.352158e-04
2.662028e+01	-1.367823e-04
2.677404e+01	-1.383670e-04
2.692868e+01	-1.399700e-04
2.708422e+01	-1.415915e-04
2.724066e+01	-1.432319e-04
2.739800e+01	-1.448912e-04
2.755625e+01	-1.465698e-04
2.771541e+01	-1.482678e-04
2.787550e+01	-1.499855e-04
2.803650e+01	-1.517231e-04
2.819844e+01	-1.534808e-04
2.836131e+01	-1.552589e-04
2.852513e+01	-1.570576e-04
2.868989e+01	-1.588771e-04
2.885560e+01	-1.607177e-04
2.902227e+01	-1.625797e-04
2.918990e+01	-1.644632e-04
2.935850e+01	-1.663685e-04
2.952807e+01	-1.682959e-04
2.969863e+01	-1.702456e-04
2.987016e+01	-1.722179e-04
3.004269e+01	-1.742130e-04
3.021622e+01	-1.762313e-04
3.039075e+01	-1.782729e-04
3.056628e+01	-1.803382e-04
3.074283e+01	-1.824275e-04
3.092040e+01	-1.845409e-04
3.109900e+01	-1.866788e-04
3.127862e+01	-1.888415e-04
3.145929e+01	-1.910292e-04
3.164099e+01	-1.932423e-04
3.182375e+01	-1.954810e-04
3.200756e+01	-1.977457e-04
3.219244e+01	-2.000365e-04
3.237838e+01	-2.023540e-04
3.256540e+01	-2.046982e-04
3.275349e+01	-2.070697e-04
3.294268e+01	-2.094686e-04
3.313295e+01	-2.118953e-04
3.332433e+01	-2.143501e-04
3.351681e+01	-2.168333e-04
3.371040e+01	-2.193453e-04
3.390511e+01	-2.218864e-04
3.410094e+01	-2.244570e-04
3.429791e+01	-2.270573e-04
3.449601e+01	-2.296878e-04
3.469526e+01	-2.323487e-04
3.489566e+01	-2.350404e-04
3.509721e+01	-2.377634e-04
3.529993e+01	-2.405179e-04
3.550382e+01	-2.433043e-04
3.570889e+01	-2.461229e-04
3.591515e+01	-2.489742e-04
3.612259e+01	-2.518586e-04
3.633123e+01	-2.547764e-04
3.654108e+01	-2.577279e-04
3.675214e+01	-2.607137e-04
3.696442e+01	-2.637340e-04
3.717792e+01	-2.667894e-04
3.739266e+01	-2.698801e-04
3.760864e+01	-2.730066e-04
3.782587e+01	-2.761694e-04
3.804435e+01	-2.793688e-04
3.826409e+01	-2.826053e-04
3.848510e+01	-2.858792e-04
3.870739e+01	-2.891911e-04
3.893096e+01	-2.925413e-04
3.915583e+01	-2.959304e-04
3.938199e+01	-2.993587e-04
3.960946e+01	-3.028267e-04
3.983824e+01	-3.063350e-04
4.006834e+01	-3.098838e-04
4.029978e+01	-3.134738e-04
4.053255e+01	-3.171053e-04
4.076666e+01	-3.207789e-04
4.100213e+01	-3.244951e-04
4.123896e+01	-3.282543e-04
4.147715e+01	-3.320571e-04
4.171672e+01	-3.359039e-04
4.195767e+01	-3.397953e-04
4.220002e+01	-3.437318e-04
4.244377e+01	-3.477138e-04
4.268892e+01	-3.517420e-04
4.293549e+01	-3.558169e-04
4.318348e+01	-3.599390e-04
4.343291e+01	-3.641088e-04
4.368377e+01	-3.683269e-04
4.393609e+01	-3.725939e-04
4.418986e+01	-3.769103e-04
4.444510e+01	-3.812767e-04
4.470182e+01	-3.856937e-04
4.496001e+01	-3.901619e-04
4.521970e+01	-3.946818e-04
4.548089e+01	-3.992541e-04
4.574358e+01	-4.038794e-04
4.600779e+01	-4.085582e-04
4.627353e+01	-4.132912e-04
4.654081e+01	-4.180791e-04
4.680963e+01	-4.229224e-04
4.708000e+01	-4.278219e-04
4.735193e+01	-4.327781e-04
4.762543e+01	-4.377917e-04
4.790051e+01	-4.428633e-04
4.817719e+01	-4.479938e-04
4.845545e+01	-4.531836e-04
4.873533e+01	-4.584336e-04
4.901682e+01	-4.637444e-04
4.929994e+01	-4.691167e-04
4.958470e+01	-4.745513e-04
4.987110e+01	-4.800488e-04
5.015915e+01	-4.856100e-04
5.044887e+01	-4.912356e-04
5.074026e+01	-4.969263e-04
5.103333e+01	-5.026830e-04
5.132810e+01	-5.085064e-04
5.162457e+01	-5.143973e-04
5.192275e+01	-5.203563e-04
5.222265e+01	-5.263844e-04
5.252429e+01	-5.324824e-04
5.282767e+01	-5.386509e-04
5.313280e+01	-5.448910e-04
5.343969e+01	-5.512033e-04
5.374836e+01	-5.575887e-04
5.405880e+01	-5.640481e-04
5.437105e+01	-5.705823e-04
5.468509e+01	-5.771923e-04
5.500095e+01	-5.838787e-04
5.531863e+01	-5.906427e-04
5.563815e+01	-5.974850e-04
5.595951e+01	-6.044065e-04
5.628273e+01	-6.114082e-04
5.660782e+01	-6.184911e-04
5.693479e+01	-6.256559e-04
5.726364e+01	-6.329038e-04
5.759439e+01	-6.402356e-04
5.792705e+01	-6.476524e-04
5.826164e+01	-6.551550e-04
5.859815e+01	-6.627446e-04
5.893662e+01	-6.704221e-04
5.927703e+01	-6.781885e-04
5.961941e+01	-6.860449e-04
5.996377e+01	-6.939923e-04
6.031012e+01	-7.020317e-04
6.065847e+01	-7.101643e-04
6.100883e+01	-7.183911e-04
6.136121e+01	-7.267131e-04
6.171563e+01	-7.351316e-04
6.207210e+01	-7.436476e-04
6.243063e+01	-7.522622e-04
6.279122e+01	-7.609766e-04
6.315390e+01	-7.697919e-04
6.351868e+01	-7.787094e-04
6.388556e+01	-7.877301e-04
6.425456e+01	-7.968553e-04
6.462569e+01	-8.060863e-04
6.499897e+01	-8.154241e-04
6.537440e+01	-8.248701e-04
6.575200e+01	-8.344256e-04
6.613178e+01	-8.440917e-04
6.651375e+01	-8.538697e-04
6.689793e+01	-8.637611e-04
6.728433e+01	-8.737670e-04
6.767297e+01	-8.838888e-04
6.806384e+01	-8.941278e-04
6.845698e+01	-9.044855e-04
6.885238e+01	-9.149631e-04
6.925007e+01	-9.255620e-04
6.965005e+01	-9.362838e-04
7.005235e+01	-9.471297e-04
7.045697e+01	-9.581012e-04
7.086393e+01	-9.691999e-04
7.127323e+01	-9.804270e-04
7.168490e+01	-9.917842e-04
7.209895e+01	-1.003273e-03
7.251539e+01	-1.014895e-03
7.293424e+01	-1.026651e-03
7.335551e+01	-1.038544e-03
7.377920e+01	-1.050574e-03
7.420535e+01	-1.062744e-03
7.463396e+01	-1.075055e-03
7.506504e+01	-1.087508e-03
7.549861e+01	-1.100105e-03
7.593469e+01	-1.112849e-03
7.637328e+01	-1.125740e-03
7.681441e+01	-1.138780e-03
7.725809e+01	-1.151971e-03
7.770433e+01	-1.165315e-03
7.815315e+01	-1.178814e-03
7.860456e+01	-1.192469e-03
7.905857e+01	-1.206282e-03
7.951521e+01	-1.220255e-03
7.997449e+01	-1.234390e-03
8.043642e+01	-1.248689e-03
8.090102e+01	-1.263153e-03
8.136830e+01	-1.277785e-03
8.183828e+01	-1.292586e-03
8.231097e+01	-1.307559e-03
8.278640e+01	-1.322705e-03
8.326457e+01	-1.338027e-03
8.374550e+01	-1.353526e-03
8.422921e+01	-1.369204e-03
8.471572e+01	-1.385064e-03
8.520503e+01	-1.401108e-03
8.569717e+01	-1.417338e-03
8.619215e+01	-1.433755e-03
8.669000e+01	-1.450363e-03
8.719071e+01	-1.467163e-03
8.769432e+01	-1.484157e-03
8.820084e+01	-1.501349e-03
8.871029e+01	-1.518739e-03
8.922267e+01	-1.536331e-03
8.973802e+01	-1.554127e-03
9.025634e+01	-1.572129e-03
9.077766e+01	-1.590339e-03
9.130199e+01	-1.608760e-03
9.182935e+01	-1.627394e-03
9.235975e+01	-1.646245e-03
9.289321e+01	-1.665313e-03
9.342976e+01	-1.684602e-03
9.396941e+01	-1.704115e-03
9.451217e+01	-1.723854e-03
9.505807e+01	-1.743821e-03
9.560712e+01	-1.764020e-03
9.615934e+01	-1.784452e-03
9.671476e+01	-1.805121e-03
9.727338e+01	-1.826030e-03
9.783522e+01	-1.847180e-03
9.840032e+01	-1.868576e-03
9.896867e+01	-1.890219e-03
9.954031e+01	-1.912113e-03
1.001153e+02	-1.934260e-03
1.006935e+02	-1.956664e-03
1.012751e+02	-1.979327e-03
1.018601e+02	-2.002253e-03
1.024484e+02	-2.025444e-03
1.030402e+02	-2.048904e-03
1.036353e+02	-2.072635e-03
1.042339e+02	-2.096642e-03
1.048360e+02	-2.120926e-03
1.054415e+02	-2.145491e-03
1.060505e+02	-2.170341e-03
1.066631e+02	-2.195479e-03
1.072791e+02	-2.220908e-03
1.078988e+02	-2.246631e-03
1.085220e+02	-2.272652e-03
1.091488e+02	-2.298974e-03
1.097793e+02	-2.325601e-03
1.104133e+02	-2.352536e-03
1.110511e+02	-2.379784e-03
1.116925e+02	-2.407347e-03
1.123376e+02	-2.435228e-03
1.129865e+02	-2.463433e-03
1.136391e+02	-2.491965e-03
1.142955e+02	-2.520826e-03
1.149556e+02	-2.550022e-03
1.156196e+02	-2.579556e-03
1.162874e+02	-2.609432e-03
1.169591e+02	-2.639654e-03
1.176347e+02	-2.670225e-03
1.183141e+02	-2.701151e-03
1.189975e+02	-2.732435e-03
1.196848e+02	-2.764080e-03
1.203761e+02	-2.796093e-03
1.210714e+02	-2.828476e-03
1.217707e+02	-2.861233e-03
1.224740e+02	-2.894371e-03
1.231814e+02	-2.927891e-03
1.238929e+02	-2.961800e-03
1.246085e+02	-2.996101e-03
1.253283e+02	-3.030800e-03
1.260522e+02	-3.065900e-03
1.267802e+02	-3.101407e-03
1.275125e+02	-3.137324e-03
1.282490e+02	-3.173658e-03
1.289898e+02	-3.210412e-03
1.297348e+02	-3.247591e-03
1.304842e+02	-3.285201e-03
1.312378e+02	-3.323247e-03
1.319959e+02	-3.361732e-03
1.327583e+02	-3.400664e-03
1.335251e+02	-3.440046e-03
1.342963e+02	-3.479883e-03
1.350720e+02	-3.520182e-03
1.358522e+02	-3.560948e-03
1.366368e+02	-3.602185e-03
1.374260e+02	-3.643900e-03
1.382198e+02	-3.686098e-03
1.390182e+02	-3.728784e-03
1.398211e+02	-3.771964e-03
1.406287e+02	-3.815644e-03
1.414410e+02	-3.859829e-03
1.422579e+02	-3.904526e-03
1.430796e+02	-3.949741e-03
1.439060e+02	-3.995478e-03
1.447372e+02	-4.041745e-03
1.455732e+02	-4.088548e-03
1.464141e+02	-4.135892e-03
1.472597e+02	-4.183785e-03
1.481103e+02	-4.232231e-03
1.489658e+02	-4.281238e-03
1.498262e+02	-4.330813e-03
1.506916e+02	-4.380961e-03
1.515620e+02	-4.431690e-03
1.524374e+02	-4.483005e-03
1.533179e+02	-4.534915e-03
1.542034e+02	-4.587425e-03
1.550941e+02	-4.640543e-03
1.559899e+02	-4.694276e-03
1.568909e+02	-4.748631e-03
1.577971e+02	-4.803615e-03
1.587085e+02	-4.859234e-03
1.596252e+02	-4.915498e-03
1.605472e+02	-4.972413e-03
1.614745e+02	-5.029986e-03
1.624072e+02	-5.088225e-03
1.633453e+02	-5.147139e-03
1.642887e+02	-5.206734e-03
1.652377e+02	-5.267019e-03
1.661921e+02	-5.328001e-03
1.671520e+02	-5.389689e-03
1.681175e+02	-5.452090e-03
1.690885e+02	-5.515214e-03
1.700651e+02	-5.579068e-03
1.710474e+02	-5.643661e-03
1.720354e+02	-5.709001e-03
1.730291e+02	-5.775097e-03
1.740285e+02	-5.841958e-03
1.750337e+02	-5.909593e-03
1.760446e+02	-5.978009e-03
1.770615e+02	-6.047218e-03
1.780842e+02	-6.117227e-03
1.791128e+02	-6.188046e-03
1.801473e+02	-6.259684e-03
1.811878e+02	-6.332151e-03
1.822344e+02	-6.405457e-03
1.832870e+02	-6.479610e-03
1.843456e+02	-6.554621e-03
1.854104e+02	-6.630500e-03
1.864813e+02	-6.707257e-03
1.875584e+02	-6.784901e-03
1.886418e+02	-6.863444e-03
1.897313e+02	-6.942895e-03
1.908272e+02	-7.023265e-03
1.919294e+02	-7.104564e-03
1.930380e+02	-7.186804e-03
1.941530e+02	-7.269995e-03
1.952744e+02	-7.354148e-03
1.964023e+02	-7.439275e-03
1.975367e+02	-7.525386e-03
1.986777e+02	-7.612493e-03
1.998252e+02	-7.700607e-03
2.009794e+02	-7.789740e-03
2.021403e+02	-7.879904e-03
2.033078e+02	-7.971111e-03
2.044821e+02	-8.063372e-03
2.056632e+02	-8.156701e-03
2.068511e+02	-8.251108e-03
2.080459e+02	-8.346607e-03
2.092475e+02	-8.443210e-03
2.104561e+02	-8.540931e-03
2.116717e+02	-8.639781e-03
2.128943e+02	-8.739774e-03
2.141240e+02	-8.840923e-03
2.153608e+02	-8.943242e-03
2.166047e+02	-9.046743e-03
2.178558e+02	-9.151441e-03
2.191141e+02	-9.257350e-03
2.203797e+02	-9.364482e-03
2.216526e+02	-9.472854e-03
2.229329e+02	-9.582478e-03
2.242205e+02	-9.693369e-03
2.255156e+02	-9.805542e-03
2.268182e+02	-9.919011e-03
2.281283e+02	-1.003379e-02
2.294459e+02	-1.014990e-02
2.307712e+02	-1.026735e-02
2.321041e+02	-1.038616e-02
2.334447e+02	-1.050634e-02
2.347931e+02	-1.062791e-02
2.361493e+02	-1.075088e-02
2.375133e+02	-1.087528e-02
2.388851e+02	-1.100111e-02
2.402649e+02	-1.112840e-02
2.416527e+02	-1.125715e-02
2.430484e+02	-1.138740e-02
2.444523e+02	-1.151915e-02
2.458642e+02	-1.165242e-02
2.472843e+02	-1.178723e-02
2.487126e+02	-1.192360e-02
2.501492e+02	-1.206155e-02
2.515940e+02	-1.220109e-02
2.530472e+02	-1.234224e-02
2.545088e+02	-1.248502e-02
2.559789e+02	-1.262945e-02
2.574574e+02	-1.277555e-02
2.589444e+02	-1.292334e-02
2.604401e+02	-1.307283e-02
2.619444e+02	-1.322405e-02
2.634574e+02	-1.337702e-02
2.649791e+02	-1.353176e-02
2.665096e+02	-1.368828e-02
2.680489e+02	-1.384660e-02
2.695972e+02	-1.400676e-02
2.711544e+02	-1.416877e-02
2.727205e+02	-1.433264e-02
2.742958e+02	-1.449841e-02
2.758801e+02	-1.466610e-02
2.774736e+02	-1.483572e-02
2.790762e+02	-1.500729e-02
2.806882e+02	-1.518085e-02
2.823094e+02	-1.535641e-02
2.839400e+02	-1.553400e-02
2.855800e+02	-1.571364e-02
2.872295e+02	-1.589535e-02
2.888886e+02	-1.607916e-02
2.905572e+02	-1.626510e-02
2.922354e+02	-1.645317e-02
2.939234e+02	-1.664342e-02
2.956211e+02	-1.683586e-02
2.973286e+02	-1.703053e-02
2.990459e+02	-1.722744e-02
3.007732e+02	-1.742662e-02
3.025104e+02	-1.762810e-02
3.042577e+02	-1.783191e-02
3.060151e+02	-1.803806e-02
3.077826e+02	-1.824660e-02
3.095604e+02	-1.845754e-02
3.113484e+02	-1.867091e-02
3.131467e+02	-1.888675e-02
3.149554e+02	-1.910507e-02
3.167746e+02	-1.932592e-02
3.186043e+02	-1.954931e-02
3.204445e+02	-1.977527e-02
3.222954e+02	-2.000384e-02
3.241570e+02	-2.023505e-02
3.260293e+02	-2.046893e-02
3.279124e+02	-2.070550e-02
3.298064e+02	-2.094479e-02
3.317114e+02	-2.118685e-02
3.336273e+02	-2.143170e-02
3.355544e+02	-2.167937e-02
3.374925e+02	-2.192989e-02
3.394418e+02	-2.218331e-02
3.414024e+02	-2.243964e-02
3.433744e+02	-2.269893e-02
3.453577e+02	-2.296120e-02
3.473525e+02	-2.322650e-02
3.493588e+02	-2.349485e-02
3.513766e+02	-2.376630e-02
3.534062e+02	-2.404088e-02
3.554474e+02	-2.431861e-02
3.575005e+02	-2.459955e-02
3.595654e+02	-2.488372e-02
3.616422e+02	-2.517117e-02
3.637311e+02	-2.546193e-02
3.658320e+02	-2.575603e-02
3.679450e+02	-2.605352e-02
3.700702e+02	-2.635444e-02
3.722077e+02	-2.665882e-02
3.743576e+02	-2.696671e-02
3.765199e+02	-2.727814e-02
3.786946e+02	-2.759316e-02
3.808820e+02	-2.791180e-02
3.830819e+02	-2.823412e-02
3.852946e+02	-2.856014e-02
3.875200e+02	-2.888991e-02
3.897583e+02	-2.922348e-02
3.920096e+02	-2.956088e-02
3.942738e+02	-2.990217e-02
3.965511e+02	-3.024738e-02
3.988416e+02	-3.059657e-02
4.011452e+02	-3.094977e-02
4.034622e+02	-3.130704e-02
4.057926e+02	-3.166841e-02
4.081365e+02	-3.203394e-02
4.104938e+02	-3.240367e-02
4.128648e+02	-3.277766e-02
4.152495e+02	-3.315594e-02
4.176480e+02	-3.353857e-02
4.200603e+02	-3.392561e-02
4.224866e+02	-3.431709e-02
4.249268e+02	-3.471306e-02
4.273812e+02	-3.511359e-02
4.298497e+02	-3.551873e-02
4.323325e+02	-3.592851e-02
4.348297e+02	-3.634301e-02
4.373412e+02	-3.676226e-02
4.398673e+02	-3.718634e-02
4.424079e+02	-3.761528e-02
4.449633e+02	-3.804915e-02
4.475334e+02	-3.848800e-02
4.501183e+02	-3.893189e-02
4.527182e+02	-3.938088e-02
4.553330e+02	-3.983502e-02
4.579630e+02	-4.029437e-02
4.606082e+02	-4.075899e-02
4.632687e+02	-4.122895e-02
4.659445e+02	-4.170430e-02
4.686358e+02	-4.218510e-02
4.713426e+02	-4.267142e-02
4.740650e+02	-4.316332e-02
4.768032e+02	-4.366086e-02
4.795572e+02	-4.416410e-02
4.823271e+02	-4.467312e-02
4.851130e+02	-4.518797e-02
4.879150e+02	-4.570873e-02
4.907332e+02	-4.623545e-02
4.935676e+02	-4.676821e-02
4.964185e+02	-4.730707e-02
4.992858e+02	-4.785211e-02
5.021696e+02	-4.840340e-02
5.050701e+02	-4.896100e-02
5.079874e+02	-4.952498e-02
5.109215e+02	-5.009543e-02
5.138726e+02	-5.067240e-02
5.168407e+02	-5.125599e-02
5.198259e+02	-5.184625e-02
5.228284e+02	-5.244327e-02
5.258482e+02	-5.304712e-02
5.288855e+02	-5.365789e-02
5.319403e+02	-5.427564e-02
5.350128e+02	-5.490045e-02
5.381030e+02	-5.553242e-02
5.412111e+02	-5.617161e-02
5.443371e+02	-5.681811e-02
5.474812e+02	-5.747200e-02
5.506434e+02	-5.813337e-02
5.538239e+02	-5.880229e-02
5.570228e+02	-5.947886e-02
5.602401e+02	-6.016316e-02
5.634760e+02	-6.085528e-02
5.667306e+02	-6.155530e-02
5.700040e+02	-6.226332e-02
5.732964e+02	-6.297942e-02
5.766077e+02	-6.370370e-02
5.799382e+02	-6.443625e-02
5.832879e+02	-6.517715e-02
5.866569e+02	-6.592651e-02
5.900454e+02	-6.668442e-02
5.934535e+02	-6.745097e-02
5.968813e+02	-6.822627e-02
6.003288e+02	-6.901041e-02
6.037963e+02	-6.980348e-02
6.072838e+02	-7.060560e-02
6.107914e+02	-7.141686e-02
6.143194e+02	-7.223736e-02
6.178676e+02	-7.306721e-02
6.214364e+02	-7.390650e-02
6.250258e+02	-7.475536e-02
6.286359e+02	-7.561388e-02
6.322669e+02	-7.648218e-02
6.359189e+02	-7.736035e-02
6.395919e+02	-7.824852e-02
6.432862e+02	-7.914679e-02
6.470017e+02	-8.005528e-02
6.507388e+02	-8.097410e-02
6.544974e+02	-8.190337e-02
6.582778e+02	-8.284319e-02
6.620800e+02	-8.379370e-02
6.659041e+02	-8.475501e-02
6.697504e+02	-8.572723e-02
6.736188e+02	-8.671050e-02
6.775096e+02	-8.770493e-02
6.814229e+02	-8.871065e-02
6.853587e+02	-8.972778e-02
6.893173e+02	-9.075645e-02
6.932988e+02	-9.179679e-02
6.973033e+02	-9.284893e-02
7.013309e+02	-9.391299e-02
