Frequency(Hz)	Magnitude(dB)
1.000000e+01	-2.036695e+00
1.005776e+01	-2.055374e+00
1.011585e+01	-2.074159e+00
1.017428e+01	-2.093204e+00
1.023305e+01	-2.112688e+00
1.029215e+01	-2.131921e+00
1.035160e+01	-2.151248e+00
1.041139e+01	-2.170854e+00
1.047153e+01	-2.191018e+00
1.053201e+01	-2.210551e+00
1.059284e+01	-2.230766e+00
1.065403e+01	-2.250678e+00
1.071556e+01	-2.271094e+00
1.077746e+01	-2.291488e+00
1.083971e+01	-2.312068e+00
1.090232e+01	-2.332949e+00
1.096529e+01	-2.353718e+00
1.102862e+01	-2.374792e+00
1.109232e+01	-2.396053e+00
1.115639e+01	-2.417254e+00
1.122083e+01	-2.438316e+00
1.128564e+01	-2.460169e+00
1.135083e+01	-2.481827e+00
1.141639e+01	-2.503540e+00
1.148233e+01	-2.525660e+00
1.154865e+01	-2.547579e+00
1.161536e+01	-2.570160e+00
1.168245e+01	-2.592652e+00
1.174992e+01	-2.615021e+00
1.181779e+01	-2.637705e+00
1.188605e+01	-2.660493e+00
1.195470e+01	-2.683532e+00
1.202375e+01	-2.706743e+00
1.209320e+01	-2.729894e+00
1.216305e+01	-2.753471e+00
1.223330e+01	-2.776937e+00
1.230396e+01	-2.800759e+00
1.237503e+01	-2.824457e+00
1.244651e+01	-2.848396e+00
1.251840e+01	-2.872608e+00
1.259070e+01	-2.896722e+00
1.266343e+01	-2.921433e+00
1.273657e+01	-2.945798e+00
1.281014e+01	-2.970411e+00
1.288413e+01	-2.995482e+00
1.295855e+01	-3.020342e+00
1.303339e+01	-3.045618e+00
1.310867e+01	-3.070904e+00
1.318439e+01	-3.096105e+00
1.326054e+01	-3.121859e+00
1.333713e+01	-3.147393e+00
1.341417e+01	-3.173190e+00
1.349165e+01	-3.199412e+00
1.356958e+01	-3.225691e+00
1.364795e+01	-3.252047e+00
1.372678e+01	-3.278448e+00
1.380607e+01	-3.305298e+00
1.388581e+01	-3.331634e+00
1.396602e+01	-3.358457e+00
1.404668e+01	-3.385437e+00
1.412782e+01	-3.412782e+00
1.420942e+01	-3.439857e+00
1.429149e+01	-3.467484e+00
1.437404e+01	-3.495239e+00
1.445706e+01	-3.522826e+00
1.454057e+01	-3.550769e+00
1.462455e+01	-3.578485e+00
1.470902e+01	-3.606885e+00
1.479398e+01	-3.635007e+00
1.487943e+01	-3.663504e+00
1.496537e+01	-3.691973e+00
1.505181e+01	-3.720673e+00
1.513875e+01	-3.749517e+00
1.522619e+01	-3.778496e+00
1.531414e+01	-3.807957e+00
1.540259e+01	-3.837103e+00
1.549156e+01	-3.866573e+00
1.558103e+01	-3.896139e+00
1.567103e+01	-3.925736e+00
1.576155e+01	-3.955521e+00
1.585258e+01	-3.985388e+00
1.594415e+01	-4.015737e+00
1.603624e+01	-4.045991e+00
1.612886e+01	-4.076114e+00
1.622202e+01	-4.107024e+00
1.631572e+01	-4.137619e+00
1.640996e+01	-4.168026e+00
1.650474e+01	-4.199042e+00
1.660008e+01	-4.230329e+00
1.669596e+01	-4.261562e+00
1.679239e+01	-4.292819e+00
1.688938e+01	-4.324333e+00
1.698694e+01	-4.355889e+00
1.708505e+01	-4.387509e+00
1.718373e+01	-4.419618e+00
1.728299e+01	-4.451469e+00
1.738281e+01	-4.483633e+00
1.748322e+01	-4.516129e+00
1.758420e+01	-4.548184e+00
1.768576e+01	-4.580950e+00
1.778792e+01	-4.613687e+00
1.789066e+01	-4.646366e+00
1.799399e+01	-4.679308e+00
1.809793e+01	-4.712474e+00
1.820246e+01	-4.745586e+00
1.830760e+01	-4.778955e+00
1.841334e+01	-4.812267e+00
1.851969e+01	-4.845977e+00
1.862666e+01	-4.879686e+00
1.873425e+01	-4.913166e+00
1.884246e+01	-4.947301e+00
1.895129e+01	-4.981186e+00
1.906075e+01	-5.015801e+00
1.917085e+01	-5.050017e+00
1.928158e+01	-5.084483e+00
1.939295e+01	-5.119102e+00
1.950496e+01	-5.153711e+00
1.961762e+01	-5.188555e+00
1.973093e+01	-5.223275e+00
1.984490e+01	-5.258326e+00
1.995952e+01	-5.293820e+00
2.007480e+01	-5.328807e+00
2.019076e+01	-5.364102e+00
2.030738e+01	-5.399799e+00
2.042467e+01	-5.435444e+00
2.054264e+01	-5.471488e+00
2.066130e+01	-5.507137e+00
2.078064e+01	-5.543495e+00
2.090066e+01	-5.579538e+00
2.102139e+01	-5.615557e+00
2.114280e+01	-5.651927e+00
2.126492e+01	-5.688412e+00
2.138775e+01	-5.724717e+00
2.151128e+01	-5.761716e+00
2.163553e+01	-5.798512e+00
2.176050e+01	-5.835661e+00
2.188619e+01	-5.872195e+00
2.201260e+01	-5.909676e+00
2.213974e+01	-5.946866e+00
2.226762e+01	-5.984130e+00
2.239624e+01	-6.021459e+00
2.252560e+01	-6.059126e+00
2.265571e+01	-6.097213e+00
2.278656e+01	-6.134894e+00
2.291818e+01	-6.172594e+00
2.305055e+01	-6.210762e+00
2.318369e+01	-6.248691e+00
2.331760e+01	-6.286760e+00
2.345228e+01	-6.325502e+00
2.358774e+01	-6.363510e+00
2.372398e+01	-6.402180e+00
2.386101e+01	-6.440758e+00
2.399883e+01	-6.479314e+00
2.413745e+01	-6.518502e+00
2.427686e+01	-6.557338e+00
2.441709e+01	-6.596317e+00
2.455812e+01	-6.635587e+00
2.469997e+01	-6.674577e+00
2.484263e+01	-6.714034e+00
2.498612e+01	-6.753424e+00
2.513044e+01	-6.792698e+00
2.527559e+01	-6.832260e+00
2.542158e+01	-6.871964e+00
2.556842e+01	-6.911992e+00
2.571610e+01	-6.952206e+00
2.586463e+01	-6.992108e+00
2.601403e+01	-7.031835e+00
2.616428e+01	-7.071965e+00
2.631541e+01	-7.112566e+00
2.646740e+01	-7.152998e+00
2.662028e+01	-7.193166e+00
2.677404e+01	-7.233603e+00
2.692868e+01	-7.274110e+00
2.708422e+01	-7.315017e+00
2.724066e+01	-7.355312e+00
2.739800e+01	-7.396632e+00
2.755625e+01	-7.437832e+00
2.771541e+01	-7.478435e+00
2.787550e+01	-7.519827e+00
2.803650e+01	-7.560993e+00
2.819844e+01	-7.602887e+00
2.836131e+01	-7.643619e+00
2.852513e+01	-7.685154e+00
2.868989e+01	-7.726882e+00
2.885560e+01	-7.768505e+00
2.902227e+01	-7.809731e+00
2.918990e+01	-7.851839e+00
2.935850e+01	-7.893892e+00
2.952807e+01	-7.935374e+00
2.969863e+01	-7.977887e+00
2.987016e+01	-8.019842e+00
3.004269e+01	-8.061981e+00
3.021622e+01	-8.103946e+00
3.039075e+01	-8.146625e+00
3.056628e+01	-8.188985e+00
3.074283e+01	-8.230985e+00
3.092040e+01	-8.273877e+00
3.109900e+01	-8.316438e+00
3.127862e+01	-8.359274e+00
3.145929e+01	-8.401670e+00
3.164099e+01	-8.445067e+00
3.182375e+01	-8.487507e+00
3.200756e+01	-8.530188e+00
3.219244e+01	-8.573434e+00
3.237838e+01	-8.616468e+00
3.256540e+01	-8.660254e+00
3.275349e+01	-8.703509e+00
3.294268e+01	-8.746288e+00
3.313295e+01	-8.789903e+00
3.332433e+01	-8.833452e+00
3.351681e+01	-8.876783e+00
3.371040e+01	-8.920821e+00
3.390511e+01	-8.963684e+00
3.410094e+01	-9.007771e+00
3.429791e+01	-9.051601e+00
3.449601e+01	-9.095303e+00
3.469526e+01	-9.139499e+00
3.489566e+01	-9.182945e+00
3.509721e+01	-9.227497e+00
3.529993e+01	-9.271334e+00
3.550382e+01	-9.315305e+00
3.570889e+01	-9.359665e+00
3.591515e+01	-9.404298e+00
3.612259e+01	-9.448114e+00
3.633123e+01	-9.492835e+00
3.654108e+01	-9.537137e+00
3.675214e+01	-9.581500e+00
3.696442e+01	-9.625784e+00
3.717792e+01	-9.670920e+00
3.739266e+01	-9.715054e+00
3.760864e+01	-9.759344e+00
3.782587e+01	-9.804575e+00
3.804435e+01	-9.849805e+00
3.826409e+01	-9.894586e+00
3.848510e+01	-9.939398e+00
3.870739e+01	-9.984908e+00
3.893096e+01	-1.002982e+01
3.915583e+01	-1.007421e+01
3.938199e+01	-1.011967e+01
3.960946e+01	-1.016485e+01
3.983824e+01	-1.020942e+01
4.006834e+01	-1.025543e+01
4.029978e+01	-1.030086e+01
4.053255e+01	-1.034626e+01
4.076666e+01	-1.039094e+01
4.100213e+01	-1.043750e+01
4.123896e+01	-1.048246e+01
4.147715e+01	-1.052814e+01
4.171672e+01	-1.057381e+01
4.195767e+01	-1.061960e+01
4.220002e+01	-1.066548e+01
4.244377e+01	-1.071105e+01
4.268892e+01	-1.075639e+01
4.293549e+01	-1.080253e+01
4.318348e+01	-1.084841e+01
4.343291e+01	-1.089465e+01
4.368377e+01	-1.094033e+01
4.393609e+01	-1.098672e+01
4.418986e+01	-1.103222e+01
4.444510e+01	-1.107879e+01
4.470182e+01	-1.112403e+01
4.496001e+01	-1.117069e+01
4.521970e+01	-1.121724e+01
4.548089e+01	-1.126342e+01
4.574358e+01	-1.130962e+01
4.600779e+01	-1.135614e+01
4.627353e+01	-1.140192e+01
4.654081e+01	-1.144898e+01
4.680963e+01	-1.149537e+01
4.708000e+01	-1.154156e+01
4.735193e+01	-1.158846e+01
4.762543e+01	-1.163477e+01
4.790051e+01	-1.168087e+01
4.817719e+01	-1.172781e+01
4.845545e+01	-1.177541e+01
4.873533e+01	-1.182124e+01
4.901682e+01	-1.186842e+01
4.929994e+01	-1.191522e+01
4.958470e+01	-1.196192e+01
4.987110e+01	-1.200898e+01
5.015915e+01	-1.205602e+01
5.044887e+01	-1.210288e+01
5.074026e+01	-1.214957e+01
5.103333e+01	-1.219609e+01
5.132810e+01	-1.224373e+01
5.162457e+01	-1.229046e+01
5.192275e+01	-1.233680e+01
5.222265e+01	-1.238493e+01
5.252429e+01	-1.243231e+01
5.282767e+01	-1.247986e+01
5.313280e+01	-1.252684e+01
5.343969e+01	-1.257422e+01
5.374836e+01	-1.262127e+01
5.405880e+01	-1.266878e+01
5.437105e+01	-1.271524e+01
5.468509e+01	-1.276341e+01
5.500095e+01	-1.280966e+01
5.531863e+01	-1.285757e+01
5.563815e+01	-1.290572e+01
5.595951e+01	-1.295250e+01
5.628273e+01	-1.300068e+01
5.660782e+01	-1.304798e+01
5.693479e+01	-1.309535e+01
5.726364e+01	-1.314309e+01
5.759439e+01	-1.319049e+01
5.792705e+01	-1.323779e+01
5.826164e+01	-1.328572e+01
5.859815e+01	-1.333358e+01
5.893662e+01	-1.338131e+01
5.927703e+01	-1.342886e+01
5.961941e+01	-1.347722e+01
5.996377e+01	-1.352424e+01
6.031012e+01	-1.357209e+01
6.065847e+01	-1.362067e+01
6.100883e+01	-1.366775e+01
6.136121e+01	-1.371536e+01
6.171563e+01	-1.376430e+01
6.207210e+01	-1.381134e+01
6.243063e+01	-1.385986e+01
6.279122e+01	-1.390714e+01
6.315390e+01	-1.395627e+01
6.351868e+01	-1.400389e+01
6.388556e+01	-1.405183e+01
6.425456e+01	-1.409945e+01
6.462569e+01	-1.414768e+01
6.499897e+01	-1.419656e+01
6.537440e+01	-1.424387e+01
6.575200e+01	-1.429201e+01
6.613178e+01	-1.434022e+01
6.651375e+01	-1.438867e+01
6.689793e+01	-1.443684e+01
6.728433e+01	-1.448522e+01
6.767297e+01	-1.453339e+01
6.806384e+01	-1.458152e+01
6.845698e+01	-1.462995e+01
6.885238e+01	-1.467849e+01
6.925007e+01	-1.472637e+01
6.965005e+01	-1.477392e+01
7.005235e+01	-1.482330e+01
7.045697e+01	-1.487137e+01
7.086393e+01	-1.491942e+01
7.127323e+01	-1.496809e+01
7.168490e+01	-1.501645e+01
7.209895e+01	-1.506523e+01
7.251539e+01	-1.511432e+01
7.293424e+01	-1.516278e+01
7.335551e+01	-1.521122e+01
7.377920e+01	-1.525959e+01
7.420535e+01	-1.530779e+01
7.463396e+01	-1.535654e+01
7.506504e+01	-1.540516e+01
7.549861e+01	-1.545216e+01
7.593469e+01	-1.550222e+01
7.637328e+01	-1.555157e+01
7.681441e+01	-1.560043e+01
7.725809e+01	-1.564751e+01
7.770433e+01	-1.569767e+01
7.815315e+01	-1.574565e+01
7.860456e+01	-1.579440e+01
7.905857e+01	-1.584400e+01
7.951521e+01	-1.589173e+01
7.997449e+01	-1.593986e+01
8.043642e+01	-1.598883e+01
8.090102e+01	-1.603732e+01
8.136830e+01	-1.608639e+01
8.183828e+01	-1.613599e+01
8.231097e+01	-1.618370e+01
8.278640e+01	-1.623254e+01
8.326457e+01	-1.628159e+01
8.374550e+01	-1.633071e+01
8.422921e+01	-1.638055e+01
8.471572e+01	-1.642890e+01
8.520503e+01	-1.647761e+01
8.569717e+01	-1.652670e+01
8.619215e+01	-1.657478e+01
8.669000e+01	-1.662455e+01
8.719071e+01	-1.667203e+01
8.769432e+01	-1.672171e+01
8.820084e+01	-1.677142e+01
8.871029e+01	-1.682078e+01
8.922267e+01	-1.686914e+01
8.973802e+01	-1.691688e+01
9.025634e+01	-1.696626e+01
9.077766e+01	-1.701858e+01
9.130199e+01	-1.706565e+01
9.182935e+01	-1.711462e+01
9.235975e+01	-1.716416e+01
9.289321e+01	-1.721348e+01
9.342976e+01	-1.726237e+01
9.396941e+01	-1.731139e+01
9.451217e+01	-1.736070e+01
9.505807e+01	-1.740950e+01
9.560712e+01	-1.745839e+01
9.615934e+01	-1.750760e+01
9.671476e+01	-1.755673e+01
9.727338e+01	-1.760560e+01
9.783522e+01	-1.765566e+01
9.840032e+01	-1.770326e+01
9.896867e+01	-1.775297e+01
9.954031e+01	-1.780296e+01
1.001153e+02	-1.785265e+01
1.006935e+02	-1.790156e+01
1.012751e+02	-1.794867e+01
1.018601e+02	-1.799996e+01
1.024484e+02	-1.804881e+01
1.030402e+02	-1.809721e+01
1.036353e+02	-1.814699e+01
1.042339e+02	-1.819700e+01
1.048360e+02	-1.824466e+01
1.054415e+02	-1.829454e+01
1.060505e+02	-1.834393e+01
1.066631e+02	-1.839334e+01
1.072791e+02	-1.844173e+01
1.078988e+02	-1.849279e+01
1.085220e+02	-1.854038e+01
1.091488e+02	-1.859063e+01
1.097793e+02	-1.863975e+01
1.104133e+02	-1.869007e+01
1.110511e+02	-1.873907e+01
1.116925e+02	-1.878907e+01
1.123376e+02	-1.883751e+01
1.129865e+02	-1.888792e+01
1.136391e+02	-1.893655e+01
1.142955e+02	-1.898691e+01
1.149556e+02	-1.903616e+01
1.156196e+02	-1.908469e+01
1.162874e+02	-1.913382e+01
1.169591e+02	-1.918339e+01
1.176347e+02	-1.923333e+01
1.183141e+02	-1.928236e+01
1.189975e+02	-1.933197e+01
1.196848e+02	-1.938215e+01
1.203761e+02	-1.943172e+01
1.210714e+02	-1.948090e+01
1.217707e+02	-1.953173e+01
1.224740e+02	-1.957883e+01
1.231814e+02	-1.962917e+01
1.238929e+02	-1.967944e+01
1.246085e+02	-1.972756e+01
1.253283e+02	-1.977740e+01
1.260522e+02	-1.982811e+01
1.267802e+02	-1.987734e+01
1.275125e+02	-1.992439e+01
1.282490e+02	-1.997459e+01
1.289898e+02	-2.002599e+01
1.297348e+02	-2.007438e+01
1.304842e+02	-2.012368e+01
1.312378e+02	-2.017434e+01
1.319959e+02	-2.022231e+01
1.327583e+02	-2.027380e+01
1.335251e+02	-2.032190e+01
1.342963e+02	-2.037125e+01
1.350720e+02	-2.042165e+01
1.358522e+02	-2.047102e+01
1.366368e+02	-2.052195e+01
1.374260e+02	-2.057109e+01
1.382198e+02	-2.062018e+01
1.390182e+02	-2.066867e+01
1.398211e+02	-2.071890e+01
1.406287e+02	-2.076710e+01
1.414410e+02	-2.081776e+01
1.422579e+02	-2.086804e+01
1.430796e+02	-2.091800e+01
1.439060e+02	-2.096652e+01
1.447372e+02	-2.101810e+01
1.455732e+02	-2.106580e+01
1.464141e+02	-2.111478e+01
1.472597e+02	-2.116673e+01
1.481103e+02	-2.121565e+01
1.489658e+02	-2.126554e+01
1.498262e+02	-2.131198e+01
1.506916e+02	-2.136513e+01
1.515620e+02	-2.141233e+01
1.524374e+02	-2.146316e+01
1.533179e+02	-2.151341e+01
1.542034e+02	-2.156337e+01
1.550941e+02	-2.161145e+01
1.559899e+02	-2.166285e+01
1.568909e+02	-2.171027e+01
1.577971e+02	-2.176126e+01
1.587085e+02	-2.181132e+01
1.596252e+02	-2.185904e+01
1.605472e+02	-2.191004e+01
1.614745e+02	-2.196039e+01
1.624072e+02	-2.201147e+01
1.633453e+02	-2.206078e+01
1.642887e+02	-2.210654e+01
1.652377e+02	-2.216107e+01
1.661921e+02	-2.220812e+01
1.671520e+02	-2.225800e+01
1.681175e+02	-2.231037e+01
1.690885e+02	-2.236037e+01
1.700651e+02	-2.240802e+01
1.710474e+02	-2.245781e+01
1.720354e+02	-2.250896e+01
1.730291e+02	-2.255630e+01
1.740285e+02	-2.260843e+01
1.750337e+02	-2.265688e+01
1.760446e+02	-2.270639e+01
1.770615e+02	-2.275834e+01
1.780842e+02	-2.280545e+01
1.791128e+02	-2.285499e+01
1.801473e+02	-2.290636e+01
1.811878e+02	-2.295637e+01
1.822344e+02	-2.300468e+01
1.832870e+02	-2.305547e+01
1.843456e+02	-2.310602e+01
1.854104e+02	-2.315509e+01
1.864813e+02	-2.320194e+01
1.875584e+02	-2.325402e+01
1.886418e+02	-2.330194e+01
1.897313e+02	-2.335136e+01
1.908272e+02	-2.340552e+01
1.919294e+02	-2.345255e+01
1.930380e+02	-2.350329e+01
1.941530e+02	-2.355361e+01
1.952744e+02	-2.360186e+01
1.964023e+02	-2.365535e+01
1.975367e+02	-2.370038e+01
1.986777e+02	-2.375235e+01
1.998252e+02	-2.379980e+01
2.009794e+02	-2.385383e+01
2.021403e+02	-2.390232e+01
2.033078e+02	-2.395278e+01
2.044821e+02	-2.400215e+01
2.056632e+02	-2.405577e+01
2.068511e+02	-2.410316e+01
2.080459e+02	-2.415503e+01
2.092475e+02	-2.419964e+01
2.104561e+02	-2.425120e+01
2.116717e+02	-2.430115e+01
2.128943e+02	-2.435175e+01
2.141240e+02	-2.440062e+01
2.153608e+02	-2.445226e+01
2.166047e+02	-2.450140e+01
2.178558e+02	-2.454985e+01
2.191141e+02	-2.460038e+01
2.203797e+02	-2.464954e+01
2.216526e+02	-2.470237e+01
2.229329e+02	-2.474907e+01
2.242205e+02	-2.480070e+01
2.255156e+02	-2.484840e+01
2.268182e+02	-2.490382e+01
2.281283e+02	-2.494964e+01
2.294459e+02	-2.500150e+01
2.307712e+02	-2.505148e+01
2.321041e+02	-2.509812e+01
2.334447e+02	-2.515087e+01
2.347931e+02	-2.519737e+01
2.361493e+02	-2.524820e+01
2.375133e+02	-2.529991e+01
2.388851e+02	-2.534689e+01
2.402649e+02	-2.539949e+01
2.416527e+02	-2.545168e+01
2.430484e+02	-2.550059e+01
2.444523e+02	-2.555051e+01
2.458642e+02	-2.559816e+01
2.472843e+02	-2.564931e+01
2.487126e+02	-2.569867e+01
2.501492e+02	-2.574897e+01
2.515940e+02	-2.579907e+01
2.530472e+02	-2.584847e+01
2.545088e+02	-2.589856e+01
2.559789e+02	-2.594864e+01
2.574574e+02	-2.599582e+01
2.589444e+02	-2.605163e+01
2.604401e+02	-2.609669e+01
2.619444e+02	-2.615154e+01
2.634574e+02	-2.619908e+01
2.649791e+02	-2.624793e+01
2.665096e+02	-2.629654e+01
2.680489e+02	-2.635032e+01
2.695972e+02	-2.639831e+01
2.711544e+02	-2.644881e+01
2.727205e+02	-2.649976e+01
2.742958e+02	-2.654506e+01
2.758801e+02	-2.659898e+01
2.774736e+02	-2.664923e+01
2.790762e+02	-2.669774e+01
2.806882e+02	-2.674737e+01
2.823094e+02	-2.679933e+01
2.839400e+02	-2.685088e+01
2.855800e+02	-2.689755e+01
2.872295e+02	-2.694820e+01
2.888886e+02	-2.699514e+01
2.905572e+02	-2.704903e+01
2.922354e+02	-2.709896e+01
2.939234e+02	-2.714763e+01
2.956211e+02	-2.719738e+01
2.973286e+02	-2.724759e+01
2.990459e+02	-2.730074e+01
3.007732e+02	-2.734746e+01
3.025104e+02	-2.739529e+01
3.042577e+02	-2.745101e+01
3.060151e+02	-2.750373e+01
3.077826e+02	-2.754821e+01
3.095604e+02	-2.760150e+01
3.113484e+02	-2.764920e+01
3.131467e+02	-2.769792e+01
3.149554e+02	-2.774852e+01
3.167746e+02	-2.779921e+01
3.186043e+02	-2.784521e+01
3.204445e+02	-2.789599e+01
3.222954e+02	-2.794767e+01
3.241570e+02	-2.799761e+01
3.260293e+02	-2.805121e+01
3.279124e+02	-2.809918e+01
3.298064e+02	-2.815220e+01
3.317114e+02	-2.820220e+01
3.336273e+02	-2.824880e+01
3.355544e+02	-2.829427e+01
3.374925e+02	-2.834740e+01
3.394418e+02	-2.839643e+01
3.414024e+02	-2.844260e+01
3.433744e+02	-2.849832e+01
3.453577e+02	-2.855212e+01
3.473525e+02	-2.859921e+01
3.493588e+02	-2.865054e+01
3.513766e+02	-2.869960e+01
3.534062e+02	-2.874548e+01
3.554474e+02	-2.879508e+01
3.575005e+02	-2.884437e+01
3.595654e+02	-2.890355e+01
3.616422e+02	-2.895150e+01
3.637311e+02	-2.899842e+01
3.658320e+02	-2.904757e+01
3.679450e+02	-2.909517e+01
3.700702e+02	-2.914824e+01
3.722077e+02	-2.919734e+01
3.743576e+02	-2.924967e+01
3.765199e+02	-2.929620e+01
3.786946e+02	-2.934902e+01
3.808820e+02	-2.939929e+01
3.830819e+02	-2.944544e+01
3.852946e+02	-2.949548e+01
3.875200e+02	-2.955051e+01
3.897583e+02	-2.959588e+01
3.920096e+02	-2.964700e+01
3.942738e+02	-2.970043e+01
3.965511e+02	-2.974552e+01
3.988416e+02	-2.980025e+01
4.011452e+02	-2.984748e+01
4.034622e+02	-2.989716e+01
4.057926e+02	-2.995219e+01
4.081365e+02	-3.000149e+01
4.104938e+02	-3.005124e+01
4.128648e+02	-3.010027e+01
4.152495e+02	-3.015200e+01
4.176480e+02	-3.020301e+01
4.200603e+02	-3.024647e+01
4.224866e+02	-3.030151e+01
4.249268e+02	-3.035003e+01
4.273812e+02	-3.039990e+01
4.298497e+02	-3.045133e+01
4.323325e+02	-3.050195e+01
4.348297e+02	-3.055115e+01
4.373412e+02	-3.060380e+01
4.398673e+02	-3.065094e+01
4.424079e+02	-3.070410e+01
4.449633e+02	-3.075369e+01
4.475334e+02	-3.080152e+01
4.501183e+02	-3.084757e+01
4.527182e+02	-3.089861e+01
4.553330e+02	-3.095569e+01
4.579630e+02	-3.099772e+01
4.606082e+02	-3.104902e+01
4.632687e+02	-3.109649e+01
4.659445e+02	-3.114914e+01
4.686358e+02	-3.120601e+01
4.713426e+02	-3.125482e+01
4.740650e+02	-3.130077e+01
4.768032e+02	-3.134759e+01
4.795572e+02	-3.140093e+01
4.823271e+02	-3.146154e+01
4.851130e+02	-3.150617e+01
4.879150e+02	-3.155740e+01
4.907332e+02	-3.160359e+01
4.935676e+02	-3.166138e+01
4.964185e+02	-3.170165e+01
4.992858e+02	-3.175329e+01
5.021696e+02	-3.180710e+01
5.050701e+02	-3.185916e+01
5.079874e+02	-3.191027e+01
5.109215e+02	-3.196018e+01
5.138726e+02	-3.200959e+01
5.168407e+02	-3.205457e+01
5.198259e+02	-3.210297e+01
5.228284e+02	-3.215679e+01
5.258482e+02	-3.220228e+01
5.288855e+02	-3.225790e+01
5.319403e+02	-3.231246e+01
5.350128e+02	-3.236504e+01
5.381030e+02	-3.241085e+01
5.412111e+02	-3.245669e+01
5.443371e+02	-3.250562e+01
5.474812e+02	-3.255940e+01
5.506434e+02	-3.260337e+01
5.538239e+02	-3.265665e+01
5.570228e+02	-3.270639e+01
5.602401e+02	-3.276100e+01
5.634760e+02	-3.281495e+01
5.667306e+02	-3.286049e+01
5.700040e+02	-3.291707e+01
5.732964e+02	-3.296843e+01
5.766077e+02	-3.301107e+01
5.799382e+02	-3.305963e+01
5.832879e+02	-3.311183e+01
5.866569e+02	-3.315925e+01
5.900454e+02	-3.321710e+01
5.934535e+02	-3.326546e+01
5.968813e+02	-3.330761e+01
6.003288e+02	-3.336192e+01
6.037963e+02	-3.341728e+01
6.072838e+02	-3.345813e+01
6.107914e+02	-3.351105e+01
6.143194e+02	-3.356721e+01
6.178676e+02	-3.361120e+01
6.214364e+02	-3.366284e+01
6.250258e+02	-3.370904e+01
6.286359e+02	-3.377313e+01
6.322669e+02	-3.381384e+01
6.359189e+02	-3.386285e+01
6.395919e+02	-3.390924e+01
6.432862e+02	-3.396632e+01
6.470017e+02	-3.400961e+01
6.507388e+02	-3.406462e+01
6.544974e+02	-3.412411e+01
6.582778e+02	-3.416236e+01
6.620800e+02	-3.421875e+01
6.659041e+02	-3.427385e+01
6.697504e+02	-3.431375e+01
6.736188e+02	-3.436533e+01
6.775096e+02	-3.441982e+01
6.814229e+02	-3.447216e+01
6.853587e+02	-3.451834e+01
6.893173e+02	-3.456633e+01
6.932988e+02	-3.462140e+01
6.973033e+02	-3.466587e+01
7.013309e+02	-3.472074e+01
