Frequency(Hz)	Magnitude(dB)
1.000000e+01	-1.945058e+00
1.005776e+01	-1.962976e+00
1.011585e+01	-1.981222e+00
1.017428e+01	-1.999754e+00
1.023305e+01	-2.018373e+00
1.029215e+01	-2.037117e+00
1.035160e+01	-2.055687e+00
1.041139e+01	-2.074496e+00
1.047153e+01	-2.093638e+00
1.053201e+01	-2.112990e+00
1.059284e+01	-2.132269e+00
1.065403e+01	-2.151907e+00
1.071556e+01	-2.171244e+00
1.077746e+01	-2.191176e+00
1.083971e+01	-2.211019e+00
1.090232e+01	-2.231002e+00
1.096529e+01	-2.251481e+00
1.102862e+01	-2.271542e+00
1.109232e+01	-2.291922e+00
1.115639e+01	-2.312549e+00
1.122083e+01	-2.333449e+00
1.128564e+01	-2.354078e+00
1.135083e+01	-2.375131e+00
1.141639e+01	-2.396079e+00
1.148233e+01	-2.417611e+00
1.154865e+01	-2.439051e+00
1.161536e+01	-2.460726e+00
1.168245e+01	-2.482372e+00
1.174992e+01	-2.504400e+00
1.181779e+01	-2.526113e+00
1.188605e+01	-2.548494e+00
1.195470e+01	-2.570615e+00
1.202375e+01	-2.592835e+00
1.209320e+01	-2.615549e+00
1.216305e+01	-2.638367e+00
1.223330e+01	-2.661064e+00
1.230396e+01	-2.684043e+00
1.237503e+01	-2.706813e+00
1.244651e+01	-2.730381e+00
1.251840e+01	-2.753935e+00
1.259070e+01	-2.777559e+00
1.266343e+01	-2.801037e+00
1.273657e+01	-2.824811e+00
1.281014e+01	-2.848929e+00
1.288413e+01	-2.873117e+00
1.295855e+01	-2.897191e+00
1.303339e+01	-2.921549e+00
1.310867e+01	-2.946405e+00
1.318439e+01	-2.971142e+00
1.326054e+01	-2.995812e+00
1.333713e+01	-3.020807e+00
1.341417e+01	-3.046155e+00
1.349165e+01	-3.071332e+00
1.356958e+01	-3.096729e+00
1.364795e+01	-3.122221e+00
1.372678e+01	-3.148176e+00
1.380607e+01	-3.173906e+00
1.388581e+01	-3.200114e+00
1.396602e+01	-3.226191e+00
1.404668e+01	-3.252359e+00
1.412782e+01	-3.278976e+00
1.420942e+01	-3.305450e+00
1.429149e+01	-3.332120e+00
1.437404e+01	-3.359144e+00
1.445706e+01	-3.385927e+00
1.454057e+01	-3.413066e+00
1.462455e+01	-3.440432e+00
1.470902e+01	-3.467966e+00
1.479398e+01	-3.495549e+00
1.487943e+01	-3.523265e+00
1.496537e+01	-3.551149e+00
1.505181e+01	-3.579115e+00
1.513875e+01	-3.607321e+00
1.522619e+01	-3.635771e+00
1.531414e+01	-3.664176e+00
1.540259e+01	-3.692823e+00
1.549156e+01	-3.721266e+00
1.558103e+01	-3.750316e+00
1.567103e+01	-3.779569e+00
1.576155e+01	-3.808187e+00
1.585258e+01	-3.837882e+00
1.594415e+01	-3.867121e+00
1.603624e+01	-3.896798e+00
1.612886e+01	-3.926153e+00
1.622202e+01	-3.956279e+00
1.631572e+01	-3.986438e+00
1.640996e+01	-4.016441e+00
1.650474e+01	-4.046622e+00
1.660008e+01	-4.076976e+00
1.669596e+01	-4.107555e+00
1.679239e+01	-4.137979e+00
1.688938e+01	-4.169044e+00
1.698694e+01	-4.199777e+00
1.708505e+01	-4.230846e+00
1.718373e+01	-4.262021e+00
1.728299e+01	-4.293371e+00
1.738281e+01	-4.324985e+00
1.748322e+01	-4.356615e+00
1.758420e+01	-4.388213e+00
1.768576e+01	-4.420146e+00
1.778792e+01	-4.452291e+00
1.789066e+01	-4.484162e+00
1.799399e+01	-4.516375e+00
1.809793e+01	-4.548769e+00
1.820246e+01	-4.581643e+00
1.830760e+01	-4.614151e+00
1.841334e+01	-4.647091e+00
1.851969e+01	-4.679681e+00
1.862666e+01	-4.713076e+00
1.873425e+01	-4.746241e+00
1.884246e+01	-4.779549e+00
1.895129e+01	-4.812672e+00
1.906075e+01	-4.846265e+00
1.917085e+01	-4.880354e+00
1.928158e+01	-4.913954e+00
1.939295e+01	-4.948261e+00
1.950496e+01	-4.981918e+00
1.961762e+01	-5.016155e+00
1.973093e+01	-5.050445e+00
1.984490e+01	-5.085102e+00
1.995952e+01	-5.119749e+00
2.007480e+01	-5.154455e+00
2.019076e+01	-5.189018e+00
2.030738e+01	-5.224149e+00
2.042467e+01	-5.259213e+00
2.054264e+01	-5.294323e+00
2.066130e+01	-5.329684e+00
2.078064e+01	-5.365120e+00
2.090066e+01	-5.400721e+00
2.102139e+01	-5.436192e+00
2.114280e+01	-5.472276e+00
2.126492e+01	-5.507848e+00
2.138775e+01	-5.543959e+00
2.151128e+01	-5.580214e+00
2.163553e+01	-5.616639e+00
2.176050e+01	-5.652644e+00
2.188619e+01	-5.689108e+00
2.201260e+01	-5.725801e+00
2.213974e+01	-5.762537e+00
2.226762e+01	-5.799222e+00
2.239624e+01	-5.836199e+00
2.252560e+01	-5.873104e+00
2.265571e+01	-5.910335e+00
2.278656e+01	-5.947633e+00
2.291818e+01	-5.984870e+00
2.305055e+01	-6.022301e+00
2.318369e+01	-6.059935e+00
2.331760e+01	-6.097819e+00
2.345228e+01	-6.135717e+00
2.358774e+01	-6.173762e+00
2.372398e+01	-6.210873e+00
2.386101e+01	-6.249526e+00
2.399883e+01	-6.287722e+00
2.413745e+01	-6.326006e+00
2.427686e+01	-6.364590e+00
2.441709e+01	-6.402983e+00
2.455812e+01	-6.441637e+00
2.469997e+01	-6.480934e+00
2.484263e+01	-6.519344e+00
2.498612e+01	-6.558169e+00
2.513044e+01	-6.597151e+00
2.527559e+01	-6.636591e+00
2.542158e+01	-6.675556e+00
2.556842e+01	-6.714548e+00
2.571610e+01	-6.754115e+00
2.586463e+01	-6.793734e+00
2.601403e+01	-6.833337e+00
2.616428e+01	-6.873235e+00
2.631541e+01	-6.912808e+00
2.646740e+01	-6.952712e+00
2.662028e+01	-6.992908e+00
2.677404e+01	-7.032496e+00
2.692868e+01	-7.072876e+00
2.708422e+01	-7.113254e+00
2.724066e+01	-7.153683e+00
2.739800e+01	-7.193905e+00
2.755625e+01	-7.233989e+00
2.771541e+01	-7.275137e+00
2.787550e+01	-7.315730e+00
2.803650e+01	-7.356649e+00
2.819844e+01	-7.397605e+00
2.836131e+01	-7.438721e+00
2.852513e+01	-7.479217e+00
2.868989e+01	-7.520241e+00
2.885560e+01	-7.561998e+00
2.902227e+01	-7.603096e+00
2.918990e+01	-7.644009e+00
2.935850e+01	-7.685842e+00
2.952807e+01	-7.727018e+00
2.969863e+01	-7.769434e+00
2.987016e+01	-7.810851e+00
3.004269e+01	-7.852284e+00
3.021622e+01	-7.894415e+00
3.039075e+01	-7.936237e+00
3.056628e+01	-7.978764e+00
3.074283e+01	-8.020327e+00
3.092040e+01	-8.062585e+00
3.109900e+01	-8.104962e+00
3.127862e+01	-8.147369e+00
3.145929e+01	-8.189905e+00
3.164099e+01	-8.231880e+00
3.182375e+01	-8.274555e+00
3.200756e+01	-8.317037e+00
3.219244e+01	-8.359999e+00
3.237838e+01	-8.402740e+00
3.256540e+01	-8.445432e+00
3.275349e+01	-8.488235e+00
3.294268e+01	-8.531629e+00
3.313295e+01	-8.574864e+00
3.332433e+01	-8.617295e+00
3.351681e+01	-8.660858e+00
3.371040e+01	-8.703848e+00
3.390511e+01	-8.746922e+00
3.410094e+01	-8.790888e+00
3.429791e+01	-8.834122e+00
3.449601e+01	-8.877474e+00
3.469526e+01	-8.920918e+00
3.489566e+01	-8.964798e+00
3.509721e+01	-9.008843e+00
3.529993e+01	-9.052904e+00
3.550382e+01	-9.096042e+00
3.570889e+01	-9.140037e+00
3.591515e+01	-9.183775e+00
3.612259e+01	-9.228057e+00
3.633123e+01	-9.272216e+00
3.654108e+01	-9.316249e+00
3.675214e+01	-9.360735e+00
3.696442e+01	-9.404925e+00
3.717792e+01	-9.448762e+00
3.739266e+01	-9.493634e+00
3.760864e+01	-9.537861e+00
3.782587e+01	-9.582267e+00
3.804435e+01	-9.627584e+00
3.826409e+01	-9.671585e+00
3.848510e+01	-9.716349e+00
3.870739e+01	-9.760973e+00
3.893096e+01	-9.805808e+00
3.915583e+01	-9.850382e+00
3.938199e+01	-9.895353e+00
3.960946e+01	-9.940195e+00
3.983824e+01	-9.985355e+00
4.006834e+01	-1.003051e+01
4.029978e+01	-1.007560e+01
4.053255e+01	-1.012052e+01
4.076666e+01	-1.016595e+01
4.100213e+01	-1.021108e+01
4.123896e+01	-1.025643e+01
4.147715e+01	-1.030173e+01
4.171672e+01	-1.034701e+01
4.195767e+01	-1.039258e+01
4.220002e+01	-1.043778e+01
4.244377e+01	-1.048343e+01
4.268892e+01	-1.052894e+01
4.293549e+01	-1.057504e+01
4.318348e+01	-1.061984e+01
4.343291e+01	-1.066663e+01
4.368377e+01	-1.071200e+01
4.393609e+01	-1.075766e+01
4.418986e+01	-1.080360e+01
4.444510e+01	-1.084933e+01
4.470182e+01	-1.089494e+01
4.496001e+01	-1.094188e+01
4.521970e+01	-1.098700e+01
4.548089e+01	-1.103339e+01
4.574358e+01	-1.107924e+01
4.600779e+01	-1.112531e+01
4.627353e+01	-1.117154e+01
4.654081e+01	-1.121794e+01
4.680963e+01	-1.126432e+01
4.708000e+01	-1.131073e+01
4.735193e+01	-1.135688e+01
4.762543e+01	-1.140305e+01
4.790051e+01	-1.144950e+01
4.817719e+01	-1.149594e+01
4.845545e+01	-1.154317e+01
4.873533e+01	-1.158890e+01
4.901682e+01	-1.163614e+01
4.929994e+01	-1.168251e+01
4.958470e+01	-1.172917e+01
4.987110e+01	-1.177564e+01
5.015915e+01	-1.182213e+01
5.044887e+01	-1.186935e+01
5.074026e+01	-1.191592e+01
5.103333e+01	-1.196250e+01
5.132810e+01	-1.200943e+01
5.162457e+01	-1.205705e+01
5.192275e+01	-1.210352e+01
5.222265e+01	-1.215064e+01
5.252429e+01	-1.219752e+01
5.282767e+01	-1.224466e+01
5.313280e+01	-1.229186e+01
5.343969e+01	-1.233880e+01
5.374836e+01	-1.238594e+01
5.405880e+01	-1.243303e+01
5.437105e+01	-1.248005e+01
5.468509e+01	-1.252726e+01
5.500095e+01	-1.257455e+01
5.531863e+01	-1.262207e+01
5.563815e+01	-1.266934e+01
5.595951e+01	-1.271686e+01
5.628273e+01	-1.276316e+01
5.660782e+01	-1.281168e+01
5.693479e+01	-1.285860e+01
5.726364e+01	-1.290664e+01
5.759439e+01	-1.295365e+01
5.792705e+01	-1.300085e+01
5.826164e+01	-1.304907e+01
5.859815e+01	-1.309590e+01
5.893662e+01	-1.314489e+01
5.927703e+01	-1.319150e+01
5.961941e+01	-1.323959e+01
5.996377e+01	-1.328704e+01
6.031012e+01	-1.333414e+01
6.065847e+01	-1.338294e+01
6.100883e+01	-1.342942e+01
6.136121e+01	-1.347813e+01
6.171563e+01	-1.352657e+01
6.207210e+01	-1.357365e+01
6.243063e+01	-1.362148e+01
6.279122e+01	-1.366934e+01
6.315390e+01	-1.371688e+01
6.351868e+01	-1.376423e+01
6.388556e+01	-1.381233e+01
6.425456e+01	-1.386062e+01
6.462569e+01	-1.390956e+01
6.499897e+01	-1.395676e+01
6.537440e+01	-1.400431e+01
6.575200e+01	-1.405268e+01
6.613178e+01	-1.410005e+01
6.651375e+01	-1.414867e+01
6.689793e+01	-1.419682e+01
6.728433e+01	-1.424440e+01
6.767297e+01	-1.429235e+01
6.806384e+01	-1.434197e+01
6.845698e+01	-1.439011e+01
6.885238e+01	-1.443743e+01
6.925007e+01	-1.448577e+01
6.965005e+01	-1.453527e+01
7.005235e+01	-1.458299e+01
7.045697e+01	-1.463179e+01
7.086393e+01	-1.467980e+01
7.127323e+01	-1.472721e+01
7.168490e+01	-1.477603e+01
7.209895e+01	-1.482426e+01
7.251539e+01	-1.487231e+01
7.293424e+01	-1.492162e+01
7.335551e+01	-1.496967e+01
7.377920e+01	-1.501833e+01
7.420535e+01	-1.506638e+01
7.463396e+01	-1.511445e+01
7.506504e+01	-1.516343e+01
7.549861e+01	-1.521245e+01
7.593469e+01	-1.526060e+01
7.637328e+01	-1.530872e+01
7.681441e+01	-1.535718e+01
7.725809e+01	-1.540608e+01
7.770433e+01	-1.545442e+01
7.815315e+01	-1.550340e+01
7.860456e+01	-1.555202e+01
7.905857e+01	-1.560122e+01
7.951521e+01	-1.564859e+01
7.997449e+01	-1.569745e+01
8.043642e+01	-1.574686e+01
8.090102e+01	-1.579544e+01
8.136830e+01	-1.584420e+01
8.183828e+01	-1.589436e+01
8.231097e+01	-1.594062e+01
8.278640e+01	-1.599035e+01
8.326457e+01	-1.603887e+01
8.374550e+01	-1.608768e+01
8.422921e+01	-1.613627e+01
8.471572e+01	-1.618578e+01
8.520503e+01	-1.623519e+01
8.569717e+01	-1.628319e+01
8.619215e+01	-1.633249e+01
8.669000e+01	-1.638127e+01
8.719071e+01	-1.642966e+01
8.769432e+01	-1.647848e+01
8.820084e+01	-1.652784e+01
8.871029e+01	-1.657691e+01
8.922267e+01	-1.662590e+01
8.973802e+01	-1.667367e+01
9.025634e+01	-1.672400e+01
9.077766e+01	-1.677335e+01
9.130199e+01	-1.682145e+01
9.182935e+01	-1.687103e+01
9.235975e+01	-1.691851e+01
9.289321e+01	-1.696931e+01
9.342976e+01	-1.701767e+01
9.396941e+01	-1.706609e+01
9.451217e+01	-1.711549e+01
9.505807e+01	-1.716460e+01
9.560712e+01	-1.721429e+01
9.615934e+01	-1.726164e+01
9.671476e+01	-1.731168e+01
9.727338e+01	-1.736116e+01
9.783522e+01	-1.740935e+01
9.840032e+01	-1.745953e+01
9.896867e+01	-1.750839e+01
9.954031e+01	-1.755778e+01
1.001153e+02	-1.760781e+01
1.006935e+02	-1.765606e+01
1.012751e+02	-1.770576e+01
1.018601e+02	-1.775407e+01
1.024484e+02	-1.780287e+01
1.030402e+02	-1.785391e+01
1.036353e+02	-1.790138e+01
1.042339e+02	-1.795018e+01
1.048360e+02	-1.800123e+01
1.054415e+02	-1.804890e+01
1.060505e+02	-1.809842e+01
1.066631e+02	-1.814746e+01
1.072791e+02	-1.819715e+01
1.078988e+02	-1.824686e+01
1.085220e+02	-1.829617e+01
1.091488e+02	-1.834583e+01
1.097793e+02	-1.839466e+01
1.104133e+02	-1.844327e+01
1.110511e+02	-1.849301e+01
1.116925e+02	-1.854323e+01
1.123376e+02	-1.859185e+01
1.129865e+02	-1.864059e+01
1.136391e+02	-1.869066e+01
1.142955e+02	-1.874028e+01
1.149556e+02	-1.878860e+01
1.156196e+02	-1.883842e+01
1.162874e+02	-1.888714e+01
1.169591e+02	-1.893731e+01
1.176347e+02	-1.898689e+01
1.183141e+02	-1.903595e+01
1.189975e+02	-1.908559e+01
1.196848e+02	-1.913486e+01
1.203761e+02	-1.918456e+01
1.210714e+02	-1.923484e+01
1.217707e+02	-1.928499e+01
1.224740e+02	-1.933299e+01
1.231814e+02	-1.938238e+01
1.238929e+02	-1.943169e+01
1.246085e+02	-1.948134e+01
1.253283e+02	-1.953050e+01
1.260522e+02	-1.957969e+01
1.267802e+02	-1.962973e+01
1.275125e+02	-1.967998e+01
1.282490e+02	-1.972892e+01
1.289898e+02	-1.977838e+01
1.297348e+02	-1.982847e+01
1.304842e+02	-1.987849e+01
1.312378e+02	-1.992704e+01
1.319959e+02	-1.997537e+01
1.327583e+02	-2.002724e+01
1.335251e+02	-2.007575e+01
1.342963e+02	-2.012523e+01
1.350720e+02	-2.017460e+01
1.358522e+02	-2.022379e+01
1.366368e+02	-2.027434e+01
1.374260e+02	-2.032240e+01
1.382198e+02	-2.037284e+01
1.390182e+02	-2.042289e+01
1.398211e+02	-2.047002e+01
1.406287e+02	-2.052288e+01
1.414410e+02	-2.057125e+01
1.422579e+02	-2.061897e+01
1.430796e+02	-2.066936e+01
1.439060e+02	-2.071953e+01
1.447372e+02	-2.076894e+01
1.455732e+02	-2.081913e+01
1.464141e+02	-2.086847e+01
1.472597e+02	-2.091957e+01
1.481103e+02	-2.096773e+01
1.489658e+02	-2.101785e+01
1.498262e+02	-2.106816e+01
1.506916e+02	-2.111633e+01
1.515620e+02	-2.116762e+01
1.524374e+02	-2.121590e+01
1.533179e+02	-2.126615e+01
1.542034e+02	-2.131422e+01
1.550941e+02	-2.136449e+01
1.559899e+02	-2.141718e+01
1.568909e+02	-2.146563e+01
1.577971e+02	-2.151388e+01
1.587085e+02	-2.156360e+01
1.596252e+02	-2.161385e+01
1.605472e+02	-2.166313e+01
1.614745e+02	-2.171063e+01
1.624072e+02	-2.176241e+01
1.633453e+02	-2.181070e+01
1.642887e+02	-2.186330e+01
1.652377e+02	-2.191367e+01
1.661921e+02	-2.196169e+01
1.671520e+02	-2.201193e+01
1.681175e+02	-2.206200e+01
1.690885e+02	-2.211034e+01
1.700651e+02	-2.216178e+01
1.710474e+02	-2.221210e+01
1.720354e+02	-2.226023e+01
1.730291e+02	-2.230931e+01
1.740285e+02	-2.236077e+01
1.750337e+02	-2.240986e+01
1.760446e+02	-2.245867e+01
1.770615e+02	-2.250871e+01
1.780842e+02	-2.256093e+01
1.791128e+02	-2.260919e+01
1.801473e+02	-2.265830e+01
1.811878e+02	-2.270785e+01
1.822344e+02	-2.276035e+01
1.832870e+02	-2.280860e+01
1.843456e+02	-2.285940e+01
1.854104e+02	-2.290474e+01
1.864813e+02	-2.295749e+01
1.875584e+02	-2.300586e+01
1.886418e+02	-2.305778e+01
1.897313e+02	-2.310701e+01
1.908272e+02	-2.315655e+01
1.919294e+02	-2.320676e+01
1.930380e+02	-2.325813e+01
1.941530e+02	-2.330627e+01
1.952744e+02	-2.335627e+01
1.964023e+02	-2.340392e+01
1.975367e+02	-2.345448e+01
1.986777e+02	-2.350668e+01
1.998252e+02	-2.355516e+01
2.009794e+02	-2.360365e+01
2.021403e+02	-2.365418e+01
2.033078e+02	-2.370650e+01
2.044821e+02	-2.375557e+01
2.056632e+02	-2.380424e+01
2.068511e+02	-2.385293e+01
2.080459e+02	-2.390654e+01
2.092475e+02	-2.395397e+01
2.104561e+02	-2.400370e+01
2.116717e+02	-2.405584e+01
2.128943e+02	-2.410495e+01
2.141240e+02	-2.415514e+01
2.153608e+02	-2.420395e+01
2.166047e+02	-2.425162e+01
2.178558e+02	-2.430287e+01
2.191141e+02	-2.435460e+01
2.203797e+02	-2.440412e+01
2.216526e+02	-2.445114e+01
2.229329e+02	-2.450399e+01
2.242205e+02	-2.455010e+01
2.255156e+02	-2.460286e+01
2.268182e+02	-2.465249e+01
2.281283e+02	-2.470250e+01
2.294459e+02	-2.475292e+01
2.307712e+02	-2.480320e+01
2.321041e+02	-2.485172e+01
2.334447e+02	-2.490521e+01
2.347931e+02	-2.495126e+01
2.361493e+02	-2.500188e+01
2.375133e+02	-2.505166e+01
2.388851e+02	-2.510010e+01
2.402649e+02	-2.515213e+01
2.416527e+02	-2.519823e+01
2.430484e+02	-2.525242e+01
2.444523e+02	-2.529868e+01
2.458642e+02	-2.535273e+01
2.472843e+02	-2.539844e+01
2.487126e+02	-2.545159e+01
2.501492e+02	-2.550325e+01
2.515940e+02	-2.554982e+01
2.530472e+02	-2.560262e+01
2.545088e+02	-2.565185e+01
2.559789e+02	-2.570015e+01
2.574574e+02	-2.574940e+01
2.589444e+02	-2.579840e+01
2.604401e+02	-2.585023e+01
2.619444e+02	-2.590125e+01
2.634574e+02	-2.595220e+01
2.649791e+02	-2.600394e+01
2.665096e+02	-2.604738e+01
2.680489e+02	-2.609855e+01
2.695972e+02	-2.615076e+01
2.711544e+02	-2.620325e+01
2.727205e+02	-2.625118e+01
2.742958e+02	-2.629953e+01
2.758801e+02	-2.635135e+01
2.774736e+02	-2.639907e+01
2.790762e+02	-2.644984e+01
2.806882e+02	-2.649607e+01
2.823094e+02	-2.655068e+01
2.839400e+02	-2.659830e+01
2.855800e+02	-2.665297e+01
2.872295e+02	-2.670063e+01
2.888886e+02	-2.675078e+01
2.905572e+02	-2.679807e+01
2.922354e+02	-2.684964e+01
2.939234e+02	-2.690007e+01
2.956211e+02	-2.695242e+01
2.973286e+02	-2.699932e+01
2.990459e+02	-2.704838e+01
3.007732e+02	-2.710024e+01
3.025104e+02	-2.715071e+01
3.042577e+02	-2.719897e+01
3.060151e+02	-2.725019e+01
3.077826e+02	-2.729970e+01
3.095604e+02	-2.734978e+01
3.113484e+02	-2.740146e+01
3.131467e+02	-2.745094e+01
3.149554e+02	-2.750007e+01
3.167746e+02	-2.755058e+01
3.186043e+02	-2.759915e+01
3.204445e+02	-2.765161e+01
3.222954e+02	-2.770720e+01
3.241570e+02	-2.775134e+01
3.260293e+02	-2.780476e+01
3.279124e+02	-2.785122e+01
3.298064e+02	-2.789745e+01
3.317114e+02	-2.794970e+01
3.336273e+02	-2.800328e+01
3.355544e+02	-2.804935e+01
3.374925e+02	-2.810047e+01
3.394418e+02	-2.815155e+01
3.414024e+02	-2.819983e+01
3.433744e+02	-2.825057e+01
3.453577e+02	-2.829746e+01
3.473525e+02	-2.834761e+01
3.493588e+02	-2.840014e+01
3.513766e+02	-2.845403e+01
3.534062e+02	-2.850049e+01
3.554474e+02	-2.855220e+01
3.575005e+02	-2.860107e+01
3.595654e+02	-2.865025e+01
3.616422e+02	-2.870540e+01
3.637311e+02	-2.875057e+01
3.658320e+02	-2.880030e+01
3.679450e+02	-2.885081e+01
3.700702e+02	-2.890298e+01
3.722077e+02	-2.895129e+01
3.743576e+02	-2.900593e+01
3.765199e+02	-2.905193e+01
3.786946e+02	-2.909895e+01
3.808820e+02	-2.915033e+01
3.830819e+02	-2.919879e+01
3.852946e+02	-2.925287e+01
3.875200e+02	-2.930173e+01
3.897583e+02	-2.935674e+01
3.920096e+02	-2.940146e+01
3.942738e+02	-2.945412e+01
3.965511e+02	-2.949989e+01
3.988416e+02	-2.955196e+01
4.011452e+02	-2.960279e+01
4.034622e+02	-2.965177e+01
4.057926e+02	-2.970252e+01
4.081365e+02	-2.975455e+01
4.104938e+02	-2.980520e+01
4.128648e+02	-2.985291e+01
4.152495e+02	-2.990238e+01
4.176480e+02	-2.995538e+01
4.200603e+02	-3.000069e+01
4.224866e+02	-3.005272e+01
4.249268e+02	-3.010254e+01
4.273812e+02	-3.015401e+01
4.298497e+02	-3.020741e+01
4.323325e+02	-3.025524e+01
4.348297e+02	-3.030690e+01
4.373412e+02	-3.035606e+01
4.398673e+02	-3.040711e+01
4.424079e+02	-3.045256e+01
4.449633e+02	-3.050470e+01
4.475334e+02	-3.055354e+01
4.501183e+02	-3.060274e+01
4.527182e+02	-3.065562e+01
4.553330e+02	-3.070736e+01
4.579630e+02	-3.075666e+01
4.606082e+02	-3.080831e+01
4.632687e+02	-3.085594e+01
4.659445e+02	-3.090537e+01
4.686358e+02	-3.095715e+01
4.713426e+02	-3.100618e+01
4.740650e+02	-3.105652e+01
4.768032e+02	-3.110365e+01
4.795572e+02	-3.115432e+01
4.823271e+02	-3.120631e+01
4.851130e+02	-3.126266e+01
4.879150e+02	-3.130708e+01
4.907332e+02	-3.135541e+01
4.935676e+02	-3.140646e+01
4.964185e+02	-3.145755e+01
4.992858e+02	-3.151119e+01
5.021696e+02	-3.156107e+01
5.050701e+02	-3.161519e+01
5.079874e+02	-3.165483e+01
5.109215e+02	-3.171001e+01
5.138726e+02	-3.176068e+01
5.168407e+02	-3.181132e+01
5.198259e+02	-3.185313e+01
5.228284e+02	-3.190726e+01
5.258482e+02	-3.196623e+01
5.288855e+02	-3.201310e+01
5.319403e+02	-3.205629e+01
5.350128e+02	-3.211342e+01
5.381030e+02	-3.215996e+01
5.412111e+02	-3.220848e+01
5.443371e+02	-3.225581e+01
5.474812e+02	-3.231641e+01
5.506434e+02	-3.235665e+01
5.538239e+02	-3.241202e+01
5.570228e+02	-3.246620e+01
5.602401e+02	-3.251536e+01
5.634760e+02	-3.256674e+01
5.667306e+02	-3.260568e+01
5.700040e+02	-3.266626e+01
5.732964e+02	-3.271662e+01
5.766077e+02	-3.276079e+01
5.799382e+02	-3.281594e+01
5.832879e+02	-3.286238e+01
5.866569e+02	-3.291149e+01
5.900454e+02	-3.296910e+01
5.934535e+02	-3.301579e+01
5.968813e+02	-3.305850e+01
6.003288e+02	-3.312124e+01
6.037963e+02	-3.316147e+01
6.072838e+02	-3.322148e+01
6.107914e+02	-3.327182e+01
6.143194e+02	-3.331848e+01
6.178676e+02	-3.336961e+01
6.214364e+02	-3.342284e+01
6.250258e+02	-3.347281e+01
6.286359e+02	-3.352090e+01
6.322669e+02	-3.357464e+01
6.359189e+02	-3.362131e+01
6.395919e+02	-3.366801e+01
6.432862e+02	-3.371261e+01
6.470017e+02	-3.377223e+01
6.507388e+02	-3.381259e+01
6.544974e+02	-3.387267e+01
6.582778e+02	-3.391891e+01
6.620800e+02	-3.397755e+01
6.659041e+02	-3.403150e+01
6.697504e+02	-3.406837e+01
6.736188e+02	-3.412546e+01
6.775096e+02	-3.417890e+01
6.814229e+02	-3.422270e+01
6.853587e+02	-3.428669e+01
6.893173e+02	-3.433194e+01
6.932988e+02	-3.437413e+01
6.973033e+02	-3.442710e+01
7.013309e+02	-3.448008e+01
