Frequency(Hz)	Magnitude(dB)
1.000000e+01	-2.078640e+00
1.005776e+01	-2.097638e+00
1.011585e+01	-2.117008e+00
1.017428e+01	-2.136475e+00
1.023305e+01	-2.156085e+00
1.029215e+01	-2.175401e+00
1.035160e+01	-2.195274e+00
1.041139e+01	-2.215196e+00
1.047153e+01	-2.235488e+00
1.053201e+01	-2.255553e+00
1.059284e+01	-2.275797e+00
1.065403e+01	-2.296298e+00
1.071556e+01	-2.316746e+00
1.077746e+01	-2.337658e+00
1.083971e+01	-2.358505e+00
1.090232e+01	-2.379483e+00
1.096529e+01	-2.400597e+00
1.102862e+01	-2.422034e+00
1.109232e+01	-2.443584e+00
1.115639e+01	-2.465064e+00
1.122083e+01	-2.486966e+00
1.128564e+01	-2.508708e+00
1.135083e+01	-2.530685e+00
1.141639e+01	-2.552987e+00
1.148233e+01	-2.575021e+00
1.154865e+01	-2.597682e+00
1.161536e+01	-2.620203e+00
1.168245e+01	-2.642940e+00
1.174992e+01	-2.665886e+00
1.181779e+01	-2.688964e+00
1.188605e+01	-2.712283e+00
1.195470e+01	-2.735394e+00
1.202375e+01	-2.758667e+00
1.209320e+01	-2.782387e+00
1.216305e+01	-2.805971e+00
1.223330e+01	-2.830000e+00
1.230396e+01	-2.854102e+00
1.237503e+01	-2.878147e+00
1.244651e+01	-2.902303e+00
1.251840e+01	-2.926826e+00
1.259070e+01	-2.951540e+00
1.266343e+01	-2.976174e+00
1.273657e+01	-3.000968e+00
1.281014e+01	-3.026298e+00
1.288413e+01	-3.051286e+00
1.295855e+01	-3.076761e+00
1.303339e+01	-3.102148e+00
1.310867e+01	-3.127795e+00
1.318439e+01	-3.153739e+00
1.326054e+01	-3.179553e+00
1.333713e+01	-3.205451e+00
1.341417e+01	-3.231603e+00
1.349165e+01	-3.257988e+00
1.356958e+01	-3.284462e+00
1.364795e+01	-3.311065e+00
1.372678e+01	-3.337822e+00
1.380607e+01	-3.364891e+00
1.388581e+01	-3.391746e+00
1.396602e+01	-3.418872e+00
1.404668e+01	-3.446291e+00
1.412782e+01	-3.473740e+00
1.420942e+01	-3.501371e+00
1.429149e+01	-3.529315e+00
1.437404e+01	-3.556856e+00
1.445706e+01	-3.584938e+00
1.454057e+01	-3.613166e+00
1.462455e+01	-3.641571e+00
1.470902e+01	-3.670216e+00
1.479398e+01	-3.698673e+00
1.487943e+01	-3.727467e+00
1.496537e+01	-3.756251e+00
1.505181e+01	-3.785539e+00
1.513875e+01	-3.814649e+00
1.522619e+01	-3.843694e+00
1.531414e+01	-3.873203e+00
1.540259e+01	-3.902942e+00
1.549156e+01	-3.932546e+00
1.558103e+01	-3.962396e+00
1.567103e+01	-3.992335e+00
1.576155e+01	-4.022821e+00
1.585258e+01	-4.052966e+00
1.594415e+01	-4.083221e+00
1.603624e+01	-4.113851e+00
1.612886e+01	-4.144473e+00
1.622202e+01	-4.175287e+00
1.631572e+01	-4.206249e+00
1.640996e+01	-4.237198e+00
1.650474e+01	-4.268841e+00
1.660008e+01	-4.299987e+00
1.669596e+01	-4.331804e+00
1.679239e+01	-4.363376e+00
1.688938e+01	-4.394961e+00
1.698694e+01	-4.426919e+00
1.708505e+01	-4.458973e+00
1.718373e+01	-4.491071e+00
1.728299e+01	-4.523703e+00
1.738281e+01	-4.555961e+00
1.748322e+01	-4.588622e+00
1.758420e+01	-4.621219e+00
1.768576e+01	-4.653981e+00
1.778792e+01	-4.686817e+00
1.789066e+01	-4.720067e+00
1.799399e+01	-4.753281e+00
1.809793e+01	-4.786268e+00
1.820246e+01	-4.820333e+00
1.830760e+01	-4.853683e+00
1.841334e+01	-4.887216e+00
1.851969e+01	-4.921296e+00
1.862666e+01	-4.955415e+00
1.873425e+01	-4.989419e+00
1.884246e+01	-5.023444e+00
1.895129e+01	-5.057831e+00
1.906075e+01	-5.092274e+00
1.917085e+01	-5.127286e+00
1.928158e+01	-5.161718e+00
1.939295e+01	-5.196363e+00
1.950496e+01	-5.231680e+00
1.961762e+01	-5.266326e+00
1.973093e+01	-5.301932e+00
1.984490e+01	-5.337379e+00
1.995952e+01	-5.372739e+00
2.007480e+01	-5.407821e+00
2.019076e+01	-5.444110e+00
2.030738e+01	-5.479705e+00
2.042467e+01	-5.515722e+00
2.054264e+01	-5.551489e+00
2.066130e+01	-5.587990e+00
2.078064e+01	-5.624124e+00
2.090066e+01	-5.660372e+00
2.102139e+01	-5.696813e+00
2.114280e+01	-5.733821e+00
2.126492e+01	-5.770295e+00
2.138775e+01	-5.807243e+00
2.151128e+01	-5.843838e+00
2.163553e+01	-5.880739e+00
2.176050e+01	-5.918461e+00
2.188619e+01	-5.955340e+00
2.201260e+01	-5.992738e+00
2.213974e+01	-6.030112e+00
2.226762e+01	-6.067431e+00
2.239624e+01	-6.105562e+00
2.252560e+01	-6.142983e+00
2.265571e+01	-6.181665e+00
2.278656e+01	-6.219762e+00
2.291818e+01	-6.257732e+00
2.305055e+01	-6.296052e+00
2.318369e+01	-6.334046e+00
2.331760e+01	-6.372700e+00
2.345228e+01	-6.410998e+00
2.358774e+01	-6.449919e+00
2.372398e+01	-6.488533e+00
2.386101e+01	-6.527305e+00
2.399883e+01	-6.565917e+00
2.413745e+01	-6.605261e+00
2.427686e+01	-6.644467e+00
2.441709e+01	-6.683623e+00
2.455812e+01	-6.722958e+00
2.469997e+01	-6.762357e+00
2.484263e+01	-6.802123e+00
2.498612e+01	-6.842073e+00
2.513044e+01	-6.881548e+00
2.527559e+01	-6.921224e+00
2.542158e+01	-6.960948e+00
2.556842e+01	-7.001299e+00
2.571610e+01	-7.040911e+00
2.586463e+01	-7.081468e+00
2.601403e+01	-7.121903e+00
2.616428e+01	-7.162373e+00
2.631541e+01	-7.202376e+00
2.646740e+01	-7.242818e+00
2.662028e+01	-7.283880e+00
2.677404e+01	-7.324349e+00
2.692868e+01	-7.365682e+00
2.708422e+01	-7.405800e+00
2.724066e+01	-7.447031e+00
2.739800e+01	-7.487940e+00
2.755625e+01	-7.529261e+00
2.771541e+01	-7.570512e+00
2.787550e+01	-7.611736e+00
2.803650e+01	-7.653118e+00
2.819844e+01	-7.694743e+00
2.836131e+01	-7.736297e+00
2.852513e+01	-7.777921e+00
2.868989e+01	-7.819691e+00
2.885560e+01	-7.861301e+00
2.902227e+01	-7.903309e+00
2.918990e+01	-7.945129e+00
2.935850e+01	-7.987211e+00
2.952807e+01	-8.029399e+00
2.969863e+01	-8.071625e+00
2.987016e+01	-8.113871e+00
3.004269e+01	-8.155877e+00
3.021622e+01	-8.198864e+00
3.039075e+01	-8.241372e+00
3.056628e+01	-8.283319e+00
3.074283e+01	-8.326604e+00
3.092040e+01	-8.368783e+00
3.109900e+01	-8.411553e+00
3.127862e+01	-8.454692e+00
3.145929e+01	-8.497584e+00
3.164099e+01	-8.540907e+00
3.182375e+01	-8.583691e+00
3.200756e+01	-8.626841e+00
3.219244e+01	-8.669548e+00
3.237838e+01	-8.713082e+00
3.256540e+01	-8.756591e+00
3.275349e+01	-8.799732e+00
3.294268e+01	-8.843064e+00
3.313295e+01	-8.886878e+00
3.332433e+01	-8.930301e+00
3.351681e+01	-8.974271e+00
3.371040e+01	-9.018206e+00
3.390511e+01	-9.061825e+00
3.410094e+01	-9.105543e+00
3.429791e+01	-9.149256e+00
3.449601e+01	-9.193808e+00
3.469526e+01	-9.237600e+00
3.489566e+01	-9.281568e+00
3.509721e+01	-9.325741e+00
3.529993e+01	-9.370243e+00
3.550382e+01	-9.414234e+00
3.570889e+01	-9.458723e+00
3.591515e+01	-9.503176e+00
3.612259e+01	-9.547411e+00
3.633123e+01	-9.591970e+00
3.654108e+01	-9.635976e+00
3.675214e+01	-9.680935e+00
3.696442e+01	-9.725722e+00
3.717792e+01	-9.770236e+00
3.739266e+01	-9.814766e+00
3.760864e+01	-9.860066e+00
3.782587e+01	-9.904993e+00
3.804435e+01	-9.949585e+00
3.826409e+01	-9.994659e+00
3.848510e+01	-1.003977e+01
3.870739e+01	-1.008579e+01
3.893096e+01	-1.012996e+01
3.915583e+01	-1.017543e+01
3.938199e+01	-1.022082e+01
3.960946e+01	-1.026573e+01
3.983824e+01	-1.031096e+01
4.006834e+01	-1.035614e+01
4.029978e+01	-1.040233e+01
4.053255e+01	-1.044799e+01
4.076666e+01	-1.049294e+01
4.100213e+01	-1.053852e+01
4.123896e+01	-1.058401e+01
4.147715e+01	-1.062968e+01
4.171672e+01	-1.067605e+01
4.195767e+01	-1.072124e+01
4.220002e+01	-1.076738e+01
4.244377e+01	-1.081269e+01
4.268892e+01	-1.085936e+01
4.293549e+01	-1.090512e+01
4.318348e+01	-1.095072e+01
4.343291e+01	-1.099720e+01
4.368377e+01	-1.104285e+01
4.393609e+01	-1.108862e+01
4.418986e+01	-1.113518e+01
4.444510e+01	-1.118171e+01
4.470182e+01	-1.122799e+01
4.496001e+01	-1.127364e+01
4.521970e+01	-1.132037e+01
4.548089e+01	-1.136692e+01
4.574358e+01	-1.141359e+01
4.600779e+01	-1.145896e+01
4.627353e+01	-1.150587e+01
4.654081e+01	-1.155227e+01
4.680963e+01	-1.159862e+01
4.708000e+01	-1.164535e+01
4.735193e+01	-1.169206e+01
4.762543e+01	-1.173890e+01
4.790051e+01	-1.178535e+01
4.817719e+01	-1.183215e+01
4.845545e+01	-1.187922e+01
4.873533e+01	-1.192568e+01
4.901682e+01	-1.197280e+01
4.929994e+01	-1.201991e+01
4.958470e+01	-1.206641e+01
4.987110e+01	-1.211298e+01
5.015915e+01	-1.216056e+01
5.044887e+01	-1.220642e+01
5.074026e+01	-1.225413e+01
5.103333e+01	-1.230147e+01
5.132810e+01	-1.234882e+01
5.162457e+01	-1.239548e+01
5.192275e+01	-1.244234e+01
5.222265e+01	-1.249032e+01
5.252429e+01	-1.253777e+01
5.282767e+01	-1.258378e+01
5.313280e+01	-1.263222e+01
5.343969e+01	-1.267982e+01
5.374836e+01	-1.272592e+01
5.405880e+01	-1.277462e+01
5.437105e+01	-1.282106e+01
5.468509e+01	-1.286883e+01
5.500095e+01	-1.291624e+01
5.531863e+01	-1.296340e+01
5.563815e+01	-1.301090e+01
5.595951e+01	-1.305808e+01
5.628273e+01	-1.310706e+01
5.660782e+01	-1.315450e+01
5.693479e+01	-1.320124e+01
5.726364e+01	-1.324814e+01
5.759439e+01	-1.329615e+01
5.792705e+01	-1.334456e+01
5.826164e+01	-1.339229e+01
5.859815e+01	-1.343985e+01
5.893662e+01	-1.348770e+01
5.927703e+01	-1.353465e+01
5.961941e+01	-1.358296e+01
5.996377e+01	-1.363117e+01
6.031012e+01	-1.367939e+01
6.065847e+01	-1.372739e+01
6.100883e+01	-1.377549e+01
6.136121e+01	-1.382265e+01
6.171563e+01	-1.386939e+01
6.207210e+01	-1.391888e+01
6.243063e+01	-1.396692e+01
6.279122e+01	-1.401506e+01
6.315390e+01	-1.406292e+01
6.351868e+01	-1.411088e+01
6.388556e+01	-1.415899e+01
6.425456e+01	-1.420733e+01
6.462569e+01	-1.425474e+01
6.499897e+01	-1.430373e+01
6.537440e+01	-1.435239e+01
6.575200e+01	-1.440025e+01
6.613178e+01	-1.444811e+01
6.651375e+01	-1.449612e+01
6.689793e+01	-1.454333e+01
6.728433e+01	-1.459262e+01
6.767297e+01	-1.464142e+01
6.806384e+01	-1.468943e+01
6.845698e+01	-1.473818e+01
6.885238e+01	-1.478593e+01
6.925007e+01	-1.483437e+01
6.965005e+01	-1.488306e+01
7.005235e+01	-1.493265e+01
7.045697e+01	-1.498080e+01
7.086393e+01	-1.502741e+01
7.127323e+01	-1.507705e+01
7.168490e+01	-1.512511e+01
7.209895e+01	-1.517415e+01
7.251539e+01	-1.522216e+01
7.293424e+01	-1.527068e+01
7.335551e+01	-1.531868e+01
7.377920e+01	-1.536858e+01
7.420535e+01	-1.541629e+01
7.463396e+01	-1.546500e+01
7.506504e+01	-1.551444e+01
7.549861e+01	-1.556238e+01
7.593469e+01	-1.561102e+01
7.637328e+01	-1.565904e+01
7.681441e+01	-1.570816e+01
7.725809e+01	-1.575618e+01
7.770433e+01	-1.580497e+01
7.815315e+01	-1.585452e+01
7.860456e+01	-1.590258e+01
7.905857e+01	-1.595071e+01
7.951521e+01	-1.600114e+01
7.997449e+01	-1.604975e+01
8.043642e+01	-1.609750e+01
8.090102e+01	-1.614602e+01
8.136830e+01	-1.619475e+01
8.183828e+01	-1.624503e+01
8.231097e+01	-1.629452e+01
8.278640e+01	-1.634254e+01
8.326457e+01	-1.639098e+01
8.374550e+01	-1.643971e+01
8.422921e+01	-1.648857e+01
8.471572e+01	-1.653713e+01
8.520503e+01	-1.658632e+01
8.569717e+01	-1.663556e+01
8.619215e+01	-1.668495e+01
8.669000e+01	-1.673317e+01
8.719071e+01	-1.678322e+01
8.769432e+01	-1.683091e+01
8.820084e+01	-1.688069e+01
8.871029e+01	-1.693042e+01
8.922267e+01	-1.697851e+01
8.973802e+01	-1.702766e+01
9.025634e+01	-1.707728e+01
9.077766e+01	-1.712621e+01
9.130199e+01	-1.717379e+01
9.182935e+01	-1.722479e+01
9.235975e+01	-1.727436e+01
9.289321e+01	-1.732243e+01
9.342976e+01	-1.737126e+01
9.396941e+01	-1.742052e+01
9.451217e+01	-1.747011e+01
9.505807e+01	-1.751906e+01
9.560712e+01	-1.756790e+01
9.615934e+01	-1.761660e+01
9.671476e+01	-1.766633e+01
9.727338e+01	-1.771563e+01
9.783522e+01	-1.776414e+01
9.840032e+01	-1.781400e+01
9.896867e+01	-1.786307e+01
9.954031e+01	-1.791202e+01
1.001153e+02	-1.796192e+01
1.006935e+02	-1.801137e+01
1.012751e+02	-1.805976e+01
1.018601e+02	-1.810937e+01
1.024484e+02	-1.815848e+01
1.030402e+02	-1.820741e+01
1.036353e+02	-1.825864e+01
1.042339e+02	-1.830694e+01
1.048360e+02	-1.835587e+01
1.054415e+02	-1.840529e+01
1.060505e+02	-1.845425e+01
1.066631e+02	-1.850340e+01
1.072791e+02	-1.855271e+01
1.078988e+02	-1.860368e+01
1.085220e+02	-1.865189e+01
1.091488e+02	-1.870108e+01
1.097793e+02	-1.874924e+01
1.104133e+02	-1.879879e+01
1.110511e+02	-1.884945e+01
1.116925e+02	-1.889855e+01
1.123376e+02	-1.894619e+01
1.129865e+02	-1.899664e+01
1.136391e+02	-1.904667e+01
1.142955e+02	-1.909637e+01
1.149556e+02	-1.914573e+01
1.156196e+02	-1.919653e+01
1.162874e+02	-1.924279e+01
1.169591e+02	-1.929439e+01
1.176347e+02	-1.934314e+01
1.183141e+02	-1.939438e+01
1.189975e+02	-1.944154e+01
1.196848e+02	-1.949052e+01
1.203761e+02	-1.953973e+01
1.210714e+02	-1.959171e+01
1.217707e+02	-1.963853e+01
1.224740e+02	-1.969025e+01
1.231814e+02	-1.973858e+01
1.238929e+02	-1.978828e+01
1.246085e+02	-1.983862e+01
1.253283e+02	-1.988799e+01
1.260522e+02	-1.993568e+01
1.267802e+02	-1.998565e+01
1.275125e+02	-2.003712e+01
1.282490e+02	-2.008658e+01
1.289898e+02	-2.013481e+01
1.297348e+02	-2.018414e+01
1.304842e+02	-2.023552e+01
1.312378e+02	-2.028396e+01
1.319959e+02	-2.033464e+01
1.327583e+02	-2.038426e+01
1.335251e+02	-2.043281e+01
1.342963e+02	-2.048202e+01
1.350720e+02	-2.053182e+01
1.358522e+02	-2.058211e+01
1.366368e+02	-2.062975e+01
1.374260e+02	-2.068061e+01
1.382198e+02	-2.073133e+01
1.390182e+02	-2.078034e+01
1.398211e+02	-2.082950e+01
1.406287e+02	-2.087781e+01
1.414410e+02	-2.092846e+01
1.422579e+02	-2.097800e+01
1.430796e+02	-2.103019e+01
1.439060e+02	-2.107673e+01
1.447372e+02	-2.112809e+01
1.455732e+02	-2.117837e+01
1.464141e+02	-2.122617e+01
1.472597e+02	-2.127760e+01
1.481103e+02	-2.132681e+01
1.489658e+02	-2.137481e+01
1.498262e+02	-2.142633e+01
1.506916e+02	-2.147646e+01
1.515620e+02	-2.152580e+01
1.524374e+02	-2.157435e+01
1.533179e+02	-2.162530e+01
1.542034e+02	-2.167287e+01
1.550941e+02	-2.172396e+01
1.559899e+02	-2.177259e+01
1.568909e+02	-2.182234e+01
1.577971e+02	-2.187234e+01
1.587085e+02	-2.192358e+01
1.596252e+02	-2.197225e+01
1.605472e+02	-2.202172e+01
1.614745e+02	-2.207226e+01
1.624072e+02	-2.212216e+01
1.633453e+02	-2.217207e+01
1.642887e+02	-2.222050e+01
1.652377e+02	-2.227115e+01
1.661921e+02	-2.232044e+01
1.671520e+02	-2.236885e+01
1.681175e+02	-2.242128e+01
1.690885e+02	-2.247180e+01
1.700651e+02	-2.251934e+01
1.710474e+02	-2.257033e+01
1.720354e+02	-2.261992e+01
1.730291e+02	-2.266741e+01
1.740285e+02	-2.271912e+01
1.750337e+02	-2.276772e+01
1.760446e+02	-2.281744e+01
1.770615e+02	-2.286808e+01
1.780842e+02	-2.291834e+01
1.791128e+02	-2.296770e+01
1.801473e+02	-2.301837e+01
1.811878e+02	-2.306759e+01
1.822344e+02	-2.311768e+01
1.832870e+02	-2.316519e+01
1.843456e+02	-2.321821e+01
1.854104e+02	-2.326635e+01
1.864813e+02	-2.331536e+01
1.875584e+02	-2.336442e+01
1.886418e+02	-2.341503e+01
1.897313e+02	-2.346743e+01
1.908272e+02	-2.351506e+01
1.919294e+02	-2.356595e+01
1.930380e+02	-2.361543e+01
1.941530e+02	-2.366448e+01
1.952744e+02	-2.371462e+01
1.964023e+02	-2.376454e+01
1.975367e+02	-2.381629e+01
1.986777e+02	-2.386414e+01
1.998252e+02	-2.391327e+01
2.009794e+02	-2.396300e+01
2.021403e+02	-2.401447e+01
2.033078e+02	-2.406362e+01
2.044821e+02	-2.411541e+01
2.056632e+02	-2.416355e+01
2.068511e+02	-2.421364e+01
2.080459e+02	-2.426505e+01
2.092475e+02	-2.431093e+01
2.104561e+02	-2.436409e+01
2.116717e+02	-2.441301e+01
2.128943e+02	-2.445895e+01
2.141240e+02	-2.451448e+01
2.153608e+02	-2.456104e+01
2.166047e+02	-2.461095e+01
2.178558e+02	-2.466145e+01
2.191141e+02	-2.471292e+01
2.203797e+02	-2.475985e+01
2.216526e+02	-2.480972e+01
2.229329e+02	-2.485945e+01
2.242205e+02	-2.491293e+01
2.255156e+02	-2.496139e+01
2.268182e+02	-2.501032e+01
2.281283e+02	-2.506105e+01
2.294459e+02	-2.510950e+01
2.307712e+02	-2.516230e+01
2.321041e+02	-2.521115e+01
2.334447e+02	-2.526186e+01
2.347931e+02	-2.531153e+01
2.361493e+02	-2.536017e+01
2.375133e+02	-2.541095e+01
2.388851e+02	-2.546008e+01
2.402649e+02	-2.550879e+01
2.416527e+02	-2.556223e+01
2.430484e+02	-2.561229e+01
2.444523e+02	-2.566402e+01
2.458642e+02	-2.570872e+01
2.472843e+02	-2.575901e+01
2.487126e+02	-2.580963e+01
2.501492e+02	-2.586111e+01
2.515940e+02	-2.591013e+01
2.530472e+02	-2.596429e+01
2.545088e+02	-2.601009e+01
2.559789e+02	-2.605922e+01
2.574574e+02	-2.610832e+01
2.589444e+02	-2.616463e+01
2.604401e+02	-2.620854e+01
2.619444e+02	-2.625848e+01
2.634574e+02	-2.630776e+01
2.649791e+02	-2.636041e+01
2.665096e+02	-2.640948e+01
2.680489e+02	-2.645888e+01
2.695972e+02	-2.651124e+01
2.711544e+02	-2.656061e+01
2.727205e+02	-2.660849e+01
2.742958e+02	-2.665793e+01
2.758801e+02	-2.670676e+01
2.774736e+02	-2.675889e+01
2.790762e+02	-2.681043e+01
2.806882e+02	-2.686462e+01
2.823094e+02	-2.690955e+01
2.839400e+02	-2.696184e+01
2.855800e+02	-2.700806e+01
2.872295e+02	-2.706140e+01
2.888886e+02	-2.710548e+01
2.905572e+02	-2.715709e+01
2.922354e+02	-2.721148e+01
2.939234e+02	-2.726143e+01
2.956211e+02	-2.731050e+01
2.973286e+02	-2.735912e+01
2.990459e+02	-2.740928e+01
3.007732e+02	-2.746160e+01
3.025104e+02	-2.750850e+01
3.042577e+02	-2.756071e+01
3.060151e+02	-2.760646e+01
3.077826e+02	-2.765975e+01
3.095604e+02	-2.771357e+01
3.113484e+02	-2.775462e+01
3.131467e+02	-2.781307e+01
3.149554e+02	-2.786007e+01
3.167746e+02	-2.790979e+01
3.186043e+02	-2.796056e+01
3.204445e+02	-2.801347e+01
3.222954e+02	-2.805803e+01
3.241570e+02	-2.811283e+01
3.260293e+02	-2.815994e+01
3.279124e+02	-2.820831e+01
3.298064e+02	-2.826103e+01
3.317114e+02	-2.831084e+01
3.336273e+02	-2.836048e+01
3.355544e+02	-2.840856e+01
3.374925e+02	-2.846379e+01
3.394418e+02	-2.850820e+01
3.414024e+02	-2.856101e+01
3.433744e+02	-2.861334e+01
3.453577e+02	-2.866220e+01
3.473525e+02	-2.871065e+01
3.493588e+02	-2.875956e+01
3.513766e+02	-2.881329e+01
3.534062e+02	-2.886070e+01
3.554474e+02	-2.890872e+01
3.575005e+02	-2.896162e+01
3.595654e+02	-2.901041e+01
3.616422e+02	-2.905852e+01
3.637311e+02	-2.911270e+01
3.658320e+02	-2.916202e+01
3.679450e+02	-2.920808e+01
3.700702e+02	-2.926333e+01
3.722077e+02	-2.931312e+01
3.743576e+02	-2.935855e+01
3.765199e+02	-2.941043e+01
3.786946e+02	-2.945962e+01
3.808820e+02	-2.951207e+01
3.830819e+02	-2.956238e+01
3.852946e+02	-2.961354e+01
3.875200e+02	-2.966294e+01
3.897583e+02	-2.971253e+01
3.920096e+02	-2.976566e+01
3.942738e+02	-2.980780e+01
3.965511e+02	-2.986495e+01
3.988416e+02	-2.991197e+01
4.011452e+02	-2.996280e+01
4.034622e+02	-3.001862e+01
4.057926e+02	-3.006272e+01
4.081365e+02	-3.011610e+01
4.104938e+02	-3.015967e+01
4.128648e+02	-3.021474e+01
4.152495e+02	-3.025840e+01
4.176480e+02	-3.031566e+01
4.200603e+02	-3.035955e+01
4.224866e+02	-3.041004e+01
4.249268e+02	-3.046631e+01
4.273812e+02	-3.051491e+01
4.298497e+02	-3.055950e+01
4.323325e+02	-3.060986e+01
4.348297e+02	-3.066543e+01
4.373412e+02	-3.071219e+01
4.398673e+02	-3.076234e+01
4.424079e+02	-3.081501e+01
4.449633e+02	-3.086535e+01
4.475334e+02	-3.091274e+01
4.501183e+02	-3.096199e+01
4.527182e+02	-3.101602e+01
4.553330e+02	-3.106463e+01
4.579630e+02	-3.111065e+01
4.606082e+02	-3.116887e+01
4.632687e+02	-3.121694e+01
4.659445e+02	-3.127132e+01
4.686358e+02	-3.131872e+01
4.713426e+02	-3.136509e+01
4.740650e+02	-3.141428e+01
4.768032e+02	-3.146713e+01
4.795572e+02	-3.152333e+01
4.823271e+02	-3.156788e+01
4.851130e+02	-3.161950e+01
4.879150e+02	-3.166374e+01
4.907332e+02	-3.171707e+01
4.935676e+02	-3.176053e+01
4.964185e+02	-3.181681e+01
4.992858e+02	-3.187163e+01
5.021696e+02	-3.191828e+01
5.050701e+02	-3.197209e+01
5.079874e+02	-3.201559e+01
5.109215e+02	-3.206846e+01
5.138726e+02	-3.212347e+01
5.168407e+02	-3.216624e+01
5.198259e+02	-3.221831e+01
5.228284e+02	-3.226889e+01
5.258482e+02	-3.231838e+01
5.288855e+02	-3.237098e+01
5.319403e+02	-3.241801e+01
5.350128e+02	-3.246796e+01
5.381030e+02	-3.252249e+01
5.412111e+02	-3.256663e+01
5.443371e+02	-3.261927e+01
5.474812e+02	-3.267302e+01
5.506434e+02	-3.272503e+01
5.538239e+02	-3.277008e+01
5.570228e+02	-3.281973e+01
5.602401e+02	-3.286634e+01
5.634760e+02	-3.292208e+01
5.667306e+02	-3.297289e+01
5.700040e+02	-3.302775e+01
5.732964e+02	-3.307445e+01
5.766077e+02	-3.312506e+01
5.799382e+02	-3.317652e+01
5.832879e+02	-3.322269e+01
5.866569e+02	-3.327540e+01
5.900454e+02	-3.332719e+01
5.934535e+02	-3.337487e+01
5.968813e+02	-3.342596e+01
6.003288e+02	-3.347456e+01
6.037963e+02	-3.353209e+01
6.072838e+02	-3.357504e+01
6.107914e+02	-3.362940e+01
6.143194e+02	-3.367213e+01
6.178676e+02	-3.372953e+01
6.214364e+02	-3.377874e+01
6.250258e+02	-3.383029e+01
6.286359e+02	-3.387459e+01
6.322669e+02	-3.392992e+01
6.359189e+02	-3.398675e+01
6.395919e+02	-3.403262e+01
6.432862e+02	-3.407967e+01
6.470017e+02	-3.412913e+01
6.507388e+02	-3.418245e+01
6.544974e+02	-3.422766e+01
6.582778e+02	-3.427909e+01
6.620800e+02	-3.433210e+01
6.659041e+02	-3.438171e+01
6.697504e+02	-3.442985e+01
6.736188e+02	-3.448379e+01
6.775096e+02	-3.453239e+01
6.814229e+02	-3.457581e+01
6.853587e+02	-3.463185e+01
6.893173e+02	-3.467795e+01
6.932988e+02	-3.473653e+01
6.973033e+02	-3.478500e+01
7.013309e+02	-3.483329e+01
