Frequency(Hz)	Magnitude(dB)
1.000000e+01	-1.744922e-05
1.005776e+01	-1.765137e-05
1.011585e+01	-1.785587e-05
1.017428e+01	-1.806273e-05
1.023305e+01	-1.827200e-05
1.029215e+01	-1.848368e-05
1.035160e+01	-1.869782e-05
1.041139e+01	-1.891444e-05
1.047153e+01	-1.913357e-05
1.053201e+01	-1.935523e-05
1.059284e+01	-1.957947e-05
1.065403e+01	-1.980630e-05
1.071556e+01	-2.003576e-05
1.077746e+01	-2.026788e-05
1.083971e+01	-2.050269e-05
1.090232e+01	-2.074022e-05
1.096529e+01	-2.098050e-05
1.102862e+01	-2.122357e-05
1.109232e+01	-2.146945e-05
1.115639e+01	-2.171818e-05
1.122083e+01	-2.196979e-05
1.128564e+01	-2.222431e-05
1.135083e+01	-2.248179e-05
1.141639e+01	-2.274224e-05
1.148233e+01	-2.300572e-05
1.154865e+01	-2.327224e-05
1.161536e+01	-2.354186e-05
1.168245e+01	-2.381460e-05
1.174992e+01	-2.409049e-05
1.181779e+01	-2.436959e-05
1.188605e+01	-2.465192e-05
1.195470e+01	-2.493752e-05
1.202375e+01	-2.522642e-05
1.209320e+01	-2.551868e-05
1.216305e+01	-2.581432e-05
1.223330e+01	-2.611338e-05
1.230396e+01	-2.641591e-05
1.237503e+01	-2.672195e-05
1.244651e+01	-2.703153e-05
1.251840e+01	-2.734469e-05
1.259070e+01	-2.766149e-05
1.266343e+01	-2.798195e-05
1.273657e+01	-2.830613e-05
1.281014e+01	-2.863407e-05
1.288413e+01	-2.896580e-05
1.295855e+01	-2.930137e-05
1.303339e+01	-2.964084e-05
1.310867e+01	-2.998423e-05
1.318439e+01	-3.033161e-05
1.326054e+01	-3.068301e-05
1.333713e+01	-3.103848e-05
1.341417e+01	-3.139806e-05
1.349165e+01	-3.176182e-05
1.356958e+01	-3.212979e-05
1.364795e+01	-3.250202e-05
1.372678e+01	-3.287856e-05
1.380607e+01	-3.325947e-05
1.388581e+01	-3.364479e-05
1.396602e+01	-3.403457e-05
1.404668e+01	-3.442887e-05
1.412782e+01	-3.482773e-05
1.420942e+01	-3.523122e-05
1.429149e+01	-3.563938e-05
1.437404e+01	-3.605227e-05
1.445706e+01	-3.646995e-05
1.454057e+01	-3.689246e-05
1.462455e+01	-3.731987e-05
1.470902e+01	-3.775223e-05
1.479398e+01	-3.818960e-05
1.487943e+01	-3.863203e-05
1.496537e+01	-3.907959e-05
1.505181e+01	-3.953234e-05
1.513875e+01	-3.999033e-05
1.522619e+01	-4.045363e-05
1.531414e+01	-4.092229e-05
1.540259e+01	-4.139638e-05
1.549156e+01	-4.187597e-05
1.558103e+01	-4.236111e-05
1.567103e+01	-4.285188e-05
1.576155e+01	-4.334832e-05
1.585258e+01	-4.385052e-05
1.594415e+01	-4.435854e-05
1.603624e+01	-4.487245e-05
1.612886e+01	-4.539230e-05
1.622202e+01	-4.591818e-05
1.631572e+01	-4.645015e-05
1.640996e+01	-4.698829e-05
1.650474e+01	-4.753266e-05
1.660008e+01	-4.808334e-05
1.669596e+01	-4.864039e-05
1.679239e+01	-4.920390e-05
1.688938e+01	-4.977394e-05
1.698694e+01	-5.035058e-05
1.708505e+01	-5.093390e-05
1.718373e+01	-5.152398e-05
1.728299e+01	-5.212090e-05
1.738281e+01	-5.272473e-05
1.748322e+01	-5.333556e-05
1.758420e+01	-5.395346e-05
1.768576e+01	-5.457852e-05
1.778792e+01	-5.521083e-05
1.789066e+01	-5.585045e-05
1.799399e+01	-5.649749e-05
1.809793e+01	-5.715203e-05
1.820246e+01	-5.781415e-05
1.830760e+01	-5.848393e-05
1.841334e+01	-5.916148e-05
1.851969e+01	-5.984688e-05
1.862666e+01	-6.054022e-05
1.873425e+01	-6.124159e-05
1.884246e+01	-6.195109e-05
1.895129e+01	-6.266880e-05
1.906075e+01	-6.339483e-05
1.917085e+01	-6.412927e-05
1.928158e+01	-6.487222e-05
1.939295e+01	-6.562378e-05
1.950496e+01	-6.638404e-05
1.961762e+01	-6.715312e-05
1.973093e+01	-6.793110e-05
1.984490e+01	-6.871809e-05
1.995952e+01	-6.951420e-05
2.007480e+01	-7.031954e-05
2.019076e+01	-7.113420e-05
2.030738e+01	-7.195831e-05
2.042467e+01	-7.279196e-05
2.054264e+01	-7.363526e-05
2.066130e+01	-7.448834e-05
2.078064e+01	-7.535130e-05
2.090066e+01	-7.622426e-05
2.102139e+01	-7.710733e-05
2.114280e+01	-7.800063e-05
2.126492e+01	-7.890429e-05
2.138775e+01	-7.981841e-05
2.151128e+01	-8.074312e-05
2.163553e+01	-8.167854e-05
2.176050e+01	-8.262480e-05
2.188619e+01	-8.358202e-05
2.201260e+01	-8.455033e-05
2.213974e+01	-8.552986e-05
2.226762e+01	-8.652074e-05
2.239624e+01	-8.752310e-05
2.252560e+01	-8.853706e-05
2.265571e+01	-8.956278e-05
2.278656e+01	-9.060038e-05
2.291818e+01	-9.165000e-05
2.305055e+01	-9.271178e-05
2.318369e+01	-9.378586e-05
2.331760e+01	-9.487238e-05
2.345228e+01	-9.597149e-05
2.358774e+01	-9.708334e-05
2.372398e+01	-9.820806e-05
2.386101e+01	-9.934582e-05
2.399883e+01	-1.004968e-04
2.413745e+01	-1.016610e-04
2.427686e+01	-1.028388e-04
2.441709e+01	-1.040302e-04
2.455812e+01	-1.052354e-04
2.469997e+01	-1.064546e-04
2.484263e+01	-1.076878e-04
2.498612e+01	-1.089354e-04
2.513044e+01	-1.101975e-04
2.527559e+01	-1.114741e-04
2.542158e+01	-1.127655e-04
2.556842e+01	-1.140719e-04
2.571610e+01	-1.153935e-04
2.586463e+01	-1.167303e-04
2.601403e+01	-1.180827e-04
2.616428e+01	-1.194507e-04
2.631541e+01	-1.208345e-04
2.646740e+01	-1.222344e-04
2.662028e+01	-1.236505e-04
2.677404e+01	-1.250830e-04
2.692868e+01	-1.265321e-04
2.708422e+01	-1.279980e-04
2.724066e+01	-1.294809e-04
2.739800e+01	-1.309809e-04
2.755625e+01	-1.324983e-04
2.771541e+01	-1.340334e-04
2.787550e+01	-1.355861e-04
2.803650e+01	-1.371569e-04
2.819844e+01	-1.387459e-04
2.836131e+01	-1.403533e-04
2.852513e+01	-1.419793e-04
2.868989e+01	-1.436241e-04
2.885560e+01	-1.452880e-04
2.902227e+01	-1.469712e-04
2.918990e+01	-1.486739e-04
2.935850e+01	-1.503963e-04
2.952807e+01	-1.521386e-04
2.969863e+01	-1.539012e-04
2.987016e+01	-1.556841e-04
3.004269e+01	-1.574877e-04
3.021622e+01	-1.593122e-04
3.039075e+01	-1.611579e-04
3.056628e+01	-1.630249e-04
3.074283e+01	-1.649136e-04
3.092040e+01	-1.668241e-04
3.109900e+01	-1.687568e-04
3.127862e+01	-1.707118e-04
3.145929e+01	-1.726895e-04
3.164099e+01	-1.746901e-04
3.182375e+01	-1.767139e-04
3.200756e+01	-1.787612e-04
3.219244e+01	-1.808321e-04
3.237838e+01	-1.829271e-04
3.256540e+01	-1.850463e-04
3.275349e+01	-1.871900e-04
3.294268e+01	-1.893586e-04
3.313295e+01	-1.915524e-04
3.332433e+01	-1.937715e-04
3.351681e+01	-1.960164e-04
3.371040e+01	-1.982872e-04
3.390511e+01	-2.005844e-04
3.410094e+01	-2.029081e-04
3.429791e+01	-2.052588e-04
3.449601e+01	-2.076367e-04
3.469526e+01	-2.100422e-04
3.489566e+01	-2.124756e-04
3.509721e+01	-2.149371e-04
3.529993e+01	-2.174271e-04
3.550382e+01	-2.199460e-04
3.570889e+01	-2.224941e-04
3.591515e+01	-2.250717e-04
3.612259e+01	-2.276791e-04
3.633123e+01	-2.303168e-04
3.654108e+01	-2.329850e-04
3.675214e+01	-2.356841e-04
3.696442e+01	-2.384145e-04
3.717792e+01	-2.411765e-04
3.739266e+01	-2.439706e-04
3.760864e+01	-2.467969e-04
3.782587e+01	-2.496561e-04
3.804435e+01	-2.525483e-04
3.826409e+01	-2.554741e-04
3.848510e+01	-2.584337e-04
3.870739e+01	-2.614277e-04
3.893096e+01	-2.644563e-04
3.915583e+01	-2.675200e-04
3.938199e+01	-2.706192e-04
3.960946e+01	-2.737543e-04
3.983824e+01	-2.769257e-04
4.006834e+01	-2.801339e-04
4.029978e+01	-2.833792e-04
4.053255e+01	-2.866621e-04
4.076666e+01	-2.899831e-04
4.100213e+01	-2.933425e-04
4.123896e+01	-2.967408e-04
4.147715e+01	-3.001785e-04
4.171672e+01	-3.036560e-04
4.195767e+01	-3.071739e-04
4.220002e+01	-3.107324e-04
4.244377e+01	-3.143322e-04
4.268892e+01	-3.179737e-04
4.293549e+01	-3.216574e-04
4.318348e+01	-3.253837e-04
4.343291e+01	-3.291533e-04
4.368377e+01	-3.329664e-04
4.393609e+01	-3.368238e-04
4.418986e+01	-3.407258e-04
4.444510e+01	-3.446731e-04
4.470182e+01	-3.486661e-04
4.496001e+01	-3.527053e-04
4.521970e+01	-3.567913e-04
4.548089e+01	-3.609247e-04
4.574358e+01	-3.651059e-04
4.600779e+01	-3.693356e-04
4.627353e+01	-3.736143e-04
4.654081e+01	-3.779425e-04
4.680963e+01	-3.823209e-04
4.708000e+01	-3.867500e-04
4.735193e+01	-3.912304e-04
4.762543e+01	-3.957627e-04
4.790051e+01	-4.003475e-04
4.817719e+01	-4.049854e-04
4.845545e+01	-4.096770e-04
4.873533e+01	-4.144230e-04
4.901682e+01	-4.192240e-04
4.929994e+01	-4.240806e-04
4.958470e+01	-4.289935e-04
4.987110e+01	-4.339632e-04
5.015915e+01	-4.389905e-04
5.044887e+01	-4.440761e-04
5.074026e+01	-4.492206e-04
5.103333e+01	-4.544247e-04
5.132810e+01	-4.596890e-04
5.162457e+01	-4.650144e-04
5.192275e+01	-4.704014e-04
5.222265e+01	-4.758508e-04
5.252429e+01	-4.813634e-04
5.282767e+01	-4.869398e-04
5.313280e+01	-4.925808e-04
5.343969e+01	-4.982872e-04
5.374836e+01	-5.040596e-04
5.405880e+01	-5.098989e-04
5.437105e+01	-5.158059e-04
5.468509e+01	-5.217813e-04
5.500095e+01	-5.278259e-04
5.531863e+01	-5.339406e-04
5.563815e+01	-5.401260e-04
5.595951e+01	-5.463831e-04
5.628273e+01	-5.527127e-04
5.660782e+01	-5.591157e-04
5.693479e+01	-5.655927e-04
5.726364e+01	-5.721449e-04
5.759439e+01	-5.787729e-04
5.792705e+01	-5.854777e-04
5.826164e+01	-5.922601e-04
5.859815e+01	-5.991211e-04
5.893662e+01	-6.060616e-04
5.927703e+01	-6.130825e-04
5.961941e+01	-6.201848e-04
5.996377e+01	-6.273693e-04
6.031012e+01	-6.346370e-04
6.065847e+01	-6.419889e-04
6.100883e+01	-6.494259e-04
6.136121e+01	-6.569491e-04
6.171563e+01	-6.645595e-04
6.207210e+01	-6.722580e-04
6.243063e+01	-6.800457e-04
6.279122e+01	-6.879236e-04
6.315390e+01	-6.958927e-04
6.351868e+01	-7.039542e-04
6.388556e+01	-7.121090e-04
6.425456e+01	-7.203583e-04
6.462569e+01	-7.287032e-04
6.499897e+01	-7.371447e-04
6.537440e+01	-7.456840e-04
6.575200e+01	-7.543222e-04
6.613178e+01	-7.630604e-04
6.651375e+01	-7.718999e-04
6.689793e+01	-7.808418e-04
6.728433e+01	-7.898872e-04
6.767297e+01	-7.990374e-04
6.806384e+01	-8.082936e-04
6.845698e+01	-8.176570e-04
6.885238e+01	-8.271289e-04
6.925007e+01	-8.367105e-04
6.965005e+01	-8.464031e-04
7.005235e+01	-8.562079e-04
7.045697e+01	-8.661264e-04
7.086393e+01	-8.761597e-04
7.127323e+01	-8.863092e-04
7.168490e+01	-8.965762e-04
7.209895e+01	-9.069622e-04
7.251539e+01	-9.174685e-04
7.293424e+01	-9.280965e-04
7.335551e+01	-9.388476e-04
7.377920e+01	-9.497232e-04
7.420535e+01	-9.607248e-04
7.463396e+01	-9.718538e-04
7.506504e+01	-9.831117e-04
7.549861e+01	-9.945001e-04
7.593469e+01	-1.006020e-03
7.637328e+01	-1.017674e-03
7.681441e+01	-1.029463e-03
7.725809e+01	-1.041388e-03
7.770433e+01	-1.053451e-03
7.815315e+01	-1.065654e-03
7.860456e+01	-1.077998e-03
7.905857e+01	-1.090486e-03
7.951521e+01	-1.103118e-03
7.997449e+01	-1.115896e-03
8.043642e+01	-1.128822e-03
8.090102e+01	-1.141898e-03
8.136830e+01	-1.155126e-03
8.183828e+01	-1.168506e-03
8.231097e+01	-1.182042e-03
8.278640e+01	-1.195734e-03
8.326457e+01	-1.209585e-03
8.374550e+01	-1.223597e-03
8.422921e+01	-1.237770e-03
8.471572e+01	-1.252108e-03
8.520503e+01	-1.266612e-03
8.569717e+01	-1.281284e-03
8.619215e+01	-1.296126e-03
8.669000e+01	-1.311140e-03
8.719071e+01	-1.326327e-03
8.769432e+01	-1.341691e-03
8.820084e+01	-1.357232e-03
8.871029e+01	-1.372953e-03
8.922267e+01	-1.388857e-03
8.973802e+01	-1.404945e-03
9.025634e+01	-1.421219e-03
9.077766e+01	-1.437681e-03
9.130199e+01	-1.454334e-03
9.182935e+01	-1.471180e-03
9.235975e+01	-1.488221e-03
9.289321e+01	-1.505460e-03
9.342976e+01	-1.522898e-03
9.396941e+01	-1.540538e-03
9.451217e+01	-1.558382e-03
9.505807e+01	-1.576433e-03
9.560712e+01	-1.594693e-03
9.615934e+01	-1.613165e-03
9.671476e+01	-1.631850e-03
9.727338e+01	-1.650752e-03
9.783522e+01	-1.669873e-03
9.840032e+01	-1.689215e-03
9.896867e+01	-1.708781e-03
9.954031e+01	-1.728574e-03
1.001153e+02	-1.748596e-03
1.006935e+02	-1.768850e-03
1.012751e+02	-1.789338e-03
1.018601e+02	-1.810064e-03
1.024484e+02	-1.831029e-03
1.030402e+02	-1.852238e-03
1.036353e+02	-1.873692e-03
1.042339e+02	-1.895394e-03
1.048360e+02	-1.917348e-03
1.054415e+02	-1.939556e-03
1.060505e+02	-1.962021e-03
1.066631e+02	-1.984747e-03
1.072791e+02	-2.007735e-03
1.078988e+02	-2.030990e-03
1.085220e+02	-2.054514e-03
1.091488e+02	-2.078310e-03
1.097793e+02	-2.102382e-03
1.104133e+02	-2.126733e-03
1.110511e+02	-2.151366e-03
1.116925e+02	-2.176283e-03
1.123376e+02	-2.201490e-03
1.129865e+02	-2.226988e-03
1.136391e+02	-2.252782e-03
1.142955e+02	-2.278874e-03
1.149556e+02	-2.305268e-03
1.156196e+02	-2.331968e-03
1.162874e+02	-2.358977e-03
1.169591e+02	-2.386299e-03
1.176347e+02	-2.413937e-03
1.183141e+02	-2.441896e-03
1.189975e+02	-2.470178e-03
1.196848e+02	-2.498787e-03
1.203761e+02	-2.527728e-03
1.210714e+02	-2.557003e-03
1.217707e+02	-2.586618e-03
1.224740e+02	-2.616576e-03
1.231814e+02	-2.646880e-03
1.238929e+02	-2.677536e-03
1.246085e+02	-2.708546e-03
1.253283e+02	-2.739915e-03
1.260522e+02	-2.771648e-03
1.267802e+02	-2.803748e-03
1.275125e+02	-2.836219e-03
1.282490e+02	-2.869067e-03
1.289898e+02	-2.902294e-03
1.297348e+02	-2.935907e-03
1.304842e+02	-2.969908e-03
1.312378e+02	-3.004304e-03
1.319959e+02	-3.039097e-03
1.327583e+02	-3.074293e-03
1.335251e+02	-3.109897e-03
1.342963e+02	-3.145913e-03
1.350720e+02	-3.182346e-03
1.358522e+02	-3.219201e-03
1.366368e+02	-3.256482e-03
1.374260e+02	-3.294195e-03
1.382198e+02	-3.332344e-03
1.390182e+02	-3.370935e-03
1.398211e+02	-3.409973e-03
1.406287e+02	-3.449463e-03
1.414410e+02	-3.489410e-03
1.422579e+02	-3.529819e-03
1.430796e+02	-3.570696e-03
1.439060e+02	-3.612046e-03
1.447372e+02	-3.653875e-03
1.455732e+02	-3.696188e-03
1.464141e+02	-3.738991e-03
1.472597e+02	-3.782289e-03
1.481103e+02	-3.826089e-03
1.489658e+02	-3.870395e-03
1.498262e+02	-3.915214e-03
1.506916e+02	-3.960552e-03
1.515620e+02	-4.006415e-03
1.524374e+02	-4.052809e-03
1.533179e+02	-4.099739e-03
1.542034e+02	-4.147213e-03
1.550941e+02	-4.195237e-03
1.559899e+02	-4.243816e-03
1.568909e+02	-4.292957e-03
1.577971e+02	-4.342667e-03
1.587085e+02	-4.392953e-03
1.596252e+02	-4.443820e-03
1.605472e+02	-4.495276e-03
1.614745e+02	-4.547328e-03
1.624072e+02	-4.599982e-03
1.633453e+02	-4.653245e-03
1.642887e+02	-4.707125e-03
1.652377e+02	-4.761628e-03
1.661921e+02	-4.816762e-03
1.671520e+02	-4.872534e-03
1.681175e+02	-4.928952e-03
1.690885e+02	-4.986022e-03
1.700651e+02	-5.043753e-03
1.710474e+02	-5.102152e-03
1.720354e+02	-5.161226e-03
1.730291e+02	-5.220984e-03
1.740285e+02	-5.281434e-03
1.750337e+02	-5.342583e-03
1.760446e+02	-5.404439e-03
1.770615e+02	-5.467012e-03
1.780842e+02	-5.530308e-03
1.791128e+02	-5.594337e-03
1.801473e+02	-5.659106e-03
1.811878e+02	-5.724625e-03
1.822344e+02	-5.790902e-03
1.832870e+02	-5.857946e-03
1.843456e+02	-5.925765e-03
1.854104e+02	-5.994369e-03
1.864813e+02	-6.063767e-03
1.875584e+02	-6.133967e-03
1.886418e+02	-6.204980e-03
1.897313e+02	-6.276814e-03
1.908272e+02	-6.349479e-03
1.919294e+02	-6.422985e-03
1.930380e+02	-6.497341e-03
1.941530e+02	-6.572558e-03
1.952744e+02	-6.648644e-03
1.964023e+02	-6.725610e-03
1.975367e+02	-6.803467e-03
1.986777e+02	-6.882224e-03
1.998252e+02	-6.961893e-03
2.009794e+02	-7.042482e-03
2.021403e+02	-7.124004e-03
2.033078e+02	-7.206469e-03
2.044821e+02	-7.289887e-03
2.056632e+02	-7.374271e-03
2.068511e+02	-7.459630e-03
2.080459e+02	-7.545976e-03
2.092475e+02	-7.633321e-03
2.104561e+02	-7.721676e-03
2.116717e+02	-7.811053e-03
2.128943e+02	-7.901464e-03
2.141240e+02	-7.992920e-03
2.153608e+02	-8.085433e-03
2.166047e+02	-8.179017e-03
2.178558e+02	-8.273682e-03
2.191141e+02	-8.369442e-03
2.203797e+02	-8.466310e-03
2.216526e+02	-8.564297e-03
2.229329e+02	-8.663417e-03
2.242205e+02	-8.763684e-03
2.255156e+02	-8.865109e-03
2.268182e+02	-8.967707e-03
2.281283e+02	-9.071492e-03
2.294459e+02	-9.176476e-03
2.307712e+02	-9.282674e-03
2.321041e+02	-9.390099e-03
2.334447e+02	-9.498766e-03
2.347931e+02	-9.608690e-03
2.361493e+02	-9.719884e-03
2.375133e+02	-9.832363e-03
2.388851e+02	-9.946143e-03
2.402649e+02	-1.006124e-02
2.416527e+02	-1.017766e-02
2.430484e+02	-1.029543e-02
2.444523e+02	-1.041456e-02
2.458642e+02	-1.053507e-02
2.472843e+02	-1.065697e-02
2.487126e+02	-1.078028e-02
2.501492e+02	-1.090502e-02
2.515940e+02	-1.103120e-02
2.530472e+02	-1.115883e-02
2.545088e+02	-1.128794e-02
2.559789e+02	-1.141854e-02
2.574574e+02	-1.155065e-02
2.589444e+02	-1.168429e-02
2.604401e+02	-1.181947e-02
2.619444e+02	-1.195621e-02
2.634574e+02	-1.209453e-02
2.649791e+02	-1.223445e-02
2.665096e+02	-1.237599e-02
2.680489e+02	-1.251916e-02
2.695972e+02	-1.266399e-02
2.711544e+02	-1.281049e-02
2.727205e+02	-1.295868e-02
2.742958e+02	-1.310858e-02
2.758801e+02	-1.326021e-02
2.774736e+02	-1.341360e-02
2.790762e+02	-1.356875e-02
2.806882e+02	-1.372570e-02
2.823094e+02	-1.388446e-02
2.839400e+02	-1.404506e-02
2.855800e+02	-1.420750e-02
2.872295e+02	-1.437183e-02
2.888886e+02	-1.453805e-02
2.905572e+02	-1.470619e-02
2.922354e+02	-1.487627e-02
2.939234e+02	-1.504832e-02
2.956211e+02	-1.522235e-02
2.973286e+02	-1.539839e-02
2.990459e+02	-1.557646e-02
3.007732e+02	-1.575659e-02
3.025104e+02	-1.593880e-02
3.042577e+02	-1.612311e-02
3.060151e+02	-1.630955e-02
3.077826e+02	-1.649814e-02
3.095604e+02	-1.668891e-02
3.113484e+02	-1.688188e-02
3.131467e+02	-1.707707e-02
3.149554e+02	-1.727452e-02
3.167746e+02	-1.747424e-02
3.186043e+02	-1.767627e-02
3.204445e+02	-1.788064e-02
3.222954e+02	-1.808735e-02
3.241570e+02	-1.829646e-02
3.260293e+02	-1.850797e-02
3.279124e+02	-1.872193e-02
3.298064e+02	-1.893835e-02
3.317114e+02	-1.915727e-02
3.336273e+02	-1.937872e-02
3.355544e+02	-1.960272e-02
3.374925e+02	-1.982930e-02
3.394418e+02	-2.005849e-02
3.414024e+02	-2.029033e-02
3.433744e+02	-2.052484e-02
3.453577e+02	-2.076206e-02
3.473525e+02	-2.100201e-02
3.493588e+02	-2.124473e-02
3.513766e+02	-2.149024e-02
3.534062e+02	-2.173858e-02
3.554474e+02	-2.198979e-02
3.575005e+02	-2.224389e-02
3.595654e+02	-2.250093e-02
3.616422e+02	-2.276092e-02
3.637311e+02	-2.302391e-02
3.658320e+02	-2.328993e-02
3.679450e+02	-2.355901e-02
3.700702e+02	-2.383120e-02
3.722077e+02	-2.410652e-02
3.743576e+02	-2.438502e-02
3.765199e+02	-2.466672e-02
3.786946e+02	-2.495166e-02
3.808820e+02	-2.523989e-02
3.830819e+02	-2.553144e-02
3.852946e+02	-2.582635e-02
3.875200e+02	-2.612465e-02
3.897583e+02	-2.642639e-02
3.920096e+02	-2.673160e-02
3.942738e+02	-2.704032e-02
3.965511e+02	-2.735260e-02
3.988416e+02	-2.766847e-02
4.011452e+02	-2.798799e-02
4.034622e+02	-2.831117e-02
4.057926e+02	-2.863808e-02
4.081365e+02	-2.896875e-02
4.104938e+02	-2.930322e-02
4.128648e+02	-2.964155e-02
4.152495e+02	-2.998376e-02
4.176480e+02	-3.032992e-02
4.200603e+02	-3.068005e-02
4.224866e+02	-3.103421e-02
4.249268e+02	-3.139245e-02
4.273812e+02	-3.175481e-02
4.298497e+02	-3.212133e-02
4.323325e+02	-3.249207e-02
4.348297e+02	-3.286707e-02
4.373412e+02	-3.324638e-02
4.398673e+02	-3.363005e-02
4.424079e+02	-3.401813e-02
4.449633e+02	-3.441068e-02
4.475334e+02	-3.480773e-02
4.501183e+02	-3.520935e-02
4.527182e+02	-3.561558e-02
4.553330e+02	-3.602648e-02
4.579630e+02	-3.644210e-02
4.606082e+02	-3.686249e-02
4.632687e+02	-3.728772e-02
4.659445e+02	-3.771782e-02
4.686358e+02	-3.815287e-02
4.713426e+02	-3.859291e-02
4.740650e+02	-3.903801e-02
4.768032e+02	-3.948821e-02
4.795572e+02	-3.994358e-02
4.823271e+02	-4.040418e-02
4.851130e+02	-4.087007e-02
4.879150e+02	-4.134130e-02
4.907332e+02	-4.181793e-02
4.935676e+02	-4.230004e-02
4.964185e+02	-4.278768e-02
4.992858e+02	-4.328091e-02
5.021696e+02	-4.377980e-02
5.050701e+02	-4.428440e-02
5.079874e+02	-4.479480e-02
5.109215e+02	-4.531105e-02
5.138726e+02	-4.583321e-02
5.168407e+02	-4.636136e-02
5.198259e+02	-4.689556e-02
5.228284e+02	-4.743589e-02
5.258482e+02	-4.798240e-02
5.288855e+02	-4.853518e-02
5.319403e+02	-4.909429e-02
5.350128e+02	-4.965980e-02
5.381030e+02	-5.023179e-02
5.412111e+02	-5.081032e-02
5.443371e+02	-5.139548e-02
5.474812e+02	-5.198734e-02
5.506434e+02	-5.258598e-02
5.538239e+02	-5.319146e-02
5.570228e+02	-5.380388e-02
5.602401e+02	-5.442330e-02
5.634760e+02	-5.504980e-02
5.667306e+02	-5.568348e-02
5.700040e+02	-5.632439e-02
5.732964e+02	-5.697264e-02
5.766077e+02	-5.762830e-02
5.799382e+02	-5.829145e-02
5.832879e+02	-5.896218e-02
5.866569e+02	-5.964058e-02
5.900454e+02	-6.032673e-02
5.934535e+02	-6.102071e-02
5.968813e+02	-6.172262e-02
6.003288e+02	-6.243255e-02
6.037963e+02	-6.315058e-02
6.072838e+02	-6.387681e-02
6.107914e+02	-6.461133e-02
6.143194e+02	-6.535424e-02
6.178676e+02	-6.610562e-02
6.214364e+02	-6.686557e-02
6.250258e+02	-6.763419e-02
6.286359e+02	-6.841157e-02
6.322669e+02	-6.919782e-02
6.359189e+02	-6.999303e-02
6.395919e+02	-7.079731e-02
6.432862e+02	-7.161075e-02
6.470017e+02	-7.243346e-02
6.507388e+02	-7.326554e-02
6.544974e+02	-7.410709e-02
6.582778e+02	-7.495823e-02
6.620800e+02	-7.581906e-02
6.659041e+02	-7.668969e-02
6.697504e+02	-7.757023e-02
6.736188e+02	-7.846078e-02
6.775096e+02	-7.936147e-02
6.814229e+02	-8.027240e-02
6.853587e+02	-8.119368e-02
6.893173e+02	-8.212544e-02
6.932988e+02	-8.306779e-02
6.973033e+02	-8.402085e-02
7.013309e+02	-8.498474e-02
