Frequency(Hz)	Magnitude(dB)
1.000000e+01	-1.987436e+00
1.005776e+01	-2.006044e+00
1.011585e+01	-2.024322e+00
1.017428e+01	-2.043128e+00
1.023305e+01	-2.061917e+00
1.029215e+01	-2.080876e+00
1.035160e+01	-2.100013e+00
1.041139e+01	-2.119378e+00
1.047153e+01	-2.138723e+00
1.053201e+01	-2.158277e+00
1.059284e+01	-2.177956e+00
1.065403e+01	-2.197765e+00
1.071556e+01	-2.217709e+00
1.077746e+01	-2.237850e+00
1.083971e+01	-2.257892e+00
1.090232e+01	-2.278194e+00
1.096529e+01	-2.298569e+00
1.102862e+01	-2.319438e+00
1.109232e+01	-2.340214e+00
1.115639e+01	-2.361083e+00
1.122083e+01	-2.382120e+00
1.128564e+01	-2.403267e+00
1.135083e+01	-2.424602e+00
1.141639e+01	-2.445849e+00
1.148233e+01	-2.467719e+00
1.154865e+01	-2.489564e+00
1.161536e+01	-2.511554e+00
1.168245e+01	-2.533297e+00
1.174992e+01	-2.555579e+00
1.181779e+01	-2.578055e+00
1.188605e+01	-2.600432e+00
1.195470e+01	-2.623140e+00
1.202375e+01	-2.645903e+00
1.209320e+01	-2.668707e+00
1.216305e+01	-2.691667e+00
1.223330e+01	-2.715094e+00
1.230396e+01	-2.738173e+00
1.237503e+01	-2.761815e+00
1.244651e+01	-2.785340e+00
1.251840e+01	-2.808756e+00
1.259070e+01	-2.832997e+00
1.266343e+01	-2.857161e+00
1.273657e+01	-2.881141e+00
1.281014e+01	-2.905572e+00
1.288413e+01	-2.929867e+00
1.295855e+01	-2.954367e+00
1.303339e+01	-2.979246e+00
1.310867e+01	-3.004251e+00
1.318439e+01	-3.029404e+00
1.326054e+01	-3.054509e+00
1.333713e+01	-3.079945e+00
1.341417e+01	-3.105164e+00
1.349165e+01	-3.130795e+00
1.356958e+01	-3.156950e+00
1.364795e+01	-3.182532e+00
1.372678e+01	-3.208617e+00
1.380607e+01	-3.234812e+00
1.388581e+01	-3.261343e+00
1.396602e+01	-3.287648e+00
1.404668e+01	-3.314587e+00
1.412782e+01	-3.341104e+00
1.420942e+01	-3.368027e+00
1.429149e+01	-3.395045e+00
1.437404e+01	-3.422194e+00
1.445706e+01	-3.449607e+00
1.454057e+01	-3.477328e+00
1.462455e+01	-3.504718e+00
1.470902e+01	-3.532554e+00
1.479398e+01	-3.560347e+00
1.487943e+01	-3.588523e+00
1.496537e+01	-3.616712e+00
1.505181e+01	-3.645116e+00
1.513875e+01	-3.673641e+00
1.522619e+01	-3.702240e+00
1.531414e+01	-3.730948e+00
1.540259e+01	-3.759801e+00
1.549156e+01	-3.788851e+00
1.558103e+01	-3.817853e+00
1.567103e+01	-3.847566e+00
1.576155e+01	-3.877041e+00
1.585258e+01	-3.906379e+00
1.594415e+01	-3.935961e+00
1.603624e+01	-3.966108e+00
1.612886e+01	-3.996250e+00
1.622202e+01	-4.026185e+00
1.631572e+01	-4.056733e+00
1.640996e+01	-4.087031e+00
1.650474e+01	-4.117182e+00
1.660008e+01	-4.148553e+00
1.669596e+01	-4.179439e+00
1.679239e+01	-4.210275e+00
1.688938e+01	-4.241314e+00
1.698694e+01	-4.272121e+00
1.708505e+01	-4.304152e+00
1.718373e+01	-4.335299e+00
1.728299e+01	-4.367281e+00
1.738281e+01	-4.399102e+00
1.748322e+01	-4.430735e+00
1.758420e+01	-4.462739e+00
1.768576e+01	-4.494903e+00
1.778792e+01	-4.527321e+00
1.789066e+01	-4.559751e+00
1.799399e+01	-4.592379e+00
1.809793e+01	-4.625093e+00
1.820246e+01	-4.657864e+00
1.830760e+01	-4.691021e+00
1.841334e+01	-4.723858e+00
1.851969e+01	-4.757406e+00
1.862666e+01	-4.790424e+00
1.873425e+01	-4.824067e+00
1.884246e+01	-4.857856e+00
1.895129e+01	-4.891543e+00
1.906075e+01	-4.925553e+00
1.917085e+01	-4.959496e+00
1.928158e+01	-4.993426e+00
1.939295e+01	-5.027758e+00
1.950496e+01	-5.062163e+00
1.961762e+01	-5.096401e+00
1.973093e+01	-5.131224e+00
1.984490e+01	-5.166224e+00
1.995952e+01	-5.200711e+00
2.007480e+01	-5.235830e+00
2.019076e+01	-5.270814e+00
2.030738e+01	-5.306108e+00
2.042467e+01	-5.341153e+00
2.054264e+01	-5.376994e+00
2.066130e+01	-5.412467e+00
2.078064e+01	-5.448079e+00
2.090066e+01	-5.484021e+00
2.102139e+01	-5.520090e+00
2.114280e+01	-5.556190e+00
2.126492e+01	-5.592261e+00
2.138775e+01	-5.628715e+00
2.151128e+01	-5.664823e+00
2.163553e+01	-5.701188e+00
2.176050e+01	-5.737906e+00
2.188619e+01	-5.774695e+00
2.201260e+01	-5.811329e+00
2.213974e+01	-5.848379e+00
2.226762e+01	-5.885292e+00
2.239624e+01	-5.922917e+00
2.252560e+01	-5.959860e+00
2.265571e+01	-5.997363e+00
2.278656e+01	-6.034725e+00
2.291818e+01	-6.072989e+00
2.305055e+01	-6.110091e+00
2.318369e+01	-6.147886e+00
2.331760e+01	-6.186187e+00
2.345228e+01	-6.223950e+00
2.358774e+01	-6.262338e+00
2.372398e+01	-6.300630e+00
2.386101e+01	-6.338776e+00
2.399883e+01	-6.376992e+00
2.413745e+01	-6.415703e+00
2.427686e+01	-6.454219e+00
2.441709e+01	-6.493448e+00
2.455812e+01	-6.532173e+00
2.469997e+01	-6.571156e+00
2.484263e+01	-6.610170e+00
2.498612e+01	-6.649342e+00
2.513044e+01	-6.688496e+00
2.527559e+01	-6.727858e+00
2.542158e+01	-6.767419e+00
2.556842e+01	-6.807021e+00
2.571610e+01	-6.846318e+00
2.586463e+01	-6.886094e+00
2.601403e+01	-6.925889e+00
2.616428e+01	-6.966076e+00
2.631541e+01	-7.005532e+00
2.646740e+01	-7.046103e+00
2.662028e+01	-7.086277e+00
2.677404e+01	-7.126808e+00
2.692868e+01	-7.166946e+00
2.708422e+01	-7.207472e+00
2.724066e+01	-7.247951e+00
2.739800e+01	-7.288795e+00
2.755625e+01	-7.329086e+00
2.771541e+01	-7.370162e+00
2.787550e+01	-7.410916e+00
2.803650e+01	-7.451527e+00
2.819844e+01	-7.492888e+00
2.836131e+01	-7.534445e+00
2.852513e+01	-7.575342e+00
2.868989e+01	-7.616616e+00
2.885560e+01	-7.658048e+00
2.902227e+01	-7.699606e+00
2.918990e+01	-7.741112e+00
2.935850e+01	-7.783015e+00
2.952807e+01	-7.824882e+00
2.969863e+01	-7.866391e+00
2.987016e+01	-7.907812e+00
3.004269e+01	-7.950345e+00
3.021622e+01	-7.992503e+00
3.039075e+01	-8.034686e+00
3.056628e+01	-8.076823e+00
3.074283e+01	-8.119594e+00
3.092040e+01	-8.161343e+00
3.109900e+01	-8.204123e+00
3.127862e+01	-8.246327e+00
3.145929e+01	-8.288790e+00
3.164099e+01	-8.331447e+00
3.182375e+01	-8.374013e+00
3.200756e+01	-8.417253e+00
3.219244e+01	-8.459827e+00
3.237838e+01	-8.502724e+00
3.256540e+01	-8.545480e+00
3.275349e+01	-8.588828e+00
3.294268e+01	-8.631794e+00
3.313295e+01	-8.674675e+00
3.332433e+01	-8.718116e+00
3.351681e+01	-8.762109e+00
3.371040e+01	-8.805655e+00
3.390511e+01	-8.848168e+00
3.410094e+01	-8.892092e+00
3.429791e+01	-8.935612e+00
3.449601e+01	-8.979259e+00
3.469526e+01	-9.022864e+00
3.489566e+01	-9.066905e+00
3.509721e+01	-9.111164e+00
3.529993e+01	-9.154439e+00
3.550382e+01	-9.198677e+00
3.570889e+01	-9.243288e+00
3.591515e+01	-9.287105e+00
3.612259e+01	-9.331293e+00
3.633123e+01	-9.375199e+00
3.654108e+01	-9.419458e+00
3.675214e+01	-9.463482e+00
3.696442e+01	-9.507650e+00
3.717792e+01	-9.553036e+00
3.739266e+01	-9.597928e+00
3.760864e+01	-9.641718e+00
3.782587e+01	-9.686277e+00
3.804435e+01	-9.731185e+00
3.826409e+01	-9.775490e+00
3.848510e+01	-9.820424e+00
3.870739e+01	-9.865023e+00
3.893096e+01	-9.910253e+00
3.915583e+01	-9.955413e+00
3.938199e+01	-1.000046e+01
3.960946e+01	-1.004528e+01
3.983824e+01	-1.009053e+01
4.006834e+01	-1.013588e+01
4.029978e+01	-1.018062e+01
4.053255e+01	-1.022574e+01
4.076666e+01	-1.027116e+01
4.100213e+01	-1.031639e+01
4.123896e+01	-1.036184e+01
4.147715e+01	-1.040754e+01
4.171672e+01	-1.045292e+01
4.195767e+01	-1.049841e+01
4.220002e+01	-1.054472e+01
4.244377e+01	-1.058950e+01
4.268892e+01	-1.063582e+01
4.293549e+01	-1.068153e+01
4.318348e+01	-1.072745e+01
4.343291e+01	-1.077255e+01
4.368377e+01	-1.081831e+01
4.393609e+01	-1.086443e+01
4.418986e+01	-1.091097e+01
4.444510e+01	-1.095645e+01
4.470182e+01	-1.100238e+01
4.496001e+01	-1.104844e+01
4.521970e+01	-1.109499e+01
4.548089e+01	-1.114084e+01
4.574358e+01	-1.118684e+01
4.600779e+01	-1.123308e+01
4.627353e+01	-1.127905e+01
4.654081e+01	-1.132651e+01
4.680963e+01	-1.137248e+01
4.708000e+01	-1.141884e+01
4.735193e+01	-1.146551e+01
4.762543e+01	-1.151173e+01
4.790051e+01	-1.155839e+01
4.817719e+01	-1.160469e+01
4.845545e+01	-1.165135e+01
4.873533e+01	-1.169781e+01
4.901682e+01	-1.174471e+01
4.929994e+01	-1.179082e+01
4.958470e+01	-1.183838e+01
4.987110e+01	-1.188501e+01
5.015915e+01	-1.193138e+01
5.044887e+01	-1.197834e+01
5.074026e+01	-1.202518e+01
5.103333e+01	-1.207232e+01
5.132810e+01	-1.211882e+01
5.162457e+01	-1.216567e+01
5.192275e+01	-1.221379e+01
5.222265e+01	-1.226019e+01
5.252429e+01	-1.230639e+01
5.282767e+01	-1.235433e+01
5.313280e+01	-1.240134e+01
5.343969e+01	-1.244861e+01
5.374836e+01	-1.249588e+01
5.405880e+01	-1.254318e+01
5.437105e+01	-1.259067e+01
5.468509e+01	-1.263785e+01
5.500095e+01	-1.268421e+01
5.531863e+01	-1.273177e+01
5.563815e+01	-1.277957e+01
5.595951e+01	-1.282668e+01
5.628273e+01	-1.287435e+01
5.660782e+01	-1.292244e+01
5.693479e+01	-1.296974e+01
5.726364e+01	-1.301662e+01
5.759439e+01	-1.306469e+01
5.792705e+01	-1.311272e+01
5.826164e+01	-1.316000e+01
5.859815e+01	-1.320675e+01
5.893662e+01	-1.325469e+01
5.927703e+01	-1.330276e+01
5.961941e+01	-1.334952e+01
5.996377e+01	-1.339786e+01
6.031012e+01	-1.344517e+01
6.065847e+01	-1.349396e+01
6.100883e+01	-1.354203e+01
6.136121e+01	-1.358974e+01
6.171563e+01	-1.363795e+01
6.207210e+01	-1.368486e+01
6.243063e+01	-1.373366e+01
6.279122e+01	-1.378075e+01
6.315390e+01	-1.382823e+01
6.351868e+01	-1.387679e+01
6.388556e+01	-1.392427e+01
6.425456e+01	-1.397295e+01
6.462569e+01	-1.402004e+01
6.499897e+01	-1.406883e+01
6.537440e+01	-1.411732e+01
6.575200e+01	-1.416525e+01
6.613178e+01	-1.421331e+01
6.651375e+01	-1.426097e+01
6.689793e+01	-1.430949e+01
6.728433e+01	-1.435751e+01
6.767297e+01	-1.440619e+01
6.806384e+01	-1.445362e+01
6.845698e+01	-1.450222e+01
6.885238e+01	-1.454987e+01
6.925007e+01	-1.459899e+01
6.965005e+01	-1.464631e+01
7.005235e+01	-1.469471e+01
7.045697e+01	-1.474363e+01
7.086393e+01	-1.479207e+01
7.127323e+01	-1.484002e+01
7.168490e+01	-1.488872e+01
7.209895e+01	-1.493748e+01
7.251539e+01	-1.498621e+01
7.293424e+01	-1.503308e+01
7.335551e+01	-1.508176e+01
7.377920e+01	-1.513109e+01
7.420535e+01	-1.517882e+01
7.463396e+01	-1.522875e+01
7.506504e+01	-1.527658e+01
7.549861e+01	-1.532445e+01
7.593469e+01	-1.537296e+01
7.637328e+01	-1.542226e+01
7.681441e+01	-1.547120e+01
7.725809e+01	-1.551878e+01
7.770433e+01	-1.556820e+01
7.815315e+01	-1.561686e+01
7.860456e+01	-1.566516e+01
7.905857e+01	-1.571363e+01
7.951521e+01	-1.576194e+01
7.997449e+01	-1.581289e+01
8.043642e+01	-1.586036e+01
8.090102e+01	-1.590971e+01
8.136830e+01	-1.595799e+01
8.183828e+01	-1.600599e+01
8.231097e+01	-1.605544e+01
8.278640e+01	-1.610401e+01
8.326457e+01	-1.615127e+01
8.374550e+01	-1.620200e+01
8.422921e+01	-1.625169e+01
8.471572e+01	-1.629967e+01
8.520503e+01	-1.634751e+01
8.569717e+01	-1.639651e+01
8.619215e+01	-1.644637e+01
8.669000e+01	-1.649455e+01
8.719071e+01	-1.654340e+01
8.769432e+01	-1.659200e+01
8.820084e+01	-1.664226e+01
8.871029e+01	-1.669138e+01
8.922267e+01	-1.673964e+01
8.973802e+01	-1.678825e+01
9.025634e+01	-1.683719e+01
9.077766e+01	-1.688627e+01
9.130199e+01	-1.693583e+01
9.182935e+01	-1.698502e+01
9.235975e+01	-1.703412e+01
9.289321e+01	-1.708349e+01
9.342976e+01	-1.713227e+01
9.396941e+01	-1.718014e+01
9.451217e+01	-1.722956e+01
9.505807e+01	-1.727792e+01
9.560712e+01	-1.732792e+01
9.615934e+01	-1.737773e+01
9.671476e+01	-1.742582e+01
9.727338e+01	-1.747533e+01
9.783522e+01	-1.752392e+01
9.840032e+01	-1.757422e+01
9.896867e+01	-1.762333e+01
9.954031e+01	-1.767202e+01
1.001153e+02	-1.772086e+01
1.006935e+02	-1.777144e+01
1.012751e+02	-1.782011e+01
1.018601e+02	-1.786919e+01
1.024484e+02	-1.791878e+01
1.030402e+02	-1.796820e+01
1.036353e+02	-1.801633e+01
1.042339e+02	-1.806559e+01
1.048360e+02	-1.811461e+01
1.054415e+02	-1.816530e+01
1.060505e+02	-1.821354e+01
1.066631e+02	-1.826142e+01
1.072791e+02	-1.831308e+01
1.078988e+02	-1.836203e+01
1.085220e+02	-1.841083e+01
1.091488e+02	-1.845947e+01
1.097793e+02	-1.850855e+01
1.104133e+02	-1.855816e+01
1.110511e+02	-1.860764e+01
1.116925e+02	-1.865609e+01
1.123376e+02	-1.870705e+01
1.129865e+02	-1.875605e+01
1.136391e+02	-1.880643e+01
1.142955e+02	-1.885638e+01
1.149556e+02	-1.890308e+01
1.156196e+02	-1.895408e+01
1.162874e+02	-1.900367e+01
1.169591e+02	-1.905276e+01
1.176347e+02	-1.910330e+01
1.183141e+02	-1.915163e+01
1.189975e+02	-1.920237e+01
1.196848e+02	-1.925057e+01
1.203761e+02	-1.929905e+01
1.210714e+02	-1.935033e+01
1.217707e+02	-1.939795e+01
1.224740e+02	-1.944825e+01
1.231814e+02	-1.949713e+01
1.238929e+02	-1.954680e+01
1.246085e+02	-1.959623e+01
1.253283e+02	-1.964548e+01
1.260522e+02	-1.969389e+01
1.267802e+02	-1.974633e+01
1.275125e+02	-1.979404e+01
1.282490e+02	-1.984375e+01
1.289898e+02	-1.989332e+01
1.297348e+02	-1.994303e+01
1.304842e+02	-1.999171e+01
1.312378e+02	-2.004270e+01
1.319959e+02	-2.009167e+01
1.327583e+02	-2.014016e+01
1.335251e+02	-2.019131e+01
1.342963e+02	-2.024048e+01
1.350720e+02	-2.028987e+01
1.358522e+02	-2.033994e+01
1.366368e+02	-2.038864e+01
1.374260e+02	-2.043864e+01
1.382198e+02	-2.048843e+01
1.390182e+02	-2.053923e+01
1.398211e+02	-2.058679e+01
1.406287e+02	-2.063697e+01
1.414410e+02	-2.068723e+01
1.422579e+02	-2.073617e+01
1.430796e+02	-2.078557e+01
1.439060e+02	-2.083699e+01
1.447372e+02	-2.088509e+01
1.455732e+02	-2.093524e+01
1.464141e+02	-2.098580e+01
1.472597e+02	-2.103339e+01
1.481103e+02	-2.108344e+01
1.489658e+02	-2.113252e+01
1.498262e+02	-2.118294e+01
1.506916e+02	-2.123129e+01
1.515620e+02	-2.128221e+01
1.524374e+02	-2.133115e+01
1.533179e+02	-2.138082e+01
1.542034e+02	-2.143066e+01
1.550941e+02	-2.148229e+01
1.559899e+02	-2.152927e+01
1.568909e+02	-2.158052e+01
1.577971e+02	-2.163152e+01
1.587085e+02	-2.167989e+01
1.596252e+02	-2.173098e+01
1.605472e+02	-2.177836e+01
1.614745e+02	-2.182919e+01
1.624072e+02	-2.187586e+01
1.633453e+02	-2.192746e+01
1.642887e+02	-2.197819e+01
1.652377e+02	-2.202722e+01
1.661921e+02	-2.207807e+01
1.671520e+02	-2.212808e+01
1.681175e+02	-2.217831e+01
1.690885e+02	-2.222740e+01
1.700651e+02	-2.227655e+01
1.710474e+02	-2.232551e+01
1.720354e+02	-2.237537e+01
1.730291e+02	-2.242603e+01
1.740285e+02	-2.247517e+01
1.750337e+02	-2.252611e+01
1.760446e+02	-2.257499e+01
1.770615e+02	-2.262227e+01
1.780842e+02	-2.267450e+01
1.791128e+02	-2.272297e+01
1.801473e+02	-2.277430e+01
1.811878e+02	-2.282551e+01
1.822344e+02	-2.287349e+01
1.832870e+02	-2.292354e+01
1.843456e+02	-2.297505e+01
1.854104e+02	-2.302337e+01
1.864813e+02	-2.307255e+01
1.875584e+02	-2.312267e+01
1.886418e+02	-2.317224e+01
1.897313e+02	-2.322139e+01
1.908272e+02	-2.327082e+01
1.919294e+02	-2.331952e+01
1.930380e+02	-2.337143e+01
1.941530e+02	-2.342145e+01
1.952744e+02	-2.347291e+01
1.964023e+02	-2.352139e+01
1.975367e+02	-2.357063e+01
1.986777e+02	-2.361987e+01
1.998252e+02	-2.366970e+01
2.009794e+02	-2.371828e+01
2.021403e+02	-2.377034e+01
2.033078e+02	-2.382065e+01
2.044821e+02	-2.387098e+01
2.056632e+02	-2.391989e+01
2.068511e+02	-2.396912e+01
2.080459e+02	-2.401925e+01
2.092475e+02	-2.407075e+01
2.104561e+02	-2.411829e+01
2.116717e+02	-2.416548e+01
2.128943e+02	-2.421843e+01
2.141240e+02	-2.426979e+01
2.153608e+02	-2.432021e+01
2.166047e+02	-2.436858e+01
2.178558e+02	-2.441728e+01
2.191141e+02	-2.446500e+01
2.203797e+02	-2.451935e+01
2.216526e+02	-2.456630e+01
2.229329e+02	-2.461780e+01
2.242205e+02	-2.466750e+01
2.255156e+02	-2.471662e+01
2.268182e+02	-2.476803e+01
2.281283e+02	-2.481730e+01
2.294459e+02	-2.486851e+01
2.307712e+02	-2.491417e+01
2.321041e+02	-2.496762e+01
2.334447e+02	-2.501789e+01
2.347931e+02	-2.506973e+01
2.361493e+02	-2.511443e+01
2.375133e+02	-2.516852e+01
2.388851e+02	-2.521559e+01
2.402649e+02	-2.526550e+01
2.416527e+02	-2.531793e+01
2.430484e+02	-2.536765e+01
2.444523e+02	-2.541950e+01
2.458642e+02	-2.546554e+01
2.472843e+02	-2.551845e+01
2.487126e+02	-2.556682e+01
2.501492e+02	-2.561773e+01
2.515940e+02	-2.566518e+01
2.530472e+02	-2.571604e+01
2.545088e+02	-2.576794e+01
2.559789e+02	-2.581564e+01
2.574574e+02	-2.586343e+01
2.589444e+02	-2.591455e+01
2.604401e+02	-2.596317e+01
2.619444e+02	-2.601773e+01
2.634574e+02	-2.606583e+01
2.649791e+02	-2.611785e+01
2.665096e+02	-2.616680e+01
2.680489e+02	-2.621771e+01
2.695972e+02	-2.626519e+01
2.711544e+02	-2.631766e+01
2.727205e+02	-2.636511e+01
2.742958e+02	-2.641443e+01
2.758801e+02	-2.646383e+01
2.774736e+02	-2.651704e+01
2.790762e+02	-2.656551e+01
2.806882e+02	-2.661708e+01
2.823094e+02	-2.666811e+01
2.839400e+02	-2.671555e+01
2.855800e+02	-2.676594e+01
2.872295e+02	-2.681574e+01
2.888886e+02	-2.686295e+01
2.905572e+02	-2.691343e+01
2.922354e+02	-2.696433e+01
2.939234e+02	-2.701271e+01
2.956211e+02	-2.706272e+01
2.973286e+02	-2.711572e+01
2.990459e+02	-2.716517e+01
3.007732e+02	-2.721909e+01
3.025104e+02	-2.726304e+01
3.042577e+02	-2.731542e+01
3.060151e+02	-2.736634e+01
3.077826e+02	-2.741447e+01
3.095604e+02	-2.746550e+01
3.113484e+02	-2.751400e+01
3.131467e+02	-2.756255e+01
3.149554e+02	-2.761640e+01
3.167746e+02	-2.766558e+01
3.186043e+02	-2.771641e+01
3.204445e+02	-2.776465e+01
3.222954e+02	-2.781597e+01
3.241570e+02	-2.786683e+01
3.260293e+02	-2.791721e+01
3.279124e+02	-2.796383e+01
3.298064e+02	-2.801790e+01
3.317114e+02	-2.806740e+01
3.336273e+02	-2.811914e+01
3.355544e+02	-2.816182e+01
3.374925e+02	-2.821247e+01
3.394418e+02	-2.827120e+01
3.414024e+02	-2.831684e+01
3.433744e+02	-2.836221e+01
3.453577e+02	-2.841551e+01
3.473525e+02	-2.846451e+01
3.493588e+02	-2.852178e+01
3.513766e+02	-2.856714e+01
3.534062e+02	-2.861713e+01
3.554474e+02	-2.866624e+01
3.575005e+02	-2.871586e+01
3.595654e+02	-2.876143e+01
3.616422e+02	-2.881472e+01
3.637311e+02	-2.886459e+01
3.658320e+02	-2.891831e+01
3.679450e+02	-2.896444e+01
3.700702e+02	-2.901577e+01
3.722077e+02	-2.906793e+01
3.743576e+02	-2.911927e+01
3.765199e+02	-2.916766e+01
3.786946e+02	-2.921779e+01
3.808820e+02	-2.926747e+01
3.830819e+02	-2.931557e+01
3.852946e+02	-2.936656e+01
3.875200e+02	-2.941572e+01
3.897583e+02	-2.946962e+01
3.920096e+02	-2.951156e+01
3.942738e+02	-2.956631e+01
3.965511e+02	-2.962216e+01
3.988416e+02	-2.966727e+01
4.011452e+02	-2.971563e+01
4.034622e+02	-2.976914e+01
4.057926e+02	-2.981279e+01
4.081365e+02	-2.986378e+01
4.104938e+02	-2.991509e+01
4.128648e+02	-2.996799e+01
4.152495e+02	-3.001601e+01
4.176480e+02	-3.006892e+01
4.200603e+02	-3.011895e+01
4.224866e+02	-3.016583e+01
4.249268e+02	-3.021958e+01
4.273812e+02	-3.026240e+01
4.298497e+02	-3.031986e+01
4.323325e+02	-3.036962e+01
4.348297e+02	-3.042204e+01
4.373412e+02	-3.047069e+01
4.398673e+02	-3.051751e+01
4.424079e+02	-3.056636e+01
4.449633e+02	-3.062059e+01
4.475334e+02	-3.066530e+01
4.501183e+02	-3.071911e+01
4.527182e+02	-3.076859e+01
4.553330e+02	-3.081858e+01
4.579630e+02	-3.086315e+01
4.606082e+02	-3.092119e+01
4.632687e+02	-3.097200e+01
4.659445e+02	-3.102256e+01
4.686358e+02	-3.107138e+01
4.713426e+02	-3.111850e+01
4.740650e+02	-3.117176e+01
4.768032e+02	-3.122369e+01
4.795572e+02	-3.127055e+01
4.823271e+02	-3.132261e+01
4.851130e+02	-3.136548e+01
4.879150e+02	-3.142022e+01
4.907332e+02	-3.146894e+01
4.935676e+02	-3.152068e+01
4.964185e+02	-3.156772e+01
4.992858e+02	-3.162278e+01
5.021696e+02	-3.167294e+01
5.050701e+02	-3.172283e+01
5.079874e+02	-3.177265e+01
5.109215e+02	-3.182504e+01
5.138726e+02	-3.186944e+01
5.168407e+02	-3.191703e+01
5.198259e+02	-3.197139e+01
5.228284e+02	-3.202752e+01
5.258482e+02	-3.207036e+01
5.288855e+02	-3.212519e+01
5.319403e+02	-3.218012e+01
5.350128e+02	-3.222705e+01
5.381030e+02	-3.227229e+01
5.412111e+02	-3.231937e+01
5.443371e+02	-3.237389e+01
5.474812e+02	-3.242687e+01
5.506434e+02	-3.247102e+01
5.538239e+02	-3.252158e+01
5.570228e+02	-3.257946e+01
5.602401e+02	-3.262181e+01
5.634760e+02	-3.267691e+01
5.667306e+02	-3.272528e+01
5.700040e+02	-3.277570e+01
5.732964e+02	-3.282780e+01
5.766077e+02	-3.288053e+01
5.799382e+02	-3.293558e+01
5.832879e+02	-3.297376e+01
5.866569e+02	-3.302071e+01
5.900454e+02	-3.307428e+01
5.934535e+02	-3.312164e+01
5.968813e+02	-3.318043e+01
6.003288e+02	-3.322727e+01
6.037963e+02	-3.327478e+01
6.072838e+02	-3.332979e+01
6.107914e+02	-3.337874e+01
6.143194e+02	-3.342625e+01
6.178676e+02	-3.348272e+01
6.214364e+02	-3.353116e+01
6.250258e+02	-3.358241e+01
6.286359e+02	-3.363726e+01
6.322669e+02	-3.369343e+01
6.359189e+02	-3.372847e+01
6.395919e+02	-3.378351e+01
6.432862e+02	-3.382515e+01
6.470017e+02	-3.388105e+01
6.507388e+02	-3.392701e+01
6.544974e+02	-3.398237e+01
6.582778e+02	-3.403022e+01
6.620800e+02	-3.408704e+01
6.659041e+02	-3.412782e+01
6.697504e+02	-3.417872e+01
6.736188e+02	-3.423775e+01
6.775096e+02	-3.428638e+01
6.814229e+02	-3.433780e+01
6.853587e+02	-3.438254e+01
6.893173e+02	-3.443757e+01
6.932988e+02	-3.448982e+01
6.973033e+02	-3.453586e+01
7.013309e+02	-3.458694e+01
