Frequency(Hz)	Magnitude(dB)
1.000000e+01	-1.706955e-05
1.005776e+01	-1.726730e-05
1.011585e+01	-1.746735e-05
1.017428e+01	-1.766971e-05
1.023305e+01	-1.787442e-05
1.029215e+01	-1.808150e-05
1.035160e+01	-1.829098e-05
1.041139e+01	-1.850289e-05
1.047153e+01	-1.871725e-05
1.053201e+01	-1.893409e-05
1.059284e+01	-1.915345e-05
1.065403e+01	-1.937535e-05
1.071556e+01	-1.959981e-05
1.077746e+01	-1.982688e-05
1.083971e+01	-2.005658e-05
1.090232e+01	-2.028894e-05
1.096529e+01	-2.052400e-05
1.102862e+01	-2.076177e-05
1.109232e+01	-2.100230e-05
1.115639e+01	-2.124562e-05
1.122083e+01	-2.149175e-05
1.128564e+01	-2.174074e-05
1.135083e+01	-2.199261e-05
1.141639e+01	-2.224740e-05
1.148233e+01	-2.250515e-05
1.154865e+01	-2.276587e-05
1.161536e+01	-2.302962e-05
1.168245e+01	-2.329643e-05
1.174992e+01	-2.356632e-05
1.181779e+01	-2.383934e-05
1.188605e+01	-2.411553e-05
1.195470e+01	-2.439491e-05
1.202375e+01	-2.467753e-05
1.209320e+01	-2.496343e-05
1.216305e+01	-2.525263e-05
1.223330e+01	-2.554519e-05
1.230396e+01	-2.584114e-05
1.237503e+01	-2.614052e-05
1.244651e+01	-2.644336e-05
1.251840e+01	-2.674971e-05
1.259070e+01	-2.705961e-05
1.266343e+01	-2.737311e-05
1.273657e+01	-2.769023e-05
1.281014e+01	-2.801103e-05
1.288413e+01	-2.833554e-05
1.295855e+01	-2.866382e-05
1.303339e+01	-2.899590e-05
1.310867e+01	-2.933182e-05
1.318439e+01	-2.967164e-05
1.326054e+01	-3.001539e-05
1.333713e+01	-3.036312e-05
1.341417e+01	-3.071489e-05
1.349165e+01	-3.107073e-05
1.356958e+01	-3.143069e-05
1.364795e+01	-3.179482e-05
1.372678e+01	-3.216317e-05
1.380607e+01	-3.253579e-05
1.388581e+01	-3.291272e-05
1.396602e+01	-3.329403e-05
1.404668e+01	-3.367975e-05
1.412782e+01	-3.406993e-05
1.420942e+01	-3.446464e-05
1.429149e+01	-3.486392e-05
1.437404e+01	-3.526783e-05
1.445706e+01	-3.567641e-05
1.454057e+01	-3.608973e-05
1.462455e+01	-3.650784e-05
1.470902e+01	-3.693079e-05
1.479398e+01	-3.735865e-05
1.487943e+01	-3.779145e-05
1.496537e+01	-3.822928e-05
1.505181e+01	-3.867217e-05
1.513875e+01	-3.912020e-05
1.522619e+01	-3.957341e-05
1.531414e+01	-4.003188e-05
1.540259e+01	-4.049566e-05
1.549156e+01	-4.096481e-05
1.558103e+01	-4.143940e-05
1.567103e+01	-4.191948e-05
1.576155e+01	-4.240513e-05
1.585258e+01	-4.289640e-05
1.594415e+01	-4.339337e-05
1.603624e+01	-4.389609e-05
1.612886e+01	-4.440463e-05
1.622202e+01	-4.491907e-05
1.631572e+01	-4.543947e-05
1.640996e+01	-4.596589e-05
1.650474e+01	-4.649842e-05
1.660008e+01	-4.703711e-05
1.669596e+01	-4.758205e-05
1.679239e+01	-4.813330e-05
1.688938e+01	-4.869093e-05
1.698694e+01	-4.925503e-05
1.708505e+01	-4.982566e-05
1.718373e+01	-5.040290e-05
1.728299e+01	-5.098683e-05
1.738281e+01	-5.157752e-05
1.748322e+01	-5.217506e-05
1.758420e+01	-5.277951e-05
1.768576e+01	-5.339098e-05
1.778792e+01	-5.400952e-05
1.789066e+01	-5.463523e-05
1.799399e+01	-5.526819e-05
1.809793e+01	-5.590849e-05
1.820246e+01	-5.655620e-05
1.830760e+01	-5.721141e-05
1.841334e+01	-5.787422e-05
1.851969e+01	-5.854470e-05
1.862666e+01	-5.922296e-05
1.873425e+01	-5.990907e-05
1.884246e+01	-6.060312e-05
1.895129e+01	-6.130522e-05
1.906075e+01	-6.201546e-05
1.917085e+01	-6.273392e-05
1.928158e+01	-6.346070e-05
1.939295e+01	-6.419591e-05
1.950496e+01	-6.493963e-05
1.961762e+01	-6.569197e-05
1.973093e+01	-6.645302e-05
1.984490e+01	-6.722289e-05
1.995952e+01	-6.800168e-05
2.007480e+01	-6.878949e-05
2.019076e+01	-6.958643e-05
2.030738e+01	-7.039260e-05
2.042467e+01	-7.120812e-05
2.054264e+01	-7.203307e-05
2.066130e+01	-7.286759e-05
2.078064e+01	-7.371178e-05
2.090066e+01	-7.456574e-05
2.102139e+01	-7.542960e-05
2.114280e+01	-7.630346e-05
2.126492e+01	-7.718745e-05
2.138775e+01	-7.808168e-05
2.151128e+01	-7.898627e-05
2.163553e+01	-7.990134e-05
2.176050e+01	-8.082701e-05
2.188619e+01	-8.176341e-05
2.201260e+01	-8.271065e-05
2.213974e+01	-8.366887e-05
2.226762e+01	-8.463818e-05
2.239624e+01	-8.561873e-05
2.252560e+01	-8.661064e-05
2.265571e+01	-8.761404e-05
2.278656e+01	-8.862906e-05
2.291818e+01	-8.965584e-05
2.305055e+01	-9.069452e-05
2.318369e+01	-9.174523e-05
2.331760e+01	-9.280811e-05
2.345228e+01	-9.388331e-05
2.358774e+01	-9.497096e-05
2.372398e+01	-9.607121e-05
2.386101e+01	-9.718421e-05
2.399883e+01	-9.831011e-05
2.413745e+01	-9.944904e-05
2.427686e+01	-1.006012e-04
2.441709e+01	-1.017667e-04
2.455812e+01	-1.029456e-04
2.469997e+01	-1.041383e-04
2.484263e+01	-1.053447e-04
2.498612e+01	-1.065652e-04
2.513044e+01	-1.077997e-04
2.527559e+01	-1.090486e-04
2.542158e+01	-1.103120e-04
2.556842e+01	-1.115899e-04
2.571610e+01	-1.128827e-04
2.586463e+01	-1.141905e-04
2.601403e+01	-1.155134e-04
2.616428e+01	-1.168516e-04
2.631541e+01	-1.182054e-04
2.646740e+01	-1.195748e-04
2.662028e+01	-1.209601e-04
2.677404e+01	-1.223614e-04
2.692868e+01	-1.237790e-04
2.708422e+01	-1.252130e-04
2.724066e+01	-1.266636e-04
2.739800e+01	-1.281310e-04
2.755625e+01	-1.296154e-04
2.771541e+01	-1.311170e-04
2.787550e+01	-1.326360e-04
2.803650e+01	-1.341726e-04
2.819844e+01	-1.357270e-04
2.836131e+01	-1.372994e-04
2.852513e+01	-1.388901e-04
2.868989e+01	-1.404991e-04
2.885560e+01	-1.421268e-04
2.902227e+01	-1.437734e-04
2.918990e+01	-1.454390e-04
2.935850e+01	-1.471239e-04
2.952807e+01	-1.488284e-04
2.969863e+01	-1.505525e-04
2.987016e+01	-1.522967e-04
3.004269e+01	-1.540611e-04
3.021622e+01	-1.558459e-04
3.039075e+01	-1.576514e-04
3.056628e+01	-1.594778e-04
3.074283e+01	-1.613253e-04
3.092040e+01	-1.631943e-04
3.109900e+01	-1.650849e-04
3.127862e+01	-1.669974e-04
3.145929e+01	-1.689321e-04
3.164099e+01	-1.708892e-04
3.182375e+01	-1.728689e-04
3.200756e+01	-1.748716e-04
3.219244e+01	-1.768975e-04
3.237838e+01	-1.789469e-04
3.256540e+01	-1.810200e-04
3.275349e+01	-1.831171e-04
3.294268e+01	-1.852385e-04
3.313295e+01	-1.873845e-04
3.332433e+01	-1.895554e-04
3.351681e+01	-1.917514e-04
3.371040e+01	-1.939728e-04
3.390511e+01	-1.962200e-04
3.410094e+01	-1.984932e-04
3.429791e+01	-2.007928e-04
3.449601e+01	-2.031190e-04
3.469526e+01	-2.054721e-04
3.489566e+01	-2.078525e-04
3.509721e+01	-2.102605e-04
3.529993e+01	-2.126963e-04
3.550382e+01	-2.151604e-04
3.570889e+01	-2.176530e-04
3.591515e+01	-2.201746e-04
3.612259e+01	-2.227253e-04
3.633123e+01	-2.253055e-04
3.654108e+01	-2.279157e-04
3.675214e+01	-2.305561e-04
3.696442e+01	-2.332271e-04
3.717792e+01	-2.359290e-04
3.739266e+01	-2.386622e-04
3.760864e+01	-2.414271e-04
3.782587e+01	-2.442240e-04
3.804435e+01	-2.470534e-04
3.826409e+01	-2.499155e-04
3.848510e+01	-2.528107e-04
3.870739e+01	-2.557395e-04
3.893096e+01	-2.587022e-04
3.915583e+01	-2.616993e-04
3.938199e+01	-2.647311e-04
3.960946e+01	-2.677979e-04
3.983824e+01	-2.709004e-04
4.006834e+01	-2.740387e-04
4.029978e+01	-2.772134e-04
4.053255e+01	-2.804249e-04
4.076666e+01	-2.836736e-04
4.100213e+01	-2.869600e-04
4.123896e+01	-2.902844e-04
4.147715e+01	-2.936473e-04
4.171672e+01	-2.970491e-04
4.195767e+01	-3.004904e-04
4.220002e+01	-3.039716e-04
4.244377e+01	-3.074930e-04
4.268892e+01	-3.110553e-04
4.293549e+01	-3.146588e-04
4.318348e+01	-3.183041e-04
4.343291e+01	-3.219916e-04
4.368377e+01	-3.257218e-04
4.393609e+01	-3.294953e-04
4.418986e+01	-3.333124e-04
4.444510e+01	-3.371738e-04
4.470182e+01	-3.410799e-04
4.496001e+01	-3.450312e-04
4.521970e+01	-3.490283e-04
4.548089e+01	-3.530718e-04
4.574358e+01	-3.571620e-04
4.600779e+01	-3.612997e-04
4.627353e+01	-3.654853e-04
4.654081e+01	-3.697193e-04
4.680963e+01	-3.740024e-04
4.708000e+01	-3.783352e-04
4.735193e+01	-3.827181e-04
4.762543e+01	-3.871518e-04
4.790051e+01	-3.916369e-04
4.817719e+01	-3.961739e-04
4.845545e+01	-4.007634e-04
4.873533e+01	-4.054062e-04
4.901682e+01	-4.101027e-04
4.929994e+01	-4.148536e-04
4.958470e+01	-4.196596e-04
4.987110e+01	-4.245212e-04
5.015915e+01	-4.294392e-04
5.044887e+01	-4.344141e-04
5.074026e+01	-4.394467e-04
5.103333e+01	-4.445375e-04
5.132810e+01	-4.496873e-04
5.162457e+01	-4.548968e-04
5.192275e+01	-4.601666e-04
5.222265e+01	-4.654975e-04
5.252429e+01	-4.708901e-04
5.282767e+01	-4.763452e-04
5.313280e+01	-4.818635e-04
5.343969e+01	-4.874457e-04
5.374836e+01	-4.930926e-04
5.405880e+01	-4.988049e-04
5.437105e+01	-5.045833e-04
5.468509e+01	-5.104287e-04
5.500095e+01	-5.163418e-04
5.531863e+01	-5.223234e-04
5.563815e+01	-5.283743e-04
5.595951e+01	-5.344953e-04
5.628273e+01	-5.406872e-04
5.660782e+01	-5.469508e-04
5.693479e+01	-5.532870e-04
5.726364e+01	-5.596966e-04
5.759439e+01	-5.661804e-04
5.792705e+01	-5.727393e-04
5.826164e+01	-5.793742e-04
5.859815e+01	-5.860860e-04
5.893662e+01	-5.928755e-04
5.927703e+01	-5.997436e-04
5.961941e+01	-6.066913e-04
5.996377e+01	-6.137195e-04
6.031012e+01	-6.208291e-04
6.065847e+01	-6.280211e-04
6.100883e+01	-6.352963e-04
6.136121e+01	-6.426559e-04
6.171563e+01	-6.501007e-04
6.207210e+01	-6.576317e-04
6.243063e+01	-6.652500e-04
6.279122e+01	-6.729565e-04
6.315390e+01	-6.807522e-04
6.351868e+01	-6.886383e-04
6.388556e+01	-6.966157e-04
6.425456e+01	-7.046856e-04
6.462569e+01	-7.128489e-04
6.499897e+01	-7.211067e-04
6.537440e+01	-7.294603e-04
6.575200e+01	-7.379105e-04
6.613178e+01	-7.464587e-04
6.651375e+01	-7.551059e-04
6.689793e+01	-7.638532e-04
6.728433e+01	-7.727019e-04
6.767297e+01	-7.816530e-04
6.806384e+01	-7.907079e-04
6.845698e+01	-7.998676e-04
6.885238e+01	-8.091334e-04
6.925007e+01	-8.185066e-04
6.965005e+01	-8.279883e-04
7.005235e+01	-8.375798e-04
7.045697e+01	-8.472825e-04
7.086393e+01	-8.570975e-04
7.127323e+01	-8.670262e-04
7.168490e+01	-8.770699e-04
7.209895e+01	-8.872300e-04
7.251539e+01	-8.975077e-04
7.293424e+01	-9.079045e-04
7.335551e+01	-9.184217e-04
7.377920e+01	-9.290608e-04
7.420535e+01	-9.398230e-04
7.463396e+01	-9.507099e-04
7.506504e+01	-9.617230e-04
7.549861e+01	-9.728635e-04
7.593469e+01	-9.841331e-04
7.637328e+01	-9.955333e-04
7.681441e+01	-1.007065e-03
7.725809e+01	-1.018731e-03
7.770433e+01	-1.030532e-03
7.815315e+01	-1.042470e-03
7.860456e+01	-1.054545e-03
7.905857e+01	-1.066761e-03
7.951521e+01	-1.079118e-03
7.997449e+01	-1.091619e-03
8.043642e+01	-1.104264e-03
8.090102e+01	-1.117055e-03
8.136830e+01	-1.129995e-03
8.183828e+01	-1.143085e-03
8.231097e+01	-1.156326e-03
8.278640e+01	-1.169720e-03
8.326457e+01	-1.183270e-03
8.374550e+01	-1.196977e-03
8.422921e+01	-1.210842e-03
8.471572e+01	-1.224868e-03
8.520503e+01	-1.239056e-03
8.569717e+01	-1.253409e-03
8.619215e+01	-1.267928e-03
8.669000e+01	-1.282615e-03
8.719071e+01	-1.297472e-03
8.769432e+01	-1.312502e-03
8.820084e+01	-1.327705e-03
8.871029e+01	-1.343084e-03
8.922267e+01	-1.358642e-03
8.973802e+01	-1.374380e-03
9.025634e+01	-1.390300e-03
9.077766e+01	-1.406404e-03
9.130199e+01	-1.422695e-03
9.182935e+01	-1.439175e-03
9.235975e+01	-1.455845e-03
9.289321e+01	-1.472709e-03
9.342976e+01	-1.489767e-03
9.396941e+01	-1.507024e-03
9.451217e+01	-1.524480e-03
9.505807e+01	-1.542138e-03
9.560712e+01	-1.560001e-03
9.615934e+01	-1.578071e-03
9.671476e+01	-1.596350e-03
9.727338e+01	-1.614841e-03
9.783522e+01	-1.633546e-03
9.840032e+01	-1.652467e-03
9.896867e+01	-1.671608e-03
9.954031e+01	-1.690970e-03
1.001153e+02	-1.710556e-03
1.006935e+02	-1.730370e-03
1.012751e+02	-1.750412e-03
1.018601e+02	-1.770687e-03
1.024484e+02	-1.791197e-03
1.030402e+02	-1.811944e-03
1.036353e+02	-1.832931e-03
1.042339e+02	-1.854162e-03
1.048360e+02	-1.875638e-03
1.054415e+02	-1.897363e-03
1.060505e+02	-1.919340e-03
1.066631e+02	-1.941571e-03
1.072791e+02	-1.964059e-03
1.078988e+02	-1.986808e-03
1.085220e+02	-2.009821e-03
1.091488e+02	-2.033100e-03
1.097793e+02	-2.056648e-03
1.104133e+02	-2.080469e-03
1.110511e+02	-2.104566e-03
1.116925e+02	-2.128942e-03
1.123376e+02	-2.153600e-03
1.129865e+02	-2.178544e-03
1.136391e+02	-2.203777e-03
1.142955e+02	-2.229301e-03
1.149556e+02	-2.255122e-03
1.156196e+02	-2.281241e-03
1.162874e+02	-2.307663e-03
1.169591e+02	-2.334391e-03
1.176347e+02	-2.361428e-03
1.183141e+02	-2.388778e-03
1.189975e+02	-2.416445e-03
1.196848e+02	-2.444432e-03
1.203761e+02	-2.472744e-03
1.210714e+02	-2.501383e-03
1.217707e+02	-2.530353e-03
1.224740e+02	-2.559660e-03
1.231814e+02	-2.589305e-03
1.238929e+02	-2.619294e-03
1.246085e+02	-2.649630e-03
1.253283e+02	-2.680317e-03
1.260522e+02	-2.711359e-03
1.267802e+02	-2.742761e-03
1.275125e+02	-2.774527e-03
1.282490e+02	-2.806660e-03
1.289898e+02	-2.839165e-03
1.297348e+02	-2.872047e-03
1.304842e+02	-2.905309e-03
1.312378e+02	-2.938956e-03
1.319959e+02	-2.972993e-03
1.327583e+02	-3.007424e-03
1.335251e+02	-3.042254e-03
1.342963e+02	-3.077487e-03
1.350720e+02	-3.113127e-03
1.358522e+02	-3.149181e-03
1.366368e+02	-3.185651e-03
1.374260e+02	-3.222544e-03
1.382198e+02	-3.259864e-03
1.390182e+02	-3.297616e-03
1.398211e+02	-3.335805e-03
1.406287e+02	-3.374436e-03
1.414410e+02	-3.413515e-03
1.422579e+02	-3.453045e-03
1.430796e+02	-3.493034e-03
1.439060e+02	-3.533485e-03
1.447372e+02	-3.574404e-03
1.455732e+02	-3.615798e-03
1.464141e+02	-3.657670e-03
1.472597e+02	-3.700027e-03
1.481103e+02	-3.742874e-03
1.489658e+02	-3.786217e-03
1.498262e+02	-3.830062e-03
1.506916e+02	-3.874415e-03
1.515620e+02	-3.919281e-03
1.524374e+02	-3.964666e-03
1.533179e+02	-4.010576e-03
1.542034e+02	-4.057018e-03
1.550941e+02	-4.103997e-03
1.559899e+02	-4.151520e-03
1.568909e+02	-4.199594e-03
1.577971e+02	-4.248223e-03
1.587085e+02	-4.297415e-03
1.596252e+02	-4.347177e-03
1.605472e+02	-4.397515e-03
1.614745e+02	-4.448435e-03
1.624072e+02	-4.499944e-03
1.633453e+02	-4.552050e-03
1.642887e+02	-4.604759e-03
1.652377e+02	-4.658077e-03
1.661921e+02	-4.712013e-03
1.671520e+02	-4.766573e-03
1.681175e+02	-4.821764e-03
1.690885e+02	-4.877594e-03
1.700651e+02	-4.934070e-03
1.710474e+02	-4.991200e-03
1.720354e+02	-5.048990e-03
1.730291e+02	-5.107450e-03
1.740285e+02	-5.166586e-03
1.750337e+02	-5.226406e-03
1.760446e+02	-5.286918e-03
1.770615e+02	-5.348131e-03
1.780842e+02	-5.410051e-03
1.791128e+02	-5.472689e-03
1.801473e+02	-5.536051e-03
1.811878e+02	-5.600146e-03
1.822344e+02	-5.664982e-03
1.832870e+02	-5.730569e-03
1.843456e+02	-5.796915e-03
1.854104e+02	-5.864028e-03
1.864813e+02	-5.931918e-03
1.875584e+02	-6.000593e-03
1.886418e+02	-6.070063e-03
1.897313e+02	-6.140336e-03
1.908272e+02	-6.211423e-03
1.919294e+02	-6.283331e-03
1.930380e+02	-6.356072e-03
1.941530e+02	-6.429654e-03
1.952744e+02	-6.504087e-03
1.964023e+02	-6.579382e-03
1.975367e+02	-6.655547e-03
1.986777e+02	-6.732593e-03
1.998252e+02	-6.810531e-03
2.009794e+02	-6.889370e-03
2.021403e+02	-6.969120e-03
2.033078e+02	-7.049794e-03
2.044821e+02	-7.131400e-03
2.056632e+02	-7.213950e-03
2.068511e+02	-7.297455e-03
2.080459e+02	-7.381926e-03
2.092475e+02	-7.467374e-03
2.104561e+02	-7.553810e-03
2.116717e+02	-7.641246e-03
2.128943e+02	-7.729692e-03
2.141240e+02	-7.819162e-03
2.153608e+02	-7.909666e-03
2.166047e+02	-8.001217e-03
2.178558e+02	-8.093827e-03
2.191141e+02	-8.187507e-03
2.203797e+02	-8.282271e-03
2.216526e+02	-8.378130e-03
2.229329e+02	-8.475098e-03
2.242205e+02	-8.573187e-03
2.255156e+02	-8.672410e-03
2.268182e+02	-8.772780e-03
2.281283e+02	-8.874311e-03
2.294459e+02	-8.977015e-03
2.307712e+02	-9.080907e-03
2.321041e+02	-9.186000e-03
2.334447e+02	-9.292308e-03
2.347931e+02	-9.399845e-03
2.361493e+02	-9.508625e-03
2.375133e+02	-9.618662e-03
2.388851e+02	-9.729972e-03
2.402649e+02	-9.842568e-03
2.416527e+02	-9.956465e-03
2.430484e+02	-1.007168e-02
2.444523e+02	-1.018823e-02
2.458642e+02	-1.030612e-02
2.472843e+02	-1.042537e-02
2.487126e+02	-1.054601e-02
2.501492e+02	-1.066803e-02
2.515940e+02	-1.079147e-02
2.530472e+02	-1.091634e-02
2.545088e+02	-1.104264e-02
2.559789e+02	-1.117041e-02
2.574574e+02	-1.129965e-02
2.589444e+02	-1.143039e-02
2.604401e+02	-1.156264e-02
2.619444e+02	-1.169641e-02
2.634574e+02	-1.183173e-02
2.649791e+02	-1.196862e-02
2.665096e+02	-1.210708e-02
2.680489e+02	-1.224715e-02
2.695972e+02	-1.238883e-02
2.711544e+02	-1.253215e-02
2.727205e+02	-1.267713e-02
2.742958e+02	-1.282378e-02
2.758801e+02	-1.297212e-02
2.774736e+02	-1.312218e-02
2.790762e+02	-1.327397e-02
2.806882e+02	-1.342751e-02
2.823094e+02	-1.358283e-02
2.839400e+02	-1.373994e-02
2.855800e+02	-1.389886e-02
2.872295e+02	-1.405962e-02
2.888886e+02	-1.422224e-02
2.905572e+02	-1.438674e-02
2.922354e+02	-1.455313e-02
2.939234e+02	-1.472144e-02
2.956211e+02	-1.489170e-02
2.973286e+02	-1.506393e-02
2.990459e+02	-1.523814e-02
3.007732e+02	-1.541436e-02
3.025104e+02	-1.559262e-02
3.042577e+02	-1.577294e-02
3.060151e+02	-1.595533e-02
3.077826e+02	-1.613983e-02
3.095604e+02	-1.632646e-02
3.113484e+02	-1.651525e-02
3.131467e+02	-1.670621e-02
3.149554e+02	-1.689938e-02
3.167746e+02	-1.709478e-02
3.186043e+02	-1.729243e-02
3.204445e+02	-1.749236e-02
3.222954e+02	-1.769460e-02
3.241570e+02	-1.789917e-02
3.260293e+02	-1.810611e-02
3.279124e+02	-1.831543e-02
3.298064e+02	-1.852716e-02
3.317114e+02	-1.874134e-02
3.336273e+02	-1.895799e-02
3.355544e+02	-1.917713e-02
3.374925e+02	-1.939881e-02
3.394418e+02	-1.962304e-02
3.414024e+02	-1.984985e-02
3.433744e+02	-2.007929e-02
3.453577e+02	-2.031136e-02
3.473525e+02	-2.054612e-02
3.493588e+02	-2.078358e-02
3.513766e+02	-2.102378e-02
3.534062e+02	-2.126674e-02
3.554474e+02	-2.151251e-02
3.575005e+02	-2.176111e-02
3.595654e+02	-2.201258e-02
3.616422e+02	-2.226695e-02
3.637311e+02	-2.252424e-02
3.658320e+02	-2.278450e-02
3.679450e+02	-2.304777e-02
3.700702e+02	-2.331406e-02
3.722077e+02	-2.358342e-02
3.743576e+02	-2.385589e-02
3.765199e+02	-2.413150e-02
3.786946e+02	-2.441028e-02
3.808820e+02	-2.469227e-02
3.830819e+02	-2.497751e-02
3.852946e+02	-2.526604e-02
3.875200e+02	-2.555789e-02
3.897583e+02	-2.585310e-02
3.920096e+02	-2.615171e-02
3.942738e+02	-2.645376e-02
3.965511e+02	-2.675928e-02
3.988416e+02	-2.706833e-02
4.011452e+02	-2.738093e-02
4.034622e+02	-2.769713e-02
4.057926e+02	-2.801697e-02
4.081365e+02	-2.834049e-02
4.104938e+02	-2.866774e-02
4.128648e+02	-2.899875e-02
4.152495e+02	-2.933357e-02
4.176480e+02	-2.967224e-02
4.200603e+02	-3.001481e-02
4.224866e+02	-3.036132e-02
4.249268e+02	-3.071181e-02
4.273812e+02	-3.106634e-02
4.298497e+02	-3.142495e-02
4.323325e+02	-3.178768e-02
4.348297e+02	-3.215458e-02
4.373412e+02	-3.252570e-02
4.398673e+02	-3.290108e-02
4.424079e+02	-3.328079e-02
4.449633e+02	-3.366485e-02
4.475334e+02	-3.405334e-02
4.501183e+02	-3.444628e-02
4.527182e+02	-3.484375e-02
4.553330e+02	-3.524578e-02
4.579630e+02	-3.565243e-02
4.606082e+02	-3.606375e-02
4.632687e+02	-3.647980e-02
4.659445e+02	-3.690063e-02
4.686358e+02	-3.732629e-02
4.713426e+02	-3.775684e-02
4.740650e+02	-3.819233e-02
4.768032e+02	-3.863283e-02
4.795572e+02	-3.907838e-02
4.823271e+02	-3.952905e-02
4.851130e+02	-3.998489e-02
4.879150e+02	-4.044596e-02
4.907332e+02	-4.091232e-02
4.935676e+02	-4.138404e-02
4.964185e+02	-4.186117e-02
4.992858e+02	-4.234377e-02
5.021696e+02	-4.283191e-02
5.050701e+02	-4.332565e-02
5.079874e+02	-4.382505e-02
5.109215e+02	-4.433018e-02
5.138726e+02	-4.484110e-02
5.168407e+02	-4.535787e-02
5.198259e+02	-4.588057e-02
5.228284e+02	-4.640927e-02
5.258482e+02	-4.694402e-02
5.288855e+02	-4.748490e-02
5.319403e+02	-4.803197e-02
5.350128e+02	-4.858532e-02
5.381030e+02	-4.914500e-02
5.412111e+02	-4.971109e-02
5.443371e+02	-5.028367e-02
5.474812e+02	-5.086280e-02
5.506434e+02	-5.144856e-02
5.538239e+02	-5.204103e-02
5.570228e+02	-5.264028e-02
5.602401e+02	-5.324638e-02
5.634760e+02	-5.385942e-02
5.667306e+02	-5.447948e-02
5.700040e+02	-5.510663e-02
5.732964e+02	-5.574095e-02
5.766077e+02	-5.638253e-02
5.799382e+02	-5.703144e-02
5.832879e+02	-5.768777e-02
5.866569e+02	-5.835160e-02
5.900454e+02	-5.902302e-02
5.934535e+02	-5.970211e-02
5.968813e+02	-6.038896e-02
6.003288e+02	-6.108365e-02
6.037963e+02	-6.178628e-02
6.072838e+02	-6.249694e-02
6.107914e+02	-6.321571e-02
6.143194e+02	-6.394268e-02
6.178676e+02	-6.467795e-02
6.214364e+02	-6.542162e-02
6.250258e+02	-6.617376e-02
6.286359e+02	-6.693449e-02
6.322669e+02	-6.770390e-02
6.359189e+02	-6.848208e-02
6.395919e+02	-6.926913e-02
6.432862e+02	-7.006515e-02
6.470017e+02	-7.087025e-02
6.507388e+02	-7.168452e-02
6.544974e+02	-7.250807e-02
6.582778e+02	-7.334100e-02
6.620800e+02	-7.418342e-02
6.659041e+02	-7.503543e-02
6.697504e+02	-7.589713e-02
6.736188e+02	-7.676865e-02
6.775096e+02	-7.765009e-02
6.814229e+02	-7.854155e-02
6.853587e+02	-7.944315e-02
6.893173e+02	-8.035501e-02
6.932988e+02	-8.127723e-02
6.973033e+02	-8.220994e-02
7.013309e+02	-8.315325e-02
