Frequency(Hz)	Magnitude(dB)
1.000000e+01	-1.954518e+00
1.005776e+01	-1.972913e+00
1.011585e+01	-1.991043e+00
1.017428e+01	-2.009406e+00
1.023305e+01	-2.027916e+00
1.029215e+01	-2.047059e+00
1.035160e+01	-2.065763e+00
1.041139e+01	-2.084741e+00
1.047153e+01	-2.103693e+00
1.053201e+01	-2.123180e+00
1.059284e+01	-2.142435e+00
1.065403e+01	-2.162002e+00
1.071556e+01	-2.181704e+00
1.077746e+01	-2.201569e+00
1.083971e+01	-2.221682e+00
1.090232e+01	-2.241727e+00
1.096529e+01	-2.261793e+00
1.102862e+01	-2.282381e+00
1.109232e+01	-2.302715e+00
1.115639e+01	-2.323596e+00
1.122083e+01	-2.344292e+00
1.128564e+01	-2.365120e+00
1.135083e+01	-2.386238e+00
1.141639e+01	-2.407423e+00
1.148233e+01	-2.428704e+00
1.154865e+01	-2.450476e+00
1.161536e+01	-2.471989e+00
1.168245e+01	-2.493670e+00
1.174992e+01	-2.515769e+00
1.181779e+01	-2.537726e+00
1.188605e+01	-2.560192e+00
1.195470e+01	-2.582450e+00
1.202375e+01	-2.604719e+00
1.209320e+01	-2.627433e+00
1.216305e+01	-2.650535e+00
1.223330e+01	-2.673148e+00
1.230396e+01	-2.696342e+00
1.237503e+01	-2.719421e+00
1.244651e+01	-2.742684e+00
1.251840e+01	-2.766359e+00
1.259070e+01	-2.790063e+00
1.266343e+01	-2.813603e+00
1.273657e+01	-2.837541e+00
1.281014e+01	-2.861714e+00
1.288413e+01	-2.885941e+00
1.295855e+01	-2.910131e+00
1.303339e+01	-2.934637e+00
1.310867e+01	-2.959163e+00
1.318439e+01	-2.984362e+00
1.326054e+01	-3.009330e+00
1.333713e+01	-3.034131e+00
1.341417e+01	-3.059440e+00
1.349165e+01	-3.084801e+00
1.356958e+01	-3.110212e+00
1.364795e+01	-3.135903e+00
1.372678e+01	-3.161598e+00
1.380607e+01	-3.187727e+00
1.388581e+01	-3.214025e+00
1.396602e+01	-3.240035e+00
1.404668e+01	-3.266255e+00
1.412782e+01	-3.292950e+00
1.420942e+01	-3.319475e+00
1.429149e+01	-3.346452e+00
1.437404e+01	-3.373504e+00
1.445706e+01	-3.400410e+00
1.454057e+01	-3.427639e+00
1.462455e+01	-3.455204e+00
1.470902e+01	-3.482785e+00
1.479398e+01	-3.510182e+00
1.487943e+01	-3.538076e+00
1.496537e+01	-3.565994e+00
1.505181e+01	-3.594196e+00
1.513875e+01	-3.622336e+00
1.522619e+01	-3.650620e+00
1.531414e+01	-3.679187e+00
1.540259e+01	-3.707818e+00
1.549156e+01	-3.736490e+00
1.558103e+01	-3.765410e+00
1.567103e+01	-3.794529e+00
1.576155e+01	-3.823878e+00
1.585258e+01	-3.853117e+00
1.594415e+01	-3.882384e+00
1.603624e+01	-3.912360e+00
1.612886e+01	-3.942107e+00
1.622202e+01	-3.971965e+00
1.631572e+01	-4.002054e+00
1.640996e+01	-4.032083e+00
1.650474e+01	-4.062482e+00
1.660008e+01	-4.093055e+00
1.669596e+01	-4.123819e+00
1.679239e+01	-4.154486e+00
1.688938e+01	-4.185146e+00
1.698694e+01	-4.216324e+00
1.708505e+01	-4.247707e+00
1.718373e+01	-4.278489e+00
1.728299e+01	-4.309844e+00
1.738281e+01	-4.341726e+00
1.748322e+01	-4.373161e+00
1.758420e+01	-4.405236e+00
1.768576e+01	-4.437015e+00
1.778792e+01	-4.469274e+00
1.789066e+01	-4.501280e+00
1.799399e+01	-4.533292e+00
1.809793e+01	-4.566085e+00
1.820246e+01	-4.598758e+00
1.830760e+01	-4.631250e+00
1.841334e+01	-4.664521e+00
1.851969e+01	-4.697556e+00
1.862666e+01	-4.730337e+00
1.873425e+01	-4.763817e+00
1.884246e+01	-4.797117e+00
1.895129e+01	-4.830610e+00
1.906075e+01	-4.864288e+00
1.917085e+01	-4.897905e+00
1.928158e+01	-4.931988e+00
1.939295e+01	-4.966040e+00
1.950496e+01	-5.000260e+00
1.961762e+01	-5.034573e+00
1.973093e+01	-5.068649e+00
1.984490e+01	-5.103503e+00
1.995952e+01	-5.137975e+00
2.007480e+01	-5.172700e+00
2.019076e+01	-5.207523e+00
2.030738e+01	-5.242504e+00
2.042467e+01	-5.277380e+00
2.054264e+01	-5.312999e+00
2.066130e+01	-5.348291e+00
2.078064e+01	-5.383729e+00
2.090066e+01	-5.419410e+00
2.102139e+01	-5.454879e+00
2.114280e+01	-5.490987e+00
2.126492e+01	-5.527000e+00
2.138775e+01	-5.563247e+00
2.151128e+01	-5.599226e+00
2.163553e+01	-5.635569e+00
2.176050e+01	-5.671907e+00
2.188619e+01	-5.708427e+00
2.201260e+01	-5.745101e+00
2.213974e+01	-5.781757e+00
2.226762e+01	-5.818728e+00
2.239624e+01	-5.855764e+00
2.252560e+01	-5.893061e+00
2.265571e+01	-5.929883e+00
2.278656e+01	-5.967546e+00
2.291818e+01	-6.004563e+00
2.305055e+01	-6.042083e+00
2.318369e+01	-6.080120e+00
2.331760e+01	-6.117588e+00
2.345228e+01	-6.155851e+00
2.358774e+01	-6.193319e+00
2.372398e+01	-6.231738e+00
2.386101e+01	-6.269446e+00
2.399883e+01	-6.307928e+00
2.413745e+01	-6.346329e+00
2.427686e+01	-6.384696e+00
2.441709e+01	-6.423145e+00
2.455812e+01	-6.461856e+00
2.469997e+01	-6.501164e+00
2.484263e+01	-6.539513e+00
2.498612e+01	-6.578510e+00
2.513044e+01	-6.617828e+00
2.527559e+01	-6.656898e+00
2.542158e+01	-6.695951e+00
2.556842e+01	-6.735433e+00
2.571610e+01	-6.775029e+00
2.586463e+01	-6.814627e+00
2.601403e+01	-6.854401e+00
2.616428e+01	-6.893940e+00
2.631541e+01	-6.934133e+00
2.646740e+01	-6.973687e+00
2.662028e+01	-7.013522e+00
2.677404e+01	-7.053708e+00
2.692868e+01	-7.093998e+00
2.708422e+01	-7.134703e+00
2.724066e+01	-7.175092e+00
2.739800e+01	-7.215322e+00
2.755625e+01	-7.256123e+00
2.771541e+01	-7.296365e+00
2.787550e+01	-7.337244e+00
2.803650e+01	-7.378359e+00
2.819844e+01	-7.418749e+00
2.836131e+01	-7.459892e+00
2.852513e+01	-7.501291e+00
2.868989e+01	-7.542412e+00
2.885560e+01	-7.583611e+00
2.902227e+01	-7.624924e+00
2.918990e+01	-7.666527e+00
2.935850e+01	-7.708131e+00
2.952807e+01	-7.749608e+00
2.969863e+01	-7.791073e+00
2.987016e+01	-7.832706e+00
3.004269e+01	-7.874735e+00
3.021622e+01	-7.916824e+00
3.039075e+01	-7.958943e+00
3.056628e+01	-8.000374e+00
3.074283e+01	-8.042632e+00
3.092040e+01	-8.085115e+00
3.109900e+01	-8.127195e+00
3.127862e+01	-8.169429e+00
3.145929e+01	-8.211857e+00
3.164099e+01	-8.254668e+00
3.182375e+01	-8.297158e+00
3.200756e+01	-8.339959e+00
3.219244e+01	-8.382371e+00
3.237838e+01	-8.425363e+00
3.256540e+01	-8.468653e+00
3.275349e+01	-8.511019e+00
3.294268e+01	-8.554176e+00
3.313295e+01	-8.597109e+00
3.332433e+01	-8.640295e+00
3.351681e+01	-8.683451e+00
3.371040e+01	-8.726963e+00
3.390511e+01	-8.770109e+00
3.410094e+01	-8.813776e+00
3.429791e+01	-8.856787e+00
3.449601e+01	-8.900660e+00
3.469526e+01	-8.943945e+00
3.489566e+01	-8.987829e+00
3.509721e+01	-9.031365e+00
3.529993e+01	-9.075653e+00
3.550382e+01	-9.119290e+00
3.570889e+01	-9.163549e+00
3.591515e+01	-9.207300e+00
3.612259e+01	-9.251447e+00
3.633123e+01	-9.295435e+00
3.654108e+01	-9.339426e+00
3.675214e+01	-9.383421e+00
3.696442e+01	-9.428103e+00
3.717792e+01	-9.472769e+00
3.739266e+01	-9.517545e+00
3.760864e+01	-9.561907e+00
3.782587e+01	-9.605845e+00
3.804435e+01	-9.650448e+00
3.826409e+01	-9.695266e+00
3.848510e+01	-9.739656e+00
3.870739e+01	-9.784535e+00
3.893096e+01	-9.828914e+00
3.915583e+01	-9.874170e+00
3.938199e+01	-9.918947e+00
3.960946e+01	-9.963830e+00
3.983824e+01	-1.000944e+01
4.006834e+01	-1.005348e+01
4.029978e+01	-1.009879e+01
4.053255e+01	-1.014467e+01
4.076666e+01	-1.018924e+01
4.100213e+01	-1.023513e+01
4.123896e+01	-1.028048e+01
4.147715e+01	-1.032554e+01
4.171672e+01	-1.037158e+01
4.195767e+01	-1.041625e+01
4.220002e+01	-1.046229e+01
4.244377e+01	-1.050800e+01
4.268892e+01	-1.055256e+01
4.293549e+01	-1.059879e+01
4.318348e+01	-1.064451e+01
4.343291e+01	-1.069013e+01
4.368377e+01	-1.073567e+01
4.393609e+01	-1.078123e+01
4.418986e+01	-1.082738e+01
4.444510e+01	-1.087331e+01
4.470182e+01	-1.091973e+01
4.496001e+01	-1.096543e+01
4.521970e+01	-1.101144e+01
4.548089e+01	-1.105790e+01
4.574358e+01	-1.110378e+01
4.600779e+01	-1.114977e+01
4.627353e+01	-1.119623e+01
4.654081e+01	-1.124272e+01
4.680963e+01	-1.128942e+01
4.708000e+01	-1.133509e+01
4.735193e+01	-1.138146e+01
4.762543e+01	-1.142732e+01
4.790051e+01	-1.147374e+01
4.817719e+01	-1.152091e+01
4.845545e+01	-1.156701e+01
4.873533e+01	-1.161328e+01
4.901682e+01	-1.166024e+01
4.929994e+01	-1.170729e+01
4.958470e+01	-1.175382e+01
4.987110e+01	-1.180035e+01
5.015915e+01	-1.184716e+01
5.044887e+01	-1.189463e+01
5.074026e+01	-1.194048e+01
5.103333e+01	-1.198834e+01
5.132810e+01	-1.203390e+01
5.162457e+01	-1.208136e+01
5.192275e+01	-1.212743e+01
5.222265e+01	-1.217487e+01
5.252429e+01	-1.222246e+01
5.282767e+01	-1.226951e+01
5.313280e+01	-1.231637e+01
5.343969e+01	-1.236352e+01
5.374836e+01	-1.241098e+01
5.405880e+01	-1.245755e+01
5.437105e+01	-1.250537e+01
5.468509e+01	-1.255248e+01
5.500095e+01	-1.259966e+01
5.531863e+01	-1.264676e+01
5.563815e+01	-1.269369e+01
5.595951e+01	-1.274150e+01
5.628273e+01	-1.278844e+01
5.660782e+01	-1.283697e+01
5.693479e+01	-1.288366e+01
5.726364e+01	-1.293149e+01
5.759439e+01	-1.297840e+01
5.792705e+01	-1.302655e+01
5.826164e+01	-1.307313e+01
5.859815e+01	-1.312037e+01
5.893662e+01	-1.316922e+01
5.927703e+01	-1.321683e+01
5.961941e+01	-1.326430e+01
5.996377e+01	-1.331168e+01
6.031012e+01	-1.335982e+01
6.065847e+01	-1.340784e+01
6.100883e+01	-1.345603e+01
6.136121e+01	-1.350236e+01
6.171563e+01	-1.355119e+01
6.207210e+01	-1.359774e+01
6.243063e+01	-1.364709e+01
6.279122e+01	-1.369398e+01
6.315390e+01	-1.374233e+01
6.351868e+01	-1.378997e+01
6.388556e+01	-1.383797e+01
6.425456e+01	-1.388579e+01
6.462569e+01	-1.393314e+01
6.499897e+01	-1.398246e+01
6.537440e+01	-1.402964e+01
6.575200e+01	-1.407830e+01
6.613178e+01	-1.412637e+01
6.651375e+01	-1.417457e+01
6.689793e+01	-1.422241e+01
6.728433e+01	-1.427020e+01
6.767297e+01	-1.431874e+01
6.806384e+01	-1.436692e+01
6.845698e+01	-1.441530e+01
6.885238e+01	-1.446349e+01
6.925007e+01	-1.451093e+01
6.965005e+01	-1.455913e+01
7.005235e+01	-1.460838e+01
7.045697e+01	-1.465764e+01
7.086393e+01	-1.470460e+01
7.127323e+01	-1.475355e+01
7.168490e+01	-1.480174e+01
7.209895e+01	-1.484987e+01
7.251539e+01	-1.489732e+01
7.293424e+01	-1.494578e+01
7.335551e+01	-1.499434e+01
7.377920e+01	-1.504310e+01
7.420535e+01	-1.509170e+01
7.463396e+01	-1.514072e+01
7.506504e+01	-1.518889e+01
7.549861e+01	-1.523812e+01
7.593469e+01	-1.528629e+01
7.637328e+01	-1.533511e+01
7.681441e+01	-1.538248e+01
7.725809e+01	-1.543193e+01
7.770433e+01	-1.548103e+01
7.815315e+01	-1.552952e+01
7.860456e+01	-1.557772e+01
7.905857e+01	-1.562607e+01
7.951521e+01	-1.567488e+01
7.997449e+01	-1.572296e+01
8.043642e+01	-1.577206e+01
8.090102e+01	-1.582117e+01
8.136830e+01	-1.586936e+01
8.183828e+01	-1.591809e+01
8.231097e+01	-1.596668e+01
8.278640e+01	-1.601734e+01
8.326457e+01	-1.606530e+01
8.374550e+01	-1.611268e+01
8.422921e+01	-1.616241e+01
8.471572e+01	-1.621152e+01
8.520503e+01	-1.626004e+01
8.569717e+01	-1.631013e+01
8.619215e+01	-1.635795e+01
8.669000e+01	-1.640675e+01
8.719071e+01	-1.645591e+01
8.769432e+01	-1.650398e+01
8.820084e+01	-1.655313e+01
8.871029e+01	-1.660296e+01
8.922267e+01	-1.665254e+01
8.973802e+01	-1.670066e+01
9.025634e+01	-1.674940e+01
9.077766e+01	-1.679746e+01
9.130199e+01	-1.684629e+01
9.182935e+01	-1.689584e+01
9.235975e+01	-1.694499e+01
9.289321e+01	-1.699404e+01
9.342976e+01	-1.704385e+01
9.396941e+01	-1.709179e+01
9.451217e+01	-1.714167e+01
9.505807e+01	-1.718951e+01
9.560712e+01	-1.723904e+01
9.615934e+01	-1.728925e+01
9.671476e+01	-1.733737e+01
9.727338e+01	-1.738631e+01
9.783522e+01	-1.743702e+01
9.840032e+01	-1.748571e+01
9.896867e+01	-1.753524e+01
9.954031e+01	-1.758458e+01
1.001153e+02	-1.763282e+01
1.006935e+02	-1.768146e+01
1.012751e+02	-1.773077e+01
1.018601e+02	-1.777966e+01
1.024484e+02	-1.783023e+01
1.030402e+02	-1.787899e+01
1.036353e+02	-1.792753e+01
1.042339e+02	-1.797836e+01
1.048360e+02	-1.802691e+01
1.054415e+02	-1.807515e+01
1.060505e+02	-1.812612e+01
1.066631e+02	-1.817321e+01
1.072791e+02	-1.822457e+01
1.078988e+02	-1.827220e+01
1.085220e+02	-1.832210e+01
1.091488e+02	-1.837088e+01
1.097793e+02	-1.842176e+01
1.104133e+02	-1.847090e+01
1.110511e+02	-1.851974e+01
1.116925e+02	-1.856873e+01
1.123376e+02	-1.861717e+01
1.129865e+02	-1.866808e+01
1.136391e+02	-1.871726e+01
1.142955e+02	-1.876647e+01
1.149556e+02	-1.881708e+01
1.156196e+02	-1.886499e+01
1.162874e+02	-1.891524e+01
1.169591e+02	-1.896323e+01
1.176347e+02	-1.901177e+01
1.183141e+02	-1.906342e+01
1.189975e+02	-1.911213e+01
1.196848e+02	-1.916098e+01
1.203761e+02	-1.921103e+01
1.210714e+02	-1.926011e+01
1.217707e+02	-1.930856e+01
1.224740e+02	-1.935868e+01
1.231814e+02	-1.940880e+01
1.238929e+02	-1.945967e+01
1.246085e+02	-1.950756e+01
1.253283e+02	-1.955619e+01
1.260522e+02	-1.960640e+01
1.267802e+02	-1.965658e+01
1.275125e+02	-1.970686e+01
1.282490e+02	-1.975366e+01
1.289898e+02	-1.980381e+01
1.297348e+02	-1.985238e+01
1.304842e+02	-1.990360e+01
1.312378e+02	-1.995260e+01
1.319959e+02	-2.000132e+01
1.327583e+02	-2.005189e+01
1.335251e+02	-2.010215e+01
1.342963e+02	-2.015249e+01
1.350720e+02	-2.020062e+01
1.358522e+02	-2.025145e+01
1.366368e+02	-2.030105e+01
1.374260e+02	-2.034915e+01
1.382198e+02	-2.039952e+01
1.390182e+02	-2.044797e+01
1.398211e+02	-2.049823e+01
1.406287e+02	-2.054897e+01
1.414410e+02	-2.059739e+01
1.422579e+02	-2.064606e+01
1.430796e+02	-2.069679e+01
1.439060e+02	-2.074601e+01
1.447372e+02	-2.079516e+01
1.455732e+02	-2.084638e+01
1.464141e+02	-2.089469e+01
1.472597e+02	-2.094549e+01
1.481103e+02	-2.099539e+01
1.489658e+02	-2.104447e+01
1.498262e+02	-2.109289e+01
1.506916e+02	-2.114197e+01
1.515620e+02	-2.119327e+01
1.524374e+02	-2.124391e+01
1.533179e+02	-2.129196e+01
1.542034e+02	-2.134232e+01
1.550941e+02	-2.139159e+01
1.559899e+02	-2.144139e+01
1.568909e+02	-2.149087e+01
1.577971e+02	-2.154192e+01
1.587085e+02	-2.159006e+01
1.596252e+02	-2.164001e+01
1.605472e+02	-2.168818e+01
1.614745e+02	-2.173899e+01
1.624072e+02	-2.178884e+01
1.633453e+02	-2.184000e+01
1.642887e+02	-2.188740e+01
1.652377e+02	-2.193758e+01
1.661921e+02	-2.198904e+01
1.671520e+02	-2.203818e+01
1.681175e+02	-2.208633e+01
1.690885e+02	-2.213846e+01
1.700651e+02	-2.218771e+01
1.710474e+02	-2.223593e+01
1.720354e+02	-2.228674e+01
1.730291e+02	-2.233612e+01
1.740285e+02	-2.238551e+01
1.750337e+02	-2.243645e+01
1.760446e+02	-2.248558e+01
1.770615e+02	-2.253568e+01
1.780842e+02	-2.258652e+01
1.791128e+02	-2.263540e+01
1.801473e+02	-2.268423e+01
1.811878e+02	-2.273532e+01
1.822344e+02	-2.278675e+01
1.832870e+02	-2.283288e+01
1.843456e+02	-2.288225e+01
1.854104e+02	-2.293273e+01
1.864813e+02	-2.298175e+01
1.875584e+02	-2.303145e+01
1.886418e+02	-2.308403e+01
1.897313e+02	-2.313325e+01
1.908272e+02	-2.318203e+01
1.919294e+02	-2.323050e+01
1.930380e+02	-2.328060e+01
1.941530e+02	-2.333264e+01
1.952744e+02	-2.338194e+01
1.964023e+02	-2.343115e+01
1.975367e+02	-2.348156e+01
1.986777e+02	-2.353214e+01
1.998252e+02	-2.358245e+01
2.009794e+02	-2.363343e+01
2.021403e+02	-2.368158e+01
2.033078e+02	-2.372988e+01
2.044821e+02	-2.378122e+01
2.056632e+02	-2.382991e+01
2.068511e+02	-2.388151e+01
2.080459e+02	-2.393066e+01
2.092475e+02	-2.398151e+01
2.104561e+02	-2.402883e+01
2.116717e+02	-2.408136e+01
2.128943e+02	-2.412793e+01
2.141240e+02	-2.417727e+01
2.153608e+02	-2.422969e+01
2.166047e+02	-2.427909e+01
2.178558e+02	-2.432919e+01
2.191141e+02	-2.437938e+01
2.203797e+02	-2.443284e+01
2.216526e+02	-2.447577e+01
2.229329e+02	-2.452798e+01
2.242205e+02	-2.458023e+01
2.255156e+02	-2.462923e+01
2.268182e+02	-2.468090e+01
2.281283e+02	-2.473056e+01
2.294459e+02	-2.477692e+01
2.307712e+02	-2.483103e+01
2.321041e+02	-2.487658e+01
2.334447e+02	-2.492770e+01
2.347931e+02	-2.497974e+01
2.361493e+02	-2.502879e+01
2.375133e+02	-2.507548e+01
2.388851e+02	-2.512828e+01
2.402649e+02	-2.517380e+01
2.416527e+02	-2.522896e+01
2.430484e+02	-2.527780e+01
2.444523e+02	-2.532588e+01
2.458642e+02	-2.537620e+01
2.472843e+02	-2.542663e+01
2.487126e+02	-2.547770e+01
2.501492e+02	-2.552557e+01
2.515940e+02	-2.557782e+01
2.530472e+02	-2.562555e+01
2.545088e+02	-2.567650e+01
2.559789e+02	-2.572524e+01
2.574574e+02	-2.577762e+01
2.589444e+02	-2.582473e+01
2.604401e+02	-2.587880e+01
2.619444e+02	-2.592572e+01
2.634574e+02	-2.597736e+01
2.649791e+02	-2.602528e+01
2.665096e+02	-2.608043e+01
2.680489e+02	-2.612560e+01
2.695972e+02	-2.617728e+01
2.711544e+02	-2.622521e+01
2.727205e+02	-2.627582e+01
2.742958e+02	-2.632388e+01
2.758801e+02	-2.637691e+01
2.774736e+02	-2.642476e+01
2.790762e+02	-2.647796e+01
2.806882e+02	-2.652727e+01
2.823094e+02	-2.658003e+01
2.839400e+02	-2.662690e+01
2.855800e+02	-2.667604e+01
2.872295e+02	-2.672733e+01
2.888886e+02	-2.677746e+01
2.905572e+02	-2.682420e+01
2.922354e+02	-2.687489e+01
2.939234e+02	-2.692775e+01
2.956211e+02	-2.697256e+01
2.973286e+02	-2.702391e+01
2.990459e+02	-2.707704e+01
3.007732e+02	-2.712525e+01
3.025104e+02	-2.717347e+01
3.042577e+02	-2.722435e+01
3.060151e+02	-2.727596e+01
3.077826e+02	-2.732810e+01
3.095604e+02	-2.737286e+01
3.113484e+02	-2.742592e+01
3.131467e+02	-2.747639e+01
3.149554e+02	-2.752950e+01
3.167746e+02	-2.757326e+01
3.186043e+02	-2.762469e+01
3.204445e+02	-2.767645e+01
3.222954e+02	-2.772892e+01
3.241570e+02	-2.777754e+01
3.260293e+02	-2.782541e+01
3.279124e+02	-2.788012e+01
3.298064e+02	-2.792843e+01
3.317114e+02	-2.797249e+01
3.336273e+02	-2.802815e+01
3.355544e+02	-2.807509e+01
3.374925e+02	-2.812684e+01
3.394418e+02	-2.817626e+01
3.414024e+02	-2.822774e+01
3.433744e+02	-2.828119e+01
3.453577e+02	-2.832587e+01
3.473525e+02	-2.837705e+01
3.493588e+02	-2.842365e+01
3.513766e+02	-2.847555e+01
3.534062e+02	-2.852478e+01
3.554474e+02	-2.857526e+01
3.575005e+02	-2.862808e+01
3.595654e+02	-2.867242e+01
3.616422e+02	-2.872561e+01
3.637311e+02	-2.877584e+01
3.658320e+02	-2.882638e+01
3.679450e+02	-2.887394e+01
3.700702e+02	-2.892601e+01
3.722077e+02	-2.897765e+01
3.743576e+02	-2.902381e+01
3.765199e+02	-2.907681e+01
3.786946e+02	-2.912449e+01
3.808820e+02	-2.917829e+01
3.830819e+02	-2.922819e+01
3.852946e+02	-2.927815e+01
3.875200e+02	-2.932868e+01
3.897583e+02	-2.937635e+01
3.920096e+02	-2.942691e+01
3.942738e+02	-2.947570e+01
3.965511e+02	-2.952939e+01
3.988416e+02	-2.957664e+01
4.011452e+02	-2.962716e+01
4.034622e+02	-2.967734e+01
4.057926e+02	-2.972377e+01
4.081365e+02	-2.977900e+01
4.104938e+02	-2.982957e+01
4.128648e+02	-2.988023e+01
4.152495e+02	-2.992801e+01
4.176480e+02	-2.997431e+01
4.200603e+02	-3.002797e+01
4.224866e+02	-3.007559e+01
4.249268e+02	-3.012564e+01
4.273812e+02	-3.017847e+01
4.298497e+02	-3.023173e+01
4.323325e+02	-3.027621e+01
4.348297e+02	-3.033319e+01
4.373412e+02	-3.038275e+01
4.398673e+02	-3.042648e+01
4.424079e+02	-3.047706e+01
4.449633e+02	-3.053408e+01
4.475334e+02	-3.057822e+01
4.501183e+02	-3.062637e+01
4.527182e+02	-3.068186e+01
4.553330e+02	-3.073181e+01
4.579630e+02	-3.078594e+01
4.606082e+02	-3.082942e+01
4.632687e+02	-3.087618e+01
4.659445e+02	-3.092445e+01
4.686358e+02	-3.098377e+01
4.713426e+02	-3.102682e+01
4.740650e+02	-3.107801e+01
4.768032e+02	-3.113292e+01
4.795572e+02	-3.118798e+01
4.823271e+02	-3.123832e+01
4.851130e+02	-3.128009e+01
4.879150e+02	-3.133211e+01
4.907332e+02	-3.138572e+01
4.935676e+02	-3.143604e+01
4.964185e+02	-3.147956e+01
4.992858e+02	-3.153261e+01
5.021696e+02	-3.157922e+01
5.050701e+02	-3.163649e+01
5.079874e+02	-3.168780e+01
5.109215e+02	-3.173625e+01
5.138726e+02	-3.178098e+01
5.168407e+02	-3.183182e+01
5.198259e+02	-3.188424e+01
5.228284e+02	-3.193243e+01
5.258482e+02	-3.198370e+01
5.288855e+02	-3.203870e+01
5.319403e+02	-3.208166e+01
5.350128e+02	-3.213178e+01
5.381030e+02	-3.218551e+01
5.412111e+02	-3.223432e+01
5.443371e+02	-3.227698e+01
5.474812e+02	-3.233741e+01
5.506434e+02	-3.238426e+01
5.538239e+02	-3.243917e+01
5.570228e+02	-3.248836e+01
5.602401e+02	-3.253563e+01
5.634760e+02	-3.259091e+01
5.667306e+02	-3.264117e+01
5.700040e+02	-3.268270e+01
5.732964e+02	-3.274077e+01
5.766077e+02	-3.278728e+01
5.799382e+02	-3.284032e+01
5.832879e+02	-3.289261e+01
5.866569e+02	-3.293137e+01
5.900454e+02	-3.299109e+01
5.934535e+02	-3.304022e+01
5.968813e+02	-3.308578e+01
6.003288e+02	-3.313830e+01
6.037963e+02	-3.319067e+01
6.072838e+02	-3.323909e+01
6.107914e+02	-3.328676e+01
6.143194e+02	-3.334794e+01
6.178676e+02	-3.338581e+01
6.214364e+02	-3.344917e+01
6.250258e+02	-3.349080e+01
6.286359e+02	-3.354514e+01
6.322669e+02	-3.359237e+01
6.359189e+02	-3.365092e+01
6.395919e+02	-3.368957e+01
6.432862e+02	-3.373695e+01
6.470017e+02	-3.379835e+01
6.507388e+02	-3.384393e+01
6.544974e+02	-3.389429e+01
6.582778e+02	-3.395238e+01
6.620800e+02	-3.400127e+01
6.659041e+02	-3.405557e+01
6.697504e+02	-3.410017e+01
6.736188e+02	-3.413958e+01
6.775096e+02	-3.419795e+01
6.814229e+02	-3.424623e+01
6.853587e+02	-3.429729e+01
6.893173e+02	-3.435198e+01
6.932988e+02	-3.439791e+01
6.973033e+02	-3.444843e+01
7.013309e+02	-3.450852e+01
