Frequency(Hz)	Magnitude(dB)
1.000000e+01	-1.807255e-05
1.005776e+01	-1.828193e-05
1.011585e+01	-1.849373e-05
1.017428e+01	-1.870798e-05
1.023305e+01	-1.892472e-05
1.029215e+01	-1.914396e-05
1.035160e+01	-1.936575e-05
1.041139e+01	-1.959011e-05
1.047153e+01	-1.981707e-05
1.053201e+01	-2.004665e-05
1.059284e+01	-2.027890e-05
1.065403e+01	-2.051383e-05
1.071556e+01	-2.075149e-05
1.077746e+01	-2.099190e-05
1.083971e+01	-2.123510e-05
1.090232e+01	-2.148111e-05
1.096529e+01	-2.172998e-05
1.102862e+01	-2.198172e-05
1.109232e+01	-2.223639e-05
1.115639e+01	-2.249400e-05
1.122083e+01	-2.275460e-05
1.128564e+01	-2.301822e-05
1.135083e+01	-2.328489e-05
1.141639e+01	-2.355465e-05
1.148233e+01	-2.382754e-05
1.154865e+01	-2.410359e-05
1.161536e+01	-2.438283e-05
1.168245e+01	-2.466531e-05
1.174992e+01	-2.495107e-05
1.181779e+01	-2.524013e-05
1.188605e+01	-2.553254e-05
1.195470e+01	-2.582835e-05
1.202375e+01	-2.612757e-05
1.209320e+01	-2.643027e-05
1.216305e+01	-2.673647e-05
1.223330e+01	-2.704622e-05
1.230396e+01	-2.735955e-05
1.237503e+01	-2.767652e-05
1.244651e+01	-2.799716e-05
1.251840e+01	-2.832151e-05
1.259070e+01	-2.864963e-05
1.266343e+01	-2.898154e-05
1.273657e+01	-2.931730e-05
1.281014e+01	-2.965694e-05
1.288413e+01	-3.000053e-05
1.295855e+01	-3.034809e-05
1.303339e+01	-3.069968e-05
1.310867e+01	-3.105534e-05
1.318439e+01	-3.141513e-05
1.326054e+01	-3.177908e-05
1.333713e+01	-3.214725e-05
1.341417e+01	-3.251968e-05
1.349165e+01	-3.289643e-05
1.356958e+01	-3.327754e-05
1.364795e+01	-3.366307e-05
1.372678e+01	-3.405306e-05
1.380607e+01	-3.444758e-05
1.388581e+01	-3.484666e-05
1.396602e+01	-3.525037e-05
1.404668e+01	-3.565875e-05
1.412782e+01	-3.607187e-05
1.420942e+01	-3.648977e-05
1.429149e+01	-3.691251e-05
1.437404e+01	-3.734015e-05
1.445706e+01	-3.777274e-05
1.454057e+01	-3.821035e-05
1.462455e+01	-3.865302e-05
1.470902e+01	-3.910083e-05
1.479398e+01	-3.955382e-05
1.487943e+01	-4.001206e-05
1.496537e+01	-4.047561e-05
1.505181e+01	-4.094453e-05
1.513875e+01	-4.141888e-05
1.522619e+01	-4.189873e-05
1.531414e+01	-4.238413e-05
1.540259e+01	-4.287516e-05
1.549156e+01	-4.337188e-05
1.558103e+01	-4.387435e-05
1.567103e+01	-4.438265e-05
1.576155e+01	-4.489683e-05
1.585258e+01	-4.541697e-05
1.594415e+01	-4.594314e-05
1.603624e+01	-4.647540e-05
1.612886e+01	-4.701382e-05
1.622202e+01	-4.755849e-05
1.631572e+01	-4.810946e-05
1.640996e+01	-4.866682e-05
1.650474e+01	-4.923064e-05
1.660008e+01	-4.980099e-05
1.669596e+01	-5.037794e-05
1.679239e+01	-5.096158e-05
1.688938e+01	-5.155198e-05
1.698694e+01	-5.214922e-05
1.708505e+01	-5.275338e-05
1.718373e+01	-5.336454e-05
1.728299e+01	-5.398278e-05
1.738281e+01	-5.460818e-05
1.748322e+01	-5.524083e-05
1.758420e+01	-5.588080e-05
1.768576e+01	-5.652820e-05
1.778792e+01	-5.718309e-05
1.789066e+01	-5.784556e-05
1.799399e+01	-5.851572e-05
1.809793e+01	-5.919363e-05
1.820246e+01	-5.987940e-05
1.830760e+01	-6.057312e-05
1.841334e+01	-6.127487e-05
1.851969e+01	-6.198475e-05
1.862666e+01	-6.270286e-05
1.873425e+01	-6.342928e-05
1.884246e+01	-6.416412e-05
1.895129e+01	-6.490748e-05
1.906075e+01	-6.565944e-05
1.917085e+01	-6.642012e-05
1.928158e+01	-6.718961e-05
1.939295e+01	-6.796801e-05
1.950496e+01	-6.875543e-05
1.961762e+01	-6.955198e-05
1.973093e+01	-7.035775e-05
1.984490e+01	-7.117286e-05
1.995952e+01	-7.199741e-05
2.007480e+01	-7.283151e-05
2.019076e+01	-7.367528e-05
2.030738e+01	-7.452882e-05
2.042467e+01	-7.539225e-05
2.054264e+01	-7.626568e-05
2.066130e+01	-7.714923e-05
2.078064e+01	-7.804302e-05
2.090066e+01	-7.894716e-05
2.102139e+01	-7.986178e-05
2.114280e+01	-8.078699e-05
2.126492e+01	-8.172292e-05
2.138775e+01	-8.266970e-05
2.151128e+01	-8.362744e-05
2.163553e+01	-8.459628e-05
2.176050e+01	-8.557634e-05
2.188619e+01	-8.656776e-05
2.201260e+01	-8.757066e-05
2.213974e+01	-8.858518e-05
2.226762e+01	-8.961145e-05
2.239624e+01	-9.064961e-05
2.252560e+01	-9.169980e-05
2.265571e+01	-9.276216e-05
2.278656e+01	-9.383682e-05
2.291818e+01	-9.492394e-05
2.305055e+01	-9.602365e-05
2.318369e+01	-9.713609e-05
2.331760e+01	-9.826143e-05
2.345228e+01	-9.939980e-05
2.358774e+01	-1.005514e-04
2.372398e+01	-1.017163e-04
2.386101e+01	-1.028947e-04
2.399883e+01	-1.040867e-04
2.413745e+01	-1.052926e-04
2.427686e+01	-1.065124e-04
2.441709e+01	-1.077464e-04
2.455812e+01	-1.089946e-04
2.469997e+01	-1.102573e-04
2.484263e+01	-1.115347e-04
2.498612e+01	-1.128268e-04
2.513044e+01	-1.141339e-04
2.527559e+01	-1.154562e-04
2.542158e+01	-1.167938e-04
2.556842e+01	-1.181468e-04
2.571610e+01	-1.195156e-04
2.586463e+01	-1.209002e-04
2.601403e+01	-1.223008e-04
2.616428e+01	-1.237177e-04
2.631541e+01	-1.251510e-04
2.646740e+01	-1.266009e-04
2.662028e+01	-1.280676e-04
2.677404e+01	-1.295512e-04
2.692868e+01	-1.310521e-04
2.708422e+01	-1.325703e-04
2.724066e+01	-1.341062e-04
2.739800e+01	-1.356598e-04
2.755625e+01	-1.372315e-04
2.771541e+01	-1.388213e-04
2.787550e+01	-1.404295e-04
2.803650e+01	-1.420564e-04
2.819844e+01	-1.437022e-04
2.836131e+01	-1.453670e-04
2.852513e+01	-1.470511e-04
2.868989e+01	-1.487547e-04
2.885560e+01	-1.504780e-04
2.902227e+01	-1.522213e-04
2.918990e+01	-1.539848e-04
2.935850e+01	-1.557687e-04
2.952807e+01	-1.575733e-04
2.969863e+01	-1.593988e-04
2.987016e+01	-1.612455e-04
3.004269e+01	-1.631135e-04
3.021622e+01	-1.650032e-04
3.039075e+01	-1.669147e-04
3.056628e+01	-1.688485e-04
3.074283e+01	-1.708046e-04
3.092040e+01	-1.727834e-04
3.109900e+01	-1.747851e-04
3.127862e+01	-1.768099e-04
3.145929e+01	-1.788583e-04
3.164099e+01	-1.809304e-04
3.182375e+01	-1.830265e-04
3.200756e+01	-1.851468e-04
3.219244e+01	-1.872918e-04
3.237838e+01	-1.894615e-04
3.256540e+01	-1.916565e-04
3.275349e+01	-1.938768e-04
3.294268e+01	-1.961229e-04
3.313295e+01	-1.983950e-04
3.332433e+01	-2.006934e-04
3.351681e+01	-2.030184e-04
3.371040e+01	-2.053704e-04
3.390511e+01	-2.077496e-04
3.410094e+01	-2.101564e-04
3.429791e+01	-2.125910e-04
3.449601e+01	-2.150539e-04
3.469526e+01	-2.175453e-04
3.489566e+01	-2.200655e-04
3.509721e+01	-2.226150e-04
3.529993e+01	-2.251940e-04
3.550382e+01	-2.278029e-04
3.570889e+01	-2.304419e-04
3.591515e+01	-2.331116e-04
3.612259e+01	-2.358122e-04
3.633123e+01	-2.385441e-04
3.654108e+01	-2.413076e-04
3.675214e+01	-2.441031e-04
3.696442e+01	-2.469311e-04
3.717792e+01	-2.497917e-04
3.739266e+01	-2.526856e-04
3.760864e+01	-2.556129e-04
3.782587e+01	-2.585742e-04
3.804435e+01	-2.615697e-04
3.826409e+01	-2.646000e-04
3.848510e+01	-2.676654e-04
3.870739e+01	-2.707662e-04
3.893096e+01	-2.739030e-04
3.915583e+01	-2.770762e-04
3.938199e+01	-2.802861e-04
3.960946e+01	-2.835332e-04
3.983824e+01	-2.868179e-04
4.006834e+01	-2.901406e-04
4.029978e+01	-2.935019e-04
4.053255e+01	-2.969021e-04
4.076666e+01	-3.003416e-04
4.100213e+01	-3.038211e-04
4.123896e+01	-3.073408e-04
4.147715e+01	-3.109013e-04
4.171672e+01	-3.145030e-04
4.195767e+01	-3.181465e-04
4.220002e+01	-3.218322e-04
4.244377e+01	-3.255606e-04
4.268892e+01	-3.293321e-04
4.293549e+01	-3.331474e-04
4.318348e+01	-3.370068e-04
4.343291e+01	-3.409110e-04
4.368377e+01	-3.448604e-04
4.393609e+01	-3.488555e-04
4.418986e+01	-3.528970e-04
4.444510e+01	-3.569852e-04
4.470182e+01	-3.611208e-04
4.496001e+01	-3.653043e-04
4.521970e+01	-3.695363e-04
4.548089e+01	-3.738173e-04
4.574358e+01	-3.781479e-04
4.600779e+01	-3.825286e-04
4.627353e+01	-3.869601e-04
4.654081e+01	-3.914430e-04
4.680963e+01	-3.959777e-04
4.708000e+01	-4.005650e-04
4.735193e+01	-4.052055e-04
4.762543e+01	-4.098997e-04
4.790051e+01	-4.146482e-04
4.817719e+01	-4.194518e-04
4.845545e+01	-4.243111e-04
4.873533e+01	-4.292266e-04
4.901682e+01	-4.341990e-04
4.929994e+01	-4.392291e-04
4.958470e+01	-4.443174e-04
4.987110e+01	-4.494647e-04
5.015915e+01	-4.546716e-04
5.044887e+01	-4.599388e-04
5.074026e+01	-4.652671e-04
5.103333e+01	-4.706570e-04
5.132810e+01	-4.761094e-04
5.162457e+01	-4.816250e-04
5.192275e+01	-4.872044e-04
5.222265e+01	-4.928485e-04
5.252429e+01	-4.985579e-04
5.282767e+01	-5.043335e-04
5.313280e+01	-5.101760e-04
5.343969e+01	-5.160862e-04
5.374836e+01	-5.220649e-04
5.405880e+01	-5.281128e-04
5.437105e+01	-5.342307e-04
5.468509e+01	-5.404195e-04
5.500095e+01	-5.466801e-04
5.531863e+01	-5.530131e-04
5.563815e+01	-5.594195e-04
5.595951e+01	-5.659001e-04
5.628273e+01	-5.724558e-04
5.660782e+01	-5.790874e-04
5.693479e+01	-5.857958e-04
5.726364e+01	-5.925820e-04
5.759439e+01	-5.994467e-04
5.792705e+01	-6.063910e-04
5.826164e+01	-6.134157e-04
5.859815e+01	-6.205218e-04
5.893662e+01	-6.277102e-04
5.927703e+01	-6.349818e-04
5.961941e+01	-6.423377e-04
5.996377e+01	-6.497788e-04
6.031012e+01	-6.573061e-04
6.065847e+01	-6.649206e-04
6.100883e+01	-6.726233e-04
6.136121e+01	-6.804152e-04
6.171563e+01	-6.882974e-04
6.207210e+01	-6.962709e-04
6.243063e+01	-7.043367e-04
6.279122e+01	-7.124960e-04
6.315390e+01	-7.207498e-04
6.351868e+01	-7.290991e-04
6.388556e+01	-7.375452e-04
6.425456e+01	-7.460892e-04
6.462569e+01	-7.547321e-04
6.499897e+01	-7.634751e-04
6.537440e+01	-7.723194e-04
6.575200e+01	-7.812661e-04
6.613178e+01	-7.903165e-04
6.651375e+01	-7.994716e-04
6.689793e+01	-8.087329e-04
6.728433e+01	-8.181014e-04
6.767297e+01	-8.275784e-04
6.806384e+01	-8.371652e-04
6.845698e+01	-8.468631e-04
6.885238e+01	-8.566732e-04
6.925007e+01	-8.665970e-04
6.965005e+01	-8.766358e-04
7.005235e+01	-8.867908e-04
7.045697e+01	-8.970635e-04
7.086393e+01	-9.074551e-04
7.127323e+01	-9.179671e-04
7.168490e+01	-9.286009e-04
7.209895e+01	-9.393578e-04
7.251539e+01	-9.502393e-04
7.293424e+01	-9.612469e-04
7.335551e+01	-9.723820e-04
7.377920e+01	-9.836460e-04
7.420535e+01	-9.950405e-04
7.463396e+01	-1.006567e-03
7.506504e+01	-1.018227e-03
7.549861e+01	-1.030022e-03
7.593469e+01	-1.041954e-03
7.637328e+01	-1.054024e-03
7.681441e+01	-1.066233e-03
7.725809e+01	-1.078584e-03
7.770433e+01	-1.091078e-03
7.815315e+01	-1.103717e-03
7.860456e+01	-1.116502e-03
7.905857e+01	-1.129436e-03
7.951521e+01	-1.142519e-03
7.997449e+01	-1.155753e-03
8.043642e+01	-1.169141e-03
8.090102e+01	-1.182684e-03
8.136830e+01	-1.196384e-03
8.183828e+01	-1.210243e-03
8.231097e+01	-1.224262e-03
8.278640e+01	-1.238443e-03
8.326457e+01	-1.252789e-03
8.374550e+01	-1.267300e-03
8.422921e+01	-1.281980e-03
8.471572e+01	-1.296830e-03
8.520503e+01	-1.311852e-03
8.569717e+01	-1.327048e-03
8.619215e+01	-1.342420e-03
8.669000e+01	-1.357970e-03
8.719071e+01	-1.373700e-03
8.769432e+01	-1.389612e-03
8.820084e+01	-1.405708e-03
8.871029e+01	-1.421991e-03
8.922267e+01	-1.438462e-03
8.973802e+01	-1.455125e-03
9.025634e+01	-1.471980e-03
9.077766e+01	-1.489030e-03
9.130199e+01	-1.506278e-03
9.182935e+01	-1.523725e-03
9.235975e+01	-1.541375e-03
9.289321e+01	-1.559229e-03
9.342976e+01	-1.577290e-03
9.396941e+01	-1.595560e-03
9.451217e+01	-1.614041e-03
9.505807e+01	-1.632737e-03
9.560712e+01	-1.651649e-03
9.615934e+01	-1.670780e-03
9.671476e+01	-1.690133e-03
9.727338e+01	-1.709710e-03
9.783522e+01	-1.729513e-03
9.840032e+01	-1.749546e-03
9.896867e+01	-1.769811e-03
9.954031e+01	-1.790310e-03
1.001153e+02	-1.811047e-03
1.006935e+02	-1.832024e-03
1.012751e+02	-1.853244e-03
1.018601e+02	-1.874710e-03
1.024484e+02	-1.896424e-03
1.030402e+02	-1.918390e-03
1.036353e+02	-1.940610e-03
1.042339e+02	-1.963088e-03
1.048360e+02	-1.985825e-03
1.054415e+02	-2.008826e-03
1.060505e+02	-2.032094e-03
1.066631e+02	-2.055630e-03
1.072791e+02	-2.079440e-03
1.078988e+02	-2.103525e-03
1.085220e+02	-2.127889e-03
1.091488e+02	-2.152535e-03
1.097793e+02	-2.177466e-03
1.104133e+02	-2.202686e-03
1.110511e+02	-2.228198e-03
1.116925e+02	-2.254006e-03
1.123376e+02	-2.280112e-03
1.129865e+02	-2.306521e-03
1.136391e+02	-2.333236e-03
1.142955e+02	-2.360259e-03
1.149556e+02	-2.387596e-03
1.156196e+02	-2.415249e-03
1.162874e+02	-2.443223e-03
1.169591e+02	-2.471520e-03
1.176347e+02	-2.500145e-03
1.183141e+02	-2.529101e-03
1.189975e+02	-2.558393e-03
1.196848e+02	-2.588024e-03
1.203761e+02	-2.617998e-03
1.210714e+02	-2.648319e-03
1.217707e+02	-2.678991e-03
1.224740e+02	-2.710018e-03
1.231814e+02	-2.741404e-03
1.238929e+02	-2.773154e-03
1.246085e+02	-2.805271e-03
1.253283e+02	-2.837760e-03
1.260522e+02	-2.870626e-03
1.267802e+02	-2.903872e-03
1.275125e+02	-2.937502e-03
1.282490e+02	-2.971522e-03
1.289898e+02	-3.005936e-03
1.297348e+02	-3.040749e-03
1.304842e+02	-3.075964e-03
1.312378e+02	-3.111587e-03
1.319959e+02	-3.147623e-03
1.327583e+02	-3.184075e-03
1.335251e+02	-3.220950e-03
1.342963e+02	-3.258252e-03
1.350720e+02	-3.295985e-03
1.358522e+02	-3.334155e-03
1.366368e+02	-3.372767e-03
1.374260e+02	-3.411826e-03
1.382198e+02	-3.451337e-03
1.390182e+02	-3.491306e-03
1.398211e+02	-3.531737e-03
1.406287e+02	-3.572636e-03
1.414410e+02	-3.614009e-03
1.422579e+02	-3.655861e-03
1.430796e+02	-3.698197e-03
1.439060e+02	-3.741023e-03
1.447372e+02	-3.784345e-03
1.455732e+02	-3.828168e-03
1.464141e+02	-3.872498e-03
1.472597e+02	-3.917342e-03
1.481103e+02	-3.962705e-03
1.489658e+02	-4.008593e-03
1.498262e+02	-4.055011e-03
1.506916e+02	-4.101968e-03
1.515620e+02	-4.149467e-03
1.524374e+02	-4.197517e-03
1.533179e+02	-4.246122e-03
1.542034e+02	-4.295290e-03
1.550941e+02	-4.345027e-03
1.559899e+02	-4.395340e-03
1.568909e+02	-4.446235e-03
1.577971e+02	-4.497719e-03
1.587085e+02	-4.549799e-03
1.596252e+02	-4.602482e-03
1.605472e+02	-4.655774e-03
1.614745e+02	-4.709683e-03
1.624072e+02	-4.764216e-03
1.633453e+02	-4.819380e-03
1.642887e+02	-4.875182e-03
1.652377e+02	-4.931630e-03
1.661921e+02	-4.988732e-03
1.671520e+02	-5.046494e-03
1.681175e+02	-5.104924e-03
1.690885e+02	-5.164031e-03
1.700651e+02	-5.223822e-03
1.710474e+02	-5.284304e-03
1.720354e+02	-5.345486e-03
1.730291e+02	-5.407377e-03
1.740285e+02	-5.469983e-03
1.750337e+02	-5.533314e-03
1.760446e+02	-5.597377e-03
1.770615e+02	-5.662182e-03
1.780842e+02	-5.727736e-03
1.791128e+02	-5.794049e-03
1.801473e+02	-5.861129e-03
1.811878e+02	-5.928986e-03
1.822344e+02	-5.997627e-03
1.832870e+02	-6.067062e-03
1.843456e+02	-6.137301e-03
1.854104e+02	-6.208352e-03
1.864813e+02	-6.280226e-03
1.875584e+02	-6.352930e-03
1.886418e+02	-6.426476e-03
1.897313e+02	-6.500873e-03
1.908272e+02	-6.576130e-03
1.919294e+02	-6.652257e-03
1.930380e+02	-6.729266e-03
1.941530e+02	-6.807165e-03
1.952744e+02	-6.885965e-03
1.964023e+02	-6.965676e-03
1.975367e+02	-7.046310e-03
1.986777e+02	-7.127876e-03
1.998252e+02	-7.210386e-03
2.009794e+02	-7.293850e-03
2.021403e+02	-7.378279e-03
2.033078e+02	-7.463684e-03
2.044821e+02	-7.550078e-03
2.056632e+02	-7.637470e-03
2.068511e+02	-7.725873e-03
2.080459e+02	-7.815299e-03
2.092475e+02	-7.905758e-03
2.104561e+02	-7.997264e-03
2.116717e+02	-8.089828e-03
2.128943e+02	-8.183462e-03
2.141240e+02	-8.278179e-03
2.153608e+02	-8.373991e-03
2.166047e+02	-8.470911e-03
2.178558e+02	-8.568952e-03
2.191141e+02	-8.668126e-03
2.203797e+02	-8.768447e-03
2.216526e+02	-8.869928e-03
2.229329e+02	-8.972581e-03
2.242205e+02	-9.076422e-03
2.255156e+02	-9.181463e-03
2.268182e+02	-9.287719e-03
2.281283e+02	-9.395203e-03
2.294459e+02	-9.503929e-03
2.307712e+02	-9.613913e-03
2.321041e+02	-9.725167e-03
2.334447e+02	-9.837708e-03
2.347931e+02	-9.951549e-03
2.361493e+02	-1.006671e-02
2.375133e+02	-1.018319e-02
2.388851e+02	-1.030103e-02
2.402649e+02	-1.042023e-02
2.416527e+02	-1.054080e-02
2.430484e+02	-1.066277e-02
2.444523e+02	-1.078614e-02
2.458642e+02	-1.091095e-02
2.472843e+02	-1.103719e-02
2.487126e+02	-1.116490e-02
2.501492e+02	-1.129408e-02
2.515940e+02	-1.142475e-02
2.530472e+02	-1.155693e-02
2.545088e+02	-1.169064e-02
2.559789e+02	-1.182589e-02
2.574574e+02	-1.196271e-02
2.589444e+02	-1.210111e-02
2.604401e+02	-1.224110e-02
2.619444e+02	-1.238272e-02
2.634574e+02	-1.252597e-02
2.649791e+02	-1.267087e-02
2.665096e+02	-1.281745e-02
2.680489e+02	-1.296572e-02
2.695972e+02	-1.311570e-02
2.711544e+02	-1.326742e-02
2.727205e+02	-1.342089e-02
2.742958e+02	-1.357613e-02
2.758801e+02	-1.373316e-02
2.774736e+02	-1.389201e-02
2.790762e+02	-1.405269e-02
2.806882e+02	-1.421523e-02
2.823094e+02	-1.437964e-02
2.839400e+02	-1.454595e-02
2.855800e+02	-1.471419e-02
2.872295e+02	-1.488436e-02
2.888886e+02	-1.505650e-02
2.905572e+02	-1.523063e-02
2.922354e+02	-1.540676e-02
2.939234e+02	-1.558493e-02
2.956211e+02	-1.576516e-02
2.973286e+02	-1.594747e-02
2.990459e+02	-1.613188e-02
3.007732e+02	-1.631842e-02
3.025104e+02	-1.650711e-02
3.042577e+02	-1.669798e-02
3.060151e+02	-1.689105e-02
3.077826e+02	-1.708635e-02
3.095604e+02	-1.728391e-02
3.113484e+02	-1.748374e-02
3.131467e+02	-1.768588e-02
3.149554e+02	-1.789036e-02
3.167746e+02	-1.809719e-02
3.186043e+02	-1.830640e-02
3.204445e+02	-1.851804e-02
3.222954e+02	-1.873211e-02
3.241570e+02	-1.894865e-02
3.260293e+02	-1.916769e-02
3.279124e+02	-1.938925e-02
3.298064e+02	-1.961337e-02
3.317114e+02	-1.984008e-02
3.336273e+02	-2.006940e-02
3.355544e+02	-2.030136e-02
3.374925e+02	-2.053600e-02
3.394418e+02	-2.077335e-02
3.414024e+02	-2.101343e-02
3.433744e+02	-2.125628e-02
3.453577e+02	-2.150192e-02
3.473525e+02	-2.175040e-02
3.493588e+02	-2.200175e-02
3.513766e+02	-2.225599e-02
3.534062e+02	-2.251316e-02
3.554474e+02	-2.277329e-02
3.575005e+02	-2.303643e-02
3.595654e+02	-2.330259e-02
3.616422e+02	-2.357182e-02
3.637311e+02	-2.384416e-02
3.658320e+02	-2.411963e-02
3.679450e+02	-2.439827e-02
3.700702e+02	-2.468013e-02
3.722077e+02	-2.496523e-02
3.743576e+02	-2.525362e-02
3.765199e+02	-2.554532e-02
3.786946e+02	-2.584039e-02
3.808820e+02	-2.613885e-02
3.830819e+02	-2.644075e-02
3.852946e+02	-2.674613e-02
3.875200e+02	-2.705502e-02
3.897583e+02	-2.736747e-02
3.920096e+02	-2.768352e-02
3.942738e+02	-2.800320e-02
3.965511e+02	-2.832657e-02
3.988416e+02	-2.865365e-02
4.011452e+02	-2.898450e-02
4.034622e+02	-2.931916e-02
4.057926e+02	-2.965767e-02
4.081365e+02	-3.000007e-02
4.104938e+02	-3.034641e-02
4.128648e+02	-3.069674e-02
4.152495e+02	-3.105109e-02
4.176480e+02	-3.140952e-02
4.200603e+02	-3.177207e-02
4.224866e+02	-3.213880e-02
4.249268e+02	-3.250974e-02
4.273812e+02	-3.288494e-02
4.298497e+02	-3.326446e-02
4.323325e+02	-3.364834e-02
4.348297e+02	-3.403663e-02
4.373412e+02	-3.442939e-02
4.398673e+02	-3.482666e-02
4.424079e+02	-3.522850e-02
4.449633e+02	-3.563495e-02
4.475334e+02	-3.604607e-02
4.501183e+02	-3.646192e-02
4.527182e+02	-3.688254e-02
4.553330e+02	-3.730800e-02
4.579630e+02	-3.773834e-02
4.606082e+02	-3.817362e-02
4.632687e+02	-3.861390e-02
4.659445e+02	-3.905924e-02
4.686358e+02	-3.950969e-02
4.713426e+02	-3.996531e-02
4.740650e+02	-4.042616e-02
4.768032e+02	-4.089230e-02
4.795572e+02	-4.136378e-02
4.823271e+02	-4.184068e-02
4.851130e+02	-4.232305e-02
4.879150e+02	-4.281095e-02
4.907332e+02	-4.330445e-02
4.935676e+02	-4.380361e-02
4.964185e+02	-4.430849e-02
4.992858e+02	-4.481917e-02
5.021696e+02	-4.533569e-02
5.050701e+02	-4.585814e-02
5.079874e+02	-4.638658e-02
5.109215e+02	-4.692107e-02
5.138726e+02	-4.746169e-02
5.168407e+02	-4.800850e-02
5.198259e+02	-4.856158e-02
5.228284e+02	-4.912099e-02
5.258482e+02	-4.968681e-02
5.288855e+02	-5.025911e-02
5.319403e+02	-5.083797e-02
5.350128e+02	-5.142345e-02
5.381030e+02	-5.201563e-02
5.412111e+02	-5.261459e-02
5.443371e+02	-5.322041e-02
5.474812e+02	-5.383315e-02
5.506434e+02	-5.445291e-02
5.538239e+02	-5.507976e-02
5.570228e+02	-5.571378e-02
5.602401e+02	-5.635504e-02
5.634760e+02	-5.700364e-02
5.667306e+02	-5.765966e-02
5.700040e+02	-5.832317e-02
5.732964e+02	-5.899427e-02
5.766077e+02	-5.967303e-02
5.799382e+02	-6.035956e-02
5.832879e+02	-6.105392e-02
5.866569e+02	-6.175621e-02
5.900454e+02	-6.246653e-02
5.934535e+02	-6.318495e-02
5.968813e+02	-6.391158e-02
6.003288e+02	-6.464650e-02
6.037963e+02	-6.538981e-02
6.072838e+02	-6.614160e-02
6.107914e+02	-6.690196e-02
6.143194e+02	-6.767100e-02
6.178676e+02	-6.844881e-02
6.214364e+02	-6.923549e-02
6.250258e+02	-7.003113e-02
6.286359e+02	-7.083585e-02
6.322669e+02	-7.164973e-02
6.359189e+02	-7.247289e-02
6.395919e+02	-7.330542e-02
6.432862e+02	-7.414744e-02
6.470017e+02	-7.499904e-02
6.507388e+02	-7.586034e-02
6.544974e+02	-7.673144e-02
6.582778e+02	-7.761246e-02
6.620800e+02	-7.850350e-02
6.659041e+02	-7.940468e-02
6.697504e+02	-8.031610e-02
6.736188e+02	-8.123789e-02
6.775096e+02	-8.217016e-02
6.814229e+02	-8.311303e-02
6.853587e+02	-8.406660e-02
6.893173e+02	-8.503101e-02
6.932988e+02	-8.600638e-02
6.973033e+02	-8.699282e-02
7.013309e+02	-8.799046e-02
