Frequency(Hz)	Magnitude(dB)
1.000000e+01	-2.095009e+00
1.005776e+01	-2.114148e+00
1.011585e+01	-2.133524e+00
1.017428e+01	-2.152994e+00
1.023305e+01	-2.172881e+00
1.029215e+01	-2.192404e+00
1.035160e+01	-2.212390e+00
1.041139e+01	-2.232346e+00
1.047153e+01	-2.252669e+00
1.053201e+01	-2.272906e+00
1.059284e+01	-2.293382e+00
1.065403e+01	-2.314057e+00
1.071556e+01	-2.334679e+00
1.077746e+01	-2.355614e+00
1.083971e+01	-2.376466e+00
1.090232e+01	-2.397884e+00
1.096529e+01	-2.418985e+00
1.102862e+01	-2.440557e+00
1.109232e+01	-2.461980e+00
1.115639e+01	-2.483796e+00
1.122083e+01	-2.505731e+00
1.128564e+01	-2.527528e+00
1.135083e+01	-2.549691e+00
1.141639e+01	-2.572232e+00
1.148233e+01	-2.594590e+00
1.154865e+01	-2.616913e+00
1.161536e+01	-2.639773e+00
1.168245e+01	-2.662791e+00
1.174992e+01	-2.685820e+00
1.181779e+01	-2.708708e+00
1.188605e+01	-2.731990e+00
1.195470e+01	-2.755660e+00
1.202375e+01	-2.778895e+00
1.209320e+01	-2.802538e+00
1.216305e+01	-2.826617e+00
1.223330e+01	-2.850573e+00
1.230396e+01	-2.874972e+00
1.237503e+01	-2.898823e+00
1.244651e+01	-2.923841e+00
1.251840e+01	-2.948123e+00
1.259070e+01	-2.972926e+00
1.266343e+01	-2.997842e+00
1.273657e+01	-3.022849e+00
1.281014e+01	-3.047702e+00
1.288413e+01	-3.073206e+00
1.295855e+01	-3.098579e+00
1.303339e+01	-3.124231e+00
1.310867e+01	-3.149866e+00
1.318439e+01	-3.175850e+00
1.326054e+01	-3.202001e+00
1.333713e+01	-3.227899e+00
1.341417e+01	-3.254279e+00
1.349165e+01	-3.280754e+00
1.356958e+01	-3.307315e+00
1.364795e+01	-3.334058e+00
1.372678e+01	-3.360799e+00
1.380607e+01	-3.388061e+00
1.388581e+01	-3.415229e+00
1.396602e+01	-3.442531e+00
1.404668e+01	-3.469935e+00
1.412782e+01	-3.497421e+00
1.420942e+01	-3.525433e+00
1.429149e+01	-3.553153e+00
1.437404e+01	-3.581082e+00
1.445706e+01	-3.609306e+00
1.454057e+01	-3.637573e+00
1.462455e+01	-3.666220e+00
1.470902e+01	-3.694622e+00
1.479398e+01	-3.723200e+00
1.487943e+01	-3.752373e+00
1.496537e+01	-3.781393e+00
1.505181e+01	-3.810355e+00
1.513875e+01	-3.839529e+00
1.522619e+01	-3.868976e+00
1.531414e+01	-3.898801e+00
1.540259e+01	-3.928295e+00
1.549156e+01	-3.958326e+00
1.558103e+01	-3.988416e+00
1.567103e+01	-4.018524e+00
1.576155e+01	-4.048251e+00
1.585258e+01	-4.079136e+00
1.594415e+01	-4.109721e+00
1.603624e+01	-4.139973e+00
1.612886e+01	-4.171357e+00
1.622202e+01	-4.201860e+00
1.631572e+01	-4.233149e+00
1.640996e+01	-4.264229e+00
1.650474e+01	-4.295713e+00
1.660008e+01	-4.327157e+00
1.669596e+01	-4.358832e+00
1.679239e+01	-4.390434e+00
1.688938e+01	-4.422249e+00
1.698694e+01	-4.454425e+00
1.708505e+01	-4.486620e+00
1.718373e+01	-4.519121e+00
1.728299e+01	-4.551357e+00
1.738281e+01	-4.583784e+00
1.748322e+01	-4.616673e+00
1.758420e+01	-4.649501e+00
1.768576e+01	-4.682526e+00
1.778792e+01	-4.715323e+00
1.789066e+01	-4.748798e+00
1.799399e+01	-4.781912e+00
1.809793e+01	-4.815197e+00
1.820246e+01	-4.848872e+00
1.830760e+01	-4.882342e+00
1.841334e+01	-4.916511e+00
1.851969e+01	-4.950417e+00
1.862666e+01	-4.984769e+00
1.873425e+01	-5.018983e+00
1.884246e+01	-5.052979e+00
1.895129e+01	-5.087480e+00
1.906075e+01	-5.122289e+00
1.917085e+01	-5.156791e+00
1.928158e+01	-5.191733e+00
1.939295e+01	-5.226559e+00
1.950496e+01	-5.261437e+00
1.961762e+01	-5.297048e+00
1.973093e+01	-5.331894e+00
1.984490e+01	-5.367691e+00
1.995952e+01	-5.403126e+00
2.007480e+01	-5.438611e+00
2.019076e+01	-5.474742e+00
2.030738e+01	-5.510628e+00
2.042467e+01	-5.546634e+00
2.054264e+01	-5.582761e+00
2.066130e+01	-5.618866e+00
2.078064e+01	-5.655333e+00
2.090066e+01	-5.691689e+00
2.102139e+01	-5.728562e+00
2.114280e+01	-5.764833e+00
2.126492e+01	-5.801776e+00
2.138775e+01	-5.838854e+00
2.151128e+01	-5.875649e+00
2.163553e+01	-5.912930e+00
2.176050e+01	-5.950402e+00
2.188619e+01	-5.987409e+00
2.201260e+01	-6.025215e+00
2.213974e+01	-6.062519e+00
2.226762e+01	-6.100386e+00
2.239624e+01	-6.138164e+00
2.252560e+01	-6.175995e+00
2.265571e+01	-6.214064e+00
2.278656e+01	-6.252126e+00
2.291818e+01	-6.290510e+00
2.305055e+01	-6.328861e+00
2.318369e+01	-6.367301e+00
2.331760e+01	-6.405598e+00
2.345228e+01	-6.444623e+00
2.358774e+01	-6.482935e+00
2.372398e+01	-6.521836e+00
2.386101e+01	-6.560746e+00
2.399883e+01	-6.599458e+00
2.413745e+01	-6.638884e+00
2.427686e+01	-6.678511e+00
2.441709e+01	-6.717590e+00
2.455812e+01	-6.756748e+00
2.469997e+01	-6.796644e+00
2.484263e+01	-6.836108e+00
2.498612e+01	-6.875815e+00
2.513044e+01	-6.915580e+00
2.527559e+01	-6.955402e+00
2.542158e+01	-6.995217e+00
2.556842e+01	-7.035707e+00
2.571610e+01	-7.075404e+00
2.586463e+01	-7.115849e+00
2.601403e+01	-7.156259e+00
2.616428e+01	-7.196713e+00
2.631541e+01	-7.237326e+00
2.646740e+01	-7.277788e+00
2.662028e+01	-7.318629e+00
2.677404e+01	-7.359688e+00
2.692868e+01	-7.400160e+00
2.708422e+01	-7.441153e+00
2.724066e+01	-7.482629e+00
2.739800e+01	-7.523668e+00
2.755625e+01	-7.564570e+00
2.771541e+01	-7.605958e+00
2.787550e+01	-7.647317e+00
2.803650e+01	-7.689140e+00
2.819844e+01	-7.730299e+00
2.836131e+01	-7.772211e+00
2.852513e+01	-7.813855e+00
2.868989e+01	-7.855389e+00
2.885560e+01	-7.897635e+00
2.902227e+01	-7.939120e+00
2.918990e+01	-7.981580e+00
2.935850e+01	-8.023441e+00
2.952807e+01	-8.066000e+00
2.969863e+01	-8.108392e+00
2.987016e+01	-8.150133e+00
3.004269e+01	-8.192457e+00
3.021622e+01	-8.235555e+00
3.039075e+01	-8.277688e+00
3.056628e+01	-8.320155e+00
3.074283e+01	-8.363201e+00
3.092040e+01	-8.405785e+00
3.109900e+01	-8.448471e+00
3.127862e+01	-8.491520e+00
3.145929e+01	-8.534494e+00
3.164099e+01	-8.577661e+00
3.182375e+01	-8.620497e+00
3.200756e+01	-8.663621e+00
3.219244e+01	-8.707022e+00
3.237838e+01	-8.750537e+00
3.256540e+01	-8.793990e+00
3.275349e+01	-8.837547e+00
3.294268e+01	-8.880703e+00
3.313295e+01	-8.924237e+00
3.332433e+01	-8.967818e+00
3.351681e+01	-9.011691e+00
3.371040e+01	-9.055859e+00
3.390511e+01	-9.099170e+00
3.410094e+01	-9.143097e+00
3.429791e+01	-9.187165e+00
3.449601e+01	-9.231220e+00
3.469526e+01	-9.275179e+00
3.489566e+01	-9.319101e+00
3.509721e+01	-9.363952e+00
3.529993e+01	-9.407907e+00
3.550382e+01	-9.452432e+00
3.570889e+01	-9.496763e+00
3.591515e+01	-9.541101e+00
3.612259e+01	-9.585461e+00
3.633123e+01	-9.629740e+00
3.654108e+01	-9.674896e+00
3.675214e+01	-9.719114e+00
3.696442e+01	-9.764004e+00
3.717792e+01	-9.808505e+00
3.739266e+01	-9.853789e+00
3.760864e+01	-9.898640e+00
3.782587e+01	-9.943433e+00
3.804435e+01	-9.988261e+00
3.826409e+01	-1.003373e+01
3.848510e+01	-1.007932e+01
3.870739e+01	-1.012371e+01
3.893096e+01	-1.016875e+01
3.915583e+01	-1.021450e+01
3.938199e+01	-1.025905e+01
3.960946e+01	-1.030472e+01
3.983824e+01	-1.035044e+01
4.006834e+01	-1.039524e+01
4.029978e+01	-1.044106e+01
4.053255e+01	-1.048619e+01
4.076666e+01	-1.053250e+01
4.100213e+01	-1.057820e+01
4.123896e+01	-1.062347e+01
4.147715e+01	-1.066898e+01
4.171672e+01	-1.071489e+01
4.195767e+01	-1.076035e+01
4.220002e+01	-1.080691e+01
4.244377e+01	-1.085252e+01
4.268892e+01	-1.089913e+01
4.293549e+01	-1.094457e+01
4.318348e+01	-1.099078e+01
4.343291e+01	-1.103728e+01
4.368377e+01	-1.108259e+01
4.393609e+01	-1.112891e+01
4.418986e+01	-1.117439e+01
4.444510e+01	-1.122166e+01
4.470182e+01	-1.126743e+01
4.496001e+01	-1.131351e+01
4.521970e+01	-1.136005e+01
4.548089e+01	-1.140747e+01
4.574358e+01	-1.145284e+01
4.600779e+01	-1.149913e+01
4.627353e+01	-1.154614e+01
4.654081e+01	-1.159268e+01
4.680963e+01	-1.163983e+01
4.708000e+01	-1.168567e+01
4.735193e+01	-1.173235e+01
4.762543e+01	-1.177880e+01
4.790051e+01	-1.182546e+01
4.817719e+01	-1.187286e+01
4.845545e+01	-1.191928e+01
4.873533e+01	-1.196564e+01
4.901682e+01	-1.201305e+01
4.929994e+01	-1.205974e+01
4.958470e+01	-1.210661e+01
4.987110e+01	-1.215387e+01
5.015915e+01	-1.219998e+01
5.044887e+01	-1.224806e+01
5.074026e+01	-1.229434e+01
5.103333e+01	-1.234188e+01
5.132810e+01	-1.238911e+01
5.162457e+01	-1.243683e+01
5.192275e+01	-1.248298e+01
5.222265e+01	-1.253072e+01
5.252429e+01	-1.257850e+01
5.282767e+01	-1.262499e+01
5.313280e+01	-1.267260e+01
5.343969e+01	-1.272032e+01
5.374836e+01	-1.276770e+01
5.405880e+01	-1.281417e+01
5.437105e+01	-1.286089e+01
5.468509e+01	-1.290898e+01
5.500095e+01	-1.295675e+01
5.531863e+01	-1.300496e+01
5.563815e+01	-1.305235e+01
5.595951e+01	-1.309955e+01
5.628273e+01	-1.314642e+01
5.660782e+01	-1.319496e+01
5.693479e+01	-1.324274e+01
5.726364e+01	-1.328977e+01
5.759439e+01	-1.333740e+01
5.792705e+01	-1.338529e+01
5.826164e+01	-1.343380e+01
5.859815e+01	-1.348110e+01
5.893662e+01	-1.352852e+01
5.927703e+01	-1.357689e+01
5.961941e+01	-1.362501e+01
5.996377e+01	-1.367220e+01
6.031012e+01	-1.372005e+01
6.065847e+01	-1.376841e+01
6.100883e+01	-1.381555e+01
6.136121e+01	-1.386365e+01
6.171563e+01	-1.391205e+01
6.207210e+01	-1.396025e+01
6.243063e+01	-1.400753e+01
6.279122e+01	-1.405602e+01
6.315390e+01	-1.410330e+01
6.351868e+01	-1.415246e+01
6.388556e+01	-1.420143e+01
6.425456e+01	-1.424864e+01
6.462569e+01	-1.429669e+01
6.499897e+01	-1.434511e+01
6.537440e+01	-1.439294e+01
6.575200e+01	-1.444178e+01
6.613178e+01	-1.448926e+01
6.651375e+01	-1.453722e+01
6.689793e+01	-1.458575e+01
6.728433e+01	-1.463495e+01
6.767297e+01	-1.468215e+01
6.806384e+01	-1.473093e+01
6.845698e+01	-1.477902e+01
6.885238e+01	-1.482825e+01
6.925007e+01	-1.487575e+01
6.965005e+01	-1.492396e+01
7.005235e+01	-1.497217e+01
7.045697e+01	-1.502082e+01
7.086393e+01	-1.507041e+01
7.127323e+01	-1.511864e+01
7.168490e+01	-1.516684e+01
7.209895e+01	-1.521513e+01
7.251539e+01	-1.526420e+01
7.293424e+01	-1.531214e+01
7.335551e+01	-1.535988e+01
7.377920e+01	-1.540936e+01
7.420535e+01	-1.545876e+01
7.463396e+01	-1.550612e+01
7.506504e+01	-1.555464e+01
7.549861e+01	-1.560439e+01
7.593469e+01	-1.565252e+01
7.637328e+01	-1.570176e+01
7.681441e+01	-1.575098e+01
7.725809e+01	-1.579886e+01
7.770433e+01	-1.584828e+01
7.815315e+01	-1.589519e+01
7.860456e+01	-1.594479e+01
7.905857e+01	-1.599392e+01
7.951521e+01	-1.604333e+01
7.997449e+01	-1.609125e+01
8.043642e+01	-1.614066e+01
8.090102e+01	-1.618843e+01
8.136830e+01	-1.623753e+01
8.183828e+01	-1.628773e+01
8.231097e+01	-1.633587e+01
8.278640e+01	-1.638468e+01
8.326457e+01	-1.643382e+01
8.374550e+01	-1.648269e+01
8.422921e+01	-1.653108e+01
8.471572e+01	-1.658034e+01
8.520503e+01	-1.662896e+01
8.569717e+01	-1.667757e+01
8.619215e+01	-1.672710e+01
8.669000e+01	-1.677674e+01
8.719071e+01	-1.682520e+01
8.769432e+01	-1.687412e+01
8.820084e+01	-1.692248e+01
8.871029e+01	-1.697159e+01
8.922267e+01	-1.702100e+01
8.973802e+01	-1.706953e+01
9.025634e+01	-1.711831e+01
9.077766e+01	-1.716720e+01
9.130199e+01	-1.721742e+01
9.182935e+01	-1.726591e+01
9.235975e+01	-1.731503e+01
9.289321e+01	-1.736390e+01
9.342976e+01	-1.741309e+01
9.396941e+01	-1.746219e+01
9.451217e+01	-1.751158e+01
9.505807e+01	-1.756029e+01
9.560712e+01	-1.760942e+01
9.615934e+01	-1.765845e+01
9.671476e+01	-1.770783e+01
9.727338e+01	-1.775728e+01
9.783522e+01	-1.780706e+01
9.840032e+01	-1.785571e+01
9.896867e+01	-1.790558e+01
9.954031e+01	-1.795471e+01
1.001153e+02	-1.800473e+01
1.006935e+02	-1.805371e+01
1.012751e+02	-1.810149e+01
1.018601e+02	-1.815161e+01
1.024484e+02	-1.820023e+01
1.030402e+02	-1.825097e+01
1.036353e+02	-1.829915e+01
1.042339e+02	-1.834931e+01
1.048360e+02	-1.839729e+01
1.054415e+02	-1.844720e+01
1.060505e+02	-1.849622e+01
1.066631e+02	-1.854741e+01
1.072791e+02	-1.859607e+01
1.078988e+02	-1.864451e+01
1.085220e+02	-1.869402e+01
1.091488e+02	-1.874360e+01
1.097793e+02	-1.879150e+01
1.104133e+02	-1.884208e+01
1.110511e+02	-1.889141e+01
1.116925e+02	-1.894101e+01
1.123376e+02	-1.898958e+01
1.129865e+02	-1.903781e+01
1.136391e+02	-1.908924e+01
1.142955e+02	-1.913857e+01
1.149556e+02	-1.918669e+01
1.156196e+02	-1.923711e+01
1.162874e+02	-1.928650e+01
1.169591e+02	-1.933771e+01
1.176347e+02	-1.938612e+01
1.183141e+02	-1.943400e+01
1.189975e+02	-1.948544e+01
1.196848e+02	-1.953450e+01
1.203761e+02	-1.958332e+01
1.210714e+02	-1.963259e+01
1.217707e+02	-1.968274e+01
1.224740e+02	-1.973033e+01
1.231814e+02	-1.978001e+01
1.238929e+02	-1.983158e+01
1.246085e+02	-1.988092e+01
1.253283e+02	-1.992996e+01
1.260522e+02	-1.998008e+01
1.267802e+02	-2.003031e+01
1.275125e+02	-2.007885e+01
1.282490e+02	-2.012820e+01
1.289898e+02	-2.017837e+01
1.297348e+02	-2.022694e+01
1.304842e+02	-2.027563e+01
1.312378e+02	-2.032817e+01
1.319959e+02	-2.037527e+01
1.327583e+02	-2.042640e+01
1.335251e+02	-2.047660e+01
1.342963e+02	-2.052448e+01
1.350720e+02	-2.057513e+01
1.358522e+02	-2.062445e+01
1.366368e+02	-2.067400e+01
1.374260e+02	-2.072418e+01
1.382198e+02	-2.077138e+01
1.390182e+02	-2.082208e+01
1.398211e+02	-2.087321e+01
1.406287e+02	-2.092285e+01
1.414410e+02	-2.097146e+01
1.422579e+02	-2.102184e+01
1.430796e+02	-2.107080e+01
1.439060e+02	-2.112058e+01
1.447372e+02	-2.117124e+01
1.455732e+02	-2.122009e+01
1.464141e+02	-2.127066e+01
1.472597e+02	-2.131796e+01
1.481103e+02	-2.136775e+01
1.489658e+02	-2.141810e+01
1.498262e+02	-2.146895e+01
1.506916e+02	-2.151597e+01
1.515620e+02	-2.156630e+01
1.524374e+02	-2.161636e+01
1.533179e+02	-2.166804e+01
1.542034e+02	-2.171511e+01
1.550941e+02	-2.176889e+01
1.559899e+02	-2.181796e+01
1.568909e+02	-2.186491e+01
1.577971e+02	-2.191428e+01
1.587085e+02	-2.196590e+01
1.596252e+02	-2.201381e+01
1.605472e+02	-2.206489e+01
1.614745e+02	-2.211518e+01
1.624072e+02	-2.216688e+01
1.633453e+02	-2.221340e+01
1.642887e+02	-2.226152e+01
1.652377e+02	-2.231322e+01
1.661921e+02	-2.236187e+01
1.671520e+02	-2.241200e+01
1.681175e+02	-2.246361e+01
1.690885e+02	-2.251246e+01
1.700651e+02	-2.256316e+01
1.710474e+02	-2.261407e+01
1.720354e+02	-2.266160e+01
1.730291e+02	-2.271074e+01
1.740285e+02	-2.276252e+01
1.750337e+02	-2.281078e+01
1.760446e+02	-2.286105e+01
1.770615e+02	-2.291015e+01
1.780842e+02	-2.296041e+01
1.791128e+02	-2.300966e+01
1.801473e+02	-2.305974e+01
1.811878e+02	-2.310963e+01
1.822344e+02	-2.315956e+01
1.832870e+02	-2.320932e+01
1.843456e+02	-2.326004e+01
1.854104e+02	-2.331029e+01
1.864813e+02	-2.335768e+01
1.875584e+02	-2.341039e+01
1.886418e+02	-2.345587e+01
1.897313e+02	-2.350610e+01
1.908272e+02	-2.355840e+01
1.919294e+02	-2.360660e+01
1.930380e+02	-2.365539e+01
1.941530e+02	-2.370806e+01
1.952744e+02	-2.375938e+01
1.964023e+02	-2.380711e+01
1.975367e+02	-2.385789e+01
1.986777e+02	-2.390900e+01
1.998252e+02	-2.395660e+01
2.009794e+02	-2.400528e+01
2.021403e+02	-2.405549e+01
2.033078e+02	-2.410765e+01
2.044821e+02	-2.415684e+01
2.056632e+02	-2.420571e+01
2.068511e+02	-2.425471e+01
2.080459e+02	-2.430574e+01
2.092475e+02	-2.435591e+01
2.104561e+02	-2.440829e+01
2.116717e+02	-2.445400e+01
2.128943e+02	-2.450462e+01
2.141240e+02	-2.455469e+01
2.153608e+02	-2.460768e+01
2.166047e+02	-2.465515e+01
2.178558e+02	-2.470461e+01
2.191141e+02	-2.475563e+01
2.203797e+02	-2.480281e+01
2.216526e+02	-2.485394e+01
2.229329e+02	-2.490570e+01
2.242205e+02	-2.495272e+01
2.255156e+02	-2.500484e+01
2.268182e+02	-2.505202e+01
2.281283e+02	-2.510437e+01
2.294459e+02	-2.515580e+01
2.307712e+02	-2.520744e+01
2.321041e+02	-2.525563e+01
2.334447e+02	-2.530383e+01
2.347931e+02	-2.535510e+01
2.361493e+02	-2.540252e+01
2.375133e+02	-2.545450e+01
2.388851e+02	-2.550416e+01
2.402649e+02	-2.554932e+01
2.416527e+02	-2.560205e+01
2.430484e+02	-2.565325e+01
2.444523e+02	-2.570355e+01
2.458642e+02	-2.575246e+01
2.472843e+02	-2.580450e+01
2.487126e+02	-2.585199e+01
2.501492e+02	-2.590125e+01
2.515940e+02	-2.595686e+01
2.530472e+02	-2.600459e+01
2.545088e+02	-2.605046e+01
2.559789e+02	-2.610127e+01
2.574574e+02	-2.615235e+01
2.589444e+02	-2.620259e+01
2.604401e+02	-2.625271e+01
2.619444e+02	-2.630332e+01
2.634574e+02	-2.635290e+01
2.649791e+02	-2.639930e+01
2.665096e+02	-2.645213e+01
2.680489e+02	-2.650083e+01
2.695972e+02	-2.655258e+01
2.711544e+02	-2.660634e+01
2.727205e+02	-2.665051e+01
2.742958e+02	-2.670172e+01
2.758801e+02	-2.675242e+01
2.774736e+02	-2.680210e+01
2.790762e+02	-2.685346e+01
2.806882e+02	-2.690459e+01
2.823094e+02	-2.695358e+01
2.839400e+02	-2.700133e+01
2.855800e+02	-2.705456e+01
2.872295e+02	-2.709951e+01
2.888886e+02	-2.715287e+01
2.905572e+02	-2.720238e+01
2.922354e+02	-2.724994e+01
2.939234e+02	-2.730016e+01
2.956211e+02	-2.735488e+01
2.973286e+02	-2.740209e+01
2.990459e+02	-2.744860e+01
3.007732e+02	-2.750262e+01
3.025104e+02	-2.755584e+01
3.042577e+02	-2.760164e+01
3.060151e+02	-2.765112e+01
3.077826e+02	-2.770139e+01
3.095604e+02	-2.775267e+01
3.113484e+02	-2.780150e+01
3.131467e+02	-2.785168e+01
3.149554e+02	-2.790052e+01
3.167746e+02	-2.795271e+01
3.186043e+02	-2.800185e+01
3.204445e+02	-2.805034e+01
3.222954e+02	-2.810423e+01
3.241570e+02	-2.815121e+01
3.260293e+02	-2.819944e+01
3.279124e+02	-2.824845e+01
3.298064e+02	-2.830638e+01
3.317114e+02	-2.835367e+01
3.336273e+02	-2.840658e+01
3.355544e+02	-2.845594e+01
3.374925e+02	-2.850171e+01
3.394418e+02	-2.855183e+01
3.414024e+02	-2.859909e+01
3.433744e+02	-2.864912e+01
3.453577e+02	-2.870212e+01
3.473525e+02	-2.875085e+01
3.493588e+02	-2.880661e+01
3.513766e+02	-2.885491e+01
3.534062e+02	-2.890200e+01
3.554474e+02	-2.895253e+01
3.575005e+02	-2.900052e+01
3.595654e+02	-2.905323e+01
3.616422e+02	-2.909819e+01
3.637311e+02	-2.915756e+01
3.658320e+02	-2.920048e+01
3.679450e+02	-2.925324e+01
3.700702e+02	-2.929949e+01
3.722077e+02	-2.935143e+01
3.743576e+02	-2.940181e+01
3.765199e+02	-2.945608e+01
3.786946e+02	-2.950766e+01
3.808820e+02	-2.955612e+01
3.830819e+02	-2.960224e+01
3.852946e+02	-2.965567e+01
3.875200e+02	-2.970921e+01
3.897583e+02	-2.975415e+01
3.920096e+02	-2.980205e+01
3.942738e+02	-2.985525e+01
3.965511e+02	-2.990319e+01
3.988416e+02	-2.994845e+01
4.011452e+02	-3.000325e+01
4.034622e+02	-3.005517e+01
4.057926e+02	-3.010508e+01
4.081365e+02	-3.015044e+01
4.104938e+02	-3.020170e+01
4.128648e+02	-3.025523e+01
4.152495e+02	-3.030483e+01
4.176480e+02	-3.035791e+01
4.200603e+02	-3.040129e+01
4.224866e+02	-3.045728e+01
4.249268e+02	-3.050954e+01
4.273812e+02	-3.055228e+01
4.298497e+02	-3.060229e+01
4.323325e+02	-3.065398e+01
4.348297e+02	-3.070823e+01
4.373412e+02	-3.075843e+01
4.398673e+02	-3.080346e+01
4.424079e+02	-3.086142e+01
4.449633e+02	-3.091029e+01
4.475334e+02	-3.096076e+01
4.501183e+02	-3.100792e+01
4.527182e+02	-3.105586e+01
4.553330e+02	-3.111246e+01
4.579630e+02	-3.116344e+01
4.606082e+02	-3.120825e+01
4.632687e+02	-3.125556e+01
4.659445e+02	-3.130498e+01
4.686358e+02	-3.135862e+01
4.713426e+02	-3.140496e+01
4.740650e+02	-3.145966e+01
4.768032e+02	-3.151114e+01
4.795572e+02	-3.156096e+01
4.823271e+02	-3.160936e+01
4.851130e+02	-3.165924e+01
4.879150e+02	-3.170646e+01
4.907332e+02	-3.176188e+01
4.935676e+02	-3.181271e+01
4.964185e+02	-3.186237e+01
4.992858e+02	-3.190891e+01
5.021696e+02	-3.195674e+01
5.050701e+02	-3.200933e+01
5.079874e+02	-3.205635e+01
5.109215e+02	-3.211097e+01
5.138726e+02	-3.215643e+01
5.168407e+02	-3.221614e+01
5.198259e+02	-3.226371e+01
5.228284e+02	-3.230945e+01
5.258482e+02	-3.236415e+01
5.288855e+02	-3.241164e+01
5.319403e+02	-3.245618e+01
5.350128e+02	-3.251055e+01
5.381030e+02	-3.256723e+01
5.412111e+02	-3.260965e+01
5.443371e+02	-3.266149e+01
5.474812e+02	-3.271440e+01
5.506434e+02	-3.276282e+01
5.538239e+02	-3.281054e+01
5.570228e+02	-3.286746e+01
5.602401e+02	-3.291297e+01
5.634760e+02	-3.297143e+01
5.667306e+02	-3.300853e+01
5.700040e+02	-3.306147e+01
5.732964e+02	-3.311515e+01
5.766077e+02	-3.317395e+01
5.799382e+02	-3.321659e+01
5.832879e+02	-3.326208e+01
5.866569e+02	-3.331560e+01
5.900454e+02	-3.336733e+01
5.934535e+02	-3.342318e+01
5.968813e+02	-3.346487e+01
6.003288e+02	-3.351640e+01
6.037963e+02	-3.356577e+01
6.072838e+02	-3.362790e+01
6.107914e+02	-3.367028e+01
6.143194e+02	-3.372112e+01
6.178676e+02	-3.377075e+01
6.214364e+02	-3.381000e+01
6.250258e+02	-3.386926e+01
6.286359e+02	-3.391502e+01
6.322669e+02	-3.397583e+01
6.359189e+02	-3.401109e+01
6.395919e+02	-3.407830e+01
6.432862e+02	-3.411821e+01
6.470017e+02	-3.417197e+01
6.507388e+02	-3.422826e+01
6.544974e+02	-3.427192e+01
6.582778e+02	-3.432791e+01
6.620800e+02	-3.437180e+01
6.659041e+02	-3.442205e+01
6.697504e+02	-3.447321e+01
6.736188e+02	-3.451993e+01
6.775096e+02	-3.456841e+01
6.814229e+02	-3.462678e+01
6.853587e+02	-3.468258e+01
6.893173e+02	-3.473099e+01
6.932988e+02	-3.477328e+01
6.973033e+02	-3.482519e+01
7.013309e+02	-3.488138e+01
