Frequency(Hz)	Magnitude(dB)
1.000000e+01	-1.555477e-05
1.005776e+01	-1.573498e-05
1.011585e+01	-1.591727e-05
1.017428e+01	-1.610168e-05
1.023305e+01	-1.628822e-05
1.029215e+01	-1.647692e-05
1.035160e+01	-1.666781e-05
1.041139e+01	-1.686091e-05
1.047153e+01	-1.705625e-05
1.053201e+01	-1.725385e-05
1.059284e+01	-1.745374e-05
1.065403e+01	-1.765595e-05
1.071556e+01	-1.786050e-05
1.077746e+01	-1.806742e-05
1.083971e+01	-1.827673e-05
1.090232e+01	-1.848847e-05
1.096529e+01	-1.870267e-05
1.102862e+01	-1.891934e-05
1.109232e+01	-1.913853e-05
1.115639e+01	-1.936025e-05
1.122083e+01	-1.958455e-05
1.128564e+01	-1.981144e-05
1.135083e+01	-2.004096e-05
1.141639e+01	-2.027314e-05
1.148233e+01	-2.050801e-05
1.154865e+01	-2.074560e-05
1.161536e+01	-2.098594e-05
1.168245e+01	-2.122907e-05
1.174992e+01	-2.147501e-05
1.181779e+01	-2.172380e-05
1.188605e+01	-2.197548e-05
1.195470e+01	-2.223007e-05
1.202375e+01	-2.248761e-05
1.209320e+01	-2.274814e-05
1.216305e+01	-2.301168e-05
1.223330e+01	-2.327828e-05
1.230396e+01	-2.354796e-05
1.237503e+01	-2.382077e-05
1.244651e+01	-2.409674e-05
1.251840e+01	-2.437591e-05
1.259070e+01	-2.465831e-05
1.266343e+01	-2.494398e-05
1.273657e+01	-2.523296e-05
1.281014e+01	-2.552529e-05
1.288413e+01	-2.582101e-05
1.295855e+01	-2.612015e-05
1.303339e+01	-2.642276e-05
1.310867e+01	-2.672887e-05
1.318439e+01	-2.703853e-05
1.326054e+01	-2.735178e-05
1.333713e+01	-2.766866e-05
1.341417e+01	-2.798921e-05
1.349165e+01	-2.831347e-05
1.356958e+01	-2.864149e-05
1.364795e+01	-2.897331e-05
1.372678e+01	-2.930897e-05
1.380607e+01	-2.964852e-05
1.388581e+01	-2.999201e-05
1.396602e+01	-3.033947e-05
1.404668e+01	-3.069096e-05
1.412782e+01	-3.104652e-05
1.420942e+01	-3.140620e-05
1.429149e+01	-3.177005e-05
1.437404e+01	-3.213812e-05
1.445706e+01	-3.251044e-05
1.454057e+01	-3.288708e-05
1.462455e+01	-3.326809e-05
1.470902e+01	-3.365351e-05
1.479398e+01	-3.404339e-05
1.487943e+01	-3.443779e-05
1.496537e+01	-3.483676e-05
1.505181e+01	-3.524035e-05
1.513875e+01	-3.564862e-05
1.522619e+01	-3.606162e-05
1.531414e+01	-3.647940e-05
1.540259e+01	-3.690202e-05
1.549156e+01	-3.732954e-05
1.558103e+01	-3.776201e-05
1.567103e+01	-3.819950e-05
1.576155e+01	-3.864205e-05
1.585258e+01	-3.908972e-05
1.594415e+01	-3.954259e-05
1.603624e+01	-4.000070e-05
1.612886e+01	-4.046411e-05
1.622202e+01	-4.093290e-05
1.631572e+01	-4.140711e-05
1.640996e+01	-4.188683e-05
1.650474e+01	-4.237209e-05
1.660008e+01	-4.286298e-05
1.669596e+01	-4.335956e-05
1.679239e+01	-4.386189e-05
1.688938e+01	-4.437004e-05
1.698694e+01	-4.488408e-05
1.708505e+01	-4.540407e-05
1.718373e+01	-4.593009e-05
1.728299e+01	-4.646220e-05
1.738281e+01	-4.700047e-05
1.748322e+01	-4.754498e-05
1.758420e+01	-4.809580e-05
1.768576e+01	-4.865300e-05
1.778792e+01	-4.921666e-05
1.789066e+01	-4.978684e-05
1.799399e+01	-5.036363e-05
1.809793e+01	-5.094711e-05
1.820246e+01	-5.153734e-05
1.830760e+01	-5.213441e-05
1.841334e+01	-5.273840e-05
1.851969e+01	-5.334938e-05
1.862666e+01	-5.396745e-05
1.873425e+01	-5.459267e-05
1.884246e+01	-5.522514e-05
1.895129e+01	-5.586493e-05
1.906075e+01	-5.651214e-05
1.917085e+01	-5.716684e-05
1.928158e+01	-5.782913e-05
1.939295e+01	-5.849910e-05
1.950496e+01	-5.917682e-05
1.961762e+01	-5.986239e-05
1.973093e+01	-6.055591e-05
1.984490e+01	-6.125746e-05
1.995952e+01	-6.196714e-05
2.007480e+01	-6.268505e-05
2.019076e+01	-6.341126e-05
2.030738e+01	-6.414590e-05
2.042467e+01	-6.488904e-05
2.054264e+01	-6.564079e-05
2.066130e+01	-6.640125e-05
2.078064e+01	-6.717052e-05
2.090066e+01	-6.794871e-05
2.102139e+01	-6.873590e-05
2.114280e+01	-6.953222e-05
2.126492e+01	-7.033777e-05
2.138775e+01	-7.115264e-05
2.151128e+01	-7.197696e-05
2.163553e+01	-7.281083e-05
2.176050e+01	-7.365435e-05
2.188619e+01	-7.450765e-05
2.201260e+01	-7.537084e-05
2.213974e+01	-7.624402e-05
2.226762e+01	-7.712732e-05
2.239624e+01	-7.802085e-05
2.252560e+01	-7.892474e-05
2.265571e+01	-7.983910e-05
2.278656e+01	-8.076405e-05
2.291818e+01	-8.169971e-05
2.305055e+01	-8.264622e-05
2.318369e+01	-8.360369e-05
2.331760e+01	-8.457225e-05
2.345228e+01	-8.555203e-05
2.358774e+01	-8.654317e-05
2.372398e+01	-8.754578e-05
2.386101e+01	-8.856002e-05
2.399883e+01	-8.958600e-05
2.413745e+01	-9.062387e-05
2.427686e+01	-9.167376e-05
2.441709e+01	-9.273581e-05
2.455812e+01	-9.381017e-05
2.469997e+01	-9.489698e-05
2.484263e+01	-9.599637e-05
2.498612e+01	-9.710850e-05
2.513044e+01	-9.823352e-05
2.527559e+01	-9.937157e-05
2.542158e+01	-1.005228e-04
2.556842e+01	-1.016874e-04
2.571610e+01	-1.028654e-04
2.586463e+01	-1.040571e-04
2.601403e+01	-1.052627e-04
2.616428e+01	-1.064821e-04
2.631541e+01	-1.077158e-04
2.646740e+01	-1.089637e-04
2.662028e+01	-1.102260e-04
2.677404e+01	-1.115030e-04
2.692868e+01	-1.127948e-04
2.708422e+01	-1.141015e-04
2.724066e+01	-1.154234e-04
2.739800e+01	-1.167606e-04
2.755625e+01	-1.181133e-04
2.771541e+01	-1.194816e-04
2.787550e+01	-1.208658e-04
2.803650e+01	-1.222661e-04
2.819844e+01	-1.236826e-04
2.836131e+01	-1.251154e-04
2.852513e+01	-1.265649e-04
2.868989e+01	-1.280312e-04
2.885560e+01	-1.295144e-04
2.902227e+01	-1.310149e-04
2.918990e+01	-1.325327e-04
2.935850e+01	-1.340681e-04
2.952807e+01	-1.356213e-04
2.969863e+01	-1.371925e-04
2.987016e+01	-1.387819e-04
3.004269e+01	-1.403897e-04
3.021622e+01	-1.420161e-04
3.039075e+01	-1.436614e-04
3.056628e+01	-1.453257e-04
3.074283e+01	-1.470093e-04
3.092040e+01	-1.487124e-04
3.109900e+01	-1.504353e-04
3.127862e+01	-1.521781e-04
3.145929e+01	-1.539411e-04
3.164099e+01	-1.557245e-04
3.182375e+01	-1.575285e-04
3.200756e+01	-1.593535e-04
3.219244e+01	-1.611996e-04
3.237838e+01	-1.630672e-04
3.256540e+01	-1.649563e-04
3.275349e+01	-1.668673e-04
3.294268e+01	-1.688005e-04
3.313295e+01	-1.707561e-04
3.332433e+01	-1.727343e-04
3.351681e+01	-1.747354e-04
3.371040e+01	-1.767597e-04
3.390511e+01	-1.788075e-04
3.410094e+01	-1.808790e-04
3.429791e+01	-1.829745e-04
3.449601e+01	-1.850942e-04
3.469526e+01	-1.872386e-04
3.489566e+01	-1.894077e-04
3.509721e+01	-1.916020e-04
3.529993e+01	-1.938217e-04
3.550382e+01	-1.960672e-04
3.570889e+01	-1.983386e-04
3.591515e+01	-2.006364e-04
3.612259e+01	-2.029607e-04
3.633123e+01	-2.053120e-04
3.654108e+01	-2.076906e-04
3.675214e+01	-2.100967e-04
3.696442e+01	-2.125306e-04
3.717792e+01	-2.149928e-04
3.739266e+01	-2.174835e-04
3.760864e+01	-2.200030e-04
3.782587e+01	-2.225518e-04
3.804435e+01	-2.251300e-04
3.826409e+01	-2.277381e-04
3.848510e+01	-2.303765e-04
3.870739e+01	-2.330454e-04
3.893096e+01	-2.357452e-04
3.915583e+01	-2.384763e-04
3.938199e+01	-2.412390e-04
3.960946e+01	-2.440338e-04
3.983824e+01	-2.468609e-04
4.006834e+01	-2.497208e-04
4.029978e+01	-2.526138e-04
4.053255e+01	-2.555403e-04
4.076666e+01	-2.585007e-04
4.100213e+01	-2.614954e-04
4.123896e+01	-2.645248e-04
4.147715e+01	-2.675893e-04
4.171672e+01	-2.706893e-04
4.195767e+01	-2.738252e-04
4.220002e+01	-2.769975e-04
4.244377e+01	-2.802065e-04
4.268892e+01	-2.834526e-04
4.293549e+01	-2.867364e-04
4.318348e+01	-2.900582e-04
4.343291e+01	-2.934185e-04
4.368377e+01	-2.968177e-04
4.393609e+01	-3.002563e-04
4.418986e+01	-3.037348e-04
4.444510e+01	-3.072535e-04
4.470182e+01	-3.108130e-04
4.496001e+01	-3.144137e-04
4.521970e+01	-3.180561e-04
4.548089e+01	-3.217408e-04
4.574358e+01	-3.254681e-04
4.600779e+01	-3.292386e-04
4.627353e+01	-3.330527e-04
4.654081e+01	-3.369111e-04
4.680963e+01	-3.408142e-04
4.708000e+01	-3.447624e-04
4.735193e+01	-3.487564e-04
4.762543e+01	-3.527967e-04
4.790051e+01	-3.568838e-04
4.817719e+01	-3.610182e-04
4.845545e+01	-3.652005e-04
4.873533e+01	-3.694313e-04
4.901682e+01	-3.737111e-04
4.929994e+01	-3.780404e-04
4.958470e+01	-3.824200e-04
4.987110e+01	-3.868502e-04
5.015915e+01	-3.913318e-04
5.044887e+01	-3.958652e-04
5.074026e+01	-4.004512e-04
5.103333e+01	-4.050904e-04
5.132810e+01	-4.097832e-04
5.162457e+01	-4.145305e-04
5.192275e+01	-4.193327e-04
5.222265e+01	-4.241905e-04
5.252429e+01	-4.291046e-04
5.282767e+01	-4.340757e-04
5.313280e+01	-4.391043e-04
5.343969e+01	-4.441912e-04
5.374836e+01	-4.493370e-04
5.405880e+01	-4.545424e-04
5.437105e+01	-4.598082e-04
5.468509e+01	-4.651349e-04
5.500095e+01	-4.705233e-04
5.531863e+01	-4.759741e-04
5.563815e+01	-4.814881e-04
5.595951e+01	-4.870660e-04
5.628273e+01	-4.927085e-04
5.660782e+01	-4.984163e-04
5.693479e+01	-5.041903e-04
5.726364e+01	-5.100311e-04
5.759439e+01	-5.159396e-04
5.792705e+01	-5.219165e-04
5.826164e+01	-5.279627e-04
5.859815e+01	-5.340789e-04
5.893662e+01	-5.402660e-04
5.927703e+01	-5.465247e-04
5.961941e+01	-5.528560e-04
5.996377e+01	-5.592606e-04
6.031012e+01	-5.657393e-04
6.065847e+01	-5.722931e-04
6.100883e+01	-5.789229e-04
6.136121e+01	-5.856294e-04
6.171563e+01	-5.924136e-04
6.207210e+01	-5.992764e-04
6.243063e+01	-6.062187e-04
6.279122e+01	-6.132414e-04
6.315390e+01	-6.203455e-04
6.351868e+01	-6.275318e-04
6.388556e+01	-6.348014e-04
6.425456e+01	-6.421552e-04
6.462569e+01	-6.495942e-04
6.499897e+01	-6.571194e-04
6.537440e+01	-6.647317e-04
6.575200e+01	-6.724322e-04
6.613178e+01	-6.802219e-04
6.651375e+01	-6.881019e-04
6.689793e+01	-6.960731e-04
6.728433e+01	-7.041366e-04
6.767297e+01	-7.122936e-04
6.806384e+01	-7.205450e-04
6.845698e+01	-7.288920e-04
6.885238e+01	-7.373357e-04
6.925007e+01	-7.458772e-04
6.965005e+01	-7.545176e-04
7.005235e+01	-7.632582e-04
7.045697e+01	-7.720999e-04
7.086393e+01	-7.810441e-04
7.127323e+01	-7.900919e-04
7.168490e+01	-7.992445e-04
7.209895e+01	-8.085031e-04
7.251539e+01	-8.178689e-04
7.293424e+01	-8.273433e-04
7.335551e+01	-8.369273e-04
7.377920e+01	-8.466224e-04
7.420535e+01	-8.564298e-04
7.463396e+01	-8.663508e-04
7.506504e+01	-8.763867e-04
7.549861e+01	-8.865388e-04
7.593469e+01	-8.968086e-04
7.637328e+01	-9.071973e-04
7.681441e+01	-9.177063e-04
7.725809e+01	-9.283370e-04
7.770433e+01	-9.390909e-04
7.815315e+01	-9.499693e-04
7.860456e+01	-9.609738e-04
7.905857e+01	-9.721057e-04
7.951521e+01	-9.833665e-04
7.997449e+01	-9.947578e-04
8.043642e+01	-1.006281e-03
8.090102e+01	-1.017938e-03
8.136830e+01	-1.029729e-03
8.183828e+01	-1.041658e-03
8.231097e+01	-1.053724e-03
8.278640e+01	-1.065930e-03
8.326457e+01	-1.078278e-03
8.374550e+01	-1.090768e-03
8.422921e+01	-1.103404e-03
8.471572e+01	-1.116185e-03
8.520503e+01	-1.129115e-03
8.569717e+01	-1.142194e-03
8.619215e+01	-1.155425e-03
8.669000e+01	-1.168809e-03
8.719071e+01	-1.182348e-03
8.769432e+01	-1.196044e-03
8.820084e+01	-1.209899e-03
8.871029e+01	-1.223914e-03
8.922267e+01	-1.238091e-03
8.973802e+01	-1.252433e-03
9.025634e+01	-1.266940e-03
9.077766e+01	-1.281616e-03
9.130199e+01	-1.296462e-03
9.182935e+01	-1.311479e-03
9.235975e+01	-1.326671e-03
9.289321e+01	-1.342038e-03
9.342976e+01	-1.357584e-03
9.396941e+01	-1.373309e-03
9.451217e+01	-1.389217e-03
9.505807e+01	-1.405309e-03
9.560712e+01	-1.421587e-03
9.615934e+01	-1.438054e-03
9.671476e+01	-1.454711e-03
9.727338e+01	-1.471561e-03
9.783522e+01	-1.488607e-03
9.840032e+01	-1.505850e-03
9.896867e+01	-1.523292e-03
9.954031e+01	-1.540937e-03
1.001153e+02	-1.558786e-03
1.006935e+02	-1.576842e-03
1.012751e+02	-1.595106e-03
1.018601e+02	-1.613583e-03
1.024484e+02	-1.632273e-03
1.030402e+02	-1.651180e-03
1.036353e+02	-1.670305e-03
1.042339e+02	-1.689653e-03
1.048360e+02	-1.709224e-03
1.054415e+02	-1.729022e-03
1.060505e+02	-1.749049e-03
1.066631e+02	-1.769308e-03
1.072791e+02	-1.789802e-03
1.078988e+02	-1.810533e-03
1.085220e+02	-1.831504e-03
1.091488e+02	-1.852718e-03
1.097793e+02	-1.874177e-03
1.104133e+02	-1.895885e-03
1.110511e+02	-1.917845e-03
1.116925e+02	-1.940059e-03
1.123376e+02	-1.962530e-03
1.129865e+02	-1.985261e-03
1.136391e+02	-2.008255e-03
1.142955e+02	-2.031516e-03
1.149556e+02	-2.055046e-03
1.156196e+02	-2.078849e-03
1.162874e+02	-2.102927e-03
1.169591e+02	-2.127284e-03
1.176347e+02	-2.151923e-03
1.183141e+02	-2.176847e-03
1.189975e+02	-2.202060e-03
1.196848e+02	-2.227565e-03
1.203761e+02	-2.253365e-03
1.210714e+02	-2.279464e-03
1.217707e+02	-2.305865e-03
1.224740e+02	-2.332572e-03
1.231814e+02	-2.359588e-03
1.238929e+02	-2.386917e-03
1.246085e+02	-2.414563e-03
1.253283e+02	-2.442528e-03
1.260522e+02	-2.470817e-03
1.267802e+02	-2.499434e-03
1.275125e+02	-2.528382e-03
1.282490e+02	-2.557666e-03
1.289898e+02	-2.587288e-03
1.297348e+02	-2.617253e-03
1.304842e+02	-2.647566e-03
1.312378e+02	-2.678229e-03
1.319959e+02	-2.709247e-03
1.327583e+02	-2.740625e-03
1.335251e+02	-2.772365e-03
1.342963e+02	-2.804474e-03
1.350720e+02	-2.836954e-03
1.358522e+02	-2.869810e-03
1.366368e+02	-2.903046e-03
1.374260e+02	-2.936667e-03
1.382198e+02	-2.970677e-03
1.390182e+02	-3.005082e-03
1.398211e+02	-3.039884e-03
1.406287e+02	-3.075089e-03
1.414410e+02	-3.110702e-03
1.422579e+02	-3.146728e-03
1.430796e+02	-3.183170e-03
1.439060e+02	-3.220034e-03
1.447372e+02	-3.257325e-03
1.455732e+02	-3.295048e-03
1.464141e+02	-3.333207e-03
1.472597e+02	-3.371808e-03
1.481103e+02	-3.410856e-03
1.489658e+02	-3.450356e-03
1.498262e+02	-3.490313e-03
1.506916e+02	-3.530733e-03
1.515620e+02	-3.571620e-03
1.524374e+02	-3.612981e-03
1.533179e+02	-3.654821e-03
1.542034e+02	-3.697145e-03
1.550941e+02	-3.739959e-03
1.559899e+02	-3.783268e-03
1.568909e+02	-3.827079e-03
1.577971e+02	-3.871397e-03
1.587085e+02	-3.916228e-03
1.596252e+02	-3.961577e-03
1.605472e+02	-4.007452e-03
1.614745e+02	-4.053858e-03
1.624072e+02	-4.100801e-03
1.633453e+02	-4.148287e-03
1.642887e+02	-4.196322e-03
1.652377e+02	-4.244914e-03
1.661921e+02	-4.294068e-03
1.671520e+02	-4.343791e-03
1.681175e+02	-4.394089e-03
1.690885e+02	-4.444970e-03
1.700651e+02	-4.496439e-03
1.710474e+02	-4.548504e-03
1.720354e+02	-4.601172e-03
1.730291e+02	-4.654449e-03
1.740285e+02	-4.708343e-03
1.750337e+02	-4.762860e-03
1.760446e+02	-4.818009e-03
1.770615e+02	-4.873795e-03
1.780842e+02	-4.930227e-03
1.791128e+02	-4.987312e-03
1.801473e+02	-5.045058e-03
1.811878e+02	-5.103472e-03
1.822344e+02	-5.162561e-03
1.832870e+02	-5.222335e-03
1.843456e+02	-5.282800e-03
1.854104e+02	-5.343965e-03
1.864813e+02	-5.405837e-03
1.875584e+02	-5.468426e-03
1.886418e+02	-5.531739e-03
1.897313e+02	-5.595784e-03
1.908272e+02	-5.660570e-03
1.919294e+02	-5.726106e-03
1.930380e+02	-5.792400e-03
1.941530e+02	-5.859461e-03
1.952744e+02	-5.927298e-03
1.964023e+02	-5.995919e-03
1.975367e+02	-6.065335e-03
1.986777e+02	-6.135554e-03
1.998252e+02	-6.206585e-03
2.009794e+02	-6.278438e-03
2.021403e+02	-6.351121e-03
2.033078e+02	-6.424646e-03
2.044821e+02	-6.499022e-03
2.056632e+02	-6.574257e-03
2.068511e+02	-6.650363e-03
2.080459e+02	-6.727349e-03
2.092475e+02	-6.805226e-03
2.104561e+02	-6.884004e-03
2.116717e+02	-6.963693e-03
2.128943e+02	-7.044303e-03
2.141240e+02	-7.125846e-03
2.153608e+02	-7.208332e-03
2.166047e+02	-7.291772e-03
2.178558e+02	-7.376177e-03
2.191141e+02	-7.461558e-03
2.203797e+02	-7.547927e-03
2.216526e+02	-7.635294e-03
2.229329e+02	-7.723672e-03
2.242205e+02	-7.813072e-03
2.255156e+02	-7.903506e-03
2.268182e+02	-7.994986e-03
2.281283e+02	-8.087523e-03
2.294459e+02	-8.181130e-03
2.307712e+02	-8.275820e-03
2.321041e+02	-8.371605e-03
2.334447e+02	-8.468497e-03
2.347931e+02	-8.566510e-03
2.361493e+02	-8.665656e-03
2.375133e+02	-8.765948e-03
2.388851e+02	-8.867399e-03
2.402649e+02	-8.970024e-03
2.416527e+02	-9.073835e-03
2.430484e+02	-9.178846e-03
2.444523e+02	-9.285071e-03
2.458642e+02	-9.392525e-03
2.472843e+02	-9.501220e-03
2.487126e+02	-9.611172e-03
2.501492e+02	-9.722394e-03
2.515940e+02	-9.834903e-03
2.530472e+02	-9.948712e-03
2.545088e+02	-1.006384e-02
2.559789e+02	-1.018029e-02
2.574574e+02	-1.029809e-02
2.589444e+02	-1.041725e-02
2.604401e+02	-1.053779e-02
2.619444e+02	-1.065973e-02
2.634574e+02	-1.078307e-02
2.649791e+02	-1.090784e-02
2.665096e+02	-1.103404e-02
2.680489e+02	-1.116171e-02
2.695972e+02	-1.129085e-02
2.711544e+02	-1.142149e-02
2.727205e+02	-1.155363e-02
2.742958e+02	-1.168730e-02
2.758801e+02	-1.182252e-02
2.774736e+02	-1.195930e-02
2.790762e+02	-1.209765e-02
2.806882e+02	-1.223761e-02
2.823094e+02	-1.237918e-02
2.839400e+02	-1.252239e-02
2.855800e+02	-1.266725e-02
2.872295e+02	-1.281379e-02
2.888886e+02	-1.296202e-02
2.905572e+02	-1.311196e-02
2.922354e+02	-1.326363e-02
2.939234e+02	-1.341706e-02
2.956211e+02	-1.357225e-02
2.973286e+02	-1.372924e-02
2.990459e+02	-1.388804e-02
3.007732e+02	-1.404868e-02
3.025104e+02	-1.421117e-02
3.042577e+02	-1.437553e-02
3.060151e+02	-1.454180e-02
3.077826e+02	-1.470998e-02
3.095604e+02	-1.488011e-02
3.113484e+02	-1.505220e-02
3.131467e+02	-1.522627e-02
3.149554e+02	-1.540236e-02
3.167746e+02	-1.558048e-02
3.186043e+02	-1.576065e-02
3.204445e+02	-1.594291e-02
3.222954e+02	-1.612727e-02
3.241570e+02	-1.631375e-02
3.260293e+02	-1.650239e-02
3.279124e+02	-1.669321e-02
3.298064e+02	-1.688622e-02
3.317114e+02	-1.708147e-02
3.336273e+02	-1.727897e-02
3.355544e+02	-1.747874e-02
3.374925e+02	-1.768083e-02
3.394418e+02	-1.788524e-02
3.414024e+02	-1.809201e-02
3.433744e+02	-1.830117e-02
3.453577e+02	-1.851274e-02
3.473525e+02	-1.872675e-02
3.493588e+02	-1.894323e-02
3.513766e+02	-1.916220e-02
3.534062e+02	-1.938370e-02
3.554474e+02	-1.960776e-02
3.575005e+02	-1.983440e-02
3.595654e+02	-2.006365e-02
3.616422e+02	-2.029555e-02
3.637311e+02	-2.053012e-02
3.658320e+02	-2.076740e-02
3.679450e+02	-2.100741e-02
3.700702e+02	-2.125019e-02
3.722077e+02	-2.149577e-02
3.743576e+02	-2.174417e-02
3.765199e+02	-2.199544e-02
3.786946e+02	-2.224961e-02
3.808820e+02	-2.250671e-02
3.830819e+02	-2.276677e-02
3.852946e+02	-2.302983e-02
3.875200e+02	-2.329591e-02
3.897583e+02	-2.356507e-02
3.920096e+02	-2.383732e-02
3.942738e+02	-2.411271e-02
3.965511e+02	-2.439128e-02
3.988416e+02	-2.467305e-02
4.011452e+02	-2.495807e-02
4.034622e+02	-2.524637e-02
4.057926e+02	-2.553800e-02
4.081365e+02	-2.583298e-02
4.104938e+02	-2.613135e-02
4.128648e+02	-2.643317e-02
4.152495e+02	-2.673846e-02
4.176480e+02	-2.704726e-02
4.200603e+02	-2.735962e-02
4.224866e+02	-2.767557e-02
4.249268e+02	-2.799516e-02
4.273812e+02	-2.831843e-02
4.298497e+02	-2.864542e-02
4.323325e+02	-2.897618e-02
4.348297e+02	-2.931074e-02
4.373412e+02	-2.964915e-02
4.398673e+02	-2.999145e-02
4.424079e+02	-3.033769e-02
4.449633e+02	-3.068791e-02
4.475334e+02	-3.104216e-02
4.501183e+02	-3.140049e-02
4.527182e+02	-3.176294e-02
4.553330e+02	-3.212955e-02
4.579630e+02	-3.250039e-02
4.606082e+02	-3.287548e-02
4.632687e+02	-3.325489e-02
4.659445e+02	-3.363866e-02
4.686358e+02	-3.402684e-02
4.713426e+02	-3.441948e-02
4.740650e+02	-3.481664e-02
4.768032e+02	-3.521835e-02
4.795572e+02	-3.562469e-02
4.823271e+02	-3.603569e-02
4.851130e+02	-3.645142e-02
4.879150e+02	-3.687192e-02
4.907332e+02	-3.729725e-02
4.935676e+02	-3.772746e-02
4.964185e+02	-3.816262e-02
4.992858e+02	-3.860277e-02
5.021696e+02	-3.904798e-02
5.050701e+02	-3.949829e-02
5.079874e+02	-3.995378e-02
5.109215e+02	-4.041450e-02
5.138726e+02	-4.088050e-02
5.168407e+02	-4.135185e-02
5.198259e+02	-4.182860e-02
5.228284e+02	-4.231083e-02
5.258482e+02	-4.279859e-02
5.288855e+02	-4.329195e-02
5.319403e+02	-4.379096e-02
5.350128e+02	-4.429569e-02
5.381030e+02	-4.480622e-02
5.412111e+02	-4.532259e-02
5.443371e+02	-4.584489e-02
5.474812e+02	-4.637317e-02
5.506434e+02	-4.690750e-02
5.538239e+02	-4.744796e-02
5.570228e+02	-4.799461e-02
5.602401e+02	-4.854753e-02
5.634760e+02	-4.910678e-02
5.667306e+02	-4.967243e-02
5.700040e+02	-5.024456e-02
5.732964e+02	-5.082324e-02
5.766077e+02	-5.140855e-02
5.799382e+02	-5.200056e-02
5.832879e+02	-5.259934e-02
5.866569e+02	-5.320498e-02
5.900454e+02	-5.381754e-02
5.934535e+02	-5.443712e-02
5.968813e+02	-5.506378e-02
6.003288e+02	-5.569761e-02
6.037963e+02	-5.633869e-02
6.072838e+02	-5.698709e-02
6.107914e+02	-5.764291e-02
6.143194e+02	-5.830623e-02
6.178676e+02	-5.897713e-02
6.214364e+02	-5.965569e-02
6.250258e+02	-6.034201e-02
6.286359e+02	-6.103617e-02
6.322669e+02	-6.173825e-02
6.359189e+02	-6.244836e-02
6.395919e+02	-6.316657e-02
6.432862e+02	-6.389298e-02
6.470017e+02	-6.462768e-02
6.507388e+02	-6.537076e-02
6.544974e+02	-6.612233e-02
6.582778e+02	-6.688247e-02
6.620800e+02	-6.765127e-02
6.659041e+02	-6.842885e-02
6.697504e+02	-6.921529e-02
6.736188e+02	-7.001070e-02
6.775096e+02	-7.081517e-02
6.814229e+02	-7.162881e-02
6.853587e+02	-7.245172e-02
6.893173e+02	-7.328401e-02
6.932988e+02	-7.412577e-02
6.973033e+02	-7.497712e-02
7.013309e+02	-7.583816e-02
