Frequency(Hz)	Magnitude(dB)
1.000000e+01	-2.195309e+00
1.005776e+01	-2.215507e+00
1.011585e+01	-2.235378e+00
1.017428e+01	-2.255449e+00
1.023305e+01	-2.275698e+00
1.029215e+01	-2.296425e+00
1.035160e+01	-2.316757e+00
1.041139e+01	-2.337834e+00
1.047153e+01	-2.358679e+00
1.053201e+01	-2.379517e+00
1.059284e+01	-2.400881e+00
1.065403e+01	-2.421969e+00
1.071556e+01	-2.443473e+00
1.077746e+01	-2.465138e+00
1.083971e+01	-2.486844e+00
1.090232e+01	-2.508699e+00
1.096529e+01	-2.530655e+00
1.102862e+01	-2.552883e+00
1.109232e+01	-2.575098e+00
1.115639e+01	-2.597479e+00
1.122083e+01	-2.620277e+00
1.128564e+01	-2.643064e+00
1.135083e+01	-2.665940e+00
1.141639e+01	-2.688799e+00
1.148233e+01	-2.711867e+00
1.154865e+01	-2.735548e+00
1.161536e+01	-2.758817e+00
1.168245e+01	-2.782310e+00
1.174992e+01	-2.806131e+00
1.181779e+01	-2.829939e+00
1.188605e+01	-2.854264e+00
1.195470e+01	-2.878296e+00
1.202375e+01	-2.902683e+00
1.209320e+01	-2.927185e+00
1.216305e+01	-2.951603e+00
1.223330e+01	-2.976234e+00
1.230396e+01	-3.001191e+00
1.237503e+01	-3.026179e+00
1.244651e+01	-3.051131e+00
1.251840e+01	-3.076826e+00
1.259070e+01	-3.102172e+00
1.266343e+01	-3.127717e+00
1.273657e+01	-3.153507e+00
1.281014e+01	-3.179563e+00
1.288413e+01	-3.205278e+00
1.295855e+01	-3.231462e+00
1.303339e+01	-3.257990e+00
1.310867e+01	-3.284530e+00
1.318439e+01	-3.310973e+00
1.326054e+01	-3.337884e+00
1.333713e+01	-3.364932e+00
1.341417e+01	-3.391483e+00
1.349165e+01	-3.418946e+00
1.356958e+01	-3.446460e+00
1.364795e+01	-3.473662e+00
1.372678e+01	-3.501405e+00
1.380607e+01	-3.529108e+00
1.388581e+01	-3.557322e+00
1.396602e+01	-3.585146e+00
1.404668e+01	-3.613329e+00
1.412782e+01	-3.641530e+00
1.420942e+01	-3.670185e+00
1.429149e+01	-3.698827e+00
1.437404e+01	-3.727143e+00
1.445706e+01	-3.756364e+00
1.454057e+01	-3.785303e+00
1.462455e+01	-3.814697e+00
1.470902e+01	-3.843871e+00
1.479398e+01	-3.873395e+00
1.487943e+01	-3.902971e+00
1.496537e+01	-3.932643e+00
1.505181e+01	-3.962330e+00
1.513875e+01	-3.992690e+00
1.522619e+01	-4.022676e+00
1.531414e+01	-4.052732e+00
1.540259e+01	-4.083281e+00
1.549156e+01	-4.113936e+00
1.558103e+01	-4.144151e+00
1.567103e+01	-4.175361e+00
1.576155e+01	-4.206328e+00
1.585258e+01	-4.237344e+00
1.594415e+01	-4.268725e+00
1.603624e+01	-4.299898e+00
1.612886e+01	-4.331604e+00
1.622202e+01	-4.363105e+00
1.631572e+01	-4.395147e+00
1.640996e+01	-4.426897e+00
1.650474e+01	-4.458948e+00
1.660008e+01	-4.491029e+00
1.669596e+01	-4.523640e+00
1.679239e+01	-4.556033e+00
1.688938e+01	-4.588519e+00
1.698694e+01	-4.621316e+00
1.708505e+01	-4.653788e+00
1.718373e+01	-4.686932e+00
1.728299e+01	-4.719939e+00
1.738281e+01	-4.753523e+00
1.748322e+01	-4.786646e+00
1.758420e+01	-4.819941e+00
1.768576e+01	-4.853616e+00
1.778792e+01	-4.887674e+00
1.789066e+01	-4.921156e+00
1.799399e+01	-4.955435e+00
1.809793e+01	-4.989181e+00
1.820246e+01	-5.023542e+00
1.830760e+01	-5.057839e+00
1.841334e+01	-5.092468e+00
1.851969e+01	-5.127175e+00
1.862666e+01	-5.161693e+00
1.873425e+01	-5.196696e+00
1.884246e+01	-5.231427e+00
1.895129e+01	-5.266794e+00
1.906075e+01	-5.301744e+00
1.917085e+01	-5.337386e+00
1.928158e+01	-5.372955e+00
1.939295e+01	-5.408557e+00
1.950496e+01	-5.443630e+00
1.961762e+01	-5.479473e+00
1.973093e+01	-5.515483e+00
1.984490e+01	-5.551746e+00
1.995952e+01	-5.587888e+00
2.007480e+01	-5.623739e+00
2.019076e+01	-5.660386e+00
2.030738e+01	-5.696727e+00
2.042467e+01	-5.733559e+00
2.054264e+01	-5.770267e+00
2.066130e+01	-5.807144e+00
2.078064e+01	-5.844268e+00
2.090066e+01	-5.881291e+00
2.102139e+01	-5.917939e+00
2.114280e+01	-5.955767e+00
2.126492e+01	-5.993084e+00
2.138775e+01	-6.029916e+00
2.151128e+01	-6.067818e+00
2.163553e+01	-6.105789e+00
2.176050e+01	-6.143271e+00
2.188619e+01	-6.181304e+00
2.201260e+01	-6.219204e+00
2.213974e+01	-6.257760e+00
2.226762e+01	-6.295669e+00
2.239624e+01	-6.334113e+00
2.252560e+01	-6.372501e+00
2.265571e+01	-6.410636e+00
2.278656e+01	-6.449387e+00
2.291818e+01	-6.488436e+00
2.305055e+01	-6.527415e+00
2.318369e+01	-6.566500e+00
2.331760e+01	-6.604683e+00
2.345228e+01	-6.644447e+00
2.358774e+01	-6.683616e+00
2.372398e+01	-6.722763e+00
2.386101e+01	-6.762602e+00
2.399883e+01	-6.802216e+00
2.413745e+01	-6.841581e+00
2.427686e+01	-6.881141e+00
2.441709e+01	-6.921260e+00
2.455812e+01	-6.961311e+00
2.469997e+01	-7.001043e+00
2.484263e+01	-7.041061e+00
2.498612e+01	-7.081466e+00
2.513044e+01	-7.121501e+00
2.527559e+01	-7.161666e+00
2.542158e+01	-7.202182e+00
2.556842e+01	-7.242911e+00
2.571610e+01	-7.283773e+00
2.586463e+01	-7.324105e+00
2.601403e+01	-7.365265e+00
2.616428e+01	-7.405873e+00
2.631541e+01	-7.447063e+00
2.646740e+01	-7.488100e+00
2.662028e+01	-7.529134e+00
2.677404e+01	-7.570557e+00
2.692868e+01	-7.611997e+00
2.708422e+01	-7.653165e+00
2.724066e+01	-7.694635e+00
2.739800e+01	-7.736188e+00
2.755625e+01	-7.777574e+00
2.771541e+01	-7.819488e+00
2.787550e+01	-7.861221e+00
2.803650e+01	-7.903503e+00
2.819844e+01	-7.945590e+00
2.836131e+01	-7.987347e+00
2.852513e+01	-8.029261e+00
2.868989e+01	-8.071603e+00
2.885560e+01	-8.113769e+00
2.902227e+01	-8.156147e+00
2.918990e+01	-8.198676e+00
2.935850e+01	-8.241074e+00
2.952807e+01	-8.283833e+00
2.969863e+01	-8.326120e+00
2.987016e+01	-8.368993e+00
3.004269e+01	-8.412056e+00
3.021622e+01	-8.454505e+00
3.039075e+01	-8.497407e+00
3.056628e+01	-8.540516e+00
3.074283e+01	-8.583502e+00
3.092040e+01	-8.626418e+00
3.109900e+01	-8.669524e+00
3.127862e+01	-8.713226e+00
3.145929e+01	-8.756831e+00
3.164099e+01	-8.799981e+00
3.182375e+01	-8.843417e+00
3.200756e+01	-8.887158e+00
3.219244e+01	-8.930707e+00
3.237838e+01	-8.974405e+00
3.256540e+01	-9.017625e+00
3.275349e+01	-9.061360e+00
3.294268e+01	-9.105657e+00
3.313295e+01	-9.149564e+00
3.332433e+01	-9.193199e+00
3.351681e+01	-9.236952e+00
3.371040e+01	-9.281207e+00
3.390511e+01	-9.325805e+00
3.410094e+01	-9.369536e+00
3.429791e+01	-9.413948e+00
3.449601e+01	-9.458463e+00
3.469526e+01	-9.502840e+00
3.489566e+01	-9.547084e+00
3.509721e+01	-9.592208e+00
3.529993e+01	-9.636022e+00
3.550382e+01	-9.680946e+00
3.570889e+01	-9.725313e+00
3.591515e+01	-9.770246e+00
3.612259e+01	-9.815261e+00
3.633123e+01	-9.859724e+00
3.654108e+01	-9.904749e+00
3.675214e+01	-9.949801e+00
3.696442e+01	-9.994978e+00
3.717792e+01	-1.003986e+01
3.739266e+01	-1.008516e+01
3.760864e+01	-1.012978e+01
3.782587e+01	-1.017557e+01
3.804435e+01	-1.022074e+01
3.826409e+01	-1.026546e+01
3.848510e+01	-1.031084e+01
3.870739e+01	-1.035640e+01
3.893096e+01	-1.040209e+01
3.915583e+01	-1.044788e+01
3.938199e+01	-1.049280e+01
3.960946e+01	-1.053852e+01
3.983824e+01	-1.058398e+01
4.006834e+01	-1.063021e+01
4.029978e+01	-1.067535e+01
4.053255e+01	-1.072178e+01
4.076666e+01	-1.076748e+01
4.100213e+01	-1.081286e+01
4.123896e+01	-1.085889e+01
4.147715e+01	-1.090469e+01
4.171672e+01	-1.095092e+01
4.195767e+01	-1.099700e+01
4.220002e+01	-1.104329e+01
4.244377e+01	-1.108941e+01
4.268892e+01	-1.113539e+01
4.293549e+01	-1.118128e+01
4.318348e+01	-1.122747e+01
4.343291e+01	-1.127476e+01
4.368377e+01	-1.132075e+01
4.393609e+01	-1.136657e+01
4.418986e+01	-1.141353e+01
4.444510e+01	-1.145966e+01
4.470182e+01	-1.150629e+01
4.496001e+01	-1.155260e+01
4.521970e+01	-1.159948e+01
4.548089e+01	-1.164593e+01
4.574358e+01	-1.169236e+01
4.600779e+01	-1.173874e+01
4.627353e+01	-1.178509e+01
4.654081e+01	-1.183244e+01
4.680963e+01	-1.187922e+01
4.708000e+01	-1.192525e+01
4.735193e+01	-1.197219e+01
4.762543e+01	-1.202016e+01
4.790051e+01	-1.206723e+01
4.817719e+01	-1.211318e+01
4.845545e+01	-1.215975e+01
4.873533e+01	-1.220729e+01
4.901682e+01	-1.225451e+01
4.929994e+01	-1.230142e+01
4.958470e+01	-1.234865e+01
4.987110e+01	-1.239565e+01
5.015915e+01	-1.244289e+01
5.044887e+01	-1.249001e+01
5.074026e+01	-1.253749e+01
5.103333e+01	-1.258452e+01
5.132810e+01	-1.263192e+01
5.162457e+01	-1.267967e+01
5.192275e+01	-1.272711e+01
5.222265e+01	-1.277392e+01
5.252429e+01	-1.282115e+01
5.282767e+01	-1.286897e+01
5.313280e+01	-1.291588e+01
5.343969e+01	-1.296391e+01
5.374836e+01	-1.301109e+01
5.405880e+01	-1.305835e+01
5.437105e+01	-1.310619e+01
5.468509e+01	-1.315375e+01
5.500095e+01	-1.320096e+01
5.531863e+01	-1.324922e+01
5.563815e+01	-1.329694e+01
5.595951e+01	-1.334514e+01
5.628273e+01	-1.339234e+01
5.660782e+01	-1.344015e+01
5.693479e+01	-1.348797e+01
5.726364e+01	-1.353556e+01
5.759439e+01	-1.358262e+01
5.792705e+01	-1.363132e+01
5.826164e+01	-1.367836e+01
5.859815e+01	-1.372757e+01
5.893662e+01	-1.377458e+01
5.927703e+01	-1.382238e+01
5.961941e+01	-1.387062e+01
5.996377e+01	-1.391839e+01
6.031012e+01	-1.396728e+01
6.065847e+01	-1.401490e+01
6.100883e+01	-1.406282e+01
6.136121e+01	-1.411104e+01
6.171563e+01	-1.415846e+01
6.207210e+01	-1.420750e+01
6.243063e+01	-1.425542e+01
6.279122e+01	-1.430368e+01
6.315390e+01	-1.435156e+01
6.351868e+01	-1.439912e+01
6.388556e+01	-1.444847e+01
6.425456e+01	-1.449576e+01
6.462569e+01	-1.454472e+01
6.499897e+01	-1.459231e+01
6.537440e+01	-1.464105e+01
6.575200e+01	-1.469013e+01
6.613178e+01	-1.473832e+01
6.651375e+01	-1.478605e+01
6.689793e+01	-1.483491e+01
6.728433e+01	-1.488364e+01
6.767297e+01	-1.493099e+01
6.806384e+01	-1.497995e+01
6.845698e+01	-1.502764e+01
6.885238e+01	-1.507629e+01
6.925007e+01	-1.512565e+01
6.965005e+01	-1.517348e+01
7.005235e+01	-1.522258e+01
7.045697e+01	-1.527047e+01
7.086393e+01	-1.531909e+01
7.127323e+01	-1.536810e+01
7.168490e+01	-1.541614e+01
7.209895e+01	-1.546443e+01
7.251539e+01	-1.551479e+01
7.293424e+01	-1.556205e+01
7.335551e+01	-1.561139e+01
7.377920e+01	-1.565977e+01
7.420535e+01	-1.570808e+01
7.463396e+01	-1.575762e+01
7.506504e+01	-1.580543e+01
7.549861e+01	-1.585480e+01
7.593469e+01	-1.590209e+01
7.637328e+01	-1.595157e+01
7.681441e+01	-1.600010e+01
7.725809e+01	-1.604962e+01
7.770433e+01	-1.609762e+01
7.815315e+01	-1.614703e+01
7.860456e+01	-1.619569e+01
7.905857e+01	-1.624391e+01
7.951521e+01	-1.629327e+01
7.997449e+01	-1.634260e+01
8.043642e+01	-1.639059e+01
8.090102e+01	-1.643865e+01
8.136830e+01	-1.648839e+01
8.183828e+01	-1.653675e+01
8.231097e+01	-1.658774e+01
8.278640e+01	-1.663642e+01
8.326457e+01	-1.668498e+01
8.374550e+01	-1.673365e+01
8.422921e+01	-1.678314e+01
8.471572e+01	-1.683256e+01
8.520503e+01	-1.687995e+01
8.569717e+01	-1.692993e+01
8.619215e+01	-1.697866e+01
8.669000e+01	-1.702638e+01
8.719071e+01	-1.707773e+01
8.769432e+01	-1.712580e+01
8.820084e+01	-1.717504e+01
8.871029e+01	-1.722368e+01
8.922267e+01	-1.727312e+01
8.973802e+01	-1.732202e+01
9.025634e+01	-1.737100e+01
9.077766e+01	-1.742081e+01
9.130199e+01	-1.747030e+01
9.182935e+01	-1.751920e+01
9.235975e+01	-1.756667e+01
9.289321e+01	-1.761926e+01
9.342976e+01	-1.766660e+01
9.396941e+01	-1.771607e+01
9.451217e+01	-1.776568e+01
9.505807e+01	-1.781349e+01
9.560712e+01	-1.786177e+01
9.615934e+01	-1.791331e+01
9.671476e+01	-1.796051e+01
9.727338e+01	-1.801096e+01
9.783522e+01	-1.805880e+01
9.840032e+01	-1.810823e+01
9.896867e+01	-1.815718e+01
9.954031e+01	-1.820738e+01
1.001153e+02	-1.825649e+01
1.006935e+02	-1.830685e+01
1.012751e+02	-1.835578e+01
1.018601e+02	-1.840552e+01
1.024484e+02	-1.845369e+01
1.030402e+02	-1.850309e+01
1.036353e+02	-1.855368e+01
1.042339e+02	-1.860243e+01
1.048360e+02	-1.865276e+01
1.054415e+02	-1.870118e+01
1.060505e+02	-1.874953e+01
1.066631e+02	-1.879935e+01
1.072791e+02	-1.884781e+01
1.078988e+02	-1.889852e+01
1.085220e+02	-1.894674e+01
1.091488e+02	-1.899742e+01
1.097793e+02	-1.904640e+01
1.104133e+02	-1.909592e+01
1.110511e+02	-1.914471e+01
1.116925e+02	-1.919473e+01
1.123376e+02	-1.924454e+01
1.129865e+02	-1.929504e+01
1.136391e+02	-1.934360e+01
1.142955e+02	-1.939291e+01
1.149556e+02	-1.944265e+01
1.156196e+02	-1.949004e+01
1.162874e+02	-1.953958e+01
1.169591e+02	-1.958984e+01
1.176347e+02	-1.963987e+01
1.183141e+02	-1.968975e+01
1.189975e+02	-1.973963e+01
1.196848e+02	-1.978816e+01
1.203761e+02	-1.983980e+01
1.210714e+02	-1.988697e+01
1.217707e+02	-1.993779e+01
1.224740e+02	-1.998666e+01
1.231814e+02	-2.003522e+01
1.238929e+02	-2.008532e+01
1.246085e+02	-2.013351e+01
1.253283e+02	-2.018637e+01
1.260522e+02	-2.023344e+01
1.267802e+02	-2.028357e+01
1.275125e+02	-2.033253e+01
1.282490e+02	-2.038249e+01
1.289898e+02	-2.043339e+01
1.297348e+02	-2.048336e+01
1.304842e+02	-2.053342e+01
1.312378e+02	-2.058330e+01
1.319959e+02	-2.063109e+01
1.327583e+02	-2.068260e+01
1.335251e+02	-2.073039e+01
1.342963e+02	-2.078065e+01
1.350720e+02	-2.082864e+01
1.358522e+02	-2.088012e+01
1.366368e+02	-2.092909e+01
1.374260e+02	-2.097879e+01
1.382198e+02	-2.102785e+01
1.390182e+02	-2.107710e+01
1.398211e+02	-2.112718e+01
1.406287e+02	-2.117717e+01
1.414410e+02	-2.122813e+01
1.422579e+02	-2.127695e+01
1.430796e+02	-2.132481e+01
1.439060e+02	-2.137627e+01
1.447372e+02	-2.142533e+01
1.455732e+02	-2.147500e+01
1.464141e+02	-2.152418e+01
1.472597e+02	-2.157521e+01
1.481103e+02	-2.162484e+01
1.489658e+02	-2.167462e+01
1.498262e+02	-2.172317e+01
1.506916e+02	-2.177418e+01
1.515620e+02	-2.182349e+01
1.524374e+02	-2.187274e+01
1.533179e+02	-2.192418e+01
1.542034e+02	-2.197428e+01
1.550941e+02	-2.202201e+01
1.559899e+02	-2.207131e+01
1.568909e+02	-2.212378e+01
1.577971e+02	-2.216961e+01
1.587085e+02	-2.222044e+01
1.596252e+02	-2.226832e+01
1.605472e+02	-2.232151e+01
1.614745e+02	-2.237091e+01
1.624072e+02	-2.241860e+01
1.633453e+02	-2.246858e+01
1.642887e+02	-2.251940e+01
1.652377e+02	-2.257041e+01
1.661921e+02	-2.261776e+01
1.671520e+02	-2.266940e+01
1.681175e+02	-2.271789e+01
1.690885e+02	-2.276776e+01
1.700651e+02	-2.281759e+01
1.710474e+02	-2.286896e+01
1.720354e+02	-2.291699e+01
1.730291e+02	-2.296589e+01
1.740285e+02	-2.301661e+01
1.750337e+02	-2.306896e+01
1.760446e+02	-2.311578e+01
1.770615e+02	-2.316626e+01
1.780842e+02	-2.321745e+01
1.791128e+02	-2.326745e+01
1.801473e+02	-2.331443e+01
1.811878e+02	-2.336634e+01
1.822344e+02	-2.341570e+01
1.832870e+02	-2.346396e+01
1.843456e+02	-2.351764e+01
1.854104e+02	-2.356656e+01
1.864813e+02	-2.361572e+01
1.875584e+02	-2.366660e+01
1.886418e+02	-2.371529e+01
1.897313e+02	-2.376375e+01
1.908272e+02	-2.381070e+01
1.919294e+02	-2.386346e+01
1.930380e+02	-2.391428e+01
1.941530e+02	-2.396365e+01
1.952744e+02	-2.401404e+01
1.964023e+02	-2.406402e+01
1.975367e+02	-2.411441e+01
1.986777e+02	-2.416237e+01
1.998252e+02	-2.421219e+01
2.009794e+02	-2.426055e+01
2.021403e+02	-2.431424e+01
2.033078e+02	-2.436195e+01
2.044821e+02	-2.441495e+01
2.056632e+02	-2.446362e+01
2.068511e+02	-2.451327e+01
2.080459e+02	-2.456077e+01
2.092475e+02	-2.461230e+01
2.104561e+02	-2.466370e+01
2.116717e+02	-2.471211e+01
2.128943e+02	-2.476383e+01
2.141240e+02	-2.481109e+01
2.153608e+02	-2.486014e+01
2.166047e+02	-2.491517e+01
2.178558e+02	-2.496247e+01
2.191141e+02	-2.500984e+01
2.203797e+02	-2.506210e+01
2.216526e+02	-2.510898e+01
2.229329e+02	-2.515933e+01
2.242205e+02	-2.521031e+01
2.255156e+02	-2.526048e+01
2.268182e+02	-2.530985e+01
2.281283e+02	-2.536227e+01
2.294459e+02	-2.540924e+01
2.307712e+02	-2.546010e+01
2.321041e+02	-2.551156e+01
2.334447e+02	-2.555730e+01
2.347931e+02	-2.561107e+01
2.361493e+02	-2.566177e+01
2.375133e+02	-2.570870e+01
2.388851e+02	-2.576240e+01
2.402649e+02	-2.580875e+01
2.416527e+02	-2.585973e+01
2.430484e+02	-2.590824e+01
2.444523e+02	-2.596160e+01
2.458642e+02	-2.600872e+01
2.472843e+02	-2.606078e+01
2.487126e+02	-2.610775e+01
2.501492e+02	-2.615866e+01
2.515940e+02	-2.620998e+01
2.530472e+02	-2.625719e+01
2.545088e+02	-2.631139e+01
2.559789e+02	-2.635829e+01
2.574574e+02	-2.640802e+01
2.589444e+02	-2.645960e+01
2.604401e+02	-2.650989e+01
2.619444e+02	-2.655864e+01
2.634574e+02	-2.660772e+01
2.649791e+02	-2.665646e+01
2.665096e+02	-2.671035e+01
2.680489e+02	-2.675997e+01
2.695972e+02	-2.681109e+01
2.711544e+02	-2.685938e+01
2.727205e+02	-2.690884e+01
2.742958e+02	-2.696329e+01
2.758801e+02	-2.700790e+01
2.774736e+02	-2.706023e+01
2.790762e+02	-2.710894e+01
2.806882e+02	-2.715678e+01
2.823094e+02	-2.720929e+01
2.839400e+02	-2.725777e+01
2.855800e+02	-2.731081e+01
2.872295e+02	-2.735707e+01
2.888886e+02	-2.740621e+01
2.905572e+02	-2.745674e+01
2.922354e+02	-2.750750e+01
2.939234e+02	-2.755775e+01
2.956211e+02	-2.760735e+01
2.973286e+02	-2.765949e+01
2.990459e+02	-2.771014e+01
3.007732e+02	-2.776240e+01
3.025104e+02	-2.780696e+01
3.042577e+02	-2.786102e+01
3.060151e+02	-2.791051e+01
3.077826e+02	-2.795779e+01
3.095604e+02	-2.801034e+01
3.113484e+02	-2.805568e+01
3.131467e+02	-2.810914e+01
3.149554e+02	-2.815714e+01
3.167746e+02	-2.820892e+01
3.186043e+02	-2.825788e+01
3.204445e+02	-2.830702e+01
3.222954e+02	-2.835746e+01
3.241570e+02	-2.841028e+01
3.260293e+02	-2.846301e+01
3.279124e+02	-2.850951e+01
3.298064e+02	-2.855831e+01
3.317114e+02	-2.860729e+01
3.336273e+02	-2.865915e+01
3.355544e+02	-2.871138e+01
3.374925e+02	-2.875791e+01
3.394418e+02	-2.880965e+01
3.414024e+02	-2.886073e+01
3.433744e+02	-2.890644e+01
3.453577e+02	-2.895884e+01
3.473525e+02	-2.901417e+01
3.493588e+02	-2.906035e+01
3.513766e+02	-2.911354e+01
3.534062e+02	-2.915599e+01
3.554474e+02	-2.920926e+01
3.575005e+02	-2.925892e+01
3.595654e+02	-2.930679e+01
3.616422e+02	-2.935954e+01
3.637311e+02	-2.940947e+01
3.658320e+02	-2.946174e+01
3.679450e+02	-2.950624e+01
3.700702e+02	-2.955808e+01
3.722077e+02	-2.961006e+01
3.743576e+02	-2.965845e+01
3.765199e+02	-2.971188e+01
3.786946e+02	-2.975647e+01
3.808820e+02	-2.981093e+01
3.830819e+02	-2.986249e+01
3.852946e+02	-2.991000e+01
3.875200e+02	-2.996224e+01
3.897583e+02	-3.001485e+01
3.920096e+02	-3.006117e+01
3.942738e+02	-3.011297e+01
3.965511e+02	-3.015521e+01
3.988416e+02	-3.020886e+01
4.011452e+02	-3.025788e+01
4.034622e+02	-3.030651e+01
4.057926e+02	-3.036563e+01
4.081365e+02	-3.041283e+01
4.104938e+02	-3.046502e+01
4.128648e+02	-3.051314e+01
4.152495e+02	-3.056448e+01
4.176480e+02	-3.061535e+01
4.200603e+02	-3.066313e+01
4.224866e+02	-3.071047e+01
4.249268e+02	-3.075938e+01
4.273812e+02	-3.081345e+01
4.298497e+02	-3.086163e+01
4.323325e+02	-3.091668e+01
4.348297e+02	-3.096279e+01
4.373412e+02	-3.101464e+01
4.398673e+02	-3.105848e+01
4.424079e+02	-3.110897e+01
4.449633e+02	-3.116653e+01
4.475334e+02	-3.121467e+01
4.501183e+02	-3.126749e+01
4.527182e+02	-3.131768e+01
4.553330e+02	-3.136428e+01
4.579630e+02	-3.140829e+01
4.606082e+02	-3.146354e+01
4.632687e+02	-3.151703e+01
4.659445e+02	-3.156650e+01
4.686358e+02	-3.162211e+01
4.713426e+02	-3.166748e+01
4.740650e+02	-3.171023e+01
4.768032e+02	-3.176262e+01
4.795572e+02	-3.181456e+01
4.823271e+02	-3.187131e+01
4.851130e+02	-3.192120e+01
4.879150e+02	-3.197074e+01
4.907332e+02	-3.201245e+01
4.935676e+02	-3.206533e+01
4.964185e+02	-3.211712e+01
4.992858e+02	-3.216343e+01
5.021696e+02	-3.221214e+01
5.050701e+02	-3.226108e+01
5.079874e+02	-3.231636e+01
5.109215e+02	-3.236839e+01
5.138726e+02	-3.241559e+01
5.168407e+02	-3.247368e+01
5.198259e+02	-3.251770e+01
5.228284e+02	-3.256828e+01
5.258482e+02	-3.261550e+01
5.288855e+02	-3.266744e+01
5.319403e+02	-3.272160e+01
5.350128e+02	-3.277307e+01
5.381030e+02	-3.281837e+01
5.412111e+02	-3.286807e+01
5.443371e+02	-3.292061e+01
5.474812e+02	-3.297274e+01
5.506434e+02	-3.302216e+01
5.538239e+02	-3.307151e+01
5.570228e+02	-3.312315e+01
5.602401e+02	-3.317619e+01
5.634760e+02	-3.321874e+01
5.667306e+02	-3.327375e+01
5.700040e+02	-3.333043e+01
5.732964e+02	-3.336405e+01
5.766077e+02	-3.342022e+01
5.799382e+02	-3.346968e+01
5.832879e+02	-3.352170e+01
5.866569e+02	-3.357151e+01
5.900454e+02	-3.361771e+01
5.934535e+02	-3.368175e+01
5.968813e+02	-3.372675e+01
6.003288e+02	-3.377262e+01
6.037963e+02	-3.382275e+01
6.072838e+02	-3.387605e+01
6.107914e+02	-3.392545e+01
6.143194e+02	-3.397673e+01
6.178676e+02	-3.403200e+01
6.214364e+02	-3.408259e+01
6.250258e+02	-3.412749e+01
6.286359e+02	-3.417320e+01
6.322669e+02	-3.423480e+01
6.359189e+02	-3.428690e+01
6.395919e+02	-3.432670e+01
6.432862e+02	-3.437681e+01
6.470017e+02	-3.443058e+01
6.507388e+02	-3.448685e+01
6.544974e+02	-3.452686e+01
6.582778e+02	-3.457944e+01
6.620800e+02	-3.462560e+01
6.659041e+02	-3.468000e+01
6.697504e+02	-3.473347e+01
6.736188e+02	-3.477732e+01
6.775096e+02	-3.483097e+01
6.814229e+02	-3.488242e+01
6.853587e+02	-3.494015e+01
6.893173e+02	-3.498691e+01
6.932988e+02	-3.502988e+01
6.973033e+02	-3.508229e+01
7.013309e+02	-3.513183e+01
