Frequency(Hz)	Magnitude(dB)
1.000000e+01	-2.043923e+00
1.005776e+01	-2.062796e+00
1.011585e+01	-2.081646e+00
1.017428e+01	-2.100821e+00
1.023305e+01	-2.120198e+00
1.029215e+01	-2.139569e+00
1.035160e+01	-2.158943e+00
1.041139e+01	-2.178494e+00
1.047153e+01	-2.198497e+00
1.053201e+01	-2.218419e+00
1.059284e+01	-2.238395e+00
1.065403e+01	-2.258783e+00
1.071556e+01	-2.279263e+00
1.077746e+01	-2.299481e+00
1.083971e+01	-2.320152e+00
1.090232e+01	-2.341257e+00
1.096529e+01	-2.361985e+00
1.102862e+01	-2.383059e+00
1.109232e+01	-2.404115e+00
1.115639e+01	-2.425447e+00
1.122083e+01	-2.446701e+00
1.128564e+01	-2.468654e+00
1.135083e+01	-2.490333e+00
1.141639e+01	-2.512305e+00
1.148233e+01	-2.534225e+00
1.154865e+01	-2.556551e+00
1.161536e+01	-2.578697e+00
1.168245e+01	-2.601425e+00
1.174992e+01	-2.623865e+00
1.181779e+01	-2.646340e+00
1.188605e+01	-2.669440e+00
1.195470e+01	-2.692548e+00
1.202375e+01	-2.715847e+00
1.209320e+01	-2.739032e+00
1.216305e+01	-2.762311e+00
1.223330e+01	-2.786232e+00
1.230396e+01	-2.809825e+00
1.237503e+01	-2.833767e+00
1.244651e+01	-2.857676e+00
1.251840e+01	-2.881967e+00
1.259070e+01	-2.906250e+00
1.266343e+01	-2.930986e+00
1.273657e+01	-2.955615e+00
1.281014e+01	-2.980234e+00
1.288413e+01	-3.005012e+00
1.295855e+01	-3.030358e+00
1.303339e+01	-3.055703e+00
1.310867e+01	-3.080778e+00
1.318439e+01	-3.106392e+00
1.326054e+01	-3.131985e+00
1.333713e+01	-3.157698e+00
1.341417e+01	-3.183766e+00
1.349165e+01	-3.210060e+00
1.356958e+01	-3.236003e+00
1.364795e+01	-3.262332e+00
1.372678e+01	-3.288682e+00
1.380607e+01	-3.315228e+00
1.388581e+01	-3.342082e+00
1.396602e+01	-3.369076e+00
1.404668e+01	-3.396146e+00
1.412782e+01	-3.423373e+00
1.420942e+01	-3.450823e+00
1.429149e+01	-3.478079e+00
1.437404e+01	-3.505866e+00
1.445706e+01	-3.533630e+00
1.454057e+01	-3.561237e+00
1.462455e+01	-3.589633e+00
1.470902e+01	-3.618007e+00
1.479398e+01	-3.646189e+00
1.487943e+01	-3.674618e+00
1.496537e+01	-3.703229e+00
1.505181e+01	-3.732170e+00
1.513875e+01	-3.761129e+00
1.522619e+01	-3.789803e+00
1.531414e+01	-3.819403e+00
1.540259e+01	-3.848560e+00
1.549156e+01	-3.878207e+00
1.558103e+01	-3.907738e+00
1.567103e+01	-3.937429e+00
1.576155e+01	-3.967109e+00
1.585258e+01	-3.997601e+00
1.594415e+01	-4.027265e+00
1.603624e+01	-4.057903e+00
1.612886e+01	-4.088149e+00
1.622202e+01	-4.118866e+00
1.631572e+01	-4.149377e+00
1.640996e+01	-4.180429e+00
1.650474e+01	-4.211344e+00
1.660008e+01	-4.242271e+00
1.669596e+01	-4.273658e+00
1.679239e+01	-4.305056e+00
1.688938e+01	-4.336791e+00
1.698694e+01	-4.368347e+00
1.708505e+01	-4.400071e+00
1.718373e+01	-4.432016e+00
1.728299e+01	-4.463927e+00
1.738281e+01	-4.496329e+00
1.748322e+01	-4.528632e+00
1.758420e+01	-4.561533e+00
1.768576e+01	-4.593584e+00
1.778792e+01	-4.626283e+00
1.789066e+01	-4.659378e+00
1.799399e+01	-4.692213e+00
1.809793e+01	-4.725233e+00
1.820246e+01	-4.758217e+00
1.830760e+01	-4.792001e+00
1.841334e+01	-4.825444e+00
1.851969e+01	-4.858918e+00
1.862666e+01	-4.892583e+00
1.873425e+01	-4.926765e+00
1.884246e+01	-4.960854e+00
1.895129e+01	-4.994580e+00
1.906075e+01	-5.028866e+00
1.917085e+01	-5.063161e+00
1.928158e+01	-5.097846e+00
1.939295e+01	-5.132738e+00
1.950496e+01	-5.167390e+00
1.961762e+01	-5.201981e+00
1.973093e+01	-5.237009e+00
1.984490e+01	-5.272203e+00
1.995952e+01	-5.307436e+00
2.007480e+01	-5.342535e+00
2.019076e+01	-5.378188e+00
2.030738e+01	-5.413857e+00
2.042467e+01	-5.449393e+00
2.054264e+01	-5.485561e+00
2.066130e+01	-5.521356e+00
2.078064e+01	-5.557433e+00
2.090066e+01	-5.593501e+00
2.102139e+01	-5.629760e+00
2.114280e+01	-5.666433e+00
2.126492e+01	-5.702773e+00
2.138775e+01	-5.739267e+00
2.151128e+01	-5.776055e+00
2.163553e+01	-5.812728e+00
2.176050e+01	-5.849851e+00
2.188619e+01	-5.886983e+00
2.201260e+01	-5.924053e+00
2.213974e+01	-5.961505e+00
2.226762e+01	-5.999115e+00
2.239624e+01	-6.036026e+00
2.252560e+01	-6.073586e+00
2.265571e+01	-6.111772e+00
2.278656e+01	-6.149819e+00
2.291818e+01	-6.187126e+00
2.305055e+01	-6.225351e+00
2.318369e+01	-6.263556e+00
2.331760e+01	-6.301807e+00
2.345228e+01	-6.340090e+00
2.358774e+01	-6.378759e+00
2.372398e+01	-6.417235e+00
2.386101e+01	-6.456037e+00
2.399883e+01	-6.494466e+00
2.413745e+01	-6.533517e+00
2.427686e+01	-6.572642e+00
2.441709e+01	-6.611697e+00
2.455812e+01	-6.650863e+00
2.469997e+01	-6.689750e+00
2.484263e+01	-6.729396e+00
2.498612e+01	-6.768978e+00
2.513044e+01	-6.808211e+00
2.527559e+01	-6.848155e+00
2.542158e+01	-6.887688e+00
2.556842e+01	-6.927696e+00
2.571610e+01	-6.967709e+00
2.586463e+01	-7.007242e+00
2.601403e+01	-7.047374e+00
2.616428e+01	-7.088167e+00
2.631541e+01	-7.127971e+00
2.646740e+01	-7.168479e+00
2.662028e+01	-7.209159e+00
2.677404e+01	-7.249258e+00
2.692868e+01	-7.290116e+00
2.708422e+01	-7.331157e+00
2.724066e+01	-7.371659e+00
2.739800e+01	-7.412171e+00
2.755625e+01	-7.453917e+00
2.771541e+01	-7.494636e+00
2.787550e+01	-7.535841e+00
2.803650e+01	-7.577340e+00
2.819844e+01	-7.618380e+00
2.836131e+01	-7.659893e+00
2.852513e+01	-7.701512e+00
2.868989e+01	-7.742716e+00
2.885560e+01	-7.784534e+00
2.902227e+01	-7.825890e+00
2.918990e+01	-7.867963e+00
2.935850e+01	-7.909875e+00
2.952807e+01	-7.952054e+00
2.969863e+01	-7.994563e+00
2.987016e+01	-8.036132e+00
3.004269e+01	-8.078288e+00
3.021622e+01	-8.120679e+00
3.039075e+01	-8.162829e+00
3.056628e+01	-8.205438e+00
3.074283e+01	-8.247933e+00
3.092040e+01	-8.290406e+00
3.109900e+01	-8.333121e+00
3.127862e+01	-8.376005e+00
3.145929e+01	-8.418295e+00
3.164099e+01	-8.461149e+00
3.182375e+01	-8.504416e+00
3.200756e+01	-8.547475e+00
3.219244e+01	-8.590237e+00
3.237838e+01	-8.633407e+00
3.256540e+01	-8.676631e+00
3.275349e+01	-8.719730e+00
3.294268e+01	-8.763861e+00
3.313295e+01	-8.807291e+00
3.332433e+01	-8.850130e+00
3.351681e+01	-8.893774e+00
3.371040e+01	-8.937190e+00
3.390511e+01	-8.981053e+00
3.410094e+01	-9.024744e+00
3.429791e+01	-9.068566e+00
3.449601e+01	-9.112301e+00
3.469526e+01	-9.156386e+00
3.489566e+01	-9.200496e+00
3.509721e+01	-9.244533e+00
3.529993e+01	-9.288780e+00
3.550382e+01	-9.332112e+00
3.570889e+01	-9.376927e+00
3.591515e+01	-9.421115e+00
3.612259e+01	-9.465829e+00
3.633123e+01	-9.509987e+00
3.654108e+01	-9.554304e+00
3.675214e+01	-9.598754e+00
3.696442e+01	-9.643272e+00
3.717792e+01	-9.687771e+00
3.739266e+01	-9.733228e+00
3.760864e+01	-9.777459e+00
3.782587e+01	-9.822675e+00
3.804435e+01	-9.867150e+00
3.826409e+01	-9.911822e+00
3.848510e+01	-9.957101e+00
3.870739e+01	-1.000202e+01
3.893096e+01	-1.004701e+01
3.915583e+01	-1.009190e+01
3.938199e+01	-1.013726e+01
3.960946e+01	-1.018286e+01
3.983824e+01	-1.022826e+01
4.006834e+01	-1.027295e+01
4.029978e+01	-1.031832e+01
4.053255e+01	-1.036372e+01
4.076666e+01	-1.040939e+01
4.100213e+01	-1.045536e+01
4.123896e+01	-1.050002e+01
4.147715e+01	-1.054602e+01
4.171672e+01	-1.059180e+01
4.195767e+01	-1.063701e+01
4.220002e+01	-1.068263e+01
4.244377e+01	-1.072873e+01
4.268892e+01	-1.077473e+01
4.293549e+01	-1.082060e+01
4.318348e+01	-1.086602e+01
4.343291e+01	-1.091235e+01
4.368377e+01	-1.095794e+01
4.393609e+01	-1.100399e+01
4.418986e+01	-1.105034e+01
4.444510e+01	-1.109695e+01
4.470182e+01	-1.114202e+01
4.496001e+01	-1.118929e+01
4.521970e+01	-1.123508e+01
4.548089e+01	-1.128173e+01
4.574358e+01	-1.132811e+01
4.600779e+01	-1.137441e+01
4.627353e+01	-1.142044e+01
4.654081e+01	-1.146705e+01
4.680963e+01	-1.151354e+01
4.708000e+01	-1.155989e+01
4.735193e+01	-1.160626e+01
4.762543e+01	-1.165317e+01
4.790051e+01	-1.169991e+01
4.817719e+01	-1.174565e+01
4.845545e+01	-1.179291e+01
4.873533e+01	-1.183929e+01
4.901682e+01	-1.188722e+01
4.929994e+01	-1.193377e+01
4.958470e+01	-1.198063e+01
4.987110e+01	-1.202647e+01
5.015915e+01	-1.207431e+01
5.044887e+01	-1.212092e+01
5.074026e+01	-1.216789e+01
5.103333e+01	-1.221456e+01
5.132810e+01	-1.226175e+01
5.162457e+01	-1.230899e+01
5.192275e+01	-1.235580e+01
5.222265e+01	-1.240366e+01
5.252429e+01	-1.245148e+01
5.282767e+01	-1.249677e+01
5.313280e+01	-1.254536e+01
5.343969e+01	-1.259194e+01
5.374836e+01	-1.263922e+01
5.405880e+01	-1.268709e+01
5.437105e+01	-1.273391e+01
5.468509e+01	-1.278150e+01
5.500095e+01	-1.282870e+01
5.531863e+01	-1.287621e+01
5.563815e+01	-1.292441e+01
5.595951e+01	-1.297084e+01
5.628273e+01	-1.301933e+01
5.660782e+01	-1.306669e+01
5.693479e+01	-1.311401e+01
5.726364e+01	-1.316152e+01
5.759439e+01	-1.320861e+01
5.792705e+01	-1.325682e+01
5.826164e+01	-1.330444e+01
5.859815e+01	-1.335252e+01
5.893662e+01	-1.340088e+01
5.927703e+01	-1.344690e+01
5.961941e+01	-1.349586e+01
5.996377e+01	-1.354278e+01
6.031012e+01	-1.359142e+01
6.065847e+01	-1.363871e+01
6.100883e+01	-1.368644e+01
6.136121e+01	-1.373451e+01
6.171563e+01	-1.378172e+01
6.207210e+01	-1.382984e+01
6.243063e+01	-1.387940e+01
6.279122e+01	-1.392618e+01
6.315390e+01	-1.397442e+01
6.351868e+01	-1.402228e+01
6.388556e+01	-1.406998e+01
6.425456e+01	-1.411901e+01
6.462569e+01	-1.416619e+01
6.499897e+01	-1.421447e+01
6.537440e+01	-1.426257e+01
6.575200e+01	-1.431071e+01
6.613178e+01	-1.435884e+01
6.651375e+01	-1.440828e+01
6.689793e+01	-1.445545e+01
6.728433e+01	-1.450452e+01
6.767297e+01	-1.455259e+01
6.806384e+01	-1.460049e+01
6.845698e+01	-1.464856e+01
6.885238e+01	-1.469724e+01
6.925007e+01	-1.474588e+01
6.965005e+01	-1.479396e+01
7.005235e+01	-1.484252e+01
7.045697e+01	-1.489255e+01
7.086393e+01	-1.493936e+01
7.127323e+01	-1.498719e+01
7.168490e+01	-1.503642e+01
7.209895e+01	-1.508415e+01
7.251539e+01	-1.513274e+01
7.293424e+01	-1.518130e+01
7.335551e+01	-1.522928e+01
7.377920e+01	-1.527879e+01
7.420535e+01	-1.532692e+01
7.463396e+01	-1.537541e+01
7.506504e+01	-1.542419e+01
7.549861e+01	-1.547334e+01
7.593469e+01	-1.552145e+01
7.637328e+01	-1.557058e+01
7.681441e+01	-1.561858e+01
7.725809e+01	-1.566762e+01
7.770433e+01	-1.571681e+01
7.815315e+01	-1.576453e+01
7.860456e+01	-1.581270e+01
7.905857e+01	-1.586286e+01
7.951521e+01	-1.591080e+01
7.997449e+01	-1.595957e+01
8.043642e+01	-1.600844e+01
8.090102e+01	-1.605697e+01
8.136830e+01	-1.610596e+01
8.183828e+01	-1.615518e+01
8.231097e+01	-1.620423e+01
8.278640e+01	-1.625260e+01
8.326457e+01	-1.630191e+01
8.374550e+01	-1.634952e+01
8.422921e+01	-1.639826e+01
8.471572e+01	-1.644801e+01
8.520503e+01	-1.649696e+01
8.569717e+01	-1.654524e+01
8.619215e+01	-1.659467e+01
8.669000e+01	-1.664320e+01
8.719071e+01	-1.669245e+01
8.769432e+01	-1.674291e+01
8.820084e+01	-1.679110e+01
8.871029e+01	-1.684006e+01
8.922267e+01	-1.688745e+01
8.973802e+01	-1.693778e+01
9.025634e+01	-1.698646e+01
9.077766e+01	-1.703504e+01
9.130199e+01	-1.708454e+01
9.182935e+01	-1.713374e+01
9.235975e+01	-1.718360e+01
9.289321e+01	-1.723240e+01
9.342976e+01	-1.728122e+01
9.396941e+01	-1.732930e+01
9.451217e+01	-1.738056e+01
9.505807e+01	-1.742863e+01
9.560712e+01	-1.747696e+01
9.615934e+01	-1.752708e+01
9.671476e+01	-1.757594e+01
9.727338e+01	-1.762487e+01
9.783522e+01	-1.767369e+01
9.840032e+01	-1.772371e+01
9.896867e+01	-1.777250e+01
9.954031e+01	-1.782169e+01
1.001153e+02	-1.787125e+01
1.006935e+02	-1.792039e+01
1.012751e+02	-1.796881e+01
1.018601e+02	-1.801885e+01
1.024484e+02	-1.806607e+01
1.030402e+02	-1.811624e+01
1.036353e+02	-1.816844e+01
1.042339e+02	-1.821601e+01
1.048360e+02	-1.826442e+01
1.054415e+02	-1.831428e+01
1.060505e+02	-1.836434e+01
1.066631e+02	-1.841300e+01
1.072791e+02	-1.846252e+01
1.078988e+02	-1.851146e+01
1.085220e+02	-1.856140e+01
1.091488e+02	-1.861135e+01
1.097793e+02	-1.865988e+01
1.104133e+02	-1.870736e+01
1.110511e+02	-1.875864e+01
1.116925e+02	-1.880787e+01
1.123376e+02	-1.885679e+01
1.129865e+02	-1.890697e+01
1.136391e+02	-1.895567e+01
1.142955e+02	-1.900497e+01
1.149556e+02	-1.905505e+01
1.156196e+02	-1.910323e+01
1.162874e+02	-1.915212e+01
1.169591e+02	-1.920324e+01
1.176347e+02	-1.925265e+01
1.183141e+02	-1.930143e+01
1.189975e+02	-1.934974e+01
1.196848e+02	-1.940009e+01
1.203761e+02	-1.945220e+01
1.210714e+02	-1.950043e+01
1.217707e+02	-1.954816e+01
1.224740e+02	-1.959844e+01
1.231814e+02	-1.964761e+01
1.238929e+02	-1.969938e+01
1.246085e+02	-1.974775e+01
1.253283e+02	-1.979653e+01
1.260522e+02	-1.984593e+01
1.267802e+02	-1.989429e+01
1.275125e+02	-1.994704e+01
1.282490e+02	-1.999415e+01
1.289898e+02	-2.004369e+01
1.297348e+02	-2.009254e+01
1.304842e+02	-2.014204e+01
1.312378e+02	-2.019094e+01
1.319959e+02	-2.024280e+01
1.327583e+02	-2.029159e+01
1.335251e+02	-2.034197e+01
1.342963e+02	-2.039214e+01
1.350720e+02	-2.044095e+01
1.358522e+02	-2.048809e+01
1.366368e+02	-2.054023e+01
1.374260e+02	-2.058924e+01
1.382198e+02	-2.063794e+01
1.390182e+02	-2.068738e+01
1.398211e+02	-2.073812e+01
1.406287e+02	-2.078597e+01
1.414410e+02	-2.083825e+01
1.422579e+02	-2.088784e+01
1.430796e+02	-2.093709e+01
1.439060e+02	-2.098653e+01
1.447372e+02	-2.103586e+01
1.455732e+02	-2.108613e+01
1.464141e+02	-2.113377e+01
1.472597e+02	-2.118385e+01
1.481103e+02	-2.123376e+01
1.489658e+02	-2.128465e+01
1.498262e+02	-2.133428e+01
1.506916e+02	-2.138407e+01
1.515620e+02	-2.143454e+01
1.524374e+02	-2.148266e+01
1.533179e+02	-2.153280e+01
1.542034e+02	-2.158028e+01
1.550941e+02	-2.163276e+01
1.559899e+02	-2.168456e+01
1.568909e+02	-2.173187e+01
1.577971e+02	-2.178026e+01
1.587085e+02	-2.183134e+01
1.596252e+02	-2.187979e+01
1.605472e+02	-2.192944e+01
1.614745e+02	-2.197866e+01
1.624072e+02	-2.202871e+01
1.633453e+02	-2.207961e+01
1.642887e+02	-2.212945e+01
1.652377e+02	-2.217599e+01
1.661921e+02	-2.222977e+01
1.671520e+02	-2.227745e+01
1.681175e+02	-2.232935e+01
1.690885e+02	-2.237766e+01
1.700651e+02	-2.242913e+01
1.710474e+02	-2.247924e+01
1.720354e+02	-2.252808e+01
1.730291e+02	-2.257466e+01
1.740285e+02	-2.262698e+01
1.750337e+02	-2.267535e+01
1.760446e+02	-2.272750e+01
1.770615e+02	-2.277620e+01
1.780842e+02	-2.282616e+01
1.791128e+02	-2.287689e+01
1.801473e+02	-2.292507e+01
1.811878e+02	-2.297646e+01
1.822344e+02	-2.302684e+01
1.832870e+02	-2.307333e+01
1.843456e+02	-2.312498e+01
1.854104e+02	-2.317504e+01
1.864813e+02	-2.322466e+01
1.875584e+02	-2.327323e+01
1.886418e+02	-2.332350e+01
1.897313e+02	-2.337372e+01
1.908272e+02	-2.342314e+01
1.919294e+02	-2.347489e+01
1.930380e+02	-2.352287e+01
1.941530e+02	-2.357284e+01
1.952744e+02	-2.362328e+01
1.964023e+02	-2.367374e+01
1.975367e+02	-2.372437e+01
1.986777e+02	-2.377147e+01
1.998252e+02	-2.382465e+01
2.009794e+02	-2.387461e+01
2.021403e+02	-2.392242e+01
2.033078e+02	-2.397308e+01
2.044821e+02	-2.402315e+01
2.056632e+02	-2.407100e+01
2.068511e+02	-2.412329e+01
2.080459e+02	-2.416943e+01
2.092475e+02	-2.422175e+01
2.104561e+02	-2.427317e+01
2.116717e+02	-2.432102e+01
2.128943e+02	-2.437035e+01
2.141240e+02	-2.442166e+01
2.153608e+02	-2.447122e+01
2.166047e+02	-2.452087e+01
2.178558e+02	-2.457288e+01
2.191141e+02	-2.461918e+01
2.203797e+02	-2.467075e+01
2.216526e+02	-2.472168e+01
2.229329e+02	-2.476819e+01
2.242205e+02	-2.482099e+01
2.255156e+02	-2.487049e+01
2.268182e+02	-2.491935e+01
2.281283e+02	-2.497041e+01
2.294459e+02	-2.501960e+01
2.307712e+02	-2.506912e+01
2.321041e+02	-2.511917e+01
2.334447e+02	-2.517013e+01
2.347931e+02	-2.521943e+01
2.361493e+02	-2.527168e+01
2.375133e+02	-2.531566e+01
2.388851e+02	-2.536803e+01
2.402649e+02	-2.541982e+01
2.416527e+02	-2.546786e+01
2.430484e+02	-2.551985e+01
2.444523e+02	-2.556972e+01
2.458642e+02	-2.561787e+01
2.472843e+02	-2.567087e+01
2.487126e+02	-2.572075e+01
2.501492e+02	-2.577327e+01
2.515940e+02	-2.581710e+01
2.530472e+02	-2.587064e+01
2.545088e+02	-2.591781e+01
2.559789e+02	-2.596944e+01
2.574574e+02	-2.601947e+01
2.589444e+02	-2.606905e+01
2.604401e+02	-2.611722e+01
2.619444e+02	-2.617091e+01
2.634574e+02	-2.621749e+01
2.649791e+02	-2.627117e+01
2.665096e+02	-2.631902e+01
2.680489e+02	-2.636817e+01
2.695972e+02	-2.642018e+01
2.711544e+02	-2.646786e+01
2.727205e+02	-2.651818e+01
2.742958e+02	-2.656902e+01
2.758801e+02	-2.661511e+01
2.774736e+02	-2.666949e+01
2.790762e+02	-2.671781e+01
2.806882e+02	-2.676854e+01
2.823094e+02	-2.681994e+01
2.839400e+02	-2.686490e+01
2.855800e+02	-2.692158e+01
2.872295e+02	-2.697114e+01
2.888886e+02	-2.702043e+01
2.905572e+02	-2.706456e+01
2.922354e+02	-2.711888e+01
2.939234e+02	-2.716993e+01
2.956211e+02	-2.721489e+01
2.973286e+02	-2.727159e+01
2.990459e+02	-2.731713e+01
3.007732e+02	-2.736968e+01
3.025104e+02	-2.741543e+01
3.042577e+02	-2.746761e+01
3.060151e+02	-2.751817e+01
3.077826e+02	-2.756868e+01
3.095604e+02	-2.762139e+01
3.113484e+02	-2.766519e+01
3.131467e+02	-2.771657e+01
3.149554e+02	-2.776912e+01
3.167746e+02	-2.781911e+01
3.186043e+02	-2.786821e+01
3.204445e+02	-2.791562e+01
3.222954e+02	-2.796579e+01
3.241570e+02	-2.801585e+01
3.260293e+02	-2.806486e+01
3.279124e+02	-2.811568e+01
3.298064e+02	-2.816798e+01
3.317114e+02	-2.821721e+01
3.336273e+02	-2.826912e+01
3.355544e+02	-2.831792e+01
3.374925e+02	-2.836842e+01
3.394418e+02	-2.841357e+01
3.414024e+02	-2.846717e+01
3.433744e+02	-2.851783e+01
3.453577e+02	-2.856720e+01
3.473525e+02	-2.861965e+01
3.493588e+02	-2.866956e+01
3.513766e+02	-2.871890e+01
3.534062e+02	-2.876838e+01
3.554474e+02	-2.881822e+01
3.575005e+02	-2.887201e+01
3.595654e+02	-2.891944e+01
3.616422e+02	-2.896893e+01
3.637311e+02	-2.901613e+01
3.658320e+02	-2.907270e+01
3.679450e+02	-2.911423e+01
3.700702e+02	-2.917003e+01
3.722077e+02	-2.922245e+01
3.743576e+02	-2.927013e+01
3.765199e+02	-2.931825e+01
3.786946e+02	-2.937076e+01
3.808820e+02	-2.942352e+01
3.830819e+02	-2.947055e+01
3.852946e+02	-2.951795e+01
3.875200e+02	-2.956517e+01
3.897583e+02	-2.962259e+01
3.920096e+02	-2.966926e+01
3.942738e+02	-2.972118e+01
3.965511e+02	-2.977364e+01
3.988416e+02	-2.982312e+01
4.011452e+02	-2.986858e+01
4.034622e+02	-2.992196e+01
4.057926e+02	-2.997033e+01
4.081365e+02	-3.002148e+01
4.104938e+02	-3.007276e+01
4.128648e+02	-3.011792e+01
4.152495e+02	-3.016966e+01
4.176480e+02	-3.021957e+01
4.200603e+02	-3.027095e+01
4.224866e+02	-3.032627e+01
4.249268e+02	-3.037346e+01
4.273812e+02	-3.042213e+01
4.298497e+02	-3.047431e+01
4.323325e+02	-3.051535e+01
4.348297e+02	-3.057099e+01
4.373412e+02	-3.062701e+01
4.398673e+02	-3.067819e+01
4.424079e+02	-3.072264e+01
4.449633e+02	-3.077282e+01
4.475334e+02	-3.082557e+01
4.501183e+02	-3.087182e+01
4.527182e+02	-3.091929e+01
4.553330e+02	-3.097818e+01
4.579630e+02	-3.102195e+01
4.606082e+02	-3.107400e+01
4.632687e+02	-3.112042e+01
4.659445e+02	-3.117072e+01
4.686358e+02	-3.122166e+01
4.713426e+02	-3.127216e+01
4.740650e+02	-3.132285e+01
4.768032e+02	-3.137514e+01
4.795572e+02	-3.142810e+01
4.823271e+02	-3.147606e+01
4.851130e+02	-3.152534e+01
4.879150e+02	-3.157670e+01
4.907332e+02	-3.162753e+01
4.935676e+02	-3.167662e+01
4.964185e+02	-3.172698e+01
4.992858e+02	-3.177572e+01
5.021696e+02	-3.182888e+01
5.050701e+02	-3.187432e+01
5.079874e+02	-3.192542e+01
5.109215e+02	-3.198038e+01
5.138726e+02	-3.202817e+01
5.168407e+02	-3.207112e+01
5.198259e+02	-3.213031e+01
5.228284e+02	-3.217772e+01
5.258482e+02	-3.222856e+01
5.288855e+02	-3.227650e+01
5.319403e+02	-3.233932e+01
5.350128e+02	-3.237571e+01
5.381030e+02	-3.242625e+01
5.412111e+02	-3.247480e+01
5.443371e+02	-3.253097e+01
5.474812e+02	-3.257202e+01
5.506434e+02	-3.263440e+01
5.538239e+02	-3.268082e+01
5.570228e+02	-3.273359e+01
5.602401e+02	-3.278385e+01
5.634760e+02	-3.283381e+01
5.667306e+02	-3.288299e+01
5.700040e+02	-3.293411e+01
5.732964e+02	-3.298581e+01
5.766077e+02	-3.303695e+01
5.799382e+02	-3.308187e+01
5.832879e+02	-3.313176e+01
5.866569e+02	-3.318417e+01
5.900454e+02	-3.323418e+01
5.934535e+02	-3.329045e+01
5.968813e+02	-3.333322e+01
6.003288e+02	-3.338825e+01
6.037963e+02	-3.343822e+01
6.072838e+02	-3.348771e+01
6.107914e+02	-3.353298e+01
6.143194e+02	-3.358121e+01
6.178676e+02	-3.363200e+01
6.214364e+02	-3.367918e+01
6.250258e+02	-3.373692e+01
6.286359e+02	-3.378966e+01
6.322669e+02	-3.383875e+01
6.359189e+02	-3.388899e+01
6.395919e+02	-3.393880e+01
6.432862e+02	-3.398657e+01
6.470017e+02	-3.403535e+01
6.507388e+02	-3.409196e+01
6.544974e+02	-3.413317e+01
6.582778e+02	-3.419110e+01
6.620800e+02	-3.423876e+01
6.659041e+02	-3.429141e+01
6.697504e+02	-3.433589e+01
6.736188e+02	-3.438884e+01
6.775096e+02	-3.443154e+01
6.814229e+02	-3.447913e+01
6.853587e+02	-3.454180e+01
6.893173e+02	-3.459918e+01
6.932988e+02	-3.464119e+01
6.973033e+02	-3.469298e+01
7.013309e+02	-3.473856e+01
