Frequency(Hz)	Magnitude(dB)
1.000000e+01	-2.043942e+00
1.005776e+01	-2.062854e+00
1.011585e+01	-2.081977e+00
1.017428e+01	-2.100928e+00
1.023305e+01	-2.120097e+00
1.029215e+01	-2.139611e+00
1.035160e+01	-2.159086e+00
1.041139e+01	-2.178730e+00
1.047153e+01	-2.198333e+00
1.053201e+01	-2.218417e+00
1.059284e+01	-2.238864e+00
1.065403e+01	-2.258708e+00
1.071556e+01	-2.279211e+00
1.077746e+01	-2.299680e+00
1.083971e+01	-2.320555e+00
1.090232e+01	-2.341268e+00
1.096529e+01	-2.362019e+00
1.102862e+01	-2.382952e+00
1.109232e+01	-2.404254e+00
1.115639e+01	-2.425787e+00
1.122083e+01	-2.447155e+00
1.128564e+01	-2.468452e+00
1.135083e+01	-2.490569e+00
1.141639e+01	-2.512284e+00
1.148233e+01	-2.534630e+00
1.154865e+01	-2.556384e+00
1.161536e+01	-2.578923e+00
1.168245e+01	-2.601393e+00
1.174992e+01	-2.624073e+00
1.181779e+01	-2.646767e+00
1.188605e+01	-2.669739e+00
1.195470e+01	-2.692643e+00
1.202375e+01	-2.715890e+00
1.209320e+01	-2.739336e+00
1.216305e+01	-2.762734e+00
1.223330e+01	-2.786351e+00
1.230396e+01	-2.809968e+00
1.237503e+01	-2.833704e+00
1.244651e+01	-2.858045e+00
1.251840e+01	-2.882256e+00
1.259070e+01	-2.906568e+00
1.266343e+01	-2.931103e+00
1.273657e+01	-2.955761e+00
1.281014e+01	-2.980348e+00
1.288413e+01	-3.005742e+00
1.295855e+01	-3.030420e+00
1.303339e+01	-3.055699e+00
1.310867e+01	-3.081203e+00
1.318439e+01	-3.106136e+00
1.326054e+01	-3.132191e+00
1.333713e+01	-3.157961e+00
1.341417e+01	-3.184006e+00
1.349165e+01	-3.210114e+00
1.356958e+01	-3.235957e+00
1.364795e+01	-3.262473e+00
1.372678e+01	-3.288683e+00
1.380607e+01	-3.315508e+00
1.388581e+01	-3.342316e+00
1.396602e+01	-3.369444e+00
1.404668e+01	-3.396476e+00
1.412782e+01	-3.423552e+00
1.420942e+01	-3.450986e+00
1.429149e+01	-3.478371e+00
1.437404e+01	-3.506098e+00
1.445706e+01	-3.533697e+00
1.454057e+01	-3.561914e+00
1.462455e+01	-3.590110e+00
1.470902e+01	-3.617924e+00
1.479398e+01	-3.646455e+00
1.487943e+01	-3.674713e+00
1.496537e+01	-3.703527e+00
1.505181e+01	-3.732064e+00
1.513875e+01	-3.761203e+00
1.522619e+01	-3.790261e+00
1.531414e+01	-3.819583e+00
1.540259e+01	-3.849042e+00
1.549156e+01	-3.878279e+00
1.558103e+01	-3.907723e+00
1.567103e+01	-3.937711e+00
1.576155e+01	-3.967644e+00
1.585258e+01	-3.997339e+00
1.594415e+01	-4.027507e+00
1.603624e+01	-4.057899e+00
1.612886e+01	-4.088328e+00
1.622202e+01	-4.118917e+00
1.631572e+01	-4.149402e+00
1.640996e+01	-4.180569e+00
1.650474e+01	-4.211864e+00
1.660008e+01	-4.242658e+00
1.669596e+01	-4.274262e+00
1.679239e+01	-4.305233e+00
1.688938e+01	-4.336966e+00
1.698694e+01	-4.368670e+00
1.708505e+01	-4.400158e+00
1.718373e+01	-4.432631e+00
1.728299e+01	-4.464281e+00
1.738281e+01	-4.496540e+00
1.748322e+01	-4.528999e+00
1.758420e+01	-4.561419e+00
1.768576e+01	-4.593953e+00
1.778792e+01	-4.626635e+00
1.789066e+01	-4.659224e+00
1.799399e+01	-4.692004e+00
1.809793e+01	-4.725612e+00
1.820246e+01	-4.758786e+00
1.830760e+01	-4.791922e+00
1.841334e+01	-4.825757e+00
1.851969e+01	-4.858974e+00
1.862666e+01	-4.893234e+00
1.873425e+01	-4.926888e+00
1.884246e+01	-4.960832e+00
1.895129e+01	-4.995077e+00
1.906075e+01	-5.029365e+00
1.917085e+01	-5.063870e+00
1.928158e+01	-5.098327e+00
1.939295e+01	-5.132799e+00
1.950496e+01	-5.167437e+00
1.961762e+01	-5.202285e+00
1.973093e+01	-5.237280e+00
1.984490e+01	-5.272228e+00
1.995952e+01	-5.307720e+00
2.007480e+01	-5.343182e+00
2.019076e+01	-5.378518e+00
2.030738e+01	-5.414054e+00
2.042467e+01	-5.449770e+00
2.054264e+01	-5.485658e+00
2.066130e+01	-5.521585e+00
2.078064e+01	-5.557252e+00
2.090066e+01	-5.593812e+00
2.102139e+01	-5.630367e+00
2.114280e+01	-5.666507e+00
2.126492e+01	-5.702833e+00
2.138775e+01	-5.739312e+00
2.151128e+01	-5.776451e+00
2.163553e+01	-5.813388e+00
2.176050e+01	-5.850195e+00
2.188619e+01	-5.887568e+00
2.201260e+01	-5.924428e+00
2.213974e+01	-5.961461e+00
2.226762e+01	-5.999013e+00
2.239624e+01	-6.036664e+00
2.252560e+01	-6.074272e+00
2.265571e+01	-6.112321e+00
2.278656e+01	-6.149870e+00
2.291818e+01	-6.187879e+00
2.305055e+01	-6.226140e+00
2.318369e+01	-6.264034e+00
2.331760e+01	-6.302057e+00
2.345228e+01	-6.340657e+00
2.358774e+01	-6.379223e+00
2.372398e+01	-6.417394e+00
2.386101e+01	-6.456180e+00
2.399883e+01	-6.495131e+00
2.413745e+01	-6.534091e+00
2.427686e+01	-6.572825e+00
2.441709e+01	-6.612151e+00
2.455812e+01	-6.650793e+00
2.469997e+01	-6.690595e+00
2.484263e+01	-6.729595e+00
2.498612e+01	-6.768921e+00
2.513044e+01	-6.808807e+00
2.527559e+01	-6.848374e+00
2.542158e+01	-6.888161e+00
2.556842e+01	-6.928174e+00
2.571610e+01	-6.967996e+00
2.586463e+01	-7.007435e+00
2.601403e+01	-7.047905e+00
2.616428e+01	-7.088074e+00
2.631541e+01	-7.128168e+00
2.646740e+01	-7.168429e+00
2.662028e+01	-7.209175e+00
2.677404e+01	-7.250138e+00
2.692868e+01	-7.290183e+00
2.708422e+01	-7.331026e+00
2.724066e+01	-7.371777e+00
2.739800e+01	-7.413148e+00
2.755625e+01	-7.454053e+00
2.771541e+01	-7.495334e+00
2.787550e+01	-7.536610e+00
2.803650e+01	-7.577247e+00
2.819844e+01	-7.618332e+00
2.836131e+01	-7.659988e+00
2.852513e+01	-7.701434e+00
2.868989e+01	-7.743232e+00
2.885560e+01	-7.784723e+00
2.902227e+01	-7.826501e+00
2.918990e+01	-7.868604e+00
2.935850e+01	-7.910462e+00
2.952807e+01	-7.952383e+00
2.969863e+01	-7.994284e+00
2.987016e+01	-8.036546e+00
3.004269e+01	-8.078470e+00
3.021622e+01	-8.120982e+00
3.039075e+01	-8.163646e+00
3.056628e+01	-8.205713e+00
3.074283e+01	-8.248348e+00
3.092040e+01	-8.290426e+00
3.109900e+01	-8.333479e+00
3.127862e+01	-8.376281e+00
3.145929e+01	-8.418922e+00
3.164099e+01	-8.462025e+00
3.182375e+01	-8.504282e+00
3.200756e+01	-8.547945e+00
3.219244e+01	-8.590769e+00
3.237838e+01	-8.634026e+00
3.256540e+01	-8.677318e+00
3.275349e+01	-8.720695e+00
3.294268e+01	-8.763941e+00
3.313295e+01	-8.807150e+00
3.332433e+01	-8.850389e+00
3.351681e+01	-8.894054e+00
3.371040e+01	-8.937760e+00
3.390511e+01	-8.981448e+00
3.410094e+01	-9.024839e+00
3.429791e+01	-9.069099e+00
3.449601e+01	-9.112713e+00
3.469526e+01	-9.157144e+00
3.489566e+01	-9.201192e+00
3.509721e+01	-9.244454e+00
3.529993e+01	-9.289340e+00
3.550382e+01	-9.333093e+00
3.570889e+01	-9.377431e+00
3.591515e+01	-9.421618e+00
3.612259e+01	-9.466272e+00
3.633123e+01	-9.510546e+00
3.654108e+01	-9.554392e+00
3.675214e+01	-9.599047e+00
3.696442e+01	-9.644210e+00
3.717792e+01	-9.688870e+00
3.739266e+01	-9.733343e+00
3.760864e+01	-9.778421e+00
3.782587e+01	-9.822466e+00
3.804435e+01	-9.867445e+00
3.826409e+01	-9.912555e+00
3.848510e+01	-9.957427e+00
3.870739e+01	-1.000215e+01
3.893096e+01	-1.004732e+01
3.915583e+01	-1.009236e+01
3.938199e+01	-1.013817e+01
3.960946e+01	-1.018269e+01
3.983824e+01	-1.022821e+01
4.006834e+01	-1.027354e+01
4.029978e+01	-1.031936e+01
4.053255e+01	-1.036430e+01
4.076666e+01	-1.040927e+01
4.100213e+01	-1.045590e+01
4.123896e+01	-1.050088e+01
4.147715e+01	-1.054620e+01
4.171672e+01	-1.059187e+01
4.195767e+01	-1.063796e+01
4.220002e+01	-1.068283e+01
4.244377e+01	-1.072909e+01
4.268892e+01	-1.077523e+01
4.293549e+01	-1.082059e+01
4.318348e+01	-1.086687e+01
4.343291e+01	-1.091284e+01
4.368377e+01	-1.095853e+01
4.393609e+01	-1.100421e+01
4.418986e+01	-1.105061e+01
4.444510e+01	-1.109675e+01
4.470182e+01	-1.114340e+01
4.496001e+01	-1.118952e+01
4.521970e+01	-1.123639e+01
4.548089e+01	-1.128152e+01
4.574358e+01	-1.132761e+01
4.600779e+01	-1.137411e+01
4.627353e+01	-1.142104e+01
4.654081e+01	-1.146733e+01
4.680963e+01	-1.151410e+01
4.708000e+01	-1.156007e+01
4.735193e+01	-1.160642e+01
4.762543e+01	-1.165330e+01
4.790051e+01	-1.170005e+01
4.817719e+01	-1.174663e+01
4.845545e+01	-1.179345e+01
4.873533e+01	-1.184058e+01
4.901682e+01	-1.188675e+01
4.929994e+01	-1.193297e+01
4.958470e+01	-1.197999e+01
4.987110e+01	-1.202746e+01
5.015915e+01	-1.207362e+01
5.044887e+01	-1.212125e+01
5.074026e+01	-1.216795e+01
5.103333e+01	-1.221577e+01
5.132810e+01	-1.226233e+01
5.162457e+01	-1.230934e+01
5.192275e+01	-1.235663e+01
5.222265e+01	-1.240329e+01
5.252429e+01	-1.245106e+01
5.282767e+01	-1.249788e+01
5.313280e+01	-1.254527e+01
5.343969e+01	-1.259266e+01
5.374836e+01	-1.263988e+01
5.405880e+01	-1.268671e+01
5.437105e+01	-1.273456e+01
5.468509e+01	-1.278198e+01
5.500095e+01	-1.282950e+01
5.531863e+01	-1.287683e+01
5.563815e+01	-1.292434e+01
5.595951e+01	-1.297218e+01
5.628273e+01	-1.301862e+01
5.660782e+01	-1.306678e+01
5.693479e+01	-1.311448e+01
5.726364e+01	-1.316184e+01
5.759439e+01	-1.320985e+01
5.792705e+01	-1.325744e+01
5.826164e+01	-1.330469e+01
5.859815e+01	-1.335255e+01
5.893662e+01	-1.339991e+01
5.927703e+01	-1.344827e+01
5.961941e+01	-1.349623e+01
5.996377e+01	-1.354297e+01
6.031012e+01	-1.359175e+01
6.065847e+01	-1.363904e+01
6.100883e+01	-1.368708e+01
6.136121e+01	-1.373572e+01
6.171563e+01	-1.378236e+01
6.207210e+01	-1.382990e+01
6.243063e+01	-1.387801e+01
6.279122e+01	-1.392741e+01
6.315390e+01	-1.397484e+01
6.351868e+01	-1.402293e+01
6.388556e+01	-1.407123e+01
6.425456e+01	-1.411828e+01
6.462569e+01	-1.416681e+01
6.499897e+01	-1.421522e+01
6.537440e+01	-1.426318e+01
6.575200e+01	-1.431158e+01
6.613178e+01	-1.435983e+01
6.651375e+01	-1.440767e+01
6.689793e+01	-1.445617e+01
6.728433e+01	-1.450387e+01
6.767297e+01	-1.455284e+01
6.806384e+01	-1.460031e+01
6.845698e+01	-1.464953e+01
6.885238e+01	-1.469774e+01
6.925007e+01	-1.474646e+01
6.965005e+01	-1.479428e+01
7.005235e+01	-1.484208e+01
7.045697e+01	-1.489138e+01
7.086393e+01	-1.493931e+01
7.127323e+01	-1.498819e+01
7.168490e+01	-1.503667e+01
7.209895e+01	-1.508463e+01
7.251539e+01	-1.513267e+01
7.293424e+01	-1.518157e+01
7.335551e+01	-1.523126e+01
7.377920e+01	-1.527877e+01
7.420535e+01	-1.532730e+01
7.463396e+01	-1.537623e+01
7.506504e+01	-1.542439e+01
7.549861e+01	-1.547344e+01
7.593469e+01	-1.552231e+01
7.637328e+01	-1.557009e+01
7.681441e+01	-1.561883e+01
7.725809e+01	-1.566711e+01
7.770433e+01	-1.571677e+01
7.815315e+01	-1.576549e+01
7.860456e+01	-1.581433e+01
7.905857e+01	-1.586303e+01
7.951521e+01	-1.591162e+01
7.997449e+01	-1.595920e+01
8.043642e+01	-1.600829e+01
8.090102e+01	-1.605747e+01
8.136830e+01	-1.610646e+01
8.183828e+01	-1.615594e+01
8.231097e+01	-1.620390e+01
8.278640e+01	-1.625396e+01
8.326457e+01	-1.630115e+01
8.374550e+01	-1.635134e+01
8.422921e+01	-1.639897e+01
8.471572e+01	-1.644817e+01
8.520503e+01	-1.649725e+01
8.569717e+01	-1.654631e+01
8.619215e+01	-1.659491e+01
8.669000e+01	-1.664365e+01
8.719071e+01	-1.669203e+01
8.769432e+01	-1.674371e+01
8.820084e+01	-1.679054e+01
8.871029e+01	-1.683875e+01
8.922267e+01	-1.688862e+01
8.973802e+01	-1.693736e+01
9.025634e+01	-1.698777e+01
9.077766e+01	-1.703586e+01
9.130199e+01	-1.708678e+01
9.182935e+01	-1.713441e+01
9.235975e+01	-1.718339e+01
9.289321e+01	-1.723286e+01
9.342976e+01	-1.728100e+01
9.396941e+01	-1.732970e+01
9.451217e+01	-1.737988e+01
9.505807e+01	-1.742869e+01
9.560712e+01	-1.747789e+01
9.615934e+01	-1.752799e+01
9.671476e+01	-1.757777e+01
9.727338e+01	-1.762527e+01
9.783522e+01	-1.767406e+01
9.840032e+01	-1.772381e+01
9.896867e+01	-1.777314e+01
9.954031e+01	-1.782188e+01
1.001153e+02	-1.787148e+01
1.006935e+02	-1.791985e+01
1.012751e+02	-1.797011e+01
1.018601e+02	-1.801881e+01
1.024484e+02	-1.806825e+01
1.030402e+02	-1.811779e+01
1.036353e+02	-1.816687e+01
1.042339e+02	-1.821637e+01
1.048360e+02	-1.826683e+01
1.054415e+02	-1.831523e+01
1.060505e+02	-1.836536e+01
1.066631e+02	-1.841192e+01
1.072791e+02	-1.846285e+01
1.078988e+02	-1.851236e+01
1.085220e+02	-1.856086e+01
1.091488e+02	-1.861128e+01
1.097793e+02	-1.865961e+01
1.104133e+02	-1.870849e+01
1.110511e+02	-1.875802e+01
1.116925e+02	-1.880845e+01
1.123376e+02	-1.885810e+01
1.129865e+02	-1.890568e+01
1.136391e+02	-1.895583e+01
1.142955e+02	-1.900602e+01
1.149556e+02	-1.905532e+01
1.156196e+02	-1.910494e+01
1.162874e+02	-1.915258e+01
1.169591e+02	-1.920415e+01
1.176347e+02	-1.925145e+01
1.183141e+02	-1.930271e+01
1.189975e+02	-1.935108e+01
1.196848e+02	-1.940155e+01
1.203761e+02	-1.945003e+01
1.210714e+02	-1.949899e+01
1.217707e+02	-1.954891e+01
1.224740e+02	-1.959925e+01
1.231814e+02	-1.964623e+01
1.238929e+02	-1.969668e+01
1.246085e+02	-1.974812e+01
1.253283e+02	-1.979645e+01
1.260522e+02	-1.984636e+01
1.267802e+02	-1.989612e+01
1.275125e+02	-1.994488e+01
1.282490e+02	-1.999488e+01
1.289898e+02	-2.004524e+01
1.297348e+02	-2.009548e+01
1.304842e+02	-2.014371e+01
1.312378e+02	-2.019358e+01
1.319959e+02	-2.024354e+01
1.327583e+02	-2.029196e+01
1.335251e+02	-2.034110e+01
1.342963e+02	-2.039043e+01
1.350720e+02	-2.044119e+01
1.358522e+02	-2.049136e+01
1.366368e+02	-2.054114e+01
1.374260e+02	-2.059143e+01
1.382198e+02	-2.063878e+01
1.390182e+02	-2.068992e+01
1.398211e+02	-2.073800e+01
1.406287e+02	-2.078768e+01
1.414410e+02	-2.083784e+01
1.422579e+02	-2.088823e+01
1.430796e+02	-2.093549e+01
1.439060e+02	-2.098485e+01
1.447372e+02	-2.103565e+01
1.455732e+02	-2.108741e+01
1.464141e+02	-2.113636e+01
1.472597e+02	-2.118493e+01
1.481103e+02	-2.123385e+01
1.489658e+02	-2.128533e+01
1.498262e+02	-2.133551e+01
1.506916e+02	-2.138249e+01
1.515620e+02	-2.143224e+01
1.524374e+02	-2.148409e+01
1.533179e+02	-2.153263e+01
1.542034e+02	-2.158308e+01
1.550941e+02	-2.163179e+01
1.559899e+02	-2.168147e+01
1.568909e+02	-2.173173e+01
1.577971e+02	-2.178234e+01
1.587085e+02	-2.183255e+01
1.596252e+02	-2.188273e+01
1.605472e+02	-2.193004e+01
1.614745e+02	-2.198054e+01
1.624072e+02	-2.203070e+01
1.633453e+02	-2.208011e+01
1.642887e+02	-2.213102e+01
1.652377e+02	-2.217973e+01
1.661921e+02	-2.222997e+01
1.671520e+02	-2.228023e+01
1.681175e+02	-2.232829e+01
1.690885e+02	-2.237969e+01
1.700651e+02	-2.242925e+01
1.710474e+02	-2.247946e+01
1.720354e+02	-2.252845e+01
1.730291e+02	-2.257786e+01
1.740285e+02	-2.262731e+01
1.750337e+02	-2.267916e+01
1.760446e+02	-2.272588e+01
1.770615e+02	-2.277839e+01
1.780842e+02	-2.282692e+01
1.791128e+02	-2.287659e+01
1.801473e+02	-2.292884e+01
1.811878e+02	-2.297816e+01
1.822344e+02	-2.302421e+01
1.832870e+02	-2.307513e+01
1.843456e+02	-2.312619e+01
1.854104e+02	-2.317463e+01
1.864813e+02	-2.322484e+01
1.875584e+02	-2.327288e+01
1.886418e+02	-2.332394e+01
1.897313e+02	-2.337458e+01
1.908272e+02	-2.342470e+01
1.919294e+02	-2.347223e+01
1.930380e+02	-2.352442e+01
1.941530e+02	-2.357191e+01
1.952744e+02	-2.362560e+01
1.964023e+02	-2.367424e+01
1.975367e+02	-2.372507e+01
1.986777e+02	-2.377281e+01
1.998252e+02	-2.382112e+01
2.009794e+02	-2.387280e+01
2.021403e+02	-2.392706e+01
2.033078e+02	-2.397208e+01
2.044821e+02	-2.402340e+01
2.056632e+02	-2.407435e+01
2.068511e+02	-2.412162e+01
2.080459e+02	-2.417156e+01
2.092475e+02	-2.422194e+01
2.104561e+02	-2.427327e+01
2.116717e+02	-2.432492e+01
2.128943e+02	-2.436966e+01
2.141240e+02	-2.442117e+01
2.153608e+02	-2.446857e+01
2.166047e+02	-2.451953e+01
2.178558e+02	-2.457134e+01
2.191141e+02	-2.462215e+01
2.203797e+02	-2.467289e+01
2.216526e+02	-2.472125e+01
2.229329e+02	-2.477052e+01
2.242205e+02	-2.482120e+01
2.255156e+02	-2.486967e+01
2.268182e+02	-2.492173e+01
2.281283e+02	-2.496994e+01
2.294459e+02	-2.501965e+01
2.307712e+02	-2.506725e+01
2.321041e+02	-2.511695e+01
2.334447e+02	-2.517052e+01
2.347931e+02	-2.522384e+01
2.361493e+02	-2.526857e+01
2.375133e+02	-2.531972e+01
2.388851e+02	-2.536751e+01
2.402649e+02	-2.541864e+01
2.416527e+02	-2.547153e+01
2.430484e+02	-2.551597e+01
2.444523e+02	-2.556780e+01
2.458642e+02	-2.561980e+01
2.472843e+02	-2.567049e+01
2.487126e+02	-2.571645e+01
2.501492e+02	-2.577247e+01
2.515940e+02	-2.581944e+01
2.530472e+02	-2.586910e+01
2.545088e+02	-2.591696e+01
2.559789e+02	-2.596877e+01
2.574574e+02	-2.602043e+01
2.589444e+02	-2.606905e+01
2.604401e+02	-2.611928e+01
2.619444e+02	-2.616922e+01
2.634574e+02	-2.621916e+01
2.649791e+02	-2.627014e+01
2.665096e+02	-2.631813e+01
2.680489e+02	-2.636950e+01
2.695972e+02	-2.641624e+01
2.711544e+02	-2.646517e+01
2.727205e+02	-2.651985e+01
2.742958e+02	-2.656815e+01
2.758801e+02	-2.661859e+01
2.774736e+02	-2.666728e+01
2.790762e+02	-2.671873e+01
2.806882e+02	-2.676867e+01
2.823094e+02	-2.681718e+01
2.839400e+02	-2.686975e+01
2.855800e+02	-2.691829e+01
2.872295e+02	-2.697001e+01
2.888886e+02	-2.701584e+01
2.905572e+02	-2.707139e+01
2.922354e+02	-2.711705e+01
2.939234e+02	-2.716593e+01
2.956211e+02	-2.721984e+01
2.973286e+02	-2.726543e+01
2.990459e+02	-2.732214e+01
3.007732e+02	-2.736868e+01
3.025104e+02	-2.741958e+01
3.042577e+02	-2.747123e+01
3.060151e+02	-2.751709e+01
3.077826e+02	-2.756585e+01
3.095604e+02	-2.761340e+01
3.113484e+02	-2.766527e+01
3.131467e+02	-2.771937e+01
3.149554e+02	-2.776841e+01
3.167746e+02	-2.781710e+01
3.186043e+02	-2.786981e+01
3.204445e+02	-2.791827e+01
3.222954e+02	-2.796652e+01
3.241570e+02	-2.801849e+01
3.260293e+02	-2.807146e+01
3.279124e+02	-2.812059e+01
3.298064e+02	-2.816843e+01
3.317114e+02	-2.822199e+01
3.336273e+02	-2.826702e+01
3.355544e+02	-2.832089e+01
3.374925e+02	-2.836633e+01
3.394418e+02	-2.841984e+01
3.414024e+02	-2.846967e+01
3.433744e+02	-2.851556e+01
3.453577e+02	-2.856954e+01
3.473525e+02	-2.862007e+01
3.493588e+02	-2.867178e+01
3.513766e+02	-2.871893e+01
3.534062e+02	-2.876647e+01
3.554474e+02	-2.882151e+01
3.575005e+02	-2.886703e+01
3.595654e+02	-2.891976e+01
3.616422e+02	-2.896898e+01
3.637311e+02	-2.901722e+01
3.658320e+02	-2.907543e+01
3.679450e+02	-2.911665e+01
3.700702e+02	-2.917093e+01
3.722077e+02	-2.921807e+01
3.743576e+02	-2.926981e+01
3.765199e+02	-2.932013e+01
3.786946e+02	-2.936935e+01
3.808820e+02	-2.942097e+01
3.830819e+02	-2.947200e+01
3.852946e+02	-2.952168e+01
3.875200e+02	-2.957088e+01
3.897583e+02	-2.962279e+01
3.920096e+02	-2.966910e+01
3.942738e+02	-2.971890e+01
3.965511e+02	-2.976620e+01
3.988416e+02	-2.982125e+01
4.011452e+02	-2.987091e+01
4.034622e+02	-2.991859e+01
4.057926e+02	-2.997376e+01
4.081365e+02	-3.001837e+01
4.104938e+02	-3.006699e+01
4.128648e+02	-3.011540e+01
4.152495e+02	-3.017498e+01
4.176480e+02	-3.022022e+01
4.200603e+02	-3.026875e+01
4.224866e+02	-3.032303e+01
4.249268e+02	-3.037159e+01
4.273812e+02	-3.042452e+01
4.298497e+02	-3.047052e+01
4.323325e+02	-3.052844e+01
4.348297e+02	-3.057589e+01
4.373412e+02	-3.062056e+01
4.398673e+02	-3.067316e+01
4.424079e+02	-3.072716e+01
4.449633e+02	-3.077798e+01
4.475334e+02	-3.082688e+01
4.501183e+02	-3.087351e+01
4.527182e+02	-3.092259e+01
4.553330e+02	-3.097522e+01
4.579630e+02	-3.102344e+01
4.606082e+02	-3.107252e+01
4.632687e+02	-3.112539e+01
4.659445e+02	-3.117558e+01
4.686358e+02	-3.122772e+01
4.713426e+02	-3.127753e+01
4.740650e+02	-3.132615e+01
4.768032e+02	-3.137252e+01
4.795572e+02	-3.142557e+01
4.823271e+02	-3.147524e+01
4.851130e+02	-3.152490e+01
4.879150e+02	-3.157201e+01
4.907332e+02	-3.162422e+01
4.935676e+02	-3.168137e+01
4.964185e+02	-3.173121e+01
4.992858e+02	-3.177741e+01
5.021696e+02	-3.182292e+01
5.050701e+02	-3.188251e+01
5.079874e+02	-3.192797e+01
5.109215e+02	-3.198191e+01
5.138726e+02	-3.202475e+01
5.168407e+02	-3.208263e+01
5.198259e+02	-3.212353e+01
5.228284e+02	-3.217663e+01
5.258482e+02	-3.222672e+01
5.288855e+02	-3.228221e+01
5.319403e+02	-3.232690e+01
5.350128e+02	-3.238675e+01
5.381030e+02	-3.242428e+01
5.412111e+02	-3.248372e+01
5.443371e+02	-3.252238e+01
5.474812e+02	-3.257751e+01
5.506434e+02	-3.263707e+01
5.538239e+02	-3.267729e+01
5.570228e+02	-3.273120e+01
5.602401e+02	-3.278170e+01
5.634760e+02	-3.282892e+01
5.667306e+02	-3.288166e+01
5.700040e+02	-3.294715e+01
5.732964e+02	-3.298386e+01
5.766077e+02	-3.303305e+01
5.799382e+02	-3.308151e+01
5.832879e+02	-3.313120e+01
5.866569e+02	-3.317854e+01
5.900454e+02	-3.323069e+01
5.934535e+02	-3.327883e+01
5.968813e+02	-3.333252e+01
6.003288e+02	-3.338897e+01
6.037963e+02	-3.343639e+01
6.072838e+02	-3.348923e+01
6.107914e+02	-3.353853e+01
6.143194e+02	-3.358325e+01
6.178676e+02	-3.363209e+01
6.214364e+02	-3.368722e+01
6.250258e+02	-3.373859e+01
6.286359e+02	-3.378059e+01
6.322669e+02	-3.384339e+01
6.359189e+02	-3.388370e+01
6.395919e+02	-3.394376e+01
6.432862e+02	-3.398230e+01
6.470017e+02	-3.403507e+01
6.507388e+02	-3.408323e+01
6.544974e+02	-3.414270e+01
6.582778e+02	-3.418890e+01
6.620800e+02	-3.423965e+01
6.659041e+02	-3.428713e+01
6.697504e+02	-3.434013e+01
6.736188e+02	-3.439105e+01
6.775096e+02	-3.444034e+01
6.814229e+02	-3.449418e+01
6.853587e+02	-3.454665e+01
6.893173e+02	-3.459566e+01
6.932988e+02	-3.464004e+01
6.973033e+02	-3.468344e+01
7.013309e+02	-3.474516e+01
