Frequency(Hz)	Magnitude(dB)
1.000000e+01	-2.405186e+00
1.005776e+01	-2.426517e+00
1.011585e+01	-2.448074e+00
1.017428e+01	-2.469745e+00
1.023305e+01	-2.491537e+00
1.029215e+01	-2.513317e+00
1.035160e+01	-2.535464e+00
1.041139e+01	-2.557692e+00
1.047153e+01	-2.580132e+00
1.053201e+01	-2.602547e+00
1.059284e+01	-2.625161e+00
1.065403e+01	-2.647927e+00
1.071556e+01	-2.670837e+00
1.077746e+01	-2.693931e+00
1.083971e+01	-2.717021e+00
1.090232e+01	-2.740631e+00
1.096529e+01	-2.763936e+00
1.102862e+01	-2.787489e+00
1.109232e+01	-2.811241e+00
1.115639e+01	-2.835039e+00
1.122083e+01	-2.859092e+00
1.128564e+01	-2.883373e+00
1.135083e+01	-2.907755e+00
1.141639e+01	-2.932122e+00
1.148233e+01	-2.957025e+00
1.154865e+01	-2.981752e+00
1.161536e+01	-3.006534e+00
1.168245e+01	-3.031799e+00
1.174992e+01	-3.056897e+00
1.181779e+01	-3.082183e+00
1.188605e+01	-3.107598e+00
1.195470e+01	-3.133224e+00
1.202375e+01	-3.159021e+00
1.209320e+01	-3.185204e+00
1.216305e+01	-3.210922e+00
1.223330e+01	-3.237382e+00
1.230396e+01	-3.263660e+00
1.237503e+01	-3.290058e+00
1.244651e+01	-3.316829e+00
1.251840e+01	-3.343337e+00
1.259070e+01	-3.370535e+00
1.266343e+01	-3.397695e+00
1.273657e+01	-3.424973e+00
1.281014e+01	-3.452072e+00
1.288413e+01	-3.479634e+00
1.295855e+01	-3.507135e+00
1.303339e+01	-3.535284e+00
1.310867e+01	-3.563185e+00
1.318439e+01	-3.591038e+00
1.326054e+01	-3.619509e+00
1.333713e+01	-3.647686e+00
1.341417e+01	-3.676049e+00
1.349165e+01	-3.705184e+00
1.356958e+01	-3.733701e+00
1.364795e+01	-3.762848e+00
1.372678e+01	-3.791680e+00
1.380607e+01	-3.820952e+00
1.388581e+01	-3.850138e+00
1.396602e+01	-3.879630e+00
1.404668e+01	-3.909411e+00
1.412782e+01	-3.939176e+00
1.420942e+01	-3.969042e+00
1.429149e+01	-3.999070e+00
1.437404e+01	-4.029063e+00
1.445706e+01	-4.059373e+00
1.454057e+01	-4.090055e+00
1.462455e+01	-4.120342e+00
1.470902e+01	-4.151058e+00
1.479398e+01	-4.181855e+00
1.487943e+01	-4.212874e+00
1.496537e+01	-4.244099e+00
1.505181e+01	-4.275274e+00
1.513875e+01	-4.306854e+00
1.522619e+01	-4.338390e+00
1.531414e+01	-4.369961e+00
1.540259e+01	-4.402051e+00
1.549156e+01	-4.433993e+00
1.558103e+01	-4.466257e+00
1.567103e+01	-4.498196e+00
1.576155e+01	-4.530525e+00
1.585258e+01	-4.562887e+00
1.594415e+01	-4.595499e+00
1.603624e+01	-4.628035e+00
1.612886e+01	-4.661079e+00
1.622202e+01	-4.694011e+00
1.631572e+01	-4.727214e+00
1.640996e+01	-4.760517e+00
1.650474e+01	-4.793882e+00
1.660008e+01	-4.827413e+00
1.669596e+01	-4.860746e+00
1.679239e+01	-4.894721e+00
1.688938e+01	-4.928412e+00
1.698694e+01	-4.962263e+00
1.708505e+01	-4.996868e+00
1.718373e+01	-5.030797e+00
1.728299e+01	-5.065446e+00
1.738281e+01	-5.099902e+00
1.748322e+01	-5.134313e+00
1.758420e+01	-5.169029e+00
1.768576e+01	-5.204132e+00
1.778792e+01	-5.239230e+00
1.789066e+01	-5.274468e+00
1.799399e+01	-5.309561e+00
1.809793e+01	-5.344655e+00
1.820246e+01	-5.379966e+00
1.830760e+01	-5.415475e+00
1.841334e+01	-5.451432e+00
1.851969e+01	-5.487287e+00
1.862666e+01	-5.523250e+00
1.873425e+01	-5.559153e+00
1.884246e+01	-5.595837e+00
1.895129e+01	-5.631983e+00
1.906075e+01	-5.667952e+00
1.917085e+01	-5.705032e+00
1.928158e+01	-5.741517e+00
1.939295e+01	-5.778163e+00
1.950496e+01	-5.815032e+00
1.961762e+01	-5.851973e+00
1.973093e+01	-5.888853e+00
1.984490e+01	-5.925979e+00
1.995952e+01	-5.963546e+00
2.007480e+01	-6.001061e+00
2.019076e+01	-6.038132e+00
2.030738e+01	-6.076176e+00
2.042467e+01	-6.114117e+00
2.054264e+01	-6.151694e+00
2.066130e+01	-6.189690e+00
2.078064e+01	-6.227764e+00
2.090066e+01	-6.265730e+00
2.102139e+01	-6.304445e+00
2.114280e+01	-6.342357e+00
2.126492e+01	-6.380844e+00
2.138775e+01	-6.419213e+00
2.151128e+01	-6.457896e+00
2.163553e+01	-6.496957e+00
2.176050e+01	-6.535608e+00
2.188619e+01	-6.575140e+00
2.201260e+01	-6.613806e+00
2.213974e+01	-6.652826e+00
2.226762e+01	-6.692018e+00
2.239624e+01	-6.731818e+00
2.252560e+01	-6.770893e+00
2.265571e+01	-6.810552e+00
2.278656e+01	-6.850039e+00
2.291818e+01	-6.889536e+00
2.305055e+01	-6.929743e+00
2.318369e+01	-6.969865e+00
2.331760e+01	-7.009800e+00
2.345228e+01	-7.049634e+00
2.358774e+01	-7.090362e+00
2.372398e+01	-7.130251e+00
2.386101e+01	-7.170448e+00
2.399883e+01	-7.210992e+00
2.413745e+01	-7.251974e+00
2.427686e+01	-7.292470e+00
2.441709e+01	-7.332726e+00
2.455812e+01	-7.373659e+00
2.469997e+01	-7.415058e+00
2.484263e+01	-7.455804e+00
2.498612e+01	-7.497205e+00
2.513044e+01	-7.538680e+00
2.527559e+01	-7.579268e+00
2.542158e+01	-7.620645e+00
2.556842e+01	-7.662158e+00
2.571610e+01	-7.703642e+00
2.586463e+01	-7.745343e+00
2.601403e+01	-7.786734e+00
2.616428e+01	-7.828409e+00
2.631541e+01	-7.870369e+00
2.646740e+01	-7.912696e+00
2.662028e+01	-7.954240e+00
2.677404e+01	-7.996402e+00
2.692868e+01	-8.038858e+00
2.708422e+01	-8.080679e+00
2.724066e+01	-8.123127e+00
2.739800e+01	-8.164797e+00
2.755625e+01	-8.208222e+00
2.771541e+01	-8.250151e+00
2.787550e+01	-8.293143e+00
2.803650e+01	-8.335387e+00
2.819844e+01	-8.378528e+00
2.836131e+01	-8.420864e+00
2.852513e+01	-8.464221e+00
2.868989e+01	-8.506674e+00
2.885560e+01	-8.549717e+00
2.902227e+01	-8.593045e+00
2.918990e+01	-8.635608e+00
2.935850e+01	-8.679018e+00
2.952807e+01	-8.722627e+00
2.969863e+01	-8.765457e+00
2.987016e+01	-8.809235e+00
3.004269e+01	-8.852998e+00
3.021622e+01	-8.896460e+00
3.039075e+01	-8.939926e+00
3.056628e+01	-8.983364e+00
3.074283e+01	-9.027251e+00
3.092040e+01	-9.071046e+00
3.109900e+01	-9.114510e+00
3.127862e+01	-9.158984e+00
3.145929e+01	-9.202885e+00
3.164099e+01	-9.246802e+00
3.182375e+01	-9.290583e+00
3.200756e+01	-9.334914e+00
3.219244e+01	-9.379311e+00
3.237838e+01	-9.423484e+00
3.256540e+01	-9.468236e+00
3.275349e+01	-9.512421e+00
3.294268e+01	-9.557318e+00
3.313295e+01	-9.601336e+00
3.332433e+01	-9.646072e+00
3.351681e+01	-9.690329e+00
3.371040e+01	-9.735366e+00
3.390511e+01	-9.779939e+00
3.410094e+01	-9.825235e+00
3.429791e+01	-9.869685e+00
3.449601e+01	-9.914328e+00
3.469526e+01	-9.959190e+00
3.489566e+01	-1.000419e+01
3.509721e+01	-1.004939e+01
3.529993e+01	-1.009444e+01
3.550382e+01	-1.013994e+01
3.570889e+01	-1.018515e+01
3.591515e+01	-1.023069e+01
3.612259e+01	-1.027568e+01
3.633123e+01	-1.032166e+01
3.654108e+01	-1.036614e+01
3.675214e+01	-1.041154e+01
3.696442e+01	-1.045748e+01
3.717792e+01	-1.050303e+01
3.739266e+01	-1.054824e+01
3.760864e+01	-1.059443e+01
3.782587e+01	-1.063959e+01
3.804435e+01	-1.068517e+01
3.826409e+01	-1.073136e+01
3.848510e+01	-1.077753e+01
3.870739e+01	-1.082267e+01
3.893096e+01	-1.086898e+01
3.915583e+01	-1.091486e+01
3.938199e+01	-1.096071e+01
3.960946e+01	-1.100701e+01
3.983824e+01	-1.105337e+01
4.006834e+01	-1.109876e+01
4.029978e+01	-1.114519e+01
4.053255e+01	-1.119128e+01
4.076666e+01	-1.123743e+01
4.100213e+01	-1.128394e+01
4.123896e+01	-1.132966e+01
4.147715e+01	-1.137646e+01
4.171672e+01	-1.142318e+01
4.195767e+01	-1.146890e+01
4.220002e+01	-1.151553e+01
4.244377e+01	-1.156292e+01
4.268892e+01	-1.160941e+01
4.293549e+01	-1.165586e+01
4.318348e+01	-1.170193e+01
4.343291e+01	-1.174870e+01
4.368377e+01	-1.179515e+01
4.393609e+01	-1.184190e+01
4.418986e+01	-1.188957e+01
4.444510e+01	-1.193583e+01
4.470182e+01	-1.198254e+01
4.496001e+01	-1.203017e+01
4.521970e+01	-1.207685e+01
4.548089e+01	-1.212322e+01
4.574358e+01	-1.217056e+01
4.600779e+01	-1.221764e+01
4.627353e+01	-1.226448e+01
4.654081e+01	-1.231159e+01
4.680963e+01	-1.235857e+01
4.708000e+01	-1.240577e+01
4.735193e+01	-1.245299e+01
4.762543e+01	-1.250063e+01
4.790051e+01	-1.254750e+01
4.817719e+01	-1.259495e+01
4.845545e+01	-1.264155e+01
4.873533e+01	-1.268841e+01
4.901682e+01	-1.273681e+01
4.929994e+01	-1.278417e+01
4.958470e+01	-1.283168e+01
4.987110e+01	-1.287922e+01
5.015915e+01	-1.292577e+01
5.044887e+01	-1.297346e+01
5.074026e+01	-1.302151e+01
5.103333e+01	-1.306905e+01
5.132810e+01	-1.311682e+01
5.162457e+01	-1.316462e+01
5.192275e+01	-1.321223e+01
5.222265e+01	-1.325968e+01
5.252429e+01	-1.330686e+01
5.282767e+01	-1.335379e+01
5.313280e+01	-1.340272e+01
5.343969e+01	-1.344981e+01
5.374836e+01	-1.349779e+01
5.405880e+01	-1.354552e+01
5.437105e+01	-1.359390e+01
5.468509e+01	-1.364053e+01
5.500095e+01	-1.368935e+01
5.531863e+01	-1.373745e+01
5.563815e+01	-1.378472e+01
5.595951e+01	-1.383299e+01
5.628273e+01	-1.388060e+01
5.660782e+01	-1.392945e+01
5.693479e+01	-1.397622e+01
5.726364e+01	-1.402499e+01
5.759439e+01	-1.407245e+01
5.792705e+01	-1.412149e+01
5.826164e+01	-1.416969e+01
5.859815e+01	-1.421784e+01
5.893662e+01	-1.426597e+01
5.927703e+01	-1.431370e+01
5.961941e+01	-1.436249e+01
5.996377e+01	-1.440986e+01
6.031012e+01	-1.445893e+01
6.065847e+01	-1.450645e+01
6.100883e+01	-1.455442e+01
6.136121e+01	-1.460284e+01
6.171563e+01	-1.465106e+01
6.207210e+01	-1.470035e+01
6.243063e+01	-1.474843e+01
6.279122e+01	-1.479668e+01
6.315390e+01	-1.484495e+01
6.351868e+01	-1.489381e+01
6.388556e+01	-1.494095e+01
6.425456e+01	-1.499046e+01
6.462569e+01	-1.503853e+01
6.499897e+01	-1.508679e+01
6.537440e+01	-1.513550e+01
6.575200e+01	-1.518409e+01
6.613178e+01	-1.523274e+01
6.651375e+01	-1.528100e+01
6.689793e+01	-1.532979e+01
6.728433e+01	-1.537865e+01
6.767297e+01	-1.542725e+01
6.806384e+01	-1.547466e+01
6.845698e+01	-1.552468e+01
6.885238e+01	-1.557276e+01
6.925007e+01	-1.562100e+01
6.965005e+01	-1.567030e+01
7.005235e+01	-1.571903e+01
7.045697e+01	-1.576778e+01
7.086393e+01	-1.581595e+01
7.127323e+01	-1.586477e+01
7.168490e+01	-1.591278e+01
7.209895e+01	-1.596212e+01
7.251539e+01	-1.601090e+01
7.293424e+01	-1.605900e+01
7.335551e+01	-1.610789e+01
7.377920e+01	-1.615774e+01
7.420535e+01	-1.620591e+01
7.463396e+01	-1.625473e+01
7.506504e+01	-1.630465e+01
7.549861e+01	-1.635273e+01
7.593469e+01	-1.640128e+01
7.637328e+01	-1.645062e+01
7.681441e+01	-1.650039e+01
7.725809e+01	-1.654927e+01
7.770433e+01	-1.659798e+01
7.815315e+01	-1.664657e+01
7.860456e+01	-1.669519e+01
7.905857e+01	-1.674460e+01
7.951521e+01	-1.679371e+01
7.997449e+01	-1.684227e+01
8.043642e+01	-1.689087e+01
8.090102e+01	-1.694027e+01
8.136830e+01	-1.698845e+01
8.183828e+01	-1.703813e+01
8.231097e+01	-1.708634e+01
8.278640e+01	-1.713628e+01
8.326457e+01	-1.718616e+01
8.374550e+01	-1.723564e+01
8.422921e+01	-1.728365e+01
8.471572e+01	-1.733224e+01
8.520503e+01	-1.738250e+01
8.569717e+01	-1.743111e+01
8.619215e+01	-1.748008e+01
8.669000e+01	-1.752948e+01
8.719071e+01	-1.757757e+01
8.769432e+01	-1.762739e+01
8.820084e+01	-1.767674e+01
8.871029e+01	-1.772678e+01
8.922267e+01	-1.777532e+01
8.973802e+01	-1.782432e+01
9.025634e+01	-1.787243e+01
9.077766e+01	-1.792243e+01
9.130199e+01	-1.797112e+01
9.182935e+01	-1.802129e+01
9.235975e+01	-1.807003e+01
9.289321e+01	-1.812001e+01
9.342976e+01	-1.816866e+01
9.396941e+01	-1.821811e+01
9.451217e+01	-1.826736e+01
9.505807e+01	-1.831771e+01
9.560712e+01	-1.836666e+01
9.615934e+01	-1.841653e+01
9.671476e+01	-1.846291e+01
9.727338e+01	-1.851430e+01
9.783522e+01	-1.856341e+01
9.840032e+01	-1.861215e+01
9.896867e+01	-1.866235e+01
9.954031e+01	-1.871105e+01
1.001153e+02	-1.876032e+01
1.006935e+02	-1.881095e+01
1.012751e+02	-1.885988e+01
1.018601e+02	-1.890851e+01
1.024484e+02	-1.895844e+01
1.030402e+02	-1.900805e+01
1.036353e+02	-1.905648e+01
1.042339e+02	-1.910605e+01
1.048360e+02	-1.915562e+01
1.054415e+02	-1.920482e+01
1.060505e+02	-1.925495e+01
1.066631e+02	-1.930296e+01
1.072791e+02	-1.935179e+01
1.078988e+02	-1.940414e+01
1.085220e+02	-1.945203e+01
1.091488e+02	-1.950306e+01
1.097793e+02	-1.955264e+01
1.104133e+02	-1.960112e+01
1.110511e+02	-1.965014e+01
1.116925e+02	-1.970139e+01
1.123376e+02	-1.975069e+01
1.129865e+02	-1.980002e+01
1.136391e+02	-1.984984e+01
1.142955e+02	-1.989767e+01
1.149556e+02	-1.994785e+01
1.156196e+02	-1.999945e+01
1.162874e+02	-2.004750e+01
1.169591e+02	-2.009393e+01
1.176347e+02	-2.014700e+01
1.183141e+02	-2.019454e+01
1.189975e+02	-2.024564e+01
1.196848e+02	-2.029336e+01
1.203761e+02	-2.034405e+01
1.210714e+02	-2.039298e+01
1.217707e+02	-2.044441e+01
1.224740e+02	-2.049307e+01
1.231814e+02	-2.054297e+01
1.238929e+02	-2.059312e+01
1.246085e+02	-2.064261e+01
1.253283e+02	-2.069079e+01
1.260522e+02	-2.074015e+01
1.267802e+02	-2.079280e+01
1.275125e+02	-2.084213e+01
1.282490e+02	-2.088866e+01
1.289898e+02	-2.093944e+01
1.297348e+02	-2.098881e+01
1.304842e+02	-2.103842e+01
1.312378e+02	-2.108747e+01
1.319959e+02	-2.113840e+01
1.327583e+02	-2.118620e+01
1.335251e+02	-2.123834e+01
1.342963e+02	-2.128878e+01
1.350720e+02	-2.133734e+01
1.358522e+02	-2.138558e+01
1.366368e+02	-2.143642e+01
1.374260e+02	-2.148527e+01
1.382198e+02	-2.153562e+01
1.390182e+02	-2.158550e+01
1.398211e+02	-2.163403e+01
1.406287e+02	-2.168224e+01
1.414410e+02	-2.173624e+01
1.422579e+02	-2.178457e+01
1.430796e+02	-2.183588e+01
1.439060e+02	-2.188351e+01
1.447372e+02	-2.193404e+01
1.455732e+02	-2.198266e+01
1.464141e+02	-2.203333e+01
1.472597e+02	-2.208330e+01
1.481103e+02	-2.213321e+01
1.489658e+02	-2.218264e+01
1.498262e+02	-2.223015e+01
1.506916e+02	-2.228104e+01
1.515620e+02	-2.233167e+01
1.524374e+02	-2.238226e+01
1.533179e+02	-2.243065e+01
1.542034e+02	-2.248092e+01
1.550941e+02	-2.253056e+01
1.559899e+02	-2.258012e+01
1.568909e+02	-2.262847e+01
1.577971e+02	-2.267799e+01
1.587085e+02	-2.272993e+01
1.596252e+02	-2.277923e+01
1.605472e+02	-2.282989e+01
1.614745e+02	-2.287809e+01
1.624072e+02	-2.292821e+01
1.633453e+02	-2.297815e+01
1.642887e+02	-2.302783e+01
1.652377e+02	-2.307806e+01
1.661921e+02	-2.312897e+01
1.671520e+02	-2.317730e+01
1.681175e+02	-2.322605e+01
1.690885e+02	-2.327808e+01
1.700651e+02	-2.332685e+01
1.710474e+02	-2.337704e+01
1.720354e+02	-2.342464e+01
1.730291e+02	-2.347816e+01
1.740285e+02	-2.352566e+01
1.750337e+02	-2.357620e+01
1.760446e+02	-2.362700e+01
1.770615e+02	-2.367569e+01
1.780842e+02	-2.372439e+01
1.791128e+02	-2.377335e+01
1.801473e+02	-2.382510e+01
1.811878e+02	-2.387531e+01
1.822344e+02	-2.392425e+01
1.832870e+02	-2.397420e+01
1.843456e+02	-2.402484e+01
1.854104e+02	-2.407530e+01
1.864813e+02	-2.412449e+01
1.875584e+02	-2.417172e+01
1.886418e+02	-2.422556e+01
1.897313e+02	-2.427353e+01
1.908272e+02	-2.432287e+01
1.919294e+02	-2.437308e+01
1.930380e+02	-2.442128e+01
1.941530e+02	-2.447278e+01
1.952744e+02	-2.452292e+01
1.964023e+02	-2.457283e+01
1.975367e+02	-2.462336e+01
1.986777e+02	-2.467268e+01
1.998252e+02	-2.472276e+01
2.009794e+02	-2.477318e+01
2.021403e+02	-2.482183e+01
2.033078e+02	-2.487062e+01
2.044821e+02	-2.492220e+01
2.056632e+02	-2.497291e+01
2.068511e+02	-2.502283e+01
2.080459e+02	-2.507094e+01
2.092475e+02	-2.512368e+01
2.104561e+02	-2.517144e+01
2.116717e+02	-2.522257e+01
2.128943e+02	-2.527492e+01
2.141240e+02	-2.532059e+01
2.153608e+02	-2.537212e+01
2.166047e+02	-2.542083e+01
2.178558e+02	-2.547154e+01
2.191141e+02	-2.551930e+01
2.203797e+02	-2.557152e+01
2.216526e+02	-2.561958e+01
2.229329e+02	-2.567280e+01
2.242205e+02	-2.572275e+01
2.255156e+02	-2.577177e+01
2.268182e+02	-2.581918e+01
2.281283e+02	-2.586784e+01
2.294459e+02	-2.591925e+01
2.307712e+02	-2.596718e+01
2.321041e+02	-2.602199e+01
2.334447e+02	-2.607095e+01
2.347931e+02	-2.612048e+01
2.361493e+02	-2.616984e+01
2.375133e+02	-2.621931e+01
2.388851e+02	-2.626637e+01
2.402649e+02	-2.631884e+01
2.416527e+02	-2.636857e+01
2.430484e+02	-2.642009e+01
2.444523e+02	-2.647007e+01
2.458642e+02	-2.652060e+01
2.472843e+02	-2.656890e+01
2.487126e+02	-2.661996e+01
2.501492e+02	-2.667155e+01
2.515940e+02	-2.672222e+01
2.530472e+02	-2.677186e+01
2.545088e+02	-2.682029e+01
2.559789e+02	-2.687034e+01
2.574574e+02	-2.692047e+01
2.589444e+02	-2.696865e+01
2.604401e+02	-2.702096e+01
2.619444e+02	-2.706735e+01
2.634574e+02	-2.712179e+01
2.649791e+02	-2.716993e+01
2.665096e+02	-2.722013e+01
2.680489e+02	-2.727229e+01
2.695972e+02	-2.731889e+01
2.711544e+02	-2.737268e+01
2.727205e+02	-2.741919e+01
2.742958e+02	-2.746868e+01
2.758801e+02	-2.751523e+01
2.774736e+02	-2.756715e+01
2.790762e+02	-2.762132e+01
2.806882e+02	-2.766859e+01
2.823094e+02	-2.772120e+01
2.839400e+02	-2.777038e+01
2.855800e+02	-2.782105e+01
2.872295e+02	-2.786873e+01
2.888886e+02	-2.791592e+01
2.905572e+02	-2.797118e+01
2.922354e+02	-2.801641e+01
2.939234e+02	-2.807010e+01
2.956211e+02	-2.811821e+01
2.973286e+02	-2.816707e+01
2.990459e+02	-2.821839e+01
3.007732e+02	-2.826928e+01
3.025104e+02	-2.832207e+01
3.042577e+02	-2.836416e+01
3.060151e+02	-2.841730e+01
3.077826e+02	-2.846789e+01
3.095604e+02	-2.851968e+01
3.113484e+02	-2.857046e+01
3.131467e+02	-2.861751e+01
3.149554e+02	-2.866816e+01
3.167746e+02	-2.872040e+01
3.186043e+02	-2.876827e+01
3.204445e+02	-2.882178e+01
3.222954e+02	-2.886981e+01
3.241570e+02	-2.892229e+01
3.260293e+02	-2.897262e+01
3.279124e+02	-2.901871e+01
3.298064e+02	-2.907373e+01
3.317114e+02	-2.912005e+01
3.336273e+02	-2.917022e+01
3.355544e+02	-2.922227e+01
3.374925e+02	-2.926846e+01
3.394418e+02	-2.932317e+01
3.414024e+02	-2.936989e+01
3.433744e+02	-2.942121e+01
3.453577e+02	-2.946754e+01
3.473525e+02	-2.951361e+01
3.493588e+02	-2.957314e+01
3.513766e+02	-2.961995e+01
3.534062e+02	-2.967586e+01
3.554474e+02	-2.972045e+01
3.575005e+02	-2.976859e+01
3.595654e+02	-2.982082e+01
3.616422e+02	-2.987462e+01
3.637311e+02	-2.992154e+01
3.658320e+02	-2.997315e+01
3.679450e+02	-3.002006e+01
3.700702e+02	-3.007202e+01
3.722077e+02	-3.012281e+01
3.743576e+02	-3.017544e+01
3.765199e+02	-3.022778e+01
3.786946e+02	-3.027332e+01
3.808820e+02	-3.032097e+01
3.830819e+02	-3.037352e+01
3.852946e+02	-3.042375e+01
3.875200e+02	-3.047952e+01
3.897583e+02	-3.052320e+01
3.920096e+02	-3.057327e+01
3.942738e+02	-3.062132e+01
3.965511e+02	-3.067559e+01
3.988416e+02	-3.071902e+01
4.011452e+02	-3.078220e+01
4.034622e+02	-3.082308e+01
4.057926e+02	-3.087380e+01
4.081365e+02	-3.092626e+01
4.104938e+02	-3.097417e+01
4.128648e+02	-3.102248e+01
4.152495e+02	-3.108025e+01
4.176480e+02	-3.112639e+01
4.200603e+02	-3.117579e+01
4.224866e+02	-3.122300e+01
4.249268e+02	-3.127544e+01
4.273812e+02	-3.132632e+01
4.298497e+02	-3.137646e+01
4.323325e+02	-3.142173e+01
4.348297e+02	-3.147358e+01
4.373412e+02	-3.152736e+01
4.398673e+02	-3.157466e+01
4.424079e+02	-3.162443e+01
4.449633e+02	-3.167834e+01
4.475334e+02	-3.172393e+01
4.501183e+02	-3.177937e+01
4.527182e+02	-3.182809e+01
4.553330e+02	-3.187950e+01
4.579630e+02	-3.192851e+01
4.606082e+02	-3.197377e+01
4.632687e+02	-3.203185e+01
4.659445e+02	-3.208195e+01
4.686358e+02	-3.212536e+01
4.713426e+02	-3.217826e+01
4.740650e+02	-3.223076e+01
4.768032e+02	-3.228048e+01
4.795572e+02	-3.232276e+01
4.823271e+02	-3.238150e+01
4.851130e+02	-3.243057e+01
4.879150e+02	-3.248160e+01
4.907332e+02	-3.252662e+01
4.935676e+02	-3.258567e+01
4.964185e+02	-3.262814e+01
4.992858e+02	-3.267797e+01
5.021696e+02	-3.272530e+01
5.050701e+02	-3.277763e+01
5.079874e+02	-3.283015e+01
5.109215e+02	-3.287844e+01
5.138726e+02	-3.293356e+01
5.168407e+02	-3.298017e+01
5.198259e+02	-3.303275e+01
5.228284e+02	-3.308726e+01
5.258482e+02	-3.312174e+01
5.288855e+02	-3.317934e+01
5.319403e+02	-3.323370e+01
5.350128e+02	-3.328832e+01
5.381030e+02	-3.333856e+01
5.412111e+02	-3.338284e+01
5.443371e+02	-3.343117e+01
5.474812e+02	-3.348630e+01
5.506434e+02	-3.353844e+01
5.538239e+02	-3.358847e+01
5.570228e+02	-3.362866e+01
5.602401e+02	-3.368106e+01
5.634760e+02	-3.373248e+01
5.667306e+02	-3.378699e+01
5.700040e+02	-3.384378e+01
5.732964e+02	-3.387560e+01
5.766077e+02	-3.393140e+01
5.799382e+02	-3.398653e+01
5.832879e+02	-3.404010e+01
5.866569e+02	-3.408871e+01
5.900454e+02	-3.413751e+01
5.934535e+02	-3.418612e+01
5.968813e+02	-3.422996e+01
6.003288e+02	-3.429686e+01
6.037963e+02	-3.433379e+01
6.072838e+02	-3.439499e+01
6.107914e+02	-3.443398e+01
6.143194e+02	-3.449137e+01
6.178676e+02	-3.454434e+01
6.214364e+02	-3.458481e+01
6.250258e+02	-3.463647e+01
6.286359e+02	-3.469265e+01
6.322669e+02	-3.473442e+01
6.359189e+02	-3.479011e+01
6.395919e+02	-3.484232e+01
6.432862e+02	-3.488829e+01
6.470017e+02	-3.494568e+01
6.507388e+02	-3.499187e+01
6.544974e+02	-3.505184e+01
6.582778e+02	-3.509149e+01
6.620800e+02	-3.515867e+01
6.659041e+02	-3.520144e+01
6.697504e+02	-3.524473e+01
6.736188e+02	-3.529296e+01
6.775096e+02	-3.534733e+01
6.814229e+02	-3.540652e+01
6.853587e+02	-3.545461e+01
6.893173e+02	-3.549741e+01
6.932988e+02	-3.554030e+01
6.973033e+02	-3.559916e+01
7.013309e+02	-3.564548e+01
