Frequency(Hz)	Magnitude(dB)
1.000000e+01	-2.269921e+00
1.005776e+01	-2.290422e+00
1.011585e+01	-2.311134e+00
1.017428e+01	-2.331604e+00
1.023305e+01	-2.352700e+00
1.029215e+01	-2.373610e+00
1.035160e+01	-2.394742e+00
1.041139e+01	-2.415813e+00
1.047153e+01	-2.437386e+00
1.053201e+01	-2.458915e+00
1.059284e+01	-2.480775e+00
1.065403e+01	-2.502597e+00
1.071556e+01	-2.524570e+00
1.077746e+01	-2.546461e+00
1.083971e+01	-2.568941e+00
1.090232e+01	-2.591413e+00
1.096529e+01	-2.613848e+00
1.102862e+01	-2.636302e+00
1.109232e+01	-2.659370e+00
1.115639e+01	-2.682358e+00
1.122083e+01	-2.705517e+00
1.128564e+01	-2.728820e+00
1.135083e+01	-2.752269e+00
1.141639e+01	-2.775516e+00
1.148233e+01	-2.799151e+00
1.154865e+01	-2.823101e+00
1.161536e+01	-2.847173e+00
1.168245e+01	-2.871208e+00
1.174992e+01	-2.895623e+00
1.181779e+01	-2.920114e+00
1.188605e+01	-2.944466e+00
1.195470e+01	-2.969243e+00
1.202375e+01	-2.994092e+00
1.209320e+01	-3.019484e+00
1.216305e+01	-3.044132e+00
1.223330e+01	-3.069684e+00
1.230396e+01	-3.094914e+00
1.237503e+01	-3.120552e+00
1.244651e+01	-3.146117e+00
1.251840e+01	-3.172267e+00
1.259070e+01	-3.198001e+00
1.266343e+01	-3.224290e+00
1.273657e+01	-3.250240e+00
1.281014e+01	-3.276996e+00
1.288413e+01	-3.303434e+00
1.295855e+01	-3.330320e+00
1.303339e+01	-3.356960e+00
1.310867e+01	-3.384128e+00
1.318439e+01	-3.411174e+00
1.326054e+01	-3.438640e+00
1.333713e+01	-3.465878e+00
1.341417e+01	-3.493846e+00
1.349165e+01	-3.521202e+00
1.356958e+01	-3.549154e+00
1.364795e+01	-3.577385e+00
1.372678e+01	-3.605142e+00
1.380607e+01	-3.633458e+00
1.388581e+01	-3.661952e+00
1.396602e+01	-3.690548e+00
1.404668e+01	-3.719324e+00
1.412782e+01	-3.748283e+00
1.420942e+01	-3.777139e+00
1.429149e+01	-3.806235e+00
1.437404e+01	-3.835516e+00
1.445706e+01	-3.864753e+00
1.454057e+01	-3.894299e+00
1.462455e+01	-3.924269e+00
1.470902e+01	-3.954112e+00
1.479398e+01	-3.983872e+00
1.487943e+01	-4.014096e+00
1.496537e+01	-4.044478e+00
1.505181e+01	-4.074520e+00
1.513875e+01	-4.105289e+00
1.522619e+01	-4.135929e+00
1.531414e+01	-4.166555e+00
1.540259e+01	-4.197548e+00
1.549156e+01	-4.228683e+00
1.558103e+01	-4.259902e+00
1.567103e+01	-4.291453e+00
1.576155e+01	-4.322545e+00
1.585258e+01	-4.354310e+00
1.594415e+01	-4.385882e+00
1.603624e+01	-4.417889e+00
1.612886e+01	-4.449796e+00
1.622202e+01	-4.481893e+00
1.631572e+01	-4.514255e+00
1.640996e+01	-4.546692e+00
1.650474e+01	-4.578989e+00
1.660008e+01	-4.612096e+00
1.669596e+01	-4.644859e+00
1.679239e+01	-4.677346e+00
1.688938e+01	-4.710506e+00
1.698694e+01	-4.744168e+00
1.708505e+01	-4.777128e+00
1.718373e+01	-4.810658e+00
1.728299e+01	-4.843670e+00
1.738281e+01	-4.877611e+00
1.748322e+01	-4.911761e+00
1.758420e+01	-4.945356e+00
1.768576e+01	-4.979879e+00
1.778792e+01	-5.013848e+00
1.789066e+01	-5.048224e+00
1.799399e+01	-5.082743e+00
1.809793e+01	-5.117333e+00
1.820246e+01	-5.151667e+00
1.830760e+01	-5.186390e+00
1.841334e+01	-5.221738e+00
1.851969e+01	-5.256392e+00
1.862666e+01	-5.291824e+00
1.873425e+01	-5.327297e+00
1.884246e+01	-5.362386e+00
1.895129e+01	-5.398043e+00
1.906075e+01	-5.433654e+00
1.917085e+01	-5.469435e+00
1.928158e+01	-5.505242e+00
1.939295e+01	-5.541484e+00
1.950496e+01	-5.577339e+00
1.961762e+01	-5.613576e+00
1.973093e+01	-5.649994e+00
1.984490e+01	-5.686566e+00
1.995952e+01	-5.723173e+00
2.007480e+01	-5.759667e+00
2.019076e+01	-5.796729e+00
2.030738e+01	-5.833725e+00
2.042467e+01	-5.870794e+00
2.054264e+01	-5.907227e+00
2.066130e+01	-5.944915e+00
2.078064e+01	-5.982184e+00
2.090066e+01	-6.019560e+00
2.102139e+01	-6.057332e+00
2.114280e+01	-6.094772e+00
2.126492e+01	-6.132402e+00
2.138775e+01	-6.170474e+00
2.151128e+01	-6.208613e+00
2.163553e+01	-6.246490e+00
2.176050e+01	-6.285136e+00
2.188619e+01	-6.323237e+00
2.201260e+01	-6.361647e+00
2.213974e+01	-6.400237e+00
2.226762e+01	-6.438616e+00
2.239624e+01	-6.477370e+00
2.252560e+01	-6.516299e+00
2.265571e+01	-6.555194e+00
2.278656e+01	-6.594396e+00
2.291818e+01	-6.633439e+00
2.305055e+01	-6.672581e+00
2.318369e+01	-6.712119e+00
2.331760e+01	-6.751424e+00
2.345228e+01	-6.790989e+00
2.358774e+01	-6.830126e+00
2.372398e+01	-6.869986e+00
2.386101e+01	-6.909644e+00
2.399883e+01	-6.949802e+00
2.413745e+01	-6.989272e+00
2.427686e+01	-7.029650e+00
2.441709e+01	-7.069951e+00
2.455812e+01	-7.110217e+00
2.469997e+01	-7.150308e+00
2.484263e+01	-7.190799e+00
2.498612e+01	-7.231677e+00
2.513044e+01	-7.271845e+00
2.527559e+01	-7.313030e+00
2.542158e+01	-7.353539e+00
2.556842e+01	-7.394445e+00
2.571610e+01	-7.435462e+00
2.586463e+01	-7.476166e+00
2.601403e+01	-7.517771e+00
2.616428e+01	-7.558729e+00
2.631541e+01	-7.599923e+00
2.646740e+01	-7.641552e+00
2.662028e+01	-7.682926e+00
2.677404e+01	-7.724677e+00
2.692868e+01	-7.766206e+00
2.708422e+01	-7.807753e+00
2.724066e+01	-7.849366e+00
2.739800e+01	-7.891198e+00
2.755625e+01	-7.933044e+00
2.771541e+01	-7.975099e+00
2.787550e+01	-8.017529e+00
2.803650e+01	-8.059082e+00
2.819844e+01	-8.101479e+00
2.836131e+01	-8.144628e+00
2.852513e+01	-8.186654e+00
2.868989e+01	-8.228769e+00
2.885560e+01	-8.271525e+00
2.902227e+01	-8.314246e+00
2.918990e+01	-8.356224e+00
2.935850e+01	-8.399617e+00
2.952807e+01	-8.442367e+00
2.969863e+01	-8.485158e+00
2.987016e+01	-8.527887e+00
3.004269e+01	-8.571796e+00
3.021622e+01	-8.614599e+00
3.039075e+01	-8.657871e+00
3.056628e+01	-8.700738e+00
3.074283e+01	-8.744262e+00
3.092040e+01	-8.787468e+00
3.109900e+01	-8.830891e+00
3.127862e+01	-8.874339e+00
3.145929e+01	-8.918041e+00
3.164099e+01	-8.961985e+00
3.182375e+01	-9.005660e+00
3.200756e+01	-9.049333e+00
3.219244e+01	-9.093640e+00
3.237838e+01	-9.136931e+00
3.256540e+01	-9.180757e+00
3.275349e+01	-9.225547e+00
3.294268e+01	-9.269053e+00
3.313295e+01	-9.312905e+00
3.332433e+01	-9.357921e+00
3.351681e+01	-9.401669e+00
3.371040e+01	-9.446006e+00
3.390511e+01	-9.490472e+00
3.410094e+01	-9.534832e+00
3.429791e+01	-9.578794e+00
3.449601e+01	-9.623630e+00
3.469526e+01	-9.668194e+00
3.489566e+01	-9.712948e+00
3.509721e+01	-9.757359e+00
3.529993e+01	-9.802057e+00
3.550382e+01	-9.846873e+00
3.570889e+01	-9.892422e+00
3.591515e+01	-9.937527e+00
3.612259e+01	-9.982472e+00
3.633123e+01	-1.002708e+01
3.654108e+01	-1.007204e+01
3.675214e+01	-1.011682e+01
3.696442e+01	-1.016254e+01
3.717792e+01	-1.020740e+01
3.739266e+01	-1.025284e+01
3.760864e+01	-1.029837e+01
3.782587e+01	-1.034386e+01
3.804435e+01	-1.038914e+01
3.826409e+01	-1.043469e+01
3.848510e+01	-1.048031e+01
3.870739e+01	-1.052568e+01
3.893096e+01	-1.057159e+01
3.915583e+01	-1.061719e+01
3.938199e+01	-1.066285e+01
3.960946e+01	-1.070860e+01
3.983824e+01	-1.075474e+01
4.006834e+01	-1.079995e+01
4.029978e+01	-1.084616e+01
4.053255e+01	-1.089179e+01
4.076666e+01	-1.093727e+01
4.100213e+01	-1.098417e+01
4.123896e+01	-1.103030e+01
4.147715e+01	-1.107616e+01
4.171672e+01	-1.112265e+01
4.195767e+01	-1.116803e+01
4.220002e+01	-1.121445e+01
4.244377e+01	-1.126122e+01
4.268892e+01	-1.130707e+01
4.293549e+01	-1.135370e+01
4.318348e+01	-1.139990e+01
4.343291e+01	-1.144595e+01
4.368377e+01	-1.149242e+01
4.393609e+01	-1.153872e+01
4.418986e+01	-1.158575e+01
4.444510e+01	-1.163253e+01
4.470182e+01	-1.167867e+01
4.496001e+01	-1.172533e+01
4.521970e+01	-1.177251e+01
4.548089e+01	-1.181903e+01
4.574358e+01	-1.186589e+01
4.600779e+01	-1.191274e+01
4.627353e+01	-1.195893e+01
4.654081e+01	-1.200660e+01
4.680963e+01	-1.205270e+01
4.708000e+01	-1.209987e+01
4.735193e+01	-1.214727e+01
4.762543e+01	-1.219408e+01
4.790051e+01	-1.224154e+01
4.817719e+01	-1.228820e+01
4.845545e+01	-1.233460e+01
4.873533e+01	-1.238256e+01
4.901682e+01	-1.242943e+01
4.929994e+01	-1.247654e+01
4.958470e+01	-1.252405e+01
4.987110e+01	-1.257079e+01
5.015915e+01	-1.261796e+01
5.044887e+01	-1.266606e+01
5.074026e+01	-1.271361e+01
5.103333e+01	-1.276033e+01
5.132810e+01	-1.280795e+01
5.162457e+01	-1.285578e+01
5.192275e+01	-1.290252e+01
5.222265e+01	-1.294997e+01
5.252429e+01	-1.299712e+01
5.282767e+01	-1.304531e+01
5.313280e+01	-1.309219e+01
5.343969e+01	-1.314079e+01
5.374836e+01	-1.318755e+01
5.405880e+01	-1.323635e+01
5.437105e+01	-1.328337e+01
5.468509e+01	-1.333049e+01
5.500095e+01	-1.337932e+01
5.531863e+01	-1.342681e+01
5.563815e+01	-1.347370e+01
5.595951e+01	-1.352235e+01
5.628273e+01	-1.356989e+01
5.660782e+01	-1.361760e+01
5.693479e+01	-1.366529e+01
5.726364e+01	-1.371361e+01
5.759439e+01	-1.376074e+01
5.792705e+01	-1.380941e+01
5.826164e+01	-1.385686e+01
5.859815e+01	-1.390487e+01
5.893662e+01	-1.395324e+01
5.927703e+01	-1.400090e+01
5.961941e+01	-1.404899e+01
5.996377e+01	-1.409695e+01
6.031012e+01	-1.414558e+01
6.065847e+01	-1.419343e+01
6.100883e+01	-1.424119e+01
6.136121e+01	-1.428904e+01
6.171563e+01	-1.433878e+01
6.207210e+01	-1.438563e+01
6.243063e+01	-1.443417e+01
6.279122e+01	-1.448304e+01
6.315390e+01	-1.453087e+01
6.351868e+01	-1.457764e+01
6.388556e+01	-1.462768e+01
6.425456e+01	-1.467574e+01
6.462569e+01	-1.472479e+01
6.499897e+01	-1.477189e+01
6.537440e+01	-1.482057e+01
6.575200e+01	-1.486900e+01
6.613178e+01	-1.491703e+01
6.651375e+01	-1.496584e+01
6.689793e+01	-1.501490e+01
6.728433e+01	-1.506306e+01
6.767297e+01	-1.511197e+01
6.806384e+01	-1.515986e+01
6.845698e+01	-1.520769e+01
6.885238e+01	-1.525689e+01
6.925007e+01	-1.530528e+01
6.965005e+01	-1.535371e+01
7.005235e+01	-1.540247e+01
7.045697e+01	-1.544991e+01
7.086393e+01	-1.549981e+01
7.127323e+01	-1.554869e+01
7.168490e+01	-1.559668e+01
7.209895e+01	-1.564558e+01
7.251539e+01	-1.569384e+01
7.293424e+01	-1.574292e+01
7.335551e+01	-1.579242e+01
7.377920e+01	-1.584242e+01
7.420535e+01	-1.588883e+01
7.463396e+01	-1.593853e+01
7.506504e+01	-1.598670e+01
7.549861e+01	-1.603566e+01
7.593469e+01	-1.608565e+01
7.637328e+01	-1.613329e+01
7.681441e+01	-1.618208e+01
7.725809e+01	-1.623107e+01
7.770433e+01	-1.627972e+01
7.815315e+01	-1.632824e+01
7.860456e+01	-1.637641e+01
7.905857e+01	-1.642463e+01
7.951521e+01	-1.647475e+01
7.997449e+01	-1.652509e+01
8.043642e+01	-1.657259e+01
8.090102e+01	-1.662144e+01
8.136830e+01	-1.667093e+01
8.183828e+01	-1.672008e+01
8.231097e+01	-1.676815e+01
8.278640e+01	-1.681797e+01
8.326457e+01	-1.686668e+01
8.374550e+01	-1.691672e+01
8.422921e+01	-1.696631e+01
8.471572e+01	-1.701371e+01
8.520503e+01	-1.706389e+01
8.569717e+01	-1.711176e+01
8.619215e+01	-1.716221e+01
8.669000e+01	-1.721050e+01
8.719071e+01	-1.725957e+01
8.769432e+01	-1.730810e+01
8.820084e+01	-1.735778e+01
8.871029e+01	-1.740656e+01
8.922267e+01	-1.745630e+01
8.973802e+01	-1.750433e+01
9.025634e+01	-1.755302e+01
9.077766e+01	-1.760390e+01
9.130199e+01	-1.765291e+01
9.182935e+01	-1.770004e+01
9.235975e+01	-1.775051e+01
9.289321e+01	-1.779893e+01
9.342976e+01	-1.784956e+01
9.396941e+01	-1.789741e+01
9.451217e+01	-1.794737e+01
9.505807e+01	-1.799782e+01
9.560712e+01	-1.804505e+01
9.615934e+01	-1.809463e+01
9.671476e+01	-1.814449e+01
9.727338e+01	-1.819331e+01
9.783522e+01	-1.824356e+01
9.840032e+01	-1.829178e+01
9.896867e+01	-1.834175e+01
9.954031e+01	-1.839149e+01
1.001153e+02	-1.844047e+01
1.006935e+02	-1.849012e+01
1.012751e+02	-1.853891e+01
1.018601e+02	-1.858881e+01
1.024484e+02	-1.863734e+01
1.030402e+02	-1.868596e+01
1.036353e+02	-1.873599e+01
1.042339e+02	-1.878707e+01
1.048360e+02	-1.883599e+01
1.054415e+02	-1.888541e+01
1.060505e+02	-1.893300e+01
1.066631e+02	-1.898442e+01
1.072791e+02	-1.903312e+01
1.078988e+02	-1.908197e+01
1.085220e+02	-1.913185e+01
1.091488e+02	-1.917973e+01
1.097793e+02	-1.922885e+01
1.104133e+02	-1.927916e+01
1.110511e+02	-1.932887e+01
1.116925e+02	-1.937864e+01
1.123376e+02	-1.942822e+01
1.129865e+02	-1.947706e+01
1.136391e+02	-1.952657e+01
1.142955e+02	-1.957680e+01
1.149556e+02	-1.962564e+01
1.156196e+02	-1.967681e+01
1.162874e+02	-1.972486e+01
1.169591e+02	-1.977460e+01
1.176347e+02	-1.982485e+01
1.183141e+02	-1.987489e+01
1.189975e+02	-1.992262e+01
1.196848e+02	-1.997404e+01
1.203761e+02	-2.002275e+01
1.210714e+02	-2.007193e+01
1.217707e+02	-2.012325e+01
1.224740e+02	-2.017070e+01
1.231814e+02	-2.021974e+01
1.238929e+02	-2.027008e+01
1.246085e+02	-2.032010e+01
1.253283e+02	-2.036887e+01
1.260522e+02	-2.041986e+01
1.267802e+02	-2.046850e+01
1.275125e+02	-2.051895e+01
1.282490e+02	-2.056680e+01
1.289898e+02	-2.061775e+01
1.297348e+02	-2.066627e+01
1.304842e+02	-2.071635e+01
1.312378e+02	-2.076416e+01
1.319959e+02	-2.081647e+01
1.327583e+02	-2.086482e+01
1.335251e+02	-2.091430e+01
1.342963e+02	-2.096165e+01
1.350720e+02	-2.101274e+01
1.358522e+02	-2.106479e+01
1.366368e+02	-2.111271e+01
1.374260e+02	-2.116370e+01
1.382198e+02	-2.121291e+01
1.390182e+02	-2.126291e+01
1.398211e+02	-2.131085e+01
1.406287e+02	-2.135948e+01
1.414410e+02	-2.141086e+01
1.422579e+02	-2.146213e+01
1.430796e+02	-2.150864e+01
1.439060e+02	-2.156130e+01
1.447372e+02	-2.160963e+01
1.455732e+02	-2.165768e+01
1.464141e+02	-2.170898e+01
1.472597e+02	-2.175771e+01
1.481103e+02	-2.180990e+01
1.489658e+02	-2.185833e+01
1.498262e+02	-2.190790e+01
1.506916e+02	-2.195906e+01
1.515620e+02	-2.200740e+01
1.524374e+02	-2.205672e+01
1.533179e+02	-2.210829e+01
1.542034e+02	-2.215654e+01
1.550941e+02	-2.220742e+01
1.559899e+02	-2.225717e+01
1.568909e+02	-2.230880e+01
1.577971e+02	-2.235401e+01
1.587085e+02	-2.240390e+01
1.596252e+02	-2.245833e+01
1.605472e+02	-2.250548e+01
1.614745e+02	-2.255695e+01
1.624072e+02	-2.260436e+01
1.633453e+02	-2.265318e+01
1.642887e+02	-2.270429e+01
1.652377e+02	-2.275399e+01
1.661921e+02	-2.280441e+01
1.671520e+02	-2.285367e+01
1.681175e+02	-2.290242e+01
1.690885e+02	-2.295154e+01
1.700651e+02	-2.300131e+01
1.710474e+02	-2.305078e+01
1.720354e+02	-2.310411e+01
1.730291e+02	-2.315065e+01
1.740285e+02	-2.320555e+01
1.750337e+02	-2.325210e+01
1.760446e+02	-2.330142e+01
1.770615e+02	-2.335083e+01
1.780842e+02	-2.340159e+01
1.791128e+02	-2.345242e+01
1.801473e+02	-2.350226e+01
1.811878e+02	-2.354942e+01
1.822344e+02	-2.360141e+01
1.832870e+02	-2.365137e+01
1.843456e+02	-2.370066e+01
1.854104e+02	-2.375057e+01
1.864813e+02	-2.379950e+01
1.875584e+02	-2.385039e+01
1.886418e+02	-2.390159e+01
1.897313e+02	-2.394981e+01
1.908272e+02	-2.399801e+01
1.919294e+02	-2.405114e+01
1.930380e+02	-2.409987e+01
1.941530e+02	-2.415021e+01
1.952744e+02	-2.419786e+01
1.964023e+02	-2.424787e+01
1.975367e+02	-2.429730e+01
1.986777e+02	-2.435014e+01
1.998252e+02	-2.440053e+01
2.009794e+02	-2.444814e+01
2.021403e+02	-2.449806e+01
2.033078e+02	-2.454535e+01
2.044821e+02	-2.459836e+01
2.056632e+02	-2.464559e+01
2.068511e+02	-2.469949e+01
2.080459e+02	-2.474812e+01
2.092475e+02	-2.479489e+01
2.104561e+02	-2.484721e+01
2.116717e+02	-2.489637e+01
2.128943e+02	-2.494760e+01
2.141240e+02	-2.499734e+01
2.153608e+02	-2.504512e+01
2.166047e+02	-2.509377e+01
2.178558e+02	-2.514886e+01
2.191141e+02	-2.519283e+01
2.203797e+02	-2.524631e+01
2.216526e+02	-2.529520e+01
2.229329e+02	-2.534554e+01
2.242205e+02	-2.539627e+01
2.255156e+02	-2.544530e+01
2.268182e+02	-2.549513e+01
2.281283e+02	-2.554335e+01
2.294459e+02	-2.559778e+01
2.307712e+02	-2.564747e+01
2.321041e+02	-2.569505e+01
2.334447e+02	-2.574374e+01
2.347931e+02	-2.579610e+01
2.361493e+02	-2.584660e+01
2.375133e+02	-2.589888e+01
2.388851e+02	-2.594756e+01
2.402649e+02	-2.599583e+01
2.416527e+02	-2.604795e+01
2.430484e+02	-2.609428e+01
2.444523e+02	-2.614411e+01
2.458642e+02	-2.619528e+01
2.472843e+02	-2.624342e+01
2.487126e+02	-2.629469e+01
2.501492e+02	-2.634875e+01
2.515940e+02	-2.639466e+01
2.530472e+02	-2.644529e+01
2.545088e+02	-2.649522e+01
2.559789e+02	-2.654811e+01
2.574574e+02	-2.659787e+01
2.589444e+02	-2.664530e+01
2.604401e+02	-2.669470e+01
2.619444e+02	-2.674762e+01
2.634574e+02	-2.679107e+01
2.649791e+02	-2.684553e+01
2.665096e+02	-2.689268e+01
2.680489e+02	-2.694720e+01
2.695972e+02	-2.699476e+01
2.711544e+02	-2.704888e+01
2.727205e+02	-2.709518e+01
2.742958e+02	-2.714872e+01
2.758801e+02	-2.719455e+01
2.774736e+02	-2.724172e+01
2.790762e+02	-2.729688e+01
2.806882e+02	-2.734703e+01
2.823094e+02	-2.739381e+01
2.839400e+02	-2.744895e+01
2.855800e+02	-2.749483e+01
2.872295e+02	-2.754660e+01
2.888886e+02	-2.759659e+01
2.905572e+02	-2.764422e+01
2.922354e+02	-2.769548e+01
2.939234e+02	-2.774503e+01
2.956211e+02	-2.779668e+01
2.973286e+02	-2.784321e+01
2.990459e+02	-2.789898e+01
3.007732e+02	-2.794698e+01
3.025104e+02	-2.799533e+01
3.042577e+02	-2.804594e+01
3.060151e+02	-2.809850e+01
3.077826e+02	-2.814427e+01
3.095604e+02	-2.819492e+01
3.113484e+02	-2.824514e+01
3.131467e+02	-2.829270e+01
3.149554e+02	-2.834752e+01
3.167746e+02	-2.839506e+01
3.186043e+02	-2.844396e+01
3.204445e+02	-2.849582e+01
3.222954e+02	-2.854508e+01
3.241570e+02	-2.859777e+01
3.260293e+02	-2.864581e+01
3.279124e+02	-2.869675e+01
3.298064e+02	-2.875101e+01
3.317114e+02	-2.879557e+01
3.336273e+02	-2.884672e+01
3.355544e+02	-2.889666e+01
3.374925e+02	-2.894549e+01
3.394418e+02	-2.899793e+01
3.414024e+02	-2.904751e+01
3.433744e+02	-2.910003e+01
3.453577e+02	-2.914511e+01
3.473525e+02	-2.919543e+01
3.493588e+02	-2.924572e+01
3.513766e+02	-2.929513e+01
3.534062e+02	-2.935123e+01
3.554474e+02	-2.940536e+01
3.575005e+02	-2.944838e+01
3.595654e+02	-2.949393e+01
3.616422e+02	-2.954676e+01
3.637311e+02	-2.959293e+01
3.658320e+02	-2.964517e+01
3.679450e+02	-2.969325e+01
3.700702e+02	-2.974312e+01
3.722077e+02	-2.979817e+01
3.743576e+02	-2.984611e+01
3.765199e+02	-2.989489e+01
3.786946e+02	-2.994754e+01
3.808820e+02	-3.000085e+01
3.830819e+02	-3.004932e+01
3.852946e+02	-3.010185e+01
3.875200e+02	-3.015088e+01
3.897583e+02	-3.020235e+01
3.920096e+02	-3.025135e+01
3.942738e+02	-3.029942e+01
3.965511e+02	-3.034991e+01
3.988416e+02	-3.039875e+01
4.011452e+02	-3.045010e+01
4.034622e+02	-3.049401e+01
4.057926e+02	-3.054930e+01
4.081365e+02	-3.060510e+01
4.104938e+02	-3.064951e+01
4.128648e+02	-3.069934e+01
4.152495e+02	-3.074864e+01
4.176480e+02	-3.079901e+01
4.200603e+02	-3.085491e+01
4.224866e+02	-3.090058e+01
4.249268e+02	-3.094759e+01
4.273812e+02	-3.100050e+01
4.298497e+02	-3.105200e+01
4.323325e+02	-3.109627e+01
4.348297e+02	-3.114885e+01
4.373412e+02	-3.120798e+01
4.398673e+02	-3.125577e+01
4.424079e+02	-3.129625e+01
4.449633e+02	-3.134931e+01
4.475334e+02	-3.140583e+01
4.501183e+02	-3.145154e+01
4.527182e+02	-3.149954e+01
4.553330e+02	-3.155103e+01
4.579630e+02	-3.159965e+01
4.606082e+02	-3.165607e+01
4.632687e+02	-3.170488e+01
4.659445e+02	-3.175775e+01
4.686358e+02	-3.180382e+01
4.713426e+02	-3.185322e+01
4.740650e+02	-3.190300e+01
4.768032e+02	-3.195503e+01
4.795572e+02	-3.199980e+01
4.823271e+02	-3.205525e+01
4.851130e+02	-3.210523e+01
4.879150e+02	-3.215421e+01
4.907332e+02	-3.220704e+01
4.935676e+02	-3.225585e+01
4.964185e+02	-3.230413e+01
4.992858e+02	-3.235818e+01
5.021696e+02	-3.240392e+01
5.050701e+02	-3.245678e+01
5.079874e+02	-3.249962e+01
5.109215e+02	-3.255551e+01
5.138726e+02	-3.259750e+01
5.168407e+02	-3.265407e+01
5.198259e+02	-3.269830e+01
5.228284e+02	-3.276220e+01
5.258482e+02	-3.281062e+01
5.288855e+02	-3.285723e+01
5.319403e+02	-3.290983e+01
5.350128e+02	-3.295227e+01
5.381030e+02	-3.301441e+01
5.412111e+02	-3.306507e+01
5.443371e+02	-3.310267e+01
5.474812e+02	-3.316124e+01
5.506434e+02	-3.320509e+01
5.538239e+02	-3.326158e+01
5.570228e+02	-3.331255e+01
5.602401e+02	-3.335828e+01
5.634760e+02	-3.341326e+01
5.667306e+02	-3.346541e+01
5.700040e+02	-3.351107e+01
5.732964e+02	-3.356250e+01
5.766077e+02	-3.361687e+01
5.799382e+02	-3.366390e+01
5.832879e+02	-3.370986e+01
5.866569e+02	-3.376374e+01
5.900454e+02	-3.380743e+01
5.934535e+02	-3.385846e+01
5.968813e+02	-3.391143e+01
6.003288e+02	-3.397373e+01
6.037963e+02	-3.402047e+01
6.072838e+02	-3.406256e+01
6.107914e+02	-3.412011e+01
6.143194e+02	-3.415952e+01
6.178676e+02	-3.420963e+01
6.214364e+02	-3.427165e+01
6.250258e+02	-3.432213e+01
6.286359e+02	-3.436675e+01
6.322669e+02	-3.442740e+01
6.359189e+02	-3.446701e+01
6.395919e+02	-3.451736e+01
6.432862e+02	-3.457133e+01
6.470017e+02	-3.461449e+01
6.507388e+02	-3.466966e+01
6.544974e+02	-3.472015e+01
6.582778e+02	-3.476419e+01
6.620800e+02	-3.481891e+01
6.659041e+02	-3.486294e+01
6.697504e+02	-3.492307e+01
6.736188e+02	-3.497473e+01
6.775096e+02	-3.502052e+01
6.814229e+02	-3.507359e+01
6.853587e+02	-3.512858e+01
6.893173e+02	-3.517566e+01
6.932988e+02	-3.521596e+01
6.973033e+02	-3.527299e+01
7.013309e+02	-3.532197e+01
