Frequency(Hz)	Magnitude(dB)
1.000000e+01	-1.750556e-05
1.005776e+01	-1.770837e-05
1.011585e+01	-1.791352e-05
1.017428e+01	-1.812106e-05
1.023305e+01	-1.833099e-05
1.029215e+01	-1.854336e-05
1.035160e+01	-1.875819e-05
1.041139e+01	-1.897551e-05
1.047153e+01	-1.919535e-05
1.053201e+01	-1.941773e-05
1.059284e+01	-1.964269e-05
1.065403e+01	-1.987025e-05
1.071556e+01	-2.010046e-05
1.077746e+01	-2.033332e-05
1.083971e+01	-2.056889e-05
1.090232e+01	-2.080719e-05
1.096529e+01	-2.104824e-05
1.102862e+01	-2.129209e-05
1.109232e+01	-2.153877e-05
1.115639e+01	-2.178830e-05
1.122083e+01	-2.204072e-05
1.128564e+01	-2.229607e-05
1.135083e+01	-2.255437e-05
1.141639e+01	-2.281567e-05
1.148233e+01	-2.308000e-05
1.154865e+01	-2.334739e-05
1.161536e+01	-2.361787e-05
1.168245e+01	-2.389149e-05
1.174992e+01	-2.416828e-05
1.181779e+01	-2.444827e-05
1.188605e+01	-2.473151e-05
1.195470e+01	-2.501803e-05
1.202375e+01	-2.530787e-05
1.209320e+01	-2.560107e-05
1.216305e+01	-2.589767e-05
1.223330e+01	-2.619770e-05
1.230396e+01	-2.650120e-05
1.237503e+01	-2.680823e-05
1.244651e+01	-2.711881e-05
1.251840e+01	-2.743299e-05
1.259070e+01	-2.775080e-05
1.266343e+01	-2.807230e-05
1.273657e+01	-2.839753e-05
1.281014e+01	-2.872652e-05
1.288413e+01	-2.905932e-05
1.295855e+01	-2.939598e-05
1.303339e+01	-2.973654e-05
1.310867e+01	-3.008105e-05
1.318439e+01	-3.042954e-05
1.326054e+01	-3.078208e-05
1.333713e+01	-3.113869e-05
1.341417e+01	-3.149944e-05
1.349165e+01	-3.186437e-05
1.356958e+01	-3.223353e-05
1.364795e+01	-3.260696e-05
1.372678e+01	-3.298472e-05
1.380607e+01	-3.336686e-05
1.388581e+01	-3.375342e-05
1.396602e+01	-3.414446e-05
1.404668e+01	-3.454003e-05
1.412782e+01	-3.494019e-05
1.420942e+01	-3.534498e-05
1.429149e+01	-3.575446e-05
1.437404e+01	-3.616868e-05
1.445706e+01	-3.658770e-05
1.454057e+01	-3.701158e-05
1.462455e+01	-3.744037e-05
1.470902e+01	-3.787412e-05
1.479398e+01	-3.831290e-05
1.487943e+01	-3.875677e-05
1.496537e+01	-3.920577e-05
1.505181e+01	-3.965998e-05
1.513875e+01	-4.011945e-05
1.522619e+01	-4.058424e-05
1.531414e+01	-4.105442e-05
1.540259e+01	-4.153005e-05
1.549156e+01	-4.201118e-05
1.558103e+01	-4.249789e-05
1.567103e+01	-4.299024e-05
1.576155e+01	-4.348829e-05
1.585258e+01	-4.399211e-05
1.594415e+01	-4.450177e-05
1.603624e+01	-4.501733e-05
1.612886e+01	-4.553887e-05
1.622202e+01	-4.606644e-05
1.631572e+01	-4.660013e-05
1.640996e+01	-4.714001e-05
1.650474e+01	-4.768613e-05
1.660008e+01	-4.823859e-05
1.669596e+01	-4.879744e-05
1.679239e+01	-4.936277e-05
1.688938e+01	-4.993465e-05
1.698694e+01	-5.051315e-05
1.708505e+01	-5.109836e-05
1.718373e+01	-5.169034e-05
1.728299e+01	-5.228919e-05
1.738281e+01	-5.289497e-05
1.748322e+01	-5.350777e-05
1.758420e+01	-5.412767e-05
1.768576e+01	-5.475475e-05
1.778792e+01	-5.538909e-05
1.789066e+01	-5.603079e-05
1.799399e+01	-5.667991e-05
1.809793e+01	-5.733656e-05
1.820246e+01	-5.800082e-05
1.830760e+01	-5.867277e-05
1.841334e+01	-5.935250e-05
1.851969e+01	-6.004011e-05
1.862666e+01	-6.073569e-05
1.873425e+01	-6.143933e-05
1.884246e+01	-6.215111e-05
1.895129e+01	-6.287115e-05
1.906075e+01	-6.359952e-05
1.917085e+01	-6.433633e-05
1.928158e+01	-6.508168e-05
1.939295e+01	-6.583567e-05
1.950496e+01	-6.659838e-05
1.961762e+01	-6.736994e-05
1.973093e+01	-6.815043e-05
1.984490e+01	-6.893997e-05
1.995952e+01	-6.973865e-05
2.007480e+01	-7.054659e-05
2.019076e+01	-7.136388e-05
2.030738e+01	-7.219064e-05
2.042467e+01	-7.302699e-05
2.054264e+01	-7.387302e-05
2.066130e+01	-7.472885e-05
2.078064e+01	-7.559460e-05
2.090066e+01	-7.647037e-05
2.102139e+01	-7.735630e-05
2.114280e+01	-7.825248e-05
2.126492e+01	-7.915905e-05
2.138775e+01	-8.007612e-05
2.151128e+01	-8.100382e-05
2.163553e+01	-8.194226e-05
2.176050e+01	-8.289158e-05
2.188619e+01	-8.385189e-05
2.201260e+01	-8.482333e-05
2.213974e+01	-8.580602e-05
2.226762e+01	-8.680010e-05
2.239624e+01	-8.780569e-05
2.252560e+01	-8.882293e-05
2.265571e+01	-8.985196e-05
2.278656e+01	-9.089291e-05
2.291818e+01	-9.194592e-05
2.305055e+01	-9.301113e-05
2.318369e+01	-9.408867e-05
2.331760e+01	-9.517871e-05
2.345228e+01	-9.628137e-05
2.358774e+01	-9.739680e-05
2.372398e+01	-9.852516e-05
2.386101e+01	-9.966658e-05
2.399883e+01	-1.008212e-04
2.413745e+01	-1.019893e-04
2.427686e+01	-1.031708e-04
2.441709e+01	-1.043661e-04
2.455812e+01	-1.055752e-04
2.469997e+01	-1.067983e-04
2.484263e+01	-1.080355e-04
2.498612e+01	-1.092872e-04
2.513044e+01	-1.105533e-04
2.527559e+01	-1.118340e-04
2.542158e+01	-1.131296e-04
2.556842e+01	-1.144403e-04
2.571610e+01	-1.157661e-04
2.586463e+01	-1.171072e-04
2.601403e+01	-1.184639e-04
2.616428e+01	-1.198364e-04
2.631541e+01	-1.212247e-04
2.646740e+01	-1.226291e-04
2.662028e+01	-1.240497e-04
2.677404e+01	-1.254869e-04
2.692868e+01	-1.269407e-04
2.708422e+01	-1.284113e-04
2.724066e+01	-1.298989e-04
2.739800e+01	-1.314038e-04
2.755625e+01	-1.329262e-04
2.771541e+01	-1.344661e-04
2.787550e+01	-1.360239e-04
2.803650e+01	-1.375998e-04
2.819844e+01	-1.391939e-04
2.836131e+01	-1.408064e-04
2.852513e+01	-1.424377e-04
2.868989e+01	-1.440879e-04
2.885560e+01	-1.457571e-04
2.902227e+01	-1.474457e-04
2.918990e+01	-1.491539e-04
2.935850e+01	-1.508819e-04
2.952807e+01	-1.526298e-04
2.969863e+01	-1.543981e-04
2.987016e+01	-1.561868e-04
3.004269e+01	-1.579962e-04
3.021622e+01	-1.598266e-04
3.039075e+01	-1.616782e-04
3.056628e+01	-1.635513e-04
3.074283e+01	-1.654460e-04
3.092040e+01	-1.673627e-04
3.109900e+01	-1.693016e-04
3.127862e+01	-1.712630e-04
3.145929e+01	-1.732471e-04
3.164099e+01	-1.752542e-04
3.182375e+01	-1.772845e-04
3.200756e+01	-1.793383e-04
3.219244e+01	-1.814160e-04
3.237838e+01	-1.835177e-04
3.256540e+01	-1.856437e-04
3.275349e+01	-1.877944e-04
3.294268e+01	-1.899700e-04
3.313295e+01	-1.921708e-04
3.332433e+01	-1.943971e-04
3.351681e+01	-1.966492e-04
3.371040e+01	-1.989274e-04
3.390511e+01	-2.012320e-04
3.410094e+01	-2.035633e-04
3.429791e+01	-2.059216e-04
3.449601e+01	-2.083072e-04
3.469526e+01	-2.107204e-04
3.489566e+01	-2.131616e-04
3.509721e+01	-2.156311e-04
3.529993e+01	-2.181291e-04
3.550382e+01	-2.206562e-04
3.570889e+01	-2.232125e-04
3.591515e+01	-2.257984e-04
3.612259e+01	-2.284142e-04
3.633123e+01	-2.310604e-04
3.654108e+01	-2.337372e-04
3.675214e+01	-2.364451e-04
3.696442e+01	-2.391843e-04
3.717792e+01	-2.419552e-04
3.739266e+01	-2.447583e-04
3.760864e+01	-2.475938e-04
3.782587e+01	-2.504621e-04
3.804435e+01	-2.533637e-04
3.826409e+01	-2.562989e-04
3.848510e+01	-2.592681e-04
3.870739e+01	-2.622717e-04
3.893096e+01	-2.653101e-04
3.915583e+01	-2.683837e-04
3.938199e+01	-2.714929e-04
3.960946e+01	-2.746382e-04
3.983824e+01	-2.778198e-04
4.006834e+01	-2.810383e-04
4.029978e+01	-2.842941e-04
4.053255e+01	-2.875877e-04
4.076666e+01	-2.909193e-04
4.100213e+01	-2.942896e-04
4.123896e+01	-2.976989e-04
4.147715e+01	-3.011477e-04
4.171672e+01	-3.046365e-04
4.195767e+01	-3.081656e-04
4.220002e+01	-3.117357e-04
4.244377e+01	-3.153471e-04
4.268892e+01	-3.190004e-04
4.293549e+01	-3.226959e-04
4.318348e+01	-3.264343e-04
4.343291e+01	-3.302160e-04
4.368377e+01	-3.340415e-04
4.393609e+01	-3.379113e-04
4.418986e+01	-3.418259e-04
4.444510e+01	-3.457859e-04
4.470182e+01	-3.497918e-04
4.496001e+01	-3.538441e-04
4.521970e+01	-3.579433e-04
4.548089e+01	-3.620900e-04
4.574358e+01	-3.662847e-04
4.600779e+01	-3.705280e-04
4.627353e+01	-3.748205e-04
4.654081e+01	-3.791627e-04
4.680963e+01	-3.835553e-04
4.708000e+01	-3.879987e-04
4.735193e+01	-3.924935e-04
4.762543e+01	-3.970405e-04
4.790051e+01	-4.016401e-04
4.817719e+01	-4.062930e-04
4.845545e+01	-4.109998e-04
4.873533e+01	-4.157611e-04
4.901682e+01	-4.205775e-04
4.929994e+01	-4.254498e-04
4.958470e+01	-4.303785e-04
4.987110e+01	-4.353643e-04
5.015915e+01	-4.404079e-04
5.044887e+01	-4.455099e-04
5.074026e+01	-4.506710e-04
5.103333e+01	-4.558918e-04
5.132810e+01	-4.611732e-04
5.162457e+01	-4.665157e-04
5.192275e+01	-4.719201e-04
5.222265e+01	-4.773872e-04
5.252429e+01	-4.829175e-04
5.282767e+01	-4.885119e-04
5.313280e+01	-4.941712e-04
5.343969e+01	-4.998959e-04
5.374836e+01	-5.056870e-04
5.405880e+01	-5.115452e-04
5.437105e+01	-5.174713e-04
5.468509e+01	-5.234659e-04
5.500095e+01	-5.295301e-04
5.531863e+01	-5.356644e-04
5.563815e+01	-5.418699e-04
5.595951e+01	-5.481472e-04
5.628273e+01	-5.544972e-04
5.660782e+01	-5.609208e-04
5.693479e+01	-5.674188e-04
5.726364e+01	-5.739921e-04
5.759439e+01	-5.806415e-04
5.792705e+01	-5.873679e-04
5.826164e+01	-5.941723e-04
5.859815e+01	-6.010555e-04
5.893662e+01	-6.080184e-04
5.927703e+01	-6.150619e-04
5.961941e+01	-6.221871e-04
5.996377e+01	-6.293948e-04
6.031012e+01	-6.366859e-04
6.065847e+01	-6.440616e-04
6.100883e+01	-6.515226e-04
6.136121e+01	-6.590701e-04
6.171563e+01	-6.667051e-04
6.207210e+01	-6.744284e-04
6.243063e+01	-6.822412e-04
6.279122e+01	-6.901446e-04
6.315390e+01	-6.981394e-04
6.351868e+01	-7.062269e-04
6.388556e+01	-7.144081e-04
6.425456e+01	-7.226840e-04
6.462569e+01	-7.310558e-04
6.499897e+01	-7.395246e-04
6.537440e+01	-7.480914e-04
6.575200e+01	-7.567575e-04
6.613178e+01	-7.655240e-04
6.651375e+01	-7.743920e-04
6.689793e+01	-7.833627e-04
6.728433e+01	-7.924374e-04
6.767297e+01	-8.016171e-04
6.806384e+01	-8.109032e-04
6.845698e+01	-8.202969e-04
6.885238e+01	-8.297993e-04
6.925007e+01	-8.394118e-04
6.965005e+01	-8.491357e-04
7.005235e+01	-8.589722e-04
7.045697e+01	-8.689226e-04
7.086393e+01	-8.789883e-04
7.127323e+01	-8.891706e-04
7.168490e+01	-8.994708e-04
7.209895e+01	-9.098903e-04
7.251539e+01	-9.204305e-04
7.293424e+01	-9.310928e-04
7.335551e+01	-9.418786e-04
7.377920e+01	-9.527894e-04
7.420535e+01	-9.638265e-04
7.463396e+01	-9.749914e-04
7.506504e+01	-9.862857e-04
7.549861e+01	-9.977107e-04
7.593469e+01	-1.009268e-03
7.637328e+01	-1.020959e-03
7.681441e+01	-1.032786e-03
7.725809e+01	-1.044750e-03
7.770433e+01	-1.056852e-03
7.815315e+01	-1.069094e-03
7.860456e+01	-1.081479e-03
7.905857e+01	-1.094006e-03
7.951521e+01	-1.106679e-03
7.997449e+01	-1.119499e-03
8.043642e+01	-1.132467e-03
8.090102e+01	-1.145585e-03
8.136830e+01	-1.158855e-03
8.183828e+01	-1.172279e-03
8.231097e+01	-1.185858e-03
8.278640e+01	-1.199595e-03
8.326457e+01	-1.213490e-03
8.374550e+01	-1.227547e-03
8.422921e+01	-1.241766e-03
8.471572e+01	-1.256150e-03
8.520503e+01	-1.270701e-03
8.569717e+01	-1.285420e-03
8.619215e+01	-1.300310e-03
8.669000e+01	-1.315372e-03
8.719071e+01	-1.330609e-03
8.769432e+01	-1.346022e-03
8.820084e+01	-1.361614e-03
8.871029e+01	-1.377386e-03
8.922267e+01	-1.393341e-03
8.973802e+01	-1.409480e-03
9.025634e+01	-1.425807e-03
9.077766e+01	-1.442322e-03
9.130199e+01	-1.459029e-03
9.182935e+01	-1.475930e-03
9.235975e+01	-1.493026e-03
9.289321e+01	-1.510320e-03
9.342976e+01	-1.527814e-03
9.396941e+01	-1.545511e-03
9.451217e+01	-1.563413e-03
9.505807e+01	-1.581522e-03
9.560712e+01	-1.599841e-03
9.615934e+01	-1.618372e-03
9.671476e+01	-1.637118e-03
9.727338e+01	-1.656081e-03
9.783522e+01	-1.675263e-03
9.840032e+01	-1.694668e-03
9.896867e+01	-1.714297e-03
9.954031e+01	-1.734154e-03
1.001153e+02	-1.754241e-03
1.006935e+02	-1.774560e-03
1.012751e+02	-1.795114e-03
1.018601e+02	-1.815907e-03
1.024484e+02	-1.836940e-03
1.030402e+02	-1.858217e-03
1.036353e+02	-1.879740e-03
1.042339e+02	-1.901513e-03
1.048360e+02	-1.923537e-03
1.054415e+02	-1.945817e-03
1.060505e+02	-1.968355e-03
1.066631e+02	-1.991153e-03
1.072791e+02	-2.014216e-03
1.078988e+02	-2.037546e-03
1.085220e+02	-2.061146e-03
1.091488e+02	-2.085019e-03
1.097793e+02	-2.109169e-03
1.104133e+02	-2.133598e-03
1.110511e+02	-2.158310e-03
1.116925e+02	-2.183308e-03
1.123376e+02	-2.208596e-03
1.129865e+02	-2.234177e-03
1.136391e+02	-2.260053e-03
1.142955e+02	-2.286230e-03
1.149556e+02	-2.312709e-03
1.156196e+02	-2.339496e-03
1.162874e+02	-2.366592e-03
1.169591e+02	-2.394002e-03
1.176347e+02	-2.421729e-03
1.183141e+02	-2.449778e-03
1.189975e+02	-2.478151e-03
1.196848e+02	-2.506853e-03
1.203761e+02	-2.535887e-03
1.210714e+02	-2.565257e-03
1.217707e+02	-2.594967e-03
1.224740e+02	-2.625022e-03
1.231814e+02	-2.655424e-03
1.238929e+02	-2.686178e-03
1.246085e+02	-2.717288e-03
1.253283e+02	-2.748759e-03
1.260522e+02	-2.780594e-03
1.267802e+02	-2.812797e-03
1.275125e+02	-2.845374e-03
1.282490e+02	-2.878327e-03
1.289898e+02	-2.911662e-03
1.297348e+02	-2.945383e-03
1.304842e+02	-2.979494e-03
1.312378e+02	-3.014000e-03
1.319959e+02	-3.048906e-03
1.327583e+02	-3.084216e-03
1.335251e+02	-3.119935e-03
1.342963e+02	-3.156067e-03
1.350720e+02	-3.192617e-03
1.358522e+02	-3.229591e-03
1.366368e+02	-3.266992e-03
1.374260e+02	-3.304827e-03
1.382198e+02	-3.343099e-03
1.390182e+02	-3.381815e-03
1.398211e+02	-3.420979e-03
1.406287e+02	-3.460596e-03
1.414410e+02	-3.500671e-03
1.422579e+02	-3.541211e-03
1.430796e+02	-3.582220e-03
1.439060e+02	-3.623703e-03
1.447372e+02	-3.665667e-03
1.455732e+02	-3.708117e-03
1.464141e+02	-3.751058e-03
1.472597e+02	-3.794496e-03
1.481103e+02	-3.838436e-03
1.489658e+02	-3.882886e-03
1.498262e+02	-3.927850e-03
1.506916e+02	-3.973334e-03
1.515620e+02	-4.019345e-03
1.524374e+02	-4.065888e-03
1.533179e+02	-4.112970e-03
1.542034e+02	-4.160597e-03
1.550941e+02	-4.208775e-03
1.559899e+02	-4.257511e-03
1.568909e+02	-4.306811e-03
1.577971e+02	-4.356681e-03
1.587085e+02	-4.407129e-03
1.596252e+02	-4.458160e-03
1.605472e+02	-4.509782e-03
1.614745e+02	-4.562002e-03
1.624072e+02	-4.614826e-03
1.633453e+02	-4.668261e-03
1.642887e+02	-4.722314e-03
1.652377e+02	-4.776993e-03
1.661921e+02	-4.832305e-03
1.671520e+02	-4.888257e-03
1.681175e+02	-4.944857e-03
1.690885e+02	-5.002111e-03
1.700651e+02	-5.060028e-03
1.710474e+02	-5.118615e-03
1.720354e+02	-5.177880e-03
1.730291e+02	-5.237831e-03
1.740285e+02	-5.298475e-03
1.750337e+02	-5.359822e-03
1.760446e+02	-5.421878e-03
1.770615e+02	-5.484652e-03
1.780842e+02	-5.548152e-03
1.791128e+02	-5.612387e-03
1.801473e+02	-5.677366e-03
1.811878e+02	-5.743096e-03
1.822344e+02	-5.809586e-03
1.832870e+02	-5.876846e-03
1.843456e+02	-5.944884e-03
1.854104e+02	-6.013709e-03
1.864813e+02	-6.083331e-03
1.875584e+02	-6.153758e-03
1.886418e+02	-6.224999e-03
1.897313e+02	-6.297065e-03
1.908272e+02	-6.369965e-03
1.919294e+02	-6.443707e-03
1.930380e+02	-6.518303e-03
1.941530e+02	-6.593762e-03
1.952744e+02	-6.670093e-03
1.964023e+02	-6.747308e-03
1.975367e+02	-6.825416e-03
1.986777e+02	-6.904427e-03
1.998252e+02	-6.984352e-03
2.009794e+02	-7.065201e-03
2.021403e+02	-7.146986e-03
2.033078e+02	-7.229716e-03
2.044821e+02	-7.313404e-03
2.056632e+02	-7.398059e-03
2.068511e+02	-7.483693e-03
2.080459e+02	-7.570318e-03
2.092475e+02	-7.657945e-03
2.104561e+02	-7.746584e-03
2.116717e+02	-7.836249e-03
2.128943e+02	-7.926951e-03
2.141240e+02	-8.018702e-03
2.153608e+02	-8.111514e-03
2.166047e+02	-8.205398e-03
2.178558e+02	-8.300369e-03
2.191141e+02	-8.396438e-03
2.203797e+02	-8.493617e-03
2.216526e+02	-8.591920e-03
2.229329e+02	-8.691360e-03
2.242205e+02	-8.791949e-03
2.255156e+02	-8.893701e-03
2.268182e+02	-8.996630e-03
2.281283e+02	-9.100749e-03
2.294459e+02	-9.206071e-03
2.307712e+02	-9.312611e-03
2.321041e+02	-9.420383e-03
2.334447e+02	-9.529400e-03
2.347931e+02	-9.639678e-03
2.361493e+02	-9.751230e-03
2.375133e+02	-9.864072e-03
2.388851e+02	-9.978218e-03
2.402649e+02	-1.009368e-02
2.416527e+02	-1.021048e-02
2.430484e+02	-1.032863e-02
2.444523e+02	-1.044815e-02
2.458642e+02	-1.056904e-02
2.472843e+02	-1.069134e-02
2.487126e+02	-1.081505e-02
2.501492e+02	-1.094018e-02
2.515940e+02	-1.106677e-02
2.530472e+02	-1.119481e-02
2.545088e+02	-1.132434e-02
2.559789e+02	-1.145536e-02
2.574574e+02	-1.158789e-02
2.589444e+02	-1.172196e-02
2.604401e+02	-1.185758e-02
2.619444e+02	-1.199476e-02
2.634574e+02	-1.213353e-02
2.649791e+02	-1.227390e-02
2.665096e+02	-1.241589e-02
2.680489e+02	-1.255952e-02
2.695972e+02	-1.270481e-02
2.711544e+02	-1.285178e-02
2.727205e+02	-1.300045e-02
2.742958e+02	-1.315083e-02
2.758801e+02	-1.330296e-02
2.774736e+02	-1.345683e-02
2.790762e+02	-1.361249e-02
2.806882e+02	-1.376994e-02
2.823094e+02	-1.392921e-02
2.839400e+02	-1.409033e-02
2.855800e+02	-1.425330e-02
2.872295e+02	-1.441815e-02
2.888886e+02	-1.458491e-02
2.905572e+02	-1.475359e-02
2.922354e+02	-1.492422e-02
2.939234e+02	-1.509682e-02
2.956211e+02	-1.527141e-02
2.973286e+02	-1.544802e-02
2.990459e+02	-1.562666e-02
3.007732e+02	-1.580737e-02
3.025104e+02	-1.599016e-02
3.042577e+02	-1.617507e-02
3.060151e+02	-1.636210e-02
3.077826e+02	-1.655130e-02
3.095604e+02	-1.674268e-02
3.113484e+02	-1.693627e-02
3.131467e+02	-1.713209e-02
3.149554e+02	-1.733017e-02
3.167746e+02	-1.753054e-02
3.186043e+02	-1.773322e-02
3.204445e+02	-1.793824e-02
3.222954e+02	-1.814562e-02
3.241570e+02	-1.835540e-02
3.260293e+02	-1.856759e-02
3.279124e+02	-1.878224e-02
3.298064e+02	-1.899936e-02
3.317114e+02	-1.921898e-02
3.336273e+02	-1.944114e-02
3.355544e+02	-1.966586e-02
3.374925e+02	-1.989317e-02
3.394418e+02	-2.012310e-02
3.414024e+02	-2.035568e-02
3.433744e+02	-2.059095e-02
3.453577e+02	-2.082892e-02
3.473525e+02	-2.106964e-02
3.493588e+02	-2.131314e-02
3.513766e+02	-2.155944e-02
3.534062e+02	-2.180858e-02
3.554474e+02	-2.206060e-02
3.575005e+02	-2.231552e-02
3.595654e+02	-2.257337e-02
3.616422e+02	-2.283420e-02
3.637311e+02	-2.309804e-02
3.658320e+02	-2.336491e-02
3.679450e+02	-2.363486e-02
3.700702e+02	-2.390792e-02
3.722077e+02	-2.418412e-02
3.743576e+02	-2.446351e-02
3.765199e+02	-2.474612e-02
3.786946e+02	-2.503198e-02
3.808820e+02	-2.532113e-02
3.830819e+02	-2.561362e-02
3.852946e+02	-2.590947e-02
3.875200e+02	-2.620873e-02
3.897583e+02	-2.651143e-02
3.920096e+02	-2.681762e-02
3.942738e+02	-2.712734e-02
3.965511e+02	-2.744062e-02
3.988416e+02	-2.775750e-02
4.011452e+02	-2.807804e-02
4.034622e+02	-2.840226e-02
4.057926e+02	-2.873022e-02
4.081365e+02	-2.906195e-02
4.104938e+02	-2.939749e-02
4.128648e+02	-2.973690e-02
4.152495e+02	-3.008021e-02
4.176480e+02	-3.042748e-02
4.200603e+02	-3.077873e-02
4.224866e+02	-3.113403e-02
4.249268e+02	-3.149341e-02
4.273812e+02	-3.185693e-02
4.298497e+02	-3.222463e-02
4.323325e+02	-3.259655e-02
4.348297e+02	-3.297275e-02
4.373412e+02	-3.335328e-02
4.398673e+02	-3.373818e-02
4.424079e+02	-3.412751e-02
4.449633e+02	-3.452131e-02
4.475334e+02	-3.491963e-02
4.501183e+02	-3.532253e-02
4.527182e+02	-3.573007e-02
4.553330e+02	-3.614228e-02
4.579630e+02	-3.655923e-02
4.606082e+02	-3.698097e-02
4.632687e+02	-3.740755e-02
4.659445e+02	-3.783904e-02
4.686358e+02	-3.827547e-02
4.713426e+02	-3.871692e-02
4.740650e+02	-3.916344e-02
4.768032e+02	-3.961508e-02
4.795572e+02	-4.007191e-02
4.823271e+02	-4.053398e-02
4.851130e+02	-4.100136e-02
4.879150e+02	-4.147409e-02
4.907332e+02	-4.195226e-02
4.935676e+02	-4.243590e-02
4.964185e+02	-4.292510e-02
4.992858e+02	-4.341990e-02
5.021696e+02	-4.392038e-02
5.050701e+02	-4.442660e-02
5.079874e+02	-4.493863e-02
5.109215e+02	-4.545652e-02
5.138726e+02	-4.598035e-02
5.168407e+02	-4.651019e-02
5.198259e+02	-4.704610e-02
5.228284e+02	-4.758814e-02
5.258482e+02	-4.813640e-02
5.288855e+02	-4.869094e-02
5.319403e+02	-4.925183e-02
5.350128e+02	-4.981915e-02
5.381030e+02	-5.039296e-02
5.412111e+02	-5.097335e-02
5.443371e+02	-5.156037e-02
5.474812e+02	-5.215412e-02
5.506434e+02	-5.275466e-02
5.538239e+02	-5.336208e-02
5.570228e+02	-5.397644e-02
5.602401e+02	-5.459783e-02
5.634760e+02	-5.522633e-02
5.667306e+02	-5.586202e-02
5.700040e+02	-5.650498e-02
5.732964e+02	-5.715529e-02
5.766077e+02	-5.781304e-02
5.799382e+02	-5.847830e-02
5.832879e+02	-5.915117e-02
5.866569e+02	-5.983172e-02
5.900454e+02	-6.052005e-02
5.934535e+02	-6.121624e-02
5.968813e+02	-6.192039e-02
6.003288e+02	-6.263257e-02
6.037963e+02	-6.335289e-02
6.072838e+02	-6.408143e-02
6.107914e+02	-6.481828e-02
6.143194e+02	-6.556354e-02
6.178676e+02	-6.631731e-02
6.214364e+02	-6.707967e-02
6.250258e+02	-6.785073e-02
6.286359e+02	-6.863059e-02
6.322669e+02	-6.941933e-02
6.359189e+02	-7.021706e-02
6.395919e+02	-7.102389e-02
6.432862e+02	-7.183991e-02
6.470017e+02	-7.266523e-02
6.507388e+02	-7.349995e-02
6.544974e+02	-7.434417e-02
6.582778e+02	-7.519801e-02
6.620800e+02	-7.606157e-02
6.659041e+02	-7.693496e-02
6.697504e+02	-7.781828e-02
6.736188e+02	-7.871166e-02
6.775096e+02	-7.961519e-02
6.814229e+02	-8.052900e-02
6.853587e+02	-8.145321e-02
6.893173e+02	-8.238791e-02
6.932988e+02	-8.333324e-02
6.973033e+02	-8.428932e-02
7.013309e+02	-8.525625e-02
