Frequency(Hz)	Magnitude(dB)
1.000000e+01	-2.105667e+00
1.005776e+01	-2.124731e+00
1.011585e+01	-2.144441e+00
1.017428e+01	-2.163821e+00
1.023305e+01	-2.183443e+00
1.029215e+01	-2.203507e+00
1.035160e+01	-2.223260e+00
1.041139e+01	-2.243476e+00
1.047153e+01	-2.263682e+00
1.053201e+01	-2.283858e+00
1.059284e+01	-2.304668e+00
1.065403e+01	-2.325219e+00
1.071556e+01	-2.346157e+00
1.077746e+01	-2.366916e+00
1.083971e+01	-2.388144e+00
1.090232e+01	-2.409423e+00
1.096529e+01	-2.430622e+00
1.102862e+01	-2.452304e+00
1.109232e+01	-2.474043e+00
1.115639e+01	-2.495641e+00
1.122083e+01	-2.517553e+00
1.128564e+01	-2.539825e+00
1.135083e+01	-2.561808e+00
1.141639e+01	-2.584065e+00
1.148233e+01	-2.606751e+00
1.154865e+01	-2.629551e+00
1.161536e+01	-2.652341e+00
1.168245e+01	-2.675143e+00
1.174992e+01	-2.698145e+00
1.181779e+01	-2.721371e+00
1.188605e+01	-2.744751e+00
1.195470e+01	-2.768261e+00
1.202375e+01	-2.791943e+00
1.209320e+01	-2.816079e+00
1.216305e+01	-2.839460e+00
1.223330e+01	-2.863730e+00
1.230396e+01	-2.888022e+00
1.237503e+01	-2.912557e+00
1.244651e+01	-2.936934e+00
1.251840e+01	-2.961680e+00
1.259070e+01	-2.986525e+00
1.266343e+01	-3.011265e+00
1.273657e+01	-3.036338e+00
1.281014e+01	-3.061715e+00
1.288413e+01	-3.087311e+00
1.295855e+01	-3.112523e+00
1.303339e+01	-3.138108e+00
1.310867e+01	-3.164016e+00
1.318439e+01	-3.189990e+00
1.326054e+01	-3.216017e+00
1.333713e+01	-3.242336e+00
1.341417e+01	-3.268720e+00
1.349165e+01	-3.295398e+00
1.356958e+01	-3.322076e+00
1.364795e+01	-3.349038e+00
1.372678e+01	-3.375611e+00
1.380607e+01	-3.402825e+00
1.388581e+01	-3.430327e+00
1.396602e+01	-3.457496e+00
1.404668e+01	-3.484911e+00
1.412782e+01	-3.512761e+00
1.420942e+01	-3.540528e+00
1.429149e+01	-3.568593e+00
1.437404e+01	-3.596526e+00
1.445706e+01	-3.624757e+00
1.454057e+01	-3.653054e+00
1.462455e+01	-3.681584e+00
1.470902e+01	-3.710326e+00
1.479398e+01	-3.739140e+00
1.487943e+01	-3.768017e+00
1.496537e+01	-3.797405e+00
1.505181e+01	-3.826640e+00
1.513875e+01	-3.855677e+00
1.522619e+01	-3.885232e+00
1.531414e+01	-3.915165e+00
1.540259e+01	-3.944697e+00
1.549156e+01	-3.974434e+00
1.558103e+01	-4.004572e+00
1.567103e+01	-4.035131e+00
1.576155e+01	-4.065566e+00
1.585258e+01	-4.095429e+00
1.594415e+01	-4.126302e+00
1.603624e+01	-4.156963e+00
1.612886e+01	-4.188082e+00
1.622202e+01	-4.219048e+00
1.631572e+01	-4.250060e+00
1.640996e+01	-4.281526e+00
1.650474e+01	-4.312804e+00
1.660008e+01	-4.344193e+00
1.669596e+01	-4.376229e+00
1.679239e+01	-4.408025e+00
1.688938e+01	-4.440097e+00
1.698694e+01	-4.472032e+00
1.708505e+01	-4.504407e+00
1.718373e+01	-4.536593e+00
1.728299e+01	-4.569176e+00
1.738281e+01	-4.601700e+00
1.748322e+01	-4.634481e+00
1.758420e+01	-4.667429e+00
1.768576e+01	-4.700276e+00
1.778792e+01	-4.733515e+00
1.789066e+01	-4.766641e+00
1.799399e+01	-4.799977e+00
1.809793e+01	-4.833764e+00
1.820246e+01	-4.867420e+00
1.830760e+01	-4.901219e+00
1.841334e+01	-4.935051e+00
1.851969e+01	-4.969185e+00
1.862666e+01	-5.003428e+00
1.873425e+01	-5.037504e+00
1.884246e+01	-5.071874e+00
1.895129e+01	-5.106407e+00
1.906075e+01	-5.141170e+00
1.917085e+01	-5.175779e+00
1.928158e+01	-5.210815e+00
1.939295e+01	-5.245645e+00
1.950496e+01	-5.281010e+00
1.961762e+01	-5.316006e+00
1.973093e+01	-5.351403e+00
1.984490e+01	-5.386886e+00
1.995952e+01	-5.422818e+00
2.007480e+01	-5.458494e+00
2.019076e+01	-5.494117e+00
2.030738e+01	-5.530093e+00
2.042467e+01	-5.566157e+00
2.054264e+01	-5.602181e+00
2.066130e+01	-5.638996e+00
2.078064e+01	-5.675056e+00
2.090066e+01	-5.711669e+00
2.102139e+01	-5.748537e+00
2.114280e+01	-5.785127e+00
2.126492e+01	-5.822086e+00
2.138775e+01	-5.859239e+00
2.151128e+01	-5.896113e+00
2.163553e+01	-5.933167e+00
2.176050e+01	-5.970794e+00
2.188619e+01	-6.007796e+00
2.201260e+01	-6.045522e+00
2.213974e+01	-6.083320e+00
2.226762e+01	-6.121118e+00
2.239624e+01	-6.158847e+00
2.252560e+01	-6.196703e+00
2.265571e+01	-6.235003e+00
2.278656e+01	-6.272865e+00
2.291818e+01	-6.311403e+00
2.305055e+01	-6.349746e+00
2.318369e+01	-6.388163e+00
2.331760e+01	-6.426508e+00
2.345228e+01	-6.465248e+00
2.358774e+01	-6.504078e+00
2.372398e+01	-6.542956e+00
2.386101e+01	-6.582291e+00
2.399883e+01	-6.621306e+00
2.413745e+01	-6.660108e+00
2.427686e+01	-6.700312e+00
2.441709e+01	-6.739029e+00
2.455812e+01	-6.778750e+00
2.469997e+01	-6.818135e+00
2.484263e+01	-6.857862e+00
2.498612e+01	-6.897473e+00
2.513044e+01	-6.936885e+00
2.527559e+01	-6.977100e+00
2.542158e+01	-7.017565e+00
2.556842e+01	-7.057400e+00
2.571610e+01	-7.097629e+00
2.586463e+01	-7.138161e+00
2.601403e+01	-7.178476e+00
2.616428e+01	-7.219088e+00
2.631541e+01	-7.259929e+00
2.646740e+01	-7.300091e+00
2.662028e+01	-7.341155e+00
2.677404e+01	-7.381867e+00
2.692868e+01	-7.422865e+00
2.708422e+01	-7.463608e+00
2.724066e+01	-7.505205e+00
2.739800e+01	-7.545734e+00
2.755625e+01	-7.587424e+00
2.771541e+01	-7.628906e+00
2.787550e+01	-7.669925e+00
2.803650e+01	-7.711713e+00
2.819844e+01	-7.753113e+00
2.836131e+01	-7.794993e+00
2.852513e+01	-7.836951e+00
2.868989e+01	-7.878119e+00
2.885560e+01	-7.920251e+00
2.902227e+01	-7.962046e+00
2.918990e+01	-8.003947e+00
2.935850e+01	-8.046463e+00
2.952807e+01	-8.088559e+00
2.969863e+01	-8.131193e+00
2.987016e+01	-8.173661e+00
3.004269e+01	-8.215625e+00
3.021622e+01	-8.258166e+00
3.039075e+01	-8.301245e+00
3.056628e+01	-8.343750e+00
3.074283e+01	-8.386354e+00
3.092040e+01	-8.429006e+00
3.109900e+01	-8.471678e+00
3.127862e+01	-8.514966e+00
3.145929e+01	-8.557918e+00
3.164099e+01	-8.600932e+00
3.182375e+01	-8.644046e+00
3.200756e+01	-8.687628e+00
3.219244e+01	-8.730694e+00
3.237838e+01	-8.774244e+00
3.256540e+01	-8.817216e+00
3.275349e+01	-8.860667e+00
3.294268e+01	-8.904342e+00
3.313295e+01	-8.948268e+00
3.332433e+01	-8.992734e+00
3.351681e+01	-9.035826e+00
3.371040e+01	-9.079470e+00
3.390511e+01	-9.123326e+00
3.410094e+01	-9.167289e+00
3.429791e+01	-9.211262e+00
3.449601e+01	-9.255446e+00
3.469526e+01	-9.299225e+00
3.489566e+01	-9.343495e+00
3.509721e+01	-9.387867e+00
3.529993e+01	-9.431777e+00
3.550382e+01	-9.476477e+00
3.570889e+01	-9.521165e+00
3.591515e+01	-9.565519e+00
3.612259e+01	-9.610133e+00
3.633123e+01	-9.654086e+00
3.654108e+01	-9.698732e+00
3.675214e+01	-9.744149e+00
3.696442e+01	-9.788817e+00
3.717792e+01	-9.833296e+00
3.739266e+01	-9.878317e+00
3.760864e+01	-9.922716e+00
3.782587e+01	-9.968208e+00
3.804435e+01	-1.001306e+01
3.826409e+01	-1.005782e+01
3.848510e+01	-1.010341e+01
3.870739e+01	-1.014833e+01
3.893096e+01	-1.019333e+01
3.915583e+01	-1.023946e+01
3.938199e+01	-1.028420e+01
3.960946e+01	-1.032972e+01
3.983824e+01	-1.037515e+01
4.006834e+01	-1.042020e+01
4.029978e+01	-1.046607e+01
4.053255e+01	-1.051184e+01
4.076666e+01	-1.055704e+01
4.100213e+01	-1.060281e+01
4.123896e+01	-1.064843e+01
4.147715e+01	-1.069467e+01
4.171672e+01	-1.074025e+01
4.195767e+01	-1.078549e+01
4.220002e+01	-1.083189e+01
4.244377e+01	-1.087753e+01
4.268892e+01	-1.092379e+01
4.293549e+01	-1.096932e+01
4.318348e+01	-1.101607e+01
4.343291e+01	-1.106146e+01
4.368377e+01	-1.110787e+01
4.393609e+01	-1.115352e+01
4.418986e+01	-1.120023e+01
4.444510e+01	-1.124595e+01
4.470182e+01	-1.129291e+01
4.496001e+01	-1.133897e+01
4.521970e+01	-1.138563e+01
4.548089e+01	-1.143220e+01
4.574358e+01	-1.147818e+01
4.600779e+01	-1.152512e+01
4.627353e+01	-1.157126e+01
4.654081e+01	-1.161812e+01
4.680963e+01	-1.166462e+01
4.708000e+01	-1.171133e+01
4.735193e+01	-1.175805e+01
4.762543e+01	-1.180462e+01
4.790051e+01	-1.185103e+01
4.817719e+01	-1.189826e+01
4.845545e+01	-1.194465e+01
4.873533e+01	-1.199154e+01
4.901682e+01	-1.203901e+01
4.929994e+01	-1.208589e+01
4.958470e+01	-1.213223e+01
4.987110e+01	-1.217943e+01
5.015915e+01	-1.222646e+01
5.044887e+01	-1.227336e+01
5.074026e+01	-1.232052e+01
5.103333e+01	-1.236809e+01
5.132810e+01	-1.241436e+01
5.162457e+01	-1.246271e+01
5.192275e+01	-1.250943e+01
5.222265e+01	-1.255625e+01
5.252429e+01	-1.260382e+01
5.282767e+01	-1.265067e+01
5.313280e+01	-1.269825e+01
5.343969e+01	-1.274520e+01
5.374836e+01	-1.279338e+01
5.405880e+01	-1.284065e+01
5.437105e+01	-1.288728e+01
5.468509e+01	-1.293522e+01
5.500095e+01	-1.298291e+01
5.531863e+01	-1.303065e+01
5.563815e+01	-1.307759e+01
5.595951e+01	-1.312504e+01
5.628273e+01	-1.317330e+01
5.660782e+01	-1.321986e+01
5.693479e+01	-1.326762e+01
5.726364e+01	-1.331658e+01
5.759439e+01	-1.336321e+01
5.792705e+01	-1.341150e+01
5.826164e+01	-1.345923e+01
5.859815e+01	-1.350735e+01
5.893662e+01	-1.355460e+01
5.927703e+01	-1.360245e+01
5.961941e+01	-1.365033e+01
5.996377e+01	-1.369901e+01
6.031012e+01	-1.374623e+01
6.065847e+01	-1.379469e+01
6.100883e+01	-1.384244e+01
6.136121e+01	-1.388983e+01
6.171563e+01	-1.393829e+01
6.207210e+01	-1.398697e+01
6.243063e+01	-1.403439e+01
6.279122e+01	-1.408180e+01
6.315390e+01	-1.413064e+01
6.351868e+01	-1.417807e+01
6.388556e+01	-1.422670e+01
6.425456e+01	-1.427449e+01
6.462569e+01	-1.432273e+01
6.499897e+01	-1.437116e+01
6.537440e+01	-1.442012e+01
6.575200e+01	-1.446756e+01
6.613178e+01	-1.451552e+01
6.651375e+01	-1.456411e+01
6.689793e+01	-1.461245e+01
6.728433e+01	-1.466114e+01
6.767297e+01	-1.470914e+01
6.806384e+01	-1.475757e+01
6.845698e+01	-1.480614e+01
6.885238e+01	-1.485372e+01
6.925007e+01	-1.490245e+01
6.965005e+01	-1.495092e+01
7.005235e+01	-1.499905e+01
7.045697e+01	-1.504837e+01
7.086393e+01	-1.509651e+01
7.127323e+01	-1.514536e+01
7.168490e+01	-1.519237e+01
7.209895e+01	-1.524211e+01
7.251539e+01	-1.529042e+01
7.293424e+01	-1.533885e+01
7.335551e+01	-1.538819e+01
7.377920e+01	-1.543607e+01
7.420535e+01	-1.548406e+01
7.463396e+01	-1.553223e+01
7.506504e+01	-1.558239e+01
7.549861e+01	-1.563086e+01
7.593469e+01	-1.567992e+01
7.637328e+01	-1.572826e+01
7.681441e+01	-1.577680e+01
7.725809e+01	-1.582526e+01
7.770433e+01	-1.587379e+01
7.815315e+01	-1.592259e+01
7.860456e+01	-1.597225e+01
7.905857e+01	-1.602016e+01
7.951521e+01	-1.606923e+01
7.997449e+01	-1.611832e+01
8.043642e+01	-1.616692e+01
8.090102e+01	-1.621618e+01
8.136830e+01	-1.626426e+01
8.183828e+01	-1.631446e+01
8.231097e+01	-1.636276e+01
8.278640e+01	-1.641065e+01
8.326457e+01	-1.645965e+01
8.374550e+01	-1.650903e+01
8.422921e+01	-1.655808e+01
8.471572e+01	-1.660625e+01
8.520503e+01	-1.665630e+01
8.569717e+01	-1.670647e+01
8.619215e+01	-1.675452e+01
8.669000e+01	-1.680185e+01
8.719071e+01	-1.685109e+01
8.769432e+01	-1.690079e+01
8.820084e+01	-1.694883e+01
8.871029e+01	-1.699880e+01
8.922267e+01	-1.704833e+01
8.973802e+01	-1.709691e+01
9.025634e+01	-1.714504e+01
9.077766e+01	-1.719380e+01
9.130199e+01	-1.724333e+01
9.182935e+01	-1.729233e+01
9.235975e+01	-1.734200e+01
9.289321e+01	-1.739093e+01
9.342976e+01	-1.744052e+01
9.396941e+01	-1.749057e+01
9.451217e+01	-1.753853e+01
9.505807e+01	-1.758872e+01
9.560712e+01	-1.763803e+01
9.615934e+01	-1.768654e+01
9.671476e+01	-1.773458e+01
9.727338e+01	-1.778420e+01
9.783522e+01	-1.783304e+01
9.840032e+01	-1.788260e+01
9.896867e+01	-1.793174e+01
9.954031e+01	-1.798062e+01
1.001153e+02	-1.803169e+01
1.006935e+02	-1.808072e+01
1.012751e+02	-1.812858e+01
1.018601e+02	-1.817813e+01
1.024484e+02	-1.822734e+01
1.030402e+02	-1.827707e+01
1.036353e+02	-1.832714e+01
1.042339e+02	-1.837541e+01
1.048360e+02	-1.842454e+01
1.054415e+02	-1.847576e+01
1.060505e+02	-1.852366e+01
1.066631e+02	-1.857366e+01
1.072791e+02	-1.862292e+01
1.078988e+02	-1.867265e+01
1.085220e+02	-1.872171e+01
1.091488e+02	-1.877022e+01
1.097793e+02	-1.881914e+01
1.104133e+02	-1.886997e+01
1.110511e+02	-1.891919e+01
1.116925e+02	-1.896774e+01
1.123376e+02	-1.901719e+01
1.129865e+02	-1.906720e+01
1.136391e+02	-1.911606e+01
1.142955e+02	-1.916555e+01
1.149556e+02	-1.921538e+01
1.156196e+02	-1.926404e+01
1.162874e+02	-1.931410e+01
1.169591e+02	-1.936304e+01
1.176347e+02	-1.941242e+01
1.183141e+02	-1.946269e+01
1.189975e+02	-1.951109e+01
1.196848e+02	-1.956209e+01
1.203761e+02	-1.961098e+01
1.210714e+02	-1.966021e+01
1.217707e+02	-1.970960e+01
1.224740e+02	-1.975847e+01
1.231814e+02	-1.980913e+01
1.238929e+02	-1.985881e+01
1.246085e+02	-1.990612e+01
1.253283e+02	-1.995670e+01
1.260522e+02	-2.000795e+01
1.267802e+02	-2.005560e+01
1.275125e+02	-2.010687e+01
1.282490e+02	-2.015652e+01
1.289898e+02	-2.020447e+01
1.297348e+02	-2.025474e+01
1.304842e+02	-2.030415e+01
1.312378e+02	-2.035470e+01
1.319959e+02	-2.040323e+01
1.327583e+02	-2.045432e+01
1.335251e+02	-2.050362e+01
1.342963e+02	-2.055271e+01
1.350720e+02	-2.060145e+01
1.358522e+02	-2.065097e+01
1.366368e+02	-2.070053e+01
1.374260e+02	-2.075058e+01
1.382198e+02	-2.079937e+01
1.390182e+02	-2.084964e+01
1.398211e+02	-2.090009e+01
1.406287e+02	-2.094897e+01
1.414410e+02	-2.099896e+01
1.422579e+02	-2.104760e+01
1.430796e+02	-2.109694e+01
1.439060e+02	-2.114701e+01
1.447372e+02	-2.119679e+01
1.455732e+02	-2.124599e+01
1.464141e+02	-2.129587e+01
1.472597e+02	-2.134517e+01
1.481103e+02	-2.139612e+01
1.489658e+02	-2.144489e+01
1.498262e+02	-2.149249e+01
1.506916e+02	-2.154409e+01
1.515620e+02	-2.159397e+01
1.524374e+02	-2.164411e+01
1.533179e+02	-2.169485e+01
1.542034e+02	-2.174377e+01
1.550941e+02	-2.179433e+01
1.559899e+02	-2.184395e+01
1.568909e+02	-2.189306e+01
1.577971e+02	-2.194439e+01
1.587085e+02	-2.199236e+01
1.596252e+02	-2.204275e+01
1.605472e+02	-2.209191e+01
1.614745e+02	-2.214056e+01
1.624072e+02	-2.219232e+01
1.633453e+02	-2.224182e+01
1.642887e+02	-2.228910e+01
1.652377e+02	-2.234208e+01
1.661921e+02	-2.239182e+01
1.671520e+02	-2.243998e+01
1.681175e+02	-2.249036e+01
1.690885e+02	-2.253990e+01
1.700651e+02	-2.259115e+01
1.710474e+02	-2.263911e+01
1.720354e+02	-2.268798e+01
1.730291e+02	-2.273938e+01
1.740285e+02	-2.278982e+01
1.750337e+02	-2.283824e+01
1.760446e+02	-2.288802e+01
1.770615e+02	-2.293892e+01
1.780842e+02	-2.298713e+01
1.791128e+02	-2.304076e+01
1.801473e+02	-2.308875e+01
1.811878e+02	-2.313840e+01
1.822344e+02	-2.318686e+01
1.832870e+02	-2.323603e+01
1.843456e+02	-2.328550e+01
1.854104e+02	-2.333622e+01
1.864813e+02	-2.338715e+01
1.875584e+02	-2.343593e+01
1.886418e+02	-2.348585e+01
1.897313e+02	-2.353656e+01
1.908272e+02	-2.358458e+01
1.919294e+02	-2.363653e+01
1.930380e+02	-2.368577e+01
1.941530e+02	-2.373579e+01
1.952744e+02	-2.378415e+01
1.964023e+02	-2.383535e+01
1.975367e+02	-2.388406e+01
1.986777e+02	-2.393772e+01
1.998252e+02	-2.398513e+01
2.009794e+02	-2.403553e+01
2.021403e+02	-2.408221e+01
2.033078e+02	-2.413674e+01
2.044821e+02	-2.418360e+01
2.056632e+02	-2.423274e+01
2.068511e+02	-2.428399e+01
2.080459e+02	-2.433246e+01
2.092475e+02	-2.438375e+01
2.104561e+02	-2.443418e+01
2.116717e+02	-2.448155e+01
2.128943e+02	-2.453532e+01
2.141240e+02	-2.458277e+01
2.153608e+02	-2.463265e+01
2.166047e+02	-2.468088e+01
2.178558e+02	-2.473144e+01
2.191141e+02	-2.478344e+01
2.203797e+02	-2.483182e+01
2.216526e+02	-2.488269e+01
2.229329e+02	-2.493242e+01
2.242205e+02	-2.498230e+01
2.255156e+02	-2.503191e+01
2.268182e+02	-2.508051e+01
2.281283e+02	-2.513214e+01
2.294459e+02	-2.517937e+01
2.307712e+02	-2.523202e+01
2.321041e+02	-2.527997e+01
2.334447e+02	-2.532833e+01
2.347931e+02	-2.538140e+01
2.361493e+02	-2.543035e+01
2.375133e+02	-2.548088e+01
2.388851e+02	-2.553131e+01
2.402649e+02	-2.557977e+01
2.416527e+02	-2.563033e+01
2.430484e+02	-2.568129e+01
2.444523e+02	-2.573148e+01
2.458642e+02	-2.578252e+01
2.472843e+02	-2.583249e+01
2.487126e+02	-2.588204e+01
2.501492e+02	-2.592707e+01
2.515940e+02	-2.598598e+01
2.530472e+02	-2.602803e+01
2.545088e+02	-2.607950e+01
2.559789e+02	-2.613083e+01
2.574574e+02	-2.617977e+01
2.589444e+02	-2.623323e+01
2.604401e+02	-2.627883e+01
2.619444e+02	-2.633061e+01
2.634574e+02	-2.638145e+01
2.649791e+02	-2.643071e+01
2.665096e+02	-2.648039e+01
2.680489e+02	-2.653299e+01
2.695972e+02	-2.657968e+01
2.711544e+02	-2.662979e+01
2.727205e+02	-2.668061e+01
2.742958e+02	-2.673063e+01
2.758801e+02	-2.678098e+01
2.774736e+02	-2.683059e+01
2.790762e+02	-2.687842e+01
2.806882e+02	-2.693308e+01
2.823094e+02	-2.698055e+01
2.839400e+02	-2.703135e+01
2.855800e+02	-2.707660e+01
2.872295e+02	-2.712902e+01
2.888886e+02	-2.717900e+01
2.905572e+02	-2.722969e+01
2.922354e+02	-2.727885e+01
2.939234e+02	-2.733262e+01
2.956211e+02	-2.737894e+01
2.973286e+02	-2.743044e+01
2.990459e+02	-2.748035e+01
3.007732e+02	-2.753040e+01
3.025104e+02	-2.757863e+01
3.042577e+02	-2.763114e+01
3.060151e+02	-2.767966e+01
3.077826e+02	-2.772833e+01
3.095604e+02	-2.777876e+01
3.113484e+02	-2.782856e+01
3.131467e+02	-2.788029e+01
3.149554e+02	-2.792950e+01
3.167746e+02	-2.798353e+01
3.186043e+02	-2.802800e+01
3.204445e+02	-2.807815e+01
3.222954e+02	-2.812776e+01
3.241570e+02	-2.818001e+01
3.260293e+02	-2.822903e+01
3.279124e+02	-2.827867e+01
3.298064e+02	-2.832877e+01
3.317114e+02	-2.838043e+01
3.336273e+02	-2.842902e+01
3.355544e+02	-2.847991e+01
3.374925e+02	-2.852957e+01
3.394418e+02	-2.858141e+01
3.414024e+02	-2.862961e+01
3.433744e+02	-2.868196e+01
3.453577e+02	-2.873161e+01
3.473525e+02	-2.878228e+01
3.493588e+02	-2.882679e+01
3.513766e+02	-2.888181e+01
3.534062e+02	-2.893200e+01
3.554474e+02	-2.897775e+01
3.575005e+02	-2.903181e+01
3.595654e+02	-2.907922e+01
3.616422e+02	-2.912538e+01
3.637311e+02	-2.918128e+01
3.658320e+02	-2.923404e+01
3.679450e+02	-2.928047e+01
3.700702e+02	-2.933305e+01
3.722077e+02	-2.938209e+01
3.743576e+02	-2.942793e+01
3.765199e+02	-2.948352e+01
3.786946e+02	-2.953363e+01
3.808820e+02	-2.958397e+01
3.830819e+02	-2.963320e+01
3.852946e+02	-2.968040e+01
3.875200e+02	-2.973144e+01
3.897583e+02	-2.978534e+01
3.920096e+02	-2.983148e+01
3.942738e+02	-2.987725e+01
3.965511e+02	-2.993463e+01
3.988416e+02	-2.998365e+01
4.011452e+02	-3.003341e+01
4.034622e+02	-3.008072e+01
4.057926e+02	-3.013282e+01
4.081365e+02	-3.018122e+01
4.104938e+02	-3.023057e+01
4.128648e+02	-3.028323e+01
4.152495e+02	-3.032773e+01
4.176480e+02	-3.038526e+01
4.200603e+02	-3.042809e+01
4.224866e+02	-3.048001e+01
4.249268e+02	-3.053299e+01
4.273812e+02	-3.058306e+01
4.298497e+02	-3.064014e+01
4.323325e+02	-3.069080e+01
4.348297e+02	-3.073640e+01
4.373412e+02	-3.078439e+01
4.398673e+02	-3.083634e+01
4.424079e+02	-3.088128e+01
4.449633e+02	-3.093425e+01
4.475334e+02	-3.098387e+01
4.501183e+02	-3.103385e+01
4.527182e+02	-3.109168e+01
4.553330e+02	-3.114022e+01
4.579630e+02	-3.118682e+01
4.606082e+02	-3.123748e+01
4.632687e+02	-3.128759e+01
4.659445e+02	-3.133365e+01
4.686358e+02	-3.138486e+01
4.713426e+02	-3.144120e+01
4.740650e+02	-3.148688e+01
4.768032e+02	-3.153711e+01
4.795572e+02	-3.158836e+01
4.823271e+02	-3.164117e+01
4.851130e+02	-3.168928e+01
4.879150e+02	-3.173177e+01
4.907332e+02	-3.178838e+01
4.935676e+02	-3.183502e+01
4.964185e+02	-3.188428e+01
4.992858e+02	-3.194088e+01
5.021696e+02	-3.198621e+01
5.050701e+02	-3.204646e+01
5.079874e+02	-3.209197e+01
5.109215e+02	-3.214198e+01
5.138726e+02	-3.218690e+01
5.168407e+02	-3.224174e+01
5.198259e+02	-3.228685e+01
5.228284e+02	-3.233771e+01
5.258482e+02	-3.239097e+01
5.288855e+02	-3.244405e+01
5.319403e+02	-3.249112e+01
5.350128e+02	-3.254088e+01
5.381030e+02	-3.259296e+01
5.412111e+02	-3.263482e+01
5.443371e+02	-3.269585e+01
5.474812e+02	-3.274580e+01
5.506434e+02	-3.279666e+01
5.538239e+02	-3.284632e+01
5.570228e+02	-3.289360e+01
5.602401e+02	-3.293921e+01
5.634760e+02	-3.299007e+01
5.667306e+02	-3.304516e+01
5.700040e+02	-3.309607e+01
5.732964e+02	-3.314715e+01
5.766077e+02	-3.318975e+01
5.799382e+02	-3.324297e+01
5.832879e+02	-3.329525e+01
5.866569e+02	-3.335139e+01
5.900454e+02	-3.339854e+01
5.934535e+02	-3.344793e+01
5.968813e+02	-3.349190e+01
6.003288e+02	-3.354233e+01
6.037963e+02	-3.359645e+01
6.072838e+02	-3.364899e+01
6.107914e+02	-3.369876e+01
6.143194e+02	-3.374198e+01
6.178676e+02	-3.380234e+01
6.214364e+02	-3.385001e+01
6.250258e+02	-3.390311e+01
6.286359e+02	-3.395281e+01
6.322669e+02	-3.399857e+01
6.359189e+02	-3.405892e+01
6.395919e+02	-3.409882e+01
6.432862e+02	-3.415112e+01
6.470017e+02	-3.420271e+01
6.507388e+02	-3.424362e+01
6.544974e+02	-3.430452e+01
6.582778e+02	-3.434584e+01
6.620800e+02	-3.440054e+01
6.659041e+02	-3.445351e+01
6.697504e+02	-3.450129e+01
6.736188e+02	-3.455041e+01
6.775096e+02	-3.460943e+01
6.814229e+02	-3.466263e+01
6.853587e+02	-3.470452e+01
6.893173e+02	-3.474720e+01
6.932988e+02	-3.481027e+01
6.973033e+02	-3.486040e+01
7.013309e+02	-3.491104e+01
