Frequency(Hz)	Magnitude(dB)
1.000000e+01	-2.122665e+00
1.005776e+01	-2.142265e+00
1.011585e+01	-2.161611e+00
1.017428e+01	-2.181287e+00
1.023305e+01	-2.201081e+00
1.029215e+01	-2.221232e+00
1.035160e+01	-2.241081e+00
1.041139e+01	-2.261578e+00
1.047153e+01	-2.281771e+00
1.053201e+01	-2.302417e+00
1.059284e+01	-2.322806e+00
1.065403e+01	-2.343701e+00
1.071556e+01	-2.364476e+00
1.077746e+01	-2.385623e+00
1.083971e+01	-2.407269e+00
1.090232e+01	-2.428359e+00
1.096529e+01	-2.449681e+00
1.102862e+01	-2.471476e+00
1.109232e+01	-2.493260e+00
1.115639e+01	-2.515220e+00
1.122083e+01	-2.537125e+00
1.128564e+01	-2.559463e+00
1.135083e+01	-2.581791e+00
1.141639e+01	-2.604248e+00
1.148233e+01	-2.626929e+00
1.154865e+01	-2.649516e+00
1.161536e+01	-2.672502e+00
1.168245e+01	-2.695476e+00
1.174992e+01	-2.719059e+00
1.181779e+01	-2.742180e+00
1.188605e+01	-2.765545e+00
1.195470e+01	-2.789629e+00
1.202375e+01	-2.812912e+00
1.209320e+01	-2.837332e+00
1.216305e+01	-2.860944e+00
1.223330e+01	-2.885380e+00
1.230396e+01	-2.909516e+00
1.237503e+01	-2.934233e+00
1.244651e+01	-2.958683e+00
1.251840e+01	-2.983395e+00
1.259070e+01	-3.008735e+00
1.266343e+01	-3.033607e+00
1.273657e+01	-3.058700e+00
1.281014e+01	-3.084074e+00
1.288413e+01	-3.109462e+00
1.295855e+01	-3.135313e+00
1.303339e+01	-3.161102e+00
1.310867e+01	-3.187249e+00
1.318439e+01	-3.213113e+00
1.326054e+01	-3.239140e+00
1.333713e+01	-3.265533e+00
1.341417e+01	-3.292509e+00
1.349165e+01	-3.318940e+00
1.356958e+01	-3.345982e+00
1.364795e+01	-3.372651e+00
1.372678e+01	-3.399591e+00
1.380607e+01	-3.426999e+00
1.388581e+01	-3.454040e+00
1.396602e+01	-3.481814e+00
1.404668e+01	-3.509491e+00
1.412782e+01	-3.537159e+00
1.420942e+01	-3.565377e+00
1.429149e+01	-3.593312e+00
1.437404e+01	-3.621653e+00
1.445706e+01	-3.649929e+00
1.454057e+01	-3.678483e+00
1.462455e+01	-3.707230e+00
1.470902e+01	-3.736050e+00
1.479398e+01	-3.764748e+00
1.487943e+01	-3.793782e+00
1.496537e+01	-3.822893e+00
1.505181e+01	-3.852576e+00
1.513875e+01	-3.882070e+00
1.522619e+01	-3.911432e+00
1.531414e+01	-3.941172e+00
1.540259e+01	-3.971184e+00
1.549156e+01	-4.001300e+00
1.558103e+01	-4.031336e+00
1.567103e+01	-4.061846e+00
1.576155e+01	-4.092114e+00
1.585258e+01	-4.122994e+00
1.594415e+01	-4.153642e+00
1.603624e+01	-4.184393e+00
1.612886e+01	-4.215352e+00
1.622202e+01	-4.246785e+00
1.631572e+01	-4.277874e+00
1.640996e+01	-4.309189e+00
1.650474e+01	-4.340637e+00
1.660008e+01	-4.372405e+00
1.669596e+01	-4.404536e+00
1.679239e+01	-4.436543e+00
1.688938e+01	-4.468261e+00
1.698694e+01	-4.500436e+00
1.708505e+01	-4.532665e+00
1.718373e+01	-4.565734e+00
1.728299e+01	-4.598199e+00
1.738281e+01	-4.630941e+00
1.748322e+01	-4.663385e+00
1.758420e+01	-4.696634e+00
1.768576e+01	-4.729512e+00
1.778792e+01	-4.762946e+00
1.789066e+01	-4.796252e+00
1.799399e+01	-4.830059e+00
1.809793e+01	-4.863517e+00
1.820246e+01	-4.897355e+00
1.830760e+01	-4.931156e+00
1.841334e+01	-4.965141e+00
1.851969e+01	-4.999458e+00
1.862666e+01	-5.033766e+00
1.873425e+01	-5.067577e+00
1.884246e+01	-5.102546e+00
1.895129e+01	-5.137162e+00
1.906075e+01	-5.171615e+00
1.917085e+01	-5.206842e+00
1.928158e+01	-5.242094e+00
1.939295e+01	-5.276957e+00
1.950496e+01	-5.311862e+00
1.961762e+01	-5.347407e+00
1.973093e+01	-5.383090e+00
1.984490e+01	-5.418495e+00
1.995952e+01	-5.454101e+00
2.007480e+01	-5.490336e+00
2.019076e+01	-5.526019e+00
2.030738e+01	-5.562398e+00
2.042467e+01	-5.598495e+00
2.054264e+01	-5.634817e+00
2.066130e+01	-5.670878e+00
2.078064e+01	-5.707407e+00
2.090066e+01	-5.744296e+00
2.102139e+01	-5.781031e+00
2.114280e+01	-5.817788e+00
2.126492e+01	-5.854430e+00
2.138775e+01	-5.892016e+00
2.151128e+01	-5.928867e+00
2.163553e+01	-5.966508e+00
2.176050e+01	-6.003616e+00
2.188619e+01	-6.041511e+00
2.201260e+01	-6.079002e+00
2.213974e+01	-6.116967e+00
2.226762e+01	-6.154516e+00
2.239624e+01	-6.192679e+00
2.252560e+01	-6.230519e+00
2.265571e+01	-6.268912e+00
2.278656e+01	-6.307098e+00
2.291818e+01	-6.345728e+00
2.305055e+01	-6.383773e+00
2.318369e+01	-6.422714e+00
2.331760e+01	-6.461119e+00
2.345228e+01	-6.499736e+00
2.358774e+01	-6.538573e+00
2.372398e+01	-6.577743e+00
2.386101e+01	-6.616419e+00
2.399883e+01	-6.655905e+00
2.413745e+01	-6.695273e+00
2.427686e+01	-6.734979e+00
2.441709e+01	-6.774058e+00
2.455812e+01	-6.813733e+00
2.469997e+01	-6.853216e+00
2.484263e+01	-6.892733e+00
2.498612e+01	-6.932894e+00
2.513044e+01	-6.973109e+00
2.527559e+01	-7.012925e+00
2.542158e+01	-7.052804e+00
2.556842e+01	-7.092866e+00
2.571610e+01	-7.133141e+00
2.586463e+01	-7.174048e+00
2.601403e+01	-7.214188e+00
2.616428e+01	-7.254353e+00
2.631541e+01	-7.295554e+00
2.646740e+01	-7.336251e+00
2.662028e+01	-7.376864e+00
2.677404e+01	-7.418174e+00
2.692868e+01	-7.458973e+00
2.708422e+01	-7.500166e+00
2.724066e+01	-7.541683e+00
2.739800e+01	-7.582561e+00
2.755625e+01	-7.624040e+00
2.771541e+01	-7.665372e+00
2.787550e+01	-7.706379e+00
2.803650e+01	-7.748556e+00
2.819844e+01	-7.789833e+00
2.836131e+01	-7.831830e+00
2.852513e+01	-7.873478e+00
2.868989e+01	-7.915602e+00
2.885560e+01	-7.957474e+00
2.902227e+01	-7.999580e+00
2.918990e+01	-8.042218e+00
2.935850e+01	-8.084167e+00
2.952807e+01	-8.125946e+00
2.969863e+01	-8.168470e+00
2.987016e+01	-8.210843e+00
3.004269e+01	-8.253574e+00
3.021622e+01	-8.296204e+00
3.039075e+01	-8.338729e+00
3.056628e+01	-8.381378e+00
3.074283e+01	-8.424324e+00
3.092040e+01	-8.466930e+00
3.109900e+01	-8.510199e+00
3.127862e+01	-8.553489e+00
3.145929e+01	-8.596059e+00
3.164099e+01	-8.639696e+00
3.182375e+01	-8.682344e+00
3.200756e+01	-8.725579e+00
3.219244e+01	-8.769235e+00
3.237838e+01	-8.812533e+00
3.256540e+01	-8.855926e+00
3.275349e+01	-8.899538e+00
3.294268e+01	-8.943354e+00
3.313295e+01	-8.987202e+00
3.332433e+01	-9.031346e+00
3.351681e+01	-9.074169e+00
3.371040e+01	-9.117911e+00
3.390511e+01	-9.162669e+00
3.410094e+01	-9.206049e+00
3.429791e+01	-9.250522e+00
3.449601e+01	-9.294084e+00
3.469526e+01	-9.338252e+00
3.489566e+01	-9.383375e+00
3.509721e+01	-9.427084e+00
3.529993e+01	-9.470869e+00
3.550382e+01	-9.515598e+00
3.570889e+01	-9.560525e+00
3.591515e+01	-9.604812e+00
3.612259e+01	-9.649431e+00
3.633123e+01	-9.693998e+00
3.654108e+01	-9.738835e+00
3.675214e+01	-9.783658e+00
3.696442e+01	-9.828417e+00
3.717792e+01	-9.873241e+00
3.739266e+01	-9.917880e+00
3.760864e+01	-9.962827e+00
3.782587e+01	-1.000835e+01
3.804435e+01	-1.005281e+01
3.826409e+01	-1.009868e+01
3.848510e+01	-1.014327e+01
3.870739e+01	-1.018798e+01
3.893096e+01	-1.023335e+01
3.915583e+01	-1.027910e+01
3.938199e+01	-1.032481e+01
3.960946e+01	-1.036970e+01
3.983824e+01	-1.041555e+01
4.006834e+01	-1.046101e+01
4.029978e+01	-1.050606e+01
4.053255e+01	-1.055150e+01
4.076666e+01	-1.059761e+01
4.100213e+01	-1.064353e+01
4.123896e+01	-1.068915e+01
4.147715e+01	-1.073495e+01
4.171672e+01	-1.078031e+01
4.195767e+01	-1.082677e+01
4.220002e+01	-1.087233e+01
4.244377e+01	-1.091827e+01
4.268892e+01	-1.096394e+01
4.293549e+01	-1.101023e+01
4.318348e+01	-1.105647e+01
4.343291e+01	-1.110199e+01
4.368377e+01	-1.114984e+01
4.393609e+01	-1.119460e+01
4.418986e+01	-1.124126e+01
4.444510e+01	-1.128717e+01
4.470182e+01	-1.133447e+01
4.496001e+01	-1.138019e+01
4.521970e+01	-1.142611e+01
4.548089e+01	-1.147251e+01
4.574358e+01	-1.151898e+01
4.600779e+01	-1.156563e+01
4.627353e+01	-1.161252e+01
4.654081e+01	-1.165914e+01
4.680963e+01	-1.170522e+01
4.708000e+01	-1.175251e+01
4.735193e+01	-1.179963e+01
4.762543e+01	-1.184540e+01
4.790051e+01	-1.189238e+01
4.817719e+01	-1.193985e+01
4.845545e+01	-1.198617e+01
4.873533e+01	-1.203350e+01
4.901682e+01	-1.208052e+01
4.929994e+01	-1.212707e+01
4.958470e+01	-1.217364e+01
4.987110e+01	-1.222094e+01
5.015915e+01	-1.226837e+01
5.044887e+01	-1.231549e+01
5.074026e+01	-1.236201e+01
5.103333e+01	-1.241037e+01
5.132810e+01	-1.245614e+01
5.162457e+01	-1.250336e+01
5.192275e+01	-1.255098e+01
5.222265e+01	-1.259838e+01
5.252429e+01	-1.264568e+01
5.282767e+01	-1.269397e+01
5.313280e+01	-1.274050e+01
5.343969e+01	-1.278774e+01
5.374836e+01	-1.283497e+01
5.405880e+01	-1.288112e+01
5.437105e+01	-1.292987e+01
5.468509e+01	-1.297761e+01
5.500095e+01	-1.302468e+01
5.531863e+01	-1.307301e+01
5.563815e+01	-1.312018e+01
5.595951e+01	-1.316835e+01
5.628273e+01	-1.321499e+01
5.660782e+01	-1.326239e+01
5.693479e+01	-1.331104e+01
5.726364e+01	-1.335828e+01
5.759439e+01	-1.340606e+01
5.792705e+01	-1.345426e+01
5.826164e+01	-1.350175e+01
5.859815e+01	-1.355008e+01
5.893662e+01	-1.359709e+01
5.927703e+01	-1.364536e+01
5.961941e+01	-1.369404e+01
5.996377e+01	-1.374121e+01
6.031012e+01	-1.378890e+01
6.065847e+01	-1.383607e+01
6.100883e+01	-1.388406e+01
6.136121e+01	-1.393262e+01
6.171563e+01	-1.398032e+01
6.207210e+01	-1.402922e+01
6.243063e+01	-1.407767e+01
6.279122e+01	-1.412450e+01
6.315390e+01	-1.417277e+01
6.351868e+01	-1.422146e+01
6.388556e+01	-1.426896e+01
6.425456e+01	-1.431785e+01
6.462569e+01	-1.436568e+01
6.499897e+01	-1.441516e+01
6.537440e+01	-1.446147e+01
6.575200e+01	-1.451051e+01
6.613178e+01	-1.455878e+01
6.651375e+01	-1.460708e+01
6.689793e+01	-1.465581e+01
6.728433e+01	-1.470433e+01
6.767297e+01	-1.475223e+01
6.806384e+01	-1.480037e+01
6.845698e+01	-1.484808e+01
6.885238e+01	-1.489680e+01
6.925007e+01	-1.494489e+01
6.965005e+01	-1.499405e+01
7.005235e+01	-1.504291e+01
7.045697e+01	-1.509054e+01
7.086393e+01	-1.513906e+01
7.127323e+01	-1.518782e+01
7.168490e+01	-1.523592e+01
7.209895e+01	-1.528462e+01
7.251539e+01	-1.533324e+01
7.293424e+01	-1.538158e+01
7.335551e+01	-1.542971e+01
7.377920e+01	-1.547954e+01
7.420535e+01	-1.552712e+01
7.463396e+01	-1.557595e+01
7.506504e+01	-1.562522e+01
7.549861e+01	-1.567385e+01
7.593469e+01	-1.572200e+01
7.637328e+01	-1.577139e+01
7.681441e+01	-1.581900e+01
7.725809e+01	-1.586803e+01
7.770433e+01	-1.591753e+01
7.815315e+01	-1.596568e+01
7.860456e+01	-1.601537e+01
7.905857e+01	-1.606267e+01
7.951521e+01	-1.611175e+01
7.997449e+01	-1.616162e+01
8.043642e+01	-1.620990e+01
8.090102e+01	-1.625978e+01
8.136830e+01	-1.630784e+01
8.183828e+01	-1.635690e+01
8.231097e+01	-1.640514e+01
8.278640e+01	-1.645440e+01
8.326457e+01	-1.650307e+01
8.374550e+01	-1.655139e+01
8.422921e+01	-1.660166e+01
8.471572e+01	-1.664927e+01
8.520503e+01	-1.669976e+01
8.569717e+01	-1.674731e+01
8.619215e+01	-1.679704e+01
8.669000e+01	-1.684519e+01
8.719071e+01	-1.689494e+01
8.769432e+01	-1.694380e+01
8.820084e+01	-1.699363e+01
8.871029e+01	-1.704183e+01
8.922267e+01	-1.709062e+01
8.973802e+01	-1.714093e+01
9.025634e+01	-1.718934e+01
9.077766e+01	-1.723900e+01
9.130199e+01	-1.728722e+01
9.182935e+01	-1.733636e+01
9.235975e+01	-1.738499e+01
9.289321e+01	-1.743497e+01
9.342976e+01	-1.748302e+01
9.396941e+01	-1.753235e+01
9.451217e+01	-1.758180e+01
9.505807e+01	-1.763116e+01
9.560712e+01	-1.768083e+01
9.615934e+01	-1.772904e+01
9.671476e+01	-1.777924e+01
9.727338e+01	-1.782791e+01
9.783522e+01	-1.787694e+01
9.840032e+01	-1.792602e+01
9.896867e+01	-1.797472e+01
9.954031e+01	-1.802514e+01
1.001153e+02	-1.807493e+01
1.006935e+02	-1.812457e+01
1.012751e+02	-1.817346e+01
1.018601e+02	-1.822258e+01
1.024484e+02	-1.827052e+01
1.030402e+02	-1.832075e+01
1.036353e+02	-1.836981e+01
1.042339e+02	-1.841945e+01
1.048360e+02	-1.846802e+01
1.054415e+02	-1.851855e+01
1.060505e+02	-1.856703e+01
1.066631e+02	-1.861718e+01
1.072791e+02	-1.866541e+01
1.078988e+02	-1.871436e+01
1.085220e+02	-1.876519e+01
1.091488e+02	-1.881424e+01
1.097793e+02	-1.886479e+01
1.104133e+02	-1.891212e+01
1.110511e+02	-1.896336e+01
1.116925e+02	-1.901153e+01
1.123376e+02	-1.906018e+01
1.129865e+02	-1.911062e+01
1.136391e+02	-1.915926e+01
1.142955e+02	-1.920766e+01
1.149556e+02	-1.925842e+01
1.156196e+02	-1.930849e+01
1.162874e+02	-1.935769e+01
1.169591e+02	-1.940684e+01
1.176347e+02	-1.945682e+01
1.183141e+02	-1.950588e+01
1.189975e+02	-1.955523e+01
1.196848e+02	-1.960366e+01
1.203761e+02	-1.965414e+01
1.210714e+02	-1.970459e+01
1.217707e+02	-1.975381e+01
1.224740e+02	-1.980341e+01
1.231814e+02	-1.985196e+01
1.238929e+02	-1.990152e+01
1.246085e+02	-1.995213e+01
1.253283e+02	-2.000149e+01
1.260522e+02	-2.005097e+01
1.267802e+02	-2.009905e+01
1.275125e+02	-2.014885e+01
1.282490e+02	-2.019959e+01
1.289898e+02	-2.024794e+01
1.297348e+02	-2.029764e+01
1.304842e+02	-2.034825e+01
1.312378e+02	-2.039585e+01
1.319959e+02	-2.044733e+01
1.327583e+02	-2.049705e+01
1.335251e+02	-2.054675e+01
1.342963e+02	-2.059347e+01
1.350720e+02	-2.064446e+01
1.358522e+02	-2.069418e+01
1.366368e+02	-2.074279e+01
1.374260e+02	-2.079518e+01
1.382198e+02	-2.084332e+01
1.390182e+02	-2.089350e+01
1.398211e+02	-2.094223e+01
1.406287e+02	-2.099161e+01
1.414410e+02	-2.104432e+01
1.422579e+02	-2.109466e+01
1.430796e+02	-2.114324e+01
1.439060e+02	-2.119263e+01
1.447372e+02	-2.123940e+01
1.455732e+02	-2.128925e+01
1.464141e+02	-2.134050e+01
1.472597e+02	-2.138998e+01
1.481103e+02	-2.143878e+01
1.489658e+02	-2.149034e+01
1.498262e+02	-2.153798e+01
1.506916e+02	-2.158979e+01
1.515620e+02	-2.163880e+01
1.524374e+02	-2.168792e+01
1.533179e+02	-2.173728e+01
1.542034e+02	-2.178819e+01
1.550941e+02	-2.183716e+01
1.559899e+02	-2.188826e+01
1.568909e+02	-2.193775e+01
1.577971e+02	-2.198632e+01
1.587085e+02	-2.203493e+01
1.596252e+02	-2.208604e+01
1.605472e+02	-2.213614e+01
1.614745e+02	-2.218619e+01
1.624072e+02	-2.223393e+01
1.633453e+02	-2.228437e+01
1.642887e+02	-2.233553e+01
1.652377e+02	-2.238343e+01
1.661921e+02	-2.243530e+01
1.671520e+02	-2.248538e+01
1.681175e+02	-2.253340e+01
1.690885e+02	-2.258519e+01
1.700651e+02	-2.263419e+01
1.710474e+02	-2.268441e+01
1.720354e+02	-2.273391e+01
1.730291e+02	-2.278240e+01
1.740285e+02	-2.283238e+01
1.750337e+02	-2.288180e+01
1.760446e+02	-2.293246e+01
1.770615e+02	-2.298094e+01
1.780842e+02	-2.303360e+01
1.791128e+02	-2.308178e+01
1.801473e+02	-2.313174e+01
1.811878e+02	-2.318364e+01
1.822344e+02	-2.323040e+01
1.832870e+02	-2.327851e+01
1.843456e+02	-2.333294e+01
1.854104e+02	-2.337903e+01
1.864813e+02	-2.343056e+01
1.875584e+02	-2.347930e+01
1.886418e+02	-2.353086e+01
1.897313e+02	-2.357933e+01
1.908272e+02	-2.362823e+01
1.919294e+02	-2.367988e+01
1.930380e+02	-2.372772e+01
1.941530e+02	-2.377979e+01
1.952744e+02	-2.382885e+01
1.964023e+02	-2.387767e+01
1.975367e+02	-2.392940e+01
1.986777e+02	-2.397721e+01
1.998252e+02	-2.403126e+01
2.009794e+02	-2.407920e+01
2.021403e+02	-2.413053e+01
2.033078e+02	-2.417652e+01
2.044821e+02	-2.422934e+01
2.056632e+02	-2.427660e+01
2.068511e+02	-2.432823e+01
2.080459e+02	-2.437650e+01
2.092475e+02	-2.442733e+01
2.104561e+02	-2.447910e+01
2.116717e+02	-2.452774e+01
2.128943e+02	-2.457434e+01
2.141240e+02	-2.462673e+01
2.153608e+02	-2.467817e+01
2.166047e+02	-2.472465e+01
2.178558e+02	-2.477790e+01
2.191141e+02	-2.482606e+01
2.203797e+02	-2.487631e+01
2.216526e+02	-2.492548e+01
2.229329e+02	-2.497642e+01
2.242205e+02	-2.502423e+01
2.255156e+02	-2.507275e+01
2.268182e+02	-2.512604e+01
2.281283e+02	-2.517672e+01
2.294459e+02	-2.522463e+01
2.307712e+02	-2.527731e+01
2.321041e+02	-2.532536e+01
2.334447e+02	-2.537444e+01
2.347931e+02	-2.542483e+01
2.361493e+02	-2.547447e+01
2.375133e+02	-2.552408e+01
2.388851e+02	-2.557423e+01
2.402649e+02	-2.562630e+01
2.416527e+02	-2.567316e+01
2.430484e+02	-2.572495e+01
2.444523e+02	-2.577661e+01
2.458642e+02	-2.582436e+01
2.472843e+02	-2.587799e+01
2.487126e+02	-2.592418e+01
2.501492e+02	-2.597747e+01
2.515940e+02	-2.602362e+01
2.530472e+02	-2.607499e+01
2.545088e+02	-2.612549e+01
2.559789e+02	-2.617406e+01
2.574574e+02	-2.622273e+01
2.589444e+02	-2.627502e+01
2.604401e+02	-2.632602e+01
2.619444e+02	-2.637155e+01
2.634574e+02	-2.642681e+01
2.649791e+02	-2.647108e+01
2.665096e+02	-2.652238e+01
2.680489e+02	-2.657679e+01
2.695972e+02	-2.662431e+01
2.711544e+02	-2.667197e+01
2.727205e+02	-2.672508e+01
2.742958e+02	-2.677503e+01
2.758801e+02	-2.682642e+01
2.774736e+02	-2.687185e+01
2.790762e+02	-2.692229e+01
2.806882e+02	-2.697533e+01
2.823094e+02	-2.702328e+01
2.839400e+02	-2.707371e+01
2.855800e+02	-2.712240e+01
2.872295e+02	-2.717581e+01
2.888886e+02	-2.722507e+01
2.905572e+02	-2.727396e+01
2.922354e+02	-2.732601e+01
2.939234e+02	-2.737518e+01
2.956211e+02	-2.742345e+01
2.973286e+02	-2.747058e+01
2.990459e+02	-2.752025e+01
3.007732e+02	-2.757408e+01
3.025104e+02	-2.762492e+01
3.042577e+02	-2.767358e+01
3.060151e+02	-2.772503e+01
3.077826e+02	-2.777319e+01
3.095604e+02	-2.782577e+01
3.113484e+02	-2.787730e+01
3.131467e+02	-2.792573e+01
3.149554e+02	-2.797582e+01
3.167746e+02	-2.802190e+01
3.186043e+02	-2.807687e+01
3.204445e+02	-2.812866e+01
3.222954e+02	-2.817266e+01
3.241570e+02	-2.822251e+01
3.260293e+02	-2.827862e+01
3.279124e+02	-2.832493e+01
3.298064e+02	-2.837438e+01
3.317114e+02	-2.842772e+01
3.336273e+02	-2.847206e+01
3.355544e+02	-2.852176e+01
3.374925e+02	-2.857389e+01
3.394418e+02	-2.862565e+01
3.414024e+02	-2.867863e+01
3.433744e+02	-2.872215e+01
3.453577e+02	-2.877289e+01
3.473525e+02	-2.882797e+01
3.493588e+02	-2.887210e+01
3.513766e+02	-2.892471e+01
3.534062e+02	-2.897453e+01
3.554474e+02	-2.902444e+01
3.575005e+02	-2.907429e+01
3.595654e+02	-2.912362e+01
3.616422e+02	-2.917890e+01
3.637311e+02	-2.922548e+01
3.658320e+02	-2.927093e+01
3.679450e+02	-2.932102e+01
3.700702e+02	-2.937607e+01
3.722077e+02	-2.942577e+01
3.743576e+02	-2.947482e+01
3.765199e+02	-2.952526e+01
3.786946e+02	-2.957648e+01
3.808820e+02	-2.961959e+01
3.830819e+02	-2.967291e+01
3.852946e+02	-2.972503e+01
3.875200e+02	-2.977713e+01
3.897583e+02	-2.982598e+01
3.920096e+02	-2.987279e+01
3.942738e+02	-2.992940e+01
3.965511e+02	-2.997865e+01
3.988416e+02	-3.002708e+01
4.011452e+02	-3.007096e+01
4.034622e+02	-3.012708e+01
4.057926e+02	-3.017705e+01
4.081365e+02	-3.022632e+01
4.104938e+02	-3.027847e+01
4.128648e+02	-3.032558e+01
4.152495e+02	-3.037902e+01
4.176480e+02	-3.042784e+01
4.200603e+02	-3.047406e+01
4.224866e+02	-3.053029e+01
4.249268e+02	-3.057389e+01
4.273812e+02	-3.062853e+01
4.298497e+02	-3.067725e+01
4.323325e+02	-3.072977e+01
4.348297e+02	-3.077777e+01
4.373412e+02	-3.082558e+01
4.398673e+02	-3.088026e+01
4.424079e+02	-3.093353e+01
4.449633e+02	-3.097143e+01
4.475334e+02	-3.102469e+01
4.501183e+02	-3.108425e+01
4.527182e+02	-3.112916e+01
4.553330e+02	-3.118027e+01
4.579630e+02	-3.123104e+01
4.606082e+02	-3.128242e+01
4.632687e+02	-3.132846e+01
4.659445e+02	-3.137633e+01
4.686358e+02	-3.142833e+01
4.713426e+02	-3.148660e+01
4.740650e+02	-3.152626e+01
4.768032e+02	-3.157858e+01
4.795572e+02	-3.162605e+01
4.823271e+02	-3.168322e+01
4.851130e+02	-3.173230e+01
4.879150e+02	-3.177854e+01
4.907332e+02	-3.183631e+01
4.935676e+02	-3.188131e+01
4.964185e+02	-3.193259e+01
4.992858e+02	-3.198517e+01
5.021696e+02	-3.202750e+01
5.050701e+02	-3.208520e+01
5.079874e+02	-3.212787e+01
5.109215e+02	-3.218243e+01
5.138726e+02	-3.223448e+01
5.168407e+02	-3.228876e+01
5.198259e+02	-3.233228e+01
5.228284e+02	-3.237844e+01
5.258482e+02	-3.243180e+01
5.288855e+02	-3.248370e+01
5.319403e+02	-3.253039e+01
5.350128e+02	-3.258691e+01
5.381030e+02	-3.263434e+01
5.412111e+02	-3.268728e+01
5.443371e+02	-3.273698e+01
5.474812e+02	-3.278607e+01
5.506434e+02	-3.283786e+01
5.538239e+02	-3.288810e+01
5.570228e+02	-3.293058e+01
5.602401e+02	-3.298230e+01
5.634760e+02	-3.303355e+01
5.667306e+02	-3.308927e+01
5.700040e+02	-3.314283e+01
5.732964e+02	-3.317945e+01
5.766077e+02	-3.324096e+01
5.799382e+02	-3.329113e+01
5.832879e+02	-3.334074e+01
5.866569e+02	-3.339517e+01
5.900454e+02	-3.343428e+01
5.934535e+02	-3.348909e+01
5.968813e+02	-3.354023e+01
6.003288e+02	-3.359123e+01
6.037963e+02	-3.363833e+01
6.072838e+02	-3.368815e+01
6.107914e+02	-3.373433e+01
6.143194e+02	-3.379207e+01
6.178676e+02	-3.383911e+01
6.214364e+02	-3.389124e+01
6.250258e+02	-3.393789e+01
6.286359e+02	-3.399235e+01
6.322669e+02	-3.404053e+01
6.359189e+02	-3.409076e+01
6.395919e+02	-3.414745e+01
6.432862e+02	-3.419749e+01
6.470017e+02	-3.423693e+01
6.507388e+02	-3.429169e+01
6.544974e+02	-3.433311e+01
6.582778e+02	-3.439486e+01
6.620800e+02	-3.444905e+01
6.659041e+02	-3.448851e+01
6.697504e+02	-3.454972e+01
6.736188e+02	-3.460592e+01
6.775096e+02	-3.465113e+01
6.814229e+02	-3.469984e+01
6.853587e+02	-3.474891e+01
6.893173e+02	-3.480255e+01
6.932988e+02	-3.485065e+01
6.973033e+02	-3.489840e+01
7.013309e+02	-3.495452e+01
