Frequency(Hz)	Magnitude(dB)
1.000000e+01	-1.565632e-05
1.005776e+01	-1.583771e-05
1.011585e+01	-1.602119e-05
1.017428e+01	-1.620680e-05
1.023305e+01	-1.639456e-05
1.029215e+01	-1.658450e-05
1.035160e+01	-1.677663e-05
1.041139e+01	-1.697099e-05
1.047153e+01	-1.716761e-05
1.053201e+01	-1.736650e-05
1.059284e+01	-1.756769e-05
1.065403e+01	-1.777122e-05
1.071556e+01	-1.797710e-05
1.077746e+01	-1.818537e-05
1.083971e+01	-1.839605e-05
1.090232e+01	-1.860918e-05
1.096529e+01	-1.882477e-05
1.102862e+01	-1.904286e-05
1.109232e+01	-1.926348e-05
1.115639e+01	-1.948665e-05
1.122083e+01	-1.971241e-05
1.128564e+01	-1.994078e-05
1.135083e+01	-2.017180e-05
1.141639e+01	-2.040549e-05
1.148233e+01	-2.064190e-05
1.154865e+01	-2.088104e-05
1.161536e+01	-2.112295e-05
1.168245e+01	-2.136766e-05
1.174992e+01	-2.161521e-05
1.181779e+01	-2.186563e-05
1.188605e+01	-2.211895e-05
1.195470e+01	-2.237520e-05
1.202375e+01	-2.263443e-05
1.209320e+01	-2.289665e-05
1.216305e+01	-2.316191e-05
1.223330e+01	-2.343025e-05
1.230396e+01	-2.370170e-05
1.237503e+01	-2.397629e-05
1.244651e+01	-2.425406e-05
1.251840e+01	-2.453505e-05
1.259070e+01	-2.481929e-05
1.266343e+01	-2.510683e-05
1.273657e+01	-2.539770e-05
1.281014e+01	-2.569194e-05
1.288413e+01	-2.598958e-05
1.295855e+01	-2.629068e-05
1.303339e+01	-2.659526e-05
1.310867e+01	-2.690338e-05
1.318439e+01	-2.721506e-05
1.326054e+01	-2.753035e-05
1.333713e+01	-2.784930e-05
1.341417e+01	-2.817194e-05
1.349165e+01	-2.849832e-05
1.356958e+01	-2.882848e-05
1.364795e+01	-2.916246e-05
1.372678e+01	-2.950032e-05
1.380607e+01	-2.984208e-05
1.388581e+01	-3.018781e-05
1.396602e+01	-3.053754e-05
1.404668e+01	-3.089133e-05
1.412782e+01	-3.124921e-05
1.420942e+01	-3.161124e-05
1.429149e+01	-3.197747e-05
1.437404e+01	-3.234793e-05
1.445706e+01	-3.272269e-05
1.454057e+01	-3.310179e-05
1.462455e+01	-3.348528e-05
1.470902e+01	-3.387322e-05
1.479398e+01	-3.426565e-05
1.487943e+01	-3.466262e-05
1.496537e+01	-3.506420e-05
1.505181e+01	-3.547042e-05
1.513875e+01	-3.588136e-05
1.522619e+01	-3.629705e-05
1.531414e+01	-3.671756e-05
1.540259e+01	-3.714294e-05
1.549156e+01	-3.757325e-05
1.558103e+01	-3.800855e-05
1.567103e+01	-3.844888e-05
1.576155e+01	-3.889432e-05
1.585258e+01	-3.934492e-05
1.594415e+01	-3.980074e-05
1.603624e+01	-4.026184e-05
1.612886e+01	-4.072829e-05
1.622202e+01	-4.120013e-05
1.631572e+01	-4.167745e-05
1.640996e+01	-4.216029e-05
1.650474e+01	-4.264872e-05
1.660008e+01	-4.314282e-05
1.669596e+01	-4.364264e-05
1.679239e+01	-4.414825e-05
1.688938e+01	-4.465972e-05
1.698694e+01	-4.517711e-05
1.708505e+01	-4.570049e-05
1.718373e+01	-4.622994e-05
1.728299e+01	-4.676553e-05
1.738281e+01	-4.730732e-05
1.748322e+01	-4.785538e-05
1.758420e+01	-4.840980e-05
1.768576e+01	-4.897064e-05
1.778792e+01	-4.953797e-05
1.789066e+01	-5.011188e-05
1.799399e+01	-5.069244e-05
1.809793e+01	-5.127972e-05
1.820246e+01	-5.187380e-05
1.830760e+01	-5.247477e-05
1.841334e+01	-5.308270e-05
1.851969e+01	-5.369768e-05
1.862666e+01	-5.431978e-05
1.873425e+01	-5.494908e-05
1.884246e+01	-5.558568e-05
1.895129e+01	-5.622965e-05
1.906075e+01	-5.688108e-05
1.917085e+01	-5.754006e-05
1.928158e+01	-5.820668e-05
1.939295e+01	-5.888101e-05
1.950496e+01	-5.956316e-05
1.961762e+01	-6.025321e-05
1.973093e+01	-6.095126e-05
1.984490e+01	-6.165739e-05
1.995952e+01	-6.237170e-05
2.007480e+01	-6.309429e-05
2.019076e+01	-6.382525e-05
2.030738e+01	-6.456468e-05
2.042467e+01	-6.531267e-05
2.054264e+01	-6.606933e-05
2.066130e+01	-6.683476e-05
2.078064e+01	-6.760905e-05
2.090066e+01	-6.839231e-05
2.102139e+01	-6.918465e-05
2.114280e+01	-6.998617e-05
2.126492e+01	-7.079697e-05
2.138775e+01	-7.161717e-05
2.151128e+01	-7.244687e-05
2.163553e+01	-7.328618e-05
2.176050e+01	-7.413521e-05
2.188619e+01	-7.499408e-05
2.201260e+01	-7.586290e-05
2.213974e+01	-7.674178e-05
2.226762e+01	-7.763085e-05
2.239624e+01	-7.853022e-05
2.252560e+01	-7.944000e-05
2.265571e+01	-8.036033e-05
2.278656e+01	-8.129132e-05
2.291818e+01	-8.223309e-05
2.305055e+01	-8.318578e-05
2.318369e+01	-8.414950e-05
2.331760e+01	-8.512438e-05
2.345228e+01	-8.611056e-05
2.358774e+01	-8.710817e-05
2.372398e+01	-8.811733e-05
2.386101e+01	-8.913818e-05
2.399883e+01	-9.017086e-05
2.413745e+01	-9.121551e-05
2.427686e+01	-9.227225e-05
2.441709e+01	-9.334124e-05
2.455812e+01	-9.442262e-05
2.469997e+01	-9.551652e-05
2.484263e+01	-9.662309e-05
2.498612e+01	-9.774248e-05
2.513044e+01	-9.887484e-05
2.527559e+01	-1.000203e-04
2.542158e+01	-1.011791e-04
2.556842e+01	-1.023512e-04
2.571610e+01	-1.035370e-04
2.586463e+01	-1.047365e-04
2.601403e+01	-1.059499e-04
2.616428e+01	-1.071773e-04
2.631541e+01	-1.084190e-04
2.646740e+01	-1.096750e-04
2.662028e+01	-1.109456e-04
2.677404e+01	-1.122310e-04
2.692868e+01	-1.135312e-04
2.708422e+01	-1.148464e-04
2.724066e+01	-1.161769e-04
2.739800e+01	-1.175229e-04
2.755625e+01	-1.188844e-04
2.771541e+01	-1.202617e-04
2.787550e+01	-1.216549e-04
2.803650e+01	-1.230643e-04
2.819844e+01	-1.244900e-04
2.836131e+01	-1.259323e-04
2.852513e+01	-1.273912e-04
2.868989e+01	-1.288670e-04
2.885560e+01	-1.303600e-04
2.902227e+01	-1.318702e-04
2.918990e+01	-1.333979e-04
2.935850e+01	-1.349434e-04
2.952807e+01	-1.365067e-04
2.969863e+01	-1.380881e-04
2.987016e+01	-1.396879e-04
3.004269e+01	-1.413062e-04
3.021622e+01	-1.429432e-04
3.039075e+01	-1.445993e-04
3.056628e+01	-1.462744e-04
3.074283e+01	-1.479690e-04
3.092040e+01	-1.496833e-04
3.109900e+01	-1.514174e-04
3.127862e+01	-1.531716e-04
3.145929e+01	-1.549461e-04
3.164099e+01	-1.567411e-04
3.182375e+01	-1.585570e-04
3.200756e+01	-1.603939e-04
3.219244e+01	-1.622520e-04
3.237838e+01	-1.641317e-04
3.256540e+01	-1.660332e-04
3.275349e+01	-1.679567e-04
3.294268e+01	-1.699025e-04
3.313295e+01	-1.718708e-04
3.332433e+01	-1.738620e-04
3.351681e+01	-1.758762e-04
3.371040e+01	-1.779137e-04
3.390511e+01	-1.799748e-04
3.410094e+01	-1.820599e-04
3.429791e+01	-1.841690e-04
3.449601e+01	-1.863026e-04
3.469526e+01	-1.884609e-04
3.489566e+01	-1.906443e-04
3.509721e+01	-1.928529e-04
3.529993e+01	-1.950871e-04
3.550382e+01	-1.973472e-04
3.570889e+01	-1.996335e-04
3.591515e+01	-2.019462e-04
3.612259e+01	-2.042858e-04
3.633123e+01	-2.066524e-04
3.654108e+01	-2.090465e-04
3.675214e+01	-2.114683e-04
3.696442e+01	-2.139181e-04
3.717792e+01	-2.163964e-04
3.739266e+01	-2.189033e-04
3.760864e+01	-2.214393e-04
3.782587e+01	-2.240047e-04
3.804435e+01	-2.265998e-04
3.826409e+01	-2.292249e-04
3.848510e+01	-2.318805e-04
3.870739e+01	-2.345668e-04
3.893096e+01	-2.372843e-04
3.915583e+01	-2.400332e-04
3.938199e+01	-2.428140e-04
3.960946e+01	-2.456270e-04
3.983824e+01	-2.484725e-04
4.006834e+01	-2.513511e-04
4.029978e+01	-2.542630e-04
4.053255e+01	-2.572086e-04
4.076666e+01	-2.601883e-04
4.100213e+01	-2.632026e-04
4.123896e+01	-2.662518e-04
4.147715e+01	-2.693363e-04
4.171672e+01	-2.724565e-04
4.195767e+01	-2.756129e-04
4.220002e+01	-2.788058e-04
4.244377e+01	-2.820358e-04
4.268892e+01	-2.853031e-04
4.293549e+01	-2.886083e-04
4.318348e+01	-2.919518e-04
4.343291e+01	-2.953341e-04
4.368377e+01	-2.987555e-04
4.393609e+01	-3.022165e-04
4.418986e+01	-3.057177e-04
4.444510e+01	-3.092594e-04
4.470182e+01	-3.128421e-04
4.496001e+01	-3.164663e-04
4.521970e+01	-3.201325e-04
4.548089e+01	-3.238412e-04
4.574358e+01	-3.275929e-04
4.600779e+01	-3.313880e-04
4.627353e+01	-3.352270e-04
4.654081e+01	-3.391106e-04
4.680963e+01	-3.430391e-04
4.708000e+01	-3.470132e-04
4.735193e+01	-3.510333e-04
4.762543e+01	-3.550999e-04
4.790051e+01	-3.592137e-04
4.817719e+01	-3.633751e-04
4.845545e+01	-3.675847e-04
4.873533e+01	-3.718431e-04
4.901682e+01	-3.761508e-04
4.929994e+01	-3.805084e-04
4.958470e+01	-3.849165e-04
4.987110e+01	-3.893757e-04
5.015915e+01	-3.938865e-04
5.044887e+01	-3.984496e-04
5.074026e+01	-4.030655e-04
5.103333e+01	-4.077349e-04
5.132810e+01	-4.124584e-04
5.162457e+01	-4.172366e-04
5.192275e+01	-4.220702e-04
5.222265e+01	-4.269598e-04
5.252429e+01	-4.319060e-04
5.282767e+01	-4.369095e-04
5.313280e+01	-4.419709e-04
5.343969e+01	-4.470910e-04
5.374836e+01	-4.522704e-04
5.405880e+01	-4.575098e-04
5.437105e+01	-4.628099e-04
5.468509e+01	-4.681714e-04
5.500095e+01	-4.735950e-04
5.531863e+01	-4.790814e-04
5.563815e+01	-4.846314e-04
5.595951e+01	-4.902457e-04
5.628273e+01	-4.959250e-04
5.660782e+01	-5.016701e-04
5.693479e+01	-5.074817e-04
5.726364e+01	-5.133607e-04
5.759439e+01	-5.193078e-04
5.792705e+01	-5.253237e-04
5.826164e+01	-5.314094e-04
5.859815e+01	-5.375655e-04
5.893662e+01	-5.437930e-04
5.927703e+01	-5.500926e-04
5.961941e+01	-5.564652e-04
5.996377e+01	-5.629115e-04
6.031012e+01	-5.694326e-04
6.065847e+01	-5.760292e-04
6.100883e+01	-5.827022e-04
6.136121e+01	-5.894525e-04
6.171563e+01	-5.962810e-04
6.207210e+01	-6.031886e-04
6.243063e+01	-6.101762e-04
6.279122e+01	-6.172448e-04
6.315390e+01	-6.243952e-04
6.351868e+01	-6.316285e-04
6.388556e+01	-6.389455e-04
6.425456e+01	-6.463473e-04
6.462569e+01	-6.538349e-04
6.499897e+01	-6.614092e-04
6.537440e+01	-6.690712e-04
6.575200e+01	-6.768220e-04
6.613178e+01	-6.846625e-04
6.651375e+01	-6.925939e-04
6.689793e+01	-7.006171e-04
6.728433e+01	-7.087333e-04
6.767297e+01	-7.169435e-04
6.806384e+01	-7.252488e-04
6.845698e+01	-7.336503e-04
6.885238e+01	-7.421491e-04
6.925007e+01	-7.507464e-04
6.965005e+01	-7.594432e-04
7.005235e+01	-7.682408e-04
7.045697e+01	-7.771403e-04
7.086393e+01	-7.861428e-04
7.127323e+01	-7.952497e-04
7.168490e+01	-8.044620e-04
7.209895e+01	-8.137810e-04
7.251539e+01	-8.232080e-04
7.293424e+01	-8.327442e-04
7.335551e+01	-8.423908e-04
7.377920e+01	-8.521492e-04
7.420535e+01	-8.620206e-04
7.463396e+01	-8.720063e-04
7.506504e+01	-8.821078e-04
7.549861e+01	-8.923262e-04
7.593469e+01	-9.026629e-04
7.637328e+01	-9.131194e-04
7.681441e+01	-9.236970e-04
7.725809e+01	-9.343972e-04
7.770433e+01	-9.452212e-04
7.815315e+01	-9.561707e-04
7.860456e+01	-9.672469e-04
7.905857e+01	-9.784515e-04
7.951521e+01	-9.897858e-04
7.997449e+01	-1.001251e-03
8.043642e+01	-1.012850e-03
8.090102e+01	-1.024583e-03
8.136830e+01	-1.036451e-03
8.183828e+01	-1.048457e-03
8.231097e+01	-1.060603e-03
8.278640e+01	-1.072888e-03
8.326457e+01	-1.085317e-03
8.374550e+01	-1.097889e-03
8.422921e+01	-1.110606e-03
8.471572e+01	-1.123471e-03
8.520503e+01	-1.136485e-03
8.569717e+01	-1.149650e-03
8.619215e+01	-1.162967e-03
8.669000e+01	-1.176439e-03
8.719071e+01	-1.190066e-03
8.769432e+01	-1.203852e-03
8.820084e+01	-1.217797e-03
8.871029e+01	-1.231903e-03
8.922267e+01	-1.246173e-03
8.973802e+01	-1.260608e-03
9.025634e+01	-1.275211e-03
9.077766e+01	-1.289982e-03
9.130199e+01	-1.304925e-03
9.182935e+01	-1.320040e-03
9.235975e+01	-1.335331e-03
9.289321e+01	-1.350799e-03
9.342976e+01	-1.366446e-03
9.396941e+01	-1.382274e-03
9.451217e+01	-1.398285e-03
9.505807e+01	-1.414482e-03
9.560712e+01	-1.430866e-03
9.615934e+01	-1.447441e-03
9.671476e+01	-1.464207e-03
9.727338e+01	-1.481167e-03
9.783522e+01	-1.498324e-03
9.840032e+01	-1.515679e-03
9.896867e+01	-1.533236e-03
9.954031e+01	-1.550996e-03
1.001153e+02	-1.568961e-03
1.006935e+02	-1.587134e-03
1.012751e+02	-1.605518e-03
1.018601e+02	-1.624115e-03
1.024484e+02	-1.642928e-03
1.030402e+02	-1.661958e-03
1.036353e+02	-1.681208e-03
1.042339e+02	-1.700682e-03
1.048360e+02	-1.720381e-03
1.054415e+02	-1.740308e-03
1.060505e+02	-1.760466e-03
1.066631e+02	-1.780857e-03
1.072791e+02	-1.801484e-03
1.078988e+02	-1.822351e-03
1.085220e+02	-1.843458e-03
1.091488e+02	-1.864811e-03
1.097793e+02	-1.886410e-03
1.104133e+02	-1.908260e-03
1.110511e+02	-1.930363e-03
1.116925e+02	-1.952722e-03
1.123376e+02	-1.975339e-03
1.129865e+02	-1.998219e-03
1.136391e+02	-2.021363e-03
1.142955e+02	-2.044776e-03
1.149556e+02	-2.068460e-03
1.156196e+02	-2.092417e-03
1.162874e+02	-2.116653e-03
1.169591e+02	-2.141169e-03
1.176347e+02	-2.165969e-03
1.183141e+02	-2.191056e-03
1.189975e+02	-2.216433e-03
1.196848e+02	-2.242104e-03
1.203761e+02	-2.268073e-03
1.210714e+02	-2.294342e-03
1.217707e+02	-2.320916e-03
1.224740e+02	-2.347797e-03
1.231814e+02	-2.374989e-03
1.238929e+02	-2.402496e-03
1.246085e+02	-2.430322e-03
1.253283e+02	-2.458470e-03
1.260522e+02	-2.486944e-03
1.267802e+02	-2.515748e-03
1.275125e+02	-2.544885e-03
1.282490e+02	-2.574359e-03
1.289898e+02	-2.604175e-03
1.297348e+02	-2.634336e-03
1.304842e+02	-2.664846e-03
1.312378e+02	-2.695709e-03
1.319959e+02	-2.726930e-03
1.327583e+02	-2.758512e-03
1.335251e+02	-2.790460e-03
1.342963e+02	-2.822777e-03
1.350720e+02	-2.855469e-03
1.358522e+02	-2.888540e-03
1.366368e+02	-2.921993e-03
1.374260e+02	-2.955833e-03
1.382198e+02	-2.990066e-03
1.390182e+02	-3.024694e-03
1.398211e+02	-3.059724e-03
1.406287e+02	-3.095159e-03
1.414410e+02	-3.131004e-03
1.422579e+02	-3.167264e-03
1.430796e+02	-3.203944e-03
1.439060e+02	-3.241049e-03
1.447372e+02	-3.278583e-03
1.455732e+02	-3.316552e-03
1.464141e+02	-3.354960e-03
1.472597e+02	-3.393813e-03
1.481103e+02	-3.433116e-03
1.489658e+02	-3.472873e-03
1.498262e+02	-3.513091e-03
1.506916e+02	-3.553775e-03
1.515620e+02	-3.594929e-03
1.524374e+02	-3.636560e-03
1.533179e+02	-3.678672e-03
1.542034e+02	-3.721272e-03
1.550941e+02	-3.764365e-03
1.559899e+02	-3.807957e-03
1.568909e+02	-3.852054e-03
1.577971e+02	-3.896661e-03
1.587085e+02	-3.941784e-03
1.596252e+02	-3.987430e-03
1.605472e+02	-4.033604e-03
1.614745e+02	-4.080312e-03
1.624072e+02	-4.127561e-03
1.633453e+02	-4.175357e-03
1.642887e+02	-4.223706e-03
1.652377e+02	-4.272615e-03
1.661921e+02	-4.322089e-03
1.671520e+02	-4.372136e-03
1.681175e+02	-4.422763e-03
1.690885e+02	-4.473975e-03
1.700651e+02	-4.525780e-03
1.710474e+02	-4.578185e-03
1.720354e+02	-4.631196e-03
1.730291e+02	-4.684821e-03
1.740285e+02	-4.739066e-03
1.750337e+02	-4.793939e-03
1.760446e+02	-4.849447e-03
1.770615e+02	-4.905597e-03
1.780842e+02	-4.962397e-03
1.791128e+02	-5.019855e-03
1.801473e+02	-5.077977e-03
1.811878e+02	-5.136772e-03
1.822344e+02	-5.196247e-03
1.832870e+02	-5.256410e-03
1.843456e+02	-5.317270e-03
1.854104e+02	-5.378833e-03
1.864813e+02	-5.441109e-03
1.875584e+02	-5.504106e-03
1.886418e+02	-5.567831e-03
1.897313e+02	-5.632294e-03
1.908272e+02	-5.697503e-03
1.919294e+02	-5.763466e-03
1.930380e+02	-5.830192e-03
1.941530e+02	-5.897690e-03
1.952744e+02	-5.965970e-03
1.964023e+02	-6.035039e-03
1.975367e+02	-6.104907e-03
1.986777e+02	-6.175583e-03
1.998252e+02	-6.247078e-03
2.009794e+02	-6.319399e-03
2.021403e+02	-6.392557e-03
2.033078e+02	-6.466561e-03
2.044821e+02	-6.541421e-03
2.056632e+02	-6.617147e-03
2.068511e+02	-6.693749e-03
2.080459e+02	-6.771237e-03
2.092475e+02	-6.849622e-03
2.104561e+02	-6.928913e-03
2.116717e+02	-7.009121e-03
2.128943e+02	-7.090257e-03
2.141240e+02	-7.172331e-03
2.153608e+02	-7.255355e-03
2.166047e+02	-7.339339e-03
2.178558e+02	-7.424294e-03
2.191141e+02	-7.510232e-03
2.203797e+02	-7.597164e-03
2.216526e+02	-7.685101e-03
2.229329e+02	-7.774054e-03
2.242205e+02	-7.864037e-03
2.255156e+02	-7.955060e-03
2.268182e+02	-8.047136e-03
2.281283e+02	-8.140276e-03
2.294459e+02	-8.234494e-03
2.307712e+02	-8.329801e-03
2.321041e+02	-8.426210e-03
2.334447e+02	-8.523733e-03
2.347931e+02	-8.622385e-03
2.361493e+02	-8.722177e-03
2.375133e+02	-8.823122e-03
2.388851e+02	-8.925235e-03
2.402649e+02	-9.028528e-03
2.416527e+02	-9.133016e-03
2.430484e+02	-9.238711e-03
2.444523e+02	-9.345628e-03
2.458642e+02	-9.453782e-03
2.472843e+02	-9.563185e-03
2.487126e+02	-9.673853e-03
2.501492e+02	-9.785801e-03
2.515940e+02	-9.899042e-03
2.530472e+02	-1.001359e-02
2.545088e+02	-1.012947e-02
2.559789e+02	-1.024668e-02
2.574574e+02	-1.036525e-02
2.589444e+02	-1.048519e-02
2.604401e+02	-1.060651e-02
2.619444e+02	-1.072924e-02
2.634574e+02	-1.085338e-02
2.649791e+02	-1.097896e-02
2.665096e+02	-1.110599e-02
2.680489e+02	-1.123449e-02
2.695972e+02	-1.136448e-02
2.711544e+02	-1.149596e-02
2.727205e+02	-1.162897e-02
2.742958e+02	-1.176351e-02
2.758801e+02	-1.189960e-02
2.774736e+02	-1.203727e-02
2.790762e+02	-1.217653e-02
2.806882e+02	-1.231740e-02
2.823094e+02	-1.245989e-02
2.839400e+02	-1.260403e-02
2.855800e+02	-1.274984e-02
2.872295e+02	-1.289733e-02
2.888886e+02	-1.304652e-02
2.905572e+02	-1.319744e-02
2.922354e+02	-1.335010e-02
2.939234e+02	-1.350452e-02
2.956211e+02	-1.366073e-02
2.973286e+02	-1.381874e-02
2.990459e+02	-1.397857e-02
3.007732e+02	-1.414025e-02
3.025104e+02	-1.430380e-02
3.042577e+02	-1.446924e-02
3.060151e+02	-1.463658e-02
3.077826e+02	-1.480586e-02
3.095604e+02	-1.497710e-02
3.113484e+02	-1.515031e-02
3.131467e+02	-1.532551e-02
3.149554e+02	-1.550275e-02
3.167746e+02	-1.568202e-02
3.186043e+02	-1.586337e-02
3.204445e+02	-1.604681e-02
3.222954e+02	-1.623237e-02
3.241570e+02	-1.642007e-02
3.260293e+02	-1.660993e-02
3.279124e+02	-1.680199e-02
3.298064e+02	-1.699626e-02
3.317114e+02	-1.719278e-02
3.336273e+02	-1.739156e-02
3.355544e+02	-1.759264e-02
3.374925e+02	-1.779603e-02
3.394418e+02	-1.800178e-02
3.414024e+02	-1.820989e-02
3.433744e+02	-1.842041e-02
3.453577e+02	-1.863335e-02
3.473525e+02	-1.884876e-02
3.493588e+02	-1.906664e-02
3.513766e+02	-1.928704e-02
3.534062e+02	-1.950998e-02
3.554474e+02	-1.973550e-02
3.575005e+02	-1.996361e-02
3.595654e+02	-2.019435e-02
3.616422e+02	-2.042776e-02
3.637311e+02	-2.066385e-02
3.658320e+02	-2.090267e-02
3.679450e+02	-2.114424e-02
3.700702e+02	-2.138860e-02
3.722077e+02	-2.163577e-02
3.743576e+02	-2.188579e-02
3.765199e+02	-2.213870e-02
3.786946e+02	-2.239452e-02
3.808820e+02	-2.265328e-02
3.830819e+02	-2.291503e-02
3.852946e+02	-2.317980e-02
3.875200e+02	-2.344761e-02
3.897583e+02	-2.371852e-02
3.920096e+02	-2.399254e-02
3.942738e+02	-2.426972e-02
3.965511e+02	-2.455009e-02
3.988416e+02	-2.483370e-02
4.011452e+02	-2.512057e-02
4.034622e+02	-2.541074e-02
4.057926e+02	-2.570426e-02
4.081365e+02	-2.600115e-02
4.104938e+02	-2.630147e-02
4.128648e+02	-2.660524e-02
4.152495e+02	-2.691251e-02
4.176480e+02	-2.722332e-02
4.200603e+02	-2.753770e-02
4.224866e+02	-2.785571e-02
4.249268e+02	-2.817737e-02
4.273812e+02	-2.850274e-02
4.298497e+02	-2.883185e-02
4.323325e+02	-2.916475e-02
4.348297e+02	-2.950148e-02
4.373412e+02	-2.984208e-02
4.398673e+02	-3.018661e-02
4.424079e+02	-3.053509e-02
4.449633e+02	-3.088759e-02
4.475334e+02	-3.124414e-02
4.501183e+02	-3.160479e-02
4.527182e+02	-3.196958e-02
4.553330e+02	-3.233858e-02
4.579630e+02	-3.271181e-02
4.606082e+02	-3.308934e-02
4.632687e+02	-3.347121e-02
4.659445e+02	-3.385746e-02
4.686358e+02	-3.424816e-02
4.713426e+02	-3.464334e-02
4.740650e+02	-3.504307e-02
4.768032e+02	-3.544739e-02
4.795572e+02	-3.585636e-02
4.823271e+02	-3.627002e-02
4.851130e+02	-3.668844e-02
4.879150e+02	-3.711167e-02
4.907332e+02	-3.753975e-02
4.935676e+02	-3.797275e-02
4.964185e+02	-3.841072e-02
4.992858e+02	-3.885373e-02
5.021696e+02	-3.930181e-02
5.050701e+02	-3.975505e-02
5.079874e+02	-4.021348e-02
5.109215e+02	-4.067718e-02
5.138726e+02	-4.114619e-02
5.168407e+02	-4.162059e-02
5.198259e+02	-4.210044e-02
5.228284e+02	-4.258578e-02
5.258482e+02	-4.307670e-02
5.288855e+02	-4.357324e-02
5.319403e+02	-4.407548e-02
5.350128e+02	-4.458348e-02
5.381030e+02	-4.509730e-02
5.412111e+02	-4.561702e-02
5.443371e+02	-4.614269e-02
5.474812e+02	-4.667438e-02
5.506434e+02	-4.721217e-02
5.538239e+02	-4.775612e-02
5.570228e+02	-4.830631e-02
5.602401e+02	-4.886279e-02
5.634760e+02	-4.942565e-02
5.667306e+02	-4.999496e-02
5.700040e+02	-5.057078e-02
5.732964e+02	-5.115320e-02
5.766077e+02	-5.174229e-02
5.799382e+02	-5.233812e-02
5.832879e+02	-5.294076e-02
5.866569e+02	-5.355031e-02
5.900454e+02	-5.416683e-02
5.934535e+02	-5.479040e-02
5.968813e+02	-5.542110e-02
6.003288e+02	-5.605902e-02
6.037963e+02	-5.670423e-02
6.072838e+02	-5.735682e-02
6.107914e+02	-5.801687e-02
6.143194e+02	-5.868446e-02
6.178676e+02	-5.935968e-02
6.214364e+02	-6.004262e-02
6.250258e+02	-6.073336e-02
6.286359e+02	-6.143199e-02
6.322669e+02	-6.213859e-02
6.359189e+02	-6.285327e-02
6.395919e+02	-6.357611e-02
6.432862e+02	-6.430719e-02
6.470017e+02	-6.504662e-02
6.507388e+02	-6.579449e-02
6.544974e+02	-6.655089e-02
6.582778e+02	-6.731592e-02
6.620800e+02	-6.808967e-02
6.659041e+02	-6.887225e-02
6.697504e+02	-6.966375e-02
6.736188e+02	-7.046427e-02
6.775096e+02	-7.127392e-02
6.814229e+02	-7.209279e-02
6.853587e+02	-7.292098e-02
6.893173e+02	-7.375862e-02
6.932988e+02	-7.460579e-02
6.973033e+02	-7.546260e-02
7.013309e+02	-7.632917e-02
