Frequency(Hz)	Magnitude(dB)
1.000000e+01	-1.772721e-05
1.005776e+01	-1.793258e-05
1.011585e+01	-1.814033e-05
1.017428e+01	-1.835049e-05
1.023305e+01	-1.856309e-05
1.029215e+01	-1.877815e-05
1.035160e+01	-1.899570e-05
1.041139e+01	-1.921577e-05
1.047153e+01	-1.943839e-05
1.053201e+01	-1.966359e-05
1.059284e+01	-1.989139e-05
1.065403e+01	-2.012184e-05
1.071556e+01	-2.035496e-05
1.077746e+01	-2.059077e-05
1.083971e+01	-2.082932e-05
1.090232e+01	-2.107064e-05
1.096529e+01	-2.131474e-05
1.102862e+01	-2.156168e-05
1.109232e+01	-2.181148e-05
1.115639e+01	-2.206417e-05
1.122083e+01	-2.231979e-05
1.128564e+01	-2.257837e-05
1.135083e+01	-2.283995e-05
1.141639e+01	-2.310455e-05
1.148233e+01	-2.337222e-05
1.154865e+01	-2.364300e-05
1.161536e+01	-2.391691e-05
1.168245e+01	-2.419399e-05
1.174992e+01	-2.447428e-05
1.181779e+01	-2.475782e-05
1.188605e+01	-2.504465e-05
1.195470e+01	-2.533480e-05
1.202375e+01	-2.562831e-05
1.209320e+01	-2.592522e-05
1.216305e+01	-2.622557e-05
1.223330e+01	-2.652940e-05
1.230396e+01	-2.683675e-05
1.237503e+01	-2.714766e-05
1.244651e+01	-2.746217e-05
1.251840e+01	-2.778033e-05
1.259070e+01	-2.810217e-05
1.266343e+01	-2.842774e-05
1.273657e+01	-2.875708e-05
1.281014e+01	-2.909024e-05
1.288413e+01	-2.942726e-05
1.295855e+01	-2.976818e-05
1.303339e+01	-3.011305e-05
1.310867e+01	-3.046192e-05
1.318439e+01	-3.081482e-05
1.326054e+01	-3.117182e-05
1.333713e+01	-3.153295e-05
1.341417e+01	-3.189827e-05
1.349165e+01	-3.226782e-05
1.356958e+01	-3.264165e-05
1.364795e+01	-3.301981e-05
1.372678e+01	-3.340235e-05
1.380607e+01	-3.378933e-05
1.388581e+01	-3.418079e-05
1.396602e+01	-3.457678e-05
1.404668e+01	-3.497736e-05
1.412782e+01	-3.538258e-05
1.420942e+01	-3.579249e-05
1.429149e+01	-3.620716e-05
1.437404e+01	-3.662663e-05
1.445706e+01	-3.705095e-05
1.454057e+01	-3.748020e-05
1.462455e+01	-3.791442e-05
1.470902e+01	-3.835366e-05
1.479398e+01	-3.879800e-05
1.487943e+01	-3.924748e-05
1.496537e+01	-3.970217e-05
1.505181e+01	-4.016213e-05
1.513875e+01	-4.062742e-05
1.522619e+01	-4.109810e-05
1.531414e+01	-4.157423e-05
1.540259e+01	-4.205587e-05
1.549156e+01	-4.254310e-05
1.558103e+01	-4.303597e-05
1.567103e+01	-4.353455e-05
1.576155e+01	-4.403891e-05
1.585258e+01	-4.454911e-05
1.594415e+01	-4.506522e-05
1.603624e+01	-4.558731e-05
1.612886e+01	-4.611545e-05
1.622202e+01	-4.664971e-05
1.631572e+01	-4.719016e-05
1.640996e+01	-4.773686e-05
1.650474e+01	-4.828991e-05
1.660008e+01	-4.884936e-05
1.669596e+01	-4.941529e-05
1.679239e+01	-4.998777e-05
1.688938e+01	-5.056689e-05
1.698694e+01	-5.115272e-05
1.708505e+01	-5.174533e-05
1.718373e+01	-5.234482e-05
1.728299e+01	-5.295124e-05
1.738281e+01	-5.356469e-05
1.748322e+01	-5.418525e-05
1.758420e+01	-5.481300e-05
1.768576e+01	-5.544802e-05
1.778792e+01	-5.609039e-05
1.789066e+01	-5.674021e-05
1.799399e+01	-5.739756e-05
1.809793e+01	-5.806252e-05
1.820246e+01	-5.873519e-05
1.830760e+01	-5.941565e-05
1.841334e+01	-6.010399e-05
1.851969e+01	-6.080031e-05
1.862666e+01	-6.150469e-05
1.873425e+01	-6.221723e-05
1.884246e+01	-6.293803e-05
1.895129e+01	-6.366718e-05
1.906075e+01	-6.440478e-05
1.917085e+01	-6.515092e-05
1.928158e+01	-6.590571e-05
1.939295e+01	-6.666924e-05
1.950496e+01	-6.744161e-05
1.961762e+01	-6.822294e-05
1.973093e+01	-6.901331e-05
1.984490e+01	-6.981284e-05
1.995952e+01	-7.062164e-05
2.007480e+01	-7.143980e-05
2.019076e+01	-7.226745e-05
2.030738e+01	-7.310468e-05
2.042467e+01	-7.395161e-05
2.054264e+01	-7.480835e-05
2.066130e+01	-7.567502e-05
2.078064e+01	-7.655173e-05
2.090066e+01	-7.743859e-05
2.102139e+01	-7.833573e-05
2.114280e+01	-7.924327e-05
2.126492e+01	-8.016131e-05
2.138775e+01	-8.109000e-05
2.151128e+01	-8.202944e-05
2.163553e+01	-8.297976e-05
2.176050e+01	-8.394110e-05
2.188619e+01	-8.491357e-05
2.201260e+01	-8.589730e-05
2.213974e+01	-8.689244e-05
2.226762e+01	-8.789910e-05
2.239624e+01	-8.891743e-05
2.252560e+01	-8.994755e-05
2.265571e+01	-9.098961e-05
2.278656e+01	-9.204374e-05
2.291818e+01	-9.311008e-05
2.305055e+01	-9.418877e-05
2.318369e+01	-9.527996e-05
2.331760e+01	-9.638380e-05
2.345228e+01	-9.750042e-05
2.358774e+01	-9.862997e-05
2.372398e+01	-9.977262e-05
2.386101e+01	-1.009285e-04
2.399883e+01	-1.020978e-04
2.413745e+01	-1.032806e-04
2.427686e+01	-1.044771e-04
2.441709e+01	-1.056875e-04
2.455812e+01	-1.069119e-04
2.469997e+01	-1.081505e-04
2.484263e+01	-1.094034e-04
2.498612e+01	-1.106709e-04
2.513044e+01	-1.119530e-04
2.527559e+01	-1.132500e-04
2.542158e+01	-1.145620e-04
2.556842e+01	-1.158892e-04
2.571610e+01	-1.172318e-04
2.586463e+01	-1.185900e-04
2.601403e+01	-1.199638e-04
2.616428e+01	-1.213536e-04
2.631541e+01	-1.227595e-04
2.646740e+01	-1.241817e-04
2.662028e+01	-1.256204e-04
2.677404e+01	-1.270757e-04
2.692868e+01	-1.285479e-04
2.708422e+01	-1.300371e-04
2.724066e+01	-1.315436e-04
2.739800e+01	-1.330676e-04
2.755625e+01	-1.346092e-04
2.771541e+01	-1.361686e-04
2.787550e+01	-1.377462e-04
2.803650e+01	-1.393420e-04
2.819844e+01	-1.409562e-04
2.836131e+01	-1.425892e-04
2.852513e+01	-1.442411e-04
2.868989e+01	-1.459122e-04
2.885560e+01	-1.476026e-04
2.902227e+01	-1.493126e-04
2.918990e+01	-1.510424e-04
2.935850e+01	-1.527922e-04
2.952807e+01	-1.545623e-04
2.969863e+01	-1.563529e-04
2.987016e+01	-1.581643e-04
3.004269e+01	-1.599966e-04
3.021622e+01	-1.618502e-04
3.039075e+01	-1.637253e-04
3.056628e+01	-1.656220e-04
3.074283e+01	-1.675408e-04
3.092040e+01	-1.694817e-04
3.109900e+01	-1.714452e-04
3.127862e+01	-1.734314e-04
3.145929e+01	-1.754406e-04
3.164099e+01	-1.774731e-04
3.182375e+01	-1.795291e-04
3.200756e+01	-1.816090e-04
3.219244e+01	-1.837129e-04
3.237838e+01	-1.858412e-04
3.256540e+01	-1.879942e-04
3.275349e+01	-1.901721e-04
3.294268e+01	-1.923753e-04
3.313295e+01	-1.946040e-04
3.332433e+01	-1.968584e-04
3.351681e+01	-1.991391e-04
3.371040e+01	-2.014461e-04
3.390511e+01	-2.037798e-04
3.410094e+01	-2.061406e-04
3.429791e+01	-2.085288e-04
3.449601e+01	-2.109446e-04
3.469526e+01	-2.133884e-04
3.489566e+01	-2.158605e-04
3.509721e+01	-2.183612e-04
3.529993e+01	-2.208909e-04
3.550382e+01	-2.234499e-04
3.570889e+01	-2.260386e-04
3.591515e+01	-2.286572e-04
3.612259e+01	-2.313062e-04
3.633123e+01	-2.339859e-04
3.654108e+01	-2.366966e-04
3.675214e+01	-2.394387e-04
3.696442e+01	-2.422126e-04
3.717792e+01	-2.450187e-04
3.739266e+01	-2.478572e-04
3.760864e+01	-2.507286e-04
3.782587e+01	-2.536333e-04
3.804435e+01	-2.565716e-04
3.826409e+01	-2.595440e-04
3.848510e+01	-2.625508e-04
3.870739e+01	-2.655924e-04
3.893096e+01	-2.686693e-04
3.915583e+01	-2.717818e-04
3.938199e+01	-2.749303e-04
3.960946e+01	-2.781154e-04
3.983824e+01	-2.813373e-04
4.006834e+01	-2.845966e-04
4.029978e+01	-2.878936e-04
4.053255e+01	-2.912288e-04
4.076666e+01	-2.946027e-04
4.100213e+01	-2.980156e-04
4.123896e+01	-3.014681e-04
4.147715e+01	-3.049605e-04
4.171672e+01	-3.084935e-04
4.195767e+01	-3.120673e-04
4.220002e+01	-3.156826e-04
4.244377e+01	-3.193397e-04
4.268892e+01	-3.230392e-04
4.293549e+01	-3.267816e-04
4.318348e+01	-3.305673e-04
4.343291e+01	-3.343969e-04
4.368377e+01	-3.382708e-04
4.393609e+01	-3.421896e-04
4.418986e+01	-3.461538e-04
4.444510e+01	-3.501639e-04
4.470182e+01	-3.542205e-04
4.496001e+01	-3.583241e-04
4.521970e+01	-3.624752e-04
4.548089e+01	-3.666744e-04
4.574358e+01	-3.709222e-04
4.600779e+01	-3.752193e-04
4.627353e+01	-3.795661e-04
4.654081e+01	-3.839633e-04
4.680963e+01	-3.884114e-04
4.708000e+01	-3.929111e-04
4.735193e+01	-3.974628e-04
4.762543e+01	-4.020674e-04
4.790051e+01	-4.067252e-04
4.817719e+01	-4.114370e-04
4.845545e+01	-4.162034e-04
4.873533e+01	-4.210250e-04
4.901682e+01	-4.259024e-04
4.929994e+01	-4.308364e-04
4.958470e+01	-4.358275e-04
4.987110e+01	-4.408764e-04
5.015915e+01	-4.459838e-04
5.044887e+01	-4.511504e-04
5.074026e+01	-4.563768e-04
5.103333e+01	-4.616638e-04
5.132810e+01	-4.670120e-04
5.162457e+01	-4.724222e-04
5.192275e+01	-4.778950e-04
5.222265e+01	-4.834313e-04
5.252429e+01	-4.890316e-04
5.282767e+01	-4.946969e-04
5.313280e+01	-5.004278e-04
5.343969e+01	-5.062250e-04
5.374836e+01	-5.120894e-04
5.405880e+01	-5.180218e-04
5.437105e+01	-5.240228e-04
5.468509e+01	-5.300934e-04
5.500095e+01	-5.362343e-04
5.531863e+01	-5.424463e-04
5.563815e+01	-5.487303e-04
5.595951e+01	-5.550871e-04
5.628273e+01	-5.615175e-04
5.660782e+01	-5.680225e-04
5.693479e+01	-5.746027e-04
5.726364e+01	-5.812592e-04
5.759439e+01	-5.879928e-04
5.792705e+01	-5.948044e-04
5.826164e+01	-6.016949e-04
5.859815e+01	-6.086652e-04
5.893662e+01	-6.157162e-04
5.927703e+01	-6.228490e-04
5.961941e+01	-6.300643e-04
5.996377e+01	-6.373633e-04
6.031012e+01	-6.447467e-04
6.065847e+01	-6.522158e-04
6.100883e+01	-6.597713e-04
6.136121e+01	-6.674143e-04
6.171563e+01	-6.751459e-04
6.207210e+01	-6.829670e-04
6.243063e+01	-6.908788e-04
6.279122e+01	-6.988821e-04
6.315390e+01	-7.069782e-04
6.351868e+01	-7.151681e-04
6.388556e+01	-7.234528e-04
6.425456e+01	-7.318335e-04
6.462569e+01	-7.403113e-04
6.499897e+01	-7.488873e-04
6.537440e+01	-7.575626e-04
6.575200e+01	-7.663384e-04
6.613178e+01	-7.752158e-04
6.651375e+01	-7.841961e-04
6.689793e+01	-7.932804e-04
6.728433e+01	-8.024699e-04
6.767297e+01	-8.117659e-04
6.806384e+01	-8.211695e-04
6.845698e+01	-8.306821e-04
6.885238e+01	-8.403048e-04
6.925007e+01	-8.500390e-04
6.965005e+01	-8.598860e-04
7.005235e+01	-8.698470e-04
7.045697e+01	-8.799234e-04
7.086393e+01	-8.901165e-04
7.127323e+01	-9.004277e-04
7.168490e+01	-9.108583e-04
7.209895e+01	-9.214097e-04
7.251539e+01	-9.320833e-04
7.293424e+01	-9.428806e-04
7.335551e+01	-9.538029e-04
7.377920e+01	-9.648518e-04
7.420535e+01	-9.760286e-04
7.463396e+01	-9.873349e-04
7.506504e+01	-9.987721e-04
7.549861e+01	-1.010342e-03
7.593469e+01	-1.022046e-03
7.637328e+01	-1.033885e-03
7.681441e+01	-1.045861e-03
7.725809e+01	-1.057976e-03
7.770433e+01	-1.070232e-03
7.815315e+01	-1.082629e-03
7.860456e+01	-1.095170e-03
7.905857e+01	-1.107856e-03
7.951521e+01	-1.120689e-03
7.997449e+01	-1.133671e-03
8.043642e+01	-1.146803e-03
8.090102e+01	-1.160088e-03
8.136830e+01	-1.173526e-03
8.183828e+01	-1.187120e-03
8.231097e+01	-1.200871e-03
8.278640e+01	-1.214781e-03
8.326457e+01	-1.228853e-03
8.374550e+01	-1.243087e-03
8.422921e+01	-1.257487e-03
8.471572e+01	-1.272053e-03
8.520503e+01	-1.286788e-03
8.569717e+01	-1.301693e-03
8.619215e+01	-1.316772e-03
8.669000e+01	-1.332024e-03
8.719071e+01	-1.347454e-03
8.769432e+01	-1.363062e-03
8.820084e+01	-1.378851e-03
8.871029e+01	-1.394823e-03
8.922267e+01	-1.410980e-03
8.973802e+01	-1.427323e-03
9.025634e+01	-1.443857e-03
9.077766e+01	-1.460581e-03
9.130199e+01	-1.477500e-03
9.182935e+01	-1.494614e-03
9.235975e+01	-1.511926e-03
9.289321e+01	-1.529439e-03
9.342976e+01	-1.547155e-03
9.396941e+01	-1.565076e-03
9.451217e+01	-1.583205e-03
9.505807e+01	-1.601543e-03
9.560712e+01	-1.620094e-03
9.615934e+01	-1.638860e-03
9.671476e+01	-1.657843e-03
9.727338e+01	-1.677046e-03
9.783522e+01	-1.696471e-03
9.840032e+01	-1.716121e-03
9.896867e+01	-1.735999e-03
9.954031e+01	-1.756107e-03
1.001153e+02	-1.776447e-03
1.006935e+02	-1.797024e-03
1.012751e+02	-1.817838e-03
1.018601e+02	-1.838894e-03
1.024484e+02	-1.860194e-03
1.030402e+02	-1.881740e-03
1.036353e+02	-1.903536e-03
1.042339e+02	-1.925584e-03
1.048360e+02	-1.947887e-03
1.054415e+02	-1.970449e-03
1.060505e+02	-1.993272e-03
1.066631e+02	-2.016359e-03
1.072791e+02	-2.039713e-03
1.078988e+02	-2.063338e-03
1.085220e+02	-2.087237e-03
1.091488e+02	-2.111412e-03
1.097793e+02	-2.135868e-03
1.104133e+02	-2.160606e-03
1.110511e+02	-2.185631e-03
1.116925e+02	-2.210946e-03
1.123376e+02	-2.236553e-03
1.129865e+02	-2.262458e-03
1.136391e+02	-2.288662e-03
1.142955e+02	-2.315170e-03
1.149556e+02	-2.341984e-03
1.156196e+02	-2.369109e-03
1.162874e+02	-2.396548e-03
1.169591e+02	-2.424305e-03
1.176347e+02	-2.452384e-03
1.183141e+02	-2.480787e-03
1.189975e+02	-2.509519e-03
1.196848e+02	-2.538584e-03
1.203761e+02	-2.567986e-03
1.210714e+02	-2.597728e-03
1.217707e+02	-2.627814e-03
1.224740e+02	-2.658248e-03
1.231814e+02	-2.689035e-03
1.238929e+02	-2.720179e-03
1.246085e+02	-2.751683e-03
1.253283e+02	-2.783552e-03
1.260522e+02	-2.815789e-03
1.267802e+02	-2.848400e-03
1.275125e+02	-2.881389e-03
1.282490e+02	-2.914759e-03
1.289898e+02	-2.948516e-03
1.297348e+02	-2.982664e-03
1.304842e+02	-3.017206e-03
1.312378e+02	-3.052149e-03
1.319959e+02	-3.087497e-03
1.327583e+02	-3.123253e-03
1.335251e+02	-3.159424e-03
1.342963e+02	-3.196013e-03
1.350720e+02	-3.233026e-03
1.358522e+02	-3.270467e-03
1.366368e+02	-3.308342e-03
1.374260e+02	-3.346655e-03
1.382198e+02	-3.385412e-03
1.390182e+02	-3.424617e-03
1.398211e+02	-3.464277e-03
1.406287e+02	-3.504395e-03
1.414410e+02	-3.544978e-03
1.422579e+02	-3.586030e-03
1.430796e+02	-3.627558e-03
1.439060e+02	-3.669566e-03
1.447372e+02	-3.712061e-03
1.455732e+02	-3.755048e-03
1.464141e+02	-3.798532e-03
1.472597e+02	-3.842519e-03
1.481103e+02	-3.887016e-03
1.489658e+02	-3.932028e-03
1.498262e+02	-3.977560e-03
1.506916e+02	-4.023620e-03
1.515620e+02	-4.070213e-03
1.524374e+02	-4.117345e-03
1.533179e+02	-4.165022e-03
1.542034e+02	-4.213252e-03
1.550941e+02	-4.262039e-03
1.559899e+02	-4.311392e-03
1.568909e+02	-4.361315e-03
1.577971e+02	-4.411817e-03
1.587085e+02	-4.462902e-03
1.596252e+02	-4.514579e-03
1.605472e+02	-4.566854e-03
1.614745e+02	-4.619734e-03
1.624072e+02	-4.673226e-03
1.633453e+02	-4.727337e-03
1.642887e+02	-4.782074e-03
1.652377e+02	-4.837445e-03
1.661921e+02	-4.893456e-03
1.671520e+02	-4.950116e-03
1.681175e+02	-5.007431e-03
1.690885e+02	-5.065410e-03
1.700651e+02	-5.124059e-03
1.710474e+02	-5.183387e-03
1.720354e+02	-5.243402e-03
1.730291e+02	-5.304111e-03
1.740285e+02	-5.365522e-03
1.750337e+02	-5.427644e-03
1.760446e+02	-5.490485e-03
1.770615e+02	-5.554053e-03
1.780842e+02	-5.618356e-03
1.791128e+02	-5.683404e-03
1.801473e+02	-5.749204e-03
1.811878e+02	-5.815765e-03
1.822344e+02	-5.883097e-03
1.832870e+02	-5.951207e-03
1.843456e+02	-6.020105e-03
1.854104e+02	-6.089801e-03
1.864813e+02	-6.160303e-03
1.875584e+02	-6.231620e-03
1.886418e+02	-6.303762e-03
1.897313e+02	-6.376739e-03
1.908272e+02	-6.450561e-03
1.919294e+02	-6.525236e-03
1.930380e+02	-6.600775e-03
1.941530e+02	-6.677187e-03
1.952744e+02	-6.754484e-03
1.964023e+02	-6.832675e-03
1.975367e+02	-6.911770e-03
1.986777e+02	-6.991780e-03
1.998252e+02	-7.072715e-03
2.009794e+02	-7.154587e-03
2.021403e+02	-7.237405e-03
2.033078e+02	-7.321182e-03
2.044821e+02	-7.405927e-03
2.056632e+02	-7.491652e-03
2.068511e+02	-7.578369e-03
2.080459e+02	-7.666089e-03
2.092475e+02	-7.754823e-03
2.104561e+02	-7.844583e-03
2.116717e+02	-7.935381e-03
2.128943e+02	-8.027230e-03
2.141240e+02	-8.120140e-03
2.153608e+02	-8.214125e-03
2.166047e+02	-8.309196e-03
2.178558e+02	-8.405367e-03
2.191141e+02	-8.502649e-03
2.203797e+02	-8.601057e-03
2.216526e+02	-8.700602e-03
2.229329e+02	-8.801299e-03
2.242205e+02	-8.903159e-03
2.255156e+02	-9.006197e-03
2.268182e+02	-9.110427e-03
2.281283e+02	-9.215861e-03
2.294459e+02	-9.322514e-03
2.307712e+02	-9.430400e-03
2.321041e+02	-9.539533e-03
2.334447e+02	-9.649928e-03
2.347931e+02	-9.761599e-03
2.361493e+02	-9.874561e-03
2.375133e+02	-9.988828e-03
2.388851e+02	-1.010442e-02
2.402649e+02	-1.022134e-02
2.416527e+02	-1.033962e-02
2.430484e+02	-1.045926e-02
2.444523e+02	-1.058028e-02
2.458642e+02	-1.070271e-02
2.472843e+02	-1.082655e-02
2.487126e+02	-1.095182e-02
2.501492e+02	-1.107853e-02
2.515940e+02	-1.120671e-02
2.530472e+02	-1.133638e-02
2.545088e+02	-1.146754e-02
2.559789e+02	-1.160021e-02
2.574574e+02	-1.173442e-02
2.589444e+02	-1.187018e-02
2.604401e+02	-1.200751e-02
2.619444e+02	-1.214643e-02
2.634574e+02	-1.228695e-02
2.649791e+02	-1.242909e-02
2.665096e+02	-1.257287e-02
2.680489e+02	-1.271832e-02
2.695972e+02	-1.286545e-02
2.711544e+02	-1.301427e-02
2.727205e+02	-1.316482e-02
2.742958e+02	-1.331710e-02
2.758801e+02	-1.347114e-02
2.774736e+02	-1.362696e-02
2.790762e+02	-1.378458e-02
2.806882e+02	-1.394402e-02
2.823094e+02	-1.410531e-02
2.839400e+02	-1.426845e-02
2.855800e+02	-1.443348e-02
2.872295e+02	-1.460041e-02
2.888886e+02	-1.476927e-02
2.905572e+02	-1.494008e-02
2.922354e+02	-1.511287e-02
2.939234e+02	-1.528764e-02
2.956211e+02	-1.546444e-02
2.973286e+02	-1.564327e-02
2.990459e+02	-1.582417e-02
3.007732e+02	-1.600716e-02
3.025104e+02	-1.619226e-02
3.042577e+02	-1.637950e-02
3.060151e+02	-1.656890e-02
3.077826e+02	-1.676048e-02
3.095604e+02	-1.695427e-02
3.113484e+02	-1.715030e-02
3.131467e+02	-1.734860e-02
3.149554e+02	-1.754918e-02
3.167746e+02	-1.775207e-02
3.186043e+02	-1.795731e-02
3.204445e+02	-1.816491e-02
3.222954e+02	-1.837491e-02
3.241570e+02	-1.858733e-02
3.260293e+02	-1.880220e-02
3.279124e+02	-1.901955e-02
3.298064e+02	-1.923941e-02
3.317114e+02	-1.946180e-02
3.336273e+02	-1.968676e-02
3.355544e+02	-1.991431e-02
3.374925e+02	-2.014449e-02
3.394418e+02	-2.037732e-02
3.414024e+02	-2.061283e-02
3.433744e+02	-2.085106e-02
3.453577e+02	-2.109204e-02
3.473525e+02	-2.133579e-02
3.493588e+02	-2.158236e-02
3.513766e+02	-2.183176e-02
3.534062e+02	-2.208404e-02
3.554474e+02	-2.233923e-02
3.575005e+02	-2.259736e-02
3.595654e+02	-2.285847e-02
3.616422e+02	-2.312258e-02
3.637311e+02	-2.338974e-02
3.658320e+02	-2.365998e-02
3.679450e+02	-2.393333e-02
3.700702e+02	-2.420982e-02
3.722077e+02	-2.448951e-02
3.743576e+02	-2.477241e-02
3.765199e+02	-2.505858e-02
3.786946e+02	-2.534804e-02
3.808820e+02	-2.564083e-02
3.830819e+02	-2.593700e-02
3.852946e+02	-2.623657e-02
3.875200e+02	-2.653960e-02
3.897583e+02	-2.684612e-02
3.920096e+02	-2.715616e-02
3.942738e+02	-2.746977e-02
3.965511e+02	-2.778700e-02
3.988416e+02	-2.810787e-02
4.011452e+02	-2.843244e-02
4.034622e+02	-2.876074e-02
4.057926e+02	-2.909282e-02
4.081365e+02	-2.942873e-02
4.104938e+02	-2.976849e-02
4.128648e+02	-3.011217e-02
4.152495e+02	-3.045980e-02
4.176480e+02	-3.081143e-02
4.200603e+02	-3.116710e-02
4.224866e+02	-3.152687e-02
4.249268e+02	-3.189077e-02
4.273812e+02	-3.225886e-02
4.298497e+02	-3.263118e-02
4.323325e+02	-3.300778e-02
4.348297e+02	-3.338871e-02
4.373412e+02	-3.377402e-02
4.398673e+02	-3.416376e-02
4.424079e+02	-3.455797e-02
4.449633e+02	-3.495672e-02
4.475334e+02	-3.536005e-02
4.501183e+02	-3.576802e-02
4.527182e+02	-3.618067e-02
4.553330e+02	-3.659806e-02
4.579630e+02	-3.702025e-02
4.606082e+02	-3.744728e-02
4.632687e+02	-3.787922e-02
4.659445e+02	-3.831612e-02
4.686358e+02	-3.875804e-02
4.713426e+02	-3.920503e-02
4.740650e+02	-3.965715e-02
4.768032e+02	-4.011446e-02
4.795572e+02	-4.057702e-02
4.823271e+02	-4.104489e-02
4.851130e+02	-4.151813e-02
4.879150e+02	-4.199680e-02
4.907332e+02	-4.248096e-02
4.935676e+02	-4.297067e-02
4.964185e+02	-4.346600e-02
4.992858e+02	-4.396701e-02
5.021696e+02	-4.447377e-02
5.050701e+02	-4.498634e-02
5.079874e+02	-4.550478e-02
5.109215e+02	-4.602917e-02
5.138726e+02	-4.655956e-02
5.168407e+02	-4.709604e-02
5.198259e+02	-4.763866e-02
5.228284e+02	-4.818750e-02
5.258482e+02	-4.874263e-02
5.288855e+02	-4.930411e-02
5.319403e+02	-4.987203e-02
5.350128e+02	-5.044645e-02
5.381030e+02	-5.102745e-02
5.412111e+02	-5.161509e-02
5.443371e+02	-5.220947e-02
5.474812e+02	-5.281065e-02
5.506434e+02	-5.341870e-02
5.538239e+02	-5.403372e-02
5.570228e+02	-5.465577e-02
5.602401e+02	-5.528494e-02
5.634760e+02	-5.592130e-02
5.667306e+02	-5.656494e-02
5.700040e+02	-5.721594e-02
5.732964e+02	-5.787438e-02
5.766077e+02	-5.854035e-02
5.799382e+02	-5.921392e-02
5.832879e+02	-5.989520e-02
5.866569e+02	-6.058426e-02
5.900454e+02	-6.128118e-02
5.934535e+02	-6.198607e-02
5.968813e+02	-6.269901e-02
6.003288e+02	-6.342009e-02
6.037963e+02	-6.414940e-02
6.072838e+02	-6.488703e-02
6.107914e+02	-6.563308e-02
6.143194e+02	-6.638764e-02
6.178676e+02	-6.715082e-02
6.214364e+02	-6.792269e-02
6.250258e+02	-6.870337e-02
6.286359e+02	-6.949294e-02
6.322669e+02	-7.029152e-02
6.359189e+02	-7.109920e-02
6.395919e+02	-7.191609e-02
6.432862e+02	-7.274228e-02
6.470017e+02	-7.357788e-02
6.507388e+02	-7.442299e-02
6.544974e+02	-7.527773e-02
6.582778e+02	-7.614220e-02
6.620800e+02	-7.701651e-02
6.659041e+02	-7.790077e-02
6.697504e+02	-7.879509e-02
6.736188e+02	-7.969958e-02
6.775096e+02	-8.061436e-02
6.814229e+02	-8.153954e-02
6.853587e+02	-8.247523e-02
6.893173e+02	-8.342156e-02
6.932988e+02	-8.437864e-02
6.973033e+02	-8.534659e-02
7.013309e+02	-8.632554e-02
