Frequency(Hz)	Magnitude(dB)
1.000000e+01	-2.057108e+00
1.005776e+01	-2.075959e+00
1.011585e+01	-2.094962e+00
1.017428e+01	-2.114523e+00
1.023305e+01	-2.133570e+00
1.029215e+01	-2.153111e+00
1.035160e+01	-2.172800e+00
1.041139e+01	-2.192570e+00
1.047153e+01	-2.212380e+00
1.053201e+01	-2.232374e+00
1.059284e+01	-2.252702e+00
1.065403e+01	-2.273015e+00
1.071556e+01	-2.293081e+00
1.077746e+01	-2.314161e+00
1.083971e+01	-2.334751e+00
1.090232e+01	-2.355884e+00
1.096529e+01	-2.376779e+00
1.102862e+01	-2.397714e+00
1.109232e+01	-2.419103e+00
1.115639e+01	-2.440554e+00
1.122083e+01	-2.462255e+00
1.128564e+01	-2.483902e+00
1.135083e+01	-2.505636e+00
1.141639e+01	-2.527546e+00
1.148233e+01	-2.549751e+00
1.154865e+01	-2.571949e+00
1.161536e+01	-2.594404e+00
1.168245e+01	-2.617299e+00
1.174992e+01	-2.639683e+00
1.181779e+01	-2.662807e+00
1.188605e+01	-2.685645e+00
1.195470e+01	-2.708847e+00
1.202375e+01	-2.732173e+00
1.209320e+01	-2.755635e+00
1.216305e+01	-2.779025e+00
1.223330e+01	-2.803042e+00
1.230396e+01	-2.826698e+00
1.237503e+01	-2.850712e+00
1.244651e+01	-2.874729e+00
1.251840e+01	-2.899088e+00
1.259070e+01	-2.923881e+00
1.266343e+01	-2.948268e+00
1.273657e+01	-2.973063e+00
1.281014e+01	-2.997723e+00
1.288413e+01	-3.022875e+00
1.295855e+01	-3.047921e+00
1.303339e+01	-3.073296e+00
1.310867e+01	-3.098627e+00
1.318439e+01	-3.124253e+00
1.326054e+01	-3.150183e+00
1.333713e+01	-3.175844e+00
1.341417e+01	-3.201860e+00
1.349165e+01	-3.227988e+00
1.356958e+01	-3.254460e+00
1.364795e+01	-3.280778e+00
1.372678e+01	-3.307629e+00
1.380607e+01	-3.334279e+00
1.388581e+01	-3.361143e+00
1.396602e+01	-3.387999e+00
1.404668e+01	-3.415230e+00
1.412782e+01	-3.442652e+00
1.420942e+01	-3.469971e+00
1.429149e+01	-3.497472e+00
1.437404e+01	-3.525488e+00
1.445706e+01	-3.553260e+00
1.454057e+01	-3.581381e+00
1.462455e+01	-3.609395e+00
1.470902e+01	-3.637744e+00
1.479398e+01	-3.666287e+00
1.487943e+01	-3.694845e+00
1.496537e+01	-3.723275e+00
1.505181e+01	-3.752464e+00
1.513875e+01	-3.781526e+00
1.522619e+01	-3.810438e+00
1.531414e+01	-3.839718e+00
1.540259e+01	-3.869243e+00
1.549156e+01	-3.898934e+00
1.558103e+01	-3.928639e+00
1.567103e+01	-3.958309e+00
1.576155e+01	-3.988437e+00
1.585258e+01	-4.018485e+00
1.594415e+01	-4.048845e+00
1.603624e+01	-4.079062e+00
1.612886e+01	-4.109744e+00
1.622202e+01	-4.140289e+00
1.631572e+01	-4.171074e+00
1.640996e+01	-4.201985e+00
1.650474e+01	-4.233001e+00
1.660008e+01	-4.264407e+00
1.669596e+01	-4.295818e+00
1.679239e+01	-4.327488e+00
1.688938e+01	-4.359013e+00
1.698694e+01	-4.390747e+00
1.708505e+01	-4.422687e+00
1.718373e+01	-4.454495e+00
1.728299e+01	-4.486798e+00
1.738281e+01	-4.518935e+00
1.748322e+01	-4.551439e+00
1.758420e+01	-4.583895e+00
1.768576e+01	-4.616635e+00
1.778792e+01	-4.649138e+00
1.789066e+01	-4.682427e+00
1.799399e+01	-4.715552e+00
1.809793e+01	-4.748909e+00
1.820246e+01	-4.782171e+00
1.830760e+01	-4.815023e+00
1.841334e+01	-4.849409e+00
1.851969e+01	-4.882961e+00
1.862666e+01	-4.916641e+00
1.873425e+01	-4.950250e+00
1.884246e+01	-4.984742e+00
1.895129e+01	-5.018786e+00
1.906075e+01	-5.053213e+00
1.917085e+01	-5.087728e+00
1.928158e+01	-5.122239e+00
1.939295e+01	-5.156925e+00
1.950496e+01	-5.192131e+00
1.961762e+01	-5.226653e+00
1.973093e+01	-5.261490e+00
1.984490e+01	-5.296992e+00
1.995952e+01	-5.332203e+00
2.007480e+01	-5.367651e+00
2.019076e+01	-5.403125e+00
2.030738e+01	-5.438889e+00
2.042467e+01	-5.475041e+00
2.054264e+01	-5.510451e+00
2.066130e+01	-5.546618e+00
2.078064e+01	-5.582743e+00
2.090066e+01	-5.619040e+00
2.102139e+01	-5.655275e+00
2.114280e+01	-5.691948e+00
2.126492e+01	-5.728408e+00
2.138775e+01	-5.765229e+00
2.151128e+01	-5.802217e+00
2.163553e+01	-5.838835e+00
2.176050e+01	-5.875806e+00
2.188619e+01	-5.912799e+00
2.201260e+01	-5.950602e+00
2.213974e+01	-5.987577e+00
2.226762e+01	-6.025369e+00
2.239624e+01	-6.062517e+00
2.252560e+01	-6.100386e+00
2.265571e+01	-6.138284e+00
2.278656e+01	-6.175973e+00
2.291818e+01	-6.214162e+00
2.305055e+01	-6.252502e+00
2.318369e+01	-6.290485e+00
2.331760e+01	-6.329221e+00
2.345228e+01	-6.367385e+00
2.358774e+01	-6.406214e+00
2.372398e+01	-6.444723e+00
2.386101e+01	-6.483375e+00
2.399883e+01	-6.522026e+00
2.413745e+01	-6.561268e+00
2.427686e+01	-6.600341e+00
2.441709e+01	-6.638950e+00
2.455812e+01	-6.678175e+00
2.469997e+01	-6.717642e+00
2.484263e+01	-6.757107e+00
2.498612e+01	-6.796416e+00
2.513044e+01	-6.836728e+00
2.527559e+01	-6.875973e+00
2.542158e+01	-6.915960e+00
2.556842e+01	-6.955422e+00
2.571610e+01	-6.995702e+00
2.586463e+01	-7.035570e+00
2.601403e+01	-7.076039e+00
2.616428e+01	-7.116269e+00
2.631541e+01	-7.156558e+00
2.646740e+01	-7.197000e+00
2.662028e+01	-7.237405e+00
2.677404e+01	-7.278141e+00
2.692868e+01	-7.318745e+00
2.708422e+01	-7.359619e+00
2.724066e+01	-7.400447e+00
2.739800e+01	-7.441231e+00
2.755625e+01	-7.482296e+00
2.771541e+01	-7.523126e+00
2.787550e+01	-7.564672e+00
2.803650e+01	-7.606421e+00
2.819844e+01	-7.647335e+00
2.836131e+01	-7.688934e+00
2.852513e+01	-7.730846e+00
2.868989e+01	-7.772208e+00
2.885560e+01	-7.813781e+00
2.902227e+01	-7.855484e+00
2.918990e+01	-7.897443e+00
2.935850e+01	-7.939461e+00
2.952807e+01	-7.981639e+00
2.969863e+01	-8.023646e+00
2.987016e+01	-8.065769e+00
3.004269e+01	-8.108074e+00
3.021622e+01	-8.150287e+00
3.039075e+01	-8.192480e+00
3.056628e+01	-8.234908e+00
3.074283e+01	-8.277620e+00
3.092040e+01	-8.320415e+00
3.109900e+01	-8.363426e+00
3.127862e+01	-8.405896e+00
3.145929e+01	-8.448793e+00
3.164099e+01	-8.491755e+00
3.182375e+01	-8.534477e+00
3.200756e+01	-8.577828e+00
3.219244e+01	-8.620679e+00
3.237838e+01	-8.663738e+00
3.256540e+01	-8.707041e+00
3.275349e+01	-8.750434e+00
3.294268e+01	-8.794414e+00
3.313295e+01	-8.837410e+00
3.332433e+01	-8.880936e+00
3.351681e+01	-8.924566e+00
3.371040e+01	-8.967828e+00
3.390511e+01	-9.011901e+00
3.410094e+01	-9.055539e+00
3.429791e+01	-9.099787e+00
3.449601e+01	-9.143267e+00
3.469526e+01	-9.186605e+00
3.489566e+01	-9.231400e+00
3.509721e+01	-9.275281e+00
3.529993e+01	-9.319646e+00
3.550382e+01	-9.364270e+00
3.570889e+01	-9.408683e+00
3.591515e+01	-9.452281e+00
3.612259e+01	-9.496600e+00
3.633123e+01	-9.540703e+00
3.654108e+01	-9.585422e+00
3.675214e+01	-9.630122e+00
3.696442e+01	-9.674793e+00
3.717792e+01	-9.719317e+00
3.739266e+01	-9.764210e+00
3.760864e+01	-9.808592e+00
3.782587e+01	-9.853634e+00
3.804435e+01	-9.898689e+00
3.826409e+01	-9.943937e+00
3.848510e+01	-9.988640e+00
3.870739e+01	-1.003301e+01
3.893096e+01	-1.007890e+01
3.915583e+01	-1.012400e+01
3.938199e+01	-1.016955e+01
3.960946e+01	-1.021413e+01
3.983824e+01	-1.025939e+01
4.006834e+01	-1.030478e+01
4.029978e+01	-1.035065e+01
4.053255e+01	-1.039548e+01
4.076666e+01	-1.044173e+01
4.100213e+01	-1.048687e+01
4.123896e+01	-1.053274e+01
4.147715e+01	-1.057812e+01
4.171672e+01	-1.062402e+01
4.195767e+01	-1.066964e+01
4.220002e+01	-1.071525e+01
4.244377e+01	-1.076085e+01
4.268892e+01	-1.080655e+01
4.293549e+01	-1.085254e+01
4.318348e+01	-1.089897e+01
4.343291e+01	-1.094509e+01
4.368377e+01	-1.099084e+01
4.393609e+01	-1.103662e+01
4.418986e+01	-1.108284e+01
4.444510e+01	-1.112891e+01
4.470182e+01	-1.117486e+01
4.496001e+01	-1.122081e+01
4.521970e+01	-1.126773e+01
4.548089e+01	-1.131406e+01
4.574358e+01	-1.136039e+01
4.600779e+01	-1.140629e+01
4.627353e+01	-1.145351e+01
4.654081e+01	-1.149931e+01
4.680963e+01	-1.154545e+01
4.708000e+01	-1.159297e+01
4.735193e+01	-1.163994e+01
4.762543e+01	-1.168561e+01
4.790051e+01	-1.173298e+01
4.817719e+01	-1.177923e+01
4.845545e+01	-1.182629e+01
4.873533e+01	-1.187221e+01
4.901682e+01	-1.191905e+01
4.929994e+01	-1.196549e+01
4.958470e+01	-1.201335e+01
4.987110e+01	-1.206016e+01
5.015915e+01	-1.210709e+01
5.044887e+01	-1.215432e+01
5.074026e+01	-1.220112e+01
5.103333e+01	-1.224810e+01
5.132810e+01	-1.229536e+01
5.162457e+01	-1.234164e+01
5.192275e+01	-1.238904e+01
5.222265e+01	-1.243636e+01
5.252429e+01	-1.248305e+01
5.282767e+01	-1.253107e+01
5.313280e+01	-1.257829e+01
5.343969e+01	-1.262509e+01
5.374836e+01	-1.267237e+01
5.405880e+01	-1.271990e+01
5.437105e+01	-1.276711e+01
5.468509e+01	-1.281460e+01
5.500095e+01	-1.286206e+01
5.531863e+01	-1.290947e+01
5.563815e+01	-1.295793e+01
5.595951e+01	-1.300443e+01
5.628273e+01	-1.305223e+01
5.660782e+01	-1.309961e+01
5.693479e+01	-1.314703e+01
5.726364e+01	-1.319583e+01
5.759439e+01	-1.324211e+01
5.792705e+01	-1.328977e+01
5.826164e+01	-1.333776e+01
5.859815e+01	-1.338496e+01
5.893662e+01	-1.343312e+01
5.927703e+01	-1.348155e+01
5.961941e+01	-1.352889e+01
5.996377e+01	-1.357691e+01
6.031012e+01	-1.362406e+01
6.065847e+01	-1.367216e+01
6.100883e+01	-1.372036e+01
6.136121e+01	-1.376829e+01
6.171563e+01	-1.381579e+01
6.207210e+01	-1.386456e+01
6.243063e+01	-1.391197e+01
6.279122e+01	-1.396032e+01
6.315390e+01	-1.400806e+01
6.351868e+01	-1.405607e+01
6.388556e+01	-1.410501e+01
6.425456e+01	-1.415179e+01
6.462569e+01	-1.420028e+01
6.499897e+01	-1.424963e+01
6.537440e+01	-1.429733e+01
6.575200e+01	-1.434621e+01
6.613178e+01	-1.439306e+01
6.651375e+01	-1.444131e+01
6.689793e+01	-1.449013e+01
6.728433e+01	-1.453815e+01
6.767297e+01	-1.458750e+01
6.806384e+01	-1.463455e+01
6.845698e+01	-1.468266e+01
6.885238e+01	-1.473070e+01
6.925007e+01	-1.477950e+01
6.965005e+01	-1.482696e+01
7.005235e+01	-1.487585e+01
7.045697e+01	-1.492477e+01
7.086393e+01	-1.497427e+01
7.127323e+01	-1.502195e+01
7.168490e+01	-1.506973e+01
7.209895e+01	-1.511841e+01
7.251539e+01	-1.516665e+01
7.293424e+01	-1.521476e+01
7.335551e+01	-1.526447e+01
7.377920e+01	-1.531173e+01
7.420535e+01	-1.536181e+01
7.463396e+01	-1.541026e+01
7.506504e+01	-1.545811e+01
7.549861e+01	-1.550735e+01
7.593469e+01	-1.555575e+01
7.637328e+01	-1.560287e+01
7.681441e+01	-1.565393e+01
7.725809e+01	-1.570119e+01
7.770433e+01	-1.575039e+01
7.815315e+01	-1.579809e+01
7.860456e+01	-1.584795e+01
7.905857e+01	-1.589658e+01
7.951521e+01	-1.594519e+01
7.997449e+01	-1.599430e+01
8.043642e+01	-1.604251e+01
8.090102e+01	-1.609169e+01
8.136830e+01	-1.613963e+01
8.183828e+01	-1.618828e+01
8.231097e+01	-1.623792e+01
8.278640e+01	-1.628733e+01
8.326457e+01	-1.633588e+01
8.374550e+01	-1.638426e+01
8.422921e+01	-1.643453e+01
8.471572e+01	-1.648226e+01
8.520503e+01	-1.653093e+01
8.569717e+01	-1.658059e+01
8.619215e+01	-1.662961e+01
8.669000e+01	-1.667963e+01
8.719071e+01	-1.672782e+01
8.769432e+01	-1.677571e+01
8.820084e+01	-1.682499e+01
8.871029e+01	-1.687406e+01
8.922267e+01	-1.692191e+01
8.973802e+01	-1.697342e+01
9.025634e+01	-1.702022e+01
9.077766e+01	-1.707149e+01
9.130199e+01	-1.711926e+01
9.182935e+01	-1.716742e+01
9.235975e+01	-1.721713e+01
9.289321e+01	-1.726667e+01
9.342976e+01	-1.731489e+01
9.396941e+01	-1.736536e+01
9.451217e+01	-1.741355e+01
9.505807e+01	-1.746395e+01
9.560712e+01	-1.751240e+01
9.615934e+01	-1.756137e+01
9.671476e+01	-1.761036e+01
9.727338e+01	-1.765925e+01
9.783522e+01	-1.770822e+01
9.840032e+01	-1.775912e+01
9.896867e+01	-1.780647e+01
9.954031e+01	-1.785523e+01
1.001153e+02	-1.790390e+01
1.006935e+02	-1.795456e+01
1.012751e+02	-1.800442e+01
1.018601e+02	-1.805291e+01
1.024484e+02	-1.810271e+01
1.030402e+02	-1.815126e+01
1.036353e+02	-1.820060e+01
1.042339e+02	-1.824969e+01
1.048360e+02	-1.830014e+01
1.054415e+02	-1.834900e+01
1.060505e+02	-1.839917e+01
1.066631e+02	-1.844715e+01
1.072791e+02	-1.849649e+01
1.078988e+02	-1.854644e+01
1.085220e+02	-1.859536e+01
1.091488e+02	-1.864386e+01
1.097793e+02	-1.869385e+01
1.104133e+02	-1.874418e+01
1.110511e+02	-1.879389e+01
1.116925e+02	-1.884176e+01
1.123376e+02	-1.889094e+01
1.129865e+02	-1.894290e+01
1.136391e+02	-1.899044e+01
1.142955e+02	-1.904038e+01
1.149556e+02	-1.908952e+01
1.156196e+02	-1.914039e+01
1.162874e+02	-1.918876e+01
1.169591e+02	-1.923580e+01
1.176347e+02	-1.928719e+01
1.183141e+02	-1.933587e+01
1.189975e+02	-1.938593e+01
1.196848e+02	-1.943530e+01
1.203761e+02	-1.948642e+01
1.210714e+02	-1.953648e+01
1.217707e+02	-1.958444e+01
1.224740e+02	-1.963295e+01
1.231814e+02	-1.968239e+01
1.238929e+02	-1.973317e+01
1.246085e+02	-1.978119e+01
1.253283e+02	-1.983223e+01
1.260522e+02	-1.988012e+01
1.267802e+02	-1.992981e+01
1.275125e+02	-1.998050e+01
1.282490e+02	-2.002944e+01
1.289898e+02	-2.008016e+01
1.297348e+02	-2.013024e+01
1.304842e+02	-2.017728e+01
1.312378e+02	-2.022742e+01
1.319959e+02	-2.027793e+01
1.327583e+02	-2.032499e+01
1.335251e+02	-2.037542e+01
1.342963e+02	-2.042785e+01
1.350720e+02	-2.047615e+01
1.358522e+02	-2.052386e+01
1.366368e+02	-2.057535e+01
1.374260e+02	-2.062337e+01
1.382198e+02	-2.067522e+01
1.390182e+02	-2.072330e+01
1.398211e+02	-2.077347e+01
1.406287e+02	-2.082377e+01
1.414410e+02	-2.087265e+01
1.422579e+02	-2.091974e+01
1.430796e+02	-2.097239e+01
1.439060e+02	-2.102194e+01
1.447372e+02	-2.106981e+01
1.455732e+02	-2.112030e+01
1.464141e+02	-2.116900e+01
1.472597e+02	-2.121949e+01
1.481103e+02	-2.126863e+01
1.489658e+02	-2.131945e+01
1.498262e+02	-2.136849e+01
1.506916e+02	-2.141870e+01
1.515620e+02	-2.146793e+01
1.524374e+02	-2.151747e+01
1.533179e+02	-2.156873e+01
1.542034e+02	-2.161922e+01
1.550941e+02	-2.166875e+01
1.559899e+02	-2.171701e+01
1.568909e+02	-2.176604e+01
1.577971e+02	-2.181488e+01
1.587085e+02	-2.186627e+01
1.596252e+02	-2.191491e+01
1.605472e+02	-2.196720e+01
1.614745e+02	-2.201629e+01
1.624072e+02	-2.206583e+01
1.633453e+02	-2.211495e+01
1.642887e+02	-2.216332e+01
1.652377e+02	-2.221518e+01
1.661921e+02	-2.226334e+01
1.671520e+02	-2.231283e+01
1.681175e+02	-2.236220e+01
1.690885e+02	-2.241232e+01
1.700651e+02	-2.246367e+01
1.710474e+02	-2.251222e+01
1.720354e+02	-2.255989e+01
1.730291e+02	-2.261215e+01
1.740285e+02	-2.266120e+01
1.750337e+02	-2.271283e+01
1.760446e+02	-2.276073e+01
1.770615e+02	-2.280981e+01
1.780842e+02	-2.286262e+01
1.791128e+02	-2.290996e+01
1.801473e+02	-2.295855e+01
1.811878e+02	-2.301090e+01
1.822344e+02	-2.306152e+01
1.832870e+02	-2.311262e+01
1.843456e+02	-2.316000e+01
1.854104e+02	-2.320900e+01
1.864813e+02	-2.325664e+01
1.875584e+02	-2.330990e+01
1.886418e+02	-2.335586e+01
1.897313e+02	-2.340947e+01
1.908272e+02	-2.345872e+01
1.919294e+02	-2.350990e+01
1.930380e+02	-2.355833e+01
1.941530e+02	-2.360812e+01
1.952744e+02	-2.365828e+01
1.964023e+02	-2.370638e+01
1.975367e+02	-2.375892e+01
1.986777e+02	-2.380728e+01
1.998252e+02	-2.385980e+01
2.009794e+02	-2.390743e+01
2.021403e+02	-2.395548e+01
2.033078e+02	-2.400737e+01
2.044821e+02	-2.405681e+01
2.056632e+02	-2.410420e+01
2.068511e+02	-2.415714e+01
2.080459e+02	-2.420767e+01
2.092475e+02	-2.425663e+01
2.104561e+02	-2.430486e+01
2.116717e+02	-2.435636e+01
2.128943e+02	-2.440821e+01
2.141240e+02	-2.445705e+01
2.153608e+02	-2.450561e+01
2.166047e+02	-2.455847e+01
2.178558e+02	-2.460605e+01
2.191141e+02	-2.465540e+01
2.203797e+02	-2.470341e+01
2.216526e+02	-2.475580e+01
2.229329e+02	-2.480580e+01
2.242205e+02	-2.485292e+01
2.255156e+02	-2.490405e+01
2.268182e+02	-2.495518e+01
2.281283e+02	-2.500316e+01
2.294459e+02	-2.505342e+01
2.307712e+02	-2.510207e+01
2.321041e+02	-2.515467e+01
2.334447e+02	-2.520211e+01
2.347931e+02	-2.525282e+01
2.361493e+02	-2.530219e+01
2.375133e+02	-2.535292e+01
2.388851e+02	-2.540483e+01
2.402649e+02	-2.545821e+01
2.416527e+02	-2.550406e+01
2.430484e+02	-2.555184e+01
2.444523e+02	-2.560715e+01
2.458642e+02	-2.565018e+01
2.472843e+02	-2.570324e+01
2.487126e+02	-2.575353e+01
2.501492e+02	-2.580504e+01
2.515940e+02	-2.585579e+01
2.530472e+02	-2.590424e+01
2.545088e+02	-2.595554e+01
2.559789e+02	-2.600318e+01
2.574574e+02	-2.605341e+01
2.589444e+02	-2.610138e+01
2.604401e+02	-2.615332e+01
2.619444e+02	-2.620415e+01
2.634574e+02	-2.625070e+01
2.649791e+02	-2.630371e+01
2.665096e+02	-2.635117e+01
2.680489e+02	-2.640447e+01
2.695972e+02	-2.645465e+01
2.711544e+02	-2.650580e+01
2.727205e+02	-2.655351e+01
2.742958e+02	-2.659942e+01
2.758801e+02	-2.665386e+01
2.774736e+02	-2.670391e+01
2.790762e+02	-2.675445e+01
2.806882e+02	-2.680191e+01
2.823094e+02	-2.685218e+01
2.839400e+02	-2.690294e+01
2.855800e+02	-2.695646e+01
2.872295e+02	-2.700477e+01
2.888886e+02	-2.705204e+01
2.905572e+02	-2.710551e+01
2.922354e+02	-2.715385e+01
2.939234e+02	-2.720188e+01
2.956211e+02	-2.725395e+01
2.973286e+02	-2.730344e+01
2.990459e+02	-2.735179e+01
3.007732e+02	-2.740261e+01
3.025104e+02	-2.745162e+01
3.042577e+02	-2.749892e+01
3.060151e+02	-2.755136e+01
3.077826e+02	-2.760026e+01
3.095604e+02	-2.765572e+01
3.113484e+02	-2.770116e+01
3.131467e+02	-2.775474e+01
3.149554e+02	-2.780233e+01
3.167746e+02	-2.785387e+01
3.186043e+02	-2.790121e+01
3.204445e+02	-2.795283e+01
3.222954e+02	-2.800231e+01
3.241570e+02	-2.805385e+01
3.260293e+02	-2.810335e+01
3.279124e+02	-2.814823e+01
3.298064e+02	-2.820519e+01
3.317114e+02	-2.825297e+01
3.336273e+02	-2.829782e+01
3.355544e+02	-2.835310e+01
3.374925e+02	-2.840256e+01
3.394418e+02	-2.845188e+01
3.414024e+02	-2.850369e+01
3.433744e+02	-2.854849e+01
3.453577e+02	-2.860497e+01
3.473525e+02	-2.865534e+01
3.493588e+02	-2.870153e+01
3.513766e+02	-2.875408e+01
3.534062e+02	-2.880524e+01
3.554474e+02	-2.885772e+01
3.575005e+02	-2.890466e+01
3.595654e+02	-2.895337e+01
3.616422e+02	-2.899861e+01
3.637311e+02	-2.904997e+01
3.658320e+02	-2.910391e+01
3.679450e+02	-2.914544e+01
3.700702e+02	-2.920952e+01
3.722077e+02	-2.925527e+01
3.743576e+02	-2.930568e+01
3.765199e+02	-2.935294e+01
3.786946e+02	-2.940816e+01
3.808820e+02	-2.945657e+01
3.830819e+02	-2.951132e+01
3.852946e+02	-2.955073e+01
3.875200e+02	-2.960291e+01
3.897583e+02	-2.965062e+01
3.920096e+02	-2.970817e+01
3.942738e+02	-2.975359e+01
3.965511e+02	-2.980640e+01
3.988416e+02	-2.985638e+01
4.011452e+02	-2.990492e+01
4.034622e+02	-2.995071e+01
4.057926e+02	-3.000063e+01
4.081365e+02	-3.005498e+01
4.104938e+02	-3.010266e+01
4.128648e+02	-3.015174e+01
4.152495e+02	-3.020759e+01
4.176480e+02	-3.025535e+01
4.200603e+02	-3.029738e+01
4.224866e+02	-3.035706e+01
4.249268e+02	-3.040822e+01
4.273812e+02	-3.045626e+01
4.298497e+02	-3.050707e+01
4.323325e+02	-3.055448e+01
4.348297e+02	-3.060393e+01
4.373412e+02	-3.065801e+01
4.398673e+02	-3.070804e+01
4.424079e+02	-3.075777e+01
4.449633e+02	-3.080799e+01
4.475334e+02	-3.085756e+01
4.501183e+02	-3.090981e+01
4.527182e+02	-3.095805e+01
4.553330e+02	-3.100925e+01
4.579630e+02	-3.105835e+01
4.606082e+02	-3.111106e+01
4.632687e+02	-3.115678e+01
4.659445e+02	-3.120360e+01
4.686358e+02	-3.126259e+01
4.713426e+02	-3.130649e+01
4.740650e+02	-3.136008e+01
4.768032e+02	-3.141157e+01
4.795572e+02	-3.145083e+01
4.823271e+02	-3.150446e+01
4.851130e+02	-3.156453e+01
4.879150e+02	-3.161153e+01
4.907332e+02	-3.165825e+01
4.935676e+02	-3.171063e+01
4.964185e+02	-3.175315e+01
4.992858e+02	-3.181145e+01
5.021696e+02	-3.186074e+01
5.050701e+02	-3.191278e+01
5.079874e+02	-3.195917e+01
5.109215e+02	-3.201559e+01
5.138726e+02	-3.205242e+01
5.168407e+02	-3.211055e+01
5.198259e+02	-3.216145e+01
5.228284e+02	-3.220659e+01
5.258482e+02	-3.225555e+01
5.288855e+02	-3.231418e+01
5.319403e+02	-3.236063e+01
5.350128e+02	-3.240952e+01
5.381030e+02	-3.246140e+01
5.412111e+02	-3.251241e+01
5.443371e+02	-3.256292e+01
5.474812e+02	-3.261265e+01
5.506434e+02	-3.265799e+01
5.538239e+02	-3.271568e+01
5.570228e+02	-3.275980e+01
5.602401e+02	-3.281314e+01
5.634760e+02	-3.286385e+01
5.667306e+02	-3.291214e+01
5.700040e+02	-3.295914e+01
5.732964e+02	-3.301599e+01
5.766077e+02	-3.307029e+01
5.799382e+02	-3.311195e+01
5.832879e+02	-3.316041e+01
5.866569e+02	-3.322434e+01
5.900454e+02	-3.327243e+01
5.934535e+02	-3.331428e+01
5.968813e+02	-3.336301e+01
6.003288e+02	-3.341691e+01
6.037963e+02	-3.346434e+01
6.072838e+02	-3.351788e+01
6.107914e+02	-3.356667e+01
6.143194e+02	-3.362583e+01
6.178676e+02	-3.366597e+01
6.214364e+02	-3.372140e+01
6.250258e+02	-3.376996e+01
6.286359e+02	-3.381560e+01
6.322669e+02	-3.386784e+01
6.359189e+02	-3.392036e+01
6.395919e+02	-3.397386e+01
6.432862e+02	-3.402257e+01
6.470017e+02	-3.406785e+01
6.507388e+02	-3.411721e+01
6.544974e+02	-3.416627e+01
6.582778e+02	-3.422276e+01
6.620800e+02	-3.426934e+01
6.659041e+02	-3.432343e+01
6.697504e+02	-3.436147e+01
6.736188e+02	-3.443052e+01
6.775096e+02	-3.447311e+01
6.814229e+02	-3.452109e+01
6.853587e+02	-3.457467e+01
6.893173e+02	-3.462362e+01
6.932988e+02	-3.467980e+01
6.973033e+02	-3.472217e+01
7.013309e+02	-3.477347e+01
