Frequency(Hz)	Magnitude(dB)
1.000000e+01	-2.117725e+00
1.005776e+01	-2.137171e+00
1.011585e+01	-2.156690e+00
1.017428e+01	-2.176290e+00
1.023305e+01	-2.196139e+00
1.029215e+01	-2.215835e+00
1.035160e+01	-2.235937e+00
1.041139e+01	-2.256273e+00
1.047153e+01	-2.276448e+00
1.053201e+01	-2.297047e+00
1.059284e+01	-2.317642e+00
1.065403e+01	-2.338654e+00
1.071556e+01	-2.359213e+00
1.077746e+01	-2.380213e+00
1.083971e+01	-2.401534e+00
1.090232e+01	-2.423107e+00
1.096529e+01	-2.444525e+00
1.102862e+01	-2.465945e+00
1.109232e+01	-2.487751e+00
1.115639e+01	-2.509686e+00
1.122083e+01	-2.531645e+00
1.128564e+01	-2.553660e+00
1.135083e+01	-2.576223e+00
1.141639e+01	-2.598450e+00
1.148233e+01	-2.621276e+00
1.154865e+01	-2.643864e+00
1.161536e+01	-2.666791e+00
1.168245e+01	-2.689718e+00
1.174992e+01	-2.712929e+00
1.181779e+01	-2.736270e+00
1.188605e+01	-2.759754e+00
1.195470e+01	-2.783386e+00
1.202375e+01	-2.806917e+00
1.209320e+01	-2.830964e+00
1.216305e+01	-2.854934e+00
1.223330e+01	-2.878970e+00
1.230396e+01	-2.903323e+00
1.237503e+01	-2.928119e+00
1.244651e+01	-2.952647e+00
1.251840e+01	-2.977242e+00
1.259070e+01	-3.001990e+00
1.266343e+01	-3.027063e+00
1.273657e+01	-3.052448e+00
1.281014e+01	-3.077545e+00
1.288413e+01	-3.103102e+00
1.295855e+01	-3.128667e+00
1.303339e+01	-3.154480e+00
1.310867e+01	-3.180505e+00
1.318439e+01	-3.206348e+00
1.326054e+01	-3.232620e+00
1.333713e+01	-3.258986e+00
1.341417e+01	-3.285379e+00
1.349165e+01	-3.312044e+00
1.356958e+01	-3.338780e+00
1.364795e+01	-3.365801e+00
1.372678e+01	-3.392691e+00
1.380607e+01	-3.419985e+00
1.388581e+01	-3.447222e+00
1.396602e+01	-3.475050e+00
1.404668e+01	-3.502462e+00
1.412782e+01	-3.530313e+00
1.420942e+01	-3.558237e+00
1.429149e+01	-3.586243e+00
1.437404e+01	-3.614292e+00
1.445706e+01	-3.642610e+00
1.454057e+01	-3.671154e+00
1.462455e+01	-3.699623e+00
1.470902e+01	-3.728394e+00
1.479398e+01	-3.757534e+00
1.487943e+01	-3.786645e+00
1.496537e+01	-3.815556e+00
1.505181e+01	-3.844988e+00
1.513875e+01	-3.874232e+00
1.522619e+01	-3.904116e+00
1.531414e+01	-3.933887e+00
1.540259e+01	-3.963510e+00
1.549156e+01	-3.993467e+00
1.558103e+01	-4.023775e+00
1.567103e+01	-4.054022e+00
1.576155e+01	-4.084371e+00
1.585258e+01	-4.115230e+00
1.594415e+01	-4.145783e+00
1.603624e+01	-4.176522e+00
1.612886e+01	-4.207734e+00
1.622202e+01	-4.238848e+00
1.631572e+01	-4.269804e+00
1.640996e+01	-4.300890e+00
1.650474e+01	-4.332892e+00
1.660008e+01	-4.364703e+00
1.669596e+01	-4.396336e+00
1.679239e+01	-4.428325e+00
1.688938e+01	-4.460228e+00
1.698694e+01	-4.492415e+00
1.708505e+01	-4.524760e+00
1.718373e+01	-4.557014e+00
1.728299e+01	-4.589621e+00
1.738281e+01	-4.622312e+00
1.748322e+01	-4.655419e+00
1.758420e+01	-4.688404e+00
1.768576e+01	-4.721533e+00
1.778792e+01	-4.754296e+00
1.789066e+01	-4.787978e+00
1.799399e+01	-4.821328e+00
1.809793e+01	-4.854840e+00
1.820246e+01	-4.888985e+00
1.830760e+01	-4.922386e+00
1.841334e+01	-4.956404e+00
1.851969e+01	-4.990661e+00
1.862666e+01	-5.024827e+00
1.873425e+01	-5.059707e+00
1.884246e+01	-5.093500e+00
1.895129e+01	-5.128564e+00
1.906075e+01	-5.163260e+00
1.917085e+01	-5.197661e+00
1.928158e+01	-5.232637e+00
1.939295e+01	-5.267889e+00
1.950496e+01	-5.303352e+00
1.961762e+01	-5.338568e+00
1.973093e+01	-5.373802e+00
1.984490e+01	-5.409446e+00
1.995952e+01	-5.445264e+00
2.007480e+01	-5.480928e+00
2.019076e+01	-5.517127e+00
2.030738e+01	-5.552881e+00
2.042467e+01	-5.589129e+00
2.054264e+01	-5.625433e+00
2.066130e+01	-5.661475e+00
2.078064e+01	-5.698230e+00
2.090066e+01	-5.735272e+00
2.102139e+01	-5.771699e+00
2.114280e+01	-5.808405e+00
2.126492e+01	-5.845579e+00
2.138775e+01	-5.882410e+00
2.151128e+01	-5.919527e+00
2.163553e+01	-5.956976e+00
2.176050e+01	-5.994285e+00
2.188619e+01	-6.031784e+00
2.201260e+01	-6.069401e+00
2.213974e+01	-6.106899e+00
2.226762e+01	-6.144648e+00
2.239624e+01	-6.182789e+00
2.252560e+01	-6.221052e+00
2.265571e+01	-6.259309e+00
2.278656e+01	-6.297329e+00
2.291818e+01	-6.335746e+00
2.305055e+01	-6.373873e+00
2.318369e+01	-6.412101e+00
2.331760e+01	-6.451181e+00
2.345228e+01	-6.489997e+00
2.358774e+01	-6.528921e+00
2.372398e+01	-6.567858e+00
2.386101e+01	-6.606435e+00
2.399883e+01	-6.646136e+00
2.413745e+01	-6.685066e+00
2.427686e+01	-6.724771e+00
2.441709e+01	-6.764147e+00
2.455812e+01	-6.803606e+00
2.469997e+01	-6.842984e+00
2.484263e+01	-6.882959e+00
2.498612e+01	-6.922857e+00
2.513044e+01	-6.962457e+00
2.527559e+01	-7.002711e+00
2.542158e+01	-7.043239e+00
2.556842e+01	-7.082823e+00
2.571610e+01	-7.122938e+00
2.586463e+01	-7.163290e+00
2.601403e+01	-7.204268e+00
2.616428e+01	-7.244497e+00
2.631541e+01	-7.285184e+00
2.646740e+01	-7.325969e+00
2.662028e+01	-7.366366e+00
2.677404e+01	-7.407945e+00
2.692868e+01	-7.448567e+00
2.708422e+01	-7.489634e+00
2.724066e+01	-7.530465e+00
2.739800e+01	-7.572225e+00
2.755625e+01	-7.613373e+00
2.771541e+01	-7.654721e+00
2.787550e+01	-7.696402e+00
2.803650e+01	-7.738013e+00
2.819844e+01	-7.779626e+00
2.836131e+01	-7.821068e+00
2.852513e+01	-7.863189e+00
2.868989e+01	-7.904780e+00
2.885560e+01	-7.946698e+00
2.902227e+01	-7.988999e+00
2.918990e+01	-8.030667e+00
2.935850e+01	-8.073246e+00
2.952807e+01	-8.115769e+00
2.969863e+01	-8.157383e+00
2.987016e+01	-8.199979e+00
3.004269e+01	-8.242427e+00
3.021622e+01	-8.285155e+00
3.039075e+01	-8.328011e+00
3.056628e+01	-8.370666e+00
3.074283e+01	-8.412964e+00
3.092040e+01	-8.455730e+00
3.109900e+01	-8.498884e+00
3.127862e+01	-8.542244e+00
3.145929e+01	-8.584711e+00
3.164099e+01	-8.628344e+00
3.182375e+01	-8.671652e+00
3.200756e+01	-8.714589e+00
3.219244e+01	-8.758784e+00
3.237838e+01	-8.801335e+00
3.256540e+01	-8.845098e+00
3.275349e+01	-8.888222e+00
3.294268e+01	-8.932036e+00
3.313295e+01	-8.975779e+00
3.332433e+01	-9.018932e+00
3.351681e+01	-9.062926e+00
3.371040e+01	-9.106983e+00
3.390511e+01	-9.151215e+00
3.410094e+01	-9.195646e+00
3.429791e+01	-9.239759e+00
3.449601e+01	-9.283725e+00
3.469526e+01	-9.327788e+00
3.489566e+01	-9.371533e+00
3.509721e+01	-9.415850e+00
3.529993e+01	-9.460219e+00
3.550382e+01	-9.504669e+00
3.570889e+01	-9.549504e+00
3.591515e+01	-9.593253e+00
3.612259e+01	-9.638094e+00
3.633123e+01	-9.682626e+00
3.654108e+01	-9.727389e+00
3.675214e+01	-9.771983e+00
3.696442e+01	-9.816926e+00
3.717792e+01	-9.861332e+00
3.739266e+01	-9.906573e+00
3.760864e+01	-9.951474e+00
3.782587e+01	-9.996698e+00
3.804435e+01	-1.004142e+01
3.826409e+01	-1.008657e+01
3.848510e+01	-1.013157e+01
3.870739e+01	-1.017727e+01
3.893096e+01	-1.022173e+01
3.915583e+01	-1.026773e+01
3.938199e+01	-1.031317e+01
3.960946e+01	-1.035815e+01
3.983824e+01	-1.040388e+01
4.006834e+01	-1.044934e+01
4.029978e+01	-1.049490e+01
4.053255e+01	-1.054114e+01
4.076666e+01	-1.058571e+01
4.100213e+01	-1.063176e+01
4.123896e+01	-1.067764e+01
4.147715e+01	-1.072319e+01
4.171672e+01	-1.076910e+01
4.195767e+01	-1.081500e+01
4.220002e+01	-1.086080e+01
4.244377e+01	-1.090681e+01
4.268892e+01	-1.095272e+01
4.293549e+01	-1.099876e+01
4.318348e+01	-1.104510e+01
4.343291e+01	-1.109093e+01
4.368377e+01	-1.113687e+01
4.393609e+01	-1.118309e+01
4.418986e+01	-1.122907e+01
4.444510e+01	-1.127591e+01
4.470182e+01	-1.132185e+01
4.496001e+01	-1.136892e+01
4.521970e+01	-1.141492e+01
4.548089e+01	-1.146039e+01
4.574358e+01	-1.150787e+01
4.600779e+01	-1.155395e+01
4.627353e+01	-1.160039e+01
4.654081e+01	-1.164755e+01
4.680963e+01	-1.169421e+01
4.708000e+01	-1.174050e+01
4.735193e+01	-1.178734e+01
4.762543e+01	-1.183442e+01
4.790051e+01	-1.188113e+01
4.817719e+01	-1.192753e+01
4.845545e+01	-1.197390e+01
4.873533e+01	-1.202100e+01
4.901682e+01	-1.206802e+01
4.929994e+01	-1.211524e+01
4.958470e+01	-1.216184e+01
4.987110e+01	-1.220971e+01
5.015915e+01	-1.225597e+01
5.044887e+01	-1.230322e+01
5.074026e+01	-1.235041e+01
5.103333e+01	-1.239722e+01
5.132810e+01	-1.244480e+01
5.162457e+01	-1.249203e+01
5.192275e+01	-1.253916e+01
5.222265e+01	-1.258583e+01
5.252429e+01	-1.263396e+01
5.282767e+01	-1.268062e+01
5.313280e+01	-1.272863e+01
5.343969e+01	-1.277555e+01
5.374836e+01	-1.282281e+01
5.405880e+01	-1.287076e+01
5.437105e+01	-1.291852e+01
5.468509e+01	-1.296530e+01
5.500095e+01	-1.301266e+01
5.531863e+01	-1.306080e+01
5.563815e+01	-1.310759e+01
5.595951e+01	-1.315562e+01
5.628273e+01	-1.320339e+01
5.660782e+01	-1.325008e+01
5.693479e+01	-1.329841e+01
5.726364e+01	-1.334621e+01
5.759439e+01	-1.339466e+01
5.792705e+01	-1.344083e+01
5.826164e+01	-1.348927e+01
5.859815e+01	-1.353750e+01
5.893662e+01	-1.358463e+01
5.927703e+01	-1.363346e+01
5.961941e+01	-1.368075e+01
5.996377e+01	-1.372977e+01
6.031012e+01	-1.377691e+01
6.065847e+01	-1.382489e+01
6.100883e+01	-1.387249e+01
6.136121e+01	-1.391998e+01
6.171563e+01	-1.396879e+01
6.207210e+01	-1.401608e+01
6.243063e+01	-1.406449e+01
6.279122e+01	-1.411257e+01
6.315390e+01	-1.416090e+01
6.351868e+01	-1.420906e+01
6.388556e+01	-1.425771e+01
6.425456e+01	-1.430531e+01
6.462569e+01	-1.435379e+01
6.499897e+01	-1.440165e+01
6.537440e+01	-1.445030e+01
6.575200e+01	-1.449729e+01
6.613178e+01	-1.454655e+01
6.651375e+01	-1.459538e+01
6.689793e+01	-1.464269e+01
6.728433e+01	-1.469019e+01
6.767297e+01	-1.473957e+01
6.806384e+01	-1.478842e+01
6.845698e+01	-1.483660e+01
6.885238e+01	-1.488418e+01
6.925007e+01	-1.493278e+01
6.965005e+01	-1.498132e+01
7.005235e+01	-1.503105e+01
7.045697e+01	-1.507781e+01
7.086393e+01	-1.512683e+01
7.127323e+01	-1.517484e+01
7.168490e+01	-1.522498e+01
7.209895e+01	-1.527288e+01
7.251539e+01	-1.532097e+01
7.293424e+01	-1.536946e+01
7.335551e+01	-1.541751e+01
7.377920e+01	-1.546673e+01
7.420535e+01	-1.551573e+01
7.463396e+01	-1.556367e+01
7.506504e+01	-1.561263e+01
7.549861e+01	-1.566160e+01
7.593469e+01	-1.571157e+01
7.637328e+01	-1.575825e+01
7.681441e+01	-1.580733e+01
7.725809e+01	-1.585578e+01
7.770433e+01	-1.590531e+01
7.815315e+01	-1.595404e+01
7.860456e+01	-1.600164e+01
7.905857e+01	-1.605024e+01
7.951521e+01	-1.609956e+01
7.997449e+01	-1.614951e+01
8.043642e+01	-1.619834e+01
8.090102e+01	-1.624629e+01
8.136830e+01	-1.629512e+01
8.183828e+01	-1.634285e+01
8.231097e+01	-1.639227e+01
8.278640e+01	-1.644210e+01
8.326457e+01	-1.649002e+01
8.374550e+01	-1.654029e+01
8.422921e+01	-1.658800e+01
8.471572e+01	-1.663646e+01
8.520503e+01	-1.668637e+01
8.569717e+01	-1.673400e+01
8.619215e+01	-1.678448e+01
8.669000e+01	-1.683392e+01
8.719071e+01	-1.688220e+01
8.769432e+01	-1.693139e+01
8.820084e+01	-1.698041e+01
8.871029e+01	-1.703063e+01
8.922267e+01	-1.707887e+01
8.973802e+01	-1.712791e+01
9.025634e+01	-1.717615e+01
9.077766e+01	-1.722581e+01
9.130199e+01	-1.727550e+01
9.182935e+01	-1.732382e+01
9.235975e+01	-1.737338e+01
9.289321e+01	-1.742322e+01
9.342976e+01	-1.747100e+01
9.396941e+01	-1.752185e+01
9.451217e+01	-1.757015e+01
9.505807e+01	-1.761874e+01
9.560712e+01	-1.766881e+01
9.615934e+01	-1.771706e+01
9.671476e+01	-1.776624e+01
9.727338e+01	-1.781519e+01
9.783522e+01	-1.786346e+01
9.840032e+01	-1.791389e+01
9.896867e+01	-1.796310e+01
9.954031e+01	-1.801323e+01
1.001153e+02	-1.806023e+01
1.006935e+02	-1.811128e+01
1.012751e+02	-1.816084e+01
1.018601e+02	-1.820963e+01
1.024484e+02	-1.826084e+01
1.030402e+02	-1.830726e+01
1.036353e+02	-1.835756e+01
1.042339e+02	-1.840790e+01
1.048360e+02	-1.845663e+01
1.054415e+02	-1.850679e+01
1.060505e+02	-1.855330e+01
1.066631e+02	-1.860347e+01
1.072791e+02	-1.865337e+01
1.078988e+02	-1.870233e+01
1.085220e+02	-1.875312e+01
1.091488e+02	-1.880135e+01
1.097793e+02	-1.885122e+01
1.104133e+02	-1.890016e+01
1.110511e+02	-1.894881e+01
1.116925e+02	-1.899954e+01
1.123376e+02	-1.904933e+01
1.129865e+02	-1.909632e+01
1.136391e+02	-1.914793e+01
1.142955e+02	-1.919636e+01
1.149556e+02	-1.924565e+01
1.156196e+02	-1.929533e+01
1.162874e+02	-1.934419e+01
1.169591e+02	-1.939440e+01
1.176347e+02	-1.944428e+01
1.183141e+02	-1.949400e+01
1.189975e+02	-1.954390e+01
1.196848e+02	-1.959289e+01
1.203761e+02	-1.964177e+01
1.210714e+02	-1.969180e+01
1.217707e+02	-1.973992e+01
1.224740e+02	-1.979002e+01
1.231814e+02	-1.983889e+01
1.238929e+02	-1.988937e+01
1.246085e+02	-1.993940e+01
1.253283e+02	-1.998900e+01
1.260522e+02	-2.003983e+01
1.267802e+02	-2.008824e+01
1.275125e+02	-2.013652e+01
1.282490e+02	-2.018726e+01
1.289898e+02	-2.023772e+01
1.297348e+02	-2.028410e+01
1.304842e+02	-2.033523e+01
1.312378e+02	-2.038515e+01
1.319959e+02	-2.043387e+01
1.327583e+02	-2.048453e+01
1.335251e+02	-2.053371e+01
1.342963e+02	-2.058462e+01
1.350720e+02	-2.063427e+01
1.358522e+02	-2.068323e+01
1.366368e+02	-2.073194e+01
1.374260e+02	-2.078126e+01
1.382198e+02	-2.082968e+01
1.390182e+02	-2.088209e+01
1.398211e+02	-2.092912e+01
1.406287e+02	-2.097822e+01
1.414410e+02	-2.103042e+01
1.422579e+02	-2.108040e+01
1.430796e+02	-2.112895e+01
1.439060e+02	-2.118058e+01
1.447372e+02	-2.122855e+01
1.455732e+02	-2.127699e+01
1.464141e+02	-2.132772e+01
1.472597e+02	-2.137851e+01
1.481103e+02	-2.142637e+01
1.489658e+02	-2.147719e+01
1.498262e+02	-2.152736e+01
1.506916e+02	-2.157606e+01
1.515620e+02	-2.162419e+01
1.524374e+02	-2.167545e+01
1.533179e+02	-2.172353e+01
1.542034e+02	-2.177588e+01
1.550941e+02	-2.182404e+01
1.559899e+02	-2.187580e+01
1.568909e+02	-2.192394e+01
1.577971e+02	-2.197550e+01
1.587085e+02	-2.202263e+01
1.596252e+02	-2.207451e+01
1.605472e+02	-2.212190e+01
1.614745e+02	-2.217234e+01
1.624072e+02	-2.222252e+01
1.633453e+02	-2.227315e+01
1.642887e+02	-2.232139e+01
1.652377e+02	-2.237274e+01
1.661921e+02	-2.242108e+01
1.671520e+02	-2.247144e+01
1.681175e+02	-2.252083e+01
1.690885e+02	-2.257041e+01
1.700651e+02	-2.261988e+01
1.710474e+02	-2.267135e+01
1.720354e+02	-2.271874e+01
1.730291e+02	-2.276938e+01
1.740285e+02	-2.281765e+01
1.750337e+02	-2.287076e+01
1.760446e+02	-2.291863e+01
1.770615e+02	-2.296940e+01
1.780842e+02	-2.301722e+01
1.791128e+02	-2.307066e+01
1.801473e+02	-2.312098e+01
1.811878e+02	-2.316975e+01
1.822344e+02	-2.321922e+01
1.832870e+02	-2.326881e+01
1.843456e+02	-2.331764e+01
1.854104e+02	-2.336598e+01
1.864813e+02	-2.341751e+01
1.875584e+02	-2.346833e+01
1.886418e+02	-2.351756e+01
1.897313e+02	-2.356547e+01
1.908272e+02	-2.361639e+01
1.919294e+02	-2.366477e+01
1.930380e+02	-2.371638e+01
1.941530e+02	-2.376749e+01
1.952744e+02	-2.381760e+01
1.964023e+02	-2.386917e+01
1.975367e+02	-2.391438e+01
1.986777e+02	-2.396508e+01
1.998252e+02	-2.401803e+01
2.009794e+02	-2.406354e+01
2.021403e+02	-2.411665e+01
2.033078e+02	-2.416759e+01
2.044821e+02	-2.421552e+01
2.056632e+02	-2.426623e+01
2.068511e+02	-2.431433e+01
2.080459e+02	-2.436531e+01
2.092475e+02	-2.441594e+01
2.104561e+02	-2.446439e+01
2.116717e+02	-2.451605e+01
2.128943e+02	-2.456447e+01
2.141240e+02	-2.461186e+01
2.153608e+02	-2.466492e+01
2.166047e+02	-2.471309e+01
2.178558e+02	-2.476138e+01
2.191141e+02	-2.481411e+01
2.203797e+02	-2.486033e+01
2.216526e+02	-2.491433e+01
2.229329e+02	-2.496218e+01
2.242205e+02	-2.501411e+01
2.255156e+02	-2.506512e+01
2.268182e+02	-2.511606e+01
2.281283e+02	-2.516280e+01
2.294459e+02	-2.521212e+01
2.307712e+02	-2.526190e+01
2.321041e+02	-2.531187e+01
2.334447e+02	-2.536601e+01
2.347931e+02	-2.541479e+01
2.361493e+02	-2.546315e+01
2.375133e+02	-2.551300e+01
2.388851e+02	-2.556349e+01
2.402649e+02	-2.561083e+01
2.416527e+02	-2.566366e+01
2.430484e+02	-2.571189e+01
2.444523e+02	-2.576460e+01
2.458642e+02	-2.580938e+01
2.472843e+02	-2.586384e+01
2.487126e+02	-2.591054e+01
2.501492e+02	-2.596265e+01
2.515940e+02	-2.601196e+01
2.530472e+02	-2.606217e+01
2.545088e+02	-2.611051e+01
2.559789e+02	-2.616301e+01
2.574574e+02	-2.620894e+01
2.589444e+02	-2.626171e+01
2.604401e+02	-2.630957e+01
2.619444e+02	-2.636335e+01
2.634574e+02	-2.640842e+01
2.649791e+02	-2.646077e+01
2.665096e+02	-2.651296e+01
2.680489e+02	-2.656118e+01
2.695972e+02	-2.661167e+01
2.711544e+02	-2.666192e+01
2.727205e+02	-2.670839e+01
2.742958e+02	-2.676228e+01
2.758801e+02	-2.681075e+01
2.774736e+02	-2.686015e+01
2.790762e+02	-2.690768e+01
2.806882e+02	-2.696155e+01
2.823094e+02	-2.701294e+01
2.839400e+02	-2.705997e+01
2.855800e+02	-2.710945e+01
2.872295e+02	-2.716275e+01
2.888886e+02	-2.720992e+01
2.905572e+02	-2.726226e+01
2.922354e+02	-2.730941e+01
2.939234e+02	-2.736169e+01
2.956211e+02	-2.741158e+01
2.973286e+02	-2.746061e+01
2.990459e+02	-2.750942e+01
3.007732e+02	-2.756089e+01
3.025104e+02	-2.761066e+01
3.042577e+02	-2.765979e+01
3.060151e+02	-2.771117e+01
3.077826e+02	-2.776039e+01
3.095604e+02	-2.780872e+01
3.113484e+02	-2.786285e+01
3.131467e+02	-2.791461e+01
3.149554e+02	-2.796249e+01
3.167746e+02	-2.801514e+01
3.186043e+02	-2.806335e+01
3.204445e+02	-2.811117e+01
3.222954e+02	-2.816120e+01
3.241570e+02	-2.820822e+01
3.260293e+02	-2.825751e+01
3.279124e+02	-2.831190e+01
3.298064e+02	-2.836262e+01
3.317114e+02	-2.840938e+01
3.336273e+02	-2.845971e+01
3.355544e+02	-2.851263e+01
3.374925e+02	-2.856520e+01
3.394418e+02	-2.860994e+01
3.414024e+02	-2.866508e+01
3.433744e+02	-2.871405e+01
3.453577e+02	-2.875956e+01
3.473525e+02	-2.881061e+01
3.493588e+02	-2.886221e+01
3.513766e+02	-2.891321e+01
3.534062e+02	-2.896233e+01
3.554474e+02	-2.901037e+01
3.575005e+02	-2.906216e+01
3.595654e+02	-2.911389e+01
3.616422e+02	-2.916414e+01
3.637311e+02	-2.920951e+01
3.658320e+02	-2.926308e+01
3.679450e+02	-2.931370e+01
3.700702e+02	-2.935968e+01
3.722077e+02	-2.941096e+01
3.743576e+02	-2.946114e+01
3.765199e+02	-2.951305e+01
3.786946e+02	-2.956377e+01
3.808820e+02	-2.961662e+01
3.830819e+02	-2.965924e+01
3.852946e+02	-2.971651e+01
3.875200e+02	-2.976505e+01
3.897583e+02	-2.981339e+01
3.920096e+02	-2.986486e+01
3.942738e+02	-2.990856e+01
3.965511e+02	-2.996321e+01
3.988416e+02	-3.001471e+01
4.011452e+02	-3.006093e+01
4.034622e+02	-3.011160e+01
4.057926e+02	-3.016379e+01
4.081365e+02	-3.021435e+01
4.104938e+02	-3.026457e+01
4.128648e+02	-3.031130e+01
4.152495e+02	-3.036259e+01
4.176480e+02	-3.041578e+01
4.200603e+02	-3.045804e+01
4.224866e+02	-3.051454e+01
4.249268e+02	-3.056669e+01
4.273812e+02	-3.061647e+01
4.298497e+02	-3.066571e+01
4.323325e+02	-3.071369e+01
4.348297e+02	-3.076436e+01
4.373412e+02	-3.081599e+01
4.398673e+02	-3.086068e+01
4.424079e+02	-3.091048e+01
4.449633e+02	-3.096481e+01
4.475334e+02	-3.102081e+01
4.501183e+02	-3.106725e+01
4.527182e+02	-3.111814e+01
4.553330e+02	-3.116570e+01
4.579630e+02	-3.121322e+01
4.606082e+02	-3.126689e+01
4.632687e+02	-3.131832e+01
4.659445e+02	-3.136583e+01
4.686358e+02	-3.141944e+01
4.713426e+02	-3.146969e+01
4.740650e+02	-3.151656e+01
4.768032e+02	-3.157116e+01
4.795572e+02	-3.162310e+01
4.823271e+02	-3.166802e+01
4.851130e+02	-3.171101e+01
4.879150e+02	-3.177049e+01
4.907332e+02	-3.181040e+01
4.935676e+02	-3.187213e+01
4.964185e+02	-3.191859e+01
4.992858e+02	-3.196792e+01
5.021696e+02	-3.201977e+01
5.050701e+02	-3.206676e+01
5.079874e+02	-3.212411e+01
5.109215e+02	-3.216718e+01
5.138726e+02	-3.221655e+01
5.168407e+02	-3.227533e+01
5.198259e+02	-3.232321e+01
5.228284e+02	-3.236901e+01
5.258482e+02	-3.241602e+01
5.288855e+02	-3.247277e+01
5.319403e+02	-3.251806e+01
5.350128e+02	-3.256751e+01
5.381030e+02	-3.262650e+01
5.412111e+02	-3.267069e+01
5.443371e+02	-3.272495e+01
5.474812e+02	-3.276746e+01
5.506434e+02	-3.282101e+01
5.538239e+02	-3.287562e+01
5.570228e+02	-3.292060e+01
5.602401e+02	-3.297298e+01
5.634760e+02	-3.302339e+01
5.667306e+02	-3.307317e+01
5.700040e+02	-3.312703e+01
5.732964e+02	-3.316989e+01
5.766077e+02	-3.322117e+01
5.799382e+02	-3.327842e+01
5.832879e+02	-3.332817e+01
5.866569e+02	-3.337437e+01
5.900454e+02	-3.342747e+01
5.934535e+02	-3.347615e+01
5.968813e+02	-3.352927e+01
6.003288e+02	-3.357920e+01
6.037963e+02	-3.362955e+01
6.072838e+02	-3.367425e+01
6.107914e+02	-3.372289e+01
6.143194e+02	-3.378163e+01
6.178676e+02	-3.382396e+01
6.214364e+02	-3.386805e+01
6.250258e+02	-3.392569e+01
6.286359e+02	-3.398266e+01
6.322669e+02	-3.402676e+01
6.359189e+02	-3.407824e+01
6.395919e+02	-3.413558e+01
6.432862e+02	-3.418180e+01
6.470017e+02	-3.422600e+01
6.507388e+02	-3.428742e+01
6.544974e+02	-3.432388e+01
6.582778e+02	-3.437710e+01
6.620800e+02	-3.443683e+01
6.659041e+02	-3.448456e+01
6.697504e+02	-3.452699e+01
6.736188e+02	-3.458016e+01
6.775096e+02	-3.462945e+01
6.814229e+02	-3.468866e+01
6.853587e+02	-3.473822e+01
6.893173e+02	-3.477834e+01
6.932988e+02	-3.482483e+01
6.973033e+02	-3.488019e+01
7.013309e+02	-3.494128e+01
