Frequency(Hz)	Magnitude(dB)
1.000000e+01	-2.178806e+00
1.005776e+01	-2.198567e+00
1.011585e+01	-2.218697e+00
1.017428e+01	-2.238542e+00
1.023305e+01	-2.258851e+00
1.029215e+01	-2.279023e+00
1.035160e+01	-2.299721e+00
1.041139e+01	-2.320398e+00
1.047153e+01	-2.340869e+00
1.053201e+01	-2.362204e+00
1.059284e+01	-2.383166e+00
1.065403e+01	-2.404126e+00
1.071556e+01	-2.425496e+00
1.077746e+01	-2.447342e+00
1.083971e+01	-2.468839e+00
1.090232e+01	-2.490441e+00
1.096529e+01	-2.512360e+00
1.102862e+01	-2.534425e+00
1.109232e+01	-2.556614e+00
1.115639e+01	-2.578808e+00
1.122083e+01	-2.601295e+00
1.128564e+01	-2.624037e+00
1.135083e+01	-2.646770e+00
1.141639e+01	-2.669523e+00
1.148233e+01	-2.692918e+00
1.154865e+01	-2.715839e+00
1.161536e+01	-2.739080e+00
1.168245e+01	-2.762715e+00
1.174992e+01	-2.786327e+00
1.181779e+01	-2.809937e+00
1.188605e+01	-2.834143e+00
1.195470e+01	-2.858067e+00
1.202375e+01	-2.882189e+00
1.209320e+01	-2.906710e+00
1.216305e+01	-2.931326e+00
1.223330e+01	-2.955462e+00
1.230396e+01	-2.980369e+00
1.237503e+01	-3.005212e+00
1.244651e+01	-3.030617e+00
1.251840e+01	-3.055605e+00
1.259070e+01	-3.080948e+00
1.266343e+01	-3.106123e+00
1.273657e+01	-3.132032e+00
1.281014e+01	-3.157829e+00
1.288413e+01	-3.183605e+00
1.295855e+01	-3.209827e+00
1.303339e+01	-3.235881e+00
1.310867e+01	-3.262337e+00
1.318439e+01	-3.288916e+00
1.326054e+01	-3.315565e+00
1.333713e+01	-3.342224e+00
1.341417e+01	-3.369204e+00
1.349165e+01	-3.396585e+00
1.356958e+01	-3.423499e+00
1.364795e+01	-3.450709e+00
1.372678e+01	-3.478207e+00
1.380607e+01	-3.506285e+00
1.388581e+01	-3.533587e+00
1.396602e+01	-3.561740e+00
1.404668e+01	-3.589783e+00
1.412782e+01	-3.617936e+00
1.420942e+01	-3.646533e+00
1.429149e+01	-3.674878e+00
1.437404e+01	-3.703203e+00
1.445706e+01	-3.732479e+00
1.454057e+01	-3.761304e+00
1.462455e+01	-3.790009e+00
1.470902e+01	-3.819371e+00
1.479398e+01	-3.848779e+00
1.487943e+01	-3.878139e+00
1.496537e+01	-3.907596e+00
1.505181e+01	-3.937509e+00
1.513875e+01	-3.967623e+00
1.522619e+01	-3.997342e+00
1.531414e+01	-4.027677e+00
1.540259e+01	-4.058086e+00
1.549156e+01	-4.088213e+00
1.558103e+01	-4.118655e+00
1.567103e+01	-4.149645e+00
1.576155e+01	-4.180661e+00
1.585258e+01	-4.211371e+00
1.594415e+01	-4.242714e+00
1.603624e+01	-4.273837e+00
1.612886e+01	-4.305259e+00
1.622202e+01	-4.336878e+00
1.631572e+01	-4.368577e+00
1.640996e+01	-4.400392e+00
1.650474e+01	-4.432301e+00
1.660008e+01	-4.464093e+00
1.669596e+01	-4.496533e+00
1.679239e+01	-4.528745e+00
1.688938e+01	-4.561317e+00
1.698694e+01	-4.593695e+00
1.708505e+01	-4.626239e+00
1.718373e+01	-4.659450e+00
1.728299e+01	-4.692459e+00
1.738281e+01	-4.725232e+00
1.748322e+01	-4.758899e+00
1.758420e+01	-4.792183e+00
1.768576e+01	-4.825395e+00
1.778792e+01	-4.859357e+00
1.789066e+01	-4.892815e+00
1.799399e+01	-4.926764e+00
1.809793e+01	-4.961105e+00
1.820246e+01	-4.994694e+00
1.830760e+01	-5.029142e+00
1.841334e+01	-5.063646e+00
1.851969e+01	-5.097966e+00
1.862666e+01	-5.132574e+00
1.873425e+01	-5.167466e+00
1.884246e+01	-5.202223e+00
1.895129e+01	-5.237262e+00
1.906075e+01	-5.272409e+00
1.917085e+01	-5.307489e+00
1.928158e+01	-5.342949e+00
1.939295e+01	-5.378490e+00
1.950496e+01	-5.414013e+00
1.961762e+01	-5.449611e+00
1.973093e+01	-5.485770e+00
1.984490e+01	-5.521561e+00
1.995952e+01	-5.557702e+00
2.007480e+01	-5.593835e+00
2.019076e+01	-5.630261e+00
2.030738e+01	-5.666367e+00
2.042467e+01	-5.703091e+00
2.054264e+01	-5.739421e+00
2.066130e+01	-5.776218e+00
2.078064e+01	-5.813202e+00
2.090066e+01	-5.849855e+00
2.102139e+01	-5.887477e+00
2.114280e+01	-5.924482e+00
2.126492e+01	-5.961989e+00
2.138775e+01	-5.999062e+00
2.151128e+01	-6.036721e+00
2.163553e+01	-6.074306e+00
2.176050e+01	-6.112039e+00
2.188619e+01	-6.150053e+00
2.201260e+01	-6.187625e+00
2.213974e+01	-6.225555e+00
2.226762e+01	-6.263489e+00
2.239624e+01	-6.301979e+00
2.252560e+01	-6.340327e+00
2.265571e+01	-6.378712e+00
2.278656e+01	-6.417227e+00
2.291818e+01	-6.456239e+00
2.305055e+01	-6.494788e+00
2.318369e+01	-6.533569e+00
2.331760e+01	-6.572765e+00
2.345228e+01	-6.611764e+00
2.358774e+01	-6.650904e+00
2.372398e+01	-6.690137e+00
2.386101e+01	-6.729633e+00
2.399883e+01	-6.769065e+00
2.413745e+01	-6.808386e+00
2.427686e+01	-6.847894e+00
2.441709e+01	-6.888398e+00
2.455812e+01	-6.928031e+00
2.469997e+01	-6.967513e+00
2.484263e+01	-7.007373e+00
2.498612e+01	-7.047858e+00
2.513044e+01	-7.087988e+00
2.527559e+01	-7.127987e+00
2.542158e+01	-7.168835e+00
2.556842e+01	-7.209063e+00
2.571610e+01	-7.249919e+00
2.586463e+01	-7.290475e+00
2.601403e+01	-7.331255e+00
2.616428e+01	-7.371719e+00
2.631541e+01	-7.412971e+00
2.646740e+01	-7.453898e+00
2.662028e+01	-7.495047e+00
2.677404e+01	-7.535993e+00
2.692868e+01	-7.577198e+00
2.708422e+01	-7.618805e+00
2.724066e+01	-7.659975e+00
2.739800e+01	-7.701420e+00
2.755625e+01	-7.743092e+00
2.771541e+01	-7.784499e+00
2.787550e+01	-7.826476e+00
2.803650e+01	-7.868089e+00
2.819844e+01	-7.910271e+00
2.836131e+01	-7.951899e+00
2.852513e+01	-7.994132e+00
2.868989e+01	-8.036226e+00
2.885560e+01	-8.078284e+00
2.902227e+01	-8.120694e+00
2.918990e+01	-8.162936e+00
2.935850e+01	-8.205702e+00
2.952807e+01	-8.247973e+00
2.969863e+01	-8.290763e+00
2.987016e+01	-8.332895e+00
3.004269e+01	-8.376368e+00
3.021622e+01	-8.418692e+00
3.039075e+01	-8.462133e+00
3.056628e+01	-8.504403e+00
3.074283e+01	-8.548121e+00
3.092040e+01	-8.590916e+00
3.109900e+01	-8.634019e+00
3.127862e+01	-8.676847e+00
3.145929e+01	-8.720614e+00
3.164099e+01	-8.763541e+00
3.182375e+01	-8.807452e+00
3.200756e+01	-8.850750e+00
3.219244e+01	-8.893844e+00
3.237838e+01	-8.937927e+00
3.256540e+01	-8.981610e+00
3.275349e+01	-9.024584e+00
3.294268e+01	-9.068906e+00
3.313295e+01	-9.112642e+00
3.332433e+01	-9.156601e+00
3.351681e+01	-9.200317e+00
3.371040e+01	-9.245035e+00
3.390511e+01	-9.288922e+00
3.410094e+01	-9.333096e+00
3.429791e+01	-9.377155e+00
3.449601e+01	-9.421200e+00
3.469526e+01	-9.465644e+00
3.489566e+01	-9.510208e+00
3.509721e+01	-9.554657e+00
3.529993e+01	-9.599372e+00
3.550382e+01	-9.643811e+00
3.570889e+01	-9.688386e+00
3.591515e+01	-9.733220e+00
3.612259e+01	-9.777478e+00
3.633123e+01	-9.823283e+00
3.654108e+01	-9.867270e+00
3.675214e+01	-9.912167e+00
3.696442e+01	-9.957196e+00
3.717792e+01	-1.000219e+01
3.739266e+01	-1.004720e+01
3.760864e+01	-1.009261e+01
3.782587e+01	-1.013774e+01
3.804435e+01	-1.018282e+01
3.826409e+01	-1.022811e+01
3.848510e+01	-1.027295e+01
3.870739e+01	-1.031836e+01
3.893096e+01	-1.036398e+01
3.915583e+01	-1.040905e+01
3.938199e+01	-1.045469e+01
3.960946e+01	-1.050001e+01
3.983824e+01	-1.054593e+01
4.006834e+01	-1.059116e+01
4.029978e+01	-1.063781e+01
4.053255e+01	-1.068286e+01
4.076666e+01	-1.072938e+01
4.100213e+01	-1.077503e+01
4.123896e+01	-1.082089e+01
4.147715e+01	-1.086679e+01
4.171672e+01	-1.091216e+01
4.195767e+01	-1.095866e+01
4.220002e+01	-1.100470e+01
4.244377e+01	-1.105083e+01
4.268892e+01	-1.109667e+01
4.293549e+01	-1.114263e+01
4.318348e+01	-1.118920e+01
4.343291e+01	-1.123505e+01
4.368377e+01	-1.128201e+01
4.393609e+01	-1.132803e+01
4.418986e+01	-1.137450e+01
4.444510e+01	-1.142123e+01
4.470182e+01	-1.146802e+01
4.496001e+01	-1.151397e+01
4.521970e+01	-1.155963e+01
4.548089e+01	-1.160752e+01
4.574358e+01	-1.165293e+01
4.600779e+01	-1.169955e+01
4.627353e+01	-1.174670e+01
4.654081e+01	-1.179290e+01
4.680963e+01	-1.184016e+01
4.708000e+01	-1.188710e+01
4.735193e+01	-1.193299e+01
4.762543e+01	-1.198020e+01
4.790051e+01	-1.202705e+01
4.817719e+01	-1.207462e+01
4.845545e+01	-1.212048e+01
4.873533e+01	-1.216843e+01
4.901682e+01	-1.221477e+01
4.929994e+01	-1.226246e+01
4.958470e+01	-1.230923e+01
4.987110e+01	-1.235655e+01
5.015915e+01	-1.240338e+01
5.044887e+01	-1.245147e+01
5.074026e+01	-1.249779e+01
5.103333e+01	-1.254558e+01
5.132810e+01	-1.259200e+01
5.162457e+01	-1.263920e+01
5.192275e+01	-1.268711e+01
5.222265e+01	-1.273434e+01
5.252429e+01	-1.278158e+01
5.282767e+01	-1.282892e+01
5.313280e+01	-1.287599e+01
5.343969e+01	-1.292413e+01
5.374836e+01	-1.297068e+01
5.405880e+01	-1.301890e+01
5.437105e+01	-1.306618e+01
5.468509e+01	-1.311423e+01
5.500095e+01	-1.316194e+01
5.531863e+01	-1.320957e+01
5.563815e+01	-1.325657e+01
5.595951e+01	-1.330559e+01
5.628273e+01	-1.335176e+01
5.660782e+01	-1.340069e+01
5.693479e+01	-1.344730e+01
5.726364e+01	-1.349525e+01
5.759439e+01	-1.354357e+01
5.792705e+01	-1.359080e+01
5.826164e+01	-1.363929e+01
5.859815e+01	-1.368715e+01
5.893662e+01	-1.373550e+01
5.927703e+01	-1.378221e+01
5.961941e+01	-1.383061e+01
5.996377e+01	-1.387761e+01
6.031012e+01	-1.392660e+01
6.065847e+01	-1.397411e+01
6.100883e+01	-1.402349e+01
6.136121e+01	-1.407083e+01
6.171563e+01	-1.411908e+01
6.207210e+01	-1.416774e+01
6.243063e+01	-1.421488e+01
6.279122e+01	-1.426325e+01
6.315390e+01	-1.431166e+01
6.351868e+01	-1.435980e+01
6.388556e+01	-1.440819e+01
6.425456e+01	-1.445576e+01
6.462569e+01	-1.450470e+01
6.499897e+01	-1.455328e+01
6.537440e+01	-1.460147e+01
6.575200e+01	-1.464997e+01
6.613178e+01	-1.469661e+01
6.651375e+01	-1.474497e+01
6.689793e+01	-1.479394e+01
6.728433e+01	-1.484297e+01
6.767297e+01	-1.489073e+01
6.806384e+01	-1.493820e+01
6.845698e+01	-1.498739e+01
6.885238e+01	-1.503609e+01
6.925007e+01	-1.508479e+01
6.965005e+01	-1.513340e+01
7.005235e+01	-1.518250e+01
7.045697e+01	-1.523102e+01
7.086393e+01	-1.527855e+01
7.127323e+01	-1.532756e+01
7.168490e+01	-1.537607e+01
7.209895e+01	-1.542484e+01
7.251539e+01	-1.547345e+01
7.293424e+01	-1.552104e+01
7.335551e+01	-1.557059e+01
7.377920e+01	-1.561895e+01
7.420535e+01	-1.566784e+01
7.463396e+01	-1.571675e+01
7.506504e+01	-1.576540e+01
7.549861e+01	-1.581391e+01
7.593469e+01	-1.586249e+01
7.637328e+01	-1.591116e+01
7.681441e+01	-1.595953e+01
7.725809e+01	-1.600845e+01
7.770433e+01	-1.605742e+01
7.815315e+01	-1.610675e+01
7.860456e+01	-1.615511e+01
7.905857e+01	-1.620390e+01
7.951521e+01	-1.625355e+01
7.997449e+01	-1.630191e+01
8.043642e+01	-1.635093e+01
8.090102e+01	-1.639957e+01
8.136830e+01	-1.644811e+01
8.183828e+01	-1.649625e+01
8.231097e+01	-1.654589e+01
8.278640e+01	-1.659433e+01
8.326457e+01	-1.664520e+01
8.374550e+01	-1.669324e+01
8.422921e+01	-1.674184e+01
8.471572e+01	-1.679145e+01
8.520503e+01	-1.684088e+01
8.569717e+01	-1.688928e+01
8.619215e+01	-1.693828e+01
8.669000e+01	-1.698755e+01
8.719071e+01	-1.703594e+01
8.769432e+01	-1.708537e+01
8.820084e+01	-1.713309e+01
8.871029e+01	-1.718308e+01
8.922267e+01	-1.723250e+01
8.973802e+01	-1.728016e+01
9.025634e+01	-1.733029e+01
9.077766e+01	-1.737978e+01
9.130199e+01	-1.742872e+01
9.182935e+01	-1.747826e+01
9.235975e+01	-1.752722e+01
9.289321e+01	-1.757604e+01
9.342976e+01	-1.762438e+01
9.396941e+01	-1.767419e+01
9.451217e+01	-1.772294e+01
9.505807e+01	-1.777241e+01
9.560712e+01	-1.782150e+01
9.615934e+01	-1.787156e+01
9.671476e+01	-1.792039e+01
9.727338e+01	-1.797062e+01
9.783522e+01	-1.801906e+01
9.840032e+01	-1.806793e+01
9.896867e+01	-1.811540e+01
9.954031e+01	-1.816695e+01
1.001153e+02	-1.821543e+01
1.006935e+02	-1.826462e+01
1.012751e+02	-1.831348e+01
1.018601e+02	-1.836312e+01
1.024484e+02	-1.841398e+01
1.030402e+02	-1.846229e+01
1.036353e+02	-1.851114e+01
1.042339e+02	-1.856166e+01
1.048360e+02	-1.861173e+01
1.054415e+02	-1.865925e+01
1.060505e+02	-1.870862e+01
1.066631e+02	-1.875917e+01
1.072791e+02	-1.880859e+01
1.078988e+02	-1.885676e+01
1.085220e+02	-1.890711e+01
1.091488e+02	-1.895620e+01
1.097793e+02	-1.900584e+01
1.104133e+02	-1.905415e+01
1.110511e+02	-1.910334e+01
1.116925e+02	-1.915131e+01
1.123376e+02	-1.920168e+01
1.129865e+02	-1.925164e+01
1.136391e+02	-1.930312e+01
1.142955e+02	-1.935099e+01
1.149556e+02	-1.939986e+01
1.156196e+02	-1.945116e+01
1.162874e+02	-1.950077e+01
1.169591e+02	-1.954987e+01
1.176347e+02	-1.959935e+01
1.183141e+02	-1.964763e+01
1.189975e+02	-1.969866e+01
1.196848e+02	-1.974785e+01
1.203761e+02	-1.979674e+01
1.210714e+02	-1.984443e+01
1.217707e+02	-1.989639e+01
1.224740e+02	-1.994539e+01
1.231814e+02	-1.999493e+01
1.238929e+02	-2.004295e+01
1.246085e+02	-2.009240e+01
1.253283e+02	-2.014352e+01
1.260522e+02	-2.019113e+01
1.267802e+02	-2.024237e+01
1.275125e+02	-2.029152e+01
1.282490e+02	-2.034067e+01
1.289898e+02	-2.039004e+01
1.297348e+02	-2.044065e+01
1.304842e+02	-2.049151e+01
1.312378e+02	-2.054099e+01
1.319959e+02	-2.058924e+01
1.327583e+02	-2.063844e+01
1.335251e+02	-2.068880e+01
1.342963e+02	-2.073839e+01
1.350720e+02	-2.078925e+01
1.358522e+02	-2.083758e+01
1.366368e+02	-2.088767e+01
1.374260e+02	-2.093562e+01
1.382198e+02	-2.098607e+01
1.390182e+02	-2.103810e+01
1.398211e+02	-2.108649e+01
1.406287e+02	-2.113547e+01
1.414410e+02	-2.118567e+01
1.422579e+02	-2.123546e+01
1.430796e+02	-2.128318e+01
1.439060e+02	-2.133539e+01
1.447372e+02	-2.138510e+01
1.455732e+02	-2.143260e+01
1.464141e+02	-2.148330e+01
1.472597e+02	-2.153306e+01
1.481103e+02	-2.158340e+01
1.489658e+02	-2.163375e+01
1.498262e+02	-2.168129e+01
1.506916e+02	-2.173164e+01
1.515620e+02	-2.178163e+01
1.524374e+02	-2.183209e+01
1.533179e+02	-2.187975e+01
1.542034e+02	-2.193023e+01
1.550941e+02	-2.198055e+01
1.559899e+02	-2.203255e+01
1.568909e+02	-2.208000e+01
1.577971e+02	-2.213074e+01
1.587085e+02	-2.217871e+01
1.596252e+02	-2.222978e+01
1.605472e+02	-2.228133e+01
1.614745e+02	-2.232813e+01
1.624072e+02	-2.238065e+01
1.633453e+02	-2.242931e+01
1.642887e+02	-2.248018e+01
1.652377e+02	-2.252630e+01
1.661921e+02	-2.257785e+01
1.671520e+02	-2.262774e+01
1.681175e+02	-2.267465e+01
1.690885e+02	-2.272691e+01
1.700651e+02	-2.277622e+01
1.710474e+02	-2.282766e+01
1.720354e+02	-2.287813e+01
1.730291e+02	-2.292564e+01
1.740285e+02	-2.297299e+01
1.750337e+02	-2.302647e+01
1.760446e+02	-2.307491e+01
1.770615e+02	-2.312420e+01
1.780842e+02	-2.317661e+01
1.791128e+02	-2.322634e+01
1.801473e+02	-2.327549e+01
1.811878e+02	-2.332444e+01
1.822344e+02	-2.337408e+01
1.832870e+02	-2.342092e+01
1.843456e+02	-2.347218e+01
1.854104e+02	-2.352386e+01
1.864813e+02	-2.357161e+01
1.875584e+02	-2.362176e+01
1.886418e+02	-2.367190e+01
1.897313e+02	-2.372057e+01
1.908272e+02	-2.377111e+01
1.919294e+02	-2.382167e+01
1.930380e+02	-2.387446e+01
1.941530e+02	-2.392074e+01
1.952744e+02	-2.397155e+01
1.964023e+02	-2.402251e+01
1.975367e+02	-2.407026e+01
1.986777e+02	-2.412208e+01
1.998252e+02	-2.417229e+01
2.009794e+02	-2.422184e+01
2.021403e+02	-2.426950e+01
2.033078e+02	-2.431872e+01
2.044821e+02	-2.437132e+01
2.056632e+02	-2.442226e+01
2.068511e+02	-2.447194e+01
2.080459e+02	-2.452182e+01
2.092475e+02	-2.457020e+01
2.104561e+02	-2.461999e+01
2.116717e+02	-2.466867e+01
2.128943e+02	-2.472198e+01
2.141240e+02	-2.477094e+01
2.153608e+02	-2.482090e+01
2.166047e+02	-2.486888e+01
2.178558e+02	-2.492142e+01
2.191141e+02	-2.496744e+01
2.203797e+02	-2.501785e+01
2.216526e+02	-2.506775e+01
2.229329e+02	-2.512027e+01
2.242205e+02	-2.517058e+01
2.255156e+02	-2.522115e+01
2.268182e+02	-2.526931e+01
2.281283e+02	-2.532112e+01
2.294459e+02	-2.537110e+01
2.307712e+02	-2.541848e+01
2.321041e+02	-2.546556e+01
2.334447e+02	-2.551892e+01
2.347931e+02	-2.556676e+01
2.361493e+02	-2.561964e+01
2.375133e+02	-2.566730e+01
2.388851e+02	-2.572017e+01
2.402649e+02	-2.576890e+01
2.416527e+02	-2.582156e+01
2.430484e+02	-2.586607e+01
2.444523e+02	-2.591973e+01
2.458642e+02	-2.596547e+01
2.472843e+02	-2.601733e+01
2.487126e+02	-2.606916e+01
2.501492e+02	-2.611547e+01
2.515940e+02	-2.616761e+01
2.530472e+02	-2.621996e+01
2.545088e+02	-2.626717e+01
2.559789e+02	-2.632060e+01
2.574574e+02	-2.637030e+01
2.589444e+02	-2.641681e+01
2.604401e+02	-2.646760e+01
2.619444e+02	-2.651694e+01
2.634574e+02	-2.657162e+01
2.649791e+02	-2.662073e+01
2.665096e+02	-2.666841e+01
2.680489e+02	-2.671618e+01
2.695972e+02	-2.676776e+01
2.711544e+02	-2.682082e+01
2.727205e+02	-2.686783e+01
2.742958e+02	-2.691855e+01
2.758801e+02	-2.696726e+01
2.774736e+02	-2.701595e+01
2.790762e+02	-2.706620e+01
2.806882e+02	-2.711851e+01
2.823094e+02	-2.716952e+01
2.839400e+02	-2.721700e+01
2.855800e+02	-2.726441e+01
2.872295e+02	-2.731844e+01
2.888886e+02	-2.736835e+01
2.905572e+02	-2.741954e+01
2.922354e+02	-2.746777e+01
2.939234e+02	-2.751788e+01
2.956211e+02	-2.757060e+01
2.973286e+02	-2.761340e+01
2.990459e+02	-2.766559e+01
3.007732e+02	-2.771803e+01
3.025104e+02	-2.777069e+01
3.042577e+02	-2.781876e+01
3.060151e+02	-2.786597e+01
3.077826e+02	-2.791641e+01
3.095604e+02	-2.796864e+01
3.113484e+02	-2.801868e+01
3.131467e+02	-2.806903e+01
3.149554e+02	-2.811635e+01
3.167746e+02	-2.816672e+01
3.186043e+02	-2.821829e+01
3.204445e+02	-2.827283e+01
3.222954e+02	-2.831778e+01
3.241570e+02	-2.836819e+01
3.260293e+02	-2.841633e+01
3.279124e+02	-2.846633e+01
3.298064e+02	-2.851845e+01
3.317114e+02	-2.856887e+01
3.336273e+02	-2.861852e+01
3.355544e+02	-2.866324e+01
3.374925e+02	-2.872016e+01
3.394418e+02	-2.877185e+01
3.414024e+02	-2.882073e+01
3.433744e+02	-2.886697e+01
3.453577e+02	-2.892041e+01
3.473525e+02	-2.896824e+01
3.493588e+02	-2.902035e+01
3.513766e+02	-2.906679e+01
3.534062e+02	-2.911373e+01
3.554474e+02	-2.916700e+01
3.575005e+02	-2.921833e+01
3.595654e+02	-2.926842e+01
3.616422e+02	-2.931570e+01
3.637311e+02	-2.937175e+01
3.658320e+02	-2.942056e+01
3.679450e+02	-2.947034e+01
3.700702e+02	-2.952055e+01
3.722077e+02	-2.957125e+01
3.743576e+02	-2.962897e+01
3.765199e+02	-2.967225e+01
3.786946e+02	-2.971582e+01
3.808820e+02	-2.977191e+01
3.830819e+02	-2.981925e+01
3.852946e+02	-2.986996e+01
3.875200e+02	-2.992237e+01
3.897583e+02	-2.997068e+01
3.920096e+02	-3.002572e+01
3.942738e+02	-3.006993e+01
3.965511e+02	-3.012584e+01
3.988416e+02	-3.016961e+01
4.011452e+02	-3.021866e+01
4.034622e+02	-3.027001e+01
4.057926e+02	-3.031937e+01
4.081365e+02	-3.037265e+01
4.104938e+02	-3.041762e+01
4.128648e+02	-3.047221e+01
4.152495e+02	-3.052612e+01
4.176480e+02	-3.057589e+01
4.200603e+02	-3.062587e+01
4.224866e+02	-3.067104e+01
4.249268e+02	-3.071774e+01
4.273812e+02	-3.077628e+01
4.298497e+02	-3.082038e+01
4.323325e+02	-3.087247e+01
4.348297e+02	-3.092373e+01
4.373412e+02	-3.097295e+01
4.398673e+02	-3.102433e+01
4.424079e+02	-3.106695e+01
4.449633e+02	-3.111820e+01
4.475334e+02	-3.116914e+01
4.501183e+02	-3.122681e+01
4.527182e+02	-3.126921e+01
4.553330e+02	-3.132647e+01
4.579630e+02	-3.137413e+01
4.606082e+02	-3.142537e+01
4.632687e+02	-3.146990e+01
4.659445e+02	-3.152495e+01
4.686358e+02	-3.157380e+01
4.713426e+02	-3.162159e+01
4.740650e+02	-3.167434e+01
4.768032e+02	-3.171833e+01
4.795572e+02	-3.177682e+01
4.823271e+02	-3.182845e+01
4.851130e+02	-3.187664e+01
4.879150e+02	-3.192483e+01
4.907332e+02	-3.197867e+01
4.935676e+02	-3.202605e+01
4.964185e+02	-3.207932e+01
4.992858e+02	-3.212721e+01
5.021696e+02	-3.217470e+01
5.050701e+02	-3.222704e+01
5.079874e+02	-3.227693e+01
5.109215e+02	-3.232886e+01
5.138726e+02	-3.237703e+01
5.168407e+02	-3.243249e+01
5.198259e+02	-3.247311e+01
5.228284e+02	-3.252973e+01
5.258482e+02	-3.258542e+01
5.288855e+02	-3.262845e+01
5.319403e+02	-3.267409e+01
5.350128e+02	-3.272520e+01
5.381030e+02	-3.277833e+01
5.412111e+02	-3.282952e+01
5.443371e+02	-3.287722e+01
5.474812e+02	-3.293056e+01
5.506434e+02	-3.297536e+01
5.538239e+02	-3.303194e+01
5.570228e+02	-3.307972e+01
5.602401e+02	-3.313604e+01
5.634760e+02	-3.318084e+01
5.667306e+02	-3.323614e+01
5.700040e+02	-3.327726e+01
5.732964e+02	-3.333755e+01
5.766077e+02	-3.338324e+01
5.799382e+02	-3.343016e+01
5.832879e+02	-3.348092e+01
5.866569e+02	-3.353459e+01
5.900454e+02	-3.358743e+01
5.934535e+02	-3.363578e+01
5.968813e+02	-3.368090e+01
6.003288e+02	-3.373364e+01
6.037963e+02	-3.378881e+01
6.072838e+02	-3.383140e+01
6.107914e+02	-3.388627e+01
6.143194e+02	-3.394145e+01
6.178676e+02	-3.399321e+01
6.214364e+02	-3.403744e+01
6.250258e+02	-3.408998e+01
6.286359e+02	-3.413185e+01
6.322669e+02	-3.418774e+01
6.359189e+02	-3.423640e+01
6.395919e+02	-3.429131e+01
6.432862e+02	-3.433986e+01
6.470017e+02	-3.438787e+01
6.507388e+02	-3.444089e+01
6.544974e+02	-3.449354e+01
6.582778e+02	-3.453863e+01
6.620800e+02	-3.459024e+01
6.659041e+02	-3.463895e+01
6.697504e+02	-3.468693e+01
6.736188e+02	-3.474473e+01
6.775096e+02	-3.478922e+01
6.814229e+02	-3.484462e+01
6.853587e+02	-3.488404e+01
6.893173e+02	-3.494969e+01
6.932988e+02	-3.499529e+01
6.973033e+02	-3.504404e+01
7.013309e+02	-3.509231e+01
