Frequency(Hz)	Magnitude(dB)
1.000000e+01	-2.322156e+00
1.005776e+01	-2.342789e+00
1.011585e+01	-2.363873e+00
1.017428e+01	-2.384813e+00
1.023305e+01	-2.406088e+00
1.029215e+01	-2.427482e+00
1.035160e+01	-2.449020e+00
1.041139e+01	-2.470503e+00
1.047153e+01	-2.492306e+00
1.053201e+01	-2.514086e+00
1.059284e+01	-2.536324e+00
1.065403e+01	-2.558491e+00
1.071556e+01	-2.580732e+00
1.077746e+01	-2.603365e+00
1.083971e+01	-2.625876e+00
1.090232e+01	-2.648681e+00
1.096529e+01	-2.671617e+00
1.102862e+01	-2.694676e+00
1.109232e+01	-2.717828e+00
1.115639e+01	-2.741161e+00
1.122083e+01	-2.764882e+00
1.128564e+01	-2.788529e+00
1.135083e+01	-2.811906e+00
1.141639e+01	-2.836130e+00
1.148233e+01	-2.859857e+00
1.154865e+01	-2.884424e+00
1.161536e+01	-2.908614e+00
1.168245e+01	-2.933158e+00
1.174992e+01	-2.958054e+00
1.181779e+01	-2.982527e+00
1.188605e+01	-3.007571e+00
1.195470e+01	-3.032790e+00
1.202375e+01	-3.057835e+00
1.209320e+01	-3.083158e+00
1.216305e+01	-3.108784e+00
1.223330e+01	-3.134243e+00
1.230396e+01	-3.160091e+00
1.237503e+01	-3.186022e+00
1.244651e+01	-3.212329e+00
1.251840e+01	-3.238499e+00
1.259070e+01	-3.264910e+00
1.266343e+01	-3.291178e+00
1.273657e+01	-3.317707e+00
1.281014e+01	-3.344795e+00
1.288413e+01	-3.371481e+00
1.295855e+01	-3.398671e+00
1.303339e+01	-3.426078e+00
1.310867e+01	-3.453379e+00
1.318439e+01	-3.480725e+00
1.326054e+01	-3.508435e+00
1.333713e+01	-3.536052e+00
1.341417e+01	-3.564126e+00
1.349165e+01	-3.592191e+00
1.356958e+01	-3.620553e+00
1.364795e+01	-3.648723e+00
1.372678e+01	-3.677433e+00
1.380607e+01	-3.706098e+00
1.388581e+01	-3.734845e+00
1.396602e+01	-3.763726e+00
1.404668e+01	-3.792653e+00
1.412782e+01	-3.821871e+00
1.420942e+01	-3.851319e+00
1.429149e+01	-3.880724e+00
1.437404e+01	-3.910390e+00
1.445706e+01	-3.940037e+00
1.454057e+01	-3.970022e+00
1.462455e+01	-4.000057e+00
1.470902e+01	-4.030144e+00
1.479398e+01	-4.060482e+00
1.487943e+01	-4.090924e+00
1.496537e+01	-4.121691e+00
1.505181e+01	-4.152691e+00
1.513875e+01	-4.183190e+00
1.522619e+01	-4.214316e+00
1.531414e+01	-4.245360e+00
1.540259e+01	-4.276703e+00
1.549156e+01	-4.307946e+00
1.558103e+01	-4.339754e+00
1.567103e+01	-4.371239e+00
1.576155e+01	-4.403010e+00
1.585258e+01	-4.435010e+00
1.594415e+01	-4.466911e+00
1.603624e+01	-4.499199e+00
1.612886e+01	-4.531756e+00
1.622202e+01	-4.564080e+00
1.631572e+01	-4.596569e+00
1.640996e+01	-4.629652e+00
1.650474e+01	-4.662454e+00
1.660008e+01	-4.695370e+00
1.669596e+01	-4.728197e+00
1.679239e+01	-4.761667e+00
1.688938e+01	-4.795189e+00
1.698694e+01	-4.828477e+00
1.708505e+01	-4.862061e+00
1.718373e+01	-4.896106e+00
1.728299e+01	-4.929786e+00
1.738281e+01	-4.963864e+00
1.748322e+01	-4.997931e+00
1.758420e+01	-5.032243e+00
1.768576e+01	-5.066597e+00
1.778792e+01	-5.101312e+00
1.789066e+01	-5.135938e+00
1.799399e+01	-5.170547e+00
1.809793e+01	-5.205308e+00
1.820246e+01	-5.240296e+00
1.830760e+01	-5.275579e+00
1.841334e+01	-5.310918e+00
1.851969e+01	-5.345958e+00
1.862666e+01	-5.381677e+00
1.873425e+01	-5.416977e+00
1.884246e+01	-5.452855e+00
1.895129e+01	-5.488911e+00
1.906075e+01	-5.524794e+00
1.917085e+01	-5.560731e+00
1.928158e+01	-5.596945e+00
1.939295e+01	-5.633228e+00
1.950496e+01	-5.669674e+00
1.961762e+01	-5.706258e+00
1.973093e+01	-5.743155e+00
1.984490e+01	-5.779273e+00
1.995952e+01	-5.816360e+00
2.007480e+01	-5.853271e+00
2.019076e+01	-5.890534e+00
2.030738e+01	-5.927612e+00
2.042467e+01	-5.965083e+00
2.054264e+01	-6.002370e+00
2.066130e+01	-6.039845e+00
2.078064e+01	-6.077521e+00
2.090066e+01	-6.115259e+00
2.102139e+01	-6.153019e+00
2.114280e+01	-6.190827e+00
2.126492e+01	-6.229015e+00
2.138775e+01	-6.266987e+00
2.151128e+01	-6.305343e+00
2.163553e+01	-6.343614e+00
2.176050e+01	-6.382425e+00
2.188619e+01	-6.421137e+00
2.201260e+01	-6.459273e+00
2.213974e+01	-6.498518e+00
2.226762e+01	-6.537360e+00
2.239624e+01	-6.576022e+00
2.252560e+01	-6.615254e+00
2.265571e+01	-6.654168e+00
2.278656e+01	-6.693797e+00
2.291818e+01	-6.732795e+00
2.305055e+01	-6.772287e+00
2.318369e+01	-6.811974e+00
2.331760e+01	-6.851659e+00
2.345228e+01	-6.891875e+00
2.358774e+01	-6.931328e+00
2.372398e+01	-6.971440e+00
2.386101e+01	-7.011673e+00
2.399883e+01	-7.051274e+00
2.413745e+01	-7.091755e+00
2.427686e+01	-7.131964e+00
2.441709e+01	-7.172051e+00
2.455812e+01	-7.212545e+00
2.469997e+01	-7.252831e+00
2.484263e+01	-7.293613e+00
2.498612e+01	-7.334824e+00
2.513044e+01	-7.375439e+00
2.527559e+01	-7.416595e+00
2.542158e+01	-7.457173e+00
2.556842e+01	-7.498698e+00
2.571610e+01	-7.539502e+00
2.586463e+01	-7.580760e+00
2.601403e+01	-7.622550e+00
2.616428e+01	-7.663667e+00
2.631541e+01	-7.705158e+00
2.646740e+01	-7.746960e+00
2.662028e+01	-7.788606e+00
2.677404e+01	-7.829964e+00
2.692868e+01	-7.872304e+00
2.708422e+01	-7.913899e+00
2.724066e+01	-7.955846e+00
2.739800e+01	-7.997749e+00
2.755625e+01	-8.040185e+00
2.771541e+01	-8.082335e+00
2.787550e+01	-8.124327e+00
2.803650e+01	-8.166700e+00
2.819844e+01	-8.209224e+00
2.836131e+01	-8.251916e+00
2.852513e+01	-8.294362e+00
2.868989e+01	-8.336897e+00
2.885560e+01	-8.379979e+00
2.902227e+01	-8.422797e+00
2.918990e+01	-8.465357e+00
2.935850e+01	-8.507902e+00
2.952807e+01	-8.551914e+00
2.969863e+01	-8.594620e+00
2.987016e+01	-8.637647e+00
3.004269e+01	-8.681149e+00
3.021622e+01	-8.724335e+00
3.039075e+01	-8.767165e+00
3.056628e+01	-8.810836e+00
3.074283e+01	-8.854373e+00
3.092040e+01	-8.898137e+00
3.109900e+01	-8.941698e+00
3.127862e+01	-8.985061e+00
3.145929e+01	-9.028822e+00
3.164099e+01	-9.072843e+00
3.182375e+01	-9.116567e+00
3.200756e+01	-9.160728e+00
3.219244e+01	-9.203888e+00
3.237838e+01	-9.248304e+00
3.256540e+01	-9.292836e+00
3.275349e+01	-9.336757e+00
3.294268e+01	-9.380815e+00
3.313295e+01	-9.424897e+00
3.332433e+01	-9.469311e+00
3.351681e+01	-9.514106e+00
3.371040e+01	-9.558709e+00
3.390511e+01	-9.602965e+00
3.410094e+01	-9.647333e+00
3.429791e+01	-9.691863e+00
3.449601e+01	-9.736952e+00
3.469526e+01	-9.781978e+00
3.489566e+01	-9.826849e+00
3.509721e+01	-9.871805e+00
3.529993e+01	-9.916407e+00
3.550382e+01	-9.961528e+00
3.570889e+01	-1.000655e+01
3.591515e+01	-1.005178e+01
3.612259e+01	-1.009630e+01
3.633123e+01	-1.014131e+01
3.654108e+01	-1.018672e+01
3.675214e+01	-1.023205e+01
3.696442e+01	-1.027748e+01
3.717792e+01	-1.032287e+01
3.739266e+01	-1.036784e+01
3.760864e+01	-1.041382e+01
3.782587e+01	-1.045890e+01
3.804435e+01	-1.050509e+01
3.826409e+01	-1.054996e+01
3.848510e+01	-1.059554e+01
3.870739e+01	-1.064223e+01
3.893096e+01	-1.068760e+01
3.915583e+01	-1.073281e+01
3.938199e+01	-1.077875e+01
3.960946e+01	-1.082399e+01
3.983824e+01	-1.087117e+01
4.006834e+01	-1.091673e+01
4.029978e+01	-1.096220e+01
4.053255e+01	-1.100866e+01
4.076666e+01	-1.105462e+01
4.100213e+01	-1.110069e+01
4.123896e+01	-1.114718e+01
4.147715e+01	-1.119349e+01
4.171672e+01	-1.123950e+01
4.195767e+01	-1.128634e+01
4.220002e+01	-1.133204e+01
4.244377e+01	-1.137839e+01
4.268892e+01	-1.142488e+01
4.293549e+01	-1.147107e+01
4.318348e+01	-1.151785e+01
4.343291e+01	-1.156502e+01
4.368377e+01	-1.161103e+01
4.393609e+01	-1.165761e+01
4.418986e+01	-1.170418e+01
4.444510e+01	-1.175050e+01
4.470182e+01	-1.179731e+01
4.496001e+01	-1.184462e+01
4.521970e+01	-1.189107e+01
4.548089e+01	-1.193794e+01
4.574358e+01	-1.198437e+01
4.600779e+01	-1.203099e+01
4.627353e+01	-1.207832e+01
4.654081e+01	-1.212573e+01
4.680963e+01	-1.217183e+01
4.708000e+01	-1.221913e+01
4.735193e+01	-1.226665e+01
4.762543e+01	-1.231296e+01
4.790051e+01	-1.236030e+01
4.817719e+01	-1.240822e+01
4.845545e+01	-1.245459e+01
4.873533e+01	-1.250173e+01
4.901682e+01	-1.254866e+01
4.929994e+01	-1.259664e+01
4.958470e+01	-1.264350e+01
4.987110e+01	-1.269137e+01
5.015915e+01	-1.273773e+01
5.044887e+01	-1.278598e+01
5.074026e+01	-1.283356e+01
5.103333e+01	-1.288096e+01
5.132810e+01	-1.292729e+01
5.162457e+01	-1.297531e+01
5.192275e+01	-1.302238e+01
5.222265e+01	-1.307098e+01
5.252429e+01	-1.311793e+01
5.282767e+01	-1.316606e+01
5.313280e+01	-1.321346e+01
5.343969e+01	-1.326053e+01
5.374836e+01	-1.330877e+01
5.405880e+01	-1.335614e+01
5.437105e+01	-1.340466e+01
5.468509e+01	-1.345068e+01
5.500095e+01	-1.349981e+01
5.531863e+01	-1.354761e+01
5.563815e+01	-1.359637e+01
5.595951e+01	-1.364287e+01
5.628273e+01	-1.369095e+01
5.660782e+01	-1.373884e+01
5.693479e+01	-1.378654e+01
5.726364e+01	-1.383575e+01
5.759439e+01	-1.388305e+01
5.792705e+01	-1.393107e+01
5.826164e+01	-1.397920e+01
5.859815e+01	-1.402668e+01
5.893662e+01	-1.407536e+01
5.927703e+01	-1.412320e+01
5.961941e+01	-1.417177e+01
5.996377e+01	-1.422011e+01
6.031012e+01	-1.426742e+01
6.065847e+01	-1.431565e+01
6.100883e+01	-1.436397e+01
6.136121e+01	-1.441149e+01
6.171563e+01	-1.446027e+01
6.207210e+01	-1.450748e+01
6.243063e+01	-1.455647e+01
6.279122e+01	-1.460466e+01
6.315390e+01	-1.465371e+01
6.351868e+01	-1.470119e+01
6.388556e+01	-1.475048e+01
6.425456e+01	-1.479780e+01
6.462569e+01	-1.484728e+01
6.499897e+01	-1.489476e+01
6.537440e+01	-1.494327e+01
6.575200e+01	-1.499276e+01
6.613178e+01	-1.504137e+01
6.651375e+01	-1.508922e+01
6.689793e+01	-1.513789e+01
6.728433e+01	-1.518613e+01
6.767297e+01	-1.523434e+01
6.806384e+01	-1.528309e+01
6.845698e+01	-1.533168e+01
6.885238e+01	-1.538073e+01
6.925007e+01	-1.542814e+01
6.965005e+01	-1.547635e+01
7.005235e+01	-1.552614e+01
7.045697e+01	-1.557367e+01
7.086393e+01	-1.562263e+01
7.127323e+01	-1.567218e+01
7.168490e+01	-1.572096e+01
7.209895e+01	-1.576834e+01
7.251539e+01	-1.581759e+01
7.293424e+01	-1.586658e+01
7.335551e+01	-1.591490e+01
7.377920e+01	-1.596408e+01
7.420535e+01	-1.601275e+01
7.463396e+01	-1.606214e+01
7.506504e+01	-1.611056e+01
7.549861e+01	-1.615988e+01
7.593469e+01	-1.620748e+01
7.637328e+01	-1.625762e+01
7.681441e+01	-1.630695e+01
7.725809e+01	-1.635572e+01
7.770433e+01	-1.640334e+01
7.815315e+01	-1.645193e+01
7.860456e+01	-1.650108e+01
7.905857e+01	-1.654989e+01
7.951521e+01	-1.659988e+01
7.997449e+01	-1.664841e+01
8.043642e+01	-1.669693e+01
8.090102e+01	-1.674533e+01
8.136830e+01	-1.679424e+01
8.183828e+01	-1.684385e+01
8.231097e+01	-1.689376e+01
8.278640e+01	-1.694217e+01
8.326457e+01	-1.699056e+01
8.374550e+01	-1.703985e+01
8.422921e+01	-1.708894e+01
8.471572e+01	-1.713780e+01
8.520503e+01	-1.718701e+01
8.569717e+01	-1.723716e+01
8.619215e+01	-1.728595e+01
8.669000e+01	-1.733499e+01
8.719071e+01	-1.738348e+01
8.769432e+01	-1.743247e+01
8.820084e+01	-1.748210e+01
8.871029e+01	-1.753182e+01
8.922267e+01	-1.758101e+01
8.973802e+01	-1.762926e+01
9.025634e+01	-1.767736e+01
9.077766e+01	-1.772710e+01
9.130199e+01	-1.777712e+01
9.182935e+01	-1.782533e+01
9.235975e+01	-1.787539e+01
9.289321e+01	-1.792471e+01
9.342976e+01	-1.797373e+01
9.396941e+01	-1.802272e+01
9.451217e+01	-1.807213e+01
9.505807e+01	-1.812213e+01
9.560712e+01	-1.817115e+01
9.615934e+01	-1.821937e+01
9.671476e+01	-1.826871e+01
9.727338e+01	-1.831800e+01
9.783522e+01	-1.836924e+01
9.840032e+01	-1.841763e+01
9.896867e+01	-1.846742e+01
9.954031e+01	-1.851619e+01
1.001153e+02	-1.856474e+01
1.006935e+02	-1.861456e+01
1.012751e+02	-1.866385e+01
1.018601e+02	-1.871364e+01
1.024484e+02	-1.876348e+01
1.030402e+02	-1.881238e+01
1.036353e+02	-1.886222e+01
1.042339e+02	-1.891053e+01
1.048360e+02	-1.896130e+01
1.054415e+02	-1.900962e+01
1.060505e+02	-1.905941e+01
1.066631e+02	-1.911008e+01
1.072791e+02	-1.915844e+01
1.078988e+02	-1.920780e+01
1.085220e+02	-1.925665e+01
1.091488e+02	-1.930461e+01
1.097793e+02	-1.935650e+01
1.104133e+02	-1.940657e+01
1.110511e+02	-1.945479e+01
1.116925e+02	-1.950308e+01
1.123376e+02	-1.955259e+01
1.129865e+02	-1.960421e+01
1.136391e+02	-1.965305e+01
1.142955e+02	-1.970252e+01
1.149556e+02	-1.975159e+01
1.156196e+02	-1.980088e+01
1.162874e+02	-1.984901e+01
1.169591e+02	-1.990042e+01
1.176347e+02	-1.994954e+01
1.183141e+02	-1.999897e+01
1.189975e+02	-2.004968e+01
1.196848e+02	-2.009729e+01
1.203761e+02	-2.014839e+01
1.210714e+02	-2.019744e+01
1.217707e+02	-2.024522e+01
1.224740e+02	-2.029767e+01
1.231814e+02	-2.034456e+01
1.238929e+02	-2.039521e+01
1.246085e+02	-2.044446e+01
1.253283e+02	-2.049531e+01
1.260522e+02	-2.054364e+01
1.267802e+02	-2.059473e+01
1.275125e+02	-2.064396e+01
1.282490e+02	-2.069532e+01
1.289898e+02	-2.074172e+01
1.297348e+02	-2.079214e+01
1.304842e+02	-2.084287e+01
1.312378e+02	-2.089114e+01
1.319959e+02	-2.094231e+01
1.327583e+02	-2.099060e+01
1.335251e+02	-2.104273e+01
1.342963e+02	-2.108906e+01
1.350720e+02	-2.113859e+01
1.358522e+02	-2.119158e+01
1.366368e+02	-2.123930e+01
1.374260e+02	-2.128919e+01
1.382198e+02	-2.133840e+01
1.390182e+02	-2.138751e+01
1.398211e+02	-2.143843e+01
1.406287e+02	-2.148562e+01
1.414410e+02	-2.153743e+01
1.422579e+02	-2.158745e+01
1.430796e+02	-2.163690e+01
1.439060e+02	-2.168429e+01
1.447372e+02	-2.173536e+01
1.455732e+02	-2.178593e+01
1.464141e+02	-2.183614e+01
1.472597e+02	-2.188577e+01
1.481103e+02	-2.193551e+01
1.489658e+02	-2.198218e+01
1.498262e+02	-2.203589e+01
1.506916e+02	-2.208471e+01
1.515620e+02	-2.213441e+01
1.524374e+02	-2.218482e+01
1.533179e+02	-2.223086e+01
1.542034e+02	-2.228345e+01
1.550941e+02	-2.233258e+01
1.559899e+02	-2.238326e+01
1.568909e+02	-2.243154e+01
1.577971e+02	-2.248168e+01
1.587085e+02	-2.253168e+01
1.596252e+02	-2.258043e+01
1.605472e+02	-2.263280e+01
1.614745e+02	-2.268088e+01
1.624072e+02	-2.273231e+01
1.633453e+02	-2.278002e+01
1.642887e+02	-2.283065e+01
1.652377e+02	-2.287993e+01
1.661921e+02	-2.293138e+01
1.671520e+02	-2.297899e+01
1.681175e+02	-2.303010e+01
1.690885e+02	-2.307950e+01
1.700651e+02	-2.312828e+01
1.710474e+02	-2.317940e+01
1.720354e+02	-2.322814e+01
1.730291e+02	-2.327896e+01
1.740285e+02	-2.332927e+01
1.750337e+02	-2.337861e+01
1.760446e+02	-2.342815e+01
1.770615e+02	-2.347719e+01
1.780842e+02	-2.352639e+01
1.791128e+02	-2.357637e+01
1.801473e+02	-2.362537e+01
1.811878e+02	-2.367851e+01
1.822344e+02	-2.372921e+01
1.832870e+02	-2.377778e+01
1.843456e+02	-2.382663e+01
1.854104e+02	-2.387769e+01
1.864813e+02	-2.392718e+01
1.875584e+02	-2.397565e+01
1.886418e+02	-2.402766e+01
1.897313e+02	-2.407515e+01
1.908272e+02	-2.412602e+01
1.919294e+02	-2.417808e+01
1.930380e+02	-2.422677e+01
1.941530e+02	-2.427547e+01
1.952744e+02	-2.432780e+01
1.964023e+02	-2.437736e+01
1.975367e+02	-2.442404e+01
1.986777e+02	-2.447453e+01
1.998252e+02	-2.452536e+01
2.009794e+02	-2.457549e+01
2.021403e+02	-2.462432e+01
2.033078e+02	-2.467213e+01
2.044821e+02	-2.472672e+01
2.056632e+02	-2.477755e+01
2.068511e+02	-2.482359e+01
2.080459e+02	-2.487177e+01
2.092475e+02	-2.492377e+01
2.104561e+02	-2.497342e+01
2.116717e+02	-2.502787e+01
2.128943e+02	-2.507298e+01
2.141240e+02	-2.512501e+01
2.153608e+02	-2.517216e+01
2.166047e+02	-2.522278e+01
2.178558e+02	-2.527519e+01
2.191141e+02	-2.532007e+01
2.203797e+02	-2.537286e+01
2.216526e+02	-2.542534e+01
2.229329e+02	-2.547277e+01
2.242205e+02	-2.552412e+01
2.255156e+02	-2.557027e+01
2.268182e+02	-2.562641e+01
2.281283e+02	-2.567289e+01
2.294459e+02	-2.572313e+01
2.307712e+02	-2.577440e+01
2.321041e+02	-2.582362e+01
2.334447e+02	-2.587467e+01
2.347931e+02	-2.592300e+01
2.361493e+02	-2.597671e+01
2.375133e+02	-2.601960e+01
2.388851e+02	-2.607176e+01
2.402649e+02	-2.612304e+01
2.416527e+02	-2.617103e+01
2.430484e+02	-2.622297e+01
2.444523e+02	-2.627431e+01
2.458642e+02	-2.632344e+01
2.472843e+02	-2.637204e+01
2.487126e+02	-2.642482e+01
2.501492e+02	-2.646958e+01
2.515940e+02	-2.652305e+01
2.530472e+02	-2.657309e+01
2.545088e+02	-2.662208e+01
2.559789e+02	-2.667267e+01
2.574574e+02	-2.672146e+01
2.589444e+02	-2.677037e+01
2.604401e+02	-2.682215e+01
2.619444e+02	-2.687184e+01
2.634574e+02	-2.692324e+01
2.649791e+02	-2.697031e+01
2.665096e+02	-2.702035e+01
2.680489e+02	-2.707081e+01
2.695972e+02	-2.712194e+01
2.711544e+02	-2.717303e+01
2.727205e+02	-2.722014e+01
2.742958e+02	-2.727395e+01
2.758801e+02	-2.732079e+01
2.774736e+02	-2.737224e+01
2.790762e+02	-2.742182e+01
2.806882e+02	-2.747309e+01
2.823094e+02	-2.752259e+01
2.839400e+02	-2.757065e+01
2.855800e+02	-2.762443e+01
2.872295e+02	-2.766935e+01
2.888886e+02	-2.772179e+01
2.905572e+02	-2.777140e+01
2.922354e+02	-2.782508e+01
2.939234e+02	-2.787448e+01
2.956211e+02	-2.792418e+01
2.973286e+02	-2.797163e+01
2.990459e+02	-2.801777e+01
3.007732e+02	-2.807033e+01
3.025104e+02	-2.812232e+01
3.042577e+02	-2.817350e+01
3.060151e+02	-2.822088e+01
3.077826e+02	-2.827721e+01
3.095604e+02	-2.832178e+01
3.113484e+02	-2.837222e+01
3.131467e+02	-2.842398e+01
3.149554e+02	-2.846955e+01
3.167746e+02	-2.852005e+01
3.186043e+02	-2.857304e+01
3.204445e+02	-2.862258e+01
3.222954e+02	-2.866905e+01
3.241570e+02	-2.872285e+01
3.260293e+02	-2.877140e+01
3.279124e+02	-2.882579e+01
3.298064e+02	-2.887400e+01
3.317114e+02	-2.892001e+01
3.336273e+02	-2.897463e+01
3.355544e+02	-2.902416e+01
3.374925e+02	-2.907122e+01
3.394418e+02	-2.912461e+01
3.414024e+02	-2.917571e+01
3.433744e+02	-2.922524e+01
3.453577e+02	-2.927314e+01
3.473525e+02	-2.932118e+01
3.493588e+02	-2.937453e+01
3.513766e+02	-2.942535e+01
3.534062e+02	-2.947627e+01
3.554474e+02	-2.952181e+01
3.575005e+02	-2.957490e+01
3.595654e+02	-2.962014e+01
3.616422e+02	-2.967362e+01
3.637311e+02	-2.973182e+01
3.658320e+02	-2.977507e+01
3.679450e+02	-2.982275e+01
3.700702e+02	-2.987639e+01
3.722077e+02	-2.992589e+01
3.743576e+02	-2.997930e+01
3.765199e+02	-3.002002e+01
3.786946e+02	-3.007519e+01
3.808820e+02	-3.012766e+01
3.830819e+02	-3.017281e+01
3.852946e+02	-3.022526e+01
3.875200e+02	-3.027363e+01
3.897583e+02	-3.032755e+01
3.920096e+02	-3.037528e+01
3.942738e+02	-3.042373e+01
3.965511e+02	-3.047735e+01
3.988416e+02	-3.052521e+01
4.011452e+02	-3.058706e+01
4.034622e+02	-3.063063e+01
4.057926e+02	-3.067512e+01
4.081365e+02	-3.072695e+01
4.104938e+02	-3.077526e+01
4.128648e+02	-3.082690e+01
4.152495e+02	-3.087933e+01
4.176480e+02	-3.092853e+01
4.200603e+02	-3.098123e+01
4.224866e+02	-3.102727e+01
4.249268e+02	-3.107412e+01
4.273812e+02	-3.112583e+01
4.298497e+02	-3.117657e+01
4.323325e+02	-3.122628e+01
4.348297e+02	-3.128129e+01
4.373412e+02	-3.133226e+01
4.398673e+02	-3.138270e+01
4.424079e+02	-3.142460e+01
4.449633e+02	-3.147623e+01
4.475334e+02	-3.152760e+01
4.501183e+02	-3.158089e+01
4.527182e+02	-3.163011e+01
4.553330e+02	-3.167997e+01
4.579630e+02	-3.172482e+01
4.606082e+02	-3.178084e+01
4.632687e+02	-3.182747e+01
4.659445e+02	-3.188515e+01
4.686358e+02	-3.193347e+01
4.713426e+02	-3.197753e+01
4.740650e+02	-3.202542e+01
4.768032e+02	-3.208292e+01
4.795572e+02	-3.213214e+01
4.823271e+02	-3.218204e+01
4.851130e+02	-3.222830e+01
4.879150e+02	-3.228168e+01
4.907332e+02	-3.232716e+01
4.935676e+02	-3.238434e+01
4.964185e+02	-3.243237e+01
4.992858e+02	-3.248501e+01
5.021696e+02	-3.253429e+01
5.050701e+02	-3.258058e+01
5.079874e+02	-3.263908e+01
5.109215e+02	-3.268358e+01
5.138726e+02	-3.272872e+01
5.168407e+02	-3.278801e+01
5.198259e+02	-3.283393e+01
5.228284e+02	-3.288939e+01
5.258482e+02	-3.293404e+01
5.288855e+02	-3.298350e+01
5.319403e+02	-3.303217e+01
5.350128e+02	-3.308292e+01
5.381030e+02	-3.314516e+01
5.412111e+02	-3.318399e+01
5.443371e+02	-3.323516e+01
5.474812e+02	-3.328405e+01
5.506434e+02	-3.333908e+01
5.538239e+02	-3.338414e+01
5.570228e+02	-3.343505e+01
5.602401e+02	-3.348894e+01
5.634760e+02	-3.353988e+01
5.667306e+02	-3.358541e+01
5.700040e+02	-3.363110e+01
5.732964e+02	-3.368563e+01
5.766077e+02	-3.374179e+01
5.799382e+02	-3.379570e+01
5.832879e+02	-3.383630e+01
5.866569e+02	-3.388912e+01
5.900454e+02	-3.393636e+01
5.934535e+02	-3.398975e+01
5.968813e+02	-3.404539e+01
6.003288e+02	-3.408994e+01
6.037963e+02	-3.413785e+01
6.072838e+02	-3.419899e+01
6.107914e+02	-3.424318e+01
6.143194e+02	-3.429017e+01
6.178676e+02	-3.435183e+01
6.214364e+02	-3.439140e+01
6.250258e+02	-3.444707e+01
6.286359e+02	-3.449130e+01
6.322669e+02	-3.453531e+01
6.359189e+02	-3.459696e+01
6.395919e+02	-3.465099e+01
6.432862e+02	-3.468836e+01
6.470017e+02	-3.474895e+01
6.507388e+02	-3.480144e+01
6.544974e+02	-3.484443e+01
6.582778e+02	-3.490410e+01
6.620800e+02	-3.493766e+01
6.659041e+02	-3.499732e+01
6.697504e+02	-3.504278e+01
6.736188e+02	-3.510745e+01
6.775096e+02	-3.515133e+01
6.814229e+02	-3.520242e+01
6.853587e+02	-3.525970e+01
6.893173e+02	-3.529618e+01
6.932988e+02	-3.533886e+01
6.973033e+02	-3.540436e+01
7.013309e+02	-3.543923e+01
