Frequency(Hz)	Magnitude(dB)
1.000000e+01	-2.270449e+00
1.005776e+01	-2.290907e+00
1.011585e+01	-2.311383e+00
1.017428e+01	-2.332088e+00
1.023305e+01	-2.353199e+00
1.029215e+01	-2.374073e+00
1.035160e+01	-2.394912e+00
1.041139e+01	-2.416610e+00
1.047153e+01	-2.438041e+00
1.053201e+01	-2.459412e+00
1.059284e+01	-2.481041e+00
1.065403e+01	-2.503020e+00
1.071556e+01	-2.524842e+00
1.077746e+01	-2.546875e+00
1.083971e+01	-2.569390e+00
1.090232e+01	-2.591951e+00
1.096529e+01	-2.614215e+00
1.102862e+01	-2.636982e+00
1.109232e+01	-2.659695e+00
1.115639e+01	-2.682670e+00
1.122083e+01	-2.705800e+00
1.128564e+01	-2.729276e+00
1.135083e+01	-2.752341e+00
1.141639e+01	-2.776273e+00
1.148233e+01	-2.799982e+00
1.154865e+01	-2.823526e+00
1.161536e+01	-2.847669e+00
1.168245e+01	-2.871716e+00
1.174992e+01	-2.896133e+00
1.181779e+01	-2.920646e+00
1.188605e+01	-2.945114e+00
1.195470e+01	-2.969739e+00
1.202375e+01	-2.994820e+00
1.209320e+01	-3.019810e+00
1.216305e+01	-3.044963e+00
1.223330e+01	-3.069982e+00
1.230396e+01	-3.095608e+00
1.237503e+01	-3.121274e+00
1.244651e+01	-3.146730e+00
1.251840e+01	-3.172656e+00
1.259070e+01	-3.198898e+00
1.266343e+01	-3.224809e+00
1.273657e+01	-3.250950e+00
1.281014e+01	-3.277387e+00
1.288413e+01	-3.304231e+00
1.295855e+01	-3.330909e+00
1.303339e+01	-3.357827e+00
1.310867e+01	-3.384775e+00
1.318439e+01	-3.411675e+00
1.326054e+01	-3.439099e+00
1.333713e+01	-3.466269e+00
1.341417e+01	-3.493991e+00
1.349165e+01	-3.521642e+00
1.356958e+01	-3.549821e+00
1.364795e+01	-3.577795e+00
1.372678e+01	-3.605844e+00
1.380607e+01	-3.633938e+00
1.388581e+01	-3.662685e+00
1.396602e+01	-3.691129e+00
1.404668e+01	-3.719671e+00
1.412782e+01	-3.748383e+00
1.420942e+01	-3.777577e+00
1.429149e+01	-3.806939e+00
1.437404e+01	-3.836211e+00
1.445706e+01	-3.865530e+00
1.454057e+01	-3.894921e+00
1.462455e+01	-3.924930e+00
1.470902e+01	-3.955015e+00
1.479398e+01	-3.984611e+00
1.487943e+01	-4.014716e+00
1.496537e+01	-4.044720e+00
1.505181e+01	-4.075162e+00
1.513875e+01	-4.105901e+00
1.522619e+01	-4.136591e+00
1.531414e+01	-4.167388e+00
1.540259e+01	-4.198378e+00
1.549156e+01	-4.229339e+00
1.558103e+01	-4.260974e+00
1.567103e+01	-4.291891e+00
1.576155e+01	-4.323335e+00
1.585258e+01	-4.355153e+00
1.594415e+01	-4.386592e+00
1.603624e+01	-4.418344e+00
1.612886e+01	-4.450643e+00
1.622202e+01	-4.482798e+00
1.631572e+01	-4.515135e+00
1.640996e+01	-4.547530e+00
1.650474e+01	-4.579916e+00
1.660008e+01	-4.612408e+00
1.669596e+01	-4.645352e+00
1.679239e+01	-4.678104e+00
1.688938e+01	-4.711214e+00
1.698694e+01	-4.744549e+00
1.708505e+01	-4.777699e+00
1.718373e+01	-4.811236e+00
1.728299e+01	-4.844741e+00
1.738281e+01	-4.878601e+00
1.748322e+01	-4.912157e+00
1.758420e+01	-4.945981e+00
1.768576e+01	-4.980581e+00
1.778792e+01	-5.014375e+00
1.789066e+01	-5.048882e+00
1.799399e+01	-5.083481e+00
1.809793e+01	-5.117781e+00
1.820246e+01	-5.152697e+00
1.830760e+01	-5.187384e+00
1.841334e+01	-5.222221e+00
1.851969e+01	-5.257511e+00
1.862666e+01	-5.292394e+00
1.873425e+01	-5.327768e+00
1.884246e+01	-5.363210e+00
1.895129e+01	-5.398988e+00
1.906075e+01	-5.434475e+00
1.917085e+01	-5.469904e+00
1.928158e+01	-5.505911e+00
1.939295e+01	-5.542236e+00
1.950496e+01	-5.578261e+00
1.961762e+01	-5.614560e+00
1.973093e+01	-5.650558e+00
1.984490e+01	-5.687214e+00
1.995952e+01	-5.723837e+00
2.007480e+01	-5.760859e+00
2.019076e+01	-5.797225e+00
2.030738e+01	-5.834481e+00
2.042467e+01	-5.871231e+00
2.054264e+01	-5.908314e+00
2.066130e+01	-5.945595e+00
2.078064e+01	-5.983060e+00
2.090066e+01	-6.020641e+00
2.102139e+01	-6.057991e+00
2.114280e+01	-6.095754e+00
2.126492e+01	-6.133353e+00
2.138775e+01	-6.171260e+00
2.151128e+01	-6.209235e+00
2.163553e+01	-6.247492e+00
2.176050e+01	-6.285751e+00
2.188619e+01	-6.324235e+00
2.201260e+01	-6.362359e+00
2.213974e+01	-6.400937e+00
2.226762e+01	-6.440027e+00
2.239624e+01	-6.478419e+00
2.252560e+01	-6.517530e+00
2.265571e+01	-6.555980e+00
2.278656e+01	-6.595129e+00
2.291818e+01	-6.634028e+00
2.305055e+01	-6.673408e+00
2.318369e+01	-6.712644e+00
2.331760e+01	-6.752487e+00
2.345228e+01	-6.791473e+00
2.358774e+01	-6.831077e+00
2.372398e+01	-6.870984e+00
2.386101e+01	-6.910596e+00
2.399883e+01	-6.950465e+00
2.413745e+01	-6.990436e+00
2.427686e+01	-7.030327e+00
2.441709e+01	-7.070908e+00
2.455812e+01	-7.111136e+00
2.469997e+01	-7.151631e+00
2.484263e+01	-7.191881e+00
2.498612e+01	-7.232321e+00
2.513044e+01	-7.273107e+00
2.527559e+01	-7.313747e+00
2.542158e+01	-7.354712e+00
2.556842e+01	-7.395445e+00
2.571610e+01	-7.436098e+00
2.586463e+01	-7.477613e+00
2.601403e+01	-7.518412e+00
2.616428e+01	-7.559644e+00
2.631541e+01	-7.601058e+00
2.646740e+01	-7.642212e+00
2.662028e+01	-7.684078e+00
2.677404e+01	-7.725290e+00
2.692868e+01	-7.767011e+00
2.708422e+01	-7.808437e+00
2.724066e+01	-7.850349e+00
2.739800e+01	-7.892739e+00
2.755625e+01	-7.934291e+00
2.771541e+01	-7.976473e+00
2.787550e+01	-8.018378e+00
2.803650e+01	-8.060420e+00
2.819844e+01	-8.103101e+00
2.836131e+01	-8.144850e+00
2.852513e+01	-8.187308e+00
2.868989e+01	-8.229829e+00
2.885560e+01	-8.272201e+00
2.902227e+01	-8.315133e+00
2.918990e+01	-8.358004e+00
2.935850e+01	-8.400357e+00
2.952807e+01	-8.443303e+00
2.969863e+01	-8.486113e+00
2.987016e+01	-8.529037e+00
3.004269e+01	-8.572212e+00
3.021622e+01	-8.615483e+00
3.039075e+01	-8.658395e+00
3.056628e+01	-8.701709e+00
3.074283e+01	-8.745276e+00
3.092040e+01	-8.788645e+00
3.109900e+01	-8.831824e+00
3.127862e+01	-8.875261e+00
3.145929e+01	-8.919048e+00
3.164099e+01	-8.963230e+00
3.182375e+01	-9.006463e+00
3.200756e+01	-9.050619e+00
3.219244e+01	-9.093774e+00
3.237838e+01	-9.138445e+00
3.256540e+01	-9.181920e+00
3.275349e+01	-9.225792e+00
3.294268e+01	-9.269933e+00
3.313295e+01	-9.314025e+00
3.332433e+01	-9.358279e+00
3.351681e+01	-9.402235e+00
3.371040e+01	-9.447049e+00
3.390511e+01	-9.491346e+00
3.410094e+01	-9.536181e+00
3.429791e+01	-9.579949e+00
3.449601e+01	-9.625154e+00
3.469526e+01	-9.668941e+00
3.489566e+01	-9.714022e+00
3.509721e+01	-9.758462e+00
3.529993e+01	-9.803508e+00
3.550382e+01	-9.848003e+00
3.570889e+01	-9.893108e+00
3.591515e+01	-9.937789e+00
3.612259e+01	-9.983323e+00
3.633123e+01	-1.002802e+01
3.654108e+01	-1.007342e+01
3.675214e+01	-1.011838e+01
3.696442e+01	-1.016326e+01
3.717792e+01	-1.020903e+01
3.739266e+01	-1.025379e+01
3.760864e+01	-1.029935e+01
3.782587e+01	-1.034486e+01
3.804435e+01	-1.039015e+01
3.826409e+01	-1.043547e+01
3.848510e+01	-1.048100e+01
3.870739e+01	-1.052668e+01
3.893096e+01	-1.057173e+01
3.915583e+01	-1.061813e+01
3.938199e+01	-1.066382e+01
3.960946e+01	-1.070897e+01
3.983824e+01	-1.075507e+01
4.006834e+01	-1.080142e+01
4.029978e+01	-1.084701e+01
4.053255e+01	-1.089342e+01
4.076666e+01	-1.093875e+01
4.100213e+01	-1.098504e+01
4.123896e+01	-1.103083e+01
4.147715e+01	-1.107697e+01
4.171672e+01	-1.112291e+01
4.195767e+01	-1.116906e+01
4.220002e+01	-1.121575e+01
4.244377e+01	-1.126234e+01
4.268892e+01	-1.130818e+01
4.293549e+01	-1.135384e+01
4.318348e+01	-1.140090e+01
4.343291e+01	-1.144716e+01
4.368377e+01	-1.149386e+01
4.393609e+01	-1.154075e+01
4.418986e+01	-1.158719e+01
4.444510e+01	-1.163340e+01
4.470182e+01	-1.168006e+01
4.496001e+01	-1.172653e+01
4.521970e+01	-1.177365e+01
4.548089e+01	-1.182011e+01
4.574358e+01	-1.186632e+01
4.600779e+01	-1.191383e+01
4.627353e+01	-1.196070e+01
4.654081e+01	-1.200738e+01
4.680963e+01	-1.205432e+01
4.708000e+01	-1.210071e+01
4.735193e+01	-1.214810e+01
4.762543e+01	-1.219496e+01
4.790051e+01	-1.224221e+01
4.817719e+01	-1.228963e+01
4.845545e+01	-1.233617e+01
4.873533e+01	-1.238348e+01
4.901682e+01	-1.243041e+01
4.929994e+01	-1.247787e+01
4.958470e+01	-1.252526e+01
4.987110e+01	-1.257250e+01
5.015915e+01	-1.261847e+01
5.044887e+01	-1.266661e+01
5.074026e+01	-1.271328e+01
5.103333e+01	-1.276150e+01
5.132810e+01	-1.280880e+01
5.162457e+01	-1.285633e+01
5.192275e+01	-1.290380e+01
5.222265e+01	-1.295108e+01
5.252429e+01	-1.299879e+01
5.282767e+01	-1.304648e+01
5.313280e+01	-1.309360e+01
5.343969e+01	-1.314073e+01
5.374836e+01	-1.318890e+01
5.405880e+01	-1.323683e+01
5.437105e+01	-1.328418e+01
5.468509e+01	-1.333183e+01
5.500095e+01	-1.337966e+01
5.531863e+01	-1.342700e+01
5.563815e+01	-1.347495e+01
5.595951e+01	-1.352316e+01
5.628273e+01	-1.357086e+01
5.660782e+01	-1.361810e+01
5.693479e+01	-1.366613e+01
5.726364e+01	-1.371427e+01
5.759439e+01	-1.376261e+01
5.792705e+01	-1.381013e+01
5.826164e+01	-1.385855e+01
5.859815e+01	-1.390611e+01
5.893662e+01	-1.395486e+01
5.927703e+01	-1.400231e+01
5.961941e+01	-1.405013e+01
5.996377e+01	-1.409847e+01
6.031012e+01	-1.414553e+01
6.065847e+01	-1.419369e+01
6.100883e+01	-1.424254e+01
6.136121e+01	-1.429103e+01
6.171563e+01	-1.433882e+01
6.207210e+01	-1.438746e+01
6.243063e+01	-1.443478e+01
6.279122e+01	-1.448322e+01
6.315390e+01	-1.453145e+01
6.351868e+01	-1.457995e+01
6.388556e+01	-1.462861e+01
6.425456e+01	-1.467654e+01
6.462569e+01	-1.472466e+01
6.499897e+01	-1.477328e+01
6.537440e+01	-1.482105e+01
6.575200e+01	-1.487131e+01
6.613178e+01	-1.491923e+01
6.651375e+01	-1.496764e+01
6.689793e+01	-1.501515e+01
6.728433e+01	-1.506454e+01
6.767297e+01	-1.511104e+01
6.806384e+01	-1.516095e+01
6.845698e+01	-1.520862e+01
6.885238e+01	-1.525800e+01
6.925007e+01	-1.530713e+01
6.965005e+01	-1.535510e+01
7.005235e+01	-1.540372e+01
7.045697e+01	-1.545301e+01
7.086393e+01	-1.550136e+01
7.127323e+01	-1.554879e+01
7.168490e+01	-1.559826e+01
7.209895e+01	-1.564740e+01
7.251539e+01	-1.569534e+01
7.293424e+01	-1.574449e+01
7.335551e+01	-1.579276e+01
7.377920e+01	-1.584112e+01
7.420535e+01	-1.589009e+01
7.463396e+01	-1.593906e+01
7.506504e+01	-1.598830e+01
7.549861e+01	-1.603644e+01
7.593469e+01	-1.608567e+01
7.637328e+01	-1.613397e+01
7.681441e+01	-1.618288e+01
7.725809e+01	-1.623210e+01
7.770433e+01	-1.628110e+01
7.815315e+01	-1.633093e+01
7.860456e+01	-1.637836e+01
7.905857e+01	-1.642744e+01
7.951521e+01	-1.647597e+01
7.997449e+01	-1.652542e+01
8.043642e+01	-1.657299e+01
8.090102e+01	-1.662172e+01
8.136830e+01	-1.667259e+01
8.183828e+01	-1.672042e+01
8.231097e+01	-1.677046e+01
8.278640e+01	-1.681842e+01
8.326457e+01	-1.686747e+01
8.374550e+01	-1.691803e+01
8.422921e+01	-1.696611e+01
8.471572e+01	-1.701591e+01
8.520503e+01	-1.706426e+01
8.569717e+01	-1.711222e+01
8.619215e+01	-1.716188e+01
8.669000e+01	-1.721186e+01
8.719071e+01	-1.725979e+01
8.769432e+01	-1.730998e+01
8.820084e+01	-1.735819e+01
8.871029e+01	-1.740694e+01
8.922267e+01	-1.745578e+01
8.973802e+01	-1.750478e+01
9.025634e+01	-1.755306e+01
9.077766e+01	-1.760362e+01
9.130199e+01	-1.765382e+01
9.182935e+01	-1.770255e+01
9.235975e+01	-1.775276e+01
9.289321e+01	-1.780148e+01
9.342976e+01	-1.784881e+01
9.396941e+01	-1.789987e+01
9.451217e+01	-1.794818e+01
9.505807e+01	-1.799880e+01
9.560712e+01	-1.804692e+01
9.615934e+01	-1.809667e+01
9.671476e+01	-1.814551e+01
9.727338e+01	-1.819570e+01
9.783522e+01	-1.824467e+01
9.840032e+01	-1.829393e+01
9.896867e+01	-1.834045e+01
9.954031e+01	-1.839110e+01
1.001153e+02	-1.844109e+01
1.006935e+02	-1.848978e+01
1.012751e+02	-1.854028e+01
1.018601e+02	-1.858882e+01
1.024484e+02	-1.863732e+01
1.030402e+02	-1.868805e+01
1.036353e+02	-1.873718e+01
1.042339e+02	-1.878637e+01
1.048360e+02	-1.883654e+01
1.054415e+02	-1.888568e+01
1.060505e+02	-1.893486e+01
1.066631e+02	-1.898372e+01
1.072791e+02	-1.903289e+01
1.078988e+02	-1.908266e+01
1.085220e+02	-1.913270e+01
1.091488e+02	-1.918132e+01
1.097793e+02	-1.923218e+01
1.104133e+02	-1.928081e+01
1.110511e+02	-1.933033e+01
1.116925e+02	-1.937909e+01
1.123376e+02	-1.942819e+01
1.129865e+02	-1.947871e+01
1.136391e+02	-1.952890e+01
1.142955e+02	-1.957653e+01
1.149556e+02	-1.962743e+01
1.156196e+02	-1.967712e+01
1.162874e+02	-1.972594e+01
1.169591e+02	-1.977553e+01
1.176347e+02	-1.982458e+01
1.183141e+02	-1.987423e+01
1.189975e+02	-1.992534e+01
1.196848e+02	-1.997373e+01
1.203761e+02	-2.002341e+01
1.210714e+02	-2.007262e+01
1.217707e+02	-2.012267e+01
1.224740e+02	-2.017242e+01
1.231814e+02	-2.022243e+01
1.238929e+02	-2.027107e+01
1.246085e+02	-2.032093e+01
1.253283e+02	-2.037032e+01
1.260522e+02	-2.042099e+01
1.267802e+02	-2.046799e+01
1.275125e+02	-2.051861e+01
1.282490e+02	-2.056824e+01
1.289898e+02	-2.061785e+01
1.297348e+02	-2.066845e+01
1.304842e+02	-2.071727e+01
1.312378e+02	-2.076676e+01
1.319959e+02	-2.081727e+01
1.327583e+02	-2.086672e+01
1.335251e+02	-2.091508e+01
1.342963e+02	-2.096463e+01
1.350720e+02	-2.101556e+01
1.358522e+02	-2.106413e+01
1.366368e+02	-2.111599e+01
1.374260e+02	-2.116291e+01
1.382198e+02	-2.121207e+01
1.390182e+02	-2.126282e+01
1.398211e+02	-2.131440e+01
1.406287e+02	-2.136256e+01
1.414410e+02	-2.141196e+01
1.422579e+02	-2.146185e+01
1.430796e+02	-2.151220e+01
1.439060e+02	-2.156275e+01
1.447372e+02	-2.161262e+01
1.455732e+02	-2.166174e+01
1.464141e+02	-2.171163e+01
1.472597e+02	-2.175874e+01
1.481103e+02	-2.181040e+01
1.489658e+02	-2.186117e+01
1.498262e+02	-2.190958e+01
1.506916e+02	-2.195771e+01
1.515620e+02	-2.200858e+01
1.524374e+02	-2.206028e+01
1.533179e+02	-2.210983e+01
1.542034e+02	-2.215741e+01
1.550941e+02	-2.220706e+01
1.559899e+02	-2.225951e+01
1.568909e+02	-2.230582e+01
1.577971e+02	-2.235836e+01
1.587085e+02	-2.240640e+01
1.596252e+02	-2.245418e+01
1.605472e+02	-2.250672e+01
1.614745e+02	-2.255403e+01
1.624072e+02	-2.260617e+01
1.633453e+02	-2.265717e+01
1.642887e+02	-2.270281e+01
1.652377e+02	-2.275409e+01
1.661921e+02	-2.280566e+01
1.671520e+02	-2.285417e+01
1.681175e+02	-2.290422e+01
1.690885e+02	-2.295476e+01
1.700651e+02	-2.300289e+01
1.710474e+02	-2.305552e+01
1.720354e+02	-2.310338e+01
1.730291e+02	-2.315312e+01
1.740285e+02	-2.320427e+01
1.750337e+02	-2.325037e+01
1.760446e+02	-2.330274e+01
1.770615e+02	-2.335324e+01
1.780842e+02	-2.340208e+01
1.791128e+02	-2.345142e+01
1.801473e+02	-2.350277e+01
1.811878e+02	-2.355187e+01
1.822344e+02	-2.360280e+01
1.832870e+02	-2.365112e+01
1.843456e+02	-2.370197e+01
1.854104e+02	-2.375167e+01
1.864813e+02	-2.380348e+01
1.875584e+02	-2.385175e+01
1.886418e+02	-2.390039e+01
1.897313e+02	-2.395234e+01
1.908272e+02	-2.400037e+01
1.919294e+02	-2.405135e+01
1.930380e+02	-2.409704e+01
1.941530e+02	-2.415158e+01
1.952744e+02	-2.419841e+01
1.964023e+02	-2.424767e+01
1.975367e+02	-2.429747e+01
1.986777e+02	-2.434975e+01
1.998252e+02	-2.439857e+01
2.009794e+02	-2.445045e+01
2.021403e+02	-2.449848e+01
2.033078e+02	-2.455060e+01
2.044821e+02	-2.460102e+01
2.056632e+02	-2.464978e+01
2.068511e+02	-2.469992e+01
2.080459e+02	-2.474966e+01
2.092475e+02	-2.480017e+01
2.104561e+02	-2.484716e+01
2.116717e+02	-2.489978e+01
2.128943e+02	-2.494438e+01
2.141240e+02	-2.499777e+01
2.153608e+02	-2.504693e+01
2.166047e+02	-2.509928e+01
2.178558e+02	-2.515000e+01
2.191141e+02	-2.519573e+01
2.203797e+02	-2.524918e+01
2.216526e+02	-2.529654e+01
2.229329e+02	-2.534732e+01
2.242205e+02	-2.539924e+01
2.255156e+02	-2.544809e+01
2.268182e+02	-2.549881e+01
2.281283e+02	-2.554666e+01
2.294459e+02	-2.559682e+01
2.307712e+02	-2.564660e+01
2.321041e+02	-2.569835e+01
2.334447e+02	-2.574868e+01
2.347931e+02	-2.579875e+01
2.361493e+02	-2.584718e+01
2.375133e+02	-2.589748e+01
2.388851e+02	-2.594682e+01
2.402649e+02	-2.599639e+01
2.416527e+02	-2.604727e+01
2.430484e+02	-2.609234e+01
2.444523e+02	-2.614357e+01
2.458642e+02	-2.619764e+01
2.472843e+02	-2.624681e+01
2.487126e+02	-2.629477e+01
2.501492e+02	-2.634789e+01
2.515940e+02	-2.639641e+01
2.530472e+02	-2.644684e+01
2.545088e+02	-2.649822e+01
2.559789e+02	-2.654669e+01
2.574574e+02	-2.659685e+01
2.589444e+02	-2.664902e+01
2.604401e+02	-2.669350e+01
2.619444e+02	-2.674506e+01
2.634574e+02	-2.679663e+01
2.649791e+02	-2.684646e+01
2.665096e+02	-2.689519e+01
2.680489e+02	-2.694415e+01
2.695972e+02	-2.699375e+01
2.711544e+02	-2.704800e+01
2.727205e+02	-2.709514e+01
2.742958e+02	-2.714518e+01
2.758801e+02	-2.719232e+01
2.774736e+02	-2.724754e+01
2.790762e+02	-2.729603e+01
2.806882e+02	-2.734756e+01
2.823094e+02	-2.739619e+01
2.839400e+02	-2.744369e+01
2.855800e+02	-2.749560e+01
2.872295e+02	-2.754459e+01
2.888886e+02	-2.759703e+01
2.905572e+02	-2.764725e+01
2.922354e+02	-2.769883e+01
2.939234e+02	-2.774310e+01
2.956211e+02	-2.779655e+01
2.973286e+02	-2.784508e+01
2.990459e+02	-2.789738e+01
3.007732e+02	-2.794544e+01
3.025104e+02	-2.799263e+01
3.042577e+02	-2.804827e+01
3.060151e+02	-2.809633e+01
3.077826e+02	-2.814567e+01
3.095604e+02	-2.819415e+01
3.113484e+02	-2.824871e+01
3.131467e+02	-2.830129e+01
3.149554e+02	-2.834439e+01
3.167746e+02	-2.840015e+01
3.186043e+02	-2.844442e+01
3.204445e+02	-2.849547e+01
3.222954e+02	-2.854716e+01
3.241570e+02	-2.859800e+01
3.260293e+02	-2.864786e+01
3.279124e+02	-2.870008e+01
3.298064e+02	-2.874603e+01
3.317114e+02	-2.879714e+01
3.336273e+02	-2.884658e+01
3.355544e+02	-2.889878e+01
3.374925e+02	-2.894117e+01
3.394418e+02	-2.899507e+01
3.414024e+02	-2.904949e+01
3.433744e+02	-2.910006e+01
3.453577e+02	-2.914938e+01
3.473525e+02	-2.919766e+01
3.493588e+02	-2.924294e+01
3.513766e+02	-2.929930e+01
3.534062e+02	-2.934822e+01
3.554474e+02	-2.940088e+01
3.575005e+02	-2.944976e+01
3.595654e+02	-2.949405e+01
3.616422e+02	-2.954712e+01
3.637311e+02	-2.960202e+01
3.658320e+02	-2.964680e+01
3.679450e+02	-2.969690e+01
3.700702e+02	-2.975057e+01
3.722077e+02	-2.979842e+01
3.743576e+02	-2.985094e+01
3.765199e+02	-2.989698e+01
3.786946e+02	-2.994967e+01
3.808820e+02	-3.000102e+01
3.830819e+02	-3.004338e+01
3.852946e+02	-3.009798e+01
3.875200e+02	-3.014755e+01
3.897583e+02	-3.019948e+01
3.920096e+02	-3.024840e+01
3.942738e+02	-3.030108e+01
3.965511e+02	-3.035380e+01
3.988416e+02	-3.039616e+01
4.011452e+02	-3.044737e+01
4.034622e+02	-3.050195e+01
4.057926e+02	-3.055085e+01
4.081365e+02	-3.059790e+01
4.104938e+02	-3.065047e+01
4.128648e+02	-3.069734e+01
4.152495e+02	-3.074328e+01
4.176480e+02	-3.080576e+01
4.200603e+02	-3.084664e+01
4.224866e+02	-3.090519e+01
4.249268e+02	-3.095021e+01
4.273812e+02	-3.099945e+01
4.298497e+02	-3.105266e+01
4.323325e+02	-3.110126e+01
4.348297e+02	-3.115161e+01
4.373412e+02	-3.119995e+01
4.398673e+02	-3.125366e+01
4.424079e+02	-3.130422e+01
4.449633e+02	-3.135954e+01
4.475334e+02	-3.139920e+01
4.501183e+02	-3.145941e+01
4.527182e+02	-3.150028e+01
4.553330e+02	-3.155508e+01
4.579630e+02	-3.160763e+01
4.606082e+02	-3.164914e+01
4.632687e+02	-3.170125e+01
4.659445e+02	-3.175751e+01
4.686358e+02	-3.179806e+01
4.713426e+02	-3.185477e+01
4.740650e+02	-3.190068e+01
4.768032e+02	-3.195504e+01
4.795572e+02	-3.200817e+01
4.823271e+02	-3.205694e+01
4.851130e+02	-3.210062e+01
4.879150e+02	-3.215130e+01
4.907332e+02	-3.220858e+01
4.935676e+02	-3.225922e+01
4.964185e+02	-3.230943e+01
4.992858e+02	-3.235457e+01
5.021696e+02	-3.240771e+01
5.050701e+02	-3.245614e+01
5.079874e+02	-3.250619e+01
5.109215e+02	-3.255394e+01
5.138726e+02	-3.261330e+01
5.168407e+02	-3.265970e+01
5.198259e+02	-3.270607e+01
5.228284e+02	-3.275508e+01
5.258482e+02	-3.280694e+01
5.288855e+02	-3.284932e+01
5.319403e+02	-3.290111e+01
5.350128e+02	-3.295821e+01
5.381030e+02	-3.301123e+01
5.412111e+02	-3.305206e+01
5.443371e+02	-3.310635e+01
5.474812e+02	-3.316637e+01
5.506434e+02	-3.320443e+01
5.538239e+02	-3.326334e+01
5.570228e+02	-3.331318e+01
5.602401e+02	-3.335646e+01
5.634760e+02	-3.340704e+01
5.667306e+02	-3.346213e+01
5.700040e+02	-3.351698e+01
5.732964e+02	-3.356105e+01
5.766077e+02	-3.361616e+01
5.799382e+02	-3.366157e+01
5.832879e+02	-3.371372e+01
5.866569e+02	-3.376587e+01
5.900454e+02	-3.381736e+01
5.934535e+02	-3.386147e+01
5.968813e+02	-3.391303e+01
6.003288e+02	-3.395905e+01
6.037963e+02	-3.401674e+01
6.072838e+02	-3.405283e+01
6.107914e+02	-3.412247e+01
6.143194e+02	-3.416416e+01
6.178676e+02	-3.421826e+01
6.214364e+02	-3.426478e+01
6.250258e+02	-3.431338e+01
6.286359e+02	-3.436782e+01
6.322669e+02	-3.441357e+01
6.359189e+02	-3.445785e+01
6.395919e+02	-3.452010e+01
6.432862e+02	-3.457195e+01
6.470017e+02	-3.461487e+01
6.507388e+02	-3.467188e+01
6.544974e+02	-3.471862e+01
6.582778e+02	-3.477496e+01
6.620800e+02	-3.481743e+01
6.659041e+02	-3.486728e+01
6.697504e+02	-3.491587e+01
6.736188e+02	-3.496574e+01
6.775096e+02	-3.502140e+01
6.814229e+02	-3.507146e+01
6.853587e+02	-3.512997e+01
6.893173e+02	-3.516875e+01
6.932988e+02	-3.522432e+01
6.973033e+02	-3.526594e+01
7.013309e+02	-3.532775e+01
