Frequency(Hz)	Magnitude(dB)
1.000000e+01	-1.771115e-05
1.005776e+01	-1.791634e-05
1.011585e+01	-1.812390e-05
1.017428e+01	-1.833387e-05
1.023305e+01	-1.854628e-05
1.029215e+01	-1.876114e-05
1.035160e+01	-1.897849e-05
1.041139e+01	-1.919836e-05
1.047153e+01	-1.942078e-05
1.053201e+01	-1.964578e-05
1.059284e+01	-1.987338e-05
1.065403e+01	-2.010361e-05
1.071556e+01	-2.033652e-05
1.077746e+01	-2.057212e-05
1.083971e+01	-2.081046e-05
1.090232e+01	-2.105155e-05
1.096529e+01	-2.129544e-05
1.102862e+01	-2.154215e-05
1.109232e+01	-2.179172e-05
1.115639e+01	-2.204419e-05
1.122083e+01	-2.229957e-05
1.128564e+01	-2.255792e-05
1.135083e+01	-2.281926e-05
1.141639e+01	-2.308363e-05
1.148233e+01	-2.335105e-05
1.154865e+01	-2.362158e-05
1.161536e+01	-2.389524e-05
1.168245e+01	-2.417208e-05
1.174992e+01	-2.445212e-05
1.181779e+01	-2.473540e-05
1.188605e+01	-2.502197e-05
1.195470e+01	-2.531185e-05
1.202375e+01	-2.560510e-05
1.209320e+01	-2.590174e-05
1.216305e+01	-2.620181e-05
1.223330e+01	-2.650537e-05
1.230396e+01	-2.681244e-05
1.237503e+01	-2.712307e-05
1.244651e+01	-2.743730e-05
1.251840e+01	-2.775516e-05
1.259070e+01	-2.807671e-05
1.266343e+01	-2.840199e-05
1.273657e+01	-2.873103e-05
1.281014e+01	-2.906389e-05
1.288413e+01	-2.940060e-05
1.295855e+01	-2.974122e-05
1.303339e+01	-3.008577e-05
1.310867e+01	-3.043433e-05
1.318439e+01	-3.078691e-05
1.326054e+01	-3.114359e-05
1.333713e+01	-3.150439e-05
1.341417e+01	-3.186938e-05
1.349165e+01	-3.223859e-05
1.356958e+01	-3.261209e-05
1.364795e+01	-3.298990e-05
1.372678e+01	-3.337210e-05
1.380607e+01	-3.375872e-05
1.388581e+01	-3.414983e-05
1.396602e+01	-3.454546e-05
1.404668e+01	-3.494568e-05
1.412782e+01	-3.535053e-05
1.420942e+01	-3.576008e-05
1.429149e+01	-3.617436e-05
1.437404e+01	-3.659345e-05
1.445706e+01	-3.701740e-05
1.454057e+01	-3.744625e-05
1.462455e+01	-3.788007e-05
1.470902e+01	-3.831892e-05
1.479398e+01	-3.876286e-05
1.487943e+01	-3.921193e-05
1.496537e+01	-3.966621e-05
1.505181e+01	-4.012575e-05
1.513875e+01	-4.059062e-05
1.522619e+01	-4.106087e-05
1.531414e+01	-4.153657e-05
1.540259e+01	-4.201778e-05
1.549156e+01	-4.250457e-05
1.558103e+01	-4.299699e-05
1.567103e+01	-4.349512e-05
1.576155e+01	-4.399902e-05
1.585258e+01	-4.450876e-05
1.594415e+01	-4.502441e-05
1.603624e+01	-4.554602e-05
1.612886e+01	-4.607368e-05
1.622202e+01	-4.660746e-05
1.631572e+01	-4.714741e-05
1.640996e+01	-4.769363e-05
1.650474e+01	-4.824617e-05
1.660008e+01	-4.880511e-05
1.669596e+01	-4.937053e-05
1.679239e+01	-4.994250e-05
1.688938e+01	-5.052109e-05
1.698694e+01	-5.110639e-05
1.708505e+01	-5.169847e-05
1.718373e+01	-5.229740e-05
1.728299e+01	-5.290328e-05
1.738281e+01	-5.351618e-05
1.748322e+01	-5.413617e-05
1.758420e+01	-5.476335e-05
1.768576e+01	-5.539780e-05
1.778792e+01	-5.603959e-05
1.789066e+01	-5.668882e-05
1.799399e+01	-5.734557e-05
1.809793e+01	-5.800993e-05
1.820246e+01	-5.868199e-05
1.830760e+01	-5.936183e-05
1.841334e+01	-6.004955e-05
1.851969e+01	-6.074524e-05
1.862666e+01	-6.144898e-05
1.873425e+01	-6.216088e-05
1.884246e+01	-6.288103e-05
1.895129e+01	-6.360952e-05
1.906075e+01	-6.434644e-05
1.917085e+01	-6.509191e-05
1.928158e+01	-6.584601e-05
1.939295e+01	-6.660885e-05
1.950496e+01	-6.738053e-05
1.961762e+01	-6.816114e-05
1.973093e+01	-6.895080e-05
1.984490e+01	-6.974961e-05
1.995952e+01	-7.055767e-05
2.007480e+01	-7.137510e-05
2.019076e+01	-7.220199e-05
2.030738e+01	-7.303846e-05
2.042467e+01	-7.388463e-05
2.054264e+01	-7.474059e-05
2.066130e+01	-7.560648e-05
2.078064e+01	-7.648239e-05
2.090066e+01	-7.736845e-05
2.102139e+01	-7.826478e-05
2.114280e+01	-7.917149e-05
2.126492e+01	-8.008871e-05
2.138775e+01	-8.101655e-05
2.151128e+01	-8.195514e-05
2.163553e+01	-8.290460e-05
2.176050e+01	-8.386507e-05
2.188619e+01	-8.483666e-05
2.201260e+01	-8.581950e-05
2.213974e+01	-8.681374e-05
2.226762e+01	-8.781949e-05
2.239624e+01	-8.883689e-05
2.252560e+01	-8.986608e-05
2.265571e+01	-9.090719e-05
2.278656e+01	-9.196037e-05
2.291818e+01	-9.302574e-05
2.305055e+01	-9.410346e-05
2.318369e+01	-9.519366e-05
2.331760e+01	-9.629650e-05
2.345228e+01	-9.741211e-05
2.358774e+01	-9.854064e-05
2.372398e+01	-9.968225e-05
2.386101e+01	-1.008371e-04
2.399883e+01	-1.020053e-04
2.413745e+01	-1.031870e-04
2.427686e+01	-1.043825e-04
2.441709e+01	-1.055918e-04
2.455812e+01	-1.068151e-04
2.469997e+01	-1.080525e-04
2.484263e+01	-1.093043e-04
2.498612e+01	-1.105706e-04
2.513044e+01	-1.118516e-04
2.527559e+01	-1.131474e-04
2.542158e+01	-1.144582e-04
2.556842e+01	-1.157843e-04
2.571610e+01	-1.171256e-04
2.586463e+01	-1.184826e-04
2.601403e+01	-1.198552e-04
2.616428e+01	-1.212437e-04
2.631541e+01	-1.226483e-04
2.646740e+01	-1.240692e-04
2.662028e+01	-1.255066e-04
2.677404e+01	-1.269606e-04
2.692868e+01	-1.284315e-04
2.708422e+01	-1.299193e-04
2.724066e+01	-1.314245e-04
2.739800e+01	-1.329470e-04
2.755625e+01	-1.344872e-04
2.771541e+01	-1.360453e-04
2.787550e+01	-1.376214e-04
2.803650e+01	-1.392157e-04
2.819844e+01	-1.408286e-04
2.836131e+01	-1.424601e-04
2.852513e+01	-1.441105e-04
2.868989e+01	-1.457800e-04
2.885560e+01	-1.474689e-04
2.902227e+01	-1.491773e-04
2.918990e+01	-1.509056e-04
2.935850e+01	-1.526538e-04
2.952807e+01	-1.544223e-04
2.969863e+01	-1.562113e-04
2.987016e+01	-1.580210e-04
3.004269e+01	-1.598517e-04
3.021622e+01	-1.617036e-04
3.039075e+01	-1.635770e-04
3.056628e+01	-1.654720e-04
3.074283e+01	-1.673890e-04
3.092040e+01	-1.693282e-04
3.109900e+01	-1.712899e-04
3.127862e+01	-1.732743e-04
3.145929e+01	-1.752817e-04
3.164099e+01	-1.773123e-04
3.182375e+01	-1.793665e-04
3.200756e+01	-1.814445e-04
3.219244e+01	-1.835465e-04
3.237838e+01	-1.856729e-04
3.256540e+01	-1.878239e-04
3.275349e+01	-1.899999e-04
3.294268e+01	-1.922010e-04
3.313295e+01	-1.944277e-04
3.332433e+01	-1.966801e-04
3.351681e+01	-1.989587e-04
3.371040e+01	-2.012636e-04
3.390511e+01	-2.035953e-04
3.410094e+01	-2.059539e-04
3.429791e+01	-2.083399e-04
3.449601e+01	-2.107535e-04
3.469526e+01	-2.131951e-04
3.489566e+01	-2.156650e-04
3.509721e+01	-2.181634e-04
3.529993e+01	-2.206908e-04
3.550382e+01	-2.232475e-04
3.570889e+01	-2.258339e-04
3.591515e+01	-2.284501e-04
3.612259e+01	-2.310967e-04
3.633123e+01	-2.337740e-04
3.654108e+01	-2.364822e-04
3.675214e+01	-2.392219e-04
3.696442e+01	-2.419933e-04
3.717792e+01	-2.447967e-04
3.739266e+01	-2.476327e-04
3.760864e+01	-2.505015e-04
3.782587e+01	-2.534035e-04
3.804435e+01	-2.563392e-04
3.826409e+01	-2.593089e-04
3.848510e+01	-2.623130e-04
3.870739e+01	-2.653518e-04
3.893096e+01	-2.684259e-04
3.915583e+01	-2.715356e-04
3.938199e+01	-2.746813e-04
3.960946e+01	-2.778635e-04
3.983824e+01	-2.810825e-04
4.006834e+01	-2.843388e-04
4.029978e+01	-2.876328e-04
4.053255e+01	-2.909650e-04
4.076666e+01	-2.943358e-04
4.100213e+01	-2.977457e-04
4.123896e+01	-3.011950e-04
4.147715e+01	-3.046843e-04
4.171672e+01	-3.082141e-04
4.195767e+01	-3.117847e-04
4.220002e+01	-3.153967e-04
4.244377e+01	-3.190505e-04
4.268892e+01	-3.227466e-04
4.293549e+01	-3.264856e-04
4.318348e+01	-3.302679e-04
4.343291e+01	-3.340940e-04
4.368377e+01	-3.379644e-04
4.393609e+01	-3.418797e-04
4.418986e+01	-3.458403e-04
4.444510e+01	-3.498468e-04
4.470182e+01	-3.538997e-04
4.496001e+01	-3.579995e-04
4.521970e+01	-3.621469e-04
4.548089e+01	-3.663423e-04
4.574358e+01	-3.705863e-04
4.600779e+01	-3.748794e-04
4.627353e+01	-3.792223e-04
4.654081e+01	-3.836155e-04
4.680963e+01	-3.880596e-04
4.708000e+01	-3.925552e-04
4.735193e+01	-3.971029e-04
4.762543e+01	-4.017032e-04
4.790051e+01	-4.063568e-04
4.817719e+01	-4.110644e-04
4.845545e+01	-4.158264e-04
4.873533e+01	-4.206436e-04
4.901682e+01	-4.255167e-04
4.929994e+01	-4.304462e-04
4.958470e+01	-4.354328e-04
4.987110e+01	-4.404771e-04
5.015915e+01	-4.455799e-04
5.044887e+01	-4.507418e-04
5.074026e+01	-4.559635e-04
5.103333e+01	-4.612457e-04
5.132810e+01	-4.665890e-04
5.162457e+01	-4.719943e-04
5.192275e+01	-4.774622e-04
5.222265e+01	-4.829934e-04
5.252429e+01	-4.885887e-04
5.282767e+01	-4.942488e-04
5.313280e+01	-4.999745e-04
5.343969e+01	-5.057665e-04
5.374836e+01	-5.116256e-04
5.405880e+01	-5.175526e-04
5.437105e+01	-5.235482e-04
5.468509e+01	-5.296133e-04
5.500095e+01	-5.357486e-04
5.531863e+01	-5.419550e-04
5.563815e+01	-5.482333e-04
5.595951e+01	-5.545844e-04
5.628273e+01	-5.610090e-04
5.660782e+01	-5.675080e-04
5.693479e+01	-5.740823e-04
5.726364e+01	-5.807328e-04
5.759439e+01	-5.874602e-04
5.792705e+01	-5.942657e-04
5.826164e+01	-6.011499e-04
5.859815e+01	-6.081139e-04
5.893662e+01	-6.151586e-04
5.927703e+01	-6.222849e-04
5.961941e+01	-6.294937e-04
5.996377e+01	-6.367860e-04
6.031012e+01	-6.441628e-04
6.065847e+01	-6.516250e-04
6.100883e+01	-6.591737e-04
6.136121e+01	-6.668098e-04
6.171563e+01	-6.745344e-04
6.207210e+01	-6.823485e-04
6.243063e+01	-6.902530e-04
6.279122e+01	-6.982492e-04
6.315390e+01	-7.063379e-04
6.351868e+01	-7.145204e-04
6.388556e+01	-7.227976e-04
6.425456e+01	-7.311707e-04
6.462569e+01	-7.396408e-04
6.499897e+01	-7.482090e-04
6.537440e+01	-7.568764e-04
6.575200e+01	-7.656443e-04
6.613178e+01	-7.745137e-04
6.651375e+01	-7.834858e-04
6.689793e+01	-7.925619e-04
6.728433e+01	-8.017431e-04
6.767297e+01	-8.110307e-04
6.806384e+01	-8.204258e-04
6.845698e+01	-8.299297e-04
6.885238e+01	-8.395438e-04
6.925007e+01	-8.492692e-04
6.965005e+01	-8.591072e-04
7.005235e+01	-8.690592e-04
7.045697e+01	-8.791265e-04
7.086393e+01	-8.893103e-04
7.127323e+01	-8.996122e-04
7.168490e+01	-9.100333e-04
7.209895e+01	-9.205752e-04
7.251539e+01	-9.312392e-04
7.293424e+01	-9.420267e-04
7.335551e+01	-9.529391e-04
7.377920e+01	-9.639779e-04
7.420535e+01	-9.751446e-04
7.463396e+01	-9.864407e-04
7.506504e+01	-9.978675e-04
7.549861e+01	-1.009427e-03
7.593469e+01	-1.021120e-03
7.637328e+01	-1.032948e-03
7.681441e+01	-1.044914e-03
7.725809e+01	-1.057018e-03
7.770433e+01	-1.069262e-03
7.815315e+01	-1.081649e-03
7.860456e+01	-1.094178e-03
7.905857e+01	-1.106853e-03
7.951521e+01	-1.119674e-03
7.997449e+01	-1.132645e-03
8.043642e+01	-1.145765e-03
8.090102e+01	-1.159037e-03
8.136830e+01	-1.172463e-03
8.183828e+01	-1.186044e-03
8.231097e+01	-1.199783e-03
8.278640e+01	-1.213681e-03
8.326457e+01	-1.227740e-03
8.374550e+01	-1.241962e-03
8.422921e+01	-1.256348e-03
8.471572e+01	-1.270901e-03
8.520503e+01	-1.285622e-03
8.569717e+01	-1.300515e-03
8.619215e+01	-1.315579e-03
8.669000e+01	-1.330818e-03
8.719071e+01	-1.346234e-03
8.769432e+01	-1.361828e-03
8.820084e+01	-1.377602e-03
8.871029e+01	-1.393560e-03
8.922267e+01	-1.409702e-03
8.973802e+01	-1.426031e-03
9.025634e+01	-1.442549e-03
9.077766e+01	-1.459259e-03
9.130199e+01	-1.476162e-03
9.182935e+01	-1.493260e-03
9.235975e+01	-1.510557e-03
9.289321e+01	-1.528054e-03
9.342976e+01	-1.545754e-03
9.396941e+01	-1.563659e-03
9.451217e+01	-1.581771e-03
9.505807e+01	-1.600093e-03
9.560712e+01	-1.618627e-03
9.615934e+01	-1.637375e-03
9.671476e+01	-1.656341e-03
9.727338e+01	-1.675527e-03
9.783522e+01	-1.694934e-03
9.840032e+01	-1.714567e-03
9.896867e+01	-1.734427e-03
9.954031e+01	-1.754516e-03
1.001153e+02	-1.774839e-03
1.006935e+02	-1.795396e-03
1.012751e+02	-1.816192e-03
1.018601e+02	-1.837229e-03
1.024484e+02	-1.858509e-03
1.030402e+02	-1.880036e-03
1.036353e+02	-1.901812e-03
1.042339e+02	-1.923840e-03
1.048360e+02	-1.946123e-03
1.054415e+02	-1.968664e-03
1.060505e+02	-1.991466e-03
1.066631e+02	-2.014533e-03
1.072791e+02	-2.037866e-03
1.078988e+02	-2.061470e-03
1.085220e+02	-2.085347e-03
1.091488e+02	-2.109500e-03
1.097793e+02	-2.133933e-03
1.104133e+02	-2.158649e-03
1.110511e+02	-2.183652e-03
1.116925e+02	-2.208943e-03
1.123376e+02	-2.234528e-03
1.129865e+02	-2.260409e-03
1.136391e+02	-2.286589e-03
1.142955e+02	-2.313073e-03
1.149556e+02	-2.339863e-03
1.156196e+02	-2.366964e-03
1.162874e+02	-2.394378e-03
1.169591e+02	-2.422110e-03
1.176347e+02	-2.450163e-03
1.183141e+02	-2.478541e-03
1.189975e+02	-2.507247e-03
1.196848e+02	-2.536285e-03
1.203761e+02	-2.565660e-03
1.210714e+02	-2.595375e-03
1.217707e+02	-2.625434e-03
1.224740e+02	-2.655841e-03
1.231814e+02	-2.686600e-03
1.238929e+02	-2.717716e-03
1.246085e+02	-2.749191e-03
1.253283e+02	-2.781031e-03
1.260522e+02	-2.813239e-03
1.267802e+02	-2.845821e-03
1.275125e+02	-2.878780e-03
1.282490e+02	-2.912120e-03
1.289898e+02	-2.945846e-03
1.297348e+02	-2.979963e-03
1.304842e+02	-3.014474e-03
1.312378e+02	-3.049386e-03
1.319959e+02	-3.084701e-03
1.327583e+02	-3.120425e-03
1.335251e+02	-3.156563e-03
1.342963e+02	-3.193119e-03
1.350720e+02	-3.230098e-03
1.358522e+02	-3.267506e-03
1.366368e+02	-3.305346e-03
1.374260e+02	-3.343625e-03
1.382198e+02	-3.382347e-03
1.390182e+02	-3.421516e-03
1.398211e+02	-3.461140e-03
1.406287e+02	-3.501222e-03
1.414410e+02	-3.541768e-03
1.422579e+02	-3.582783e-03
1.430796e+02	-3.624273e-03
1.439060e+02	-3.666244e-03
1.447372e+02	-3.708700e-03
1.455732e+02	-3.751648e-03
1.464141e+02	-3.795092e-03
1.472597e+02	-3.839040e-03
1.481103e+02	-3.883496e-03
1.489658e+02	-3.928467e-03
1.498262e+02	-3.973959e-03
1.506916e+02	-4.019977e-03
1.515620e+02	-4.066527e-03
1.524374e+02	-4.113617e-03
1.533179e+02	-4.161251e-03
1.542034e+02	-4.209437e-03
1.550941e+02	-4.258181e-03
1.559899e+02	-4.307488e-03
1.568909e+02	-4.357366e-03
1.577971e+02	-4.407822e-03
1.587085e+02	-4.458861e-03
1.596252e+02	-4.510492e-03
1.605472e+02	-4.562719e-03
1.614745e+02	-4.615551e-03
1.624072e+02	-4.668995e-03
1.633453e+02	-4.723057e-03
1.642887e+02	-4.777745e-03
1.652377e+02	-4.833065e-03
1.661921e+02	-4.889026e-03
1.671520e+02	-4.945634e-03
1.681175e+02	-5.002898e-03
1.690885e+02	-5.060824e-03
1.700651e+02	-5.119420e-03
1.710474e+02	-5.178694e-03
1.720354e+02	-5.238655e-03
1.730291e+02	-5.299309e-03
1.740285e+02	-5.360665e-03
1.750337e+02	-5.422730e-03
1.760446e+02	-5.485514e-03
1.770615e+02	-5.549025e-03
1.780842e+02	-5.613270e-03
1.791128e+02	-5.678259e-03
1.801473e+02	-5.743999e-03
1.811878e+02	-5.810500e-03
1.822344e+02	-5.877771e-03
1.832870e+02	-5.945819e-03
1.843456e+02	-6.014655e-03
1.854104e+02	-6.084288e-03
1.864813e+02	-6.154726e-03
1.875584e+02	-6.225979e-03
1.886418e+02	-6.298056e-03
1.897313e+02	-6.370967e-03
1.908272e+02	-6.444721e-03
1.919294e+02	-6.519329e-03
1.930380e+02	-6.594799e-03
1.941530e+02	-6.671143e-03
1.952744e+02	-6.748369e-03
1.964023e+02	-6.826489e-03
1.975367e+02	-6.905513e-03
1.986777e+02	-6.985451e-03
1.998252e+02	-7.066313e-03
2.009794e+02	-7.148110e-03
2.021403e+02	-7.230854e-03
2.033078e+02	-7.314554e-03
2.044821e+02	-7.399223e-03
2.056632e+02	-7.484871e-03
2.068511e+02	-7.571509e-03
2.080459e+02	-7.659149e-03
2.092475e+02	-7.747803e-03
2.104561e+02	-7.837482e-03
2.116717e+02	-7.928198e-03
2.128943e+02	-8.019964e-03
2.141240e+02	-8.112790e-03
2.153608e+02	-8.206690e-03
2.166047e+02	-8.301675e-03
2.178558e+02	-8.397759e-03
2.191141e+02	-8.494954e-03
2.203797e+02	-8.593272e-03
2.216526e+02	-8.692727e-03
2.229329e+02	-8.793333e-03
2.242205e+02	-8.895101e-03
2.255156e+02	-8.998046e-03
2.268182e+02	-9.102181e-03
2.281283e+02	-9.207520e-03
2.294459e+02	-9.314077e-03
2.307712e+02	-9.421865e-03
2.321041e+02	-9.530900e-03
2.334447e+02	-9.641195e-03
2.347931e+02	-9.752765e-03
2.361493e+02	-9.865624e-03
2.375133e+02	-9.979788e-03
2.388851e+02	-1.009527e-02
2.402649e+02	-1.021209e-02
2.416527e+02	-1.033026e-02
2.430484e+02	-1.044979e-02
2.444523e+02	-1.057071e-02
2.458642e+02	-1.069302e-02
2.472843e+02	-1.081675e-02
2.487126e+02	-1.094190e-02
2.501492e+02	-1.106851e-02
2.515940e+02	-1.119657e-02
2.530472e+02	-1.132612e-02
2.545088e+02	-1.145716e-02
2.559789e+02	-1.158972e-02
2.574574e+02	-1.172381e-02
2.589444e+02	-1.185944e-02
2.604401e+02	-1.199665e-02
2.619444e+02	-1.213544e-02
2.634574e+02	-1.227583e-02
2.649791e+02	-1.241784e-02
2.665096e+02	-1.256150e-02
2.680489e+02	-1.270681e-02
2.695972e+02	-1.285381e-02
2.711544e+02	-1.300250e-02
2.727205e+02	-1.315291e-02
2.742958e+02	-1.330505e-02
2.758801e+02	-1.345895e-02
2.774736e+02	-1.361463e-02
2.790762e+02	-1.377211e-02
2.806882e+02	-1.393141e-02
2.823094e+02	-1.409254e-02
2.839400e+02	-1.425554e-02
2.855800e+02	-1.442042e-02
2.872295e+02	-1.458720e-02
2.888886e+02	-1.475591e-02
2.905572e+02	-1.492657e-02
2.922354e+02	-1.509919e-02
2.939234e+02	-1.527381e-02
2.956211e+02	-1.545045e-02
2.973286e+02	-1.562912e-02
2.990459e+02	-1.580986e-02
3.007732e+02	-1.599268e-02
3.025104e+02	-1.617762e-02
3.042577e+02	-1.636468e-02
3.060151e+02	-1.655391e-02
3.077826e+02	-1.674532e-02
3.095604e+02	-1.693894e-02
3.113484e+02	-1.713479e-02
3.131467e+02	-1.733291e-02
3.149554e+02	-1.753330e-02
3.167746e+02	-1.773602e-02
3.186043e+02	-1.794107e-02
3.204445e+02	-1.814848e-02
3.222954e+02	-1.835829e-02
3.241570e+02	-1.857052e-02
3.260293e+02	-1.878520e-02
3.279124e+02	-1.900235e-02
3.298064e+02	-1.922201e-02
3.317114e+02	-1.944420e-02
3.336273e+02	-1.966896e-02
3.355544e+02	-1.989630e-02
3.374925e+02	-2.012627e-02
3.394418e+02	-2.035889e-02
3.414024e+02	-2.059419e-02
3.433744e+02	-2.083221e-02
3.453577e+02	-2.107297e-02
3.473525e+02	-2.131650e-02
3.493588e+02	-2.156284e-02
3.513766e+02	-2.181202e-02
3.534062e+02	-2.206408e-02
3.554474e+02	-2.231904e-02
3.575005e+02	-2.257693e-02
3.595654e+02	-2.283780e-02
3.616422e+02	-2.310168e-02
3.637311e+02	-2.336860e-02
3.658320e+02	-2.363859e-02
3.679450e+02	-2.391169e-02
3.700702e+02	-2.418794e-02
3.722077e+02	-2.446737e-02
3.743576e+02	-2.475002e-02
3.765199e+02	-2.503593e-02
3.786946e+02	-2.532513e-02
3.808820e+02	-2.561766e-02
3.830819e+02	-2.591356e-02
3.852946e+02	-2.621286e-02
3.875200e+02	-2.651561e-02
3.897583e+02	-2.682185e-02
3.920096e+02	-2.713162e-02
3.942738e+02	-2.744495e-02
3.965511e+02	-2.776188e-02
3.988416e+02	-2.808247e-02
4.011452e+02	-2.840675e-02
4.034622e+02	-2.873475e-02
4.057926e+02	-2.906654e-02
4.081365e+02	-2.940214e-02
4.104938e+02	-2.974160e-02
4.128648e+02	-3.008496e-02
4.152495e+02	-3.043228e-02
4.176480e+02	-3.078359e-02
4.200603e+02	-3.113895e-02
4.224866e+02	-3.149839e-02
4.249268e+02	-3.186196e-02
4.273812e+02	-3.222972e-02
4.298497e+02	-3.260170e-02
4.323325e+02	-3.297796e-02
4.348297e+02	-3.335855e-02
4.373412e+02	-3.374351e-02
4.398673e+02	-3.413290e-02
4.424079e+02	-3.452676e-02
4.449633e+02	-3.492515e-02
4.475334e+02	-3.532812e-02
4.501183e+02	-3.573571e-02
4.527182e+02	-3.614799e-02
4.553330e+02	-3.656501e-02
4.579630e+02	-3.698682e-02
4.606082e+02	-3.741347e-02
4.632687e+02	-3.784502e-02
4.659445e+02	-3.828152e-02
4.686358e+02	-3.872304e-02
4.713426e+02	-3.916963e-02
4.740650e+02	-3.962135e-02
4.768032e+02	-4.007825e-02
4.795572e+02	-4.054039e-02
4.823271e+02	-4.100784e-02
4.851130e+02	-4.148065e-02
4.879150e+02	-4.195889e-02
4.907332e+02	-4.244261e-02
4.935676e+02	-4.293189e-02
4.964185e+02	-4.342677e-02
4.992858e+02	-4.392733e-02
5.021696e+02	-4.443363e-02
5.050701e+02	-4.494574e-02
5.079874e+02	-4.546372e-02
5.109215e+02	-4.598763e-02
5.138726e+02	-4.651755e-02
5.168407e+02	-4.705354e-02
5.198259e+02	-4.759568e-02
5.228284e+02	-4.814402e-02
5.258482e+02	-4.869865e-02
5.288855e+02	-4.925963e-02
5.319403e+02	-4.982704e-02
5.350128e+02	-5.040094e-02
5.381030e+02	-5.098142e-02
5.412111e+02	-5.156854e-02
5.443371e+02	-5.216238e-02
5.474812e+02	-5.276302e-02
5.506434e+02	-5.337053e-02
5.538239e+02	-5.398499e-02
5.570228e+02	-5.460649e-02
5.602401e+02	-5.523509e-02
5.634760e+02	-5.587088e-02
5.667306e+02	-5.651394e-02
5.700040e+02	-5.716435e-02
5.732964e+02	-5.782220e-02
5.766077e+02	-5.848757e-02
5.799382e+02	-5.916055e-02
5.832879e+02	-5.984121e-02
5.866569e+02	-6.052965e-02
5.900454e+02	-6.122595e-02
5.934535e+02	-6.193021e-02
5.968813e+02	-6.264251e-02
6.003288e+02	-6.336294e-02
6.037963e+02	-6.409160e-02
6.072838e+02	-6.482857e-02
6.107914e+02	-6.557395e-02
6.143194e+02	-6.632784e-02
6.178676e+02	-6.709032e-02
6.214364e+02	-6.786151e-02
6.250258e+02	-6.864149e-02
6.286359e+02	-6.943036e-02
6.322669e+02	-7.022822e-02
6.359189e+02	-7.103518e-02
6.395919e+02	-7.185133e-02
6.432862e+02	-7.267678e-02
6.470017e+02	-7.351163e-02
6.507388e+02	-7.435599e-02
6.544974e+02	-7.520997e-02
6.582778e+02	-7.607366e-02
6.620800e+02	-7.694719e-02
6.659041e+02	-7.783066e-02
6.697504e+02	-7.872418e-02
6.736188e+02	-7.962786e-02
6.775096e+02	-8.054182e-02
6.814229e+02	-8.146617e-02
6.853587e+02	-8.240103e-02
6.893173e+02	-8.334651e-02
6.932988e+02	-8.430273e-02
6.973033e+02	-8.526982e-02
7.013309e+02	-8.624790e-02
