Frequency(Hz)	Magnitude(dB)
1.000000e+01	-2.244512e+00
1.005776e+01	-2.264846e+00
1.011585e+01	-2.285398e+00
1.017428e+01	-2.305853e+00
1.023305e+01	-2.326609e+00
1.029215e+01	-2.347577e+00
1.035160e+01	-2.368149e+00
1.041139e+01	-2.389406e+00
1.047153e+01	-2.410410e+00
1.053201e+01	-2.432011e+00
1.059284e+01	-2.453258e+00
1.065403e+01	-2.475238e+00
1.071556e+01	-2.496993e+00
1.077746e+01	-2.518949e+00
1.083971e+01	-2.540798e+00
1.090232e+01	-2.563130e+00
1.096529e+01	-2.585679e+00
1.102862e+01	-2.608190e+00
1.109232e+01	-2.630629e+00
1.115639e+01	-2.653346e+00
1.122083e+01	-2.676512e+00
1.128564e+01	-2.699833e+00
1.135083e+01	-2.722900e+00
1.141639e+01	-2.746221e+00
1.148233e+01	-2.769823e+00
1.154865e+01	-2.793130e+00
1.161536e+01	-2.817058e+00
1.168245e+01	-2.841112e+00
1.174992e+01	-2.865060e+00
1.181779e+01	-2.889699e+00
1.188605e+01	-2.913604e+00
1.195470e+01	-2.938392e+00
1.202375e+01	-2.963067e+00
1.209320e+01	-2.988027e+00
1.216305e+01	-3.012827e+00
1.223330e+01	-3.037877e+00
1.230396e+01	-3.063138e+00
1.237503e+01	-3.088462e+00
1.244651e+01	-3.114134e+00
1.251840e+01	-3.139689e+00
1.259070e+01	-3.165419e+00
1.266343e+01	-3.191273e+00
1.273657e+01	-3.217760e+00
1.281014e+01	-3.244011e+00
1.288413e+01	-3.270277e+00
1.295855e+01	-3.297171e+00
1.303339e+01	-3.323782e+00
1.310867e+01	-3.350301e+00
1.318439e+01	-3.377472e+00
1.326054e+01	-3.404617e+00
1.333713e+01	-3.431621e+00
1.341417e+01	-3.458997e+00
1.349165e+01	-3.486611e+00
1.356958e+01	-3.514421e+00
1.364795e+01	-3.542233e+00
1.372678e+01	-3.570118e+00
1.380607e+01	-3.598112e+00
1.388581e+01	-3.626216e+00
1.396602e+01	-3.654998e+00
1.404668e+01	-3.683242e+00
1.412782e+01	-3.712186e+00
1.420942e+01	-3.740713e+00
1.429149e+01	-3.769767e+00
1.437404e+01	-3.798652e+00
1.445706e+01	-3.828089e+00
1.454057e+01	-3.857194e+00
1.462455e+01	-3.887281e+00
1.470902e+01	-3.916622e+00
1.479398e+01	-3.946264e+00
1.487943e+01	-3.976304e+00
1.496537e+01	-4.006436e+00
1.505181e+01	-4.036707e+00
1.513875e+01	-4.067076e+00
1.522619e+01	-4.097361e+00
1.531414e+01	-4.128171e+00
1.540259e+01	-4.158519e+00
1.549156e+01	-4.189563e+00
1.558103e+01	-4.220905e+00
1.567103e+01	-4.252376e+00
1.576155e+01	-4.283235e+00
1.585258e+01	-4.314750e+00
1.594415e+01	-4.346372e+00
1.603624e+01	-4.378045e+00
1.612886e+01	-4.409868e+00
1.622202e+01	-4.442022e+00
1.631572e+01	-4.473511e+00
1.640996e+01	-4.505974e+00
1.650474e+01	-4.538660e+00
1.660008e+01	-4.571065e+00
1.669596e+01	-4.603697e+00
1.679239e+01	-4.636515e+00
1.688938e+01	-4.669501e+00
1.698694e+01	-4.702281e+00
1.708505e+01	-4.735401e+00
1.718373e+01	-4.768392e+00
1.728299e+01	-4.802238e+00
1.738281e+01	-4.835807e+00
1.748322e+01	-4.869340e+00
1.758420e+01	-4.903161e+00
1.768576e+01	-4.937005e+00
1.778792e+01	-4.971034e+00
1.789066e+01	-5.005224e+00
1.799399e+01	-5.039382e+00
1.809793e+01	-5.073720e+00
1.820246e+01	-5.108178e+00
1.830760e+01	-5.142935e+00
1.841334e+01	-5.177706e+00
1.851969e+01	-5.212899e+00
1.862666e+01	-5.247832e+00
1.873425e+01	-5.282801e+00
1.884246e+01	-5.318228e+00
1.895129e+01	-5.353555e+00
1.906075e+01	-5.388873e+00
1.917085e+01	-5.424805e+00
1.928158e+01	-5.460553e+00
1.939295e+01	-5.496231e+00
1.950496e+01	-5.531897e+00
1.961762e+01	-5.568752e+00
1.973093e+01	-5.604328e+00
1.984490e+01	-5.640729e+00
1.995952e+01	-5.677357e+00
2.007480e+01	-5.713984e+00
2.019076e+01	-5.750943e+00
2.030738e+01	-5.787294e+00
2.042467e+01	-5.824211e+00
2.054264e+01	-5.861438e+00
2.066130e+01	-5.898216e+00
2.078064e+01	-5.935637e+00
2.090066e+01	-5.972895e+00
2.102139e+01	-6.010527e+00
2.114280e+01	-6.047632e+00
2.126492e+01	-6.085437e+00
2.138775e+01	-6.123220e+00
2.151128e+01	-6.161096e+00
2.163553e+01	-6.198431e+00
2.176050e+01	-6.237171e+00
2.188619e+01	-6.275199e+00
2.201260e+01	-6.313803e+00
2.213974e+01	-6.352010e+00
2.226762e+01	-6.390389e+00
2.239624e+01	-6.428639e+00
2.252560e+01	-6.467748e+00
2.265571e+01	-6.506624e+00
2.278656e+01	-6.545632e+00
2.291818e+01	-6.584379e+00
2.305055e+01	-6.623306e+00
2.318369e+01	-6.662834e+00
2.331760e+01	-6.702377e+00
2.345228e+01	-6.741382e+00
2.358774e+01	-6.780724e+00
2.372398e+01	-6.820276e+00
2.386101e+01	-6.859584e+00
2.399883e+01	-6.899820e+00
2.413745e+01	-6.939671e+00
2.427686e+01	-6.979536e+00
2.441709e+01	-7.020107e+00
2.455812e+01	-7.060123e+00
2.469997e+01	-7.099981e+00
2.484263e+01	-7.140265e+00
2.498612e+01	-7.180498e+00
2.513044e+01	-7.221013e+00
2.527559e+01	-7.262305e+00
2.542158e+01	-7.302156e+00
2.556842e+01	-7.342931e+00
2.571610e+01	-7.384094e+00
2.586463e+01	-7.425404e+00
2.601403e+01	-7.466086e+00
2.616428e+01	-7.507580e+00
2.631541e+01	-7.548829e+00
2.646740e+01	-7.589615e+00
2.662028e+01	-7.631040e+00
2.677404e+01	-7.672585e+00
2.692868e+01	-7.713741e+00
2.708422e+01	-7.755159e+00
2.724066e+01	-7.797168e+00
2.739800e+01	-7.839091e+00
2.755625e+01	-7.881086e+00
2.771541e+01	-7.922704e+00
2.787550e+01	-7.964920e+00
2.803650e+01	-8.006587e+00
2.819844e+01	-8.049353e+00
2.836131e+01	-8.091109e+00
2.852513e+01	-8.133347e+00
2.868989e+01	-8.175815e+00
2.885560e+01	-8.218277e+00
2.902227e+01	-8.260544e+00
2.918990e+01	-8.303566e+00
2.935850e+01	-8.345938e+00
2.952807e+01	-8.389092e+00
2.969863e+01	-8.432031e+00
2.987016e+01	-8.474916e+00
3.004269e+01	-8.517562e+00
3.021622e+01	-8.560346e+00
3.039075e+01	-8.603853e+00
3.056628e+01	-8.646735e+00
3.074283e+01	-8.689862e+00
3.092040e+01	-8.733101e+00
3.109900e+01	-8.776958e+00
3.127862e+01	-8.820145e+00
3.145929e+01	-8.863508e+00
3.164099e+01	-8.906827e+00
3.182375e+01	-8.951014e+00
3.200756e+01	-8.994308e+00
3.219244e+01	-9.038570e+00
3.237838e+01	-9.081678e+00
3.256540e+01	-9.125575e+00
3.275349e+01	-9.169706e+00
3.294268e+01	-9.213732e+00
3.313295e+01	-9.257975e+00
3.332433e+01	-9.302470e+00
3.351681e+01	-9.346230e+00
3.371040e+01	-9.390453e+00
3.390511e+01	-9.434876e+00
3.410094e+01	-9.479056e+00
3.429791e+01	-9.523692e+00
3.449601e+01	-9.568014e+00
3.469526e+01	-9.612245e+00
3.489566e+01	-9.656799e+00
3.509721e+01	-9.701978e+00
3.529993e+01	-9.746431e+00
3.550382e+01	-9.791173e+00
3.570889e+01	-9.836000e+00
3.591515e+01	-9.881086e+00
3.612259e+01	-9.925975e+00
3.633123e+01	-9.971324e+00
3.654108e+01	-1.001602e+01
3.675214e+01	-1.006084e+01
3.696442e+01	-1.010582e+01
3.717792e+01	-1.015108e+01
3.739266e+01	-1.019615e+01
3.760864e+01	-1.024159e+01
3.782587e+01	-1.028758e+01
3.804435e+01	-1.033203e+01
3.826409e+01	-1.037796e+01
3.848510e+01	-1.042345e+01
3.870739e+01	-1.046854e+01
3.893096e+01	-1.051391e+01
3.915583e+01	-1.055988e+01
3.938199e+01	-1.060569e+01
3.960946e+01	-1.065054e+01
3.983824e+01	-1.069660e+01
4.006834e+01	-1.074302e+01
4.029978e+01	-1.078797e+01
4.053255e+01	-1.083461e+01
4.076666e+01	-1.088009e+01
4.100213e+01	-1.092633e+01
4.123896e+01	-1.097185e+01
4.147715e+01	-1.101877e+01
4.171672e+01	-1.106411e+01
4.195767e+01	-1.111046e+01
4.220002e+01	-1.115632e+01
4.244377e+01	-1.120301e+01
4.268892e+01	-1.124904e+01
4.293549e+01	-1.129530e+01
4.318348e+01	-1.134121e+01
4.343291e+01	-1.138786e+01
4.368377e+01	-1.143480e+01
4.393609e+01	-1.148068e+01
4.418986e+01	-1.152749e+01
4.444510e+01	-1.157458e+01
4.470182e+01	-1.162095e+01
4.496001e+01	-1.166714e+01
4.521970e+01	-1.171376e+01
4.548089e+01	-1.176064e+01
4.574358e+01	-1.180759e+01
4.600779e+01	-1.185379e+01
4.627353e+01	-1.190091e+01
4.654081e+01	-1.194783e+01
4.680963e+01	-1.199445e+01
4.708000e+01	-1.204151e+01
4.735193e+01	-1.208883e+01
4.762543e+01	-1.213529e+01
4.790051e+01	-1.218211e+01
4.817719e+01	-1.222982e+01
4.845545e+01	-1.227677e+01
4.873533e+01	-1.232366e+01
4.901682e+01	-1.237014e+01
4.929994e+01	-1.241780e+01
4.958470e+01	-1.246471e+01
4.987110e+01	-1.251224e+01
5.015915e+01	-1.255834e+01
5.044887e+01	-1.260634e+01
5.074026e+01	-1.265359e+01
5.103333e+01	-1.270064e+01
5.132810e+01	-1.274883e+01
5.162457e+01	-1.279623e+01
5.192275e+01	-1.284344e+01
5.222265e+01	-1.289097e+01
5.252429e+01	-1.293802e+01
5.282767e+01	-1.298540e+01
5.313280e+01	-1.303332e+01
5.343969e+01	-1.308064e+01
5.374836e+01	-1.312754e+01
5.405880e+01	-1.317651e+01
5.437105e+01	-1.322373e+01
5.468509e+01	-1.327144e+01
5.500095e+01	-1.331895e+01
5.531863e+01	-1.336776e+01
5.563815e+01	-1.341500e+01
5.595951e+01	-1.346223e+01
5.628273e+01	-1.351020e+01
5.660782e+01	-1.355796e+01
5.693479e+01	-1.360520e+01
5.726364e+01	-1.365398e+01
5.759439e+01	-1.370118e+01
5.792705e+01	-1.374888e+01
5.826164e+01	-1.379633e+01
5.859815e+01	-1.384465e+01
5.893662e+01	-1.389364e+01
5.927703e+01	-1.394143e+01
5.961941e+01	-1.399009e+01
5.996377e+01	-1.403711e+01
6.031012e+01	-1.408538e+01
6.065847e+01	-1.413328e+01
6.100883e+01	-1.418121e+01
6.136121e+01	-1.422925e+01
6.171563e+01	-1.427697e+01
6.207210e+01	-1.432564e+01
6.243063e+01	-1.437426e+01
6.279122e+01	-1.442199e+01
6.315390e+01	-1.447067e+01
6.351868e+01	-1.451911e+01
6.388556e+01	-1.456714e+01
6.425456e+01	-1.461490e+01
6.462569e+01	-1.466373e+01
6.499897e+01	-1.471136e+01
6.537440e+01	-1.476045e+01
6.575200e+01	-1.480920e+01
6.613178e+01	-1.485669e+01
6.651375e+01	-1.490545e+01
6.689793e+01	-1.495380e+01
6.728433e+01	-1.500262e+01
6.767297e+01	-1.505154e+01
6.806384e+01	-1.509908e+01
6.845698e+01	-1.514816e+01
6.885238e+01	-1.519662e+01
6.925007e+01	-1.524509e+01
6.965005e+01	-1.529347e+01
7.005235e+01	-1.534205e+01
7.045697e+01	-1.539000e+01
7.086393e+01	-1.543962e+01
7.127323e+01	-1.548785e+01
7.168490e+01	-1.553531e+01
7.209895e+01	-1.558436e+01
7.251539e+01	-1.563412e+01
7.293424e+01	-1.568258e+01
7.335551e+01	-1.573099e+01
7.377920e+01	-1.577903e+01
7.420535e+01	-1.582713e+01
7.463396e+01	-1.587748e+01
7.506504e+01	-1.592567e+01
7.549861e+01	-1.597480e+01
7.593469e+01	-1.602336e+01
7.637328e+01	-1.607238e+01
7.681441e+01	-1.612070e+01
7.725809e+01	-1.616948e+01
7.770433e+01	-1.621840e+01
7.815315e+01	-1.626752e+01
7.860456e+01	-1.631653e+01
7.905857e+01	-1.636521e+01
7.951521e+01	-1.641372e+01
7.997449e+01	-1.646295e+01
8.043642e+01	-1.651237e+01
8.090102e+01	-1.656054e+01
8.136830e+01	-1.660981e+01
8.183828e+01	-1.665880e+01
8.231097e+01	-1.670781e+01
8.278640e+01	-1.675832e+01
8.326457e+01	-1.680694e+01
8.374550e+01	-1.685562e+01
8.422921e+01	-1.690274e+01
8.471572e+01	-1.695192e+01
8.520503e+01	-1.699998e+01
8.569717e+01	-1.705077e+01
8.619215e+01	-1.709958e+01
8.669000e+01	-1.714866e+01
8.719071e+01	-1.719718e+01
8.769432e+01	-1.724767e+01
8.820084e+01	-1.729501e+01
8.871029e+01	-1.734523e+01
8.922267e+01	-1.739451e+01
8.973802e+01	-1.744391e+01
9.025634e+01	-1.749247e+01
9.077766e+01	-1.754236e+01
9.130199e+01	-1.759013e+01
9.182935e+01	-1.763918e+01
9.235975e+01	-1.768881e+01
9.289321e+01	-1.773804e+01
9.342976e+01	-1.778712e+01
9.396941e+01	-1.783578e+01
9.451217e+01	-1.788470e+01
9.505807e+01	-1.793486e+01
9.560712e+01	-1.798559e+01
9.615934e+01	-1.803382e+01
9.671476e+01	-1.808333e+01
9.727338e+01	-1.813269e+01
9.783522e+01	-1.818100e+01
9.840032e+01	-1.822907e+01
9.896867e+01	-1.828025e+01
9.954031e+01	-1.832992e+01
1.001153e+02	-1.837969e+01
1.006935e+02	-1.842682e+01
1.012751e+02	-1.847640e+01
1.018601e+02	-1.852704e+01
1.024484e+02	-1.857419e+01
1.030402e+02	-1.862618e+01
1.036353e+02	-1.867284e+01
1.042339e+02	-1.872318e+01
1.048360e+02	-1.877450e+01
1.054415e+02	-1.882132e+01
1.060505e+02	-1.887200e+01
1.066631e+02	-1.892023e+01
1.072791e+02	-1.897166e+01
1.078988e+02	-1.902093e+01
1.085220e+02	-1.906969e+01
1.091488e+02	-1.912043e+01
1.097793e+02	-1.916818e+01
1.104133e+02	-1.921704e+01
1.110511e+02	-1.926842e+01
1.116925e+02	-1.931572e+01
1.123376e+02	-1.936803e+01
1.129865e+02	-1.941569e+01
1.136391e+02	-1.946578e+01
1.142955e+02	-1.951436e+01
1.149556e+02	-1.956459e+01
1.156196e+02	-1.961262e+01
1.162874e+02	-1.966348e+01
1.169591e+02	-1.971310e+01
1.176347e+02	-1.976286e+01
1.183141e+02	-1.981112e+01
1.189975e+02	-1.986273e+01
1.196848e+02	-1.991045e+01
1.203761e+02	-1.995891e+01
1.210714e+02	-2.000974e+01
1.217707e+02	-2.006049e+01
1.224740e+02	-2.010924e+01
1.231814e+02	-2.015794e+01
1.238929e+02	-2.020823e+01
1.246085e+02	-2.025871e+01
1.253283e+02	-2.030725e+01
1.260522e+02	-2.035512e+01
1.267802e+02	-2.040660e+01
1.275125e+02	-2.045586e+01
1.282490e+02	-2.050475e+01
1.289898e+02	-2.055414e+01
1.297348e+02	-2.060433e+01
1.304842e+02	-2.065612e+01
1.312378e+02	-2.070291e+01
1.319959e+02	-2.075200e+01
1.327583e+02	-2.080302e+01
1.335251e+02	-2.085244e+01
1.342963e+02	-2.090169e+01
1.350720e+02	-2.095273e+01
1.358522e+02	-2.100080e+01
1.366368e+02	-2.105081e+01
1.374260e+02	-2.110152e+01
1.382198e+02	-2.115098e+01
1.390182e+02	-2.120109e+01
1.398211e+02	-2.125137e+01
1.406287e+02	-2.129939e+01
1.414410e+02	-2.134936e+01
1.422579e+02	-2.139849e+01
1.430796e+02	-2.144920e+01
1.439060e+02	-2.149741e+01
1.447372e+02	-2.154856e+01
1.455732e+02	-2.159898e+01
1.464141e+02	-2.164821e+01
1.472597e+02	-2.169825e+01
1.481103e+02	-2.174559e+01
1.489658e+02	-2.179616e+01
1.498262e+02	-2.184616e+01
1.506916e+02	-2.189683e+01
1.515620e+02	-2.194448e+01
1.524374e+02	-2.199498e+01
1.533179e+02	-2.204589e+01
1.542034e+02	-2.209419e+01
1.550941e+02	-2.214572e+01
1.559899e+02	-2.219338e+01
1.568909e+02	-2.224320e+01
1.577971e+02	-2.229369e+01
1.587085e+02	-2.234678e+01
1.596252e+02	-2.239612e+01
1.605472e+02	-2.244104e+01
1.614745e+02	-2.249314e+01
1.624072e+02	-2.254316e+01
1.633453e+02	-2.259048e+01
1.642887e+02	-2.264166e+01
1.652377e+02	-2.269217e+01
1.661921e+02	-2.274256e+01
1.671520e+02	-2.279160e+01
1.681175e+02	-2.283929e+01
1.690885e+02	-2.289087e+01
1.700651e+02	-2.294167e+01
1.710474e+02	-2.299351e+01
1.720354e+02	-2.304077e+01
1.730291e+02	-2.308915e+01
1.740285e+02	-2.314144e+01
1.750337e+02	-2.318997e+01
1.760446e+02	-2.324156e+01
1.770615e+02	-2.328968e+01
1.780842e+02	-2.333914e+01
1.791128e+02	-2.339069e+01
1.801473e+02	-2.343857e+01
1.811878e+02	-2.348503e+01
1.822344e+02	-2.353887e+01
1.832870e+02	-2.358694e+01
1.843456e+02	-2.363972e+01
1.854104e+02	-2.368896e+01
1.864813e+02	-2.373852e+01
1.875584e+02	-2.378795e+01
1.886418e+02	-2.383785e+01
1.897313e+02	-2.388702e+01
1.908272e+02	-2.393613e+01
1.919294e+02	-2.399068e+01
1.930380e+02	-2.403658e+01
1.941530e+02	-2.408829e+01
1.952744e+02	-2.413952e+01
1.964023e+02	-2.418618e+01
1.975367e+02	-2.423910e+01
1.986777e+02	-2.428678e+01
1.998252e+02	-2.433663e+01
2.009794e+02	-2.438859e+01
2.021403e+02	-2.443829e+01
2.033078e+02	-2.448633e+01
2.044821e+02	-2.453577e+01
2.056632e+02	-2.458819e+01
2.068511e+02	-2.463267e+01
2.080459e+02	-2.468486e+01
2.092475e+02	-2.473457e+01
2.104561e+02	-2.478639e+01
2.116717e+02	-2.483376e+01
2.128943e+02	-2.488629e+01
2.141240e+02	-2.493719e+01
2.153608e+02	-2.498590e+01
2.166047e+02	-2.503543e+01
2.178558e+02	-2.508615e+01
2.191141e+02	-2.513499e+01
2.203797e+02	-2.518381e+01
2.216526e+02	-2.523325e+01
2.229329e+02	-2.528475e+01
2.242205e+02	-2.533417e+01
2.255156e+02	-2.538652e+01
2.268182e+02	-2.543303e+01
2.281283e+02	-2.548194e+01
2.294459e+02	-2.553559e+01
2.307712e+02	-2.558404e+01
2.321041e+02	-2.563319e+01
2.334447e+02	-2.568262e+01
2.347931e+02	-2.573597e+01
2.361493e+02	-2.578454e+01
2.375133e+02	-2.583150e+01
2.388851e+02	-2.588380e+01
2.402649e+02	-2.593077e+01
2.416527e+02	-2.598557e+01
2.430484e+02	-2.603374e+01
2.444523e+02	-2.608292e+01
2.458642e+02	-2.613392e+01
2.472843e+02	-2.618365e+01
2.487126e+02	-2.623402e+01
2.501492e+02	-2.628167e+01
2.515940e+02	-2.633515e+01
2.530472e+02	-2.638231e+01
2.545088e+02	-2.643326e+01
2.559789e+02	-2.648085e+01
2.574574e+02	-2.653409e+01
2.589444e+02	-2.658053e+01
2.604401e+02	-2.663218e+01
2.619444e+02	-2.668172e+01
2.634574e+02	-2.673010e+01
2.649791e+02	-2.678216e+01
2.665096e+02	-2.683193e+01
2.680489e+02	-2.688224e+01
2.695972e+02	-2.692962e+01
2.711544e+02	-2.698411e+01
2.727205e+02	-2.703082e+01
2.742958e+02	-2.708422e+01
2.758801e+02	-2.713329e+01
2.774736e+02	-2.718453e+01
2.790762e+02	-2.723408e+01
2.806882e+02	-2.728187e+01
2.823094e+02	-2.733841e+01
2.839400e+02	-2.738558e+01
2.855800e+02	-2.743372e+01
2.872295e+02	-2.748083e+01
2.888886e+02	-2.753284e+01
2.905572e+02	-2.758016e+01
2.922354e+02	-2.763357e+01
2.939234e+02	-2.768220e+01
2.956211e+02	-2.773271e+01
2.973286e+02	-2.778112e+01
2.990459e+02	-2.783194e+01
3.007732e+02	-2.788122e+01
3.025104e+02	-2.793682e+01
3.042577e+02	-2.798264e+01
3.060151e+02	-2.803242e+01
3.077826e+02	-2.808368e+01
3.095604e+02	-2.813500e+01
3.113484e+02	-2.818365e+01
3.131467e+02	-2.823453e+01
3.149554e+02	-2.828091e+01
3.167746e+02	-2.833187e+01
3.186043e+02	-2.837812e+01
3.204445e+02	-2.843705e+01
3.222954e+02	-2.848003e+01
3.241570e+02	-2.853403e+01
3.260293e+02	-2.858217e+01
3.279124e+02	-2.863378e+01
3.298064e+02	-2.868549e+01
3.317114e+02	-2.873239e+01
3.336273e+02	-2.878488e+01
3.355544e+02	-2.883274e+01
3.374925e+02	-2.888359e+01
3.394418e+02	-2.893164e+01
3.414024e+02	-2.898386e+01
3.433744e+02	-2.903153e+01
3.453577e+02	-2.908735e+01
3.473525e+02	-2.912911e+01
3.493588e+02	-2.918388e+01
3.513766e+02	-2.923585e+01
3.534062e+02	-2.928838e+01
3.554474e+02	-2.933503e+01
3.575005e+02	-2.937936e+01
3.595654e+02	-2.943406e+01
3.616422e+02	-2.947986e+01
3.637311e+02	-2.953220e+01
3.658320e+02	-2.958641e+01
3.679450e+02	-2.962795e+01
3.700702e+02	-2.968310e+01
3.722077e+02	-2.973278e+01
3.743576e+02	-2.978642e+01
3.765199e+02	-2.983203e+01
3.786946e+02	-2.988386e+01
3.808820e+02	-2.993187e+01
3.830819e+02	-2.998399e+01
3.852946e+02	-3.003111e+01
3.875200e+02	-3.008567e+01
3.897583e+02	-3.013373e+01
3.920096e+02	-3.018575e+01
3.942738e+02	-3.023811e+01
3.965511e+02	-3.028312e+01
3.988416e+02	-3.033923e+01
4.011452e+02	-3.038159e+01
4.034622e+02	-3.043878e+01
4.057926e+02	-3.049006e+01
4.081365e+02	-3.053684e+01
4.104938e+02	-3.058863e+01
4.128648e+02	-3.063439e+01
4.152495e+02	-3.068733e+01
4.176480e+02	-3.074296e+01
4.200603e+02	-3.078424e+01
4.224866e+02	-3.083552e+01
4.249268e+02	-3.089207e+01
4.273812e+02	-3.093451e+01
4.298497e+02	-3.098591e+01
4.323325e+02	-3.103769e+01
4.348297e+02	-3.108730e+01
4.373412e+02	-3.114327e+01
4.398673e+02	-3.119044e+01
4.424079e+02	-3.123558e+01
4.449633e+02	-3.129264e+01
4.475334e+02	-3.134003e+01
4.501183e+02	-3.139767e+01
4.527182e+02	-3.143824e+01
4.553330e+02	-3.148927e+01
4.579630e+02	-3.154554e+01
4.606082e+02	-3.158984e+01
4.632687e+02	-3.163992e+01
4.659445e+02	-3.169383e+01
4.686358e+02	-3.174730e+01
4.713426e+02	-3.179544e+01
4.740650e+02	-3.184663e+01
4.768032e+02	-3.189063e+01
4.795572e+02	-3.194724e+01
4.823271e+02	-3.199062e+01
4.851130e+02	-3.203950e+01
4.879150e+02	-3.209504e+01
4.907332e+02	-3.214450e+01
4.935676e+02	-3.219472e+01
4.964185e+02	-3.224170e+01
4.992858e+02	-3.228595e+01
5.021696e+02	-3.233966e+01
5.050701e+02	-3.239128e+01
5.079874e+02	-3.244308e+01
5.109215e+02	-3.249263e+01
5.138726e+02	-3.254286e+01
5.168407e+02	-3.259182e+01
5.198259e+02	-3.264522e+01
5.228284e+02	-3.269076e+01
5.258482e+02	-3.275240e+01
5.288855e+02	-3.279978e+01
5.319403e+02	-3.284503e+01
5.350128e+02	-3.289339e+01
5.381030e+02	-3.294245e+01
5.412111e+02	-3.299987e+01
5.443371e+02	-3.305469e+01
5.474812e+02	-3.309363e+01
5.506434e+02	-3.314593e+01
5.538239e+02	-3.319259e+01
5.570228e+02	-3.325028e+01
5.602401e+02	-3.330472e+01
5.634760e+02	-3.334773e+01
5.667306e+02	-3.339448e+01
5.700040e+02	-3.344803e+01
5.732964e+02	-3.349749e+01
5.766077e+02	-3.355147e+01
5.799382e+02	-3.360076e+01
5.832879e+02	-3.365115e+01
5.866569e+02	-3.370736e+01
5.900454e+02	-3.375032e+01
5.934535e+02	-3.380047e+01
5.968813e+02	-3.385245e+01
6.003288e+02	-3.390139e+01
6.037963e+02	-3.395689e+01
6.072838e+02	-3.400254e+01
6.107914e+02	-3.405180e+01
6.143194e+02	-3.409955e+01
6.178676e+02	-3.414077e+01
6.214364e+02	-3.420729e+01
6.250258e+02	-3.425961e+01
6.286359e+02	-3.430282e+01
6.322669e+02	-3.435525e+01
6.359189e+02	-3.440210e+01
6.395919e+02	-3.446051e+01
6.432862e+02	-3.450468e+01
6.470017e+02	-3.456090e+01
6.507388e+02	-3.459857e+01
6.544974e+02	-3.465197e+01
6.582778e+02	-3.470006e+01
6.620800e+02	-3.475644e+01
6.659041e+02	-3.480724e+01
6.697504e+02	-3.486179e+01
6.736188e+02	-3.490952e+01
6.775096e+02	-3.495703e+01
6.814229e+02	-3.501538e+01
6.853587e+02	-3.506027e+01
6.893173e+02	-3.510899e+01
6.932988e+02	-3.516036e+01
6.973033e+02	-3.520335e+01
7.013309e+02	-3.525857e+01
