Frequency(Hz)	Magnitude(dB)
1.000000e+01	-2.243934e+00
1.005776e+01	-2.264335e+00
1.011585e+01	-2.284754e+00
1.017428e+01	-2.305138e+00
1.023305e+01	-2.325673e+00
1.029215e+01	-2.346553e+00
1.035160e+01	-2.367693e+00
1.041139e+01	-2.388802e+00
1.047153e+01	-2.409888e+00
1.053201e+01	-2.431296e+00
1.059284e+01	-2.452662e+00
1.065403e+01	-2.474522e+00
1.071556e+01	-2.496205e+00
1.077746e+01	-2.518314e+00
1.083971e+01	-2.540288e+00
1.090232e+01	-2.562554e+00
1.096529e+01	-2.584842e+00
1.102862e+01	-2.607194e+00
1.109232e+01	-2.630006e+00
1.115639e+01	-2.652716e+00
1.122083e+01	-2.675748e+00
1.128564e+01	-2.698882e+00
1.135083e+01	-2.722076e+00
1.141639e+01	-2.745495e+00
1.148233e+01	-2.768790e+00
1.154865e+01	-2.792473e+00
1.161536e+01	-2.816406e+00
1.168245e+01	-2.840490e+00
1.174992e+01	-2.864401e+00
1.181779e+01	-2.888388e+00
1.188605e+01	-2.912830e+00
1.195470e+01	-2.937285e+00
1.202375e+01	-2.962173e+00
1.209320e+01	-2.986826e+00
1.216305e+01	-3.011805e+00
1.223330e+01	-3.037049e+00
1.230396e+01	-3.062141e+00
1.237503e+01	-3.087792e+00
1.244651e+01	-3.112828e+00
1.251840e+01	-3.138773e+00
1.259070e+01	-3.164750e+00
1.266343e+01	-3.190481e+00
1.273657e+01	-3.216606e+00
1.281014e+01	-3.243027e+00
1.288413e+01	-3.269173e+00
1.295855e+01	-3.295576e+00
1.303339e+01	-3.322335e+00
1.310867e+01	-3.349194e+00
1.318439e+01	-3.376303e+00
1.326054e+01	-3.403362e+00
1.333713e+01	-3.430510e+00
1.341417e+01	-3.457943e+00
1.349165e+01	-3.485466e+00
1.356958e+01	-3.513405e+00
1.364795e+01	-3.541165e+00
1.372678e+01	-3.569105e+00
1.380607e+01	-3.597222e+00
1.388581e+01	-3.625524e+00
1.396602e+01	-3.653797e+00
1.404668e+01	-3.682219e+00
1.412782e+01	-3.711127e+00
1.420942e+01	-3.739749e+00
1.429149e+01	-3.768575e+00
1.437404e+01	-3.797707e+00
1.445706e+01	-3.827326e+00
1.454057e+01	-3.856373e+00
1.462455e+01	-3.885749e+00
1.470902e+01	-3.915406e+00
1.479398e+01	-3.945524e+00
1.487943e+01	-3.975026e+00
1.496537e+01	-4.005434e+00
1.505181e+01	-4.035432e+00
1.513875e+01	-4.065978e+00
1.522619e+01	-4.096072e+00
1.531414e+01	-4.126869e+00
1.540259e+01	-4.157901e+00
1.549156e+01	-4.188534e+00
1.558103e+01	-4.219392e+00
1.567103e+01	-4.250712e+00
1.576155e+01	-4.282088e+00
1.585258e+01	-4.313560e+00
1.594415e+01	-4.345031e+00
1.603624e+01	-4.376827e+00
1.612886e+01	-4.408553e+00
1.622202e+01	-4.440500e+00
1.631572e+01	-4.472672e+00
1.640996e+01	-4.505040e+00
1.650474e+01	-4.537418e+00
1.660008e+01	-4.569747e+00
1.669596e+01	-4.602458e+00
1.679239e+01	-4.635124e+00
1.688938e+01	-4.668103e+00
1.698694e+01	-4.701127e+00
1.708505e+01	-4.734120e+00
1.718373e+01	-4.767355e+00
1.728299e+01	-4.800965e+00
1.738281e+01	-4.834573e+00
1.748322e+01	-4.868167e+00
1.758420e+01	-4.901807e+00
1.768576e+01	-4.935860e+00
1.778792e+01	-4.969705e+00
1.789066e+01	-5.003757e+00
1.799399e+01	-5.038184e+00
1.809793e+01	-5.072726e+00
1.820246e+01	-5.107136e+00
1.830760e+01	-5.141359e+00
1.841334e+01	-5.176601e+00
1.851969e+01	-5.211245e+00
1.862666e+01	-5.246217e+00
1.873425e+01	-5.281766e+00
1.884246e+01	-5.316911e+00
1.895129e+01	-5.352309e+00
1.906075e+01	-5.387601e+00
1.917085e+01	-5.423342e+00
1.928158e+01	-5.458961e+00
1.939295e+01	-5.494827e+00
1.950496e+01	-5.530672e+00
1.961762e+01	-5.567008e+00
1.973093e+01	-5.603182e+00
1.984490e+01	-5.639555e+00
1.995952e+01	-5.675978e+00
2.007480e+01	-5.712560e+00
2.019076e+01	-5.749308e+00
2.030738e+01	-5.785884e+00
2.042467e+01	-5.822439e+00
2.054264e+01	-5.859680e+00
2.066130e+01	-5.896948e+00
2.078064e+01	-5.933992e+00
2.090066e+01	-5.971346e+00
2.102139e+01	-6.009125e+00
2.114280e+01	-6.046145e+00
2.126492e+01	-6.083932e+00
2.138775e+01	-6.121760e+00
2.151128e+01	-6.159759e+00
2.163553e+01	-6.197711e+00
2.176050e+01	-6.235937e+00
2.188619e+01	-6.273900e+00
2.201260e+01	-6.312000e+00
2.213974e+01	-6.350303e+00
2.226762e+01	-6.389110e+00
2.239624e+01	-6.427581e+00
2.252560e+01	-6.466123e+00
2.265571e+01	-6.505097e+00
2.278656e+01	-6.543807e+00
2.291818e+01	-6.582935e+00
2.305055e+01	-6.621739e+00
2.318369e+01	-6.661320e+00
2.331760e+01	-6.701032e+00
2.345228e+01	-6.739738e+00
2.358774e+01	-6.779187e+00
2.372398e+01	-6.818988e+00
2.386101e+01	-6.858268e+00
2.399883e+01	-6.898474e+00
2.413745e+01	-6.938394e+00
2.427686e+01	-6.977782e+00
2.441709e+01	-7.018097e+00
2.455812e+01	-7.058562e+00
2.469997e+01	-7.098812e+00
2.484263e+01	-7.138641e+00
2.498612e+01	-7.179325e+00
2.513044e+01	-7.219698e+00
2.527559e+01	-7.260338e+00
2.542158e+01	-7.300770e+00
2.556842e+01	-7.341671e+00
2.571610e+01	-7.382648e+00
2.586463e+01	-7.423620e+00
2.601403e+01	-7.464560e+00
2.616428e+01	-7.505590e+00
2.631541e+01	-7.546964e+00
2.646740e+01	-7.588142e+00
2.662028e+01	-7.629520e+00
2.677404e+01	-7.671018e+00
2.692868e+01	-7.712703e+00
2.708422e+01	-7.753935e+00
2.724066e+01	-7.795679e+00
2.739800e+01	-7.837608e+00
2.755625e+01	-7.879226e+00
2.771541e+01	-7.921081e+00
2.787550e+01	-7.963211e+00
2.803650e+01	-8.005464e+00
2.819844e+01	-8.047355e+00
2.836131e+01	-8.089618e+00
2.852513e+01	-8.131885e+00
2.868989e+01	-8.174208e+00
2.885560e+01	-8.217143e+00
2.902227e+01	-8.259037e+00
2.918990e+01	-8.301912e+00
2.935850e+01	-8.344437e+00
2.952807e+01	-8.387085e+00
2.969863e+01	-8.430385e+00
2.987016e+01	-8.472949e+00
3.004269e+01	-8.515857e+00
3.021622e+01	-8.558834e+00
3.039075e+01	-8.601830e+00
3.056628e+01	-8.645165e+00
3.074283e+01	-8.688195e+00
3.092040e+01	-8.731381e+00
3.109900e+01	-8.774634e+00
3.127862e+01	-8.818924e+00
3.145929e+01	-8.862049e+00
3.164099e+01	-8.905490e+00
3.182375e+01	-8.948870e+00
3.200756e+01	-8.992882e+00
3.219244e+01	-9.036746e+00
3.237838e+01	-9.080186e+00
3.256540e+01	-9.124380e+00
3.275349e+01	-9.168384e+00
3.294268e+01	-9.212364e+00
3.313295e+01	-9.255881e+00
3.332433e+01	-9.300385e+00
3.351681e+01	-9.344616e+00
3.371040e+01	-9.388415e+00
3.390511e+01	-9.432768e+00
3.410094e+01	-9.477546e+00
3.429791e+01	-9.521968e+00
3.449601e+01	-9.565835e+00
3.469526e+01	-9.610733e+00
3.489566e+01	-9.655893e+00
3.509721e+01	-9.699968e+00
3.529993e+01	-9.744660e+00
3.550382e+01	-9.789354e+00
3.570889e+01	-9.833494e+00
3.591515e+01	-9.879033e+00
3.612259e+01	-9.924042e+00
3.633123e+01	-9.968804e+00
3.654108e+01	-1.001399e+01
3.675214e+01	-1.005878e+01
3.696442e+01	-1.010465e+01
3.717792e+01	-1.014956e+01
3.739266e+01	-1.019441e+01
3.760864e+01	-1.023984e+01
3.782587e+01	-1.028515e+01
3.804435e+01	-1.033047e+01
3.826409e+01	-1.037574e+01
3.848510e+01	-1.042149e+01
3.870739e+01	-1.046709e+01
3.893096e+01	-1.051230e+01
3.915583e+01	-1.055822e+01
3.938199e+01	-1.060391e+01
3.960946e+01	-1.064939e+01
3.983824e+01	-1.069540e+01
4.006834e+01	-1.074119e+01
4.029978e+01	-1.078701e+01
4.053255e+01	-1.083242e+01
4.076666e+01	-1.087937e+01
4.100213e+01	-1.092424e+01
4.123896e+01	-1.097035e+01
4.147715e+01	-1.101618e+01
4.171672e+01	-1.106261e+01
4.195767e+01	-1.110899e+01
4.220002e+01	-1.115506e+01
4.244377e+01	-1.120152e+01
4.268892e+01	-1.124767e+01
4.293549e+01	-1.129429e+01
4.318348e+01	-1.134018e+01
4.343291e+01	-1.138637e+01
4.368377e+01	-1.143296e+01
4.393609e+01	-1.147957e+01
4.418986e+01	-1.152548e+01
4.444510e+01	-1.157266e+01
4.470182e+01	-1.161912e+01
4.496001e+01	-1.166555e+01
4.521970e+01	-1.171165e+01
4.548089e+01	-1.175853e+01
4.574358e+01	-1.180567e+01
4.600779e+01	-1.185238e+01
4.627353e+01	-1.189924e+01
4.654081e+01	-1.194620e+01
4.680963e+01	-1.199207e+01
4.708000e+01	-1.203975e+01
4.735193e+01	-1.208702e+01
4.762543e+01	-1.213353e+01
4.790051e+01	-1.218008e+01
4.817719e+01	-1.222749e+01
4.845545e+01	-1.227441e+01
4.873533e+01	-1.232180e+01
4.901682e+01	-1.236862e+01
4.929994e+01	-1.241599e+01
4.958470e+01	-1.246341e+01
4.987110e+01	-1.251070e+01
5.015915e+01	-1.255736e+01
5.044887e+01	-1.260471e+01
5.074026e+01	-1.265210e+01
5.103333e+01	-1.269950e+01
5.132810e+01	-1.274711e+01
5.162457e+01	-1.279433e+01
5.192275e+01	-1.284152e+01
5.222265e+01	-1.288890e+01
5.252429e+01	-1.293625e+01
5.282767e+01	-1.298430e+01
5.313280e+01	-1.303071e+01
5.343969e+01	-1.307945e+01
5.374836e+01	-1.312620e+01
5.405880e+01	-1.317456e+01
5.437105e+01	-1.322204e+01
5.468509e+01	-1.326975e+01
5.500095e+01	-1.331797e+01
5.531863e+01	-1.336506e+01
5.563815e+01	-1.341220e+01
5.595951e+01	-1.346039e+01
5.628273e+01	-1.350828e+01
5.660782e+01	-1.355603e+01
5.693479e+01	-1.360371e+01
5.726364e+01	-1.365167e+01
5.759439e+01	-1.369982e+01
5.792705e+01	-1.374757e+01
5.826164e+01	-1.379567e+01
5.859815e+01	-1.384282e+01
5.893662e+01	-1.389134e+01
5.927703e+01	-1.393909e+01
5.961941e+01	-1.398774e+01
5.996377e+01	-1.403552e+01
6.031012e+01	-1.408400e+01
6.065847e+01	-1.413126e+01
6.100883e+01	-1.417961e+01
6.136121e+01	-1.422714e+01
6.171563e+01	-1.427594e+01
6.207210e+01	-1.432418e+01
6.243063e+01	-1.437240e+01
6.279122e+01	-1.442048e+01
6.315390e+01	-1.446907e+01
6.351868e+01	-1.451587e+01
6.388556e+01	-1.456511e+01
6.425456e+01	-1.461370e+01
6.462569e+01	-1.466173e+01
6.499897e+01	-1.470952e+01
6.537440e+01	-1.475879e+01
6.575200e+01	-1.480730e+01
6.613178e+01	-1.485455e+01
6.651375e+01	-1.490312e+01
6.689793e+01	-1.495137e+01
6.728433e+01	-1.500092e+01
6.767297e+01	-1.504879e+01
6.806384e+01	-1.509715e+01
6.845698e+01	-1.514646e+01
6.885238e+01	-1.519528e+01
6.925007e+01	-1.524289e+01
6.965005e+01	-1.529077e+01
7.005235e+01	-1.533975e+01
7.045697e+01	-1.538735e+01
7.086393e+01	-1.543717e+01
7.127323e+01	-1.548570e+01
7.168490e+01	-1.553412e+01
7.209895e+01	-1.558328e+01
7.251539e+01	-1.563184e+01
7.293424e+01	-1.568070e+01
7.335551e+01	-1.572827e+01
7.377920e+01	-1.577831e+01
7.420535e+01	-1.582681e+01
7.463396e+01	-1.587517e+01
7.506504e+01	-1.592446e+01
7.549861e+01	-1.597325e+01
7.593469e+01	-1.602162e+01
7.637328e+01	-1.607057e+01
7.681441e+01	-1.611902e+01
7.725809e+01	-1.616808e+01
7.770433e+01	-1.621769e+01
7.815315e+01	-1.626488e+01
7.860456e+01	-1.631473e+01
7.905857e+01	-1.636319e+01
7.951521e+01	-1.641235e+01
7.997449e+01	-1.646084e+01
8.043642e+01	-1.650998e+01
8.090102e+01	-1.655904e+01
8.136830e+01	-1.660816e+01
8.183828e+01	-1.665608e+01
8.231097e+01	-1.670665e+01
8.278640e+01	-1.675501e+01
8.326457e+01	-1.680381e+01
8.374550e+01	-1.685353e+01
8.422921e+01	-1.690123e+01
8.471572e+01	-1.695050e+01
8.520503e+01	-1.699971e+01
8.569717e+01	-1.704725e+01
8.619215e+01	-1.709763e+01
8.669000e+01	-1.714615e+01
8.719071e+01	-1.719661e+01
8.769432e+01	-1.724487e+01
8.820084e+01	-1.729415e+01
8.871029e+01	-1.734259e+01
8.922267e+01	-1.739155e+01
8.973802e+01	-1.744126e+01
9.025634e+01	-1.748885e+01
9.077766e+01	-1.753884e+01
9.130199e+01	-1.758980e+01
9.182935e+01	-1.763925e+01
9.235975e+01	-1.768724e+01
9.289321e+01	-1.773536e+01
9.342976e+01	-1.778500e+01
9.396941e+01	-1.783486e+01
9.451217e+01	-1.788403e+01
9.505807e+01	-1.793359e+01
9.560712e+01	-1.798279e+01
9.615934e+01	-1.803118e+01
9.671476e+01	-1.808129e+01
9.727338e+01	-1.812972e+01
9.783522e+01	-1.817999e+01
9.840032e+01	-1.822944e+01
9.896867e+01	-1.827839e+01
9.954031e+01	-1.832693e+01
1.001153e+02	-1.837719e+01
1.006935e+02	-1.842479e+01
1.012751e+02	-1.847467e+01
1.018601e+02	-1.852518e+01
1.024484e+02	-1.857530e+01
1.030402e+02	-1.862342e+01
1.036353e+02	-1.867305e+01
1.042339e+02	-1.872236e+01
1.048360e+02	-1.877346e+01
1.054415e+02	-1.881989e+01
1.060505e+02	-1.886839e+01
1.066631e+02	-1.892108e+01
1.072791e+02	-1.896812e+01
1.078988e+02	-1.901851e+01
1.085220e+02	-1.906764e+01
1.091488e+02	-1.911634e+01
1.097793e+02	-1.916770e+01
1.104133e+02	-1.921679e+01
1.110511e+02	-1.926686e+01
1.116925e+02	-1.931647e+01
1.123376e+02	-1.936556e+01
1.129865e+02	-1.941449e+01
1.136391e+02	-1.946352e+01
1.142955e+02	-1.951280e+01
1.149556e+02	-1.956197e+01
1.156196e+02	-1.961272e+01
1.162874e+02	-1.966137e+01
1.169591e+02	-1.971050e+01
1.176347e+02	-1.976024e+01
1.183141e+02	-1.981040e+01
1.189975e+02	-1.985990e+01
1.196848e+02	-1.990890e+01
1.203761e+02	-1.995632e+01
1.210714e+02	-2.000901e+01
1.217707e+02	-2.005684e+01
1.224740e+02	-2.010598e+01
1.231814e+02	-2.015562e+01
1.238929e+02	-2.020458e+01
1.246085e+02	-2.025519e+01
1.253283e+02	-2.030555e+01
1.260522e+02	-2.035620e+01
1.267802e+02	-2.040428e+01
1.275125e+02	-2.045290e+01
1.282490e+02	-2.050335e+01
1.289898e+02	-2.055214e+01
1.297348e+02	-2.060276e+01
1.304842e+02	-2.064995e+01
1.312378e+02	-2.070052e+01
1.319959e+02	-2.075028e+01
1.327583e+02	-2.080153e+01
1.335251e+02	-2.085021e+01
1.342963e+02	-2.090053e+01
1.350720e+02	-2.094968e+01
1.358522e+02	-2.099797e+01
1.366368e+02	-2.105026e+01
1.374260e+02	-2.110036e+01
1.382198e+02	-2.114926e+01
1.390182e+02	-2.119815e+01
1.398211e+02	-2.124811e+01
1.406287e+02	-2.129894e+01
1.414410e+02	-2.134646e+01
1.422579e+02	-2.139815e+01
1.430796e+02	-2.144747e+01
1.439060e+02	-2.149677e+01
1.447372e+02	-2.154560e+01
1.455732e+02	-2.159589e+01
1.464141e+02	-2.164672e+01
1.472597e+02	-2.169514e+01
1.481103e+02	-2.174682e+01
1.489658e+02	-2.179424e+01
1.498262e+02	-2.184475e+01
1.506916e+02	-2.189357e+01
1.515620e+02	-2.194332e+01
1.524374e+02	-2.199368e+01
1.533179e+02	-2.204148e+01
1.542034e+02	-2.209253e+01
1.550941e+02	-2.214172e+01
1.559899e+02	-2.219274e+01
1.568909e+02	-2.224231e+01
1.577971e+02	-2.229130e+01
1.587085e+02	-2.234197e+01
1.596252e+02	-2.239038e+01
1.605472e+02	-2.244066e+01
1.614745e+02	-2.248975e+01
1.624072e+02	-2.254033e+01
1.633453e+02	-2.258992e+01
1.642887e+02	-2.263885e+01
1.652377e+02	-2.268984e+01
1.661921e+02	-2.274091e+01
1.671520e+02	-2.279034e+01
1.681175e+02	-2.283902e+01
1.690885e+02	-2.288940e+01
1.700651e+02	-2.293792e+01
1.710474e+02	-2.298975e+01
1.720354e+02	-2.303830e+01
1.730291e+02	-2.308826e+01
1.740285e+02	-2.313814e+01
1.750337e+02	-2.318738e+01
1.760446e+02	-2.323695e+01
1.770615e+02	-2.328724e+01
1.780842e+02	-2.333897e+01
1.791128e+02	-2.338857e+01
1.801473e+02	-2.343690e+01
1.811878e+02	-2.348585e+01
1.822344e+02	-2.353717e+01
1.832870e+02	-2.358624e+01
1.843456e+02	-2.363530e+01
1.854104e+02	-2.368505e+01
1.864813e+02	-2.373579e+01
1.875584e+02	-2.378409e+01
1.886418e+02	-2.383531e+01
1.897313e+02	-2.388831e+01
1.908272e+02	-2.393547e+01
1.919294e+02	-2.398583e+01
1.930380e+02	-2.403707e+01
1.941530e+02	-2.408522e+01
1.952744e+02	-2.413443e+01
1.964023e+02	-2.418340e+01
1.975367e+02	-2.423370e+01
1.986777e+02	-2.428339e+01
1.998252e+02	-2.433239e+01
2.009794e+02	-2.438575e+01
2.021403e+02	-2.443333e+01
2.033078e+02	-2.448248e+01
2.044821e+02	-2.453126e+01
2.056632e+02	-2.458648e+01
2.068511e+02	-2.463450e+01
2.080459e+02	-2.468541e+01
2.092475e+02	-2.473715e+01
2.104561e+02	-2.478230e+01
2.116717e+02	-2.483194e+01
2.128943e+02	-2.488283e+01
2.141240e+02	-2.493087e+01
2.153608e+02	-2.498093e+01
2.166047e+02	-2.503170e+01
2.178558e+02	-2.508262e+01
2.191141e+02	-2.513045e+01
2.203797e+02	-2.518570e+01
2.216526e+02	-2.523411e+01
2.229329e+02	-2.528311e+01
2.242205e+02	-2.533447e+01
2.255156e+02	-2.538340e+01
2.268182e+02	-2.543457e+01
2.281283e+02	-2.548421e+01
2.294459e+02	-2.553168e+01
2.307712e+02	-2.558343e+01
2.321041e+02	-2.563244e+01
2.334447e+02	-2.568156e+01
2.347931e+02	-2.572697e+01
2.361493e+02	-2.578120e+01
2.375133e+02	-2.583135e+01
2.388851e+02	-2.588036e+01
2.402649e+02	-2.593210e+01
2.416527e+02	-2.597877e+01
2.430484e+02	-2.603224e+01
2.444523e+02	-2.608050e+01
2.458642e+02	-2.612843e+01
2.472843e+02	-2.618407e+01
2.487126e+02	-2.623227e+01
2.501492e+02	-2.628010e+01
2.515940e+02	-2.633114e+01
2.530472e+02	-2.638246e+01
2.545088e+02	-2.643318e+01
2.559789e+02	-2.648010e+01
2.574574e+02	-2.653367e+01
2.589444e+02	-2.658074e+01
2.604401e+02	-2.663337e+01
2.619444e+02	-2.668262e+01
2.634574e+02	-2.672766e+01
2.649791e+02	-2.678271e+01
2.665096e+02	-2.683001e+01
2.680489e+02	-2.687852e+01
2.695972e+02	-2.693242e+01
2.711544e+02	-2.697732e+01
2.727205e+02	-2.703156e+01
2.742958e+02	-2.708066e+01
2.758801e+02	-2.712889e+01
2.774736e+02	-2.717893e+01
2.790762e+02	-2.723089e+01
2.806882e+02	-2.728191e+01
2.823094e+02	-2.733083e+01
2.839400e+02	-2.738289e+01
2.855800e+02	-2.743154e+01
2.872295e+02	-2.748072e+01
2.888886e+02	-2.753006e+01
2.905572e+02	-2.758018e+01
2.922354e+02	-2.763140e+01
2.939234e+02	-2.768092e+01
2.956211e+02	-2.773340e+01
2.973286e+02	-2.778189e+01
2.990459e+02	-2.782960e+01
3.007732e+02	-2.788411e+01
3.025104e+02	-2.793210e+01
3.042577e+02	-2.798062e+01
3.060151e+02	-2.803381e+01
3.077826e+02	-2.808155e+01
3.095604e+02	-2.813008e+01
3.113484e+02	-2.818285e+01
3.131467e+02	-2.823235e+01
3.149554e+02	-2.828221e+01
3.167746e+02	-2.833139e+01
3.186043e+02	-2.838447e+01
3.204445e+02	-2.842774e+01
3.222954e+02	-2.848397e+01
3.241570e+02	-2.853301e+01
3.260293e+02	-2.858517e+01
3.279124e+02	-2.862925e+01
3.298064e+02	-2.868015e+01
3.317114e+02	-2.872733e+01
3.336273e+02	-2.878228e+01
3.355544e+02	-2.882777e+01
3.374925e+02	-2.888188e+01
3.394418e+02	-2.892985e+01
3.414024e+02	-2.898164e+01
3.433744e+02	-2.903268e+01
3.453577e+02	-2.908145e+01
3.473525e+02	-2.913221e+01
3.493588e+02	-2.918425e+01
3.513766e+02	-2.922330e+01
3.534062e+02	-2.928136e+01
3.554474e+02	-2.933193e+01
3.575005e+02	-2.938168e+01
3.595654e+02	-2.943336e+01
3.616422e+02	-2.948608e+01
3.637311e+02	-2.953277e+01
3.658320e+02	-2.957898e+01
3.679450e+02	-2.964042e+01
3.700702e+02	-2.968344e+01
3.722077e+02	-2.973443e+01
3.743576e+02	-2.977739e+01
3.765199e+02	-2.982949e+01
3.786946e+02	-2.988635e+01
3.808820e+02	-2.993479e+01
3.830819e+02	-2.998444e+01
3.852946e+02	-3.003546e+01
3.875200e+02	-3.008264e+01
3.897583e+02	-3.013407e+01
3.920096e+02	-3.018507e+01
3.942738e+02	-3.023884e+01
3.965511e+02	-3.028336e+01
3.988416e+02	-3.033643e+01
4.011452e+02	-3.038089e+01
4.034622e+02	-3.043729e+01
4.057926e+02	-3.048132e+01
4.081365e+02	-3.053599e+01
4.104938e+02	-3.058614e+01
4.128648e+02	-3.063159e+01
4.152495e+02	-3.068604e+01
4.176480e+02	-3.073040e+01
4.200603e+02	-3.078379e+01
4.224866e+02	-3.083552e+01
4.249268e+02	-3.088619e+01
4.273812e+02	-3.093478e+01
4.298497e+02	-3.098641e+01
4.323325e+02	-3.103987e+01
4.348297e+02	-3.107990e+01
4.373412e+02	-3.113064e+01
4.398673e+02	-3.118918e+01
4.424079e+02	-3.123364e+01
4.449633e+02	-3.128776e+01
4.475334e+02	-3.133738e+01
4.501183e+02	-3.139281e+01
4.527182e+02	-3.143795e+01
4.553330e+02	-3.148749e+01
4.579630e+02	-3.153610e+01
4.606082e+02	-3.158627e+01
4.632687e+02	-3.164616e+01
4.659445e+02	-3.168651e+01
4.686358e+02	-3.174201e+01
4.713426e+02	-3.178723e+01
4.740650e+02	-3.184013e+01
4.768032e+02	-3.188874e+01
4.795572e+02	-3.193935e+01
4.823271e+02	-3.199295e+01
4.851130e+02	-3.204136e+01
4.879150e+02	-3.209069e+01
4.907332e+02	-3.214723e+01
4.935676e+02	-3.218403e+01
4.964185e+02	-3.223994e+01
4.992858e+02	-3.228300e+01
5.021696e+02	-3.233228e+01
5.050701e+02	-3.238929e+01
5.079874e+02	-3.244135e+01
5.109215e+02	-3.248951e+01
5.138726e+02	-3.254366e+01
5.168407e+02	-3.259474e+01
5.198259e+02	-3.264815e+01
5.228284e+02	-3.269173e+01
5.258482e+02	-3.274690e+01
5.288855e+02	-3.279043e+01
5.319403e+02	-3.283930e+01
5.350128e+02	-3.289392e+01
5.381030e+02	-3.293930e+01
5.412111e+02	-3.299447e+01
5.443371e+02	-3.304209e+01
5.474812e+02	-3.309835e+01
5.506434e+02	-3.314924e+01
5.538239e+02	-3.319386e+01
5.570228e+02	-3.325134e+01
5.602401e+02	-3.328925e+01
5.634760e+02	-3.334371e+01
5.667306e+02	-3.340086e+01
5.700040e+02	-3.344829e+01
5.732964e+02	-3.349362e+01
5.766077e+02	-3.354908e+01
5.799382e+02	-3.359670e+01
5.832879e+02	-3.364935e+01
5.866569e+02	-3.370386e+01
5.900454e+02	-3.374545e+01
5.934535e+02	-3.379522e+01
5.968813e+02	-3.383892e+01
6.003288e+02	-3.390147e+01
6.037963e+02	-3.395041e+01
6.072838e+02	-3.399746e+01
6.107914e+02	-3.404976e+01
6.143194e+02	-3.409688e+01
6.178676e+02	-3.414601e+01
6.214364e+02	-3.420435e+01
6.250258e+02	-3.425320e+01
6.286359e+02	-3.430834e+01
6.322669e+02	-3.436228e+01
6.359189e+02	-3.439902e+01
6.395919e+02	-3.444920e+01
6.432862e+02	-3.450813e+01
6.470017e+02	-3.455280e+01
6.507388e+02	-3.460257e+01
6.544974e+02	-3.466029e+01
6.582778e+02	-3.470504e+01
6.620800e+02	-3.475707e+01
6.659041e+02	-3.479858e+01
6.697504e+02	-3.485998e+01
6.736188e+02	-3.491055e+01
6.775096e+02	-3.496196e+01
6.814229e+02	-3.501214e+01
6.853587e+02	-3.506202e+01
6.893173e+02	-3.510834e+01
6.932988e+02	-3.516293e+01
6.973033e+02	-3.520580e+01
7.013309e+02	-3.526152e+01
