Frequency(Hz)	Magnitude(dB)
1.000000e+01	-2.141563e+00
1.005776e+01	-2.161271e+00
1.011585e+01	-2.180792e+00
1.017428e+01	-2.200547e+00
1.023305e+01	-2.220698e+00
1.029215e+01	-2.240782e+00
1.035160e+01	-2.260918e+00
1.041139e+01	-2.281219e+00
1.047153e+01	-2.301766e+00
1.053201e+01	-2.322428e+00
1.059284e+01	-2.343276e+00
1.065403e+01	-2.364156e+00
1.071556e+01	-2.385280e+00
1.077746e+01	-2.406367e+00
1.083971e+01	-2.427880e+00
1.090232e+01	-2.449334e+00
1.096529e+01	-2.471120e+00
1.102862e+01	-2.492774e+00
1.109232e+01	-2.514507e+00
1.115639e+01	-2.536437e+00
1.122083e+01	-2.558849e+00
1.128564e+01	-2.581019e+00
1.135083e+01	-2.603788e+00
1.141639e+01	-2.626317e+00
1.148233e+01	-2.649275e+00
1.154865e+01	-2.672142e+00
1.161536e+01	-2.695008e+00
1.168245e+01	-2.718471e+00
1.174992e+01	-2.741656e+00
1.181779e+01	-2.765278e+00
1.188605e+01	-2.788768e+00
1.195470e+01	-2.812483e+00
1.202375e+01	-2.836543e+00
1.209320e+01	-2.860312e+00
1.216305e+01	-2.884798e+00
1.223330e+01	-2.909194e+00
1.230396e+01	-2.933396e+00
1.237503e+01	-2.958191e+00
1.244651e+01	-2.982910e+00
1.251840e+01	-3.007845e+00
1.259070e+01	-3.033069e+00
1.266343e+01	-3.058209e+00
1.273657e+01	-3.083416e+00
1.281014e+01	-3.109247e+00
1.288413e+01	-3.134573e+00
1.295855e+01	-3.160409e+00
1.303339e+01	-3.186506e+00
1.310867e+01	-3.212634e+00
1.318439e+01	-3.238570e+00
1.326054e+01	-3.264952e+00
1.333713e+01	-3.291801e+00
1.341417e+01	-3.318485e+00
1.349165e+01	-3.345021e+00
1.356958e+01	-3.372020e+00
1.364795e+01	-3.399195e+00
1.372678e+01	-3.426165e+00
1.380607e+01	-3.453814e+00
1.388581e+01	-3.481262e+00
1.396602e+01	-3.508874e+00
1.404668e+01	-3.536528e+00
1.412782e+01	-3.564460e+00
1.420942e+01	-3.592695e+00
1.429149e+01	-3.620801e+00
1.437404e+01	-3.649164e+00
1.445706e+01	-3.678069e+00
1.454057e+01	-3.706251e+00
1.462455e+01	-3.735315e+00
1.470902e+01	-3.764082e+00
1.479398e+01	-3.793133e+00
1.487943e+01	-3.822307e+00
1.496537e+01	-3.851460e+00
1.505181e+01	-3.881371e+00
1.513875e+01	-3.910820e+00
1.522619e+01	-3.940787e+00
1.531414e+01	-3.970589e+00
1.540259e+01	-4.000503e+00
1.549156e+01	-4.030964e+00
1.558103e+01	-4.061161e+00
1.567103e+01	-4.091662e+00
1.576155e+01	-4.122194e+00
1.585258e+01	-4.152856e+00
1.594415e+01	-4.183632e+00
1.603624e+01	-4.214575e+00
1.612886e+01	-4.245802e+00
1.622202e+01	-4.277225e+00
1.631572e+01	-4.308569e+00
1.640996e+01	-4.339722e+00
1.650474e+01	-4.371618e+00
1.660008e+01	-4.403561e+00
1.669596e+01	-4.435373e+00
1.679239e+01	-4.467560e+00
1.688938e+01	-4.499907e+00
1.698694e+01	-4.532196e+00
1.708505e+01	-4.564666e+00
1.718373e+01	-4.597283e+00
1.728299e+01	-4.629966e+00
1.738281e+01	-4.663014e+00
1.748322e+01	-4.695845e+00
1.758420e+01	-4.729094e+00
1.768576e+01	-4.762195e+00
1.778792e+01	-4.795523e+00
1.789066e+01	-4.829254e+00
1.799399e+01	-4.862382e+00
1.809793e+01	-4.896376e+00
1.820246e+01	-4.930251e+00
1.830760e+01	-4.964499e+00
1.841334e+01	-4.998749e+00
1.851969e+01	-5.032749e+00
1.862666e+01	-5.067069e+00
1.873425e+01	-5.101600e+00
1.884246e+01	-5.136694e+00
1.895129e+01	-5.170995e+00
1.906075e+01	-5.205901e+00
1.917085e+01	-5.241181e+00
1.928158e+01	-5.276116e+00
1.939295e+01	-5.311213e+00
1.950496e+01	-5.346829e+00
1.961762e+01	-5.382057e+00
1.973093e+01	-5.417549e+00
1.984490e+01	-5.453366e+00
1.995952e+01	-5.489538e+00
2.007480e+01	-5.525343e+00
2.019076e+01	-5.561217e+00
2.030738e+01	-5.597340e+00
2.042467e+01	-5.633626e+00
2.054264e+01	-5.670400e+00
2.066130e+01	-5.706829e+00
2.078064e+01	-5.743245e+00
2.090066e+01	-5.780141e+00
2.102139e+01	-5.816955e+00
2.114280e+01	-5.854066e+00
2.126492e+01	-5.891144e+00
2.138775e+01	-5.928335e+00
2.151128e+01	-5.965815e+00
2.163553e+01	-6.002949e+00
2.176050e+01	-6.040459e+00
2.188619e+01	-6.077903e+00
2.201260e+01	-6.115929e+00
2.213974e+01	-6.153596e+00
2.226762e+01	-6.191314e+00
2.239624e+01	-6.229619e+00
2.252560e+01	-6.268185e+00
2.265571e+01	-6.306254e+00
2.278656e+01	-6.344302e+00
2.291818e+01	-6.382741e+00
2.305055e+01	-6.421418e+00
2.318369e+01	-6.460107e+00
2.331760e+01	-6.499064e+00
2.345228e+01	-6.537898e+00
2.358774e+01	-6.576948e+00
2.372398e+01	-6.616057e+00
2.386101e+01	-6.655102e+00
2.399883e+01	-6.694258e+00
2.413745e+01	-6.733664e+00
2.427686e+01	-6.773023e+00
2.441709e+01	-6.812439e+00
2.455812e+01	-6.852149e+00
2.469997e+01	-6.891802e+00
2.484263e+01	-6.932092e+00
2.498612e+01	-6.971744e+00
2.513044e+01	-7.011979e+00
2.527559e+01	-7.051594e+00
2.542158e+01	-7.092001e+00
2.556842e+01	-7.132448e+00
2.571610e+01	-7.173010e+00
2.586463e+01	-7.213407e+00
2.601403e+01	-7.253795e+00
2.616428e+01	-7.294353e+00
2.631541e+01	-7.335319e+00
2.646740e+01	-7.376304e+00
2.662028e+01	-7.416907e+00
2.677404e+01	-7.457939e+00
2.692868e+01	-7.499039e+00
2.708422e+01	-7.540419e+00
2.724066e+01	-7.581408e+00
2.739800e+01	-7.623162e+00
2.755625e+01	-7.664207e+00
2.771541e+01	-7.705880e+00
2.787550e+01	-7.746924e+00
2.803650e+01	-7.789028e+00
2.819844e+01	-7.830835e+00
2.836131e+01	-7.872613e+00
2.852513e+01	-7.914605e+00
2.868989e+01	-7.956557e+00
2.885560e+01	-7.998262e+00
2.902227e+01	-8.040790e+00
2.918990e+01	-8.083030e+00
2.935850e+01	-8.125053e+00
2.952807e+01	-8.167489e+00
2.969863e+01	-8.209783e+00
2.987016e+01	-8.252768e+00
3.004269e+01	-8.295426e+00
3.021622e+01	-8.337534e+00
3.039075e+01	-8.380279e+00
3.056628e+01	-8.423195e+00
3.074283e+01	-8.466386e+00
3.092040e+01	-8.509251e+00
3.109900e+01	-8.552177e+00
3.127862e+01	-8.595267e+00
3.145929e+01	-8.638427e+00
3.164099e+01	-8.681511e+00
3.182375e+01	-8.724621e+00
3.200756e+01	-8.768102e+00
3.219244e+01	-8.811643e+00
3.237838e+01	-8.854843e+00
3.256540e+01	-8.898439e+00
3.275349e+01	-8.942595e+00
3.294268e+01	-8.985365e+00
3.313295e+01	-9.029651e+00
3.332433e+01	-9.073434e+00
3.351681e+01	-9.117215e+00
3.371040e+01	-9.161270e+00
3.390511e+01	-9.205050e+00
3.410094e+01	-9.249519e+00
3.429791e+01	-9.293572e+00
3.449601e+01	-9.337568e+00
3.469526e+01	-9.381965e+00
3.489566e+01	-9.425777e+00
3.509721e+01	-9.470304e+00
3.529993e+01	-9.514986e+00
3.550382e+01	-9.559452e+00
3.570889e+01	-9.604033e+00
3.591515e+01	-9.647986e+00
3.612259e+01	-9.693103e+00
3.633123e+01	-9.737652e+00
3.654108e+01	-9.781972e+00
3.675214e+01	-9.826997e+00
3.696442e+01	-9.872311e+00
3.717792e+01	-9.916962e+00
3.739266e+01	-9.961911e+00
3.760864e+01	-1.000740e+01
3.782587e+01	-1.005172e+01
3.804435e+01	-1.009692e+01
3.826409e+01	-1.014201e+01
3.848510e+01	-1.018805e+01
3.870739e+01	-1.023235e+01
3.893096e+01	-1.027823e+01
3.915583e+01	-1.032317e+01
3.938199e+01	-1.036847e+01
3.960946e+01	-1.041427e+01
3.983824e+01	-1.045979e+01
4.006834e+01	-1.050544e+01
4.029978e+01	-1.055065e+01
4.053255e+01	-1.059599e+01
4.076666e+01	-1.064209e+01
4.100213e+01	-1.068795e+01
4.123896e+01	-1.073303e+01
4.147715e+01	-1.077944e+01
4.171672e+01	-1.082524e+01
4.195767e+01	-1.087141e+01
4.220002e+01	-1.091693e+01
4.244377e+01	-1.096346e+01
4.268892e+01	-1.100935e+01
4.293549e+01	-1.105532e+01
4.318348e+01	-1.110112e+01
4.343291e+01	-1.114808e+01
4.368377e+01	-1.119394e+01
4.393609e+01	-1.123993e+01
4.418986e+01	-1.128640e+01
4.444510e+01	-1.133281e+01
4.470182e+01	-1.137900e+01
4.496001e+01	-1.142554e+01
4.521970e+01	-1.147151e+01
4.548089e+01	-1.151789e+01
4.574358e+01	-1.156502e+01
4.600779e+01	-1.161118e+01
4.627353e+01	-1.165851e+01
4.654081e+01	-1.170476e+01
4.680963e+01	-1.175117e+01
4.708000e+01	-1.179778e+01
4.735193e+01	-1.184457e+01
4.762543e+01	-1.189165e+01
4.790051e+01	-1.193826e+01
4.817719e+01	-1.198534e+01
4.845545e+01	-1.203274e+01
4.873533e+01	-1.207884e+01
4.901682e+01	-1.212627e+01
4.929994e+01	-1.217268e+01
4.958470e+01	-1.221980e+01
4.987110e+01	-1.226664e+01
5.015915e+01	-1.231357e+01
5.044887e+01	-1.236051e+01
5.074026e+01	-1.240834e+01
5.103333e+01	-1.245507e+01
5.132810e+01	-1.250243e+01
5.162457e+01	-1.255102e+01
5.192275e+01	-1.259750e+01
5.222265e+01	-1.264458e+01
5.252429e+01	-1.269154e+01
5.282767e+01	-1.273889e+01
5.313280e+01	-1.278649e+01
5.343969e+01	-1.283435e+01
5.374836e+01	-1.288144e+01
5.405880e+01	-1.292877e+01
5.437105e+01	-1.297607e+01
5.468509e+01	-1.302469e+01
5.500095e+01	-1.307099e+01
5.531863e+01	-1.311874e+01
5.563815e+01	-1.316650e+01
5.595951e+01	-1.321461e+01
5.628273e+01	-1.326108e+01
5.660782e+01	-1.330917e+01
5.693479e+01	-1.335769e+01
5.726364e+01	-1.340425e+01
5.759439e+01	-1.345364e+01
5.792705e+01	-1.350066e+01
5.826164e+01	-1.354830e+01
5.859815e+01	-1.359665e+01
5.893662e+01	-1.364348e+01
5.927703e+01	-1.369130e+01
5.961941e+01	-1.374042e+01
5.996377e+01	-1.378752e+01
6.031012e+01	-1.383577e+01
6.065847e+01	-1.388328e+01
6.100883e+01	-1.393175e+01
6.136121e+01	-1.397972e+01
6.171563e+01	-1.402796e+01
6.207210e+01	-1.407610e+01
6.243063e+01	-1.412427e+01
6.279122e+01	-1.417117e+01
6.315390e+01	-1.422024e+01
6.351868e+01	-1.426788e+01
6.388556e+01	-1.431652e+01
6.425456e+01	-1.436467e+01
6.462569e+01	-1.441277e+01
6.499897e+01	-1.446101e+01
6.537440e+01	-1.450955e+01
6.575200e+01	-1.455769e+01
6.613178e+01	-1.460569e+01
6.651375e+01	-1.465453e+01
6.689793e+01	-1.470205e+01
6.728433e+01	-1.475065e+01
6.767297e+01	-1.479963e+01
6.806384e+01	-1.484760e+01
6.845698e+01	-1.489575e+01
6.885238e+01	-1.494379e+01
6.925007e+01	-1.499233e+01
6.965005e+01	-1.504146e+01
7.005235e+01	-1.508859e+01
7.045697e+01	-1.513827e+01
7.086393e+01	-1.518612e+01
7.127323e+01	-1.523572e+01
7.168490e+01	-1.528376e+01
7.209895e+01	-1.533268e+01
7.251539e+01	-1.538108e+01
7.293424e+01	-1.542964e+01
7.335551e+01	-1.547797e+01
7.377920e+01	-1.552658e+01
7.420535e+01	-1.557500e+01
7.463396e+01	-1.562339e+01
7.506504e+01	-1.567191e+01
7.549861e+01	-1.572115e+01
7.593469e+01	-1.576984e+01
7.637328e+01	-1.581782e+01
7.681441e+01	-1.586798e+01
7.725809e+01	-1.591712e+01
7.770433e+01	-1.596539e+01
7.815315e+01	-1.601276e+01
7.860456e+01	-1.606142e+01
7.905857e+01	-1.611131e+01
7.951521e+01	-1.615997e+01
7.997449e+01	-1.620866e+01
8.043642e+01	-1.625731e+01
8.090102e+01	-1.630686e+01
8.136830e+01	-1.635635e+01
8.183828e+01	-1.640387e+01
8.231097e+01	-1.645322e+01
8.278640e+01	-1.650122e+01
8.326457e+01	-1.655080e+01
8.374550e+01	-1.660034e+01
8.422921e+01	-1.664878e+01
8.471572e+01	-1.669834e+01
8.520503e+01	-1.674727e+01
8.569717e+01	-1.679634e+01
8.619215e+01	-1.684530e+01
8.669000e+01	-1.689347e+01
8.719071e+01	-1.694284e+01
8.769432e+01	-1.699237e+01
8.820084e+01	-1.704131e+01
8.871029e+01	-1.709036e+01
8.922267e+01	-1.713919e+01
8.973802e+01	-1.718817e+01
9.025634e+01	-1.723820e+01
9.077766e+01	-1.728706e+01
9.130199e+01	-1.733541e+01
9.182935e+01	-1.738514e+01
9.235975e+01	-1.743287e+01
9.289321e+01	-1.748205e+01
9.342976e+01	-1.753269e+01
9.396941e+01	-1.758084e+01
9.451217e+01	-1.763001e+01
9.505807e+01	-1.768049e+01
9.560712e+01	-1.772916e+01
9.615934e+01	-1.777840e+01
9.671476e+01	-1.782661e+01
9.727338e+01	-1.787480e+01
9.783522e+01	-1.792538e+01
9.840032e+01	-1.797400e+01
9.896867e+01	-1.802446e+01
9.954031e+01	-1.807287e+01
1.001153e+02	-1.812136e+01
1.006935e+02	-1.817228e+01
1.012751e+02	-1.822102e+01
1.018601e+02	-1.826990e+01
1.024484e+02	-1.832015e+01
1.030402e+02	-1.836815e+01
1.036353e+02	-1.841857e+01
1.042339e+02	-1.846637e+01
1.048360e+02	-1.851779e+01
1.054415e+02	-1.856458e+01
1.060505e+02	-1.861532e+01
1.066631e+02	-1.866399e+01
1.072791e+02	-1.871212e+01
1.078988e+02	-1.876286e+01
1.085220e+02	-1.881349e+01
1.091488e+02	-1.886240e+01
1.097793e+02	-1.891245e+01
1.104133e+02	-1.896130e+01
1.110511e+02	-1.900912e+01
1.116925e+02	-1.905922e+01
1.123376e+02	-1.910840e+01
1.129865e+02	-1.915856e+01
1.136391e+02	-1.920761e+01
1.142955e+02	-1.925682e+01
1.149556e+02	-1.930674e+01
1.156196e+02	-1.935668e+01
1.162874e+02	-1.940525e+01
1.169591e+02	-1.945487e+01
1.176347e+02	-1.950587e+01
1.183141e+02	-1.955513e+01
1.189975e+02	-1.960350e+01
1.196848e+02	-1.965337e+01
1.203761e+02	-1.970342e+01
1.210714e+02	-1.975265e+01
1.217707e+02	-1.980100e+01
1.224740e+02	-1.985144e+01
1.231814e+02	-1.990096e+01
1.238929e+02	-1.995131e+01
1.246085e+02	-1.999932e+01
1.253283e+02	-2.005098e+01
1.260522e+02	-2.009835e+01
1.267802e+02	-2.014871e+01
1.275125e+02	-2.019879e+01
1.282490e+02	-2.024890e+01
1.289898e+02	-2.029624e+01
1.297348e+02	-2.034651e+01
1.304842e+02	-2.039663e+01
1.312378e+02	-2.044648e+01
1.319959e+02	-2.049813e+01
1.327583e+02	-2.054444e+01
1.335251e+02	-2.059551e+01
1.342963e+02	-2.064500e+01
1.350720e+02	-2.069430e+01
1.358522e+02	-2.074396e+01
1.366368e+02	-2.079425e+01
1.374260e+02	-2.084348e+01
1.382198e+02	-2.089207e+01
1.390182e+02	-2.094181e+01
1.398211e+02	-2.099227e+01
1.406287e+02	-2.104076e+01
1.414410e+02	-2.109024e+01
1.422579e+02	-2.114194e+01
1.430796e+02	-2.118995e+01
1.439060e+02	-2.123996e+01
1.447372e+02	-2.129174e+01
1.455732e+02	-2.134046e+01
1.464141e+02	-2.139067e+01
1.472597e+02	-2.143812e+01
1.481103e+02	-2.148671e+01
1.489658e+02	-2.153527e+01
1.498262e+02	-2.158697e+01
1.506916e+02	-2.163667e+01
1.515620e+02	-2.168984e+01
1.524374e+02	-2.173839e+01
1.533179e+02	-2.178478e+01
1.542034e+02	-2.183575e+01
1.550941e+02	-2.188464e+01
1.559899e+02	-2.193701e+01
1.568909e+02	-2.198435e+01
1.577971e+02	-2.203519e+01
1.587085e+02	-2.208460e+01
1.596252e+02	-2.213528e+01
1.605472e+02	-2.218505e+01
1.614745e+02	-2.223544e+01
1.624072e+02	-2.228107e+01
1.633453e+02	-2.233314e+01
1.642887e+02	-2.238222e+01
1.652377e+02	-2.243488e+01
1.661921e+02	-2.248353e+01
1.671520e+02	-2.253292e+01
1.681175e+02	-2.258253e+01
1.690885e+02	-2.263208e+01
1.700651e+02	-2.268160e+01
1.710474e+02	-2.272981e+01
1.720354e+02	-2.278137e+01
1.730291e+02	-2.283098e+01
1.740285e+02	-2.288130e+01
1.750337e+02	-2.293184e+01
1.760446e+02	-2.298047e+01
1.770615e+02	-2.302993e+01
1.780842e+02	-2.307957e+01
1.791128e+02	-2.313294e+01
1.801473e+02	-2.318033e+01
1.811878e+02	-2.323025e+01
1.822344e+02	-2.327963e+01
1.832870e+02	-2.332859e+01
1.843456e+02	-2.337818e+01
1.854104e+02	-2.342896e+01
1.864813e+02	-2.347766e+01
1.875584e+02	-2.352844e+01
1.886418e+02	-2.357696e+01
1.897313e+02	-2.362806e+01
1.908272e+02	-2.367779e+01
1.919294e+02	-2.372715e+01
1.930380e+02	-2.377914e+01
1.941530e+02	-2.382684e+01
1.952744e+02	-2.387599e+01
1.964023e+02	-2.392828e+01
1.975367e+02	-2.397736e+01
1.986777e+02	-2.402411e+01
1.998252e+02	-2.407811e+01
2.009794e+02	-2.412455e+01
2.021403e+02	-2.417737e+01
2.033078e+02	-2.422777e+01
2.044821e+02	-2.427929e+01
2.056632e+02	-2.432556e+01
2.068511e+02	-2.437416e+01
2.080459e+02	-2.442601e+01
2.092475e+02	-2.447705e+01
2.104561e+02	-2.452393e+01
2.116717e+02	-2.457683e+01
2.128943e+02	-2.462675e+01
2.141240e+02	-2.467394e+01
2.153608e+02	-2.472398e+01
2.166047e+02	-2.477505e+01
2.178558e+02	-2.482693e+01
2.191141e+02	-2.487688e+01
2.203797e+02	-2.492559e+01
2.216526e+02	-2.497452e+01
2.229329e+02	-2.502470e+01
2.242205e+02	-2.507553e+01
2.255156e+02	-2.512405e+01
2.268182e+02	-2.517300e+01
2.281283e+02	-2.522355e+01
2.294459e+02	-2.527294e+01
2.307712e+02	-2.532385e+01
2.321041e+02	-2.537769e+01
2.334447e+02	-2.542277e+01
2.347931e+02	-2.547459e+01
2.361493e+02	-2.552500e+01
2.375133e+02	-2.557453e+01
2.388851e+02	-2.562416e+01
2.402649e+02	-2.567599e+01
2.416527e+02	-2.572416e+01
2.430484e+02	-2.577436e+01
2.444523e+02	-2.582338e+01
2.458642e+02	-2.587523e+01
2.472843e+02	-2.592267e+01
2.487126e+02	-2.597439e+01
2.501492e+02	-2.602447e+01
2.515940e+02	-2.607455e+01
2.530472e+02	-2.611989e+01
2.545088e+02	-2.617179e+01
2.559789e+02	-2.622210e+01
2.574574e+02	-2.627399e+01
2.589444e+02	-2.632658e+01
2.604401e+02	-2.637336e+01
2.619444e+02	-2.642394e+01
2.634574e+02	-2.647405e+01
2.649791e+02	-2.652300e+01
2.665096e+02	-2.657540e+01
2.680489e+02	-2.662242e+01
2.695972e+02	-2.667619e+01
2.711544e+02	-2.672297e+01
2.727205e+02	-2.676839e+01
2.742958e+02	-2.682119e+01
2.758801e+02	-2.686938e+01
2.774736e+02	-2.692511e+01
2.790762e+02	-2.697436e+01
2.806882e+02	-2.702479e+01
2.823094e+02	-2.707325e+01
2.839400e+02	-2.712424e+01
2.855800e+02	-2.717279e+01
2.872295e+02	-2.722052e+01
2.888886e+02	-2.727091e+01
2.905572e+02	-2.732366e+01
2.922354e+02	-2.736951e+01
2.939234e+02	-2.742240e+01
2.956211e+02	-2.747507e+01
2.973286e+02	-2.752117e+01
2.990459e+02	-2.757646e+01
3.007732e+02	-2.762051e+01
3.025104e+02	-2.767433e+01
3.042577e+02	-2.772159e+01
3.060151e+02	-2.777417e+01
3.077826e+02	-2.782588e+01
3.095604e+02	-2.787267e+01
3.113484e+02	-2.791926e+01
3.131467e+02	-2.797070e+01
3.149554e+02	-2.802133e+01
3.167746e+02	-2.807450e+01
3.186043e+02	-2.812209e+01
3.204445e+02	-2.817438e+01
3.222954e+02	-2.822277e+01
3.241570e+02	-2.827495e+01
3.260293e+02	-2.832136e+01
3.279124e+02	-2.836836e+01
3.298064e+02	-2.842182e+01
3.317114e+02	-2.847408e+01
3.336273e+02	-2.852176e+01
3.355544e+02	-2.857163e+01
3.374925e+02	-2.862277e+01
3.394418e+02	-2.867293e+01
3.414024e+02	-2.872310e+01
3.433744e+02	-2.877621e+01
3.453577e+02	-2.882568e+01
3.473525e+02	-2.887343e+01
3.493588e+02	-2.892582e+01
3.513766e+02	-2.897112e+01
3.534062e+02	-2.902251e+01
3.554474e+02	-2.907167e+01
3.575005e+02	-2.912069e+01
3.595654e+02	-2.917411e+01
3.616422e+02	-2.922329e+01
3.637311e+02	-2.927319e+01
3.658320e+02	-2.932432e+01
3.679450e+02	-2.937174e+01
3.700702e+02	-2.943152e+01
3.722077e+02	-2.947571e+01
3.743576e+02	-2.952884e+01
3.765199e+02	-2.956977e+01
3.786946e+02	-2.962381e+01
3.808820e+02	-2.967518e+01
3.830819e+02	-2.972629e+01
3.852946e+02	-2.977096e+01
3.875200e+02	-2.982430e+01
3.897583e+02	-2.987372e+01
3.920096e+02	-2.992204e+01
3.942738e+02	-2.997653e+01
3.965511e+02	-3.002567e+01
3.988416e+02	-3.007664e+01
4.011452e+02	-3.012785e+01
4.034622e+02	-3.017305e+01
4.057926e+02	-3.022458e+01
4.081365e+02	-3.027864e+01
4.104938e+02	-3.032543e+01
4.128648e+02	-3.037891e+01
4.152495e+02	-3.042557e+01
4.176480e+02	-3.047439e+01
4.200603e+02	-3.052934e+01
4.224866e+02	-3.057567e+01
4.249268e+02	-3.062585e+01
4.273812e+02	-3.068082e+01
4.298497e+02	-3.072922e+01
4.323325e+02	-3.077227e+01
4.348297e+02	-3.082830e+01
4.373412e+02	-3.087845e+01
4.398673e+02	-3.092755e+01
4.424079e+02	-3.098098e+01
4.449633e+02	-3.102471e+01
4.475334e+02	-3.107628e+01
4.501183e+02	-3.112904e+01
4.527182e+02	-3.117702e+01
4.553330e+02	-3.122786e+01
4.579630e+02	-3.127792e+01
4.606082e+02	-3.132887e+01
4.632687e+02	-3.137924e+01
4.659445e+02	-3.143355e+01
4.686358e+02	-3.147669e+01
4.713426e+02	-3.152531e+01
4.740650e+02	-3.157968e+01
4.768032e+02	-3.163268e+01
4.795572e+02	-3.167499e+01
4.823271e+02	-3.173203e+01
4.851130e+02	-3.178112e+01
4.879150e+02	-3.183488e+01
4.907332e+02	-3.188058e+01
4.935676e+02	-3.193151e+01
4.964185e+02	-3.198106e+01
4.992858e+02	-3.203276e+01
5.021696e+02	-3.208343e+01
5.050701e+02	-3.212971e+01
5.079874e+02	-3.218395e+01
5.109215e+02	-3.223426e+01
5.138726e+02	-3.228115e+01
5.168407e+02	-3.233087e+01
5.198259e+02	-3.237864e+01
5.228284e+02	-3.243083e+01
5.258482e+02	-3.247854e+01
5.288855e+02	-3.253101e+01
5.319403e+02	-3.259458e+01
5.350128e+02	-3.262930e+01
5.381030e+02	-3.268394e+01
5.412111e+02	-3.273266e+01
5.443371e+02	-3.279036e+01
5.474812e+02	-3.283239e+01
5.506434e+02	-3.288364e+01
5.538239e+02	-3.294236e+01
5.570228e+02	-3.298613e+01
5.602401e+02	-3.303566e+01
5.634760e+02	-3.307998e+01
5.667306e+02	-3.313863e+01
5.700040e+02	-3.317990e+01
5.732964e+02	-3.323824e+01
5.766077e+02	-3.328385e+01
5.799382e+02	-3.334443e+01
5.832879e+02	-3.338630e+01
5.866569e+02	-3.344272e+01
5.900454e+02	-3.348626e+01
5.934535e+02	-3.353879e+01
5.968813e+02	-3.358349e+01
6.003288e+02	-3.364739e+01
6.037963e+02	-3.368478e+01
6.072838e+02	-3.374474e+01
6.107914e+02	-3.378805e+01
6.143194e+02	-3.384002e+01
6.178676e+02	-3.388466e+01
6.214364e+02	-3.394013e+01
6.250258e+02	-3.399427e+01
6.286359e+02	-3.404538e+01
6.322669e+02	-3.409050e+01
6.359189e+02	-3.413768e+01
6.395919e+02	-3.418755e+01
6.432862e+02	-3.424265e+01
6.470017e+02	-3.428983e+01
6.507388e+02	-3.434327e+01
6.544974e+02	-3.439178e+01
6.582778e+02	-3.444287e+01
6.620800e+02	-3.450123e+01
6.659041e+02	-3.454540e+01
6.697504e+02	-3.459753e+01
6.736188e+02	-3.463769e+01
6.775096e+02	-3.469588e+01
6.814229e+02	-3.475152e+01
6.853587e+02	-3.479818e+01
6.893173e+02	-3.484228e+01
6.932988e+02	-3.490321e+01
6.973033e+02	-3.494878e+01
7.013309e+02	-3.499669e+01
