Frequency(Hz)	Magnitude(dB)
1.000000e+01	-2.291431e+00
1.005776e+01	-2.312007e+00
1.011585e+01	-2.332971e+00
1.017428e+01	-2.353636e+00
1.023305e+01	-2.374327e+00
1.029215e+01	-2.395570e+00
1.035160e+01	-2.417088e+00
1.041139e+01	-2.438397e+00
1.047153e+01	-2.459890e+00
1.053201e+01	-2.481752e+00
1.059284e+01	-2.503448e+00
1.065403e+01	-2.525501e+00
1.071556e+01	-2.547613e+00
1.077746e+01	-2.569953e+00
1.083971e+01	-2.592293e+00
1.090232e+01	-2.614867e+00
1.096529e+01	-2.637467e+00
1.102862e+01	-2.660355e+00
1.109232e+01	-2.683091e+00
1.115639e+01	-2.706759e+00
1.122083e+01	-2.729785e+00
1.128564e+01	-2.753301e+00
1.135083e+01	-2.776766e+00
1.141639e+01	-2.800425e+00
1.148233e+01	-2.824206e+00
1.154865e+01	-2.848182e+00
1.161536e+01	-2.872658e+00
1.168245e+01	-2.896515e+00
1.174992e+01	-2.921109e+00
1.181779e+01	-2.945717e+00
1.188605e+01	-2.970441e+00
1.195470e+01	-2.995444e+00
1.202375e+01	-3.020157e+00
1.209320e+01	-3.045530e+00
1.216305e+01	-3.070541e+00
1.223330e+01	-3.096145e+00
1.230396e+01	-3.121597e+00
1.237503e+01	-3.147224e+00
1.244651e+01	-3.173109e+00
1.251840e+01	-3.199136e+00
1.259070e+01	-3.225543e+00
1.266343e+01	-3.251812e+00
1.273657e+01	-3.278021e+00
1.281014e+01	-3.304778e+00
1.288413e+01	-3.331466e+00
1.295855e+01	-3.358284e+00
1.303339e+01	-3.385554e+00
1.310867e+01	-3.412346e+00
1.318439e+01	-3.439906e+00
1.326054e+01	-3.466955e+00
1.333713e+01	-3.494714e+00
1.341417e+01	-3.522515e+00
1.349165e+01	-3.550416e+00
1.356958e+01	-3.578462e+00
1.364795e+01	-3.606493e+00
1.372678e+01	-3.634977e+00
1.380607e+01	-3.663414e+00
1.388581e+01	-3.691750e+00
1.396602e+01	-3.720505e+00
1.404668e+01	-3.749372e+00
1.412782e+01	-3.778369e+00
1.420942e+01	-3.807781e+00
1.429149e+01	-3.836829e+00
1.437404e+01	-3.866394e+00
1.445706e+01	-3.895621e+00
1.454057e+01	-3.925698e+00
1.462455e+01	-3.955423e+00
1.470902e+01	-3.985110e+00
1.479398e+01	-4.015376e+00
1.487943e+01	-4.045758e+00
1.496537e+01	-4.076166e+00
1.505181e+01	-4.106409e+00
1.513875e+01	-4.137261e+00
1.522619e+01	-4.168215e+00
1.531414e+01	-4.199020e+00
1.540259e+01	-4.229954e+00
1.549156e+01	-4.261440e+00
1.558103e+01	-4.292510e+00
1.567103e+01	-4.324200e+00
1.576155e+01	-4.355737e+00
1.585258e+01	-4.387391e+00
1.594415e+01	-4.419227e+00
1.603624e+01	-4.451142e+00
1.612886e+01	-4.483459e+00
1.622202e+01	-4.515724e+00
1.631572e+01	-4.548108e+00
1.640996e+01	-4.580485e+00
1.650474e+01	-4.613514e+00
1.660008e+01	-4.646253e+00
1.669596e+01	-4.678935e+00
1.679239e+01	-4.712249e+00
1.688938e+01	-4.745246e+00
1.698694e+01	-4.778626e+00
1.708505e+01	-4.812330e+00
1.718373e+01	-4.845422e+00
1.728299e+01	-4.879466e+00
1.738281e+01	-4.912994e+00
1.748322e+01	-4.946964e+00
1.758420e+01	-4.981312e+00
1.768576e+01	-5.015437e+00
1.778792e+01	-5.049909e+00
1.789066e+01	-5.084208e+00
1.799399e+01	-5.118598e+00
1.809793e+01	-5.153360e+00
1.820246e+01	-5.188156e+00
1.830760e+01	-5.223113e+00
1.841334e+01	-5.258335e+00
1.851969e+01	-5.293269e+00
1.862666e+01	-5.328621e+00
1.873425e+01	-5.364223e+00
1.884246e+01	-5.399451e+00
1.895129e+01	-5.435302e+00
1.906075e+01	-5.470942e+00
1.917085e+01	-5.506754e+00
1.928158e+01	-5.542957e+00
1.939295e+01	-5.579161e+00
1.950496e+01	-5.615267e+00
1.961762e+01	-5.651740e+00
1.973093e+01	-5.688088e+00
1.984490e+01	-5.724616e+00
1.995952e+01	-5.761285e+00
2.007480e+01	-5.798168e+00
2.019076e+01	-5.835190e+00
2.030738e+01	-5.872116e+00
2.042467e+01	-5.909321e+00
2.054264e+01	-5.946567e+00
2.066130e+01	-5.984076e+00
2.078064e+01	-6.021418e+00
2.090066e+01	-6.059100e+00
2.102139e+01	-6.096827e+00
2.114280e+01	-6.134502e+00
2.126492e+01	-6.172475e+00
2.138775e+01	-6.210392e+00
2.151128e+01	-6.248618e+00
2.163553e+01	-6.286526e+00
2.176050e+01	-6.324942e+00
2.188619e+01	-6.363259e+00
2.201260e+01	-6.402193e+00
2.213974e+01	-6.440861e+00
2.226762e+01	-6.479045e+00
2.239624e+01	-6.517956e+00
2.252560e+01	-6.556611e+00
2.265571e+01	-6.595851e+00
2.278656e+01	-6.635212e+00
2.291818e+01	-6.674453e+00
2.305055e+01	-6.714089e+00
2.318369e+01	-6.753065e+00
2.331760e+01	-6.792652e+00
2.345228e+01	-6.832262e+00
2.358774e+01	-6.871554e+00
2.372398e+01	-6.911592e+00
2.386101e+01	-6.951300e+00
2.399883e+01	-6.991496e+00
2.413745e+01	-7.032091e+00
2.427686e+01	-7.071917e+00
2.441709e+01	-7.112188e+00
2.455812e+01	-7.152471e+00
2.469997e+01	-7.193260e+00
2.484263e+01	-7.233343e+00
2.498612e+01	-7.273968e+00
2.513044e+01	-7.314602e+00
2.527559e+01	-7.355422e+00
2.542158e+01	-7.396307e+00
2.556842e+01	-7.437334e+00
2.571610e+01	-7.478703e+00
2.586463e+01	-7.519479e+00
2.601403e+01	-7.560737e+00
2.616428e+01	-7.602242e+00
2.631541e+01	-7.643359e+00
2.646740e+01	-7.685100e+00
2.662028e+01	-7.726468e+00
2.677404e+01	-7.767887e+00
2.692868e+01	-7.809631e+00
2.708422e+01	-7.851022e+00
2.724066e+01	-7.893347e+00
2.739800e+01	-7.935032e+00
2.755625e+01	-7.977338e+00
2.771541e+01	-8.019339e+00
2.787550e+01	-8.061758e+00
2.803650e+01	-8.103943e+00
2.819844e+01	-8.145710e+00
2.836131e+01	-8.188512e+00
2.852513e+01	-8.230992e+00
2.868989e+01	-8.273612e+00
2.885560e+01	-8.316403e+00
2.902227e+01	-8.358604e+00
2.918990e+01	-8.401618e+00
2.935850e+01	-8.444291e+00
2.952807e+01	-8.487575e+00
2.969863e+01	-8.530246e+00
2.987016e+01	-8.573720e+00
3.004269e+01	-8.616138e+00
3.021622e+01	-8.659452e+00
3.039075e+01	-8.702508e+00
3.056628e+01	-8.746254e+00
3.074283e+01	-8.789536e+00
3.092040e+01	-8.832687e+00
3.109900e+01	-8.876280e+00
3.127862e+01	-8.919889e+00
3.145929e+01	-8.963872e+00
3.164099e+01	-9.007621e+00
3.182375e+01	-9.051320e+00
3.200756e+01	-9.095451e+00
3.219244e+01	-9.138728e+00
3.237838e+01	-9.182773e+00
3.256540e+01	-9.226780e+00
3.275349e+01	-9.271305e+00
3.294268e+01	-9.315165e+00
3.313295e+01	-9.359288e+00
3.332433e+01	-9.403709e+00
3.351681e+01	-9.447876e+00
3.371040e+01	-9.492346e+00
3.390511e+01	-9.536960e+00
3.410094e+01	-9.581268e+00
3.429791e+01	-9.626082e+00
3.449601e+01	-9.670206e+00
3.469526e+01	-9.715068e+00
3.489566e+01	-9.759495e+00
3.509721e+01	-9.804603e+00
3.529993e+01	-9.848861e+00
3.550382e+01	-9.894121e+00
3.570889e+01	-9.939330e+00
3.591515e+01	-9.984041e+00
3.612259e+01	-1.002930e+01
3.633123e+01	-1.007466e+01
3.654108e+01	-1.011942e+01
3.675214e+01	-1.016481e+01
3.696442e+01	-1.020965e+01
3.717792e+01	-1.025446e+01
3.739266e+01	-1.030031e+01
3.760864e+01	-1.034585e+01
3.782587e+01	-1.039094e+01
3.804435e+01	-1.043662e+01
3.826409e+01	-1.048224e+01
3.848510e+01	-1.052776e+01
3.870739e+01	-1.057342e+01
3.893096e+01	-1.061949e+01
3.915583e+01	-1.066478e+01
3.938199e+01	-1.071063e+01
3.960946e+01	-1.075629e+01
3.983824e+01	-1.080212e+01
4.006834e+01	-1.084765e+01
4.029978e+01	-1.089376e+01
4.053255e+01	-1.094040e+01
4.076666e+01	-1.098577e+01
4.100213e+01	-1.103237e+01
4.123896e+01	-1.107828e+01
4.147715e+01	-1.112373e+01
4.171672e+01	-1.117014e+01
4.195767e+01	-1.121626e+01
4.220002e+01	-1.126297e+01
4.244377e+01	-1.130965e+01
4.268892e+01	-1.135545e+01
4.293549e+01	-1.140249e+01
4.318348e+01	-1.144874e+01
4.343291e+01	-1.149547e+01
4.368377e+01	-1.154162e+01
4.393609e+01	-1.158766e+01
4.418986e+01	-1.163450e+01
4.444510e+01	-1.168074e+01
4.470182e+01	-1.172799e+01
4.496001e+01	-1.177483e+01
4.521970e+01	-1.182144e+01
4.548089e+01	-1.186862e+01
4.574358e+01	-1.191560e+01
4.600779e+01	-1.196154e+01
4.627353e+01	-1.200865e+01
4.654081e+01	-1.205506e+01
4.680963e+01	-1.210231e+01
4.708000e+01	-1.214942e+01
4.735193e+01	-1.219617e+01
4.762543e+01	-1.224315e+01
4.790051e+01	-1.228986e+01
4.817719e+01	-1.233749e+01
4.845545e+01	-1.238400e+01
4.873533e+01	-1.243157e+01
4.901682e+01	-1.247908e+01
4.929994e+01	-1.252563e+01
4.958470e+01	-1.257299e+01
4.987110e+01	-1.262029e+01
5.015915e+01	-1.266775e+01
5.044887e+01	-1.271507e+01
5.074026e+01	-1.276309e+01
5.103333e+01	-1.280970e+01
5.132810e+01	-1.285713e+01
5.162457e+01	-1.290439e+01
5.192275e+01	-1.295218e+01
5.222265e+01	-1.299996e+01
5.252429e+01	-1.304734e+01
5.282767e+01	-1.309497e+01
5.313280e+01	-1.314278e+01
5.343969e+01	-1.318984e+01
5.374836e+01	-1.323737e+01
5.405880e+01	-1.328560e+01
5.437105e+01	-1.333286e+01
5.468509e+01	-1.338040e+01
5.500095e+01	-1.342852e+01
5.531863e+01	-1.347601e+01
5.563815e+01	-1.352425e+01
5.595951e+01	-1.357136e+01
5.628273e+01	-1.361968e+01
5.660782e+01	-1.366798e+01
5.693479e+01	-1.371583e+01
5.726364e+01	-1.376434e+01
5.759439e+01	-1.381118e+01
5.792705e+01	-1.385919e+01
5.826164e+01	-1.390766e+01
5.859815e+01	-1.395556e+01
5.893662e+01	-1.400411e+01
5.927703e+01	-1.405136e+01
5.961941e+01	-1.409945e+01
5.996377e+01	-1.414784e+01
6.031012e+01	-1.419588e+01
6.065847e+01	-1.424351e+01
6.100883e+01	-1.429199e+01
6.136121e+01	-1.434155e+01
6.171563e+01	-1.438813e+01
6.207210e+01	-1.443649e+01
6.243063e+01	-1.448487e+01
6.279122e+01	-1.453357e+01
6.315390e+01	-1.458093e+01
6.351868e+01	-1.462958e+01
6.388556e+01	-1.467801e+01
6.425456e+01	-1.472628e+01
6.462569e+01	-1.477470e+01
6.499897e+01	-1.482319e+01
6.537440e+01	-1.487187e+01
6.575200e+01	-1.492034e+01
6.613178e+01	-1.496771e+01
6.651375e+01	-1.501605e+01
6.689793e+01	-1.506532e+01
6.728433e+01	-1.511364e+01
6.767297e+01	-1.516190e+01
6.806384e+01	-1.521062e+01
6.845698e+01	-1.525992e+01
6.885238e+01	-1.530785e+01
6.925007e+01	-1.535657e+01
6.965005e+01	-1.540499e+01
7.005235e+01	-1.545347e+01
7.045697e+01	-1.550309e+01
7.086393e+01	-1.555113e+01
7.127323e+01	-1.559932e+01
7.168490e+01	-1.564842e+01
7.209895e+01	-1.569651e+01
7.251539e+01	-1.574566e+01
7.293424e+01	-1.579439e+01
7.335551e+01	-1.584253e+01
7.377920e+01	-1.589150e+01
7.420535e+01	-1.594060e+01
7.463396e+01	-1.598856e+01
7.506504e+01	-1.603740e+01
7.549861e+01	-1.608706e+01
7.593469e+01	-1.613534e+01
7.637328e+01	-1.618458e+01
7.681441e+01	-1.623248e+01
7.725809e+01	-1.628240e+01
7.770433e+01	-1.633094e+01
7.815315e+01	-1.637951e+01
7.860456e+01	-1.642830e+01
7.905857e+01	-1.647843e+01
7.951521e+01	-1.652574e+01
7.997449e+01	-1.657613e+01
8.043642e+01	-1.662424e+01
8.090102e+01	-1.667234e+01
8.136830e+01	-1.672132e+01
8.183828e+01	-1.677047e+01
8.231097e+01	-1.682111e+01
8.278640e+01	-1.686842e+01
8.326457e+01	-1.691645e+01
8.374550e+01	-1.696622e+01
8.422921e+01	-1.701630e+01
8.471572e+01	-1.706491e+01
8.520503e+01	-1.711496e+01
8.569717e+01	-1.716279e+01
8.619215e+01	-1.721328e+01
8.669000e+01	-1.726190e+01
8.719071e+01	-1.731043e+01
8.769432e+01	-1.735976e+01
8.820084e+01	-1.740933e+01
8.871029e+01	-1.745709e+01
8.922267e+01	-1.750660e+01
8.973802e+01	-1.755633e+01
9.025634e+01	-1.760484e+01
9.077766e+01	-1.765285e+01
9.130199e+01	-1.770475e+01
9.182935e+01	-1.775265e+01
9.235975e+01	-1.780259e+01
9.289321e+01	-1.785177e+01
9.342976e+01	-1.790115e+01
9.396941e+01	-1.794926e+01
9.451217e+01	-1.799941e+01
9.505807e+01	-1.804908e+01
9.560712e+01	-1.809768e+01
9.615934e+01	-1.814727e+01
9.671476e+01	-1.819534e+01
9.727338e+01	-1.824524e+01
9.783522e+01	-1.829444e+01
9.840032e+01	-1.834235e+01
9.896867e+01	-1.839252e+01
9.954031e+01	-1.844299e+01
1.001153e+02	-1.849174e+01
1.006935e+02	-1.854172e+01
1.012751e+02	-1.859147e+01
1.018601e+02	-1.863964e+01
1.024484e+02	-1.868900e+01
1.030402e+02	-1.873781e+01
1.036353e+02	-1.878631e+01
1.042339e+02	-1.883771e+01
1.048360e+02	-1.888565e+01
1.054415e+02	-1.893605e+01
1.060505e+02	-1.898472e+01
1.066631e+02	-1.903402e+01
1.072791e+02	-1.908461e+01
1.078988e+02	-1.913339e+01
1.085220e+02	-1.918247e+01
1.091488e+02	-1.923212e+01
1.097793e+02	-1.928076e+01
1.104133e+02	-1.933131e+01
1.110511e+02	-1.938155e+01
1.116925e+02	-1.943004e+01
1.123376e+02	-1.948030e+01
1.129865e+02	-1.952895e+01
1.136391e+02	-1.957828e+01
1.142955e+02	-1.962759e+01
1.149556e+02	-1.967749e+01
1.156196e+02	-1.972614e+01
1.162874e+02	-1.977617e+01
1.169591e+02	-1.982699e+01
1.176347e+02	-1.987342e+01
1.183141e+02	-1.992519e+01
1.189975e+02	-1.997602e+01
1.196848e+02	-2.002473e+01
1.203761e+02	-2.007407e+01
1.210714e+02	-2.012401e+01
1.217707e+02	-2.017310e+01
1.224740e+02	-2.022283e+01
1.231814e+02	-2.027210e+01
1.238929e+02	-2.032073e+01
1.246085e+02	-2.037076e+01
1.253283e+02	-2.042149e+01
1.260522e+02	-2.047082e+01
1.267802e+02	-2.051968e+01
1.275125e+02	-2.057049e+01
1.282490e+02	-2.061870e+01
1.289898e+02	-2.066843e+01
1.297348e+02	-2.071758e+01
1.304842e+02	-2.076602e+01
1.312378e+02	-2.081910e+01
1.319959e+02	-2.086740e+01
1.327583e+02	-2.091641e+01
1.335251e+02	-2.096755e+01
1.342963e+02	-2.101592e+01
1.350720e+02	-2.106705e+01
1.358522e+02	-2.111640e+01
1.366368e+02	-2.116376e+01
1.374260e+02	-2.121622e+01
1.382198e+02	-2.126293e+01
1.390182e+02	-2.131328e+01
1.398211e+02	-2.136486e+01
1.406287e+02	-2.141200e+01
1.414410e+02	-2.146383e+01
1.422579e+02	-2.151294e+01
1.430796e+02	-2.156426e+01
1.439060e+02	-2.161121e+01
1.447372e+02	-2.166144e+01
1.455732e+02	-2.171283e+01
1.464141e+02	-2.176303e+01
1.472597e+02	-2.180999e+01
1.481103e+02	-2.186007e+01
1.489658e+02	-2.190937e+01
1.498262e+02	-2.196151e+01
1.506916e+02	-2.201114e+01
1.515620e+02	-2.205739e+01
1.524374e+02	-2.210869e+01
1.533179e+02	-2.215931e+01
1.542034e+02	-2.220814e+01
1.550941e+02	-2.225913e+01
1.559899e+02	-2.230885e+01
1.568909e+02	-2.235781e+01
1.577971e+02	-2.240684e+01
1.587085e+02	-2.245598e+01
1.596252e+02	-2.250815e+01
1.605472e+02	-2.255715e+01
1.614745e+02	-2.260871e+01
1.624072e+02	-2.265864e+01
1.633453e+02	-2.270508e+01
1.642887e+02	-2.275563e+01
1.652377e+02	-2.280620e+01
1.661921e+02	-2.285540e+01
1.671520e+02	-2.290603e+01
1.681175e+02	-2.295688e+01
1.690885e+02	-2.300525e+01
1.700651e+02	-2.305401e+01
1.710474e+02	-2.310572e+01
1.720354e+02	-2.315483e+01
1.730291e+02	-2.320338e+01
1.740285e+02	-2.325429e+01
1.750337e+02	-2.330410e+01
1.760446e+02	-2.335156e+01
1.770615e+02	-2.340297e+01
1.780842e+02	-2.345245e+01
1.791128e+02	-2.350418e+01
1.801473e+02	-2.355279e+01
1.811878e+02	-2.360321e+01
1.822344e+02	-2.365396e+01
1.832870e+02	-2.370158e+01
1.843456e+02	-2.375247e+01
1.854104e+02	-2.380262e+01
1.864813e+02	-2.384967e+01
1.875584e+02	-2.390430e+01
1.886418e+02	-2.395239e+01
1.897313e+02	-2.400097e+01
1.908272e+02	-2.405173e+01
1.919294e+02	-2.410109e+01
1.930380e+02	-2.415198e+01
1.941530e+02	-2.419945e+01
1.952744e+02	-2.425227e+01
1.964023e+02	-2.430070e+01
1.975367e+02	-2.435076e+01
1.986777e+02	-2.439797e+01
1.998252e+02	-2.445157e+01
2.009794e+02	-2.449955e+01
2.021403e+02	-2.454937e+01
2.033078e+02	-2.460134e+01
2.044821e+02	-2.465144e+01
2.056632e+02	-2.469792e+01
2.068511e+02	-2.474937e+01
2.080459e+02	-2.480226e+01
2.092475e+02	-2.484899e+01
2.104561e+02	-2.489719e+01
2.116717e+02	-2.494858e+01
2.128943e+02	-2.500064e+01
2.141240e+02	-2.504884e+01
2.153608e+02	-2.510016e+01
2.166047e+02	-2.514982e+01
2.178558e+02	-2.520060e+01
2.191141e+02	-2.524971e+01
2.203797e+02	-2.529660e+01
2.216526e+02	-2.534659e+01
2.229329e+02	-2.539968e+01
2.242205e+02	-2.544985e+01
2.255156e+02	-2.549793e+01
2.268182e+02	-2.554979e+01
2.281283e+02	-2.559854e+01
2.294459e+02	-2.564534e+01
2.307712e+02	-2.569454e+01
2.321041e+02	-2.574423e+01
2.334447e+02	-2.579881e+01
2.347931e+02	-2.584797e+01
2.361493e+02	-2.589996e+01
2.375133e+02	-2.594899e+01
2.388851e+02	-2.599894e+01
2.402649e+02	-2.604714e+01
2.416527e+02	-2.609675e+01
2.430484e+02	-2.614814e+01
2.444523e+02	-2.619876e+01
2.458642e+02	-2.624876e+01
2.472843e+02	-2.629836e+01
2.487126e+02	-2.634846e+01
2.501492e+02	-2.639702e+01
2.515940e+02	-2.644344e+01
2.530472e+02	-2.649961e+01
2.545088e+02	-2.654685e+01
2.559789e+02	-2.659425e+01
2.574574e+02	-2.664611e+01
2.589444e+02	-2.669670e+01
2.604401e+02	-2.674930e+01
2.619444e+02	-2.679980e+01
2.634574e+02	-2.684988e+01
2.649791e+02	-2.689690e+01
2.665096e+02	-2.694876e+01
2.680489e+02	-2.699897e+01
2.695972e+02	-2.704529e+01
2.711544e+02	-2.709651e+01
2.727205e+02	-2.714654e+01
2.742958e+02	-2.719798e+01
2.758801e+02	-2.724599e+01
2.774736e+02	-2.729994e+01
2.790762e+02	-2.734447e+01
2.806882e+02	-2.739789e+01
2.823094e+02	-2.744946e+01
2.839400e+02	-2.749526e+01
2.855800e+02	-2.754838e+01
2.872295e+02	-2.759633e+01
2.888886e+02	-2.764595e+01
2.905572e+02	-2.769585e+01
2.922354e+02	-2.774627e+01
2.939234e+02	-2.779569e+01
2.956211e+02	-2.784579e+01
2.973286e+02	-2.789701e+01
2.990459e+02	-2.794671e+01
3.007732e+02	-2.799883e+01
3.025104e+02	-2.804732e+01
3.042577e+02	-2.809879e+01
3.060151e+02	-2.814549e+01
3.077826e+02	-2.819845e+01
3.095604e+02	-2.824808e+01
3.113484e+02	-2.829826e+01
3.131467e+02	-2.834906e+01
3.149554e+02	-2.839819e+01
3.167746e+02	-2.844733e+01
3.186043e+02	-2.849701e+01
3.204445e+02	-2.854601e+01
3.222954e+02	-2.859508e+01
3.241570e+02	-2.864633e+01
3.260293e+02	-2.869767e+01
3.279124e+02	-2.874735e+01
3.298064e+02	-2.880120e+01
3.317114e+02	-2.884893e+01
3.336273e+02	-2.889468e+01
3.355544e+02	-2.894616e+01
3.374925e+02	-2.899997e+01
3.394418e+02	-2.904422e+01
3.414024e+02	-2.909740e+01
3.433744e+02	-2.914739e+01
3.453577e+02	-2.919654e+01
3.473525e+02	-2.924964e+01
3.493588e+02	-2.929838e+01
3.513766e+02	-2.934760e+01
3.534062e+02	-2.939877e+01
3.554474e+02	-2.944729e+01
3.575005e+02	-2.949866e+01
3.595654e+02	-2.954572e+01
3.616422e+02	-2.959754e+01
3.637311e+02	-2.964670e+01
3.658320e+02	-2.969872e+01
3.679450e+02	-2.974674e+01
3.700702e+02	-2.979609e+01
3.722077e+02	-2.985239e+01
3.743576e+02	-2.989350e+01
3.765199e+02	-2.994718e+01
3.786946e+02	-3.000004e+01
3.808820e+02	-3.004954e+01
3.830819e+02	-3.009956e+01
3.852946e+02	-3.015368e+01
3.875200e+02	-3.019902e+01
3.897583e+02	-3.025218e+01
3.920096e+02	-3.029960e+01
3.942738e+02	-3.034962e+01
3.965511e+02	-3.040208e+01
3.988416e+02	-3.044893e+01
4.011452e+02	-3.050013e+01
4.034622e+02	-3.055064e+01
4.057926e+02	-3.060429e+01
4.081365e+02	-3.064776e+01
4.104938e+02	-3.070429e+01
4.128648e+02	-3.074602e+01
4.152495e+02	-3.080320e+01
4.176480e+02	-3.084751e+01
4.200603e+02	-3.090105e+01
4.224866e+02	-3.095051e+01
4.249268e+02	-3.100116e+01
4.273812e+02	-3.105253e+01
4.298497e+02	-3.110269e+01
4.323325e+02	-3.115663e+01
4.348297e+02	-3.120218e+01
4.373412e+02	-3.125588e+01
4.398673e+02	-3.131005e+01
4.424079e+02	-3.135183e+01
4.449633e+02	-3.140555e+01
4.475334e+02	-3.145320e+01
4.501183e+02	-3.150211e+01
4.527182e+02	-3.155581e+01
4.553330e+02	-3.160522e+01
4.579630e+02	-3.164752e+01
4.606082e+02	-3.170393e+01
4.632687e+02	-3.175256e+01
4.659445e+02	-3.180632e+01
4.686358e+02	-3.186097e+01
4.713426e+02	-3.190720e+01
4.740650e+02	-3.195847e+01
4.768032e+02	-3.200604e+01
4.795572e+02	-3.205370e+01
4.823271e+02	-3.210847e+01
4.851130e+02	-3.215194e+01
4.879150e+02	-3.220431e+01
4.907332e+02	-3.225671e+01
4.935676e+02	-3.230880e+01
4.964185e+02	-3.235422e+01
4.992858e+02	-3.240213e+01
5.021696e+02	-3.245348e+01
5.050701e+02	-3.250926e+01
5.079874e+02	-3.256228e+01
5.109215e+02	-3.261016e+01
5.138726e+02	-3.266470e+01
5.168407e+02	-3.270098e+01
5.198259e+02	-3.276288e+01
5.228284e+02	-3.280921e+01
5.258482e+02	-3.285684e+01
5.288855e+02	-3.290674e+01
5.319403e+02	-3.295718e+01
5.350128e+02	-3.300666e+01
5.381030e+02	-3.306316e+01
5.412111e+02	-3.310927e+01
5.443371e+02	-3.315741e+01
5.474812e+02	-3.321178e+01
5.506434e+02	-3.326607e+01
5.538239e+02	-3.331063e+01
5.570228e+02	-3.336524e+01
5.602401e+02	-3.341101e+01
5.634760e+02	-3.346138e+01
5.667306e+02	-3.351757e+01
5.700040e+02	-3.356491e+01
5.732964e+02	-3.360923e+01
5.766077e+02	-3.365578e+01
5.799382e+02	-3.371258e+01
5.832879e+02	-3.375633e+01
5.866569e+02	-3.381439e+01
5.900454e+02	-3.386625e+01
5.934535e+02	-3.391982e+01
5.968813e+02	-3.396038e+01
6.003288e+02	-3.401004e+01
6.037963e+02	-3.406104e+01
6.072838e+02	-3.412389e+01
6.107914e+02	-3.415977e+01
6.143194e+02	-3.421905e+01
6.178676e+02	-3.427137e+01
6.214364e+02	-3.431709e+01
6.250258e+02	-3.437041e+01
6.286359e+02	-3.441775e+01
6.322669e+02	-3.447847e+01
6.359189e+02	-3.451768e+01
6.395919e+02	-3.456486e+01
6.432862e+02	-3.461604e+01
6.470017e+02	-3.466447e+01
6.507388e+02	-3.472081e+01
6.544974e+02	-3.476808e+01
6.582778e+02	-3.481848e+01
6.620800e+02	-3.487503e+01
6.659041e+02	-3.492293e+01
6.697504e+02	-3.496897e+01
6.736188e+02	-3.501278e+01
6.775096e+02	-3.508113e+01
6.814229e+02	-3.511999e+01
6.853587e+02	-3.516385e+01
6.893173e+02	-3.521639e+01
6.932988e+02	-3.528778e+01
6.973033e+02	-3.532948e+01
7.013309e+02	-3.537986e+01
