Frequency(Hz)	Magnitude(dB)
1.000000e+01	-2.329961e+00
1.005776e+01	-2.350790e+00
1.011585e+01	-2.371758e+00
1.017428e+01	-2.393038e+00
1.023305e+01	-2.414227e+00
1.029215e+01	-2.435672e+00
1.035160e+01	-2.457182e+00
1.041139e+01	-2.478725e+00
1.047153e+01	-2.500717e+00
1.053201e+01	-2.522606e+00
1.059284e+01	-2.544733e+00
1.065403e+01	-2.567098e+00
1.071556e+01	-2.589470e+00
1.077746e+01	-2.611970e+00
1.083971e+01	-2.634698e+00
1.090232e+01	-2.657533e+00
1.096529e+01	-2.680650e+00
1.102862e+01	-2.703537e+00
1.109232e+01	-2.726726e+00
1.115639e+01	-2.750262e+00
1.122083e+01	-2.773800e+00
1.128564e+01	-2.797627e+00
1.135083e+01	-2.821199e+00
1.141639e+01	-2.845353e+00
1.148233e+01	-2.869362e+00
1.154865e+01	-2.893670e+00
1.161536e+01	-2.918021e+00
1.168245e+01	-2.942469e+00
1.174992e+01	-2.967104e+00
1.181779e+01	-2.992268e+00
1.188605e+01	-3.017247e+00
1.195470e+01	-3.042274e+00
1.202375e+01	-3.067550e+00
1.209320e+01	-3.092910e+00
1.216305e+01	-3.118434e+00
1.223330e+01	-3.144131e+00
1.230396e+01	-3.170385e+00
1.237503e+01	-3.196163e+00
1.244651e+01	-3.222036e+00
1.251840e+01	-3.248414e+00
1.259070e+01	-3.274475e+00
1.266343e+01	-3.301404e+00
1.273657e+01	-3.328151e+00
1.281014e+01	-3.355087e+00
1.288413e+01	-3.381939e+00
1.295855e+01	-3.409101e+00
1.303339e+01	-3.436342e+00
1.310867e+01	-3.463713e+00
1.318439e+01	-3.491215e+00
1.326054e+01	-3.519119e+00
1.333713e+01	-3.546783e+00
1.341417e+01	-3.574877e+00
1.349165e+01	-3.603075e+00
1.356958e+01	-3.631333e+00
1.364795e+01	-3.659482e+00
1.372678e+01	-3.688368e+00
1.380607e+01	-3.717049e+00
1.388581e+01	-3.745835e+00
1.396602e+01	-3.774586e+00
1.404668e+01	-3.803849e+00
1.412782e+01	-3.833074e+00
1.420942e+01	-3.862728e+00
1.429149e+01	-3.892045e+00
1.437404e+01	-3.921889e+00
1.445706e+01	-3.951755e+00
1.454057e+01	-3.981428e+00
1.462455e+01	-4.011865e+00
1.470902e+01	-4.041868e+00
1.479398e+01	-4.072131e+00
1.487943e+01	-4.102915e+00
1.496537e+01	-4.133460e+00
1.505181e+01	-4.163965e+00
1.513875e+01	-4.195008e+00
1.522619e+01	-4.226216e+00
1.531414e+01	-4.257067e+00
1.540259e+01	-4.288469e+00
1.549156e+01	-4.320289e+00
1.558103e+01	-4.351649e+00
1.567103e+01	-4.383370e+00
1.576155e+01	-4.415150e+00
1.585258e+01	-4.447248e+00
1.594415e+01	-4.479197e+00
1.603624e+01	-4.511797e+00
1.612886e+01	-4.543978e+00
1.622202e+01	-4.576510e+00
1.631572e+01	-4.609100e+00
1.640996e+01	-4.641845e+00
1.650474e+01	-4.674898e+00
1.660008e+01	-4.708053e+00
1.669596e+01	-4.740754e+00
1.679239e+01	-4.774551e+00
1.688938e+01	-4.808059e+00
1.698694e+01	-4.841548e+00
1.708505e+01	-4.875086e+00
1.718373e+01	-4.908794e+00
1.728299e+01	-4.943032e+00
1.738281e+01	-4.976760e+00
1.748322e+01	-5.011046e+00
1.758420e+01	-5.045540e+00
1.768576e+01	-5.080029e+00
1.778792e+01	-5.114612e+00
1.789066e+01	-5.148943e+00
1.799399e+01	-5.184101e+00
1.809793e+01	-5.218939e+00
1.820246e+01	-5.253690e+00
1.830760e+01	-5.289263e+00
1.841334e+01	-5.324145e+00
1.851969e+01	-5.359643e+00
1.862666e+01	-5.395140e+00
1.873425e+01	-5.431056e+00
1.884246e+01	-5.466677e+00
1.895129e+01	-5.502623e+00
1.906075e+01	-5.538533e+00
1.917085e+01	-5.574549e+00
1.928158e+01	-5.610864e+00
1.939295e+01	-5.646907e+00
1.950496e+01	-5.683746e+00
1.961762e+01	-5.719953e+00
1.973093e+01	-5.756921e+00
1.984490e+01	-5.793535e+00
1.995952e+01	-5.830722e+00
2.007480e+01	-5.867942e+00
2.019076e+01	-5.904641e+00
2.030738e+01	-5.942063e+00
2.042467e+01	-5.979207e+00
2.054264e+01	-6.016558e+00
2.066130e+01	-6.054493e+00
2.078064e+01	-6.091892e+00
2.090066e+01	-6.129482e+00
2.102139e+01	-6.167412e+00
2.114280e+01	-6.205259e+00
2.126492e+01	-6.243735e+00
2.138775e+01	-6.281830e+00
2.151128e+01	-6.320285e+00
2.163553e+01	-6.358614e+00
2.176050e+01	-6.397117e+00
2.188619e+01	-6.435785e+00
2.201260e+01	-6.474454e+00
2.213974e+01	-6.513153e+00
2.226762e+01	-6.552406e+00
2.239624e+01	-6.591103e+00
2.252560e+01	-6.630335e+00
2.265571e+01	-6.669625e+00
2.278656e+01	-6.708886e+00
2.291818e+01	-6.748040e+00
2.305055e+01	-6.787630e+00
2.318369e+01	-6.827230e+00
2.331760e+01	-6.866968e+00
2.345228e+01	-6.906854e+00
2.358774e+01	-6.946522e+00
2.372398e+01	-6.986709e+00
2.386101e+01	-7.026302e+00
2.399883e+01	-7.066915e+00
2.413745e+01	-7.107020e+00
2.427686e+01	-7.147281e+00
2.441709e+01	-7.187518e+00
2.455812e+01	-7.228409e+00
2.469997e+01	-7.268915e+00
2.484263e+01	-7.309991e+00
2.498612e+01	-7.350076e+00
2.513044e+01	-7.390847e+00
2.527559e+01	-7.432422e+00
2.542158e+01	-7.473086e+00
2.556842e+01	-7.514470e+00
2.571610e+01	-7.555298e+00
2.586463e+01	-7.596628e+00
2.601403e+01	-7.638146e+00
2.616428e+01	-7.679504e+00
2.631541e+01	-7.720923e+00
2.646740e+01	-7.763114e+00
2.662028e+01	-7.804571e+00
2.677404e+01	-7.846354e+00
2.692868e+01	-7.888018e+00
2.708422e+01	-7.930527e+00
2.724066e+01	-7.972054e+00
2.739800e+01	-8.013803e+00
2.755625e+01	-8.056107e+00
2.771541e+01	-8.097887e+00
2.787550e+01	-8.140976e+00
2.803650e+01	-8.183055e+00
2.819844e+01	-8.225809e+00
2.836131e+01	-8.267989e+00
2.852513e+01	-8.310732e+00
2.868989e+01	-8.353619e+00
2.885560e+01	-8.396431e+00
2.902227e+01	-8.439240e+00
2.918990e+01	-8.482334e+00
2.935850e+01	-8.524861e+00
2.952807e+01	-8.567946e+00
2.969863e+01	-8.611135e+00
2.987016e+01	-8.654115e+00
3.004269e+01	-8.697365e+00
3.021622e+01	-8.740743e+00
3.039075e+01	-8.784109e+00
3.056628e+01	-8.827749e+00
3.074283e+01	-8.871072e+00
3.092040e+01	-8.914454e+00
3.109900e+01	-8.958076e+00
3.127862e+01	-9.002161e+00
3.145929e+01	-9.045592e+00
3.164099e+01	-9.089468e+00
3.182375e+01	-9.133422e+00
3.200756e+01	-9.177473e+00
3.219244e+01	-9.220956e+00
3.237838e+01	-9.264943e+00
3.256540e+01	-9.310008e+00
3.275349e+01	-9.353941e+00
3.294268e+01	-9.397793e+00
3.313295e+01	-9.442251e+00
3.332433e+01	-9.486675e+00
3.351681e+01	-9.531209e+00
3.371040e+01	-9.575693e+00
3.390511e+01	-9.619948e+00
3.410094e+01	-9.664833e+00
3.429791e+01	-9.709344e+00
3.449601e+01	-9.754424e+00
3.469526e+01	-9.799174e+00
3.489566e+01	-9.843701e+00
3.509721e+01	-9.888939e+00
3.529993e+01	-9.933904e+00
3.550382e+01	-9.978366e+00
3.570889e+01	-1.002322e+01
3.591515e+01	-1.006882e+01
3.612259e+01	-1.011392e+01
3.633123e+01	-1.015869e+01
3.654108e+01	-1.020403e+01
3.675214e+01	-1.024965e+01
3.696442e+01	-1.029441e+01
3.717792e+01	-1.033992e+01
3.739266e+01	-1.038562e+01
3.760864e+01	-1.043112e+01
3.782587e+01	-1.047653e+01
3.804435e+01	-1.052227e+01
3.826409e+01	-1.056769e+01
3.848510e+01	-1.061339e+01
3.870739e+01	-1.065907e+01
3.893096e+01	-1.070464e+01
3.915583e+01	-1.075091e+01
3.938199e+01	-1.079679e+01
3.960946e+01	-1.084265e+01
3.983824e+01	-1.088799e+01
4.006834e+01	-1.093427e+01
4.029978e+01	-1.097967e+01
4.053255e+01	-1.102653e+01
4.076666e+01	-1.107256e+01
4.100213e+01	-1.111874e+01
4.123896e+01	-1.116485e+01
4.147715e+01	-1.121145e+01
4.171672e+01	-1.125691e+01
4.195767e+01	-1.130341e+01
4.220002e+01	-1.135018e+01
4.244377e+01	-1.139647e+01
4.268892e+01	-1.144281e+01
4.293549e+01	-1.148899e+01
4.318348e+01	-1.153562e+01
4.343291e+01	-1.158199e+01
4.368377e+01	-1.162853e+01
4.393609e+01	-1.167535e+01
4.418986e+01	-1.172187e+01
4.444510e+01	-1.176857e+01
4.470182e+01	-1.181533e+01
4.496001e+01	-1.186211e+01
4.521970e+01	-1.190864e+01
4.548089e+01	-1.195544e+01
4.574358e+01	-1.200226e+01
4.600779e+01	-1.204927e+01
4.627353e+01	-1.209646e+01
4.654081e+01	-1.214345e+01
4.680963e+01	-1.219024e+01
4.708000e+01	-1.223744e+01
4.735193e+01	-1.228463e+01
4.762543e+01	-1.233087e+01
4.790051e+01	-1.237837e+01
4.817719e+01	-1.242554e+01
4.845545e+01	-1.247276e+01
4.873533e+01	-1.251998e+01
4.901682e+01	-1.256749e+01
4.929994e+01	-1.261472e+01
4.958470e+01	-1.266132e+01
4.987110e+01	-1.270995e+01
5.015915e+01	-1.275649e+01
5.044887e+01	-1.280358e+01
5.074026e+01	-1.285084e+01
5.103333e+01	-1.289890e+01
5.132810e+01	-1.294623e+01
5.162457e+01	-1.299366e+01
5.192275e+01	-1.304141e+01
5.222265e+01	-1.308897e+01
5.252429e+01	-1.313689e+01
5.282767e+01	-1.318413e+01
5.313280e+01	-1.323200e+01
5.343969e+01	-1.327992e+01
5.374836e+01	-1.332754e+01
5.405880e+01	-1.337504e+01
5.437105e+01	-1.342217e+01
5.468509e+01	-1.347062e+01
5.500095e+01	-1.351854e+01
5.531863e+01	-1.356697e+01
5.563815e+01	-1.361351e+01
5.595951e+01	-1.366177e+01
5.628273e+01	-1.370925e+01
5.660782e+01	-1.375786e+01
5.693479e+01	-1.380522e+01
5.726364e+01	-1.385316e+01
5.759439e+01	-1.390119e+01
5.792705e+01	-1.394955e+01
5.826164e+01	-1.399703e+01
5.859815e+01	-1.404499e+01
5.893662e+01	-1.409355e+01
5.927703e+01	-1.414172e+01
5.961941e+01	-1.418910e+01
5.996377e+01	-1.423818e+01
6.031012e+01	-1.428575e+01
6.065847e+01	-1.433457e+01
6.100883e+01	-1.438217e+01
6.136121e+01	-1.443025e+01
6.171563e+01	-1.447916e+01
6.207210e+01	-1.452738e+01
6.243063e+01	-1.457499e+01
6.279122e+01	-1.462387e+01
6.315390e+01	-1.467197e+01
6.351868e+01	-1.471951e+01
6.388556e+01	-1.476830e+01
6.425456e+01	-1.481779e+01
6.462569e+01	-1.486578e+01
6.499897e+01	-1.491414e+01
6.537440e+01	-1.496176e+01
6.575200e+01	-1.501083e+01
6.613178e+01	-1.505922e+01
6.651375e+01	-1.510854e+01
6.689793e+01	-1.515668e+01
6.728433e+01	-1.520469e+01
6.767297e+01	-1.525313e+01
6.806384e+01	-1.530238e+01
6.845698e+01	-1.534955e+01
6.885238e+01	-1.539905e+01
6.925007e+01	-1.544713e+01
6.965005e+01	-1.549597e+01
7.005235e+01	-1.554397e+01
7.045697e+01	-1.559255e+01
7.086393e+01	-1.564194e+01
7.127323e+01	-1.569001e+01
7.168490e+01	-1.573882e+01
7.209895e+01	-1.578879e+01
7.251539e+01	-1.583663e+01
7.293424e+01	-1.588493e+01
7.335551e+01	-1.593518e+01
7.377920e+01	-1.598309e+01
7.420535e+01	-1.603160e+01
7.463396e+01	-1.608103e+01
7.506504e+01	-1.612933e+01
7.549861e+01	-1.617793e+01
7.593469e+01	-1.622667e+01
7.637328e+01	-1.627592e+01
7.681441e+01	-1.632452e+01
7.725809e+01	-1.637316e+01
7.770433e+01	-1.642086e+01
7.815315e+01	-1.647161e+01
7.860456e+01	-1.652048e+01
7.905857e+01	-1.657038e+01
7.951521e+01	-1.661851e+01
7.997449e+01	-1.666709e+01
8.043642e+01	-1.671584e+01
8.090102e+01	-1.676609e+01
8.136830e+01	-1.681456e+01
8.183828e+01	-1.686282e+01
8.231097e+01	-1.691196e+01
8.278640e+01	-1.696107e+01
8.326457e+01	-1.701053e+01
8.374550e+01	-1.705886e+01
8.422921e+01	-1.710838e+01
8.471572e+01	-1.715703e+01
8.520503e+01	-1.720514e+01
8.569717e+01	-1.725490e+01
8.619215e+01	-1.730490e+01
8.669000e+01	-1.735353e+01
8.719071e+01	-1.740178e+01
8.769432e+01	-1.745142e+01
8.820084e+01	-1.750134e+01
8.871029e+01	-1.755033e+01
8.922267e+01	-1.759868e+01
8.973802e+01	-1.764830e+01
9.025634e+01	-1.769767e+01
9.077766e+01	-1.774674e+01
9.130199e+01	-1.779498e+01
9.182935e+01	-1.784577e+01
9.235975e+01	-1.789536e+01
9.289321e+01	-1.794443e+01
9.342976e+01	-1.799296e+01
9.396941e+01	-1.804200e+01
9.451217e+01	-1.809092e+01
9.505807e+01	-1.814219e+01
9.560712e+01	-1.818944e+01
9.615934e+01	-1.823866e+01
9.671476e+01	-1.828929e+01
9.727338e+01	-1.833901e+01
9.783522e+01	-1.838631e+01
9.840032e+01	-1.843766e+01
9.896867e+01	-1.848574e+01
9.954031e+01	-1.853523e+01
1.001153e+02	-1.858333e+01
1.006935e+02	-1.863250e+01
1.012751e+02	-1.868488e+01
1.018601e+02	-1.873218e+01
1.024484e+02	-1.878087e+01
1.030402e+02	-1.883186e+01
1.036353e+02	-1.888079e+01
1.042339e+02	-1.893131e+01
1.048360e+02	-1.897904e+01
1.054415e+02	-1.902931e+01
1.060505e+02	-1.907906e+01
1.066631e+02	-1.912653e+01
1.072791e+02	-1.917759e+01
1.078988e+02	-1.922711e+01
1.085220e+02	-1.927484e+01
1.091488e+02	-1.932444e+01
1.097793e+02	-1.937471e+01
1.104133e+02	-1.942353e+01
1.110511e+02	-1.947433e+01
1.116925e+02	-1.952238e+01
1.123376e+02	-1.957326e+01
1.129865e+02	-1.962209e+01
1.136391e+02	-1.967139e+01
1.142955e+02	-1.972078e+01
1.149556e+02	-1.977144e+01
1.156196e+02	-1.982041e+01
1.162874e+02	-1.986829e+01
1.169591e+02	-1.991817e+01
1.176347e+02	-1.996940e+01
1.183141e+02	-2.001751e+01
1.189975e+02	-2.006874e+01
1.196848e+02	-2.011688e+01
1.203761e+02	-2.016753e+01
1.210714e+02	-2.021664e+01
1.217707e+02	-2.026541e+01
1.224740e+02	-2.031619e+01
1.231814e+02	-2.036490e+01
1.238929e+02	-2.041321e+01
1.246085e+02	-2.046481e+01
1.253283e+02	-2.051535e+01
1.260522e+02	-2.056594e+01
1.267802e+02	-2.061255e+01
1.275125e+02	-2.066193e+01
1.282490e+02	-2.071218e+01
1.289898e+02	-2.076242e+01
1.297348e+02	-2.081163e+01
1.304842e+02	-2.086022e+01
1.312378e+02	-2.091148e+01
1.319959e+02	-2.096038e+01
1.327583e+02	-2.100990e+01
1.335251e+02	-2.106095e+01
1.342963e+02	-2.111137e+01
1.350720e+02	-2.115901e+01
1.358522e+02	-2.120946e+01
1.366368e+02	-2.126009e+01
1.374260e+02	-2.130829e+01
1.382198e+02	-2.135943e+01
1.390182e+02	-2.140813e+01
1.398211e+02	-2.145593e+01
1.406287e+02	-2.150656e+01
1.414410e+02	-2.155574e+01
1.422579e+02	-2.160419e+01
1.430796e+02	-2.165720e+01
1.439060e+02	-2.170522e+01
1.447372e+02	-2.175378e+01
1.455732e+02	-2.180570e+01
1.464141e+02	-2.185318e+01
1.472597e+02	-2.190518e+01
1.481103e+02	-2.195280e+01
1.489658e+02	-2.200646e+01
1.498262e+02	-2.205330e+01
1.506916e+02	-2.210252e+01
1.515620e+02	-2.215365e+01
1.524374e+02	-2.220372e+01
1.533179e+02	-2.225079e+01
1.542034e+02	-2.230429e+01
1.550941e+02	-2.235362e+01
1.559899e+02	-2.240141e+01
1.568909e+02	-2.245157e+01
1.577971e+02	-2.249962e+01
1.587085e+02	-2.255164e+01
1.596252e+02	-2.260070e+01
1.605472e+02	-2.264969e+01
1.614745e+02	-2.270116e+01
1.624072e+02	-2.275006e+01
1.633453e+02	-2.280112e+01
1.642887e+02	-2.284869e+01
1.652377e+02	-2.290000e+01
1.661921e+02	-2.294994e+01
1.671520e+02	-2.299903e+01
1.681175e+02	-2.304912e+01
1.690885e+02	-2.309797e+01
1.700651e+02	-2.314848e+01
1.710474e+02	-2.319785e+01
1.720354e+02	-2.324896e+01
1.730291e+02	-2.329694e+01
1.740285e+02	-2.334852e+01
1.750337e+02	-2.339708e+01
1.760446e+02	-2.344828e+01
1.770615e+02	-2.349874e+01
1.780842e+02	-2.354855e+01
1.791128e+02	-2.359787e+01
1.801473e+02	-2.364728e+01
1.811878e+02	-2.369528e+01
1.822344e+02	-2.374808e+01
1.832870e+02	-2.379455e+01
1.843456e+02	-2.384654e+01
1.854104e+02	-2.389690e+01
1.864813e+02	-2.394520e+01
1.875584e+02	-2.399701e+01
1.886418e+02	-2.404514e+01
1.897313e+02	-2.409492e+01
1.908272e+02	-2.414530e+01
1.919294e+02	-2.419658e+01
1.930380e+02	-2.424510e+01
1.941530e+02	-2.429247e+01
1.952744e+02	-2.434592e+01
1.964023e+02	-2.439614e+01
1.975367e+02	-2.444416e+01
1.986777e+02	-2.449603e+01
1.998252e+02	-2.454631e+01
2.009794e+02	-2.459290e+01
2.021403e+02	-2.464548e+01
2.033078e+02	-2.469448e+01
2.044821e+02	-2.474138e+01
2.056632e+02	-2.479633e+01
2.068511e+02	-2.484102e+01
2.080459e+02	-2.489320e+01
2.092475e+02	-2.494455e+01
2.104561e+02	-2.499409e+01
2.116717e+02	-2.504417e+01
2.128943e+02	-2.509255e+01
2.141240e+02	-2.514409e+01
2.153608e+02	-2.519680e+01
2.166047e+02	-2.524621e+01
2.178558e+02	-2.529177e+01
2.191141e+02	-2.534312e+01
2.203797e+02	-2.539360e+01
2.216526e+02	-2.544169e+01
2.229329e+02	-2.549148e+01
2.242205e+02	-2.554053e+01
2.255156e+02	-2.559505e+01
2.268182e+02	-2.564371e+01
2.281283e+02	-2.569245e+01
2.294459e+02	-2.574100e+01
2.307712e+02	-2.579144e+01
2.321041e+02	-2.584329e+01
2.334447e+02	-2.589157e+01
2.347931e+02	-2.594344e+01
2.361493e+02	-2.599517e+01
2.375133e+02	-2.604477e+01
2.388851e+02	-2.609366e+01
2.402649e+02	-2.614278e+01
2.416527e+02	-2.619433e+01
2.430484e+02	-2.624344e+01
2.444523e+02	-2.629083e+01
2.458642e+02	-2.634371e+01
2.472843e+02	-2.639024e+01
2.487126e+02	-2.644102e+01
2.501492e+02	-2.649001e+01
2.515940e+02	-2.654309e+01
2.530472e+02	-2.659063e+01
2.545088e+02	-2.664018e+01
2.559789e+02	-2.669635e+01
2.574574e+02	-2.674163e+01
2.589444e+02	-2.679496e+01
2.604401e+02	-2.684278e+01
2.619444e+02	-2.688975e+01
2.634574e+02	-2.694174e+01
2.649791e+02	-2.699170e+01
2.665096e+02	-2.704064e+01
2.680489e+02	-2.708913e+01
2.695972e+02	-2.714243e+01
2.711544e+02	-2.719076e+01
2.727205e+02	-2.724256e+01
2.742958e+02	-2.729166e+01
2.758801e+02	-2.734528e+01
2.774736e+02	-2.739067e+01
2.790762e+02	-2.743971e+01
2.806882e+02	-2.749204e+01
2.823094e+02	-2.754089e+01
2.839400e+02	-2.758955e+01
2.855800e+02	-2.764310e+01
2.872295e+02	-2.769274e+01
2.888886e+02	-2.774404e+01
2.905572e+02	-2.779287e+01
2.922354e+02	-2.784138e+01
2.939234e+02	-2.789257e+01
2.956211e+02	-2.794135e+01
2.973286e+02	-2.799546e+01
2.990459e+02	-2.804142e+01
3.007732e+02	-2.809223e+01
3.025104e+02	-2.814007e+01
3.042577e+02	-2.819238e+01
3.060151e+02	-2.824378e+01
3.077826e+02	-2.828979e+01
3.095604e+02	-2.834360e+01
3.113484e+02	-2.839081e+01
3.131467e+02	-2.844087e+01
3.149554e+02	-2.849265e+01
3.167746e+02	-2.854721e+01
3.186043e+02	-2.859079e+01
3.204445e+02	-2.864092e+01
3.222954e+02	-2.869067e+01
3.241570e+02	-2.874084e+01
3.260293e+02	-2.879213e+01
3.279124e+02	-2.884608e+01
3.298064e+02	-2.889429e+01
3.317114e+02	-2.894277e+01
3.336273e+02	-2.899464e+01
3.355544e+02	-2.904659e+01
3.374925e+02	-2.909113e+01
3.394418e+02	-2.914426e+01
3.414024e+02	-2.919392e+01
3.433744e+02	-2.924362e+01
3.453577e+02	-2.929719e+01
3.473525e+02	-2.933876e+01
3.493588e+02	-2.939574e+01
3.513766e+02	-2.944689e+01
3.534062e+02	-2.949108e+01
3.554474e+02	-2.954185e+01
3.575005e+02	-2.959240e+01
3.595654e+02	-2.965036e+01
3.616422e+02	-2.969522e+01
3.637311e+02	-2.974216e+01
3.658320e+02	-2.979790e+01
3.679450e+02	-2.984222e+01
3.700702e+02	-2.989019e+01
3.722077e+02	-2.994453e+01
3.743576e+02	-2.999249e+01
3.765199e+02	-3.004525e+01
3.786946e+02	-3.009411e+01
3.808820e+02	-3.014960e+01
3.830819e+02	-3.019656e+01
3.852946e+02	-3.024475e+01
3.875200e+02	-3.029139e+01
3.897583e+02	-3.034243e+01
3.920096e+02	-3.039621e+01
3.942738e+02	-3.044644e+01
3.965511e+02	-3.050161e+01
3.988416e+02	-3.054454e+01
4.011452e+02	-3.059675e+01
4.034622e+02	-3.064918e+01
4.057926e+02	-3.069342e+01
4.081365e+02	-3.074607e+01
4.104938e+02	-3.080161e+01
4.128648e+02	-3.085245e+01
4.152495e+02	-3.089497e+01
4.176480e+02	-3.094575e+01
4.200603e+02	-3.099663e+01
4.224866e+02	-3.104896e+01
4.249268e+02	-3.110028e+01
4.273812e+02	-3.114639e+01
4.298497e+02	-3.120325e+01
4.323325e+02	-3.125186e+01
4.348297e+02	-3.129612e+01
4.373412e+02	-3.134810e+01
4.398673e+02	-3.139968e+01
4.424079e+02	-3.144678e+01
4.449633e+02	-3.150323e+01
4.475334e+02	-3.155554e+01
4.501183e+02	-3.159748e+01
4.527182e+02	-3.164909e+01
4.553330e+02	-3.169826e+01
4.579630e+02	-3.175211e+01
4.606082e+02	-3.180480e+01
4.632687e+02	-3.184904e+01
4.659445e+02	-3.190380e+01
4.686358e+02	-3.194603e+01
4.713426e+02	-3.200050e+01
4.740650e+02	-3.205281e+01
4.768032e+02	-3.209915e+01
4.795572e+02	-3.215239e+01
4.823271e+02	-3.220389e+01
4.851130e+02	-3.225235e+01
4.879150e+02	-3.229875e+01
4.907332e+02	-3.235717e+01
4.935676e+02	-3.240415e+01
4.964185e+02	-3.245569e+01
4.992858e+02	-3.250665e+01
5.021696e+02	-3.255632e+01
5.050701e+02	-3.260475e+01
5.079874e+02	-3.265892e+01
5.109215e+02	-3.270496e+01
5.138726e+02	-3.275267e+01
5.168407e+02	-3.281204e+01
5.198259e+02	-3.285881e+01
5.228284e+02	-3.290656e+01
5.258482e+02	-3.295317e+01
5.288855e+02	-3.300336e+01
5.319403e+02	-3.305591e+01
5.350128e+02	-3.310386e+01
5.381030e+02	-3.315311e+01
5.412111e+02	-3.320972e+01
5.443371e+02	-3.326230e+01
5.474812e+02	-3.330589e+01
5.506434e+02	-3.335750e+01
5.538239e+02	-3.341617e+01
5.570228e+02	-3.346627e+01
5.602401e+02	-3.351250e+01
5.634760e+02	-3.356402e+01
5.667306e+02	-3.360931e+01
5.700040e+02	-3.366222e+01
5.732964e+02	-3.371423e+01
5.766077e+02	-3.376419e+01
5.799382e+02	-3.381463e+01
5.832879e+02	-3.386648e+01
5.866569e+02	-3.390970e+01
5.900454e+02	-3.396464e+01
5.934535e+02	-3.400905e+01
5.968813e+02	-3.406712e+01
6.003288e+02	-3.411345e+01
6.037963e+02	-3.416654e+01
6.072838e+02	-3.420875e+01
6.107914e+02	-3.426913e+01
6.143194e+02	-3.431248e+01
6.178676e+02	-3.437324e+01
6.214364e+02	-3.441189e+01
6.250258e+02	-3.446784e+01
6.286359e+02	-3.451271e+01
6.322669e+02	-3.458289e+01
6.359189e+02	-3.461949e+01
6.395919e+02	-3.467145e+01
6.432862e+02	-3.472063e+01
6.470017e+02	-3.476178e+01
6.507388e+02	-3.481903e+01
6.544974e+02	-3.487387e+01
6.582778e+02	-3.491948e+01
6.620800e+02	-3.498040e+01
6.659041e+02	-3.502709e+01
6.697504e+02	-3.507049e+01
6.736188e+02	-3.512188e+01
6.775096e+02	-3.516752e+01
6.814229e+02	-3.522894e+01
6.853587e+02	-3.527318e+01
6.893173e+02	-3.532939e+01
6.932988e+02	-3.537897e+01
6.973033e+02	-3.543082e+01
7.013309e+02	-3.547701e+01
