Frequency(Hz)	Magnitude(dB)
1.000000e+01	-2.094130e+00
1.005776e+01	-2.113506e+00
1.011585e+01	-2.132753e+00
1.017428e+01	-2.152271e+00
1.023305e+01	-2.171985e+00
1.029215e+01	-2.191897e+00
1.035160e+01	-2.211579e+00
1.041139e+01	-2.231394e+00
1.047153e+01	-2.251757e+00
1.053201e+01	-2.271862e+00
1.059284e+01	-2.292366e+00
1.065403e+01	-2.313134e+00
1.071556e+01	-2.333950e+00
1.077746e+01	-2.354902e+00
1.083971e+01	-2.375520e+00
1.090232e+01	-2.396760e+00
1.096529e+01	-2.418058e+00
1.102862e+01	-2.439259e+00
1.109232e+01	-2.461191e+00
1.115639e+01	-2.482775e+00
1.122083e+01	-2.504739e+00
1.128564e+01	-2.526844e+00
1.135083e+01	-2.548835e+00
1.141639e+01	-2.570972e+00
1.148233e+01	-2.593732e+00
1.154865e+01	-2.616129e+00
1.161536e+01	-2.638870e+00
1.168245e+01	-2.661737e+00
1.174992e+01	-2.684480e+00
1.181779e+01	-2.707926e+00
1.188605e+01	-2.731171e+00
1.195470e+01	-2.754516e+00
1.202375e+01	-2.778206e+00
1.209320e+01	-2.801838e+00
1.216305e+01	-2.825828e+00
1.223330e+01	-2.849572e+00
1.230396e+01	-2.873648e+00
1.237503e+01	-2.898247e+00
1.244651e+01	-2.922487e+00
1.251840e+01	-2.947042e+00
1.259070e+01	-2.971597e+00
1.266343e+01	-2.996509e+00
1.273657e+01	-3.021641e+00
1.281014e+01	-3.047061e+00
1.288413e+01	-3.072033e+00
1.295855e+01	-3.097385e+00
1.303339e+01	-3.122997e+00
1.310867e+01	-3.148896e+00
1.318439e+01	-3.174519e+00
1.326054e+01	-3.200755e+00
1.333713e+01	-3.226801e+00
1.341417e+01	-3.253175e+00
1.349165e+01	-3.279795e+00
1.356958e+01	-3.306054e+00
1.364795e+01	-3.332934e+00
1.372678e+01	-3.359883e+00
1.380607e+01	-3.386533e+00
1.388581e+01	-3.414299e+00
1.396602e+01	-3.441489e+00
1.404668e+01	-3.468787e+00
1.412782e+01	-3.496474e+00
1.420942e+01	-3.524253e+00
1.429149e+01	-3.551649e+00
1.437404e+01	-3.579894e+00
1.445706e+01	-3.608160e+00
1.454057e+01	-3.636484e+00
1.462455e+01	-3.664732e+00
1.470902e+01	-3.693502e+00
1.479398e+01	-3.722196e+00
1.487943e+01	-3.751085e+00
1.496537e+01	-3.780235e+00
1.505181e+01	-3.809365e+00
1.513875e+01	-3.838467e+00
1.522619e+01	-3.868085e+00
1.531414e+01	-3.897327e+00
1.540259e+01	-3.927286e+00
1.549156e+01	-3.957129e+00
1.558103e+01	-3.987225e+00
1.567103e+01	-4.017046e+00
1.576155e+01	-4.047421e+00
1.585258e+01	-4.077901e+00
1.594415e+01	-4.108134e+00
1.603624e+01	-4.138964e+00
1.612886e+01	-4.169594e+00
1.622202e+01	-4.200810e+00
1.631572e+01	-4.231844e+00
1.640996e+01	-4.262830e+00
1.650474e+01	-4.294432e+00
1.660008e+01	-4.325544e+00
1.669596e+01	-4.357562e+00
1.679239e+01	-4.389551e+00
1.688938e+01	-4.420879e+00
1.698694e+01	-4.453159e+00
1.708505e+01	-4.485094e+00
1.718373e+01	-4.517549e+00
1.728299e+01	-4.549992e+00
1.738281e+01	-4.582607e+00
1.748322e+01	-4.615185e+00
1.758420e+01	-4.648237e+00
1.768576e+01	-4.681104e+00
1.778792e+01	-4.713789e+00
1.789066e+01	-4.747019e+00
1.799399e+01	-4.780448e+00
1.809793e+01	-4.813873e+00
1.820246e+01	-4.847429e+00
1.830760e+01	-4.881195e+00
1.841334e+01	-4.914873e+00
1.851969e+01	-4.949234e+00
1.862666e+01	-4.983226e+00
1.873425e+01	-5.017211e+00
1.884246e+01	-5.051768e+00
1.895129e+01	-5.086097e+00
1.906075e+01	-5.120520e+00
1.917085e+01	-5.155258e+00
1.928158e+01	-5.189901e+00
1.939295e+01	-5.225102e+00
1.950496e+01	-5.260310e+00
1.961762e+01	-5.295264e+00
1.973093e+01	-5.330692e+00
1.984490e+01	-5.366149e+00
1.995952e+01	-5.401748e+00
2.007480e+01	-5.437313e+00
2.019076e+01	-5.473181e+00
2.030738e+01	-5.509028e+00
2.042467e+01	-5.544900e+00
2.054264e+01	-5.581122e+00
2.066130e+01	-5.617315e+00
2.078064e+01	-5.653623e+00
2.090066e+01	-5.690213e+00
2.102139e+01	-5.726731e+00
2.114280e+01	-5.763245e+00
2.126492e+01	-5.800134e+00
2.138775e+01	-5.837082e+00
2.151128e+01	-5.874294e+00
2.163553e+01	-5.911736e+00
2.176050e+01	-5.948597e+00
2.188619e+01	-5.986039e+00
2.201260e+01	-6.023589e+00
2.213974e+01	-6.060760e+00
2.226762e+01	-6.098854e+00
2.239624e+01	-6.136822e+00
2.252560e+01	-6.174629e+00
2.265571e+01	-6.212441e+00
2.278656e+01	-6.250049e+00
2.291818e+01	-6.288938e+00
2.305055e+01	-6.326857e+00
2.318369e+01	-6.365515e+00
2.331760e+01	-6.404053e+00
2.345228e+01	-6.442602e+00
2.358774e+01	-6.481371e+00
2.372398e+01	-6.520490e+00
2.386101e+01	-6.559351e+00
2.399883e+01	-6.598341e+00
2.413745e+01	-6.637164e+00
2.427686e+01	-6.676421e+00
2.441709e+01	-6.715703e+00
2.455812e+01	-6.755091e+00
2.469997e+01	-6.794791e+00
2.484263e+01	-6.834379e+00
2.498612e+01	-6.874253e+00
2.513044e+01	-6.913717e+00
2.527559e+01	-6.953871e+00
2.542158e+01	-6.993723e+00
2.556842e+01	-7.034181e+00
2.571610e+01	-7.073671e+00
2.586463e+01	-7.114374e+00
2.601403e+01	-7.154790e+00
2.616428e+01	-7.195136e+00
2.631541e+01	-7.235529e+00
2.646740e+01	-7.276380e+00
2.662028e+01	-7.316838e+00
2.677404e+01	-7.357555e+00
2.692868e+01	-7.398408e+00
2.708422e+01	-7.439522e+00
2.724066e+01	-7.480351e+00
2.739800e+01	-7.521624e+00
2.755625e+01	-7.562901e+00
2.771541e+01	-7.604151e+00
2.787550e+01	-7.645364e+00
2.803650e+01	-7.686830e+00
2.819844e+01	-7.728317e+00
2.836131e+01	-7.770223e+00
2.852513e+01	-7.812010e+00
2.868989e+01	-7.853752e+00
2.885560e+01	-7.895177e+00
2.902227e+01	-7.937499e+00
2.918990e+01	-7.979489e+00
2.935850e+01	-8.021643e+00
2.952807e+01	-8.063669e+00
2.969863e+01	-8.106433e+00
2.987016e+01	-8.148394e+00
3.004269e+01	-8.190918e+00
3.021622e+01	-8.233516e+00
3.039075e+01	-8.275802e+00
3.056628e+01	-8.318893e+00
3.074283e+01	-8.360813e+00
3.092040e+01	-8.404051e+00
3.109900e+01	-8.446567e+00
3.127862e+01	-8.489328e+00
3.145929e+01	-8.532434e+00
3.164099e+01	-8.575506e+00
3.182375e+01	-8.618868e+00
3.200756e+01	-8.661849e+00
3.219244e+01	-8.705099e+00
3.237838e+01	-8.748726e+00
3.256540e+01	-8.791924e+00
3.275349e+01	-8.835466e+00
3.294268e+01	-8.879280e+00
3.313295e+01	-8.922467e+00
3.332433e+01	-8.966204e+00
3.351681e+01	-9.009774e+00
3.371040e+01	-9.053395e+00
3.390511e+01	-9.097191e+00
3.410094e+01	-9.141400e+00
3.429791e+01	-9.185754e+00
3.449601e+01	-9.229474e+00
3.469526e+01	-9.273465e+00
3.489566e+01	-9.317194e+00
3.509721e+01	-9.362041e+00
3.529993e+01	-9.405985e+00
3.550382e+01	-9.450531e+00
3.570889e+01	-9.494659e+00
3.591515e+01	-9.539430e+00
3.612259e+01	-9.583714e+00
3.633123e+01	-9.628049e+00
3.654108e+01	-9.672689e+00
3.675214e+01	-9.717328e+00
3.696442e+01	-9.761871e+00
3.717792e+01	-9.806665e+00
3.739266e+01	-9.851409e+00
3.760864e+01	-9.896958e+00
3.782587e+01	-9.941460e+00
3.804435e+01	-9.986650e+00
3.826409e+01	-1.003201e+01
3.848510e+01	-1.007664e+01
3.870739e+01	-1.012113e+01
3.893096e+01	-1.016729e+01
3.915583e+01	-1.021236e+01
3.938199e+01	-1.025776e+01
3.960946e+01	-1.030261e+01
3.983824e+01	-1.034793e+01
4.006834e+01	-1.039354e+01
4.029978e+01	-1.043887e+01
4.053255e+01	-1.048465e+01
4.076666e+01	-1.053031e+01
4.100213e+01	-1.057543e+01
4.123896e+01	-1.062129e+01
4.147715e+01	-1.066707e+01
4.171672e+01	-1.071292e+01
4.195767e+01	-1.075918e+01
4.220002e+01	-1.080499e+01
4.244377e+01	-1.085041e+01
4.268892e+01	-1.089608e+01
4.293549e+01	-1.094154e+01
4.318348e+01	-1.098864e+01
4.343291e+01	-1.103498e+01
4.368377e+01	-1.108053e+01
4.393609e+01	-1.112667e+01
4.418986e+01	-1.117281e+01
4.444510e+01	-1.121916e+01
4.470182e+01	-1.126558e+01
4.496001e+01	-1.131155e+01
4.521970e+01	-1.135808e+01
4.548089e+01	-1.140476e+01
4.574358e+01	-1.145102e+01
4.600779e+01	-1.149769e+01
4.627353e+01	-1.154358e+01
4.654081e+01	-1.159046e+01
4.680963e+01	-1.163689e+01
4.708000e+01	-1.168320e+01
4.735193e+01	-1.173077e+01
4.762543e+01	-1.177730e+01
4.790051e+01	-1.182425e+01
4.817719e+01	-1.187081e+01
4.845545e+01	-1.191733e+01
4.873533e+01	-1.196403e+01
4.901682e+01	-1.201082e+01
4.929994e+01	-1.205793e+01
4.958470e+01	-1.210469e+01
4.987110e+01	-1.215216e+01
5.015915e+01	-1.219919e+01
5.044887e+01	-1.224604e+01
5.074026e+01	-1.229248e+01
5.103333e+01	-1.233991e+01
5.132810e+01	-1.238718e+01
5.162457e+01	-1.243486e+01
5.192275e+01	-1.248107e+01
5.222265e+01	-1.252868e+01
5.252429e+01	-1.257618e+01
5.282767e+01	-1.262351e+01
5.313280e+01	-1.267024e+01
5.343969e+01	-1.271735e+01
5.374836e+01	-1.276504e+01
5.405880e+01	-1.281165e+01
5.437105e+01	-1.285996e+01
5.468509e+01	-1.290680e+01
5.500095e+01	-1.295499e+01
5.531863e+01	-1.300212e+01
5.563815e+01	-1.304986e+01
5.595951e+01	-1.309753e+01
5.628273e+01	-1.314627e+01
5.660782e+01	-1.319233e+01
5.693479e+01	-1.324066e+01
5.726364e+01	-1.328770e+01
5.759439e+01	-1.333558e+01
5.792705e+01	-1.338339e+01
5.826164e+01	-1.343104e+01
5.859815e+01	-1.347894e+01
5.893662e+01	-1.352720e+01
5.927703e+01	-1.357407e+01
5.961941e+01	-1.362206e+01
5.996377e+01	-1.367017e+01
6.031012e+01	-1.371828e+01
6.065847e+01	-1.376614e+01
6.100883e+01	-1.381484e+01
6.136121e+01	-1.386244e+01
6.171563e+01	-1.391037e+01
6.207210e+01	-1.395730e+01
6.243063e+01	-1.400599e+01
6.279122e+01	-1.405464e+01
6.315390e+01	-1.410279e+01
6.351868e+01	-1.414985e+01
6.388556e+01	-1.419785e+01
6.425456e+01	-1.424632e+01
6.462569e+01	-1.429529e+01
6.499897e+01	-1.434282e+01
6.537440e+01	-1.439098e+01
6.575200e+01	-1.443867e+01
6.613178e+01	-1.448729e+01
6.651375e+01	-1.453649e+01
6.689793e+01	-1.458430e+01
6.728433e+01	-1.463218e+01
6.767297e+01	-1.467947e+01
6.806384e+01	-1.472882e+01
6.845698e+01	-1.477726e+01
6.885238e+01	-1.482517e+01
6.925007e+01	-1.487459e+01
6.965005e+01	-1.492261e+01
7.005235e+01	-1.497047e+01
7.045697e+01	-1.501864e+01
7.086393e+01	-1.506864e+01
7.127323e+01	-1.511648e+01
7.168490e+01	-1.516440e+01
7.209895e+01	-1.521266e+01
7.251539e+01	-1.526170e+01
7.293424e+01	-1.531058e+01
7.335551e+01	-1.535863e+01
7.377920e+01	-1.540741e+01
7.420535e+01	-1.545659e+01
7.463396e+01	-1.550510e+01
7.506504e+01	-1.555345e+01
7.549861e+01	-1.560201e+01
7.593469e+01	-1.565010e+01
7.637328e+01	-1.569900e+01
7.681441e+01	-1.574838e+01
7.725809e+01	-1.579555e+01
7.770433e+01	-1.584608e+01
7.815315e+01	-1.589438e+01
7.860456e+01	-1.594233e+01
7.905857e+01	-1.599115e+01
7.951521e+01	-1.604058e+01
7.997449e+01	-1.608922e+01
8.043642e+01	-1.613792e+01
8.090102e+01	-1.618689e+01
8.136830e+01	-1.623642e+01
8.183828e+01	-1.628456e+01
8.231097e+01	-1.633364e+01
8.278640e+01	-1.638286e+01
8.326457e+01	-1.643116e+01
8.374550e+01	-1.647993e+01
8.422921e+01	-1.653053e+01
8.471572e+01	-1.657856e+01
8.520503e+01	-1.662647e+01
8.569717e+01	-1.667593e+01
8.619215e+01	-1.672480e+01
8.669000e+01	-1.677407e+01
8.719071e+01	-1.682280e+01
8.769432e+01	-1.687044e+01
8.820084e+01	-1.691975e+01
8.871029e+01	-1.696980e+01
8.922267e+01	-1.701908e+01
8.973802e+01	-1.706752e+01
9.025634e+01	-1.711641e+01
9.077766e+01	-1.716515e+01
9.130199e+01	-1.721348e+01
9.182935e+01	-1.726445e+01
9.235975e+01	-1.731295e+01
9.289321e+01	-1.736270e+01
9.342976e+01	-1.741259e+01
9.396941e+01	-1.746004e+01
9.451217e+01	-1.750951e+01
9.505807e+01	-1.755827e+01
9.560712e+01	-1.760702e+01
9.615934e+01	-1.765697e+01
9.671476e+01	-1.770710e+01
9.727338e+01	-1.775490e+01
9.783522e+01	-1.780490e+01
9.840032e+01	-1.785303e+01
9.896867e+01	-1.790258e+01
9.954031e+01	-1.795259e+01
1.001153e+02	-1.800279e+01
1.006935e+02	-1.805167e+01
1.012751e+02	-1.809998e+01
1.018601e+02	-1.814869e+01
1.024484e+02	-1.819867e+01
1.030402e+02	-1.824689e+01
1.036353e+02	-1.829785e+01
1.042339e+02	-1.834633e+01
1.048360e+02	-1.839665e+01
1.054415e+02	-1.844557e+01
1.060505e+02	-1.849457e+01
1.066631e+02	-1.854455e+01
1.072791e+02	-1.859197e+01
1.078988e+02	-1.864133e+01
1.085220e+02	-1.869260e+01
1.091488e+02	-1.874080e+01
1.097793e+02	-1.878986e+01
1.104133e+02	-1.884067e+01
1.110511e+02	-1.889029e+01
1.116925e+02	-1.893802e+01
1.123376e+02	-1.898781e+01
1.129865e+02	-1.903831e+01
1.136391e+02	-1.908664e+01
1.142955e+02	-1.913580e+01
1.149556e+02	-1.918450e+01
1.156196e+02	-1.923469e+01
1.162874e+02	-1.928490e+01
1.169591e+02	-1.933279e+01
1.176347e+02	-1.938276e+01
1.183141e+02	-1.943354e+01
1.189975e+02	-1.948189e+01
1.196848e+02	-1.953300e+01
1.203761e+02	-1.958148e+01
1.210714e+02	-1.963305e+01
1.217707e+02	-1.967983e+01
1.224740e+02	-1.973127e+01
1.231814e+02	-1.977968e+01
1.238929e+02	-1.982856e+01
1.246085e+02	-1.987875e+01
1.253283e+02	-1.992731e+01
1.260522e+02	-1.997774e+01
1.267802e+02	-2.002745e+01
1.275125e+02	-2.007778e+01
1.282490e+02	-2.012720e+01
1.289898e+02	-2.017713e+01
1.297348e+02	-2.022501e+01
1.304842e+02	-2.027558e+01
1.312378e+02	-2.032368e+01
1.319959e+02	-2.037415e+01
1.327583e+02	-2.042461e+01
1.335251e+02	-2.047284e+01
1.342963e+02	-2.052338e+01
1.350720e+02	-2.057248e+01
1.358522e+02	-2.062182e+01
1.366368e+02	-2.067166e+01
1.374260e+02	-2.072060e+01
1.382198e+02	-2.077059e+01
1.390182e+02	-2.081925e+01
1.398211e+02	-2.087047e+01
1.406287e+02	-2.092068e+01
1.414410e+02	-2.096776e+01
1.422579e+02	-2.102046e+01
1.430796e+02	-2.106941e+01
1.439060e+02	-2.111796e+01
1.447372e+02	-2.116701e+01
1.455732e+02	-2.121892e+01
1.464141e+02	-2.126667e+01
1.472597e+02	-2.131875e+01
1.481103e+02	-2.136725e+01
1.489658e+02	-2.141664e+01
1.498262e+02	-2.146610e+01
1.506916e+02	-2.151498e+01
1.515620e+02	-2.156526e+01
1.524374e+02	-2.161646e+01
1.533179e+02	-2.166344e+01
1.542034e+02	-2.171547e+01
1.550941e+02	-2.176470e+01
1.559899e+02	-2.181304e+01
1.568909e+02	-2.186415e+01
1.577971e+02	-2.191347e+01
1.587085e+02	-2.196293e+01
1.596252e+02	-2.201453e+01
1.605472e+02	-2.206270e+01
1.614745e+02	-2.211242e+01
1.624072e+02	-2.216254e+01
1.633453e+02	-2.221355e+01
1.642887e+02	-2.226182e+01
1.652377e+02	-2.231048e+01
1.661921e+02	-2.235991e+01
1.671520e+02	-2.241144e+01
1.681175e+02	-2.246043e+01
1.690885e+02	-2.250880e+01
1.700651e+02	-2.255819e+01
1.710474e+02	-2.261019e+01
1.720354e+02	-2.265834e+01
1.730291e+02	-2.271094e+01
1.740285e+02	-2.275886e+01
1.750337e+02	-2.280746e+01
1.760446e+02	-2.285772e+01
1.770615e+02	-2.291046e+01
1.780842e+02	-2.295804e+01
1.791128e+02	-2.300621e+01
1.801473e+02	-2.305926e+01
1.811878e+02	-2.310740e+01
1.822344e+02	-2.315760e+01
1.832870e+02	-2.320661e+01
1.843456e+02	-2.325633e+01
1.854104e+02	-2.330532e+01
1.864813e+02	-2.335649e+01
1.875584e+02	-2.340739e+01
1.886418e+02	-2.345507e+01
1.897313e+02	-2.350471e+01
1.908272e+02	-2.355574e+01
1.919294e+02	-2.360618e+01
1.930380e+02	-2.365582e+01
1.941530e+02	-2.370393e+01
1.952744e+02	-2.375491e+01
1.964023e+02	-2.380419e+01
1.975367e+02	-2.385724e+01
1.986777e+02	-2.390336e+01
1.998252e+02	-2.395358e+01
2.009794e+02	-2.400458e+01
2.021403e+02	-2.405508e+01
2.033078e+02	-2.410244e+01
2.044821e+02	-2.415238e+01
2.056632e+02	-2.420325e+01
2.068511e+02	-2.425303e+01
2.080459e+02	-2.430418e+01
2.092475e+02	-2.435484e+01
2.104561e+02	-2.440235e+01
2.116717e+02	-2.445358e+01
2.128943e+02	-2.450327e+01
2.141240e+02	-2.455426e+01
2.153608e+02	-2.460489e+01
2.166047e+02	-2.465315e+01
2.178558e+02	-2.470052e+01
2.191141e+02	-2.475293e+01
2.203797e+02	-2.479999e+01
2.216526e+02	-2.485119e+01
2.229329e+02	-2.490386e+01
2.242205e+02	-2.495152e+01
2.255156e+02	-2.500053e+01
2.268182e+02	-2.505239e+01
2.281283e+02	-2.510168e+01
2.294459e+02	-2.515073e+01
2.307712e+02	-2.520119e+01
2.321041e+02	-2.525032e+01
2.334447e+02	-2.530053e+01
2.347931e+02	-2.535114e+01
2.361493e+02	-2.540077e+01
2.375133e+02	-2.545276e+01
2.388851e+02	-2.550525e+01
2.402649e+02	-2.555224e+01
2.416527e+02	-2.560033e+01
2.430484e+02	-2.565229e+01
2.444523e+02	-2.570284e+01
2.458642e+02	-2.575295e+01
2.472843e+02	-2.579955e+01
2.487126e+02	-2.585044e+01
2.501492e+02	-2.590025e+01
2.515940e+02	-2.595349e+01
2.530472e+02	-2.599914e+01
2.545088e+02	-2.604806e+01
2.559789e+02	-2.610122e+01
2.574574e+02	-2.615356e+01
2.589444e+02	-2.620275e+01
2.604401e+02	-2.625317e+01
2.619444e+02	-2.630003e+01
2.634574e+02	-2.635133e+01
2.649791e+02	-2.639919e+01
2.665096e+02	-2.645029e+01
2.680489e+02	-2.649975e+01
2.695972e+02	-2.655227e+01
2.711544e+02	-2.660190e+01
2.727205e+02	-2.664887e+01
2.742958e+02	-2.669951e+01
2.758801e+02	-2.674689e+01
2.774736e+02	-2.680227e+01
2.790762e+02	-2.685157e+01
2.806882e+02	-2.690027e+01
2.823094e+02	-2.695137e+01
2.839400e+02	-2.699785e+01
2.855800e+02	-2.704704e+01
2.872295e+02	-2.710097e+01
2.888886e+02	-2.715147e+01
2.905572e+02	-2.719765e+01
2.922354e+02	-2.724889e+01
2.939234e+02	-2.729941e+01
2.956211e+02	-2.735009e+01
2.973286e+02	-2.739990e+01
2.990459e+02	-2.744722e+01
3.007732e+02	-2.750025e+01
3.025104e+02	-2.754894e+01
3.042577e+02	-2.760246e+01
3.060151e+02	-2.765247e+01
3.077826e+02	-2.769699e+01
3.095604e+02	-2.775305e+01
3.113484e+02	-2.780115e+01
3.131467e+02	-2.785304e+01
3.149554e+02	-2.789699e+01
3.167746e+02	-2.794976e+01
3.186043e+02	-2.800168e+01
3.204445e+02	-2.805133e+01
3.222954e+02	-2.810014e+01
3.241570e+02	-2.815134e+01
3.260293e+02	-2.820193e+01
3.279124e+02	-2.825071e+01
3.298064e+02	-2.830191e+01
3.317114e+02	-2.834949e+01
3.336273e+02	-2.840274e+01
3.355544e+02	-2.845125e+01
3.374925e+02	-2.849858e+01
3.394418e+02	-2.855388e+01
3.414024e+02	-2.860044e+01
3.433744e+02	-2.865214e+01
3.453577e+02	-2.870173e+01
3.473525e+02	-2.875081e+01
3.493588e+02	-2.880128e+01
3.513766e+02	-2.885058e+01
3.534062e+02	-2.890296e+01
3.554474e+02	-2.894547e+01
3.575005e+02	-2.900524e+01
3.595654e+02	-2.905184e+01
3.616422e+02	-2.910043e+01
3.637311e+02	-2.914984e+01
3.658320e+02	-2.920259e+01
3.679450e+02	-2.925481e+01
3.700702e+02	-2.930572e+01
3.722077e+02	-2.934837e+01
3.743576e+02	-2.940681e+01
3.765199e+02	-2.945387e+01
3.786946e+02	-2.949904e+01
3.808820e+02	-2.955024e+01
3.830819e+02	-2.960324e+01
3.852946e+02	-2.965405e+01
3.875200e+02	-2.969956e+01
3.897583e+02	-2.975471e+01
3.920096e+02	-2.980911e+01
3.942738e+02	-2.985310e+01
3.965511e+02	-2.989962e+01
3.988416e+02	-2.995296e+01
4.011452e+02	-3.000190e+01
4.034622e+02	-3.004969e+01
4.057926e+02	-3.009748e+01
4.081365e+02	-3.015077e+01
4.104938e+02	-3.019797e+01
4.128648e+02	-3.025334e+01
4.152495e+02	-3.030669e+01
4.176480e+02	-3.035522e+01
4.200603e+02	-3.040812e+01
4.224866e+02	-3.045150e+01
4.249268e+02	-3.050802e+01
4.273812e+02	-3.055093e+01
4.298497e+02	-3.060472e+01
4.323325e+02	-3.064977e+01
4.348297e+02	-3.070244e+01
4.373412e+02	-3.075589e+01
4.398673e+02	-3.080355e+01
4.424079e+02	-3.085216e+01
4.449633e+02	-3.089913e+01
4.475334e+02	-3.095688e+01
4.501183e+02	-3.100042e+01
4.527182e+02	-3.105956e+01
4.553330e+02	-3.110746e+01
4.579630e+02	-3.115530e+01
4.606082e+02	-3.120407e+01
4.632687e+02	-3.125731e+01
4.659445e+02	-3.130385e+01
4.686358e+02	-3.135108e+01
4.713426e+02	-3.140532e+01
4.740650e+02	-3.145561e+01
4.768032e+02	-3.150456e+01
4.795572e+02	-3.155830e+01
4.823271e+02	-3.159932e+01
4.851130e+02	-3.165438e+01
4.879150e+02	-3.170322e+01
4.907332e+02	-3.175093e+01
4.935676e+02	-3.180649e+01
4.964185e+02	-3.185991e+01
4.992858e+02	-3.191354e+01
5.021696e+02	-3.196380e+01
5.050701e+02	-3.200964e+01
5.079874e+02	-3.206044e+01
5.109215e+02	-3.210817e+01
5.138726e+02	-3.215341e+01
5.168407e+02	-3.220735e+01
5.198259e+02	-3.225005e+01
5.228284e+02	-3.230264e+01
5.258482e+02	-3.236089e+01
5.288855e+02	-3.241117e+01
5.319403e+02	-3.245575e+01
5.350128e+02	-3.251259e+01
5.381030e+02	-3.255852e+01
5.412111e+02	-3.260276e+01
5.443371e+02	-3.266172e+01
5.474812e+02	-3.271080e+01
5.506434e+02	-3.276445e+01
5.538239e+02	-3.281429e+01
5.570228e+02	-3.285214e+01
5.602401e+02	-3.291344e+01
5.634760e+02	-3.295751e+01
5.667306e+02	-3.301336e+01
5.700040e+02	-3.306286e+01
5.732964e+02	-3.311257e+01
5.766077e+02	-3.315919e+01
5.799382e+02	-3.321583e+01
5.832879e+02	-3.327100e+01
5.866569e+02	-3.331270e+01
5.900454e+02	-3.336437e+01
5.934535e+02	-3.341820e+01
5.968813e+02	-3.346157e+01
6.003288e+02	-3.351727e+01
6.037963e+02	-3.356555e+01
6.072838e+02	-3.362035e+01
6.107914e+02	-3.366961e+01
6.143194e+02	-3.371626e+01
6.178676e+02	-3.376746e+01
6.214364e+02	-3.381499e+01
6.250258e+02	-3.386648e+01
6.286359e+02	-3.392302e+01
6.322669e+02	-3.397319e+01
6.359189e+02	-3.401434e+01
6.395919e+02	-3.407340e+01
6.432862e+02	-3.411474e+01
6.470017e+02	-3.416765e+01
6.507388e+02	-3.422533e+01
6.544974e+02	-3.427338e+01
6.582778e+02	-3.431373e+01
6.620800e+02	-3.437257e+01
6.659041e+02	-3.442028e+01
6.697504e+02	-3.447640e+01
6.736188e+02	-3.452484e+01
6.775096e+02	-3.457581e+01
6.814229e+02	-3.462036e+01
6.853587e+02	-3.467494e+01
6.893173e+02	-3.471927e+01
6.932988e+02	-3.477060e+01
6.973033e+02	-3.481855e+01
7.013309e+02	-3.487133e+01
