Frequency(Hz)	Magnitude(dB)
1.000000e+01	-2.093539e+00
1.005776e+01	-2.112829e+00
1.011585e+01	-2.132046e+00
1.017428e+01	-2.151632e+00
1.023305e+01	-2.171098e+00
1.029215e+01	-2.190860e+00
1.035160e+01	-2.211005e+00
1.041139e+01	-2.230709e+00
1.047153e+01	-2.251042e+00
1.053201e+01	-2.271321e+00
1.059284e+01	-2.291823e+00
1.065403e+01	-2.312106e+00
1.071556e+01	-2.333217e+00
1.077746e+01	-2.353952e+00
1.083971e+01	-2.374972e+00
1.090232e+01	-2.396159e+00
1.096529e+01	-2.417379e+00
1.102862e+01	-2.438736e+00
1.109232e+01	-2.460232e+00
1.115639e+01	-2.482082e+00
1.122083e+01	-2.504064e+00
1.128564e+01	-2.525755e+00
1.135083e+01	-2.548163e+00
1.141639e+01	-2.570129e+00
1.148233e+01	-2.592715e+00
1.154865e+01	-2.615235e+00
1.161536e+01	-2.638133e+00
1.168245e+01	-2.660792e+00
1.174992e+01	-2.683828e+00
1.181779e+01	-2.707009e+00
1.188605e+01	-2.730298e+00
1.195470e+01	-2.753696e+00
1.202375e+01	-2.777177e+00
1.209320e+01	-2.800711e+00
1.216305e+01	-2.824533e+00
1.223330e+01	-2.848516e+00
1.230396e+01	-2.872928e+00
1.237503e+01	-2.897279e+00
1.244651e+01	-2.921897e+00
1.251840e+01	-2.946102e+00
1.259070e+01	-2.970913e+00
1.266343e+01	-2.995786e+00
1.273657e+01	-3.020681e+00
1.281014e+01	-3.045753e+00
1.288413e+01	-3.071412e+00
1.295855e+01	-3.096710e+00
1.303339e+01	-3.122167e+00
1.310867e+01	-3.147979e+00
1.318439e+01	-3.173634e+00
1.326054e+01	-3.200070e+00
1.333713e+01	-3.226001e+00
1.341417e+01	-3.252242e+00
1.349165e+01	-3.278774e+00
1.356958e+01	-3.305211e+00
1.364795e+01	-3.332088e+00
1.372678e+01	-3.358905e+00
1.380607e+01	-3.385814e+00
1.388581e+01	-3.412932e+00
1.396602e+01	-3.440192e+00
1.404668e+01	-3.467742e+00
1.412782e+01	-3.495047e+00
1.420942e+01	-3.522972e+00
1.429149e+01	-3.550631e+00
1.437404e+01	-3.578628e+00
1.445706e+01	-3.607013e+00
1.454057e+01	-3.635432e+00
1.462455e+01	-3.663692e+00
1.470902e+01	-3.692346e+00
1.479398e+01	-3.721014e+00
1.487943e+01	-3.750036e+00
1.496537e+01	-3.779167e+00
1.505181e+01	-3.808062e+00
1.513875e+01	-3.837324e+00
1.522619e+01	-3.866865e+00
1.531414e+01	-3.896670e+00
1.540259e+01	-3.925889e+00
1.549156e+01	-3.956133e+00
1.558103e+01	-3.985743e+00
1.567103e+01	-4.016265e+00
1.576155e+01	-4.046464e+00
1.585258e+01	-4.076426e+00
1.594415e+01	-4.107043e+00
1.603624e+01	-4.138048e+00
1.612886e+01	-4.168722e+00
1.622202e+01	-4.199617e+00
1.631572e+01	-4.230727e+00
1.640996e+01	-4.261852e+00
1.650474e+01	-4.293253e+00
1.660008e+01	-4.324740e+00
1.669596e+01	-4.356237e+00
1.679239e+01	-4.387952e+00
1.688938e+01	-4.419919e+00
1.698694e+01	-4.451876e+00
1.708505e+01	-4.484035e+00
1.718373e+01	-4.516459e+00
1.728299e+01	-4.548858e+00
1.738281e+01	-4.581274e+00
1.748322e+01	-4.613835e+00
1.758420e+01	-4.646690e+00
1.768576e+01	-4.679777e+00
1.778792e+01	-4.712922e+00
1.789066e+01	-4.745885e+00
1.799399e+01	-4.779289e+00
1.809793e+01	-4.812506e+00
1.820246e+01	-4.846187e+00
1.830760e+01	-4.879859e+00
1.841334e+01	-4.913512e+00
1.851969e+01	-4.948115e+00
1.862666e+01	-4.982097e+00
1.873425e+01	-5.016141e+00
1.884246e+01	-5.050445e+00
1.895129e+01	-5.084983e+00
1.906075e+01	-5.119519e+00
1.917085e+01	-5.154228e+00
1.928158e+01	-5.188960e+00
1.939295e+01	-5.223942e+00
1.950496e+01	-5.259033e+00
1.961762e+01	-5.294046e+00
1.973093e+01	-5.329674e+00
1.984490e+01	-5.364619e+00
1.995952e+01	-5.400406e+00
2.007480e+01	-5.436095e+00
2.019076e+01	-5.471456e+00
2.030738e+01	-5.507672e+00
2.042467e+01	-5.543580e+00
2.054264e+01	-5.579679e+00
2.066130e+01	-5.616257e+00
2.078064e+01	-5.652400e+00
2.090066e+01	-5.688924e+00
2.102139e+01	-5.725635e+00
2.114280e+01	-5.762165e+00
2.126492e+01	-5.798988e+00
2.138775e+01	-5.835814e+00
2.151128e+01	-5.872794e+00
2.163553e+01	-5.909834e+00
2.176050e+01	-5.947416e+00
2.188619e+01	-5.984740e+00
2.201260e+01	-6.022005e+00
2.213974e+01	-6.059535e+00
2.226762e+01	-6.097216e+00
2.239624e+01	-6.135077e+00
2.252560e+01	-6.172776e+00
2.265571e+01	-6.211302e+00
2.278656e+01	-6.249043e+00
2.291818e+01	-6.287568e+00
2.305055e+01	-6.325893e+00
2.318369e+01	-6.364075e+00
2.331760e+01	-6.402679e+00
2.345228e+01	-6.441341e+00
2.358774e+01	-6.479940e+00
2.372398e+01	-6.518561e+00
2.386101e+01	-6.557885e+00
2.399883e+01	-6.596741e+00
2.413745e+01	-6.635898e+00
2.427686e+01	-6.674940e+00
2.441709e+01	-6.714448e+00
2.455812e+01	-6.754057e+00
2.469997e+01	-6.793292e+00
2.484263e+01	-6.832894e+00
2.498612e+01	-6.872889e+00
2.513044e+01	-6.912679e+00
2.527559e+01	-6.951995e+00
2.542158e+01	-6.992212e+00
2.556842e+01	-7.032553e+00
2.571610e+01	-7.072869e+00
2.586463e+01	-7.112685e+00
2.601403e+01	-7.153048e+00
2.616428e+01	-7.193680e+00
2.631541e+01	-7.233899e+00
2.646740e+01	-7.274993e+00
2.662028e+01	-7.315362e+00
2.677404e+01	-7.356054e+00
2.692868e+01	-7.397319e+00
2.708422e+01	-7.438140e+00
2.724066e+01	-7.478984e+00
2.739800e+01	-7.520139e+00
2.755625e+01	-7.561381e+00
2.771541e+01	-7.602278e+00
2.787550e+01	-7.643973e+00
2.803650e+01	-7.685411e+00
2.819844e+01	-7.727166e+00
2.836131e+01	-7.768791e+00
2.852513e+01	-7.810567e+00
2.868989e+01	-7.852192e+00
2.885560e+01	-7.894014e+00
2.902227e+01	-7.936070e+00
2.918990e+01	-7.978417e+00
2.935850e+01	-8.020276e+00
2.952807e+01	-8.062718e+00
2.969863e+01	-8.104411e+00
2.987016e+01	-8.146905e+00
3.004269e+01	-8.189307e+00
3.021622e+01	-8.231603e+00
3.039075e+01	-8.274621e+00
3.056628e+01	-8.316705e+00
3.074283e+01	-8.359612e+00
3.092040e+01	-8.402285e+00
3.109900e+01	-8.445495e+00
3.127862e+01	-8.488079e+00
3.145929e+01	-8.531050e+00
3.164099e+01	-8.574035e+00
3.182375e+01	-8.617418e+00
3.200756e+01	-8.660025e+00
3.219244e+01	-8.703670e+00
3.237838e+01	-8.747125e+00
3.256540e+01	-8.790033e+00
3.275349e+01	-8.833945e+00
3.294268e+01	-8.877622e+00
3.313295e+01	-8.920850e+00
3.332433e+01	-8.964694e+00
3.351681e+01	-9.008662e+00
3.371040e+01	-9.052458e+00
3.390511e+01	-9.096049e+00
3.410094e+01	-9.140292e+00
3.429791e+01	-9.184050e+00
3.449601e+01	-9.227526e+00
3.469526e+01	-9.271659e+00
3.489566e+01	-9.316043e+00
3.509721e+01	-9.360310e+00
3.529993e+01	-9.404001e+00
3.550382e+01	-9.448750e+00
3.570889e+01	-9.492612e+00
3.591515e+01	-9.537747e+00
3.612259e+01	-9.581587e+00
3.633123e+01	-9.626210e+00
3.654108e+01	-9.671046e+00
3.675214e+01	-9.715706e+00
3.696442e+01	-9.760401e+00
3.717792e+01	-9.805664e+00
3.739266e+01	-9.850169e+00
3.760864e+01	-9.895000e+00
3.782587e+01	-9.939726e+00
3.804435e+01	-9.984519e+00
3.826409e+01	-1.003006e+01
3.848510e+01	-1.007517e+01
3.870739e+01	-1.012016e+01
3.893096e+01	-1.016533e+01
3.915583e+01	-1.021093e+01
3.938199e+01	-1.025566e+01
3.960946e+01	-1.030121e+01
3.983824e+01	-1.034660e+01
4.006834e+01	-1.039192e+01
4.029978e+01	-1.043766e+01
4.053255e+01	-1.048286e+01
4.076666e+01	-1.052898e+01
4.100213e+01	-1.057419e+01
4.123896e+01	-1.061902e+01
4.147715e+01	-1.066588e+01
4.171672e+01	-1.071132e+01
4.195767e+01	-1.075751e+01
4.220002e+01	-1.080313e+01
4.244377e+01	-1.084969e+01
4.268892e+01	-1.089451e+01
4.293549e+01	-1.094121e+01
4.318348e+01	-1.098702e+01
4.343291e+01	-1.103252e+01
4.368377e+01	-1.107872e+01
4.393609e+01	-1.112545e+01
4.418986e+01	-1.117098e+01
4.444510e+01	-1.121782e+01
4.470182e+01	-1.126422e+01
4.496001e+01	-1.131036e+01
4.521970e+01	-1.135591e+01
4.548089e+01	-1.140258e+01
4.574358e+01	-1.144886e+01
4.600779e+01	-1.149608e+01
4.627353e+01	-1.154256e+01
4.654081e+01	-1.158849e+01
4.680963e+01	-1.163512e+01
4.708000e+01	-1.168241e+01
4.735193e+01	-1.172870e+01
4.762543e+01	-1.177585e+01
4.790051e+01	-1.182172e+01
4.817719e+01	-1.186853e+01
4.845545e+01	-1.191544e+01
4.873533e+01	-1.196265e+01
4.901682e+01	-1.200965e+01
4.929994e+01	-1.205629e+01
4.958470e+01	-1.210319e+01
4.987110e+01	-1.215023e+01
5.015915e+01	-1.219715e+01
5.044887e+01	-1.224395e+01
5.074026e+01	-1.229195e+01
5.103333e+01	-1.233866e+01
5.132810e+01	-1.238576e+01
5.162457e+01	-1.243232e+01
5.192275e+01	-1.247936e+01
5.222265e+01	-1.252691e+01
5.252429e+01	-1.257369e+01
5.282767e+01	-1.262159e+01
5.313280e+01	-1.266894e+01
5.343969e+01	-1.271638e+01
5.374836e+01	-1.276384e+01
5.405880e+01	-1.281047e+01
5.437105e+01	-1.285852e+01
5.468509e+01	-1.290601e+01
5.500095e+01	-1.295328e+01
5.531863e+01	-1.300059e+01
5.563815e+01	-1.304794e+01
5.595951e+01	-1.309522e+01
5.628273e+01	-1.314286e+01
5.660782e+01	-1.319172e+01
5.693479e+01	-1.323846e+01
5.726364e+01	-1.328661e+01
5.759439e+01	-1.333410e+01
5.792705e+01	-1.338148e+01
5.826164e+01	-1.342935e+01
5.859815e+01	-1.347689e+01
5.893662e+01	-1.352504e+01
5.927703e+01	-1.357275e+01
5.961941e+01	-1.362042e+01
5.996377e+01	-1.366800e+01
6.031012e+01	-1.371751e+01
6.065847e+01	-1.376401e+01
6.100883e+01	-1.381234e+01
6.136121e+01	-1.385985e+01
6.171563e+01	-1.390871e+01
6.207210e+01	-1.395648e+01
6.243063e+01	-1.400478e+01
6.279122e+01	-1.405185e+01
6.315390e+01	-1.410028e+01
6.351868e+01	-1.414849e+01
6.388556e+01	-1.419653e+01
6.425456e+01	-1.424450e+01
6.462569e+01	-1.429221e+01
6.499897e+01	-1.434090e+01
6.537440e+01	-1.438935e+01
6.575200e+01	-1.443751e+01
6.613178e+01	-1.448525e+01
6.651375e+01	-1.453306e+01
6.689793e+01	-1.458196e+01
6.728433e+01	-1.462973e+01
6.767297e+01	-1.467829e+01
6.806384e+01	-1.472742e+01
6.845698e+01	-1.477581e+01
6.885238e+01	-1.482356e+01
6.925007e+01	-1.487211e+01
6.965005e+01	-1.491987e+01
7.005235e+01	-1.496906e+01
7.045697e+01	-1.501778e+01
7.086393e+01	-1.506553e+01
7.127323e+01	-1.511378e+01
7.168490e+01	-1.516384e+01
7.209895e+01	-1.521181e+01
7.251539e+01	-1.526058e+01
7.293424e+01	-1.530935e+01
7.335551e+01	-1.535696e+01
7.377920e+01	-1.540475e+01
7.420535e+01	-1.545363e+01
7.463396e+01	-1.550386e+01
7.506504e+01	-1.555141e+01
7.549861e+01	-1.560063e+01
7.593469e+01	-1.564871e+01
7.637328e+01	-1.569828e+01
7.681441e+01	-1.574626e+01
7.725809e+01	-1.579390e+01
7.770433e+01	-1.584242e+01
7.815315e+01	-1.589221e+01
7.860456e+01	-1.594072e+01
7.905857e+01	-1.598911e+01
7.951521e+01	-1.603889e+01
7.997449e+01	-1.608701e+01
8.043642e+01	-1.613566e+01
8.090102e+01	-1.618583e+01
8.136830e+01	-1.623415e+01
8.183828e+01	-1.628256e+01
8.231097e+01	-1.633178e+01
8.278640e+01	-1.638052e+01
8.326457e+01	-1.642932e+01
8.374550e+01	-1.647805e+01
8.422921e+01	-1.652818e+01
8.471572e+01	-1.657615e+01
8.520503e+01	-1.662593e+01
8.569717e+01	-1.667393e+01
8.619215e+01	-1.672302e+01
8.669000e+01	-1.677169e+01
8.719071e+01	-1.682087e+01
8.769432e+01	-1.687026e+01
8.820084e+01	-1.692027e+01
8.871029e+01	-1.696848e+01
8.922267e+01	-1.701752e+01
8.973802e+01	-1.706518e+01
9.025634e+01	-1.711467e+01
9.077766e+01	-1.716350e+01
9.130199e+01	-1.721417e+01
9.182935e+01	-1.726186e+01
9.235975e+01	-1.731142e+01
9.289321e+01	-1.736038e+01
9.342976e+01	-1.740859e+01
9.396941e+01	-1.745903e+01
9.451217e+01	-1.750824e+01
9.505807e+01	-1.755618e+01
9.560712e+01	-1.760689e+01
9.615934e+01	-1.765596e+01
9.671476e+01	-1.770411e+01
9.727338e+01	-1.775332e+01
9.783522e+01	-1.780303e+01
9.840032e+01	-1.785194e+01
9.896867e+01	-1.790201e+01
9.954031e+01	-1.794967e+01
1.001153e+02	-1.799911e+01
1.006935e+02	-1.804979e+01
1.012751e+02	-1.809905e+01
1.018601e+02	-1.814745e+01
1.024484e+02	-1.819628e+01
1.030402e+02	-1.824519e+01
1.036353e+02	-1.829548e+01
1.042339e+02	-1.834421e+01
1.048360e+02	-1.839395e+01
1.054415e+02	-1.844324e+01
1.060505e+02	-1.849318e+01
1.066631e+02	-1.854176e+01
1.072791e+02	-1.859232e+01
1.078988e+02	-1.864066e+01
1.085220e+02	-1.869106e+01
1.091488e+02	-1.874048e+01
1.097793e+02	-1.878864e+01
1.104133e+02	-1.883814e+01
1.110511e+02	-1.888725e+01
1.116925e+02	-1.893736e+01
1.123376e+02	-1.898636e+01
1.129865e+02	-1.903576e+01
1.136391e+02	-1.908516e+01
1.142955e+02	-1.913467e+01
1.149556e+02	-1.918493e+01
1.156196e+02	-1.923403e+01
1.162874e+02	-1.928376e+01
1.169591e+02	-1.933196e+01
1.176347e+02	-1.938122e+01
1.183141e+02	-1.943031e+01
1.189975e+02	-1.948056e+01
1.196848e+02	-1.953027e+01
1.203761e+02	-1.957992e+01
1.210714e+02	-1.962876e+01
1.217707e+02	-1.967855e+01
1.224740e+02	-1.972785e+01
1.231814e+02	-1.977916e+01
1.238929e+02	-1.982732e+01
1.246085e+02	-1.987578e+01
1.253283e+02	-1.992488e+01
1.260522e+02	-1.997503e+01
1.267802e+02	-2.002553e+01
1.275125e+02	-2.007425e+01
1.282490e+02	-2.012370e+01
1.289898e+02	-2.017386e+01
1.297348e+02	-2.022424e+01
1.304842e+02	-2.027382e+01
1.312378e+02	-2.032258e+01
1.319959e+02	-2.037302e+01
1.327583e+02	-2.042125e+01
1.335251e+02	-2.047166e+01
1.342963e+02	-2.052068e+01
1.350720e+02	-2.057041e+01
1.358522e+02	-2.061959e+01
1.366368e+02	-2.066992e+01
1.374260e+02	-2.072039e+01
1.382198e+02	-2.076814e+01
1.390182e+02	-2.081880e+01
1.398211e+02	-2.086740e+01
1.406287e+02	-2.091741e+01
1.414410e+02	-2.096911e+01
1.422579e+02	-2.101705e+01
1.430796e+02	-2.106738e+01
1.439060e+02	-2.111602e+01
1.447372e+02	-2.116577e+01
1.455732e+02	-2.121397e+01
1.464141e+02	-2.126530e+01
1.472597e+02	-2.131620e+01
1.481103e+02	-2.136484e+01
1.489658e+02	-2.141399e+01
1.498262e+02	-2.146477e+01
1.506916e+02	-2.151270e+01
1.515620e+02	-2.156463e+01
1.524374e+02	-2.161216e+01
1.533179e+02	-2.166182e+01
1.542034e+02	-2.171264e+01
1.550941e+02	-2.176309e+01
1.559899e+02	-2.181142e+01
1.568909e+02	-2.186286e+01
1.577971e+02	-2.191443e+01
1.587085e+02	-2.196151e+01
1.596252e+02	-2.201008e+01
1.605472e+02	-2.206196e+01
1.614745e+02	-2.211116e+01
1.624072e+02	-2.216155e+01
1.633453e+02	-2.220961e+01
1.642887e+02	-2.226215e+01
1.652377e+02	-2.230951e+01
1.661921e+02	-2.235867e+01
1.671520e+02	-2.240890e+01
1.681175e+02	-2.245744e+01
1.690885e+02	-2.250850e+01
1.700651e+02	-2.255838e+01
1.710474e+02	-2.260739e+01
1.720354e+02	-2.265708e+01
1.730291e+02	-2.270998e+01
1.740285e+02	-2.275733e+01
1.750337e+02	-2.280505e+01
1.760446e+02	-2.285496e+01
1.770615e+02	-2.290769e+01
1.780842e+02	-2.295744e+01
1.791128e+02	-2.300613e+01
1.801473e+02	-2.305558e+01
1.811878e+02	-2.310675e+01
1.822344e+02	-2.315497e+01
1.832870e+02	-2.320451e+01
1.843456e+02	-2.325403e+01
1.854104e+02	-2.330653e+01
1.864813e+02	-2.335608e+01
1.875584e+02	-2.340620e+01
1.886418e+02	-2.345686e+01
1.897313e+02	-2.350631e+01
1.908272e+02	-2.355410e+01
1.919294e+02	-2.360428e+01
1.930380e+02	-2.365172e+01
1.941530e+02	-2.370331e+01
1.952744e+02	-2.375355e+01
1.964023e+02	-2.380291e+01
1.975367e+02	-2.385451e+01
1.986777e+02	-2.390292e+01
1.998252e+02	-2.395155e+01
2.009794e+02	-2.400266e+01
2.021403e+02	-2.405209e+01
2.033078e+02	-2.410268e+01
2.044821e+02	-2.415204e+01
2.056632e+02	-2.420247e+01
2.068511e+02	-2.425279e+01
2.080459e+02	-2.430309e+01
2.092475e+02	-2.435180e+01
2.104561e+02	-2.440078e+01
2.116717e+02	-2.445357e+01
2.128943e+02	-2.450009e+01
2.141240e+02	-2.455252e+01
2.153608e+02	-2.459842e+01
2.166047e+02	-2.464917e+01
2.178558e+02	-2.469993e+01
2.191141e+02	-2.475054e+01
2.203797e+02	-2.480153e+01
2.216526e+02	-2.485094e+01
2.229329e+02	-2.490084e+01
2.242205e+02	-2.495150e+01
2.255156e+02	-2.500334e+01
2.268182e+02	-2.505382e+01
2.281283e+02	-2.509882e+01
2.294459e+02	-2.514954e+01
2.307712e+02	-2.519798e+01
2.321041e+02	-2.525178e+01
2.334447e+02	-2.529872e+01
2.347931e+02	-2.535153e+01
2.361493e+02	-2.540015e+01
2.375133e+02	-2.545075e+01
2.388851e+02	-2.550136e+01
2.402649e+02	-2.555026e+01
2.416527e+02	-2.559591e+01
2.430484e+02	-2.564800e+01
2.444523e+02	-2.570165e+01
2.458642e+02	-2.574974e+01
2.472843e+02	-2.580054e+01
2.487126e+02	-2.584904e+01
2.501492e+02	-2.590209e+01
2.515940e+02	-2.595206e+01
2.530472e+02	-2.600007e+01
2.545088e+02	-2.604922e+01
2.559789e+02	-2.609837e+01
2.574574e+02	-2.614858e+01
2.589444e+02	-2.619872e+01
2.604401e+02	-2.625011e+01
2.619444e+02	-2.629930e+01
2.634574e+02	-2.634579e+01
2.649791e+02	-2.640018e+01
2.665096e+02	-2.644709e+01
2.680489e+02	-2.649656e+01
2.695972e+02	-2.654869e+01
2.711544e+02	-2.660203e+01
2.727205e+02	-2.665131e+01
2.742958e+02	-2.670055e+01
2.758801e+02	-2.674550e+01
2.774736e+02	-2.679981e+01
2.790762e+02	-2.684781e+01
2.806882e+02	-2.689719e+01
2.823094e+02	-2.694632e+01
2.839400e+02	-2.699388e+01
2.855800e+02	-2.704910e+01
2.872295e+02	-2.709818e+01
2.888886e+02	-2.714841e+01
2.905572e+02	-2.719792e+01
2.922354e+02	-2.724807e+01
2.939234e+02	-2.729817e+01
2.956211e+02	-2.734829e+01
2.973286e+02	-2.740230e+01
2.990459e+02	-2.744877e+01
3.007732e+02	-2.749877e+01
3.025104e+02	-2.754637e+01
3.042577e+02	-2.759981e+01
3.060151e+02	-2.764575e+01
3.077826e+02	-2.769901e+01
3.095604e+02	-2.775129e+01
3.113484e+02	-2.780008e+01
3.131467e+02	-2.784731e+01
3.149554e+02	-2.789709e+01
3.167746e+02	-2.795140e+01
3.186043e+02	-2.799833e+01
3.204445e+02	-2.804939e+01
3.222954e+02	-2.809995e+01
3.241570e+02	-2.814866e+01
3.260293e+02	-2.819757e+01
3.279124e+02	-2.824953e+01
3.298064e+02	-2.829793e+01
3.317114e+02	-2.834971e+01
3.336273e+02	-2.839909e+01
3.355544e+02	-2.844917e+01
3.374925e+02	-2.850202e+01
3.394418e+02	-2.854728e+01
3.414024e+02	-2.859910e+01
3.433744e+02	-2.864770e+01
3.453577e+02	-2.869938e+01
3.473525e+02	-2.875150e+01
3.493588e+02	-2.879913e+01
3.513766e+02	-2.884895e+01
3.534062e+02	-2.889532e+01
3.554474e+02	-2.894872e+01
3.575005e+02	-2.899811e+01
3.595654e+02	-2.904597e+01
3.616422e+02	-2.909805e+01
3.637311e+02	-2.914998e+01
3.658320e+02	-2.920094e+01
3.679450e+02	-2.925368e+01
3.700702e+02	-2.930013e+01
3.722077e+02	-2.935602e+01
3.743576e+02	-2.939855e+01
3.765199e+02	-2.944851e+01
3.786946e+02	-2.950454e+01
3.808820e+02	-2.954776e+01
3.830819e+02	-2.959943e+01
3.852946e+02	-2.965025e+01
3.875200e+02	-2.970072e+01
3.897583e+02	-2.974813e+01
3.920096e+02	-2.980105e+01
3.942738e+02	-2.985432e+01
3.965511e+02	-2.990270e+01
3.988416e+02	-2.995214e+01
4.011452e+02	-3.000173e+01
4.034622e+02	-3.004608e+01
4.057926e+02	-3.009794e+01
4.081365e+02	-3.015514e+01
4.104938e+02	-3.020108e+01
4.128648e+02	-3.025333e+01
4.152495e+02	-3.030185e+01
4.176480e+02	-3.034784e+01
4.200603e+02	-3.040221e+01
4.224866e+02	-3.045199e+01
4.249268e+02	-3.050388e+01
4.273812e+02	-3.055744e+01
4.298497e+02	-3.060660e+01
4.323325e+02	-3.065333e+01
4.348297e+02	-3.070219e+01
4.373412e+02	-3.075186e+01
4.398673e+02	-3.080091e+01
4.424079e+02	-3.085788e+01
4.449633e+02	-3.091032e+01
4.475334e+02	-3.095681e+01
4.501183e+02	-3.100385e+01
4.527182e+02	-3.104953e+01
4.553330e+02	-3.110233e+01
4.579630e+02	-3.115860e+01
4.606082e+02	-3.120156e+01
4.632687e+02	-3.125085e+01
4.659445e+02	-3.130130e+01
4.686358e+02	-3.135091e+01
4.713426e+02	-3.140334e+01
4.740650e+02	-3.145446e+01
4.768032e+02	-3.150530e+01
4.795572e+02	-3.155541e+01
4.823271e+02	-3.160602e+01
4.851130e+02	-3.165546e+01
4.879150e+02	-3.170558e+01
4.907332e+02	-3.175514e+01
4.935676e+02	-3.180396e+01
4.964185e+02	-3.186495e+01
4.992858e+02	-3.190500e+01
5.021696e+02	-3.195643e+01
5.050701e+02	-3.200640e+01
5.079874e+02	-3.206267e+01
5.109215e+02	-3.210710e+01
5.138726e+02	-3.216176e+01
5.168407e+02	-3.220674e+01
5.198259e+02	-3.225401e+01
5.228284e+02	-3.231130e+01
5.258482e+02	-3.235469e+01
5.288855e+02	-3.241354e+01
5.319403e+02	-3.245669e+01
5.350128e+02	-3.250835e+01
5.381030e+02	-3.255844e+01
5.412111e+02	-3.260598e+01
5.443371e+02	-3.266654e+01
5.474812e+02	-3.270860e+01
5.506434e+02	-3.275373e+01
5.538239e+02	-3.281246e+01
5.570228e+02	-3.285394e+01
5.602401e+02	-3.290921e+01
5.634760e+02	-3.295687e+01
5.667306e+02	-3.301067e+01
5.700040e+02	-3.306761e+01
5.732964e+02	-3.311271e+01
5.766077e+02	-3.315599e+01
5.799382e+02	-3.320635e+01
5.832879e+02	-3.326435e+01
5.866569e+02	-3.331595e+01
5.900454e+02	-3.336006e+01
5.934535e+02	-3.341597e+01
5.968813e+02	-3.345766e+01
6.003288e+02	-3.351594e+01
6.037963e+02	-3.356834e+01
6.072838e+02	-3.361811e+01
6.107914e+02	-3.366682e+01
6.143194e+02	-3.370665e+01
6.178676e+02	-3.376254e+01
6.214364e+02	-3.381361e+01
6.250258e+02	-3.386369e+01
6.286359e+02	-3.391070e+01
6.322669e+02	-3.397664e+01
6.359189e+02	-3.401191e+01
6.395919e+02	-3.406128e+01
6.432862e+02	-3.411415e+01
6.470017e+02	-3.417278e+01
6.507388e+02	-3.421666e+01
6.544974e+02	-3.427453e+01
6.582778e+02	-3.431556e+01
6.620800e+02	-3.436848e+01
6.659041e+02	-3.442088e+01
6.697504e+02	-3.446469e+01
6.736188e+02	-3.451449e+01
6.775096e+02	-3.457535e+01
6.814229e+02	-3.461225e+01
6.853587e+02	-3.466715e+01
6.893173e+02	-3.472467e+01
6.932988e+02	-3.477564e+01
6.973033e+02	-3.482267e+01
7.013309e+02	-3.487056e+01
