Frequency(Hz)	Magnitude(dB)
1.000000e+01	-2.201920e+00
1.005776e+01	-2.221903e+00
1.011585e+01	-2.241925e+00
1.017428e+01	-2.262158e+00
1.023305e+01	-2.282529e+00
1.029215e+01	-2.303006e+00
1.035160e+01	-2.323761e+00
1.041139e+01	-2.344574e+00
1.047153e+01	-2.365365e+00
1.053201e+01	-2.386489e+00
1.059284e+01	-2.407684e+00
1.065403e+01	-2.429213e+00
1.071556e+01	-2.450635e+00
1.077746e+01	-2.472283e+00
1.083971e+01	-2.494181e+00
1.090232e+01	-2.515951e+00
1.096529e+01	-2.537812e+00
1.102862e+01	-2.560137e+00
1.109232e+01	-2.582401e+00
1.115639e+01	-2.605221e+00
1.122083e+01	-2.627686e+00
1.128564e+01	-2.650447e+00
1.135083e+01	-2.673517e+00
1.141639e+01	-2.696518e+00
1.148233e+01	-2.719523e+00
1.154865e+01	-2.743060e+00
1.161536e+01	-2.766680e+00
1.168245e+01	-2.790051e+00
1.174992e+01	-2.813856e+00
1.181779e+01	-2.837790e+00
1.188605e+01	-2.862018e+00
1.195470e+01	-2.886232e+00
1.202375e+01	-2.910414e+00
1.209320e+01	-2.935067e+00
1.216305e+01	-2.959659e+00
1.223330e+01	-2.984344e+00
1.230396e+01	-3.009339e+00
1.237503e+01	-3.034301e+00
1.244651e+01	-3.059618e+00
1.251840e+01	-3.085256e+00
1.259070e+01	-3.110549e+00
1.266343e+01	-3.136148e+00
1.273657e+01	-3.161894e+00
1.281014e+01	-3.188141e+00
1.288413e+01	-3.214105e+00
1.295855e+01	-3.240466e+00
1.303339e+01	-3.266617e+00
1.310867e+01	-3.293289e+00
1.318439e+01	-3.319675e+00
1.326054e+01	-3.346544e+00
1.333713e+01	-3.373533e+00
1.341417e+01	-3.401010e+00
1.349165e+01	-3.428117e+00
1.356958e+01	-3.455314e+00
1.364795e+01	-3.482958e+00
1.372678e+01	-3.510608e+00
1.380607e+01	-3.538135e+00
1.388581e+01	-3.566362e+00
1.396602e+01	-3.594370e+00
1.404668e+01	-3.622425e+00
1.412782e+01	-3.650842e+00
1.420942e+01	-3.679403e+00
1.429149e+01	-3.708079e+00
1.437404e+01	-3.736877e+00
1.445706e+01	-3.765993e+00
1.454057e+01	-3.794688e+00
1.462455e+01	-3.824099e+00
1.470902e+01	-3.853496e+00
1.479398e+01	-3.883314e+00
1.487943e+01	-3.912299e+00
1.496537e+01	-3.942600e+00
1.505181e+01	-3.972540e+00
1.513875e+01	-4.002058e+00
1.522619e+01	-4.032626e+00
1.531414e+01	-4.063045e+00
1.540259e+01	-4.093341e+00
1.549156e+01	-4.123957e+00
1.558103e+01	-4.154688e+00
1.567103e+01	-4.185575e+00
1.576155e+01	-4.216680e+00
1.585258e+01	-4.247807e+00
1.594415e+01	-4.279019e+00
1.603624e+01	-4.310266e+00
1.612886e+01	-4.342125e+00
1.622202e+01	-4.373768e+00
1.631572e+01	-4.405372e+00
1.640996e+01	-4.437494e+00
1.650474e+01	-4.469599e+00
1.660008e+01	-4.501800e+00
1.669596e+01	-4.534283e+00
1.679239e+01	-4.566540e+00
1.688938e+01	-4.599040e+00
1.698694e+01	-4.631806e+00
1.708505e+01	-4.665006e+00
1.718373e+01	-4.697652e+00
1.728299e+01	-4.730736e+00
1.738281e+01	-4.764153e+00
1.748322e+01	-4.797595e+00
1.758420e+01	-4.830937e+00
1.768576e+01	-4.864738e+00
1.778792e+01	-4.898532e+00
1.789066e+01	-4.932473e+00
1.799399e+01	-4.966004e+00
1.809793e+01	-5.000350e+00
1.820246e+01	-5.034797e+00
1.830760e+01	-5.069272e+00
1.841334e+01	-5.103687e+00
1.851969e+01	-5.138233e+00
1.862666e+01	-5.173328e+00
1.873425e+01	-5.208011e+00
1.884246e+01	-5.243149e+00
1.895129e+01	-5.278066e+00
1.906075e+01	-5.313451e+00
1.917085e+01	-5.348749e+00
1.928158e+01	-5.384355e+00
1.939295e+01	-5.420034e+00
1.950496e+01	-5.455654e+00
1.961762e+01	-5.491249e+00
1.973093e+01	-5.527592e+00
1.984490e+01	-5.563383e+00
1.995952e+01	-5.599741e+00
2.007480e+01	-5.635718e+00
2.019076e+01	-5.672434e+00
2.030738e+01	-5.708829e+00
2.042467e+01	-5.745612e+00
2.054264e+01	-5.782413e+00
2.066130e+01	-5.818963e+00
2.078064e+01	-5.856560e+00
2.090066e+01	-5.893390e+00
2.102139e+01	-5.930442e+00
2.114280e+01	-5.967698e+00
2.126492e+01	-6.005445e+00
2.138775e+01	-6.042676e+00
2.151128e+01	-6.080203e+00
2.163553e+01	-6.117994e+00
2.176050e+01	-6.155754e+00
2.188619e+01	-6.193906e+00
2.201260e+01	-6.232007e+00
2.213974e+01	-6.270110e+00
2.226762e+01	-6.308171e+00
2.239624e+01	-6.346710e+00
2.252560e+01	-6.385083e+00
2.265571e+01	-6.423692e+00
2.278656e+01	-6.462395e+00
2.291818e+01	-6.501210e+00
2.305055e+01	-6.540030e+00
2.318369e+01	-6.579391e+00
2.331760e+01	-6.617767e+00
2.345228e+01	-6.657345e+00
2.358774e+01	-6.696473e+00
2.372398e+01	-6.736162e+00
2.386101e+01	-6.775491e+00
2.399883e+01	-6.814936e+00
2.413745e+01	-6.854529e+00
2.427686e+01	-6.894511e+00
2.441709e+01	-6.934170e+00
2.455812e+01	-6.974363e+00
2.469997e+01	-7.013821e+00
2.484263e+01	-7.054176e+00
2.498612e+01	-7.094587e+00
2.513044e+01	-7.134816e+00
2.527559e+01	-7.175025e+00
2.542158e+01	-7.215951e+00
2.556842e+01	-7.256658e+00
2.571610e+01	-7.296921e+00
2.586463e+01	-7.337965e+00
2.601403e+01	-7.378648e+00
2.616428e+01	-7.419459e+00
2.631541e+01	-7.460315e+00
2.646740e+01	-7.501334e+00
2.662028e+01	-7.542700e+00
2.677404e+01	-7.584304e+00
2.692868e+01	-7.625418e+00
2.708422e+01	-7.666761e+00
2.724066e+01	-7.708688e+00
2.739800e+01	-7.749671e+00
2.755625e+01	-7.791524e+00
2.771541e+01	-7.833267e+00
2.787550e+01	-7.874893e+00
2.803650e+01	-7.916793e+00
2.819844e+01	-7.958866e+00
2.836131e+01	-8.001016e+00
2.852513e+01	-8.043264e+00
2.868989e+01	-8.085208e+00
2.885560e+01	-8.127628e+00
2.902227e+01	-8.170102e+00
2.918990e+01	-8.212614e+00
2.935850e+01	-8.255002e+00
2.952807e+01	-8.297567e+00
2.969863e+01	-8.340191e+00
2.987016e+01	-8.382811e+00
3.004269e+01	-8.426390e+00
3.021622e+01	-8.468586e+00
3.039075e+01	-8.511719e+00
3.056628e+01	-8.554480e+00
3.074283e+01	-8.597578e+00
3.092040e+01	-8.640733e+00
3.109900e+01	-8.684467e+00
3.127862e+01	-8.727194e+00
3.145929e+01	-8.770600e+00
3.164099e+01	-8.814052e+00
3.182375e+01	-8.857933e+00
3.200756e+01	-8.900534e+00
3.219244e+01	-8.944980e+00
3.237838e+01	-8.988443e+00
3.256540e+01	-9.032356e+00
3.275349e+01	-9.075685e+00
3.294268e+01	-9.120388e+00
3.313295e+01	-9.163643e+00
3.332433e+01	-9.207696e+00
3.351681e+01	-9.251735e+00
3.371040e+01	-9.296183e+00
3.390511e+01	-9.340086e+00
3.410094e+01	-9.384503e+00
3.429791e+01	-9.429176e+00
3.449601e+01	-9.473105e+00
3.469526e+01	-9.518298e+00
3.489566e+01	-9.562272e+00
3.509721e+01	-9.606490e+00
3.529993e+01	-9.650943e+00
3.550382e+01	-9.695653e+00
3.570889e+01	-9.740560e+00
3.591515e+01	-9.785273e+00
3.612259e+01	-9.829581e+00
3.633123e+01	-9.874909e+00
3.654108e+01	-9.919273e+00
3.675214e+01	-9.964699e+00
3.696442e+01	-1.000984e+01
3.717792e+01	-1.005433e+01
3.739266e+01	-1.010019e+01
3.760864e+01	-1.014505e+01
3.782587e+01	-1.018967e+01
3.804435e+01	-1.023520e+01
3.826409e+01	-1.028099e+01
3.848510e+01	-1.032602e+01
3.870739e+01	-1.037148e+01
3.893096e+01	-1.041699e+01
3.915583e+01	-1.046211e+01
3.938199e+01	-1.050822e+01
3.960946e+01	-1.055417e+01
3.983824e+01	-1.059926e+01
4.006834e+01	-1.064473e+01
4.029978e+01	-1.069039e+01
4.053255e+01	-1.073678e+01
4.076666e+01	-1.078200e+01
4.100213e+01	-1.082784e+01
4.123896e+01	-1.087403e+01
4.147715e+01	-1.091989e+01
4.171672e+01	-1.096579e+01
4.195767e+01	-1.101222e+01
4.220002e+01	-1.105859e+01
4.244377e+01	-1.110414e+01
4.268892e+01	-1.115039e+01
4.293549e+01	-1.119617e+01
4.318348e+01	-1.124260e+01
4.343291e+01	-1.128937e+01
4.368377e+01	-1.133574e+01
4.393609e+01	-1.138202e+01
4.418986e+01	-1.142879e+01
4.444510e+01	-1.147509e+01
4.470182e+01	-1.152109e+01
4.496001e+01	-1.156803e+01
4.521970e+01	-1.161478e+01
4.548089e+01	-1.166111e+01
4.574358e+01	-1.170808e+01
4.600779e+01	-1.175454e+01
4.627353e+01	-1.180066e+01
4.654081e+01	-1.184708e+01
4.680963e+01	-1.189510e+01
4.708000e+01	-1.194169e+01
4.735193e+01	-1.198827e+01
4.762543e+01	-1.203449e+01
4.790051e+01	-1.208146e+01
4.817719e+01	-1.212855e+01
4.845545e+01	-1.217510e+01
4.873533e+01	-1.222216e+01
4.901682e+01	-1.226952e+01
4.929994e+01	-1.231716e+01
4.958470e+01	-1.236350e+01
4.987110e+01	-1.241062e+01
5.015915e+01	-1.245800e+01
5.044887e+01	-1.250567e+01
5.074026e+01	-1.255347e+01
5.103333e+01	-1.259969e+01
5.132810e+01	-1.264753e+01
5.162457e+01	-1.269462e+01
5.192275e+01	-1.274201e+01
5.222265e+01	-1.278883e+01
5.252429e+01	-1.283715e+01
5.282767e+01	-1.288444e+01
5.313280e+01	-1.293200e+01
5.343969e+01	-1.297950e+01
5.374836e+01	-1.302736e+01
5.405880e+01	-1.307427e+01
5.437105e+01	-1.312244e+01
5.468509e+01	-1.316984e+01
5.500095e+01	-1.321622e+01
5.531863e+01	-1.326472e+01
5.563815e+01	-1.331210e+01
5.595951e+01	-1.336119e+01
5.628273e+01	-1.340794e+01
5.660782e+01	-1.345540e+01
5.693479e+01	-1.350325e+01
5.726364e+01	-1.355194e+01
5.759439e+01	-1.359882e+01
5.792705e+01	-1.364757e+01
5.826164e+01	-1.369522e+01
5.859815e+01	-1.374217e+01
5.893662e+01	-1.378931e+01
5.927703e+01	-1.383925e+01
5.961941e+01	-1.388635e+01
5.996377e+01	-1.393379e+01
6.031012e+01	-1.398290e+01
6.065847e+01	-1.403089e+01
6.100883e+01	-1.407805e+01
6.136121e+01	-1.412657e+01
6.171563e+01	-1.417479e+01
6.207210e+01	-1.422247e+01
6.243063e+01	-1.427131e+01
6.279122e+01	-1.431900e+01
6.315390e+01	-1.436725e+01
6.351868e+01	-1.441592e+01
6.388556e+01	-1.446395e+01
6.425456e+01	-1.451201e+01
6.462569e+01	-1.456098e+01
6.499897e+01	-1.460812e+01
6.537440e+01	-1.465680e+01
6.575200e+01	-1.470552e+01
6.613178e+01	-1.475341e+01
6.651375e+01	-1.480181e+01
6.689793e+01	-1.485015e+01
6.728433e+01	-1.489843e+01
6.767297e+01	-1.494659e+01
6.806384e+01	-1.499534e+01
6.845698e+01	-1.504452e+01
6.885238e+01	-1.509244e+01
6.925007e+01	-1.514151e+01
6.965005e+01	-1.519052e+01
7.005235e+01	-1.523797e+01
7.045697e+01	-1.528679e+01
7.086393e+01	-1.533482e+01
7.127323e+01	-1.538298e+01
7.168490e+01	-1.543222e+01
7.209895e+01	-1.548125e+01
7.251539e+01	-1.552985e+01
7.293424e+01	-1.557783e+01
7.335551e+01	-1.562635e+01
7.377920e+01	-1.567609e+01
7.420535e+01	-1.572365e+01
7.463396e+01	-1.577349e+01
7.506504e+01	-1.582189e+01
7.549861e+01	-1.587087e+01
7.593469e+01	-1.591912e+01
7.637328e+01	-1.596812e+01
7.681441e+01	-1.601636e+01
7.725809e+01	-1.606534e+01
7.770433e+01	-1.611473e+01
7.815315e+01	-1.616310e+01
7.860456e+01	-1.621165e+01
7.905857e+01	-1.626028e+01
7.951521e+01	-1.631072e+01
7.997449e+01	-1.635941e+01
8.043642e+01	-1.640753e+01
8.090102e+01	-1.645553e+01
8.136830e+01	-1.650527e+01
8.183828e+01	-1.655407e+01
8.231097e+01	-1.660318e+01
8.278640e+01	-1.665196e+01
8.326457e+01	-1.670153e+01
8.374550e+01	-1.674973e+01
8.422921e+01	-1.679847e+01
8.471572e+01	-1.684769e+01
8.520503e+01	-1.689734e+01
8.569717e+01	-1.694612e+01
8.619215e+01	-1.699375e+01
8.669000e+01	-1.704438e+01
8.719071e+01	-1.709293e+01
8.769432e+01	-1.714139e+01
8.820084e+01	-1.718995e+01
8.871029e+01	-1.723975e+01
8.922267e+01	-1.729009e+01
8.973802e+01	-1.733764e+01
9.025634e+01	-1.738748e+01
9.077766e+01	-1.743617e+01
9.130199e+01	-1.748549e+01
9.182935e+01	-1.753471e+01
9.235975e+01	-1.758410e+01
9.289321e+01	-1.763308e+01
9.342976e+01	-1.768224e+01
9.396941e+01	-1.773269e+01
9.451217e+01	-1.778042e+01
9.505807e+01	-1.783016e+01
9.560712e+01	-1.787892e+01
9.615934e+01	-1.792895e+01
9.671476e+01	-1.797818e+01
9.727338e+01	-1.802735e+01
9.783522e+01	-1.807534e+01
9.840032e+01	-1.812583e+01
9.896867e+01	-1.817358e+01
9.954031e+01	-1.822249e+01
1.001153e+02	-1.827245e+01
1.006935e+02	-1.832252e+01
1.012751e+02	-1.837113e+01
1.018601e+02	-1.842140e+01
1.024484e+02	-1.847093e+01
1.030402e+02	-1.851910e+01
1.036353e+02	-1.856994e+01
1.042339e+02	-1.861807e+01
1.048360e+02	-1.866767e+01
1.054415e+02	-1.871675e+01
1.060505e+02	-1.876622e+01
1.066631e+02	-1.881571e+01
1.072791e+02	-1.886406e+01
1.078988e+02	-1.891587e+01
1.085220e+02	-1.896387e+01
1.091488e+02	-1.901238e+01
1.097793e+02	-1.906190e+01
1.104133e+02	-1.911247e+01
1.110511e+02	-1.916155e+01
1.116925e+02	-1.921027e+01
1.123376e+02	-1.926081e+01
1.129865e+02	-1.930959e+01
1.136391e+02	-1.935963e+01
1.142955e+02	-1.940958e+01
1.149556e+02	-1.945758e+01
1.156196e+02	-1.950831e+01
1.162874e+02	-1.955558e+01
1.169591e+02	-1.960711e+01
1.176347e+02	-1.965459e+01
1.183141e+02	-1.970586e+01
1.189975e+02	-1.975576e+01
1.196848e+02	-1.980471e+01
1.203761e+02	-1.985258e+01
1.210714e+02	-1.990454e+01
1.217707e+02	-1.995289e+01
1.224740e+02	-2.000202e+01
1.231814e+02	-2.005435e+01
1.238929e+02	-2.010182e+01
1.246085e+02	-2.015140e+01
1.253283e+02	-2.020131e+01
1.260522e+02	-2.024967e+01
1.267802e+02	-2.029923e+01
1.275125e+02	-2.034912e+01
1.282490e+02	-2.039907e+01
1.289898e+02	-2.045026e+01
1.297348e+02	-2.049935e+01
1.304842e+02	-2.054868e+01
1.312378e+02	-2.059678e+01
1.319959e+02	-2.064638e+01
1.327583e+02	-2.069617e+01
1.335251e+02	-2.074785e+01
1.342963e+02	-2.079627e+01
1.350720e+02	-2.084619e+01
1.358522e+02	-2.089495e+01
1.366368e+02	-2.094640e+01
1.374260e+02	-2.099520e+01
1.382198e+02	-2.104399e+01
1.390182e+02	-2.109398e+01
1.398211e+02	-2.114322e+01
1.406287e+02	-2.119156e+01
1.414410e+02	-2.124213e+01
1.422579e+02	-2.129435e+01
1.430796e+02	-2.133977e+01
1.439060e+02	-2.139319e+01
1.447372e+02	-2.144033e+01
1.455732e+02	-2.149000e+01
1.464141e+02	-2.154118e+01
1.472597e+02	-2.159037e+01
1.481103e+02	-2.163962e+01
1.489658e+02	-2.169165e+01
1.498262e+02	-2.173952e+01
1.506916e+02	-2.179014e+01
1.515620e+02	-2.183798e+01
1.524374e+02	-2.188836e+01
1.533179e+02	-2.194120e+01
1.542034e+02	-2.198891e+01
1.550941e+02	-2.203819e+01
1.559899e+02	-2.208764e+01
1.568909e+02	-2.213844e+01
1.577971e+02	-2.218759e+01
1.587085e+02	-2.223757e+01
1.596252e+02	-2.228712e+01
1.605472e+02	-2.233614e+01
1.614745e+02	-2.238639e+01
1.624072e+02	-2.243395e+01
1.633453e+02	-2.248585e+01
1.642887e+02	-2.253495e+01
1.652377e+02	-2.258451e+01
1.661921e+02	-2.263651e+01
1.671520e+02	-2.268660e+01
1.681175e+02	-2.273499e+01
1.690885e+02	-2.278619e+01
1.700651e+02	-2.283321e+01
1.710474e+02	-2.288403e+01
1.720354e+02	-2.293248e+01
1.730291e+02	-2.298443e+01
1.740285e+02	-2.303493e+01
1.750337e+02	-2.308342e+01
1.760446e+02	-2.312991e+01
1.770615e+02	-2.318339e+01
1.780842e+02	-2.323517e+01
1.791128e+02	-2.328405e+01
1.801473e+02	-2.333448e+01
1.811878e+02	-2.338278e+01
1.822344e+02	-2.342962e+01
1.832870e+02	-2.348151e+01
1.843456e+02	-2.353163e+01
1.854104e+02	-2.358267e+01
1.864813e+02	-2.363079e+01
1.875584e+02	-2.368169e+01
1.886418e+02	-2.373018e+01
1.897313e+02	-2.378040e+01
1.908272e+02	-2.383074e+01
1.919294e+02	-2.388178e+01
1.930380e+02	-2.393071e+01
1.941530e+02	-2.398129e+01
1.952744e+02	-2.402853e+01
1.964023e+02	-2.408073e+01
1.975367e+02	-2.412717e+01
1.986777e+02	-2.418131e+01
1.998252e+02	-2.423294e+01
2.009794e+02	-2.428100e+01
2.021403e+02	-2.433052e+01
2.033078e+02	-2.438054e+01
2.044821e+02	-2.443083e+01
2.056632e+02	-2.447958e+01
2.068511e+02	-2.452820e+01
2.080459e+02	-2.457908e+01
2.092475e+02	-2.462736e+01
2.104561e+02	-2.467773e+01
2.116717e+02	-2.472839e+01
2.128943e+02	-2.477968e+01
2.141240e+02	-2.482654e+01
2.153608e+02	-2.487601e+01
2.166047e+02	-2.492828e+01
2.178558e+02	-2.497871e+01
2.191141e+02	-2.502944e+01
2.203797e+02	-2.507626e+01
2.216526e+02	-2.512502e+01
2.229329e+02	-2.517881e+01
2.242205e+02	-2.522833e+01
2.255156e+02	-2.527739e+01
2.268182e+02	-2.532662e+01
2.281283e+02	-2.537752e+01
2.294459e+02	-2.542748e+01
2.307712e+02	-2.547721e+01
2.321041e+02	-2.552906e+01
2.334447e+02	-2.557584e+01
2.347931e+02	-2.562656e+01
2.361493e+02	-2.567964e+01
2.375133e+02	-2.572581e+01
2.388851e+02	-2.577765e+01
2.402649e+02	-2.582589e+01
2.416527e+02	-2.587679e+01
2.430484e+02	-2.592364e+01
2.444523e+02	-2.597726e+01
2.458642e+02	-2.602721e+01
2.472843e+02	-2.607915e+01
2.487126e+02	-2.612233e+01
2.501492e+02	-2.617629e+01
2.515940e+02	-2.622709e+01
2.530472e+02	-2.627863e+01
2.545088e+02	-2.632472e+01
2.559789e+02	-2.637944e+01
2.574574e+02	-2.642280e+01
2.589444e+02	-2.647539e+01
2.604401e+02	-2.652573e+01
2.619444e+02	-2.657748e+01
2.634574e+02	-2.662714e+01
2.649791e+02	-2.667787e+01
2.665096e+02	-2.672367e+01
2.680489e+02	-2.677448e+01
2.695972e+02	-2.682530e+01
2.711544e+02	-2.687473e+01
2.727205e+02	-2.692872e+01
2.742958e+02	-2.697624e+01
2.758801e+02	-2.702803e+01
2.774736e+02	-2.707975e+01
2.790762e+02	-2.712597e+01
2.806882e+02	-2.717549e+01
2.823094e+02	-2.722790e+01
2.839400e+02	-2.727352e+01
2.855800e+02	-2.732413e+01
2.872295e+02	-2.737371e+01
2.888886e+02	-2.742886e+01
2.905572e+02	-2.747307e+01
2.922354e+02	-2.752659e+01
2.939234e+02	-2.757458e+01
2.956211e+02	-2.762844e+01
2.973286e+02	-2.767584e+01
2.990459e+02	-2.772679e+01
3.007732e+02	-2.777824e+01
3.025104e+02	-2.782027e+01
3.042577e+02	-2.787578e+01
3.060151e+02	-2.792384e+01
3.077826e+02	-2.797786e+01
3.095604e+02	-2.802415e+01
3.113484e+02	-2.807574e+01
3.131467e+02	-2.812697e+01
3.149554e+02	-2.817880e+01
3.167746e+02	-2.822600e+01
3.186043e+02	-2.827382e+01
3.204445e+02	-2.832872e+01
3.222954e+02	-2.837810e+01
3.241570e+02	-2.842647e+01
3.260293e+02	-2.847538e+01
3.279124e+02	-2.852624e+01
3.298064e+02	-2.857896e+01
3.317114e+02	-2.862281e+01
3.336273e+02	-2.867542e+01
3.355544e+02	-2.872317e+01
3.374925e+02	-2.878075e+01
3.394418e+02	-2.882684e+01
3.414024e+02	-2.887712e+01
3.433744e+02	-2.892298e+01
3.453577e+02	-2.897674e+01
3.473525e+02	-2.903016e+01
3.493588e+02	-2.908127e+01
3.513766e+02	-2.912740e+01
3.534062e+02	-2.917633e+01
3.554474e+02	-2.922903e+01
3.575005e+02	-2.927704e+01
3.595654e+02	-2.933138e+01
3.616422e+02	-2.937738e+01
3.637311e+02	-2.942682e+01
3.658320e+02	-2.947532e+01
3.679450e+02	-2.952386e+01
3.700702e+02	-2.957716e+01
3.722077e+02	-2.962952e+01
3.743576e+02	-2.967674e+01
3.765199e+02	-2.972903e+01
3.786946e+02	-2.977797e+01
3.808820e+02	-2.982941e+01
3.830819e+02	-2.987644e+01
3.852946e+02	-2.992714e+01
3.875200e+02	-2.997566e+01
3.897583e+02	-3.002925e+01
3.920096e+02	-3.007919e+01
3.942738e+02	-3.012398e+01
3.965511e+02	-3.018180e+01
3.988416e+02	-3.023003e+01
4.011452e+02	-3.027930e+01
4.034622e+02	-3.032679e+01
4.057926e+02	-3.037983e+01
4.081365e+02	-3.043113e+01
4.104938e+02	-3.047825e+01
4.128648e+02	-3.052789e+01
4.152495e+02	-3.057791e+01
4.176480e+02	-3.062392e+01
4.200603e+02	-3.068154e+01
4.224866e+02	-3.073318e+01
4.249268e+02	-3.077935e+01
4.273812e+02	-3.083014e+01
4.298497e+02	-3.088210e+01
4.323325e+02	-3.092571e+01
4.348297e+02	-3.097859e+01
4.373412e+02	-3.103308e+01
4.398673e+02	-3.107980e+01
4.424079e+02	-3.112922e+01
4.449633e+02	-3.118000e+01
4.475334e+02	-3.123254e+01
4.501183e+02	-3.128211e+01
4.527182e+02	-3.133447e+01
4.553330e+02	-3.138220e+01
4.579630e+02	-3.142604e+01
4.606082e+02	-3.148258e+01
4.632687e+02	-3.153575e+01
4.659445e+02	-3.158446e+01
4.686358e+02	-3.163125e+01
4.713426e+02	-3.167628e+01
4.740650e+02	-3.173851e+01
4.768032e+02	-3.178105e+01
4.795572e+02	-3.183457e+01
4.823271e+02	-3.188180e+01
4.851130e+02	-3.193905e+01
4.879150e+02	-3.198639e+01
4.907332e+02	-3.203749e+01
4.935676e+02	-3.208338e+01
4.964185e+02	-3.213236e+01
4.992858e+02	-3.218329e+01
5.021696e+02	-3.223465e+01
5.050701e+02	-3.228655e+01
5.079874e+02	-3.233291e+01
5.109215e+02	-3.238172e+01
5.138726e+02	-3.242885e+01
5.168407e+02	-3.248730e+01
5.198259e+02	-3.253965e+01
5.228284e+02	-3.258137e+01
5.258482e+02	-3.264210e+01
5.288855e+02	-3.268644e+01
5.319403e+02	-3.274488e+01
5.350128e+02	-3.278692e+01
5.381030e+02	-3.283402e+01
5.412111e+02	-3.288891e+01
5.443371e+02	-3.294151e+01
5.474812e+02	-3.299110e+01
5.506434e+02	-3.303590e+01
5.538239e+02	-3.308905e+01
5.570228e+02	-3.314131e+01
5.602401e+02	-3.319776e+01
5.634760e+02	-3.323398e+01
5.667306e+02	-3.328575e+01
5.700040e+02	-3.333606e+01
5.732964e+02	-3.339266e+01
5.766077e+02	-3.343597e+01
5.799382e+02	-3.349663e+01
5.832879e+02	-3.353792e+01
5.866569e+02	-3.359275e+01
5.900454e+02	-3.364411e+01
5.934535e+02	-3.368784e+01
5.968813e+02	-3.374305e+01
6.003288e+02	-3.379289e+01
6.037963e+02	-3.384966e+01
6.072838e+02	-3.389181e+01
6.107914e+02	-3.393817e+01
6.143194e+02	-3.399356e+01
6.178676e+02	-3.404735e+01
6.214364e+02	-3.409190e+01
6.250258e+02	-3.414511e+01
6.286359e+02	-3.419653e+01
6.322669e+02	-3.425252e+01
6.359189e+02	-3.430395e+01
6.395919e+02	-3.434328e+01
6.432862e+02	-3.439715e+01
6.470017e+02	-3.444886e+01
6.507388e+02	-3.450906e+01
6.544974e+02	-3.455333e+01
6.582778e+02	-3.459373e+01
6.620800e+02	-3.464923e+01
6.659041e+02	-3.470653e+01
6.697504e+02	-3.474992e+01
6.736188e+02	-3.479551e+01
6.775096e+02	-3.485692e+01
6.814229e+02	-3.490041e+01
6.853587e+02	-3.495757e+01
6.893173e+02	-3.500222e+01
6.932988e+02	-3.505109e+01
6.973033e+02	-3.509695e+01
7.013309e+02	-3.515242e+01
