Frequency(Hz)	Magnitude(dB)
1.000000e+01	-2.002548e+00
1.005776e+01	-2.020851e+00
1.011585e+01	-2.039571e+00
1.017428e+01	-2.058349e+00
1.023305e+01	-2.077402e+00
1.029215e+01	-2.096442e+00
1.035160e+01	-2.115603e+00
1.041139e+01	-2.135111e+00
1.047153e+01	-2.154536e+00
1.053201e+01	-2.174199e+00
1.059284e+01	-2.194026e+00
1.065403e+01	-2.213838e+00
1.071556e+01	-2.233870e+00
1.077746e+01	-2.254158e+00
1.083971e+01	-2.274590e+00
1.090232e+01	-2.294947e+00
1.096529e+01	-2.315702e+00
1.102862e+01	-2.336223e+00
1.109232e+01	-2.357279e+00
1.115639e+01	-2.378278e+00
1.122083e+01	-2.399213e+00
1.128564e+01	-2.420814e+00
1.135083e+01	-2.442149e+00
1.141639e+01	-2.463599e+00
1.148233e+01	-2.485514e+00
1.154865e+01	-2.507118e+00
1.161536e+01	-2.529102e+00
1.168245e+01	-2.551293e+00
1.174992e+01	-2.573705e+00
1.181779e+01	-2.595890e+00
1.188605e+01	-2.618620e+00
1.195470e+01	-2.641486e+00
1.202375e+01	-2.664452e+00
1.209320e+01	-2.687287e+00
1.216305e+01	-2.710473e+00
1.223330e+01	-2.733974e+00
1.230396e+01	-2.757362e+00
1.237503e+01	-2.780643e+00
1.244651e+01	-2.804295e+00
1.251840e+01	-2.828429e+00
1.259070e+01	-2.852251e+00
1.266343e+01	-2.876744e+00
1.273657e+01	-2.900941e+00
1.281014e+01	-2.925195e+00
1.288413e+01	-2.949832e+00
1.295855e+01	-2.974581e+00
1.303339e+01	-2.999287e+00
1.310867e+01	-3.024600e+00
1.318439e+01	-3.049522e+00
1.326054e+01	-3.075095e+00
1.333713e+01	-3.100273e+00
1.341417e+01	-3.126218e+00
1.349165e+01	-3.151994e+00
1.356958e+01	-3.177649e+00
1.364795e+01	-3.203693e+00
1.372678e+01	-3.229673e+00
1.380607e+01	-3.256194e+00
1.388581e+01	-3.282630e+00
1.396602e+01	-3.309085e+00
1.404668e+01	-3.335921e+00
1.412782e+01	-3.362912e+00
1.420942e+01	-3.390139e+00
1.429149e+01	-3.417224e+00
1.437404e+01	-3.444182e+00
1.445706e+01	-3.471903e+00
1.454057e+01	-3.499736e+00
1.462455e+01	-3.527214e+00
1.470902e+01	-3.555187e+00
1.479398e+01	-3.583136e+00
1.487943e+01	-3.611330e+00
1.496537e+01	-3.639547e+00
1.505181e+01	-3.668326e+00
1.513875e+01	-3.696797e+00
1.522619e+01	-3.725478e+00
1.531414e+01	-3.754304e+00
1.540259e+01	-3.783278e+00
1.549156e+01	-3.812692e+00
1.558103e+01	-3.841799e+00
1.567103e+01	-3.871089e+00
1.576155e+01	-3.900806e+00
1.585258e+01	-3.930517e+00
1.594415e+01	-3.960348e+00
1.603624e+01	-3.990533e+00
1.612886e+01	-4.020445e+00
1.622202e+01	-4.051128e+00
1.631572e+01	-4.081160e+00
1.640996e+01	-4.111662e+00
1.650474e+01	-4.142390e+00
1.660008e+01	-4.173229e+00
1.669596e+01	-4.204149e+00
1.679239e+01	-4.235411e+00
1.688938e+01	-4.266637e+00
1.698694e+01	-4.297924e+00
1.708505e+01	-4.329349e+00
1.718373e+01	-4.360976e+00
1.728299e+01	-4.392584e+00
1.738281e+01	-4.424617e+00
1.748322e+01	-4.456759e+00
1.758420e+01	-4.488856e+00
1.768576e+01	-4.521113e+00
1.778792e+01	-4.553677e+00
1.789066e+01	-4.586386e+00
1.799399e+01	-4.618835e+00
1.809793e+01	-4.651580e+00
1.820246e+01	-4.684788e+00
1.830760e+01	-4.718065e+00
1.841334e+01	-4.751102e+00
1.851969e+01	-4.784393e+00
1.862666e+01	-4.817640e+00
1.873425e+01	-4.851472e+00
1.884246e+01	-4.885048e+00
1.895129e+01	-4.919012e+00
1.906075e+01	-4.953020e+00
1.917085e+01	-4.987016e+00
1.928158e+01	-5.021434e+00
1.939295e+01	-5.055625e+00
1.950496e+01	-5.089904e+00
1.961762e+01	-5.124391e+00
1.973093e+01	-5.159259e+00
1.984490e+01	-5.194050e+00
1.995952e+01	-5.229166e+00
2.007480e+01	-5.264496e+00
2.019076e+01	-5.299346e+00
2.030738e+01	-5.334718e+00
2.042467e+01	-5.370017e+00
2.054264e+01	-5.405838e+00
2.066130e+01	-5.441383e+00
2.078064e+01	-5.477378e+00
2.090066e+01	-5.513027e+00
2.102139e+01	-5.549058e+00
2.114280e+01	-5.585249e+00
2.126492e+01	-5.621634e+00
2.138775e+01	-5.658136e+00
2.151128e+01	-5.694423e+00
2.163553e+01	-5.730983e+00
2.176050e+01	-5.768002e+00
2.188619e+01	-5.804443e+00
2.201260e+01	-5.841058e+00
2.213974e+01	-5.878348e+00
2.226762e+01	-5.915458e+00
2.239624e+01	-5.952823e+00
2.252560e+01	-5.990342e+00
2.265571e+01	-6.027518e+00
2.278656e+01	-6.065300e+00
2.291818e+01	-6.103043e+00
2.305055e+01	-6.141014e+00
2.318369e+01	-6.178917e+00
2.331760e+01	-6.216744e+00
2.345228e+01	-6.254971e+00
2.358774e+01	-6.292979e+00
2.372398e+01	-6.331974e+00
2.386101e+01	-6.369970e+00
2.399883e+01	-6.408352e+00
2.413745e+01	-6.447108e+00
2.427686e+01	-6.485842e+00
2.441709e+01	-6.524695e+00
2.455812e+01	-6.563390e+00
2.469997e+01	-6.602747e+00
2.484263e+01	-6.641610e+00
2.498612e+01	-6.681099e+00
2.513044e+01	-6.720594e+00
2.527559e+01	-6.760073e+00
2.542158e+01	-6.799478e+00
2.556842e+01	-6.839107e+00
2.571610e+01	-6.878940e+00
2.586463e+01	-6.918576e+00
2.601403e+01	-6.958437e+00
2.616428e+01	-6.998483e+00
2.631541e+01	-7.038623e+00
2.646740e+01	-7.078506e+00
2.662028e+01	-7.118819e+00
2.677404e+01	-7.159361e+00
2.692868e+01	-7.199797e+00
2.708422e+01	-7.240239e+00
2.724066e+01	-7.280541e+00
2.739800e+01	-7.321658e+00
2.755625e+01	-7.362071e+00
2.771541e+01	-7.403303e+00
2.787550e+01	-7.444399e+00
2.803650e+01	-7.485247e+00
2.819844e+01	-7.526425e+00
2.836131e+01	-7.567606e+00
2.852513e+01	-7.609035e+00
2.868989e+01	-7.650062e+00
2.885560e+01	-7.692133e+00
2.902227e+01	-7.733213e+00
2.918990e+01	-7.775103e+00
2.935850e+01	-7.816804e+00
2.952807e+01	-7.858540e+00
2.969863e+01	-7.900579e+00
2.987016e+01	-7.942235e+00
3.004269e+01	-7.984634e+00
3.021622e+01	-8.026665e+00
3.039075e+01	-8.068357e+00
3.056628e+01	-8.111078e+00
3.074283e+01	-8.153564e+00
3.092040e+01	-8.195683e+00
3.109900e+01	-8.238253e+00
3.127862e+01	-8.280831e+00
3.145929e+01	-8.323713e+00
3.164099e+01	-8.365700e+00
3.182375e+01	-8.408850e+00
3.200756e+01	-8.451299e+00
3.219244e+01	-8.494708e+00
3.237838e+01	-8.537515e+00
3.256540e+01	-8.580394e+00
3.275349e+01	-8.623600e+00
3.294268e+01	-8.666544e+00
3.313295e+01	-8.710413e+00
3.332433e+01	-8.753519e+00
3.351681e+01	-8.797166e+00
3.371040e+01	-8.840208e+00
3.390511e+01	-8.883808e+00
3.410094e+01	-8.927717e+00
3.429791e+01	-8.970809e+00
3.449601e+01	-9.014936e+00
3.469526e+01	-9.058241e+00
3.489566e+01	-9.102397e+00
3.509721e+01	-9.146000e+00
3.529993e+01	-9.190495e+00
3.550382e+01	-9.234802e+00
3.570889e+01	-9.278698e+00
3.591515e+01	-9.322319e+00
3.612259e+01	-9.367022e+00
3.633123e+01	-9.410532e+00
3.654108e+01	-9.455166e+00
3.675214e+01	-9.500240e+00
3.696442e+01	-9.544198e+00
3.717792e+01	-9.589335e+00
3.739266e+01	-9.633837e+00
3.760864e+01	-9.678015e+00
3.782587e+01	-9.722738e+00
3.804435e+01	-9.767620e+00
3.826409e+01	-9.812305e+00
3.848510e+01	-9.857151e+00
3.870739e+01	-9.901676e+00
3.893096e+01	-9.946871e+00
3.915583e+01	-9.991847e+00
3.938199e+01	-1.003660e+01
3.960946e+01	-1.008214e+01
3.983824e+01	-1.012691e+01
4.006834e+01	-1.017224e+01
4.029978e+01	-1.021699e+01
4.053255e+01	-1.026260e+01
4.076666e+01	-1.030777e+01
4.100213e+01	-1.035330e+01
4.123896e+01	-1.039877e+01
4.147715e+01	-1.044467e+01
4.171672e+01	-1.048981e+01
4.195767e+01	-1.053512e+01
4.220002e+01	-1.058138e+01
4.244377e+01	-1.062703e+01
4.268892e+01	-1.067255e+01
4.293549e+01	-1.071832e+01
4.318348e+01	-1.076443e+01
4.343291e+01	-1.081019e+01
4.368377e+01	-1.085561e+01
4.393609e+01	-1.090155e+01
4.418986e+01	-1.094720e+01
4.444510e+01	-1.099451e+01
4.470182e+01	-1.103976e+01
4.496001e+01	-1.108609e+01
4.521970e+01	-1.113191e+01
4.548089e+01	-1.117849e+01
4.574358e+01	-1.122435e+01
4.600779e+01	-1.127109e+01
4.627353e+01	-1.131765e+01
4.654081e+01	-1.136337e+01
4.680963e+01	-1.140956e+01
4.708000e+01	-1.145599e+01
4.735193e+01	-1.150336e+01
4.762543e+01	-1.154893e+01
4.790051e+01	-1.159541e+01
4.817719e+01	-1.164234e+01
4.845545e+01	-1.168946e+01
4.873533e+01	-1.173510e+01
4.901682e+01	-1.178296e+01
4.929994e+01	-1.182939e+01
4.958470e+01	-1.187575e+01
4.987110e+01	-1.192238e+01
5.015915e+01	-1.196963e+01
5.044887e+01	-1.201658e+01
5.074026e+01	-1.206263e+01
5.103333e+01	-1.211040e+01
5.132810e+01	-1.215749e+01
5.162457e+01	-1.220371e+01
5.192275e+01	-1.225063e+01
5.222265e+01	-1.229841e+01
5.252429e+01	-1.234528e+01
5.282767e+01	-1.239267e+01
5.313280e+01	-1.243926e+01
5.343969e+01	-1.248647e+01
5.374836e+01	-1.253378e+01
5.405880e+01	-1.258033e+01
5.437105e+01	-1.262841e+01
5.468509e+01	-1.267635e+01
5.500095e+01	-1.272391e+01
5.531863e+01	-1.276988e+01
5.563815e+01	-1.281762e+01
5.595951e+01	-1.286513e+01
5.628273e+01	-1.291282e+01
5.660782e+01	-1.296037e+01
5.693479e+01	-1.300790e+01
5.726364e+01	-1.305507e+01
5.759439e+01	-1.310299e+01
5.792705e+01	-1.315069e+01
5.826164e+01	-1.319792e+01
5.859815e+01	-1.324510e+01
5.893662e+01	-1.329284e+01
5.927703e+01	-1.334024e+01
5.961941e+01	-1.338925e+01
5.996377e+01	-1.343598e+01
6.031012e+01	-1.348408e+01
6.065847e+01	-1.353279e+01
6.100883e+01	-1.358041e+01
6.136121e+01	-1.362807e+01
6.171563e+01	-1.367595e+01
6.207210e+01	-1.372546e+01
6.243063e+01	-1.377163e+01
6.279122e+01	-1.381945e+01
6.315390e+01	-1.386822e+01
6.351868e+01	-1.391561e+01
6.388556e+01	-1.396381e+01
6.425456e+01	-1.401162e+01
6.462569e+01	-1.405978e+01
6.499897e+01	-1.410835e+01
6.537440e+01	-1.415522e+01
6.575200e+01	-1.420335e+01
6.613178e+01	-1.425096e+01
6.651375e+01	-1.430066e+01
6.689793e+01	-1.434803e+01
6.728433e+01	-1.439629e+01
6.767297e+01	-1.444440e+01
6.806384e+01	-1.449258e+01
6.845698e+01	-1.454180e+01
6.885238e+01	-1.459040e+01
6.925007e+01	-1.463762e+01
6.965005e+01	-1.468609e+01
7.005235e+01	-1.473442e+01
7.045697e+01	-1.478262e+01
7.086393e+01	-1.483178e+01
7.127323e+01	-1.488002e+01
7.168490e+01	-1.492828e+01
7.209895e+01	-1.497560e+01
7.251539e+01	-1.502501e+01
7.293424e+01	-1.507302e+01
7.335551e+01	-1.512279e+01
7.377920e+01	-1.517042e+01
7.420535e+01	-1.521892e+01
7.463396e+01	-1.526682e+01
7.506504e+01	-1.531631e+01
7.549861e+01	-1.536462e+01
7.593469e+01	-1.541300e+01
7.637328e+01	-1.546179e+01
7.681441e+01	-1.551078e+01
7.725809e+01	-1.555942e+01
7.770433e+01	-1.560730e+01
7.815315e+01	-1.565752e+01
7.860456e+01	-1.570487e+01
7.905857e+01	-1.575413e+01
7.951521e+01	-1.580176e+01
7.997449e+01	-1.585045e+01
8.043642e+01	-1.589980e+01
8.090102e+01	-1.594886e+01
8.136830e+01	-1.599809e+01
8.183828e+01	-1.604669e+01
8.231097e+01	-1.609444e+01
8.278640e+01	-1.614313e+01
8.326457e+01	-1.619284e+01
8.374550e+01	-1.624176e+01
8.422921e+01	-1.629064e+01
8.471572e+01	-1.633894e+01
8.520503e+01	-1.638883e+01
8.569717e+01	-1.643576e+01
8.619215e+01	-1.648554e+01
8.669000e+01	-1.653411e+01
8.719071e+01	-1.658387e+01
8.769432e+01	-1.663202e+01
8.820084e+01	-1.668182e+01
8.871029e+01	-1.673005e+01
8.922267e+01	-1.677946e+01
8.973802e+01	-1.682827e+01
9.025634e+01	-1.687725e+01
9.077766e+01	-1.692545e+01
9.130199e+01	-1.697598e+01
9.182935e+01	-1.702353e+01
9.235975e+01	-1.707416e+01
9.289321e+01	-1.712240e+01
9.342976e+01	-1.717105e+01
9.396941e+01	-1.722036e+01
9.451217e+01	-1.726976e+01
9.505807e+01	-1.731833e+01
9.560712e+01	-1.736906e+01
9.615934e+01	-1.741762e+01
9.671476e+01	-1.746541e+01
9.727338e+01	-1.751448e+01
9.783522e+01	-1.756601e+01
9.840032e+01	-1.761315e+01
9.896867e+01	-1.766305e+01
9.954031e+01	-1.771192e+01
1.001153e+02	-1.776118e+01
1.006935e+02	-1.781032e+01
1.012751e+02	-1.785956e+01
1.018601e+02	-1.790824e+01
1.024484e+02	-1.795751e+01
1.030402e+02	-1.800790e+01
1.036353e+02	-1.805589e+01
1.042339e+02	-1.810647e+01
1.048360e+02	-1.815478e+01
1.054415e+02	-1.820483e+01
1.060505e+02	-1.825384e+01
1.066631e+02	-1.830317e+01
1.072791e+02	-1.835273e+01
1.078988e+02	-1.840260e+01
1.085220e+02	-1.845093e+01
1.091488e+02	-1.850094e+01
1.097793e+02	-1.854953e+01
1.104133e+02	-1.859882e+01
1.110511e+02	-1.864822e+01
1.116925e+02	-1.869825e+01
1.123376e+02	-1.874572e+01
1.129865e+02	-1.879616e+01
1.136391e+02	-1.884624e+01
1.142955e+02	-1.889521e+01
1.149556e+02	-1.894472e+01
1.156196e+02	-1.899287e+01
1.162874e+02	-1.904532e+01
1.169591e+02	-1.909298e+01
1.176347e+02	-1.914166e+01
1.183141e+02	-1.919125e+01
1.189975e+02	-1.924174e+01
1.196848e+02	-1.929027e+01
1.203761e+02	-1.933845e+01
1.210714e+02	-1.939031e+01
1.217707e+02	-1.944005e+01
1.224740e+02	-1.948711e+01
1.231814e+02	-1.953673e+01
1.238929e+02	-1.958691e+01
1.246085e+02	-1.963740e+01
1.253283e+02	-1.968582e+01
1.260522e+02	-1.973405e+01
1.267802e+02	-1.978429e+01
1.275125e+02	-1.983544e+01
1.282490e+02	-1.988473e+01
1.289898e+02	-1.993293e+01
1.297348e+02	-1.998254e+01
1.304842e+02	-2.003299e+01
1.312378e+02	-2.008338e+01
1.319959e+02	-2.013189e+01
1.327583e+02	-2.018280e+01
1.335251e+02	-2.023183e+01
1.342963e+02	-2.028020e+01
1.350720e+02	-2.032966e+01
1.358522e+02	-2.037922e+01
1.366368e+02	-2.042955e+01
1.374260e+02	-2.047954e+01
1.382198e+02	-2.052794e+01
1.390182e+02	-2.057909e+01
1.398211e+02	-2.062848e+01
1.406287e+02	-2.067814e+01
1.414410e+02	-2.072747e+01
1.422579e+02	-2.077775e+01
1.430796e+02	-2.082679e+01
1.439060e+02	-2.087608e+01
1.447372e+02	-2.092525e+01
1.455732e+02	-2.097646e+01
1.464141e+02	-2.102538e+01
1.472597e+02	-2.107379e+01
1.481103e+02	-2.112484e+01
1.489658e+02	-2.117496e+01
1.498262e+02	-2.122384e+01
1.506916e+02	-2.127217e+01
1.515620e+02	-2.132339e+01
1.524374e+02	-2.137224e+01
1.533179e+02	-2.142185e+01
1.542034e+02	-2.147095e+01
1.550941e+02	-2.152176e+01
1.559899e+02	-2.157025e+01
1.568909e+02	-2.162103e+01
1.577971e+02	-2.167161e+01
1.587085e+02	-2.172137e+01
1.596252e+02	-2.176916e+01
1.605472e+02	-2.181823e+01
1.614745e+02	-2.186970e+01
1.624072e+02	-2.191920e+01
1.633453e+02	-2.196868e+01
1.642887e+02	-2.201878e+01
1.652377e+02	-2.206747e+01
1.661921e+02	-2.211658e+01
1.671520e+02	-2.216544e+01
1.681175e+02	-2.221952e+01
1.690885e+02	-2.226455e+01
1.700651e+02	-2.231578e+01
1.710474e+02	-2.236654e+01
1.720354e+02	-2.241703e+01
1.730291e+02	-2.246727e+01
1.740285e+02	-2.251414e+01
1.750337e+02	-2.256699e+01
1.760446e+02	-2.261494e+01
1.770615e+02	-2.266607e+01
1.780842e+02	-2.271280e+01
1.791128e+02	-2.276470e+01
1.801473e+02	-2.281406e+01
1.811878e+02	-2.286326e+01
1.822344e+02	-2.291277e+01
1.832870e+02	-2.296352e+01
1.843456e+02	-2.301299e+01
1.854104e+02	-2.306304e+01
1.864813e+02	-2.311268e+01
1.875584e+02	-2.316169e+01
1.886418e+02	-2.321287e+01
1.897313e+02	-2.326216e+01
1.908272e+02	-2.330893e+01
1.919294e+02	-2.336266e+01
1.930380e+02	-2.341327e+01
1.941530e+02	-2.346203e+01
1.952744e+02	-2.351234e+01
1.964023e+02	-2.356221e+01
1.975367e+02	-2.360864e+01
1.986777e+02	-2.366171e+01
1.998252e+02	-2.371144e+01
2.009794e+02	-2.375970e+01
2.021403e+02	-2.381109e+01
2.033078e+02	-2.386067e+01
2.044821e+02	-2.391028e+01
2.056632e+02	-2.396042e+01
2.068511e+02	-2.401194e+01
2.080459e+02	-2.406117e+01
2.092475e+02	-2.410901e+01
2.104561e+02	-2.415863e+01
2.116717e+02	-2.420955e+01
2.128943e+02	-2.426164e+01
2.141240e+02	-2.431044e+01
2.153608e+02	-2.436061e+01
2.166047e+02	-2.440778e+01
2.178558e+02	-2.445990e+01
2.191141e+02	-2.450968e+01
2.203797e+02	-2.455832e+01
2.216526e+02	-2.460928e+01
2.229329e+02	-2.465995e+01
2.242205e+02	-2.470856e+01
2.255156e+02	-2.475697e+01
2.268182e+02	-2.480623e+01
2.281283e+02	-2.485678e+01
2.294459e+02	-2.490884e+01
2.307712e+02	-2.495859e+01
2.321041e+02	-2.500760e+01
2.334447e+02	-2.505657e+01
2.347931e+02	-2.510490e+01
2.361493e+02	-2.515724e+01
2.375133e+02	-2.520667e+01
2.388851e+02	-2.525742e+01
2.402649e+02	-2.530692e+01
2.416527e+02	-2.535740e+01
2.430484e+02	-2.540856e+01
2.444523e+02	-2.545702e+01
2.458642e+02	-2.551034e+01
2.472843e+02	-2.555933e+01
2.487126e+02	-2.560745e+01
2.501492e+02	-2.565895e+01
2.515940e+02	-2.570819e+01
2.530472e+02	-2.575910e+01
2.545088e+02	-2.580759e+01
2.559789e+02	-2.585508e+01
2.574574e+02	-2.591014e+01
2.589444e+02	-2.595608e+01
2.604401e+02	-2.600529e+01
2.619444e+02	-2.605653e+01
2.634574e+02	-2.610803e+01
2.649791e+02	-2.616052e+01
2.665096e+02	-2.620758e+01
2.680489e+02	-2.625628e+01
2.695972e+02	-2.630647e+01
2.711544e+02	-2.635537e+01
2.727205e+02	-2.640645e+01
2.742958e+02	-2.645697e+01
2.758801e+02	-2.650700e+01
2.774736e+02	-2.655532e+01
2.790762e+02	-2.661087e+01
2.806882e+02	-2.665609e+01
2.823094e+02	-2.670718e+01
2.839400e+02	-2.675669e+01
2.855800e+02	-2.680507e+01
2.872295e+02	-2.685379e+01
2.888886e+02	-2.690585e+01
2.905572e+02	-2.695402e+01
2.922354e+02	-2.700293e+01
2.939234e+02	-2.705412e+01
2.956211e+02	-2.710565e+01
2.973286e+02	-2.715406e+01
2.990459e+02	-2.720833e+01
3.007732e+02	-2.725934e+01
3.025104e+02	-2.730389e+01
3.042577e+02	-2.735589e+01
3.060151e+02	-2.740308e+01
3.077826e+02	-2.745312e+01
3.095604e+02	-2.750285e+01
3.113484e+02	-2.755784e+01
3.131467e+02	-2.760899e+01
3.149554e+02	-2.765168e+01
3.167746e+02	-2.770709e+01
3.186043e+02	-2.775909e+01
3.204445e+02	-2.780500e+01
3.222954e+02	-2.785786e+01
3.241570e+02	-2.790957e+01
3.260293e+02	-2.795504e+01
3.279124e+02	-2.800491e+01
3.298064e+02	-2.806035e+01
3.317114e+02	-2.810373e+01
3.336273e+02	-2.815644e+01
3.355544e+02	-2.820806e+01
3.374925e+02	-2.825659e+01
3.394418e+02	-2.830677e+01
3.414024e+02	-2.835862e+01
3.433744e+02	-2.840407e+01
3.453577e+02	-2.845441e+01
3.473525e+02	-2.850618e+01
3.493588e+02	-2.855338e+01
3.513766e+02	-2.860525e+01
3.534062e+02	-2.865560e+01
3.554474e+02	-2.870712e+01
3.575005e+02	-2.875753e+01
3.595654e+02	-2.880303e+01
3.616422e+02	-2.885923e+01
3.637311e+02	-2.890923e+01
3.658320e+02	-2.896019e+01
3.679450e+02	-2.900652e+01
3.700702e+02	-2.906143e+01
3.722077e+02	-2.910495e+01
3.743576e+02	-2.915824e+01
3.765199e+02	-2.921063e+01
3.786946e+02	-2.925769e+01
3.808820e+02	-2.931070e+01
3.830819e+02	-2.935847e+01
3.852946e+02	-2.940758e+01
3.875200e+02	-2.945771e+01
3.897583e+02	-2.950498e+01
3.920096e+02	-2.955830e+01
3.942738e+02	-2.960522e+01
3.965511e+02	-2.965819e+01
3.988416e+02	-2.971140e+01
4.011452e+02	-2.976101e+01
4.034622e+02	-2.981106e+01
4.057926e+02	-2.985470e+01
4.081365e+02	-2.990595e+01
4.104938e+02	-2.995604e+01
4.128648e+02	-3.000985e+01
4.152495e+02	-3.006272e+01
4.176480e+02	-3.010689e+01
4.200603e+02	-3.015408e+01
4.224866e+02	-3.021039e+01
4.249268e+02	-3.025649e+01
4.273812e+02	-3.030692e+01
4.298497e+02	-3.035868e+01
4.323325e+02	-3.040747e+01
4.348297e+02	-3.046055e+01
4.373412e+02	-3.051013e+01
4.398673e+02	-3.055888e+01
4.424079e+02	-3.061155e+01
4.449633e+02	-3.065832e+01
4.475334e+02	-3.071288e+01
4.501183e+02	-3.076264e+01
4.527182e+02	-3.081090e+01
4.553330e+02	-3.086279e+01
4.579630e+02	-3.090856e+01
4.606082e+02	-3.096403e+01
4.632687e+02	-3.101084e+01
4.659445e+02	-3.106253e+01
4.686358e+02	-3.111643e+01
4.713426e+02	-3.115983e+01
4.740650e+02	-3.121041e+01
4.768032e+02	-3.126262e+01
4.795572e+02	-3.131520e+01
4.823271e+02	-3.136008e+01
4.851130e+02	-3.141403e+01
4.879150e+02	-3.146422e+01
4.907332e+02	-3.151218e+01
4.935676e+02	-3.156664e+01
4.964185e+02	-3.162312e+01
4.992858e+02	-3.166610e+01
5.021696e+02	-3.171066e+01
5.050701e+02	-3.176605e+01
5.079874e+02	-3.181813e+01
5.109215e+02	-3.186275e+01
5.138726e+02	-3.191652e+01
5.168407e+02	-3.196047e+01
5.198259e+02	-3.201340e+01
5.228284e+02	-3.206602e+01
5.258482e+02	-3.211719e+01
5.288855e+02	-3.216298e+01
5.319403e+02	-3.221323e+01
5.350128e+02	-3.226161e+01
5.381030e+02	-3.231698e+01
5.412111e+02	-3.236820e+01
5.443371e+02	-3.241197e+01
5.474812e+02	-3.246467e+01
5.506434e+02	-3.251591e+01
5.538239e+02	-3.256663e+01
5.570228e+02	-3.261105e+01
5.602401e+02	-3.267043e+01
5.634760e+02	-3.271464e+01
5.667306e+02	-3.277310e+01
5.700040e+02	-3.282250e+01
5.732964e+02	-3.286604e+01
5.766077e+02	-3.292447e+01
5.799382e+02	-3.296611e+01
5.832879e+02	-3.301672e+01
5.866569e+02	-3.307523e+01
5.900454e+02	-3.312015e+01
5.934535e+02	-3.317859e+01
5.968813e+02	-3.321720e+01
6.003288e+02	-3.326701e+01
6.037963e+02	-3.331496e+01
6.072838e+02	-3.337152e+01
6.107914e+02	-3.342260e+01
6.143194e+02	-3.346909e+01
6.178676e+02	-3.351609e+01
6.214364e+02	-3.357372e+01
6.250258e+02	-3.362317e+01
6.286359e+02	-3.367547e+01
6.322669e+02	-3.371938e+01
6.359189e+02	-3.377549e+01
6.395919e+02	-3.382552e+01
6.432862e+02	-3.386727e+01
6.470017e+02	-3.392002e+01
6.507388e+02	-3.397687e+01
6.544974e+02	-3.402201e+01
6.582778e+02	-3.407833e+01
6.620800e+02	-3.412469e+01
6.659041e+02	-3.417349e+01
6.697504e+02	-3.422287e+01
6.736188e+02	-3.428006e+01
6.775096e+02	-3.432819e+01
6.814229e+02	-3.436880e+01
6.853587e+02	-3.442693e+01
6.893173e+02	-3.447330e+01
6.932988e+02	-3.452034e+01
6.973033e+02	-3.457678e+01
7.013309e+02	-3.462941e+01
