Frequency(Hz)	Magnitude(dB)
1.000000e+01	-2.239064e+00
1.005776e+01	-2.259226e+00
1.011585e+01	-2.279611e+00
1.017428e+01	-2.300239e+00
1.023305e+01	-2.320501e+00
1.029215e+01	-2.341531e+00
1.035160e+01	-2.362340e+00
1.041139e+01	-2.383338e+00
1.047153e+01	-2.404635e+00
1.053201e+01	-2.426046e+00
1.059284e+01	-2.447519e+00
1.065403e+01	-2.469121e+00
1.071556e+01	-2.490608e+00
1.077746e+01	-2.512807e+00
1.083971e+01	-2.534840e+00
1.090232e+01	-2.557173e+00
1.096529e+01	-2.579404e+00
1.102862e+01	-2.601706e+00
1.109232e+01	-2.624593e+00
1.115639e+01	-2.647462e+00
1.122083e+01	-2.670141e+00
1.128564e+01	-2.693114e+00
1.135083e+01	-2.716444e+00
1.141639e+01	-2.739657e+00
1.148233e+01	-2.762879e+00
1.154865e+01	-2.786842e+00
1.161536e+01	-2.810485e+00
1.168245e+01	-2.834134e+00
1.174992e+01	-2.858215e+00
1.181779e+01	-2.882677e+00
1.188605e+01	-2.907053e+00
1.195470e+01	-2.931329e+00
1.202375e+01	-2.955978e+00
1.209320e+01	-2.980796e+00
1.216305e+01	-3.005741e+00
1.223330e+01	-3.030927e+00
1.230396e+01	-3.055663e+00
1.237503e+01	-3.081439e+00
1.244651e+01	-3.106866e+00
1.251840e+01	-3.132794e+00
1.259070e+01	-3.158257e+00
1.266343e+01	-3.184122e+00
1.273657e+01	-3.210027e+00
1.281014e+01	-3.236395e+00
1.288413e+01	-3.262888e+00
1.295855e+01	-3.289363e+00
1.303339e+01	-3.316011e+00
1.310867e+01	-3.342781e+00
1.318439e+01	-3.369719e+00
1.326054e+01	-3.396771e+00
1.333713e+01	-3.424134e+00
1.341417e+01	-3.451391e+00
1.349165e+01	-3.479002e+00
1.356958e+01	-3.506517e+00
1.364795e+01	-3.534027e+00
1.372678e+01	-3.562205e+00
1.380607e+01	-3.590439e+00
1.388581e+01	-3.618602e+00
1.396602e+01	-3.646716e+00
1.404668e+01	-3.675319e+00
1.412782e+01	-3.704032e+00
1.420942e+01	-3.732769e+00
1.429149e+01	-3.761558e+00
1.437404e+01	-3.790574e+00
1.445706e+01	-3.819890e+00
1.454057e+01	-3.849185e+00
1.462455e+01	-3.878986e+00
1.470902e+01	-3.908441e+00
1.479398e+01	-3.937751e+00
1.487943e+01	-3.968051e+00
1.496537e+01	-3.997812e+00
1.505181e+01	-4.028201e+00
1.513875e+01	-4.058664e+00
1.522619e+01	-4.089062e+00
1.531414e+01	-4.119288e+00
1.540259e+01	-4.150275e+00
1.549156e+01	-4.180979e+00
1.558103e+01	-4.211997e+00
1.567103e+01	-4.243134e+00
1.576155e+01	-4.274303e+00
1.585258e+01	-4.305908e+00
1.594415e+01	-4.337291e+00
1.603624e+01	-4.369083e+00
1.612886e+01	-4.400575e+00
1.622202e+01	-4.432770e+00
1.631572e+01	-4.464972e+00
1.640996e+01	-4.496874e+00
1.650474e+01	-4.529578e+00
1.660008e+01	-4.561948e+00
1.669596e+01	-4.594463e+00
1.679239e+01	-4.626873e+00
1.688938e+01	-4.660254e+00
1.698694e+01	-4.692879e+00
1.708505e+01	-4.725905e+00
1.718373e+01	-4.759632e+00
1.728299e+01	-4.793040e+00
1.738281e+01	-4.826345e+00
1.748322e+01	-4.859869e+00
1.758420e+01	-4.893371e+00
1.768576e+01	-4.927487e+00
1.778792e+01	-4.961360e+00
1.789066e+01	-4.995450e+00
1.799399e+01	-5.029886e+00
1.809793e+01	-5.064234e+00
1.820246e+01	-5.098734e+00
1.830760e+01	-5.133219e+00
1.841334e+01	-5.168120e+00
1.851969e+01	-5.202916e+00
1.862666e+01	-5.238120e+00
1.873425e+01	-5.272943e+00
1.884246e+01	-5.308469e+00
1.895129e+01	-5.343756e+00
1.906075e+01	-5.379118e+00
1.917085e+01	-5.414850e+00
1.928158e+01	-5.450470e+00
1.939295e+01	-5.486179e+00
1.950496e+01	-5.522056e+00
1.961762e+01	-5.557781e+00
1.973093e+01	-5.594567e+00
1.984490e+01	-5.630582e+00
1.995952e+01	-5.666960e+00
2.007480e+01	-5.703301e+00
2.019076e+01	-5.740366e+00
2.030738e+01	-5.777152e+00
2.042467e+01	-5.813919e+00
2.054264e+01	-5.850638e+00
2.066130e+01	-5.887770e+00
2.078064e+01	-5.925173e+00
2.090066e+01	-5.962088e+00
2.102139e+01	-5.999788e+00
2.114280e+01	-6.037297e+00
2.126492e+01	-6.074749e+00
2.138775e+01	-6.112671e+00
2.151128e+01	-6.150128e+00
2.163553e+01	-6.188171e+00
2.176050e+01	-6.226712e+00
2.188619e+01	-6.264650e+00
2.201260e+01	-6.303020e+00
2.213974e+01	-6.340804e+00
2.226762e+01	-6.379434e+00
2.239624e+01	-6.418043e+00
2.252560e+01	-6.456796e+00
2.265571e+01	-6.495841e+00
2.278656e+01	-6.534452e+00
2.291818e+01	-6.573218e+00
2.305055e+01	-6.612721e+00
2.318369e+01	-6.651764e+00
2.331760e+01	-6.690880e+00
2.345228e+01	-6.730554e+00
2.358774e+01	-6.770018e+00
2.372398e+01	-6.809377e+00
2.386101e+01	-6.848962e+00
2.399883e+01	-6.888666e+00
2.413745e+01	-6.928350e+00
2.427686e+01	-6.968214e+00
2.441709e+01	-7.008262e+00
2.455812e+01	-7.048438e+00
2.469997e+01	-7.088526e+00
2.484263e+01	-7.129179e+00
2.498612e+01	-7.169542e+00
2.513044e+01	-7.210099e+00
2.527559e+01	-7.250514e+00
2.542158e+01	-7.291331e+00
2.556842e+01	-7.332045e+00
2.571610e+01	-7.372715e+00
2.586463e+01	-7.413776e+00
2.601403e+01	-7.454304e+00
2.616428e+01	-7.495848e+00
2.631541e+01	-7.536665e+00
2.646740e+01	-7.577740e+00
2.662028e+01	-7.619006e+00
2.677404e+01	-7.660423e+00
2.692868e+01	-7.701876e+00
2.708422e+01	-7.743760e+00
2.724066e+01	-7.785790e+00
2.739800e+01	-7.827513e+00
2.755625e+01	-7.869105e+00
2.771541e+01	-7.910813e+00
2.787550e+01	-7.953109e+00
2.803650e+01	-7.995083e+00
2.819844e+01	-8.036832e+00
2.836131e+01	-8.079331e+00
2.852513e+01	-8.121481e+00
2.868989e+01	-8.163945e+00
2.885560e+01	-8.206334e+00
2.902227e+01	-8.248828e+00
2.918990e+01	-8.291270e+00
2.935850e+01	-8.334301e+00
2.952807e+01	-8.376907e+00
2.969863e+01	-8.419739e+00
2.987016e+01	-8.462495e+00
3.004269e+01	-8.505369e+00
3.021622e+01	-8.548689e+00
3.039075e+01	-8.591462e+00
3.056628e+01	-8.633937e+00
3.074283e+01	-8.677632e+00
3.092040e+01	-8.721035e+00
3.109900e+01	-8.764485e+00
3.127862e+01	-8.808123e+00
3.145929e+01	-8.851013e+00
3.164099e+01	-8.894654e+00
3.182375e+01	-8.938424e+00
3.200756e+01	-8.981929e+00
3.219244e+01	-9.025879e+00
3.237838e+01	-9.069584e+00
3.256540e+01	-9.113609e+00
3.275349e+01	-9.157716e+00
3.294268e+01	-9.201701e+00
3.313295e+01	-9.245569e+00
3.332433e+01	-9.289719e+00
3.351681e+01	-9.333980e+00
3.371040e+01	-9.377935e+00
3.390511e+01	-9.422439e+00
3.410094e+01	-9.466386e+00
3.429791e+01	-9.510875e+00
3.449601e+01	-9.555793e+00
3.469526e+01	-9.599718e+00
3.489566e+01	-9.644617e+00
3.509721e+01	-9.689218e+00
3.529993e+01	-9.733852e+00
3.550382e+01	-9.778449e+00
3.570889e+01	-9.823414e+00
3.591515e+01	-9.868250e+00
3.612259e+01	-9.912885e+00
3.633123e+01	-9.958147e+00
3.654108e+01	-1.000278e+01
3.675214e+01	-1.004762e+01
3.696442e+01	-1.009349e+01
3.717792e+01	-1.013853e+01
3.739266e+01	-1.018357e+01
3.760864e+01	-1.022869e+01
3.782587e+01	-1.027464e+01
3.804435e+01	-1.031962e+01
3.826409e+01	-1.036421e+01
3.848510e+01	-1.041056e+01
3.870739e+01	-1.045628e+01
3.893096e+01	-1.050147e+01
3.915583e+01	-1.054686e+01
3.938199e+01	-1.059255e+01
3.960946e+01	-1.063826e+01
3.983824e+01	-1.068412e+01
4.006834e+01	-1.073023e+01
4.029978e+01	-1.077546e+01
4.053255e+01	-1.082133e+01
4.076666e+01	-1.086762e+01
4.100213e+01	-1.091367e+01
4.123896e+01	-1.095904e+01
4.147715e+01	-1.100522e+01
4.171672e+01	-1.105071e+01
4.195767e+01	-1.109835e+01
4.220002e+01	-1.114327e+01
4.244377e+01	-1.119028e+01
4.268892e+01	-1.123637e+01
4.293549e+01	-1.128283e+01
4.318348e+01	-1.132836e+01
4.343291e+01	-1.137519e+01
4.368377e+01	-1.142214e+01
4.393609e+01	-1.146792e+01
4.418986e+01	-1.151495e+01
4.444510e+01	-1.156069e+01
4.470182e+01	-1.160744e+01
4.496001e+01	-1.165425e+01
4.521970e+01	-1.170059e+01
4.548089e+01	-1.174766e+01
4.574358e+01	-1.179419e+01
4.600779e+01	-1.184069e+01
4.627353e+01	-1.188736e+01
4.654081e+01	-1.193478e+01
4.680963e+01	-1.198110e+01
4.708000e+01	-1.202859e+01
4.735193e+01	-1.207493e+01
4.762543e+01	-1.212183e+01
4.790051e+01	-1.216887e+01
4.817719e+01	-1.221596e+01
4.845545e+01	-1.226360e+01
4.873533e+01	-1.231016e+01
4.901682e+01	-1.235690e+01
4.929994e+01	-1.240427e+01
4.958470e+01	-1.245179e+01
4.987110e+01	-1.249847e+01
5.015915e+01	-1.254655e+01
5.044887e+01	-1.259325e+01
5.074026e+01	-1.264000e+01
5.103333e+01	-1.268785e+01
5.132810e+01	-1.273531e+01
5.162457e+01	-1.278287e+01
5.192275e+01	-1.282942e+01
5.222265e+01	-1.287763e+01
5.252429e+01	-1.292440e+01
5.282767e+01	-1.297256e+01
5.313280e+01	-1.301999e+01
5.343969e+01	-1.306777e+01
5.374836e+01	-1.311518e+01
5.405880e+01	-1.316313e+01
5.437105e+01	-1.321044e+01
5.468509e+01	-1.325815e+01
5.500095e+01	-1.330554e+01
5.531863e+01	-1.335345e+01
5.563815e+01	-1.340122e+01
5.595951e+01	-1.344852e+01
5.628273e+01	-1.349626e+01
5.660782e+01	-1.354419e+01
5.693479e+01	-1.359230e+01
5.726364e+01	-1.363976e+01
5.759439e+01	-1.368682e+01
5.792705e+01	-1.373560e+01
5.826164e+01	-1.378346e+01
5.859815e+01	-1.383115e+01
5.893662e+01	-1.387918e+01
5.927703e+01	-1.392821e+01
5.961941e+01	-1.397568e+01
5.996377e+01	-1.402411e+01
6.031012e+01	-1.407186e+01
6.065847e+01	-1.411941e+01
6.100883e+01	-1.416662e+01
6.136121e+01	-1.421666e+01
6.171563e+01	-1.426323e+01
6.207210e+01	-1.431195e+01
6.243063e+01	-1.436099e+01
6.279122e+01	-1.440931e+01
6.315390e+01	-1.445659e+01
6.351868e+01	-1.450472e+01
6.388556e+01	-1.455338e+01
6.425456e+01	-1.460187e+01
6.462569e+01	-1.465017e+01
6.499897e+01	-1.469795e+01
6.537440e+01	-1.474787e+01
6.575200e+01	-1.479581e+01
6.613178e+01	-1.484435e+01
6.651375e+01	-1.489133e+01
6.689793e+01	-1.493935e+01
6.728433e+01	-1.498777e+01
6.767297e+01	-1.503649e+01
6.806384e+01	-1.508574e+01
6.845698e+01	-1.513436e+01
6.885238e+01	-1.518238e+01
6.925007e+01	-1.523138e+01
6.965005e+01	-1.527974e+01
7.005235e+01	-1.532853e+01
7.045697e+01	-1.537726e+01
7.086393e+01	-1.542516e+01
7.127323e+01	-1.547392e+01
7.168490e+01	-1.552225e+01
7.209895e+01	-1.557107e+01
7.251539e+01	-1.561934e+01
7.293424e+01	-1.566827e+01
7.335551e+01	-1.571766e+01
7.377920e+01	-1.576611e+01
7.420535e+01	-1.581423e+01
7.463396e+01	-1.586311e+01
7.506504e+01	-1.591224e+01
7.549861e+01	-1.596111e+01
7.593469e+01	-1.600943e+01
7.637328e+01	-1.605827e+01
7.681441e+01	-1.610731e+01
7.725809e+01	-1.615492e+01
7.770433e+01	-1.620488e+01
7.815315e+01	-1.625344e+01
7.860456e+01	-1.630145e+01
7.905857e+01	-1.635174e+01
7.951521e+01	-1.640102e+01
7.997449e+01	-1.644941e+01
8.043642e+01	-1.649865e+01
8.090102e+01	-1.654629e+01
8.136830e+01	-1.659581e+01
8.183828e+01	-1.664518e+01
8.231097e+01	-1.669317e+01
8.278640e+01	-1.674268e+01
8.326457e+01	-1.679197e+01
8.374550e+01	-1.684246e+01
8.422921e+01	-1.688988e+01
8.471572e+01	-1.693861e+01
8.520503e+01	-1.698818e+01
8.569717e+01	-1.703605e+01
8.619215e+01	-1.708685e+01
8.669000e+01	-1.713391e+01
8.719071e+01	-1.718448e+01
8.769432e+01	-1.723368e+01
8.820084e+01	-1.728260e+01
8.871029e+01	-1.733075e+01
8.922267e+01	-1.738086e+01
8.973802e+01	-1.742967e+01
9.025634e+01	-1.747816e+01
9.077766e+01	-1.752755e+01
9.130199e+01	-1.757766e+01
9.182935e+01	-1.762597e+01
9.235975e+01	-1.767414e+01
9.289321e+01	-1.772495e+01
9.342976e+01	-1.777286e+01
9.396941e+01	-1.782300e+01
9.451217e+01	-1.787206e+01
9.505807e+01	-1.792043e+01
9.560712e+01	-1.797104e+01
9.615934e+01	-1.801955e+01
9.671476e+01	-1.806973e+01
9.727338e+01	-1.811904e+01
9.783522e+01	-1.816656e+01
9.840032e+01	-1.821606e+01
9.896867e+01	-1.826588e+01
9.954031e+01	-1.831635e+01
1.001153e+02	-1.836420e+01
1.006935e+02	-1.841537e+01
1.012751e+02	-1.846342e+01
1.018601e+02	-1.851314e+01
1.024484e+02	-1.856176e+01
1.030402e+02	-1.861049e+01
1.036353e+02	-1.866085e+01
1.042339e+02	-1.871021e+01
1.048360e+02	-1.876071e+01
1.054415e+02	-1.880801e+01
1.060505e+02	-1.885917e+01
1.066631e+02	-1.890818e+01
1.072791e+02	-1.895651e+01
1.078988e+02	-1.900569e+01
1.085220e+02	-1.905667e+01
1.091488e+02	-1.910507e+01
1.097793e+02	-1.915365e+01
1.104133e+02	-1.920434e+01
1.110511e+02	-1.925254e+01
1.116925e+02	-1.930233e+01
1.123376e+02	-1.935104e+01
1.129865e+02	-1.940219e+01
1.136391e+02	-1.945150e+01
1.142955e+02	-1.950063e+01
1.149556e+02	-1.955057e+01
1.156196e+02	-1.959910e+01
1.162874e+02	-1.964724e+01
1.169591e+02	-1.970007e+01
1.176347e+02	-1.974659e+01
1.183141e+02	-1.979864e+01
1.189975e+02	-1.984682e+01
1.196848e+02	-1.989735e+01
1.203761e+02	-1.994771e+01
1.210714e+02	-1.999575e+01
1.217707e+02	-2.004576e+01
1.224740e+02	-2.009554e+01
1.231814e+02	-2.014379e+01
1.238929e+02	-2.019388e+01
1.246085e+02	-2.024404e+01
1.253283e+02	-2.029153e+01
1.260522e+02	-2.034136e+01
1.267802e+02	-2.039137e+01
1.275125e+02	-2.044243e+01
1.282490e+02	-2.049265e+01
1.289898e+02	-2.054068e+01
1.297348e+02	-2.059016e+01
1.304842e+02	-2.063978e+01
1.312378e+02	-2.069008e+01
1.319959e+02	-2.073999e+01
1.327583e+02	-2.078966e+01
1.335251e+02	-2.083827e+01
1.342963e+02	-2.088819e+01
1.350720e+02	-2.093883e+01
1.358522e+02	-2.098968e+01
1.366368e+02	-2.103650e+01
1.374260e+02	-2.108553e+01
1.382198e+02	-2.113790e+01
1.390182e+02	-2.118568e+01
1.398211e+02	-2.123586e+01
1.406287e+02	-2.128438e+01
1.414410e+02	-2.133491e+01
1.422579e+02	-2.138407e+01
1.430796e+02	-2.143528e+01
1.439060e+02	-2.148221e+01
1.447372e+02	-2.153411e+01
1.455732e+02	-2.158261e+01
1.464141e+02	-2.163368e+01
1.472597e+02	-2.168451e+01
1.481103e+02	-2.173255e+01
1.489658e+02	-2.178331e+01
1.498262e+02	-2.183334e+01
1.506916e+02	-2.188233e+01
1.515620e+02	-2.193146e+01
1.524374e+02	-2.198111e+01
1.533179e+02	-2.202891e+01
1.542034e+02	-2.208228e+01
1.550941e+02	-2.213212e+01
1.559899e+02	-2.217819e+01
1.568909e+02	-2.222718e+01
1.577971e+02	-2.227716e+01
1.587085e+02	-2.233001e+01
1.596252e+02	-2.237907e+01
1.605472e+02	-2.242893e+01
1.614745e+02	-2.247792e+01
1.624072e+02	-2.252832e+01
1.633453e+02	-2.257893e+01
1.642887e+02	-2.262800e+01
1.652377e+02	-2.267797e+01
1.661921e+02	-2.272686e+01
1.671520e+02	-2.277512e+01
1.681175e+02	-2.282839e+01
1.690885e+02	-2.287714e+01
1.700651e+02	-2.292739e+01
1.710474e+02	-2.297922e+01
1.720354e+02	-2.302662e+01
1.730291e+02	-2.307533e+01
1.740285e+02	-2.312621e+01
1.750337e+02	-2.317578e+01
1.760446e+02	-2.322721e+01
1.770615e+02	-2.327666e+01
1.780842e+02	-2.332219e+01
1.791128e+02	-2.337670e+01
1.801473e+02	-2.342296e+01
1.811878e+02	-2.347677e+01
1.822344e+02	-2.352534e+01
1.832870e+02	-2.357581e+01
1.843456e+02	-2.362494e+01
1.854104e+02	-2.367526e+01
1.864813e+02	-2.372380e+01
1.875584e+02	-2.377354e+01
1.886418e+02	-2.382393e+01
1.897313e+02	-2.387235e+01
1.908272e+02	-2.392512e+01
1.919294e+02	-2.397370e+01
1.930380e+02	-2.402596e+01
1.941530e+02	-2.407255e+01
1.952744e+02	-2.412076e+01
1.964023e+02	-2.417486e+01
1.975367e+02	-2.422335e+01
1.986777e+02	-2.427035e+01
1.998252e+02	-2.432239e+01
2.009794e+02	-2.437342e+01
2.021403e+02	-2.442336e+01
2.033078e+02	-2.447092e+01
2.044821e+02	-2.452107e+01
2.056632e+02	-2.457203e+01
2.068511e+02	-2.462036e+01
2.080459e+02	-2.467238e+01
2.092475e+02	-2.471988e+01
2.104561e+02	-2.477274e+01
2.116717e+02	-2.481821e+01
2.128943e+02	-2.486968e+01
2.141240e+02	-2.492172e+01
2.153608e+02	-2.497029e+01
2.166047e+02	-2.502072e+01
2.178558e+02	-2.507057e+01
2.191141e+02	-2.512254e+01
2.203797e+02	-2.517022e+01
2.216526e+02	-2.522029e+01
2.229329e+02	-2.527022e+01
2.242205e+02	-2.531889e+01
2.255156e+02	-2.537088e+01
2.268182e+02	-2.542051e+01
2.281283e+02	-2.546971e+01
2.294459e+02	-2.551987e+01
2.307712e+02	-2.556882e+01
2.321041e+02	-2.562037e+01
2.334447e+02	-2.566997e+01
2.347931e+02	-2.572295e+01
2.361493e+02	-2.576944e+01
2.375133e+02	-2.581867e+01
2.388851e+02	-2.586764e+01
2.402649e+02	-2.592118e+01
2.416527e+02	-2.596907e+01
2.430484e+02	-2.602194e+01
2.444523e+02	-2.607051e+01
2.458642e+02	-2.611985e+01
2.472843e+02	-2.616889e+01
2.487126e+02	-2.621714e+01
2.501492e+02	-2.626813e+01
2.515940e+02	-2.632199e+01
2.530472e+02	-2.636880e+01
2.545088e+02	-2.642221e+01
2.559789e+02	-2.647104e+01
2.574574e+02	-2.651856e+01
2.589444e+02	-2.657012e+01
2.604401e+02	-2.662095e+01
2.619444e+02	-2.666906e+01
2.634574e+02	-2.671867e+01
2.649791e+02	-2.677089e+01
2.665096e+02	-2.681550e+01
2.680489e+02	-2.687020e+01
2.695972e+02	-2.691877e+01
2.711544e+02	-2.696567e+01
2.727205e+02	-2.701780e+01
2.742958e+02	-2.706663e+01
2.758801e+02	-2.711687e+01
2.774736e+02	-2.716927e+01
2.790762e+02	-2.721465e+01
2.806882e+02	-2.726615e+01
2.823094e+02	-2.731745e+01
2.839400e+02	-2.737245e+01
2.855800e+02	-2.741952e+01
2.872295e+02	-2.746806e+01
2.888886e+02	-2.752111e+01
2.905572e+02	-2.756934e+01
2.922354e+02	-2.762082e+01
2.939234e+02	-2.766974e+01
2.956211e+02	-2.771898e+01
2.973286e+02	-2.776810e+01
2.990459e+02	-2.781757e+01
3.007732e+02	-2.787116e+01
3.025104e+02	-2.791731e+01
3.042577e+02	-2.796622e+01
3.060151e+02	-2.801660e+01
3.077826e+02	-2.806588e+01
3.095604e+02	-2.812253e+01
3.113484e+02	-2.817007e+01
3.131467e+02	-2.822263e+01
3.149554e+02	-2.826987e+01
3.167746e+02	-2.831827e+01
3.186043e+02	-2.836847e+01
3.204445e+02	-2.841640e+01
3.222954e+02	-2.846356e+01
3.241570e+02	-2.851913e+01
3.260293e+02	-2.857122e+01
3.279124e+02	-2.861718e+01
3.298064e+02	-2.867265e+01
3.317114e+02	-2.872243e+01
3.336273e+02	-2.876838e+01
3.355544e+02	-2.881709e+01
3.374925e+02	-2.886604e+01
3.394418e+02	-2.892037e+01
3.414024e+02	-2.896858e+01
3.433744e+02	-2.901732e+01
3.453577e+02	-2.906855e+01
3.473525e+02	-2.911768e+01
3.493588e+02	-2.916871e+01
3.513766e+02	-2.922063e+01
3.534062e+02	-2.927279e+01
3.554474e+02	-2.932455e+01
3.575005e+02	-2.936701e+01
3.595654e+02	-2.942347e+01
3.616422e+02	-2.946764e+01
3.637311e+02	-2.952088e+01
3.658320e+02	-2.956858e+01
3.679450e+02	-2.961960e+01
3.700702e+02	-2.967281e+01
3.722077e+02	-2.972335e+01
3.743576e+02	-2.977180e+01
3.765199e+02	-2.982370e+01
3.786946e+02	-2.986951e+01
3.808820e+02	-2.992157e+01
3.830819e+02	-2.997143e+01
3.852946e+02	-3.001894e+01
3.875200e+02	-3.007142e+01
3.897583e+02	-3.012051e+01
3.920096e+02	-3.016964e+01
3.942738e+02	-3.022092e+01
3.965511e+02	-3.027738e+01
3.988416e+02	-3.032198e+01
4.011452e+02	-3.037348e+01
4.034622e+02	-3.042622e+01
4.057926e+02	-3.047726e+01
4.081365e+02	-3.052327e+01
4.104938e+02	-3.057032e+01
4.128648e+02	-3.062324e+01
4.152495e+02	-3.067058e+01
4.176480e+02	-3.071858e+01
4.200603e+02	-3.077290e+01
4.224866e+02	-3.082512e+01
4.249268e+02	-3.087439e+01
4.273812e+02	-3.092423e+01
4.298497e+02	-3.097143e+01
4.323325e+02	-3.102554e+01
4.348297e+02	-3.107194e+01
4.373412e+02	-3.112554e+01
4.398673e+02	-3.117529e+01
4.424079e+02	-3.122450e+01
4.449633e+02	-3.127216e+01
4.475334e+02	-3.132359e+01
4.501183e+02	-3.137065e+01
4.527182e+02	-3.142880e+01
4.553330e+02	-3.147466e+01
4.579630e+02	-3.153239e+01
4.606082e+02	-3.157609e+01
4.632687e+02	-3.162190e+01
4.659445e+02	-3.167538e+01
4.686358e+02	-3.172567e+01
4.713426e+02	-3.177817e+01
4.740650e+02	-3.182374e+01
4.768032e+02	-3.187852e+01
4.795572e+02	-3.192666e+01
4.823271e+02	-3.197461e+01
4.851130e+02	-3.202500e+01
4.879150e+02	-3.207925e+01
4.907332e+02	-3.213155e+01
4.935676e+02	-3.219250e+01
4.964185e+02	-3.222513e+01
4.992858e+02	-3.227647e+01
5.021696e+02	-3.232055e+01
5.050701e+02	-3.237372e+01
5.079874e+02	-3.242827e+01
5.109215e+02	-3.248188e+01
5.138726e+02	-3.252768e+01
5.168407e+02	-3.257872e+01
5.198259e+02	-3.263066e+01
5.228284e+02	-3.267986e+01
5.258482e+02	-3.273741e+01
5.288855e+02	-3.278014e+01
5.319403e+02	-3.282974e+01
5.350128e+02	-3.287893e+01
5.381030e+02	-3.293777e+01
5.412111e+02	-3.297684e+01
5.443371e+02	-3.302955e+01
5.474812e+02	-3.307555e+01
5.506434e+02	-3.313476e+01
5.538239e+02	-3.317918e+01
5.570228e+02	-3.323939e+01
5.602401e+02	-3.328688e+01
5.634760e+02	-3.333501e+01
5.667306e+02	-3.338465e+01
5.700040e+02	-3.342896e+01
5.732964e+02	-3.348055e+01
5.766077e+02	-3.353117e+01
5.799382e+02	-3.358366e+01
5.832879e+02	-3.363219e+01
5.866569e+02	-3.369002e+01
5.900454e+02	-3.373364e+01
5.934535e+02	-3.378969e+01
5.968813e+02	-3.383663e+01
6.003288e+02	-3.388130e+01
6.037963e+02	-3.394513e+01
6.072838e+02	-3.398899e+01
6.107914e+02	-3.403915e+01
6.143194e+02	-3.408896e+01
6.178676e+02	-3.414049e+01
6.214364e+02	-3.419325e+01
6.250258e+02	-3.424176e+01
6.286359e+02	-3.429041e+01
6.322669e+02	-3.433937e+01
6.359189e+02	-3.438128e+01
6.395919e+02	-3.444501e+01
6.432862e+02	-3.449359e+01
6.470017e+02	-3.453764e+01
6.507388e+02	-3.458871e+01
6.544974e+02	-3.464534e+01
6.582778e+02	-3.470355e+01
6.620800e+02	-3.474425e+01
6.659041e+02	-3.480150e+01
6.697504e+02	-3.484191e+01
6.736188e+02	-3.488964e+01
6.775096e+02	-3.494263e+01
6.814229e+02	-3.498978e+01
6.853587e+02	-3.503592e+01
6.893173e+02	-3.510182e+01
6.932988e+02	-3.514875e+01
6.973033e+02	-3.519764e+01
7.013309e+02	-3.524159e+01
