Frequency(Hz)	Magnitude(dB)
1.000000e+01	-2.129491e+00
1.005776e+01	-2.149102e+00
1.011585e+01	-2.168637e+00
1.017428e+01	-2.188374e+00
1.023305e+01	-2.208195e+00
1.029215e+01	-2.228234e+00
1.035160e+01	-2.248308e+00
1.041139e+01	-2.268658e+00
1.047153e+01	-2.289061e+00
1.053201e+01	-2.309613e+00
1.059284e+01	-2.330426e+00
1.065403e+01	-2.351375e+00
1.071556e+01	-2.372057e+00
1.077746e+01	-2.393446e+00
1.083971e+01	-2.414625e+00
1.090232e+01	-2.435973e+00
1.096529e+01	-2.457728e+00
1.102862e+01	-2.479214e+00
1.109232e+01	-2.500994e+00
1.115639e+01	-2.523165e+00
1.122083e+01	-2.545168e+00
1.128564e+01	-2.567698e+00
1.135083e+01	-2.590059e+00
1.141639e+01	-2.612452e+00
1.148233e+01	-2.635101e+00
1.154865e+01	-2.657833e+00
1.161536e+01	-2.680681e+00
1.168245e+01	-2.703710e+00
1.174992e+01	-2.726964e+00
1.181779e+01	-2.750645e+00
1.188605e+01	-2.773966e+00
1.195470e+01	-2.797859e+00
1.202375e+01	-2.821802e+00
1.209320e+01	-2.845728e+00
1.216305e+01	-2.869761e+00
1.223330e+01	-2.894018e+00
1.230396e+01	-2.918387e+00
1.237503e+01	-2.942832e+00
1.244651e+01	-2.967766e+00
1.251840e+01	-2.992480e+00
1.259070e+01	-3.017492e+00
1.266343e+01	-3.042636e+00
1.273657e+01	-3.067956e+00
1.281014e+01	-3.093227e+00
1.288413e+01	-3.118732e+00
1.295855e+01	-3.144576e+00
1.303339e+01	-3.170349e+00
1.310867e+01	-3.196330e+00
1.318439e+01	-3.222438e+00
1.326054e+01	-3.248923e+00
1.333713e+01	-3.275112e+00
1.341417e+01	-3.301801e+00
1.349165e+01	-3.328569e+00
1.356958e+01	-3.355417e+00
1.364795e+01	-3.382444e+00
1.372678e+01	-3.409496e+00
1.380607e+01	-3.436840e+00
1.388581e+01	-3.464137e+00
1.396602e+01	-3.491753e+00
1.404668e+01	-3.519266e+00
1.412782e+01	-3.547403e+00
1.420942e+01	-3.575254e+00
1.429149e+01	-3.603578e+00
1.437404e+01	-3.631710e+00
1.445706e+01	-3.660212e+00
1.454057e+01	-3.688780e+00
1.462455e+01	-3.717241e+00
1.470902e+01	-3.746177e+00
1.479398e+01	-3.775231e+00
1.487943e+01	-3.804047e+00
1.496537e+01	-3.833705e+00
1.505181e+01	-3.862697e+00
1.513875e+01	-3.892552e+00
1.522619e+01	-3.922291e+00
1.531414e+01	-3.952173e+00
1.540259e+01	-3.981757e+00
1.549156e+01	-4.012208e+00
1.558103e+01	-4.042162e+00
1.567103e+01	-4.072695e+00
1.576155e+01	-4.103164e+00
1.585258e+01	-4.133911e+00
1.594415e+01	-4.164497e+00
1.603624e+01	-4.195421e+00
1.612886e+01	-4.226708e+00
1.622202e+01	-4.257720e+00
1.631572e+01	-4.289205e+00
1.640996e+01	-4.320805e+00
1.650474e+01	-4.352207e+00
1.660008e+01	-4.383976e+00
1.669596e+01	-4.415491e+00
1.679239e+01	-4.447719e+00
1.688938e+01	-4.480143e+00
1.698694e+01	-4.512008e+00
1.708505e+01	-4.544563e+00
1.718373e+01	-4.577025e+00
1.728299e+01	-4.609523e+00
1.738281e+01	-4.642474e+00
1.748322e+01	-4.675552e+00
1.758420e+01	-4.708315e+00
1.768576e+01	-4.741836e+00
1.778792e+01	-4.774629e+00
1.789066e+01	-4.808502e+00
1.799399e+01	-4.842061e+00
1.809793e+01	-4.875348e+00
1.820246e+01	-4.909457e+00
1.830760e+01	-4.943364e+00
1.841334e+01	-4.977440e+00
1.851969e+01	-5.011592e+00
1.862666e+01	-5.046104e+00
1.873425e+01	-5.080066e+00
1.884246e+01	-5.114587e+00
1.895129e+01	-5.149603e+00
1.906075e+01	-5.184055e+00
1.917085e+01	-5.219495e+00
1.928158e+01	-5.254182e+00
1.939295e+01	-5.289598e+00
1.950496e+01	-5.324673e+00
1.961762e+01	-5.360023e+00
1.973093e+01	-5.396063e+00
1.984490e+01	-5.431373e+00
1.995952e+01	-5.467050e+00
2.007480e+01	-5.502760e+00
2.019076e+01	-5.538872e+00
2.030738e+01	-5.574873e+00
2.042467e+01	-5.611488e+00
2.054264e+01	-5.647915e+00
2.066130e+01	-5.684253e+00
2.078064e+01	-5.720810e+00
2.090066e+01	-5.757250e+00
2.102139e+01	-5.794109e+00
2.114280e+01	-5.830928e+00
2.126492e+01	-5.868016e+00
2.138775e+01	-5.905401e+00
2.151128e+01	-5.942282e+00
2.163553e+01	-5.980079e+00
2.176050e+01	-6.017333e+00
2.188619e+01	-6.055162e+00
2.201260e+01	-6.092715e+00
2.213974e+01	-6.130021e+00
2.226762e+01	-6.168082e+00
2.239624e+01	-6.205848e+00
2.252560e+01	-6.244241e+00
2.265571e+01	-6.282532e+00
2.278656e+01	-6.320475e+00
2.291818e+01	-6.359040e+00
2.305055e+01	-6.397825e+00
2.318369e+01	-6.436466e+00
2.331760e+01	-6.475211e+00
2.345228e+01	-6.513773e+00
2.358774e+01	-6.552606e+00
2.372398e+01	-6.591466e+00
2.386101e+01	-6.630533e+00
2.399883e+01	-6.670001e+00
2.413745e+01	-6.709128e+00
2.427686e+01	-6.748773e+00
2.441709e+01	-6.788435e+00
2.455812e+01	-6.827771e+00
2.469997e+01	-6.867485e+00
2.484263e+01	-6.907216e+00
2.498612e+01	-6.947162e+00
2.513044e+01	-6.987209e+00
2.527559e+01	-7.027535e+00
2.542158e+01	-7.067374e+00
2.556842e+01	-7.107496e+00
2.571610e+01	-7.147932e+00
2.586463e+01	-7.188472e+00
2.601403e+01	-7.229028e+00
2.616428e+01	-7.269268e+00
2.631541e+01	-7.310174e+00
2.646740e+01	-7.350719e+00
2.662028e+01	-7.391730e+00
2.677404e+01	-7.432465e+00
2.692868e+01	-7.473798e+00
2.708422e+01	-7.514960e+00
2.724066e+01	-7.555809e+00
2.739800e+01	-7.596944e+00
2.755625e+01	-7.638732e+00
2.771541e+01	-7.680166e+00
2.787550e+01	-7.721888e+00
2.803650e+01	-7.763409e+00
2.819844e+01	-7.804996e+00
2.836131e+01	-7.846489e+00
2.852513e+01	-7.888847e+00
2.868989e+01	-7.930725e+00
2.885560e+01	-7.972519e+00
2.902227e+01	-8.014796e+00
2.918990e+01	-8.056827e+00
2.935850e+01	-8.099091e+00
2.952807e+01	-8.141541e+00
2.969863e+01	-8.183942e+00
2.987016e+01	-8.226167e+00
3.004269e+01	-8.268531e+00
3.021622e+01	-8.311379e+00
3.039075e+01	-8.354324e+00
3.056628e+01	-8.396656e+00
3.074283e+01	-8.439721e+00
3.092040e+01	-8.482410e+00
3.109900e+01	-8.525730e+00
3.127862e+01	-8.568329e+00
3.145929e+01	-8.611880e+00
3.164099e+01	-8.655070e+00
3.182375e+01	-8.698068e+00
3.200756e+01	-8.741531e+00
3.219244e+01	-8.784652e+00
3.237838e+01	-8.828736e+00
3.256540e+01	-8.871604e+00
3.275349e+01	-8.914944e+00
3.294268e+01	-8.958915e+00
3.313295e+01	-9.002360e+00
3.332433e+01	-9.046492e+00
3.351681e+01	-9.089930e+00
3.371040e+01	-9.134022e+00
3.390511e+01	-9.177843e+00
3.410094e+01	-9.221979e+00
3.429791e+01	-9.265822e+00
3.449601e+01	-9.310350e+00
3.469526e+01	-9.354170e+00
3.489566e+01	-9.399002e+00
3.509721e+01	-9.443051e+00
3.529993e+01	-9.487461e+00
3.550382e+01	-9.531283e+00
3.570889e+01	-9.576064e+00
3.591515e+01	-9.620890e+00
3.612259e+01	-9.665441e+00
3.633123e+01	-9.710123e+00
3.654108e+01	-9.754689e+00
3.675214e+01	-9.798804e+00
3.696442e+01	-9.844685e+00
3.717792e+01	-9.888930e+00
3.739266e+01	-9.934323e+00
3.760864e+01	-9.979472e+00
3.782587e+01	-1.002452e+01
3.804435e+01	-1.006931e+01
3.826409e+01	-1.011450e+01
3.848510e+01	-1.015973e+01
3.870739e+01	-1.020462e+01
3.893096e+01	-1.024992e+01
3.915583e+01	-1.029552e+01
3.938199e+01	-1.034052e+01
3.960946e+01	-1.038600e+01
3.983824e+01	-1.043155e+01
4.006834e+01	-1.047701e+01
4.029978e+01	-1.052230e+01
4.053255e+01	-1.056843e+01
4.076666e+01	-1.061365e+01
4.100213e+01	-1.065972e+01
4.123896e+01	-1.070581e+01
4.147715e+01	-1.075141e+01
4.171672e+01	-1.079694e+01
4.195767e+01	-1.084303e+01
4.220002e+01	-1.088855e+01
4.244377e+01	-1.093491e+01
4.268892e+01	-1.098112e+01
4.293549e+01	-1.102714e+01
4.318348e+01	-1.107274e+01
4.343291e+01	-1.111985e+01
4.368377e+01	-1.116502e+01
4.393609e+01	-1.121136e+01
4.418986e+01	-1.125784e+01
4.444510e+01	-1.130439e+01
4.470182e+01	-1.134992e+01
4.496001e+01	-1.139672e+01
4.521970e+01	-1.144317e+01
4.548089e+01	-1.148937e+01
4.574358e+01	-1.153622e+01
4.600779e+01	-1.158266e+01
4.627353e+01	-1.162974e+01
4.654081e+01	-1.167593e+01
4.680963e+01	-1.172210e+01
4.708000e+01	-1.176921e+01
4.735193e+01	-1.181613e+01
4.762543e+01	-1.186292e+01
4.790051e+01	-1.190978e+01
4.817719e+01	-1.195649e+01
4.845545e+01	-1.200324e+01
4.873533e+01	-1.204992e+01
4.901682e+01	-1.209624e+01
4.929994e+01	-1.214344e+01
4.958470e+01	-1.219114e+01
4.987110e+01	-1.223779e+01
5.015915e+01	-1.228568e+01
5.044887e+01	-1.233161e+01
5.074026e+01	-1.237936e+01
5.103333e+01	-1.242611e+01
5.132810e+01	-1.247394e+01
5.162457e+01	-1.252050e+01
5.192275e+01	-1.256780e+01
5.222265e+01	-1.261503e+01
5.252429e+01	-1.266296e+01
5.282767e+01	-1.270931e+01
5.313280e+01	-1.275764e+01
5.343969e+01	-1.280489e+01
5.374836e+01	-1.285228e+01
5.405880e+01	-1.289948e+01
5.437105e+01	-1.294678e+01
5.468509e+01	-1.299491e+01
5.500095e+01	-1.304229e+01
5.531863e+01	-1.308976e+01
5.563815e+01	-1.313766e+01
5.595951e+01	-1.318500e+01
5.628273e+01	-1.323259e+01
5.660782e+01	-1.328079e+01
5.693479e+01	-1.332718e+01
5.726364e+01	-1.337598e+01
5.759439e+01	-1.342314e+01
5.792705e+01	-1.347090e+01
5.826164e+01	-1.351926e+01
5.859815e+01	-1.356659e+01
5.893662e+01	-1.361385e+01
5.927703e+01	-1.366182e+01
5.961941e+01	-1.371036e+01
5.996377e+01	-1.375852e+01
6.031012e+01	-1.380682e+01
6.065847e+01	-1.385333e+01
6.100883e+01	-1.390109e+01
6.136121e+01	-1.394996e+01
6.171563e+01	-1.399862e+01
6.207210e+01	-1.404588e+01
6.243063e+01	-1.409423e+01
6.279122e+01	-1.414197e+01
6.315390e+01	-1.419045e+01
6.351868e+01	-1.423899e+01
6.388556e+01	-1.428571e+01
6.425456e+01	-1.433486e+01
6.462569e+01	-1.438204e+01
6.499897e+01	-1.443159e+01
6.537440e+01	-1.447855e+01
6.575200e+01	-1.452793e+01
6.613178e+01	-1.457681e+01
6.651375e+01	-1.462407e+01
6.689793e+01	-1.467270e+01
6.728433e+01	-1.472127e+01
6.767297e+01	-1.476963e+01
6.806384e+01	-1.481757e+01
6.845698e+01	-1.486608e+01
6.885238e+01	-1.491401e+01
6.925007e+01	-1.496246e+01
6.965005e+01	-1.501197e+01
7.005235e+01	-1.505999e+01
7.045697e+01	-1.510832e+01
7.086393e+01	-1.515617e+01
7.127323e+01	-1.520587e+01
7.168490e+01	-1.525414e+01
7.209895e+01	-1.530257e+01
7.251539e+01	-1.535051e+01
7.293424e+01	-1.539908e+01
7.335551e+01	-1.544917e+01
7.377920e+01	-1.549797e+01
7.420535e+01	-1.554534e+01
7.463396e+01	-1.559543e+01
7.506504e+01	-1.564265e+01
7.549861e+01	-1.569150e+01
7.593469e+01	-1.573976e+01
7.637328e+01	-1.578833e+01
7.681441e+01	-1.583824e+01
7.725809e+01	-1.588603e+01
7.770433e+01	-1.593494e+01
7.815315e+01	-1.598262e+01
7.860456e+01	-1.603256e+01
7.905857e+01	-1.608049e+01
7.951521e+01	-1.613074e+01
7.997449e+01	-1.617900e+01
8.043642e+01	-1.622749e+01
8.090102e+01	-1.627699e+01
8.136830e+01	-1.632584e+01
8.183828e+01	-1.637291e+01
8.231097e+01	-1.642391e+01
8.278640e+01	-1.647083e+01
8.326457e+01	-1.652244e+01
8.374550e+01	-1.657000e+01
8.422921e+01	-1.661841e+01
8.471572e+01	-1.666703e+01
8.520503e+01	-1.671696e+01
8.569717e+01	-1.676508e+01
8.619215e+01	-1.681486e+01
8.669000e+01	-1.686369e+01
8.719071e+01	-1.691211e+01
8.769432e+01	-1.696172e+01
8.820084e+01	-1.701199e+01
8.871029e+01	-1.706000e+01
8.922267e+01	-1.710835e+01
8.973802e+01	-1.715823e+01
9.025634e+01	-1.720623e+01
9.077766e+01	-1.725618e+01
9.130199e+01	-1.730565e+01
9.182935e+01	-1.735376e+01
9.235975e+01	-1.740309e+01
9.289321e+01	-1.745242e+01
9.342976e+01	-1.750190e+01
9.396941e+01	-1.755066e+01
9.451217e+01	-1.759893e+01
9.505807e+01	-1.764835e+01
9.560712e+01	-1.769774e+01
9.615934e+01	-1.774832e+01
9.671476e+01	-1.779604e+01
9.727338e+01	-1.784451e+01
9.783522e+01	-1.789511e+01
9.840032e+01	-1.794487e+01
9.896867e+01	-1.799196e+01
9.954031e+01	-1.804380e+01
1.001153e+02	-1.809188e+01
1.006935e+02	-1.814166e+01
1.012751e+02	-1.819096e+01
1.018601e+02	-1.824035e+01
1.024484e+02	-1.828891e+01
1.030402e+02	-1.833812e+01
1.036353e+02	-1.838715e+01
1.042339e+02	-1.843643e+01
1.048360e+02	-1.848644e+01
1.054415e+02	-1.853515e+01
1.060505e+02	-1.858374e+01
1.066631e+02	-1.863378e+01
1.072791e+02	-1.868504e+01
1.078988e+02	-1.873259e+01
1.085220e+02	-1.878374e+01
1.091488e+02	-1.883176e+01
1.097793e+02	-1.888103e+01
1.104133e+02	-1.893012e+01
1.110511e+02	-1.897989e+01
1.116925e+02	-1.902903e+01
1.123376e+02	-1.908051e+01
1.129865e+02	-1.912794e+01
1.136391e+02	-1.917624e+01
1.142955e+02	-1.922739e+01
1.149556e+02	-1.927674e+01
1.156196e+02	-1.932664e+01
1.162874e+02	-1.937385e+01
1.169591e+02	-1.942494e+01
1.176347e+02	-1.947486e+01
1.183141e+02	-1.952207e+01
1.189975e+02	-1.957378e+01
1.196848e+02	-1.962398e+01
1.203761e+02	-1.967240e+01
1.210714e+02	-1.972147e+01
1.217707e+02	-1.977079e+01
1.224740e+02	-1.982122e+01
1.231814e+02	-1.987001e+01
1.238929e+02	-1.992004e+01
1.246085e+02	-1.996667e+01
1.253283e+02	-2.001902e+01
1.260522e+02	-2.006920e+01
1.267802e+02	-2.011837e+01
1.275125e+02	-2.016833e+01
1.282490e+02	-2.021878e+01
1.289898e+02	-2.026619e+01
1.297348e+02	-2.031627e+01
1.304842e+02	-2.036550e+01
1.312378e+02	-2.041485e+01
1.319959e+02	-2.046409e+01
1.327583e+02	-2.051461e+01
1.335251e+02	-2.056521e+01
1.342963e+02	-2.061416e+01
1.350720e+02	-2.066216e+01
1.358522e+02	-2.071315e+01
1.366368e+02	-2.076374e+01
1.374260e+02	-2.081237e+01
1.382198e+02	-2.086235e+01
1.390182e+02	-2.091126e+01
1.398211e+02	-2.095995e+01
1.406287e+02	-2.101003e+01
1.414410e+02	-2.106049e+01
1.422579e+02	-2.110958e+01
1.430796e+02	-2.116005e+01
1.439060e+02	-2.120861e+01
1.447372e+02	-2.125778e+01
1.455732e+02	-2.130974e+01
1.464141e+02	-2.135684e+01
1.472597e+02	-2.140726e+01
1.481103e+02	-2.145789e+01
1.489658e+02	-2.150860e+01
1.498262e+02	-2.155731e+01
1.506916e+02	-2.160650e+01
1.515620e+02	-2.165643e+01
1.524374e+02	-2.170849e+01
1.533179e+02	-2.175533e+01
1.542034e+02	-2.180630e+01
1.550941e+02	-2.185627e+01
1.559899e+02	-2.190494e+01
1.568909e+02	-2.195543e+01
1.577971e+02	-2.200265e+01
1.587085e+02	-2.205264e+01
1.596252e+02	-2.210381e+01
1.605472e+02	-2.215362e+01
1.614745e+02	-2.220325e+01
1.624072e+02	-2.225363e+01
1.633453e+02	-2.230245e+01
1.642887e+02	-2.235225e+01
1.652377e+02	-2.240129e+01
1.661921e+02	-2.245037e+01
1.671520e+02	-2.250234e+01
1.681175e+02	-2.255312e+01
1.690885e+02	-2.260060e+01
1.700651e+02	-2.265102e+01
1.710474e+02	-2.270133e+01
1.720354e+02	-2.275101e+01
1.730291e+02	-2.280229e+01
1.740285e+02	-2.285060e+01
1.750337e+02	-2.289841e+01
1.760446e+02	-2.295198e+01
1.770615e+02	-2.299840e+01
1.780842e+02	-2.304873e+01
1.791128e+02	-2.309963e+01
1.801473e+02	-2.314889e+01
1.811878e+02	-2.319981e+01
1.822344e+02	-2.324993e+01
1.832870e+02	-2.330024e+01
1.843456e+02	-2.334974e+01
1.854104e+02	-2.339833e+01
1.864813e+02	-2.344726e+01
1.875584e+02	-2.349817e+01
1.886418e+02	-2.354940e+01
1.897313e+02	-2.359753e+01
1.908272e+02	-2.364468e+01
1.919294e+02	-2.369695e+01
1.930380e+02	-2.374734e+01
1.941530e+02	-2.379850e+01
1.952744e+02	-2.384749e+01
1.964023e+02	-2.389655e+01
1.975367e+02	-2.394653e+01
1.986777e+02	-2.399638e+01
1.998252e+02	-2.404652e+01
2.009794e+02	-2.409632e+01
2.021403e+02	-2.414671e+01
2.033078e+02	-2.419550e+01
2.044821e+02	-2.424761e+01
2.056632e+02	-2.429420e+01
2.068511e+02	-2.434449e+01
2.080459e+02	-2.439279e+01
2.092475e+02	-2.444773e+01
2.104561e+02	-2.449446e+01
2.116717e+02	-2.454380e+01
2.128943e+02	-2.459365e+01
2.141240e+02	-2.464427e+01
2.153608e+02	-2.469612e+01
2.166047e+02	-2.474463e+01
2.178558e+02	-2.479398e+01
2.191141e+02	-2.484534e+01
2.203797e+02	-2.488988e+01
2.216526e+02	-2.494372e+01
2.229329e+02	-2.499368e+01
2.242205e+02	-2.504548e+01
2.255156e+02	-2.509173e+01
2.268182e+02	-2.514526e+01
2.281283e+02	-2.519202e+01
2.294459e+02	-2.524336e+01
2.307712e+02	-2.529380e+01
2.321041e+02	-2.534510e+01
2.334447e+02	-2.539372e+01
2.347931e+02	-2.544346e+01
2.361493e+02	-2.549233e+01
2.375133e+02	-2.554368e+01
2.388851e+02	-2.559306e+01
2.402649e+02	-2.564029e+01
2.416527e+02	-2.569511e+01
2.430484e+02	-2.574208e+01
2.444523e+02	-2.579067e+01
2.458642e+02	-2.584421e+01
2.472843e+02	-2.589434e+01
2.487126e+02	-2.594439e+01
2.501492e+02	-2.599269e+01
2.515940e+02	-2.604123e+01
2.530472e+02	-2.609234e+01
2.545088e+02	-2.614297e+01
2.559789e+02	-2.619381e+01
2.574574e+02	-2.624392e+01
2.589444e+02	-2.629418e+01
2.604401e+02	-2.634472e+01
2.619444e+02	-2.639150e+01
2.634574e+02	-2.644033e+01
2.649791e+02	-2.649384e+01
2.665096e+02	-2.654495e+01
2.680489e+02	-2.659075e+01
2.695972e+02	-2.664313e+01
2.711544e+02	-2.669327e+01
2.727205e+02	-2.674211e+01
2.742958e+02	-2.679227e+01
2.758801e+02	-2.684103e+01
2.774736e+02	-2.688614e+01
2.790762e+02	-2.694270e+01
2.806882e+02	-2.699203e+01
2.823094e+02	-2.704178e+01
2.839400e+02	-2.709063e+01
2.855800e+02	-2.713810e+01
2.872295e+02	-2.719174e+01
2.888886e+02	-2.724627e+01
2.905572e+02	-2.729244e+01
2.922354e+02	-2.734314e+01
2.939234e+02	-2.739160e+01
2.956211e+02	-2.744294e+01
2.973286e+02	-2.749374e+01
2.990459e+02	-2.754322e+01
3.007732e+02	-2.759094e+01
3.025104e+02	-2.764272e+01
3.042577e+02	-2.769514e+01
3.060151e+02	-2.774223e+01
3.077826e+02	-2.778935e+01
3.095604e+02	-2.784326e+01
3.113484e+02	-2.789391e+01
3.131467e+02	-2.794519e+01
3.149554e+02	-2.799303e+01
3.167746e+02	-2.804150e+01
3.186043e+02	-2.809135e+01
3.204445e+02	-2.813864e+01
3.222954e+02	-2.819533e+01
3.241570e+02	-2.824372e+01
3.260293e+02	-2.829178e+01
3.279124e+02	-2.834529e+01
3.298064e+02	-2.839407e+01
3.317114e+02	-2.844093e+01
3.336273e+02	-2.849202e+01
3.355544e+02	-2.854222e+01
3.374925e+02	-2.859130e+01
3.394418e+02	-2.864166e+01
3.414024e+02	-2.868848e+01
3.433744e+02	-2.874384e+01
3.453577e+02	-2.879205e+01
3.473525e+02	-2.884744e+01
3.493588e+02	-2.889597e+01
3.513766e+02	-2.894444e+01
3.534062e+02	-2.899098e+01
3.554474e+02	-2.904344e+01
3.575005e+02	-2.909494e+01
3.595654e+02	-2.914441e+01
3.616422e+02	-2.919365e+01
3.637311e+02	-2.924714e+01
3.658320e+02	-2.929116e+01
3.679450e+02	-2.934315e+01
3.700702e+02	-2.939661e+01
3.722077e+02	-2.943802e+01
3.743576e+02	-2.949367e+01
3.765199e+02	-2.954639e+01
3.786946e+02	-2.959564e+01
3.808820e+02	-2.964841e+01
3.830819e+02	-2.969488e+01
3.852946e+02	-2.974646e+01
3.875200e+02	-2.979946e+01
3.897583e+02	-2.984082e+01
3.920096e+02	-2.989384e+01
3.942738e+02	-2.994917e+01
3.965511e+02	-2.999461e+01
3.988416e+02	-3.004049e+01
4.011452e+02	-3.009548e+01
4.034622e+02	-3.014400e+01
4.057926e+02	-3.020014e+01
4.081365e+02	-3.023980e+01
4.104938e+02	-3.029863e+01
4.128648e+02	-3.034243e+01
4.152495e+02	-3.039421e+01
4.176480e+02	-3.044221e+01
4.200603e+02	-3.049496e+01
4.224866e+02	-3.054834e+01
4.249268e+02	-3.059724e+01
4.273812e+02	-3.064608e+01
4.298497e+02	-3.070079e+01
4.323325e+02	-3.074397e+01
4.348297e+02	-3.079854e+01
4.373412e+02	-3.084908e+01
4.398673e+02	-3.089783e+01
4.424079e+02	-3.094542e+01
4.449633e+02	-3.099828e+01
4.475334e+02	-3.104374e+01
4.501183e+02	-3.109916e+01
4.527182e+02	-3.114587e+01
4.553330e+02	-3.120145e+01
4.579630e+02	-3.125089e+01
4.606082e+02	-3.129297e+01
4.632687e+02	-3.134571e+01
4.659445e+02	-3.139741e+01
4.686358e+02	-3.144812e+01
4.713426e+02	-3.150200e+01
4.740650e+02	-3.154744e+01
4.768032e+02	-3.159748e+01
4.795572e+02	-3.165048e+01
4.823271e+02	-3.170310e+01
4.851130e+02	-3.175609e+01
4.879150e+02	-3.180344e+01
4.907332e+02	-3.184620e+01
4.935676e+02	-3.190475e+01
4.964185e+02	-3.195094e+01
4.992858e+02	-3.199512e+01
5.021696e+02	-3.204745e+01
5.050701e+02	-3.209862e+01
5.079874e+02	-3.214976e+01
5.109215e+02	-3.220043e+01
5.138726e+02	-3.225381e+01
5.168407e+02	-3.229607e+01
5.198259e+02	-3.235475e+01
5.228284e+02	-3.241165e+01
5.258482e+02	-3.244745e+01
5.288855e+02	-3.250566e+01
5.319403e+02	-3.254400e+01
5.350128e+02	-3.260222e+01
5.381030e+02	-3.265078e+01
5.412111e+02	-3.270805e+01
5.443371e+02	-3.275322e+01
5.474812e+02	-3.280470e+01
5.506434e+02	-3.284988e+01
5.538239e+02	-3.290518e+01
5.570228e+02	-3.295696e+01
5.602401e+02	-3.301243e+01
5.634760e+02	-3.305248e+01
5.667306e+02	-3.310324e+01
5.700040e+02	-3.316223e+01
5.732964e+02	-3.320915e+01
5.766077e+02	-3.325337e+01
5.799382e+02	-3.330900e+01
5.832879e+02	-3.335910e+01
5.866569e+02	-3.340048e+01
5.900454e+02	-3.345290e+01
5.934535e+02	-3.350834e+01
5.968813e+02	-3.355322e+01
6.003288e+02	-3.360404e+01
6.037963e+02	-3.365220e+01
6.072838e+02	-3.370441e+01
6.107914e+02	-3.375723e+01
6.143194e+02	-3.380992e+01
6.178676e+02	-3.385434e+01
6.214364e+02	-3.390898e+01
6.250258e+02	-3.395904e+01
6.286359e+02	-3.400463e+01
6.322669e+02	-3.406151e+01
6.359189e+02	-3.410719e+01
6.395919e+02	-3.415620e+01
6.432862e+02	-3.422071e+01
6.470017e+02	-3.425850e+01
6.507388e+02	-3.431565e+01
6.544974e+02	-3.435898e+01
6.582778e+02	-3.441591e+01
6.620800e+02	-3.445998e+01
6.659041e+02	-3.451565e+01
6.697504e+02	-3.456440e+01
6.736188e+02	-3.461358e+01
6.775096e+02	-3.466874e+01
6.814229e+02	-3.471264e+01
6.853587e+02	-3.477427e+01
6.893173e+02	-3.482179e+01
6.932988e+02	-3.487004e+01
6.973033e+02	-3.492157e+01
7.013309e+02	-3.496118e+01
