Frequency(Hz)	Magnitude(dB)
1.000000e+01	-2.318416e+00
1.005776e+01	-2.339207e+00
1.011585e+01	-2.360035e+00
1.017428e+01	-2.380971e+00
1.023305e+01	-2.402115e+00
1.029215e+01	-2.423419e+00
1.035160e+01	-2.444889e+00
1.041139e+01	-2.466515e+00
1.047153e+01	-2.488096e+00
1.053201e+01	-2.510409e+00
1.059284e+01	-2.532051e+00
1.065403e+01	-2.554524e+00
1.071556e+01	-2.576790e+00
1.077746e+01	-2.599200e+00
1.083971e+01	-2.621805e+00
1.090232e+01	-2.644448e+00
1.096529e+01	-2.667324e+00
1.102862e+01	-2.690408e+00
1.109232e+01	-2.713424e+00
1.115639e+01	-2.736982e+00
1.122083e+01	-2.760357e+00
1.128564e+01	-2.783687e+00
1.135083e+01	-2.807631e+00
1.141639e+01	-2.831660e+00
1.148233e+01	-2.855752e+00
1.154865e+01	-2.879818e+00
1.161536e+01	-2.903977e+00
1.168245e+01	-2.928441e+00
1.174992e+01	-2.953098e+00
1.181779e+01	-2.977906e+00
1.188605e+01	-3.002828e+00
1.195470e+01	-3.027885e+00
1.202375e+01	-3.053042e+00
1.209320e+01	-3.078360e+00
1.216305e+01	-3.103885e+00
1.223330e+01	-3.129514e+00
1.230396e+01	-3.155418e+00
1.237503e+01	-3.181237e+00
1.244651e+01	-3.207244e+00
1.251840e+01	-3.233483e+00
1.259070e+01	-3.259828e+00
1.266343e+01	-3.286419e+00
1.273657e+01	-3.313144e+00
1.281014e+01	-3.339548e+00
1.288413e+01	-3.366548e+00
1.295855e+01	-3.393465e+00
1.303339e+01	-3.420677e+00
1.310867e+01	-3.448100e+00
1.318439e+01	-3.475536e+00
1.326054e+01	-3.503307e+00
1.333713e+01	-3.530977e+00
1.341417e+01	-3.558872e+00
1.349165e+01	-3.586975e+00
1.356958e+01	-3.614977e+00
1.364795e+01	-3.643437e+00
1.372678e+01	-3.672162e+00
1.380607e+01	-3.700714e+00
1.388581e+01	-3.729296e+00
1.396602e+01	-3.758037e+00
1.404668e+01	-3.787305e+00
1.412782e+01	-3.816285e+00
1.420942e+01	-3.845837e+00
1.429149e+01	-3.875101e+00
1.437404e+01	-3.904906e+00
1.445706e+01	-3.934554e+00
1.454057e+01	-3.964558e+00
1.462455e+01	-3.994329e+00
1.470902e+01	-4.024740e+00
1.479398e+01	-4.054797e+00
1.487943e+01	-4.085345e+00
1.496537e+01	-4.115801e+00
1.505181e+01	-4.146330e+00
1.513875e+01	-4.177576e+00
1.522619e+01	-4.208380e+00
1.531414e+01	-4.239546e+00
1.540259e+01	-4.270647e+00
1.549156e+01	-4.302398e+00
1.558103e+01	-4.333706e+00
1.567103e+01	-4.365173e+00
1.576155e+01	-4.397101e+00
1.585258e+01	-4.428824e+00
1.594415e+01	-4.460912e+00
1.603624e+01	-4.493153e+00
1.612886e+01	-4.525688e+00
1.622202e+01	-4.558349e+00
1.631572e+01	-4.590544e+00
1.640996e+01	-4.623031e+00
1.650474e+01	-4.656197e+00
1.660008e+01	-4.689437e+00
1.669596e+01	-4.722070e+00
1.679239e+01	-4.755781e+00
1.688938e+01	-4.788764e+00
1.698694e+01	-4.822120e+00
1.708505e+01	-4.855735e+00
1.718373e+01	-4.889412e+00
1.728299e+01	-4.923546e+00
1.738281e+01	-4.957276e+00
1.748322e+01	-4.991490e+00
1.758420e+01	-5.025599e+00
1.768576e+01	-5.059974e+00
1.778792e+01	-5.094804e+00
1.789066e+01	-5.129046e+00
1.799399e+01	-5.163941e+00
1.809793e+01	-5.199020e+00
1.820246e+01	-5.233982e+00
1.830760e+01	-5.268946e+00
1.841334e+01	-5.303962e+00
1.851969e+01	-5.339507e+00
1.862666e+01	-5.375264e+00
1.873425e+01	-5.410611e+00
1.884246e+01	-5.446324e+00
1.895129e+01	-5.481831e+00
1.906075e+01	-5.518137e+00
1.917085e+01	-5.554343e+00
1.928158e+01	-5.590414e+00
1.939295e+01	-5.626167e+00
1.950496e+01	-5.662665e+00
1.961762e+01	-5.699221e+00
1.973093e+01	-5.735673e+00
1.984490e+01	-5.772622e+00
1.995952e+01	-5.809419e+00
2.007480e+01	-5.846359e+00
2.019076e+01	-5.883561e+00
2.030738e+01	-5.920486e+00
2.042467e+01	-5.957954e+00
2.054264e+01	-5.995162e+00
2.066130e+01	-6.032933e+00
2.078064e+01	-6.070407e+00
2.090066e+01	-6.107834e+00
2.102139e+01	-6.145650e+00
2.114280e+01	-6.183822e+00
2.126492e+01	-6.222011e+00
2.138775e+01	-6.260101e+00
2.151128e+01	-6.298275e+00
2.163553e+01	-6.336760e+00
2.176050e+01	-6.375090e+00
2.188619e+01	-6.413438e+00
2.201260e+01	-6.452723e+00
2.213974e+01	-6.490955e+00
2.226762e+01	-6.529994e+00
2.239624e+01	-6.568554e+00
2.252560e+01	-6.607818e+00
2.265571e+01	-6.646810e+00
2.278656e+01	-6.686155e+00
2.291818e+01	-6.725660e+00
2.305055e+01	-6.765231e+00
2.318369e+01	-6.804561e+00
2.331760e+01	-6.844343e+00
2.345228e+01	-6.883832e+00
2.358774e+01	-6.923670e+00
2.372398e+01	-6.963496e+00
2.386101e+01	-7.003964e+00
2.399883e+01	-7.043803e+00
2.413745e+01	-7.083898e+00
2.427686e+01	-7.124353e+00
2.441709e+01	-7.164352e+00
2.455812e+01	-7.205068e+00
2.469997e+01	-7.245428e+00
2.484263e+01	-7.286367e+00
2.498612e+01	-7.326808e+00
2.513044e+01	-7.367778e+00
2.527559e+01	-7.408454e+00
2.542158e+01	-7.449407e+00
2.556842e+01	-7.490809e+00
2.571610e+01	-7.531866e+00
2.586463e+01	-7.573264e+00
2.601403e+01	-7.614310e+00
2.616428e+01	-7.655972e+00
2.631541e+01	-7.697442e+00
2.646740e+01	-7.738552e+00
2.662028e+01	-7.780434e+00
2.677404e+01	-7.822294e+00
2.692868e+01	-7.864226e+00
2.708422e+01	-7.905754e+00
2.724066e+01	-7.947814e+00
2.739800e+01	-7.989859e+00
2.755625e+01	-8.032002e+00
2.771541e+01	-8.073957e+00
2.787550e+01	-8.116452e+00
2.803650e+01	-8.159431e+00
2.819844e+01	-8.201386e+00
2.836131e+01	-8.243346e+00
2.852513e+01	-8.286072e+00
2.868989e+01	-8.329345e+00
2.885560e+01	-8.371804e+00
2.902227e+01	-8.414882e+00
2.918990e+01	-8.457413e+00
2.935850e+01	-8.500360e+00
2.952807e+01	-8.543509e+00
2.969863e+01	-8.586682e+00
2.987016e+01	-8.629625e+00
3.004269e+01	-8.672328e+00
3.021622e+01	-8.715703e+00
3.039075e+01	-8.759005e+00
3.056628e+01	-8.802707e+00
3.074283e+01	-8.845995e+00
3.092040e+01	-8.889840e+00
3.109900e+01	-8.933414e+00
3.127862e+01	-8.976727e+00
3.145929e+01	-9.020534e+00
3.164099e+01	-9.064381e+00
3.182375e+01	-9.108773e+00
3.200756e+01	-9.152252e+00
3.219244e+01	-9.196358e+00
3.237838e+01	-9.239805e+00
3.256540e+01	-9.284269e+00
3.275349e+01	-9.328376e+00
3.294268e+01	-9.372832e+00
3.313295e+01	-9.417148e+00
3.332433e+01	-9.461193e+00
3.351681e+01	-9.505808e+00
3.371040e+01	-9.550182e+00
3.390511e+01	-9.594771e+00
3.410094e+01	-9.638824e+00
3.429791e+01	-9.683986e+00
3.449601e+01	-9.728394e+00
3.469526e+01	-9.773566e+00
3.489566e+01	-9.818011e+00
3.509721e+01	-9.863096e+00
3.529993e+01	-9.907690e+00
3.550382e+01	-9.952535e+00
3.570889e+01	-9.997658e+00
3.591515e+01	-1.004262e+01
3.612259e+01	-1.008773e+01
3.633123e+01	-1.013351e+01
3.654108e+01	-1.017832e+01
3.675214e+01	-1.022323e+01
3.696442e+01	-1.026907e+01
3.717792e+01	-1.031408e+01
3.739266e+01	-1.035941e+01
3.760864e+01	-1.040488e+01
3.782587e+01	-1.045027e+01
3.804435e+01	-1.049610e+01
3.826409e+01	-1.054134e+01
3.848510e+01	-1.058665e+01
3.870739e+01	-1.063292e+01
3.893096e+01	-1.067870e+01
3.915583e+01	-1.072450e+01
3.938199e+01	-1.077051e+01
3.960946e+01	-1.081616e+01
3.983824e+01	-1.086181e+01
4.006834e+01	-1.090856e+01
4.029978e+01	-1.095401e+01
4.053255e+01	-1.099976e+01
4.076666e+01	-1.104608e+01
4.100213e+01	-1.109274e+01
4.123896e+01	-1.113826e+01
4.147715e+01	-1.118431e+01
4.171672e+01	-1.123114e+01
4.195767e+01	-1.127716e+01
4.220002e+01	-1.132278e+01
4.244377e+01	-1.136950e+01
4.268892e+01	-1.141619e+01
4.293549e+01	-1.146265e+01
4.318348e+01	-1.150894e+01
4.343291e+01	-1.155546e+01
4.368377e+01	-1.160243e+01
4.393609e+01	-1.164893e+01
4.418986e+01	-1.169521e+01
4.444510e+01	-1.174190e+01
4.470182e+01	-1.178898e+01
4.496001e+01	-1.183553e+01
4.521970e+01	-1.188233e+01
4.548089e+01	-1.192911e+01
4.574358e+01	-1.197547e+01
4.600779e+01	-1.202319e+01
4.627353e+01	-1.206979e+01
4.654081e+01	-1.211677e+01
4.680963e+01	-1.216307e+01
4.708000e+01	-1.221047e+01
4.735193e+01	-1.225732e+01
4.762543e+01	-1.230471e+01
4.790051e+01	-1.235195e+01
4.817719e+01	-1.239881e+01
4.845545e+01	-1.244560e+01
4.873533e+01	-1.249404e+01
4.901682e+01	-1.253972e+01
4.929994e+01	-1.258762e+01
4.958470e+01	-1.263559e+01
4.987110e+01	-1.268226e+01
5.015915e+01	-1.272843e+01
5.044887e+01	-1.277671e+01
5.074026e+01	-1.282413e+01
5.103333e+01	-1.287131e+01
5.132810e+01	-1.291961e+01
5.162457e+01	-1.296613e+01
5.192275e+01	-1.301419e+01
5.222265e+01	-1.306139e+01
5.252429e+01	-1.310934e+01
5.282767e+01	-1.315716e+01
5.313280e+01	-1.320455e+01
5.343969e+01	-1.325234e+01
5.374836e+01	-1.329966e+01
5.405880e+01	-1.334768e+01
5.437105e+01	-1.339566e+01
5.468509e+01	-1.344366e+01
5.500095e+01	-1.349087e+01
5.531863e+01	-1.353876e+01
5.563815e+01	-1.358596e+01
5.595951e+01	-1.363396e+01
5.628273e+01	-1.368202e+01
5.660782e+01	-1.372994e+01
5.693479e+01	-1.377789e+01
5.726364e+01	-1.382556e+01
5.759439e+01	-1.387393e+01
5.792705e+01	-1.392149e+01
5.826164e+01	-1.397003e+01
5.859815e+01	-1.401823e+01
5.893662e+01	-1.406584e+01
5.927703e+01	-1.411328e+01
5.961941e+01	-1.416146e+01
5.996377e+01	-1.421050e+01
6.031012e+01	-1.425783e+01
6.065847e+01	-1.430694e+01
6.100883e+01	-1.435540e+01
6.136121e+01	-1.440301e+01
6.171563e+01	-1.445142e+01
6.207210e+01	-1.449985e+01
6.243063e+01	-1.454757e+01
6.279122e+01	-1.459568e+01
6.315390e+01	-1.464477e+01
6.351868e+01	-1.469216e+01
6.388556e+01	-1.474132e+01
6.425456e+01	-1.478963e+01
6.462569e+01	-1.483663e+01
6.499897e+01	-1.488615e+01
6.537440e+01	-1.493426e+01
6.575200e+01	-1.498344e+01
6.613178e+01	-1.503066e+01
6.651375e+01	-1.508008e+01
6.689793e+01	-1.512802e+01
6.728433e+01	-1.517673e+01
6.767297e+01	-1.522562e+01
6.806384e+01	-1.527437e+01
6.845698e+01	-1.532202e+01
6.885238e+01	-1.537040e+01
6.925007e+01	-1.541970e+01
6.965005e+01	-1.546951e+01
7.005235e+01	-1.551596e+01
7.045697e+01	-1.556498e+01
7.086393e+01	-1.561435e+01
7.127323e+01	-1.566273e+01
7.168490e+01	-1.571026e+01
7.209895e+01	-1.576016e+01
7.251539e+01	-1.580990e+01
7.293424e+01	-1.585781e+01
7.335551e+01	-1.590627e+01
7.377920e+01	-1.595447e+01
7.420535e+01	-1.600431e+01
7.463396e+01	-1.605242e+01
7.506504e+01	-1.610142e+01
7.549861e+01	-1.615123e+01
7.593469e+01	-1.619911e+01
7.637328e+01	-1.624730e+01
7.681441e+01	-1.629567e+01
7.725809e+01	-1.634506e+01
7.770433e+01	-1.639357e+01
7.815315e+01	-1.644267e+01
7.860456e+01	-1.649172e+01
7.905857e+01	-1.654120e+01
7.951521e+01	-1.658983e+01
7.997449e+01	-1.663837e+01
8.043642e+01	-1.668833e+01
8.090102e+01	-1.673670e+01
8.136830e+01	-1.678548e+01
8.183828e+01	-1.683438e+01
8.231097e+01	-1.688346e+01
8.278640e+01	-1.693255e+01
8.326457e+01	-1.698276e+01
8.374550e+01	-1.703248e+01
8.422921e+01	-1.708014e+01
8.471572e+01	-1.712813e+01
8.520503e+01	-1.717757e+01
8.569717e+01	-1.722731e+01
8.619215e+01	-1.727671e+01
8.669000e+01	-1.732572e+01
8.719071e+01	-1.737508e+01
8.769432e+01	-1.742467e+01
8.820084e+01	-1.747295e+01
8.871029e+01	-1.752163e+01
8.922267e+01	-1.757045e+01
8.973802e+01	-1.761991e+01
9.025634e+01	-1.766966e+01
9.077766e+01	-1.771926e+01
9.130199e+01	-1.776844e+01
9.182935e+01	-1.781745e+01
9.235975e+01	-1.786704e+01
9.289321e+01	-1.791563e+01
9.342976e+01	-1.796360e+01
9.396941e+01	-1.801479e+01
9.451217e+01	-1.806296e+01
9.505807e+01	-1.811313e+01
9.560712e+01	-1.816278e+01
9.615934e+01	-1.821090e+01
9.671476e+01	-1.825970e+01
9.727338e+01	-1.830886e+01
9.783522e+01	-1.835838e+01
9.840032e+01	-1.840749e+01
9.896867e+01	-1.845763e+01
9.954031e+01	-1.850507e+01
1.001153e+02	-1.855673e+01
1.006935e+02	-1.860473e+01
1.012751e+02	-1.865529e+01
1.018601e+02	-1.870418e+01
1.024484e+02	-1.875219e+01
1.030402e+02	-1.880375e+01
1.036353e+02	-1.885298e+01
1.042339e+02	-1.890084e+01
1.048360e+02	-1.895116e+01
1.054415e+02	-1.900157e+01
1.060505e+02	-1.904992e+01
1.066631e+02	-1.909793e+01
1.072791e+02	-1.914810e+01
1.078988e+02	-1.919829e+01
1.085220e+02	-1.924671e+01
1.091488e+02	-1.929648e+01
1.097793e+02	-1.934595e+01
1.104133e+02	-1.939486e+01
1.110511e+02	-1.944562e+01
1.116925e+02	-1.949456e+01
1.123376e+02	-1.954349e+01
1.129865e+02	-1.959304e+01
1.136391e+02	-1.964460e+01
1.142955e+02	-1.969032e+01
1.149556e+02	-1.974246e+01
1.156196e+02	-1.979119e+01
1.162874e+02	-1.984207e+01
1.169591e+02	-1.989109e+01
1.176347e+02	-1.994027e+01
1.183141e+02	-1.998844e+01
1.189975e+02	-2.003981e+01
1.196848e+02	-2.008788e+01
1.203761e+02	-2.013774e+01
1.210714e+02	-2.018894e+01
1.217707e+02	-2.023643e+01
1.224740e+02	-2.028851e+01
1.231814e+02	-2.033366e+01
1.238929e+02	-2.038570e+01
1.246085e+02	-2.043476e+01
1.253283e+02	-2.048473e+01
1.260522e+02	-2.053484e+01
1.267802e+02	-2.058360e+01
1.275125e+02	-2.063396e+01
1.282490e+02	-2.068444e+01
1.289898e+02	-2.073291e+01
1.297348e+02	-2.078276e+01
1.304842e+02	-2.083133e+01
1.312378e+02	-2.088302e+01
1.319959e+02	-2.093264e+01
1.327583e+02	-2.098110e+01
1.335251e+02	-2.102974e+01
1.342963e+02	-2.108209e+01
1.350720e+02	-2.112964e+01
1.358522e+02	-2.118008e+01
1.366368e+02	-2.122891e+01
1.374260e+02	-2.127912e+01
1.382198e+02	-2.132934e+01
1.390182e+02	-2.138007e+01
1.398211e+02	-2.142802e+01
1.406287e+02	-2.147791e+01
1.414410e+02	-2.152769e+01
1.422579e+02	-2.157846e+01
1.430796e+02	-2.162551e+01
1.439060e+02	-2.167861e+01
1.447372e+02	-2.172653e+01
1.455732e+02	-2.177583e+01
1.464141e+02	-2.182603e+01
1.472597e+02	-2.187636e+01
1.481103e+02	-2.192729e+01
1.489658e+02	-2.197674e+01
1.498262e+02	-2.202462e+01
1.506916e+02	-2.207516e+01
1.515620e+02	-2.212345e+01
1.524374e+02	-2.217337e+01
1.533179e+02	-2.222363e+01
1.542034e+02	-2.227254e+01
1.550941e+02	-2.232409e+01
1.559899e+02	-2.237482e+01
1.568909e+02	-2.242303e+01
1.577971e+02	-2.247480e+01
1.587085e+02	-2.252274e+01
1.596252e+02	-2.257245e+01
1.605472e+02	-2.262100e+01
1.614745e+02	-2.267060e+01
1.624072e+02	-2.272250e+01
1.633453e+02	-2.277328e+01
1.642887e+02	-2.282055e+01
1.652377e+02	-2.286979e+01
1.661921e+02	-2.292372e+01
1.671520e+02	-2.296979e+01
1.681175e+02	-2.301958e+01
1.690885e+02	-2.306978e+01
1.700651e+02	-2.312032e+01
1.710474e+02	-2.316795e+01
1.720354e+02	-2.321935e+01
1.730291e+02	-2.327106e+01
1.740285e+02	-2.332075e+01
1.750337e+02	-2.336760e+01
1.760446e+02	-2.341802e+01
1.770615e+02	-2.346784e+01
1.780842e+02	-2.351753e+01
1.791128e+02	-2.356792e+01
1.801473e+02	-2.361917e+01
1.811878e+02	-2.366990e+01
1.822344e+02	-2.371511e+01
1.832870e+02	-2.376678e+01
1.843456e+02	-2.381691e+01
1.854104e+02	-2.386882e+01
1.864813e+02	-2.391590e+01
1.875584e+02	-2.396807e+01
1.886418e+02	-2.401769e+01
1.897313e+02	-2.406657e+01
1.908272e+02	-2.411545e+01
1.919294e+02	-2.416591e+01
1.930380e+02	-2.421338e+01
1.941530e+02	-2.426686e+01
1.952744e+02	-2.431499e+01
1.964023e+02	-2.436356e+01
1.975367e+02	-2.441688e+01
1.986777e+02	-2.446347e+01
1.998252e+02	-2.451635e+01
2.009794e+02	-2.456687e+01
2.021403e+02	-2.461463e+01
2.033078e+02	-2.466666e+01
2.044821e+02	-2.471601e+01
2.056632e+02	-2.476668e+01
2.068511e+02	-2.481509e+01
2.080459e+02	-2.486521e+01
2.092475e+02	-2.491544e+01
2.104561e+02	-2.496257e+01
2.116717e+02	-2.501521e+01
2.128943e+02	-2.506672e+01
2.141240e+02	-2.511651e+01
2.153608e+02	-2.516616e+01
2.166047e+02	-2.521449e+01
2.178558e+02	-2.526232e+01
2.191141e+02	-2.531199e+01
2.203797e+02	-2.536354e+01
2.216526e+02	-2.541258e+01
2.229329e+02	-2.546165e+01
2.242205e+02	-2.551580e+01
2.255156e+02	-2.556457e+01
2.268182e+02	-2.561149e+01
2.281283e+02	-2.566120e+01
2.294459e+02	-2.571067e+01
2.307712e+02	-2.576261e+01
2.321041e+02	-2.581311e+01
2.334447e+02	-2.586396e+01
2.347931e+02	-2.591451e+01
2.361493e+02	-2.596429e+01
2.375133e+02	-2.601036e+01
2.388851e+02	-2.606272e+01
2.402649e+02	-2.611252e+01
2.416527e+02	-2.616399e+01
2.430484e+02	-2.621522e+01
2.444523e+02	-2.626204e+01
2.458642e+02	-2.631340e+01
2.472843e+02	-2.636150e+01
2.487126e+02	-2.641460e+01
2.501492e+02	-2.646619e+01
2.515940e+02	-2.651540e+01
2.530472e+02	-2.656316e+01
2.545088e+02	-2.661126e+01
2.559789e+02	-2.666325e+01
2.574574e+02	-2.671463e+01
2.589444e+02	-2.676246e+01
2.604401e+02	-2.680989e+01
2.619444e+02	-2.686065e+01
2.634574e+02	-2.691233e+01
2.649791e+02	-2.696084e+01
2.665096e+02	-2.701237e+01
2.680489e+02	-2.706752e+01
2.695972e+02	-2.711108e+01
2.711544e+02	-2.716128e+01
2.727205e+02	-2.721332e+01
2.742958e+02	-2.726159e+01
2.758801e+02	-2.730836e+01
2.774736e+02	-2.736164e+01
2.790762e+02	-2.741494e+01
2.806882e+02	-2.746231e+01
2.823094e+02	-2.751064e+01
2.839400e+02	-2.756447e+01
2.855800e+02	-2.761232e+01
2.872295e+02	-2.766153e+01
2.888886e+02	-2.771331e+01
2.905572e+02	-2.776263e+01
2.922354e+02	-2.780883e+01
2.939234e+02	-2.786460e+01
2.956211e+02	-2.791298e+01
2.973286e+02	-2.795884e+01
2.990459e+02	-2.801281e+01
3.007732e+02	-2.806422e+01
3.025104e+02	-2.811249e+01
3.042577e+02	-2.816484e+01
3.060151e+02	-2.821164e+01
3.077826e+02	-2.826124e+01
3.095604e+02	-2.831172e+01
3.113484e+02	-2.836083e+01
3.131467e+02	-2.840756e+01
3.149554e+02	-2.846657e+01
3.167746e+02	-2.851254e+01
3.186043e+02	-2.856109e+01
3.204445e+02	-2.861504e+01
3.222954e+02	-2.865992e+01
3.241570e+02	-2.871462e+01
3.260293e+02	-2.876695e+01
3.279124e+02	-2.881098e+01
3.298064e+02	-2.886168e+01
3.317114e+02	-2.891395e+01
3.336273e+02	-2.896223e+01
3.355544e+02	-2.901609e+01
3.374925e+02	-2.906846e+01
3.394418e+02	-2.911501e+01
3.414024e+02	-2.916072e+01
3.433744e+02	-2.921270e+01
3.453577e+02	-2.926564e+01
3.473525e+02	-2.931175e+01
3.493588e+02	-2.936418e+01
3.513766e+02	-2.941836e+01
3.534062e+02	-2.946473e+01
3.554474e+02	-2.951885e+01
3.575005e+02	-2.956550e+01
3.595654e+02	-2.961471e+01
3.616422e+02	-2.966227e+01
3.637311e+02	-2.971262e+01
3.658320e+02	-2.976319e+01
3.679450e+02	-2.981503e+01
3.700702e+02	-2.986675e+01
3.722077e+02	-2.991602e+01
3.743576e+02	-2.996373e+01
3.765199e+02	-3.001691e+01
3.786946e+02	-3.006608e+01
3.808820e+02	-3.011356e+01
3.830819e+02	-3.016503e+01
3.852946e+02	-3.021228e+01
3.875200e+02	-3.026339e+01
3.897583e+02	-3.031601e+01
3.920096e+02	-3.036964e+01
3.942738e+02	-3.041450e+01
3.965511e+02	-3.046628e+01
3.988416e+02	-3.051405e+01
4.011452e+02	-3.056587e+01
4.034622e+02	-3.061495e+01
4.057926e+02	-3.066609e+01
4.081365e+02	-3.071373e+01
4.104938e+02	-3.076476e+01
4.128648e+02	-3.081316e+01
4.152495e+02	-3.087414e+01
4.176480e+02	-3.091468e+01
4.200603e+02	-3.096824e+01
4.224866e+02	-3.101570e+01
4.249268e+02	-3.106326e+01
4.273812e+02	-3.111624e+01
4.298497e+02	-3.116483e+01
4.323325e+02	-3.121532e+01
4.348297e+02	-3.126766e+01
4.373412e+02	-3.131657e+01
4.398673e+02	-3.137492e+01
4.424079e+02	-3.141694e+01
4.449633e+02	-3.146863e+01
4.475334e+02	-3.152097e+01
4.501183e+02	-3.156892e+01
4.527182e+02	-3.162019e+01
4.553330e+02	-3.167028e+01
4.579630e+02	-3.171207e+01
4.606082e+02	-3.177122e+01
4.632687e+02	-3.181580e+01
4.659445e+02	-3.187283e+01
4.686358e+02	-3.191102e+01
4.713426e+02	-3.196269e+01
4.740650e+02	-3.201525e+01
4.768032e+02	-3.206790e+01
4.795572e+02	-3.212052e+01
4.823271e+02	-3.217780e+01
4.851130e+02	-3.221612e+01
4.879150e+02	-3.227082e+01
4.907332e+02	-3.232582e+01
4.935676e+02	-3.237403e+01
4.964185e+02	-3.241661e+01
4.992858e+02	-3.247154e+01
5.021696e+02	-3.252627e+01
5.050701e+02	-3.256798e+01
5.079874e+02	-3.262098e+01
5.109215e+02	-3.267040e+01
5.138726e+02	-3.272018e+01
5.168407e+02	-3.277267e+01
5.198259e+02	-3.282189e+01
5.228284e+02	-3.287604e+01
5.258482e+02	-3.291918e+01
5.288855e+02	-3.297567e+01
5.319403e+02	-3.302220e+01
5.350128e+02	-3.307192e+01
5.381030e+02	-3.312032e+01
5.412111e+02	-3.317041e+01
5.443371e+02	-3.322616e+01
5.474812e+02	-3.328599e+01
5.506434e+02	-3.332060e+01
5.538239e+02	-3.337673e+01
5.570228e+02	-3.342557e+01
5.602401e+02	-3.347267e+01
5.634760e+02	-3.353251e+01
5.667306e+02	-3.357927e+01
5.700040e+02	-3.362501e+01
5.732964e+02	-3.367919e+01
5.766077e+02	-3.372559e+01
5.799382e+02	-3.377994e+01
5.832879e+02	-3.382616e+01
5.866569e+02	-3.387621e+01
5.900454e+02	-3.392833e+01
5.934535e+02	-3.397698e+01
5.968813e+02	-3.402823e+01
6.003288e+02	-3.408432e+01
6.037963e+02	-3.412834e+01
6.072838e+02	-3.417627e+01
6.107914e+02	-3.422902e+01
6.143194e+02	-3.428615e+01
6.178676e+02	-3.433072e+01
6.214364e+02	-3.438102e+01
6.250258e+02	-3.443934e+01
6.286359e+02	-3.448334e+01
6.322669e+02	-3.453148e+01
6.359189e+02	-3.458448e+01
6.395919e+02	-3.463601e+01
6.432862e+02	-3.467692e+01
6.470017e+02	-3.473765e+01
6.507388e+02	-3.478104e+01
6.544974e+02	-3.484017e+01
6.582778e+02	-3.489167e+01
6.620800e+02	-3.493341e+01
6.659041e+02	-3.498361e+01
6.697504e+02	-3.503822e+01
6.736188e+02	-3.509138e+01
6.775096e+02	-3.513648e+01
6.814229e+02	-3.518990e+01
6.853587e+02	-3.523361e+01
6.893173e+02	-3.529017e+01
6.932988e+02	-3.533213e+01
6.973033e+02	-3.539101e+01
7.013309e+02	-3.543686e+01
