Frequency(Hz)	Magnitude(dB)
1.000000e+01	-1.748423e-05
1.005776e+01	-1.768679e-05
1.011585e+01	-1.789170e-05
1.017428e+01	-1.809898e-05
1.023305e+01	-1.830866e-05
1.029215e+01	-1.852077e-05
1.035160e+01	-1.873534e-05
1.041139e+01	-1.895239e-05
1.047153e+01	-1.917196e-05
1.053201e+01	-1.939407e-05
1.059284e+01	-1.961876e-05
1.065403e+01	-1.984605e-05
1.071556e+01	-2.007597e-05
1.077746e+01	-2.030855e-05
1.083971e+01	-2.054383e-05
1.090232e+01	-2.078184e-05
1.096529e+01	-2.102260e-05
1.102862e+01	-2.126615e-05
1.109232e+01	-2.151253e-05
1.115639e+01	-2.176175e-05
1.122083e+01	-2.201387e-05
1.128564e+01	-2.226891e-05
1.135083e+01	-2.252690e-05
1.141639e+01	-2.278788e-05
1.148233e+01	-2.305188e-05
1.154865e+01	-2.331894e-05
1.161536e+01	-2.358910e-05
1.168245e+01	-2.386238e-05
1.174992e+01	-2.413883e-05
1.181779e+01	-2.441849e-05
1.188605e+01	-2.470138e-05
1.195470e+01	-2.498755e-05
1.202375e+01	-2.527704e-05
1.209320e+01	-2.556988e-05
1.216305e+01	-2.586612e-05
1.223330e+01	-2.616578e-05
1.230396e+01	-2.646892e-05
1.237503e+01	-2.677557e-05
1.244651e+01	-2.708577e-05
1.251840e+01	-2.739956e-05
1.259070e+01	-2.771699e-05
1.266343e+01	-2.803810e-05
1.273657e+01	-2.836293e-05
1.281014e+01	-2.869152e-05
1.288413e+01	-2.902392e-05
1.295855e+01	-2.936017e-05
1.303339e+01	-2.970031e-05
1.310867e+01	-3.004440e-05
1.318439e+01	-3.039247e-05
1.326054e+01	-3.074457e-05
1.333713e+01	-3.110076e-05
1.341417e+01	-3.146107e-05
1.349165e+01	-3.182555e-05
1.356958e+01	-3.219426e-05
1.364795e+01	-3.256724e-05
1.372678e+01	-3.294453e-05
1.380607e+01	-3.332620e-05
1.388581e+01	-3.371230e-05
1.396602e+01	-3.410286e-05
1.404668e+01	-3.449795e-05
1.412782e+01	-3.489762e-05
1.420942e+01	-3.530192e-05
1.429149e+01	-3.571090e-05
1.437404e+01	-3.612461e-05
1.445706e+01	-3.654313e-05
1.454057e+01	-3.696649e-05
1.462455e+01	-3.739475e-05
1.470902e+01	-3.782798e-05
1.479398e+01	-3.826623e-05
1.487943e+01	-3.870955e-05
1.496537e+01	-3.915801e-05
1.505181e+01	-3.961166e-05
1.513875e+01	-4.007057e-05
1.522619e+01	-4.053480e-05
1.531414e+01	-4.100440e-05
1.540259e+01	-4.147945e-05
1.549156e+01	-4.196000e-05
1.558103e+01	-4.244611e-05
1.567103e+01	-4.293786e-05
1.576155e+01	-4.343531e-05
1.585258e+01	-4.393851e-05
1.594415e+01	-4.444755e-05
1.603624e+01	-4.496248e-05
1.612886e+01	-4.548339e-05
1.622202e+01	-4.601032e-05
1.631572e+01	-4.654336e-05
1.640996e+01	-4.708257e-05
1.650474e+01	-4.762804e-05
1.660008e+01	-4.817982e-05
1.669596e+01	-4.873799e-05
1.679239e+01	-4.930263e-05
1.688938e+01	-4.987381e-05
1.698694e+01	-5.045161e-05
1.708505e+01	-5.103610e-05
1.718373e+01	-5.162737e-05
1.728299e+01	-5.222548e-05
1.738281e+01	-5.283053e-05
1.748322e+01	-5.344258e-05
1.758420e+01	-5.406172e-05
1.768576e+01	-5.468804e-05
1.778792e+01	-5.532161e-05
1.789066e+01	-5.596252e-05
1.799399e+01	-5.661086e-05
1.809793e+01	-5.726671e-05
1.820246e+01	-5.793015e-05
1.830760e+01	-5.860129e-05
1.841334e+01	-5.928019e-05
1.851969e+01	-5.996697e-05
1.862666e+01	-6.066170e-05
1.873425e+01	-6.136447e-05
1.884246e+01	-6.207539e-05
1.895129e+01	-6.279455e-05
1.906075e+01	-6.352204e-05
1.917085e+01	-6.425795e-05
1.928158e+01	-6.500239e-05
1.939295e+01	-6.575546e-05
1.950496e+01	-6.651725e-05
1.961762e+01	-6.728786e-05
1.973093e+01	-6.806740e-05
1.984490e+01	-6.885598e-05
1.995952e+01	-6.965369e-05
2.007480e+01	-7.046064e-05
2.019076e+01	-7.127694e-05
2.030738e+01	-7.210269e-05
2.042467e+01	-7.293802e-05
2.054264e+01	-7.378302e-05
2.066130e+01	-7.463781e-05
2.078064e+01	-7.550250e-05
2.090066e+01	-7.637721e-05
2.102139e+01	-7.726205e-05
2.114280e+01	-7.815715e-05
2.126492e+01	-7.906261e-05
2.138775e+01	-7.997856e-05
2.151128e+01	-8.090513e-05
2.163553e+01	-8.184243e-05
2.176050e+01	-8.279059e-05
2.188619e+01	-8.374973e-05
2.201260e+01	-8.471999e-05
2.213974e+01	-8.570148e-05
2.226762e+01	-8.669435e-05
2.239624e+01	-8.769871e-05
2.252560e+01	-8.871472e-05
2.265571e+01	-8.974249e-05
2.278656e+01	-9.078217e-05
2.291818e+01	-9.183390e-05
2.305055e+01	-9.289781e-05
2.318369e+01	-9.397404e-05
2.331760e+01	-9.506275e-05
2.345228e+01	-9.616406e-05
2.358774e+01	-9.727814e-05
2.372398e+01	-9.840512e-05
2.386101e+01	-9.954516e-05
2.399883e+01	-1.006984e-04
2.413745e+01	-1.018650e-04
2.427686e+01	-1.030451e-04
2.441709e+01	-1.042389e-04
2.455812e+01	-1.054465e-04
2.469997e+01	-1.066682e-04
2.484263e+01	-1.079039e-04
2.498612e+01	-1.091540e-04
2.513044e+01	-1.104186e-04
2.527559e+01	-1.116978e-04
2.542158e+01	-1.129918e-04
2.556842e+01	-1.143008e-04
2.571610e+01	-1.156250e-04
2.586463e+01	-1.169646e-04
2.601403e+01	-1.183196e-04
2.616428e+01	-1.196904e-04
2.631541e+01	-1.210770e-04
2.646740e+01	-1.224797e-04
2.662028e+01	-1.238986e-04
2.677404e+01	-1.253340e-04
2.692868e+01	-1.267860e-04
2.708422e+01	-1.282548e-04
2.724066e+01	-1.297407e-04
2.739800e+01	-1.312437e-04
2.755625e+01	-1.327642e-04
2.771541e+01	-1.343023e-04
2.787550e+01	-1.358582e-04
2.803650e+01	-1.374321e-04
2.819844e+01	-1.390243e-04
2.836131e+01	-1.406349e-04
2.852513e+01	-1.422642e-04
2.868989e+01	-1.439123e-04
2.885560e+01	-1.455795e-04
2.902227e+01	-1.472661e-04
2.918990e+01	-1.489722e-04
2.935850e+01	-1.506980e-04
2.952807e+01	-1.524439e-04
2.969863e+01	-1.542100e-04
2.987016e+01	-1.559965e-04
3.004269e+01	-1.578037e-04
3.021622e+01	-1.596319e-04
3.039075e+01	-1.614812e-04
3.056628e+01	-1.633520e-04
3.074283e+01	-1.652445e-04
3.092040e+01	-1.671588e-04
3.109900e+01	-1.690954e-04
3.127862e+01	-1.710543e-04
3.145929e+01	-1.730360e-04
3.164099e+01	-1.750406e-04
3.182375e+01	-1.770685e-04
3.200756e+01	-1.791198e-04
3.219244e+01	-1.811950e-04
3.237838e+01	-1.832941e-04
3.256540e+01	-1.854176e-04
3.275349e+01	-1.875656e-04
3.294268e+01	-1.897386e-04
3.313295e+01	-1.919367e-04
3.332433e+01	-1.941603e-04
3.351681e+01	-1.964097e-04
3.371040e+01	-1.986851e-04
3.390511e+01	-2.009868e-04
3.410094e+01	-2.033153e-04
3.429791e+01	-2.056707e-04
3.449601e+01	-2.080534e-04
3.469526e+01	-2.104637e-04
3.489566e+01	-2.129019e-04
3.509721e+01	-2.153684e-04
3.529993e+01	-2.178634e-04
3.550382e+01	-2.203873e-04
3.570889e+01	-2.229405e-04
3.591515e+01	-2.255233e-04
3.612259e+01	-2.281360e-04
3.633123e+01	-2.307789e-04
3.654108e+01	-2.334525e-04
3.675214e+01	-2.361570e-04
3.696442e+01	-2.388929e-04
3.717792e+01	-2.416605e-04
3.739266e+01	-2.444601e-04
3.760864e+01	-2.472921e-04
3.782587e+01	-2.501570e-04
3.804435e+01	-2.530551e-04
3.826409e+01	-2.559867e-04
3.848510e+01	-2.589523e-04
3.870739e+01	-2.619522e-04
3.893096e+01	-2.649869e-04
3.915583e+01	-2.680568e-04
3.938199e+01	-2.711622e-04
3.960946e+01	-2.743036e-04
3.983824e+01	-2.774814e-04
4.006834e+01	-2.806959e-04
4.029978e+01	-2.839478e-04
4.053255e+01	-2.872373e-04
4.076666e+01	-2.905649e-04
4.100213e+01	-2.939311e-04
4.123896e+01	-2.973362e-04
4.147715e+01	-3.007808e-04
4.171672e+01	-3.042653e-04
4.195767e+01	-3.077902e-04
4.220002e+01	-3.113559e-04
4.244377e+01	-3.149629e-04
4.268892e+01	-3.186117e-04
4.293549e+01	-3.223028e-04
4.318348e+01	-3.260366e-04
4.343291e+01	-3.298137e-04
4.368377e+01	-3.336345e-04
4.393609e+01	-3.374996e-04
4.418986e+01	-3.414095e-04
4.444510e+01	-3.453647e-04
4.470182e+01	-3.493657e-04
4.496001e+01	-3.534130e-04
4.521970e+01	-3.575072e-04
4.548089e+01	-3.616489e-04
4.574358e+01	-3.658385e-04
4.600779e+01	-3.700766e-04
4.627353e+01	-3.743639e-04
4.654081e+01	-3.787008e-04
4.680963e+01	-3.830880e-04
4.708000e+01	-3.875260e-04
4.735193e+01	-3.920154e-04
4.762543e+01	-3.965568e-04
4.790051e+01	-4.011508e-04
4.817719e+01	-4.057980e-04
4.845545e+01	-4.104990e-04
4.873533e+01	-4.152546e-04
4.901682e+01	-4.200652e-04
4.929994e+01	-4.249315e-04
4.958470e+01	-4.298542e-04
4.987110e+01	-4.348339e-04
5.015915e+01	-4.398714e-04
5.044887e+01	-4.449671e-04
5.074026e+01	-4.501219e-04
5.103333e+01	-4.553364e-04
5.132810e+01	-4.606114e-04
5.162457e+01	-4.659474e-04
5.192275e+01	-4.713452e-04
5.222265e+01	-4.768056e-04
5.252429e+01	-4.823292e-04
5.282767e+01	-4.879168e-04
5.313280e+01	-4.935691e-04
5.343969e+01	-4.992869e-04
5.374836e+01	-5.050710e-04
5.405880e+01	-5.109220e-04
5.437105e+01	-5.168408e-04
5.468509e+01	-5.228282e-04
5.500095e+01	-5.288850e-04
5.531863e+01	-5.350119e-04
5.563815e+01	-5.412097e-04
5.595951e+01	-5.474794e-04
5.628273e+01	-5.538217e-04
5.660782e+01	-5.602375e-04
5.693479e+01	-5.667276e-04
5.726364e+01	-5.732928e-04
5.759439e+01	-5.799341e-04
5.792705e+01	-5.866524e-04
5.826164e+01	-5.934484e-04
5.859815e+01	-6.003232e-04
5.893662e+01	-6.072776e-04
5.927703e+01	-6.143126e-04
5.961941e+01	-6.214291e-04
5.996377e+01	-6.286280e-04
6.031012e+01	-6.359103e-04
6.065847e+01	-6.432770e-04
6.100883e+01	-6.507289e-04
6.136121e+01	-6.582672e-04
6.171563e+01	-6.658929e-04
6.207210e+01	-6.736068e-04
6.243063e+01	-6.814101e-04
6.279122e+01	-6.893038e-04
6.315390e+01	-6.972889e-04
6.351868e+01	-7.053666e-04
6.388556e+01	-7.135378e-04
6.425456e+01	-7.218036e-04
6.462569e+01	-7.301652e-04
6.499897e+01	-7.386237e-04
6.537440e+01	-7.471801e-04
6.575200e+01	-7.558356e-04
6.613178e+01	-7.645914e-04
6.651375e+01	-7.734486e-04
6.689793e+01	-7.824084e-04
6.728433e+01	-7.914720e-04
6.767297e+01	-8.006406e-04
6.806384e+01	-8.099154e-04
6.845698e+01	-8.192976e-04
6.885238e+01	-8.287884e-04
6.925007e+01	-8.383893e-04
6.965005e+01	-8.481013e-04
7.005235e+01	-8.579258e-04
7.045697e+01	-8.678641e-04
7.086393e+01	-8.779175e-04
7.127323e+01	-8.880874e-04
7.168490e+01	-8.983751e-04
7.209895e+01	-9.087819e-04
7.251539e+01	-9.193093e-04
7.293424e+01	-9.299586e-04
7.335551e+01	-9.407312e-04
7.377920e+01	-9.516287e-04
7.420535e+01	-9.626523e-04
7.463396e+01	-9.738037e-04
7.506504e+01	-9.850842e-04
7.549861e+01	-9.964953e-04
7.593469e+01	-1.008039e-03
7.637328e+01	-1.019716e-03
7.681441e+01	-1.031528e-03
7.725809e+01	-1.043477e-03
7.770433e+01	-1.055565e-03
7.815315e+01	-1.067792e-03
7.860456e+01	-1.080161e-03
7.905857e+01	-1.092674e-03
7.951521e+01	-1.105331e-03
7.997449e+01	-1.118135e-03
8.043642e+01	-1.131087e-03
8.090102e+01	-1.144189e-03
8.136830e+01	-1.157443e-03
8.183828e+01	-1.170851e-03
8.231097e+01	-1.184413e-03
8.278640e+01	-1.198133e-03
8.326457e+01	-1.212012e-03
8.374550e+01	-1.226052e-03
8.422921e+01	-1.240254e-03
8.471572e+01	-1.254620e-03
8.520503e+01	-1.269153e-03
8.569717e+01	-1.283855e-03
8.619215e+01	-1.298726e-03
8.669000e+01	-1.313770e-03
8.719071e+01	-1.328988e-03
8.769432e+01	-1.344382e-03
8.820084e+01	-1.359955e-03
8.871029e+01	-1.375708e-03
8.922267e+01	-1.391643e-03
8.973802e+01	-1.407763e-03
9.025634e+01	-1.424070e-03
9.077766e+01	-1.440565e-03
9.130199e+01	-1.457252e-03
9.182935e+01	-1.474132e-03
9.235975e+01	-1.491207e-03
9.289321e+01	-1.508480e-03
9.342976e+01	-1.525953e-03
9.396941e+01	-1.543628e-03
9.451217e+01	-1.561509e-03
9.505807e+01	-1.579596e-03
9.560712e+01	-1.597893e-03
9.615934e+01	-1.616401e-03
9.671476e+01	-1.635124e-03
9.727338e+01	-1.654064e-03
9.783522e+01	-1.673223e-03
9.840032e+01	-1.692604e-03
9.896867e+01	-1.712209e-03
9.954031e+01	-1.732042e-03
1.001153e+02	-1.752104e-03
1.006935e+02	-1.772398e-03
1.012751e+02	-1.792928e-03
1.018601e+02	-1.813695e-03
1.024484e+02	-1.834703e-03
1.030402e+02	-1.855954e-03
1.036353e+02	-1.877451e-03
1.042339e+02	-1.899197e-03
1.048360e+02	-1.921194e-03
1.054415e+02	-1.943447e-03
1.060505e+02	-1.965957e-03
1.066631e+02	-1.988728e-03
1.072791e+02	-2.011763e-03
1.078988e+02	-2.035064e-03
1.085220e+02	-2.058635e-03
1.091488e+02	-2.082479e-03
1.097793e+02	-2.106600e-03
1.104133e+02	-2.130999e-03
1.110511e+02	-2.155681e-03
1.116925e+02	-2.180649e-03
1.123376e+02	-2.205906e-03
1.129865e+02	-2.231455e-03
1.136391e+02	-2.257301e-03
1.142955e+02	-2.283445e-03
1.149556e+02	-2.309893e-03
1.156196e+02	-2.336646e-03
1.162874e+02	-2.363709e-03
1.169591e+02	-2.391086e-03
1.176347e+02	-2.418780e-03
1.183141e+02	-2.446794e-03
1.189975e+02	-2.475133e-03
1.196848e+02	-2.503799e-03
1.203761e+02	-2.532798e-03
1.210714e+02	-2.562133e-03
1.217707e+02	-2.591807e-03
1.224740e+02	-2.621824e-03
1.231814e+02	-2.652190e-03
1.238929e+02	-2.682906e-03
1.246085e+02	-2.713979e-03
1.253283e+02	-2.745411e-03
1.260522e+02	-2.777207e-03
1.267802e+02	-2.809371e-03
1.275125e+02	-2.841908e-03
1.282490e+02	-2.874821e-03
1.289898e+02	-2.908116e-03
1.297348e+02	-2.941796e-03
1.304842e+02	-2.975865e-03
1.312378e+02	-3.010330e-03
1.319959e+02	-3.045193e-03
1.327583e+02	-3.080460e-03
1.335251e+02	-3.116135e-03
1.342963e+02	-3.152223e-03
1.350720e+02	-3.188729e-03
1.358522e+02	-3.225657e-03
1.366368e+02	-3.263013e-03
1.374260e+02	-3.300802e-03
1.382198e+02	-3.339028e-03
1.390182e+02	-3.377696e-03
1.398211e+02	-3.416812e-03
1.406287e+02	-3.456381e-03
1.414410e+02	-3.496408e-03
1.422579e+02	-3.536898e-03
1.430796e+02	-3.577857e-03
1.439060e+02	-3.619290e-03
1.447372e+02	-3.661203e-03
1.455732e+02	-3.703601e-03
1.464141e+02	-3.746490e-03
1.472597e+02	-3.789875e-03
1.481103e+02	-3.833762e-03
1.489658e+02	-3.878157e-03
1.498262e+02	-3.923066e-03
1.506916e+02	-3.968495e-03
1.515620e+02	-4.014450e-03
1.524374e+02	-4.060937e-03
1.533179e+02	-4.107961e-03
1.542034e+02	-4.155530e-03
1.550941e+02	-4.203650e-03
1.559899e+02	-4.252326e-03
1.568909e+02	-4.301566e-03
1.577971e+02	-4.351376e-03
1.587085e+02	-4.401762e-03
1.596252e+02	-4.452732e-03
1.605472e+02	-4.504291e-03
1.614745e+02	-4.556447e-03
1.624072e+02	-4.609206e-03
1.633453e+02	-4.662576e-03
1.642887e+02	-4.716564e-03
1.652377e+02	-4.771177e-03
1.661921e+02	-4.826421e-03
1.671520e+02	-4.882305e-03
1.681175e+02	-4.938836e-03
1.690885e+02	-4.996020e-03
1.700651e+02	-5.053867e-03
1.710474e+02	-5.112383e-03
1.720354e+02	-5.171575e-03
1.730291e+02	-5.231453e-03
1.740285e+02	-5.292024e-03
1.750337e+02	-5.353296e-03
1.760446e+02	-5.415276e-03
1.770615e+02	-5.477974e-03
1.780842e+02	-5.541397e-03
1.791128e+02	-5.605554e-03
1.801473e+02	-5.670453e-03
1.811878e+02	-5.736103e-03
1.822344e+02	-5.802513e-03
1.832870e+02	-5.869691e-03
1.843456e+02	-5.937646e-03
1.854104e+02	-6.006388e-03
1.864813e+02	-6.075925e-03
1.875584e+02	-6.146266e-03
1.886418e+02	-6.217421e-03
1.897313e+02	-6.289399e-03
1.908272e+02	-6.362210e-03
1.919294e+02	-6.435863e-03
1.930380e+02	-6.510368e-03
1.941530e+02	-6.585735e-03
1.952744e+02	-6.661973e-03
1.964023e+02	-6.739094e-03
1.975367e+02	-6.817107e-03
1.986777e+02	-6.896022e-03
1.998252e+02	-6.975849e-03
2.009794e+02	-7.056601e-03
2.021403e+02	-7.138286e-03
2.033078e+02	-7.220916e-03
2.044821e+02	-7.304501e-03
2.056632e+02	-7.389053e-03
2.068511e+02	-7.474584e-03
2.080459e+02	-7.561103e-03
2.092475e+02	-7.648623e-03
2.104561e+02	-7.737155e-03
2.116717e+02	-7.826711e-03
2.128943e+02	-7.917302e-03
2.141240e+02	-8.008942e-03
2.153608e+02	-8.101640e-03
2.166047e+02	-8.195411e-03
2.178558e+02	-8.290266e-03
2.191141e+02	-8.386218e-03
2.203797e+02	-8.483279e-03
2.216526e+02	-8.581463e-03
2.229329e+02	-8.680781e-03
2.242205e+02	-8.781248e-03
2.255156e+02	-8.882877e-03
2.268182e+02	-8.985681e-03
2.281283e+02	-9.089673e-03
2.294459e+02	-9.194867e-03
2.307712e+02	-9.301277e-03
2.321041e+02	-9.408918e-03
2.334447e+02	-9.517803e-03
2.347931e+02	-9.627946e-03
2.361493e+02	-9.739363e-03
2.375133e+02	-9.852068e-03
2.388851e+02	-9.966075e-03
2.402649e+02	-1.008140e-02
2.416527e+02	-1.019806e-02
2.430484e+02	-1.031606e-02
2.444523e+02	-1.043543e-02
2.458642e+02	-1.055618e-02
2.472843e+02	-1.067833e-02
2.487126e+02	-1.080189e-02
2.501492e+02	-1.092687e-02
2.515940e+02	-1.105330e-02
2.530472e+02	-1.118119e-02
2.545088e+02	-1.131056e-02
2.559789e+02	-1.144142e-02
2.574574e+02	-1.157379e-02
2.589444e+02	-1.170770e-02
2.604401e+02	-1.184315e-02
2.619444e+02	-1.198016e-02
2.634574e+02	-1.211876e-02
2.649791e+02	-1.225896e-02
2.665096e+02	-1.240078e-02
2.680489e+02	-1.254424e-02
2.695972e+02	-1.268936e-02
2.711544e+02	-1.283615e-02
2.727205e+02	-1.298463e-02
2.742958e+02	-1.313484e-02
2.758801e+02	-1.328677e-02
2.774736e+02	-1.344046e-02
2.790762e+02	-1.359593e-02
2.806882e+02	-1.375319e-02
2.823094e+02	-1.391227e-02
2.839400e+02	-1.407319e-02
2.855800e+02	-1.423596e-02
2.872295e+02	-1.440061e-02
2.888886e+02	-1.456717e-02
2.905572e+02	-1.473564e-02
2.922354e+02	-1.490607e-02
2.939234e+02	-1.507846e-02
2.956211e+02	-1.525283e-02
2.973286e+02	-1.542923e-02
2.990459e+02	-1.560766e-02
3.007732e+02	-1.578815e-02
3.025104e+02	-1.597072e-02
3.042577e+02	-1.615540e-02
3.060151e+02	-1.634221e-02
3.077826e+02	-1.653118e-02
3.095604e+02	-1.672232e-02
3.113484e+02	-1.691568e-02
3.131467e+02	-1.711126e-02
3.149554e+02	-1.730910e-02
3.167746e+02	-1.750923e-02
3.186043e+02	-1.771166e-02
3.204445e+02	-1.791643e-02
3.222954e+02	-1.812356e-02
3.241570e+02	-1.833308e-02
3.260293e+02	-1.854502e-02
3.279124e+02	-1.875940e-02
3.298064e+02	-1.897626e-02
3.317114e+02	-1.919562e-02
3.336273e+02	-1.941750e-02
3.355544e+02	-1.964195e-02
3.374925e+02	-1.986899e-02
3.394418e+02	-2.009864e-02
3.414024e+02	-2.033094e-02
3.433744e+02	-2.056592e-02
3.453577e+02	-2.080361e-02
3.473525e+02	-2.104404e-02
3.493588e+02	-2.128724e-02
3.513766e+02	-2.153324e-02
3.534062e+02	-2.178208e-02
3.554474e+02	-2.203379e-02
3.575005e+02	-2.228840e-02
3.595654e+02	-2.254594e-02
3.616422e+02	-2.280646e-02
3.637311e+02	-2.306997e-02
3.658320e+02	-2.333652e-02
3.679450e+02	-2.360614e-02
3.700702e+02	-2.387887e-02
3.722077e+02	-2.415474e-02
3.743576e+02	-2.443379e-02
3.765199e+02	-2.471605e-02
3.786946e+02	-2.500157e-02
3.808820e+02	-2.529037e-02
3.830819e+02	-2.558250e-02
3.852946e+02	-2.587799e-02
3.875200e+02	-2.617689e-02
3.897583e+02	-2.647923e-02
3.920096e+02	-2.678505e-02
3.942738e+02	-2.709439e-02
3.965511e+02	-2.740729e-02
3.988416e+02	-2.772379e-02
4.011452e+02	-2.804394e-02
4.034622e+02	-2.836777e-02
4.057926e+02	-2.869533e-02
4.081365e+02	-2.902666e-02
4.104938e+02	-2.936180e-02
4.128648e+02	-2.970080e-02
4.152495e+02	-3.004369e-02
4.176480e+02	-3.039054e-02
4.200603e+02	-3.074137e-02
4.224866e+02	-3.109623e-02
4.249268e+02	-3.145518e-02
4.273812e+02	-3.181826e-02
4.298497e+02	-3.218551e-02
4.323325e+02	-3.255699e-02
4.348297e+02	-3.293274e-02
4.373412e+02	-3.331280e-02
4.398673e+02	-3.369724e-02
4.424079e+02	-3.408609e-02
4.449633e+02	-3.447941e-02
4.475334e+02	-3.487726e-02
4.501183e+02	-3.527967e-02
4.527182e+02	-3.568671e-02
4.553330e+02	-3.609843e-02
4.579630e+02	-3.651488e-02
4.606082e+02	-3.693611e-02
4.632687e+02	-3.736218e-02
4.659445e+02	-3.779314e-02
4.686358e+02	-3.822905e-02
4.713426e+02	-3.866996e-02
4.740650e+02	-3.911594e-02
4.768032e+02	-3.956704e-02
4.795572e+02	-4.002332e-02
4.823271e+02	-4.048483e-02
4.851130e+02	-4.095164e-02
4.879150e+02	-4.142381e-02
4.907332e+02	-4.190139e-02
4.935676e+02	-4.238445e-02
4.964185e+02	-4.287306e-02
4.992858e+02	-4.336727e-02
5.021696e+02	-4.386714e-02
5.050701e+02	-4.437275e-02
5.079874e+02	-4.488416e-02
5.109215e+02	-4.540143e-02
5.138726e+02	-4.592463e-02
5.168407e+02	-4.645383e-02
5.198259e+02	-4.698909e-02
5.228284e+02	-4.753048e-02
5.258482e+02	-4.807808e-02
5.288855e+02	-4.863195e-02
5.319403e+02	-4.919217e-02
5.350128e+02	-4.975880e-02
5.381030e+02	-5.033192e-02
5.412111e+02	-5.091161e-02
5.443371e+02	-5.149793e-02
5.474812e+02	-5.209096e-02
5.506434e+02	-5.269078e-02
5.538239e+02	-5.329746e-02
5.570228e+02	-5.391109e-02
5.602401e+02	-5.453173e-02
5.634760e+02	-5.515948e-02
5.667306e+02	-5.579440e-02
5.700040e+02	-5.643659e-02
5.732964e+02	-5.708612e-02
5.766077e+02	-5.774307e-02
5.799382e+02	-5.840753e-02
5.832879e+02	-5.907959e-02
5.866569e+02	-5.975933e-02
5.900454e+02	-6.044683e-02
5.934535e+02	-6.114219e-02
5.968813e+02	-6.184548e-02
6.003288e+02	-6.255681e-02
6.037963e+02	-6.327626e-02
6.072838e+02	-6.400393e-02
6.107914e+02	-6.473990e-02
6.143194e+02	-6.548427e-02
6.178676e+02	-6.623713e-02
6.214364e+02	-6.699858e-02
6.250258e+02	-6.776871e-02
6.286359e+02	-6.854763e-02
6.322669e+02	-6.933543e-02
6.359189e+02	-7.013221e-02
6.395919e+02	-7.093806e-02
6.432862e+02	-7.175311e-02
6.470017e+02	-7.257744e-02
6.507388e+02	-7.341116e-02
6.544974e+02	-7.425437e-02
6.582778e+02	-7.510718e-02
6.620800e+02	-7.596971e-02
6.659041e+02	-7.684205e-02
6.697504e+02	-7.772432e-02
6.736188e+02	-7.861662e-02
6.775096e+02	-7.951908e-02
6.814229e+02	-8.043180e-02
6.853587e+02	-8.135489e-02
6.893173e+02	-8.228848e-02
6.932988e+02	-8.323268e-02
6.973033e+02	-8.418761e-02
7.013309e+02	-8.515339e-02
