Frequency(Hz)	Magnitude(dB)
1.000000e+01	-1.390774e-05
1.005776e+01	-1.406886e-05
1.011585e+01	-1.423185e-05
1.017428e+01	-1.439673e-05
1.023305e+01	-1.456352e-05
1.029215e+01	-1.473224e-05
1.035160e+01	-1.490292e-05
1.041139e+01	-1.507557e-05
1.047153e+01	-1.525023e-05
1.053201e+01	-1.542691e-05
1.059284e+01	-1.560563e-05
1.065403e+01	-1.578643e-05
1.071556e+01	-1.596932e-05
1.077746e+01	-1.615433e-05
1.083971e+01	-1.634148e-05
1.090232e+01	-1.653080e-05
1.096529e+01	-1.672231e-05
1.102862e+01	-1.691604e-05
1.109232e+01	-1.711202e-05
1.115639e+01	-1.731027e-05
1.122083e+01	-1.751081e-05
1.128564e+01	-1.771368e-05
1.135083e+01	-1.791890e-05
1.141639e+01	-1.812649e-05
1.148233e+01	-1.833649e-05
1.154865e+01	-1.854892e-05
1.161536e+01	-1.876382e-05
1.168245e+01	-1.898120e-05
1.174992e+01	-1.920110e-05
1.181779e+01	-1.942355e-05
1.188605e+01	-1.964858e-05
1.195470e+01	-1.987621e-05
1.202375e+01	-2.010648e-05
1.209320e+01	-2.033942e-05
1.216305e+01	-2.057506e-05
1.223330e+01	-2.081343e-05
1.230396e+01	-2.105456e-05
1.237503e+01	-2.129848e-05
1.244651e+01	-2.154523e-05
1.251840e+01	-2.179483e-05
1.259070e+01	-2.204733e-05
1.266343e+01	-2.230276e-05
1.273657e+01	-2.256114e-05
1.281014e+01	-2.282252e-05
1.288413e+01	-2.308692e-05
1.295855e+01	-2.335439e-05
1.303339e+01	-2.362495e-05
1.310867e+01	-2.389866e-05
1.318439e+01	-2.417553e-05
1.326054e+01	-2.445561e-05
1.333713e+01	-2.473893e-05
1.341417e+01	-2.502554e-05
1.349165e+01	-2.531546e-05
1.356958e+01	-2.560875e-05
1.364795e+01	-2.590543e-05
1.372678e+01	-2.620556e-05
1.380607e+01	-2.650915e-05
1.388581e+01	-2.681627e-05
1.396602e+01	-2.712694e-05
1.404668e+01	-2.744121e-05
1.412782e+01	-2.775913e-05
1.420942e+01	-2.808072e-05
1.429149e+01	-2.840604e-05
1.437404e+01	-2.873514e-05
1.445706e+01	-2.906804e-05
1.454057e+01	-2.940480e-05
1.462455e+01	-2.974546e-05
1.470902e+01	-3.009007e-05
1.479398e+01	-3.043867e-05
1.487943e+01	-3.079131e-05
1.496537e+01	-3.114803e-05
1.505181e+01	-3.150889e-05
1.513875e+01	-3.187393e-05
1.522619e+01	-3.224320e-05
1.531414e+01	-3.261674e-05
1.540259e+01	-3.299461e-05
1.549156e+01	-3.337686e-05
1.558103e+01	-3.376354e-05
1.567103e+01	-3.415470e-05
1.576155e+01	-3.455039e-05
1.585258e+01	-3.495067e-05
1.594415e+01	-3.535558e-05
1.603624e+01	-3.576518e-05
1.612886e+01	-3.617953e-05
1.622202e+01	-3.659868e-05
1.631572e+01	-3.702268e-05
1.640996e+01	-3.745160e-05
1.650474e+01	-3.788548e-05
1.660008e+01	-3.832439e-05
1.669596e+01	-3.876839e-05
1.679239e+01	-3.921753e-05
1.688938e+01	-3.967188e-05
1.698694e+01	-4.013148e-05
1.708505e+01	-4.059642e-05
1.718373e+01	-4.106673e-05
1.728299e+01	-4.154250e-05
1.738281e+01	-4.202378e-05
1.748322e+01	-4.251064e-05
1.758420e+01	-4.300313e-05
1.768576e+01	-4.350133e-05
1.778792e+01	-4.400530e-05
1.789066e+01	-4.451512e-05
1.799399e+01	-4.503083e-05
1.809793e+01	-4.555252e-05
1.820246e+01	-4.608026e-05
1.830760e+01	-4.661411e-05
1.841334e+01	-4.715414e-05
1.851969e+01	-4.770044e-05
1.862666e+01	-4.825306e-05
1.873425e+01	-4.881208e-05
1.884246e+01	-4.937758e-05
1.895129e+01	-4.994963e-05
1.906075e+01	-5.052830e-05
1.917085e+01	-5.111368e-05
1.928158e+01	-5.170585e-05
1.939295e+01	-5.230487e-05
1.950496e+01	-5.291083e-05
1.961762e+01	-5.352382e-05
1.973093e+01	-5.414390e-05
1.984490e+01	-5.477117e-05
1.995952e+01	-5.540570e-05
2.007480e+01	-5.604759e-05
2.019076e+01	-5.669691e-05
2.030738e+01	-5.735376e-05
2.042467e+01	-5.801821e-05
2.054264e+01	-5.869037e-05
2.066130e+01	-5.937031e-05
2.078064e+01	-6.005812e-05
2.090066e+01	-6.075391e-05
2.102139e+01	-6.145775e-05
2.114280e+01	-6.216975e-05
2.126492e+01	-6.289000e-05
2.138775e+01	-6.361860e-05
2.151128e+01	-6.435563e-05
2.163553e+01	-6.510120e-05
2.176050e+01	-6.585541e-05
2.188619e+01	-6.661836e-05
2.201260e+01	-6.739015e-05
2.213974e+01	-6.817087e-05
2.226762e+01	-6.896065e-05
2.239624e+01	-6.975957e-05
2.252560e+01	-7.056774e-05
2.265571e+01	-7.138529e-05
2.278656e+01	-7.221230e-05
2.291818e+01	-7.304889e-05
2.305055e+01	-7.389517e-05
2.318369e+01	-7.475126e-05
2.331760e+01	-7.561727e-05
2.345228e+01	-7.649331e-05
2.358774e+01	-7.737950e-05
2.372398e+01	-7.827595e-05
2.386101e+01	-7.918279e-05
2.399883e+01	-8.010014e-05
2.413745e+01	-8.102811e-05
2.427686e+01	-8.196684e-05
2.441709e+01	-8.291644e-05
2.455812e+01	-8.387704e-05
2.469997e+01	-8.484877e-05
2.484263e+01	-8.583175e-05
2.498612e+01	-8.682613e-05
2.513044e+01	-8.783202e-05
2.527559e+01	-8.884957e-05
2.542158e+01	-8.987891e-05
2.556842e+01	-9.092017e-05
2.571610e+01	-9.197349e-05
2.586463e+01	-9.303902e-05
2.601403e+01	-9.411689e-05
2.616428e+01	-9.520725e-05
2.631541e+01	-9.631024e-05
2.646740e+01	-9.742601e-05
2.662028e+01	-9.855471e-05
2.677404e+01	-9.969648e-05
2.692868e+01	-1.008515e-04
2.708422e+01	-1.020199e-04
2.724066e+01	-1.032018e-04
2.739800e+01	-1.043974e-04
2.755625e+01	-1.056068e-04
2.771541e+01	-1.068303e-04
2.787550e+01	-1.080679e-04
2.803650e+01	-1.093199e-04
2.819844e+01	-1.105864e-04
2.836131e+01	-1.118676e-04
2.852513e+01	-1.131636e-04
2.868989e+01	-1.144746e-04
2.885560e+01	-1.158008e-04
2.902227e+01	-1.171424e-04
2.918990e+01	-1.184995e-04
2.935850e+01	-1.198723e-04
2.952807e+01	-1.212610e-04
2.969863e+01	-1.226659e-04
2.987016e+01	-1.240869e-04
3.004269e+01	-1.255245e-04
3.021622e+01	-1.269787e-04
3.039075e+01	-1.284498e-04
3.056628e+01	-1.299379e-04
3.074283e+01	-1.314432e-04
3.092040e+01	-1.329660e-04
3.109900e+01	-1.345064e-04
3.127862e+01	-1.360647e-04
3.145929e+01	-1.376410e-04
3.164099e+01	-1.392356e-04
3.182375e+01	-1.408487e-04
3.200756e+01	-1.424804e-04
3.219244e+01	-1.441311e-04
3.237838e+01	-1.458008e-04
3.256540e+01	-1.474900e-04
3.275349e+01	-1.491986e-04
3.294268e+01	-1.509271e-04
3.313295e+01	-1.526756e-04
3.332433e+01	-1.544444e-04
3.351681e+01	-1.562336e-04
3.371040e+01	-1.580436e-04
3.390511e+01	-1.598745e-04
3.410094e+01	-1.617267e-04
3.429791e+01	-1.636003e-04
3.449601e+01	-1.654956e-04
3.469526e+01	-1.674129e-04
3.489566e+01	-1.693524e-04
3.509721e+01	-1.713144e-04
3.529993e+01	-1.732990e-04
3.550382e+01	-1.753067e-04
3.570889e+01	-1.773377e-04
3.591515e+01	-1.793921e-04
3.612259e+01	-1.814704e-04
3.633123e+01	-1.835727e-04
3.654108e+01	-1.856994e-04
3.675214e+01	-1.878508e-04
3.696442e+01	-1.900270e-04
3.717792e+01	-1.922285e-04
3.739266e+01	-1.944554e-04
3.760864e+01	-1.967082e-04
3.782587e+01	-1.989871e-04
3.804435e+01	-2.012924e-04
3.826409e+01	-2.036243e-04
3.848510e+01	-2.059833e-04
3.870739e+01	-2.083696e-04
3.893096e+01	-2.107836e-04
3.915583e+01	-2.132255e-04
3.938199e+01	-2.156957e-04
3.960946e+01	-2.181946e-04
3.983824e+01	-2.207223e-04
4.006834e+01	-2.232794e-04
4.029978e+01	-2.258661e-04
4.053255e+01	-2.284827e-04
4.076666e+01	-2.311297e-04
4.100213e+01	-2.338073e-04
4.123896e+01	-2.365160e-04
4.147715e+01	-2.392560e-04
4.171672e+01	-2.420278e-04
4.195767e+01	-2.448317e-04
4.220002e+01	-2.476680e-04
4.244377e+01	-2.505373e-04
4.268892e+01	-2.534397e-04
4.293549e+01	-2.563758e-04
4.318348e+01	-2.593459e-04
4.343291e+01	-2.623504e-04
4.368377e+01	-2.653897e-04
4.393609e+01	-2.684642e-04
4.418986e+01	-2.715744e-04
4.444510e+01	-2.747205e-04
4.470182e+01	-2.779031e-04
4.496001e+01	-2.811226e-04
4.521970e+01	-2.843794e-04
4.548089e+01	-2.876739e-04
4.574358e+01	-2.910066e-04
4.600779e+01	-2.943778e-04
4.627353e+01	-2.977882e-04
4.654081e+01	-3.012380e-04
4.680963e+01	-3.047278e-04
4.708000e+01	-3.082581e-04
4.735193e+01	-3.118292e-04
4.762543e+01	-3.154417e-04
4.790051e+01	-3.190960e-04
4.817719e+01	-3.227927e-04
4.845545e+01	-3.265322e-04
4.873533e+01	-3.303150e-04
4.901682e+01	-3.341417e-04
4.929994e+01	-3.380126e-04
4.958470e+01	-3.419285e-04
4.987110e+01	-3.458896e-04
5.015915e+01	-3.498967e-04
5.044887e+01	-3.539502e-04
5.074026e+01	-3.580506e-04
5.103333e+01	-3.621986e-04
5.132810e+01	-3.663946e-04
5.162457e+01	-3.706392e-04
5.192275e+01	-3.749329e-04
5.222265e+01	-3.792765e-04
5.252429e+01	-3.836703e-04
5.282767e+01	-3.881150e-04
5.313280e+01	-3.926112e-04
5.343969e+01	-3.971595e-04
5.374836e+01	-4.017605e-04
5.405880e+01	-4.064148e-04
5.437105e+01	-4.111230e-04
5.468509e+01	-4.158858e-04
5.500095e+01	-4.207037e-04
5.531863e+01	-4.255774e-04
5.563815e+01	-4.305076e-04
5.595951e+01	-4.354949e-04
5.628273e+01	-4.405400e-04
5.660782e+01	-4.456435e-04
5.693479e+01	-4.508061e-04
5.726364e+01	-4.560286e-04
5.759439e+01	-4.613115e-04
5.792705e+01	-4.666556e-04
5.826164e+01	-4.720617e-04
5.859815e+01	-4.775303e-04
5.893662e+01	-4.830623e-04
5.927703e+01	-4.886584e-04
5.961941e+01	-4.943194e-04
5.996377e+01	-5.000459e-04
6.031012e+01	-5.058387e-04
6.065847e+01	-5.116986e-04
6.100883e+01	-5.176264e-04
6.136121e+01	-5.236229e-04
6.171563e+01	-5.296889e-04
6.207210e+01	-5.358251e-04
6.243063e+01	-5.420324e-04
6.279122e+01	-5.483116e-04
6.315390e+01	-5.546635e-04
6.351868e+01	-5.610890e-04
6.388556e+01	-5.675890e-04
6.425456e+01	-5.741642e-04
6.462569e+01	-5.808156e-04
6.499897e+01	-5.875441e-04
6.537440e+01	-5.943505e-04
6.575200e+01	-6.012357e-04
6.613178e+01	-6.082007e-04
6.651375e+01	-6.152464e-04
6.689793e+01	-6.223736e-04
6.728433e+01	-6.295835e-04
6.767297e+01	-6.368769e-04
6.806384e+01	-6.442547e-04
6.845698e+01	-6.517180e-04
6.885238e+01	-6.592678e-04
6.925007e+01	-6.669050e-04
6.965005e+01	-6.746307e-04
7.005235e+01	-6.824458e-04
7.045697e+01	-6.903515e-04
7.086393e+01	-6.983488e-04
7.127323e+01	-7.064387e-04
7.168490e+01	-7.146223e-04
7.209895e+01	-7.229007e-04
7.251539e+01	-7.312750e-04
7.293424e+01	-7.397463e-04
7.335551e+01	-7.483157e-04
7.377920e+01	-7.569844e-04
7.420535e+01	-7.657535e-04
7.463396e+01	-7.746242e-04
7.506504e+01	-7.835976e-04
7.549861e+01	-7.926750e-04
7.593469e+01	-8.018575e-04
7.637328e+01	-8.111463e-04
7.681441e+01	-8.205428e-04
7.725809e+01	-8.300481e-04
7.770433e+01	-8.396635e-04
7.815315e+01	-8.493903e-04
7.860456e+01	-8.592297e-04
7.905857e+01	-8.691832e-04
7.951521e+01	-8.792519e-04
7.997449e+01	-8.894372e-04
8.043642e+01	-8.997405e-04
8.090102e+01	-9.101631e-04
8.136830e+01	-9.207065e-04
8.183828e+01	-9.313720e-04
8.231097e+01	-9.421610e-04
8.278640e+01	-9.530750e-04
8.326457e+01	-9.641154e-04
8.374550e+01	-9.752837e-04
8.422921e+01	-9.865814e-04
8.471572e+01	-9.980099e-04
8.520503e+01	-1.009571e-03
8.569717e+01	-1.021266e-03
8.619215e+01	-1.033096e-03
8.669000e+01	-1.045063e-03
8.719071e+01	-1.057169e-03
8.769432e+01	-1.069415e-03
8.820084e+01	-1.081803e-03
8.871029e+01	-1.094334e-03
8.922267e+01	-1.107011e-03
8.973802e+01	-1.119834e-03
9.025634e+01	-1.132806e-03
9.077766e+01	-1.145928e-03
9.130199e+01	-1.159202e-03
9.182935e+01	-1.172630e-03
9.235975e+01	-1.186214e-03
9.289321e+01	-1.199954e-03
9.342976e+01	-1.213854e-03
9.396941e+01	-1.227915e-03
9.451217e+01	-1.242139e-03
9.505807e+01	-1.256527e-03
9.560712e+01	-1.271082e-03
9.615934e+01	-1.285806e-03
9.671476e+01	-1.300700e-03
9.727338e+01	-1.315767e-03
9.783522e+01	-1.331008e-03
9.840032e+01	-1.346425e-03
9.896867e+01	-1.362022e-03
9.954031e+01	-1.377799e-03
1.001153e+02	-1.393758e-03
1.006935e+02	-1.409903e-03
1.012751e+02	-1.426234e-03
1.018601e+02	-1.442755e-03
1.024484e+02	-1.459467e-03
1.030402e+02	-1.476372e-03
1.036353e+02	-1.493473e-03
1.042339e+02	-1.510772e-03
1.048360e+02	-1.528272e-03
1.054415e+02	-1.545974e-03
1.060505e+02	-1.563882e-03
1.066631e+02	-1.581996e-03
1.072791e+02	-1.600321e-03
1.078988e+02	-1.618858e-03
1.085220e+02	-1.637609e-03
1.091488e+02	-1.656577e-03
1.097793e+02	-1.675766e-03
1.104133e+02	-1.695176e-03
1.110511e+02	-1.714811e-03
1.116925e+02	-1.734674e-03
1.123376e+02	-1.754766e-03
1.129865e+02	-1.775092e-03
1.136391e+02	-1.795652e-03
1.142955e+02	-1.816451e-03
1.149556e+02	-1.837491e-03
1.156196e+02	-1.858774e-03
1.162874e+02	-1.880304e-03
1.169591e+02	-1.902083e-03
1.176347e+02	-1.924114e-03
1.183141e+02	-1.946400e-03
1.189975e+02	-1.968945e-03
1.196848e+02	-1.991750e-03
1.203761e+02	-2.014820e-03
1.210714e+02	-2.038157e-03
1.217707e+02	-2.061764e-03
1.224740e+02	-2.085644e-03
1.231814e+02	-2.109801e-03
1.238929e+02	-2.134237e-03
1.246085e+02	-2.158957e-03
1.253283e+02	-2.183963e-03
1.260522e+02	-2.209258e-03
1.267802e+02	-2.234846e-03
1.275125e+02	-2.260731e-03
1.282490e+02	-2.286915e-03
1.289898e+02	-2.313402e-03
1.297348e+02	-2.340197e-03
1.304842e+02	-2.367301e-03
1.312378e+02	-2.394719e-03
1.319959e+02	-2.422455e-03
1.327583e+02	-2.450512e-03
1.335251e+02	-2.478894e-03
1.342963e+02	-2.507604e-03
1.350720e+02	-2.536647e-03
1.358522e+02	-2.566026e-03
1.366368e+02	-2.595745e-03
1.374260e+02	-2.625808e-03
1.382198e+02	-2.656219e-03
1.390182e+02	-2.686983e-03
1.398211e+02	-2.718103e-03
1.406287e+02	-2.749582e-03
1.414410e+02	-2.781427e-03
1.422579e+02	-2.813640e-03
1.430796e+02	-2.846226e-03
1.439060e+02	-2.879189e-03
1.447372e+02	-2.912534e-03
1.455732e+02	-2.946265e-03
1.464141e+02	-2.980387e-03
1.472597e+02	-3.014903e-03
1.481103e+02	-3.049820e-03
1.489658e+02	-3.085140e-03
1.498262e+02	-3.120869e-03
1.506916e+02	-3.157012e-03
1.515620e+02	-3.193573e-03
1.524374e+02	-3.230558e-03
1.533179e+02	-3.267971e-03
1.542034e+02	-3.305817e-03
1.550941e+02	-3.344101e-03
1.559899e+02	-3.382828e-03
1.568909e+02	-3.422003e-03
1.577971e+02	-3.461632e-03
1.587085e+02	-3.501720e-03
1.596252e+02	-3.542272e-03
1.605472e+02	-3.583293e-03
1.614745e+02	-3.624789e-03
1.624072e+02	-3.666765e-03
1.633453e+02	-3.709227e-03
1.642887e+02	-3.752181e-03
1.652377e+02	-3.795632e-03
1.661921e+02	-3.839586e-03
1.671520e+02	-3.884049e-03
1.681175e+02	-3.929026e-03
1.690885e+02	-3.974524e-03
1.700651e+02	-4.020548e-03
1.710474e+02	-4.067106e-03
1.720354e+02	-4.114202e-03
1.730291e+02	-4.161843e-03
1.740285e+02	-4.210036e-03
1.750337e+02	-4.258786e-03
1.760446e+02	-4.308100e-03
1.770615e+02	-4.357986e-03
1.780842e+02	-4.408449e-03
1.791128e+02	-4.459495e-03
1.801473e+02	-4.511133e-03
1.811878e+02	-4.563368e-03
1.822344e+02	-4.616207e-03
1.832870e+02	-4.669659e-03
1.843456e+02	-4.723728e-03
1.854104e+02	-4.778424e-03
1.864813e+02	-4.833752e-03
1.875584e+02	-4.889721e-03
1.886418e+02	-4.946337e-03
1.897313e+02	-5.003608e-03
1.908272e+02	-5.061543e-03
1.919294e+02	-5.120147e-03
1.930380e+02	-5.179430e-03
1.941530e+02	-5.239399e-03
1.952744e+02	-5.300061e-03
1.964023e+02	-5.361426e-03
1.975367e+02	-5.423500e-03
1.986777e+02	-5.486293e-03
1.998252e+02	-5.549813e-03
2.009794e+02	-5.614067e-03
2.021403e+02	-5.679065e-03
2.033078e+02	-5.744814e-03
2.044821e+02	-5.811325e-03
2.056632e+02	-5.878605e-03
2.068511e+02	-5.946663e-03
2.080459e+02	-6.015509e-03
2.092475e+02	-6.085151e-03
2.104561e+02	-6.155599e-03
2.116717e+02	-6.226862e-03
2.128943e+02	-6.298949e-03
2.141240e+02	-6.371871e-03
2.153608e+02	-6.445635e-03
2.166047e+02	-6.520253e-03
2.178558e+02	-6.595735e-03
2.191141e+02	-6.672089e-03
2.203797e+02	-6.749327e-03
2.216526e+02	-6.827458e-03
2.229329e+02	-6.906492e-03
2.242205e+02	-6.986441e-03
2.255156e+02	-7.067315e-03
2.268182e+02	-7.149124e-03
2.281283e+02	-7.231879e-03
2.294459e+02	-7.315591e-03
2.307712e+02	-7.400272e-03
2.321041e+02	-7.485932e-03
2.334447e+02	-7.572582e-03
2.347931e+02	-7.660235e-03
2.361493e+02	-7.748901e-03
2.375133e+02	-7.838593e-03
2.388851e+02	-7.929322e-03
2.402649e+02	-8.021100e-03
2.416527e+02	-8.113939e-03
2.430484e+02	-8.207852e-03
2.444523e+02	-8.302851e-03
2.458642e+02	-8.398948e-03
2.472843e+02	-8.496156e-03
2.487126e+02	-8.594489e-03
2.501492e+02	-8.693958e-03
2.515940e+02	-8.794577e-03
2.530472e+02	-8.896360e-03
2.545088e+02	-8.999319e-03
2.559789e+02	-9.103469e-03
2.574574e+02	-9.208823e-03
2.589444e+02	-9.315394e-03
2.604401e+02	-9.423198e-03
2.619444e+02	-9.532248e-03
2.634574e+02	-9.642558e-03
2.649791e+02	-9.754144e-03
2.665096e+02	-9.867019e-03
2.680489e+02	-9.981199e-03
2.695972e+02	-1.009670e-02
2.711544e+02	-1.021353e-02
2.727205e+02	-1.033172e-02
2.742958e+02	-1.045127e-02
2.758801e+02	-1.057220e-02
2.774736e+02	-1.069453e-02
2.790762e+02	-1.081828e-02
2.806882e+02	-1.094345e-02
2.823094e+02	-1.107007e-02
2.839400e+02	-1.119815e-02
2.855800e+02	-1.132772e-02
2.872295e+02	-1.145878e-02
2.888886e+02	-1.159135e-02
2.905572e+02	-1.172546e-02
2.922354e+02	-1.186112e-02
2.939234e+02	-1.199834e-02
2.956211e+02	-1.213715e-02
2.973286e+02	-1.227756e-02
2.990459e+02	-1.241959e-02
3.007732e+02	-1.256327e-02
3.025104e+02	-1.270860e-02
3.042577e+02	-1.285562e-02
3.060151e+02	-1.300433e-02
3.077826e+02	-1.315476e-02
3.095604e+02	-1.330693e-02
3.113484e+02	-1.346085e-02
3.131467e+02	-1.361655e-02
3.149554e+02	-1.377405e-02
3.167746e+02	-1.393337e-02
3.186043e+02	-1.409453e-02
3.204445e+02	-1.425755e-02
3.222954e+02	-1.442245e-02
3.241570e+02	-1.458926e-02
3.260293e+02	-1.475799e-02
3.279124e+02	-1.492867e-02
3.298064e+02	-1.510132e-02
3.317114e+02	-1.527596e-02
3.336273e+02	-1.545262e-02
3.355544e+02	-1.563132e-02
3.374925e+02	-1.581208e-02
3.394418e+02	-1.599493e-02
3.414024e+02	-1.617989e-02
3.433744e+02	-1.636698e-02
3.453577e+02	-1.655623e-02
3.473525e+02	-1.674767e-02
3.493588e+02	-1.694132e-02
3.513766e+02	-1.713720e-02
3.534062e+02	-1.733534e-02
3.554474e+02	-1.753577e-02
3.575005e+02	-1.773850e-02
3.595654e+02	-1.794358e-02
3.616422e+02	-1.815103e-02
3.637311e+02	-1.836087e-02
3.658320e+02	-1.857312e-02
3.679450e+02	-1.878783e-02
3.700702e+02	-1.900501e-02
3.722077e+02	-1.922470e-02
3.743576e+02	-1.944693e-02
3.765199e+02	-1.967171e-02
3.786946e+02	-1.989909e-02
3.808820e+02	-2.012909e-02
3.830819e+02	-2.036174e-02
3.852946e+02	-2.059707e-02
3.875200e+02	-2.083512e-02
3.897583e+02	-2.107591e-02
3.920096e+02	-2.131948e-02
3.942738e+02	-2.156586e-02
3.965511e+02	-2.181507e-02
3.988416e+02	-2.206716e-02
4.011452e+02	-2.232215e-02
4.034622e+02	-2.258009e-02
4.057926e+02	-2.284099e-02
4.081365e+02	-2.310490e-02
4.104938e+02	-2.337186e-02
4.128648e+02	-2.364188e-02
4.152495e+02	-2.391502e-02
4.176480e+02	-2.419131e-02
4.200603e+02	-2.447078e-02
4.224866e+02	-2.475347e-02
4.249268e+02	-2.503941e-02
4.273812e+02	-2.532865e-02
4.298497e+02	-2.562122e-02
4.323325e+02	-2.591716e-02
4.348297e+02	-2.621651e-02
4.373412e+02	-2.651930e-02
4.398673e+02	-2.682558e-02
4.424079e+02	-2.713539e-02
4.449633e+02	-2.744876e-02
4.475334e+02	-2.776574e-02
4.501183e+02	-2.808637e-02
4.527182e+02	-2.841069e-02
4.553330e+02	-2.873874e-02
4.579630e+02	-2.907057e-02
4.606082e+02	-2.940621e-02
4.632687e+02	-2.974572e-02
4.659445e+02	-3.008913e-02
4.686358e+02	-3.043650e-02
4.713426e+02	-3.078786e-02
4.740650e+02	-3.114326e-02
4.768032e+02	-3.150275e-02
4.795572e+02	-3.186637e-02
4.823271e+02	-3.223417e-02
4.851130e+02	-3.260621e-02
4.879150e+02	-3.298252e-02
4.907332e+02	-3.336316e-02
4.935676e+02	-3.374817e-02
4.964185e+02	-3.413761e-02
4.992858e+02	-3.453152e-02
5.021696e+02	-3.492997e-02
5.050701e+02	-3.533299e-02
5.079874e+02	-3.574064e-02
5.109215e+02	-3.615297e-02
5.138726e+02	-3.657004e-02
5.168407e+02	-3.699191e-02
5.198259e+02	-3.741861e-02
5.228284e+02	-3.785022e-02
5.258482e+02	-3.828679e-02
5.288855e+02	-3.872836e-02
5.319403e+02	-3.917501e-02
5.350128e+02	-3.962679e-02
5.381030e+02	-4.008375e-02
5.412111e+02	-4.054595e-02
5.443371e+02	-4.101346e-02
5.474812e+02	-4.148634e-02
5.506434e+02	-4.196464e-02
5.538239e+02	-4.244842e-02
5.570228e+02	-4.293776e-02
5.602401e+02	-4.343271e-02
5.634760e+02	-4.393334e-02
5.667306e+02	-4.443970e-02
5.700040e+02	-4.495188e-02
5.732964e+02	-4.546992e-02
5.766077e+02	-4.599390e-02
5.799382e+02	-4.652389e-02
5.832879e+02	-4.705995e-02
5.866569e+02	-4.760216e-02
5.900454e+02	-4.815058e-02
5.934535e+02	-4.870528e-02
5.968813e+02	-4.926633e-02
6.003288e+02	-4.983381e-02
6.037963e+02	-5.040779e-02
6.072838e+02	-5.098834e-02
6.107914e+02	-5.157553e-02
6.143194e+02	-5.216945e-02
6.178676e+02	-5.277017e-02
6.214364e+02	-5.337776e-02
6.250258e+02	-5.399230e-02
6.286359e+02	-5.461387e-02
6.322669e+02	-5.524255e-02
6.359189e+02	-5.587842e-02
6.395919e+02	-5.652157e-02
6.432862e+02	-5.717206e-02
6.470017e+02	-5.783000e-02
6.507388e+02	-5.849545e-02
6.544974e+02	-5.916851e-02
6.582778e+02	-5.984926e-02
6.620800e+02	-6.053779e-02
6.659041e+02	-6.123418e-02
6.697504e+02	-6.193852e-02
6.736188e+02	-6.265091e-02
6.775096e+02	-6.337143e-02
6.814229e+02	-6.410018e-02
6.853587e+02	-6.483724e-02
6.893173e+02	-6.558272e-02
6.932988e+02	-6.633670e-02
6.973033e+02	-6.709928e-02
7.013309e+02	-6.787056e-02
