Frequency(Hz)	Magnitude(dB)
1.000000e+01	-2.094630e+00
1.005776e+01	-2.113980e+00
1.011585e+01	-2.133275e+00
1.017428e+01	-2.152632e+00
1.023305e+01	-2.172458e+00
1.029215e+01	-2.191954e+00
1.035160e+01	-2.211973e+00
1.041139e+01	-2.231882e+00
1.047153e+01	-2.252222e+00
1.053201e+01	-2.272376e+00
1.059284e+01	-2.293016e+00
1.065403e+01	-2.313428e+00
1.071556e+01	-2.334369e+00
1.077746e+01	-2.355229e+00
1.083971e+01	-2.376171e+00
1.090232e+01	-2.397211e+00
1.096529e+01	-2.418692e+00
1.102862e+01	-2.440063e+00
1.109232e+01	-2.461619e+00
1.115639e+01	-2.483213e+00
1.122083e+01	-2.505361e+00
1.128564e+01	-2.527295e+00
1.135083e+01	-2.549277e+00
1.141639e+01	-2.571495e+00
1.148233e+01	-2.593955e+00
1.154865e+01	-2.616407e+00
1.161536e+01	-2.639393e+00
1.168245e+01	-2.662042e+00
1.174992e+01	-2.685070e+00
1.181779e+01	-2.708395e+00
1.188605e+01	-2.731278e+00
1.195470e+01	-2.754836e+00
1.202375e+01	-2.778674e+00
1.209320e+01	-2.802092e+00
1.216305e+01	-2.826439e+00
1.223330e+01	-2.850051e+00
1.230396e+01	-2.874344e+00
1.237503e+01	-2.898677e+00
1.244651e+01	-2.922810e+00
1.251840e+01	-2.947503e+00
1.259070e+01	-2.972405e+00
1.266343e+01	-2.997347e+00
1.273657e+01	-3.022090e+00
1.281014e+01	-3.047269e+00
1.288413e+01	-3.072540e+00
1.295855e+01	-3.098068e+00
1.303339e+01	-3.123473e+00
1.310867e+01	-3.149443e+00
1.318439e+01	-3.175282e+00
1.326054e+01	-3.201252e+00
1.333713e+01	-3.227574e+00
1.341417e+01	-3.253651e+00
1.349165e+01	-3.280294e+00
1.356958e+01	-3.306896e+00
1.364795e+01	-3.333315e+00
1.372678e+01	-3.360308e+00
1.380607e+01	-3.387335e+00
1.388581e+01	-3.414458e+00
1.396602e+01	-3.441832e+00
1.404668e+01	-3.469317e+00
1.412782e+01	-3.496918e+00
1.420942e+01	-3.524523e+00
1.429149e+01	-3.552488e+00
1.437404e+01	-3.580516e+00
1.445706e+01	-3.608639e+00
1.454057e+01	-3.636707e+00
1.462455e+01	-3.665320e+00
1.470902e+01	-3.693988e+00
1.479398e+01	-3.722820e+00
1.487943e+01	-3.751565e+00
1.496537e+01	-3.780535e+00
1.505181e+01	-3.809648e+00
1.513875e+01	-3.839196e+00
1.522619e+01	-3.868421e+00
1.531414e+01	-3.898093e+00
1.540259e+01	-3.927921e+00
1.549156e+01	-3.957560e+00
1.558103e+01	-3.987405e+00
1.567103e+01	-4.017637e+00
1.576155e+01	-4.048261e+00
1.585258e+01	-4.078313e+00
1.594415e+01	-4.108921e+00
1.603624e+01	-4.139376e+00
1.612886e+01	-4.170533e+00
1.622202e+01	-4.201736e+00
1.631572e+01	-4.232159e+00
1.640996e+01	-4.263673e+00
1.650474e+01	-4.294878e+00
1.660008e+01	-4.326509e+00
1.669596e+01	-4.357950e+00
1.679239e+01	-4.389613e+00
1.688938e+01	-4.421506e+00
1.698694e+01	-4.453761e+00
1.708505e+01	-4.485716e+00
1.718373e+01	-4.518076e+00
1.728299e+01	-4.550460e+00
1.738281e+01	-4.583091e+00
1.748322e+01	-4.616172e+00
1.758420e+01	-4.648667e+00
1.768576e+01	-4.681625e+00
1.778792e+01	-4.714775e+00
1.789066e+01	-4.747843e+00
1.799399e+01	-4.781123e+00
1.809793e+01	-4.814650e+00
1.820246e+01	-4.848295e+00
1.830760e+01	-4.881766e+00
1.841334e+01	-4.915932e+00
1.851969e+01	-4.949641e+00
1.862666e+01	-4.983852e+00
1.873425e+01	-5.018264e+00
1.884246e+01	-5.052228e+00
1.895129e+01	-5.086923e+00
1.906075e+01	-5.121315e+00
1.917085e+01	-5.155782e+00
1.928158e+01	-5.190873e+00
1.939295e+01	-5.225780e+00
1.950496e+01	-5.261080e+00
1.961762e+01	-5.295833e+00
1.973093e+01	-5.331391e+00
1.984490e+01	-5.366906e+00
1.995952e+01	-5.401893e+00
2.007480e+01	-5.438018e+00
2.019076e+01	-5.473998e+00
2.030738e+01	-5.509778e+00
2.042467e+01	-5.545794e+00
2.054264e+01	-5.581714e+00
2.066130e+01	-5.618130e+00
2.078064e+01	-5.654390e+00
2.090066e+01	-5.690905e+00
2.102139e+01	-5.727800e+00
2.114280e+01	-5.764431e+00
2.126492e+01	-5.800969e+00
2.138775e+01	-5.838012e+00
2.151128e+01	-5.874694e+00
2.163553e+01	-5.911925e+00
2.176050e+01	-5.949453e+00
2.188619e+01	-5.986843e+00
2.201260e+01	-6.023924e+00
2.213974e+01	-6.061987e+00
2.226762e+01	-6.099523e+00
2.239624e+01	-6.137200e+00
2.252560e+01	-6.175202e+00
2.265571e+01	-6.213336e+00
2.278656e+01	-6.251080e+00
2.291818e+01	-6.289692e+00
2.305055e+01	-6.327646e+00
2.318369e+01	-6.366303e+00
2.331760e+01	-6.404928e+00
2.345228e+01	-6.443527e+00
2.358774e+01	-6.482012e+00
2.372398e+01	-6.521141e+00
2.386101e+01	-6.560350e+00
2.399883e+01	-6.599105e+00
2.413745e+01	-6.638008e+00
2.427686e+01	-6.677126e+00
2.441709e+01	-6.716894e+00
2.455812e+01	-6.756069e+00
2.469997e+01	-6.795598e+00
2.484263e+01	-6.835128e+00
2.498612e+01	-6.875167e+00
2.513044e+01	-6.914601e+00
2.527559e+01	-6.954219e+00
2.542158e+01	-6.994646e+00
2.556842e+01	-7.034678e+00
2.571610e+01	-7.075171e+00
2.586463e+01	-7.115060e+00
2.601403e+01	-7.155275e+00
2.616428e+01	-7.195920e+00
2.631541e+01	-7.236396e+00
2.646740e+01	-7.276762e+00
2.662028e+01	-7.317512e+00
2.677404e+01	-7.358372e+00
2.692868e+01	-7.399056e+00
2.708422e+01	-7.440053e+00
2.724066e+01	-7.481846e+00
2.739800e+01	-7.522687e+00
2.755625e+01	-7.563642e+00
2.771541e+01	-7.605365e+00
2.787550e+01	-7.646340e+00
2.803650e+01	-7.687807e+00
2.819844e+01	-7.729692e+00
2.836131e+01	-7.770909e+00
2.852513e+01	-7.813005e+00
2.868989e+01	-7.854840e+00
2.885560e+01	-7.896382e+00
2.902227e+01	-7.938569e+00
2.918990e+01	-7.980671e+00
2.935850e+01	-8.022568e+00
2.952807e+01	-8.064656e+00
2.969863e+01	-8.106979e+00
2.987016e+01	-8.149009e+00
3.004269e+01	-8.191756e+00
3.021622e+01	-8.234754e+00
3.039075e+01	-8.276767e+00
3.056628e+01	-8.319387e+00
3.074283e+01	-8.362094e+00
3.092040e+01	-8.404947e+00
3.109900e+01	-8.447742e+00
3.127862e+01	-8.490167e+00
3.145929e+01	-8.533715e+00
3.164099e+01	-8.576269e+00
3.182375e+01	-8.619825e+00
3.200756e+01	-8.662973e+00
3.219244e+01	-8.706210e+00
3.237838e+01	-8.749446e+00
3.256540e+01	-8.793323e+00
3.275349e+01	-8.836381e+00
3.294268e+01	-8.879611e+00
3.313295e+01	-8.923745e+00
3.332433e+01	-8.966963e+00
3.351681e+01	-9.010796e+00
3.371040e+01	-9.054489e+00
3.390511e+01	-9.098111e+00
3.410094e+01	-9.142604e+00
3.429791e+01	-9.185945e+00
3.449601e+01	-9.229681e+00
3.469526e+01	-9.274592e+00
3.489566e+01	-9.318548e+00
3.509721e+01	-9.363017e+00
3.529993e+01	-9.407206e+00
3.550382e+01	-9.451756e+00
3.570889e+01	-9.496124e+00
3.591515e+01	-9.539930e+00
3.612259e+01	-9.584884e+00
3.633123e+01	-9.629461e+00
3.654108e+01	-9.673918e+00
3.675214e+01	-9.718654e+00
3.696442e+01	-9.762851e+00
3.717792e+01	-9.807254e+00
3.739266e+01	-9.852754e+00
3.760864e+01	-9.897204e+00
3.782587e+01	-9.942068e+00
3.804435e+01	-9.986918e+00
3.826409e+01	-1.003279e+01
3.848510e+01	-1.007769e+01
3.870739e+01	-1.012318e+01
3.893096e+01	-1.016805e+01
3.915583e+01	-1.021352e+01
3.938199e+01	-1.025878e+01
3.960946e+01	-1.030392e+01
3.983824e+01	-1.034931e+01
4.006834e+01	-1.039457e+01
4.029978e+01	-1.043990e+01
4.053255e+01	-1.048597e+01
4.076666e+01	-1.053087e+01
4.100213e+01	-1.057679e+01
4.123896e+01	-1.062287e+01
4.147715e+01	-1.066847e+01
4.171672e+01	-1.071337e+01
4.195767e+01	-1.075997e+01
4.220002e+01	-1.080555e+01
4.244377e+01	-1.085174e+01
4.268892e+01	-1.089723e+01
4.293549e+01	-1.094323e+01
4.318348e+01	-1.098972e+01
4.343291e+01	-1.103566e+01
4.368377e+01	-1.108144e+01
4.393609e+01	-1.112814e+01
4.418986e+01	-1.117340e+01
4.444510e+01	-1.122062e+01
4.470182e+01	-1.126655e+01
4.496001e+01	-1.131270e+01
4.521970e+01	-1.135902e+01
4.548089e+01	-1.140506e+01
4.574358e+01	-1.145148e+01
4.600779e+01	-1.149771e+01
4.627353e+01	-1.154509e+01
4.654081e+01	-1.159161e+01
4.680963e+01	-1.163808e+01
4.708000e+01	-1.168417e+01
4.735193e+01	-1.173126e+01
4.762543e+01	-1.177832e+01
4.790051e+01	-1.182500e+01
4.817719e+01	-1.187131e+01
4.845545e+01	-1.191768e+01
4.873533e+01	-1.196479e+01
4.901682e+01	-1.201272e+01
4.929994e+01	-1.205893e+01
4.958470e+01	-1.210516e+01
4.987110e+01	-1.215333e+01
5.015915e+01	-1.219958e+01
5.044887e+01	-1.224681e+01
5.074026e+01	-1.229363e+01
5.103333e+01	-1.234107e+01
5.132810e+01	-1.238777e+01
5.162457e+01	-1.243497e+01
5.192275e+01	-1.248237e+01
5.222265e+01	-1.252980e+01
5.252429e+01	-1.257627e+01
5.282767e+01	-1.262368e+01
5.313280e+01	-1.267053e+01
5.343969e+01	-1.271846e+01
5.374836e+01	-1.276575e+01
5.405880e+01	-1.281372e+01
5.437105e+01	-1.286071e+01
5.468509e+01	-1.290799e+01
5.500095e+01	-1.295578e+01
5.531863e+01	-1.300352e+01
5.563815e+01	-1.305084e+01
5.595951e+01	-1.309806e+01
5.628273e+01	-1.314588e+01
5.660782e+01	-1.319378e+01
5.693479e+01	-1.324133e+01
5.726364e+01	-1.328939e+01
5.759439e+01	-1.333717e+01
5.792705e+01	-1.338438e+01
5.826164e+01	-1.343180e+01
5.859815e+01	-1.347968e+01
5.893662e+01	-1.352799e+01
5.927703e+01	-1.357514e+01
5.961941e+01	-1.362370e+01
5.996377e+01	-1.367153e+01
6.031012e+01	-1.371920e+01
6.065847e+01	-1.376741e+01
6.100883e+01	-1.381524e+01
6.136121e+01	-1.386332e+01
6.171563e+01	-1.391066e+01
6.207210e+01	-1.395870e+01
6.243063e+01	-1.400750e+01
6.279122e+01	-1.405499e+01
6.315390e+01	-1.410299e+01
6.351868e+01	-1.415129e+01
6.388556e+01	-1.419977e+01
6.425456e+01	-1.424734e+01
6.462569e+01	-1.429583e+01
6.499897e+01	-1.434370e+01
6.537440e+01	-1.439258e+01
6.575200e+01	-1.443971e+01
6.613178e+01	-1.448862e+01
6.651375e+01	-1.453631e+01
6.689793e+01	-1.458469e+01
6.728433e+01	-1.463289e+01
6.767297e+01	-1.468228e+01
6.806384e+01	-1.472991e+01
6.845698e+01	-1.477827e+01
6.885238e+01	-1.482625e+01
6.925007e+01	-1.487473e+01
6.965005e+01	-1.492337e+01
7.005235e+01	-1.497232e+01
7.045697e+01	-1.502035e+01
7.086393e+01	-1.506790e+01
7.127323e+01	-1.511769e+01
7.168490e+01	-1.516671e+01
7.209895e+01	-1.521330e+01
7.251539e+01	-1.526336e+01
7.293424e+01	-1.531133e+01
7.335551e+01	-1.535922e+01
7.377920e+01	-1.540780e+01
7.420535e+01	-1.545589e+01
7.463396e+01	-1.550591e+01
7.506504e+01	-1.555407e+01
7.549861e+01	-1.560238e+01
7.593469e+01	-1.565166e+01
7.637328e+01	-1.569926e+01
7.681441e+01	-1.574861e+01
7.725809e+01	-1.579775e+01
7.770433e+01	-1.584689e+01
7.815315e+01	-1.589483e+01
7.860456e+01	-1.594415e+01
7.905857e+01	-1.599166e+01
7.951521e+01	-1.604013e+01
7.997449e+01	-1.609029e+01
8.043642e+01	-1.613923e+01
8.090102e+01	-1.618780e+01
8.136830e+01	-1.623695e+01
8.183828e+01	-1.628509e+01
8.231097e+01	-1.633499e+01
8.278640e+01	-1.638297e+01
8.326457e+01	-1.643220e+01
8.374550e+01	-1.648129e+01
8.422921e+01	-1.652938e+01
8.471572e+01	-1.657856e+01
8.520503e+01	-1.662870e+01
8.569717e+01	-1.667704e+01
8.619215e+01	-1.672646e+01
8.669000e+01	-1.677570e+01
8.719071e+01	-1.682380e+01
8.769432e+01	-1.687216e+01
8.820084e+01	-1.692135e+01
8.871029e+01	-1.697190e+01
8.922267e+01	-1.702020e+01
8.973802e+01	-1.706870e+01
9.025634e+01	-1.711780e+01
9.077766e+01	-1.716692e+01
9.130199e+01	-1.721656e+01
9.182935e+01	-1.726474e+01
9.235975e+01	-1.731465e+01
9.289321e+01	-1.736314e+01
9.342976e+01	-1.741256e+01
9.396941e+01	-1.746202e+01
9.451217e+01	-1.751112e+01
9.505807e+01	-1.756056e+01
9.560712e+01	-1.760940e+01
9.615934e+01	-1.765802e+01
9.671476e+01	-1.770669e+01
9.727338e+01	-1.775608e+01
9.783522e+01	-1.780666e+01
9.840032e+01	-1.785492e+01
9.896867e+01	-1.790511e+01
9.954031e+01	-1.795369e+01
1.001153e+02	-1.800257e+01
1.006935e+02	-1.805223e+01
1.012751e+02	-1.810114e+01
1.018601e+02	-1.815065e+01
1.024484e+02	-1.819904e+01
1.030402e+02	-1.824944e+01
1.036353e+02	-1.829926e+01
1.042339e+02	-1.834795e+01
1.048360e+02	-1.839716e+01
1.054415e+02	-1.844630e+01
1.060505e+02	-1.849389e+01
1.066631e+02	-1.854416e+01
1.072791e+02	-1.859452e+01
1.078988e+02	-1.864258e+01
1.085220e+02	-1.869220e+01
1.091488e+02	-1.874221e+01
1.097793e+02	-1.879097e+01
1.104133e+02	-1.884046e+01
1.110511e+02	-1.888947e+01
1.116925e+02	-1.893936e+01
1.123376e+02	-1.898853e+01
1.129865e+02	-1.903891e+01
1.136391e+02	-1.908729e+01
1.142955e+02	-1.913656e+01
1.149556e+02	-1.918527e+01
1.156196e+02	-1.923584e+01
1.162874e+02	-1.928668e+01
1.169591e+02	-1.933444e+01
1.176347e+02	-1.938578e+01
1.183141e+02	-1.943452e+01
1.189975e+02	-1.948457e+01
1.196848e+02	-1.953239e+01
1.203761e+02	-1.958169e+01
1.210714e+02	-1.963149e+01
1.217707e+02	-1.968238e+01
1.224740e+02	-1.973080e+01
1.231814e+02	-1.978058e+01
1.238929e+02	-1.982974e+01
1.246085e+02	-1.987874e+01
1.253283e+02	-1.992796e+01
1.260522e+02	-1.997981e+01
1.267802e+02	-2.002777e+01
1.275125e+02	-2.007770e+01
1.282490e+02	-2.012590e+01
1.289898e+02	-2.017708e+01
1.297348e+02	-2.022572e+01
1.304842e+02	-2.027485e+01
1.312378e+02	-2.032495e+01
1.319959e+02	-2.037664e+01
1.327583e+02	-2.042391e+01
1.335251e+02	-2.047420e+01
1.342963e+02	-2.052446e+01
1.350720e+02	-2.057417e+01
1.358522e+02	-2.062100e+01
1.366368e+02	-2.067394e+01
1.374260e+02	-2.072445e+01
1.382198e+02	-2.077104e+01
1.390182e+02	-2.082157e+01
1.398211e+02	-2.087197e+01
1.406287e+02	-2.092023e+01
1.414410e+02	-2.097058e+01
1.422579e+02	-2.102007e+01
1.430796e+02	-2.107011e+01
1.439060e+02	-2.111993e+01
1.447372e+02	-2.117103e+01
1.455732e+02	-2.121797e+01
1.464141e+02	-2.126918e+01
1.472597e+02	-2.132005e+01
1.481103e+02	-2.136734e+01
1.489658e+02	-2.141745e+01
1.498262e+02	-2.146714e+01
1.506916e+02	-2.151624e+01
1.515620e+02	-2.156792e+01
1.524374e+02	-2.161923e+01
1.533179e+02	-2.166482e+01
1.542034e+02	-2.171654e+01
1.550941e+02	-2.176563e+01
1.559899e+02	-2.181452e+01
1.568909e+02	-2.186400e+01
1.577971e+02	-2.191472e+01
1.587085e+02	-2.196351e+01
1.596252e+02	-2.201405e+01
1.605472e+02	-2.206120e+01
1.614745e+02	-2.211248e+01
1.624072e+02	-2.216358e+01
1.633453e+02	-2.221150e+01
1.642887e+02	-2.226094e+01
1.652377e+02	-2.231098e+01
1.661921e+02	-2.235990e+01
1.671520e+02	-2.241315e+01
1.681175e+02	-2.246151e+01
1.690885e+02	-2.251223e+01
1.700651e+02	-2.256081e+01
1.710474e+02	-2.261012e+01
1.720354e+02	-2.266062e+01
1.730291e+02	-2.270888e+01
1.740285e+02	-2.275982e+01
1.750337e+02	-2.281007e+01
1.760446e+02	-2.285739e+01
1.770615e+02	-2.290819e+01
1.780842e+02	-2.295840e+01
1.791128e+02	-2.300834e+01
1.801473e+02	-2.305953e+01
1.811878e+02	-2.310891e+01
1.822344e+02	-2.315700e+01
1.832870e+02	-2.320696e+01
1.843456e+02	-2.326012e+01
1.854104e+02	-2.330747e+01
1.864813e+02	-2.335884e+01
1.875584e+02	-2.340674e+01
1.886418e+02	-2.345602e+01
1.897313e+02	-2.350756e+01
1.908272e+02	-2.355666e+01
1.919294e+02	-2.360775e+01
1.930380e+02	-2.365652e+01
1.941530e+02	-2.370663e+01
1.952744e+02	-2.375907e+01
1.964023e+02	-2.380632e+01
1.975367e+02	-2.385698e+01
1.986777e+02	-2.390331e+01
1.998252e+02	-2.395565e+01
2.009794e+02	-2.400518e+01
2.021403e+02	-2.405346e+01
2.033078e+02	-2.410281e+01
2.044821e+02	-2.415726e+01
2.056632e+02	-2.420702e+01
2.068511e+02	-2.425312e+01
2.080459e+02	-2.430606e+01
2.092475e+02	-2.435484e+01
2.104561e+02	-2.440402e+01
2.116717e+02	-2.445292e+01
2.128943e+02	-2.450376e+01
2.141240e+02	-2.455269e+01
2.153608e+02	-2.460380e+01
2.166047e+02	-2.465407e+01
2.178558e+02	-2.470578e+01
2.191141e+02	-2.475120e+01
2.203797e+02	-2.480238e+01
2.216526e+02	-2.485436e+01
2.229329e+02	-2.490581e+01
2.242205e+02	-2.495507e+01
2.255156e+02	-2.500329e+01
2.268182e+02	-2.505205e+01
2.281283e+02	-2.510295e+01
2.294459e+02	-2.515229e+01
2.307712e+02	-2.520182e+01
2.321041e+02	-2.525056e+01
2.334447e+02	-2.530446e+01
2.347931e+02	-2.535225e+01
2.361493e+02	-2.540298e+01
2.375133e+02	-2.545038e+01
2.388851e+02	-2.550621e+01
2.402649e+02	-2.555281e+01
2.416527e+02	-2.560361e+01
2.430484e+02	-2.565008e+01
2.444523e+02	-2.570417e+01
2.458642e+02	-2.575162e+01
2.472843e+02	-2.580201e+01
2.487126e+02	-2.585300e+01
2.501492e+02	-2.590097e+01
2.515940e+02	-2.595373e+01
2.530472e+02	-2.600226e+01
2.545088e+02	-2.605304e+01
2.559789e+02	-2.610167e+01
2.574574e+02	-2.615393e+01
2.589444e+02	-2.619772e+01
2.604401e+02	-2.625162e+01
2.619444e+02	-2.629952e+01
2.634574e+02	-2.635290e+01
2.649791e+02	-2.640337e+01
2.665096e+02	-2.645092e+01
2.680489e+02	-2.650059e+01
2.695972e+02	-2.655111e+01
2.711544e+02	-2.660030e+01
2.727205e+02	-2.664871e+01
2.742958e+02	-2.670168e+01
2.758801e+02	-2.674670e+01
2.774736e+02	-2.680033e+01
2.790762e+02	-2.685303e+01
2.806882e+02	-2.689988e+01
2.823094e+02	-2.694928e+01
2.839400e+02	-2.700183e+01
2.855800e+02	-2.704770e+01
2.872295e+02	-2.709997e+01
2.888886e+02	-2.715029e+01
2.905572e+02	-2.719947e+01
2.922354e+02	-2.725060e+01
2.939234e+02	-2.729987e+01
2.956211e+02	-2.735322e+01
2.973286e+02	-2.740052e+01
2.990459e+02	-2.744817e+01
3.007732e+02	-2.749711e+01
3.025104e+02	-2.755092e+01
3.042577e+02	-2.760256e+01
3.060151e+02	-2.765114e+01
3.077826e+02	-2.769789e+01
3.095604e+02	-2.774748e+01
3.113484e+02	-2.780046e+01
3.131467e+02	-2.785013e+01
3.149554e+02	-2.790156e+01
3.167746e+02	-2.795322e+01
3.186043e+02	-2.799878e+01
3.204445e+02	-2.805103e+01
3.222954e+02	-2.810458e+01
3.241570e+02	-2.815109e+01
3.260293e+02	-2.820523e+01
3.279124e+02	-2.825248e+01
3.298064e+02	-2.829720e+01
3.317114e+02	-2.835298e+01
3.336273e+02	-2.840088e+01
3.355544e+02	-2.845106e+01
3.374925e+02	-2.850283e+01
3.394418e+02	-2.854835e+01
3.414024e+02	-2.860099e+01
3.433744e+02	-2.865111e+01
3.453577e+02	-2.870744e+01
3.473525e+02	-2.875033e+01
3.493588e+02	-2.880258e+01
3.513766e+02	-2.885298e+01
3.534062e+02	-2.889958e+01
3.554474e+02	-2.895023e+01
3.575005e+02	-2.900195e+01
3.595654e+02	-2.905000e+01
3.616422e+02	-2.910144e+01
3.637311e+02	-2.915145e+01
3.658320e+02	-2.920058e+01
3.679450e+02	-2.925152e+01
3.700702e+02	-2.930041e+01
3.722077e+02	-2.935104e+01
3.743576e+02	-2.940143e+01
3.765199e+02	-2.945375e+01
3.786946e+02	-2.950408e+01
3.808820e+02	-2.954941e+01
3.830819e+02	-2.959842e+01
3.852946e+02	-2.965474e+01
3.875200e+02	-2.970523e+01
3.897583e+02	-2.975293e+01
3.920096e+02	-2.980307e+01
3.942738e+02	-2.985240e+01
3.965511e+02	-2.989986e+01
3.988416e+02	-2.995492e+01
4.011452e+02	-3.000002e+01
4.034622e+02	-3.005234e+01
4.057926e+02	-3.010511e+01
4.081365e+02	-3.015379e+01
4.104938e+02	-3.020580e+01
4.128648e+02	-3.024996e+01
4.152495e+02	-3.030211e+01
4.176480e+02	-3.035008e+01
4.200603e+02	-3.040467e+01
4.224866e+02	-3.045228e+01
4.249268e+02	-3.050514e+01
4.273812e+02	-3.055646e+01
4.298497e+02	-3.060668e+01
4.323325e+02	-3.064719e+01
4.348297e+02	-3.070081e+01
4.373412e+02	-3.075836e+01
4.398673e+02	-3.080222e+01
4.424079e+02	-3.085643e+01
4.449633e+02	-3.090427e+01
4.475334e+02	-3.095245e+01
4.501183e+02	-3.101150e+01
4.527182e+02	-3.105220e+01
4.553330e+02	-3.110422e+01
4.579630e+02	-3.115296e+01
4.606082e+02	-3.121280e+01
4.632687e+02	-3.125860e+01
4.659445e+02	-3.130532e+01
4.686358e+02	-3.135496e+01
4.713426e+02	-3.140454e+01
4.740650e+02	-3.145494e+01
4.768032e+02	-3.150498e+01
4.795572e+02	-3.155785e+01
4.823271e+02	-3.160866e+01
4.851130e+02	-3.165915e+01
4.879150e+02	-3.170497e+01
4.907332e+02	-3.175592e+01
4.935676e+02	-3.180851e+01
4.964185e+02	-3.186431e+01
4.992858e+02	-3.190989e+01
5.021696e+02	-3.196310e+01
5.050701e+02	-3.200958e+01
5.079874e+02	-3.206192e+01
5.109215e+02	-3.210596e+01
5.138726e+02	-3.215970e+01
5.168407e+02	-3.220493e+01
5.198259e+02	-3.225193e+01
5.228284e+02	-3.231118e+01
5.258482e+02	-3.235447e+01
5.288855e+02	-3.240913e+01
5.319403e+02	-3.246050e+01
5.350128e+02	-3.250277e+01
5.381030e+02	-3.255600e+01
5.412111e+02	-3.261276e+01
5.443371e+02	-3.266063e+01
5.474812e+02	-3.271336e+01
5.506434e+02	-3.276603e+01
5.538239e+02	-3.281664e+01
5.570228e+02	-3.286068e+01
5.602401e+02	-3.291078e+01
5.634760e+02	-3.296561e+01
5.667306e+02	-3.301135e+01
5.700040e+02	-3.306648e+01
5.732964e+02	-3.311205e+01
5.766077e+02	-3.315952e+01
5.799382e+02	-3.322083e+01
5.832879e+02	-3.325848e+01
5.866569e+02	-3.331027e+01
5.900454e+02	-3.336551e+01
5.934535e+02	-3.341662e+01
5.968813e+02	-3.346383e+01
6.003288e+02	-3.351019e+01
6.037963e+02	-3.356688e+01
6.072838e+02	-3.361792e+01
6.107914e+02	-3.367007e+01
6.143194e+02	-3.371413e+01
6.178676e+02	-3.376565e+01
6.214364e+02	-3.382140e+01
6.250258e+02	-3.386311e+01
6.286359e+02	-3.391380e+01
6.322669e+02	-3.396786e+01
6.359189e+02	-3.401559e+01
6.395919e+02	-3.406625e+01
6.432862e+02	-3.412145e+01
6.470017e+02	-3.416360e+01
6.507388e+02	-3.421389e+01
6.544974e+02	-3.426003e+01
6.582778e+02	-3.431772e+01
6.620800e+02	-3.437371e+01
6.659041e+02	-3.442449e+01
6.697504e+02	-3.447816e+01
6.736188e+02	-3.451793e+01
6.775096e+02	-3.457184e+01
6.814229e+02	-3.463250e+01
6.853587e+02	-3.467036e+01
6.893173e+02	-3.471399e+01
6.932988e+02	-3.477122e+01
6.973033e+02	-3.481411e+01
7.013309e+02	-3.487766e+01
