Frequency(Hz)	Magnitude(dB)
1.000000e+01	-1.735436e-05
1.005776e+01	-1.755541e-05
1.011585e+01	-1.775880e-05
1.017428e+01	-1.796454e-05
1.023305e+01	-1.817266e-05
1.029215e+01	-1.838320e-05
1.035160e+01	-1.859617e-05
1.041139e+01	-1.881161e-05
1.047153e+01	-1.902955e-05
1.053201e+01	-1.925001e-05
1.059284e+01	-1.947303e-05
1.065403e+01	-1.969863e-05
1.071556e+01	-1.992684e-05
1.077746e+01	-2.015770e-05
1.083971e+01	-2.039123e-05
1.090232e+01	-2.062747e-05
1.096529e+01	-2.086644e-05
1.102862e+01	-2.110819e-05
1.109232e+01	-2.135273e-05
1.115639e+01	-2.160011e-05
1.122083e+01	-2.185035e-05
1.128564e+01	-2.210349e-05
1.135083e+01	-2.235957e-05
1.141639e+01	-2.261861e-05
1.148233e+01	-2.288065e-05
1.154865e+01	-2.314573e-05
1.161536e+01	-2.341388e-05
1.168245e+01	-2.368513e-05
1.174992e+01	-2.395953e-05
1.181779e+01	-2.423711e-05
1.188605e+01	-2.451790e-05
1.195470e+01	-2.480195e-05
1.202375e+01	-2.508928e-05
1.209320e+01	-2.537995e-05
1.216305e+01	-2.567398e-05
1.223330e+01	-2.597142e-05
1.230396e+01	-2.627231e-05
1.237503e+01	-2.657668e-05
1.244651e+01	-2.688457e-05
1.251840e+01	-2.719604e-05
1.259070e+01	-2.751111e-05
1.266343e+01	-2.782983e-05
1.273657e+01	-2.815225e-05
1.281014e+01	-2.847840e-05
1.288413e+01	-2.880833e-05
1.295855e+01	-2.914208e-05
1.303339e+01	-2.947970e-05
1.310867e+01	-2.982123e-05
1.318439e+01	-3.016671e-05
1.326054e+01	-3.051620e-05
1.333713e+01	-3.086974e-05
1.341417e+01	-3.122737e-05
1.349165e+01	-3.158915e-05
1.356958e+01	-3.195512e-05
1.364795e+01	-3.232533e-05
1.372678e+01	-3.269982e-05
1.380607e+01	-3.307866e-05
1.388581e+01	-3.346188e-05
1.396602e+01	-3.384955e-05
1.404668e+01	-3.424170e-05
1.412782e+01	-3.463840e-05
1.420942e+01	-3.503969e-05
1.429149e+01	-3.544564e-05
1.437404e+01	-3.585628e-05
1.445706e+01	-3.627168e-05
1.454057e+01	-3.669190e-05
1.462455e+01	-3.711698e-05
1.470902e+01	-3.754699e-05
1.479398e+01	-3.798198e-05
1.487943e+01	-3.842201e-05
1.496537e+01	-3.886714e-05
1.505181e+01	-3.931743e-05
1.513875e+01	-3.977293e-05
1.522619e+01	-4.023371e-05
1.531414e+01	-4.069982e-05
1.540259e+01	-4.117134e-05
1.549156e+01	-4.164832e-05
1.558103e+01	-4.213082e-05
1.567103e+01	-4.261892e-05
1.576155e+01	-4.311267e-05
1.585258e+01	-4.361214e-05
1.594415e+01	-4.411739e-05
1.603624e+01	-4.462850e-05
1.612886e+01	-4.514554e-05
1.622202e+01	-4.566856e-05
1.631572e+01	-4.619764e-05
1.640996e+01	-4.673285e-05
1.650474e+01	-4.727426e-05
1.660008e+01	-4.782194e-05
1.669596e+01	-4.837597e-05
1.679239e+01	-4.893641e-05
1.688938e+01	-4.950335e-05
1.698694e+01	-5.007686e-05
1.708505e+01	-5.065701e-05
1.718373e+01	-5.124388e-05
1.728299e+01	-5.183755e-05
1.738281e+01	-5.243810e-05
1.748322e+01	-5.304561e-05
1.758420e+01	-5.366015e-05
1.768576e+01	-5.428182e-05
1.778792e+01	-5.491068e-05
1.789066e+01	-5.554683e-05
1.799399e+01	-5.619035e-05
1.809793e+01	-5.684133e-05
1.820246e+01	-5.749985e-05
1.830760e+01	-5.816600e-05
1.841334e+01	-5.883986e-05
1.851969e+01	-5.952153e-05
1.862666e+01	-6.021110e-05
1.873425e+01	-6.090866e-05
1.884246e+01	-6.161430e-05
1.895129e+01	-6.232811e-05
1.906075e+01	-6.305020e-05
1.917085e+01	-6.378064e-05
1.928158e+01	-6.451956e-05
1.939295e+01	-6.526703e-05
1.950496e+01	-6.602316e-05
1.961762e+01	-6.678805e-05
1.973093e+01	-6.756180e-05
1.984490e+01	-6.834452e-05
1.995952e+01	-6.913630e-05
2.007480e+01	-6.993726e-05
2.019076e+01	-7.074750e-05
2.030738e+01	-7.156712e-05
2.042467e+01	-7.239624e-05
2.054264e+01	-7.323496e-05
2.066130e+01	-7.408340e-05
2.078064e+01	-7.494167e-05
2.090066e+01	-7.580988e-05
2.102139e+01	-7.668815e-05
2.114280e+01	-7.757660e-05
2.126492e+01	-7.847534e-05
2.138775e+01	-7.938449e-05
2.151128e+01	-8.030417e-05
2.163553e+01	-8.123451e-05
2.176050e+01	-8.217562e-05
2.188619e+01	-8.312764e-05
2.201260e+01	-8.409069e-05
2.213974e+01	-8.506489e-05
2.226762e+01	-8.605039e-05
2.239624e+01	-8.704729e-05
2.252560e+01	-8.805575e-05
2.265571e+01	-8.907589e-05
2.278656e+01	-9.010785e-05
2.291818e+01	-9.115176e-05
2.305055e+01	-9.220777e-05
2.318369e+01	-9.327601e-05
2.331760e+01	-9.435663e-05
2.345228e+01	-9.544976e-05
2.358774e+01	-9.655556e-05
2.372398e+01	-9.767417e-05
2.386101e+01	-9.880574e-05
2.399883e+01	-9.995042e-05
2.413745e+01	-1.011084e-04
2.427686e+01	-1.022797e-04
2.441709e+01	-1.034646e-04
2.455812e+01	-1.046633e-04
2.469997e+01	-1.058758e-04
2.484263e+01	-1.071024e-04
2.498612e+01	-1.083432e-04
2.513044e+01	-1.095984e-04
2.527559e+01	-1.108681e-04
2.542158e+01	-1.121525e-04
2.556842e+01	-1.134518e-04
2.571610e+01	-1.147662e-04
2.586463e+01	-1.160958e-04
2.601403e+01	-1.174407e-04
2.616428e+01	-1.188013e-04
2.631541e+01	-1.201776e-04
2.646740e+01	-1.215699e-04
2.662028e+01	-1.229783e-04
2.677404e+01	-1.244030e-04
2.692868e+01	-1.258442e-04
2.708422e+01	-1.273022e-04
2.724066e+01	-1.287770e-04
2.739800e+01	-1.302689e-04
2.755625e+01	-1.317780e-04
2.771541e+01	-1.333047e-04
2.787550e+01	-1.348491e-04
2.803650e+01	-1.364113e-04
2.819844e+01	-1.379916e-04
2.836131e+01	-1.395903e-04
2.852513e+01	-1.412074e-04
2.868989e+01	-1.428433e-04
2.885560e+01	-1.444982e-04
2.902227e+01	-1.461722e-04
2.918990e+01	-1.478656e-04
2.935850e+01	-1.495787e-04
2.952807e+01	-1.513116e-04
2.969863e+01	-1.530645e-04
2.987016e+01	-1.548378e-04
3.004269e+01	-1.566316e-04
3.021622e+01	-1.584462e-04
3.039075e+01	-1.602818e-04
3.056628e+01	-1.621387e-04
3.074283e+01	-1.640170e-04
3.092040e+01	-1.659172e-04
3.109900e+01	-1.678393e-04
3.127862e+01	-1.697838e-04
3.145929e+01	-1.717507e-04
3.164099e+01	-1.737405e-04
3.182375e+01	-1.757533e-04
3.200756e+01	-1.777894e-04
3.219244e+01	-1.798491e-04
3.237838e+01	-1.819326e-04
3.256540e+01	-1.840403e-04
3.275349e+01	-1.861724e-04
3.294268e+01	-1.883292e-04
3.313295e+01	-1.905110e-04
3.332433e+01	-1.927181e-04
3.351681e+01	-1.949508e-04
3.371040e+01	-1.972093e-04
3.390511e+01	-1.994939e-04
3.410094e+01	-2.018051e-04
3.429791e+01	-2.041430e-04
3.449601e+01	-2.065080e-04
3.469526e+01	-2.089004e-04
3.489566e+01	-2.113205e-04
3.509721e+01	-2.137686e-04
3.529993e+01	-2.162451e-04
3.550382e+01	-2.187503e-04
3.570889e+01	-2.212846e-04
3.591515e+01	-2.238481e-04
3.612259e+01	-2.264414e-04
3.633123e+01	-2.290647e-04
3.654108e+01	-2.317184e-04
3.675214e+01	-2.344029e-04
3.696442e+01	-2.371184e-04
3.717792e+01	-2.398654e-04
3.739266e+01	-2.426443e-04
3.760864e+01	-2.454553e-04
3.782587e+01	-2.482989e-04
3.804435e+01	-2.511754e-04
3.826409e+01	-2.540853e-04
3.848510e+01	-2.570288e-04
3.870739e+01	-2.600065e-04
3.893096e+01	-2.630186e-04
3.915583e+01	-2.660657e-04
3.938199e+01	-2.691480e-04
3.960946e+01	-2.722661e-04
3.983824e+01	-2.754203e-04
4.006834e+01	-2.786110e-04
4.029978e+01	-2.818387e-04
4.053255e+01	-2.851038e-04
4.076666e+01	-2.884067e-04
4.100213e+01	-2.917478e-04
4.123896e+01	-2.951277e-04
4.147715e+01	-2.985467e-04
4.171672e+01	-3.020053e-04
4.195767e+01	-3.055040e-04
4.220002e+01	-3.090432e-04
4.244377e+01	-3.126235e-04
4.268892e+01	-3.162452e-04
4.293549e+01	-3.199088e-04
4.318348e+01	-3.236149e-04
4.343291e+01	-3.273639e-04
4.368377e+01	-3.311564e-04
4.393609e+01	-3.349928e-04
4.418986e+01	-3.388736e-04
4.444510e+01	-3.427994e-04
4.470182e+01	-3.467707e-04
4.496001e+01	-3.507879e-04
4.521970e+01	-3.548518e-04
4.548089e+01	-3.589626e-04
4.574358e+01	-3.631211e-04
4.600779e+01	-3.673278e-04
4.627353e+01	-3.715832e-04
4.654081e+01	-3.758880e-04
4.680963e+01	-3.802425e-04
4.708000e+01	-3.846475e-04
4.735193e+01	-3.891036e-04
4.762543e+01	-3.936113e-04
4.790051e+01	-3.981712e-04
4.817719e+01	-4.027839e-04
4.845545e+01	-4.074500e-04
4.873533e+01	-4.121702e-04
4.901682e+01	-4.169451e-04
4.929994e+01	-4.217753e-04
4.958470e+01	-4.266614e-04
4.987110e+01	-4.316042e-04
5.015915e+01	-4.366042e-04
5.044887e+01	-4.416621e-04
5.074026e+01	-4.467786e-04
5.103333e+01	-4.519544e-04
5.132810e+01	-4.571901e-04
5.162457e+01	-4.624865e-04
5.192275e+01	-4.678443e-04
5.222265e+01	-4.732641e-04
5.252429e+01	-4.787467e-04
5.282767e+01	-4.842928e-04
5.313280e+01	-4.899031e-04
5.343969e+01	-4.955785e-04
5.374836e+01	-5.013195e-04
5.405880e+01	-5.071271e-04
5.437105e+01	-5.130020e-04
5.468509e+01	-5.189449e-04
5.500095e+01	-5.249567e-04
5.531863e+01	-5.310381e-04
5.563815e+01	-5.371899e-04
5.595951e+01	-5.434130e-04
5.628273e+01	-5.497082e-04
5.660782e+01	-5.560763e-04
5.693479e+01	-5.625182e-04
5.726364e+01	-5.690347e-04
5.759439e+01	-5.756267e-04
5.792705e+01	-5.822950e-04
5.826164e+01	-5.890406e-04
5.859815e+01	-5.958643e-04
5.893662e+01	-6.027671e-04
5.927703e+01	-6.097498e-04
5.961941e+01	-6.168135e-04
5.996377e+01	-6.239589e-04
6.031012e+01	-6.311871e-04
6.065847e+01	-6.384991e-04
6.100883e+01	-6.458957e-04
6.136121e+01	-6.533780e-04
6.171563e+01	-6.609470e-04
6.207210e+01	-6.686037e-04
6.243063e+01	-6.763490e-04
6.279122e+01	-6.841841e-04
6.315390e+01	-6.921099e-04
6.351868e+01	-7.001276e-04
6.388556e+01	-7.082381e-04
6.425456e+01	-7.164425e-04
6.462569e+01	-7.247420e-04
6.499897e+01	-7.331376e-04
6.537440e+01	-7.416305e-04
6.575200e+01	-7.502218e-04
6.613178e+01	-7.589125e-04
6.651375e+01	-7.677040e-04
6.689793e+01	-7.765972e-04
6.728433e+01	-7.855935e-04
6.767297e+01	-7.946940e-04
6.806384e+01	-8.038999e-04
6.845698e+01	-8.132124e-04
6.885238e+01	-8.226328e-04
6.925007e+01	-8.321623e-04
6.965005e+01	-8.418022e-04
7.005235e+01	-8.515538e-04
7.045697e+01	-8.614183e-04
7.086393e+01	-8.713970e-04
7.127323e+01	-8.814914e-04
7.168490e+01	-8.917027e-04
7.209895e+01	-9.020322e-04
7.251539e+01	-9.124814e-04
7.293424e+01	-9.230516e-04
7.335551e+01	-9.337443e-04
7.377920e+01	-9.445608e-04
7.420535e+01	-9.555026e-04
7.463396e+01	-9.665711e-04
7.506504e+01	-9.777678e-04
7.549861e+01	-9.890942e-04
7.593469e+01	-1.000552e-03
7.637328e+01	-1.012142e-03
7.681441e+01	-1.023867e-03
7.725809e+01	-1.035727e-03
7.770433e+01	-1.047725e-03
7.815315e+01	-1.059862e-03
7.860456e+01	-1.072139e-03
7.905857e+01	-1.084558e-03
7.951521e+01	-1.097122e-03
7.997449e+01	-1.109830e-03
8.043642e+01	-1.122686e-03
8.090102e+01	-1.135691e-03
8.136830e+01	-1.148847e-03
8.183828e+01	-1.162155e-03
8.231097e+01	-1.175617e-03
8.278640e+01	-1.189235e-03
8.326457e+01	-1.203011e-03
8.374550e+01	-1.216946e-03
8.422921e+01	-1.231042e-03
8.471572e+01	-1.245302e-03
8.520503e+01	-1.259727e-03
8.569717e+01	-1.274320e-03
8.619215e+01	-1.289081e-03
8.669000e+01	-1.304013e-03
8.719071e+01	-1.319118e-03
8.769432e+01	-1.334398e-03
8.820084e+01	-1.349855e-03
8.871029e+01	-1.365491e-03
8.922267e+01	-1.381308e-03
8.973802e+01	-1.397308e-03
9.025634e+01	-1.413494e-03
9.077766e+01	-1.429867e-03
9.130199e+01	-1.446429e-03
9.182935e+01	-1.463184e-03
9.235975e+01	-1.480132e-03
9.289321e+01	-1.497277e-03
9.342976e+01	-1.514620e-03
9.396941e+01	-1.532165e-03
9.451217e+01	-1.549912e-03
9.505807e+01	-1.567865e-03
9.560712e+01	-1.586026e-03
9.615934e+01	-1.604397e-03
9.671476e+01	-1.622981e-03
9.727338e+01	-1.641780e-03
9.783522e+01	-1.660797e-03
9.840032e+01	-1.680034e-03
9.896867e+01	-1.699494e-03
9.954031e+01	-1.719179e-03
1.001153e+02	-1.739092e-03
1.006935e+02	-1.759236e-03
1.012751e+02	-1.779613e-03
1.018601e+02	-1.800226e-03
1.024484e+02	-1.821077e-03
1.030402e+02	-1.842171e-03
1.036353e+02	-1.863508e-03
1.042339e+02	-1.885093e-03
1.048360e+02	-1.906927e-03
1.054415e+02	-1.929014e-03
1.060505e+02	-1.951358e-03
1.066631e+02	-1.973959e-03
1.072791e+02	-1.996823e-03
1.078988e+02	-2.019951e-03
1.085220e+02	-2.043348e-03
1.091488e+02	-2.067015e-03
1.097793e+02	-2.090956e-03
1.104133e+02	-2.115174e-03
1.110511e+02	-2.139673e-03
1.116925e+02	-2.164455e-03
1.123376e+02	-2.189525e-03
1.129865e+02	-2.214885e-03
1.136391e+02	-2.240538e-03
1.142955e+02	-2.266489e-03
1.149556e+02	-2.292739e-03
1.156196e+02	-2.319294e-03
1.162874e+02	-2.346157e-03
1.169591e+02	-2.373330e-03
1.176347e+02	-2.400818e-03
1.183141e+02	-2.428625e-03
1.189975e+02	-2.456753e-03
1.196848e+02	-2.485207e-03
1.203761e+02	-2.513990e-03
1.210714e+02	-2.543107e-03
1.217707e+02	-2.572561e-03
1.224740e+02	-2.602356e-03
1.231814e+02	-2.632495e-03
1.238929e+02	-2.662984e-03
1.246085e+02	-2.693826e-03
1.253283e+02	-2.725025e-03
1.260522e+02	-2.756585e-03
1.267802e+02	-2.788511e-03
1.275125e+02	-2.820806e-03
1.282490e+02	-2.853475e-03
1.289898e+02	-2.886522e-03
1.297348e+02	-2.919952e-03
1.304842e+02	-2.953769e-03
1.312378e+02	-2.987977e-03
1.319959e+02	-3.022582e-03
1.327583e+02	-3.057587e-03
1.335251e+02	-3.092997e-03
1.342963e+02	-3.128817e-03
1.350720e+02	-3.165052e-03
1.358522e+02	-3.201707e-03
1.366368e+02	-3.238785e-03
1.374260e+02	-3.276293e-03
1.382198e+02	-3.314236e-03
1.390182e+02	-3.352617e-03
1.398211e+02	-3.391443e-03
1.406287e+02	-3.430718e-03
1.414410e+02	-3.470448e-03
1.422579e+02	-3.510638e-03
1.430796e+02	-3.551293e-03
1.439060e+02	-3.592418e-03
1.447372e+02	-3.634020e-03
1.455732e+02	-3.676103e-03
1.464141e+02	-3.718673e-03
1.472597e+02	-3.761737e-03
1.481103e+02	-3.805298e-03
1.489658e+02	-3.849364e-03
1.498262e+02	-3.893940e-03
1.506916e+02	-3.939032e-03
1.515620e+02	-3.984645e-03
1.524374e+02	-4.030787e-03
1.533179e+02	-4.077463e-03
1.542034e+02	-4.124679e-03
1.550941e+02	-4.172441e-03
1.559899e+02	-4.220757e-03
1.568909e+02	-4.269631e-03
1.577971e+02	-4.319071e-03
1.587085e+02	-4.369084e-03
1.596252e+02	-4.419675e-03
1.605472e+02	-4.470851e-03
1.614745e+02	-4.522620e-03
1.624072e+02	-4.574988e-03
1.633453e+02	-4.627963e-03
1.642887e+02	-4.681550e-03
1.652377e+02	-4.735757e-03
1.661921e+02	-4.790592e-03
1.671520e+02	-4.846061e-03
1.681175e+02	-4.902172e-03
1.690885e+02	-4.958933e-03
1.700651e+02	-5.016350e-03
1.710474e+02	-5.074431e-03
1.720354e+02	-5.133185e-03
1.730291e+02	-5.192619e-03
1.740285e+02	-5.252740e-03
1.750337e+02	-5.313557e-03
1.760446e+02	-5.375078e-03
1.770615e+02	-5.437311e-03
1.780842e+02	-5.500263e-03
1.791128e+02	-5.563944e-03
1.801473e+02	-5.628362e-03
1.811878e+02	-5.693525e-03
1.822344e+02	-5.759443e-03
1.832870e+02	-5.826122e-03
1.843456e+02	-5.893574e-03
1.854104e+02	-5.961805e-03
1.864813e+02	-6.030826e-03
1.875584e+02	-6.100646e-03
1.886418e+02	-6.171273e-03
1.897313e+02	-6.242717e-03
1.908272e+02	-6.314988e-03
1.919294e+02	-6.388095e-03
1.930380e+02	-6.462047e-03
1.941530e+02	-6.536855e-03
1.952744e+02	-6.612529e-03
1.964023e+02	-6.689077e-03
1.975367e+02	-6.766511e-03
1.986777e+02	-6.844841e-03
1.998252e+02	-6.924077e-03
2.009794e+02	-7.004229e-03
2.021403e+02	-7.085309e-03
2.033078e+02	-7.167326e-03
2.044821e+02	-7.250292e-03
2.056632e+02	-7.334217e-03
2.068511e+02	-7.419113e-03
2.080459e+02	-7.504991e-03
2.092475e+02	-7.591862e-03
2.104561e+02	-7.679738e-03
2.116717e+02	-7.768630e-03
2.128943e+02	-7.858550e-03
2.141240e+02	-7.949509e-03
2.153608e+02	-8.041521e-03
2.166047e+02	-8.134597e-03
2.178558e+02	-8.228748e-03
2.191141e+02	-8.323989e-03
2.203797e+02	-8.420331e-03
2.216526e+02	-8.517787e-03
2.229329e+02	-8.616369e-03
2.242205e+02	-8.716091e-03
2.255156e+02	-8.816967e-03
2.268182e+02	-8.919008e-03
2.281283e+02	-9.022230e-03
2.294459e+02	-9.126644e-03
2.307712e+02	-9.232266e-03
2.321041e+02	-9.339109e-03
2.334447e+02	-9.447187e-03
2.347931e+02	-9.556514e-03
2.361493e+02	-9.667105e-03
2.375133e+02	-9.778975e-03
2.388851e+02	-9.892137e-03
2.402649e+02	-1.000661e-02
2.416527e+02	-1.012240e-02
2.430484e+02	-1.023953e-02
2.444523e+02	-1.035802e-02
2.458642e+02	-1.047787e-02
2.472843e+02	-1.059911e-02
2.487126e+02	-1.072176e-02
2.501492e+02	-1.084581e-02
2.515940e+02	-1.097131e-02
2.530472e+02	-1.109825e-02
2.545088e+02	-1.122666e-02
2.559789e+02	-1.135655e-02
2.574574e+02	-1.148795e-02
2.589444e+02	-1.162086e-02
2.604401e+02	-1.175531e-02
2.619444e+02	-1.189131e-02
2.634574e+02	-1.202888e-02
2.649791e+02	-1.216804e-02
2.665096e+02	-1.230881e-02
2.680489e+02	-1.245121e-02
2.695972e+02	-1.259525e-02
2.711544e+02	-1.274095e-02
2.727205e+02	-1.288834e-02
2.742958e+02	-1.303743e-02
2.758801e+02	-1.318824e-02
2.774736e+02	-1.334079e-02
2.790762e+02	-1.349511e-02
2.806882e+02	-1.365121e-02
2.823094e+02	-1.380911e-02
2.839400e+02	-1.396883e-02
2.855800e+02	-1.413040e-02
2.872295e+02	-1.429383e-02
2.888886e+02	-1.445915e-02
2.905572e+02	-1.462638e-02
2.922354e+02	-1.479555e-02
2.939234e+02	-1.496666e-02
2.956211e+02	-1.513975e-02
2.973286e+02	-1.531484e-02
2.990459e+02	-1.549195e-02
3.007732e+02	-1.567110e-02
3.025104e+02	-1.585232e-02
3.042577e+02	-1.603563e-02
3.060151e+02	-1.622106e-02
3.077826e+02	-1.640863e-02
3.095604e+02	-1.659836e-02
3.113484e+02	-1.679029e-02
3.131467e+02	-1.698443e-02
3.149554e+02	-1.718080e-02
3.167746e+02	-1.737945e-02
3.186043e+02	-1.758038e-02
3.204445e+02	-1.778364e-02
3.222954e+02	-1.798924e-02
3.241570e+02	-1.819721e-02
3.260293e+02	-1.840758e-02
3.279124e+02	-1.862038e-02
3.298064e+02	-1.883563e-02
3.317114e+02	-1.905337e-02
3.336273e+02	-1.927362e-02
3.355544e+02	-1.949640e-02
3.374925e+02	-1.972176e-02
3.394418e+02	-1.994971e-02
3.414024e+02	-2.018030e-02
3.433744e+02	-2.041354e-02
3.453577e+02	-2.064947e-02
3.473525e+02	-2.088812e-02
3.493588e+02	-2.112953e-02
3.513766e+02	-2.137371e-02
3.534062e+02	-2.162072e-02
3.554474e+02	-2.187056e-02
3.575005e+02	-2.212329e-02
3.595654e+02	-2.237894e-02
3.616422e+02	-2.263752e-02
3.637311e+02	-2.289909e-02
3.658320e+02	-2.316367e-02
3.679450e+02	-2.343130e-02
3.700702e+02	-2.370202e-02
3.722077e+02	-2.397585e-02
3.743576e+02	-2.425284e-02
3.765199e+02	-2.453302e-02
3.786946e+02	-2.481643e-02
3.808820e+02	-2.510310e-02
3.830819e+02	-2.539307e-02
3.852946e+02	-2.568638e-02
3.875200e+02	-2.598307e-02
3.897583e+02	-2.628318e-02
3.920096e+02	-2.658674e-02
3.942738e+02	-2.689380e-02
3.965511e+02	-2.720439e-02
3.988416e+02	-2.751856e-02
4.011452e+02	-2.783635e-02
4.034622e+02	-2.815779e-02
4.057926e+02	-2.848293e-02
4.081365e+02	-2.881182e-02
4.104938e+02	-2.914449e-02
4.128648e+02	-2.948098e-02
4.152495e+02	-2.982135e-02
4.176480e+02	-3.016564e-02
4.200603e+02	-3.051388e-02
4.224866e+02	-3.086613e-02
4.249268e+02	-3.122244e-02
4.273812e+02	-3.158284e-02
4.298497e+02	-3.194738e-02
4.323325e+02	-3.231612e-02
4.348297e+02	-3.268910e-02
4.373412e+02	-3.306636e-02
4.398673e+02	-3.344797e-02
4.424079e+02	-3.383396e-02
4.449633e+02	-3.422438e-02
4.475334e+02	-3.461930e-02
4.501183e+02	-3.501875e-02
4.527182e+02	-3.542279e-02
4.553330e+02	-3.583148e-02
4.579630e+02	-3.624486e-02
4.606082e+02	-3.666299e-02
4.632687e+02	-3.708592e-02
4.659445e+02	-3.751371e-02
4.686358e+02	-3.794641e-02
4.713426e+02	-3.838408e-02
4.740650e+02	-3.882678e-02
4.768032e+02	-3.927456e-02
4.795572e+02	-3.972748e-02
4.823271e+02	-4.018560e-02
4.851130e+02	-4.064898e-02
4.879150e+02	-4.111767e-02
4.907332e+02	-4.159174e-02
4.935676e+02	-4.207126e-02
4.964185e+02	-4.255627e-02
4.992858e+02	-4.304685e-02
5.021696e+02	-4.354305e-02
5.050701e+02	-4.404495e-02
5.079874e+02	-4.455259e-02
5.109215e+02	-4.506607e-02
5.138726e+02	-4.558542e-02
5.168407e+02	-4.611073e-02
5.198259e+02	-4.664206e-02
5.228284e+02	-4.717948e-02
5.258482e+02	-4.772306e-02
5.288855e+02	-4.827287e-02
5.319403e+02	-4.882897e-02
5.350128e+02	-4.939145e-02
5.381030e+02	-4.996036e-02
5.412111e+02	-5.053579e-02
5.443371e+02	-5.111781e-02
5.474812e+02	-5.170649e-02
5.506434e+02	-5.230192e-02
5.538239e+02	-5.290415e-02
5.570228e+02	-5.351328e-02
5.602401e+02	-5.412938e-02
5.634760e+02	-5.475252e-02
5.667306e+02	-5.538279e-02
5.700040e+02	-5.602027e-02
5.732964e+02	-5.666504e-02
5.766077e+02	-5.731719e-02
5.799382e+02	-5.797678e-02
5.832879e+02	-5.864392e-02
5.866569e+02	-5.931868e-02
5.900454e+02	-6.000115e-02
5.934535e+02	-6.069142e-02
5.968813e+02	-6.138957e-02
6.003288e+02	-6.209570e-02
6.037963e+02	-6.280989e-02
6.072838e+02	-6.353223e-02
6.107914e+02	-6.426282e-02
6.143194e+02	-6.500175e-02
6.178676e+02	-6.574911e-02
6.214364e+02	-6.650499e-02
6.250258e+02	-6.726950e-02
6.286359e+02	-6.804273e-02
6.322669e+02	-6.882477e-02
6.359189e+02	-6.961573e-02
6.395919e+02	-7.041571e-02
6.432862e+02	-7.122480e-02
6.470017e+02	-7.204312e-02
6.507388e+02	-7.287075e-02
6.544974e+02	-7.370782e-02
6.582778e+02	-7.455441e-02
6.620800e+02	-7.541065e-02
6.659041e+02	-7.627663e-02
6.697504e+02	-7.715247e-02
6.736188e+02	-7.803827e-02
6.775096e+02	-7.893415e-02
6.814229e+02	-7.984022e-02
6.853587e+02	-8.075660e-02
6.893173e+02	-8.168339e-02
6.932988e+02	-8.262072e-02
6.973033e+02	-8.356870e-02
7.013309e+02	-8.452745e-02
