Frequency(Hz)	Magnitude(dB)
1.000000e+01	-2.190125e+00
1.005776e+01	-2.210248e+00
1.011585e+01	-2.230153e+00
1.017428e+01	-2.250416e+00
1.023305e+01	-2.270849e+00
1.029215e+01	-2.290981e+00
1.035160e+01	-2.311579e+00
1.041139e+01	-2.332286e+00
1.047153e+01	-2.353147e+00
1.053201e+01	-2.374148e+00
1.059284e+01	-2.395503e+00
1.065403e+01	-2.416663e+00
1.071556e+01	-2.437928e+00
1.077746e+01	-2.459382e+00
1.083971e+01	-2.481144e+00
1.090232e+01	-2.503217e+00
1.096529e+01	-2.525276e+00
1.102862e+01	-2.547337e+00
1.109232e+01	-2.569520e+00
1.115639e+01	-2.591828e+00
1.122083e+01	-2.614375e+00
1.128564e+01	-2.637101e+00
1.135083e+01	-2.660106e+00
1.141639e+01	-2.683150e+00
1.148233e+01	-2.706040e+00
1.154865e+01	-2.729281e+00
1.161536e+01	-2.752915e+00
1.168245e+01	-2.776491e+00
1.174992e+01	-2.800017e+00
1.181779e+01	-2.824013e+00
1.188605e+01	-2.848079e+00
1.195470e+01	-2.871909e+00
1.202375e+01	-2.896212e+00
1.209320e+01	-2.920861e+00
1.216305e+01	-2.945425e+00
1.223330e+01	-2.970080e+00
1.230396e+01	-2.994898e+00
1.237503e+01	-3.019843e+00
1.244651e+01	-3.045036e+00
1.251840e+01	-3.070390e+00
1.259070e+01	-3.095772e+00
1.266343e+01	-3.121265e+00
1.273657e+01	-3.146835e+00
1.281014e+01	-3.172539e+00
1.288413e+01	-3.198883e+00
1.295855e+01	-3.224803e+00
1.303339e+01	-3.251437e+00
1.310867e+01	-3.277735e+00
1.318439e+01	-3.304317e+00
1.326054e+01	-3.331164e+00
1.333713e+01	-3.357771e+00
1.341417e+01	-3.385136e+00
1.349165e+01	-3.412067e+00
1.356958e+01	-3.439387e+00
1.364795e+01	-3.466767e+00
1.372678e+01	-3.494331e+00
1.380607e+01	-3.522249e+00
1.388581e+01	-3.549897e+00
1.396602e+01	-3.578034e+00
1.404668e+01	-3.606014e+00
1.412782e+01	-3.634623e+00
1.420942e+01	-3.662800e+00
1.429149e+01	-3.691139e+00
1.437404e+01	-3.720292e+00
1.445706e+01	-3.748969e+00
1.454057e+01	-3.778081e+00
1.462455e+01	-3.807212e+00
1.470902e+01	-3.836508e+00
1.479398e+01	-3.865724e+00
1.487943e+01	-3.895239e+00
1.496537e+01	-3.925085e+00
1.505181e+01	-3.954665e+00
1.513875e+01	-3.984878e+00
1.522619e+01	-4.014896e+00
1.531414e+01	-4.045297e+00
1.540259e+01	-4.075517e+00
1.549156e+01	-4.106240e+00
1.558103e+01	-4.136876e+00
1.567103e+01	-4.167718e+00
1.576155e+01	-4.198476e+00
1.585258e+01	-4.229431e+00
1.594415e+01	-4.260718e+00
1.603624e+01	-4.291907e+00
1.612886e+01	-4.323438e+00
1.622202e+01	-4.355113e+00
1.631572e+01	-4.386902e+00
1.640996e+01	-4.418658e+00
1.650474e+01	-4.450786e+00
1.660008e+01	-4.482934e+00
1.669596e+01	-4.515157e+00
1.679239e+01	-4.547558e+00
1.688938e+01	-4.579987e+00
1.698694e+01	-4.613037e+00
1.708505e+01	-4.645676e+00
1.718373e+01	-4.678644e+00
1.728299e+01	-4.711470e+00
1.738281e+01	-4.744630e+00
1.748322e+01	-4.778017e+00
1.758420e+01	-4.811856e+00
1.768576e+01	-4.845324e+00
1.778792e+01	-4.878658e+00
1.789066e+01	-4.912911e+00
1.799399e+01	-4.946742e+00
1.809793e+01	-4.980498e+00
1.820246e+01	-5.014693e+00
1.830760e+01	-5.048772e+00
1.841334e+01	-5.083952e+00
1.851969e+01	-5.118123e+00
1.862666e+01	-5.153158e+00
1.873425e+01	-5.187493e+00
1.884246e+01	-5.222711e+00
1.895129e+01	-5.257737e+00
1.906075e+01	-5.292742e+00
1.917085e+01	-5.327864e+00
1.928158e+01	-5.363690e+00
1.939295e+01	-5.399095e+00
1.950496e+01	-5.434723e+00
1.961762e+01	-5.471021e+00
1.973093e+01	-5.506791e+00
1.984490e+01	-5.542869e+00
1.995952e+01	-5.578478e+00
2.007480e+01	-5.614978e+00
2.019076e+01	-5.650976e+00
2.030738e+01	-5.687537e+00
2.042467e+01	-5.724275e+00
2.054264e+01	-5.760932e+00
2.066130e+01	-5.797810e+00
2.078064e+01	-5.834641e+00
2.090066e+01	-5.871940e+00
2.102139e+01	-5.908762e+00
2.114280e+01	-5.945996e+00
2.126492e+01	-5.983232e+00
2.138775e+01	-6.020661e+00
2.151128e+01	-6.058418e+00
2.163553e+01	-6.096098e+00
2.176050e+01	-6.133624e+00
2.188619e+01	-6.171788e+00
2.201260e+01	-6.210207e+00
2.213974e+01	-6.247859e+00
2.226762e+01	-6.286163e+00
2.239624e+01	-6.324406e+00
2.252560e+01	-6.362311e+00
2.265571e+01	-6.401229e+00
2.278656e+01	-6.439999e+00
2.291818e+01	-6.479095e+00
2.305055e+01	-6.517788e+00
2.318369e+01	-6.556178e+00
2.331760e+01	-6.595685e+00
2.345228e+01	-6.634460e+00
2.358774e+01	-6.674012e+00
2.372398e+01	-6.712825e+00
2.386101e+01	-6.752685e+00
2.399883e+01	-6.791880e+00
2.413745e+01	-6.831526e+00
2.427686e+01	-6.871170e+00
2.441709e+01	-6.911370e+00
2.455812e+01	-6.951024e+00
2.469997e+01	-6.990901e+00
2.484263e+01	-7.030819e+00
2.498612e+01	-7.071260e+00
2.513044e+01	-7.111865e+00
2.527559e+01	-7.151572e+00
2.542158e+01	-7.192076e+00
2.556842e+01	-7.232881e+00
2.571610e+01	-7.273151e+00
2.586463e+01	-7.313969e+00
2.601403e+01	-7.354866e+00
2.616428e+01	-7.395773e+00
2.631541e+01	-7.436618e+00
2.646740e+01	-7.477924e+00
2.662028e+01	-7.518707e+00
2.677404e+01	-7.560109e+00
2.692868e+01	-7.601270e+00
2.708422e+01	-7.642652e+00
2.724066e+01	-7.684388e+00
2.739800e+01	-7.725720e+00
2.755625e+01	-7.767482e+00
2.771541e+01	-7.808826e+00
2.787550e+01	-7.850711e+00
2.803650e+01	-7.892751e+00
2.819844e+01	-7.934740e+00
2.836131e+01	-7.976584e+00
2.852513e+01	-8.018682e+00
2.868989e+01	-8.060986e+00
2.885560e+01	-8.103257e+00
2.902227e+01	-8.145470e+00
2.918990e+01	-8.187722e+00
2.935850e+01	-8.230200e+00
2.952807e+01	-8.272858e+00
2.969863e+01	-8.315713e+00
2.987016e+01	-8.357893e+00
3.004269e+01	-8.401044e+00
3.021622e+01	-8.443768e+00
3.039075e+01	-8.486750e+00
3.056628e+01	-8.529522e+00
3.074283e+01	-8.572445e+00
3.092040e+01	-8.615687e+00
3.109900e+01	-8.658882e+00
3.127862e+01	-8.701901e+00
3.145929e+01	-8.745571e+00
3.164099e+01	-8.788880e+00
3.182375e+01	-8.832535e+00
3.200756e+01	-8.875879e+00
3.219244e+01	-8.919037e+00
3.237838e+01	-8.962537e+00
3.256540e+01	-9.006366e+00
3.275349e+01	-9.050255e+00
3.294268e+01	-9.094733e+00
3.313295e+01	-9.138152e+00
3.332433e+01	-9.181924e+00
3.351681e+01	-9.226486e+00
3.371040e+01	-9.270103e+00
3.390511e+01	-9.314377e+00
3.410094e+01	-9.358800e+00
3.429791e+01	-9.402824e+00
3.449601e+01	-9.447274e+00
3.469526e+01	-9.491668e+00
3.489566e+01	-9.536022e+00
3.509721e+01	-9.580431e+00
3.529993e+01	-9.625328e+00
3.550382e+01	-9.670172e+00
3.570889e+01	-9.714235e+00
3.591515e+01	-9.759059e+00
3.612259e+01	-9.803865e+00
3.633123e+01	-9.848351e+00
3.654108e+01	-9.893662e+00
3.675214e+01	-9.938762e+00
3.696442e+01	-9.983594e+00
3.717792e+01	-1.002830e+01
3.739266e+01	-1.007304e+01
3.760864e+01	-1.011852e+01
3.782587e+01	-1.016339e+01
3.804435e+01	-1.020915e+01
3.826409e+01	-1.025472e+01
3.848510e+01	-1.029911e+01
3.870739e+01	-1.034498e+01
3.893096e+01	-1.039066e+01
3.915583e+01	-1.043622e+01
3.938199e+01	-1.048216e+01
3.960946e+01	-1.052719e+01
3.983824e+01	-1.057286e+01
4.006834e+01	-1.061822e+01
4.029978e+01	-1.066372e+01
4.053255e+01	-1.071004e+01
4.076666e+01	-1.075535e+01
4.100213e+01	-1.080137e+01
4.123896e+01	-1.084730e+01
4.147715e+01	-1.089389e+01
4.171672e+01	-1.093940e+01
4.195767e+01	-1.098553e+01
4.220002e+01	-1.103128e+01
4.244377e+01	-1.107752e+01
4.268892e+01	-1.112337e+01
4.293549e+01	-1.117012e+01
4.318348e+01	-1.121535e+01
4.343291e+01	-1.126192e+01
4.368377e+01	-1.130810e+01
4.393609e+01	-1.135525e+01
4.418986e+01	-1.140162e+01
4.444510e+01	-1.144821e+01
4.470182e+01	-1.149418e+01
4.496001e+01	-1.154104e+01
4.521970e+01	-1.158711e+01
4.548089e+01	-1.163423e+01
4.574358e+01	-1.168088e+01
4.600779e+01	-1.172728e+01
4.627353e+01	-1.177331e+01
4.654081e+01	-1.182041e+01
4.680963e+01	-1.186723e+01
4.708000e+01	-1.191379e+01
4.735193e+01	-1.196114e+01
4.762543e+01	-1.200758e+01
4.790051e+01	-1.205451e+01
4.817719e+01	-1.210134e+01
4.845545e+01	-1.214845e+01
4.873533e+01	-1.219593e+01
4.901682e+01	-1.224276e+01
4.929994e+01	-1.228958e+01
4.958470e+01	-1.233666e+01
4.987110e+01	-1.238323e+01
5.015915e+01	-1.243021e+01
5.044887e+01	-1.247789e+01
5.074026e+01	-1.252532e+01
5.103333e+01	-1.257297e+01
5.132810e+01	-1.261949e+01
5.162457e+01	-1.266720e+01
5.192275e+01	-1.271481e+01
5.222265e+01	-1.276111e+01
5.252429e+01	-1.280966e+01
5.282767e+01	-1.285693e+01
5.313280e+01	-1.290437e+01
5.343969e+01	-1.295103e+01
5.374836e+01	-1.299923e+01
5.405880e+01	-1.304660e+01
5.437105e+01	-1.309446e+01
5.468509e+01	-1.314237e+01
5.500095e+01	-1.318925e+01
5.531863e+01	-1.323611e+01
5.563815e+01	-1.328441e+01
5.595951e+01	-1.333265e+01
5.628273e+01	-1.337969e+01
5.660782e+01	-1.342806e+01
5.693479e+01	-1.347560e+01
5.726364e+01	-1.352387e+01
5.759439e+01	-1.357139e+01
5.792705e+01	-1.361874e+01
5.826164e+01	-1.366719e+01
5.859815e+01	-1.371432e+01
5.893662e+01	-1.376213e+01
5.927703e+01	-1.380976e+01
5.961941e+01	-1.385780e+01
5.996377e+01	-1.390682e+01
6.031012e+01	-1.395440e+01
6.065847e+01	-1.400116e+01
6.100883e+01	-1.405087e+01
6.136121e+01	-1.409885e+01
6.171563e+01	-1.414748e+01
6.207210e+01	-1.419525e+01
6.243063e+01	-1.424361e+01
6.279122e+01	-1.429087e+01
6.315390e+01	-1.433942e+01
6.351868e+01	-1.438811e+01
6.388556e+01	-1.443590e+01
6.425456e+01	-1.448418e+01
6.462569e+01	-1.453225e+01
6.499897e+01	-1.457947e+01
6.537440e+01	-1.462847e+01
6.575200e+01	-1.467686e+01
6.613178e+01	-1.472595e+01
6.651375e+01	-1.477379e+01
6.689793e+01	-1.482268e+01
6.728433e+01	-1.487004e+01
6.767297e+01	-1.491976e+01
6.806384e+01	-1.496726e+01
6.845698e+01	-1.501574e+01
6.885238e+01	-1.506503e+01
6.925007e+01	-1.511339e+01
6.965005e+01	-1.516090e+01
7.005235e+01	-1.521030e+01
7.045697e+01	-1.525907e+01
7.086393e+01	-1.530739e+01
7.127323e+01	-1.535527e+01
7.168490e+01	-1.540373e+01
7.209895e+01	-1.545202e+01
7.251539e+01	-1.550127e+01
7.293424e+01	-1.554927e+01
7.335551e+01	-1.559882e+01
7.377920e+01	-1.564792e+01
7.420535e+01	-1.569569e+01
7.463396e+01	-1.574383e+01
7.506504e+01	-1.579274e+01
7.549861e+01	-1.584149e+01
7.593469e+01	-1.588982e+01
7.637328e+01	-1.593906e+01
7.681441e+01	-1.598810e+01
7.725809e+01	-1.603750e+01
7.770433e+01	-1.608636e+01
7.815315e+01	-1.613528e+01
7.860456e+01	-1.618419e+01
7.905857e+01	-1.623150e+01
7.951521e+01	-1.628076e+01
7.997449e+01	-1.633007e+01
8.043642e+01	-1.637808e+01
8.090102e+01	-1.642782e+01
8.136830e+01	-1.647681e+01
8.183828e+01	-1.652517e+01
8.231097e+01	-1.657376e+01
8.278640e+01	-1.662388e+01
8.326457e+01	-1.667246e+01
8.374550e+01	-1.672013e+01
8.422921e+01	-1.677035e+01
8.471572e+01	-1.681846e+01
8.520503e+01	-1.686898e+01
8.569717e+01	-1.691764e+01
8.619215e+01	-1.696642e+01
8.669000e+01	-1.701468e+01
8.719071e+01	-1.706427e+01
8.769432e+01	-1.711417e+01
8.820084e+01	-1.716170e+01
8.871029e+01	-1.721121e+01
8.922267e+01	-1.726001e+01
8.973802e+01	-1.731055e+01
9.025634e+01	-1.735827e+01
9.077766e+01	-1.740785e+01
9.130199e+01	-1.745679e+01
9.182935e+01	-1.750623e+01
9.235975e+01	-1.755530e+01
9.289321e+01	-1.760407e+01
9.342976e+01	-1.765269e+01
9.396941e+01	-1.770408e+01
9.451217e+01	-1.775226e+01
9.505807e+01	-1.780123e+01
9.560712e+01	-1.785140e+01
9.615934e+01	-1.790037e+01
9.671476e+01	-1.794991e+01
9.727338e+01	-1.799861e+01
9.783522e+01	-1.804735e+01
9.840032e+01	-1.809821e+01
9.896867e+01	-1.814553e+01
9.954031e+01	-1.819514e+01
1.001153e+02	-1.824453e+01
1.006935e+02	-1.829455e+01
1.012751e+02	-1.834301e+01
1.018601e+02	-1.839356e+01
1.024484e+02	-1.844178e+01
1.030402e+02	-1.849090e+01
1.036353e+02	-1.853984e+01
1.042339e+02	-1.859071e+01
1.048360e+02	-1.863874e+01
1.054415e+02	-1.868655e+01
1.060505e+02	-1.873670e+01
1.066631e+02	-1.878527e+01
1.072791e+02	-1.883854e+01
1.078988e+02	-1.888542e+01
1.085220e+02	-1.893532e+01
1.091488e+02	-1.898442e+01
1.097793e+02	-1.903419e+01
1.104133e+02	-1.908294e+01
1.110511e+02	-1.913207e+01
1.116925e+02	-1.918257e+01
1.123376e+02	-1.923273e+01
1.129865e+02	-1.928098e+01
1.136391e+02	-1.933147e+01
1.142955e+02	-1.938002e+01
1.149556e+02	-1.942847e+01
1.156196e+02	-1.947888e+01
1.162874e+02	-1.952893e+01
1.169591e+02	-1.957882e+01
1.176347e+02	-1.962759e+01
1.183141e+02	-1.967759e+01
1.189975e+02	-1.972761e+01
1.196848e+02	-1.977700e+01
1.203761e+02	-1.982590e+01
1.210714e+02	-1.987637e+01
1.217707e+02	-1.992399e+01
1.224740e+02	-1.997413e+01
1.231814e+02	-2.002565e+01
1.238929e+02	-2.007317e+01
1.246085e+02	-2.012284e+01
1.253283e+02	-2.017318e+01
1.260522e+02	-2.022122e+01
1.267802e+02	-2.027175e+01
1.275125e+02	-2.032243e+01
1.282490e+02	-2.036994e+01
1.289898e+02	-2.041986e+01
1.297348e+02	-2.046948e+01
1.304842e+02	-2.051647e+01
1.312378e+02	-2.056947e+01
1.319959e+02	-2.061824e+01
1.327583e+02	-2.066951e+01
1.335251e+02	-2.071792e+01
1.342963e+02	-2.076794e+01
1.350720e+02	-2.081554e+01
1.358522e+02	-2.086631e+01
1.366368e+02	-2.091653e+01
1.374260e+02	-2.096501e+01
1.382198e+02	-2.101694e+01
1.390182e+02	-2.106376e+01
1.398211e+02	-2.111425e+01
1.406287e+02	-2.116501e+01
1.414410e+02	-2.121350e+01
1.422579e+02	-2.126357e+01
1.430796e+02	-2.131258e+01
1.439060e+02	-2.136328e+01
1.447372e+02	-2.141274e+01
1.455732e+02	-2.146074e+01
1.464141e+02	-2.151229e+01
1.472597e+02	-2.156113e+01
1.481103e+02	-2.161072e+01
1.489658e+02	-2.166066e+01
1.498262e+02	-2.171143e+01
1.506916e+02	-2.176231e+01
1.515620e+02	-2.181007e+01
1.524374e+02	-2.185882e+01
1.533179e+02	-2.190921e+01
1.542034e+02	-2.196052e+01
1.550941e+02	-2.200865e+01
1.559899e+02	-2.205995e+01
1.568909e+02	-2.210858e+01
1.577971e+02	-2.215890e+01
1.587085e+02	-2.220872e+01
1.596252e+02	-2.225697e+01
1.605472e+02	-2.230872e+01
1.614745e+02	-2.235830e+01
1.624072e+02	-2.240645e+01
1.633453e+02	-2.245639e+01
1.642887e+02	-2.250671e+01
1.652377e+02	-2.255802e+01
1.661921e+02	-2.260613e+01
1.671520e+02	-2.265606e+01
1.681175e+02	-2.270530e+01
1.690885e+02	-2.275455e+01
1.700651e+02	-2.280409e+01
1.710474e+02	-2.285547e+01
1.720354e+02	-2.290392e+01
1.730291e+02	-2.295470e+01
1.740285e+02	-2.300426e+01
1.750337e+02	-2.305524e+01
1.760446e+02	-2.310238e+01
1.770615e+02	-2.315347e+01
1.780842e+02	-2.320521e+01
1.791128e+02	-2.325529e+01
1.801473e+02	-2.330247e+01
1.811878e+02	-2.335167e+01
1.822344e+02	-2.340574e+01
1.832870e+02	-2.345318e+01
1.843456e+02	-2.350170e+01
1.854104e+02	-2.354986e+01
1.864813e+02	-2.360259e+01
1.875584e+02	-2.365135e+01
1.886418e+02	-2.369959e+01
1.897313e+02	-2.375051e+01
1.908272e+02	-2.380023e+01
1.919294e+02	-2.384958e+01
1.930380e+02	-2.390194e+01
1.941530e+02	-2.394931e+01
1.952744e+02	-2.399998e+01
1.964023e+02	-2.405289e+01
1.975367e+02	-2.410176e+01
1.986777e+02	-2.415348e+01
1.998252e+02	-2.420126e+01
2.009794e+02	-2.425050e+01
2.021403e+02	-2.430130e+01
2.033078e+02	-2.435128e+01
2.044821e+02	-2.440145e+01
2.056632e+02	-2.444852e+01
2.068511e+02	-2.450031e+01
2.080459e+02	-2.454975e+01
2.092475e+02	-2.460127e+01
2.104561e+02	-2.464930e+01
2.116717e+02	-2.469882e+01
2.128943e+02	-2.474899e+01
2.141240e+02	-2.479578e+01
2.153608e+02	-2.484787e+01
2.166047e+02	-2.489855e+01
2.178558e+02	-2.495132e+01
2.191141e+02	-2.499666e+01
2.203797e+02	-2.505085e+01
2.216526e+02	-2.509785e+01
2.229329e+02	-2.514633e+01
2.242205e+02	-2.519917e+01
2.255156e+02	-2.524869e+01
2.268182e+02	-2.530173e+01
2.281283e+02	-2.534880e+01
2.294459e+02	-2.539851e+01
2.307712e+02	-2.544873e+01
2.321041e+02	-2.550072e+01
2.334447e+02	-2.555069e+01
2.347931e+02	-2.559535e+01
2.361493e+02	-2.564822e+01
2.375133e+02	-2.569665e+01
2.388851e+02	-2.574932e+01
2.402649e+02	-2.579316e+01
2.416527e+02	-2.584660e+01
2.430484e+02	-2.589755e+01
2.444523e+02	-2.594738e+01
2.458642e+02	-2.599664e+01
2.472843e+02	-2.604826e+01
2.487126e+02	-2.609753e+01
2.501492e+02	-2.614635e+01
2.515940e+02	-2.619942e+01
2.530472e+02	-2.624545e+01
2.545088e+02	-2.629799e+01
2.559789e+02	-2.634679e+01
2.574574e+02	-2.639865e+01
2.589444e+02	-2.644735e+01
2.604401e+02	-2.649790e+01
2.619444e+02	-2.654569e+01
2.634574e+02	-2.659715e+01
2.649791e+02	-2.664618e+01
2.665096e+02	-2.669394e+01
2.680489e+02	-2.675105e+01
2.695972e+02	-2.679632e+01
2.711544e+02	-2.684835e+01
2.727205e+02	-2.689746e+01
2.742958e+02	-2.694767e+01
2.758801e+02	-2.699686e+01
2.774736e+02	-2.704737e+01
2.790762e+02	-2.709717e+01
2.806882e+02	-2.714881e+01
2.823094e+02	-2.720097e+01
2.839400e+02	-2.725023e+01
2.855800e+02	-2.729534e+01
2.872295e+02	-2.734584e+01
2.888886e+02	-2.739507e+01
2.905572e+02	-2.744981e+01
2.922354e+02	-2.749663e+01
2.939234e+02	-2.754679e+01
2.956211e+02	-2.759814e+01
2.973286e+02	-2.764656e+01
2.990459e+02	-2.769630e+01
3.007732e+02	-2.774529e+01
3.025104e+02	-2.779922e+01
3.042577e+02	-2.784584e+01
3.060151e+02	-2.789903e+01
3.077826e+02	-2.794844e+01
3.095604e+02	-2.799562e+01
3.113484e+02	-2.804656e+01
3.131467e+02	-2.809728e+01
3.149554e+02	-2.815000e+01
3.167746e+02	-2.819231e+01
3.186043e+02	-2.824800e+01
3.204445e+02	-2.829734e+01
3.222954e+02	-2.834659e+01
3.241570e+02	-2.839618e+01
3.260293e+02	-2.844799e+01
3.279124e+02	-2.849549e+01
3.298064e+02	-2.854862e+01
3.317114e+02	-2.859539e+01
3.336273e+02	-2.865209e+01
3.355544e+02	-2.869663e+01
3.374925e+02	-2.874707e+01
3.394418e+02	-2.879655e+01
3.414024e+02	-2.884723e+01
3.433744e+02	-2.890298e+01
3.453577e+02	-2.894819e+01
3.473525e+02	-2.899923e+01
3.493588e+02	-2.904677e+01
3.513766e+02	-2.910163e+01
3.534062e+02	-2.914743e+01
3.554474e+02	-2.919975e+01
3.575005e+02	-2.924500e+01
3.595654e+02	-2.929745e+01
3.616422e+02	-2.935005e+01
3.637311e+02	-2.939566e+01
3.658320e+02	-2.944581e+01
3.679450e+02	-2.950029e+01
3.700702e+02	-2.954921e+01
3.722077e+02	-2.960386e+01
3.743576e+02	-2.965072e+01
3.765199e+02	-2.969801e+01
3.786946e+02	-2.974844e+01
3.808820e+02	-2.980127e+01
3.830819e+02	-2.984719e+01
3.852946e+02	-2.990078e+01
3.875200e+02	-2.995125e+01
3.897583e+02	-2.999892e+01
3.920096e+02	-3.004897e+01
3.942738e+02	-3.009708e+01
3.965511e+02	-3.015042e+01
3.988416e+02	-3.019996e+01
4.011452e+02	-3.024737e+01
4.034622e+02	-3.029623e+01
4.057926e+02	-3.035249e+01
4.081365e+02	-3.040120e+01
4.104938e+02	-3.045018e+01
4.128648e+02	-3.050129e+01
4.152495e+02	-3.055033e+01
4.176480e+02	-3.060127e+01
4.200603e+02	-3.065066e+01
4.224866e+02	-3.070204e+01
4.249268e+02	-3.074678e+01
4.273812e+02	-3.080384e+01
4.298497e+02	-3.084825e+01
4.323325e+02	-3.090326e+01
4.348297e+02	-3.094975e+01
4.373412e+02	-3.100294e+01
4.398673e+02	-3.105571e+01
4.424079e+02	-3.110655e+01
4.449633e+02	-3.115920e+01
4.475334e+02	-3.119811e+01
4.501183e+02	-3.125952e+01
4.527182e+02	-3.130248e+01
4.553330e+02	-3.135245e+01
4.579630e+02	-3.139899e+01
4.606082e+02	-3.145437e+01
4.632687e+02	-3.150039e+01
4.659445e+02	-3.155306e+01
4.686358e+02	-3.160251e+01
4.713426e+02	-3.165748e+01
4.740650e+02	-3.169918e+01
4.768032e+02	-3.175904e+01
4.795572e+02	-3.180185e+01
4.823271e+02	-3.185112e+01
4.851130e+02	-3.191173e+01
4.879150e+02	-3.195389e+01
4.907332e+02	-3.200841e+01
4.935676e+02	-3.205313e+01
4.964185e+02	-3.210599e+01
4.992858e+02	-3.215809e+01
5.021696e+02	-3.220550e+01
5.050701e+02	-3.225870e+01
5.079874e+02	-3.230544e+01
5.109215e+02	-3.235542e+01
5.138726e+02	-3.240557e+01
5.168407e+02	-3.246101e+01
5.198259e+02	-3.251367e+01
5.228284e+02	-3.255143e+01
5.258482e+02	-3.260548e+01
5.288855e+02	-3.265591e+01
5.319403e+02	-3.271610e+01
5.350128e+02	-3.276115e+01
5.381030e+02	-3.280924e+01
5.412111e+02	-3.285836e+01
5.443371e+02	-3.291227e+01
5.474812e+02	-3.296191e+01
5.506434e+02	-3.301457e+01
5.538239e+02	-3.306057e+01
5.570228e+02	-3.310803e+01
5.602401e+02	-3.315746e+01
5.634760e+02	-3.321922e+01
5.667306e+02	-3.326369e+01
5.700040e+02	-3.331111e+01
5.732964e+02	-3.336050e+01
5.766077e+02	-3.340498e+01
5.799382e+02	-3.345997e+01
5.832879e+02	-3.351251e+01
5.866569e+02	-3.355776e+01
5.900454e+02	-3.361287e+01
5.934535e+02	-3.366517e+01
5.968813e+02	-3.370885e+01
6.003288e+02	-3.376377e+01
6.037963e+02	-3.381931e+01
6.072838e+02	-3.386611e+01
6.107914e+02	-3.391845e+01
6.143194e+02	-3.395837e+01
6.178676e+02	-3.401152e+01
6.214364e+02	-3.406991e+01
6.250258e+02	-3.411192e+01
6.286359e+02	-3.416781e+01
6.322669e+02	-3.421242e+01
6.359189e+02	-3.426930e+01
6.395919e+02	-3.431403e+01
6.432862e+02	-3.436886e+01
6.470017e+02	-3.441415e+01
6.507388e+02	-3.447201e+01
6.544974e+02	-3.452455e+01
6.582778e+02	-3.456929e+01
6.620800e+02	-3.461585e+01
6.659041e+02	-3.467770e+01
6.697504e+02	-3.471974e+01
6.736188e+02	-3.477069e+01
6.775096e+02	-3.481857e+01
6.814229e+02	-3.486840e+01
6.853587e+02	-3.492543e+01
6.893173e+02	-3.497238e+01
6.932988e+02	-3.501801e+01
6.973033e+02	-3.507518e+01
7.013309e+02	-3.512638e+01
