Frequency(Hz)	Magnitude(dB)
1.000000e+01	-1.865283e-05
1.005776e+01	-1.886893e-05
1.011585e+01	-1.908753e-05
1.017428e+01	-1.930866e-05
1.023305e+01	-1.953236e-05
1.029215e+01	-1.975865e-05
1.035160e+01	-1.998756e-05
1.041139e+01	-2.021912e-05
1.047153e+01	-2.045336e-05
1.053201e+01	-2.069032e-05
1.059284e+01	-2.093002e-05
1.065403e+01	-2.117250e-05
1.071556e+01	-2.141779e-05
1.077746e+01	-2.166592e-05
1.083971e+01	-2.191693e-05
1.090232e+01	-2.217084e-05
1.096529e+01	-2.242769e-05
1.102862e+01	-2.268752e-05
1.109232e+01	-2.295036e-05
1.115639e+01	-2.321625e-05
1.122083e+01	-2.348522e-05
1.128564e+01	-2.375730e-05
1.135083e+01	-2.403253e-05
1.141639e+01	-2.431095e-05
1.148233e+01	-2.459260e-05
1.154865e+01	-2.487751e-05
1.161536e+01	-2.516573e-05
1.168245e+01	-2.545728e-05
1.174992e+01	-2.575221e-05
1.181779e+01	-2.605055e-05
1.188605e+01	-2.635235e-05
1.195470e+01	-2.665765e-05
1.202375e+01	-2.696649e-05
1.209320e+01	-2.727890e-05
1.216305e+01	-2.759493e-05
1.223330e+01	-2.791463e-05
1.230396e+01	-2.823803e-05
1.237503e+01	-2.856517e-05
1.244651e+01	-2.889611e-05
1.251840e+01	-2.923087e-05
1.259070e+01	-2.956952e-05
1.266343e+01	-2.991209e-05
1.273657e+01	-3.025863e-05
1.281014e+01	-3.060918e-05
1.288413e+01	-3.096380e-05
1.295855e+01	-3.132252e-05
1.303339e+01	-3.168540e-05
1.310867e+01	-3.205248e-05
1.318439e+01	-3.242382e-05
1.326054e+01	-3.279945e-05
1.333713e+01	-3.317944e-05
1.341417e+01	-3.356384e-05
1.349165e+01	-3.395268e-05
1.356958e+01	-3.434603e-05
1.364795e+01	-3.474394e-05
1.372678e+01	-3.514645e-05
1.380607e+01	-3.555363e-05
1.388581e+01	-3.596553e-05
1.396602e+01	-3.638220e-05
1.404668e+01	-3.680370e-05
1.412782e+01	-3.723008e-05
1.420942e+01	-3.766139e-05
1.429149e+01	-3.809771e-05
1.437404e+01	-3.853908e-05
1.445706e+01	-3.898557e-05
1.454057e+01	-3.943722e-05
1.462455e+01	-3.989411e-05
1.470902e+01	-4.035629e-05
1.479398e+01	-4.082383e-05
1.487943e+01	-4.129678e-05
1.496537e+01	-4.177522e-05
1.505181e+01	-4.225919e-05
1.513875e+01	-4.274877e-05
1.522619e+01	-4.324403e-05
1.531414e+01	-4.374502e-05
1.540259e+01	-4.425181e-05
1.549156e+01	-4.476448e-05
1.558103e+01	-4.528309e-05
1.567103e+01	-4.580770e-05
1.576155e+01	-4.633839e-05
1.585258e+01	-4.687524e-05
1.594415e+01	-4.741829e-05
1.603624e+01	-4.796765e-05
1.612886e+01	-4.852336e-05
1.622202e+01	-4.908551e-05
1.631572e+01	-4.965418e-05
1.640996e+01	-5.022944e-05
1.650474e+01	-5.081135e-05
1.660008e+01	-5.140001e-05
1.669596e+01	-5.199549e-05
1.679239e+01	-5.259787e-05
1.688938e+01	-5.320723e-05
1.698694e+01	-5.382365e-05
1.708505e+01	-5.444721e-05
1.718373e+01	-5.507799e-05
1.728299e+01	-5.571608e-05
1.738281e+01	-5.636156e-05
1.748322e+01	-5.701452e-05
1.758420e+01	-5.767504e-05
1.768576e+01	-5.834322e-05
1.778792e+01	-5.901914e-05
1.789066e+01	-5.970289e-05
1.799399e+01	-6.039456e-05
1.809793e+01	-6.109424e-05
1.820246e+01	-6.180203e-05
1.830760e+01	-6.251802e-05
1.841334e+01	-6.324230e-05
1.851969e+01	-6.397498e-05
1.862666e+01	-6.471614e-05
1.873425e+01	-6.546589e-05
1.884246e+01	-6.622432e-05
1.895129e+01	-6.699154e-05
1.906075e+01	-6.776765e-05
1.917085e+01	-6.855275e-05
1.928158e+01	-6.934695e-05
1.939295e+01	-7.015035e-05
1.950496e+01	-7.096305e-05
1.961762e+01	-7.178517e-05
1.973093e+01	-7.261682e-05
1.984490e+01	-7.345810e-05
1.995952e+01	-7.430912e-05
2.007480e+01	-7.517001e-05
2.019076e+01	-7.604086e-05
2.030738e+01	-7.692181e-05
2.042467e+01	-7.781296e-05
2.054264e+01	-7.871444e-05
2.066130e+01	-7.962636e-05
2.078064e+01	-8.054885e-05
2.090066e+01	-8.148202e-05
2.102139e+01	-8.242600e-05
2.114280e+01	-8.338092e-05
2.126492e+01	-8.434690e-05
2.138775e+01	-8.532408e-05
2.151128e+01	-8.631257e-05
2.163553e+01	-8.731251e-05
2.176050e+01	-8.832404e-05
2.188619e+01	-8.934729e-05
2.201260e+01	-9.038239e-05
2.213974e+01	-9.142949e-05
2.226762e+01	-9.248871e-05
2.239624e+01	-9.356021e-05
2.252560e+01	-9.464412e-05
2.265571e+01	-9.574059e-05
2.278656e+01	-9.684975e-05
2.291818e+01	-9.797177e-05
2.305055e+01	-9.910679e-05
2.318369e+01	-1.002550e-04
2.331760e+01	-1.014164e-04
2.345228e+01	-1.025913e-04
2.358774e+01	-1.037799e-04
2.372398e+01	-1.049822e-04
2.386101e+01	-1.061984e-04
2.399883e+01	-1.074287e-04
2.413745e+01	-1.086733e-04
2.427686e+01	-1.099323e-04
2.441709e+01	-1.112059e-04
2.455812e+01	-1.124942e-04
2.469997e+01	-1.137975e-04
2.484263e+01	-1.151158e-04
2.498612e+01	-1.164495e-04
2.513044e+01	-1.177986e-04
2.527559e+01	-1.191633e-04
2.542158e+01	-1.205438e-04
2.556842e+01	-1.219403e-04
2.571610e+01	-1.233530e-04
2.586463e+01	-1.247821e-04
2.601403e+01	-1.262277e-04
2.616428e+01	-1.276900e-04
2.631541e+01	-1.291693e-04
2.646740e+01	-1.306658e-04
2.662028e+01	-1.321796e-04
2.677404e+01	-1.337109e-04
2.692868e+01	-1.352599e-04
2.708422e+01	-1.368269e-04
2.724066e+01	-1.384121e-04
2.739800e+01	-1.400156e-04
2.755625e+01	-1.416377e-04
2.771541e+01	-1.432786e-04
2.787550e+01	-1.449385e-04
2.803650e+01	-1.466176e-04
2.819844e+01	-1.483162e-04
2.836131e+01	-1.500344e-04
2.852513e+01	-1.517726e-04
2.868989e+01	-1.535309e-04
2.885560e+01	-1.553095e-04
2.902227e+01	-1.571088e-04
2.918990e+01	-1.589289e-04
2.935850e+01	-1.607701e-04
2.952807e+01	-1.626327e-04
2.969863e+01	-1.645168e-04
2.987016e+01	-1.664227e-04
3.004269e+01	-1.683507e-04
3.021622e+01	-1.703011e-04
3.039075e+01	-1.722740e-04
3.056628e+01	-1.742698e-04
3.074283e+01	-1.762887e-04
3.092040e+01	-1.783311e-04
3.109900e+01	-1.803970e-04
3.127862e+01	-1.824869e-04
3.145929e+01	-1.846011e-04
3.164099e+01	-1.867397e-04
3.182375e+01	-1.889030e-04
3.200756e+01	-1.910915e-04
3.219244e+01	-1.933053e-04
3.237838e+01	-1.955447e-04
3.256540e+01	-1.978101e-04
3.275349e+01	-2.001018e-04
3.294268e+01	-2.024199e-04
3.313295e+01	-2.047650e-04
3.332433e+01	-2.071372e-04
3.351681e+01	-2.095369e-04
3.371040e+01	-2.119643e-04
3.390511e+01	-2.144200e-04
3.410094e+01	-2.169040e-04
3.429791e+01	-2.194168e-04
3.449601e+01	-2.219588e-04
3.469526e+01	-2.245302e-04
3.489566e+01	-2.271313e-04
3.509721e+01	-2.297627e-04
3.529993e+01	-2.324244e-04
3.550382e+01	-2.351171e-04
3.570889e+01	-2.378409e-04
3.591515e+01	-2.405963e-04
3.612259e+01	-2.433836e-04
3.633123e+01	-2.462032e-04
3.654108e+01	-2.490554e-04
3.675214e+01	-2.519407e-04
3.696442e+01	-2.548594e-04
3.717792e+01	-2.578119e-04
3.739266e+01	-2.607987e-04
3.760864e+01	-2.638200e-04
3.782587e+01	-2.668763e-04
3.804435e+01	-2.699681e-04
3.826409e+01	-2.730956e-04
3.848510e+01	-2.762594e-04
3.870739e+01	-2.794599e-04
3.893096e+01	-2.826974e-04
3.915583e+01	-2.859724e-04
3.938199e+01	-2.892854e-04
3.960946e+01	-2.926367e-04
3.983824e+01	-2.960269e-04
4.006834e+01	-2.994563e-04
4.029978e+01	-3.029255e-04
4.053255e+01	-3.064348e-04
4.076666e+01	-3.099848e-04
4.100213e+01	-3.135760e-04
4.123896e+01	-3.172087e-04
4.147715e+01	-3.208835e-04
4.171672e+01	-3.246009e-04
4.195767e+01	-3.283613e-04
4.220002e+01	-3.321653e-04
4.244377e+01	-3.360134e-04
4.268892e+01	-3.399061e-04
4.293549e+01	-3.438438e-04
4.318348e+01	-3.478272e-04
4.343291e+01	-3.518567e-04
4.368377e+01	-3.559329e-04
4.393609e+01	-3.600563e-04
4.418986e+01	-3.642275e-04
4.444510e+01	-3.684470e-04
4.470182e+01	-3.727154e-04
4.496001e+01	-3.770332e-04
4.521970e+01	-3.814010e-04
4.548089e+01	-3.858195e-04
4.574358e+01	-3.902891e-04
4.600779e+01	-3.948105e-04
4.627353e+01	-3.993843e-04
4.654081e+01	-4.040110e-04
4.680963e+01	-4.086914e-04
4.708000e+01	-4.134260e-04
4.735193e+01	-4.182154e-04
4.762543e+01	-4.230603e-04
4.790051e+01	-4.279613e-04
4.817719e+01	-4.329191e-04
4.845545e+01	-4.379344e-04
4.873533e+01	-4.430077e-04
4.901682e+01	-4.481398e-04
4.929994e+01	-4.533314e-04
4.958470e+01	-4.585831e-04
4.987110e+01	-4.638956e-04
5.015915e+01	-4.692697e-04
5.044887e+01	-4.747060e-04
5.074026e+01	-4.802053e-04
5.103333e+01	-4.857683e-04
5.132810e+01	-4.913957e-04
5.162457e+01	-4.970883e-04
5.192275e+01	-5.028469e-04
5.222265e+01	-5.086722e-04
5.252429e+01	-5.145650e-04
5.282767e+01	-5.205260e-04
5.313280e+01	-5.265560e-04
5.343969e+01	-5.326560e-04
5.374836e+01	-5.388265e-04
5.405880e+01	-5.450686e-04
5.437105e+01	-5.513830e-04
5.468509e+01	-5.577705e-04
5.500095e+01	-5.642320e-04
5.531863e+01	-5.707684e-04
5.563815e+01	-5.773804e-04
5.595951e+01	-5.840691e-04
5.628273e+01	-5.908352e-04
5.660782e+01	-5.976797e-04
5.693479e+01	-6.046035e-04
5.726364e+01	-6.116076e-04
5.759439e+01	-6.186927e-04
5.792705e+01	-6.258599e-04
5.826164e+01	-6.331101e-04
5.859815e+01	-6.404443e-04
5.893662e+01	-6.478635e-04
5.927703e+01	-6.553686e-04
5.961941e+01	-6.629607e-04
5.996377e+01	-6.706407e-04
6.031012e+01	-6.784096e-04
6.065847e+01	-6.862686e-04
6.100883e+01	-6.942185e-04
6.136121e+01	-7.022606e-04
6.171563e+01	-7.103958e-04
6.207210e+01	-7.186253e-04
6.243063e+01	-7.269500e-04
6.279122e+01	-7.353712e-04
6.315390e+01	-7.438900e-04
6.351868e+01	-7.525074e-04
6.388556e+01	-7.612246e-04
6.425456e+01	-7.700429e-04
6.462569e+01	-7.789632e-04
6.499897e+01	-7.879869e-04
6.537440e+01	-7.971151e-04
6.575200e+01	-8.063490e-04
6.613178e+01	-8.156899e-04
6.651375e+01	-8.251390e-04
6.689793e+01	-8.346976e-04
6.728433e+01	-8.443668e-04
6.767297e+01	-8.541481e-04
6.806384e+01	-8.640427e-04
6.845698e+01	-8.740518e-04
6.885238e+01	-8.841769e-04
6.925007e+01	-8.944193e-04
6.965005e+01	-9.047803e-04
7.005235e+01	-9.152613e-04
7.045697e+01	-9.258638e-04
7.086393e+01	-9.365890e-04
7.127323e+01	-9.474384e-04
7.168490e+01	-9.584136e-04
7.209895e+01	-9.695158e-04
7.251539e+01	-9.807466e-04
7.293424e+01	-9.921076e-04
7.335551e+01	-1.003600e-03
7.377920e+01	-1.015226e-03
7.420535e+01	-1.026986e-03
7.463396e+01	-1.038882e-03
7.506504e+01	-1.050917e-03
7.549861e+01	-1.063090e-03
7.593469e+01	-1.075405e-03
7.637328e+01	-1.087862e-03
7.681441e+01	-1.100464e-03
7.725809e+01	-1.113211e-03
7.770433e+01	-1.126107e-03
7.815315e+01	-1.139151e-03
7.860456e+01	-1.152347e-03
7.905857e+01	-1.165695e-03
7.951521e+01	-1.179198e-03
7.997449e+01	-1.192858e-03
8.043642e+01	-1.206675e-03
8.090102e+01	-1.220653e-03
8.136830e+01	-1.234793e-03
8.183828e+01	-1.249096e-03
8.231097e+01	-1.263565e-03
8.278640e+01	-1.278202e-03
8.326457e+01	-1.293008e-03
8.374550e+01	-1.307985e-03
8.422921e+01	-1.323136e-03
8.471572e+01	-1.338463e-03
8.520503e+01	-1.353967e-03
8.569717e+01	-1.369651e-03
8.619215e+01	-1.385516e-03
8.669000e+01	-1.401565e-03
8.719071e+01	-1.417800e-03
8.769432e+01	-1.434223e-03
8.820084e+01	-1.450836e-03
8.871029e+01	-1.467641e-03
8.922267e+01	-1.484641e-03
8.973802e+01	-1.501838e-03
9.025634e+01	-1.519234e-03
9.077766e+01	-1.536832e-03
9.130199e+01	-1.554633e-03
9.182935e+01	-1.572641e-03
9.235975e+01	-1.590857e-03
9.289321e+01	-1.609284e-03
9.342976e+01	-1.627925e-03
9.396941e+01	-1.646781e-03
9.451217e+01	-1.665856e-03
9.505807e+01	-1.685152e-03
9.560712e+01	-1.704671e-03
9.615934e+01	-1.724416e-03
9.671476e+01	-1.744390e-03
9.727338e+01	-1.764595e-03
9.783522e+01	-1.785034e-03
9.840032e+01	-1.805710e-03
9.896867e+01	-1.826625e-03
9.954031e+01	-1.847782e-03
1.001153e+02	-1.869185e-03
1.006935e+02	-1.890835e-03
1.012751e+02	-1.912736e-03
1.018601e+02	-1.934891e-03
1.024484e+02	-1.957302e-03
1.030402e+02	-1.979972e-03
1.036353e+02	-2.002906e-03
1.042339e+02	-2.026104e-03
1.048360e+02	-2.049572e-03
1.054415e+02	-2.073311e-03
1.060505e+02	-2.097325e-03
1.066631e+02	-2.121617e-03
1.072791e+02	-2.146191e-03
1.078988e+02	-2.171049e-03
1.085220e+02	-2.196194e-03
1.091488e+02	-2.221631e-03
1.097793e+02	-2.247363e-03
1.104133e+02	-2.273392e-03
1.110511e+02	-2.299723e-03
1.116925e+02	-2.326359e-03
1.123376e+02	-2.353303e-03
1.129865e+02	-2.380559e-03
1.136391e+02	-2.408131e-03
1.142955e+02	-2.436022e-03
1.149556e+02	-2.464236e-03
1.156196e+02	-2.492777e-03
1.162874e+02	-2.521648e-03
1.169591e+02	-2.550853e-03
1.176347e+02	-2.580397e-03
1.183141e+02	-2.610282e-03
1.189975e+02	-2.640514e-03
1.196848e+02	-2.671096e-03
1.203761e+02	-2.702031e-03
1.210714e+02	-2.733325e-03
1.217707e+02	-2.764981e-03
1.224740e+02	-2.797004e-03
1.231814e+02	-2.829398e-03
1.238929e+02	-2.862166e-03
1.246085e+02	-2.895314e-03
1.253283e+02	-2.928846e-03
1.260522e+02	-2.962765e-03
1.267802e+02	-2.997078e-03
1.275125e+02	-3.031788e-03
1.282490e+02	-3.066899e-03
1.289898e+02	-3.102418e-03
1.297348e+02	-3.138347e-03
1.304842e+02	-3.174692e-03
1.312378e+02	-3.211458e-03
1.319959e+02	-3.248650e-03
1.327583e+02	-3.286272e-03
1.335251e+02	-3.324330e-03
1.342963e+02	-3.362828e-03
1.350720e+02	-3.401772e-03
1.358522e+02	-3.441167e-03
1.366368e+02	-3.481018e-03
1.374260e+02	-3.521330e-03
1.382198e+02	-3.562109e-03
1.390182e+02	-3.603359e-03
1.398211e+02	-3.645088e-03
1.406287e+02	-3.687299e-03
1.414410e+02	-3.729999e-03
1.422579e+02	-3.773193e-03
1.430796e+02	-3.816887e-03
1.439060e+02	-3.861087e-03
1.447372e+02	-3.905799e-03
1.455732e+02	-3.951028e-03
1.464141e+02	-3.996781e-03
1.472597e+02	-4.043063e-03
1.481103e+02	-4.089881e-03
1.489658e+02	-4.137240e-03
1.498262e+02	-4.185148e-03
1.506916e+02	-4.233611e-03
1.515620e+02	-4.282634e-03
1.524374e+02	-4.332224e-03
1.533179e+02	-4.382389e-03
1.542034e+02	-4.433134e-03
1.550941e+02	-4.484467e-03
1.559899e+02	-4.536393e-03
1.568909e+02	-4.588921e-03
1.577971e+02	-4.642056e-03
1.587085e+02	-4.695806e-03
1.596252e+02	-4.750179e-03
1.605472e+02	-4.805180e-03
1.614745e+02	-4.860818e-03
1.624072e+02	-4.917100e-03
1.633453e+02	-4.974033e-03
1.642887e+02	-5.031625e-03
1.652377e+02	-5.089884e-03
1.661921e+02	-5.148816e-03
1.671520e+02	-5.208431e-03
1.681175e+02	-5.268735e-03
1.690885e+02	-5.329737e-03
1.700651e+02	-5.391445e-03
1.710474e+02	-5.453867e-03
1.720354e+02	-5.517011e-03
1.730291e+02	-5.580886e-03
1.740285e+02	-5.645500e-03
1.750337e+02	-5.710862e-03
1.760446e+02	-5.776979e-03
1.770615e+02	-5.843862e-03
1.780842e+02	-5.911518e-03
1.791128e+02	-5.979958e-03
1.801473e+02	-6.049189e-03
1.811878e+02	-6.119221e-03
1.822344e+02	-6.190063e-03
1.832870e+02	-6.261724e-03
1.843456e+02	-6.334215e-03
1.854104e+02	-6.407544e-03
1.864813e+02	-6.481722e-03
1.875584e+02	-6.556757e-03
1.886418e+02	-6.632661e-03
1.897313e+02	-6.709442e-03
1.908272e+02	-6.787112e-03
1.919294e+02	-6.865680e-03
1.930380e+02	-6.945157e-03
1.941530e+02	-7.025553e-03
1.952744e+02	-7.106879e-03
1.964023e+02	-7.189146e-03
1.975367e+02	-7.272364e-03
1.986777e+02	-7.356545e-03
1.998252e+02	-7.441699e-03
2.009794e+02	-7.527838e-03
2.021403e+02	-7.614974e-03
2.033078e+02	-7.703117e-03
2.044821e+02	-7.792279e-03
2.056632e+02	-7.882472e-03
2.068511e+02	-7.973709e-03
2.080459e+02	-8.066000e-03
2.092475e+02	-8.159359e-03
2.104561e+02	-8.253797e-03
2.116717e+02	-8.349327e-03
2.128943e+02	-8.445962e-03
2.141240e+02	-8.543714e-03
2.153608e+02	-8.642596e-03
2.166047e+02	-8.742622e-03
2.178558e+02	-8.843804e-03
2.191141e+02	-8.946156e-03
2.203797e+02	-9.049691e-03
2.216526e+02	-9.154423e-03
2.229329e+02	-9.260366e-03
2.242205e+02	-9.367534e-03
2.255156e+02	-9.475940e-03
2.268182e+02	-9.585600e-03
2.281283e+02	-9.696527e-03
2.294459e+02	-9.808737e-03
2.307712e+02	-9.922243e-03
2.321041e+02	-1.003706e-02
2.334447e+02	-1.015321e-02
2.347931e+02	-1.027070e-02
2.361493e+02	-1.038954e-02
2.375133e+02	-1.050976e-02
2.388851e+02	-1.063137e-02
2.402649e+02	-1.075438e-02
2.416527e+02	-1.087882e-02
2.430484e+02	-1.100469e-02
2.444523e+02	-1.113202e-02
2.458642e+02	-1.126082e-02
2.472843e+02	-1.139111e-02
2.487126e+02	-1.152290e-02
2.501492e+02	-1.165622e-02
2.515940e+02	-1.179107e-02
2.530472e+02	-1.192749e-02
2.545088e+02	-1.206548e-02
2.559789e+02	-1.220506e-02
2.574574e+02	-1.234626e-02
2.589444e+02	-1.248909e-02
2.604401e+02	-1.263357e-02
2.619444e+02	-1.277971e-02
2.634574e+02	-1.292755e-02
2.649791e+02	-1.307709e-02
2.665096e+02	-1.322836e-02
2.680489e+02	-1.338138e-02
2.695972e+02	-1.353616e-02
2.711544e+02	-1.369274e-02
2.727205e+02	-1.385112e-02
2.742958e+02	-1.401132e-02
2.758801e+02	-1.417338e-02
2.774736e+02	-1.433731e-02
2.790762e+02	-1.450314e-02
2.806882e+02	-1.467088e-02
2.823094e+02	-1.484055e-02
2.839400e+02	-1.501218e-02
2.855800e+02	-1.518580e-02
2.872295e+02	-1.536142e-02
2.888886e+02	-1.553906e-02
2.905572e+02	-1.571876e-02
2.922354e+02	-1.590053e-02
2.939234e+02	-1.608440e-02
2.956211e+02	-1.627039e-02
2.973286e+02	-1.645853e-02
2.990459e+02	-1.664884e-02
3.007732e+02	-1.684135e-02
3.025104e+02	-1.703607e-02
3.042577e+02	-1.723305e-02
3.060151e+02	-1.743230e-02
3.077826e+02	-1.763384e-02
3.095604e+02	-1.783771e-02
3.113484e+02	-1.804394e-02
3.131467e+02	-1.825254e-02
3.149554e+02	-1.846355e-02
3.167746e+02	-1.867699e-02
3.186043e+02	-1.889290e-02
3.204445e+02	-1.911129e-02
3.222954e+02	-1.933221e-02
3.241570e+02	-1.955567e-02
3.260293e+02	-1.978171e-02
3.279124e+02	-2.001036e-02
3.298064e+02	-2.024164e-02
3.317114e+02	-2.047559e-02
3.336273e+02	-2.071224e-02
3.355544e+02	-2.095162e-02
3.374925e+02	-2.119375e-02
3.394418e+02	-2.143868e-02
3.414024e+02	-2.168643e-02
3.433744e+02	-2.193703e-02
3.453577e+02	-2.219053e-02
3.473525e+02	-2.244695e-02
3.493588e+02	-2.270632e-02
3.513766e+02	-2.296868e-02
3.534062e+02	-2.323406e-02
3.554474e+02	-2.350250e-02
3.575005e+02	-2.377404e-02
3.595654e+02	-2.404870e-02
3.616422e+02	-2.432653e-02
3.637311e+02	-2.460756e-02
3.658320e+02	-2.489182e-02
3.679450e+02	-2.517936e-02
3.700702e+02	-2.547022e-02
3.722077e+02	-2.576442e-02
3.743576e+02	-2.606201e-02
3.765199e+02	-2.636302e-02
3.786946e+02	-2.666750e-02
3.808820e+02	-2.697549e-02
3.830819e+02	-2.728702e-02
3.852946e+02	-2.760214e-02
3.875200e+02	-2.792089e-02
3.897583e+02	-2.824331e-02
3.920096e+02	-2.856943e-02
3.942738e+02	-2.889931e-02
3.965511e+02	-2.923299e-02
3.988416e+02	-2.957050e-02
4.011452e+02	-2.991190e-02
4.034622e+02	-3.025723e-02
4.057926e+02	-3.060653e-02
4.081365e+02	-3.095985e-02
4.104938e+02	-3.131723e-02
4.128648e+02	-3.167872e-02
4.152495e+02	-3.204437e-02
4.176480e+02	-3.241422e-02
4.200603e+02	-3.278833e-02
4.224866e+02	-3.316673e-02
4.249268e+02	-3.354949e-02
4.273812e+02	-3.393665e-02
4.298497e+02	-3.432825e-02
4.323325e+02	-3.472436e-02
4.348297e+02	-3.512502e-02
4.373412e+02	-3.553028e-02
4.398673e+02	-3.594020e-02
4.424079e+02	-3.635483e-02
4.449633e+02	-3.677423e-02
4.475334e+02	-3.719844e-02
4.501183e+02	-3.762752e-02
4.527182e+02	-3.806153e-02
4.553330e+02	-3.850052e-02
4.579630e+02	-3.894456e-02
4.606082e+02	-3.939369e-02
4.632687e+02	-3.984798e-02
4.659445e+02	-4.030748e-02
4.686358e+02	-4.077225e-02
4.713426e+02	-4.124236e-02
4.740650e+02	-4.171787e-02
4.768032e+02	-4.219883e-02
4.795572e+02	-4.268530e-02
4.823271e+02	-4.317736e-02
4.851130e+02	-4.367506e-02
4.879150e+02	-4.417847e-02
4.907332e+02	-4.468765e-02
4.935676e+02	-4.520267e-02
4.964185e+02	-4.572359e-02
4.992858e+02	-4.625048e-02
5.021696e+02	-4.678342e-02
5.050701e+02	-4.732246e-02
5.079874e+02	-4.786767e-02
5.109215e+02	-4.841914e-02
5.138726e+02	-4.897692e-02
5.168407e+02	-4.954109e-02
5.198259e+02	-5.011172e-02
5.228284e+02	-5.068888e-02
5.258482e+02	-5.127265e-02
5.288855e+02	-5.186311e-02
5.319403e+02	-5.246032e-02
5.350128e+02	-5.306437e-02
5.381030e+02	-5.367533e-02
5.412111e+02	-5.429328e-02
5.443371e+02	-5.491830e-02
5.474812e+02	-5.555047e-02
5.506434e+02	-5.618987e-02
5.538239e+02	-5.683658e-02
5.570228e+02	-5.749068e-02
5.602401e+02	-5.815226e-02
5.634760e+02	-5.882140e-02
5.667306e+02	-5.949819e-02
5.700040e+02	-6.018272e-02
5.732964e+02	-6.087506e-02
5.766077e+02	-6.157531e-02
5.799382e+02	-6.228355e-02
5.832879e+02	-6.299989e-02
5.866569e+02	-6.372440e-02
5.900454e+02	-6.445718e-02
5.934535e+02	-6.519833e-02
5.968813e+02	-6.594793e-02
6.003288e+02	-6.670608e-02
6.037963e+02	-6.747289e-02
6.072838e+02	-6.824843e-02
6.107914e+02	-6.903282e-02
6.143194e+02	-6.982616e-02
6.178676e+02	-7.062853e-02
6.214364e+02	-7.144005e-02
6.250258e+02	-7.226082e-02
6.286359e+02	-7.309093e-02
6.322669e+02	-7.393051e-02
6.359189e+02	-7.477964e-02
6.395919e+02	-7.563844e-02
6.432862e+02	-7.650701e-02
6.470017e+02	-7.738547e-02
6.507388e+02	-7.827393e-02
6.544974e+02	-7.917249e-02
6.582778e+02	-8.008127e-02
6.620800e+02	-8.100039e-02
6.659041e+02	-8.192995e-02
6.697504e+02	-8.287008e-02
6.736188e+02	-8.382090e-02
6.775096e+02	-8.478252e-02
6.814229e+02	-8.575506e-02
6.853587e+02	-8.673864e-02
6.893173e+02	-8.773339e-02
6.932988e+02	-8.873943e-02
6.973033e+02	-8.975689e-02
7.013309e+02	-9.078590e-02
