Frequency(Hz)	Magnitude(dB)
1.000000e+01	-2.324115e+00
1.005776e+01	-2.344783e+00
1.011585e+01	-2.365796e+00
1.017428e+01	-2.386744e+00
1.023305e+01	-2.408136e+00
1.029215e+01	-2.429164e+00
1.035160e+01	-2.450805e+00
1.041139e+01	-2.472447e+00
1.047153e+01	-2.494314e+00
1.053201e+01	-2.516348e+00
1.059284e+01	-2.538053e+00
1.065403e+01	-2.560560e+00
1.071556e+01	-2.582905e+00
1.077746e+01	-2.605286e+00
1.083971e+01	-2.628118e+00
1.090232e+01	-2.650806e+00
1.096529e+01	-2.673760e+00
1.102862e+01	-2.696599e+00
1.109232e+01	-2.720119e+00
1.115639e+01	-2.743415e+00
1.122083e+01	-2.767024e+00
1.128564e+01	-2.790073e+00
1.135083e+01	-2.814181e+00
1.141639e+01	-2.838210e+00
1.148233e+01	-2.862117e+00
1.154865e+01	-2.886573e+00
1.161536e+01	-2.910834e+00
1.168245e+01	-2.935238e+00
1.174992e+01	-2.960050e+00
1.181779e+01	-2.984778e+00
1.188605e+01	-3.009605e+00
1.195470e+01	-3.034891e+00
1.202375e+01	-3.060193e+00
1.209320e+01	-3.085290e+00
1.216305e+01	-3.110669e+00
1.223330e+01	-3.136497e+00
1.230396e+01	-3.162483e+00
1.237503e+01	-3.188182e+00
1.244651e+01	-3.214474e+00
1.251840e+01	-3.240728e+00
1.259070e+01	-3.267192e+00
1.266343e+01	-3.293787e+00
1.273657e+01	-3.320072e+00
1.281014e+01	-3.346983e+00
1.288413e+01	-3.373943e+00
1.295855e+01	-3.400836e+00
1.303339e+01	-3.428292e+00
1.310867e+01	-3.455665e+00
1.318439e+01	-3.483137e+00
1.326054e+01	-3.510577e+00
1.333713e+01	-3.538610e+00
1.341417e+01	-3.566546e+00
1.349165e+01	-3.594888e+00
1.356958e+01	-3.622712e+00
1.364795e+01	-3.651246e+00
1.372678e+01	-3.679545e+00
1.380607e+01	-3.708576e+00
1.388581e+01	-3.737413e+00
1.396602e+01	-3.766238e+00
1.404668e+01	-3.794967e+00
1.412782e+01	-3.824236e+00
1.420942e+01	-3.853746e+00
1.429149e+01	-3.883282e+00
1.437404e+01	-3.913069e+00
1.445706e+01	-3.942783e+00
1.454057e+01	-3.972635e+00
1.462455e+01	-4.002832e+00
1.470902e+01	-4.032863e+00
1.479398e+01	-4.063409e+00
1.487943e+01	-4.093819e+00
1.496537e+01	-4.124333e+00
1.505181e+01	-4.155037e+00
1.513875e+01	-4.185823e+00
1.522619e+01	-4.217120e+00
1.531414e+01	-4.248214e+00
1.540259e+01	-4.279154e+00
1.549156e+01	-4.310933e+00
1.558103e+01	-4.342221e+00
1.567103e+01	-4.374163e+00
1.576155e+01	-4.405697e+00
1.585258e+01	-4.437895e+00
1.594415e+01	-4.469609e+00
1.603624e+01	-4.502295e+00
1.612886e+01	-4.534357e+00
1.622202e+01	-4.566694e+00
1.631572e+01	-4.599594e+00
1.640996e+01	-4.632128e+00
1.650474e+01	-4.665159e+00
1.660008e+01	-4.698212e+00
1.669596e+01	-4.731232e+00
1.679239e+01	-4.764606e+00
1.688938e+01	-4.797659e+00
1.698694e+01	-4.831456e+00
1.708505e+01	-4.865026e+00
1.718373e+01	-4.898796e+00
1.728299e+01	-4.932758e+00
1.738281e+01	-4.966920e+00
1.748322e+01	-5.000893e+00
1.758420e+01	-5.035012e+00
1.768576e+01	-5.069540e+00
1.778792e+01	-5.104047e+00
1.789066e+01	-5.138760e+00
1.799399e+01	-5.173397e+00
1.809793e+01	-5.208506e+00
1.820246e+01	-5.243186e+00
1.830760e+01	-5.278728e+00
1.841334e+01	-5.314162e+00
1.851969e+01	-5.349271e+00
1.862666e+01	-5.384730e+00
1.873425e+01	-5.420210e+00
1.884246e+01	-5.456107e+00
1.895129e+01	-5.491711e+00
1.906075e+01	-5.527307e+00
1.917085e+01	-5.563924e+00
1.928158e+01	-5.599935e+00
1.939295e+01	-5.636671e+00
1.950496e+01	-5.672699e+00
1.961762e+01	-5.709279e+00
1.973093e+01	-5.745582e+00
1.984490e+01	-5.783026e+00
1.995952e+01	-5.819444e+00
2.007480e+01	-5.856717e+00
2.019076e+01	-5.893716e+00
2.030738e+01	-5.930925e+00
2.042467e+01	-5.967844e+00
2.054264e+01	-6.005616e+00
2.066130e+01	-6.043116e+00
2.078064e+01	-6.080808e+00
2.090066e+01	-6.118390e+00
2.102139e+01	-6.156500e+00
2.114280e+01	-6.193913e+00
2.126492e+01	-6.232413e+00
2.138775e+01	-6.270672e+00
2.151128e+01	-6.308877e+00
2.163553e+01	-6.347026e+00
2.176050e+01	-6.385490e+00
2.188619e+01	-6.424232e+00
2.201260e+01	-6.462813e+00
2.213974e+01	-6.501618e+00
2.226762e+01	-6.540673e+00
2.239624e+01	-6.579644e+00
2.252560e+01	-6.618665e+00
2.265571e+01	-6.657801e+00
2.278656e+01	-6.697288e+00
2.291818e+01	-6.736430e+00
2.305055e+01	-6.776112e+00
2.318369e+01	-6.815287e+00
2.331760e+01	-6.855089e+00
2.345228e+01	-6.895093e+00
2.358774e+01	-6.934675e+00
2.372398e+01	-6.974639e+00
2.386101e+01	-7.014732e+00
2.399883e+01	-7.054853e+00
2.413745e+01	-7.095500e+00
2.427686e+01	-7.135390e+00
2.441709e+01	-7.175670e+00
2.455812e+01	-7.216030e+00
2.469997e+01	-7.256828e+00
2.484263e+01	-7.297432e+00
2.498612e+01	-7.338111e+00
2.513044e+01	-7.379180e+00
2.527559e+01	-7.419936e+00
2.542158e+01	-7.461100e+00
2.556842e+01	-7.502079e+00
2.571610e+01	-7.543358e+00
2.586463e+01	-7.584185e+00
2.601403e+01	-7.625554e+00
2.616428e+01	-7.667814e+00
2.631541e+01	-7.708771e+00
2.646740e+01	-7.749881e+00
2.662028e+01	-7.792274e+00
2.677404e+01	-7.833465e+00
2.692868e+01	-7.875440e+00
2.708422e+01	-7.917493e+00
2.724066e+01	-7.959507e+00
2.739800e+01	-8.001011e+00
2.755625e+01	-8.043627e+00
2.771541e+01	-8.085880e+00
2.787550e+01	-8.128346e+00
2.803650e+01	-8.170379e+00
2.819844e+01	-8.213305e+00
2.836131e+01	-8.255459e+00
2.852513e+01	-8.298095e+00
2.868989e+01	-8.340964e+00
2.885560e+01	-8.383240e+00
2.902227e+01	-8.426408e+00
2.918990e+01	-8.469352e+00
2.935850e+01	-8.512191e+00
2.952807e+01	-8.554967e+00
2.969863e+01	-8.598065e+00
2.987016e+01	-8.641247e+00
3.004269e+01	-8.684857e+00
3.021622e+01	-8.727813e+00
3.039075e+01	-8.771202e+00
3.056628e+01	-8.814304e+00
3.074283e+01	-8.857728e+00
3.092040e+01	-8.901508e+00
3.109900e+01	-8.945542e+00
3.127862e+01	-8.988888e+00
3.145929e+01	-9.032848e+00
3.164099e+01	-9.076459e+00
3.182375e+01	-9.120839e+00
3.200756e+01	-9.164561e+00
3.219244e+01	-9.208329e+00
3.237838e+01	-9.252356e+00
3.256540e+01	-9.296802e+00
3.275349e+01	-9.340795e+00
3.294268e+01	-9.384435e+00
3.313295e+01	-9.429194e+00
3.332433e+01	-9.473826e+00
3.351681e+01	-9.518110e+00
3.371040e+01	-9.562337e+00
3.390511e+01	-9.606814e+00
3.410094e+01	-9.651475e+00
3.429791e+01	-9.696109e+00
3.449601e+01	-9.740430e+00
3.469526e+01	-9.785434e+00
3.489566e+01	-9.830431e+00
3.509721e+01	-9.875181e+00
3.529993e+01	-9.920170e+00
3.550382e+01	-9.965075e+00
3.570889e+01	-1.000997e+01
3.591515e+01	-1.005484e+01
3.612259e+01	-1.010037e+01
3.633123e+01	-1.014536e+01
3.654108e+01	-1.019008e+01
3.675214e+01	-1.023639e+01
3.696442e+01	-1.028094e+01
3.717792e+01	-1.032638e+01
3.739266e+01	-1.037187e+01
3.760864e+01	-1.041736e+01
3.782587e+01	-1.046299e+01
3.804435e+01	-1.050893e+01
3.826409e+01	-1.055392e+01
3.848510e+01	-1.059903e+01
3.870739e+01	-1.064544e+01
3.893096e+01	-1.069100e+01
3.915583e+01	-1.073717e+01
3.938199e+01	-1.078329e+01
3.960946e+01	-1.082887e+01
3.983824e+01	-1.087426e+01
4.006834e+01	-1.092054e+01
4.029978e+01	-1.096638e+01
4.053255e+01	-1.101243e+01
4.076666e+01	-1.105907e+01
4.100213e+01	-1.110429e+01
4.123896e+01	-1.115087e+01
4.147715e+01	-1.119721e+01
4.171672e+01	-1.124395e+01
4.195767e+01	-1.129017e+01
4.220002e+01	-1.133598e+01
4.244377e+01	-1.138268e+01
4.268892e+01	-1.142873e+01
4.293549e+01	-1.147480e+01
4.318348e+01	-1.152128e+01
4.343291e+01	-1.156828e+01
4.368377e+01	-1.161478e+01
4.393609e+01	-1.166185e+01
4.418986e+01	-1.170797e+01
4.444510e+01	-1.175446e+01
4.470182e+01	-1.180042e+01
4.496001e+01	-1.184825e+01
4.521970e+01	-1.189455e+01
4.548089e+01	-1.194207e+01
4.574358e+01	-1.198876e+01
4.600779e+01	-1.203506e+01
4.627353e+01	-1.208176e+01
4.654081e+01	-1.212888e+01
4.680963e+01	-1.217610e+01
4.708000e+01	-1.222310e+01
4.735193e+01	-1.227083e+01
4.762543e+01	-1.231758e+01
4.790051e+01	-1.236482e+01
4.817719e+01	-1.241151e+01
4.845545e+01	-1.245915e+01
4.873533e+01	-1.250599e+01
4.901682e+01	-1.255321e+01
4.929994e+01	-1.260017e+01
4.958470e+01	-1.264809e+01
4.987110e+01	-1.269530e+01
5.015915e+01	-1.274269e+01
5.044887e+01	-1.278939e+01
5.074026e+01	-1.283762e+01
5.103333e+01	-1.288457e+01
5.132810e+01	-1.293241e+01
5.162457e+01	-1.297963e+01
5.192275e+01	-1.302747e+01
5.222265e+01	-1.307552e+01
5.252429e+01	-1.312243e+01
5.282767e+01	-1.317005e+01
5.313280e+01	-1.321751e+01
5.343969e+01	-1.326507e+01
5.374836e+01	-1.331298e+01
5.405880e+01	-1.336035e+01
5.437105e+01	-1.340841e+01
5.468509e+01	-1.345610e+01
5.500095e+01	-1.350305e+01
5.531863e+01	-1.355162e+01
5.563815e+01	-1.359996e+01
5.595951e+01	-1.364797e+01
5.628273e+01	-1.369518e+01
5.660782e+01	-1.374326e+01
5.693479e+01	-1.379111e+01
5.726364e+01	-1.383922e+01
5.759439e+01	-1.388713e+01
5.792705e+01	-1.393585e+01
5.826164e+01	-1.398274e+01
5.859815e+01	-1.403075e+01
5.893662e+01	-1.407793e+01
5.927703e+01	-1.412777e+01
5.961941e+01	-1.417530e+01
5.996377e+01	-1.422413e+01
6.031012e+01	-1.427133e+01
6.065847e+01	-1.432027e+01
6.100883e+01	-1.436832e+01
6.136121e+01	-1.441701e+01
6.171563e+01	-1.446476e+01
6.207210e+01	-1.451279e+01
6.243063e+01	-1.456099e+01
6.279122e+01	-1.460978e+01
6.315390e+01	-1.465762e+01
6.351868e+01	-1.470458e+01
6.388556e+01	-1.475382e+01
6.425456e+01	-1.480250e+01
6.462569e+01	-1.485084e+01
6.499897e+01	-1.489968e+01
6.537440e+01	-1.494787e+01
6.575200e+01	-1.499556e+01
6.613178e+01	-1.504483e+01
6.651375e+01	-1.509290e+01
6.689793e+01	-1.514227e+01
6.728433e+01	-1.519044e+01
6.767297e+01	-1.523902e+01
6.806384e+01	-1.528635e+01
6.845698e+01	-1.533560e+01
6.885238e+01	-1.538437e+01
6.925007e+01	-1.543257e+01
6.965005e+01	-1.548094e+01
7.005235e+01	-1.552940e+01
7.045697e+01	-1.557868e+01
7.086393e+01	-1.562735e+01
7.127323e+01	-1.567676e+01
7.168490e+01	-1.572507e+01
7.209895e+01	-1.577306e+01
7.251539e+01	-1.582214e+01
7.293424e+01	-1.587123e+01
7.335551e+01	-1.591923e+01
7.377920e+01	-1.596746e+01
7.420535e+01	-1.601587e+01
7.463396e+01	-1.606618e+01
7.506504e+01	-1.611394e+01
7.549861e+01	-1.616355e+01
7.593469e+01	-1.621242e+01
7.637328e+01	-1.626112e+01
7.681441e+01	-1.631095e+01
7.725809e+01	-1.635727e+01
7.770433e+01	-1.640841e+01
7.815315e+01	-1.645747e+01
7.860456e+01	-1.650542e+01
7.905857e+01	-1.655472e+01
7.951521e+01	-1.660382e+01
7.997449e+01	-1.665278e+01
8.043642e+01	-1.670085e+01
8.090102e+01	-1.674989e+01
8.136830e+01	-1.679856e+01
8.183828e+01	-1.684804e+01
8.231097e+01	-1.689668e+01
8.278640e+01	-1.694682e+01
8.326457e+01	-1.699460e+01
8.374550e+01	-1.704350e+01
8.422921e+01	-1.709365e+01
8.471572e+01	-1.714261e+01
8.520503e+01	-1.719281e+01
8.569717e+01	-1.724103e+01
8.619215e+01	-1.729004e+01
8.669000e+01	-1.733895e+01
8.719071e+01	-1.738821e+01
8.769432e+01	-1.743755e+01
8.820084e+01	-1.748533e+01
8.871029e+01	-1.753562e+01
8.922267e+01	-1.758529e+01
8.973802e+01	-1.763374e+01
9.025634e+01	-1.768129e+01
9.077766e+01	-1.773133e+01
9.130199e+01	-1.778191e+01
9.182935e+01	-1.783016e+01
9.235975e+01	-1.787950e+01
9.289321e+01	-1.792883e+01
9.342976e+01	-1.797846e+01
9.396941e+01	-1.802678e+01
9.451217e+01	-1.807664e+01
9.505807e+01	-1.812514e+01
9.560712e+01	-1.817598e+01
9.615934e+01	-1.822497e+01
9.671476e+01	-1.827261e+01
9.727338e+01	-1.832231e+01
9.783522e+01	-1.837365e+01
9.840032e+01	-1.841993e+01
9.896867e+01	-1.847124e+01
9.954031e+01	-1.852064e+01
1.001153e+02	-1.857022e+01
1.006935e+02	-1.861841e+01
1.012751e+02	-1.866770e+01
1.018601e+02	-1.871638e+01
1.024484e+02	-1.876594e+01
1.030402e+02	-1.881656e+01
1.036353e+02	-1.886561e+01
1.042339e+02	-1.891613e+01
1.048360e+02	-1.896525e+01
1.054415e+02	-1.901265e+01
1.060505e+02	-1.906436e+01
1.066631e+02	-1.911231e+01
1.072791e+02	-1.916255e+01
1.078988e+02	-1.921027e+01
1.085220e+02	-1.926230e+01
1.091488e+02	-1.931086e+01
1.097793e+02	-1.935961e+01
1.104133e+02	-1.940884e+01
1.110511e+02	-1.945849e+01
1.116925e+02	-1.950833e+01
1.123376e+02	-1.955802e+01
1.129865e+02	-1.960715e+01
1.136391e+02	-1.965613e+01
1.142955e+02	-1.970496e+01
1.149556e+02	-1.975571e+01
1.156196e+02	-1.980565e+01
1.162874e+02	-1.985575e+01
1.169591e+02	-1.990454e+01
1.176347e+02	-1.995315e+01
1.183141e+02	-2.000453e+01
1.189975e+02	-2.005404e+01
1.196848e+02	-2.010272e+01
1.203761e+02	-2.015323e+01
1.210714e+02	-2.020188e+01
1.217707e+02	-2.025240e+01
1.224740e+02	-2.030060e+01
1.231814e+02	-2.034972e+01
1.238929e+02	-2.040037e+01
1.246085e+02	-2.045130e+01
1.253283e+02	-2.049938e+01
1.260522e+02	-2.055012e+01
1.267802e+02	-2.059708e+01
1.275125e+02	-2.064700e+01
1.282490e+02	-2.069783e+01
1.289898e+02	-2.074782e+01
1.297348e+02	-2.079537e+01
1.304842e+02	-2.084692e+01
1.312378e+02	-2.089543e+01
1.319959e+02	-2.094362e+01
1.327583e+02	-2.099565e+01
1.335251e+02	-2.104355e+01
1.342963e+02	-2.109582e+01
1.350720e+02	-2.114353e+01
1.358522e+02	-2.119387e+01
1.366368e+02	-2.124356e+01
1.374260e+02	-2.129289e+01
1.382198e+02	-2.134197e+01
1.390182e+02	-2.139182e+01
1.398211e+02	-2.144191e+01
1.406287e+02	-2.149169e+01
1.414410e+02	-2.154286e+01
1.422579e+02	-2.159033e+01
1.430796e+02	-2.164104e+01
1.439060e+02	-2.169267e+01
1.447372e+02	-2.173920e+01
1.455732e+02	-2.179086e+01
1.464141e+02	-2.183848e+01
1.472597e+02	-2.188881e+01
1.481103e+02	-2.193991e+01
1.489658e+02	-2.198953e+01
1.498262e+02	-2.203652e+01
1.506916e+02	-2.208806e+01
1.515620e+02	-2.213964e+01
1.524374e+02	-2.218686e+01
1.533179e+02	-2.223947e+01
1.542034e+02	-2.228577e+01
1.550941e+02	-2.233556e+01
1.559899e+02	-2.238538e+01
1.568909e+02	-2.243507e+01
1.577971e+02	-2.248523e+01
1.587085e+02	-2.253637e+01
1.596252e+02	-2.258719e+01
1.605472e+02	-2.263497e+01
1.614745e+02	-2.268450e+01
1.624072e+02	-2.273659e+01
1.633453e+02	-2.278431e+01
1.642887e+02	-2.283243e+01
1.652377e+02	-2.288449e+01
1.661921e+02	-2.293340e+01
1.671520e+02	-2.298208e+01
1.681175e+02	-2.303460e+01
1.690885e+02	-2.308376e+01
1.700651e+02	-2.313502e+01
1.710474e+02	-2.318411e+01
1.720354e+02	-2.323275e+01
1.730291e+02	-2.328502e+01
1.740285e+02	-2.333209e+01
1.750337e+02	-2.338050e+01
1.760446e+02	-2.343298e+01
1.770615e+02	-2.348175e+01
1.780842e+02	-2.353041e+01
1.791128e+02	-2.358185e+01
1.801473e+02	-2.363183e+01
1.811878e+02	-2.367997e+01
1.822344e+02	-2.373190e+01
1.832870e+02	-2.378116e+01
1.843456e+02	-2.383397e+01
1.854104e+02	-2.388020e+01
1.864813e+02	-2.393087e+01
1.875584e+02	-2.397958e+01
1.886418e+02	-2.403066e+01
1.897313e+02	-2.408107e+01
1.908272e+02	-2.413021e+01
1.919294e+02	-2.418124e+01
1.930380e+02	-2.422944e+01
1.941530e+02	-2.427733e+01
1.952744e+02	-2.432882e+01
1.964023e+02	-2.438011e+01
1.975367e+02	-2.442954e+01
1.986777e+02	-2.447987e+01
1.998252e+02	-2.453091e+01
2.009794e+02	-2.457954e+01
2.021403e+02	-2.462960e+01
2.033078e+02	-2.467857e+01
2.044821e+02	-2.472764e+01
2.056632e+02	-2.477884e+01
2.068511e+02	-2.482690e+01
2.080459e+02	-2.487916e+01
2.092475e+02	-2.492966e+01
2.104561e+02	-2.498021e+01
2.116717e+02	-2.503101e+01
2.128943e+02	-2.507415e+01
2.141240e+02	-2.512579e+01
2.153608e+02	-2.517568e+01
2.166047e+02	-2.522852e+01
2.178558e+02	-2.527734e+01
2.191141e+02	-2.532790e+01
2.203797e+02	-2.537706e+01
2.216526e+02	-2.542891e+01
2.229329e+02	-2.547715e+01
2.242205e+02	-2.552457e+01
2.255156e+02	-2.557808e+01
2.268182e+02	-2.562442e+01
2.281283e+02	-2.567632e+01
2.294459e+02	-2.572766e+01
2.307712e+02	-2.577527e+01
2.321041e+02	-2.582698e+01
2.334447e+02	-2.587492e+01
2.347931e+02	-2.592501e+01
2.361493e+02	-2.597631e+01
2.375133e+02	-2.602919e+01
2.388851e+02	-2.607634e+01
2.402649e+02	-2.612867e+01
2.416527e+02	-2.617604e+01
2.430484e+02	-2.622142e+01
2.444523e+02	-2.627298e+01
2.458642e+02	-2.632863e+01
2.472843e+02	-2.637580e+01
2.487126e+02	-2.642574e+01
2.501492e+02	-2.647637e+01
2.515940e+02	-2.652447e+01
2.530472e+02	-2.657424e+01
2.545088e+02	-2.662494e+01
2.559789e+02	-2.667419e+01
2.574574e+02	-2.672634e+01
2.589444e+02	-2.677484e+01
2.604401e+02	-2.682468e+01
2.619444e+02	-2.687394e+01
2.634574e+02	-2.692780e+01
2.649791e+02	-2.697102e+01
2.665096e+02	-2.702909e+01
2.680489e+02	-2.707706e+01
2.695972e+02	-2.712529e+01
2.711544e+02	-2.717381e+01
2.727205e+02	-2.722636e+01
2.742958e+02	-2.727411e+01
2.758801e+02	-2.732455e+01
2.774736e+02	-2.737659e+01
2.790762e+02	-2.742540e+01
2.806882e+02	-2.747705e+01
2.823094e+02	-2.752410e+01
2.839400e+02	-2.757438e+01
2.855800e+02	-2.762670e+01
2.872295e+02	-2.767493e+01
2.888886e+02	-2.772780e+01
2.905572e+02	-2.777219e+01
2.922354e+02	-2.782605e+01
2.939234e+02	-2.787665e+01
2.956211e+02	-2.792537e+01
2.973286e+02	-2.797642e+01
2.990459e+02	-2.802308e+01
3.007732e+02	-2.807527e+01
3.025104e+02	-2.812683e+01
3.042577e+02	-2.817579e+01
3.060151e+02	-2.822626e+01
3.077826e+02	-2.827813e+01
3.095604e+02	-2.832357e+01
3.113484e+02	-2.837788e+01
3.131467e+02	-2.842831e+01
3.149554e+02	-2.847349e+01
3.167746e+02	-2.852272e+01
3.186043e+02	-2.857375e+01
3.204445e+02	-2.862743e+01
3.222954e+02	-2.867854e+01
3.241570e+02	-2.872823e+01
3.260293e+02	-2.877382e+01
3.279124e+02	-2.882682e+01
3.298064e+02	-2.887463e+01
3.317114e+02	-2.892679e+01
3.336273e+02	-2.897871e+01
3.355544e+02	-2.902229e+01
3.374925e+02	-2.907442e+01
3.394418e+02	-2.912442e+01
3.414024e+02	-2.917975e+01
3.433744e+02	-2.922483e+01
3.453577e+02	-2.927568e+01
3.473525e+02	-2.932552e+01
3.493588e+02	-2.937690e+01
3.513766e+02	-2.942221e+01
3.534062e+02	-2.947638e+01
3.554474e+02	-2.953207e+01
3.575005e+02	-2.957886e+01
3.595654e+02	-2.962605e+01
3.616422e+02	-2.967485e+01
3.637311e+02	-2.972848e+01
3.658320e+02	-2.977578e+01
3.679450e+02	-2.982484e+01
3.700702e+02	-2.987545e+01
3.722077e+02	-2.992948e+01
3.743576e+02	-2.997692e+01
3.765199e+02	-3.002436e+01
3.786946e+02	-3.007639e+01
3.808820e+02	-3.012603e+01
3.830819e+02	-3.018303e+01
3.852946e+02	-3.023232e+01
3.875200e+02	-3.028522e+01
3.897583e+02	-3.032718e+01
3.920096e+02	-3.037252e+01
3.942738e+02	-3.043052e+01
3.965511e+02	-3.047618e+01
3.988416e+02	-3.052746e+01
4.011452e+02	-3.058103e+01
4.034622e+02	-3.063014e+01
4.057926e+02	-3.068129e+01
4.081365e+02	-3.073103e+01
4.104938e+02	-3.078100e+01
4.128648e+02	-3.082959e+01
4.152495e+02	-3.088301e+01
4.176480e+02	-3.093507e+01
4.200603e+02	-3.097893e+01
4.224866e+02	-3.102881e+01
4.249268e+02	-3.107498e+01
4.273812e+02	-3.112952e+01
4.298497e+02	-3.118216e+01
4.323325e+02	-3.123627e+01
4.348297e+02	-3.127876e+01
4.373412e+02	-3.132812e+01
4.398673e+02	-3.138256e+01
4.424079e+02	-3.142890e+01
4.449633e+02	-3.147833e+01
4.475334e+02	-3.153548e+01
4.501183e+02	-3.158495e+01
4.527182e+02	-3.162607e+01
4.553330e+02	-3.168468e+01
4.579630e+02	-3.173170e+01
4.606082e+02	-3.177857e+01
4.632687e+02	-3.183767e+01
4.659445e+02	-3.188602e+01
4.686358e+02	-3.193525e+01
4.713426e+02	-3.198695e+01
4.740650e+02	-3.203488e+01
4.768032e+02	-3.207852e+01
4.795572e+02	-3.213345e+01
4.823271e+02	-3.218877e+01
4.851130e+02	-3.223650e+01
4.879150e+02	-3.227610e+01
4.907332e+02	-3.233653e+01
4.935676e+02	-3.238189e+01
4.964185e+02	-3.243557e+01
4.992858e+02	-3.248800e+01
5.021696e+02	-3.253759e+01
5.050701e+02	-3.258344e+01
5.079874e+02	-3.263213e+01
5.109215e+02	-3.268265e+01
5.138726e+02	-3.273147e+01
5.168407e+02	-3.279013e+01
5.198259e+02	-3.283986e+01
5.228284e+02	-3.288524e+01
5.258482e+02	-3.293814e+01
5.288855e+02	-3.298920e+01
5.319403e+02	-3.303839e+01
5.350128e+02	-3.309033e+01
5.381030e+02	-3.312939e+01
5.412111e+02	-3.317600e+01
5.443371e+02	-3.324473e+01
5.474812e+02	-3.328523e+01
5.506434e+02	-3.333651e+01
5.538239e+02	-3.338728e+01
5.570228e+02	-3.343810e+01
5.602401e+02	-3.348546e+01
5.634760e+02	-3.354090e+01
5.667306e+02	-3.359363e+01
5.700040e+02	-3.364120e+01
5.732964e+02	-3.369250e+01
5.766077e+02	-3.373711e+01
5.799382e+02	-3.379645e+01
5.832879e+02	-3.383462e+01
5.866569e+02	-3.389483e+01
5.900454e+02	-3.393702e+01
5.934535e+02	-3.399540e+01
5.968813e+02	-3.404286e+01
6.003288e+02	-3.409196e+01
6.037963e+02	-3.414533e+01
6.072838e+02	-3.419484e+01
6.107914e+02	-3.424069e+01
6.143194e+02	-3.429270e+01
6.178676e+02	-3.434593e+01
6.214364e+02	-3.440044e+01
6.250258e+02	-3.444807e+01
6.286359e+02	-3.450029e+01
6.322669e+02	-3.454424e+01
6.359189e+02	-3.459340e+01
6.395919e+02	-3.465153e+01
6.432862e+02	-3.470314e+01
6.470017e+02	-3.474514e+01
6.507388e+02	-3.479658e+01
6.544974e+02	-3.485048e+01
6.582778e+02	-3.489964e+01
6.620800e+02	-3.495665e+01
6.659041e+02	-3.500081e+01
6.697504e+02	-3.504923e+01
6.736188e+02	-3.511376e+01
6.775096e+02	-3.514567e+01
6.814229e+02	-3.521103e+01
6.853587e+02	-3.524926e+01
6.893173e+02	-3.530354e+01
6.932988e+02	-3.535347e+01
6.973033e+02	-3.539132e+01
7.013309e+02	-3.545325e+01
