Frequency(Hz)	Magnitude(dB)
1.000000e+01	-2.107949e+00
1.005776e+01	-2.127269e+00
1.011585e+01	-2.146658e+00
1.017428e+01	-2.166458e+00
1.023305e+01	-2.185918e+00
1.029215e+01	-2.205801e+00
1.035160e+01	-2.225708e+00
1.041139e+01	-2.246069e+00
1.047153e+01	-2.266135e+00
1.053201e+01	-2.286443e+00
1.059284e+01	-2.307276e+00
1.065403e+01	-2.327912e+00
1.071556e+01	-2.348784e+00
1.077746e+01	-2.369661e+00
1.083971e+01	-2.390783e+00
1.090232e+01	-2.412253e+00
1.096529e+01	-2.433139e+00
1.102862e+01	-2.455191e+00
1.109232e+01	-2.476718e+00
1.115639e+01	-2.498519e+00
1.122083e+01	-2.520419e+00
1.128564e+01	-2.542750e+00
1.135083e+01	-2.564601e+00
1.141639e+01	-2.587124e+00
1.148233e+01	-2.609552e+00
1.154865e+01	-2.632200e+00
1.161536e+01	-2.655100e+00
1.168245e+01	-2.677919e+00
1.174992e+01	-2.700873e+00
1.181779e+01	-2.724495e+00
1.188605e+01	-2.747945e+00
1.195470e+01	-2.771291e+00
1.202375e+01	-2.795022e+00
1.209320e+01	-2.818817e+00
1.216305e+01	-2.842855e+00
1.223330e+01	-2.866862e+00
1.230396e+01	-2.891039e+00
1.237503e+01	-2.915413e+00
1.244651e+01	-2.939894e+00
1.251840e+01	-2.964837e+00
1.259070e+01	-2.989252e+00
1.266343e+01	-3.014598e+00
1.273657e+01	-3.039549e+00
1.281014e+01	-3.064886e+00
1.288413e+01	-3.090184e+00
1.295855e+01	-3.115866e+00
1.303339e+01	-3.141398e+00
1.310867e+01	-3.167204e+00
1.318439e+01	-3.193219e+00
1.326054e+01	-3.219461e+00
1.333713e+01	-3.245767e+00
1.341417e+01	-3.272012e+00
1.349165e+01	-3.298503e+00
1.356958e+01	-3.325244e+00
1.364795e+01	-3.352042e+00
1.372678e+01	-3.379204e+00
1.380607e+01	-3.406081e+00
1.388581e+01	-3.433658e+00
1.396602e+01	-3.461041e+00
1.404668e+01	-3.488358e+00
1.412782e+01	-3.516082e+00
1.420942e+01	-3.544043e+00
1.429149e+01	-3.571906e+00
1.437404e+01	-3.600053e+00
1.445706e+01	-3.628446e+00
1.454057e+01	-3.656645e+00
1.462455e+01	-3.685392e+00
1.470902e+01	-3.713936e+00
1.479398e+01	-3.742878e+00
1.487943e+01	-3.771528e+00
1.496537e+01	-3.800960e+00
1.505181e+01	-3.829740e+00
1.513875e+01	-3.859293e+00
1.522619e+01	-3.888863e+00
1.531414e+01	-3.918814e+00
1.540259e+01	-3.948194e+00
1.549156e+01	-3.978358e+00
1.558103e+01	-4.008279e+00
1.567103e+01	-4.038678e+00
1.576155e+01	-4.069026e+00
1.585258e+01	-4.099493e+00
1.594415e+01	-4.129990e+00
1.603624e+01	-4.160916e+00
1.612886e+01	-4.191782e+00
1.622202e+01	-4.222965e+00
1.631572e+01	-4.253808e+00
1.640996e+01	-4.285405e+00
1.650474e+01	-4.316484e+00
1.660008e+01	-4.348332e+00
1.669596e+01	-4.380085e+00
1.679239e+01	-4.412148e+00
1.688938e+01	-4.444031e+00
1.698694e+01	-4.475797e+00
1.708505e+01	-4.508479e+00
1.718373e+01	-4.540543e+00
1.728299e+01	-4.572798e+00
1.738281e+01	-4.605512e+00
1.748322e+01	-4.638444e+00
1.758420e+01	-4.671432e+00
1.768576e+01	-4.704375e+00
1.778792e+01	-4.737649e+00
1.789066e+01	-4.771044e+00
1.799399e+01	-4.804524e+00
1.809793e+01	-4.838056e+00
1.820246e+01	-4.871293e+00
1.830760e+01	-4.905447e+00
1.841334e+01	-4.939311e+00
1.851969e+01	-4.973414e+00
1.862666e+01	-5.007436e+00
1.873425e+01	-5.041496e+00
1.884246e+01	-5.076071e+00
1.895129e+01	-5.110618e+00
1.906075e+01	-5.145038e+00
1.917085e+01	-5.179951e+00
1.928158e+01	-5.214917e+00
1.939295e+01	-5.249959e+00
1.950496e+01	-5.285370e+00
1.961762e+01	-5.320617e+00
1.973093e+01	-5.356085e+00
1.984490e+01	-5.391666e+00
1.995952e+01	-5.426735e+00
2.007480e+01	-5.462893e+00
2.019076e+01	-5.498682e+00
2.030738e+01	-5.534619e+00
2.042467e+01	-5.570753e+00
2.054264e+01	-5.606986e+00
2.066130e+01	-5.642974e+00
2.078064e+01	-5.679452e+00
2.090066e+01	-5.716538e+00
2.102139e+01	-5.753259e+00
2.114280e+01	-5.789417e+00
2.126492e+01	-5.826594e+00
2.138775e+01	-5.863590e+00
2.151128e+01	-5.900437e+00
2.163553e+01	-5.937946e+00
2.176050e+01	-5.975557e+00
2.188619e+01	-6.012866e+00
2.201260e+01	-6.050471e+00
2.213974e+01	-6.087766e+00
2.226762e+01	-6.125886e+00
2.239624e+01	-6.163907e+00
2.252560e+01	-6.201832e+00
2.265571e+01	-6.239323e+00
2.278656e+01	-6.277822e+00
2.291818e+01	-6.316057e+00
2.305055e+01	-6.354477e+00
2.318369e+01	-6.392880e+00
2.331760e+01	-6.431860e+00
2.345228e+01	-6.470411e+00
2.358774e+01	-6.508765e+00
2.372398e+01	-6.547910e+00
2.386101e+01	-6.587033e+00
2.399883e+01	-6.626374e+00
2.413745e+01	-6.665366e+00
2.427686e+01	-6.704379e+00
2.441709e+01	-6.743948e+00
2.455812e+01	-6.783305e+00
2.469997e+01	-6.822806e+00
2.484263e+01	-6.862630e+00
2.498612e+01	-6.901913e+00
2.513044e+01	-6.942518e+00
2.527559e+01	-6.982584e+00
2.542158e+01	-7.022157e+00
2.556842e+01	-7.062286e+00
2.571610e+01	-7.102345e+00
2.586463e+01	-7.142989e+00
2.601403e+01	-7.183378e+00
2.616428e+01	-7.223530e+00
2.631541e+01	-7.264865e+00
2.646740e+01	-7.305597e+00
2.662028e+01	-7.345827e+00
2.677404e+01	-7.386852e+00
2.692868e+01	-7.427656e+00
2.708422e+01	-7.468066e+00
2.724066e+01	-7.509582e+00
2.739800e+01	-7.551144e+00
2.755625e+01	-7.592610e+00
2.771541e+01	-7.633580e+00
2.787550e+01	-7.674939e+00
2.803650e+01	-7.716309e+00
2.819844e+01	-7.758347e+00
2.836131e+01	-7.799867e+00
2.852513e+01	-7.841949e+00
2.868989e+01	-7.883574e+00
2.885560e+01	-7.925512e+00
2.902227e+01	-7.967569e+00
2.918990e+01	-8.009802e+00
2.935850e+01	-8.051587e+00
2.952807e+01	-8.094084e+00
2.969863e+01	-8.136314e+00
2.987016e+01	-8.178801e+00
3.004269e+01	-8.221515e+00
3.021622e+01	-8.263356e+00
3.039075e+01	-8.306463e+00
3.056628e+01	-8.349143e+00
3.074283e+01	-8.391585e+00
3.092040e+01	-8.434668e+00
3.109900e+01	-8.477010e+00
3.127862e+01	-8.520341e+00
3.145929e+01	-8.563155e+00
3.164099e+01	-8.606574e+00
3.182375e+01	-8.649628e+00
3.200756e+01	-8.692983e+00
3.219244e+01	-8.736326e+00
3.237838e+01	-8.779589e+00
3.256540e+01	-8.822455e+00
3.275349e+01	-8.866434e+00
3.294268e+01	-8.910181e+00
3.313295e+01	-8.953645e+00
3.332433e+01	-8.997294e+00
3.351681e+01	-9.040788e+00
3.371040e+01	-9.084964e+00
3.390511e+01	-9.128985e+00
3.410094e+01	-9.172511e+00
3.429791e+01	-9.217167e+00
3.449601e+01	-9.261103e+00
3.469526e+01	-9.305229e+00
3.489566e+01	-9.348563e+00
3.509721e+01	-9.393135e+00
3.529993e+01	-9.437873e+00
3.550382e+01	-9.481830e+00
3.570889e+01	-9.526427e+00
3.591515e+01	-9.570970e+00
3.612259e+01	-9.615724e+00
3.633123e+01	-9.660297e+00
3.654108e+01	-9.704594e+00
3.675214e+01	-9.749251e+00
3.696442e+01	-9.794123e+00
3.717792e+01	-9.839275e+00
3.739266e+01	-9.883514e+00
3.760864e+01	-9.928782e+00
3.782587e+01	-9.973752e+00
3.804435e+01	-1.001811e+01
3.826409e+01	-1.006383e+01
3.848510e+01	-1.010835e+01
3.870739e+01	-1.015418e+01
3.893096e+01	-1.019949e+01
3.915583e+01	-1.024455e+01
3.938199e+01	-1.029001e+01
3.960946e+01	-1.033509e+01
3.983824e+01	-1.038068e+01
4.006834e+01	-1.042609e+01
4.029978e+01	-1.047197e+01
4.053255e+01	-1.051743e+01
4.076666e+01	-1.056256e+01
4.100213e+01	-1.060839e+01
4.123896e+01	-1.065394e+01
4.147715e+01	-1.069999e+01
4.171672e+01	-1.074571e+01
4.195767e+01	-1.079101e+01
4.220002e+01	-1.083682e+01
4.244377e+01	-1.088323e+01
4.268892e+01	-1.092962e+01
4.293549e+01	-1.097549e+01
4.318348e+01	-1.102155e+01
4.343291e+01	-1.106713e+01
4.368377e+01	-1.111334e+01
4.393609e+01	-1.116025e+01
4.418986e+01	-1.120546e+01
4.444510e+01	-1.125202e+01
4.470182e+01	-1.129914e+01
4.496001e+01	-1.134460e+01
4.521970e+01	-1.139118e+01
4.548089e+01	-1.143801e+01
4.574358e+01	-1.148394e+01
4.600779e+01	-1.153065e+01
4.627353e+01	-1.157784e+01
4.654081e+01	-1.162392e+01
4.680963e+01	-1.166971e+01
4.708000e+01	-1.171682e+01
4.735193e+01	-1.176311e+01
4.762543e+01	-1.181040e+01
4.790051e+01	-1.185711e+01
4.817719e+01	-1.190404e+01
4.845545e+01	-1.195120e+01
4.873533e+01	-1.199787e+01
4.901682e+01	-1.204417e+01
4.929994e+01	-1.209081e+01
4.958470e+01	-1.213886e+01
4.987110e+01	-1.218553e+01
5.015915e+01	-1.223208e+01
5.044887e+01	-1.227946e+01
5.074026e+01	-1.232646e+01
5.103333e+01	-1.237329e+01
5.132810e+01	-1.242068e+01
5.162457e+01	-1.246781e+01
5.192275e+01	-1.251491e+01
5.222265e+01	-1.256225e+01
5.252429e+01	-1.260922e+01
5.282767e+01	-1.265629e+01
5.313280e+01	-1.270407e+01
5.343969e+01	-1.275167e+01
5.374836e+01	-1.279852e+01
5.405880e+01	-1.284604e+01
5.437105e+01	-1.289382e+01
5.468509e+01	-1.294135e+01
5.500095e+01	-1.298888e+01
5.531863e+01	-1.303646e+01
5.563815e+01	-1.308438e+01
5.595951e+01	-1.313163e+01
5.628273e+01	-1.317844e+01
5.660782e+01	-1.322607e+01
5.693479e+01	-1.327440e+01
5.726364e+01	-1.332232e+01
5.759439e+01	-1.336910e+01
5.792705e+01	-1.341820e+01
5.826164e+01	-1.346480e+01
5.859815e+01	-1.351281e+01
5.893662e+01	-1.356069e+01
5.927703e+01	-1.360757e+01
5.961941e+01	-1.365721e+01
5.996377e+01	-1.370458e+01
6.031012e+01	-1.375290e+01
6.065847e+01	-1.380041e+01
6.100883e+01	-1.384904e+01
6.136121e+01	-1.389719e+01
6.171563e+01	-1.394394e+01
6.207210e+01	-1.399195e+01
6.243063e+01	-1.403958e+01
6.279122e+01	-1.408822e+01
6.315390e+01	-1.413624e+01
6.351868e+01	-1.418536e+01
6.388556e+01	-1.423235e+01
6.425456e+01	-1.428165e+01
6.462569e+01	-1.432841e+01
6.499897e+01	-1.437772e+01
6.537440e+01	-1.442555e+01
6.575200e+01	-1.447322e+01
6.613178e+01	-1.452166e+01
6.651375e+01	-1.457004e+01
6.689793e+01	-1.461819e+01
6.728433e+01	-1.466623e+01
6.767297e+01	-1.471451e+01
6.806384e+01	-1.476349e+01
6.845698e+01	-1.481162e+01
6.885238e+01	-1.486051e+01
6.925007e+01	-1.490882e+01
6.965005e+01	-1.495654e+01
7.005235e+01	-1.500597e+01
7.045697e+01	-1.505407e+01
7.086393e+01	-1.510258e+01
7.127323e+01	-1.515103e+01
7.168490e+01	-1.519989e+01
7.209895e+01	-1.524779e+01
7.251539e+01	-1.529633e+01
7.293424e+01	-1.534426e+01
7.335551e+01	-1.539350e+01
7.377920e+01	-1.544214e+01
7.420535e+01	-1.549139e+01
7.463396e+01	-1.554024e+01
7.506504e+01	-1.558883e+01
7.549861e+01	-1.563637e+01
7.593469e+01	-1.568594e+01
7.637328e+01	-1.573474e+01
7.681441e+01	-1.578201e+01
7.725809e+01	-1.583163e+01
7.770433e+01	-1.588072e+01
7.815315e+01	-1.592890e+01
7.860456e+01	-1.597785e+01
7.905857e+01	-1.602632e+01
7.951521e+01	-1.607706e+01
7.997449e+01	-1.612421e+01
8.043642e+01	-1.617270e+01
8.090102e+01	-1.622195e+01
8.136830e+01	-1.627086e+01
8.183828e+01	-1.631897e+01
8.231097e+01	-1.636793e+01
8.278640e+01	-1.641636e+01
8.326457e+01	-1.646642e+01
8.374550e+01	-1.651527e+01
8.422921e+01	-1.656380e+01
8.471572e+01	-1.661248e+01
8.520503e+01	-1.666200e+01
8.569717e+01	-1.671147e+01
8.619215e+01	-1.675879e+01
8.669000e+01	-1.680869e+01
8.719071e+01	-1.685750e+01
8.769432e+01	-1.690755e+01
8.820084e+01	-1.695594e+01
8.871029e+01	-1.700558e+01
8.922267e+01	-1.705352e+01
8.973802e+01	-1.710377e+01
9.025634e+01	-1.715202e+01
9.077766e+01	-1.719972e+01
9.130199e+01	-1.724981e+01
9.182935e+01	-1.729901e+01
9.235975e+01	-1.734880e+01
9.289321e+01	-1.739742e+01
9.342976e+01	-1.744613e+01
9.396941e+01	-1.749560e+01
9.451217e+01	-1.754601e+01
9.505807e+01	-1.759430e+01
9.560712e+01	-1.764355e+01
9.615934e+01	-1.769269e+01
9.671476e+01	-1.774191e+01
9.727338e+01	-1.779183e+01
9.783522e+01	-1.784018e+01
9.840032e+01	-1.788929e+01
9.896867e+01	-1.793854e+01
9.954031e+01	-1.798817e+01
1.001153e+02	-1.803721e+01
1.006935e+02	-1.808653e+01
1.012751e+02	-1.813434e+01
1.018601e+02	-1.818498e+01
1.024484e+02	-1.823318e+01
1.030402e+02	-1.828292e+01
1.036353e+02	-1.833179e+01
1.042339e+02	-1.838235e+01
1.048360e+02	-1.843064e+01
1.054415e+02	-1.847949e+01
1.060505e+02	-1.852939e+01
1.066631e+02	-1.857788e+01
1.072791e+02	-1.862926e+01
1.078988e+02	-1.867662e+01
1.085220e+02	-1.872796e+01
1.091488e+02	-1.877758e+01
1.097793e+02	-1.882606e+01
1.104133e+02	-1.887483e+01
1.110511e+02	-1.892438e+01
1.116925e+02	-1.897366e+01
1.123376e+02	-1.902314e+01
1.129865e+02	-1.907211e+01
1.136391e+02	-1.912346e+01
1.142955e+02	-1.917193e+01
1.149556e+02	-1.922038e+01
1.156196e+02	-1.927073e+01
1.162874e+02	-1.932136e+01
1.169591e+02	-1.937088e+01
1.176347e+02	-1.942030e+01
1.183141e+02	-1.946938e+01
1.189975e+02	-1.951809e+01
1.196848e+02	-1.956510e+01
1.203761e+02	-1.961813e+01
1.210714e+02	-1.966703e+01
1.217707e+02	-1.971656e+01
1.224740e+02	-1.976550e+01
1.231814e+02	-1.981440e+01
1.238929e+02	-1.986442e+01
1.246085e+02	-1.991295e+01
1.253283e+02	-1.996337e+01
1.260522e+02	-2.001237e+01
1.267802e+02	-2.006253e+01
1.275125e+02	-2.011199e+01
1.282490e+02	-2.016124e+01
1.289898e+02	-2.021205e+01
1.297348e+02	-2.026072e+01
1.304842e+02	-2.030970e+01
1.312378e+02	-2.035926e+01
1.319959e+02	-2.040906e+01
1.327583e+02	-2.045827e+01
1.335251e+02	-2.051004e+01
1.342963e+02	-2.055735e+01
1.350720e+02	-2.060801e+01
1.358522e+02	-2.065831e+01
1.366368e+02	-2.070633e+01
1.374260e+02	-2.075479e+01
1.382198e+02	-2.080568e+01
1.390182e+02	-2.085619e+01
1.398211e+02	-2.090627e+01
1.406287e+02	-2.095633e+01
1.414410e+02	-2.100567e+01
1.422579e+02	-2.105312e+01
1.430796e+02	-2.110321e+01
1.439060e+02	-2.115318e+01
1.447372e+02	-2.120308e+01
1.455732e+02	-2.125268e+01
1.464141e+02	-2.130223e+01
1.472597e+02	-2.135177e+01
1.481103e+02	-2.140136e+01
1.489658e+02	-2.145373e+01
1.498262e+02	-2.150160e+01
1.506916e+02	-2.155199e+01
1.515620e+02	-2.160154e+01
1.524374e+02	-2.165202e+01
1.533179e+02	-2.170034e+01
1.542034e+02	-2.174879e+01
1.550941e+02	-2.179855e+01
1.559899e+02	-2.184877e+01
1.568909e+02	-2.189788e+01
1.577971e+02	-2.194844e+01
1.587085e+02	-2.199785e+01
1.596252e+02	-2.204811e+01
1.605472e+02	-2.209890e+01
1.614745e+02	-2.214813e+01
1.624072e+02	-2.219623e+01
1.633453e+02	-2.224782e+01
1.642887e+02	-2.229843e+01
1.652377e+02	-2.234690e+01
1.661921e+02	-2.239637e+01
1.671520e+02	-2.244715e+01
1.681175e+02	-2.249569e+01
1.690885e+02	-2.254703e+01
1.700651e+02	-2.259626e+01
1.710474e+02	-2.264628e+01
1.720354e+02	-2.269460e+01
1.730291e+02	-2.274660e+01
1.740285e+02	-2.279357e+01
1.750337e+02	-2.284474e+01
1.760446e+02	-2.289342e+01
1.770615e+02	-2.294241e+01
1.780842e+02	-2.299202e+01
1.791128e+02	-2.304423e+01
1.801473e+02	-2.309625e+01
1.811878e+02	-2.314209e+01
1.822344e+02	-2.319305e+01
1.832870e+02	-2.324486e+01
1.843456e+02	-2.329318e+01
1.854104e+02	-2.334212e+01
1.864813e+02	-2.339186e+01
1.875584e+02	-2.344059e+01
1.886418e+02	-2.349130e+01
1.897313e+02	-2.354310e+01
1.908272e+02	-2.358810e+01
1.919294e+02	-2.364246e+01
1.930380e+02	-2.369189e+01
1.941530e+02	-2.374066e+01
1.952744e+02	-2.379085e+01
1.964023e+02	-2.383904e+01
1.975367e+02	-2.389188e+01
1.986777e+02	-2.394099e+01
1.998252e+02	-2.399246e+01
2.009794e+02	-2.404049e+01
2.021403e+02	-2.409065e+01
2.033078e+02	-2.413970e+01
2.044821e+02	-2.418835e+01
2.056632e+02	-2.424090e+01
2.068511e+02	-2.428797e+01
2.080459e+02	-2.433946e+01
2.092475e+02	-2.438997e+01
2.104561e+02	-2.444035e+01
2.116717e+02	-2.448948e+01
2.128943e+02	-2.453817e+01
2.141240e+02	-2.459135e+01
2.153608e+02	-2.463823e+01
2.166047e+02	-2.468930e+01
2.178558e+02	-2.473926e+01
2.191141e+02	-2.479099e+01
2.203797e+02	-2.483954e+01
2.216526e+02	-2.488797e+01
2.229329e+02	-2.493821e+01
2.242205e+02	-2.498850e+01
2.255156e+02	-2.503697e+01
2.268182e+02	-2.508873e+01
2.281283e+02	-2.513877e+01
2.294459e+02	-2.518738e+01
2.307712e+02	-2.524083e+01
2.321041e+02	-2.528897e+01
2.334447e+02	-2.533474e+01
2.347931e+02	-2.538970e+01
2.361493e+02	-2.543700e+01
2.375133e+02	-2.548760e+01
2.388851e+02	-2.553680e+01
2.402649e+02	-2.558678e+01
2.416527e+02	-2.563467e+01
2.430484e+02	-2.568699e+01
2.444523e+02	-2.573669e+01
2.458642e+02	-2.578883e+01
2.472843e+02	-2.583594e+01
2.487126e+02	-2.588728e+01
2.501492e+02	-2.593900e+01
2.515940e+02	-2.598360e+01
2.530472e+02	-2.603591e+01
2.545088e+02	-2.608689e+01
2.559789e+02	-2.613768e+01
2.574574e+02	-2.618554e+01
2.589444e+02	-2.623981e+01
2.604401e+02	-2.628568e+01
2.619444e+02	-2.633631e+01
2.634574e+02	-2.638441e+01
2.649791e+02	-2.643673e+01
2.665096e+02	-2.648478e+01
2.680489e+02	-2.653413e+01
2.695972e+02	-2.658658e+01
2.711544e+02	-2.663733e+01
2.727205e+02	-2.668436e+01
2.742958e+02	-2.673624e+01
2.758801e+02	-2.678434e+01
2.774736e+02	-2.683682e+01
2.790762e+02	-2.688615e+01
2.806882e+02	-2.693804e+01
2.823094e+02	-2.698597e+01
2.839400e+02	-2.703780e+01
2.855800e+02	-2.708787e+01
2.872295e+02	-2.713587e+01
2.888886e+02	-2.718661e+01
2.905572e+02	-2.723496e+01
2.922354e+02	-2.728576e+01
2.939234e+02	-2.733403e+01
2.956211e+02	-2.738993e+01
2.973286e+02	-2.743903e+01
2.990459e+02	-2.748391e+01
3.007732e+02	-2.753717e+01
3.025104e+02	-2.758578e+01
3.042577e+02	-2.763627e+01
3.060151e+02	-2.768244e+01
3.077826e+02	-2.773657e+01
3.095604e+02	-2.778760e+01
3.113484e+02	-2.783703e+01
3.131467e+02	-2.788951e+01
3.149554e+02	-2.793404e+01
3.167746e+02	-2.798672e+01
3.186043e+02	-2.804125e+01
3.204445e+02	-2.808681e+01
3.222954e+02	-2.813997e+01
3.241570e+02	-2.818740e+01
3.260293e+02	-2.823865e+01
3.279124e+02	-2.828544e+01
3.298064e+02	-2.833776e+01
3.317114e+02	-2.839003e+01
3.336273e+02	-2.843519e+01
3.355544e+02	-2.848649e+01
3.374925e+02	-2.854020e+01
3.394418e+02	-2.858298e+01
3.414024e+02	-2.863900e+01
3.433744e+02	-2.868320e+01
3.453577e+02	-2.874167e+01
3.473525e+02	-2.878392e+01
3.493588e+02	-2.883759e+01
3.513766e+02	-2.888751e+01
3.534062e+02	-2.893072e+01
3.554474e+02	-2.898627e+01
3.575005e+02	-2.904067e+01
3.595654e+02	-2.908904e+01
3.616422e+02	-2.913312e+01
3.637311e+02	-2.918672e+01
3.658320e+02	-2.924392e+01
3.679450e+02	-2.928673e+01
3.700702e+02	-2.933876e+01
3.722077e+02	-2.938762e+01
3.743576e+02	-2.943631e+01
3.765199e+02	-2.948915e+01
3.786946e+02	-2.953959e+01
3.808820e+02	-2.958815e+01
3.830819e+02	-2.964119e+01
3.852946e+02	-2.968626e+01
3.875200e+02	-2.974119e+01
3.897583e+02	-2.978747e+01
3.920096e+02	-2.983690e+01
3.942738e+02	-2.988817e+01
3.965511e+02	-2.993877e+01
3.988416e+02	-2.998613e+01
4.011452e+02	-3.003844e+01
4.034622e+02	-3.009376e+01
4.057926e+02	-3.014013e+01
4.081365e+02	-3.018598e+01
4.104938e+02	-3.024148e+01
4.128648e+02	-3.029048e+01
4.152495e+02	-3.034658e+01
4.176480e+02	-3.039264e+01
4.200603e+02	-3.044368e+01
4.224866e+02	-3.048637e+01
4.249268e+02	-3.054071e+01
4.273812e+02	-3.059501e+01
4.298497e+02	-3.063976e+01
4.323325e+02	-3.069248e+01
4.348297e+02	-3.073851e+01
4.373412e+02	-3.079302e+01
4.398673e+02	-3.084177e+01
4.424079e+02	-3.089137e+01
4.449633e+02	-3.094773e+01
4.475334e+02	-3.098957e+01
4.501183e+02	-3.104497e+01
4.527182e+02	-3.109595e+01
4.553330e+02	-3.113961e+01
4.579630e+02	-3.119397e+01
4.606082e+02	-3.124590e+01
4.632687e+02	-3.128845e+01
4.659445e+02	-3.134670e+01
4.686358e+02	-3.138963e+01
4.713426e+02	-3.144330e+01
4.740650e+02	-3.149910e+01
4.768032e+02	-3.154873e+01
4.795572e+02	-3.159407e+01
4.823271e+02	-3.164502e+01
4.851130e+02	-3.170058e+01
4.879150e+02	-3.174423e+01
4.907332e+02	-3.179605e+01
4.935676e+02	-3.184696e+01
4.964185e+02	-3.189126e+01
4.992858e+02	-3.193867e+01
5.021696e+02	-3.199415e+01
5.050701e+02	-3.204790e+01
5.079874e+02	-3.209298e+01
5.109215e+02	-3.214463e+01
5.138726e+02	-3.219836e+01
5.168407e+02	-3.224329e+01
5.198259e+02	-3.229022e+01
5.228284e+02	-3.234946e+01
5.258482e+02	-3.239803e+01
5.288855e+02	-3.244425e+01
5.319403e+02	-3.249611e+01
5.350128e+02	-3.256048e+01
5.381030e+02	-3.259211e+01
5.412111e+02	-3.265382e+01
5.443371e+02	-3.269700e+01
5.474812e+02	-3.275089e+01
5.506434e+02	-3.279572e+01
5.538239e+02	-3.284683e+01
5.570228e+02	-3.289641e+01
5.602401e+02	-3.294715e+01
5.634760e+02	-3.299916e+01
5.667306e+02	-3.305321e+01
5.700040e+02	-3.310169e+01
5.732964e+02	-3.315306e+01
5.766077e+02	-3.320123e+01
5.799382e+02	-3.325275e+01
5.832879e+02	-3.329274e+01
5.866569e+02	-3.335253e+01
5.900454e+02	-3.340013e+01
5.934535e+02	-3.345383e+01
5.968813e+02	-3.350013e+01
6.003288e+02	-3.355131e+01
6.037963e+02	-3.360089e+01
6.072838e+02	-3.365267e+01
6.107914e+02	-3.370396e+01
6.143194e+02	-3.375838e+01
6.178676e+02	-3.380761e+01
6.214364e+02	-3.386285e+01
6.250258e+02	-3.390541e+01
6.286359e+02	-3.395764e+01
6.322669e+02	-3.400465e+01
6.359189e+02	-3.406304e+01
6.395919e+02	-3.410514e+01
6.432862e+02	-3.416206e+01
6.470017e+02	-3.421237e+01
6.507388e+02	-3.426415e+01
6.544974e+02	-3.431190e+01
6.582778e+02	-3.435854e+01
6.620800e+02	-3.441319e+01
6.659041e+02	-3.446201e+01
6.697504e+02	-3.451553e+01
6.736188e+02	-3.455348e+01
6.775096e+02	-3.460828e+01
6.814229e+02	-3.467174e+01
6.853587e+02	-3.471303e+01
6.893173e+02	-3.476079e+01
6.932988e+02	-3.481820e+01
6.973033e+02	-3.486849e+01
7.013309e+02	-3.492083e+01
