Frequency(Hz)	Magnitude(dB)
1.000000e+01	-2.307888e+00
1.005776e+01	-2.328793e+00
1.011585e+01	-2.349570e+00
1.017428e+01	-2.370453e+00
1.023305e+01	-2.391665e+00
1.029215e+01	-2.412951e+00
1.035160e+01	-2.434282e+00
1.041139e+01	-2.455808e+00
1.047153e+01	-2.477685e+00
1.053201e+01	-2.499361e+00
1.059284e+01	-2.521313e+00
1.065403e+01	-2.543539e+00
1.071556e+01	-2.565637e+00
1.077746e+01	-2.587945e+00
1.083971e+01	-2.610676e+00
1.090232e+01	-2.633123e+00
1.096529e+01	-2.656012e+00
1.102862e+01	-2.679041e+00
1.109232e+01	-2.702394e+00
1.115639e+01	-2.725456e+00
1.122083e+01	-2.749028e+00
1.128564e+01	-2.772078e+00
1.135083e+01	-2.795523e+00
1.141639e+01	-2.819773e+00
1.148233e+01	-2.843732e+00
1.154865e+01	-2.867830e+00
1.161536e+01	-2.892004e+00
1.168245e+01	-2.916440e+00
1.174992e+01	-2.941128e+00
1.181779e+01	-2.965762e+00
1.188605e+01	-2.990450e+00
1.195470e+01	-3.015668e+00
1.202375e+01	-3.040474e+00
1.209320e+01	-3.065859e+00
1.216305e+01	-3.090967e+00
1.223330e+01	-3.116899e+00
1.230396e+01	-3.142687e+00
1.237503e+01	-3.168347e+00
1.244651e+01	-3.194320e+00
1.251840e+01	-3.220388e+00
1.259070e+01	-3.246666e+00
1.266343e+01	-3.273282e+00
1.273657e+01	-3.299701e+00
1.281014e+01	-3.326275e+00
1.288413e+01	-3.353235e+00
1.295855e+01	-3.380013e+00
1.303339e+01	-3.407308e+00
1.310867e+01	-3.434537e+00
1.318439e+01	-3.462146e+00
1.326054e+01	-3.489728e+00
1.333713e+01	-3.517212e+00
1.341417e+01	-3.545109e+00
1.349165e+01	-3.572937e+00
1.356958e+01	-3.601019e+00
1.364795e+01	-3.629372e+00
1.372678e+01	-3.657805e+00
1.380607e+01	-3.686256e+00
1.388581e+01	-3.715133e+00
1.396602e+01	-3.743914e+00
1.404668e+01	-3.772849e+00
1.412782e+01	-3.801891e+00
1.420942e+01	-3.831237e+00
1.429149e+01	-3.860624e+00
1.437404e+01	-3.890042e+00
1.445706e+01	-3.919834e+00
1.454057e+01	-3.949426e+00
1.462455e+01	-3.979816e+00
1.470902e+01	-4.009698e+00
1.479398e+01	-4.039871e+00
1.487943e+01	-4.070320e+00
1.496537e+01	-4.100792e+00
1.505181e+01	-4.131276e+00
1.513875e+01	-4.162367e+00
1.522619e+01	-4.192926e+00
1.531414e+01	-4.224154e+00
1.540259e+01	-4.255128e+00
1.549156e+01	-4.286627e+00
1.558103e+01	-4.318118e+00
1.567103e+01	-4.349620e+00
1.576155e+01	-4.381299e+00
1.585258e+01	-4.413346e+00
1.594415e+01	-4.445004e+00
1.603624e+01	-4.477522e+00
1.612886e+01	-4.509679e+00
1.622202e+01	-4.541875e+00
1.631572e+01	-4.574485e+00
1.640996e+01	-4.607099e+00
1.650474e+01	-4.639867e+00
1.660008e+01	-4.673021e+00
1.669596e+01	-4.705730e+00
1.679239e+01	-4.739099e+00
1.688938e+01	-4.772379e+00
1.698694e+01	-4.805751e+00
1.708505e+01	-4.839013e+00
1.718373e+01	-4.872750e+00
1.728299e+01	-4.906775e+00
1.738281e+01	-4.940796e+00
1.748322e+01	-4.974272e+00
1.758420e+01	-5.008625e+00
1.768576e+01	-5.043245e+00
1.778792e+01	-5.077423e+00
1.789066e+01	-5.112134e+00
1.799399e+01	-5.146515e+00
1.809793e+01	-5.181554e+00
1.820246e+01	-5.216546e+00
1.830760e+01	-5.251577e+00
1.841334e+01	-5.286527e+00
1.851969e+01	-5.322020e+00
1.862666e+01	-5.357458e+00
1.873425e+01	-5.392690e+00
1.884246e+01	-5.428097e+00
1.895129e+01	-5.463981e+00
1.906075e+01	-5.500167e+00
1.917085e+01	-5.536199e+00
1.928158e+01	-5.572244e+00
1.939295e+01	-5.608268e+00
1.950496e+01	-5.644814e+00
1.961762e+01	-5.681398e+00
1.973093e+01	-5.717849e+00
1.984490e+01	-5.754164e+00
1.995952e+01	-5.791199e+00
2.007480e+01	-5.828173e+00
2.019076e+01	-5.865277e+00
2.030738e+01	-5.902285e+00
2.042467e+01	-5.939572e+00
2.054264e+01	-5.976327e+00
2.066130e+01	-6.014365e+00
2.078064e+01	-6.051740e+00
2.090066e+01	-6.089524e+00
2.102139e+01	-6.126969e+00
2.114280e+01	-6.165042e+00
2.126492e+01	-6.203121e+00
2.138775e+01	-6.241117e+00
2.151128e+01	-6.279137e+00
2.163553e+01	-6.317446e+00
2.176050e+01	-6.355771e+00
2.188619e+01	-6.394235e+00
2.201260e+01	-6.432986e+00
2.213974e+01	-6.471573e+00
2.226762e+01	-6.510620e+00
2.239624e+01	-6.549454e+00
2.252560e+01	-6.588469e+00
2.265571e+01	-6.627697e+00
2.278656e+01	-6.666692e+00
2.291818e+01	-6.706013e+00
2.305055e+01	-6.745558e+00
2.318369e+01	-6.784992e+00
2.331760e+01	-6.824623e+00
2.345228e+01	-6.864414e+00
2.358774e+01	-6.903661e+00
2.372398e+01	-6.944157e+00
2.386101e+01	-6.983945e+00
2.399883e+01	-7.023906e+00
2.413745e+01	-7.064682e+00
2.427686e+01	-7.104146e+00
2.441709e+01	-7.144577e+00
2.455812e+01	-7.185120e+00
2.469997e+01	-7.225904e+00
2.484263e+01	-7.266050e+00
2.498612e+01	-7.306375e+00
2.513044e+01	-7.347528e+00
2.527559e+01	-7.388349e+00
2.542158e+01	-7.429658e+00
2.556842e+01	-7.470396e+00
2.571610e+01	-7.511496e+00
2.586463e+01	-7.552908e+00
2.601403e+01	-7.594359e+00
2.616428e+01	-7.635374e+00
2.631541e+01	-7.676861e+00
2.646740e+01	-7.718124e+00
2.662028e+01	-7.760024e+00
2.677404e+01	-7.801645e+00
2.692868e+01	-7.843320e+00
2.708422e+01	-7.885071e+00
2.724066e+01	-7.927194e+00
2.739800e+01	-7.968942e+00
2.755625e+01	-8.011226e+00
2.771541e+01	-8.053022e+00
2.787550e+01	-8.095753e+00
2.803650e+01	-8.138098e+00
2.819844e+01	-8.180436e+00
2.836131e+01	-8.222691e+00
2.852513e+01	-8.265354e+00
2.868989e+01	-8.307988e+00
2.885560e+01	-8.350216e+00
2.902227e+01	-8.393228e+00
2.918990e+01	-8.436412e+00
2.935850e+01	-8.479127e+00
2.952807e+01	-8.521765e+00
2.969863e+01	-8.565202e+00
2.987016e+01	-8.608177e+00
3.004269e+01	-8.651777e+00
3.021622e+01	-8.694299e+00
3.039075e+01	-8.737987e+00
3.056628e+01	-8.781201e+00
3.074283e+01	-8.824938e+00
3.092040e+01	-8.868561e+00
3.109900e+01	-8.911769e+00
3.127862e+01	-8.955682e+00
3.145929e+01	-8.999034e+00
3.164099e+01	-9.042895e+00
3.182375e+01	-9.086447e+00
3.200756e+01	-9.129683e+00
3.219244e+01	-9.174219e+00
3.237838e+01	-9.218643e+00
3.256540e+01	-9.262915e+00
3.275349e+01	-9.306603e+00
3.294268e+01	-9.350639e+00
3.313295e+01	-9.395938e+00
3.332433e+01	-9.439830e+00
3.351681e+01	-9.483282e+00
3.371040e+01	-9.527770e+00
3.390511e+01	-9.572419e+00
3.410094e+01	-9.617203e+00
3.429791e+01	-9.661661e+00
3.449601e+01	-9.706496e+00
3.469526e+01	-9.751298e+00
3.489566e+01	-9.795883e+00
3.509721e+01	-9.840488e+00
3.529993e+01	-9.885657e+00
3.550382e+01	-9.930304e+00
3.570889e+01	-9.976022e+00
3.591515e+01	-1.002059e+01
3.612259e+01	-1.006580e+01
3.633123e+01	-1.011111e+01
3.654108e+01	-1.015609e+01
3.675214e+01	-1.020109e+01
3.696442e+01	-1.024610e+01
3.717792e+01	-1.029167e+01
3.739266e+01	-1.033662e+01
3.760864e+01	-1.038249e+01
3.782587e+01	-1.042755e+01
3.804435e+01	-1.047348e+01
3.826409e+01	-1.051890e+01
3.848510e+01	-1.056446e+01
3.870739e+01	-1.060992e+01
3.893096e+01	-1.065548e+01
3.915583e+01	-1.070203e+01
3.938199e+01	-1.074715e+01
3.960946e+01	-1.079335e+01
3.983824e+01	-1.083924e+01
4.006834e+01	-1.088518e+01
4.029978e+01	-1.093097e+01
4.053255e+01	-1.097666e+01
4.076666e+01	-1.102276e+01
4.100213e+01	-1.106974e+01
4.123896e+01	-1.111540e+01
4.147715e+01	-1.116157e+01
4.171672e+01	-1.120795e+01
4.195767e+01	-1.125402e+01
4.220002e+01	-1.130064e+01
4.244377e+01	-1.134679e+01
4.268892e+01	-1.139345e+01
4.293549e+01	-1.143935e+01
4.318348e+01	-1.148605e+01
4.343291e+01	-1.153218e+01
4.368377e+01	-1.157860e+01
4.393609e+01	-1.162567e+01
4.418986e+01	-1.167199e+01
4.444510e+01	-1.171908e+01
4.470182e+01	-1.176515e+01
4.496001e+01	-1.181267e+01
4.521970e+01	-1.185949e+01
4.548089e+01	-1.190535e+01
4.574358e+01	-1.195273e+01
4.600779e+01	-1.199955e+01
4.627353e+01	-1.204668e+01
4.654081e+01	-1.209331e+01
4.680963e+01	-1.213966e+01
4.708000e+01	-1.218732e+01
4.735193e+01	-1.223407e+01
4.762543e+01	-1.228146e+01
4.790051e+01	-1.232822e+01
4.817719e+01	-1.237554e+01
4.845545e+01	-1.242322e+01
4.873533e+01	-1.246958e+01
4.901682e+01	-1.251756e+01
4.929994e+01	-1.256470e+01
4.958470e+01	-1.261120e+01
4.987110e+01	-1.265889e+01
5.015915e+01	-1.270668e+01
5.044887e+01	-1.275446e+01
5.074026e+01	-1.280110e+01
5.103333e+01	-1.284868e+01
5.132810e+01	-1.289515e+01
5.162457e+01	-1.294342e+01
5.192275e+01	-1.299140e+01
5.222265e+01	-1.303778e+01
5.252429e+01	-1.308594e+01
5.282767e+01	-1.313397e+01
5.313280e+01	-1.318052e+01
5.343969e+01	-1.322884e+01
5.374836e+01	-1.327701e+01
5.405880e+01	-1.332384e+01
5.437105e+01	-1.337169e+01
5.468509e+01	-1.341920e+01
5.500095e+01	-1.346662e+01
5.531863e+01	-1.351479e+01
5.563815e+01	-1.356259e+01
5.595951e+01	-1.361173e+01
5.628273e+01	-1.365816e+01
5.660782e+01	-1.370633e+01
5.693479e+01	-1.375460e+01
5.726364e+01	-1.380301e+01
5.759439e+01	-1.385041e+01
5.792705e+01	-1.389807e+01
5.826164e+01	-1.394605e+01
5.859815e+01	-1.399341e+01
5.893662e+01	-1.404284e+01
5.927703e+01	-1.409012e+01
5.961941e+01	-1.413763e+01
5.996377e+01	-1.418636e+01
6.031012e+01	-1.423393e+01
6.065847e+01	-1.428292e+01
6.100883e+01	-1.433019e+01
6.136121e+01	-1.437897e+01
6.171563e+01	-1.442702e+01
6.207210e+01	-1.447561e+01
6.243063e+01	-1.452364e+01
6.279122e+01	-1.457240e+01
6.315390e+01	-1.461972e+01
6.351868e+01	-1.466849e+01
6.388556e+01	-1.471750e+01
6.425456e+01	-1.476592e+01
6.462569e+01	-1.481259e+01
6.499897e+01	-1.486229e+01
6.537440e+01	-1.491099e+01
6.575200e+01	-1.495896e+01
6.613178e+01	-1.500708e+01
6.651375e+01	-1.505602e+01
6.689793e+01	-1.510399e+01
6.728433e+01	-1.515272e+01
6.767297e+01	-1.520141e+01
6.806384e+01	-1.524966e+01
6.845698e+01	-1.529809e+01
6.885238e+01	-1.534660e+01
6.925007e+01	-1.539437e+01
6.965005e+01	-1.544363e+01
7.005235e+01	-1.549312e+01
7.045697e+01	-1.554102e+01
7.086393e+01	-1.559061e+01
7.127323e+01	-1.563841e+01
7.168490e+01	-1.568790e+01
7.209895e+01	-1.573631e+01
7.251539e+01	-1.578400e+01
7.293424e+01	-1.583272e+01
7.335551e+01	-1.588150e+01
7.377920e+01	-1.593102e+01
7.420535e+01	-1.598053e+01
7.463396e+01	-1.602718e+01
7.506504e+01	-1.607652e+01
7.549861e+01	-1.612569e+01
7.593469e+01	-1.617462e+01
7.637328e+01	-1.622430e+01
7.681441e+01	-1.627217e+01
7.725809e+01	-1.632125e+01
7.770433e+01	-1.636948e+01
7.815315e+01	-1.641997e+01
7.860456e+01	-1.646802e+01
7.905857e+01	-1.651791e+01
7.951521e+01	-1.656574e+01
7.997449e+01	-1.661509e+01
8.043642e+01	-1.666361e+01
8.090102e+01	-1.671239e+01
8.136830e+01	-1.676173e+01
8.183828e+01	-1.681090e+01
8.231097e+01	-1.686020e+01
8.278640e+01	-1.690861e+01
8.326457e+01	-1.695827e+01
8.374550e+01	-1.700576e+01
8.422921e+01	-1.705523e+01
8.471572e+01	-1.710437e+01
8.520503e+01	-1.715251e+01
8.569717e+01	-1.720293e+01
8.619215e+01	-1.725231e+01
8.669000e+01	-1.730058e+01
8.719071e+01	-1.734883e+01
8.769432e+01	-1.739928e+01
8.820084e+01	-1.744821e+01
8.871029e+01	-1.749747e+01
8.922267e+01	-1.754606e+01
8.973802e+01	-1.759621e+01
9.025634e+01	-1.764483e+01
9.077766e+01	-1.769450e+01
9.130199e+01	-1.774353e+01
9.182935e+01	-1.779233e+01
9.235975e+01	-1.784090e+01
9.289321e+01	-1.788969e+01
9.342976e+01	-1.794002e+01
9.396941e+01	-1.798917e+01
9.451217e+01	-1.803701e+01
9.505807e+01	-1.808791e+01
9.560712e+01	-1.813641e+01
9.615934e+01	-1.818648e+01
9.671476e+01	-1.823466e+01
9.727338e+01	-1.828526e+01
9.783522e+01	-1.833483e+01
9.840032e+01	-1.838245e+01
9.896867e+01	-1.843313e+01
9.954031e+01	-1.848210e+01
1.001153e+02	-1.853220e+01
1.006935e+02	-1.858209e+01
1.012751e+02	-1.863026e+01
1.018601e+02	-1.867982e+01
1.024484e+02	-1.872946e+01
1.030402e+02	-1.877923e+01
1.036353e+02	-1.882827e+01
1.042339e+02	-1.887698e+01
1.048360e+02	-1.892741e+01
1.054415e+02	-1.897572e+01
1.060505e+02	-1.902486e+01
1.066631e+02	-1.907377e+01
1.072791e+02	-1.912403e+01
1.078988e+02	-1.917310e+01
1.085220e+02	-1.922367e+01
1.091488e+02	-1.927383e+01
1.097793e+02	-1.932165e+01
1.104133e+02	-1.937235e+01
1.110511e+02	-1.942134e+01
1.116925e+02	-1.946900e+01
1.123376e+02	-1.951959e+01
1.129865e+02	-1.956859e+01
1.136391e+02	-1.961882e+01
1.142955e+02	-1.966862e+01
1.149556e+02	-1.971685e+01
1.156196e+02	-1.976656e+01
1.162874e+02	-1.981681e+01
1.169591e+02	-1.986693e+01
1.176347e+02	-1.991558e+01
1.183141e+02	-1.996426e+01
1.189975e+02	-2.001587e+01
1.196848e+02	-2.006371e+01
1.203761e+02	-2.011352e+01
1.210714e+02	-2.016462e+01
1.217707e+02	-2.021354e+01
1.224740e+02	-2.026301e+01
1.231814e+02	-2.031147e+01
1.238929e+02	-2.036184e+01
1.246085e+02	-2.041204e+01
1.253283e+02	-2.046012e+01
1.260522e+02	-2.050985e+01
1.267802e+02	-2.055961e+01
1.275125e+02	-2.061061e+01
1.282490e+02	-2.065983e+01
1.289898e+02	-2.070940e+01
1.297348e+02	-2.075756e+01
1.304842e+02	-2.080763e+01
1.312378e+02	-2.085864e+01
1.319959e+02	-2.090858e+01
1.327583e+02	-2.095624e+01
1.335251e+02	-2.100567e+01
1.342963e+02	-2.105662e+01
1.350720e+02	-2.110678e+01
1.358522e+02	-2.115459e+01
1.366368e+02	-2.120450e+01
1.374260e+02	-2.125554e+01
1.382198e+02	-2.130470e+01
1.390182e+02	-2.135407e+01
1.398211e+02	-2.140483e+01
1.406287e+02	-2.145264e+01
1.414410e+02	-2.150185e+01
1.422579e+02	-2.155370e+01
1.430796e+02	-2.160256e+01
1.439060e+02	-2.165161e+01
1.447372e+02	-2.170212e+01
1.455732e+02	-2.175092e+01
1.464141e+02	-2.180058e+01
1.472597e+02	-2.185034e+01
1.481103e+02	-2.190128e+01
1.489658e+02	-2.195018e+01
1.498262e+02	-2.200069e+01
1.506916e+02	-2.205213e+01
1.515620e+02	-2.209888e+01
1.524374e+02	-2.214929e+01
1.533179e+02	-2.219917e+01
1.542034e+02	-2.224915e+01
1.550941e+02	-2.229908e+01
1.559899e+02	-2.234838e+01
1.568909e+02	-2.239892e+01
1.577971e+02	-2.244792e+01
1.587085e+02	-2.249814e+01
1.596252e+02	-2.254679e+01
1.605472e+02	-2.259807e+01
1.614745e+02	-2.264822e+01
1.624072e+02	-2.269801e+01
1.633453e+02	-2.274834e+01
1.642887e+02	-2.279554e+01
1.652377e+02	-2.284844e+01
1.661921e+02	-2.289545e+01
1.671520e+02	-2.294674e+01
1.681175e+02	-2.299587e+01
1.690885e+02	-2.304445e+01
1.700651e+02	-2.309501e+01
1.710474e+02	-2.314490e+01
1.720354e+02	-2.319511e+01
1.730291e+02	-2.324265e+01
1.740285e+02	-2.329633e+01
1.750337e+02	-2.334546e+01
1.760446e+02	-2.339302e+01
1.770615e+02	-2.344315e+01
1.780842e+02	-2.349252e+01
1.791128e+02	-2.354317e+01
1.801473e+02	-2.359440e+01
1.811878e+02	-2.364370e+01
1.822344e+02	-2.369332e+01
1.832870e+02	-2.374334e+01
1.843456e+02	-2.379367e+01
1.854104e+02	-2.384048e+01
1.864813e+02	-2.389371e+01
1.875584e+02	-2.394547e+01
1.886418e+02	-2.399080e+01
1.897313e+02	-2.404237e+01
1.908272e+02	-2.409373e+01
1.919294e+02	-2.414123e+01
1.930380e+02	-2.418999e+01
1.941530e+02	-2.424284e+01
1.952744e+02	-2.429166e+01
1.964023e+02	-2.434106e+01
1.975367e+02	-2.438709e+01
1.986777e+02	-2.443725e+01
1.998252e+02	-2.449041e+01
2.009794e+02	-2.453863e+01
2.021403e+02	-2.459032e+01
2.033078e+02	-2.464045e+01
2.044821e+02	-2.468906e+01
2.056632e+02	-2.474074e+01
2.068511e+02	-2.479177e+01
2.080459e+02	-2.484186e+01
2.092475e+02	-2.488903e+01
2.104561e+02	-2.493866e+01
2.116717e+02	-2.499247e+01
2.128943e+02	-2.503818e+01
2.141240e+02	-2.508862e+01
2.153608e+02	-2.513887e+01
2.166047e+02	-2.519120e+01
2.178558e+02	-2.524054e+01
2.191141e+02	-2.529202e+01
2.203797e+02	-2.534105e+01
2.216526e+02	-2.538854e+01
2.229329e+02	-2.543913e+01
2.242205e+02	-2.548785e+01
2.255156e+02	-2.553695e+01
2.268182e+02	-2.558906e+01
2.281283e+02	-2.563689e+01
2.294459e+02	-2.568888e+01
2.307712e+02	-2.573739e+01
2.321041e+02	-2.578747e+01
2.334447e+02	-2.583854e+01
2.347931e+02	-2.588950e+01
2.361493e+02	-2.593965e+01
2.375133e+02	-2.598721e+01
2.388851e+02	-2.603742e+01
2.402649e+02	-2.608601e+01
2.416527e+02	-2.613928e+01
2.430484e+02	-2.618594e+01
2.444523e+02	-2.623844e+01
2.458642e+02	-2.628912e+01
2.472843e+02	-2.633526e+01
2.487126e+02	-2.638879e+01
2.501492e+02	-2.643600e+01
2.515940e+02	-2.648971e+01
2.530472e+02	-2.653992e+01
2.545088e+02	-2.658795e+01
2.559789e+02	-2.663208e+01
2.574574e+02	-2.668952e+01
2.589444e+02	-2.673593e+01
2.604401e+02	-2.678968e+01
2.619444e+02	-2.683943e+01
2.634574e+02	-2.688734e+01
2.649791e+02	-2.693811e+01
2.665096e+02	-2.698809e+01
2.680489e+02	-2.703861e+01
2.695972e+02	-2.708665e+01
2.711544e+02	-2.713482e+01
2.727205e+02	-2.718727e+01
2.742958e+02	-2.724007e+01
2.758801e+02	-2.728727e+01
2.774736e+02	-2.734051e+01
2.790762e+02	-2.738685e+01
2.806882e+02	-2.743666e+01
2.823094e+02	-2.748743e+01
2.839400e+02	-2.753812e+01
2.855800e+02	-2.758612e+01
2.872295e+02	-2.763753e+01
2.888886e+02	-2.768805e+01
2.905572e+02	-2.773806e+01
2.922354e+02	-2.778402e+01
2.939234e+02	-2.783709e+01
2.956211e+02	-2.788746e+01
2.973286e+02	-2.793677e+01
2.990459e+02	-2.799076e+01
3.007732e+02	-2.803736e+01
3.025104e+02	-2.809007e+01
3.042577e+02	-2.813818e+01
3.060151e+02	-2.818733e+01
3.077826e+02	-2.824006e+01
3.095604e+02	-2.828994e+01
3.113484e+02	-2.834136e+01
3.131467e+02	-2.838934e+01
3.149554e+02	-2.843462e+01
3.167746e+02	-2.848943e+01
3.186043e+02	-2.853630e+01
3.204445e+02	-2.859166e+01
3.222954e+02	-2.864092e+01
3.241570e+02	-2.868677e+01
3.260293e+02	-2.874113e+01
3.279124e+02	-2.878931e+01
3.298064e+02	-2.883727e+01
3.317114e+02	-2.888752e+01
3.336273e+02	-2.893862e+01
3.355544e+02	-2.898947e+01
3.374925e+02	-2.904120e+01
3.394418e+02	-2.908956e+01
3.414024e+02	-2.914016e+01
3.433744e+02	-2.919136e+01
3.453577e+02	-2.924223e+01
3.473525e+02	-2.929435e+01
3.493588e+02	-2.933466e+01
3.513766e+02	-2.938818e+01
3.534062e+02	-2.943625e+01
3.554474e+02	-2.948740e+01
3.575005e+02	-2.953617e+01
3.595654e+02	-2.959330e+01
3.616422e+02	-2.964184e+01
3.637311e+02	-2.968879e+01
3.658320e+02	-2.974177e+01
3.679450e+02	-2.979017e+01
3.700702e+02	-2.983812e+01
3.722077e+02	-2.989141e+01
3.743576e+02	-2.994221e+01
3.765199e+02	-2.998855e+01
3.786946e+02	-3.003827e+01
3.808820e+02	-3.008894e+01
3.830819e+02	-3.014184e+01
3.852946e+02	-3.018898e+01
3.875200e+02	-3.023652e+01
3.897583e+02	-3.029044e+01
3.920096e+02	-3.034111e+01
3.942738e+02	-3.038919e+01
3.965511e+02	-3.043601e+01
3.988416e+02	-3.048982e+01
4.011452e+02	-3.054031e+01
4.034622e+02	-3.059423e+01
4.057926e+02	-3.064492e+01
4.081365e+02	-3.069492e+01
4.104938e+02	-3.074023e+01
4.128648e+02	-3.079030e+01
4.152495e+02	-3.083920e+01
4.176480e+02	-3.089461e+01
4.200603e+02	-3.094318e+01
4.224866e+02	-3.099229e+01
4.249268e+02	-3.104043e+01
4.273812e+02	-3.108934e+01
4.298497e+02	-3.113881e+01
4.323325e+02	-3.118790e+01
4.348297e+02	-3.125033e+01
4.373412e+02	-3.129160e+01
4.398673e+02	-3.134262e+01
4.424079e+02	-3.138993e+01
4.449633e+02	-3.144648e+01
4.475334e+02	-3.149589e+01
4.501183e+02	-3.154186e+01
4.527182e+02	-3.159447e+01
4.553330e+02	-3.164534e+01
4.579630e+02	-3.169722e+01
4.606082e+02	-3.174838e+01
4.632687e+02	-3.179107e+01
4.659445e+02	-3.184669e+01
4.686358e+02	-3.190381e+01
4.713426e+02	-3.194631e+01
4.740650e+02	-3.199746e+01
4.768032e+02	-3.204325e+01
4.795572e+02	-3.209208e+01
4.823271e+02	-3.214152e+01
4.851130e+02	-3.219896e+01
4.879150e+02	-3.225055e+01
4.907332e+02	-3.230363e+01
4.935676e+02	-3.234775e+01
4.964185e+02	-3.239956e+01
4.992858e+02	-3.244591e+01
5.021696e+02	-3.249144e+01
5.050701e+02	-3.254689e+01
5.079874e+02	-3.259775e+01
5.109215e+02	-3.264713e+01
5.138726e+02	-3.269782e+01
5.168407e+02	-3.275198e+01
5.198259e+02	-3.279102e+01
5.228284e+02	-3.285103e+01
5.258482e+02	-3.290404e+01
5.288855e+02	-3.294903e+01
5.319403e+02	-3.299889e+01
5.350128e+02	-3.305087e+01
5.381030e+02	-3.309756e+01
5.412111e+02	-3.315523e+01
5.443371e+02	-3.319770e+01
5.474812e+02	-3.325390e+01
5.506434e+02	-3.330652e+01
5.538239e+02	-3.335028e+01
5.570228e+02	-3.341331e+01
5.602401e+02	-3.345696e+01
5.634760e+02	-3.349808e+01
5.667306e+02	-3.355389e+01
5.700040e+02	-3.360748e+01
5.732964e+02	-3.365222e+01
5.766077e+02	-3.369585e+01
5.799382e+02	-3.375181e+01
5.832879e+02	-3.380334e+01
5.866569e+02	-3.385286e+01
5.900454e+02	-3.390880e+01
5.934535e+02	-3.394670e+01
5.968813e+02	-3.400327e+01
6.003288e+02	-3.405088e+01
6.037963e+02	-3.410578e+01
6.072838e+02	-3.415638e+01
6.107914e+02	-3.420179e+01
6.143194e+02	-3.424889e+01
6.178676e+02	-3.430842e+01
6.214364e+02	-3.435258e+01
6.250258e+02	-3.440362e+01
6.286359e+02	-3.446001e+01
6.322669e+02	-3.450558e+01
6.359189e+02	-3.455732e+01
6.395919e+02	-3.461549e+01
6.432862e+02	-3.466010e+01
6.470017e+02	-3.470970e+01
6.507388e+02	-3.475436e+01
6.544974e+02	-3.481282e+01
6.582778e+02	-3.485850e+01
6.620800e+02	-3.490788e+01
6.659041e+02	-3.496796e+01
6.697504e+02	-3.501883e+01
6.736188e+02	-3.506735e+01
6.775096e+02	-3.510302e+01
6.814229e+02	-3.515433e+01
6.853587e+02	-3.521948e+01
6.893173e+02	-3.526312e+01
6.932988e+02	-3.531327e+01
6.973033e+02	-3.536620e+01
7.013309e+02	-3.542432e+01
