Frequency(Hz)	Magnitude(dB)
1.000000e+01	-1.613127e-05
1.005776e+01	-1.631815e-05
1.011585e+01	-1.650720e-05
1.017428e+01	-1.669844e-05
1.023305e+01	-1.689190e-05
1.029215e+01	-1.708760e-05
1.035160e+01	-1.728556e-05
1.041139e+01	-1.748582e-05
1.047153e+01	-1.768840e-05
1.053201e+01	-1.789332e-05
1.059284e+01	-1.810062e-05
1.065403e+01	-1.831032e-05
1.071556e+01	-1.852245e-05
1.077746e+01	-1.873704e-05
1.083971e+01	-1.895411e-05
1.090232e+01	-1.917370e-05
1.096529e+01	-1.939583e-05
1.102862e+01	-1.962054e-05
1.109232e+01	-1.984784e-05
1.115639e+01	-2.007779e-05
1.122083e+01	-2.031039e-05
1.128564e+01	-2.054569e-05
1.135083e+01	-2.078372e-05
1.141639e+01	-2.102451e-05
1.148233e+01	-2.126808e-05
1.154865e+01	-2.151448e-05
1.161536e+01	-2.176373e-05
1.168245e+01	-2.201587e-05
1.174992e+01	-2.227092e-05
1.181779e+01	-2.252894e-05
1.188605e+01	-2.278994e-05
1.195470e+01	-2.305397e-05
1.202375e+01	-2.332106e-05
1.209320e+01	-2.359124e-05
1.216305e+01	-2.386455e-05
1.223330e+01	-2.414102e-05
1.230396e+01	-2.442070e-05
1.237503e+01	-2.470362e-05
1.244651e+01	-2.498982e-05
1.251840e+01	-2.527933e-05
1.259070e+01	-2.557220e-05
1.266343e+01	-2.586846e-05
1.273657e+01	-2.616815e-05
1.281014e+01	-2.647132e-05
1.288413e+01	-2.677799e-05
1.295855e+01	-2.708822e-05
1.303339e+01	-2.740205e-05
1.310867e+01	-2.771951e-05
1.318439e+01	-2.804064e-05
1.326054e+01	-2.836550e-05
1.333713e+01	-2.869412e-05
1.341417e+01	-2.902655e-05
1.349165e+01	-2.936283e-05
1.356958e+01	-2.970301e-05
1.364795e+01	-3.004712e-05
1.372678e+01	-3.039523e-05
1.380607e+01	-3.074736e-05
1.388581e+01	-3.110358e-05
1.396602e+01	-3.146392e-05
1.404668e+01	-3.182844e-05
1.412782e+01	-3.219718e-05
1.420942e+01	-3.257019e-05
1.429149e+01	-3.294752e-05
1.437404e+01	-3.332923e-05
1.445706e+01	-3.371535e-05
1.454057e+01	-3.410595e-05
1.462455e+01	-3.450108e-05
1.470902e+01	-3.490078e-05
1.479398e+01	-3.530512e-05
1.487943e+01	-3.571413e-05
1.496537e+01	-3.612789e-05
1.505181e+01	-3.654644e-05
1.513875e+01	-3.696984e-05
1.522619e+01	-3.739814e-05
1.531414e+01	-3.783141e-05
1.540259e+01	-3.826970e-05
1.549156e+01	-3.871306e-05
1.558103e+01	-3.916156e-05
1.567103e+01	-3.961525e-05
1.576155e+01	-4.007421e-05
1.585258e+01	-4.053847e-05
1.594415e+01	-4.100812e-05
1.603624e+01	-4.148321e-05
1.612886e+01	-4.196380e-05
1.622202e+01	-4.244996e-05
1.631572e+01	-4.294175e-05
1.640996e+01	-4.343924e-05
1.650474e+01	-4.394250e-05
1.660008e+01	-4.445158e-05
1.669596e+01	-4.496656e-05
1.679239e+01	-4.548751e-05
1.688938e+01	-4.601449e-05
1.698694e+01	-4.654758e-05
1.708505e+01	-4.708684e-05
1.718373e+01	-4.763236e-05
1.728299e+01	-4.818419e-05
1.738281e+01	-4.874241e-05
1.748322e+01	-4.930710e-05
1.758420e+01	-4.987833e-05
1.768576e+01	-5.045619e-05
1.778792e+01	-5.104073e-05
1.789066e+01	-5.163205e-05
1.799399e+01	-5.223022e-05
1.809793e+01	-5.283532e-05
1.820246e+01	-5.344742e-05
1.830760e+01	-5.406662e-05
1.841334e+01	-5.469300e-05
1.851969e+01	-5.532663e-05
1.862666e+01	-5.596760e-05
1.873425e+01	-5.661599e-05
1.884246e+01	-5.727190e-05
1.895129e+01	-5.793541e-05
1.906075e+01	-5.860660e-05
1.917085e+01	-5.928557e-05
1.928158e+01	-5.997240e-05
1.939295e+01	-6.066720e-05
1.950496e+01	-6.137004e-05
1.961762e+01	-6.208102e-05
1.973093e+01	-6.280024e-05
1.984490e+01	-6.352780e-05
1.995952e+01	-6.426378e-05
2.007480e+01	-6.500829e-05
2.019076e+01	-6.576142e-05
2.030738e+01	-6.652328e-05
2.042467e+01	-6.729396e-05
2.054264e+01	-6.807358e-05
2.066130e+01	-6.886222e-05
2.078064e+01	-6.966000e-05
2.090066e+01	-7.046703e-05
2.102139e+01	-7.128340e-05
2.114280e+01	-7.210923e-05
2.126492e+01	-7.294463e-05
2.138775e+01	-7.378971e-05
2.151128e+01	-7.464457e-05
2.163553e+01	-7.550934e-05
2.176050e+01	-7.638413e-05
2.188619e+01	-7.726906e-05
2.201260e+01	-7.816423e-05
2.213974e+01	-7.906978e-05
2.226762e+01	-7.998582e-05
2.239624e+01	-8.091247e-05
2.252560e+01	-8.184985e-05
2.265571e+01	-8.279810e-05
2.278656e+01	-8.375732e-05
2.291818e+01	-8.472767e-05
2.305055e+01	-8.570925e-05
2.318369e+01	-8.670221e-05
2.331760e+01	-8.770667e-05
2.345228e+01	-8.872276e-05
2.358774e+01	-8.975063e-05
2.372398e+01	-9.079041e-05
2.386101e+01	-9.184223e-05
2.399883e+01	-9.290623e-05
2.413745e+01	-9.398257e-05
2.427686e+01	-9.507137e-05
2.441709e+01	-9.617278e-05
2.455812e+01	-9.728696e-05
2.469997e+01	-9.841404e-05
2.484263e+01	-9.955419e-05
2.498612e+01	-1.007075e-04
2.513044e+01	-1.018742e-04
2.527559e+01	-1.030545e-04
2.542158e+01	-1.042484e-04
2.556842e+01	-1.054561e-04
2.571610e+01	-1.066778e-04
2.586463e+01	-1.079137e-04
2.601403e+01	-1.091639e-04
2.616428e+01	-1.104286e-04
2.631541e+01	-1.117079e-04
2.646740e+01	-1.130021e-04
2.662028e+01	-1.143112e-04
2.677404e+01	-1.156355e-04
2.692868e+01	-1.169752e-04
2.708422e+01	-1.183303e-04
2.724066e+01	-1.197012e-04
2.739800e+01	-1.210880e-04
2.755625e+01	-1.224908e-04
2.771541e+01	-1.239098e-04
2.787550e+01	-1.253454e-04
2.803650e+01	-1.267975e-04
2.819844e+01	-1.282665e-04
2.836131e+01	-1.297524e-04
2.852513e+01	-1.312556e-04
2.868989e+01	-1.327762e-04
2.885560e+01	-1.343145e-04
2.902227e+01	-1.358705e-04
2.918990e+01	-1.374446e-04
2.935850e+01	-1.390369e-04
2.952807e+01	-1.406477e-04
2.969863e+01	-1.422771e-04
2.987016e+01	-1.439254e-04
3.004269e+01	-1.455927e-04
3.021622e+01	-1.472795e-04
3.039075e+01	-1.489857e-04
3.056628e+01	-1.507117e-04
3.074283e+01	-1.524577e-04
3.092040e+01	-1.542239e-04
3.109900e+01	-1.560106e-04
3.127862e+01	-1.578180e-04
3.145929e+01	-1.596464e-04
3.164099e+01	-1.614959e-04
3.182375e+01	-1.633668e-04
3.200756e+01	-1.652594e-04
3.219244e+01	-1.671740e-04
3.237838e+01	-1.691107e-04
3.256540e+01	-1.710699e-04
3.275349e+01	-1.730517e-04
3.294268e+01	-1.750565e-04
3.313295e+01	-1.770846e-04
3.332433e+01	-1.791361e-04
3.351681e+01	-1.812114e-04
3.371040e+01	-1.833107e-04
3.390511e+01	-1.854344e-04
3.410094e+01	-1.875826e-04
3.429791e+01	-1.897558e-04
3.449601e+01	-1.919541e-04
3.469526e+01	-1.941779e-04
3.489566e+01	-1.964275e-04
3.509721e+01	-1.987031e-04
3.529993e+01	-2.010051e-04
3.550382e+01	-2.033337e-04
3.570889e+01	-2.056893e-04
3.591515e+01	-2.080722e-04
3.612259e+01	-2.104828e-04
3.633123e+01	-2.129212e-04
3.654108e+01	-2.153879e-04
3.675214e+01	-2.178832e-04
3.696442e+01	-2.204073e-04
3.717792e+01	-2.229607e-04
3.739266e+01	-2.255437e-04
3.760864e+01	-2.281567e-04
3.782587e+01	-2.307998e-04
3.804435e+01	-2.334737e-04
3.826409e+01	-2.361784e-04
3.848510e+01	-2.389146e-04
3.870739e+01	-2.416824e-04
3.893096e+01	-2.444822e-04
3.915583e+01	-2.473146e-04
3.938199e+01	-2.501797e-04
3.960946e+01	-2.530780e-04
3.983824e+01	-2.560099e-04
4.006834e+01	-2.589758e-04
4.029978e+01	-2.619760e-04
4.053255e+01	-2.650109e-04
4.076666e+01	-2.680811e-04
4.100213e+01	-2.711868e-04
4.123896e+01	-2.743284e-04
4.147715e+01	-2.775065e-04
4.171672e+01	-2.807214e-04
4.195767e+01	-2.839735e-04
4.220002e+01	-2.872633e-04
4.244377e+01	-2.905912e-04
4.268892e+01	-2.939577e-04
4.293549e+01	-2.973632e-04
4.318348e+01	-3.008081e-04
4.343291e+01	-3.042929e-04
4.368377e+01	-3.078181e-04
4.393609e+01	-3.113841e-04
4.418986e+01	-3.149915e-04
4.444510e+01	-3.186406e-04
4.470182e+01	-3.223320e-04
4.496001e+01	-3.260662e-04
4.521970e+01	-3.298436e-04
4.548089e+01	-3.336648e-04
4.574358e+01	-3.375302e-04
4.600779e+01	-3.414405e-04
4.627353e+01	-3.453960e-04
4.654081e+01	-3.493973e-04
4.680963e+01	-3.534450e-04
4.708000e+01	-3.575396e-04
4.735193e+01	-3.616816e-04
4.762543e+01	-3.658717e-04
4.790051e+01	-3.701102e-04
4.817719e+01	-3.743978e-04
4.845545e+01	-3.787352e-04
4.873533e+01	-3.831227e-04
4.901682e+01	-3.875611e-04
4.929994e+01	-3.920509e-04
4.958470e+01	-3.965927e-04
4.987110e+01	-4.011871e-04
5.015915e+01	-4.058348e-04
5.044887e+01	-4.105363e-04
5.074026e+01	-4.152922e-04
5.103333e+01	-4.201033e-04
5.132810e+01	-4.249700e-04
5.162457e+01	-4.298932e-04
5.192275e+01	-4.348734e-04
5.222265e+01	-4.399112e-04
5.252429e+01	-4.450075e-04
5.282767e+01	-4.501627e-04
5.313280e+01	-4.553777e-04
5.343969e+01	-4.606531e-04
5.374836e+01	-4.659896e-04
5.405880e+01	-4.713880e-04
5.437105e+01	-4.768488e-04
5.468509e+01	-4.823729e-04
5.500095e+01	-4.879610e-04
5.531863e+01	-4.936139e-04
5.563815e+01	-4.993322e-04
5.595951e+01	-5.051168e-04
5.628273e+01	-5.109684e-04
5.660782e+01	-5.168877e-04
5.693479e+01	-5.228756e-04
5.726364e+01	-5.289329e-04
5.759439e+01	-5.350604e-04
5.792705e+01	-5.412588e-04
5.826164e+01	-5.475291e-04
5.859815e+01	-5.538719e-04
5.893662e+01	-5.602883e-04
5.927703e+01	-5.667789e-04
5.961941e+01	-5.733448e-04
5.996377e+01	-5.799867e-04
6.031012e+01	-5.867056e-04
6.065847e+01	-5.935022e-04
6.100883e+01	-6.003777e-04
6.136121e+01	-6.073327e-04
6.171563e+01	-6.143683e-04
6.207210e+01	-6.214854e-04
6.243063e+01	-6.286850e-04
6.279122e+01	-6.359680e-04
6.315390e+01	-6.433353e-04
6.351868e+01	-6.507879e-04
6.388556e+01	-6.583269e-04
6.425456e+01	-6.659532e-04
6.462569e+01	-6.736679e-04
6.499897e+01	-6.814719e-04
6.537440e+01	-6.893663e-04
6.575200e+01	-6.973522e-04
6.613178e+01	-7.054305e-04
6.651375e+01	-7.136025e-04
6.689793e+01	-7.218691e-04
6.728433e+01	-7.302314e-04
6.767297e+01	-7.386906e-04
6.806384e+01	-7.472478e-04
6.845698e+01	-7.559041e-04
6.885238e+01	-7.646607e-04
6.925007e+01	-7.735187e-04
6.965005e+01	-7.824794e-04
7.005235e+01	-7.915438e-04
7.045697e+01	-8.007132e-04
7.086393e+01	-8.099888e-04
7.127323e+01	-8.193718e-04
7.168490e+01	-8.288636e-04
7.209895e+01	-8.384653e-04
7.251539e+01	-8.481782e-04
7.293424e+01	-8.580036e-04
7.335551e+01	-8.679428e-04
7.377920e+01	-8.779971e-04
7.420535e+01	-8.881679e-04
7.463396e+01	-8.984565e-04
7.506504e+01	-9.088643e-04
7.549861e+01	-9.193926e-04
7.593469e+01	-9.300429e-04
7.637328e+01	-9.408165e-04
7.681441e+01	-9.517150e-04
7.725809e+01	-9.627396e-04
7.770433e+01	-9.738920e-04
7.815315e+01	-9.851735e-04
7.860456e+01	-9.965857e-04
7.905857e+01	-1.008130e-03
7.951521e+01	-1.019808e-03
7.997449e+01	-1.031621e-03
8.043642e+01	-1.043572e-03
8.090102e+01	-1.055660e-03
8.136830e+01	-1.067889e-03
8.183828e+01	-1.080259e-03
8.231097e+01	-1.092773e-03
8.278640e+01	-1.105431e-03
8.326457e+01	-1.118236e-03
8.374550e+01	-1.131190e-03
8.422921e+01	-1.144293e-03
8.471572e+01	-1.157548e-03
8.520503e+01	-1.170957e-03
8.569717e+01	-1.184521e-03
8.619215e+01	-1.198242e-03
8.669000e+01	-1.212122e-03
8.719071e+01	-1.226163e-03
8.769432e+01	-1.240366e-03
8.820084e+01	-1.254734e-03
8.871029e+01	-1.269268e-03
8.922267e+01	-1.283971e-03
8.973802e+01	-1.298844e-03
9.025634e+01	-1.313889e-03
9.077766e+01	-1.329109e-03
9.130199e+01	-1.344504e-03
9.182935e+01	-1.360078e-03
9.235975e+01	-1.375833e-03
9.289321e+01	-1.391769e-03
9.342976e+01	-1.407891e-03
9.396941e+01	-1.424199e-03
9.451217e+01	-1.440696e-03
9.505807e+01	-1.457384e-03
9.560712e+01	-1.474265e-03
9.615934e+01	-1.491342e-03
9.671476e+01	-1.508617e-03
9.727338e+01	-1.526091e-03
9.783522e+01	-1.543768e-03
9.840032e+01	-1.561650e-03
9.896867e+01	-1.579739e-03
9.954031e+01	-1.598037e-03
1.001153e+02	-1.616548e-03
1.006935e+02	-1.635272e-03
1.012751e+02	-1.654214e-03
1.018601e+02	-1.673374e-03
1.024484e+02	-1.692757e-03
1.030402e+02	-1.712364e-03
1.036353e+02	-1.732199e-03
1.042339e+02	-1.752263e-03
1.048360e+02	-1.772559e-03
1.054415e+02	-1.793090e-03
1.060505e+02	-1.813859e-03
1.066631e+02	-1.834869e-03
1.072791e+02	-1.856122e-03
1.078988e+02	-1.877621e-03
1.085220e+02	-1.899369e-03
1.091488e+02	-1.921369e-03
1.097793e+02	-1.943623e-03
1.104133e+02	-1.966135e-03
1.110511e+02	-1.988908e-03
1.116925e+02	-2.011945e-03
1.123376e+02	-2.035249e-03
1.129865e+02	-2.058822e-03
1.136391e+02	-2.082668e-03
1.142955e+02	-2.106791e-03
1.149556e+02	-2.131192e-03
1.156196e+02	-2.155877e-03
1.162874e+02	-2.180847e-03
1.169591e+02	-2.206106e-03
1.176347e+02	-2.231658e-03
1.183141e+02	-2.257505e-03
1.189975e+02	-2.283652e-03
1.196848e+02	-2.310102e-03
1.203761e+02	-2.336858e-03
1.210714e+02	-2.363924e-03
1.217707e+02	-2.391303e-03
1.224740e+02	-2.418999e-03
1.231814e+02	-2.447016e-03
1.238929e+02	-2.475357e-03
1.246085e+02	-2.504026e-03
1.253283e+02	-2.533028e-03
1.260522e+02	-2.562365e-03
1.267802e+02	-2.592042e-03
1.275125e+02	-2.622062e-03
1.282490e+02	-2.652430e-03
1.289898e+02	-2.683150e-03
1.297348e+02	-2.714225e-03
1.304842e+02	-2.745660e-03
1.312378e+02	-2.777459e-03
1.319959e+02	-2.809626e-03
1.327583e+02	-2.842166e-03
1.335251e+02	-2.875082e-03
1.342963e+02	-2.908379e-03
1.350720e+02	-2.942062e-03
1.358522e+02	-2.976135e-03
1.366368e+02	-3.010603e-03
1.374260e+02	-3.045469e-03
1.382198e+02	-3.080739e-03
1.390182e+02	-3.116417e-03
1.398211e+02	-3.152509e-03
1.406287e+02	-3.189018e-03
1.414410e+02	-3.225950e-03
1.422579e+02	-3.263309e-03
1.430796e+02	-3.301101e-03
1.439060e+02	-3.339330e-03
1.447372e+02	-3.378002e-03
1.455732e+02	-3.417122e-03
1.464141e+02	-3.456694e-03
1.472597e+02	-3.496725e-03
1.481103e+02	-3.537219e-03
1.489658e+02	-3.578182e-03
1.498262e+02	-3.619619e-03
1.506916e+02	-3.661535e-03
1.515620e+02	-3.703937e-03
1.524374e+02	-3.746829e-03
1.533179e+02	-3.790218e-03
1.542034e+02	-3.834110e-03
1.550941e+02	-3.878509e-03
1.559899e+02	-3.923422e-03
1.568909e+02	-3.968855e-03
1.577971e+02	-4.014814e-03
1.587085e+02	-4.061305e-03
1.596252e+02	-4.108334e-03
1.605472e+02	-4.155907e-03
1.614745e+02	-4.204031e-03
1.624072e+02	-4.252712e-03
1.633453e+02	-4.301956e-03
1.642887e+02	-4.351770e-03
1.652377e+02	-4.402161e-03
1.661921e+02	-4.453135e-03
1.671520e+02	-4.504699e-03
1.681175e+02	-4.556860e-03
1.690885e+02	-4.609624e-03
1.700651e+02	-4.662999e-03
1.710474e+02	-4.716992e-03
1.720354e+02	-4.771609e-03
1.730291e+02	-4.826859e-03
1.740285e+02	-4.882748e-03
1.750337e+02	-4.939283e-03
1.760446e+02	-4.996473e-03
1.770615e+02	-5.054325e-03
1.780842e+02	-5.112846e-03
1.791128e+02	-5.172044e-03
1.801473e+02	-5.231927e-03
1.811878e+02	-5.292504e-03
1.822344e+02	-5.353781e-03
1.832870e+02	-5.415767e-03
1.843456e+02	-5.478470e-03
1.854104e+02	-5.541899e-03
1.864813e+02	-5.606062e-03
1.875584e+02	-5.670967e-03
1.886418e+02	-5.736623e-03
1.897313e+02	-5.803039e-03
1.908272e+02	-5.870223e-03
1.919294e+02	-5.938184e-03
1.930380e+02	-6.006932e-03
1.941530e+02	-6.076475e-03
1.952744e+02	-6.146823e-03
1.964023e+02	-6.217984e-03
1.975367e+02	-6.289969e-03
1.986777e+02	-6.362786e-03
1.998252e+02	-6.436446e-03
2.009794e+02	-6.510958e-03
2.021403e+02	-6.586331e-03
2.033078e+02	-6.662577e-03
2.044821e+02	-6.739705e-03
2.056632e+02	-6.817724e-03
2.068511e+02	-6.896647e-03
2.080459e+02	-6.976482e-03
2.092475e+02	-7.057240e-03
2.104561e+02	-7.138933e-03
2.116717e+02	-7.221570e-03
2.128943e+02	-7.305163e-03
2.141240e+02	-7.389723e-03
2.153608e+02	-7.475261e-03
2.166047e+02	-7.561788e-03
2.178558e+02	-7.649316e-03
2.191141e+02	-7.737856e-03
2.203797e+02	-7.827420e-03
2.216526e+02	-7.918020e-03
2.229329e+02	-8.009667e-03
2.242205e+02	-8.102374e-03
2.255156e+02	-8.196154e-03
2.268182e+02	-8.291017e-03
2.281283e+02	-8.386978e-03
2.294459e+02	-8.484048e-03
2.307712e+02	-8.582240e-03
2.321041e+02	-8.681568e-03
2.334447e+02	-8.782044e-03
2.347931e+02	-8.883682e-03
2.361493e+02	-8.986495e-03
2.375133e+02	-9.090496e-03
2.388851e+02	-9.195700e-03
2.402649e+02	-9.302120e-03
2.416527e+02	-9.409770e-03
2.430484e+02	-9.518665e-03
2.444523e+02	-9.628818e-03
2.458642e+02	-9.740245e-03
2.472843e+02	-9.852960e-03
2.487126e+02	-9.966978e-03
2.501492e+02	-1.008231e-02
2.515940e+02	-1.019898e-02
2.530472e+02	-1.031700e-02
2.545088e+02	-1.043638e-02
2.559789e+02	-1.055714e-02
2.574574e+02	-1.067930e-02
2.589444e+02	-1.080286e-02
2.604401e+02	-1.092786e-02
2.619444e+02	-1.105430e-02
2.634574e+02	-1.118220e-02
2.649791e+02	-1.131158e-02
2.665096e+02	-1.144246e-02
2.680489e+02	-1.157484e-02
2.695972e+02	-1.170876e-02
2.711544e+02	-1.184422e-02
2.727205e+02	-1.198125e-02
2.742958e+02	-1.211986e-02
2.758801e+02	-1.226007e-02
2.774736e+02	-1.240191e-02
2.790762e+02	-1.254538e-02
2.806882e+02	-1.269051e-02
2.823094e+02	-1.283731e-02
2.839400e+02	-1.298581e-02
2.855800e+02	-1.313603e-02
2.872295e+02	-1.328798e-02
2.888886e+02	-1.344168e-02
2.905572e+02	-1.359716e-02
2.922354e+02	-1.375444e-02
2.939234e+02	-1.391353e-02
2.956211e+02	-1.407446e-02
2.973286e+02	-1.423725e-02
2.990459e+02	-1.440192e-02
3.007732e+02	-1.456849e-02
3.025104e+02	-1.473698e-02
3.042577e+02	-1.490742e-02
3.060151e+02	-1.507982e-02
3.077826e+02	-1.525422e-02
3.095604e+02	-1.543062e-02
3.113484e+02	-1.560907e-02
3.131467e+02	-1.578958e-02
3.149554e+02	-1.597216e-02
3.167746e+02	-1.615686e-02
3.186043e+02	-1.634369e-02
3.204445e+02	-1.653267e-02
3.222954e+02	-1.672384e-02
3.241570e+02	-1.691721e-02
3.260293e+02	-1.711281e-02
3.279124e+02	-1.731067e-02
3.298064e+02	-1.751081e-02
3.317114e+02	-1.771326e-02
3.336273e+02	-1.791805e-02
3.355544e+02	-1.812520e-02
3.374925e+02	-1.833474e-02
3.394418e+02	-1.854670e-02
3.414024e+02	-1.876110e-02
3.433744e+02	-1.897798e-02
3.453577e+02	-1.919735e-02
3.473525e+02	-1.941926e-02
3.493588e+02	-1.964373e-02
3.513766e+02	-1.987078e-02
3.534062e+02	-2.010046e-02
3.554474e+02	-2.033278e-02
3.575005e+02	-2.056778e-02
3.595654e+02	-2.080549e-02
3.616422e+02	-2.104594e-02
3.637311e+02	-2.128916e-02
3.658320e+02	-2.153519e-02
3.679450e+02	-2.178405e-02
3.700702e+02	-2.203578e-02
3.722077e+02	-2.229042e-02
3.743576e+02	-2.254798e-02
3.765199e+02	-2.280852e-02
3.786946e+02	-2.307206e-02
3.808820e+02	-2.333863e-02
3.830819e+02	-2.360828e-02
3.852946e+02	-2.388103e-02
3.875200e+02	-2.415693e-02
3.897583e+02	-2.443600e-02
3.920096e+02	-2.471829e-02
3.942738e+02	-2.500383e-02
3.965511e+02	-2.529266e-02
3.988416e+02	-2.558481e-02
4.011452e+02	-2.588034e-02
4.034622e+02	-2.617926e-02
4.057926e+02	-2.648162e-02
4.081365e+02	-2.678747e-02
4.104938e+02	-2.709684e-02
4.128648e+02	-2.740977e-02
4.152495e+02	-2.772630e-02
4.176480e+02	-2.804648e-02
4.200603e+02	-2.837034e-02
4.224866e+02	-2.869793e-02
4.249268e+02	-2.902928e-02
4.273812e+02	-2.936445e-02
4.298497e+02	-2.970348e-02
4.323325e+02	-3.004641e-02
4.348297e+02	-3.039328e-02
4.373412e+02	-3.074415e-02
4.398673e+02	-3.109905e-02
4.424079e+02	-3.145803e-02
4.449633e+02	-3.182114e-02
4.475334e+02	-3.218842e-02
4.501183e+02	-3.255993e-02
4.527182e+02	-3.293571e-02
4.553330e+02	-3.331581e-02
4.579630e+02	-3.370028e-02
4.606082e+02	-3.408917e-02
4.632687e+02	-3.448253e-02
4.659445e+02	-3.488041e-02
4.686358e+02	-3.528286e-02
4.713426e+02	-3.568994e-02
4.740650e+02	-3.610169e-02
4.768032e+02	-3.651818e-02
4.795572e+02	-3.693944e-02
4.823271e+02	-3.736555e-02
4.851130e+02	-3.779655e-02
4.879150e+02	-3.823250e-02
4.907332e+02	-3.867346e-02
4.935676e+02	-3.911947e-02
4.964185e+02	-3.957061e-02
4.992858e+02	-4.002693e-02
5.021696e+02	-4.048849e-02
5.050701e+02	-4.095534e-02
5.079874e+02	-4.142755e-02
5.109215e+02	-4.190517e-02
5.138726e+02	-4.238828e-02
5.168407e+02	-4.287693e-02
5.198259e+02	-4.337118e-02
5.228284e+02	-4.387110e-02
5.258482e+02	-4.437676e-02
5.288855e+02	-4.488821e-02
5.319403e+02	-4.540553e-02
5.350128e+02	-4.592878e-02
5.381030e+02	-4.645802e-02
5.412111e+02	-4.699333e-02
5.443371e+02	-4.753477e-02
5.474812e+02	-4.808242e-02
5.506434e+02	-4.863634e-02
5.538239e+02	-4.919661e-02
5.570228e+02	-4.976329e-02
5.602401e+02	-5.033646e-02
5.634760e+02	-5.091620e-02
5.667306e+02	-5.150257e-02
5.700040e+02	-5.209566e-02
5.732964e+02	-5.269553e-02
5.766077e+02	-5.330227e-02
5.799382e+02	-5.391595e-02
5.832879e+02	-5.453665e-02
5.866569e+02	-5.516445e-02
5.900454e+02	-5.579943e-02
5.934535e+02	-5.644168e-02
5.968813e+02	-5.709126e-02
6.003288e+02	-5.774828e-02
6.037963e+02	-5.841280e-02
6.072838e+02	-5.908492e-02
6.107914e+02	-5.976471e-02
6.143194e+02	-6.045228e-02
6.178676e+02	-6.114770e-02
6.214364e+02	-6.185106e-02
6.250258e+02	-6.256245e-02
6.286359e+02	-6.328196e-02
6.322669e+02	-6.400969e-02
6.359189e+02	-6.474573e-02
6.395919e+02	-6.549016e-02
6.432862e+02	-6.624309e-02
6.470017e+02	-6.700461e-02
6.507388e+02	-6.777481e-02
6.544974e+02	-6.855380e-02
6.582778e+02	-6.934167e-02
6.620800e+02	-7.013852e-02
6.659041e+02	-7.094445e-02
6.697504e+02	-7.175957e-02
6.736188e+02	-7.258397e-02
6.775096e+02	-7.341776e-02
6.814229e+02	-7.426105e-02
6.853587e+02	-7.511394e-02
6.893173e+02	-7.597654e-02
6.932988e+02	-7.684896e-02
6.973033e+02	-7.773131e-02
7.013309e+02	-7.862370e-02
