Frequency(Hz)	Magnitude(dB)
1.000000e+01	-1.889298e-05
1.005776e+01	-1.911186e-05
1.011585e+01	-1.933328e-05
1.017428e+01	-1.955726e-05
1.023305e+01	-1.978384e-05
1.029215e+01	-2.001304e-05
1.035160e+01	-2.024489e-05
1.041139e+01	-2.047943e-05
1.047153e+01	-2.071669e-05
1.053201e+01	-2.095670e-05
1.059284e+01	-2.119949e-05
1.065403e+01	-2.144509e-05
1.071556e+01	-2.169354e-05
1.077746e+01	-2.194486e-05
1.083971e+01	-2.219910e-05
1.090232e+01	-2.245628e-05
1.096529e+01	-2.271645e-05
1.102862e+01	-2.297962e-05
1.109232e+01	-2.324585e-05
1.115639e+01	-2.351515e-05
1.122083e+01	-2.378758e-05
1.128564e+01	-2.406317e-05
1.135083e+01	-2.434195e-05
1.141639e+01	-2.462395e-05
1.148233e+01	-2.490923e-05
1.154865e+01	-2.519781e-05
1.161536e+01	-2.548973e-05
1.168245e+01	-2.578504e-05
1.174992e+01	-2.608376e-05
1.181779e+01	-2.638595e-05
1.188605e+01	-2.669164e-05
1.195470e+01	-2.700086e-05
1.202375e+01	-2.731368e-05
1.209320e+01	-2.763011e-05
1.216305e+01	-2.795021e-05
1.223330e+01	-2.827402e-05
1.230396e+01	-2.860158e-05
1.237503e+01	-2.893294e-05
1.244651e+01	-2.926814e-05
1.251840e+01	-2.960721e-05
1.259070e+01	-2.995022e-05
1.266343e+01	-3.029720e-05
1.273657e+01	-3.064820e-05
1.281014e+01	-3.100327e-05
1.288413e+01	-3.136245e-05
1.295855e+01	-3.172579e-05
1.303339e+01	-3.209334e-05
1.310867e+01	-3.246515e-05
1.318439e+01	-3.284127e-05
1.326054e+01	-3.322174e-05
1.333713e+01	-3.360662e-05
1.341417e+01	-3.399596e-05
1.349165e+01	-3.438981e-05
1.356958e+01	-3.478823e-05
1.364795e+01	-3.519126e-05
1.372678e+01	-3.559896e-05
1.380607e+01	-3.601138e-05
1.388581e+01	-3.642858e-05
1.396602e+01	-3.685061e-05
1.404668e+01	-3.727754e-05
1.412782e+01	-3.770940e-05
1.420942e+01	-3.814628e-05
1.429149e+01	-3.858821e-05
1.437404e+01	-3.903526e-05
1.445706e+01	-3.948750e-05
1.454057e+01	-3.994497e-05
1.462455e+01	-4.040774e-05
1.470902e+01	-4.087587e-05
1.479398e+01	-4.134943e-05
1.487943e+01	-4.182847e-05
1.496537e+01	-4.231306e-05
1.505181e+01	-4.280327e-05
1.513875e+01	-4.329915e-05
1.522619e+01	-4.380078e-05
1.531414e+01	-4.430823e-05
1.540259e+01	-4.482155e-05
1.549156e+01	-4.534081e-05
1.558103e+01	-4.586610e-05
1.567103e+01	-4.639747e-05
1.576155e+01	-4.693499e-05
1.585258e+01	-4.747874e-05
1.594415e+01	-4.802879e-05
1.603624e+01	-4.858522e-05
1.612886e+01	-4.914809e-05
1.622202e+01	-4.971748e-05
1.631572e+01	-5.029347e-05
1.640996e+01	-5.087613e-05
1.650474e+01	-5.146554e-05
1.660008e+01	-5.206178e-05
1.669596e+01	-5.266492e-05
1.679239e+01	-5.327506e-05
1.688938e+01	-5.389226e-05
1.698694e+01	-5.451661e-05
1.708505e+01	-5.514820e-05
1.718373e+01	-5.578710e-05
1.728299e+01	-5.643341e-05
1.738281e+01	-5.708720e-05
1.748322e+01	-5.774857e-05
1.758420e+01	-5.841760e-05
1.768576e+01	-5.909437e-05
1.778792e+01	-5.977899e-05
1.789066e+01	-6.047155e-05
1.799399e+01	-6.117212e-05
1.809793e+01	-6.188081e-05
1.820246e+01	-6.259771e-05
1.830760e+01	-6.332292e-05
1.841334e+01	-6.405653e-05
1.851969e+01	-6.479864e-05
1.862666e+01	-6.554934e-05
1.873425e+01	-6.630874e-05
1.884246e+01	-6.707694e-05
1.895129e+01	-6.785404e-05
1.906075e+01	-6.864014e-05
1.917085e+01	-6.943535e-05
1.928158e+01	-7.023977e-05
1.939295e+01	-7.105351e-05
1.950496e+01	-7.187668e-05
1.961762e+01	-7.270939e-05
1.973093e+01	-7.355174e-05
1.984490e+01	-7.440385e-05
1.995952e+01	-7.526583e-05
2.007480e+01	-7.613780e-05
2.019076e+01	-7.701987e-05
2.030738e+01	-7.791216e-05
2.042467e+01	-7.881478e-05
2.054264e+01	-7.972787e-05
2.066130e+01	-8.065153e-05
2.078064e+01	-8.158589e-05
2.090066e+01	-8.253107e-05
2.102139e+01	-8.348721e-05
2.114280e+01	-8.445442e-05
2.126492e+01	-8.543284e-05
2.138775e+01	-8.642260e-05
2.151128e+01	-8.742382e-05
2.163553e+01	-8.843664e-05
2.176050e+01	-8.946119e-05
2.188619e+01	-9.049761e-05
2.201260e+01	-9.154604e-05
2.213974e+01	-9.260661e-05
2.226762e+01	-9.367948e-05
2.239624e+01	-9.476477e-05
2.252560e+01	-9.586263e-05
2.265571e+01	-9.697321e-05
2.278656e+01	-9.809666e-05
2.291818e+01	-9.923313e-05
2.305055e+01	-1.003828e-04
2.318369e+01	-1.015457e-04
2.331760e+01	-1.027221e-04
2.345228e+01	-1.039122e-04
2.358774e+01	-1.051160e-04
2.372398e+01	-1.063338e-04
2.386101e+01	-1.075657e-04
2.399883e+01	-1.088119e-04
2.413745e+01	-1.100725e-04
2.427686e+01	-1.113477e-04
2.441709e+01	-1.126376e-04
2.455812e+01	-1.139426e-04
2.469997e+01	-1.152626e-04
2.484263e+01	-1.165979e-04
2.498612e+01	-1.179487e-04
2.513044e+01	-1.193152e-04
2.527559e+01	-1.206975e-04
2.542158e+01	-1.220958e-04
2.556842e+01	-1.235102e-04
2.571610e+01	-1.249411e-04
2.586463e+01	-1.263886e-04
2.601403e+01	-1.278528e-04
2.616428e+01	-1.293340e-04
2.631541e+01	-1.308323e-04
2.646740e+01	-1.323480e-04
2.662028e+01	-1.338813e-04
2.677404e+01	-1.354323e-04
2.692868e+01	-1.370013e-04
2.708422e+01	-1.385885e-04
2.724066e+01	-1.401941e-04
2.739800e+01	-1.418182e-04
2.755625e+01	-1.434612e-04
2.771541e+01	-1.451232e-04
2.787550e+01	-1.468045e-04
2.803650e+01	-1.485052e-04
2.819844e+01	-1.502257e-04
2.836131e+01	-1.519660e-04
2.852513e+01	-1.537266e-04
2.868989e+01	-1.555075e-04
2.885560e+01	-1.573091e-04
2.902227e+01	-1.591315e-04
2.918990e+01	-1.609751e-04
2.935850e+01	-1.628400e-04
2.952807e+01	-1.647265e-04
2.969863e+01	-1.666349e-04
2.987016e+01	-1.685653e-04
3.004269e+01	-1.705182e-04
3.021622e+01	-1.724936e-04
3.039075e+01	-1.744920e-04
3.056628e+01	-1.765135e-04
3.074283e+01	-1.785584e-04
3.092040e+01	-1.806270e-04
3.109900e+01	-1.827196e-04
3.127862e+01	-1.848364e-04
3.145929e+01	-1.869777e-04
3.164099e+01	-1.891439e-04
3.182375e+01	-1.913351e-04
3.200756e+01	-1.935517e-04
3.219244e+01	-1.957940e-04
3.237838e+01	-1.980623e-04
3.256540e+01	-2.003568e-04
3.275349e+01	-2.026780e-04
3.294268e+01	-2.050260e-04
3.313295e+01	-2.074012e-04
3.332433e+01	-2.098040e-04
3.351681e+01	-2.122345e-04
3.371040e+01	-2.146933e-04
3.390511e+01	-2.171805e-04
3.410094e+01	-2.196965e-04
3.429791e+01	-2.222417e-04
3.449601e+01	-2.248164e-04
3.469526e+01	-2.274209e-04
3.489566e+01	-2.300555e-04
3.509721e+01	-2.327207e-04
3.529993e+01	-2.354168e-04
3.550382e+01	-2.381441e-04
3.570889e+01	-2.409030e-04
3.591515e+01	-2.436938e-04
3.612259e+01	-2.465170e-04
3.633123e+01	-2.493729e-04
3.654108e+01	-2.522619e-04
3.675214e+01	-2.551843e-04
3.696442e+01	-2.581406e-04
3.717792e+01	-2.611311e-04
3.739266e+01	-2.641563e-04
3.760864e+01	-2.672165e-04
3.782587e+01	-2.703122e-04
3.804435e+01	-2.734438e-04
3.826409e+01	-2.766116e-04
3.848510e+01	-2.798161e-04
3.870739e+01	-2.830578e-04
3.893096e+01	-2.863369e-04
3.915583e+01	-2.896541e-04
3.938199e+01	-2.930097e-04
3.960946e+01	-2.964042e-04
3.983824e+01	-2.998380e-04
4.006834e+01	-3.033116e-04
4.029978e+01	-3.068254e-04
4.053255e+01	-3.103800e-04
4.076666e+01	-3.139757e-04
4.100213e+01	-3.176130e-04
4.123896e+01	-3.212925e-04
4.147715e+01	-3.250147e-04
4.171672e+01	-3.287799e-04
4.195767e+01	-3.325888e-04
4.220002e+01	-3.364418e-04
4.244377e+01	-3.403394e-04
4.268892e+01	-3.442821e-04
4.293549e+01	-3.482706e-04
4.318348e+01	-3.523052e-04
4.343291e+01	-3.563866e-04
4.368377e+01	-3.605153e-04
4.393609e+01	-3.646918e-04
4.418986e+01	-3.689167e-04
4.444510e+01	-3.731905e-04
4.470182e+01	-3.775138e-04
4.496001e+01	-3.818872e-04
4.521970e+01	-3.863113e-04
4.548089e+01	-3.907866e-04
4.574358e+01	-3.953138e-04
4.600779e+01	-3.998934e-04
4.627353e+01	-4.045260e-04
4.654081e+01	-4.092124e-04
4.680963e+01	-4.139530e-04
4.708000e+01	-4.187485e-04
4.735193e+01	-4.235996e-04
4.762543e+01	-4.285069e-04
4.790051e+01	-4.334710e-04
4.817719e+01	-4.384926e-04
4.845545e+01	-4.435724e-04
4.873533e+01	-4.487111e-04
4.901682e+01	-4.539092e-04
4.929994e+01	-4.591676e-04
4.958470e+01	-4.644869e-04
4.987110e+01	-4.698678e-04
5.015915e+01	-4.753111e-04
5.044887e+01	-4.808174e-04
5.074026e+01	-4.863875e-04
5.103333e+01	-4.920221e-04
5.132810e+01	-4.977220e-04
5.162457e+01	-5.034879e-04
5.192275e+01	-5.093206e-04
5.222265e+01	-5.152209e-04
5.252429e+01	-5.211895e-04
5.282767e+01	-5.272272e-04
5.313280e+01	-5.333349e-04
5.343969e+01	-5.395134e-04
5.374836e+01	-5.457634e-04
5.405880e+01	-5.520858e-04
5.437105e+01	-5.584815e-04
5.468509e+01	-5.649512e-04
5.500095e+01	-5.714959e-04
5.531863e+01	-5.781164e-04
5.563815e+01	-5.848136e-04
5.595951e+01	-5.915884e-04
5.628273e+01	-5.984416e-04
5.660782e+01	-6.053742e-04
5.693479e+01	-6.123872e-04
5.726364e+01	-6.194813e-04
5.759439e+01	-6.266577e-04
5.792705e+01	-6.339172e-04
5.826164e+01	-6.412607e-04
5.859815e+01	-6.486893e-04
5.893662e+01	-6.562040e-04
5.927703e+01	-6.638057e-04
5.961941e+01	-6.714955e-04
5.996377e+01	-6.792744e-04
6.031012e+01	-6.871433e-04
6.065847e+01	-6.951034e-04
6.100883e+01	-7.031558e-04
6.136121e+01	-7.113013e-04
6.171563e+01	-7.195413e-04
6.207210e+01	-7.278767e-04
6.243063e+01	-7.363086e-04
6.279122e+01	-7.448382e-04
6.315390e+01	-7.534666e-04
6.351868e+01	-7.621950e-04
6.388556e+01	-7.710244e-04
6.425456e+01	-7.799561e-04
6.462569e+01	-7.889913e-04
6.499897e+01	-7.981312e-04
6.537440e+01	-8.073769e-04
6.575200e+01	-8.167297e-04
6.613178e+01	-8.261908e-04
6.651375e+01	-8.357615e-04
6.689793e+01	-8.454431e-04
6.728433e+01	-8.552369e-04
6.767297e+01	-8.651440e-04
6.806384e+01	-8.751659e-04
6.845698e+01	-8.853039e-04
6.885238e+01	-8.955594e-04
6.925007e+01	-9.059336e-04
6.965005e+01	-9.164280e-04
7.005235e+01	-9.270439e-04
7.045697e+01	-9.377828e-04
7.086393e+01	-9.486461e-04
7.127323e+01	-9.596352e-04
7.168490e+01	-9.707516e-04
7.209895e+01	-9.819968e-04
7.251539e+01	-9.933722e-04
7.293424e+01	-1.004879e-03
7.335551e+01	-1.016520e-03
7.377920e+01	-1.028295e-03
7.420535e+01	-1.040207e-03
7.463396e+01	-1.052256e-03
7.506504e+01	-1.064445e-03
7.549861e+01	-1.076776e-03
7.593469e+01	-1.089249e-03
7.637328e+01	-1.101867e-03
7.681441e+01	-1.114630e-03
7.725809e+01	-1.127542e-03
7.770433e+01	-1.140603e-03
7.815315e+01	-1.153816e-03
7.860456e+01	-1.167181e-03
7.905857e+01	-1.180701e-03
7.951521e+01	-1.194378e-03
7.997449e+01	-1.208214e-03
8.043642e+01	-1.222209e-03
8.090102e+01	-1.236367e-03
8.136830e+01	-1.250688e-03
8.183828e+01	-1.265176e-03
8.231097e+01	-1.279831e-03
8.278640e+01	-1.294656e-03
8.326457e+01	-1.309653e-03
8.374550e+01	-1.324823e-03
8.422921e+01	-1.340169e-03
8.471572e+01	-1.355693e-03
8.520503e+01	-1.371396e-03
8.569717e+01	-1.387282e-03
8.619215e+01	-1.403351e-03
8.669000e+01	-1.419607e-03
8.719071e+01	-1.436051e-03
8.769432e+01	-1.452685e-03
8.820084e+01	-1.469512e-03
8.871029e+01	-1.486534e-03
8.922267e+01	-1.503753e-03
8.973802e+01	-1.521171e-03
9.025634e+01	-1.538791e-03
9.077766e+01	-1.556615e-03
9.130199e+01	-1.574646e-03
9.182935e+01	-1.592885e-03
9.235975e+01	-1.611335e-03
9.289321e+01	-1.630000e-03
9.342976e+01	-1.648880e-03
9.396941e+01	-1.667979e-03
9.451217e+01	-1.687299e-03
9.505807e+01	-1.706843e-03
9.560712e+01	-1.726614e-03
9.615934e+01	-1.746613e-03
9.671476e+01	-1.766844e-03
9.727338e+01	-1.787309e-03
9.783522e+01	-1.808011e-03
9.840032e+01	-1.828953e-03
9.896867e+01	-1.850137e-03
9.954031e+01	-1.871567e-03
1.001153e+02	-1.893245e-03
1.006935e+02	-1.915174e-03
1.012751e+02	-1.937357e-03
1.018601e+02	-1.959796e-03
1.024484e+02	-1.982496e-03
1.030402e+02	-2.005458e-03
1.036353e+02	-2.028687e-03
1.042339e+02	-2.052184e-03
1.048360e+02	-2.075954e-03
1.054415e+02	-2.099998e-03
1.060505e+02	-2.124321e-03
1.066631e+02	-2.148926e-03
1.072791e+02	-2.173816e-03
1.078988e+02	-2.198994e-03
1.085220e+02	-2.224463e-03
1.091488e+02	-2.250227e-03
1.097793e+02	-2.276290e-03
1.104133e+02	-2.302654e-03
1.110511e+02	-2.329324e-03
1.116925e+02	-2.356303e-03
1.123376e+02	-2.383593e-03
1.129865e+02	-2.411200e-03
1.136391e+02	-2.439127e-03
1.142955e+02	-2.467377e-03
1.149556e+02	-2.495954e-03
1.156196e+02	-2.524862e-03
1.162874e+02	-2.554104e-03
1.169591e+02	-2.583685e-03
1.176347e+02	-2.613609e-03
1.183141e+02	-2.643879e-03
1.189975e+02	-2.674500e-03
1.196848e+02	-2.705475e-03
1.203761e+02	-2.736809e-03
1.210714e+02	-2.768505e-03
1.217707e+02	-2.800569e-03
1.224740e+02	-2.833004e-03
1.231814e+02	-2.865814e-03
1.238929e+02	-2.899004e-03
1.246085e+02	-2.932578e-03
1.253283e+02	-2.966541e-03
1.260522e+02	-3.000898e-03
1.267802e+02	-3.035652e-03
1.275125e+02	-3.070808e-03
1.282490e+02	-3.106371e-03
1.289898e+02	-3.142346e-03
1.297348e+02	-3.178738e-03
1.304842e+02	-3.215551e-03
1.312378e+02	-3.252790e-03
1.319959e+02	-3.290460e-03
1.327583e+02	-3.328566e-03
1.335251e+02	-3.367114e-03
1.342963e+02	-3.406107e-03
1.350720e+02	-3.445552e-03
1.358522e+02	-3.485454e-03
1.366368e+02	-3.525817e-03
1.374260e+02	-3.566648e-03
1.382198e+02	-3.607951e-03
1.390182e+02	-3.649733e-03
1.398211e+02	-3.691998e-03
1.406287e+02	-3.734752e-03
1.414410e+02	-3.778002e-03
1.422579e+02	-3.821751e-03
1.430796e+02	-3.866008e-03
1.439060e+02	-3.910776e-03
1.447372e+02	-3.956063e-03
1.455732e+02	-4.001874e-03
1.464141e+02	-4.048215e-03
1.472597e+02	-4.095092e-03
1.481103e+02	-4.142512e-03
1.489658e+02	-4.190481e-03
1.498262e+02	-4.239005e-03
1.506916e+02	-4.288091e-03
1.515620e+02	-4.337745e-03
1.524374e+02	-4.387973e-03
1.533179e+02	-4.438783e-03
1.542034e+02	-4.490181e-03
1.550941e+02	-4.542174e-03
1.559899e+02	-4.594768e-03
1.568909e+02	-4.647971e-03
1.577971e+02	-4.701790e-03
1.587085e+02	-4.756231e-03
1.596252e+02	-4.811303e-03
1.605472e+02	-4.867012e-03
1.614745e+02	-4.923365e-03
1.624072e+02	-4.980371e-03
1.633453e+02	-5.038037e-03
1.642887e+02	-5.096369e-03
1.652377e+02	-5.155377e-03
1.661921e+02	-5.215067e-03
1.671520e+02	-5.275448e-03
1.681175e+02	-5.336528e-03
1.690885e+02	-5.398315e-03
1.700651e+02	-5.460816e-03
1.710474e+02	-5.524041e-03
1.720354e+02	-5.587997e-03
1.730291e+02	-5.652693e-03
1.740285e+02	-5.718138e-03
1.750337e+02	-5.784340e-03
1.760446e+02	-5.851308e-03
1.770615e+02	-5.919050e-03
1.780842e+02	-5.987577e-03
1.791128e+02	-6.056896e-03
1.801473e+02	-6.127017e-03
1.811878e+02	-6.197949e-03
1.822344e+02	-6.269702e-03
1.832870e+02	-6.342285e-03
1.843456e+02	-6.415708e-03
1.854104e+02	-6.489980e-03
1.864813e+02	-6.565111e-03
1.875584e+02	-6.641111e-03
1.886418e+02	-6.717990e-03
1.897313e+02	-6.795759e-03
1.908272e+02	-6.874427e-03
1.919294e+02	-6.954005e-03
1.930380e+02	-7.034504e-03
1.941530e+02	-7.115933e-03
1.952744e+02	-7.198305e-03
1.964023e+02	-7.281629e-03
1.975367e+02	-7.365917e-03
1.986777e+02	-7.451179e-03
1.998252e+02	-7.537428e-03
2.009794e+02	-7.624674e-03
2.021403e+02	-7.712930e-03
2.033078e+02	-7.802205e-03
2.044821e+02	-7.892514e-03
2.056632e+02	-7.983866e-03
2.068511e+02	-8.076275e-03
2.080459e+02	-8.169752e-03
2.092475e+02	-8.264311e-03
2.104561e+02	-8.359963e-03
2.116717e+02	-8.456720e-03
2.128943e+02	-8.554597e-03
2.141240e+02	-8.653605e-03
2.153608e+02	-8.753758e-03
2.166047e+02	-8.855069e-03
2.178558e+02	-8.957551e-03
2.191141e+02	-9.061218e-03
2.203797e+02	-9.166084e-03
2.216526e+02	-9.272161e-03
2.229329e+02	-9.379465e-03
2.242205e+02	-9.488010e-03
2.255156e+02	-9.597809e-03
2.268182e+02	-9.708877e-03
2.281283e+02	-9.821230e-03
2.294459e+02	-9.934881e-03
2.307712e+02	-1.004985e-02
2.321041e+02	-1.016614e-02
2.334447e+02	-1.028378e-02
2.347931e+02	-1.040277e-02
2.361493e+02	-1.052315e-02
2.375133e+02	-1.064491e-02
2.388851e+02	-1.076808e-02
2.402649e+02	-1.089267e-02
2.416527e+02	-1.101871e-02
2.430484e+02	-1.114620e-02
2.444523e+02	-1.127516e-02
2.458642e+02	-1.140562e-02
2.472843e+02	-1.153758e-02
2.487126e+02	-1.167106e-02
2.501492e+02	-1.180609e-02
2.515940e+02	-1.194268e-02
2.530472e+02	-1.208084e-02
2.545088e+02	-1.222061e-02
2.559789e+02	-1.236198e-02
2.574574e+02	-1.250499e-02
2.589444e+02	-1.264965e-02
2.604401e+02	-1.279599e-02
2.619444e+02	-1.294401e-02
2.634574e+02	-1.309374e-02
2.649791e+02	-1.324521e-02
2.665096e+02	-1.339842e-02
2.680489e+02	-1.355340e-02
2.695972e+02	-1.371017e-02
2.711544e+02	-1.386875e-02
2.727205e+02	-1.402916e-02
2.742958e+02	-1.419143e-02
2.758801e+02	-1.435557e-02
2.774736e+02	-1.452160e-02
2.790762e+02	-1.468955e-02
2.806882e+02	-1.485944e-02
2.823094e+02	-1.503129e-02
2.839400e+02	-1.520513e-02
2.855800e+02	-1.538097e-02
2.872295e+02	-1.555885e-02
2.888886e+02	-1.573877e-02
2.905572e+02	-1.592077e-02
2.922354e+02	-1.610488e-02
2.939234e+02	-1.629110e-02
2.956211e+02	-1.647948e-02
2.973286e+02	-1.667003e-02
2.990459e+02	-1.686278e-02
3.007732e+02	-1.705776e-02
3.025104e+02	-1.725498e-02
3.042577e+02	-1.745448e-02
3.060151e+02	-1.765629e-02
3.077826e+02	-1.786042e-02
3.095604e+02	-1.806690e-02
3.113484e+02	-1.827577e-02
3.131467e+02	-1.848705e-02
3.149554e+02	-1.870076e-02
3.167746e+02	-1.891694e-02
3.186043e+02	-1.913562e-02
3.204445e+02	-1.935681e-02
3.222954e+02	-1.958056e-02
3.241570e+02	-1.980689e-02
3.260293e+02	-2.003582e-02
3.279124e+02	-2.026740e-02
3.298064e+02	-2.050165e-02
3.317114e+02	-2.073859e-02
3.336273e+02	-2.097827e-02
3.355544e+02	-2.122072e-02
3.374925e+02	-2.146596e-02
3.394418e+02	-2.171402e-02
3.414024e+02	-2.196495e-02
3.433744e+02	-2.221876e-02
3.453577e+02	-2.247550e-02
3.473525e+02	-2.273521e-02
3.493588e+02	-2.299790e-02
3.513766e+02	-2.326362e-02
3.534062e+02	-2.353240e-02
3.554474e+02	-2.380428e-02
3.575005e+02	-2.407929e-02
3.595654e+02	-2.435747e-02
3.616422e+02	-2.463886e-02
3.637311e+02	-2.492349e-02
3.658320e+02	-2.521139e-02
3.679450e+02	-2.550261e-02
3.700702e+02	-2.579719e-02
3.722077e+02	-2.609515e-02
3.743576e+02	-2.639655e-02
3.765199e+02	-2.670142e-02
3.786946e+02	-2.700980e-02
3.808820e+02	-2.732172e-02
3.830819e+02	-2.763724e-02
3.852946e+02	-2.795640e-02
3.875200e+02	-2.827922e-02
3.897583e+02	-2.860576e-02
3.920096e+02	-2.893606e-02
3.942738e+02	-2.927016e-02
3.965511e+02	-2.960810e-02
3.988416e+02	-2.994993e-02
4.011452e+02	-3.029570e-02
4.034622e+02	-3.064544e-02
4.057926e+02	-3.099920e-02
4.081365e+02	-3.135704e-02
4.104938e+02	-3.171899e-02
4.128648e+02	-3.208510e-02
4.152495e+02	-3.245542e-02
4.176480e+02	-3.283000e-02
4.200603e+02	-3.320889e-02
4.224866e+02	-3.359213e-02
4.249268e+02	-3.397978e-02
4.273812e+02	-3.437188e-02
4.298497e+02	-3.476849e-02
4.323325e+02	-3.516966e-02
4.348297e+02	-3.557544e-02
4.373412e+02	-3.598587e-02
4.398673e+02	-3.640103e-02
4.424079e+02	-3.682095e-02
4.449633e+02	-3.724570e-02
4.475334e+02	-3.767533e-02
4.501183e+02	-3.810989e-02
4.527182e+02	-3.854943e-02
4.553330e+02	-3.899403e-02
4.579630e+02	-3.944373e-02
4.606082e+02	-3.989859e-02
4.632687e+02	-4.035868e-02
4.659445e+02	-4.082404e-02
4.686358e+02	-4.129475e-02
4.713426e+02	-4.177085e-02
4.740650e+02	-4.225242e-02
4.768032e+02	-4.273951e-02
4.795572e+02	-4.323219e-02
4.823271e+02	-4.373052e-02
4.851130e+02	-4.423457e-02
4.879150e+02	-4.474439e-02
4.907332e+02	-4.526006e-02
4.935676e+02	-4.578164e-02
4.964185e+02	-4.630920e-02
4.992858e+02	-4.684281e-02
5.021696e+02	-4.738253e-02
5.050701e+02	-4.792844e-02
5.079874e+02	-4.848060e-02
5.109215e+02	-4.903908e-02
5.138726e+02	-4.960396e-02
5.168407e+02	-5.017531e-02
5.198259e+02	-5.075321e-02
5.228284e+02	-5.133772e-02
5.258482e+02	-5.192892e-02
5.288855e+02	-5.252689e-02
5.319403e+02	-5.313170e-02
5.350128e+02	-5.374343e-02
5.381030e+02	-5.436216e-02
5.412111e+02	-5.498797e-02
5.443371e+02	-5.562094e-02
5.474812e+02	-5.626114e-02
5.506434e+02	-5.690867e-02
5.538239e+02	-5.756360e-02
5.570228e+02	-5.822601e-02
5.602401e+02	-5.889600e-02
5.634760e+02	-5.957364e-02
5.667306e+02	-6.025903e-02
5.700040e+02	-6.095224e-02
5.732964e+02	-6.165338e-02
5.766077e+02	-6.236252e-02
5.799382e+02	-6.307975e-02
5.832879e+02	-6.380518e-02
5.866569e+02	-6.453889e-02
5.900454e+02	-6.528096e-02
5.934535e+02	-6.603151e-02
5.968813e+02	-6.679062e-02
6.003288e+02	-6.755839e-02
6.037963e+02	-6.833491e-02
6.072838e+02	-6.912029e-02
6.107914e+02	-6.991462e-02
6.143194e+02	-7.071801e-02
6.178676e+02	-7.153055e-02
6.214364e+02	-7.235235e-02
6.250258e+02	-7.318351e-02
6.286359e+02	-7.402414e-02
6.322669e+02	-7.487434e-02
6.359189e+02	-7.573422e-02
6.395919e+02	-7.660389e-02
6.432862e+02	-7.748345e-02
6.470017e+02	-7.837302e-02
6.507388e+02	-7.927272e-02
6.544974e+02	-8.018264e-02
6.582778e+02	-8.110291e-02
6.620800e+02	-8.203365e-02
6.659041e+02	-8.297496e-02
6.697504e+02	-8.392697e-02
6.736188e+02	-8.488979e-02
6.775096e+02	-8.586355e-02
6.814229e+02	-8.684837e-02
6.853587e+02	-8.784437e-02
6.893173e+02	-8.885168e-02
6.932988e+02	-8.987041e-02
6.973033e+02	-9.090071e-02
7.013309e+02	-9.194269e-02
