Frequency(Hz)	Magnitude(dB)
1.000000e+01	-2.258936e+00
1.005776e+01	-2.279361e+00
1.011585e+01	-2.299926e+00
1.017428e+01	-2.320225e+00
1.023305e+01	-2.341486e+00
1.029215e+01	-2.361942e+00
1.035160e+01	-2.383247e+00
1.041139e+01	-2.404526e+00
1.047153e+01	-2.425682e+00
1.053201e+01	-2.447155e+00
1.059284e+01	-2.468613e+00
1.065403e+01	-2.490516e+00
1.071556e+01	-2.512177e+00
1.077746e+01	-2.534380e+00
1.083971e+01	-2.556548e+00
1.090232e+01	-2.578960e+00
1.096529e+01	-2.601116e+00
1.102862e+01	-2.624126e+00
1.109232e+01	-2.646655e+00
1.115639e+01	-2.669468e+00
1.122083e+01	-2.692836e+00
1.128564e+01	-2.715806e+00
1.135083e+01	-2.739192e+00
1.141639e+01	-2.762764e+00
1.148233e+01	-2.786417e+00
1.154865e+01	-2.809958e+00
1.161536e+01	-2.834166e+00
1.168245e+01	-2.857998e+00
1.174992e+01	-2.882231e+00
1.181779e+01	-2.906550e+00
1.188605e+01	-2.930959e+00
1.195470e+01	-2.955609e+00
1.202375e+01	-2.980592e+00
1.209320e+01	-3.005372e+00
1.216305e+01	-3.030255e+00
1.223330e+01	-3.055672e+00
1.230396e+01	-3.081092e+00
1.237503e+01	-3.106460e+00
1.244651e+01	-3.132108e+00
1.251840e+01	-3.157752e+00
1.259070e+01	-3.183755e+00
1.266343e+01	-3.209827e+00
1.273657e+01	-3.236106e+00
1.281014e+01	-3.262386e+00
1.288413e+01	-3.289057e+00
1.295855e+01	-3.315549e+00
1.303339e+01	-3.342244e+00
1.310867e+01	-3.369353e+00
1.318439e+01	-3.396293e+00
1.326054e+01	-3.423553e+00
1.333713e+01	-3.450819e+00
1.341417e+01	-3.478537e+00
1.349165e+01	-3.506221e+00
1.356958e+01	-3.533663e+00
1.364795e+01	-3.561829e+00
1.372678e+01	-3.589874e+00
1.380607e+01	-3.617926e+00
1.388581e+01	-3.646558e+00
1.396602e+01	-3.674699e+00
1.404668e+01	-3.703398e+00
1.412782e+01	-3.732273e+00
1.420942e+01	-3.761179e+00
1.429149e+01	-3.790431e+00
1.437404e+01	-3.819229e+00
1.445706e+01	-3.848782e+00
1.454057e+01	-3.878086e+00
1.462455e+01	-3.908087e+00
1.470902e+01	-3.937497e+00
1.479398e+01	-3.967511e+00
1.487943e+01	-3.997522e+00
1.496537e+01	-4.027455e+00
1.505181e+01	-4.058079e+00
1.513875e+01	-4.088218e+00
1.522619e+01	-4.118958e+00
1.531414e+01	-4.149998e+00
1.540259e+01	-4.180690e+00
1.549156e+01	-4.211679e+00
1.558103e+01	-4.242862e+00
1.567103e+01	-4.274158e+00
1.576155e+01	-4.305608e+00
1.585258e+01	-4.336966e+00
1.594415e+01	-4.368712e+00
1.603624e+01	-4.400152e+00
1.612886e+01	-4.432263e+00
1.622202e+01	-4.464344e+00
1.631572e+01	-4.496508e+00
1.640996e+01	-4.529011e+00
1.650474e+01	-4.561199e+00
1.660008e+01	-4.593848e+00
1.669596e+01	-4.626744e+00
1.679239e+01	-4.659547e+00
1.688938e+01	-4.692527e+00
1.698694e+01	-4.725598e+00
1.708505e+01	-4.758907e+00
1.718373e+01	-4.792409e+00
1.728299e+01	-4.825669e+00
1.738281e+01	-4.859290e+00
1.748322e+01	-4.892899e+00
1.758420e+01	-4.926938e+00
1.768576e+01	-4.961080e+00
1.778792e+01	-4.995158e+00
1.789066e+01	-5.029189e+00
1.799399e+01	-5.063560e+00
1.809793e+01	-5.098099e+00
1.820246e+01	-5.132834e+00
1.830760e+01	-5.167377e+00
1.841334e+01	-5.202431e+00
1.851969e+01	-5.237262e+00
1.862666e+01	-5.272708e+00
1.873425e+01	-5.307938e+00
1.884246e+01	-5.343155e+00
1.895129e+01	-5.378228e+00
1.906075e+01	-5.414112e+00
1.917085e+01	-5.449815e+00
1.928158e+01	-5.486002e+00
1.939295e+01	-5.521355e+00
1.950496e+01	-5.557635e+00
1.961762e+01	-5.593688e+00
1.973093e+01	-5.630224e+00
1.984490e+01	-5.666650e+00
1.995952e+01	-5.702809e+00
2.007480e+01	-5.739674e+00
2.019076e+01	-5.776183e+00
2.030738e+01	-5.813076e+00
2.042467e+01	-5.850076e+00
2.054264e+01	-5.887207e+00
2.066130e+01	-5.924714e+00
2.078064e+01	-5.961640e+00
2.090066e+01	-5.999142e+00
2.102139e+01	-6.036693e+00
2.114280e+01	-6.074279e+00
2.126492e+01	-6.111982e+00
2.138775e+01	-6.149833e+00
2.151128e+01	-6.187457e+00
2.163553e+01	-6.225832e+00
2.176050e+01	-6.263986e+00
2.188619e+01	-6.302336e+00
2.201260e+01	-6.340353e+00
2.213974e+01	-6.379189e+00
2.226762e+01	-6.417655e+00
2.239624e+01	-6.456344e+00
2.252560e+01	-6.495210e+00
2.265571e+01	-6.533913e+00
2.278656e+01	-6.573034e+00
2.291818e+01	-6.611804e+00
2.305055e+01	-6.651179e+00
2.318369e+01	-6.689917e+00
2.331760e+01	-6.729533e+00
2.345228e+01	-6.768909e+00
2.358774e+01	-6.808650e+00
2.372398e+01	-6.848465e+00
2.386101e+01	-6.887870e+00
2.399883e+01	-6.927945e+00
2.413745e+01	-6.967686e+00
2.427686e+01	-7.007791e+00
2.441709e+01	-7.048013e+00
2.455812e+01	-7.088008e+00
2.469997e+01	-7.128439e+00
2.484263e+01	-7.168998e+00
2.498612e+01	-7.209336e+00
2.513044e+01	-7.249767e+00
2.527559e+01	-7.290336e+00
2.542158e+01	-7.331175e+00
2.556842e+01	-7.371890e+00
2.571610e+01	-7.412867e+00
2.586463e+01	-7.453874e+00
2.601403e+01	-7.494894e+00
2.616428e+01	-7.535975e+00
2.631541e+01	-7.577201e+00
2.646740e+01	-7.618628e+00
2.662028e+01	-7.660140e+00
2.677404e+01	-7.701590e+00
2.692868e+01	-7.743161e+00
2.708422e+01	-7.784648e+00
2.724066e+01	-7.826353e+00
2.739800e+01	-7.868489e+00
2.755625e+01	-7.910319e+00
2.771541e+01	-7.952043e+00
2.787550e+01	-7.994402e+00
2.803650e+01	-8.036143e+00
2.819844e+01	-8.078581e+00
2.836131e+01	-8.120821e+00
2.852513e+01	-8.163892e+00
2.868989e+01	-8.205910e+00
2.885560e+01	-8.248045e+00
2.902227e+01	-8.290680e+00
2.918990e+01	-8.333315e+00
2.935850e+01	-8.376362e+00
2.952807e+01	-8.419069e+00
2.969863e+01	-8.462046e+00
2.987016e+01	-8.504647e+00
3.004269e+01	-8.547619e+00
3.021622e+01	-8.590731e+00
3.039075e+01	-8.633899e+00
3.056628e+01	-8.677407e+00
3.074283e+01	-8.720642e+00
3.092040e+01	-8.763757e+00
3.109900e+01	-8.807145e+00
3.127862e+01	-8.850685e+00
3.145929e+01	-8.894480e+00
3.164099e+01	-8.937515e+00
3.182375e+01	-8.981387e+00
3.200756e+01	-9.025314e+00
3.219244e+01	-9.069110e+00
3.237838e+01	-9.112816e+00
3.256540e+01	-9.156650e+00
3.275349e+01	-9.200294e+00
3.294268e+01	-9.244763e+00
3.313295e+01	-9.288761e+00
3.332433e+01	-9.332917e+00
3.351681e+01	-9.377253e+00
3.371040e+01	-9.421746e+00
3.390511e+01	-9.465712e+00
3.410094e+01	-9.510268e+00
3.429791e+01	-9.554502e+00
3.449601e+01	-9.599265e+00
3.469526e+01	-9.643739e+00
3.489566e+01	-9.688277e+00
3.509721e+01	-9.733242e+00
3.529993e+01	-9.777671e+00
3.550382e+01	-9.822443e+00
3.570889e+01	-9.867619e+00
3.591515e+01	-9.912108e+00
3.612259e+01	-9.956879e+00
3.633123e+01	-1.000238e+01
3.654108e+01	-1.004736e+01
3.675214e+01	-1.009238e+01
3.696442e+01	-1.013743e+01
3.717792e+01	-1.018306e+01
3.739266e+01	-1.022802e+01
3.760864e+01	-1.027305e+01
3.782587e+01	-1.031866e+01
3.804435e+01	-1.036414e+01
3.826409e+01	-1.040945e+01
3.848510e+01	-1.045543e+01
3.870739e+01	-1.050059e+01
3.893096e+01	-1.054616e+01
3.915583e+01	-1.059171e+01
3.938199e+01	-1.063715e+01
3.960946e+01	-1.068299e+01
3.983824e+01	-1.072885e+01
4.006834e+01	-1.077422e+01
4.029978e+01	-1.082056e+01
4.053255e+01	-1.086667e+01
4.076666e+01	-1.091258e+01
4.100213e+01	-1.095834e+01
4.123896e+01	-1.100476e+01
4.147715e+01	-1.105071e+01
4.171672e+01	-1.109727e+01
4.195767e+01	-1.114341e+01
4.220002e+01	-1.118940e+01
4.244377e+01	-1.123651e+01
4.268892e+01	-1.128144e+01
4.293549e+01	-1.132802e+01
4.318348e+01	-1.137398e+01
4.343291e+01	-1.142072e+01
4.368377e+01	-1.146700e+01
4.393609e+01	-1.151327e+01
4.418986e+01	-1.156041e+01
4.444510e+01	-1.160645e+01
4.470182e+01	-1.165417e+01
4.496001e+01	-1.169971e+01
4.521970e+01	-1.174656e+01
4.548089e+01	-1.179327e+01
4.574358e+01	-1.184026e+01
4.600779e+01	-1.188681e+01
4.627353e+01	-1.193311e+01
4.654081e+01	-1.198036e+01
4.680963e+01	-1.202729e+01
4.708000e+01	-1.207467e+01
4.735193e+01	-1.212174e+01
4.762543e+01	-1.216754e+01
4.790051e+01	-1.221562e+01
4.817719e+01	-1.226211e+01
4.845545e+01	-1.230937e+01
4.873533e+01	-1.235587e+01
4.901682e+01	-1.240309e+01
4.929994e+01	-1.245035e+01
4.958470e+01	-1.249771e+01
4.987110e+01	-1.254559e+01
5.015915e+01	-1.259256e+01
5.044887e+01	-1.263954e+01
5.074026e+01	-1.268662e+01
5.103333e+01	-1.273489e+01
5.132810e+01	-1.278237e+01
5.162457e+01	-1.282907e+01
5.192275e+01	-1.287622e+01
5.222265e+01	-1.292395e+01
5.252429e+01	-1.297150e+01
5.282767e+01	-1.301951e+01
5.313280e+01	-1.306712e+01
5.343969e+01	-1.311439e+01
5.374836e+01	-1.316201e+01
5.405880e+01	-1.320911e+01
5.437105e+01	-1.325762e+01
5.468509e+01	-1.330467e+01
5.500095e+01	-1.335271e+01
5.531863e+01	-1.340040e+01
5.563815e+01	-1.344854e+01
5.595951e+01	-1.349467e+01
5.628273e+01	-1.354278e+01
5.660782e+01	-1.359174e+01
5.693479e+01	-1.363971e+01
5.726364e+01	-1.368720e+01
5.759439e+01	-1.373491e+01
5.792705e+01	-1.378295e+01
5.826164e+01	-1.383109e+01
5.859815e+01	-1.387867e+01
5.893662e+01	-1.392693e+01
5.927703e+01	-1.397425e+01
5.961941e+01	-1.402310e+01
5.996377e+01	-1.407135e+01
6.031012e+01	-1.411900e+01
6.065847e+01	-1.416615e+01
6.100883e+01	-1.421437e+01
6.136121e+01	-1.426237e+01
6.171563e+01	-1.431213e+01
6.207210e+01	-1.435863e+01
6.243063e+01	-1.440687e+01
6.279122e+01	-1.445638e+01
6.315390e+01	-1.450455e+01
6.351868e+01	-1.455265e+01
6.388556e+01	-1.460075e+01
6.425456e+01	-1.464966e+01
6.462569e+01	-1.469753e+01
6.499897e+01	-1.474523e+01
6.537440e+01	-1.479381e+01
6.575200e+01	-1.484227e+01
6.613178e+01	-1.488987e+01
6.651375e+01	-1.494005e+01
6.689793e+01	-1.498767e+01
6.728433e+01	-1.503623e+01
6.767297e+01	-1.508449e+01
6.806384e+01	-1.513336e+01
6.845698e+01	-1.518173e+01
6.885238e+01	-1.523050e+01
6.925007e+01	-1.527896e+01
6.965005e+01	-1.532740e+01
7.005235e+01	-1.537584e+01
7.045697e+01	-1.542494e+01
7.086393e+01	-1.547377e+01
7.127323e+01	-1.552219e+01
7.168490e+01	-1.557037e+01
7.209895e+01	-1.561886e+01
7.251539e+01	-1.566772e+01
7.293424e+01	-1.571675e+01
7.335551e+01	-1.576433e+01
7.377920e+01	-1.581383e+01
7.420535e+01	-1.586290e+01
7.463396e+01	-1.591176e+01
7.506504e+01	-1.596018e+01
7.549861e+01	-1.600862e+01
7.593469e+01	-1.605682e+01
7.637328e+01	-1.610582e+01
7.681441e+01	-1.615493e+01
7.725809e+01	-1.620521e+01
7.770433e+01	-1.625255e+01
7.815315e+01	-1.630131e+01
7.860456e+01	-1.635104e+01
7.905857e+01	-1.639795e+01
7.951521e+01	-1.644897e+01
7.997449e+01	-1.649778e+01
8.043642e+01	-1.654576e+01
8.090102e+01	-1.659626e+01
8.136830e+01	-1.664330e+01
8.183828e+01	-1.669297e+01
8.231097e+01	-1.674083e+01
8.278640e+01	-1.679128e+01
8.326457e+01	-1.683890e+01
8.374550e+01	-1.688903e+01
8.422921e+01	-1.693809e+01
8.471572e+01	-1.698743e+01
8.520503e+01	-1.703602e+01
8.569717e+01	-1.708475e+01
8.619215e+01	-1.713259e+01
8.669000e+01	-1.718308e+01
8.719071e+01	-1.723124e+01
8.769432e+01	-1.728157e+01
8.820084e+01	-1.733029e+01
8.871029e+01	-1.737920e+01
8.922267e+01	-1.742884e+01
8.973802e+01	-1.747800e+01
9.025634e+01	-1.752554e+01
9.077766e+01	-1.757629e+01
9.130199e+01	-1.762564e+01
9.182935e+01	-1.767528e+01
9.235975e+01	-1.772344e+01
9.289321e+01	-1.777359e+01
9.342976e+01	-1.782078e+01
9.396941e+01	-1.787145e+01
9.451217e+01	-1.792044e+01
9.505807e+01	-1.796927e+01
9.560712e+01	-1.801912e+01
9.615934e+01	-1.806752e+01
9.671476e+01	-1.811757e+01
9.727338e+01	-1.816684e+01
9.783522e+01	-1.821610e+01
9.840032e+01	-1.826575e+01
9.896867e+01	-1.831396e+01
9.954031e+01	-1.836314e+01
1.001153e+02	-1.841285e+01
1.006935e+02	-1.846278e+01
1.012751e+02	-1.851163e+01
1.018601e+02	-1.856158e+01
1.024484e+02	-1.861108e+01
1.030402e+02	-1.865910e+01
1.036353e+02	-1.870892e+01
1.042339e+02	-1.875867e+01
1.048360e+02	-1.880812e+01
1.054415e+02	-1.885640e+01
1.060505e+02	-1.890620e+01
1.066631e+02	-1.895578e+01
1.072791e+02	-1.900534e+01
1.078988e+02	-1.905642e+01
1.085220e+02	-1.910505e+01
1.091488e+02	-1.915371e+01
1.097793e+02	-1.920325e+01
1.104133e+02	-1.925321e+01
1.110511e+02	-1.930102e+01
1.116925e+02	-1.935107e+01
1.123376e+02	-1.940014e+01
1.129865e+02	-1.945051e+01
1.136391e+02	-1.950006e+01
1.142955e+02	-1.954889e+01
1.149556e+02	-1.959909e+01
1.156196e+02	-1.964805e+01
1.162874e+02	-1.969829e+01
1.169591e+02	-1.974633e+01
1.176347e+02	-1.979478e+01
1.183141e+02	-1.984512e+01
1.189975e+02	-1.989633e+01
1.196848e+02	-1.994594e+01
1.203761e+02	-1.999402e+01
1.210714e+02	-2.004591e+01
1.217707e+02	-2.009336e+01
1.224740e+02	-2.014273e+01
1.231814e+02	-2.019289e+01
1.238929e+02	-2.024308e+01
1.246085e+02	-2.029257e+01
1.253283e+02	-2.034138e+01
1.260522e+02	-2.039164e+01
1.267802e+02	-2.044130e+01
1.275125e+02	-2.048966e+01
1.282490e+02	-2.054130e+01
1.289898e+02	-2.058990e+01
1.297348e+02	-2.063907e+01
1.304842e+02	-2.068760e+01
1.312378e+02	-2.073856e+01
1.319959e+02	-2.078939e+01
1.327583e+02	-2.083762e+01
1.335251e+02	-2.088773e+01
1.342963e+02	-2.093775e+01
1.350720e+02	-2.098580e+01
1.358522e+02	-2.103546e+01
1.366368e+02	-2.108660e+01
1.374260e+02	-2.113516e+01
1.382198e+02	-2.118516e+01
1.390182e+02	-2.123666e+01
1.398211e+02	-2.128596e+01
1.406287e+02	-2.133452e+01
1.414410e+02	-2.138406e+01
1.422579e+02	-2.143379e+01
1.430796e+02	-2.148165e+01
1.439060e+02	-2.153405e+01
1.447372e+02	-2.158275e+01
1.455732e+02	-2.163302e+01
1.464141e+02	-2.168161e+01
1.472597e+02	-2.173298e+01
1.481103e+02	-2.178101e+01
1.489658e+02	-2.183036e+01
1.498262e+02	-2.188054e+01
1.506916e+02	-2.193002e+01
1.515620e+02	-2.198146e+01
1.524374e+02	-2.203040e+01
1.533179e+02	-2.208002e+01
1.542034e+02	-2.212947e+01
1.550941e+02	-2.217867e+01
1.559899e+02	-2.223204e+01
1.568909e+02	-2.227715e+01
1.577971e+02	-2.232729e+01
1.587085e+02	-2.237673e+01
1.596252e+02	-2.242764e+01
1.605472e+02	-2.247638e+01
1.614745e+02	-2.252633e+01
1.624072e+02	-2.257544e+01
1.633453e+02	-2.262696e+01
1.642887e+02	-2.267653e+01
1.652377e+02	-2.272626e+01
1.661921e+02	-2.277656e+01
1.671520e+02	-2.282737e+01
1.681175e+02	-2.287602e+01
1.690885e+02	-2.292593e+01
1.700651e+02	-2.297624e+01
1.710474e+02	-2.302405e+01
1.720354e+02	-2.307536e+01
1.730291e+02	-2.312350e+01
1.740285e+02	-2.317357e+01
1.750337e+02	-2.322487e+01
1.760446e+02	-2.327515e+01
1.770615e+02	-2.332522e+01
1.780842e+02	-2.337149e+01
1.791128e+02	-2.342227e+01
1.801473e+02	-2.347552e+01
1.811878e+02	-2.352357e+01
1.822344e+02	-2.357300e+01
1.832870e+02	-2.362435e+01
1.843456e+02	-2.367366e+01
1.854104e+02	-2.372385e+01
1.864813e+02	-2.377409e+01
1.875584e+02	-2.382350e+01
1.886418e+02	-2.387072e+01
1.897313e+02	-2.392391e+01
1.908272e+02	-2.397316e+01
1.919294e+02	-2.402086e+01
1.930380e+02	-2.407088e+01
1.941530e+02	-2.412240e+01
1.952744e+02	-2.417430e+01
1.964023e+02	-2.422055e+01
1.975367e+02	-2.427121e+01
1.986777e+02	-2.432178e+01
1.998252e+02	-2.437086e+01
2.009794e+02	-2.442023e+01
2.021403e+02	-2.447058e+01
2.033078e+02	-2.452190e+01
2.044821e+02	-2.457086e+01
2.056632e+02	-2.461981e+01
2.068511e+02	-2.467029e+01
2.080459e+02	-2.471898e+01
2.092475e+02	-2.476956e+01
2.104561e+02	-2.481822e+01
2.116717e+02	-2.487036e+01
2.128943e+02	-2.492071e+01
2.141240e+02	-2.496831e+01
2.153608e+02	-2.501988e+01
2.166047e+02	-2.506928e+01
2.178558e+02	-2.512061e+01
2.191141e+02	-2.516931e+01
2.203797e+02	-2.522039e+01
2.216526e+02	-2.526898e+01
2.229329e+02	-2.531975e+01
2.242205e+02	-2.537030e+01
2.255156e+02	-2.541954e+01
2.268182e+02	-2.546813e+01
2.281283e+02	-2.551987e+01
2.294459e+02	-2.556819e+01
2.307712e+02	-2.561926e+01
2.321041e+02	-2.566819e+01
2.334447e+02	-2.571968e+01
2.347931e+02	-2.576700e+01
2.361493e+02	-2.581913e+01
2.375133e+02	-2.586690e+01
2.388851e+02	-2.591689e+01
2.402649e+02	-2.596979e+01
2.416527e+02	-2.601643e+01
2.430484e+02	-2.606811e+01
2.444523e+02	-2.611705e+01
2.458642e+02	-2.616621e+01
2.472843e+02	-2.621646e+01
2.487126e+02	-2.626506e+01
2.501492e+02	-2.631595e+01
2.515940e+02	-2.636817e+01
2.530472e+02	-2.641706e+01
2.545088e+02	-2.646602e+01
2.559789e+02	-2.651661e+01
2.574574e+02	-2.656861e+01
2.589444e+02	-2.661397e+01
2.604401e+02	-2.666830e+01
2.619444e+02	-2.671576e+01
2.634574e+02	-2.676580e+01
2.649791e+02	-2.681652e+01
2.665096e+02	-2.686557e+01
2.680489e+02	-2.691641e+01
2.695972e+02	-2.696854e+01
2.711544e+02	-2.701626e+01
2.727205e+02	-2.706988e+01
2.742958e+02	-2.711771e+01
2.758801e+02	-2.716318e+01
2.774736e+02	-2.721789e+01
2.790762e+02	-2.726819e+01
2.806882e+02	-2.731732e+01
2.823094e+02	-2.736824e+01
2.839400e+02	-2.741679e+01
2.855800e+02	-2.747032e+01
2.872295e+02	-2.751314e+01
2.888886e+02	-2.756495e+01
2.905572e+02	-2.761902e+01
2.922354e+02	-2.766805e+01
2.939234e+02	-2.771514e+01
2.956211e+02	-2.776787e+01
2.973286e+02	-2.781699e+01
2.990459e+02	-2.786831e+01
3.007732e+02	-2.791868e+01
3.025104e+02	-2.796717e+01
3.042577e+02	-2.801934e+01
3.060151e+02	-2.806674e+01
3.077826e+02	-2.811663e+01
3.095604e+02	-2.816495e+01
3.113484e+02	-2.821003e+01
3.131467e+02	-2.826476e+01
3.149554e+02	-2.831886e+01
3.167746e+02	-2.836781e+01
3.186043e+02	-2.841361e+01
3.204445e+02	-2.846585e+01
3.222954e+02	-2.851693e+01
3.241570e+02	-2.856800e+01
3.260293e+02	-2.861671e+01
3.279124e+02	-2.867060e+01
3.298064e+02	-2.872001e+01
3.317114e+02	-2.876390e+01
3.336273e+02	-2.881708e+01
3.355544e+02	-2.886558e+01
3.374925e+02	-2.892125e+01
3.394418e+02	-2.896724e+01
3.414024e+02	-2.901988e+01
3.433744e+02	-2.906559e+01
3.453577e+02	-2.911672e+01
3.473525e+02	-2.916478e+01
3.493588e+02	-2.922105e+01
3.513766e+02	-2.926833e+01
3.534062e+02	-2.931792e+01
3.554474e+02	-2.937312e+01
3.575005e+02	-2.941781e+01
3.595654e+02	-2.946602e+01
3.616422e+02	-2.951831e+01
3.637311e+02	-2.957026e+01
3.658320e+02	-2.961848e+01
3.679450e+02	-2.966750e+01
3.700702e+02	-2.971613e+01
3.722077e+02	-2.977322e+01
3.743576e+02	-2.981538e+01
3.765199e+02	-2.986691e+01
3.786946e+02	-2.992005e+01
3.808820e+02	-2.997087e+01
3.830819e+02	-3.002075e+01
3.852946e+02	-3.006915e+01
3.875200e+02	-3.011645e+01
3.897583e+02	-3.016820e+01
3.920096e+02	-3.021797e+01
3.942738e+02	-3.026886e+01
3.965511e+02	-3.031872e+01
3.988416e+02	-3.036878e+01
4.011452e+02	-3.042209e+01
4.034622e+02	-3.047435e+01
4.057926e+02	-3.052243e+01
4.081365e+02	-3.057181e+01
4.104938e+02	-3.062452e+01
4.128648e+02	-3.067526e+01
4.152495e+02	-3.072158e+01
4.176480e+02	-3.077656e+01
4.200603e+02	-3.082784e+01
4.224866e+02	-3.087212e+01
4.249268e+02	-3.092702e+01
4.273812e+02	-3.096942e+01
4.298497e+02	-3.102379e+01
4.323325e+02	-3.107129e+01
4.348297e+02	-3.111782e+01
4.373412e+02	-3.116765e+01
4.398673e+02	-3.122082e+01
4.424079e+02	-3.127142e+01
4.449633e+02	-3.131905e+01
4.475334e+02	-3.137356e+01
4.501183e+02	-3.142177e+01
4.527182e+02	-3.147199e+01
4.553330e+02	-3.152779e+01
4.579630e+02	-3.157416e+01
4.606082e+02	-3.162142e+01
4.632687e+02	-3.167101e+01
4.659445e+02	-3.172000e+01
4.686358e+02	-3.177508e+01
4.713426e+02	-3.182280e+01
4.740650e+02	-3.187387e+01
4.768032e+02	-3.192816e+01
4.795572e+02	-3.197345e+01
4.823271e+02	-3.202655e+01
4.851130e+02	-3.207193e+01
4.879150e+02	-3.212420e+01
4.907332e+02	-3.217484e+01
4.935676e+02	-3.222797e+01
4.964185e+02	-3.227280e+01
4.992858e+02	-3.232323e+01
5.021696e+02	-3.237985e+01
5.050701e+02	-3.242484e+01
5.079874e+02	-3.248331e+01
5.109215e+02	-3.252273e+01
5.138726e+02	-3.258341e+01
5.168407e+02	-3.262332e+01
5.198259e+02	-3.267529e+01
5.228284e+02	-3.272610e+01
5.258482e+02	-3.277491e+01
5.288855e+02	-3.282800e+01
5.319403e+02	-3.288060e+01
5.350128e+02	-3.292693e+01
5.381030e+02	-3.298116e+01
5.412111e+02	-3.302737e+01
5.443371e+02	-3.307244e+01
5.474812e+02	-3.312836e+01
5.506434e+02	-3.318208e+01
5.538239e+02	-3.323190e+01
5.570228e+02	-3.327692e+01
5.602401e+02	-3.333619e+01
5.634760e+02	-3.337846e+01
5.667306e+02	-3.342799e+01
5.700040e+02	-3.348192e+01
5.732964e+02	-3.353068e+01
5.766077e+02	-3.358650e+01
5.799382e+02	-3.362922e+01
5.832879e+02	-3.368451e+01
5.866569e+02	-3.373570e+01
5.900454e+02	-3.378458e+01
5.934535e+02	-3.383232e+01
5.968813e+02	-3.387976e+01
6.003288e+02	-3.392818e+01
6.037963e+02	-3.398329e+01
6.072838e+02	-3.403420e+01
6.107914e+02	-3.408303e+01
6.143194e+02	-3.413677e+01
6.178676e+02	-3.418620e+01
6.214364e+02	-3.423634e+01
6.250258e+02	-3.428004e+01
6.286359e+02	-3.433217e+01
6.322669e+02	-3.439073e+01
6.359189e+02	-3.444218e+01
6.395919e+02	-3.449173e+01
6.432862e+02	-3.453324e+01
6.470017e+02	-3.458592e+01
6.507388e+02	-3.464435e+01
6.544974e+02	-3.469934e+01
6.582778e+02	-3.473914e+01
6.620800e+02	-3.478794e+01
6.659041e+02	-3.484312e+01
6.697504e+02	-3.488543e+01
6.736188e+02	-3.493172e+01
6.775096e+02	-3.498863e+01
6.814229e+02	-3.503921e+01
6.853587e+02	-3.508939e+01
6.893173e+02	-3.514612e+01
6.932988e+02	-3.519739e+01
6.973033e+02	-3.523904e+01
7.013309e+02	-3.529929e+01
