Frequency(Hz)	Magnitude(dB)
1.000000e+01	-1.757191e-05
1.005776e+01	-1.777549e-05
1.011585e+01	-1.798142e-05
1.017428e+01	-1.818974e-05
1.023305e+01	-1.840047e-05
1.029215e+01	-1.861365e-05
1.035160e+01	-1.882929e-05
1.041139e+01	-1.904743e-05
1.047153e+01	-1.926810e-05
1.053201e+01	-1.949133e-05
1.059284e+01	-1.971714e-05
1.065403e+01	-1.994557e-05
1.071556e+01	-2.017664e-05
1.077746e+01	-2.041039e-05
1.083971e+01	-2.064685e-05
1.090232e+01	-2.088605e-05
1.096529e+01	-2.112802e-05
1.102862e+01	-2.137279e-05
1.109232e+01	-2.162040e-05
1.115639e+01	-2.187088e-05
1.122083e+01	-2.212426e-05
1.128564e+01	-2.238058e-05
1.135083e+01	-2.263986e-05
1.141639e+01	-2.290215e-05
1.148233e+01	-2.316748e-05
1.154865e+01	-2.343588e-05
1.161536e+01	-2.370739e-05
1.168245e+01	-2.398204e-05
1.174992e+01	-2.425988e-05
1.181779e+01	-2.454094e-05
1.188605e+01	-2.482525e-05
1.195470e+01	-2.511286e-05
1.202375e+01	-2.540380e-05
1.209320e+01	-2.569811e-05
1.216305e+01	-2.599582e-05
1.223330e+01	-2.629699e-05
1.230396e+01	-2.660165e-05
1.237503e+01	-2.690984e-05
1.244651e+01	-2.722159e-05
1.251840e+01	-2.753696e-05
1.259070e+01	-2.785598e-05
1.266343e+01	-2.817870e-05
1.273657e+01	-2.850516e-05
1.281014e+01	-2.883540e-05
1.288413e+01	-2.916946e-05
1.295855e+01	-2.950740e-05
1.303339e+01	-2.984925e-05
1.310867e+01	-3.019506e-05
1.318439e+01	-3.054488e-05
1.326054e+01	-3.089875e-05
1.333713e+01	-3.125672e-05
1.341417e+01	-3.161883e-05
1.349165e+01	-3.198514e-05
1.356958e+01	-3.235570e-05
1.364795e+01	-3.273055e-05
1.372678e+01	-3.310974e-05
1.380607e+01	-3.349332e-05
1.388581e+01	-3.388135e-05
1.396602e+01	-3.427388e-05
1.404668e+01	-3.467095e-05
1.412782e+01	-3.507262e-05
1.420942e+01	-3.547894e-05
1.429149e+01	-3.588997e-05
1.437404e+01	-3.630577e-05
1.445706e+01	-3.672638e-05
1.454057e+01	-3.715186e-05
1.462455e+01	-3.758227e-05
1.470902e+01	-3.801767e-05
1.479398e+01	-3.845812e-05
1.487943e+01	-3.890366e-05
1.496537e+01	-3.935437e-05
1.505181e+01	-3.981030e-05
1.513875e+01	-4.027151e-05
1.522619e+01	-4.073807e-05
1.531414e+01	-4.121003e-05
1.540259e+01	-4.168745e-05
1.549156e+01	-4.217041e-05
1.558103e+01	-4.265896e-05
1.567103e+01	-4.315318e-05
1.576155e+01	-4.365312e-05
1.585258e+01	-4.415885e-05
1.594415e+01	-4.467044e-05
1.603624e+01	-4.518796e-05
1.612886e+01	-4.571147e-05
1.622202e+01	-4.624104e-05
1.631572e+01	-4.677676e-05
1.640996e+01	-4.731868e-05
1.650474e+01	-4.786687e-05
1.660008e+01	-4.842142e-05
1.669596e+01	-4.898239e-05
1.679239e+01	-4.954987e-05
1.688938e+01	-5.012391e-05
1.698694e+01	-5.070461e-05
1.708505e+01	-5.129203e-05
1.718373e+01	-5.188626e-05
1.728299e+01	-5.248737e-05
1.738281e+01	-5.309545e-05
1.748322e+01	-5.371057e-05
1.758420e+01	-5.433282e-05
1.768576e+01	-5.496228e-05
1.778792e+01	-5.559903e-05
1.789066e+01	-5.624315e-05
1.799399e+01	-5.689474e-05
1.809793e+01	-5.755388e-05
1.820246e+01	-5.822065e-05
1.830760e+01	-5.889515e-05
1.841334e+01	-5.957746e-05
1.851969e+01	-6.026768e-05
1.862666e+01	-6.096589e-05
1.873425e+01	-6.167219e-05
1.884246e+01	-6.238668e-05
1.895129e+01	-6.310944e-05
1.906075e+01	-6.384058e-05
1.917085e+01	-6.458018e-05
1.928158e+01	-6.532835e-05
1.939295e+01	-6.608520e-05
1.950496e+01	-6.685081e-05
1.961762e+01	-6.762528e-05
1.973093e+01	-6.840874e-05
1.984490e+01	-6.920126e-05
1.995952e+01	-7.000297e-05
2.007480e+01	-7.081397e-05
2.019076e+01	-7.163436e-05
2.030738e+01	-7.246426e-05
2.042467e+01	-7.330377e-05
2.054264e+01	-7.415301e-05
2.066130e+01	-7.501209e-05
2.078064e+01	-7.588112e-05
2.090066e+01	-7.676021e-05
2.102139e+01	-7.764949e-05
2.114280e+01	-7.854907e-05
2.126492e+01	-7.945908e-05
2.138775e+01	-8.037963e-05
2.151128e+01	-8.131084e-05
2.163553e+01	-8.225284e-05
2.176050e+01	-8.320575e-05
2.188619e+01	-8.416970e-05
2.201260e+01	-8.514482e-05
2.213974e+01	-8.613124e-05
2.226762e+01	-8.712909e-05
2.239624e+01	-8.813849e-05
2.252560e+01	-8.915959e-05
2.265571e+01	-9.019252e-05
2.278656e+01	-9.123741e-05
2.291818e+01	-9.229441e-05
2.305055e+01	-9.336366e-05
2.318369e+01	-9.444529e-05
2.331760e+01	-9.553945e-05
2.345228e+01	-9.664629e-05
2.358774e+01	-9.776595e-05
2.372398e+01	-9.889858e-05
2.386101e+01	-1.000443e-04
2.399883e+01	-1.012034e-04
2.413745e+01	-1.023758e-04
2.427686e+01	-1.035619e-04
2.441709e+01	-1.047616e-04
2.455812e+01	-1.059753e-04
2.469997e+01	-1.072031e-04
2.484263e+01	-1.084450e-04
2.498612e+01	-1.097014e-04
2.513044e+01	-1.109723e-04
2.527559e+01	-1.122579e-04
2.542158e+01	-1.135584e-04
2.556842e+01	-1.148740e-04
2.571610e+01	-1.162048e-04
2.586463e+01	-1.175511e-04
2.601403e+01	-1.189129e-04
2.616428e+01	-1.202906e-04
2.631541e+01	-1.216841e-04
2.646740e+01	-1.230939e-04
2.662028e+01	-1.245199e-04
2.677404e+01	-1.259625e-04
2.692868e+01	-1.274218e-04
2.708422e+01	-1.288980e-04
2.724066e+01	-1.303913e-04
2.739800e+01	-1.319019e-04
2.755625e+01	-1.334300e-04
2.771541e+01	-1.349758e-04
2.787550e+01	-1.365395e-04
2.803650e+01	-1.381213e-04
2.819844e+01	-1.397214e-04
2.836131e+01	-1.413401e-04
2.852513e+01	-1.429776e-04
2.868989e+01	-1.446340e-04
2.885560e+01	-1.463096e-04
2.902227e+01	-1.480046e-04
2.918990e+01	-1.497192e-04
2.935850e+01	-1.514537e-04
2.952807e+01	-1.532083e-04
2.969863e+01	-1.549833e-04
2.987016e+01	-1.567788e-04
3.004269e+01	-1.585950e-04
3.021622e+01	-1.604324e-04
3.039075e+01	-1.622910e-04
3.056628e+01	-1.641712e-04
3.074283e+01	-1.660731e-04
3.092040e+01	-1.679971e-04
3.109900e+01	-1.699433e-04
3.127862e+01	-1.719121e-04
3.145929e+01	-1.739037e-04
3.164099e+01	-1.759184e-04
3.182375e+01	-1.779564e-04
3.200756e+01	-1.800181e-04
3.219244e+01	-1.821036e-04
3.237838e+01	-1.842132e-04
3.256540e+01	-1.863474e-04
3.275349e+01	-1.885062e-04
3.294268e+01	-1.906900e-04
3.313295e+01	-1.928992e-04
3.332433e+01	-1.951339e-04
3.351681e+01	-1.973946e-04
3.371040e+01	-1.996814e-04
3.390511e+01	-2.019947e-04
3.410094e+01	-2.043348e-04
3.429791e+01	-2.067020e-04
3.449601e+01	-2.090967e-04
3.469526e+01	-2.115191e-04
3.489566e+01	-2.139695e-04
3.509721e+01	-2.164483e-04
3.529993e+01	-2.189559e-04
3.550382e+01	-2.214925e-04
3.570889e+01	-2.240585e-04
3.591515e+01	-2.266542e-04
3.612259e+01	-2.292800e-04
3.633123e+01	-2.319362e-04
3.654108e+01	-2.346231e-04
3.675214e+01	-2.373412e-04
3.696442e+01	-2.400908e-04
3.717792e+01	-2.428723e-04
3.739266e+01	-2.456859e-04
3.760864e+01	-2.485322e-04
3.782587e+01	-2.514114e-04
3.804435e+01	-2.543240e-04
3.826409e+01	-2.572703e-04
3.848510e+01	-2.602508e-04
3.870739e+01	-2.632658e-04
3.893096e+01	-2.663157e-04
3.915583e+01	-2.694009e-04
3.938199e+01	-2.725219e-04
3.960946e+01	-2.756791e-04
3.983824e+01	-2.788728e-04
4.006834e+01	-2.821035e-04
4.029978e+01	-2.853716e-04
4.053255e+01	-2.886776e-04
4.076666e+01	-2.920219e-04
4.100213e+01	-2.954050e-04
4.123896e+01	-2.988272e-04
4.147715e+01	-3.022891e-04
4.171672e+01	-3.057911e-04
4.195767e+01	-3.093336e-04
4.220002e+01	-3.129172e-04
4.244377e+01	-3.165423e-04
4.268892e+01	-3.202094e-04
4.293549e+01	-3.239190e-04
4.318348e+01	-3.276715e-04
4.343291e+01	-3.314675e-04
4.368377e+01	-3.353075e-04
4.393609e+01	-3.391920e-04
4.418986e+01	-3.431215e-04
4.444510e+01	-3.470965e-04
4.470182e+01	-3.511175e-04
4.496001e+01	-3.551852e-04
4.521970e+01	-3.592999e-04
4.548089e+01	-3.634623e-04
4.574358e+01	-3.676730e-04
4.600779e+01	-3.719324e-04
4.627353e+01	-3.762411e-04
4.654081e+01	-3.805998e-04
4.680963e+01	-3.850090e-04
4.708000e+01	-3.894692e-04
4.735193e+01	-3.939811e-04
4.762543e+01	-3.985453e-04
4.790051e+01	-4.031623e-04
4.817719e+01	-4.078328e-04
4.845545e+01	-4.125575e-04
4.873533e+01	-4.173368e-04
4.901682e+01	-4.221716e-04
4.929994e+01	-4.270623e-04
4.958470e+01	-4.320097e-04
4.987110e+01	-4.370144e-04
5.015915e+01	-4.420771e-04
5.044887e+01	-4.471984e-04
5.074026e+01	-4.523790e-04
5.103333e+01	-4.576197e-04
5.132810e+01	-4.629211e-04
5.162457e+01	-4.682838e-04
5.192275e+01	-4.737087e-04
5.222265e+01	-4.791965e-04
5.252429e+01	-4.847478e-04
5.282767e+01	-4.903634e-04
5.313280e+01	-4.960441e-04
5.343969e+01	-5.017906e-04
5.374836e+01	-5.076036e-04
5.405880e+01	-5.134840e-04
5.437105e+01	-5.194325e-04
5.468509e+01	-5.254499e-04
5.500095e+01	-5.315370e-04
5.531863e+01	-5.376946e-04
5.563815e+01	-5.439236e-04
5.595951e+01	-5.502247e-04
5.628273e+01	-5.565988e-04
5.660782e+01	-5.630467e-04
5.693479e+01	-5.695693e-04
5.726364e+01	-5.761675e-04
5.759439e+01	-5.828421e-04
5.792705e+01	-5.895941e-04
5.826164e+01	-5.964242e-04
5.859815e+01	-6.033335e-04
5.893662e+01	-6.103228e-04
5.927703e+01	-6.173930e-04
5.961941e+01	-6.245452e-04
5.996377e+01	-6.317802e-04
6.031012e+01	-6.390990e-04
6.065847e+01	-6.465026e-04
6.100883e+01	-6.539919e-04
6.136121e+01	-6.615680e-04
6.171563e+01	-6.692319e-04
6.207210e+01	-6.769845e-04
6.243063e+01	-6.848269e-04
6.279122e+01	-6.927602e-04
6.315390e+01	-7.007854e-04
6.351868e+01	-7.089035e-04
6.388556e+01	-7.171157e-04
6.425456e+01	-7.254230e-04
6.462569e+01	-7.338265e-04
6.499897e+01	-7.423273e-04
6.537440e+01	-7.509266e-04
6.575200e+01	-7.596256e-04
6.613178e+01	-7.684253e-04
6.651375e+01	-7.773269e-04
6.689793e+01	-7.863316e-04
6.728433e+01	-7.954407e-04
6.767297e+01	-8.046552e-04
6.806384e+01	-8.139765e-04
6.845698e+01	-8.234057e-04
6.885238e+01	-8.329442e-04
6.925007e+01	-8.425931e-04
6.965005e+01	-8.523539e-04
7.005235e+01	-8.622276e-04
7.045697e+01	-8.722158e-04
7.086393e+01	-8.823196e-04
7.127323e+01	-8.925405e-04
7.168490e+01	-9.028797e-04
7.209895e+01	-9.133387e-04
7.251539e+01	-9.239189e-04
7.293424e+01	-9.346216e-04
7.335551e+01	-9.454482e-04
7.377920e+01	-9.564003e-04
7.420535e+01	-9.674792e-04
7.463396e+01	-9.786865e-04
7.506504e+01	-9.900235e-04
7.549861e+01	-1.001492e-03
7.593469e+01	-1.013093e-03
7.637328e+01	-1.024829e-03
7.681441e+01	-1.036700e-03
7.725809e+01	-1.048709e-03
7.770433e+01	-1.060857e-03
7.815315e+01	-1.073146e-03
7.860456e+01	-1.085577e-03
7.905857e+01	-1.098152e-03
7.951521e+01	-1.110873e-03
7.997449e+01	-1.123741e-03
8.043642e+01	-1.136758e-03
8.090102e+01	-1.149926e-03
8.136830e+01	-1.163247e-03
8.183828e+01	-1.176721e-03
8.231097e+01	-1.190352e-03
8.278640e+01	-1.204141e-03
8.326457e+01	-1.218089e-03
8.374550e+01	-1.232199e-03
8.422921e+01	-1.246472e-03
8.471572e+01	-1.260911e-03
8.520503e+01	-1.275517e-03
8.569717e+01	-1.290292e-03
8.619215e+01	-1.305238e-03
8.669000e+01	-1.320357e-03
8.719071e+01	-1.335652e-03
8.769432e+01	-1.351123e-03
8.820084e+01	-1.366774e-03
8.871029e+01	-1.382606e-03
8.922267e+01	-1.398621e-03
8.973802e+01	-1.414822e-03
9.025634e+01	-1.431210e-03
9.077766e+01	-1.447788e-03
9.130199e+01	-1.464558e-03
9.182935e+01	-1.481523e-03
9.235975e+01	-1.498684e-03
9.289321e+01	-1.516043e-03
9.342976e+01	-1.533604e-03
9.396941e+01	-1.551368e-03
9.451217e+01	-1.569338e-03
9.505807e+01	-1.587516e-03
9.560712e+01	-1.605904e-03
9.615934e+01	-1.624505e-03
9.671476e+01	-1.643322e-03
9.727338e+01	-1.662357e-03
9.783522e+01	-1.681612e-03
9.840032e+01	-1.701090e-03
9.896867e+01	-1.720794e-03
9.954031e+01	-1.740726e-03
1.001153e+02	-1.760888e-03
1.006935e+02	-1.781285e-03
1.012751e+02	-1.801917e-03
1.018601e+02	-1.822788e-03
1.024484e+02	-1.843901e-03
1.030402e+02	-1.865259e-03
1.036353e+02	-1.886864e-03
1.042339e+02	-1.908719e-03
1.048360e+02	-1.930827e-03
1.054415e+02	-1.953191e-03
1.060505e+02	-1.975814e-03
1.066631e+02	-1.998699e-03
1.072791e+02	-2.021849e-03
1.078988e+02	-2.045267e-03
1.085220e+02	-2.068956e-03
1.091488e+02	-2.092920e-03
1.097793e+02	-2.117161e-03
1.104133e+02	-2.141683e-03
1.110511e+02	-2.166489e-03
1.116925e+02	-2.191582e-03
1.123376e+02	-2.216965e-03
1.129865e+02	-2.242643e-03
1.136391e+02	-2.268618e-03
1.142955e+02	-2.294893e-03
1.149556e+02	-2.321473e-03
1.156196e+02	-2.348361e-03
1.162874e+02	-2.375560e-03
1.169591e+02	-2.403074e-03
1.176347e+02	-2.430906e-03
1.183141e+02	-2.459061e-03
1.189975e+02	-2.487541e-03
1.196848e+02	-2.516352e-03
1.203761e+02	-2.545496e-03
1.210714e+02	-2.574977e-03
1.217707e+02	-2.604800e-03
1.224740e+02	-2.634968e-03
1.231814e+02	-2.665486e-03
1.238929e+02	-2.696357e-03
1.246085e+02	-2.727585e-03
1.253283e+02	-2.759175e-03
1.260522e+02	-2.791130e-03
1.267802e+02	-2.823456e-03
1.275125e+02	-2.856155e-03
1.282490e+02	-2.889234e-03
1.289898e+02	-2.922695e-03
1.297348e+02	-2.956543e-03
1.304842e+02	-2.990784e-03
1.312378e+02	-3.025421e-03
1.319959e+02	-3.060459e-03
1.327583e+02	-3.095902e-03
1.335251e+02	-3.131756e-03
1.342963e+02	-3.168025e-03
1.350720e+02	-3.204714e-03
1.358522e+02	-3.241828e-03
1.366368e+02	-3.279371e-03
1.374260e+02	-3.317349e-03
1.382198e+02	-3.355766e-03
1.390182e+02	-3.394628e-03
1.398211e+02	-3.433941e-03
1.406287e+02	-3.473708e-03
1.414410e+02	-3.513935e-03
1.422579e+02	-3.554628e-03
1.430796e+02	-3.595793e-03
1.439060e+02	-3.637433e-03
1.447372e+02	-3.679556e-03
1.455732e+02	-3.722166e-03
1.464141e+02	-3.765270e-03
1.472597e+02	-3.808872e-03
1.481103e+02	-3.852980e-03
1.489658e+02	-3.897597e-03
1.498262e+02	-3.942732e-03
1.506916e+02	-3.988388e-03
1.515620e+02	-4.034573e-03
1.524374e+02	-4.081293e-03
1.533179e+02	-4.128553e-03
1.542034e+02	-4.176360e-03
1.550941e+02	-4.224721e-03
1.559899e+02	-4.273641e-03
1.568909e+02	-4.323128e-03
1.577971e+02	-4.373187e-03
1.587085e+02	-4.423826e-03
1.596252e+02	-4.475051e-03
1.605472e+02	-4.526868e-03
1.614745e+02	-4.579285e-03
1.624072e+02	-4.632309e-03
1.633453e+02	-4.685947e-03
1.642887e+02	-4.740205e-03
1.652377e+02	-4.795091e-03
1.661921e+02	-4.850612e-03
1.671520e+02	-4.906776e-03
1.681175e+02	-4.963590e-03
1.690885e+02	-5.021061e-03
1.700651e+02	-5.079197e-03
1.710474e+02	-5.138006e-03
1.720354e+02	-5.197496e-03
1.730291e+02	-5.257673e-03
1.740285e+02	-5.318548e-03
1.750337e+02	-5.380126e-03
1.760446e+02	-5.442417e-03
1.770615e+02	-5.505429e-03
1.780842e+02	-5.569170e-03
1.791128e+02	-5.633648e-03
1.801473e+02	-5.698872e-03
1.811878e+02	-5.764851e-03
1.822344e+02	-5.831594e-03
1.832870e+02	-5.899108e-03
1.843456e+02	-5.967404e-03
1.854104e+02	-6.036490e-03
1.864813e+02	-6.106375e-03
1.875584e+02	-6.177068e-03
1.886418e+02	-6.248579e-03
1.897313e+02	-6.320918e-03
1.908272e+02	-6.394093e-03
1.919294e+02	-6.468115e-03
1.930380e+02	-6.542994e-03
1.941530e+02	-6.618738e-03
1.952744e+02	-6.695359e-03
1.964023e+02	-6.772865e-03
1.975367e+02	-6.851269e-03
1.986777e+02	-6.930579e-03
1.998252e+02	-7.010806e-03
2.009794e+02	-7.091962e-03
2.021403e+02	-7.174056e-03
2.033078e+02	-7.257100e-03
2.044821e+02	-7.341104e-03
2.056632e+02	-7.426080e-03
2.068511e+02	-7.512038e-03
2.080459e+02	-7.598991e-03
2.092475e+02	-7.686949e-03
2.104561e+02	-7.775924e-03
2.116717e+02	-7.865928e-03
2.128943e+02	-7.956973e-03
2.141240e+02	-8.049071e-03
2.153608e+02	-8.142234e-03
2.166047e+02	-8.236474e-03
2.178558e+02	-8.331804e-03
2.191141e+02	-8.428236e-03
2.203797e+02	-8.525784e-03
2.216526e+02	-8.624459e-03
2.229329e+02	-8.724275e-03
2.242205e+02	-8.825245e-03
2.255156e+02	-8.927382e-03
2.268182e+02	-9.030700e-03
2.281283e+02	-9.135213e-03
2.294459e+02	-9.240934e-03
2.307712e+02	-9.347877e-03
2.321041e+02	-9.456056e-03
2.334447e+02	-9.565486e-03
2.347931e+02	-9.676180e-03
2.361493e+02	-9.788155e-03
2.375133e+02	-9.901423e-03
2.388851e+02	-1.001600e-02
2.402649e+02	-1.013190e-02
2.416527e+02	-1.024915e-02
2.430484e+02	-1.036774e-02
2.444523e+02	-1.048771e-02
2.458642e+02	-1.060906e-02
2.472843e+02	-1.073182e-02
2.487126e+02	-1.085599e-02
2.501492e+02	-1.098160e-02
2.515940e+02	-1.110867e-02
2.530472e+02	-1.123720e-02
2.545088e+02	-1.136721e-02
2.559789e+02	-1.149873e-02
2.574574e+02	-1.163176e-02
2.589444e+02	-1.176634e-02
2.604401e+02	-1.190247e-02
2.619444e+02	-1.204017e-02
2.634574e+02	-1.217946e-02
2.649791e+02	-1.232036e-02
2.665096e+02	-1.246289e-02
2.680489e+02	-1.260707e-02
2.695972e+02	-1.275291e-02
2.711544e+02	-1.290043e-02
2.727205e+02	-1.304966e-02
2.742958e+02	-1.320062e-02
2.758801e+02	-1.335331e-02
2.774736e+02	-1.350777e-02
2.790762e+02	-1.366402e-02
2.806882e+02	-1.382207e-02
2.823094e+02	-1.398194e-02
2.839400e+02	-1.414366e-02
2.855800e+02	-1.430725e-02
2.872295e+02	-1.447272e-02
2.888886e+02	-1.464011e-02
2.905572e+02	-1.480943e-02
2.922354e+02	-1.498070e-02
2.939234e+02	-1.515395e-02
2.956211e+02	-1.532921e-02
2.973286e+02	-1.550648e-02
2.990459e+02	-1.568580e-02
3.007732e+02	-1.586719e-02
3.025104e+02	-1.605068e-02
3.042577e+02	-1.623628e-02
3.060151e+02	-1.642402e-02
3.077826e+02	-1.661394e-02
3.095604e+02	-1.680604e-02
3.113484e+02	-1.700036e-02
3.131467e+02	-1.719692e-02
3.149554e+02	-1.739575e-02
3.167746e+02	-1.759688e-02
3.186043e+02	-1.780032e-02
3.204445e+02	-1.800611e-02
3.222954e+02	-1.821428e-02
3.241570e+02	-1.842485e-02
3.260293e+02	-1.863785e-02
3.279124e+02	-1.885330e-02
3.298064e+02	-1.907124e-02
3.317114e+02	-1.929169e-02
3.336273e+02	-1.951469e-02
3.355544e+02	-1.974025e-02
3.374925e+02	-1.996842e-02
3.394418e+02	-2.019922e-02
3.414024e+02	-2.043268e-02
3.433744e+02	-2.066884e-02
3.453577e+02	-2.090771e-02
3.473525e+02	-2.114934e-02
3.493588e+02	-2.139376e-02
3.513766e+02	-2.164099e-02
3.534062e+02	-2.189107e-02
3.554474e+02	-2.214404e-02
3.575005e+02	-2.239992e-02
3.595654e+02	-2.265875e-02
3.616422e+02	-2.292056e-02
3.637311e+02	-2.318539e-02
3.658320e+02	-2.345327e-02
3.679450e+02	-2.372424e-02
3.700702e+02	-2.399833e-02
3.722077e+02	-2.427558e-02
3.743576e+02	-2.455602e-02
3.765199e+02	-2.483969e-02
3.786946e+02	-2.512663e-02
3.808820e+02	-2.541687e-02
3.830819e+02	-2.571046e-02
3.852946e+02	-2.600743e-02
3.875200e+02	-2.630782e-02
3.897583e+02	-2.661166e-02
3.920096e+02	-2.691901e-02
3.942738e+02	-2.722989e-02
3.965511e+02	-2.754435e-02
3.988416e+02	-2.786243e-02
4.011452e+02	-2.818418e-02
4.034622e+02	-2.850962e-02
4.057926e+02	-2.883881e-02
4.081365e+02	-2.917179e-02
4.104938e+02	-2.950861e-02
4.128648e+02	-2.984929e-02
4.152495e+02	-3.019390e-02
4.176480e+02	-3.054247e-02
4.200603e+02	-3.089505e-02
4.224866e+02	-3.125169e-02
4.249268e+02	-3.161242e-02
4.273812e+02	-3.197731e-02
4.298497e+02	-3.234639e-02
4.323325e+02	-3.271972e-02
4.348297e+02	-3.309734e-02
4.373412e+02	-3.347930e-02
4.398673e+02	-3.386565e-02
4.424079e+02	-3.425644e-02
4.449633e+02	-3.465172e-02
4.475334e+02	-3.505155e-02
4.501183e+02	-3.545596e-02
4.527182e+02	-3.586503e-02
4.553330e+02	-3.627880e-02
4.579630e+02	-3.669732e-02
4.606082e+02	-3.712064e-02
4.632687e+02	-3.754883e-02
4.659445e+02	-3.798194e-02
4.686358e+02	-3.842002e-02
4.713426e+02	-3.886313e-02
4.740650e+02	-3.931133e-02
4.768032e+02	-3.976467e-02
4.795572e+02	-4.022321e-02
4.823271e+02	-4.068702e-02
4.851130e+02	-4.115616e-02
4.879150e+02	-4.163067e-02
4.907332e+02	-4.211063e-02
4.935676e+02	-4.259610e-02
4.964185e+02	-4.308713e-02
4.992858e+02	-4.358380e-02
5.021696e+02	-4.408616e-02
5.050701e+02	-4.459428e-02
5.079874e+02	-4.510823e-02
5.109215e+02	-4.562807e-02
5.138726e+02	-4.615387e-02
5.168407e+02	-4.668569e-02
5.198259e+02	-4.722361e-02
5.228284e+02	-4.776770e-02
5.258482e+02	-4.831802e-02
5.288855e+02	-4.887464e-02
5.319403e+02	-4.943764e-02
5.350128e+02	-5.000708e-02
5.381030e+02	-5.058305e-02
5.412111e+02	-5.116561e-02
5.443371e+02	-5.175484e-02
5.474812e+02	-5.235082e-02
5.506434e+02	-5.295361e-02
5.538239e+02	-5.356330e-02
5.570228e+02	-5.417997e-02
5.602401e+02	-5.480370e-02
5.634760e+02	-5.543456e-02
5.667306e+02	-5.607263e-02
5.700040e+02	-5.671800e-02
5.732964e+02	-5.737075e-02
5.766077e+02	-5.803096e-02
5.799382e+02	-5.869872e-02
5.832879e+02	-5.937410e-02
5.866569e+02	-6.005721e-02
5.900454e+02	-6.074812e-02
5.934535e+02	-6.144692e-02
5.968813e+02	-6.215370e-02
6.003288e+02	-6.286855e-02
6.037963e+02	-6.359157e-02
6.072838e+02	-6.432283e-02
6.107914e+02	-6.506245e-02
6.143194e+02	-6.581050e-02
6.178676e+02	-6.656709e-02
6.214364e+02	-6.733230e-02
6.250258e+02	-6.810625e-02
6.286359e+02	-6.888902e-02
6.322669e+02	-6.968071e-02
6.359189e+02	-7.048143e-02
6.395919e+02	-7.129128e-02
6.432862e+02	-7.211035e-02
6.470017e+02	-7.293875e-02
6.507388e+02	-7.377659e-02
6.544974e+02	-7.462397e-02
6.582778e+02	-7.548100e-02
6.620800e+02	-7.634778e-02
6.659041e+02	-7.722443e-02
6.697504e+02	-7.811106e-02
6.736188e+02	-7.900777e-02
6.775096e+02	-7.991468e-02
6.814229e+02	-8.083190e-02
6.853587e+02	-8.175955e-02
6.893173e+02	-8.269775e-02
6.932988e+02	-8.364660e-02
6.973033e+02	-8.460624e-02
7.013309e+02	-8.557678e-02
