Frequency(Hz)	Magnitude(dB)
1.000000e+01	-1.618874e-05
1.005776e+01	-1.637629e-05
1.011585e+01	-1.656602e-05
1.017428e+01	-1.675794e-05
1.023305e+01	-1.695208e-05
1.029215e+01	-1.714848e-05
1.035160e+01	-1.734715e-05
1.041139e+01	-1.754812e-05
1.047153e+01	-1.775142e-05
1.053201e+01	-1.795707e-05
1.059284e+01	-1.816511e-05
1.065403e+01	-1.837556e-05
1.071556e+01	-1.858844e-05
1.077746e+01	-1.880379e-05
1.083971e+01	-1.902164e-05
1.090232e+01	-1.924201e-05
1.096529e+01	-1.946494e-05
1.102862e+01	-1.969044e-05
1.109232e+01	-1.991856e-05
1.115639e+01	-2.014932e-05
1.122083e+01	-2.038276e-05
1.128564e+01	-2.061890e-05
1.135083e+01	-2.085777e-05
1.141639e+01	-2.109941e-05
1.148233e+01	-2.134386e-05
1.154865e+01	-2.159113e-05
1.161536e+01	-2.184127e-05
1.168245e+01	-2.209431e-05
1.174992e+01	-2.235027e-05
1.181779e+01	-2.260921e-05
1.188605e+01	-2.287114e-05
1.195470e+01	-2.313611e-05
1.202375e+01	-2.340415e-05
1.209320e+01	-2.367529e-05
1.216305e+01	-2.394957e-05
1.223330e+01	-2.422703e-05
1.230396e+01	-2.450771e-05
1.237503e+01	-2.479164e-05
1.244651e+01	-2.507886e-05
1.251840e+01	-2.536940e-05
1.259070e+01	-2.566331e-05
1.266343e+01	-2.596063e-05
1.273657e+01	-2.626139e-05
1.281014e+01	-2.656563e-05
1.288413e+01	-2.687340e-05
1.295855e+01	-2.718474e-05
1.303339e+01	-2.749968e-05
1.310867e+01	-2.781827e-05
1.318439e+01	-2.814055e-05
1.326054e+01	-2.846656e-05
1.333713e+01	-2.879636e-05
1.341417e+01	-2.912997e-05
1.349165e+01	-2.946745e-05
1.356958e+01	-2.980883e-05
1.364795e+01	-3.015418e-05
1.372678e+01	-3.050352e-05
1.380607e+01	-3.085691e-05
1.388581e+01	-3.121440e-05
1.396602e+01	-3.157602e-05
1.404668e+01	-3.194184e-05
1.412782e+01	-3.231189e-05
1.420942e+01	-3.268623e-05
1.429149e+01	-3.306491e-05
1.437404e+01	-3.344798e-05
1.445706e+01	-3.383548e-05
1.454057e+01	-3.422747e-05
1.462455e+01	-3.462400e-05
1.470902e+01	-3.502513e-05
1.479398e+01	-3.543090e-05
1.487943e+01	-3.584138e-05
1.496537e+01	-3.625661e-05
1.505181e+01	-3.667665e-05
1.513875e+01	-3.710156e-05
1.522619e+01	-3.753139e-05
1.531414e+01	-3.796620e-05
1.540259e+01	-3.840605e-05
1.549156e+01	-3.885099e-05
1.558103e+01	-3.930109e-05
1.567103e+01	-3.975640e-05
1.576155e+01	-4.021699e-05
1.585258e+01	-4.068291e-05
1.594415e+01	-4.115423e-05
1.603624e+01	-4.163101e-05
1.612886e+01	-4.211331e-05
1.622202e+01	-4.260121e-05
1.631572e+01	-4.309475e-05
1.640996e+01	-4.359401e-05
1.650474e+01	-4.409906e-05
1.660008e+01	-4.460996e-05
1.669596e+01	-4.512677e-05
1.679239e+01	-4.564958e-05
1.688938e+01	-4.617844e-05
1.698694e+01	-4.671342e-05
1.708505e+01	-4.725461e-05
1.718373e+01	-4.780206e-05
1.728299e+01	-4.835586e-05
1.738281e+01	-4.891607e-05
1.748322e+01	-4.948278e-05
1.758420e+01	-5.005605e-05
1.768576e+01	-5.063596e-05
1.778792e+01	-5.122258e-05
1.789066e+01	-5.181601e-05
1.799399e+01	-5.241631e-05
1.809793e+01	-5.302356e-05
1.820246e+01	-5.363785e-05
1.830760e+01	-5.425926e-05
1.841334e+01	-5.488786e-05
1.851969e+01	-5.552375e-05
1.862666e+01	-5.616700e-05
1.873425e+01	-5.681771e-05
1.884246e+01	-5.747595e-05
1.895129e+01	-5.814182e-05
1.906075e+01	-5.881541e-05
1.917085e+01	-5.949680e-05
1.928158e+01	-6.018608e-05
1.939295e+01	-6.088335e-05
1.950496e+01	-6.158869e-05
1.961762e+01	-6.230221e-05
1.973093e+01	-6.302399e-05
1.984490e+01	-6.375414e-05
1.995952e+01	-6.449274e-05
2.007480e+01	-6.523990e-05
2.019076e+01	-6.599572e-05
2.030738e+01	-6.676029e-05
2.042467e+01	-6.753372e-05
2.054264e+01	-6.831611e-05
2.066130e+01	-6.910757e-05
2.078064e+01	-6.990819e-05
2.090066e+01	-7.071809e-05
2.102139e+01	-7.153737e-05
2.114280e+01	-7.236615e-05
2.126492e+01	-7.320452e-05
2.138775e+01	-7.405261e-05
2.151128e+01	-7.491052e-05
2.163553e+01	-7.577838e-05
2.176050e+01	-7.665628e-05
2.188619e+01	-7.754436e-05
2.201260e+01	-7.844272e-05
2.213974e+01	-7.935150e-05
2.226762e+01	-8.027080e-05
2.239624e+01	-8.120075e-05
2.252560e+01	-8.214147e-05
2.265571e+01	-8.309309e-05
2.278656e+01	-8.405574e-05
2.291818e+01	-8.502954e-05
2.305055e+01	-8.601462e-05
2.318369e+01	-8.701112e-05
2.331760e+01	-8.801915e-05
2.345228e+01	-8.903887e-05
2.358774e+01	-9.007040e-05
2.372398e+01	-9.111388e-05
2.386101e+01	-9.216945e-05
2.399883e+01	-9.323725e-05
2.413745e+01	-9.431741e-05
2.427686e+01	-9.541010e-05
2.441709e+01	-9.651544e-05
2.455812e+01	-9.763358e-05
2.469997e+01	-9.876468e-05
2.484263e+01	-9.990888e-05
2.498612e+01	-1.010663e-04
2.513044e+01	-1.022372e-04
2.527559e+01	-1.034216e-04
2.542158e+01	-1.046198e-04
2.556842e+01	-1.058318e-04
2.571610e+01	-1.070579e-04
2.586463e+01	-1.082982e-04
2.601403e+01	-1.095528e-04
2.616428e+01	-1.108220e-04
2.631541e+01	-1.121059e-04
2.646740e+01	-1.134047e-04
2.662028e+01	-1.147185e-04
2.677404e+01	-1.160475e-04
2.692868e+01	-1.173919e-04
2.708422e+01	-1.187519e-04
2.724066e+01	-1.201277e-04
2.739800e+01	-1.215194e-04
2.755625e+01	-1.229272e-04
2.771541e+01	-1.243513e-04
2.787550e+01	-1.257919e-04
2.803650e+01	-1.272493e-04
2.819844e+01	-1.287235e-04
2.836131e+01	-1.302147e-04
2.852513e+01	-1.317233e-04
2.868989e+01	-1.332493e-04
2.885560e+01	-1.347930e-04
2.902227e+01	-1.363546e-04
2.918990e+01	-1.379343e-04
2.935850e+01	-1.395323e-04
2.952807e+01	-1.411488e-04
2.969863e+01	-1.427840e-04
2.987016e+01	-1.444381e-04
3.004269e+01	-1.461115e-04
3.021622e+01	-1.478042e-04
3.039075e+01	-1.495165e-04
3.056628e+01	-1.512487e-04
3.074283e+01	-1.530009e-04
3.092040e+01	-1.547734e-04
3.109900e+01	-1.565665e-04
3.127862e+01	-1.583803e-04
3.145929e+01	-1.602152e-04
3.164099e+01	-1.620713e-04
3.182375e+01	-1.639489e-04
3.200756e+01	-1.658482e-04
3.219244e+01	-1.677696e-04
3.237838e+01	-1.697132e-04
3.256540e+01	-1.716793e-04
3.275349e+01	-1.736683e-04
3.294268e+01	-1.756802e-04
3.313295e+01	-1.777155e-04
3.332433e+01	-1.797743e-04
3.351681e+01	-1.818570e-04
3.371040e+01	-1.839638e-04
3.390511e+01	-1.860951e-04
3.410094e+01	-1.882510e-04
3.429791e+01	-1.904319e-04
3.449601e+01	-1.926380e-04
3.469526e+01	-1.948697e-04
3.489566e+01	-1.971273e-04
3.509721e+01	-1.994110e-04
3.529993e+01	-2.017212e-04
3.550382e+01	-2.040582e-04
3.570889e+01	-2.064222e-04
3.591515e+01	-2.088136e-04
3.612259e+01	-2.112327e-04
3.633123e+01	-2.136798e-04
3.654108e+01	-2.161553e-04
3.675214e+01	-2.186594e-04
3.696442e+01	-2.211926e-04
3.717792e+01	-2.237551e-04
3.739266e+01	-2.263473e-04
3.760864e+01	-2.289695e-04
3.782587e+01	-2.316221e-04
3.804435e+01	-2.343055e-04
3.826409e+01	-2.370199e-04
3.848510e+01	-2.397658e-04
3.870739e+01	-2.425434e-04
3.893096e+01	-2.453533e-04
3.915583e+01	-2.481957e-04
3.938199e+01	-2.510710e-04
3.960946e+01	-2.539797e-04
3.983824e+01	-2.569220e-04
4.006834e+01	-2.598984e-04
4.029978e+01	-2.629093e-04
4.053255e+01	-2.659551e-04
4.076666e+01	-2.690362e-04
4.100213e+01	-2.721530e-04
4.123896e+01	-2.753058e-04
4.147715e+01	-2.784952e-04
4.171672e+01	-2.817216e-04
4.195767e+01	-2.849853e-04
4.220002e+01	-2.882868e-04
4.244377e+01	-2.916266e-04
4.268892e+01	-2.950050e-04
4.293549e+01	-2.984226e-04
4.318348e+01	-3.018798e-04
4.343291e+01	-3.053770e-04
4.368377e+01	-3.089148e-04
4.393609e+01	-3.124935e-04
4.418986e+01	-3.161137e-04
4.444510e+01	-3.197759e-04
4.470182e+01	-3.234804e-04
4.496001e+01	-3.272279e-04
4.521970e+01	-3.310188e-04
4.548089e+01	-3.348536e-04
4.574358e+01	-3.387328e-04
4.600779e+01	-3.426569e-04
4.627353e+01	-3.466266e-04
4.654081e+01	-3.506422e-04
4.680963e+01	-3.547043e-04
4.708000e+01	-3.588135e-04
4.735193e+01	-3.629702e-04
4.762543e+01	-3.671752e-04
4.790051e+01	-3.714288e-04
4.817719e+01	-3.757317e-04
4.845545e+01	-3.800845e-04
4.873533e+01	-3.844877e-04
4.901682e+01	-3.889419e-04
4.929994e+01	-3.934477e-04
4.958470e+01	-3.980057e-04
4.987110e+01	-4.026165e-04
5.015915e+01	-4.072807e-04
5.044887e+01	-4.119989e-04
5.074026e+01	-4.167718e-04
5.103333e+01	-4.216000e-04
5.132810e+01	-4.264841e-04
5.162457e+01	-4.314248e-04
5.192275e+01	-4.364227e-04
5.222265e+01	-4.414785e-04
5.252429e+01	-4.465929e-04
5.282767e+01	-4.517666e-04
5.313280e+01	-4.570001e-04
5.343969e+01	-4.622943e-04
5.374836e+01	-4.676498e-04
5.405880e+01	-4.730674e-04
5.437105e+01	-4.785477e-04
5.468509e+01	-4.840915e-04
5.500095e+01	-4.896995e-04
5.531863e+01	-4.953725e-04
5.563815e+01	-5.011112e-04
5.595951e+01	-5.069164e-04
5.628273e+01	-5.127888e-04
5.660782e+01	-5.187292e-04
5.693479e+01	-5.247385e-04
5.726364e+01	-5.308174e-04
5.759439e+01	-5.369666e-04
5.792705e+01	-5.431872e-04
5.826164e+01	-5.494797e-04
5.859815e+01	-5.558452e-04
5.893662e+01	-5.622844e-04
5.927703e+01	-5.687982e-04
5.961941e+01	-5.753875e-04
5.996377e+01	-5.820530e-04
6.031012e+01	-5.887958e-04
6.065847e+01	-5.956167e-04
6.100883e+01	-6.025166e-04
6.136121e+01	-6.094964e-04
6.171563e+01	-6.165571e-04
6.207210e+01	-6.236996e-04
6.243063e+01	-6.309248e-04
6.279122e+01	-6.382337e-04
6.315390e+01	-6.456273e-04
6.351868e+01	-6.531065e-04
6.388556e+01	-6.606723e-04
6.425456e+01	-6.683258e-04
6.462569e+01	-6.760679e-04
6.499897e+01	-6.838998e-04
6.537440e+01	-6.918223e-04
6.575200e+01	-6.998366e-04
6.613178e+01	-7.079437e-04
6.651375e+01	-7.161448e-04
6.689793e+01	-7.244408e-04
6.728433e+01	-7.328330e-04
6.767297e+01	-7.413223e-04
6.806384e+01	-7.499100e-04
6.845698e+01	-7.585971e-04
6.885238e+01	-7.673849e-04
6.925007e+01	-7.762745e-04
6.965005e+01	-7.852670e-04
7.005235e+01	-7.943637e-04
7.045697e+01	-8.035658e-04
7.086393e+01	-8.128745e-04
7.127323e+01	-8.222909e-04
7.168490e+01	-8.318165e-04
7.209895e+01	-8.414524e-04
7.251539e+01	-8.511999e-04
7.293424e+01	-8.610603e-04
7.335551e+01	-8.710349e-04
7.377920e+01	-8.811251e-04
7.420535e+01	-8.913321e-04
7.463396e+01	-9.016573e-04
7.506504e+01	-9.121022e-04
7.549861e+01	-9.226680e-04
7.593469e+01	-9.333562e-04
7.637328e+01	-9.441683e-04
7.681441e+01	-9.551055e-04
7.725809e+01	-9.661694e-04
7.770433e+01	-9.773615e-04
7.815315e+01	-9.886832e-04
7.860456e+01	-1.000136e-03
7.905857e+01	-1.011722e-03
7.951521e+01	-1.023441e-03
7.997449e+01	-1.035297e-03
8.043642e+01	-1.047289e-03
8.090102e+01	-1.059421e-03
8.136830e+01	-1.071693e-03
8.183828e+01	-1.084108e-03
8.231097e+01	-1.096666e-03
8.278640e+01	-1.109369e-03
8.326457e+01	-1.122220e-03
8.374550e+01	-1.135219e-03
8.422921e+01	-1.148369e-03
8.471572e+01	-1.161672e-03
8.520503e+01	-1.175128e-03
8.569717e+01	-1.188741e-03
8.619215e+01	-1.202511e-03
8.669000e+01	-1.216440e-03
8.719071e+01	-1.230531e-03
8.769432e+01	-1.244785e-03
8.820084e+01	-1.259204e-03
8.871029e+01	-1.273790e-03
8.922267e+01	-1.288545e-03
8.973802e+01	-1.303471e-03
9.025634e+01	-1.318570e-03
9.077766e+01	-1.333843e-03
9.130199e+01	-1.349294e-03
9.182935e+01	-1.364923e-03
9.235975e+01	-1.380734e-03
9.289321e+01	-1.396727e-03
9.342976e+01	-1.412906e-03
9.396941e+01	-1.429273e-03
9.451217e+01	-1.445828e-03
9.505807e+01	-1.462576e-03
9.560712e+01	-1.479517e-03
9.615934e+01	-1.496655e-03
9.671476e+01	-1.513991e-03
9.727338e+01	-1.531528e-03
9.783522e+01	-1.549268e-03
9.840032e+01	-1.567213e-03
9.896867e+01	-1.585367e-03
9.954031e+01	-1.603730e-03
1.001153e+02	-1.622306e-03
1.006935e+02	-1.641098e-03
1.012751e+02	-1.660106e-03
1.018601e+02	-1.679336e-03
1.024484e+02	-1.698787e-03
1.030402e+02	-1.718464e-03
1.036353e+02	-1.738369e-03
1.042339e+02	-1.758505e-03
1.048360e+02	-1.778873e-03
1.054415e+02	-1.799478e-03
1.060505e+02	-1.820321e-03
1.066631e+02	-1.841405e-03
1.072791e+02	-1.862734e-03
1.078988e+02	-1.884309e-03
1.085220e+02	-1.906135e-03
1.091488e+02	-1.928213e-03
1.097793e+02	-1.950547e-03
1.104133e+02	-1.973139e-03
1.110511e+02	-1.995993e-03
1.116925e+02	-2.019112e-03
1.123376e+02	-2.042498e-03
1.129865e+02	-2.066156e-03
1.136391e+02	-2.090087e-03
1.142955e+02	-2.114295e-03
1.149556e+02	-2.138784e-03
1.156196e+02	-2.163556e-03
1.162874e+02	-2.188615e-03
1.169591e+02	-2.213964e-03
1.176347e+02	-2.239607e-03
1.183141e+02	-2.265547e-03
1.189975e+02	-2.291787e-03
1.196848e+02	-2.318331e-03
1.203761e+02	-2.345182e-03
1.210714e+02	-2.372344e-03
1.217707e+02	-2.399821e-03
1.224740e+02	-2.427615e-03
1.231814e+02	-2.455732e-03
1.238929e+02	-2.484174e-03
1.246085e+02	-2.512946e-03
1.253283e+02	-2.542050e-03
1.260522e+02	-2.571492e-03
1.267802e+02	-2.601274e-03
1.275125e+02	-2.631402e-03
1.282490e+02	-2.661878e-03
1.289898e+02	-2.692707e-03
1.297348e+02	-2.723893e-03
1.304842e+02	-2.755440e-03
1.312378e+02	-2.787352e-03
1.319959e+02	-2.819634e-03
1.327583e+02	-2.852289e-03
1.335251e+02	-2.885323e-03
1.342963e+02	-2.918739e-03
1.350720e+02	-2.952542e-03
1.358522e+02	-2.986736e-03
1.366368e+02	-3.021326e-03
1.374260e+02	-3.056316e-03
1.382198e+02	-3.091712e-03
1.390182e+02	-3.127517e-03
1.398211e+02	-3.163737e-03
1.406287e+02	-3.200376e-03
1.414410e+02	-3.237440e-03
1.422579e+02	-3.274932e-03
1.430796e+02	-3.312859e-03
1.439060e+02	-3.351224e-03
1.447372e+02	-3.390034e-03
1.455732e+02	-3.429293e-03
1.464141e+02	-3.469006e-03
1.472597e+02	-3.509179e-03
1.481103e+02	-3.549817e-03
1.489658e+02	-3.590926e-03
1.498262e+02	-3.632510e-03
1.506916e+02	-3.674576e-03
1.515620e+02	-3.717129e-03
1.524374e+02	-3.760174e-03
1.533179e+02	-3.803717e-03
1.542034e+02	-3.847765e-03
1.550941e+02	-3.892322e-03
1.559899e+02	-3.937395e-03
1.568909e+02	-3.982990e-03
1.577971e+02	-4.029113e-03
1.587085e+02	-4.075769e-03
1.596252e+02	-4.122965e-03
1.605472e+02	-4.170708e-03
1.614745e+02	-4.219003e-03
1.624072e+02	-4.267857e-03
1.633453e+02	-4.317277e-03
1.642887e+02	-4.367269e-03
1.652377e+02	-4.417839e-03
1.661921e+02	-4.468994e-03
1.671520e+02	-4.520742e-03
1.681175e+02	-4.573088e-03
1.690885e+02	-4.626040e-03
1.700651e+02	-4.679605e-03
1.710474e+02	-4.733790e-03
1.720354e+02	-4.788602e-03
1.730291e+02	-4.844048e-03
1.740285e+02	-4.900136e-03
1.750337e+02	-4.956873e-03
1.760446e+02	-5.014266e-03
1.770615e+02	-5.072324e-03
1.780842e+02	-5.131053e-03
1.791128e+02	-5.190462e-03
1.801473e+02	-5.250558e-03
1.811878e+02	-5.311350e-03
1.822344e+02	-5.372845e-03
1.832870e+02	-5.435052e-03
1.843456e+02	-5.497979e-03
1.854104e+02	-5.561633e-03
1.864813e+02	-5.626024e-03
1.875584e+02	-5.691161e-03
1.886418e+02	-5.757050e-03
1.897313e+02	-5.823702e-03
1.908272e+02	-5.891126e-03
1.919294e+02	-5.959329e-03
1.930380e+02	-6.028321e-03
1.941530e+02	-6.098112e-03
1.952744e+02	-6.168710e-03
1.964023e+02	-6.240124e-03
1.975367e+02	-6.312365e-03
1.986777e+02	-6.385441e-03
1.998252e+02	-6.459363e-03
2.009794e+02	-6.534140e-03
2.021403e+02	-6.609782e-03
2.033078e+02	-6.686299e-03
2.044821e+02	-6.763701e-03
2.056632e+02	-6.841998e-03
2.068511e+02	-6.921201e-03
2.080459e+02	-7.001320e-03
2.092475e+02	-7.082366e-03
2.104561e+02	-7.164349e-03
2.116717e+02	-7.247281e-03
2.128943e+02	-7.331171e-03
2.141240e+02	-7.416032e-03
2.153608e+02	-7.501874e-03
2.166047e+02	-7.588709e-03
2.178558e+02	-7.676549e-03
2.191141e+02	-7.765404e-03
2.203797e+02	-7.855286e-03
2.216526e+02	-7.946208e-03
2.229329e+02	-8.038182e-03
2.242205e+02	-8.131219e-03
2.255156e+02	-8.225331e-03
2.268182e+02	-8.320532e-03
2.281283e+02	-8.416834e-03
2.294459e+02	-8.514250e-03
2.307712e+02	-8.612791e-03
2.321041e+02	-8.712472e-03
2.334447e+02	-8.813306e-03
2.347931e+02	-8.915305e-03
2.361493e+02	-9.018483e-03
2.375133e+02	-9.122855e-03
2.388851e+02	-9.228433e-03
2.402649e+02	-9.335231e-03
2.416527e+02	-9.443264e-03
2.430484e+02	-9.552546e-03
2.444523e+02	-9.663092e-03
2.458642e+02	-9.774915e-03
2.472843e+02	-9.888030e-03
2.487126e+02	-1.000245e-02
2.501492e+02	-1.011820e-02
2.515940e+02	-1.023528e-02
2.530472e+02	-1.035372e-02
2.545088e+02	-1.047352e-02
2.559789e+02	-1.059471e-02
2.574574e+02	-1.071730e-02
2.589444e+02	-1.084131e-02
2.604401e+02	-1.096675e-02
2.619444e+02	-1.109364e-02
2.634574e+02	-1.122200e-02
2.649791e+02	-1.135184e-02
2.665096e+02	-1.148318e-02
2.680489e+02	-1.161603e-02
2.695972e+02	-1.175043e-02
2.711544e+02	-1.188637e-02
2.727205e+02	-1.202389e-02
2.742958e+02	-1.216299e-02
2.758801e+02	-1.230370e-02
2.774736e+02	-1.244604e-02
2.790762e+02	-1.259002e-02
2.806882e+02	-1.273566e-02
2.823094e+02	-1.288299e-02
2.839400e+02	-1.303202e-02
2.855800e+02	-1.318277e-02
2.872295e+02	-1.333526e-02
2.888886e+02	-1.348951e-02
2.905572e+02	-1.364554e-02
2.922354e+02	-1.380338e-02
2.939234e+02	-1.396303e-02
2.956211e+02	-1.412454e-02
2.973286e+02	-1.428790e-02
2.990459e+02	-1.445315e-02
3.007732e+02	-1.462031e-02
3.025104e+02	-1.478941e-02
3.042577e+02	-1.496045e-02
3.060151e+02	-1.513347e-02
3.077826e+02	-1.530848e-02
3.095604e+02	-1.548552e-02
3.113484e+02	-1.566460e-02
3.131467e+02	-1.584574e-02
3.149554e+02	-1.602898e-02
3.167746e+02	-1.621433e-02
3.186043e+02	-1.640182e-02
3.204445e+02	-1.659148e-02
3.222954e+02	-1.678332e-02
3.241570e+02	-1.697738e-02
3.260293e+02	-1.717368e-02
3.279124e+02	-1.737224e-02
3.298064e+02	-1.757309e-02
3.317114e+02	-1.777626e-02
3.336273e+02	-1.798178e-02
3.355544e+02	-1.818966e-02
3.374925e+02	-1.839995e-02
3.394418e+02	-1.861266e-02
3.414024e+02	-1.882782e-02
3.433744e+02	-1.904546e-02
3.453577e+02	-1.926562e-02
3.473525e+02	-1.948831e-02
3.493588e+02	-1.971358e-02
3.513766e+02	-1.994144e-02
3.534062e+02	-2.017193e-02
3.554474e+02	-2.040507e-02
3.575005e+02	-2.064091e-02
3.595654e+02	-2.087946e-02
3.616422e+02	-2.112076e-02
3.637311e+02	-2.136485e-02
3.658320e+02	-2.161175e-02
3.679450e+02	-2.186150e-02
3.700702e+02	-2.211412e-02
3.722077e+02	-2.236965e-02
3.743576e+02	-2.262814e-02
3.765199e+02	-2.288960e-02
3.786946e+02	-2.315407e-02
3.808820e+02	-2.342159e-02
3.830819e+02	-2.369219e-02
3.852946e+02	-2.396591e-02
3.875200e+02	-2.424279e-02
3.897583e+02	-2.452285e-02
3.920096e+02	-2.480614e-02
3.942738e+02	-2.509269e-02
3.965511e+02	-2.538254e-02
3.988416e+02	-2.567574e-02
4.011452e+02	-2.597230e-02
4.034622e+02	-2.627229e-02
4.057926e+02	-2.657572e-02
4.081365e+02	-2.688265e-02
4.104938e+02	-2.719312e-02
4.128648e+02	-2.750716e-02
4.152495e+02	-2.782481e-02
4.176480e+02	-2.814612e-02
4.200603e+02	-2.847113e-02
4.224866e+02	-2.879988e-02
4.249268e+02	-2.913241e-02
4.273812e+02	-2.946877e-02
4.298497e+02	-2.980899e-02
4.323325e+02	-3.015314e-02
4.348297e+02	-3.050124e-02
4.373412e+02	-3.085334e-02
4.398673e+02	-3.120950e-02
4.424079e+02	-3.156975e-02
4.449633e+02	-3.193415e-02
4.475334e+02	-3.230273e-02
4.501183e+02	-3.267556e-02
4.527182e+02	-3.305267e-02
4.553330e+02	-3.343411e-02
4.579630e+02	-3.381994e-02
4.606082e+02	-3.421021e-02
4.632687e+02	-3.460496e-02
4.659445e+02	-3.500425e-02
4.686358e+02	-3.540812e-02
4.713426e+02	-3.581664e-02
4.740650e+02	-3.622985e-02
4.768032e+02	-3.664781e-02
4.795572e+02	-3.707056e-02
4.823271e+02	-3.749818e-02
4.851130e+02	-3.793070e-02
4.879150e+02	-3.836819e-02
4.907332e+02	-3.881071e-02
4.935676e+02	-3.925830e-02
4.964185e+02	-3.971104e-02
4.992858e+02	-4.016897e-02
5.021696e+02	-4.063215e-02
5.050701e+02	-4.110065e-02
5.079874e+02	-4.157453e-02
5.109215e+02	-4.205384e-02
5.138726e+02	-4.253866e-02
5.168407e+02	-4.302903e-02
5.198259e+02	-4.352503e-02
5.228284e+02	-4.402672e-02
5.258482e+02	-4.453416e-02
5.288855e+02	-4.504742e-02
5.319403e+02	-4.556656e-02
5.350128e+02	-4.609166e-02
5.381030e+02	-4.662277e-02
5.412111e+02	-4.715997e-02
5.443371e+02	-4.770332e-02
5.474812e+02	-4.825290e-02
5.506434e+02	-4.880878e-02
5.538239e+02	-4.937102e-02
5.570228e+02	-4.993970e-02
5.602401e+02	-5.051490e-02
5.634760e+02	-5.109668e-02
5.667306e+02	-5.168512e-02
5.700040e+02	-5.228029e-02
5.732964e+02	-5.288228e-02
5.766077e+02	-5.349116e-02
5.799382e+02	-5.410700e-02
5.832879e+02	-5.472989e-02
5.866569e+02	-5.535990e-02
5.900454e+02	-5.599712e-02
5.934535e+02	-5.664163e-02
5.968813e+02	-5.729350e-02
6.003288e+02	-5.795283e-02
6.037963e+02	-5.861969e-02
6.072838e+02	-5.929417e-02
6.107914e+02	-5.997636e-02
6.143194e+02	-6.066635e-02
6.178676e+02	-6.136421e-02
6.214364e+02	-6.207005e-02
6.250258e+02	-6.278395e-02
6.286359e+02	-6.350599e-02
6.322669e+02	-6.423628e-02
6.359189e+02	-6.497490e-02
6.395919e+02	-6.572196e-02
6.432862e+02	-6.647753e-02
6.470017e+02	-6.724173e-02
6.507388e+02	-6.801464e-02
6.544974e+02	-6.879636e-02
6.582778e+02	-6.958700e-02
6.620800e+02	-7.038665e-02
6.659041e+02	-7.119541e-02
6.697504e+02	-7.201339e-02
6.736188e+02	-7.284069e-02
6.775096e+02	-7.367741e-02
6.814229e+02	-7.452366e-02
6.853587e+02	-7.537954e-02
6.893173e+02	-7.624517e-02
6.932988e+02	-7.712065e-02
6.973033e+02	-7.800609e-02
7.013309e+02	-7.890160e-02
