Frequency(Hz)	Magnitude(dB)
1.000000e+01	-1.842757e-05
1.005776e+01	-1.864106e-05
1.011585e+01	-1.885702e-05
1.017428e+01	-1.907548e-05
1.023305e+01	-1.929648e-05
1.029215e+01	-1.952003e-05
1.035160e+01	-1.974618e-05
1.041139e+01	-1.997494e-05
1.047153e+01	-2.020636e-05
1.053201e+01	-2.044045e-05
1.059284e+01	-2.067726e-05
1.065403e+01	-2.091681e-05
1.071556e+01	-2.115914e-05
1.077746e+01	-2.140427e-05
1.083971e+01	-2.165225e-05
1.090232e+01	-2.190309e-05
1.096529e+01	-2.215684e-05
1.102862e+01	-2.241354e-05
1.109232e+01	-2.267320e-05
1.115639e+01	-2.293588e-05
1.122083e+01	-2.320160e-05
1.128564e+01	-2.347039e-05
1.135083e+01	-2.374230e-05
1.141639e+01	-2.401736e-05
1.148233e+01	-2.429561e-05
1.154865e+01	-2.457708e-05
1.161536e+01	-2.486181e-05
1.168245e+01	-2.514984e-05
1.174992e+01	-2.544121e-05
1.181779e+01	-2.573595e-05
1.188605e+01	-2.603411e-05
1.195470e+01	-2.633572e-05
1.202375e+01	-2.664083e-05
1.209320e+01	-2.694947e-05
1.216305e+01	-2.726168e-05
1.223330e+01	-2.757752e-05
1.230396e+01	-2.789701e-05
1.237503e+01	-2.822020e-05
1.244651e+01	-2.854714e-05
1.251840e+01	-2.887787e-05
1.259070e+01	-2.921242e-05
1.266343e+01	-2.955086e-05
1.273657e+01	-2.989321e-05
1.281014e+01	-3.023953e-05
1.288413e+01	-3.058986e-05
1.295855e+01	-3.094425e-05
1.303339e+01	-3.130275e-05
1.310867e+01	-3.166540e-05
1.318439e+01	-3.203225e-05
1.326054e+01	-3.240335e-05
1.333713e+01	-3.277875e-05
1.341417e+01	-3.315850e-05
1.349165e+01	-3.354265e-05
1.356958e+01	-3.393125e-05
1.364795e+01	-3.432435e-05
1.372678e+01	-3.472201e-05
1.380607e+01	-3.512427e-05
1.388581e+01	-3.553119e-05
1.396602e+01	-3.594283e-05
1.404668e+01	-3.635924e-05
1.412782e+01	-3.678047e-05
1.420942e+01	-3.720658e-05
1.429149e+01	-3.763762e-05
1.437404e+01	-3.807366e-05
1.445706e+01	-3.851476e-05
1.454057e+01	-3.896096e-05
1.462455e+01	-3.941233e-05
1.470902e+01	-3.986893e-05
1.479398e+01	-4.033082e-05
1.487943e+01	-4.079806e-05
1.496537e+01	-4.127072e-05
1.505181e+01	-4.174885e-05
1.513875e+01	-4.223252e-05
1.522619e+01	-4.272179e-05
1.531414e+01	-4.321673e-05
1.540259e+01	-4.371741e-05
1.549156e+01	-4.422388e-05
1.558103e+01	-4.473623e-05
1.567103e+01	-4.525451e-05
1.576155e+01	-4.577879e-05
1.585258e+01	-4.630915e-05
1.594415e+01	-4.684565e-05
1.603624e+01	-4.738836e-05
1.612886e+01	-4.793737e-05
1.622202e+01	-4.849273e-05
1.631572e+01	-4.905453e-05
1.640996e+01	-4.962284e-05
1.650474e+01	-5.019773e-05
1.660008e+01	-5.077928e-05
1.669596e+01	-5.136757e-05
1.679239e+01	-5.196268e-05
1.688938e+01	-5.256467e-05
1.698694e+01	-5.317365e-05
1.708505e+01	-5.378967e-05
1.718373e+01	-5.441284e-05
1.728299e+01	-5.504322e-05
1.738281e+01	-5.568091e-05
1.748322e+01	-5.632598e-05
1.758420e+01	-5.697853e-05
1.768576e+01	-5.763864e-05
1.778792e+01	-5.830640e-05
1.789066e+01	-5.898189e-05
1.799399e+01	-5.966520e-05
1.809793e+01	-6.035644e-05
1.820246e+01	-6.105568e-05
1.830760e+01	-6.176302e-05
1.841334e+01	-6.247856e-05
1.851969e+01	-6.320238e-05
1.862666e+01	-6.393460e-05
1.873425e+01	-6.467529e-05
1.884246e+01	-6.542457e-05
1.895129e+01	-6.618252e-05
1.906075e+01	-6.694926e-05
1.917085e+01	-6.772488e-05
1.928158e+01	-6.850948e-05
1.939295e+01	-6.930318e-05
1.950496e+01	-7.010607e-05
1.961762e+01	-7.091826e-05
1.973093e+01	-7.173986e-05
1.984490e+01	-7.257098e-05
1.995952e+01	-7.341173e-05
2.007480e+01	-7.426222e-05
2.019076e+01	-7.512256e-05
2.030738e+01	-7.599287e-05
2.042467e+01	-7.687326e-05
2.054264e+01	-7.776385e-05
2.066130e+01	-7.866476e-05
2.078064e+01	-7.957610e-05
2.090066e+01	-8.049800e-05
2.102139e+01	-8.143059e-05
2.114280e+01	-8.237398e-05
2.126492e+01	-8.332829e-05
2.138775e+01	-8.429366e-05
2.151128e+01	-8.527022e-05
2.163553e+01	-8.625809e-05
2.176050e+01	-8.725740e-05
2.188619e+01	-8.826829e-05
2.201260e+01	-8.929090e-05
2.213974e+01	-9.032535e-05
2.226762e+01	-9.137178e-05
2.239624e+01	-9.243034e-05
2.252560e+01	-9.350116e-05
2.265571e+01	-9.458438e-05
2.278656e+01	-9.568016e-05
2.291818e+01	-9.678862e-05
2.305055e+01	-9.790993e-05
2.318369e+01	-9.904424e-05
2.331760e+01	-1.001917e-04
2.345228e+01	-1.013524e-04
2.358774e+01	-1.025266e-04
2.372398e+01	-1.037144e-04
2.386101e+01	-1.049159e-04
2.399883e+01	-1.061314e-04
2.413745e+01	-1.073609e-04
2.427686e+01	-1.086047e-04
2.441709e+01	-1.098629e-04
2.455812e+01	-1.111357e-04
2.469997e+01	-1.124232e-04
2.484263e+01	-1.137257e-04
2.498612e+01	-1.150432e-04
2.513044e+01	-1.163760e-04
2.527559e+01	-1.177242e-04
2.542158e+01	-1.190881e-04
2.556842e+01	-1.204677e-04
2.571610e+01	-1.218633e-04
2.586463e+01	-1.232751e-04
2.601403e+01	-1.247033e-04
2.616428e+01	-1.261480e-04
2.631541e+01	-1.276094e-04
2.646740e+01	-1.290878e-04
2.662028e+01	-1.305833e-04
2.677404e+01	-1.320961e-04
2.692868e+01	-1.336265e-04
2.708422e+01	-1.351745e-04
2.724066e+01	-1.367406e-04
2.739800e+01	-1.383247e-04
2.755625e+01	-1.399272e-04
2.771541e+01	-1.415483e-04
2.787550e+01	-1.431881e-04
2.803650e+01	-1.448470e-04
2.819844e+01	-1.465250e-04
2.836131e+01	-1.482225e-04
2.852513e+01	-1.499397e-04
2.868989e+01	-1.516768e-04
2.885560e+01	-1.534340e-04
2.902227e+01	-1.552115e-04
2.918990e+01	-1.570096e-04
2.935850e+01	-1.588286e-04
2.952807e+01	-1.606687e-04
2.969863e+01	-1.625300e-04
2.987016e+01	-1.644129e-04
3.004269e+01	-1.663177e-04
3.021622e+01	-1.682445e-04
3.039075e+01	-1.701936e-04
3.056628e+01	-1.721653e-04
3.074283e+01	-1.741598e-04
3.092040e+01	-1.761775e-04
3.109900e+01	-1.782185e-04
3.127862e+01	-1.802832e-04
3.145929e+01	-1.823718e-04
3.164099e+01	-1.844845e-04
3.182375e+01	-1.866218e-04
3.200756e+01	-1.887838e-04
3.219244e+01	-1.909709e-04
3.237838e+01	-1.931833e-04
3.256540e+01	-1.954213e-04
3.275349e+01	-1.976853e-04
3.294268e+01	-1.999755e-04
3.313295e+01	-2.022922e-04
3.332433e+01	-2.046357e-04
3.351681e+01	-2.070064e-04
3.371040e+01	-2.094046e-04
3.390511e+01	-2.118306e-04
3.410094e+01	-2.142846e-04
3.429791e+01	-2.167671e-04
3.449601e+01	-2.192783e-04
3.469526e+01	-2.218187e-04
3.489566e+01	-2.243884e-04
3.509721e+01	-2.269880e-04
3.529993e+01	-2.296176e-04
3.550382e+01	-2.322777e-04
3.570889e+01	-2.349687e-04
3.591515e+01	-2.376908e-04
3.612259e+01	-2.404444e-04
3.633123e+01	-2.432300e-04
3.654108e+01	-2.460478e-04
3.675214e+01	-2.488982e-04
3.696442e+01	-2.517817e-04
3.717792e+01	-2.546986e-04
3.739266e+01	-2.576492e-04
3.760864e+01	-2.606341e-04
3.782587e+01	-2.636535e-04
3.804435e+01	-2.667079e-04
3.826409e+01	-2.697977e-04
3.848510e+01	-2.729233e-04
3.870739e+01	-2.760851e-04
3.893096e+01	-2.792835e-04
3.915583e+01	-2.825190e-04
3.938199e+01	-2.857919e-04
3.960946e+01	-2.891028e-04
3.983824e+01	-2.924520e-04
4.006834e+01	-2.958400e-04
4.029978e+01	-2.992673e-04
4.053255e+01	-3.027343e-04
4.076666e+01	-3.062414e-04
4.100213e+01	-3.097892e-04
4.123896e+01	-3.133780e-04
4.147715e+01	-3.170085e-04
4.171672e+01	-3.206810e-04
4.195767e+01	-3.243960e-04
4.220002e+01	-3.281541e-04
4.244377e+01	-3.319557e-04
4.268892e+01	-3.358013e-04
4.293549e+01	-3.396915e-04
4.318348e+01	-3.436268e-04
4.343291e+01	-3.476077e-04
4.368377e+01	-3.516346e-04
4.393609e+01	-3.557083e-04
4.418986e+01	-3.598291e-04
4.444510e+01	-3.639976e-04
4.470182e+01	-3.682144e-04
4.496001e+01	-3.724801e-04
4.521970e+01	-3.767952e-04
4.548089e+01	-3.811603e-04
4.574358e+01	-3.855760e-04
4.600779e+01	-3.900428e-04
4.627353e+01	-3.945613e-04
4.654081e+01	-3.991322e-04
4.680963e+01	-4.037560e-04
4.708000e+01	-4.084335e-04
4.735193e+01	-4.131650e-04
4.762543e+01	-4.179514e-04
4.790051e+01	-4.227933e-04
4.817719e+01	-4.276912e-04
4.845545e+01	-4.326459e-04
4.873533e+01	-4.376580e-04
4.901682e+01	-4.427281e-04
4.929994e+01	-4.478570e-04
4.958470e+01	-4.530452e-04
4.987110e+01	-4.582936e-04
5.015915e+01	-4.636028e-04
5.044887e+01	-4.689735e-04
5.074026e+01	-4.744064e-04
5.103333e+01	-4.799022e-04
5.132810e+01	-4.854617e-04
5.162457e+01	-4.910856e-04
5.192275e+01	-4.967746e-04
5.222265e+01	-5.025295e-04
5.252429e+01	-5.083511e-04
5.282767e+01	-5.142402e-04
5.313280e+01	-5.201974e-04
5.343969e+01	-5.262237e-04
5.374836e+01	-5.323198e-04
5.405880e+01	-5.384865e-04
5.437105e+01	-5.447246e-04
5.468509e+01	-5.510350e-04
5.500095e+01	-5.574185e-04
5.531863e+01	-5.638759e-04
5.563815e+01	-5.704081e-04
5.595951e+01	-5.770160e-04
5.628273e+01	-5.837005e-04
5.660782e+01	-5.904623e-04
5.693479e+01	-5.973025e-04
5.726364e+01	-6.042220e-04
5.759439e+01	-6.112216e-04
5.792705e+01	-6.183022e-04
5.826164e+01	-6.254649e-04
5.859815e+01	-6.327106e-04
5.893662e+01	-6.400401e-04
5.927703e+01	-6.474546e-04
5.961941e+01	-6.549550e-04
5.996377e+01	-6.625423e-04
6.031012e+01	-6.702174e-04
6.065847e+01	-6.779815e-04
6.100883e+01	-6.858354e-04
6.136121e+01	-6.937804e-04
6.171563e+01	-7.018174e-04
6.207210e+01	-7.099475e-04
6.243063e+01	-7.181717e-04
6.279122e+01	-7.264912e-04
6.315390e+01	-7.349071e-04
6.351868e+01	-7.434205e-04
6.388556e+01	-7.520325e-04
6.425456e+01	-7.607442e-04
6.462569e+01	-7.695569e-04
6.499897e+01	-7.784716e-04
6.537440e+01	-7.874896e-04
6.575200e+01	-7.966120e-04
6.613178e+01	-8.058402e-04
6.651375e+01	-8.151752e-04
6.689793e+01	-8.246183e-04
6.728433e+01	-8.341708e-04
6.767297e+01	-8.438340e-04
6.806384e+01	-8.536091e-04
6.845698e+01	-8.634974e-04
6.885238e+01	-8.735002e-04
6.925007e+01	-8.836189e-04
6.965005e+01	-8.938548e-04
7.005235e+01	-9.042093e-04
7.045697e+01	-9.146837e-04
7.086393e+01	-9.252795e-04
7.127323e+01	-9.359979e-04
7.168490e+01	-9.468405e-04
7.209895e+01	-9.578087e-04
7.251539e+01	-9.689040e-04
7.293424e+01	-9.801277e-04
7.335551e+01	-9.914815e-04
7.377920e+01	-1.002967e-03
7.420535e+01	-1.014585e-03
7.463396e+01	-1.026338e-03
7.506504e+01	-1.038227e-03
7.549861e+01	-1.050254e-03
7.593469e+01	-1.062420e-03
7.637328e+01	-1.074726e-03
7.681441e+01	-1.087176e-03
7.725809e+01	-1.099769e-03
7.770433e+01	-1.112509e-03
7.815315e+01	-1.125396e-03
7.860456e+01	-1.138432e-03
7.905857e+01	-1.151620e-03
7.951521e+01	-1.164960e-03
7.997449e+01	-1.178454e-03
8.043642e+01	-1.192105e-03
8.090102e+01	-1.205914e-03
8.136830e+01	-1.219883e-03
8.183828e+01	-1.234014e-03
8.231097e+01	-1.248308e-03
8.278640e+01	-1.262768e-03
8.326457e+01	-1.277395e-03
8.374550e+01	-1.292192e-03
8.422921e+01	-1.307160e-03
8.471572e+01	-1.322302e-03
8.520503e+01	-1.337618e-03
8.569717e+01	-1.353113e-03
8.619215e+01	-1.368786e-03
8.669000e+01	-1.384642e-03
8.719071e+01	-1.400680e-03
8.769432e+01	-1.416905e-03
8.820084e+01	-1.433318e-03
8.871029e+01	-1.449920e-03
8.922267e+01	-1.466715e-03
8.973802e+01	-1.483704e-03
9.025634e+01	-1.500891e-03
9.077766e+01	-1.518276e-03
9.130199e+01	-1.535862e-03
9.182935e+01	-1.553653e-03
9.235975e+01	-1.571649e-03
9.289321e+01	-1.589853e-03
9.342976e+01	-1.608269e-03
9.396941e+01	-1.626898e-03
9.451217e+01	-1.645742e-03
9.505807e+01	-1.664805e-03
9.560712e+01	-1.684088e-03
9.615934e+01	-1.703595e-03
9.671476e+01	-1.723328e-03
9.727338e+01	-1.743289e-03
9.783522e+01	-1.763481e-03
9.840032e+01	-1.783907e-03
9.896867e+01	-1.804570e-03
9.954031e+01	-1.825472e-03
1.001153e+02	-1.846616e-03
1.006935e+02	-1.868005e-03
1.012751e+02	-1.889642e-03
1.018601e+02	-1.911529e-03
1.024484e+02	-1.933670e-03
1.030402e+02	-1.956067e-03
1.036353e+02	-1.978723e-03
1.042339e+02	-2.001642e-03
1.048360e+02	-2.024826e-03
1.054415e+02	-2.048279e-03
1.060505e+02	-2.072003e-03
1.066631e+02	-2.096002e-03
1.072791e+02	-2.120279e-03
1.078988e+02	-2.144837e-03
1.085220e+02	-2.169679e-03
1.091488e+02	-2.194809e-03
1.097793e+02	-2.220230e-03
1.104133e+02	-2.245945e-03
1.110511e+02	-2.271958e-03
1.116925e+02	-2.298272e-03
1.123376e+02	-2.324891e-03
1.129865e+02	-2.351819e-03
1.136391e+02	-2.379058e-03
1.142955e+02	-2.406612e-03
1.149556e+02	-2.434485e-03
1.156196e+02	-2.462681e-03
1.162874e+02	-2.491204e-03
1.169591e+02	-2.520057e-03
1.176347e+02	-2.549244e-03
1.183141e+02	-2.578769e-03
1.189975e+02	-2.608636e-03
1.196848e+02	-2.638848e-03
1.203761e+02	-2.669410e-03
1.210714e+02	-2.700327e-03
1.217707e+02	-2.731601e-03
1.224740e+02	-2.763237e-03
1.231814e+02	-2.795240e-03
1.238929e+02	-2.827613e-03
1.246085e+02	-2.860360e-03
1.253283e+02	-2.893487e-03
1.260522e+02	-2.926998e-03
1.267802e+02	-2.960896e-03
1.275125e+02	-2.995187e-03
1.282490e+02	-3.029875e-03
1.289898e+02	-3.064965e-03
1.297348e+02	-3.100461e-03
1.304842e+02	-3.136367e-03
1.312378e+02	-3.172690e-03
1.319959e+02	-3.209432e-03
1.327583e+02	-3.246601e-03
1.335251e+02	-3.284199e-03
1.342963e+02	-3.322233e-03
1.350720e+02	-3.360707e-03
1.358522e+02	-3.399626e-03
1.366368e+02	-3.438996e-03
1.374260e+02	-3.478822e-03
1.382198e+02	-3.519109e-03
1.390182e+02	-3.559862e-03
1.398211e+02	-3.601087e-03
1.406287e+02	-3.642789e-03
1.414410e+02	-3.684973e-03
1.422579e+02	-3.727646e-03
1.430796e+02	-3.770813e-03
1.439060e+02	-3.814480e-03
1.447372e+02	-3.858652e-03
1.455732e+02	-3.903335e-03
1.464141e+02	-3.948536e-03
1.472597e+02	-3.994260e-03
1.481103e+02	-4.040513e-03
1.489658e+02	-4.087301e-03
1.498262e+02	-4.134631e-03
1.506916e+02	-4.182509e-03
1.515620e+02	-4.230940e-03
1.524374e+02	-4.279933e-03
1.533179e+02	-4.329492e-03
1.542034e+02	-4.379625e-03
1.550941e+02	-4.430338e-03
1.559899e+02	-4.481638e-03
1.568909e+02	-4.533532e-03
1.577971e+02	-4.586027e-03
1.587085e+02	-4.639129e-03
1.596252e+02	-4.692845e-03
1.605472e+02	-4.747183e-03
1.614745e+02	-4.802150e-03
1.624072e+02	-4.857753e-03
1.633453e+02	-4.913999e-03
1.642887e+02	-4.970897e-03
1.652377e+02	-5.028452e-03
1.661921e+02	-5.086674e-03
1.671520e+02	-5.145570e-03
1.681175e+02	-5.205147e-03
1.690885e+02	-5.265413e-03
1.700651e+02	-5.326377e-03
1.710474e+02	-5.388046e-03
1.720354e+02	-5.450428e-03
1.730291e+02	-5.513533e-03
1.740285e+02	-5.577367e-03
1.750337e+02	-5.641941e-03
1.760446e+02	-5.707261e-03
1.770615e+02	-5.773337e-03
1.780842e+02	-5.840178e-03
1.791128e+02	-5.907791e-03
1.801473e+02	-5.976187e-03
1.811878e+02	-6.045375e-03
1.822344e+02	-6.115363e-03
1.832870e+02	-6.186160e-03
1.843456e+02	-6.257777e-03
1.854104e+02	-6.330222e-03
1.864813e+02	-6.403505e-03
1.875584e+02	-6.477636e-03
1.886418e+02	-6.552624e-03
1.897313e+02	-6.628480e-03
1.908272e+02	-6.705213e-03
1.919294e+02	-6.782834e-03
1.930380e+02	-6.861352e-03
1.941530e+02	-6.940779e-03
1.952744e+02	-7.021125e-03
1.964023e+02	-7.102400e-03
1.975367e+02	-7.184615e-03
1.986777e+02	-7.267780e-03
1.998252e+02	-7.351908e-03
2.009794e+02	-7.437009e-03
2.021403e+02	-7.523094e-03
2.033078e+02	-7.610174e-03
2.044821e+02	-7.698262e-03
2.056632e+02	-7.787368e-03
2.068511e+02	-7.877504e-03
2.080459e+02	-7.968683e-03
2.092475e+02	-8.060917e-03
2.104561e+02	-8.154217e-03
2.116717e+02	-8.248595e-03
2.128943e+02	-8.344065e-03
2.141240e+02	-8.440639e-03
2.153608e+02	-8.538330e-03
2.166047e+02	-8.637150e-03
2.178558e+02	-8.737113e-03
2.191141e+02	-8.838231e-03
2.203797e+02	-8.940519e-03
2.216526e+02	-9.043989e-03
2.229329e+02	-9.148655e-03
2.242205e+02	-9.254531e-03
2.255156e+02	-9.361632e-03
2.268182e+02	-9.469970e-03
2.281283e+02	-9.579561e-03
2.294459e+02	-9.690418e-03
2.307712e+02	-9.802557e-03
2.321041e+02	-9.915992e-03
2.334447e+02	-1.003074e-02
2.347931e+02	-1.014681e-02
2.361493e+02	-1.026423e-02
2.375133e+02	-1.038300e-02
2.388851e+02	-1.050314e-02
2.402649e+02	-1.062467e-02
2.416527e+02	-1.074761e-02
2.430484e+02	-1.087197e-02
2.444523e+02	-1.099776e-02
2.458642e+02	-1.112501e-02
2.472843e+02	-1.125373e-02
2.487126e+02	-1.138393e-02
2.501492e+02	-1.151564e-02
2.515940e+02	-1.164888e-02
2.530472e+02	-1.178365e-02
2.545088e+02	-1.191998e-02
2.559789e+02	-1.205788e-02
2.574574e+02	-1.219738e-02
2.589444e+02	-1.233849e-02
2.604401e+02	-1.248122e-02
2.619444e+02	-1.262561e-02
2.634574e+02	-1.277167e-02
2.649791e+02	-1.291941e-02
2.665096e+02	-1.306886e-02
2.680489e+02	-1.322003e-02
2.695972e+02	-1.337295e-02
2.711544e+02	-1.352764e-02
2.727205e+02	-1.368412e-02
2.742958e+02	-1.384240e-02
2.758801e+02	-1.400250e-02
2.774736e+02	-1.416446e-02
2.790762e+02	-1.432829e-02
2.806882e+02	-1.449401e-02
2.823094e+02	-1.466164e-02
2.839400e+02	-1.483121e-02
2.855800e+02	-1.500273e-02
2.872295e+02	-1.517624e-02
2.888886e+02	-1.535175e-02
2.905572e+02	-1.552928e-02
2.922354e+02	-1.570887e-02
2.939234e+02	-1.589053e-02
2.956211e+02	-1.607428e-02
2.973286e+02	-1.626016e-02
2.990459e+02	-1.644818e-02
3.007732e+02	-1.663837e-02
3.025104e+02	-1.683075e-02
3.042577e+02	-1.702536e-02
3.060151e+02	-1.722221e-02
3.077826e+02	-1.742133e-02
3.095604e+02	-1.762275e-02
3.113484e+02	-1.782649e-02
3.131467e+02	-1.803259e-02
3.149554e+02	-1.824106e-02
3.167746e+02	-1.845194e-02
3.186043e+02	-1.866525e-02
3.204445e+02	-1.888102e-02
3.222954e+02	-1.909928e-02
3.241570e+02	-1.932005e-02
3.260293e+02	-1.954338e-02
3.279124e+02	-1.976927e-02
3.298064e+02	-1.999778e-02
3.317114e+02	-2.022892e-02
3.336273e+02	-2.046272e-02
3.355544e+02	-2.069922e-02
3.374925e+02	-2.093844e-02
3.394418e+02	-2.118043e-02
3.414024e+02	-2.142520e-02
3.433744e+02	-2.167280e-02
3.453577e+02	-2.192325e-02
3.473525e+02	-2.217658e-02
3.493588e+02	-2.243284e-02
3.513766e+02	-2.269205e-02
3.534062e+02	-2.295424e-02
3.554474e+02	-2.321946e-02
3.575005e+02	-2.348774e-02
3.595654e+02	-2.375910e-02
3.616422e+02	-2.403359e-02
3.637311e+02	-2.431125e-02
3.658320e+02	-2.459210e-02
3.679450e+02	-2.487619e-02
3.700702e+02	-2.516355e-02
3.722077e+02	-2.545422e-02
3.743576e+02	-2.574823e-02
3.765199e+02	-2.604564e-02
3.786946e+02	-2.634647e-02
3.808820e+02	-2.665076e-02
3.830819e+02	-2.695855e-02
3.852946e+02	-2.726989e-02
3.875200e+02	-2.758481e-02
3.897583e+02	-2.790336e-02
3.920096e+02	-2.822558e-02
3.942738e+02	-2.855150e-02
3.965511e+02	-2.888117e-02
3.988416e+02	-2.921464e-02
4.011452e+02	-2.955195e-02
4.034622e+02	-2.989313e-02
4.057926e+02	-3.023824e-02
4.081365e+02	-3.058732e-02
4.104938e+02	-3.094042e-02
4.128648e+02	-3.129758e-02
4.152495e+02	-3.165884e-02
4.176480e+02	-3.202426e-02
4.200603e+02	-3.239389e-02
4.224866e+02	-3.276776e-02
4.249268e+02	-3.314593e-02
4.273812e+02	-3.352845e-02
4.298497e+02	-3.391536e-02
4.323325e+02	-3.430673e-02
4.348297e+02	-3.470259e-02
4.373412e+02	-3.510300e-02
4.398673e+02	-3.550801e-02
4.424079e+02	-3.591768e-02
4.449633e+02	-3.633205e-02
4.475334e+02	-3.675118e-02
4.501183e+02	-3.717512e-02
4.527182e+02	-3.760394e-02
4.553330e+02	-3.803768e-02
4.579630e+02	-3.847640e-02
4.606082e+02	-3.892016e-02
4.632687e+02	-3.936901e-02
4.659445e+02	-3.982302e-02
4.686358e+02	-4.028223e-02
4.713426e+02	-4.074672e-02
4.740650e+02	-4.121654e-02
4.768032e+02	-4.169174e-02
4.795572e+02	-4.217241e-02
4.823271e+02	-4.265858e-02
4.851130e+02	-4.315033e-02
4.879150e+02	-4.364772e-02
4.907332e+02	-4.415082e-02
4.935676e+02	-4.465968e-02
4.964185e+02	-4.517438e-02
4.992858e+02	-4.569498e-02
5.021696e+02	-4.622155e-02
5.050701e+02	-4.675415e-02
5.079874e+02	-4.729286e-02
5.109215e+02	-4.783774e-02
5.138726e+02	-4.838886e-02
5.168407e+02	-4.894629e-02
5.198259e+02	-4.951011e-02
5.228284e+02	-5.008039e-02
5.258482e+02	-5.065720e-02
5.288855e+02	-5.124061e-02
5.319403e+02	-5.183070e-02
5.350128e+02	-5.242754e-02
5.381030e+02	-5.303122e-02
5.412111e+02	-5.364180e-02
5.443371e+02	-5.425937e-02
5.474812e+02	-5.488400e-02
5.506434e+02	-5.551578e-02
5.538239e+02	-5.615478e-02
5.570228e+02	-5.680109e-02
5.602401e+02	-5.745479e-02
5.634760e+02	-5.811597e-02
5.667306e+02	-5.878469e-02
5.700040e+02	-5.946107e-02
5.732964e+02	-6.014517e-02
5.766077e+02	-6.083708e-02
5.799382e+02	-6.153690e-02
5.832879e+02	-6.224471e-02
5.866569e+02	-6.296060e-02
5.900454e+02	-6.368467e-02
5.934535e+02	-6.441700e-02
5.968813e+02	-6.515769e-02
6.003288e+02	-6.590683e-02
6.037963e+02	-6.666452e-02
6.072838e+02	-6.743085e-02
6.107914e+02	-6.820592e-02
6.143194e+02	-6.898983e-02
6.178676e+02	-6.978267e-02
6.214364e+02	-7.058456e-02
6.250258e+02	-7.139558e-02
6.286359e+02	-7.221584e-02
6.322669e+02	-7.304545e-02
6.359189e+02	-7.388450e-02
6.395919e+02	-7.473311e-02
6.432862e+02	-7.559139e-02
6.470017e+02	-7.645943e-02
6.507388e+02	-7.733735e-02
6.544974e+02	-7.822526e-02
6.582778e+02	-7.912327e-02
6.620800e+02	-8.003150e-02
6.659041e+02	-8.095005e-02
6.697504e+02	-8.187905e-02
6.736188e+02	-8.281861e-02
6.775096e+02	-8.376884e-02
6.814229e+02	-8.472987e-02
6.853587e+02	-8.570182e-02
6.893173e+02	-8.668480e-02
6.932988e+02	-8.767894e-02
6.973033e+02	-8.868437e-02
7.013309e+02	-8.970121e-02
