Frequency(Hz)	Magnitude(dB)
1.000000e+01	-2.010485e+00
1.005776e+01	-2.028786e+00
1.011585e+01	-2.047834e+00
1.017428e+01	-2.066687e+00
1.023305e+01	-2.085697e+00
1.029215e+01	-2.104566e+00
1.035160e+01	-2.124185e+00
1.041139e+01	-2.143424e+00
1.047153e+01	-2.163136e+00
1.053201e+01	-2.182673e+00
1.059284e+01	-2.202534e+00
1.065403e+01	-2.222602e+00
1.071556e+01	-2.242552e+00
1.077746e+01	-2.262845e+00
1.083971e+01	-2.283304e+00
1.090232e+01	-2.303860e+00
1.096529e+01	-2.324415e+00
1.102862e+01	-2.345259e+00
1.109232e+01	-2.366108e+00
1.115639e+01	-2.387200e+00
1.122083e+01	-2.408530e+00
1.128564e+01	-2.429836e+00
1.135083e+01	-2.451292e+00
1.141639e+01	-2.473148e+00
1.148233e+01	-2.494670e+00
1.154865e+01	-2.516768e+00
1.161536e+01	-2.538717e+00
1.168245e+01	-2.561050e+00
1.174992e+01	-2.583510e+00
1.181779e+01	-2.606139e+00
1.188605e+01	-2.628454e+00
1.195470e+01	-2.651324e+00
1.202375e+01	-2.674231e+00
1.209320e+01	-2.697176e+00
1.216305e+01	-2.720264e+00
1.223330e+01	-2.743780e+00
1.230396e+01	-2.767142e+00
1.237503e+01	-2.790893e+00
1.244651e+01	-2.814883e+00
1.251840e+01	-2.838593e+00
1.259070e+01	-2.862787e+00
1.266343e+01	-2.886981e+00
1.273657e+01	-2.911270e+00
1.281014e+01	-2.935938e+00
1.288413e+01	-2.960549e+00
1.295855e+01	-2.985355e+00
1.303339e+01	-3.010172e+00
1.310867e+01	-3.035355e+00
1.318439e+01	-3.060465e+00
1.326054e+01	-3.085820e+00
1.333713e+01	-3.111458e+00
1.341417e+01	-3.137098e+00
1.349165e+01	-3.163064e+00
1.356958e+01	-3.188856e+00
1.364795e+01	-3.214962e+00
1.372678e+01	-3.241238e+00
1.380607e+01	-3.267677e+00
1.388581e+01	-3.294230e+00
1.396602e+01	-3.320697e+00
1.404668e+01	-3.347552e+00
1.412782e+01	-3.374452e+00
1.420942e+01	-3.401768e+00
1.429149e+01	-3.428754e+00
1.437404e+01	-3.456154e+00
1.445706e+01	-3.483760e+00
1.454057e+01	-3.511485e+00
1.462455e+01	-3.539299e+00
1.470902e+01	-3.567354e+00
1.479398e+01	-3.595287e+00
1.487943e+01	-3.623457e+00
1.496537e+01	-3.652123e+00
1.505181e+01	-3.680411e+00
1.513875e+01	-3.709068e+00
1.522619e+01	-3.737790e+00
1.531414e+01	-3.766748e+00
1.540259e+01	-3.796214e+00
1.549156e+01	-3.824969e+00
1.558103e+01	-3.854286e+00
1.567103e+01	-3.884016e+00
1.576155e+01	-3.913693e+00
1.585258e+01	-3.943551e+00
1.594415e+01	-3.973371e+00
1.603624e+01	-4.003300e+00
1.612886e+01	-4.033694e+00
1.622202e+01	-4.063824e+00
1.631572e+01	-4.094527e+00
1.640996e+01	-4.125089e+00
1.650474e+01	-4.155898e+00
1.660008e+01	-4.186578e+00
1.669596e+01	-4.217681e+00
1.679239e+01	-4.248787e+00
1.688938e+01	-4.280202e+00
1.698694e+01	-4.311490e+00
1.708505e+01	-4.342879e+00
1.718373e+01	-4.374480e+00
1.728299e+01	-4.406463e+00
1.738281e+01	-4.438512e+00
1.748322e+01	-4.470508e+00
1.758420e+01	-4.503191e+00
1.768576e+01	-4.535263e+00
1.778792e+01	-4.567879e+00
1.789066e+01	-4.600249e+00
1.799399e+01	-4.633243e+00
1.809793e+01	-4.665944e+00
1.820246e+01	-4.698780e+00
1.830760e+01	-4.731734e+00
1.841334e+01	-4.765119e+00
1.851969e+01	-4.798725e+00
1.862666e+01	-4.832328e+00
1.873425e+01	-4.865984e+00
1.884246e+01	-4.899739e+00
1.895129e+01	-4.933481e+00
1.906075e+01	-4.967399e+00
1.917085e+01	-5.001487e+00
1.928158e+01	-5.036232e+00
1.939295e+01	-5.070389e+00
1.950496e+01	-5.105061e+00
1.961762e+01	-5.139745e+00
1.973093e+01	-5.174366e+00
1.984490e+01	-5.209037e+00
1.995952e+01	-5.244208e+00
2.007480e+01	-5.279151e+00
2.019076e+01	-5.314710e+00
2.030738e+01	-5.349808e+00
2.042467e+01	-5.385341e+00
2.054264e+01	-5.421277e+00
2.066130e+01	-5.456700e+00
2.078064e+01	-5.492914e+00
2.090066e+01	-5.528589e+00
2.102139e+01	-5.564584e+00
2.114280e+01	-5.600715e+00
2.126492e+01	-5.637056e+00
2.138775e+01	-5.673683e+00
2.151128e+01	-5.709862e+00
2.163553e+01	-5.746578e+00
2.176050e+01	-5.783544e+00
2.188619e+01	-5.820294e+00
2.201260e+01	-5.857435e+00
2.213974e+01	-5.894484e+00
2.226762e+01	-5.931765e+00
2.239624e+01	-5.968895e+00
2.252560e+01	-6.006389e+00
2.265571e+01	-6.044111e+00
2.278656e+01	-6.081558e+00
2.291818e+01	-6.119223e+00
2.305055e+01	-6.157055e+00
2.318369e+01	-6.195276e+00
2.331760e+01	-6.233158e+00
2.345228e+01	-6.271456e+00
2.358774e+01	-6.310060e+00
2.372398e+01	-6.347831e+00
2.386101e+01	-6.386455e+00
2.399883e+01	-6.424939e+00
2.413745e+01	-6.463820e+00
2.427686e+01	-6.502617e+00
2.441709e+01	-6.541452e+00
2.455812e+01	-6.580601e+00
2.469997e+01	-6.619953e+00
2.484263e+01	-6.658716e+00
2.498612e+01	-6.697938e+00
2.513044e+01	-6.737266e+00
2.527559e+01	-6.777012e+00
2.542158e+01	-6.816108e+00
2.556842e+01	-6.856127e+00
2.571610e+01	-6.895799e+00
2.586463e+01	-6.935787e+00
2.601403e+01	-6.975772e+00
2.616428e+01	-7.015590e+00
2.631541e+01	-7.055801e+00
2.646740e+01	-7.096104e+00
2.662028e+01	-7.136399e+00
2.677404e+01	-7.176721e+00
2.692868e+01	-7.217282e+00
2.708422e+01	-7.257530e+00
2.724066e+01	-7.298583e+00
2.739800e+01	-7.339251e+00
2.755625e+01	-7.380196e+00
2.771541e+01	-7.420608e+00
2.787550e+01	-7.462306e+00
2.803650e+01	-7.503559e+00
2.819844e+01	-7.544120e+00
2.836131e+01	-7.585884e+00
2.852513e+01	-7.626715e+00
2.868989e+01	-7.668599e+00
2.885560e+01	-7.709559e+00
2.902227e+01	-7.751379e+00
2.918990e+01	-7.792628e+00
2.935850e+01	-7.834868e+00
2.952807e+01	-7.876661e+00
2.969863e+01	-7.918601e+00
2.987016e+01	-7.960749e+00
3.004269e+01	-8.002572e+00
3.021622e+01	-8.044923e+00
3.039075e+01	-8.086968e+00
3.056628e+01	-8.129086e+00
3.074283e+01	-8.171630e+00
3.092040e+01	-8.214105e+00
3.109900e+01	-8.256391e+00
3.127862e+01	-8.299393e+00
3.145929e+01	-8.341724e+00
3.164099e+01	-8.384572e+00
3.182375e+01	-8.427365e+00
3.200756e+01	-8.469919e+00
3.219244e+01	-8.513287e+00
3.237838e+01	-8.555903e+00
3.256540e+01	-8.599490e+00
3.275349e+01	-8.642306e+00
3.294268e+01	-8.685526e+00
3.313295e+01	-8.728809e+00
3.332433e+01	-8.772126e+00
3.351681e+01	-8.815774e+00
3.371040e+01	-8.859163e+00
3.390511e+01	-8.902675e+00
3.410094e+01	-8.946175e+00
3.429791e+01	-8.989983e+00
3.449601e+01	-9.033614e+00
3.469526e+01	-9.077131e+00
3.489566e+01	-9.121248e+00
3.509721e+01	-9.165396e+00
3.529993e+01	-9.209155e+00
3.550382e+01	-9.253521e+00
3.570889e+01	-9.297176e+00
3.591515e+01	-9.341863e+00
3.612259e+01	-9.386108e+00
3.633123e+01	-9.430242e+00
3.654108e+01	-9.474510e+00
3.675214e+01	-9.518942e+00
3.696442e+01	-9.563721e+00
3.717792e+01	-9.608386e+00
3.739266e+01	-9.653024e+00
3.760864e+01	-9.697226e+00
3.782587e+01	-9.741837e+00
3.804435e+01	-9.786500e+00
3.826409e+01	-9.831578e+00
3.848510e+01	-9.876210e+00
3.870739e+01	-9.920695e+00
3.893096e+01	-9.965988e+00
3.915583e+01	-1.001121e+01
3.938199e+01	-1.005613e+01
3.960946e+01	-1.010111e+01
3.983824e+01	-1.014594e+01
4.006834e+01	-1.019173e+01
4.029978e+01	-1.023711e+01
4.053255e+01	-1.028250e+01
4.076666e+01	-1.032755e+01
4.100213e+01	-1.037353e+01
4.123896e+01	-1.041841e+01
4.147715e+01	-1.046438e+01
4.171672e+01	-1.050935e+01
4.195767e+01	-1.055576e+01
4.220002e+01	-1.060077e+01
4.244377e+01	-1.064663e+01
4.268892e+01	-1.069244e+01
4.293549e+01	-1.073859e+01
4.318348e+01	-1.078377e+01
4.343291e+01	-1.083007e+01
4.368377e+01	-1.087578e+01
4.393609e+01	-1.092128e+01
4.418986e+01	-1.096700e+01
4.444510e+01	-1.101335e+01
4.470182e+01	-1.106024e+01
4.496001e+01	-1.110555e+01
4.521970e+01	-1.115204e+01
4.548089e+01	-1.119790e+01
4.574358e+01	-1.124427e+01
4.600779e+01	-1.129047e+01
4.627353e+01	-1.133744e+01
4.654081e+01	-1.138349e+01
4.680963e+01	-1.143000e+01
4.708000e+01	-1.147636e+01
4.735193e+01	-1.152266e+01
4.762543e+01	-1.156911e+01
4.790051e+01	-1.161530e+01
4.817719e+01	-1.166254e+01
4.845545e+01	-1.170901e+01
4.873533e+01	-1.175579e+01
4.901682e+01	-1.180203e+01
4.929994e+01	-1.184904e+01
4.958470e+01	-1.189617e+01
4.987110e+01	-1.194289e+01
5.015915e+01	-1.199002e+01
5.044887e+01	-1.203710e+01
5.074026e+01	-1.208409e+01
5.103333e+01	-1.213042e+01
5.132810e+01	-1.217742e+01
5.162457e+01	-1.222454e+01
5.192275e+01	-1.227162e+01
5.222265e+01	-1.231883e+01
5.252429e+01	-1.236604e+01
5.282767e+01	-1.241299e+01
5.313280e+01	-1.246004e+01
5.343969e+01	-1.250668e+01
5.374836e+01	-1.255500e+01
5.405880e+01	-1.260168e+01
5.437105e+01	-1.264974e+01
5.468509e+01	-1.269625e+01
5.500095e+01	-1.274379e+01
5.531863e+01	-1.279172e+01
5.563815e+01	-1.283861e+01
5.595951e+01	-1.288619e+01
5.628273e+01	-1.293275e+01
5.660782e+01	-1.298052e+01
5.693479e+01	-1.302876e+01
5.726364e+01	-1.307597e+01
5.759439e+01	-1.312345e+01
5.792705e+01	-1.317178e+01
5.826164e+01	-1.321856e+01
5.859815e+01	-1.326646e+01
5.893662e+01	-1.331431e+01
5.927703e+01	-1.336137e+01
5.961941e+01	-1.340942e+01
5.996377e+01	-1.345769e+01
6.031012e+01	-1.350509e+01
6.065847e+01	-1.355275e+01
6.100883e+01	-1.360098e+01
6.136121e+01	-1.364912e+01
6.171563e+01	-1.369678e+01
6.207210e+01	-1.374394e+01
6.243063e+01	-1.379227e+01
6.279122e+01	-1.384042e+01
6.315390e+01	-1.388879e+01
6.351868e+01	-1.393530e+01
6.388556e+01	-1.398437e+01
6.425456e+01	-1.403252e+01
6.462569e+01	-1.407963e+01
6.499897e+01	-1.412822e+01
6.537440e+01	-1.417648e+01
6.575200e+01	-1.422545e+01
6.613178e+01	-1.427238e+01
6.651375e+01	-1.432155e+01
6.689793e+01	-1.436922e+01
6.728433e+01	-1.441842e+01
6.767297e+01	-1.446562e+01
6.806384e+01	-1.451416e+01
6.845698e+01	-1.456202e+01
6.885238e+01	-1.461042e+01
6.925007e+01	-1.465903e+01
6.965005e+01	-1.470713e+01
7.005235e+01	-1.475563e+01
7.045697e+01	-1.480426e+01
7.086393e+01	-1.485247e+01
7.127323e+01	-1.490095e+01
7.168490e+01	-1.494865e+01
7.209895e+01	-1.499749e+01
7.251539e+01	-1.504599e+01
7.293424e+01	-1.509433e+01
7.335551e+01	-1.514305e+01
7.377920e+01	-1.519205e+01
7.420535e+01	-1.523924e+01
7.463396e+01	-1.528797e+01
7.506504e+01	-1.533780e+01
7.549861e+01	-1.538614e+01
7.593469e+01	-1.543455e+01
7.637328e+01	-1.548298e+01
7.681441e+01	-1.553152e+01
7.725809e+01	-1.558082e+01
7.770433e+01	-1.562893e+01
7.815315e+01	-1.567780e+01
7.860456e+01	-1.572622e+01
7.905857e+01	-1.577513e+01
7.951521e+01	-1.582296e+01
7.997449e+01	-1.587166e+01
8.043642e+01	-1.592105e+01
8.090102e+01	-1.596923e+01
8.136830e+01	-1.601869e+01
8.183828e+01	-1.606770e+01
8.231097e+01	-1.611679e+01
8.278640e+01	-1.616433e+01
8.326457e+01	-1.621354e+01
8.374550e+01	-1.626273e+01
8.422921e+01	-1.631201e+01
8.471572e+01	-1.636046e+01
8.520503e+01	-1.640917e+01
8.569717e+01	-1.645832e+01
8.619215e+01	-1.650792e+01
8.669000e+01	-1.655496e+01
8.719071e+01	-1.660524e+01
8.769432e+01	-1.665301e+01
8.820084e+01	-1.670327e+01
8.871029e+01	-1.675284e+01
8.922267e+01	-1.680099e+01
8.973802e+01	-1.684940e+01
9.025634e+01	-1.689929e+01
9.077766e+01	-1.694716e+01
9.130199e+01	-1.699616e+01
9.182935e+01	-1.704508e+01
9.235975e+01	-1.709465e+01
9.289321e+01	-1.714310e+01
9.342976e+01	-1.719295e+01
9.396941e+01	-1.724196e+01
9.451217e+01	-1.729032e+01
9.505807e+01	-1.734050e+01
9.560712e+01	-1.738872e+01
9.615934e+01	-1.743841e+01
9.671476e+01	-1.748739e+01
9.727338e+01	-1.753719e+01
9.783522e+01	-1.758456e+01
9.840032e+01	-1.763474e+01
9.896867e+01	-1.768400e+01
9.954031e+01	-1.773354e+01
1.001153e+02	-1.778243e+01
1.006935e+02	-1.783142e+01
1.012751e+02	-1.788169e+01
1.018601e+02	-1.792981e+01
1.024484e+02	-1.798054e+01
1.030402e+02	-1.802840e+01
1.036353e+02	-1.807673e+01
1.042339e+02	-1.812699e+01
1.048360e+02	-1.817606e+01
1.054415e+02	-1.822582e+01
1.060505e+02	-1.827550e+01
1.066631e+02	-1.832560e+01
1.072791e+02	-1.837299e+01
1.078988e+02	-1.842236e+01
1.085220e+02	-1.847234e+01
1.091488e+02	-1.852062e+01
1.097793e+02	-1.857112e+01
1.104133e+02	-1.862020e+01
1.110511e+02	-1.866919e+01
1.116925e+02	-1.871823e+01
1.123376e+02	-1.876896e+01
1.129865e+02	-1.881816e+01
1.136391e+02	-1.886828e+01
1.142955e+02	-1.891732e+01
1.149556e+02	-1.896529e+01
1.156196e+02	-1.901533e+01
1.162874e+02	-1.906488e+01
1.169591e+02	-1.911494e+01
1.176347e+02	-1.916344e+01
1.183141e+02	-1.921354e+01
1.189975e+02	-1.926143e+01
1.196848e+02	-1.931296e+01
1.203761e+02	-1.936052e+01
1.210714e+02	-1.941053e+01
1.217707e+02	-1.946022e+01
1.224740e+02	-1.950971e+01
1.231814e+02	-1.955984e+01
1.238929e+02	-1.960859e+01
1.246085e+02	-1.965724e+01
1.253283e+02	-1.970926e+01
1.260522e+02	-1.975655e+01
1.267802e+02	-1.980622e+01
1.275125e+02	-1.985583e+01
1.282490e+02	-1.990617e+01
1.289898e+02	-1.995555e+01
1.297348e+02	-2.000383e+01
1.304842e+02	-2.005331e+01
1.312378e+02	-2.010299e+01
1.319959e+02	-2.015187e+01
1.327583e+02	-2.020265e+01
1.335251e+02	-2.025340e+01
1.342963e+02	-2.030195e+01
1.350720e+02	-2.035170e+01
1.358522e+02	-2.040106e+01
1.366368e+02	-2.045109e+01
1.374260e+02	-2.050140e+01
1.382198e+02	-2.055039e+01
1.390182e+02	-2.060045e+01
1.398211e+02	-2.064992e+01
1.406287e+02	-2.070031e+01
1.414410e+02	-2.074930e+01
1.422579e+02	-2.079973e+01
1.430796e+02	-2.084709e+01
1.439060e+02	-2.089554e+01
1.447372e+02	-2.094783e+01
1.455732e+02	-2.099522e+01
1.464141e+02	-2.104615e+01
1.472597e+02	-2.109556e+01
1.481103e+02	-2.114503e+01
1.489658e+02	-2.119467e+01
1.498262e+02	-2.124503e+01
1.506916e+02	-2.129537e+01
1.515620e+02	-2.134417e+01
1.524374e+02	-2.139341e+01
1.533179e+02	-2.144369e+01
1.542034e+02	-2.149310e+01
1.550941e+02	-2.154293e+01
1.559899e+02	-2.159188e+01
1.568909e+02	-2.164413e+01
1.577971e+02	-2.169050e+01
1.587085e+02	-2.174261e+01
1.596252e+02	-2.179168e+01
1.605472e+02	-2.184328e+01
1.614745e+02	-2.189305e+01
1.624072e+02	-2.194175e+01
1.633453e+02	-2.198933e+01
1.642887e+02	-2.203709e+01
1.652377e+02	-2.208881e+01
1.661921e+02	-2.213921e+01
1.671520e+02	-2.218888e+01
1.681175e+02	-2.223991e+01
1.690885e+02	-2.228776e+01
1.700651e+02	-2.233677e+01
1.710474e+02	-2.239062e+01
1.720354e+02	-2.243955e+01
1.730291e+02	-2.248631e+01
1.740285e+02	-2.253605e+01
1.750337e+02	-2.258629e+01
1.760446e+02	-2.263766e+01
1.770615e+02	-2.268919e+01
1.780842e+02	-2.273691e+01
1.791128e+02	-2.278671e+01
1.801473e+02	-2.283593e+01
1.811878e+02	-2.288657e+01
1.822344e+02	-2.293708e+01
1.832870e+02	-2.298563e+01
1.843456e+02	-2.303555e+01
1.854104e+02	-2.308628e+01
1.864813e+02	-2.313549e+01
1.875584e+02	-2.318329e+01
1.886418e+02	-2.323545e+01
1.897313e+02	-2.328520e+01
1.908272e+02	-2.333646e+01
1.919294e+02	-2.338539e+01
1.930380e+02	-2.343572e+01
1.941530e+02	-2.348538e+01
1.952744e+02	-2.353384e+01
1.964023e+02	-2.358235e+01
1.975367e+02	-2.363284e+01
1.986777e+02	-2.368229e+01
1.998252e+02	-2.373463e+01
2.009794e+02	-2.378022e+01
2.021403e+02	-2.383371e+01
2.033078e+02	-2.388189e+01
2.044821e+02	-2.393248e+01
2.056632e+02	-2.398007e+01
2.068511e+02	-2.403230e+01
2.080459e+02	-2.408112e+01
2.092475e+02	-2.413388e+01
2.104561e+02	-2.418234e+01
2.116717e+02	-2.423488e+01
2.128943e+02	-2.428175e+01
2.141240e+02	-2.433023e+01
2.153608e+02	-2.438179e+01
2.166047e+02	-2.443017e+01
2.178558e+02	-2.448211e+01
2.191141e+02	-2.452962e+01
2.203797e+02	-2.457993e+01
2.216526e+02	-2.463120e+01
2.229329e+02	-2.468055e+01
2.242205e+02	-2.473110e+01
2.255156e+02	-2.477990e+01
2.268182e+02	-2.483051e+01
2.281283e+02	-2.487964e+01
2.294459e+02	-2.493059e+01
2.307712e+02	-2.498398e+01
2.321041e+02	-2.502992e+01
2.334447e+02	-2.507999e+01
2.347931e+02	-2.512879e+01
2.361493e+02	-2.517745e+01
2.375133e+02	-2.522855e+01
2.388851e+02	-2.527950e+01
2.402649e+02	-2.532802e+01
2.416527e+02	-2.537908e+01
2.430484e+02	-2.542845e+01
2.444523e+02	-2.548131e+01
2.458642e+02	-2.552699e+01
2.472843e+02	-2.557969e+01
2.487126e+02	-2.563139e+01
2.501492e+02	-2.568242e+01
2.515940e+02	-2.572947e+01
2.530472e+02	-2.577538e+01
2.545088e+02	-2.582862e+01
2.559789e+02	-2.587759e+01
2.574574e+02	-2.592652e+01
2.589444e+02	-2.597954e+01
2.604401e+02	-2.603133e+01
2.619444e+02	-2.608011e+01
2.634574e+02	-2.612950e+01
2.649791e+02	-2.617673e+01
2.665096e+02	-2.622999e+01
2.680489e+02	-2.628118e+01
2.695972e+02	-2.632683e+01
2.711544e+02	-2.637853e+01
2.727205e+02	-2.642967e+01
2.742958e+02	-2.647572e+01
2.758801e+02	-2.652692e+01
2.774736e+02	-2.657981e+01
2.790762e+02	-2.662870e+01
2.806882e+02	-2.667744e+01
2.823094e+02	-2.673062e+01
2.839400e+02	-2.677777e+01
2.855800e+02	-2.682989e+01
2.872295e+02	-2.687940e+01
2.888886e+02	-2.692545e+01
2.905572e+02	-2.698214e+01
2.922354e+02	-2.703018e+01
2.939234e+02	-2.707840e+01
2.956211e+02	-2.712958e+01
2.973286e+02	-2.717964e+01
2.990459e+02	-2.722492e+01
3.007732e+02	-2.727606e+01
3.025104e+02	-2.732835e+01
3.042577e+02	-2.737604e+01
3.060151e+02	-2.742873e+01
3.077826e+02	-2.747834e+01
3.095604e+02	-2.752950e+01
3.113484e+02	-2.757799e+01
3.131467e+02	-2.762686e+01
3.149554e+02	-2.767875e+01
3.167746e+02	-2.772452e+01
3.186043e+02	-2.777843e+01
3.204445e+02	-2.782733e+01
3.222954e+02	-2.787647e+01
3.241570e+02	-2.793099e+01
3.260293e+02	-2.797926e+01
3.279124e+02	-2.802854e+01
3.298064e+02	-2.808243e+01
3.317114e+02	-2.812601e+01
3.336273e+02	-2.817848e+01
3.355544e+02	-2.823224e+01
3.374925e+02	-2.827568e+01
3.394418e+02	-2.832914e+01
3.414024e+02	-2.837201e+01
3.433744e+02	-2.842869e+01
3.453577e+02	-2.848199e+01
3.473525e+02	-2.852848e+01
3.493588e+02	-2.857716e+01
3.513766e+02	-2.862894e+01
3.534062e+02	-2.867907e+01
3.554474e+02	-2.872912e+01
3.575005e+02	-2.877972e+01
3.595654e+02	-2.882685e+01
3.616422e+02	-2.887870e+01
3.637311e+02	-2.893104e+01
3.658320e+02	-2.898339e+01
3.679450e+02	-2.902544e+01
3.700702e+02	-2.908260e+01
3.722077e+02	-2.913089e+01
3.743576e+02	-2.917720e+01
3.765199e+02	-2.923119e+01
3.786946e+02	-2.928064e+01
3.808820e+02	-2.932668e+01
3.830819e+02	-2.937741e+01
3.852946e+02	-2.942863e+01
3.875200e+02	-2.948029e+01
3.897583e+02	-2.953793e+01
3.920096e+02	-2.957530e+01
3.942738e+02	-2.963002e+01
3.965511e+02	-2.968080e+01
3.988416e+02	-2.973417e+01
4.011452e+02	-2.977954e+01
4.034622e+02	-2.982932e+01
4.057926e+02	-2.988165e+01
4.081365e+02	-2.992680e+01
4.104938e+02	-2.997514e+01
4.128648e+02	-3.003106e+01
4.152495e+02	-3.008226e+01
4.176480e+02	-3.013249e+01
4.200603e+02	-3.018056e+01
4.224866e+02	-3.022921e+01
4.249268e+02	-3.028294e+01
4.273812e+02	-3.033393e+01
4.298497e+02	-3.038157e+01
4.323325e+02	-3.043448e+01
4.348297e+02	-3.047681e+01
4.373412e+02	-3.053516e+01
4.398673e+02	-3.058236e+01
4.424079e+02	-3.063410e+01
4.449633e+02	-3.068317e+01
4.475334e+02	-3.073512e+01
4.501183e+02	-3.078132e+01
4.527182e+02	-3.083574e+01
4.553330e+02	-3.087921e+01
4.579630e+02	-3.093556e+01
4.606082e+02	-3.098733e+01
4.632687e+02	-3.103626e+01
4.659445e+02	-3.108900e+01
4.686358e+02	-3.113543e+01
4.713426e+02	-3.118668e+01
4.740650e+02	-3.123180e+01
4.768032e+02	-3.127937e+01
4.795572e+02	-3.133436e+01
4.823271e+02	-3.137840e+01
4.851130e+02	-3.143836e+01
4.879150e+02	-3.147729e+01
4.907332e+02	-3.153792e+01
4.935676e+02	-3.158695e+01
4.964185e+02	-3.163744e+01
4.992858e+02	-3.168846e+01
5.021696e+02	-3.173372e+01
5.050701e+02	-3.177929e+01
5.079874e+02	-3.184277e+01
5.109215e+02	-3.188643e+01
5.138726e+02	-3.193966e+01
5.168407e+02	-3.198335e+01
5.198259e+02	-3.203733e+01
5.228284e+02	-3.208926e+01
5.258482e+02	-3.213578e+01
5.288855e+02	-3.219254e+01
5.319403e+02	-3.223817e+01
5.350128e+02	-3.228663e+01
5.381030e+02	-3.233654e+01
5.412111e+02	-3.238884e+01
5.443371e+02	-3.243993e+01
5.474812e+02	-3.248751e+01
5.506434e+02	-3.253739e+01
5.538239e+02	-3.258537e+01
5.570228e+02	-3.264630e+01
5.602401e+02	-3.269585e+01
5.634760e+02	-3.273977e+01
5.667306e+02	-3.278772e+01
5.700040e+02	-3.284412e+01
5.732964e+02	-3.288915e+01
5.766077e+02	-3.294322e+01
5.799382e+02	-3.299472e+01
5.832879e+02	-3.304481e+01
5.866569e+02	-3.309709e+01
5.900454e+02	-3.314293e+01
5.934535e+02	-3.319122e+01
5.968813e+02	-3.324394e+01
6.003288e+02	-3.329322e+01
6.037963e+02	-3.334296e+01
6.072838e+02	-3.339733e+01
6.107914e+02	-3.344858e+01
6.143194e+02	-3.349669e+01
6.178676e+02	-3.353707e+01
6.214364e+02	-3.359302e+01
6.250258e+02	-3.365193e+01
6.286359e+02	-3.370092e+01
6.322669e+02	-3.375164e+01
6.359189e+02	-3.379984e+01
6.395919e+02	-3.384474e+01
6.432862e+02	-3.390216e+01
6.470017e+02	-3.395081e+01
6.507388e+02	-3.399839e+01
6.544974e+02	-3.404450e+01
6.582778e+02	-3.409915e+01
6.620800e+02	-3.414910e+01
6.659041e+02	-3.419186e+01
6.697504e+02	-3.425057e+01
6.736188e+02	-3.430155e+01
6.775096e+02	-3.434310e+01
6.814229e+02	-3.440486e+01
6.853587e+02	-3.445700e+01
6.893173e+02	-3.450103e+01
6.932988e+02	-3.455059e+01
6.973033e+02	-3.460216e+01
7.013309e+02	-3.465625e+01
