Frequency(Hz)	Magnitude(dB)
1.000000e+01	-1.540387e-05
1.005776e+01	-1.558232e-05
1.011585e+01	-1.576285e-05
1.017428e+01	-1.594546e-05
1.023305e+01	-1.613020e-05
1.029215e+01	-1.631707e-05
1.035160e+01	-1.650611e-05
1.041139e+01	-1.669733e-05
1.047153e+01	-1.689078e-05
1.053201e+01	-1.708646e-05
1.059284e+01	-1.728441e-05
1.065403e+01	-1.748466e-05
1.071556e+01	-1.768722e-05
1.077746e+01	-1.789213e-05
1.083971e+01	-1.809942e-05
1.090232e+01	-1.830910e-05
1.096529e+01	-1.852122e-05
1.102862e+01	-1.873579e-05
1.109232e+01	-1.895285e-05
1.115639e+01	-1.917242e-05
1.122083e+01	-1.939454e-05
1.128564e+01	-1.961923e-05
1.135083e+01	-1.984653e-05
1.141639e+01	-2.007645e-05
1.148233e+01	-2.030904e-05
1.154865e+01	-2.054433e-05
1.161536e+01	-2.078234e-05
1.168245e+01	-2.102311e-05
1.174992e+01	-2.126667e-05
1.181779e+01	-2.151305e-05
1.188605e+01	-2.176228e-05
1.195470e+01	-2.201440e-05
1.202375e+01	-2.226945e-05
1.209320e+01	-2.252744e-05
1.216305e+01	-2.278843e-05
1.223330e+01	-2.305244e-05
1.230396e+01	-2.331951e-05
1.237503e+01	-2.358967e-05
1.244651e+01	-2.386296e-05
1.251840e+01	-2.413942e-05
1.259070e+01	-2.441908e-05
1.266343e+01	-2.470198e-05
1.273657e+01	-2.498816e-05
1.281014e+01	-2.527765e-05
1.288413e+01	-2.557050e-05
1.295855e+01	-2.586674e-05
1.303339e+01	-2.616641e-05
1.310867e+01	-2.646956e-05
1.318439e+01	-2.677622e-05
1.326054e+01	-2.708642e-05
1.333713e+01	-2.740023e-05
1.341417e+01	-2.771767e-05
1.349165e+01	-2.803878e-05
1.356958e+01	-2.836362e-05
1.364795e+01	-2.869222e-05
1.372678e+01	-2.902462e-05
1.380607e+01	-2.936088e-05
1.388581e+01	-2.970103e-05
1.396602e+01	-3.004513e-05
1.404668e+01	-3.039321e-05
1.412782e+01	-3.074532e-05
1.420942e+01	-3.110151e-05
1.429149e+01	-3.146183e-05
1.437404e+01	-3.182632e-05
1.445706e+01	-3.219504e-05
1.454057e+01	-3.256803e-05
1.462455e+01	-3.294533e-05
1.470902e+01	-3.332701e-05
1.479398e+01	-3.371311e-05
1.487943e+01	-3.410369e-05
1.496537e+01	-3.449879e-05
1.505181e+01	-3.489846e-05
1.513875e+01	-3.530277e-05
1.522619e+01	-3.571176e-05
1.531414e+01	-3.612549e-05
1.540259e+01	-3.654401e-05
1.549156e+01	-3.696738e-05
1.558103e+01	-3.739566e-05
1.567103e+01	-3.782890e-05
1.576155e+01	-3.826715e-05
1.585258e+01	-3.871049e-05
1.594415e+01	-3.915896e-05
1.603624e+01	-3.961262e-05
1.612886e+01	-4.007154e-05
1.622202e+01	-4.053578e-05
1.631572e+01	-4.100540e-05
1.640996e+01	-4.148045e-05
1.650474e+01	-4.196101e-05
1.660008e+01	-4.244714e-05
1.669596e+01	-4.293890e-05
1.679239e+01	-4.343636e-05
1.688938e+01	-4.393958e-05
1.698694e+01	-4.444863e-05
1.708505e+01	-4.496358e-05
1.718373e+01	-4.548449e-05
1.728299e+01	-4.601144e-05
1.738281e+01	-4.654449e-05
1.748322e+01	-4.708372e-05
1.758420e+01	-4.762919e-05
1.768576e+01	-4.818099e-05
1.778792e+01	-4.873917e-05
1.789066e+01	-4.930383e-05
1.799399e+01	-4.987502e-05
1.809793e+01	-5.045284e-05
1.820246e+01	-5.103734e-05
1.830760e+01	-5.162862e-05
1.841334e+01	-5.222675e-05
1.851969e+01	-5.283181e-05
1.862666e+01	-5.344387e-05
1.873425e+01	-5.406303e-05
1.884246e+01	-5.468936e-05
1.895129e+01	-5.532295e-05
1.906075e+01	-5.596388e-05
1.917085e+01	-5.661223e-05
1.928158e+01	-5.726810e-05
1.939295e+01	-5.793156e-05
1.950496e+01	-5.860271e-05
1.961762e+01	-5.928163e-05
1.973093e+01	-5.996842e-05
1.984490e+01	-6.066317e-05
1.995952e+01	-6.136596e-05
2.007480e+01	-6.207690e-05
2.019076e+01	-6.279607e-05
2.030738e+01	-6.352358e-05
2.042467e+01	-6.425951e-05
2.054264e+01	-6.500397e-05
2.066130e+01	-6.575705e-05
2.078064e+01	-6.651886e-05
2.090066e+01	-6.728949e-05
2.102139e+01	-6.806905e-05
2.114280e+01	-6.885765e-05
2.126492e+01	-6.965538e-05
2.138775e+01	-7.046235e-05
2.151128e+01	-7.127867e-05
2.163553e+01	-7.210444e-05
2.176050e+01	-7.293979e-05
2.188619e+01	-7.378481e-05
2.201260e+01	-7.463962e-05
2.213974e+01	-7.550433e-05
2.226762e+01	-7.637906e-05
2.239624e+01	-7.726393e-05
2.252560e+01	-7.815904e-05
2.265571e+01	-7.906453e-05
2.278656e+01	-7.998050e-05
2.291818e+01	-8.090709e-05
2.305055e+01	-8.184441e-05
2.318369e+01	-8.279260e-05
2.331760e+01	-8.375176e-05
2.345228e+01	-8.472204e-05
2.358774e+01	-8.570356e-05
2.372398e+01	-8.669645e-05
2.386101e+01	-8.770084e-05
2.399883e+01	-8.871687e-05
2.413745e+01	-8.974467e-05
2.427686e+01	-9.078438e-05
2.441709e+01	-9.183613e-05
2.455812e+01	-9.290006e-05
2.469997e+01	-9.397632e-05
2.484263e+01	-9.506505e-05
2.498612e+01	-9.616640e-05
2.513044e+01	-9.728050e-05
2.527559e+01	-9.840751e-05
2.542158e+01	-9.954757e-05
2.556842e+01	-1.007008e-04
2.571610e+01	-1.018675e-04
2.586463e+01	-1.030476e-04
2.601403e+01	-1.042415e-04
2.616428e+01	-1.054491e-04
2.631541e+01	-1.066707e-04
2.646740e+01	-1.079065e-04
2.662028e+01	-1.091567e-04
2.677404e+01	-1.104212e-04
2.692868e+01	-1.117005e-04
2.708422e+01	-1.129946e-04
2.724066e+01	-1.143036e-04
2.739800e+01	-1.156278e-04
2.755625e+01	-1.169674e-04
2.771541e+01	-1.183225e-04
2.787550e+01	-1.196933e-04
2.803650e+01	-1.210799e-04
2.819844e+01	-1.224826e-04
2.836131e+01	-1.239016e-04
2.852513e+01	-1.253370e-04
2.868989e+01	-1.267891e-04
2.885560e+01	-1.282579e-04
2.902227e+01	-1.297438e-04
2.918990e+01	-1.312469e-04
2.935850e+01	-1.327674e-04
2.952807e+01	-1.343056e-04
2.969863e+01	-1.358615e-04
2.987016e+01	-1.374355e-04
3.004269e+01	-1.390277e-04
3.021622e+01	-1.406383e-04
3.039075e+01	-1.422676e-04
3.056628e+01	-1.439158e-04
3.074283e+01	-1.455831e-04
3.092040e+01	-1.472697e-04
3.109900e+01	-1.489758e-04
3.127862e+01	-1.507017e-04
3.145929e+01	-1.524476e-04
3.164099e+01	-1.542137e-04
3.182375e+01	-1.560003e-04
3.200756e+01	-1.578076e-04
3.219244e+01	-1.596358e-04
3.237838e+01	-1.614852e-04
3.256540e+01	-1.633560e-04
3.275349e+01	-1.652485e-04
3.294268e+01	-1.671629e-04
3.313295e+01	-1.690995e-04
3.332433e+01	-1.710585e-04
3.351681e+01	-1.730402e-04
3.371040e+01	-1.750449e-04
3.390511e+01	-1.770728e-04
3.410094e+01	-1.791242e-04
3.429791e+01	-1.811994e-04
3.449601e+01	-1.832986e-04
3.469526e+01	-1.854221e-04
3.489566e+01	-1.875702e-04
3.509721e+01	-1.897432e-04
3.529993e+01	-1.919414e-04
3.550382e+01	-1.941650e-04
3.570889e+01	-1.964144e-04
3.591515e+01	-1.986899e-04
3.612259e+01	-2.009917e-04
3.633123e+01	-2.033202e-04
3.654108e+01	-2.056757e-04
3.675214e+01	-2.080584e-04
3.696442e+01	-2.104688e-04
3.717792e+01	-2.129071e-04
3.739266e+01	-2.153736e-04
3.760864e+01	-2.178687e-04
3.782587e+01	-2.203927e-04
3.804435e+01	-2.229459e-04
3.826409e+01	-2.255288e-04
3.848510e+01	-2.281415e-04
3.870739e+01	-2.307845e-04
3.893096e+01	-2.334581e-04
3.915583e+01	-2.361628e-04
3.938199e+01	-2.388987e-04
3.960946e+01	-2.416663e-04
3.983824e+01	-2.444660e-04
4.006834e+01	-2.472981e-04
4.029978e+01	-2.501631e-04
4.053255e+01	-2.530612e-04
4.076666e+01	-2.559929e-04
4.100213e+01	-2.589586e-04
4.123896e+01	-2.619586e-04
4.147715e+01	-2.649933e-04
4.171672e+01	-2.680633e-04
4.195767e+01	-2.711688e-04
4.220002e+01	-2.743102e-04
4.244377e+01	-2.774881e-04
4.268892e+01	-2.807028e-04
4.293549e+01	-2.839547e-04
4.318348e+01	-2.872443e-04
4.343291e+01	-2.905719e-04
4.368377e+01	-2.939382e-04
4.393609e+01	-2.973434e-04
4.418986e+01	-3.007881e-04
4.444510e+01	-3.042727e-04
4.470182e+01	-3.077977e-04
4.496001e+01	-3.113635e-04
4.521970e+01	-3.149706e-04
4.548089e+01	-3.186195e-04
4.574358e+01	-3.223106e-04
4.600779e+01	-3.260445e-04
4.627353e+01	-3.298217e-04
4.654081e+01	-3.336426e-04
4.680963e+01	-3.375078e-04
4.708000e+01	-3.414178e-04
4.735193e+01	-3.453731e-04
4.762543e+01	-3.493741e-04
4.790051e+01	-3.534216e-04
4.817719e+01	-3.575159e-04
4.845545e+01	-3.616576e-04
4.873533e+01	-3.658474e-04
4.901682e+01	-3.700856e-04
4.929994e+01	-3.743730e-04
4.958470e+01	-3.787100e-04
4.987110e+01	-3.830973e-04
5.015915e+01	-3.875354e-04
5.044887e+01	-3.920249e-04
5.074026e+01	-3.965664e-04
5.103333e+01	-4.011605e-04
5.132810e+01	-4.058078e-04
5.162457e+01	-4.105090e-04
5.192275e+01	-4.152646e-04
5.222265e+01	-4.200754e-04
5.252429e+01	-4.249418e-04
5.282767e+01	-4.298646e-04
5.313280e+01	-4.348445e-04
5.343969e+01	-4.398820e-04
5.374836e+01	-4.449779e-04
5.405880e+01	-4.501328e-04
5.437105e+01	-4.553475e-04
5.468509e+01	-4.606225e-04
5.500095e+01	-4.659587e-04
5.531863e+01	-4.713567e-04
5.563815e+01	-4.768172e-04
5.595951e+01	-4.823409e-04
5.628273e+01	-4.879286e-04
5.660782e+01	-4.935811e-04
5.693479e+01	-4.992991e-04
5.726364e+01	-5.050832e-04
5.759439e+01	-5.109344e-04
5.792705e+01	-5.168534e-04
5.826164e+01	-5.228409e-04
5.859815e+01	-5.288978e-04
5.893662e+01	-5.350249e-04
5.927703e+01	-5.412229e-04
5.961941e+01	-5.474927e-04
5.996377e+01	-5.538351e-04
6.031012e+01	-5.602511e-04
6.065847e+01	-5.667413e-04
6.100883e+01	-5.733067e-04
6.136121e+01	-5.799482e-04
6.171563e+01	-5.866666e-04
6.207210e+01	-5.934628e-04
6.243063e+01	-6.003378e-04
6.279122e+01	-6.072924e-04
6.315390e+01	-6.143275e-04
6.351868e+01	-6.214442e-04
6.388556e+01	-6.286433e-04
6.425456e+01	-6.359257e-04
6.462569e+01	-6.432926e-04
6.499897e+01	-6.507447e-04
6.537440e+01	-6.582832e-04
6.575200e+01	-6.659090e-04
6.613178e+01	-6.736232e-04
6.651375e+01	-6.814267e-04
6.689793e+01	-6.893205e-04
6.728433e+01	-6.973059e-04
6.767297e+01	-7.053837e-04
6.806384e+01	-7.135551e-04
6.845698e+01	-7.218211e-04
6.885238e+01	-7.301829e-04
6.925007e+01	-7.386416e-04
6.965005e+01	-7.471982e-04
7.005235e+01	-7.558539e-04
7.045697e+01	-7.646099e-04
7.086393e+01	-7.734674e-04
7.127323e+01	-7.824274e-04
7.168490e+01	-7.914912e-04
7.209895e+01	-8.006600e-04
7.251539e+01	-8.099350e-04
7.293424e+01	-8.193174e-04
7.335551e+01	-8.288086e-04
7.377920e+01	-8.384096e-04
7.420535e+01	-8.481219e-04
7.463396e+01	-8.579466e-04
7.506504e+01	-8.678852e-04
7.549861e+01	-8.779388e-04
7.593469e+01	-8.881090e-04
7.637328e+01	-8.983969e-04
7.681441e+01	-9.088040e-04
7.725809e+01	-9.193316e-04
7.770433e+01	-9.299811e-04
7.815315e+01	-9.407541e-04
7.860456e+01	-9.516518e-04
7.905857e+01	-9.626757e-04
7.951521e+01	-9.738273e-04
7.997449e+01	-9.851081e-04
8.043642e+01	-9.965195e-04
8.090102e+01	-1.008063e-03
8.136830e+01	-1.019740e-03
8.183828e+01	-1.031553e-03
8.231097e+01	-1.043502e-03
8.278640e+01	-1.055590e-03
8.326457e+01	-1.067818e-03
8.374550e+01	-1.080187e-03
8.422921e+01	-1.092700e-03
8.471572e+01	-1.105358e-03
8.520503e+01	-1.118162e-03
8.569717e+01	-1.131114e-03
8.619215e+01	-1.144217e-03
8.669000e+01	-1.157471e-03
8.719071e+01	-1.170879e-03
8.769432e+01	-1.184442e-03
8.820084e+01	-1.198162e-03
8.871029e+01	-1.212041e-03
8.922267e+01	-1.226081e-03
8.973802e+01	-1.240284e-03
9.025634e+01	-1.254651e-03
9.077766e+01	-1.269184e-03
9.130199e+01	-1.283886e-03
9.182935e+01	-1.298758e-03
9.235975e+01	-1.313802e-03
9.289321e+01	-1.329020e-03
9.342976e+01	-1.344415e-03
9.396941e+01	-1.359988e-03
9.451217e+01	-1.375741e-03
9.505807e+01	-1.391677e-03
9.560712e+01	-1.407797e-03
9.615934e+01	-1.424104e-03
9.671476e+01	-1.440600e-03
9.727338e+01	-1.457287e-03
9.783522e+01	-1.474167e-03
9.840032e+01	-1.491243e-03
9.896867e+01	-1.508517e-03
9.954031e+01	-1.525990e-03
1.001153e+02	-1.543666e-03
1.006935e+02	-1.561547e-03
1.012751e+02	-1.579634e-03
1.018601e+02	-1.597931e-03
1.024484e+02	-1.616440e-03
1.030402e+02	-1.635164e-03
1.036353e+02	-1.654104e-03
1.042339e+02	-1.673263e-03
1.048360e+02	-1.692645e-03
1.054415e+02	-1.712251e-03
1.060505e+02	-1.732084e-03
1.066631e+02	-1.752146e-03
1.072791e+02	-1.772441e-03
1.078988e+02	-1.792971e-03
1.085220e+02	-1.813739e-03
1.091488e+02	-1.834747e-03
1.097793e+02	-1.855999e-03
1.104133e+02	-1.877496e-03
1.110511e+02	-1.899243e-03
1.116925e+02	-1.921241e-03
1.123376e+02	-1.943494e-03
1.129865e+02	-1.966005e-03
1.136391e+02	-1.988776e-03
1.142955e+02	-2.011812e-03
1.149556e+02	-2.035113e-03
1.156196e+02	-2.058685e-03
1.162874e+02	-2.082530e-03
1.169591e+02	-2.106651e-03
1.176347e+02	-2.131051e-03
1.183141e+02	-2.155734e-03
1.189975e+02	-2.180702e-03
1.196848e+02	-2.205960e-03
1.203761e+02	-2.231510e-03
1.210714e+02	-2.257356e-03
1.217707e+02	-2.283501e-03
1.224740e+02	-2.309949e-03
1.231814e+02	-2.336703e-03
1.238929e+02	-2.363767e-03
1.246085e+02	-2.391144e-03
1.253283e+02	-2.418838e-03
1.260522e+02	-2.446853e-03
1.267802e+02	-2.475193e-03
1.275125e+02	-2.503860e-03
1.282490e+02	-2.532860e-03
1.289898e+02	-2.562195e-03
1.297348e+02	-2.591870e-03
1.304842e+02	-2.621888e-03
1.312378e+02	-2.652254e-03
1.319959e+02	-2.682972e-03
1.327583e+02	-2.714045e-03
1.335251e+02	-2.745478e-03
1.342963e+02	-2.777275e-03
1.350720e+02	-2.809440e-03
1.358522e+02	-2.841977e-03
1.366368e+02	-2.874891e-03
1.374260e+02	-2.908186e-03
1.382198e+02	-2.941867e-03
1.390182e+02	-2.975938e-03
1.398211e+02	-3.010403e-03
1.406287e+02	-3.045267e-03
1.414410e+02	-3.080535e-03
1.422579e+02	-3.116211e-03
1.430796e+02	-3.152300e-03
1.439060e+02	-3.188806e-03
1.447372e+02	-3.225736e-03
1.455732e+02	-3.263093e-03
1.464141e+02	-3.300882e-03
1.472597e+02	-3.339109e-03
1.481103e+02	-3.377778e-03
1.489658e+02	-3.416895e-03
1.498262e+02	-3.456465e-03
1.506916e+02	-3.496493e-03
1.515620e+02	-3.536984e-03
1.524374e+02	-3.577944e-03
1.533179e+02	-3.619378e-03
1.542034e+02	-3.661292e-03
1.550941e+02	-3.703691e-03
1.559899e+02	-3.746581e-03
1.568909e+02	-3.789967e-03
1.577971e+02	-3.833855e-03
1.587085e+02	-3.878252e-03
1.596252e+02	-3.923162e-03
1.605472e+02	-3.968592e-03
1.614745e+02	-4.014548e-03
1.624072e+02	-4.061035e-03
1.633453e+02	-4.108061e-03
1.642887e+02	-4.155631e-03
1.652377e+02	-4.203752e-03
1.661921e+02	-4.252430e-03
1.671520e+02	-4.301671e-03
1.681175e+02	-4.351482e-03
1.690885e+02	-4.401869e-03
1.700651e+02	-4.452840e-03
1.710474e+02	-4.504400e-03
1.720354e+02	-4.556558e-03
1.730291e+02	-4.609318e-03
1.740285e+02	-4.662690e-03
1.750337e+02	-4.716679e-03
1.760446e+02	-4.771293e-03
1.770615e+02	-4.826539e-03
1.780842e+02	-4.882424e-03
1.791128e+02	-4.938956e-03
1.801473e+02	-4.996142e-03
1.811878e+02	-5.053990e-03
1.822344e+02	-5.112507e-03
1.832870e+02	-5.171701e-03
1.843456e+02	-5.231581e-03
1.854104e+02	-5.292153e-03
1.864813e+02	-5.353426e-03
1.875584e+02	-5.415408e-03
1.886418e+02	-5.478107e-03
1.897313e+02	-5.541532e-03
1.908272e+02	-5.605690e-03
1.919294e+02	-5.670591e-03
1.930380e+02	-5.736243e-03
1.941530e+02	-5.802654e-03
1.952744e+02	-5.869834e-03
1.964023e+02	-5.937791e-03
1.975367e+02	-6.006534e-03
1.986777e+02	-6.076072e-03
1.998252e+02	-6.146415e-03
2.009794e+02	-6.217572e-03
2.021403e+02	-6.289552e-03
2.033078e+02	-6.362364e-03
2.044821e+02	-6.436019e-03
2.056632e+02	-6.510526e-03
2.068511e+02	-6.585895e-03
2.080459e+02	-6.662136e-03
2.092475e+02	-6.739258e-03
2.104561e+02	-6.817273e-03
2.116717e+02	-6.896190e-03
2.128943e+02	-6.976019e-03
2.141240e+02	-7.056772e-03
2.153608e+02	-7.138460e-03
2.166047e+02	-7.221091e-03
2.178558e+02	-7.304679e-03
2.191141e+02	-7.389233e-03
2.203797e+02	-7.474766e-03
2.216526e+02	-7.561287e-03
2.229329e+02	-7.648809e-03
2.242205e+02	-7.737343e-03
2.255156e+02	-7.826902e-03
2.268182e+02	-7.917495e-03
2.281283e+02	-8.009137e-03
2.294459e+02	-8.101838e-03
2.307712e+02	-8.195611e-03
2.321041e+02	-8.290468e-03
2.334447e+02	-8.386422e-03
2.347931e+02	-8.483486e-03
2.361493e+02	-8.581672e-03
2.375133e+02	-8.680993e-03
2.388851e+02	-8.781462e-03
2.402649e+02	-8.883094e-03
2.416527e+02	-8.985900e-03
2.430484e+02	-9.089894e-03
2.444523e+02	-9.195091e-03
2.458642e+02	-9.301504e-03
2.472843e+02	-9.409147e-03
2.487126e+02	-9.518035e-03
2.501492e+02	-9.628181e-03
2.515940e+02	-9.739601e-03
2.530472e+02	-9.852308e-03
2.545088e+02	-9.966318e-03
2.559789e+02	-1.008165e-02
2.574574e+02	-1.019831e-02
2.589444e+02	-1.031632e-02
2.604401e+02	-1.043569e-02
2.619444e+02	-1.055644e-02
2.634574e+02	-1.067859e-02
2.649791e+02	-1.080215e-02
2.665096e+02	-1.092714e-02
2.680489e+02	-1.105357e-02
2.695972e+02	-1.118146e-02
2.711544e+02	-1.131083e-02
2.727205e+02	-1.144170e-02
2.742958e+02	-1.157408e-02
2.758801e+02	-1.170798e-02
2.774736e+02	-1.184344e-02
2.790762e+02	-1.198046e-02
2.806882e+02	-1.211906e-02
2.823094e+02	-1.225926e-02
2.839400e+02	-1.240109e-02
2.855800e+02	-1.254455e-02
2.872295e+02	-1.268967e-02
2.888886e+02	-1.283646e-02
2.905572e+02	-1.298495e-02
2.922354e+02	-1.313516e-02
2.939234e+02	-1.328710e-02
2.956211e+02	-1.344079e-02
2.973286e+02	-1.359626e-02
2.990459e+02	-1.375353e-02
3.007732e+02	-1.391261e-02
3.025104e+02	-1.407353e-02
3.042577e+02	-1.423631e-02
3.060151e+02	-1.440096e-02
3.077826e+02	-1.456752e-02
3.095604e+02	-1.473600e-02
3.113484e+02	-1.490643e-02
3.131467e+02	-1.507882e-02
3.149554e+02	-1.525321e-02
3.167746e+02	-1.542961e-02
3.186043e+02	-1.560804e-02
3.204445e+02	-1.578853e-02
3.222954e+02	-1.597111e-02
3.241570e+02	-1.615579e-02
3.260293e+02	-1.634261e-02
3.279124e+02	-1.653158e-02
3.298064e+02	-1.672273e-02
3.317114e+02	-1.691609e-02
3.336273e+02	-1.711168e-02
3.355544e+02	-1.730953e-02
3.374925e+02	-1.750966e-02
3.394418e+02	-1.771210e-02
3.414024e+02	-1.791687e-02
3.433744e+02	-1.812401e-02
3.453577e+02	-1.833353e-02
3.473525e+02	-1.854548e-02
3.493588e+02	-1.875986e-02
3.513766e+02	-1.897673e-02
3.534062e+02	-1.919609e-02
3.554474e+02	-1.941798e-02
3.575005e+02	-1.964243e-02
3.595654e+02	-1.986947e-02
3.616422e+02	-2.009913e-02
3.637311e+02	-2.033144e-02
3.658320e+02	-2.056642e-02
3.679450e+02	-2.080412e-02
3.700702e+02	-2.104455e-02
3.722077e+02	-2.128776e-02
3.743576e+02	-2.153377e-02
3.765199e+02	-2.178262e-02
3.786946e+02	-2.203433e-02
3.808820e+02	-2.228895e-02
3.830819e+02	-2.254650e-02
3.852946e+02	-2.280702e-02
3.875200e+02	-2.307054e-02
3.897583e+02	-2.333709e-02
3.920096e+02	-2.360672e-02
3.942738e+02	-2.387946e-02
3.965511e+02	-2.415534e-02
3.988416e+02	-2.443439e-02
4.011452e+02	-2.471666e-02
4.034622e+02	-2.500218e-02
4.057926e+02	-2.529099e-02
4.081365e+02	-2.558313e-02
4.104938e+02	-2.587863e-02
4.128648e+02	-2.617754e-02
4.152495e+02	-2.647988e-02
4.176480e+02	-2.678571e-02
4.200603e+02	-2.709506e-02
4.224866e+02	-2.740797e-02
4.249268e+02	-2.772448e-02
4.273812e+02	-2.804463e-02
4.298497e+02	-2.836847e-02
4.323325e+02	-2.869604e-02
4.348297e+02	-2.902737e-02
4.373412e+02	-2.936252e-02
4.398673e+02	-2.970153e-02
4.424079e+02	-3.004444e-02
4.449633e+02	-3.039129e-02
4.475334e+02	-3.074213e-02
4.501183e+02	-3.109700e-02
4.527182e+02	-3.145596e-02
4.553330e+02	-3.181905e-02
4.579630e+02	-3.218631e-02
4.606082e+02	-3.255779e-02
4.632687e+02	-3.293355e-02
4.659445e+02	-3.331362e-02
4.686358e+02	-3.369807e-02
4.713426e+02	-3.408693e-02
4.740650e+02	-3.448027e-02
4.768032e+02	-3.487812e-02
4.795572e+02	-3.528055e-02
4.823271e+02	-3.568760e-02
4.851130e+02	-3.609932e-02
4.879150e+02	-3.651578e-02
4.907332e+02	-3.693702e-02
4.935676e+02	-3.736310e-02
4.964185e+02	-3.779407e-02
4.992858e+02	-3.823000e-02
5.021696e+02	-3.867092e-02
5.050701e+02	-3.911691e-02
5.079874e+02	-3.956802e-02
5.109215e+02	-4.002431e-02
5.138726e+02	-4.048583e-02
5.168407e+02	-4.095266e-02
5.198259e+02	-4.142483e-02
5.228284e+02	-4.190243e-02
5.258482e+02	-4.238551e-02
5.288855e+02	-4.287412e-02
5.319403e+02	-4.336835e-02
5.350128e+02	-4.386824e-02
5.381030e+02	-4.437386e-02
5.412111e+02	-4.488528e-02
5.443371e+02	-4.540256e-02
5.474812e+02	-4.592577e-02
5.506434e+02	-4.645498e-02
5.538239e+02	-4.699026e-02
5.570228e+02	-4.753167e-02
5.602401e+02	-4.807928e-02
5.634760e+02	-4.863317e-02
5.667306e+02	-4.919340e-02
5.700040e+02	-4.976004e-02
5.732964e+02	-5.033318e-02
5.766077e+02	-5.091288e-02
5.799382e+02	-5.149921e-02
5.832879e+02	-5.209226e-02
5.866569e+02	-5.269209e-02
5.900454e+02	-5.329879e-02
5.934535e+02	-5.391243e-02
5.968813e+02	-5.453310e-02
6.003288e+02	-5.516086e-02
6.037963e+02	-5.579580e-02
6.072838e+02	-5.643800e-02
6.107914e+02	-5.708755e-02
6.143194e+02	-5.774452e-02
6.178676e+02	-5.840900e-02
6.214364e+02	-5.908107e-02
6.250258e+02	-5.976083e-02
6.286359e+02	-6.044835e-02
6.322669e+02	-6.114372e-02
6.359189e+02	-6.184704e-02
6.395919e+02	-6.255839e-02
6.432862e+02	-6.327786e-02
6.470017e+02	-6.400554e-02
6.507388e+02	-6.474153e-02
6.544974e+02	-6.548591e-02
6.582778e+02	-6.623880e-02
6.620800e+02	-6.700026e-02
6.659041e+02	-6.777042e-02
6.697504e+02	-6.854936e-02
6.736188e+02	-6.933718e-02
6.775096e+02	-7.013398e-02
6.814229e+02	-7.093986e-02
6.853587e+02	-7.175492e-02
6.893173e+02	-7.257927e-02
6.932988e+02	-7.341301e-02
6.973033e+02	-7.425625e-02
7.013309e+02	-7.510909e-02
