Frequency(Hz)	Magnitude(dB)
1.000000e+01	-1.487466e-05
1.005776e+01	-1.504699e-05
1.011585e+01	-1.522131e-05
1.017428e+01	-1.539766e-05
1.023305e+01	-1.557604e-05
1.029215e+01	-1.575649e-05
1.035160e+01	-1.593904e-05
1.041139e+01	-1.612369e-05
1.047153e+01	-1.631049e-05
1.053201e+01	-1.649945e-05
1.059284e+01	-1.669060e-05
1.065403e+01	-1.688397e-05
1.071556e+01	-1.707957e-05
1.077746e+01	-1.727744e-05
1.083971e+01	-1.747761e-05
1.090232e+01	-1.768009e-05
1.096529e+01	-1.788492e-05
1.102862e+01	-1.809212e-05
1.109232e+01	-1.830172e-05
1.115639e+01	-1.851375e-05
1.122083e+01	-1.872824e-05
1.128564e+01	-1.894521e-05
1.135083e+01	-1.916470e-05
1.141639e+01	-1.938672e-05
1.148233e+01	-1.961132e-05
1.154865e+01	-1.983853e-05
1.161536e+01	-2.006836e-05
1.168245e+01	-2.030086e-05
1.174992e+01	-2.053605e-05
1.181779e+01	-2.077396e-05
1.188605e+01	-2.101463e-05
1.195470e+01	-2.125809e-05
1.202375e+01	-2.150437e-05
1.209320e+01	-2.175351e-05
1.216305e+01	-2.200553e-05
1.223330e+01	-2.226047e-05
1.230396e+01	-2.251836e-05
1.237503e+01	-2.277924e-05
1.244651e+01	-2.304314e-05
1.251840e+01	-2.331011e-05
1.259070e+01	-2.358016e-05
1.266343e+01	-2.385334e-05
1.273657e+01	-2.412969e-05
1.281014e+01	-2.440924e-05
1.288413e+01	-2.469202e-05
1.295855e+01	-2.497809e-05
1.303339e+01	-2.526746e-05
1.310867e+01	-2.556019e-05
1.318439e+01	-2.585631e-05
1.326054e+01	-2.615587e-05
1.333713e+01	-2.645889e-05
1.341417e+01	-2.676542e-05
1.349165e+01	-2.707550e-05
1.356958e+01	-2.738918e-05
1.364795e+01	-2.770649e-05
1.372678e+01	-2.802748e-05
1.380607e+01	-2.835218e-05
1.388581e+01	-2.868065e-05
1.396602e+01	-2.901292e-05
1.404668e+01	-2.934904e-05
1.412782e+01	-2.968906e-05
1.420942e+01	-3.003301e-05
1.429149e+01	-3.038095e-05
1.437404e+01	-3.073292e-05
1.445706e+01	-3.108897e-05
1.454057e+01	-3.144915e-05
1.462455e+01	-3.181349e-05
1.470902e+01	-3.218206e-05
1.479398e+01	-3.255490e-05
1.487943e+01	-3.293205e-05
1.496537e+01	-3.331358e-05
1.505181e+01	-3.369952e-05
1.513875e+01	-3.408994e-05
1.522619e+01	-3.448488e-05
1.531414e+01	-3.488439e-05
1.540259e+01	-3.528854e-05
1.549156e+01	-3.569736e-05
1.558103e+01	-3.611093e-05
1.567103e+01	-3.652928e-05
1.576155e+01	-3.695248e-05
1.585258e+01	-3.738058e-05
1.594415e+01	-3.781365e-05
1.603624e+01	-3.825173e-05
1.612886e+01	-3.869488e-05
1.622202e+01	-3.914317e-05
1.631572e+01	-3.959665e-05
1.640996e+01	-4.005539e-05
1.650474e+01	-4.051944e-05
1.660008e+01	-4.098887e-05
1.669596e+01	-4.146373e-05
1.679239e+01	-4.194410e-05
1.688938e+01	-4.243003e-05
1.698694e+01	-4.292159e-05
1.708505e+01	-4.341885e-05
1.718373e+01	-4.392186e-05
1.728299e+01	-4.443071e-05
1.738281e+01	-4.494545e-05
1.748322e+01	-4.546615e-05
1.758420e+01	-4.599289e-05
1.768576e+01	-4.652572e-05
1.778792e+01	-4.706473e-05
1.789066e+01	-4.760999e-05
1.799399e+01	-4.816156e-05
1.809793e+01	-4.871952e-05
1.820246e+01	-4.928395e-05
1.830760e+01	-4.985492e-05
1.841334e+01	-5.043249e-05
1.851969e+01	-5.101677e-05
1.862666e+01	-5.160781e-05
1.873425e+01	-5.220569e-05
1.884246e+01	-5.281051e-05
1.895129e+01	-5.342233e-05
1.906075e+01	-5.404124e-05
1.917085e+01	-5.466732e-05
1.928158e+01	-5.530065e-05
1.939295e+01	-5.594132e-05
1.950496e+01	-5.658941e-05
1.961762e+01	-5.724501e-05
1.973093e+01	-5.790820e-05
1.984490e+01	-5.857908e-05
1.995952e+01	-5.925773e-05
2.007480e+01	-5.994424e-05
2.019076e+01	-6.063871e-05
2.030738e+01	-6.134122e-05
2.042467e+01	-6.205187e-05
2.054264e+01	-6.277076e-05
2.066130e+01	-6.349797e-05
2.078064e+01	-6.423360e-05
2.090066e+01	-6.497776e-05
2.102139e+01	-6.573054e-05
2.114280e+01	-6.649204e-05
2.126492e+01	-6.726237e-05
2.138775e+01	-6.804161e-05
2.151128e+01	-6.882989e-05
2.163553e+01	-6.962729e-05
2.176050e+01	-7.043394e-05
2.188619e+01	-7.124993e-05
2.201260e+01	-7.207537e-05
2.213974e+01	-7.291038e-05
2.226762e+01	-7.375506e-05
2.239624e+01	-7.460953e-05
2.252560e+01	-7.547389e-05
2.265571e+01	-7.634827e-05
2.278656e+01	-7.723278e-05
2.291818e+01	-7.812753e-05
2.305055e+01	-7.903265e-05
2.318369e+01	-7.994826e-05
2.331760e+01	-8.087447e-05
2.345228e+01	-8.181142e-05
2.358774e+01	-8.275922e-05
2.372398e+01	-8.371800e-05
2.386101e+01	-8.468789e-05
2.399883e+01	-8.566901e-05
2.413745e+01	-8.666150e-05
2.427686e+01	-8.766549e-05
2.441709e+01	-8.868110e-05
2.455812e+01	-8.970849e-05
2.469997e+01	-9.074778e-05
2.484263e+01	-9.179910e-05
2.498612e+01	-9.286261e-05
2.513044e+01	-9.393844e-05
2.527559e+01	-9.502673e-05
2.542158e+01	-9.612763e-05
2.556842e+01	-9.724128e-05
2.571610e+01	-9.836784e-05
2.586463e+01	-9.950744e-05
2.601403e+01	-1.006602e-04
2.616428e+01	-1.018264e-04
2.631541e+01	-1.030061e-04
2.646740e+01	-1.041994e-04
2.662028e+01	-1.054066e-04
2.677404e+01	-1.066277e-04
2.692868e+01	-1.078630e-04
2.708422e+01	-1.091126e-04
2.724066e+01	-1.103767e-04
2.739800e+01	-1.116555e-04
2.755625e+01	-1.129490e-04
2.771541e+01	-1.142575e-04
2.787550e+01	-1.155812e-04
2.803650e+01	-1.169202e-04
2.819844e+01	-1.182748e-04
2.836131e+01	-1.196450e-04
2.852513e+01	-1.210311e-04
2.868989e+01	-1.224333e-04
2.885560e+01	-1.238517e-04
2.902227e+01	-1.252865e-04
2.918990e+01	-1.267380e-04
2.935850e+01	-1.282062e-04
2.952807e+01	-1.296915e-04
2.969863e+01	-1.311940e-04
2.987016e+01	-1.327139e-04
3.004269e+01	-1.342514e-04
3.021622e+01	-1.358067e-04
3.039075e+01	-1.373801e-04
3.056628e+01	-1.389716e-04
3.074283e+01	-1.405816e-04
3.092040e+01	-1.422103e-04
3.109900e+01	-1.438578e-04
3.127862e+01	-1.455244e-04
3.145929e+01	-1.472103e-04
3.164099e+01	-1.489157e-04
3.182375e+01	-1.506409e-04
3.200756e+01	-1.523861e-04
3.219244e+01	-1.541515e-04
3.237838e+01	-1.559374e-04
3.256540e+01	-1.577439e-04
3.275349e+01	-1.595714e-04
3.294268e+01	-1.614201e-04
3.313295e+01	-1.632901e-04
3.332433e+01	-1.651818e-04
3.351681e+01	-1.670955e-04
3.371040e+01	-1.690313e-04
3.390511e+01	-1.709895e-04
3.410094e+01	-1.729705e-04
3.429791e+01	-1.749743e-04
3.449601e+01	-1.770014e-04
3.469526e+01	-1.790520e-04
3.489566e+01	-1.811263e-04
3.509721e+01	-1.832247e-04
3.529993e+01	-1.853473e-04
3.550382e+01	-1.874946e-04
3.570889e+01	-1.896667e-04
3.591515e+01	-1.918640e-04
3.612259e+01	-1.940867e-04
3.633123e+01	-1.963352e-04
3.654108e+01	-1.986098e-04
3.675214e+01	-2.009107e-04
3.696442e+01	-2.032382e-04
3.717792e+01	-2.055928e-04
3.739266e+01	-2.079745e-04
3.760864e+01	-2.103839e-04
3.782587e+01	-2.128212e-04
3.804435e+01	-2.152868e-04
3.826409e+01	-2.177809e-04
3.848510e+01	-2.203038e-04
3.870739e+01	-2.228561e-04
3.893096e+01	-2.254378e-04
3.915583e+01	-2.280495e-04
3.938199e+01	-2.306915e-04
3.960946e+01	-2.333640e-04
3.983824e+01	-2.360675e-04
4.006834e+01	-2.388024e-04
4.029978e+01	-2.415689e-04
4.053255e+01	-2.443675e-04
4.076666e+01	-2.471984e-04
4.100213e+01	-2.500622e-04
4.123896e+01	-2.529592e-04
4.147715e+01	-2.558897e-04
4.171672e+01	-2.588542e-04
4.195767e+01	-2.618530e-04
4.220002e+01	-2.648865e-04
4.244377e+01	-2.679552e-04
4.268892e+01	-2.710594e-04
4.293549e+01	-2.741996e-04
4.318348e+01	-2.773762e-04
4.343291e+01	-2.805896e-04
4.368377e+01	-2.838402e-04
4.393609e+01	-2.871285e-04
4.418986e+01	-2.904548e-04
4.444510e+01	-2.938197e-04
4.470182e+01	-2.972236e-04
4.496001e+01	-3.006669e-04
4.521970e+01	-3.041500e-04
4.548089e+01	-3.076736e-04
4.574358e+01	-3.112379e-04
4.600779e+01	-3.148436e-04
4.627353e+01	-3.184910e-04
4.654081e+01	-3.221807e-04
4.680963e+01	-3.259131e-04
4.708000e+01	-3.296887e-04
4.735193e+01	-3.335081e-04
4.762543e+01	-3.373718e-04
4.790051e+01	-3.412802e-04
4.817719e+01	-3.452338e-04
4.845545e+01	-3.492333e-04
4.873533e+01	-3.532791e-04
4.901682e+01	-3.573718e-04
4.929994e+01	-3.615118e-04
4.958470e+01	-3.656999e-04
4.987110e+01	-3.699364e-04
5.015915e+01	-3.742221e-04
5.044887e+01	-3.785573e-04
5.074026e+01	-3.829428e-04
5.103333e+01	-3.873791e-04
5.132810e+01	-3.918668e-04
5.162457e+01	-3.964065e-04
5.192275e+01	-4.009988e-04
5.222265e+01	-4.056442e-04
5.252429e+01	-4.103435e-04
5.282767e+01	-4.150972e-04
5.313280e+01	-4.199060e-04
5.343969e+01	-4.247705e-04
5.374836e+01	-4.296914e-04
5.405880e+01	-4.346692e-04
5.437105e+01	-4.397047e-04
5.468509e+01	-4.447985e-04
5.500095e+01	-4.499514e-04
5.531863e+01	-4.551639e-04
5.563815e+01	-4.604368e-04
5.595951e+01	-4.657709e-04
5.628273e+01	-4.711666e-04
5.660782e+01	-4.766249e-04
5.693479e+01	-4.821465e-04
5.726364e+01	-4.877320e-04
5.759439e+01	-4.933821e-04
5.792705e+01	-4.990978e-04
5.826164e+01	-5.048796e-04
5.859815e+01	-5.107285e-04
5.893662e+01	-5.166450e-04
5.927703e+01	-5.226301e-04
5.961941e+01	-5.286846e-04
5.996377e+01	-5.348092e-04
6.031012e+01	-5.410047e-04
6.065847e+01	-5.472720e-04
6.100883e+01	-5.536119e-04
6.136121e+01	-5.600252e-04
6.171563e+01	-5.665128e-04
6.207210e+01	-5.730756e-04
6.243063e+01	-5.797144e-04
6.279122e+01	-5.864301e-04
6.315390e+01	-5.932236e-04
6.351868e+01	-6.000958e-04
6.388556e+01	-6.070476e-04
6.425456e+01	-6.140799e-04
6.462569e+01	-6.211937e-04
6.499897e+01	-6.283898e-04
6.537440e+01	-6.356694e-04
6.575200e+01	-6.430332e-04
6.613178e+01	-6.504824e-04
6.651375e+01	-6.580178e-04
6.689793e+01	-6.656406e-04
6.728433e+01	-6.733516e-04
6.767297e+01	-6.811520e-04
6.806384e+01	-6.890427e-04
6.845698e+01	-6.970248e-04
6.885238e+01	-7.050993e-04
6.925007e+01	-7.132674e-04
6.965005e+01	-7.215302e-04
7.005235e+01	-7.298886e-04
7.045697e+01	-7.383438e-04
7.086393e+01	-7.468970e-04
7.127323e+01	-7.555493e-04
7.168490e+01	-7.643017e-04
7.209895e+01	-7.731556e-04
7.251539e+01	-7.821120e-04
7.293424e+01	-7.911722e-04
7.335551e+01	-8.003373e-04
7.377920e+01	-8.096085e-04
7.420535e+01	-8.189872e-04
7.463396e+01	-8.284745e-04
7.506504e+01	-8.380716e-04
7.549861e+01	-8.477800e-04
7.593469e+01	-8.576008e-04
7.637328e+01	-8.675353e-04
7.681441e+01	-8.775849e-04
7.725809e+01	-8.877510e-04
7.770433e+01	-8.980347e-04
7.815315e+01	-9.084376e-04
7.860456e+01	-9.189610e-04
7.905857e+01	-9.296063e-04
7.951521e+01	-9.403749e-04
7.997449e+01	-9.512682e-04
8.043642e+01	-9.622877e-04
8.090102e+01	-9.734348e-04
8.136830e+01	-9.847110e-04
8.183828e+01	-9.961178e-04
8.231097e+01	-1.007657e-03
8.278640e+01	-1.019329e-03
8.326457e+01	-1.031137e-03
8.374550e+01	-1.043082e-03
8.422921e+01	-1.055165e-03
8.471572e+01	-1.067388e-03
8.520503e+01	-1.079752e-03
8.569717e+01	-1.092260e-03
8.619215e+01	-1.104912e-03
8.669000e+01	-1.117711e-03
8.719071e+01	-1.130659e-03
8.769432e+01	-1.143756e-03
8.820084e+01	-1.157005e-03
8.871029e+01	-1.170407e-03
8.922267e+01	-1.183965e-03
8.973802e+01	-1.197679e-03
9.025634e+01	-1.211553e-03
9.077766e+01	-1.225587e-03
9.130199e+01	-1.239784e-03
9.182935e+01	-1.254145e-03
9.235975e+01	-1.268673e-03
9.289321e+01	-1.283368e-03
9.342976e+01	-1.298234e-03
9.396941e+01	-1.313272e-03
9.451217e+01	-1.328485e-03
9.505807e+01	-1.343873e-03
9.560712e+01	-1.359440e-03
9.615934e+01	-1.375187e-03
9.671476e+01	-1.391116e-03
9.727338e+01	-1.407230e-03
9.783522e+01	-1.423530e-03
9.840032e+01	-1.440020e-03
9.896867e+01	-1.456700e-03
9.954031e+01	-1.473573e-03
1.001153e+02	-1.490642e-03
1.006935e+02	-1.507909e-03
1.012751e+02	-1.525375e-03
1.018601e+02	-1.543044e-03
1.024484e+02	-1.560917e-03
1.030402e+02	-1.578998e-03
1.036353e+02	-1.597287e-03
1.042339e+02	-1.615789e-03
1.048360e+02	-1.634505e-03
1.054415e+02	-1.653437e-03
1.060505e+02	-1.672589e-03
1.066631e+02	-1.691963e-03
1.072791e+02	-1.711561e-03
1.078988e+02	-1.731386e-03
1.085220e+02	-1.751440e-03
1.091488e+02	-1.771727e-03
1.097793e+02	-1.792249e-03
1.104133e+02	-1.813008e-03
1.110511e+02	-1.834008e-03
1.116925e+02	-1.855251e-03
1.123376e+02	-1.876739e-03
1.129865e+02	-1.898477e-03
1.136391e+02	-1.920467e-03
1.142955e+02	-1.942711e-03
1.149556e+02	-1.965213e-03
1.156196e+02	-1.987975e-03
1.162874e+02	-2.011001e-03
1.169591e+02	-2.034293e-03
1.176347e+02	-2.057856e-03
1.183141e+02	-2.081691e-03
1.189975e+02	-2.105802e-03
1.196848e+02	-2.130192e-03
1.203761e+02	-2.154865e-03
1.210714e+02	-2.179823e-03
1.217707e+02	-2.205071e-03
1.224740e+02	-2.230610e-03
1.231814e+02	-2.256446e-03
1.238929e+02	-2.282580e-03
1.246085e+02	-2.309018e-03
1.253283e+02	-2.335761e-03
1.260522e+02	-2.362814e-03
1.267802e+02	-2.390180e-03
1.275125e+02	-2.417864e-03
1.282490e+02	-2.445867e-03
1.289898e+02	-2.474195e-03
1.297348e+02	-2.502851e-03
1.304842e+02	-2.531839e-03
1.312378e+02	-2.561162e-03
1.319959e+02	-2.590825e-03
1.327583e+02	-2.620832e-03
1.335251e+02	-2.651185e-03
1.342963e+02	-2.681890e-03
1.350720e+02	-2.712951e-03
1.358522e+02	-2.744371e-03
1.366368e+02	-2.776156e-03
1.374260e+02	-2.808308e-03
1.382198e+02	-2.840832e-03
1.390182e+02	-2.873733e-03
1.398211e+02	-2.907015e-03
1.406287e+02	-2.940682e-03
1.414410e+02	-2.974739e-03
1.422579e+02	-3.009190e-03
1.430796e+02	-3.044040e-03
1.439060e+02	-3.079293e-03
1.447372e+02	-3.114955e-03
1.455732e+02	-3.151029e-03
1.464141e+02	-3.187521e-03
1.472597e+02	-3.224436e-03
1.481103e+02	-3.261778e-03
1.489658e+02	-3.299552e-03
1.498262e+02	-3.337764e-03
1.506916e+02	-3.376417e-03
1.515620e+02	-3.415519e-03
1.524374e+02	-3.455073e-03
1.533179e+02	-3.495084e-03
1.542034e+02	-3.535559e-03
1.550941e+02	-3.576503e-03
1.559899e+02	-3.617920e-03
1.568909e+02	-3.659817e-03
1.577971e+02	-3.702199e-03
1.587085e+02	-3.745071e-03
1.596252e+02	-3.788440e-03
1.605472e+02	-3.832311e-03
1.614745e+02	-3.876689e-03
1.624072e+02	-3.921581e-03
1.633453e+02	-3.966993e-03
1.642887e+02	-4.012930e-03
1.652377e+02	-4.059399e-03
1.661921e+02	-4.106406e-03
1.671520e+02	-4.153957e-03
1.681175e+02	-4.202059e-03
1.690885e+02	-4.250717e-03
1.700651e+02	-4.299938e-03
1.710474e+02	-4.349729e-03
1.720354e+02	-4.400096e-03
1.730291e+02	-4.451046e-03
1.740285e+02	-4.502586e-03
1.750337e+02	-4.554722e-03
1.760446e+02	-4.607462e-03
1.770615e+02	-4.660812e-03
1.780842e+02	-4.714779e-03
1.791128e+02	-4.769371e-03
1.801473e+02	-4.824595e-03
1.811878e+02	-4.880457e-03
1.822344e+02	-4.936966e-03
1.832870e+02	-4.994129e-03
1.843456e+02	-5.051954e-03
1.854104e+02	-5.110448e-03
1.864813e+02	-5.169618e-03
1.875584e+02	-5.229473e-03
1.886418e+02	-5.290021e-03
1.897313e+02	-5.351270e-03
1.908272e+02	-5.413227e-03
1.919294e+02	-5.475901e-03
1.930380e+02	-5.539300e-03
1.941530e+02	-5.603433e-03
1.952744e+02	-5.668307e-03
1.964023e+02	-5.733933e-03
1.975367e+02	-5.800317e-03
1.986777e+02	-5.867470e-03
1.998252e+02	-5.935400e-03
2.009794e+02	-6.004115e-03
2.021403e+02	-6.073626e-03
2.033078e+02	-6.143940e-03
2.044821e+02	-6.215068e-03
2.056632e+02	-6.287019e-03
2.068511e+02	-6.359802e-03
2.080459e+02	-6.433428e-03
2.092475e+02	-6.507905e-03
2.104561e+02	-6.583243e-03
2.116717e+02	-6.659453e-03
2.128943e+02	-6.736544e-03
2.141240e+02	-6.814528e-03
2.153608e+02	-6.893413e-03
2.166047e+02	-6.973211e-03
2.178558e+02	-7.053931e-03
2.191141e+02	-7.135585e-03
2.203797e+02	-7.218184e-03
2.216526e+02	-7.301738e-03
2.229329e+02	-7.386259e-03
2.242205e+02	-7.471756e-03
2.255156e+02	-7.558243e-03
2.268182e+02	-7.645730e-03
2.281283e+02	-7.734229e-03
2.294459e+02	-7.823751e-03
2.307712e+02	-7.914308e-03
2.321041e+02	-8.005912e-03
2.334447e+02	-8.098576e-03
2.347931e+02	-8.192312e-03
2.361493e+02	-8.287131e-03
2.375133e+02	-8.383046e-03
2.388851e+02	-8.480071e-03
2.402649e+02	-8.578218e-03
2.416527e+02	-8.677499e-03
2.430484e+02	-8.777928e-03
2.444523e+02	-8.879518e-03
2.458642e+02	-8.982283e-03
2.472843e+02	-9.086236e-03
2.487126e+02	-9.191390e-03
2.501492e+02	-9.297761e-03
2.515940e+02	-9.405361e-03
2.530472e+02	-9.514204e-03
2.545088e+02	-9.624306e-03
2.559789e+02	-9.735681e-03
2.574574e+02	-9.848343e-03
2.589444e+02	-9.962307e-03
2.604401e+02	-1.007759e-02
2.619444e+02	-1.019420e-02
2.634574e+02	-1.031216e-02
2.649791e+02	-1.043149e-02
2.665096e+02	-1.055219e-02
2.680489e+02	-1.067429e-02
2.695972e+02	-1.079780e-02
2.711544e+02	-1.092274e-02
2.727205e+02	-1.104912e-02
2.742958e+02	-1.117696e-02
2.758801e+02	-1.130628e-02
2.774736e+02	-1.143710e-02
2.790762e+02	-1.156942e-02
2.806882e+02	-1.170327e-02
2.823094e+02	-1.183867e-02
2.839400e+02	-1.197564e-02
2.855800e+02	-1.211418e-02
2.872295e+02	-1.225433e-02
2.888886e+02	-1.239610e-02
2.905572e+02	-1.253950e-02
2.922354e+02	-1.268456e-02
2.939234e+02	-1.283130e-02
2.956211e+02	-1.297973e-02
2.973286e+02	-1.312987e-02
2.990459e+02	-1.328175e-02
3.007732e+02	-1.343539e-02
3.025104e+02	-1.359080e-02
3.042577e+02	-1.374800e-02
3.060151e+02	-1.390702e-02
3.077826e+02	-1.406787e-02
3.095604e+02	-1.423058e-02
3.113484e+02	-1.439517e-02
3.131467e+02	-1.456167e-02
3.149554e+02	-1.473008e-02
3.167746e+02	-1.490044e-02
3.186043e+02	-1.507276e-02
3.204445e+02	-1.524708e-02
3.222954e+02	-1.542340e-02
3.241570e+02	-1.560176e-02
3.260293e+02	-1.578219e-02
3.279124e+02	-1.596469e-02
3.298064e+02	-1.614930e-02
3.317114e+02	-1.633604e-02
3.336273e+02	-1.652494e-02
3.355544e+02	-1.671601e-02
3.374925e+02	-1.690929e-02
3.394418e+02	-1.710480e-02
3.414024e+02	-1.730257e-02
3.433744e+02	-1.750262e-02
3.453577e+02	-1.770498e-02
3.473525e+02	-1.790967e-02
3.493588e+02	-1.811672e-02
3.513766e+02	-1.832617e-02
3.534062e+02	-1.853803e-02
3.554474e+02	-1.875233e-02
3.575005e+02	-1.896910e-02
3.595654e+02	-1.918838e-02
3.616422e+02	-1.941018e-02
3.637311e+02	-1.963454e-02
3.658320e+02	-1.986149e-02
3.679450e+02	-2.009106e-02
3.700702e+02	-2.032327e-02
3.722077e+02	-2.055816e-02
3.743576e+02	-2.079576e-02
3.765199e+02	-2.103610e-02
3.786946e+02	-2.127921e-02
3.808820e+02	-2.152512e-02
3.830819e+02	-2.177387e-02
3.852946e+02	-2.202548e-02
3.875200e+02	-2.228000e-02
3.897583e+02	-2.253745e-02
3.920096e+02	-2.279786e-02
3.942738e+02	-2.306128e-02
3.965511e+02	-2.332773e-02
3.988416e+02	-2.359725e-02
4.011452e+02	-2.386987e-02
4.034622e+02	-2.414564e-02
4.057926e+02	-2.442459e-02
4.081365e+02	-2.470674e-02
4.104938e+02	-2.499215e-02
4.128648e+02	-2.528085e-02
4.152495e+02	-2.557287e-02
4.176480e+02	-2.586825e-02
4.200603e+02	-2.616703e-02
4.224866e+02	-2.646926e-02
4.249268e+02	-2.677496e-02
4.273812e+02	-2.708419e-02
4.298497e+02	-2.739697e-02
4.323325e+02	-2.771336e-02
4.348297e+02	-2.803338e-02
4.373412e+02	-2.835709e-02
4.398673e+02	-2.868453e-02
4.424079e+02	-2.901573e-02
4.449633e+02	-2.935075e-02
4.475334e+02	-2.968962e-02
4.501183e+02	-3.003239e-02
4.527182e+02	-3.037910e-02
4.553330e+02	-3.072980e-02
4.579630e+02	-3.108454e-02
4.606082e+02	-3.144335e-02
4.632687e+02	-3.180629e-02
4.659445e+02	-3.217341e-02
4.686358e+02	-3.254475e-02
4.713426e+02	-3.292035e-02
4.740650e+02	-3.330028e-02
4.768032e+02	-3.368457e-02
4.795572e+02	-3.407328e-02
4.823271e+02	-3.446645e-02
4.851130e+02	-3.486415e-02
4.879150e+02	-3.526642e-02
4.907332e+02	-3.567330e-02
4.935676e+02	-3.608487e-02
4.964185e+02	-3.650116e-02
4.992858e+02	-3.692223e-02
5.021696e+02	-3.734814e-02
5.050701e+02	-3.777894e-02
5.079874e+02	-3.821469e-02
5.109215e+02	-3.865544e-02
5.138726e+02	-3.910125e-02
5.168407e+02	-3.955218e-02
5.198259e+02	-4.000829e-02
5.228284e+02	-4.046963e-02
5.258482e+02	-4.093627e-02
5.288855e+02	-4.140826e-02
5.319403e+02	-4.188567e-02
5.350128e+02	-4.236855e-02
5.381030e+02	-4.285697e-02
5.412111e+02	-4.335100e-02
5.443371e+02	-4.385069e-02
5.474812e+02	-4.435611e-02
5.506434e+02	-4.486733e-02
5.538239e+02	-4.538441e-02
5.570228e+02	-4.590741e-02
5.602401e+02	-4.643642e-02
5.634760e+02	-4.697148e-02
5.667306e+02	-4.751267e-02
5.700040e+02	-4.806007e-02
5.732964e+02	-4.861373e-02
5.766077e+02	-4.917374e-02
5.799382e+02	-4.974017e-02
5.832879e+02	-5.031307e-02
5.866569e+02	-5.089254e-02
5.900454e+02	-5.147865e-02
5.934535e+02	-5.207146e-02
5.968813e+02	-5.267106e-02
6.003288e+02	-5.327752e-02
6.037963e+02	-5.389091e-02
6.072838e+02	-5.451133e-02
6.107914e+02	-5.513884e-02
6.143194e+02	-5.577353e-02
6.178676e+02	-5.641548e-02
6.214364e+02	-5.706477e-02
6.250258e+02	-5.772148e-02
6.286359e+02	-5.838570e-02
6.322669e+02	-5.905751e-02
6.359189e+02	-5.973700e-02
6.395919e+02	-6.042425e-02
6.432862e+02	-6.111935e-02
6.470017e+02	-6.182239e-02
6.507388e+02	-6.253345e-02
6.544974e+02	-6.325264e-02
6.582778e+02	-6.398004e-02
6.620800e+02	-6.471574e-02
6.659041e+02	-6.545983e-02
6.697504e+02	-6.621241e-02
6.736188e+02	-6.697358e-02
6.775096e+02	-6.774344e-02
6.814229e+02	-6.852207e-02
6.853587e+02	-6.930958e-02
6.893173e+02	-7.010606e-02
6.932988e+02	-7.091163e-02
6.973033e+02	-7.172637e-02
7.013309e+02	-7.255040e-02
