Frequency(Hz)	Magnitude(dB)
1.000000e+01	-1.590834e-05
1.005776e+01	-1.609264e-05
1.011585e+01	-1.627908e-05
1.017428e+01	-1.646767e-05
1.023305e+01	-1.665846e-05
1.029215e+01	-1.685145e-05
1.035160e+01	-1.704668e-05
1.041139e+01	-1.724417e-05
1.047153e+01	-1.744395e-05
1.053201e+01	-1.764604e-05
1.059284e+01	-1.785047e-05
1.065403e+01	-1.805727e-05
1.071556e+01	-1.826647e-05
1.077746e+01	-1.847809e-05
1.083971e+01	-1.869217e-05
1.090232e+01	-1.890872e-05
1.096529e+01	-1.912778e-05
1.102862e+01	-1.934938e-05
1.109232e+01	-1.957355e-05
1.115639e+01	-1.980032e-05
1.122083e+01	-2.002971e-05
1.128564e+01	-2.026176e-05
1.135083e+01	-2.049649e-05
1.141639e+01	-2.073395e-05
1.148233e+01	-2.097416e-05
1.154865e+01	-2.121715e-05
1.161536e+01	-2.146296e-05
1.168245e+01	-2.171161e-05
1.174992e+01	-2.196314e-05
1.181779e+01	-2.221759e-05
1.188605e+01	-2.247499e-05
1.195470e+01	-2.273537e-05
1.202375e+01	-2.299876e-05
1.209320e+01	-2.326521e-05
1.216305e+01	-2.353474e-05
1.223330e+01	-2.380740e-05
1.230396e+01	-2.408321e-05
1.237503e+01	-2.436222e-05
1.244651e+01	-2.464447e-05
1.251840e+01	-2.492998e-05
1.259070e+01	-2.521880e-05
1.266343e+01	-2.551096e-05
1.273657e+01	-2.580651e-05
1.281014e+01	-2.610549e-05
1.288413e+01	-2.640793e-05
1.295855e+01	-2.671387e-05
1.303339e+01	-2.702336e-05
1.310867e+01	-2.733643e-05
1.318439e+01	-2.765313e-05
1.326054e+01	-2.797350e-05
1.333713e+01	-2.829758e-05
1.341417e+01	-2.862541e-05
1.349165e+01	-2.895704e-05
1.356958e+01	-2.929252e-05
1.364795e+01	-2.963188e-05
1.372678e+01	-2.997517e-05
1.380607e+01	-3.032244e-05
1.388581e+01	-3.067373e-05
1.396602e+01	-3.102909e-05
1.404668e+01	-3.138857e-05
1.412782e+01	-3.175222e-05
1.420942e+01	-3.212008e-05
1.429149e+01	-3.249219e-05
1.437404e+01	-3.286862e-05
1.445706e+01	-3.324941e-05
1.454057e+01	-3.363462e-05
1.462455e+01	-3.402428e-05
1.470902e+01	-3.441846e-05
1.479398e+01	-3.481721e-05
1.487943e+01	-3.522057e-05
1.496537e+01	-3.562861e-05
1.505181e+01	-3.604138e-05
1.513875e+01	-3.645892e-05
1.522619e+01	-3.688131e-05
1.531414e+01	-3.730859e-05
1.540259e+01	-3.774082e-05
1.549156e+01	-3.817805e-05
1.558103e+01	-3.862035e-05
1.567103e+01	-3.906778e-05
1.576155e+01	-3.952039e-05
1.585258e+01	-3.997824e-05
1.594415e+01	-4.044140e-05
1.603624e+01	-4.090992e-05
1.612886e+01	-4.138387e-05
1.622202e+01	-4.186331e-05
1.631572e+01	-4.234831e-05
1.640996e+01	-4.283892e-05
1.650474e+01	-4.333522e-05
1.660008e+01	-4.383727e-05
1.669596e+01	-4.434513e-05
1.679239e+01	-4.485888e-05
1.688938e+01	-4.537858e-05
1.698694e+01	-4.590430e-05
1.708505e+01	-4.643611e-05
1.718373e+01	-4.697409e-05
1.728299e+01	-4.751829e-05
1.738281e+01	-4.806880e-05
1.748322e+01	-4.862569e-05
1.758420e+01	-4.918903e-05
1.768576e+01	-4.975889e-05
1.778792e+01	-5.033536e-05
1.789066e+01	-5.091851e-05
1.799399e+01	-5.150841e-05
1.809793e+01	-5.210514e-05
1.820246e+01	-5.270879e-05
1.830760e+01	-5.331944e-05
1.841334e+01	-5.393715e-05
1.851969e+01	-5.456203e-05
1.862666e+01	-5.519414e-05
1.873425e+01	-5.583357e-05
1.884246e+01	-5.648042e-05
1.895129e+01	-5.713475e-05
1.906075e+01	-5.779667e-05
1.917085e+01	-5.846626e-05
1.928158e+01	-5.914360e-05
1.939295e+01	-5.982879e-05
1.950496e+01	-6.052192e-05
1.961762e+01	-6.122308e-05
1.973093e+01	-6.193236e-05
1.984490e+01	-6.264986e-05
1.995952e+01	-6.337567e-05
2.007480e+01	-6.410989e-05
2.019076e+01	-6.485261e-05
2.030738e+01	-6.560394e-05
2.042467e+01	-6.636398e-05
2.054264e+01	-6.713282e-05
2.066130e+01	-6.791056e-05
2.078064e+01	-6.869732e-05
2.090066e+01	-6.949319e-05
2.102139e+01	-7.029828e-05
2.114280e+01	-7.111270e-05
2.126492e+01	-7.193656e-05
2.138775e+01	-7.276995e-05
2.151128e+01	-7.361301e-05
2.163553e+01	-7.446583e-05
2.176050e+01	-7.532853e-05
2.188619e+01	-7.620122e-05
2.201260e+01	-7.708403e-05
2.213974e+01	-7.797706e-05
2.226762e+01	-7.888044e-05
2.239624e+01	-7.979428e-05
2.252560e+01	-8.071871e-05
2.265571e+01	-8.165385e-05
2.278656e+01	-8.259982e-05
2.291818e+01	-8.355676e-05
2.305055e+01	-8.452478e-05
2.318369e+01	-8.550401e-05
2.331760e+01	-8.649459e-05
2.345228e+01	-8.749664e-05
2.358774e+01	-8.851030e-05
2.372398e+01	-8.953571e-05
2.386101e+01	-9.057299e-05
2.399883e+01	-9.162230e-05
2.413745e+01	-9.268376e-05
2.427686e+01	-9.375751e-05
2.441709e+01	-9.484371e-05
2.455812e+01	-9.594249e-05
2.469997e+01	-9.705399e-05
2.484263e+01	-9.817838e-05
2.498612e+01	-9.931579e-05
2.513044e+01	-1.004664e-04
2.527559e+01	-1.016303e-04
2.542158e+01	-1.028077e-04
2.556842e+01	-1.039987e-04
2.571610e+01	-1.052036e-04
2.586463e+01	-1.064224e-04
2.601403e+01	-1.076553e-04
2.616428e+01	-1.089025e-04
2.631541e+01	-1.101641e-04
2.646740e+01	-1.114404e-04
2.662028e+01	-1.127315e-04
2.677404e+01	-1.140375e-04
2.692868e+01	-1.153586e-04
2.708422e+01	-1.166951e-04
2.724066e+01	-1.180470e-04
2.739800e+01	-1.194146e-04
2.755625e+01	-1.207980e-04
2.771541e+01	-1.221975e-04
2.787550e+01	-1.236131e-04
2.803650e+01	-1.250452e-04
2.819844e+01	-1.264939e-04
2.836131e+01	-1.279593e-04
2.852513e+01	-1.294417e-04
2.868989e+01	-1.309413e-04
2.885560e+01	-1.324583e-04
2.902227e+01	-1.339928e-04
2.918990e+01	-1.355452e-04
2.935850e+01	-1.371155e-04
2.952807e+01	-1.387040e-04
2.969863e+01	-1.403109e-04
2.987016e+01	-1.419364e-04
3.004269e+01	-1.435807e-04
3.021622e+01	-1.452441e-04
3.039075e+01	-1.469268e-04
3.056628e+01	-1.486289e-04
3.074283e+01	-1.503508e-04
3.092040e+01	-1.520926e-04
3.109900e+01	-1.538546e-04
3.127862e+01	-1.556371e-04
3.145929e+01	-1.574401e-04
3.164099e+01	-1.592641e-04
3.182375e+01	-1.611092e-04
3.200756e+01	-1.629756e-04
3.219244e+01	-1.648637e-04
3.237838e+01	-1.667737e-04
3.256540e+01	-1.687057e-04
3.275349e+01	-1.706602e-04
3.294268e+01	-1.726373e-04
3.313295e+01	-1.746373e-04
3.332433e+01	-1.766605e-04
3.351681e+01	-1.787071e-04
3.371040e+01	-1.807775e-04
3.390511e+01	-1.828718e-04
3.410094e+01	-1.849903e-04
3.429791e+01	-1.871335e-04
3.449601e+01	-1.893014e-04
3.469526e+01	-1.914945e-04
3.489566e+01	-1.937129e-04
3.509721e+01	-1.959571e-04
3.529993e+01	-1.982273e-04
3.550382e+01	-2.005237e-04
3.570889e+01	-2.028468e-04
3.591515e+01	-2.051968e-04
3.612259e+01	-2.075740e-04
3.633123e+01	-2.099787e-04
3.654108e+01	-2.124113e-04
3.675214e+01	-2.148721e-04
3.696442e+01	-2.173614e-04
3.717792e+01	-2.198795e-04
3.739266e+01	-2.224268e-04
3.760864e+01	-2.250036e-04
3.782587e+01	-2.276103e-04
3.804435e+01	-2.302472e-04
3.826409e+01	-2.329146e-04
3.848510e+01	-2.356129e-04
3.870739e+01	-2.383424e-04
3.893096e+01	-2.411036e-04
3.915583e+01	-2.438968e-04
3.938199e+01	-2.467223e-04
3.960946e+01	-2.495806e-04
3.983824e+01	-2.524720e-04
4.006834e+01	-2.553969e-04
4.029978e+01	-2.583556e-04
4.053255e+01	-2.613486e-04
4.076666e+01	-2.643763e-04
4.100213e+01	-2.674391e-04
4.123896e+01	-2.705374e-04
4.147715e+01	-2.736715e-04
4.171672e+01	-2.768420e-04
4.195767e+01	-2.800492e-04
4.220002e+01	-2.832935e-04
4.244377e+01	-2.865755e-04
4.268892e+01	-2.898954e-04
4.293549e+01	-2.932538e-04
4.318348e+01	-2.966511e-04
4.343291e+01	-3.000878e-04
4.368377e+01	-3.035643e-04
4.393609e+01	-3.070810e-04
4.418986e+01	-3.106385e-04
4.444510e+01	-3.142372e-04
4.470182e+01	-3.178776e-04
4.496001e+01	-3.215602e-04
4.521970e+01	-3.252854e-04
4.548089e+01	-3.290538e-04
4.574358e+01	-3.328658e-04
4.600779e+01	-3.367220e-04
4.627353e+01	-3.406229e-04
4.654081e+01	-3.445689e-04
4.680963e+01	-3.485607e-04
4.708000e+01	-3.525987e-04
4.735193e+01	-3.566835e-04
4.762543e+01	-3.608156e-04
4.790051e+01	-3.649956e-04
4.817719e+01	-3.692239e-04
4.845545e+01	-3.735013e-04
4.873533e+01	-3.778283e-04
4.901682e+01	-3.822053e-04
4.929994e+01	-3.866331e-04
4.958470e+01	-3.911121e-04
4.987110e+01	-3.956430e-04
5.015915e+01	-4.002265e-04
5.044887e+01	-4.048630e-04
5.074026e+01	-4.095532e-04
5.103333e+01	-4.142978e-04
5.132810e+01	-4.190973e-04
5.162457e+01	-4.239524e-04
5.192275e+01	-4.288638e-04
5.222265e+01	-4.338320e-04
5.252429e+01	-4.388579e-04
5.282767e+01	-4.439419e-04
5.313280e+01	-4.490848e-04
5.343969e+01	-4.542873e-04
5.374836e+01	-4.595501e-04
5.405880e+01	-4.648738e-04
5.437105e+01	-4.702592e-04
5.468509e+01	-4.757070e-04
5.500095e+01	-4.812179e-04
5.531863e+01	-4.867926e-04
5.563815e+01	-4.924319e-04
5.595951e+01	-4.981365e-04
5.628273e+01	-5.039073e-04
5.660782e+01	-5.097448e-04
5.693479e+01	-5.156500e-04
5.726364e+01	-5.216236e-04
5.759439e+01	-5.276664e-04
5.792705e+01	-5.337792e-04
5.826164e+01	-5.399628e-04
5.859815e+01	-5.462180e-04
5.893662e+01	-5.525457e-04
5.927703e+01	-5.589467e-04
5.961941e+01	-5.654218e-04
5.996377e+01	-5.719719e-04
6.031012e+01	-5.785979e-04
6.065847e+01	-5.853007e-04
6.100883e+01	-5.920811e-04
6.136121e+01	-5.989401e-04
6.171563e+01	-6.058785e-04
6.207210e+01	-6.128972e-04
6.243063e+01	-6.199973e-04
6.279122e+01	-6.271796e-04
6.315390e+01	-6.344451e-04
6.351868e+01	-6.417948e-04
6.388556e+01	-6.492296e-04
6.425456e+01	-6.567506e-04
6.462569e+01	-6.643586e-04
6.499897e+01	-6.720548e-04
6.537440e+01	-6.798401e-04
6.575200e+01	-6.877156e-04
6.613178e+01	-6.956824e-04
6.651375e+01	-7.037414e-04
6.689793e+01	-7.118938e-04
6.728433e+01	-7.201406e-04
6.767297e+01	-7.284829e-04
6.806384e+01	-7.369219e-04
6.845698e+01	-7.454586e-04
6.885238e+01	-7.540942e-04
6.925007e+01	-7.628298e-04
6.965005e+01	-7.716666e-04
7.005235e+01	-7.806057e-04
7.045697e+01	-7.896485e-04
7.086393e+01	-7.987959e-04
7.127323e+01	-8.080493e-04
7.168490e+01	-8.174099e-04
7.209895e+01	-8.268789e-04
7.251539e+01	-8.364576e-04
7.293424e+01	-8.461473e-04
7.335551e+01	-8.559491e-04
7.377920e+01	-8.658646e-04
7.420535e+01	-8.758948e-04
7.463396e+01	-8.860413e-04
7.506504e+01	-8.963052e-04
7.549861e+01	-9.066881e-04
7.593469e+01	-9.171912e-04
7.637328e+01	-9.278160e-04
7.681441e+01	-9.385638e-04
7.725809e+01	-9.494362e-04
7.770433e+01	-9.604344e-04
7.815315e+01	-9.715601e-04
7.860456e+01	-9.828146e-04
7.905857e+01	-9.941995e-04
7.951521e+01	-1.005716e-03
7.997449e+01	-1.017366e-03
8.043642e+01	-1.029151e-03
8.090102e+01	-1.041073e-03
8.136830e+01	-1.053133e-03
8.183828e+01	-1.065332e-03
8.231097e+01	-1.077673e-03
8.278640e+01	-1.090156e-03
8.326457e+01	-1.102784e-03
8.374550e+01	-1.115559e-03
8.422921e+01	-1.128481e-03
8.471572e+01	-1.141553e-03
8.520503e+01	-1.154777e-03
8.569717e+01	-1.168153e-03
8.619215e+01	-1.181685e-03
8.669000e+01	-1.195373e-03
8.719071e+01	-1.209220e-03
8.769432e+01	-1.223227e-03
8.820084e+01	-1.237396e-03
8.871029e+01	-1.251730e-03
8.922267e+01	-1.266229e-03
8.973802e+01	-1.280897e-03
9.025634e+01	-1.295734e-03
9.077766e+01	-1.310743e-03
9.130199e+01	-1.325926e-03
9.182935e+01	-1.341285e-03
9.235975e+01	-1.356822e-03
9.289321e+01	-1.372538e-03
9.342976e+01	-1.388437e-03
9.396941e+01	-1.404520e-03
9.451217e+01	-1.420789e-03
9.505807e+01	-1.437247e-03
9.560712e+01	-1.453895e-03
9.615934e+01	-1.470736e-03
9.671476e+01	-1.487772e-03
9.727338e+01	-1.505005e-03
9.783522e+01	-1.522438e-03
9.840032e+01	-1.540072e-03
9.896867e+01	-1.557911e-03
9.954031e+01	-1.575957e-03
1.001153e+02	-1.594211e-03
1.006935e+02	-1.612677e-03
1.012751e+02	-1.631357e-03
1.018601e+02	-1.650253e-03
1.024484e+02	-1.669368e-03
1.030402e+02	-1.688704e-03
1.036353e+02	-1.708265e-03
1.042339e+02	-1.728051e-03
1.048360e+02	-1.748067e-03
1.054415e+02	-1.768315e-03
1.060505e+02	-1.788797e-03
1.066631e+02	-1.809517e-03
1.072791e+02	-1.830476e-03
1.078988e+02	-1.851678e-03
1.085220e+02	-1.873125e-03
1.091488e+02	-1.894821e-03
1.097793e+02	-1.916769e-03
1.104133e+02	-1.938970e-03
1.110511e+02	-1.961428e-03
1.116925e+02	-1.984147e-03
1.123376e+02	-2.007128e-03
1.129865e+02	-2.030376e-03
1.136391e+02	-2.053893e-03
1.142955e+02	-2.077682e-03
1.149556e+02	-2.101747e-03
1.156196e+02	-2.126090e-03
1.162874e+02	-2.150715e-03
1.169591e+02	-2.175626e-03
1.176347e+02	-2.200824e-03
1.183141e+02	-2.226315e-03
1.189975e+02	-2.252101e-03
1.196848e+02	-2.278185e-03
1.203761e+02	-2.304572e-03
1.210714e+02	-2.331263e-03
1.217707e+02	-2.358264e-03
1.224740e+02	-2.385578e-03
1.231814e+02	-2.413208e-03
1.238929e+02	-2.441158e-03
1.246085e+02	-2.469431e-03
1.253283e+02	-2.498032e-03
1.260522e+02	-2.526964e-03
1.267802e+02	-2.556231e-03
1.275125e+02	-2.585836e-03
1.282490e+02	-2.615785e-03
1.289898e+02	-2.646080e-03
1.297348e+02	-2.676726e-03
1.304842e+02	-2.707727e-03
1.312378e+02	-2.739087e-03
1.319959e+02	-2.770810e-03
1.327583e+02	-2.802900e-03
1.335251e+02	-2.835362e-03
1.342963e+02	-2.868199e-03
1.350720e+02	-2.901417e-03
1.358522e+02	-2.935020e-03
1.366368e+02	-2.969011e-03
1.374260e+02	-3.003396e-03
1.382198e+02	-3.038179e-03
1.390182e+02	-3.073364e-03
1.398211e+02	-3.108957e-03
1.406287e+02	-3.144962e-03
1.414410e+02	-3.181384e-03
1.422579e+02	-3.218228e-03
1.430796e+02	-3.255498e-03
1.439060e+02	-3.293199e-03
1.447372e+02	-3.331337e-03
1.455732e+02	-3.369916e-03
1.464141e+02	-3.408942e-03
1.472597e+02	-3.448420e-03
1.481103e+02	-3.488355e-03
1.489658e+02	-3.528752e-03
1.498262e+02	-3.569617e-03
1.506916e+02	-3.610954e-03
1.515620e+02	-3.652771e-03
1.524374e+02	-3.695071e-03
1.533179e+02	-3.737861e-03
1.542034e+02	-3.781146e-03
1.550941e+02	-3.824932e-03
1.559899e+02	-3.869225e-03
1.568909e+02	-3.914031e-03
1.577971e+02	-3.959355e-03
1.587085e+02	-4.005204e-03
1.596252e+02	-4.051584e-03
1.605472e+02	-4.098500e-03
1.614745e+02	-4.145960e-03
1.624072e+02	-4.193969e-03
1.633453e+02	-4.242533e-03
1.642887e+02	-4.291660e-03
1.652377e+02	-4.341355e-03
1.661921e+02	-4.391625e-03
1.671520e+02	-4.442477e-03
1.681175e+02	-4.493918e-03
1.690885e+02	-4.545953e-03
1.700651e+02	-4.598592e-03
1.710474e+02	-4.651839e-03
1.720354e+02	-4.705702e-03
1.730291e+02	-4.760189e-03
1.740285e+02	-4.815307e-03
1.750337e+02	-4.871062e-03
1.760446e+02	-4.927462e-03
1.770615e+02	-4.984515e-03
1.780842e+02	-5.042229e-03
1.791128e+02	-5.100610e-03
1.801473e+02	-5.159666e-03
1.811878e+02	-5.219406e-03
1.822344e+02	-5.279838e-03
1.832870e+02	-5.340968e-03
1.843456e+02	-5.402806e-03
1.854104e+02	-5.465360e-03
1.864813e+02	-5.528637e-03
1.875584e+02	-5.592646e-03
1.886418e+02	-5.657396e-03
1.897313e+02	-5.722895e-03
1.908272e+02	-5.789152e-03
1.919294e+02	-5.856175e-03
1.930380e+02	-5.923974e-03
1.941530e+02	-5.992558e-03
1.952744e+02	-6.061934e-03
1.964023e+02	-6.132114e-03
1.975367e+02	-6.203105e-03
1.986777e+02	-6.274917e-03
1.998252e+02	-6.347561e-03
2.009794e+02	-6.421044e-03
2.021403e+02	-6.495378e-03
2.033078e+02	-6.570571e-03
2.044821e+02	-6.646635e-03
2.056632e+02	-6.723578e-03
2.068511e+02	-6.801411e-03
2.080459e+02	-6.880145e-03
2.092475e+02	-6.959789e-03
2.104561e+02	-7.040354e-03
2.116717e+02	-7.121851e-03
2.128943e+02	-7.204291e-03
2.141240e+02	-7.287685e-03
2.153608e+02	-7.372042e-03
2.166047e+02	-7.457376e-03
2.178558e+02	-7.543696e-03
2.191141e+02	-7.631015e-03
2.203797e+02	-7.719343e-03
2.216526e+02	-7.808693e-03
2.229329e+02	-7.899076e-03
2.242205e+02	-7.990505e-03
2.255156e+02	-8.082990e-03
2.268182e+02	-8.176545e-03
2.281283e+02	-8.271182e-03
2.294459e+02	-8.366913e-03
2.307712e+02	-8.463751e-03
2.321041e+02	-8.561709e-03
2.334447e+02	-8.660799e-03
2.347931e+02	-8.761036e-03
2.361493e+02	-8.862430e-03
2.375133e+02	-8.964998e-03
2.388851e+02	-9.068751e-03
2.402649e+02	-9.173703e-03
2.416527e+02	-9.279869e-03
2.430484e+02	-9.387262e-03
2.444523e+02	-9.495896e-03
2.458642e+02	-9.605787e-03
2.472843e+02	-9.716947e-03
2.487126e+02	-9.829393e-03
2.501492e+02	-9.943138e-03
2.515940e+02	-1.005820e-02
2.530472e+02	-1.017459e-02
2.545088e+02	-1.029232e-02
2.559789e+02	-1.041142e-02
2.574574e+02	-1.053189e-02
2.589444e+02	-1.065375e-02
2.604401e+02	-1.077703e-02
2.619444e+02	-1.090173e-02
2.634574e+02	-1.102786e-02
2.649791e+02	-1.115546e-02
2.665096e+02	-1.128453e-02
2.680489e+02	-1.141509e-02
2.695972e+02	-1.154716e-02
2.711544e+02	-1.168076e-02
2.727205e+02	-1.181590e-02
2.742958e+02	-1.195260e-02
2.758801e+02	-1.209088e-02
2.774736e+02	-1.223076e-02
2.790762e+02	-1.237225e-02
2.806882e+02	-1.251538e-02
2.823094e+02	-1.266016e-02
2.839400e+02	-1.280662e-02
2.855800e+02	-1.295476e-02
2.872295e+02	-1.310462e-02
2.888886e+02	-1.325621e-02
2.905572e+02	-1.340954e-02
2.922354e+02	-1.356465e-02
2.939234e+02	-1.372155e-02
2.956211e+02	-1.388027e-02
2.973286e+02	-1.404081e-02
2.990459e+02	-1.420321e-02
3.007732e+02	-1.436749e-02
3.025104e+02	-1.453366e-02
3.042577e+02	-1.470175e-02
3.060151e+02	-1.487178e-02
3.077826e+02	-1.504377e-02
3.095604e+02	-1.521775e-02
3.113484e+02	-1.539374e-02
3.131467e+02	-1.557176e-02
3.149554e+02	-1.575183e-02
3.167746e+02	-1.593399e-02
3.186043e+02	-1.611824e-02
3.204445e+02	-1.630462e-02
3.222954e+02	-1.649316e-02
3.241570e+02	-1.668387e-02
3.260293e+02	-1.687678e-02
3.279124e+02	-1.707191e-02
3.298064e+02	-1.726930e-02
3.317114e+02	-1.746897e-02
3.336273e+02	-1.767094e-02
3.355544e+02	-1.787523e-02
3.374925e+02	-1.808189e-02
3.394418e+02	-1.829093e-02
3.414024e+02	-1.850238e-02
3.433744e+02	-1.871627e-02
3.453577e+02	-1.893263e-02
3.473525e+02	-1.915149e-02
3.493588e+02	-1.937287e-02
3.513766e+02	-1.959680e-02
3.534062e+02	-1.982331e-02
3.554474e+02	-2.005244e-02
3.575005e+02	-2.028420e-02
3.595654e+02	-2.051864e-02
3.616422e+02	-2.075579e-02
3.637311e+02	-2.099567e-02
3.658320e+02	-2.123831e-02
3.679450e+02	-2.148375e-02
3.700702e+02	-2.173202e-02
3.722077e+02	-2.198315e-02
3.743576e+02	-2.223718e-02
3.765199e+02	-2.249413e-02
3.786946e+02	-2.275405e-02
3.808820e+02	-2.301696e-02
3.830819e+02	-2.328290e-02
3.852946e+02	-2.355190e-02
3.875200e+02	-2.382400e-02
3.897583e+02	-2.409924e-02
3.920096e+02	-2.437765e-02
3.942738e+02	-2.465927e-02
3.965511e+02	-2.494413e-02
3.988416e+02	-2.523227e-02
4.011452e+02	-2.552373e-02
4.034622e+02	-2.581855e-02
4.057926e+02	-2.611676e-02
4.081365e+02	-2.641841e-02
4.104938e+02	-2.672352e-02
4.128648e+02	-2.703216e-02
4.152495e+02	-2.734434e-02
4.176480e+02	-2.766012e-02
4.200603e+02	-2.797953e-02
4.224866e+02	-2.830263e-02
4.249268e+02	-2.862943e-02
4.273812e+02	-2.896000e-02
4.298497e+02	-2.929438e-02
4.323325e+02	-2.963260e-02
4.348297e+02	-2.997471e-02
4.373412e+02	-3.032076e-02
4.398673e+02	-3.067079e-02
4.424079e+02	-3.102484e-02
4.449633e+02	-3.138297e-02
4.475334e+02	-3.174522e-02
4.501183e+02	-3.211163e-02
4.527182e+02	-3.248226e-02
4.553330e+02	-3.285714e-02
4.579630e+02	-3.323634e-02
4.606082e+02	-3.361990e-02
4.632687e+02	-3.400786e-02
4.659445e+02	-3.440029e-02
4.686358e+02	-3.479722e-02
4.713426e+02	-3.519872e-02
4.740650e+02	-3.560483e-02
4.768032e+02	-3.601561e-02
4.795572e+02	-3.643110e-02
4.823271e+02	-3.685137e-02
4.851130e+02	-3.727646e-02
4.879150e+02	-3.770644e-02
4.907332e+02	-3.814136e-02
4.935676e+02	-3.858126e-02
4.964185e+02	-3.902622e-02
4.992858e+02	-3.947629e-02
5.021696e+02	-3.993153e-02
5.050701e+02	-4.039199e-02
5.079874e+02	-4.085773e-02
5.109215e+02	-4.132882e-02
5.138726e+02	-4.180532e-02
5.168407e+02	-4.228728e-02
5.198259e+02	-4.277477e-02
5.228284e+02	-4.326785e-02
5.258482e+02	-4.376659e-02
5.288855e+02	-4.427104e-02
5.319403e+02	-4.478128e-02
5.350128e+02	-4.529737e-02
5.381030e+02	-4.581938e-02
5.412111e+02	-4.634737e-02
5.443371e+02	-4.688141e-02
5.474812e+02	-4.742157e-02
5.506434e+02	-4.796792e-02
5.538239e+02	-4.852053e-02
5.570228e+02	-4.907947e-02
5.602401e+02	-4.964482e-02
5.634760e+02	-5.021663e-02
5.667306e+02	-5.079500e-02
5.700040e+02	-5.137998e-02
5.732964e+02	-5.197166e-02
5.766077e+02	-5.257012e-02
5.799382e+02	-5.317542e-02
5.832879e+02	-5.378765e-02
5.866569e+02	-5.440688e-02
5.900454e+02	-5.503320e-02
5.934535e+02	-5.566668e-02
5.968813e+02	-5.630741e-02
6.003288e+02	-5.695546e-02
6.037963e+02	-5.761092e-02
6.072838e+02	-5.827387e-02
6.107914e+02	-5.894440e-02
6.143194e+02	-5.962259e-02
6.178676e+02	-6.030853e-02
6.214364e+02	-6.100231e-02
6.250258e+02	-6.170401e-02
6.286359e+02	-6.241373e-02
6.322669e+02	-6.313154e-02
6.359189e+02	-6.385756e-02
6.395919e+02	-6.459186e-02
6.432862e+02	-6.533453e-02
6.470017e+02	-6.608569e-02
6.507388e+02	-6.684541e-02
6.544974e+02	-6.761380e-02
6.582778e+02	-6.839095e-02
6.620800e+02	-6.917696e-02
6.659041e+02	-6.997193e-02
6.697504e+02	-7.077597e-02
6.736188e+02	-7.158916e-02
6.775096e+02	-7.241163e-02
6.814229e+02	-7.324346e-02
6.853587e+02	-7.408476e-02
6.893173e+02	-7.493564e-02
6.932988e+02	-7.579622e-02
6.973033e+02	-7.666658e-02
7.013309e+02	-7.754685e-02
