Frequency(Hz)	Magnitude(dB)
1.000000e+01	-2.305412e+00
1.005776e+01	-2.326218e+00
1.011585e+01	-2.346843e+00
1.017428e+01	-2.368161e+00
1.023305e+01	-2.388990e+00
1.029215e+01	-2.410105e+00
1.035160e+01	-2.431765e+00
1.041139e+01	-2.453267e+00
1.047153e+01	-2.474741e+00
1.053201e+01	-2.496803e+00
1.059284e+01	-2.518388e+00
1.065403e+01	-2.540620e+00
1.071556e+01	-2.562711e+00
1.077746e+01	-2.585163e+00
1.083971e+01	-2.607860e+00
1.090232e+01	-2.630361e+00
1.096529e+01	-2.653225e+00
1.102862e+01	-2.676214e+00
1.109232e+01	-2.699236e+00
1.115639e+01	-2.722431e+00
1.122083e+01	-2.745893e+00
1.128564e+01	-2.769536e+00
1.135083e+01	-2.792942e+00
1.141639e+01	-2.816873e+00
1.148233e+01	-2.840643e+00
1.154865e+01	-2.864836e+00
1.161536e+01	-2.888988e+00
1.168245e+01	-2.913210e+00
1.174992e+01	-2.938004e+00
1.181779e+01	-2.962533e+00
1.188605e+01	-2.987454e+00
1.195470e+01	-3.012536e+00
1.202375e+01	-3.037414e+00
1.209320e+01	-3.062969e+00
1.216305e+01	-3.088062e+00
1.223330e+01	-3.113664e+00
1.230396e+01	-3.139299e+00
1.237503e+01	-3.165127e+00
1.244651e+01	-3.190915e+00
1.251840e+01	-3.216948e+00
1.259070e+01	-3.243444e+00
1.266343e+01	-3.270025e+00
1.273657e+01	-3.296416e+00
1.281014e+01	-3.323130e+00
1.288413e+01	-3.349736e+00
1.295855e+01	-3.376944e+00
1.303339e+01	-3.403809e+00
1.310867e+01	-3.431347e+00
1.318439e+01	-3.458425e+00
1.326054e+01	-3.486225e+00
1.333713e+01	-3.513609e+00
1.341417e+01	-3.541583e+00
1.349165e+01	-3.569586e+00
1.356958e+01	-3.597664e+00
1.364795e+01	-3.625944e+00
1.372678e+01	-3.654367e+00
1.380607e+01	-3.682861e+00
1.388581e+01	-3.711209e+00
1.396602e+01	-3.740264e+00
1.404668e+01	-3.769404e+00
1.412782e+01	-3.798254e+00
1.420942e+01	-3.827388e+00
1.429149e+01	-3.856953e+00
1.437404e+01	-3.886410e+00
1.445706e+01	-3.916270e+00
1.454057e+01	-3.945846e+00
1.462455e+01	-3.975955e+00
1.470902e+01	-4.005712e+00
1.479398e+01	-4.036037e+00
1.487943e+01	-4.066526e+00
1.496537e+01	-4.096976e+00
1.505181e+01	-4.127499e+00
1.513875e+01	-4.158145e+00
1.522619e+01	-4.189535e+00
1.531414e+01	-4.220202e+00
1.540259e+01	-4.251474e+00
1.549156e+01	-4.282499e+00
1.558103e+01	-4.313943e+00
1.567103e+01	-4.345789e+00
1.576155e+01	-4.377387e+00
1.585258e+01	-4.409081e+00
1.594415e+01	-4.440927e+00
1.603624e+01	-4.473562e+00
1.612886e+01	-4.505626e+00
1.622202e+01	-4.537691e+00
1.631572e+01	-4.570341e+00
1.640996e+01	-4.603000e+00
1.650474e+01	-4.635647e+00
1.660008e+01	-4.668630e+00
1.669596e+01	-4.701585e+00
1.679239e+01	-4.734882e+00
1.688938e+01	-4.767963e+00
1.698694e+01	-4.801400e+00
1.708505e+01	-4.835245e+00
1.718373e+01	-4.868605e+00
1.728299e+01	-4.902745e+00
1.738281e+01	-4.936301e+00
1.748322e+01	-4.970680e+00
1.758420e+01	-5.004654e+00
1.768576e+01	-5.038912e+00
1.778792e+01	-5.073522e+00
1.789066e+01	-5.108017e+00
1.799399e+01	-5.142290e+00
1.809793e+01	-5.177332e+00
1.820246e+01	-5.211845e+00
1.830760e+01	-5.247268e+00
1.841334e+01	-5.282487e+00
1.851969e+01	-5.317602e+00
1.862666e+01	-5.352639e+00
1.873425e+01	-5.388645e+00
1.884246e+01	-5.424087e+00
1.895129e+01	-5.459791e+00
1.906075e+01	-5.495815e+00
1.917085e+01	-5.531673e+00
1.928158e+01	-5.567722e+00
1.939295e+01	-5.603806e+00
1.950496e+01	-5.640358e+00
1.961762e+01	-5.676479e+00
1.973093e+01	-5.713388e+00
1.984490e+01	-5.750079e+00
1.995952e+01	-5.786381e+00
2.007480e+01	-5.823394e+00
2.019076e+01	-5.860302e+00
2.030738e+01	-5.897698e+00
2.042467e+01	-5.935049e+00
2.054264e+01	-5.972006e+00
2.066130e+01	-6.009715e+00
2.078064e+01	-6.047164e+00
2.090066e+01	-6.084668e+00
2.102139e+01	-6.122413e+00
2.114280e+01	-6.160255e+00
2.126492e+01	-6.198317e+00
2.138775e+01	-6.236413e+00
2.151128e+01	-6.274536e+00
2.163553e+01	-6.312526e+00
2.176050e+01	-6.351332e+00
2.188619e+01	-6.389816e+00
2.201260e+01	-6.428625e+00
2.213974e+01	-6.467005e+00
2.226762e+01	-6.505766e+00
2.239624e+01	-6.544794e+00
2.252560e+01	-6.583972e+00
2.265571e+01	-6.622564e+00
2.278656e+01	-6.661778e+00
2.291818e+01	-6.701314e+00
2.305055e+01	-6.740670e+00
2.318369e+01	-6.780330e+00
2.331760e+01	-6.819851e+00
2.345228e+01	-6.859362e+00
2.358774e+01	-6.898852e+00
2.372398e+01	-6.938805e+00
2.386101e+01	-6.978773e+00
2.399883e+01	-7.019149e+00
2.413745e+01	-7.059221e+00
2.427686e+01	-7.099340e+00
2.441709e+01	-7.139656e+00
2.455812e+01	-7.180647e+00
2.469997e+01	-7.220556e+00
2.484263e+01	-7.261474e+00
2.498612e+01	-7.302097e+00
2.513044e+01	-7.342486e+00
2.527559e+01	-7.383576e+00
2.542158e+01	-7.424292e+00
2.556842e+01	-7.465789e+00
2.571610e+01	-7.506432e+00
2.586463e+01	-7.547821e+00
2.601403e+01	-7.588555e+00
2.616428e+01	-7.630391e+00
2.631541e+01	-7.671885e+00
2.646740e+01	-7.713231e+00
2.662028e+01	-7.754875e+00
2.677404e+01	-7.796532e+00
2.692868e+01	-7.838262e+00
2.708422e+01	-7.880209e+00
2.724066e+01	-7.921984e+00
2.739800e+01	-7.963980e+00
2.755625e+01	-8.006172e+00
2.771541e+01	-8.048111e+00
2.787550e+01	-8.090600e+00
2.803650e+01	-8.132479e+00
2.819844e+01	-8.175216e+00
2.836131e+01	-8.217548e+00
2.852513e+01	-8.260257e+00
2.868989e+01	-8.302861e+00
2.885560e+01	-8.345170e+00
2.902227e+01	-8.388008e+00
2.918990e+01	-8.431053e+00
2.935850e+01	-8.474203e+00
2.952807e+01	-8.516958e+00
2.969863e+01	-8.559714e+00
2.987016e+01	-8.602618e+00
3.004269e+01	-8.646044e+00
3.021622e+01	-8.689532e+00
3.039075e+01	-8.732549e+00
3.056628e+01	-8.775440e+00
3.074283e+01	-8.819360e+00
3.092040e+01	-8.862707e+00
3.109900e+01	-8.906148e+00
3.127862e+01	-8.950170e+00
3.145929e+01	-8.993627e+00
3.164099e+01	-9.037221e+00
3.182375e+01	-9.081463e+00
3.200756e+01	-9.124952e+00
3.219244e+01	-9.168531e+00
3.237838e+01	-9.213303e+00
3.256540e+01	-9.257453e+00
3.275349e+01	-9.301362e+00
3.294268e+01	-9.345579e+00
3.313295e+01	-9.389645e+00
3.332433e+01	-9.433843e+00
3.351681e+01	-9.478182e+00
3.371040e+01	-9.522618e+00
3.390511e+01	-9.566922e+00
3.410094e+01	-9.611644e+00
3.429791e+01	-9.656561e+00
3.449601e+01	-9.700936e+00
3.469526e+01	-9.745829e+00
3.489566e+01	-9.790633e+00
3.509721e+01	-9.835633e+00
3.529993e+01	-9.880772e+00
3.550382e+01	-9.924851e+00
3.570889e+01	-9.969922e+00
3.591515e+01	-1.001475e+01
3.612259e+01	-1.005989e+01
3.633123e+01	-1.010510e+01
3.654108e+01	-1.015094e+01
3.675214e+01	-1.019530e+01
3.696442e+01	-1.024097e+01
3.717792e+01	-1.028627e+01
3.739266e+01	-1.033145e+01
3.760864e+01	-1.037660e+01
3.782587e+01	-1.042149e+01
3.804435e+01	-1.046783e+01
3.826409e+01	-1.051368e+01
3.848510e+01	-1.055883e+01
3.870739e+01	-1.060485e+01
3.893096e+01	-1.065034e+01
3.915583e+01	-1.069627e+01
3.938199e+01	-1.074223e+01
3.960946e+01	-1.078786e+01
3.983824e+01	-1.083404e+01
4.006834e+01	-1.087970e+01
4.029978e+01	-1.092475e+01
4.053255e+01	-1.097153e+01
4.076666e+01	-1.101715e+01
4.100213e+01	-1.106319e+01
4.123896e+01	-1.110991e+01
4.147715e+01	-1.115605e+01
4.171672e+01	-1.120221e+01
4.195767e+01	-1.124799e+01
4.220002e+01	-1.129440e+01
4.244377e+01	-1.134068e+01
4.268892e+01	-1.138716e+01
4.293549e+01	-1.143396e+01
4.318348e+01	-1.148001e+01
4.343291e+01	-1.152654e+01
4.368377e+01	-1.157305e+01
4.393609e+01	-1.161973e+01
4.418986e+01	-1.166676e+01
4.444510e+01	-1.171312e+01
4.470182e+01	-1.175958e+01
4.496001e+01	-1.180629e+01
4.521970e+01	-1.185342e+01
4.548089e+01	-1.190026e+01
4.574358e+01	-1.194672e+01
4.600779e+01	-1.199372e+01
4.627353e+01	-1.204070e+01
4.654081e+01	-1.208729e+01
4.680963e+01	-1.213418e+01
4.708000e+01	-1.218168e+01
4.735193e+01	-1.222823e+01
4.762543e+01	-1.227561e+01
4.790051e+01	-1.232250e+01
4.817719e+01	-1.237085e+01
4.845545e+01	-1.241704e+01
4.873533e+01	-1.246397e+01
4.901682e+01	-1.251094e+01
4.929994e+01	-1.255762e+01
4.958470e+01	-1.260537e+01
4.987110e+01	-1.265288e+01
5.015915e+01	-1.270043e+01
5.044887e+01	-1.274794e+01
5.074026e+01	-1.279541e+01
5.103333e+01	-1.284219e+01
5.132810e+01	-1.288980e+01
5.162457e+01	-1.293699e+01
5.192275e+01	-1.298465e+01
5.222265e+01	-1.303209e+01
5.252429e+01	-1.307998e+01
5.282767e+01	-1.312783e+01
5.313280e+01	-1.317544e+01
5.343969e+01	-1.322280e+01
5.374836e+01	-1.327131e+01
5.405880e+01	-1.331789e+01
5.437105e+01	-1.336606e+01
5.468509e+01	-1.341312e+01
5.500095e+01	-1.346093e+01
5.531863e+01	-1.350906e+01
5.563815e+01	-1.355656e+01
5.595951e+01	-1.360499e+01
5.628273e+01	-1.365224e+01
5.660782e+01	-1.370084e+01
5.693479e+01	-1.374848e+01
5.726364e+01	-1.379631e+01
5.759439e+01	-1.384422e+01
5.792705e+01	-1.389205e+01
5.826164e+01	-1.394063e+01
5.859815e+01	-1.398829e+01
5.893662e+01	-1.403590e+01
5.927703e+01	-1.408407e+01
5.961941e+01	-1.413266e+01
5.996377e+01	-1.418010e+01
6.031012e+01	-1.422839e+01
6.065847e+01	-1.427665e+01
6.100883e+01	-1.432601e+01
6.136121e+01	-1.437397e+01
6.171563e+01	-1.442147e+01
6.207210e+01	-1.446916e+01
6.243063e+01	-1.451743e+01
6.279122e+01	-1.456586e+01
6.315390e+01	-1.461506e+01
6.351868e+01	-1.466266e+01
6.388556e+01	-1.471115e+01
6.425456e+01	-1.475893e+01
6.462569e+01	-1.480804e+01
6.499897e+01	-1.485644e+01
6.537440e+01	-1.490453e+01
6.575200e+01	-1.495313e+01
6.613178e+01	-1.500136e+01
6.651375e+01	-1.504971e+01
6.689793e+01	-1.509847e+01
6.728433e+01	-1.514698e+01
6.767297e+01	-1.519548e+01
6.806384e+01	-1.524372e+01
6.845698e+01	-1.529185e+01
6.885238e+01	-1.534075e+01
6.925007e+01	-1.538992e+01
6.965005e+01	-1.543784e+01
7.005235e+01	-1.548639e+01
7.045697e+01	-1.553449e+01
7.086393e+01	-1.558391e+01
7.127323e+01	-1.563254e+01
7.168490e+01	-1.568193e+01
7.209895e+01	-1.573048e+01
7.251539e+01	-1.577743e+01
7.293424e+01	-1.582751e+01
7.335551e+01	-1.587600e+01
7.377920e+01	-1.592538e+01
7.420535e+01	-1.597391e+01
7.463396e+01	-1.602288e+01
7.506504e+01	-1.607142e+01
7.549861e+01	-1.612099e+01
7.593469e+01	-1.616954e+01
7.637328e+01	-1.621760e+01
7.681441e+01	-1.626692e+01
7.725809e+01	-1.631528e+01
7.770433e+01	-1.636395e+01
7.815315e+01	-1.641276e+01
7.860456e+01	-1.646178e+01
7.905857e+01	-1.651096e+01
7.951521e+01	-1.655996e+01
7.997449e+01	-1.660810e+01
8.043642e+01	-1.665808e+01
8.090102e+01	-1.670628e+01
8.136830e+01	-1.675554e+01
8.183828e+01	-1.680424e+01
8.231097e+01	-1.685495e+01
8.278640e+01	-1.690344e+01
8.326457e+01	-1.695078e+01
8.374550e+01	-1.700073e+01
8.422921e+01	-1.704984e+01
8.471572e+01	-1.709929e+01
8.520503e+01	-1.714815e+01
8.569717e+01	-1.719722e+01
8.619215e+01	-1.724616e+01
8.669000e+01	-1.729476e+01
8.719071e+01	-1.734418e+01
8.769432e+01	-1.739347e+01
8.820084e+01	-1.744194e+01
8.871029e+01	-1.749117e+01
8.922267e+01	-1.754151e+01
8.973802e+01	-1.758976e+01
9.025634e+01	-1.763752e+01
9.077766e+01	-1.768778e+01
9.130199e+01	-1.773698e+01
9.182935e+01	-1.778723e+01
9.235975e+01	-1.783587e+01
9.289321e+01	-1.788458e+01
9.342976e+01	-1.793405e+01
9.396941e+01	-1.798280e+01
9.451217e+01	-1.803246e+01
9.505807e+01	-1.808084e+01
9.560712e+01	-1.813146e+01
9.615934e+01	-1.818079e+01
9.671476e+01	-1.822894e+01
9.727338e+01	-1.827831e+01
9.783522e+01	-1.832731e+01
9.840032e+01	-1.837808e+01
9.896867e+01	-1.842587e+01
9.954031e+01	-1.847617e+01
1.001153e+02	-1.852502e+01
1.006935e+02	-1.857564e+01
1.012751e+02	-1.862498e+01
1.018601e+02	-1.867359e+01
1.024484e+02	-1.872283e+01
1.030402e+02	-1.877140e+01
1.036353e+02	-1.882155e+01
1.042339e+02	-1.887078e+01
1.048360e+02	-1.892067e+01
1.054415e+02	-1.897083e+01
1.060505e+02	-1.901809e+01
1.066631e+02	-1.906854e+01
1.072791e+02	-1.911795e+01
1.078988e+02	-1.916598e+01
1.085220e+02	-1.921688e+01
1.091488e+02	-1.926743e+01
1.097793e+02	-1.931644e+01
1.104133e+02	-1.936559e+01
1.110511e+02	-1.941491e+01
1.116925e+02	-1.946356e+01
1.123376e+02	-1.951323e+01
1.129865e+02	-1.956246e+01
1.136391e+02	-1.961326e+01
1.142955e+02	-1.966068e+01
1.149556e+02	-1.971247e+01
1.156196e+02	-1.976101e+01
1.162874e+02	-1.981096e+01
1.169591e+02	-1.986005e+01
1.176347e+02	-1.991009e+01
1.183141e+02	-1.995960e+01
1.189975e+02	-2.000775e+01
1.196848e+02	-2.005707e+01
1.203761e+02	-2.010730e+01
1.210714e+02	-2.015929e+01
1.217707e+02	-2.020772e+01
1.224740e+02	-2.025670e+01
1.231814e+02	-2.030423e+01
1.238929e+02	-2.035454e+01
1.246085e+02	-2.040457e+01
1.253283e+02	-2.045429e+01
1.260522e+02	-2.050422e+01
1.267802e+02	-2.055388e+01
1.275125e+02	-2.060175e+01
1.282490e+02	-2.065257e+01
1.289898e+02	-2.070291e+01
1.297348e+02	-2.075186e+01
1.304842e+02	-2.080144e+01
1.312378e+02	-2.085185e+01
1.319959e+02	-2.090208e+01
1.327583e+02	-2.095039e+01
1.335251e+02	-2.100105e+01
1.342963e+02	-2.104946e+01
1.350720e+02	-2.109934e+01
1.358522e+02	-2.115103e+01
1.366368e+02	-2.119846e+01
1.374260e+02	-2.124819e+01
1.382198e+02	-2.129752e+01
1.390182e+02	-2.134860e+01
1.398211e+02	-2.139781e+01
1.406287e+02	-2.144649e+01
1.414410e+02	-2.149879e+01
1.422579e+02	-2.154630e+01
1.430796e+02	-2.159705e+01
1.439060e+02	-2.164688e+01
1.447372e+02	-2.169468e+01
1.455732e+02	-2.174599e+01
1.464141e+02	-2.179470e+01
1.472597e+02	-2.184498e+01
1.481103e+02	-2.189481e+01
1.489658e+02	-2.194287e+01
1.498262e+02	-2.199438e+01
1.506916e+02	-2.204492e+01
1.515620e+02	-2.209221e+01
1.524374e+02	-2.214278e+01
1.533179e+02	-2.219554e+01
1.542034e+02	-2.224155e+01
1.550941e+02	-2.229472e+01
1.559899e+02	-2.234415e+01
1.568909e+02	-2.239345e+01
1.577971e+02	-2.244094e+01
1.587085e+02	-2.248901e+01
1.596252e+02	-2.254104e+01
1.605472e+02	-2.259011e+01
1.614745e+02	-2.264055e+01
1.624072e+02	-2.269070e+01
1.633453e+02	-2.274165e+01
1.642887e+02	-2.279295e+01
1.652377e+02	-2.284067e+01
1.661921e+02	-2.289080e+01
1.671520e+02	-2.294248e+01
1.681175e+02	-2.298991e+01
1.690885e+02	-2.303859e+01
1.700651e+02	-2.309163e+01
1.710474e+02	-2.313911e+01
1.720354e+02	-2.318982e+01
1.730291e+02	-2.323823e+01
1.740285e+02	-2.328662e+01
1.750337e+02	-2.333918e+01
1.760446e+02	-2.338688e+01
1.770615e+02	-2.343647e+01
1.780842e+02	-2.348938e+01
1.791128e+02	-2.354041e+01
1.801473e+02	-2.358814e+01
1.811878e+02	-2.363793e+01
1.822344e+02	-2.368452e+01
1.832870e+02	-2.373874e+01
1.843456e+02	-2.378878e+01
1.854104e+02	-2.383630e+01
1.864813e+02	-2.388746e+01
1.875584e+02	-2.393625e+01
1.886418e+02	-2.398502e+01
1.897313e+02	-2.403782e+01
1.908272e+02	-2.408413e+01
1.919294e+02	-2.413434e+01
1.930380e+02	-2.418594e+01
1.941530e+02	-2.423570e+01
1.952744e+02	-2.428637e+01
1.964023e+02	-2.433772e+01
1.975367e+02	-2.438671e+01
1.986777e+02	-2.443570e+01
1.998252e+02	-2.448561e+01
2.009794e+02	-2.453451e+01
2.021403e+02	-2.458580e+01
2.033078e+02	-2.463448e+01
2.044821e+02	-2.468574e+01
2.056632e+02	-2.473536e+01
2.068511e+02	-2.478737e+01
2.080459e+02	-2.483511e+01
2.092475e+02	-2.488074e+01
2.104561e+02	-2.493408e+01
2.116717e+02	-2.498350e+01
2.128943e+02	-2.503309e+01
2.141240e+02	-2.508384e+01
2.153608e+02	-2.513286e+01
2.166047e+02	-2.518423e+01
2.178558e+02	-2.523501e+01
2.191141e+02	-2.527932e+01
2.203797e+02	-2.533128e+01
2.216526e+02	-2.538417e+01
2.229329e+02	-2.543288e+01
2.242205e+02	-2.548575e+01
2.255156e+02	-2.553280e+01
2.268182e+02	-2.558205e+01
2.281283e+02	-2.563176e+01
2.294459e+02	-2.568328e+01
2.307712e+02	-2.573064e+01
2.321041e+02	-2.578070e+01
2.334447e+02	-2.583124e+01
2.347931e+02	-2.588179e+01
2.361493e+02	-2.593508e+01
2.375133e+02	-2.598467e+01
2.388851e+02	-2.602777e+01
2.402649e+02	-2.608048e+01
2.416527e+02	-2.613249e+01
2.430484e+02	-2.618661e+01
2.444523e+02	-2.623225e+01
2.458642e+02	-2.628339e+01
2.472843e+02	-2.633511e+01
2.487126e+02	-2.638354e+01
2.501492e+02	-2.643305e+01
2.515940e+02	-2.648303e+01
2.530472e+02	-2.653134e+01
2.545088e+02	-2.658324e+01
2.559789e+02	-2.663135e+01
2.574574e+02	-2.668275e+01
2.589444e+02	-2.673301e+01
2.604401e+02	-2.678262e+01
2.619444e+02	-2.682986e+01
2.634574e+02	-2.688358e+01
2.649791e+02	-2.693032e+01
2.665096e+02	-2.698385e+01
2.680489e+02	-2.703144e+01
2.695972e+02	-2.708597e+01
2.711544e+02	-2.713208e+01
2.727205e+02	-2.718124e+01
2.742958e+02	-2.723135e+01
2.758801e+02	-2.727807e+01
2.774736e+02	-2.733327e+01
2.790762e+02	-2.738372e+01
2.806882e+02	-2.743501e+01
2.823094e+02	-2.748000e+01
2.839400e+02	-2.753569e+01
2.855800e+02	-2.758009e+01
2.872295e+02	-2.763224e+01
2.888886e+02	-2.768368e+01
2.905572e+02	-2.773012e+01
2.922354e+02	-2.778441e+01
2.939234e+02	-2.783438e+01
2.956211e+02	-2.788075e+01
2.973286e+02	-2.793578e+01
2.990459e+02	-2.798393e+01
3.007732e+02	-2.802928e+01
3.025104e+02	-2.808700e+01
3.042577e+02	-2.813275e+01
3.060151e+02	-2.818543e+01
3.077826e+02	-2.822909e+01
3.095604e+02	-2.827828e+01
3.113484e+02	-2.833231e+01
3.131467e+02	-2.838647e+01
3.149554e+02	-2.843059e+01
3.167746e+02	-2.848906e+01
3.186043e+02	-2.853346e+01
3.204445e+02	-2.858809e+01
3.222954e+02	-2.863139e+01
3.241570e+02	-2.868186e+01
3.260293e+02	-2.873337e+01
3.279124e+02	-2.878376e+01
3.298064e+02	-2.883426e+01
3.317114e+02	-2.888456e+01
3.336273e+02	-2.893614e+01
3.355544e+02	-2.898095e+01
3.374925e+02	-2.903752e+01
3.394418e+02	-2.908373e+01
3.414024e+02	-2.913151e+01
3.433744e+02	-2.918275e+01
3.453577e+02	-2.923435e+01
3.473525e+02	-2.928339e+01
3.493588e+02	-2.932996e+01
3.513766e+02	-2.938611e+01
3.534062e+02	-2.943712e+01
3.554474e+02	-2.948382e+01
3.575005e+02	-2.953259e+01
3.595654e+02	-2.958906e+01
3.616422e+02	-2.963595e+01
3.637311e+02	-2.968305e+01
3.658320e+02	-2.973025e+01
3.679450e+02	-2.978901e+01
3.700702e+02	-2.983588e+01
3.722077e+02	-2.988472e+01
3.743576e+02	-2.993109e+01
3.765199e+02	-2.998083e+01
3.786946e+02	-3.003133e+01
3.808820e+02	-3.008661e+01
3.830819e+02	-3.013466e+01
3.852946e+02	-3.018393e+01
3.875200e+02	-3.023313e+01
3.897583e+02	-3.028128e+01
3.920096e+02	-3.033285e+01
3.942738e+02	-3.038512e+01
3.965511e+02	-3.043887e+01
3.988416e+02	-3.048816e+01
4.011452e+02	-3.053710e+01
4.034622e+02	-3.058682e+01
4.057926e+02	-3.063359e+01
4.081365e+02	-3.067821e+01
4.104938e+02	-3.073823e+01
4.128648e+02	-3.078319e+01
4.152495e+02	-3.083667e+01
4.176480e+02	-3.088627e+01
4.200603e+02	-3.094055e+01
4.224866e+02	-3.098219e+01
4.249268e+02	-3.103100e+01
4.273812e+02	-3.108866e+01
4.298497e+02	-3.113966e+01
4.323325e+02	-3.118501e+01
4.348297e+02	-3.124426e+01
4.373412e+02	-3.128932e+01
4.398673e+02	-3.133627e+01
4.424079e+02	-3.138518e+01
4.449633e+02	-3.143498e+01
4.475334e+02	-3.148828e+01
4.501183e+02	-3.152975e+01
4.527182e+02	-3.158940e+01
4.553330e+02	-3.163584e+01
4.579630e+02	-3.169231e+01
4.606082e+02	-3.173984e+01
4.632687e+02	-3.178801e+01
4.659445e+02	-3.184293e+01
4.686358e+02	-3.189156e+01
4.713426e+02	-3.193431e+01
4.740650e+02	-3.198590e+01
4.768032e+02	-3.204308e+01
4.795572e+02	-3.208962e+01
4.823271e+02	-3.214268e+01
4.851130e+02	-3.218606e+01
4.879150e+02	-3.224239e+01
4.907332e+02	-3.229587e+01
4.935676e+02	-3.234535e+01
4.964185e+02	-3.239321e+01
4.992858e+02	-3.244362e+01
5.021696e+02	-3.249605e+01
5.050701e+02	-3.254548e+01
5.079874e+02	-3.259613e+01
5.109215e+02	-3.264793e+01
5.138726e+02	-3.268732e+01
5.168407e+02	-3.274511e+01
5.198259e+02	-3.280099e+01
5.228284e+02	-3.284753e+01
5.258482e+02	-3.290027e+01
5.288855e+02	-3.294138e+01
5.319403e+02	-3.299551e+01
5.350128e+02	-3.304398e+01
5.381030e+02	-3.308979e+01
5.412111e+02	-3.313991e+01
5.443371e+02	-3.319903e+01
5.474812e+02	-3.324448e+01
5.506434e+02	-3.329829e+01
5.538239e+02	-3.334386e+01
5.570228e+02	-3.340178e+01
5.602401e+02	-3.344879e+01
5.634760e+02	-3.350128e+01
5.667306e+02	-3.354739e+01
5.700040e+02	-3.359822e+01
5.732964e+02	-3.364798e+01
5.766077e+02	-3.370248e+01
5.799382e+02	-3.374987e+01
5.832879e+02	-3.379253e+01
5.866569e+02	-3.384924e+01
5.900454e+02	-3.389966e+01
5.934535e+02	-3.395553e+01
5.968813e+02	-3.399582e+01
6.003288e+02	-3.405929e+01
6.037963e+02	-3.410552e+01
6.072838e+02	-3.415564e+01
6.107914e+02	-3.419767e+01
6.143194e+02	-3.424808e+01
6.178676e+02	-3.430515e+01
6.214364e+02	-3.436081e+01
6.250258e+02	-3.440356e+01
6.286359e+02	-3.444413e+01
6.322669e+02	-3.450349e+01
6.359189e+02	-3.455932e+01
6.395919e+02	-3.460129e+01
6.432862e+02	-3.464880e+01
6.470017e+02	-3.470000e+01
6.507388e+02	-3.475640e+01
6.544974e+02	-3.480119e+01
6.582778e+02	-3.485581e+01
6.620800e+02	-3.491225e+01
6.659041e+02	-3.495234e+01
6.697504e+02	-3.499868e+01
6.736188e+02	-3.505843e+01
6.775096e+02	-3.510993e+01
6.814229e+02	-3.515145e+01
6.853587e+02	-3.521091e+01
6.893173e+02	-3.524678e+01
6.932988e+02	-3.532328e+01
6.973033e+02	-3.536194e+01
7.013309e+02	-3.540450e+01
