Frequency(Hz)	Magnitude(dB)
1.000000e+01	-2.319152e+00
1.005776e+01	-2.339951e+00
1.011585e+01	-2.360947e+00
1.017428e+01	-2.381770e+00
1.023305e+01	-2.403034e+00
1.029215e+01	-2.424415e+00
1.035160e+01	-2.445859e+00
1.041139e+01	-2.467443e+00
1.047153e+01	-2.489380e+00
1.053201e+01	-2.510928e+00
1.059284e+01	-2.533132e+00
1.065403e+01	-2.555264e+00
1.071556e+01	-2.577460e+00
1.077746e+01	-2.600327e+00
1.083971e+01	-2.622533e+00
1.090232e+01	-2.645476e+00
1.096529e+01	-2.668334e+00
1.102862e+01	-2.691498e+00
1.109232e+01	-2.714524e+00
1.115639e+01	-2.737872e+00
1.122083e+01	-2.761408e+00
1.128564e+01	-2.785003e+00
1.135083e+01	-2.808529e+00
1.141639e+01	-2.832498e+00
1.148233e+01	-2.856665e+00
1.154865e+01	-2.880609e+00
1.161536e+01	-2.905112e+00
1.168245e+01	-2.929450e+00
1.174992e+01	-2.954206e+00
1.181779e+01	-2.978986e+00
1.188605e+01	-3.004122e+00
1.195470e+01	-3.029107e+00
1.202375e+01	-3.054169e+00
1.209320e+01	-3.079313e+00
1.216305e+01	-3.105009e+00
1.223330e+01	-3.130515e+00
1.230396e+01	-3.156378e+00
1.237503e+01	-3.182154e+00
1.244651e+01	-3.208221e+00
1.251840e+01	-3.234063e+00
1.259070e+01	-3.260822e+00
1.266343e+01	-3.287275e+00
1.273657e+01	-3.313819e+00
1.281014e+01	-3.340847e+00
1.288413e+01	-3.367485e+00
1.295855e+01	-3.394824e+00
1.303339e+01	-3.421988e+00
1.310867e+01	-3.449294e+00
1.318439e+01	-3.476621e+00
1.326054e+01	-3.504473e+00
1.333713e+01	-3.532225e+00
1.341417e+01	-3.559926e+00
1.349165e+01	-3.588131e+00
1.356958e+01	-3.616256e+00
1.364795e+01	-3.644859e+00
1.372678e+01	-3.673085e+00
1.380607e+01	-3.701751e+00
1.388581e+01	-3.730717e+00
1.396602e+01	-3.758996e+00
1.404668e+01	-3.788349e+00
1.412782e+01	-3.817568e+00
1.420942e+01	-3.846952e+00
1.429149e+01	-3.876310e+00
1.437404e+01	-3.906115e+00
1.445706e+01	-3.935716e+00
1.454057e+01	-3.965590e+00
1.462455e+01	-3.995625e+00
1.470902e+01	-4.025880e+00
1.479398e+01	-4.056081e+00
1.487943e+01	-4.086611e+00
1.496537e+01	-4.117086e+00
1.505181e+01	-4.147913e+00
1.513875e+01	-4.178733e+00
1.522619e+01	-4.209617e+00
1.531414e+01	-4.240819e+00
1.540259e+01	-4.271911e+00
1.549156e+01	-4.303308e+00
1.558103e+01	-4.334957e+00
1.567103e+01	-4.366583e+00
1.576155e+01	-4.398315e+00
1.585258e+01	-4.430237e+00
1.594415e+01	-4.462306e+00
1.603624e+01	-4.494558e+00
1.612886e+01	-4.527255e+00
1.622202e+01	-4.559085e+00
1.631572e+01	-4.591783e+00
1.640996e+01	-4.624628e+00
1.650474e+01	-4.657411e+00
1.660008e+01	-4.690438e+00
1.669596e+01	-4.723488e+00
1.679239e+01	-4.756960e+00
1.688938e+01	-4.790311e+00
1.698694e+01	-4.823696e+00
1.708505e+01	-4.857467e+00
1.718373e+01	-4.890879e+00
1.728299e+01	-4.924970e+00
1.738281e+01	-4.958811e+00
1.748322e+01	-4.992838e+00
1.758420e+01	-5.027112e+00
1.768576e+01	-5.061405e+00
1.778792e+01	-5.095859e+00
1.789066e+01	-5.130441e+00
1.799399e+01	-5.165485e+00
1.809793e+01	-5.200087e+00
1.820246e+01	-5.235259e+00
1.830760e+01	-5.270440e+00
1.841334e+01	-5.305397e+00
1.851969e+01	-5.340879e+00
1.862666e+01	-5.376124e+00
1.873425e+01	-5.412108e+00
1.884246e+01	-5.447532e+00
1.895129e+01	-5.483338e+00
1.906075e+01	-5.519352e+00
1.917085e+01	-5.555370e+00
1.928158e+01	-5.591607e+00
1.939295e+01	-5.628198e+00
1.950496e+01	-5.664163e+00
1.961762e+01	-5.700913e+00
1.973093e+01	-5.737445e+00
1.984490e+01	-5.773826e+00
1.995952e+01	-5.810626e+00
2.007480e+01	-5.847969e+00
2.019076e+01	-5.884837e+00
2.030738e+01	-5.922239e+00
2.042467e+01	-5.959347e+00
2.054264e+01	-5.996967e+00
2.066130e+01	-6.034453e+00
2.078064e+01	-6.072083e+00
2.090066e+01	-6.109542e+00
2.102139e+01	-6.147825e+00
2.114280e+01	-6.185360e+00
2.126492e+01	-6.223251e+00
2.138775e+01	-6.261534e+00
2.151128e+01	-6.300007e+00
2.163553e+01	-6.338211e+00
2.176050e+01	-6.376642e+00
2.188619e+01	-6.415121e+00
2.201260e+01	-6.454044e+00
2.213974e+01	-6.492637e+00
2.226762e+01	-6.531848e+00
2.239624e+01	-6.570336e+00
2.252560e+01	-6.609444e+00
2.265571e+01	-6.648660e+00
2.278656e+01	-6.687812e+00
2.291818e+01	-6.727203e+00
2.305055e+01	-6.766671e+00
2.318369e+01	-6.806629e+00
2.331760e+01	-6.845680e+00
2.345228e+01	-6.885394e+00
2.358774e+01	-6.925433e+00
2.372398e+01	-6.965512e+00
2.386101e+01	-7.005439e+00
2.399883e+01	-7.045235e+00
2.413745e+01	-7.085422e+00
2.427686e+01	-7.125959e+00
2.441709e+01	-7.165755e+00
2.455812e+01	-7.206704e+00
2.469997e+01	-7.247288e+00
2.484263e+01	-7.288040e+00
2.498612e+01	-7.328413e+00
2.513044e+01	-7.369543e+00
2.527559e+01	-7.410394e+00
2.542158e+01	-7.451589e+00
2.556842e+01	-7.492469e+00
2.571610e+01	-7.533527e+00
2.586463e+01	-7.574726e+00
2.601403e+01	-7.616149e+00
2.616428e+01	-7.657698e+00
2.631541e+01	-7.698757e+00
2.646740e+01	-7.740736e+00
2.662028e+01	-7.782116e+00
2.677404e+01	-7.823610e+00
2.692868e+01	-7.865637e+00
2.708422e+01	-7.907542e+00
2.724066e+01	-7.949356e+00
2.739800e+01	-7.991536e+00
2.755625e+01	-8.033777e+00
2.771541e+01	-8.075826e+00
2.787550e+01	-8.118266e+00
2.803650e+01	-8.160988e+00
2.819844e+01	-8.202811e+00
2.836131e+01	-8.245351e+00
2.852513e+01	-8.288238e+00
2.868989e+01	-8.330572e+00
2.885560e+01	-8.373574e+00
2.902227e+01	-8.416236e+00
2.918990e+01	-8.459423e+00
2.935850e+01	-8.502081e+00
2.952807e+01	-8.544941e+00
2.969863e+01	-8.588596e+00
2.987016e+01	-8.631429e+00
3.004269e+01	-8.674145e+00
3.021622e+01	-8.718237e+00
3.039075e+01	-8.760908e+00
3.056628e+01	-8.804931e+00
3.074283e+01	-8.847762e+00
3.092040e+01	-8.891561e+00
3.109900e+01	-8.935036e+00
3.127862e+01	-8.978710e+00
3.145929e+01	-9.022627e+00
3.164099e+01	-9.066520e+00
3.182375e+01	-9.109906e+00
3.200756e+01	-9.153876e+00
3.219244e+01	-9.198143e+00
3.237838e+01	-9.241969e+00
3.256540e+01	-9.285792e+00
3.275349e+01	-9.329942e+00
3.294268e+01	-9.374868e+00
3.313295e+01	-9.419352e+00
3.332433e+01	-9.462979e+00
3.351681e+01	-9.507527e+00
3.371040e+01	-9.551454e+00
3.390511e+01	-9.596760e+00
3.410094e+01	-9.641338e+00
3.429791e+01	-9.685601e+00
3.449601e+01	-9.730680e+00
3.469526e+01	-9.774997e+00
3.489566e+01	-9.819989e+00
3.509721e+01	-9.864287e+00
3.529993e+01	-9.909565e+00
3.550382e+01	-9.954173e+00
3.570889e+01	-9.999829e+00
3.591515e+01	-1.004465e+01
3.612259e+01	-1.008998e+01
3.633123e+01	-1.013478e+01
3.654108e+01	-1.018021e+01
3.675214e+01	-1.022587e+01
3.696442e+01	-1.027046e+01
3.717792e+01	-1.031623e+01
3.739266e+01	-1.036183e+01
3.760864e+01	-1.040671e+01
3.782587e+01	-1.045249e+01
3.804435e+01	-1.049791e+01
3.826409e+01	-1.054319e+01
3.848510e+01	-1.058932e+01
3.870739e+01	-1.063503e+01
3.893096e+01	-1.068095e+01
3.915583e+01	-1.072631e+01
3.938199e+01	-1.077207e+01
3.960946e+01	-1.081786e+01
3.983824e+01	-1.086373e+01
4.006834e+01	-1.090940e+01
4.029978e+01	-1.095570e+01
4.053255e+01	-1.100200e+01
4.076666e+01	-1.104796e+01
4.100213e+01	-1.109454e+01
4.123896e+01	-1.114002e+01
4.147715e+01	-1.118684e+01
4.171672e+01	-1.123298e+01
4.195767e+01	-1.127898e+01
4.220002e+01	-1.132529e+01
4.244377e+01	-1.137167e+01
4.268892e+01	-1.141795e+01
4.293549e+01	-1.146470e+01
4.318348e+01	-1.151097e+01
4.343291e+01	-1.155799e+01
4.368377e+01	-1.160433e+01
4.393609e+01	-1.165043e+01
4.418986e+01	-1.169728e+01
4.444510e+01	-1.174415e+01
4.470182e+01	-1.179046e+01
4.496001e+01	-1.183694e+01
4.521970e+01	-1.188413e+01
4.548089e+01	-1.193047e+01
4.574358e+01	-1.197731e+01
4.600779e+01	-1.202393e+01
4.627353e+01	-1.207124e+01
4.654081e+01	-1.211815e+01
4.680963e+01	-1.216536e+01
4.708000e+01	-1.221287e+01
4.735193e+01	-1.225864e+01
4.762543e+01	-1.230579e+01
4.790051e+01	-1.235386e+01
4.817719e+01	-1.240112e+01
4.845545e+01	-1.244756e+01
4.873533e+01	-1.249450e+01
4.901682e+01	-1.254223e+01
4.929994e+01	-1.258929e+01
4.958470e+01	-1.263732e+01
4.987110e+01	-1.268488e+01
5.015915e+01	-1.273179e+01
5.044887e+01	-1.277958e+01
5.074026e+01	-1.282662e+01
5.103333e+01	-1.287323e+01
5.132810e+01	-1.292108e+01
5.162457e+01	-1.296830e+01
5.192275e+01	-1.301550e+01
5.222265e+01	-1.306348e+01
5.252429e+01	-1.311084e+01
5.282767e+01	-1.315923e+01
5.313280e+01	-1.320652e+01
5.343969e+01	-1.325444e+01
5.374836e+01	-1.330190e+01
5.405880e+01	-1.334972e+01
5.437105e+01	-1.339726e+01
5.468509e+01	-1.344575e+01
5.500095e+01	-1.349292e+01
5.531863e+01	-1.354068e+01
5.563815e+01	-1.358823e+01
5.595951e+01	-1.363672e+01
5.628273e+01	-1.368313e+01
5.660782e+01	-1.373180e+01
5.693479e+01	-1.378001e+01
5.726364e+01	-1.382706e+01
5.759439e+01	-1.387629e+01
5.792705e+01	-1.392368e+01
5.826164e+01	-1.397178e+01
5.859815e+01	-1.401983e+01
5.893662e+01	-1.406780e+01
5.927703e+01	-1.411555e+01
5.961941e+01	-1.416436e+01
5.996377e+01	-1.421233e+01
6.031012e+01	-1.426038e+01
6.065847e+01	-1.430831e+01
6.100883e+01	-1.435704e+01
6.136121e+01	-1.440415e+01
6.171563e+01	-1.445320e+01
6.207210e+01	-1.450097e+01
6.243063e+01	-1.454921e+01
6.279122e+01	-1.459801e+01
6.315390e+01	-1.464665e+01
6.351868e+01	-1.469469e+01
6.388556e+01	-1.474307e+01
6.425456e+01	-1.479072e+01
6.462569e+01	-1.483958e+01
6.499897e+01	-1.488825e+01
6.537440e+01	-1.493634e+01
6.575200e+01	-1.498461e+01
6.613178e+01	-1.503379e+01
6.651375e+01	-1.508119e+01
6.689793e+01	-1.512859e+01
6.728433e+01	-1.517875e+01
6.767297e+01	-1.522656e+01
6.806384e+01	-1.527623e+01
6.845698e+01	-1.532413e+01
6.885238e+01	-1.537322e+01
6.925007e+01	-1.542218e+01
6.965005e+01	-1.547008e+01
7.005235e+01	-1.551841e+01
7.045697e+01	-1.556746e+01
7.086393e+01	-1.561596e+01
7.127323e+01	-1.566506e+01
7.168490e+01	-1.571332e+01
7.209895e+01	-1.576209e+01
7.251539e+01	-1.581067e+01
7.293424e+01	-1.585882e+01
7.335551e+01	-1.590753e+01
7.377920e+01	-1.595693e+01
7.420535e+01	-1.600672e+01
7.463396e+01	-1.605391e+01
7.506504e+01	-1.610412e+01
7.549861e+01	-1.615186e+01
7.593469e+01	-1.620127e+01
7.637328e+01	-1.624971e+01
7.681441e+01	-1.629912e+01
7.725809e+01	-1.634795e+01
7.770433e+01	-1.639695e+01
7.815315e+01	-1.644484e+01
7.860456e+01	-1.649442e+01
7.905857e+01	-1.654383e+01
7.951521e+01	-1.659201e+01
7.997449e+01	-1.664070e+01
8.043642e+01	-1.669064e+01
8.090102e+01	-1.673924e+01
8.136830e+01	-1.678779e+01
8.183828e+01	-1.683664e+01
8.231097e+01	-1.688532e+01
8.278640e+01	-1.693397e+01
8.326457e+01	-1.698495e+01
8.374550e+01	-1.703293e+01
8.422921e+01	-1.708197e+01
8.471572e+01	-1.713149e+01
8.520503e+01	-1.718055e+01
8.569717e+01	-1.722908e+01
8.619215e+01	-1.727840e+01
8.669000e+01	-1.732671e+01
8.719071e+01	-1.737802e+01
8.769432e+01	-1.742576e+01
8.820084e+01	-1.747441e+01
8.871029e+01	-1.752349e+01
8.922267e+01	-1.757324e+01
8.973802e+01	-1.762216e+01
9.025634e+01	-1.767150e+01
9.077766e+01	-1.771972e+01
9.130199e+01	-1.777067e+01
9.182935e+01	-1.781961e+01
9.235975e+01	-1.786901e+01
9.289321e+01	-1.791580e+01
9.342976e+01	-1.796716e+01
9.396941e+01	-1.801646e+01
9.451217e+01	-1.806630e+01
9.505807e+01	-1.811506e+01
9.560712e+01	-1.816435e+01
9.615934e+01	-1.821325e+01
9.671476e+01	-1.826325e+01
9.727338e+01	-1.831158e+01
9.783522e+01	-1.836034e+01
9.840032e+01	-1.840892e+01
9.896867e+01	-1.846021e+01
9.954031e+01	-1.850872e+01
1.001153e+02	-1.855890e+01
1.006935e+02	-1.860655e+01
1.012751e+02	-1.865744e+01
1.018601e+02	-1.870595e+01
1.024484e+02	-1.875569e+01
1.030402e+02	-1.880472e+01
1.036353e+02	-1.885423e+01
1.042339e+02	-1.890279e+01
1.048360e+02	-1.895322e+01
1.054415e+02	-1.900248e+01
1.060505e+02	-1.905111e+01
1.066631e+02	-1.910180e+01
1.072791e+02	-1.914955e+01
1.078988e+02	-1.920030e+01
1.085220e+02	-1.924926e+01
1.091488e+02	-1.929793e+01
1.097793e+02	-1.934690e+01
1.104133e+02	-1.939656e+01
1.110511e+02	-1.944553e+01
1.116925e+02	-1.949732e+01
1.123376e+02	-1.954533e+01
1.129865e+02	-1.959484e+01
1.136391e+02	-1.964542e+01
1.142955e+02	-1.969561e+01
1.149556e+02	-1.974453e+01
1.156196e+02	-1.979306e+01
1.162874e+02	-1.984148e+01
1.169591e+02	-1.989322e+01
1.176347e+02	-1.994166e+01
1.183141e+02	-1.999201e+01
1.189975e+02	-2.004106e+01
1.196848e+02	-2.009043e+01
1.203761e+02	-2.014186e+01
1.210714e+02	-2.018966e+01
1.217707e+02	-2.023942e+01
1.224740e+02	-2.028683e+01
1.231814e+02	-2.033931e+01
1.238929e+02	-2.038865e+01
1.246085e+02	-2.043741e+01
1.253283e+02	-2.048750e+01
1.260522e+02	-2.053746e+01
1.267802e+02	-2.058677e+01
1.275125e+02	-2.063621e+01
1.282490e+02	-2.068603e+01
1.289898e+02	-2.073395e+01
1.297348e+02	-2.078625e+01
1.304842e+02	-2.083437e+01
1.312378e+02	-2.088380e+01
1.319959e+02	-2.093335e+01
1.327583e+02	-2.098356e+01
1.335251e+02	-2.103326e+01
1.342963e+02	-2.108252e+01
1.350720e+02	-2.113210e+01
1.358522e+02	-2.118363e+01
1.366368e+02	-2.123354e+01
1.374260e+02	-2.128192e+01
1.382198e+02	-2.133238e+01
1.390182e+02	-2.138024e+01
1.398211e+02	-2.143009e+01
1.406287e+02	-2.147890e+01
1.414410e+02	-2.153017e+01
1.422579e+02	-2.157917e+01
1.430796e+02	-2.162700e+01
1.439060e+02	-2.167903e+01
1.447372e+02	-2.172829e+01
1.455732e+02	-2.177853e+01
1.464141e+02	-2.182802e+01
1.472597e+02	-2.187667e+01
1.481103e+02	-2.192832e+01
1.489658e+02	-2.197722e+01
1.498262e+02	-2.202698e+01
1.506916e+02	-2.207910e+01
1.515620e+02	-2.212624e+01
1.524374e+02	-2.217659e+01
1.533179e+02	-2.222608e+01
1.542034e+02	-2.227357e+01
1.550941e+02	-2.232588e+01
1.559899e+02	-2.237362e+01
1.568909e+02	-2.242327e+01
1.577971e+02	-2.247254e+01
1.587085e+02	-2.252721e+01
1.596252e+02	-2.257313e+01
1.605472e+02	-2.262576e+01
1.614745e+02	-2.267414e+01
1.624072e+02	-2.272424e+01
1.633453e+02	-2.277167e+01
1.642887e+02	-2.282353e+01
1.652377e+02	-2.287256e+01
1.661921e+02	-2.292338e+01
1.671520e+02	-2.297299e+01
1.681175e+02	-2.302545e+01
1.690885e+02	-2.307240e+01
1.700651e+02	-2.312243e+01
1.710474e+02	-2.317276e+01
1.720354e+02	-2.322079e+01
1.730291e+02	-2.327161e+01
1.740285e+02	-2.332300e+01
1.750337e+02	-2.337058e+01
1.760446e+02	-2.342020e+01
1.770615e+02	-2.347081e+01
1.780842e+02	-2.352174e+01
1.791128e+02	-2.356921e+01
1.801473e+02	-2.362039e+01
1.811878e+02	-2.366988e+01
1.822344e+02	-2.372055e+01
1.832870e+02	-2.376827e+01
1.843456e+02	-2.381874e+01
1.854104e+02	-2.386979e+01
1.864813e+02	-2.391995e+01
1.875584e+02	-2.397121e+01
1.886418e+02	-2.401904e+01
1.897313e+02	-2.407006e+01
1.908272e+02	-2.411773e+01
1.919294e+02	-2.417110e+01
1.930380e+02	-2.421883e+01
1.941530e+02	-2.426690e+01
1.952744e+02	-2.431957e+01
1.964023e+02	-2.436891e+01
1.975367e+02	-2.441560e+01
1.986777e+02	-2.446695e+01
1.998252e+02	-2.451920e+01
2.009794e+02	-2.456900e+01
2.021403e+02	-2.461514e+01
2.033078e+02	-2.466642e+01
2.044821e+02	-2.471664e+01
2.056632e+02	-2.476916e+01
2.068511e+02	-2.481878e+01
2.080459e+02	-2.486642e+01
2.092475e+02	-2.491394e+01
2.104561e+02	-2.496841e+01
2.116717e+02	-2.501270e+01
2.128943e+02	-2.506654e+01
2.141240e+02	-2.511792e+01
2.153608e+02	-2.516838e+01
2.166047e+02	-2.521546e+01
2.178558e+02	-2.526728e+01
2.191141e+02	-2.531278e+01
2.203797e+02	-2.536893e+01
2.216526e+02	-2.541248e+01
2.229329e+02	-2.546540e+01
2.242205e+02	-2.551579e+01
2.255156e+02	-2.556429e+01
2.268182e+02	-2.561600e+01
2.281283e+02	-2.566864e+01
2.294459e+02	-2.571686e+01
2.307712e+02	-2.576558e+01
2.321041e+02	-2.581652e+01
2.334447e+02	-2.586546e+01
2.347931e+02	-2.591466e+01
2.361493e+02	-2.596312e+01
2.375133e+02	-2.601306e+01
2.388851e+02	-2.606466e+01
2.402649e+02	-2.611425e+01
2.416527e+02	-2.616569e+01
2.430484e+02	-2.621722e+01
2.444523e+02	-2.626648e+01
2.458642e+02	-2.631381e+01
2.472843e+02	-2.636166e+01
2.487126e+02	-2.641207e+01
2.501492e+02	-2.646340e+01
2.515940e+02	-2.651334e+01
2.530472e+02	-2.656200e+01
2.545088e+02	-2.661316e+01
2.559789e+02	-2.666050e+01
2.574574e+02	-2.671644e+01
2.589444e+02	-2.676461e+01
2.604401e+02	-2.681631e+01
2.619444e+02	-2.686388e+01
2.634574e+02	-2.691797e+01
2.649791e+02	-2.696156e+01
2.665096e+02	-2.701006e+01
2.680489e+02	-2.706484e+01
2.695972e+02	-2.711614e+01
2.711544e+02	-2.716245e+01
2.727205e+02	-2.721186e+01
2.742958e+02	-2.726264e+01
2.758801e+02	-2.731718e+01
2.774736e+02	-2.735914e+01
2.790762e+02	-2.741346e+01
2.806882e+02	-2.746203e+01
2.823094e+02	-2.751351e+01
2.839400e+02	-2.756758e+01
2.855800e+02	-2.761376e+01
2.872295e+02	-2.766435e+01
2.888886e+02	-2.771487e+01
2.905572e+02	-2.776209e+01
2.922354e+02	-2.781208e+01
2.939234e+02	-2.786466e+01
2.956211e+02	-2.791467e+01
2.973286e+02	-2.796343e+01
2.990459e+02	-2.801233e+01
3.007732e+02	-2.806681e+01
3.025104e+02	-2.811458e+01
3.042577e+02	-2.816137e+01
3.060151e+02	-2.821605e+01
3.077826e+02	-2.826304e+01
3.095604e+02	-2.831616e+01
3.113484e+02	-2.836214e+01
3.131467e+02	-2.841083e+01
3.149554e+02	-2.846521e+01
3.167746e+02	-2.851378e+01
3.186043e+02	-2.856553e+01
3.204445e+02	-2.861579e+01
3.222954e+02	-2.866602e+01
3.241570e+02	-2.871751e+01
3.260293e+02	-2.876208e+01
3.279124e+02	-2.880969e+01
3.298064e+02	-2.886321e+01
3.317114e+02	-2.891575e+01
3.336273e+02	-2.896477e+01
3.355544e+02	-2.901930e+01
3.374925e+02	-2.906841e+01
3.394418e+02	-2.911213e+01
3.414024e+02	-2.916572e+01
3.433744e+02	-2.921595e+01
3.453577e+02	-2.926355e+01
3.473525e+02	-2.931485e+01
3.493588e+02	-2.936080e+01
3.513766e+02	-2.941613e+01
3.534062e+02	-2.946641e+01
3.554474e+02	-2.951289e+01
3.575005e+02	-2.955994e+01
3.595654e+02	-2.961635e+01
3.616422e+02	-2.966612e+01
3.637311e+02	-2.971432e+01
3.658320e+02	-2.976691e+01
3.679450e+02	-2.981600e+01
3.700702e+02	-2.986339e+01
3.722077e+02	-2.991464e+01
3.743576e+02	-2.996986e+01
3.765199e+02	-3.001958e+01
3.786946e+02	-3.007049e+01
3.808820e+02	-3.011898e+01
3.830819e+02	-3.016462e+01
3.852946e+02	-3.021704e+01
3.875200e+02	-3.026921e+01
3.897583e+02	-3.031887e+01
3.920096e+02	-3.036687e+01
3.942738e+02	-3.041455e+01
3.965511e+02	-3.046773e+01
3.988416e+02	-3.051746e+01
4.011452e+02	-3.056792e+01
4.034622e+02	-3.061618e+01
4.057926e+02	-3.066808e+01
4.081365e+02	-3.071720e+01
4.104938e+02	-3.077090e+01
4.128648e+02	-3.082057e+01
4.152495e+02	-3.087000e+01
4.176480e+02	-3.091765e+01
4.200603e+02	-3.096590e+01
4.224866e+02	-3.101707e+01
4.249268e+02	-3.106413e+01
4.273812e+02	-3.111675e+01
4.298497e+02	-3.117090e+01
4.323325e+02	-3.121617e+01
4.348297e+02	-3.126935e+01
4.373412e+02	-3.131874e+01
4.398673e+02	-3.136988e+01
4.424079e+02	-3.142134e+01
4.449633e+02	-3.147131e+01
4.475334e+02	-3.151890e+01
4.501183e+02	-3.156959e+01
4.527182e+02	-3.162640e+01
4.553330e+02	-3.166766e+01
4.579630e+02	-3.172160e+01
4.606082e+02	-3.177136e+01
4.632687e+02	-3.182117e+01
4.659445e+02	-3.187754e+01
4.686358e+02	-3.192211e+01
4.713426e+02	-3.196347e+01
4.740650e+02	-3.202093e+01
4.768032e+02	-3.207248e+01
4.795572e+02	-3.211590e+01
4.823271e+02	-3.216711e+01
4.851130e+02	-3.222938e+01
4.879150e+02	-3.227581e+01
4.907332e+02	-3.232357e+01
4.935676e+02	-3.237099e+01
4.964185e+02	-3.242676e+01
4.992858e+02	-3.247387e+01
5.021696e+02	-3.252301e+01
5.050701e+02	-3.257123e+01
5.079874e+02	-3.262365e+01
5.109215e+02	-3.267602e+01
5.138726e+02	-3.272571e+01
5.168407e+02	-3.277705e+01
5.198259e+02	-3.282648e+01
5.228284e+02	-3.287418e+01
5.258482e+02	-3.293146e+01
5.288855e+02	-3.297983e+01
5.319403e+02	-3.302981e+01
5.350128e+02	-3.308287e+01
5.381030e+02	-3.312113e+01
5.412111e+02	-3.317715e+01
5.443371e+02	-3.323398e+01
5.474812e+02	-3.328128e+01
5.506434e+02	-3.332706e+01
5.538239e+02	-3.337879e+01
5.570228e+02	-3.342356e+01
5.602401e+02	-3.347667e+01
5.634760e+02	-3.352413e+01
5.667306e+02	-3.357982e+01
5.700040e+02	-3.362693e+01
5.732964e+02	-3.368307e+01
5.766077e+02	-3.372808e+01
5.799382e+02	-3.378048e+01
5.832879e+02	-3.382889e+01
5.866569e+02	-3.388465e+01
5.900454e+02	-3.392603e+01
5.934535e+02	-3.398170e+01
5.968813e+02	-3.403570e+01
6.003288e+02	-3.408862e+01
6.037963e+02	-3.413615e+01
6.072838e+02	-3.418693e+01
6.107914e+02	-3.423017e+01
6.143194e+02	-3.427732e+01
6.178676e+02	-3.433876e+01
6.214364e+02	-3.438040e+01
6.250258e+02	-3.442812e+01
6.286359e+02	-3.449133e+01
6.322669e+02	-3.453213e+01
6.359189e+02	-3.459202e+01
6.395919e+02	-3.464388e+01
6.432862e+02	-3.468905e+01
6.470017e+02	-3.473117e+01
6.507388e+02	-3.479377e+01
6.544974e+02	-3.483829e+01
6.582778e+02	-3.488932e+01
6.620800e+02	-3.493261e+01
6.659041e+02	-3.498822e+01
6.697504e+02	-3.504135e+01
6.736188e+02	-3.508757e+01
6.775096e+02	-3.514242e+01
6.814229e+02	-3.519458e+01
6.853587e+02	-3.523832e+01
6.893173e+02	-3.530010e+01
6.932988e+02	-3.534105e+01
6.973033e+02	-3.538228e+01
7.013309e+02	-3.543901e+01
