Frequency(Hz)	Magnitude(dB)
1.000000e+01	-1.605264e-05
1.005776e+01	-1.623861e-05
1.011585e+01	-1.642674e-05
1.017428e+01	-1.661705e-05
1.023305e+01	-1.680956e-05
1.029215e+01	-1.700430e-05
1.035160e+01	-1.720130e-05
1.041139e+01	-1.740058e-05
1.047153e+01	-1.760217e-05
1.053201e+01	-1.780610e-05
1.059284e+01	-1.801239e-05
1.065403e+01	-1.822106e-05
1.071556e+01	-1.843216e-05
1.077746e+01	-1.864570e-05
1.083971e+01	-1.886172e-05
1.090232e+01	-1.908023e-05
1.096529e+01	-1.930128e-05
1.102862e+01	-1.952489e-05
1.109232e+01	-1.975109e-05
1.115639e+01	-1.997992e-05
1.122083e+01	-2.021139e-05
1.128564e+01	-2.044554e-05
1.135083e+01	-2.068241e-05
1.141639e+01	-2.092202e-05
1.148233e+01	-2.116441e-05
1.154865e+01	-2.140960e-05
1.161536e+01	-2.165764e-05
1.168245e+01	-2.190855e-05
1.174992e+01	-2.216236e-05
1.181779e+01	-2.241912e-05
1.188605e+01	-2.267885e-05
1.195470e+01	-2.294159e-05
1.202375e+01	-2.320738e-05
1.209320e+01	-2.347624e-05
1.216305e+01	-2.374822e-05
1.223330e+01	-2.402335e-05
1.230396e+01	-2.430166e-05
1.237503e+01	-2.458320e-05
1.244651e+01	-2.486800e-05
1.251840e+01	-2.515611e-05
1.259070e+01	-2.544755e-05
1.266343e+01	-2.574236e-05
1.273657e+01	-2.604059e-05
1.281014e+01	-2.634228e-05
1.288413e+01	-2.664746e-05
1.295855e+01	-2.695618e-05
1.303339e+01	-2.726847e-05
1.310867e+01	-2.758439e-05
1.318439e+01	-2.790396e-05
1.326054e+01	-2.822723e-05
1.333713e+01	-2.855425e-05
1.341417e+01	-2.888506e-05
1.349165e+01	-2.921970e-05
1.356958e+01	-2.955822e-05
1.364795e+01	-2.990066e-05
1.372678e+01	-3.024706e-05
1.380607e+01	-3.059748e-05
1.388581e+01	-3.095196e-05
1.396602e+01	-3.131055e-05
1.404668e+01	-3.167329e-05
1.412782e+01	-3.204023e-05
1.420942e+01	-3.241142e-05
1.429149e+01	-3.278692e-05
1.437404e+01	-3.316676e-05
1.445706e+01	-3.355101e-05
1.454057e+01	-3.393970e-05
1.462455e+01	-3.433290e-05
1.470902e+01	-3.473066e-05
1.479398e+01	-3.513302e-05
1.487943e+01	-3.554004e-05
1.496537e+01	-3.595178e-05
1.505181e+01	-3.636829e-05
1.513875e+01	-3.678963e-05
1.522619e+01	-3.721584e-05
1.531414e+01	-3.764700e-05
1.540259e+01	-3.808315e-05
1.549156e+01	-3.852435e-05
1.558103e+01	-3.897066e-05
1.567103e+01	-3.942215e-05
1.576155e+01	-3.987886e-05
1.585258e+01	-4.034087e-05
1.594415e+01	-4.080822e-05
1.603624e+01	-4.128100e-05
1.612886e+01	-4.175925e-05
1.622202e+01	-4.224304e-05
1.631572e+01	-4.273243e-05
1.640996e+01	-4.322750e-05
1.650474e+01	-4.372830e-05
1.660008e+01	-4.423490e-05
1.669596e+01	-4.474737e-05
1.679239e+01	-4.526578e-05
1.688938e+01	-4.579019e-05
1.698694e+01	-4.632068e-05
1.708505e+01	-4.685732e-05
1.718373e+01	-4.740017e-05
1.728299e+01	-4.794931e-05
1.738281e+01	-4.850481e-05
1.748322e+01	-4.906675e-05
1.758420e+01	-4.963520e-05
1.768576e+01	-5.021023e-05
1.778792e+01	-5.079193e-05
1.789066e+01	-5.138037e-05
1.799399e+01	-5.197562e-05
1.809793e+01	-5.257777e-05
1.820246e+01	-5.318689e-05
1.830760e+01	-5.380307e-05
1.841334e+01	-5.442639e-05
1.851969e+01	-5.505693e-05
1.862666e+01	-5.569478e-05
1.873425e+01	-5.634001e-05
1.884246e+01	-5.699272e-05
1.895129e+01	-5.765300e-05
1.906075e+01	-5.832092e-05
1.917085e+01	-5.899658e-05
1.928158e+01	-5.968007e-05
1.939295e+01	-6.037147e-05
1.950496e+01	-6.107089e-05
1.961762e+01	-6.177840e-05
1.973093e+01	-6.249412e-05
1.984490e+01	-6.321813e-05
1.995952e+01	-6.395052e-05
2.007480e+01	-6.469140e-05
2.019076e+01	-6.544086e-05
2.030738e+01	-6.619901e-05
2.042467e+01	-6.696593e-05
2.054264e+01	-6.774175e-05
2.066130e+01	-6.852655e-05
2.078064e+01	-6.932044e-05
2.090066e+01	-7.012353e-05
2.102139e+01	-7.093593e-05
2.114280e+01	-7.175773e-05
2.126492e+01	-7.258906e-05
2.138775e+01	-7.343002e-05
2.151128e+01	-7.428072e-05
2.163553e+01	-7.514127e-05
2.176050e+01	-7.601180e-05
2.188619e+01	-7.689241e-05
2.201260e+01	-7.778322e-05
2.213974e+01	-7.868435e-05
2.226762e+01	-7.959592e-05
2.239624e+01	-8.051805e-05
2.252560e+01	-8.145087e-05
2.265571e+01	-8.239449e-05
2.278656e+01	-8.334905e-05
2.291818e+01	-8.431466e-05
2.305055e+01	-8.529146e-05
2.318369e+01	-8.627957e-05
2.331760e+01	-8.727914e-05
2.345228e+01	-8.829028e-05
2.358774e+01	-8.931314e-05
2.372398e+01	-9.034784e-05
2.386101e+01	-9.139454e-05
2.399883e+01	-9.245336e-05
2.413745e+01	-9.352444e-05
2.427686e+01	-9.460794e-05
2.441709e+01	-9.570399e-05
2.455812e+01	-9.681273e-05
2.469997e+01	-9.793432e-05
2.484263e+01	-9.906891e-05
2.498612e+01	-1.002166e-04
2.513044e+01	-1.013777e-04
2.527559e+01	-1.025521e-04
2.542158e+01	-1.037402e-04
2.556842e+01	-1.049421e-04
2.571610e+01	-1.061578e-04
2.586463e+01	-1.073877e-04
2.601403e+01	-1.086318e-04
2.616428e+01	-1.098903e-04
2.631541e+01	-1.111634e-04
2.646740e+01	-1.124512e-04
2.662028e+01	-1.137540e-04
2.677404e+01	-1.150718e-04
2.692868e+01	-1.164050e-04
2.708422e+01	-1.177535e-04
2.724066e+01	-1.191177e-04
2.739800e+01	-1.204977e-04
2.755625e+01	-1.218937e-04
2.771541e+01	-1.233058e-04
2.787550e+01	-1.247344e-04
2.803650e+01	-1.261794e-04
2.819844e+01	-1.276412e-04
2.836131e+01	-1.291200e-04
2.852513e+01	-1.306158e-04
2.868989e+01	-1.321290e-04
2.885560e+01	-1.336598e-04
2.902227e+01	-1.352082e-04
2.918990e+01	-1.367746e-04
2.935850e+01	-1.383592e-04
2.952807e+01	-1.399621e-04
2.969863e+01	-1.415835e-04
2.987016e+01	-1.432238e-04
3.004269e+01	-1.448831e-04
3.021622e+01	-1.465615e-04
3.039075e+01	-1.482595e-04
3.056628e+01	-1.499771e-04
3.074283e+01	-1.517146e-04
3.092040e+01	-1.534722e-04
3.109900e+01	-1.552502e-04
3.127862e+01	-1.570488e-04
3.145929e+01	-1.588682e-04
3.164099e+01	-1.607087e-04
3.182375e+01	-1.625705e-04
3.200756e+01	-1.644539e-04
3.219244e+01	-1.663591e-04
3.237838e+01	-1.682864e-04
3.256540e+01	-1.702360e-04
3.275349e+01	-1.722082e-04
3.294268e+01	-1.742032e-04
3.313295e+01	-1.762214e-04
3.332433e+01	-1.782629e-04
3.351681e+01	-1.803281e-04
3.371040e+01	-1.824172e-04
3.390511e+01	-1.845305e-04
3.410094e+01	-1.866683e-04
3.429791e+01	-1.888308e-04
3.449601e+01	-1.910184e-04
3.469526e+01	-1.932314e-04
3.489566e+01	-1.954700e-04
3.509721e+01	-1.977345e-04
3.529993e+01	-2.000253e-04
3.550382e+01	-2.023426e-04
3.570889e+01	-2.046867e-04
3.591515e+01	-2.070580e-04
3.612259e+01	-2.094568e-04
3.633123e+01	-2.118833e-04
3.654108e+01	-2.143380e-04
3.675214e+01	-2.168211e-04
3.696442e+01	-2.193330e-04
3.717792e+01	-2.218739e-04
3.739266e+01	-2.244443e-04
3.760864e+01	-2.270445e-04
3.782587e+01	-2.296748e-04
3.804435e+01	-2.323356e-04
3.826409e+01	-2.350272e-04
3.848510e+01	-2.377500e-04
3.870739e+01	-2.405043e-04
3.893096e+01	-2.432905e-04
3.915583e+01	-2.461090e-04
3.938199e+01	-2.489602e-04
3.960946e+01	-2.518444e-04
3.983824e+01	-2.547620e-04
4.006834e+01	-2.577134e-04
4.029978e+01	-2.606990e-04
4.053255e+01	-2.637192e-04
4.076666e+01	-2.667743e-04
4.100213e+01	-2.698649e-04
4.123896e+01	-2.729913e-04
4.147715e+01	-2.761538e-04
4.171672e+01	-2.793530e-04
4.195767e+01	-2.825893e-04
4.220002e+01	-2.858631e-04
4.244377e+01	-2.891748e-04
4.268892e+01	-2.925248e-04
4.293549e+01	-2.959137e-04
4.318348e+01	-2.993418e-04
4.343291e+01	-3.028097e-04
4.368377e+01	-3.063177e-04
4.393609e+01	-3.098663e-04
4.418986e+01	-3.134561e-04
4.444510e+01	-3.170874e-04
4.470182e+01	-3.207608e-04
4.496001e+01	-3.244768e-04
4.521970e+01	-3.282358e-04
4.548089e+01	-3.320384e-04
4.574358e+01	-3.358850e-04
4.600779e+01	-3.397762e-04
4.627353e+01	-3.437124e-04
4.654081e+01	-3.476942e-04
4.680963e+01	-3.517222e-04
4.708000e+01	-3.557968e-04
4.735193e+01	-3.599187e-04
4.762543e+01	-3.640883e-04
4.790051e+01	-3.683061e-04
4.817719e+01	-3.725729e-04
4.845545e+01	-3.768891e-04
4.873533e+01	-3.812552e-04
4.901682e+01	-3.856720e-04
4.929994e+01	-3.901399e-04
4.958470e+01	-3.946596e-04
4.987110e+01	-3.992316e-04
5.015915e+01	-4.038566e-04
5.044887e+01	-4.085352e-04
5.074026e+01	-4.132679e-04
5.103333e+01	-4.180555e-04
5.132810e+01	-4.228986e-04
5.162457e+01	-4.277977e-04
5.192275e+01	-4.327537e-04
5.222265e+01	-4.377670e-04
5.252429e+01	-4.428384e-04
5.282767e+01	-4.479685e-04
5.313280e+01	-4.531581e-04
5.343969e+01	-4.584078e-04
5.374836e+01	-4.637183e-04
5.405880e+01	-4.690903e-04
5.437105e+01	-4.745245e-04
5.468509e+01	-4.800217e-04
5.500095e+01	-4.855826e-04
5.531863e+01	-4.912079e-04
5.563815e+01	-4.968983e-04
5.595951e+01	-5.026547e-04
5.628273e+01	-5.084777e-04
5.660782e+01	-5.143683e-04
5.693479e+01	-5.203270e-04
5.726364e+01	-5.263548e-04
5.759439e+01	-5.324524e-04
5.792705e+01	-5.386206e-04
5.826164e+01	-5.448603e-04
5.859815e+01	-5.511722e-04
5.893662e+01	-5.575573e-04
5.927703e+01	-5.640163e-04
5.961941e+01	-5.705502e-04
5.996377e+01	-5.771597e-04
6.031012e+01	-5.838458e-04
6.065847e+01	-5.906094e-04
6.100883e+01	-5.974513e-04
6.136121e+01	-6.043724e-04
6.171563e+01	-6.113738e-04
6.207210e+01	-6.184562e-04
6.243063e+01	-6.256207e-04
6.279122e+01	-6.328681e-04
6.315390e+01	-6.401995e-04
6.351868e+01	-6.476159e-04
6.388556e+01	-6.551181e-04
6.425456e+01	-6.627073e-04
6.462569e+01	-6.703843e-04
6.499897e+01	-6.781503e-04
6.537440e+01	-6.860062e-04
6.575200e+01	-6.939532e-04
6.613178e+01	-7.019922e-04
6.651375e+01	-7.101243e-04
6.689793e+01	-7.183506e-04
6.728433e+01	-7.266722e-04
6.767297e+01	-7.350901e-04
6.806384e+01	-7.436056e-04
6.845698e+01	-7.522198e-04
6.885238e+01	-7.609337e-04
6.925007e+01	-7.697485e-04
6.965005e+01	-7.786655e-04
7.005235e+01	-7.876857e-04
7.045697e+01	-7.968104e-04
7.086393e+01	-8.060408e-04
7.127323e+01	-8.153782e-04
7.168490e+01	-8.248236e-04
7.209895e+01	-8.343785e-04
7.251539e+01	-8.440441e-04
7.293424e+01	-8.538216e-04
7.335551e+01	-8.637124e-04
7.377920e+01	-8.737177e-04
7.420535e+01	-8.838390e-04
7.463396e+01	-8.940774e-04
7.506504e+01	-9.044345e-04
7.549861e+01	-9.149115e-04
7.593469e+01	-9.255099e-04
7.637328e+01	-9.362310e-04
7.681441e+01	-9.470763e-04
7.725809e+01	-9.580472e-04
7.770433e+01	-9.691452e-04
7.815315e+01	-9.803718e-04
7.860456e+01	-9.917283e-04
7.905857e+01	-1.003216e-03
7.951521e+01	-1.014838e-03
7.997449e+01	-1.026593e-03
8.043642e+01	-1.038485e-03
8.090102e+01	-1.050515e-03
8.136830e+01	-1.062684e-03
8.183828e+01	-1.074994e-03
8.231097e+01	-1.087447e-03
8.278640e+01	-1.100043e-03
8.326457e+01	-1.112786e-03
8.374550e+01	-1.125676e-03
8.422921e+01	-1.138716e-03
8.471572e+01	-1.151906e-03
8.520503e+01	-1.165250e-03
8.569717e+01	-1.178748e-03
8.619215e+01	-1.192402e-03
8.669000e+01	-1.206214e-03
8.719071e+01	-1.220187e-03
8.769432e+01	-1.234321e-03
8.820084e+01	-1.248619e-03
8.871029e+01	-1.263082e-03
8.922267e+01	-1.277713e-03
8.973802e+01	-1.292514e-03
9.025634e+01	-1.307485e-03
9.077766e+01	-1.322631e-03
9.130199e+01	-1.337951e-03
9.182935e+01	-1.353450e-03
9.235975e+01	-1.369127e-03
9.289321e+01	-1.384986e-03
9.342976e+01	-1.401029e-03
9.396941e+01	-1.417258e-03
9.451217e+01	-1.433674e-03
9.505807e+01	-1.450281e-03
9.560712e+01	-1.467080e-03
9.615934e+01	-1.484074e-03
9.671476e+01	-1.501264e-03
9.727338e+01	-1.518654e-03
9.783522e+01	-1.536245e-03
9.840032e+01	-1.554039e-03
9.896867e+01	-1.572040e-03
9.954031e+01	-1.590249e-03
1.001153e+02	-1.608669e-03
1.006935e+02	-1.627303e-03
1.012751e+02	-1.646152e-03
1.018601e+02	-1.665219e-03
1.024484e+02	-1.684507e-03
1.030402e+02	-1.704019e-03
1.036353e+02	-1.723757e-03
1.042339e+02	-1.743723e-03
1.048360e+02	-1.763920e-03
1.054415e+02	-1.784352e-03
1.060505e+02	-1.805019e-03
1.066631e+02	-1.825927e-03
1.072791e+02	-1.847076e-03
1.078988e+02	-1.868470e-03
1.085220e+02	-1.890112e-03
1.091488e+02	-1.912005e-03
1.097793e+02	-1.934151e-03
1.104133e+02	-1.956554e-03
1.110511e+02	-1.979216e-03
1.116925e+02	-2.002140e-03
1.123376e+02	-2.025330e-03
1.129865e+02	-2.048789e-03
1.136391e+02	-2.072519e-03
1.142955e+02	-2.096524e-03
1.149556e+02	-2.120806e-03
1.156196e+02	-2.145370e-03
1.162874e+02	-2.170219e-03
1.169591e+02	-2.195355e-03
1.176347e+02	-2.220782e-03
1.183141e+02	-2.246504e-03
1.189975e+02	-2.272524e-03
1.196848e+02	-2.298844e-03
1.203761e+02	-2.325470e-03
1.210714e+02	-2.352404e-03
1.217707e+02	-2.379650e-03
1.224740e+02	-2.407211e-03
1.231814e+02	-2.435091e-03
1.238929e+02	-2.463294e-03
1.246085e+02	-2.491824e-03
1.253283e+02	-2.520684e-03
1.260522e+02	-2.549878e-03
1.267802e+02	-2.579411e-03
1.275125e+02	-2.609285e-03
1.282490e+02	-2.639505e-03
1.289898e+02	-2.670075e-03
1.297348e+02	-2.700999e-03
1.304842e+02	-2.732281e-03
1.312378e+02	-2.763925e-03
1.319959e+02	-2.795935e-03
1.327583e+02	-2.828316e-03
1.335251e+02	-2.861072e-03
1.342963e+02	-2.894208e-03
1.350720e+02	-2.927726e-03
1.358522e+02	-2.961633e-03
1.366368e+02	-2.995933e-03
1.374260e+02	-3.030629e-03
1.382198e+02	-3.065728e-03
1.390182e+02	-3.101232e-03
1.398211e+02	-3.137148e-03
1.406287e+02	-3.173479e-03
1.414410e+02	-3.210231e-03
1.422579e+02	-3.247408e-03
1.430796e+02	-3.285016e-03
1.439060e+02	-3.323059e-03
1.447372e+02	-3.361543e-03
1.455732e+02	-3.400472e-03
1.464141e+02	-3.439852e-03
1.472597e+02	-3.479688e-03
1.481103e+02	-3.519984e-03
1.489658e+02	-3.560747e-03
1.498262e+02	-3.601983e-03
1.506916e+02	-3.643695e-03
1.515620e+02	-3.685890e-03
1.524374e+02	-3.728574e-03
1.533179e+02	-3.771751e-03
1.542034e+02	-3.815429e-03
1.550941e+02	-3.859612e-03
1.559899e+02	-3.904306e-03
1.568909e+02	-3.949518e-03
1.577971e+02	-3.995253e-03
1.587085e+02	-4.041518e-03
1.596252e+02	-4.088318e-03
1.605472e+02	-4.135659e-03
1.614745e+02	-4.183549e-03
1.624072e+02	-4.231993e-03
1.633453e+02	-4.280997e-03
1.642887e+02	-4.330569e-03
1.652377e+02	-4.380715e-03
1.661921e+02	-4.431440e-03
1.671520e+02	-4.482753e-03
1.681175e+02	-4.534660e-03
1.690885e+02	-4.587167e-03
1.700651e+02	-4.640282e-03
1.710474e+02	-4.694012e-03
1.720354e+02	-4.748364e-03
1.730291e+02	-4.803344e-03
1.740285e+02	-4.858961e-03
1.750337e+02	-4.915221e-03
1.760446e+02	-4.972133e-03
1.770615e+02	-5.029703e-03
1.780842e+02	-5.087939e-03
1.791128e+02	-5.146849e-03
1.801473e+02	-5.206441e-03
1.811878e+02	-5.266722e-03
1.822344e+02	-5.327701e-03
1.832870e+02	-5.389385e-03
1.843456e+02	-5.451784e-03
1.854104e+02	-5.514904e-03
1.864813e+02	-5.578754e-03
1.875584e+02	-5.643343e-03
1.886418e+02	-5.708680e-03
1.897313e+02	-5.774772e-03
1.908272e+02	-5.841630e-03
1.919294e+02	-5.909260e-03
1.930380e+02	-5.977673e-03
1.941530e+02	-6.046878e-03
1.952744e+02	-6.116883e-03
1.964023e+02	-6.187698e-03
1.975367e+02	-6.259332e-03
1.986777e+02	-6.331795e-03
1.998252e+02	-6.405097e-03
2.009794e+02	-6.479246e-03
2.021403e+02	-6.554253e-03
2.033078e+02	-6.630127e-03
2.044821e+02	-6.706880e-03
2.056632e+02	-6.784520e-03
2.068511e+02	-6.863058e-03
2.080459e+02	-6.942504e-03
2.092475e+02	-7.022870e-03
2.104561e+02	-7.104165e-03
2.116717e+02	-7.186400e-03
2.128943e+02	-7.269587e-03
2.141240e+02	-7.353735e-03
2.153608e+02	-7.438857e-03
2.166047e+02	-7.524963e-03
2.178558e+02	-7.612065e-03
2.191141e+02	-7.700174e-03
2.203797e+02	-7.789303e-03
2.216526e+02	-7.879462e-03
2.229329e+02	-7.970663e-03
2.242205e+02	-8.062919e-03
2.255156e+02	-8.156242e-03
2.268182e+02	-8.250645e-03
2.281283e+02	-8.346138e-03
2.294459e+02	-8.442736e-03
2.307712e+02	-8.540451e-03
2.321041e+02	-8.639296e-03
2.334447e+02	-8.739283e-03
2.347931e+02	-8.840427e-03
2.361493e+02	-8.942739e-03
2.375133e+02	-9.046235e-03
2.388851e+02	-9.150927e-03
2.402649e+02	-9.256830e-03
2.416527e+02	-9.363957e-03
2.430484e+02	-9.472322e-03
2.444523e+02	-9.581940e-03
2.458642e+02	-9.692825e-03
2.472843e+02	-9.804991e-03
2.487126e+02	-9.918454e-03
2.501492e+02	-1.003323e-02
2.515940e+02	-1.014933e-02
2.530472e+02	-1.026677e-02
2.545088e+02	-1.038557e-02
2.559789e+02	-1.050575e-02
2.574574e+02	-1.062731e-02
2.589444e+02	-1.075028e-02
2.604401e+02	-1.087467e-02
2.619444e+02	-1.100049e-02
2.634574e+02	-1.112777e-02
2.649791e+02	-1.125652e-02
2.665096e+02	-1.138676e-02
2.680489e+02	-1.151850e-02
2.695972e+02	-1.165177e-02
2.711544e+02	-1.178657e-02
2.727205e+02	-1.192294e-02
2.742958e+02	-1.206087e-02
2.758801e+02	-1.220040e-02
2.774736e+02	-1.234155e-02
2.790762e+02	-1.248432e-02
2.806882e+02	-1.262874e-02
2.823094e+02	-1.277484e-02
2.839400e+02	-1.292261e-02
2.855800e+02	-1.307210e-02
2.872295e+02	-1.322331e-02
2.888886e+02	-1.337627e-02
2.905572e+02	-1.353100e-02
2.922354e+02	-1.368751e-02
2.939234e+02	-1.384583e-02
2.956211e+02	-1.400598e-02
2.973286e+02	-1.416797e-02
2.990459e+02	-1.433184e-02
3.007732e+02	-1.449760e-02
3.025104e+02	-1.466528e-02
3.042577e+02	-1.483489e-02
3.060151e+02	-1.500645e-02
3.077826e+02	-1.518000e-02
3.095604e+02	-1.535555e-02
3.113484e+02	-1.553313e-02
3.131467e+02	-1.571276e-02
3.149554e+02	-1.589446e-02
3.167746e+02	-1.607826e-02
3.186043e+02	-1.626418e-02
3.204445e+02	-1.645225e-02
3.222954e+02	-1.664249e-02
3.241570e+02	-1.683492e-02
3.260293e+02	-1.702957e-02
3.279124e+02	-1.722647e-02
3.298064e+02	-1.742565e-02
3.317114e+02	-1.762711e-02
3.336273e+02	-1.783091e-02
3.355544e+02	-1.803705e-02
3.374925e+02	-1.824558e-02
3.394418e+02	-1.845651e-02
3.414024e+02	-1.866987e-02
3.433744e+02	-1.888569e-02
3.453577e+02	-1.910400e-02
3.473525e+02	-1.932484e-02
3.493588e+02	-1.954821e-02
3.513766e+02	-1.977417e-02
3.534062e+02	-2.000273e-02
3.554474e+02	-2.023392e-02
3.575005e+02	-2.046778e-02
3.595654e+02	-2.070434e-02
3.616422e+02	-2.094362e-02
3.637311e+02	-2.118567e-02
3.658320e+02	-2.143050e-02
3.679450e+02	-2.167816e-02
3.700702e+02	-2.192867e-02
3.722077e+02	-2.218207e-02
3.743576e+02	-2.243839e-02
3.765199e+02	-2.269766e-02
3.786946e+02	-2.295992e-02
3.808820e+02	-2.322520e-02
3.830819e+02	-2.349354e-02
3.852946e+02	-2.376498e-02
3.875200e+02	-2.403953e-02
3.897583e+02	-2.431726e-02
3.920096e+02	-2.459818e-02
3.942738e+02	-2.488234e-02
3.965511e+02	-2.516977e-02
3.988416e+02	-2.546051e-02
4.011452e+02	-2.575460e-02
4.034622e+02	-2.605207e-02
4.057926e+02	-2.635297e-02
4.081365e+02	-2.665734e-02
4.104938e+02	-2.696521e-02
4.128648e+02	-2.727662e-02
4.152495e+02	-2.759162e-02
4.176480e+02	-2.791025e-02
4.200603e+02	-2.823254e-02
4.224866e+02	-2.855855e-02
4.249268e+02	-2.888830e-02
4.273812e+02	-2.922185e-02
4.298497e+02	-2.955924e-02
4.323325e+02	-2.990051e-02
4.348297e+02	-3.024570e-02
4.373412e+02	-3.059487e-02
4.398673e+02	-3.094805e-02
4.424079e+02	-3.130530e-02
4.449633e+02	-3.166665e-02
4.475334e+02	-3.203216e-02
4.501183e+02	-3.240187e-02
4.527182e+02	-3.277584e-02
4.553330e+02	-3.315410e-02
4.579630e+02	-3.353671e-02
4.606082e+02	-3.392372e-02
4.632687e+02	-3.431518e-02
4.659445e+02	-3.471114e-02
4.686358e+02	-3.511165e-02
4.713426e+02	-3.551676e-02
4.740650e+02	-3.592652e-02
4.768032e+02	-3.634099e-02
4.795572e+02	-3.676023e-02
4.823271e+02	-3.718428e-02
4.851130e+02	-3.761320e-02
4.879150e+02	-3.804704e-02
4.907332e+02	-3.848587e-02
4.935676e+02	-3.892973e-02
4.964185e+02	-3.937870e-02
4.992858e+02	-3.983281e-02
5.021696e+02	-4.029214e-02
5.050701e+02	-4.075674e-02
5.079874e+02	-4.122667e-02
5.109215e+02	-4.170199e-02
5.138726e+02	-4.218277e-02
5.168407e+02	-4.266906e-02
5.198259e+02	-4.316093e-02
5.228284e+02	-4.365845e-02
5.258482e+02	-4.416166e-02
5.288855e+02	-4.467065e-02
5.319403e+02	-4.518548e-02
5.350128e+02	-4.570620e-02
5.381030e+02	-4.623290e-02
5.412111e+02	-4.676563e-02
5.443371e+02	-4.730446e-02
5.474812e+02	-4.784947e-02
5.506434e+02	-4.840073e-02
5.538239e+02	-4.895830e-02
5.570228e+02	-4.952225e-02
5.602401e+02	-5.009267e-02
5.634760e+02	-5.066961e-02
5.667306e+02	-5.125316e-02
5.700040e+02	-5.184340e-02
5.732964e+02	-5.244038e-02
5.766077e+02	-5.304420e-02
5.799382e+02	-5.365493e-02
5.832879e+02	-5.427265e-02
5.866569e+02	-5.489744e-02
5.900454e+02	-5.552937e-02
5.934535e+02	-5.616852e-02
5.968813e+02	-5.681499e-02
6.003288e+02	-5.746885e-02
6.037963e+02	-5.813018e-02
6.072838e+02	-5.879907e-02
6.107914e+02	-5.947560e-02
6.143194e+02	-6.015986e-02
6.178676e+02	-6.085194e-02
6.214364e+02	-6.155193e-02
6.250258e+02	-6.225991e-02
6.286359e+02	-6.297597e-02
6.322669e+02	-6.370021e-02
6.359189e+02	-6.443272e-02
6.395919e+02	-6.517359e-02
6.432862e+02	-6.592291e-02
6.470017e+02	-6.668077e-02
6.507388e+02	-6.744729e-02
6.544974e+02	-6.822254e-02
6.582778e+02	-6.900664e-02
6.620800e+02	-6.979967e-02
6.659041e+02	-7.060175e-02
6.697504e+02	-7.141296e-02
6.736188e+02	-7.223342e-02
6.775096e+02	-7.306322e-02
6.814229e+02	-7.390248e-02
6.853587e+02	-7.475129e-02
6.893173e+02	-7.560977e-02
6.932988e+02	-7.647802e-02
6.973033e+02	-7.735615e-02
7.013309e+02	-7.824427e-02
