Frequency(Hz)	Magnitude(dB)
1.000000e+01	-2.327244e+00
1.005776e+01	-2.348000e+00
1.011585e+01	-2.369113e+00
1.017428e+01	-2.389963e+00
1.023305e+01	-2.411322e+00
1.029215e+01	-2.432768e+00
1.035160e+01	-2.454363e+00
1.041139e+01	-2.475980e+00
1.047153e+01	-2.497662e+00
1.053201e+01	-2.519647e+00
1.059284e+01	-2.541785e+00
1.065403e+01	-2.564074e+00
1.071556e+01	-2.586195e+00
1.077746e+01	-2.608871e+00
1.083971e+01	-2.631573e+00
1.090232e+01	-2.654473e+00
1.096529e+01	-2.677347e+00
1.102862e+01	-2.700415e+00
1.109232e+01	-2.723438e+00
1.115639e+01	-2.746830e+00
1.122083e+01	-2.770593e+00
1.128564e+01	-2.794379e+00
1.135083e+01	-2.817942e+00
1.141639e+01	-2.841705e+00
1.148233e+01	-2.866097e+00
1.154865e+01	-2.890422e+00
1.161536e+01	-2.914642e+00
1.168245e+01	-2.939346e+00
1.174992e+01	-2.963944e+00
1.181779e+01	-2.988840e+00
1.188605e+01	-3.013567e+00
1.195470e+01	-3.038907e+00
1.202375e+01	-3.064037e+00
1.209320e+01	-3.089339e+00
1.216305e+01	-3.115136e+00
1.223330e+01	-3.140768e+00
1.230396e+01	-3.166335e+00
1.237503e+01	-3.192338e+00
1.244651e+01	-3.218392e+00
1.251840e+01	-3.244524e+00
1.259070e+01	-3.271272e+00
1.266343e+01	-3.297669e+00
1.273657e+01	-3.324382e+00
1.281014e+01	-3.351254e+00
1.288413e+01	-3.378355e+00
1.295855e+01	-3.405396e+00
1.303339e+01	-3.432436e+00
1.310867e+01	-3.460205e+00
1.318439e+01	-3.487363e+00
1.326054e+01	-3.515050e+00
1.333713e+01	-3.543239e+00
1.341417e+01	-3.570935e+00
1.349165e+01	-3.599120e+00
1.356958e+01	-3.627380e+00
1.364795e+01	-3.655735e+00
1.372678e+01	-3.684285e+00
1.380607e+01	-3.713143e+00
1.388581e+01	-3.741723e+00
1.396602e+01	-3.770801e+00
1.404668e+01	-3.799989e+00
1.412782e+01	-3.828964e+00
1.420942e+01	-3.858343e+00
1.429149e+01	-3.887874e+00
1.437404e+01	-3.917616e+00
1.445706e+01	-3.947526e+00
1.454057e+01	-3.977659e+00
1.462455e+01	-4.007718e+00
1.470902e+01	-4.037611e+00
1.479398e+01	-4.068003e+00
1.487943e+01	-4.098309e+00
1.496537e+01	-4.129108e+00
1.505181e+01	-4.160039e+00
1.513875e+01	-4.190813e+00
1.522619e+01	-4.221872e+00
1.531414e+01	-4.252562e+00
1.540259e+01	-4.284236e+00
1.549156e+01	-4.315702e+00
1.558103e+01	-4.347027e+00
1.567103e+01	-4.378961e+00
1.576155e+01	-4.410952e+00
1.585258e+01	-4.442879e+00
1.594415e+01	-4.474685e+00
1.603624e+01	-4.507330e+00
1.612886e+01	-4.539712e+00
1.622202e+01	-4.572065e+00
1.631572e+01	-4.604875e+00
1.640996e+01	-4.637313e+00
1.650474e+01	-4.670306e+00
1.660008e+01	-4.703303e+00
1.669596e+01	-4.736415e+00
1.679239e+01	-4.769562e+00
1.688938e+01	-4.803321e+00
1.698694e+01	-4.836845e+00
1.708505e+01	-4.870582e+00
1.718373e+01	-4.904144e+00
1.728299e+01	-4.938358e+00
1.738281e+01	-4.972151e+00
1.748322e+01	-5.006311e+00
1.758420e+01	-5.040481e+00
1.768576e+01	-5.074895e+00
1.778792e+01	-5.109562e+00
1.789066e+01	-5.143830e+00
1.799399e+01	-5.178972e+00
1.809793e+01	-5.214012e+00
1.820246e+01	-5.249123e+00
1.830760e+01	-5.283967e+00
1.841334e+01	-5.319437e+00
1.851969e+01	-5.354758e+00
1.862666e+01	-5.390246e+00
1.873425e+01	-5.426052e+00
1.884246e+01	-5.461574e+00
1.895129e+01	-5.497348e+00
1.906075e+01	-5.533367e+00
1.917085e+01	-5.569348e+00
1.928158e+01	-5.605869e+00
1.939295e+01	-5.642324e+00
1.950496e+01	-5.678691e+00
1.961762e+01	-5.714785e+00
1.973093e+01	-5.751689e+00
1.984490e+01	-5.788358e+00
1.995952e+01	-5.825207e+00
2.007480e+01	-5.862156e+00
2.019076e+01	-5.899335e+00
2.030738e+01	-5.936793e+00
2.042467e+01	-5.974178e+00
2.054264e+01	-6.011689e+00
2.066130e+01	-6.048634e+00
2.078064e+01	-6.086729e+00
2.090066e+01	-6.124429e+00
2.102139e+01	-6.162215e+00
2.114280e+01	-6.200332e+00
2.126492e+01	-6.238635e+00
2.138775e+01	-6.276543e+00
2.151128e+01	-6.314720e+00
2.163553e+01	-6.353038e+00
2.176050e+01	-6.391213e+00
2.188619e+01	-6.430348e+00
2.201260e+01	-6.468866e+00
2.213974e+01	-6.508139e+00
2.226762e+01	-6.546619e+00
2.239624e+01	-6.585849e+00
2.252560e+01	-6.624726e+00
2.265571e+01	-6.664000e+00
2.278656e+01	-6.703320e+00
2.291818e+01	-6.742299e+00
2.305055e+01	-6.781788e+00
2.318369e+01	-6.821925e+00
2.331760e+01	-6.861011e+00
2.345228e+01	-6.901355e+00
2.358774e+01	-6.940951e+00
2.372398e+01	-6.981110e+00
2.386101e+01	-7.020842e+00
2.399883e+01	-7.060992e+00
2.413745e+01	-7.101244e+00
2.427686e+01	-7.141533e+00
2.441709e+01	-7.181977e+00
2.455812e+01	-7.222745e+00
2.469997e+01	-7.263089e+00
2.484263e+01	-7.304246e+00
2.498612e+01	-7.344674e+00
2.513044e+01	-7.385509e+00
2.527559e+01	-7.426741e+00
2.542158e+01	-7.467786e+00
2.556842e+01	-7.508613e+00
2.571610e+01	-7.549984e+00
2.586463e+01	-7.591183e+00
2.601403e+01	-7.632662e+00
2.616428e+01	-7.673814e+00
2.631541e+01	-7.715410e+00
2.646740e+01	-7.757163e+00
2.662028e+01	-7.798352e+00
2.677404e+01	-7.840295e+00
2.692868e+01	-7.882457e+00
2.708422e+01	-7.923817e+00
2.724066e+01	-7.966386e+00
2.739800e+01	-8.008261e+00
2.755625e+01	-8.050027e+00
2.771541e+01	-8.092530e+00
2.787550e+01	-8.134535e+00
2.803650e+01	-8.177459e+00
2.819844e+01	-8.219551e+00
2.836131e+01	-8.262244e+00
2.852513e+01	-8.305055e+00
2.868989e+01	-8.347289e+00
2.885560e+01	-8.389906e+00
2.902227e+01	-8.432963e+00
2.918990e+01	-8.475782e+00
2.935850e+01	-8.519116e+00
2.952807e+01	-8.561756e+00
2.969863e+01	-8.604721e+00
2.987016e+01	-8.648008e+00
3.004269e+01	-8.691442e+00
3.021622e+01	-8.734595e+00
3.039075e+01	-8.777673e+00
3.056628e+01	-8.821337e+00
3.074283e+01	-8.864829e+00
3.092040e+01	-8.908624e+00
3.109900e+01	-8.951712e+00
3.127862e+01	-8.995861e+00
3.145929e+01	-9.039280e+00
3.164099e+01	-9.083544e+00
3.182375e+01	-9.127301e+00
3.200756e+01	-9.171192e+00
3.219244e+01	-9.215291e+00
3.237838e+01	-9.258878e+00
3.256540e+01	-9.303820e+00
3.275349e+01	-9.347604e+00
3.294268e+01	-9.392132e+00
3.313295e+01	-9.436100e+00
3.332433e+01	-9.480676e+00
3.351681e+01	-9.524918e+00
3.371040e+01	-9.569412e+00
3.390511e+01	-9.614051e+00
3.410094e+01	-9.658448e+00
3.429791e+01	-9.703051e+00
3.449601e+01	-9.747486e+00
3.469526e+01	-9.792795e+00
3.489566e+01	-9.836899e+00
3.509721e+01	-9.882185e+00
3.529993e+01	-9.927105e+00
3.550382e+01	-9.971739e+00
3.570889e+01	-1.001735e+01
3.591515e+01	-1.006263e+01
3.612259e+01	-1.010722e+01
3.633123e+01	-1.015247e+01
3.654108e+01	-1.019760e+01
3.675214e+01	-1.024283e+01
3.696442e+01	-1.028819e+01
3.717792e+01	-1.033387e+01
3.739266e+01	-1.037954e+01
3.760864e+01	-1.042476e+01
3.782587e+01	-1.047025e+01
3.804435e+01	-1.051572e+01
3.826409e+01	-1.056115e+01
3.848510e+01	-1.060674e+01
3.870739e+01	-1.065272e+01
3.893096e+01	-1.069861e+01
3.915583e+01	-1.074380e+01
3.938199e+01	-1.079044e+01
3.960946e+01	-1.083599e+01
3.983824e+01	-1.088170e+01
4.006834e+01	-1.092746e+01
4.029978e+01	-1.097373e+01
4.053255e+01	-1.101985e+01
4.076666e+01	-1.106615e+01
4.100213e+01	-1.111210e+01
4.123896e+01	-1.115774e+01
4.147715e+01	-1.120447e+01
4.171672e+01	-1.125062e+01
4.195767e+01	-1.129685e+01
4.220002e+01	-1.134328e+01
4.244377e+01	-1.139035e+01
4.268892e+01	-1.143602e+01
4.293549e+01	-1.148257e+01
4.318348e+01	-1.152828e+01
4.343291e+01	-1.157580e+01
4.368377e+01	-1.162226e+01
4.393609e+01	-1.166833e+01
4.418986e+01	-1.171580e+01
4.444510e+01	-1.176188e+01
4.470182e+01	-1.180893e+01
4.496001e+01	-1.185553e+01
4.521970e+01	-1.190266e+01
4.548089e+01	-1.194845e+01
4.574358e+01	-1.199644e+01
4.600779e+01	-1.204241e+01
4.627353e+01	-1.208965e+01
4.654081e+01	-1.213588e+01
4.680963e+01	-1.218353e+01
4.708000e+01	-1.223080e+01
4.735193e+01	-1.227766e+01
4.762543e+01	-1.232460e+01
4.790051e+01	-1.237256e+01
4.817719e+01	-1.241957e+01
4.845545e+01	-1.246633e+01
4.873533e+01	-1.251366e+01
4.901682e+01	-1.256065e+01
4.929994e+01	-1.260793e+01
4.958470e+01	-1.265513e+01
4.987110e+01	-1.270269e+01
5.015915e+01	-1.274890e+01
5.044887e+01	-1.279718e+01
5.074026e+01	-1.284509e+01
5.103333e+01	-1.289214e+01
5.132810e+01	-1.294038e+01
5.162457e+01	-1.298733e+01
5.192275e+01	-1.303485e+01
5.222265e+01	-1.308310e+01
5.252429e+01	-1.313021e+01
5.282767e+01	-1.317743e+01
5.313280e+01	-1.322531e+01
5.343969e+01	-1.327218e+01
5.374836e+01	-1.332088e+01
5.405880e+01	-1.336787e+01
5.437105e+01	-1.341608e+01
5.468509e+01	-1.346349e+01
5.500095e+01	-1.351094e+01
5.531863e+01	-1.355970e+01
5.563815e+01	-1.360659e+01
5.595951e+01	-1.365472e+01
5.628273e+01	-1.370286e+01
5.660782e+01	-1.374991e+01
5.693479e+01	-1.379846e+01
5.726364e+01	-1.384698e+01
5.759439e+01	-1.389464e+01
5.792705e+01	-1.394244e+01
5.826164e+01	-1.399000e+01
5.859815e+01	-1.403801e+01
5.893662e+01	-1.408716e+01
5.927703e+01	-1.413573e+01
5.961941e+01	-1.418301e+01
5.996377e+01	-1.423084e+01
6.031012e+01	-1.427883e+01
6.065847e+01	-1.432765e+01
6.100883e+01	-1.437616e+01
6.136121e+01	-1.442418e+01
6.171563e+01	-1.447135e+01
6.207210e+01	-1.452011e+01
6.243063e+01	-1.456862e+01
6.279122e+01	-1.461631e+01
6.315390e+01	-1.466478e+01
6.351868e+01	-1.471345e+01
6.388556e+01	-1.476118e+01
6.425456e+01	-1.480982e+01
6.462569e+01	-1.485948e+01
6.499897e+01	-1.490687e+01
6.537440e+01	-1.495516e+01
6.575200e+01	-1.500360e+01
6.613178e+01	-1.505260e+01
6.651375e+01	-1.510103e+01
6.689793e+01	-1.514941e+01
6.728433e+01	-1.519793e+01
6.767297e+01	-1.524567e+01
6.806384e+01	-1.529431e+01
6.845698e+01	-1.534345e+01
6.885238e+01	-1.539156e+01
6.925007e+01	-1.544085e+01
6.965005e+01	-1.548897e+01
7.005235e+01	-1.553714e+01
7.045697e+01	-1.558590e+01
7.086393e+01	-1.563479e+01
7.127323e+01	-1.568410e+01
7.168490e+01	-1.573297e+01
7.209895e+01	-1.577998e+01
7.251539e+01	-1.582987e+01
7.293424e+01	-1.587809e+01
7.335551e+01	-1.592663e+01
7.377920e+01	-1.597564e+01
7.420535e+01	-1.602441e+01
7.463396e+01	-1.607416e+01
7.506504e+01	-1.612332e+01
7.549861e+01	-1.617189e+01
7.593469e+01	-1.622038e+01
7.637328e+01	-1.626882e+01
7.681441e+01	-1.631768e+01
7.725809e+01	-1.636700e+01
7.770433e+01	-1.641560e+01
7.815315e+01	-1.646472e+01
7.860456e+01	-1.651312e+01
7.905857e+01	-1.656191e+01
7.951521e+01	-1.661110e+01
7.997449e+01	-1.666080e+01
8.043642e+01	-1.670932e+01
8.090102e+01	-1.675752e+01
8.136830e+01	-1.680693e+01
8.183828e+01	-1.685651e+01
8.231097e+01	-1.690516e+01
8.278640e+01	-1.695353e+01
8.326457e+01	-1.700222e+01
8.374550e+01	-1.705175e+01
8.422921e+01	-1.710065e+01
8.471572e+01	-1.714945e+01
8.520503e+01	-1.719992e+01
8.569717e+01	-1.724854e+01
8.619215e+01	-1.729607e+01
8.669000e+01	-1.734706e+01
8.719071e+01	-1.739663e+01
8.769432e+01	-1.744497e+01
8.820084e+01	-1.749327e+01
8.871029e+01	-1.754207e+01
8.922267e+01	-1.759283e+01
8.973802e+01	-1.764202e+01
9.025634e+01	-1.769126e+01
9.077766e+01	-1.773952e+01
9.130199e+01	-1.778834e+01
9.182935e+01	-1.783599e+01
9.235975e+01	-1.788699e+01
9.289321e+01	-1.793675e+01
9.342976e+01	-1.798502e+01
9.396941e+01	-1.803554e+01
9.451217e+01	-1.808483e+01
9.505807e+01	-1.813329e+01
9.560712e+01	-1.818280e+01
9.615934e+01	-1.823236e+01
9.671476e+01	-1.828133e+01
9.727338e+01	-1.833047e+01
9.783522e+01	-1.837976e+01
9.840032e+01	-1.842891e+01
9.896867e+01	-1.847944e+01
9.954031e+01	-1.852742e+01
1.001153e+02	-1.857783e+01
1.006935e+02	-1.862771e+01
1.012751e+02	-1.867538e+01
1.018601e+02	-1.872552e+01
1.024484e+02	-1.877279e+01
1.030402e+02	-1.882391e+01
1.036353e+02	-1.887390e+01
1.042339e+02	-1.892325e+01
1.048360e+02	-1.897249e+01
1.054415e+02	-1.902103e+01
1.060505e+02	-1.907196e+01
1.066631e+02	-1.911954e+01
1.072791e+02	-1.916964e+01
1.078988e+02	-1.921856e+01
1.085220e+02	-1.926885e+01
1.091488e+02	-1.931833e+01
1.097793e+02	-1.936690e+01
1.104133e+02	-1.941715e+01
1.110511e+02	-1.946550e+01
1.116925e+02	-1.951717e+01
1.123376e+02	-1.956663e+01
1.129865e+02	-1.961419e+01
1.136391e+02	-1.966588e+01
1.142955e+02	-1.971427e+01
1.149556e+02	-1.976410e+01
1.156196e+02	-1.981392e+01
1.162874e+02	-1.986243e+01
1.169591e+02	-1.991356e+01
1.176347e+02	-1.996141e+01
1.183141e+02	-2.001120e+01
1.189975e+02	-2.006088e+01
1.196848e+02	-2.010949e+01
1.203761e+02	-2.016001e+01
1.210714e+02	-2.021028e+01
1.217707e+02	-2.026027e+01
1.224740e+02	-2.030759e+01
1.231814e+02	-2.035840e+01
1.238929e+02	-2.040756e+01
1.246085e+02	-2.045527e+01
1.253283e+02	-2.050712e+01
1.260522e+02	-2.055646e+01
1.267802e+02	-2.060773e+01
1.275125e+02	-2.065447e+01
1.282490e+02	-2.070374e+01
1.289898e+02	-2.075513e+01
1.297348e+02	-2.080372e+01
1.304842e+02	-2.085318e+01
1.312378e+02	-2.090222e+01
1.319959e+02	-2.095375e+01
1.327583e+02	-2.100262e+01
1.335251e+02	-2.105149e+01
1.342963e+02	-2.110315e+01
1.350720e+02	-2.115149e+01
1.358522e+02	-2.120100e+01
1.366368e+02	-2.125273e+01
1.374260e+02	-2.130093e+01
1.382198e+02	-2.135205e+01
1.390182e+02	-2.140004e+01
1.398211e+02	-2.144918e+01
1.406287e+02	-2.149935e+01
1.414410e+02	-2.154940e+01
1.422579e+02	-2.159926e+01
1.430796e+02	-2.164812e+01
1.439060e+02	-2.170032e+01
1.447372e+02	-2.174790e+01
1.455732e+02	-2.179835e+01
1.464141e+02	-2.184686e+01
1.472597e+02	-2.189751e+01
1.481103e+02	-2.194736e+01
1.489658e+02	-2.199663e+01
1.498262e+02	-2.204545e+01
1.506916e+02	-2.209725e+01
1.515620e+02	-2.214782e+01
1.524374e+02	-2.219688e+01
1.533179e+02	-2.224574e+01
1.542034e+02	-2.229676e+01
1.550941e+02	-2.234569e+01
1.559899e+02	-2.239361e+01
1.568909e+02	-2.244505e+01
1.577971e+02	-2.249501e+01
1.587085e+02	-2.254375e+01
1.596252e+02	-2.259539e+01
1.605472e+02	-2.264454e+01
1.614745e+02	-2.269300e+01
1.624072e+02	-2.274318e+01
1.633453e+02	-2.279535e+01
1.642887e+02	-2.284244e+01
1.652377e+02	-2.288972e+01
1.661921e+02	-2.294233e+01
1.671520e+02	-2.299144e+01
1.681175e+02	-2.304355e+01
1.690885e+02	-2.309165e+01
1.700651e+02	-2.314022e+01
1.710474e+02	-2.319248e+01
1.720354e+02	-2.324346e+01
1.730291e+02	-2.329308e+01
1.740285e+02	-2.334002e+01
1.750337e+02	-2.338860e+01
1.760446e+02	-2.343960e+01
1.770615e+02	-2.348939e+01
1.780842e+02	-2.354062e+01
1.791128e+02	-2.359125e+01
1.801473e+02	-2.363883e+01
1.811878e+02	-2.368739e+01
1.822344e+02	-2.373948e+01
1.832870e+02	-2.379139e+01
1.843456e+02	-2.383926e+01
1.854104e+02	-2.388998e+01
1.864813e+02	-2.393788e+01
1.875584e+02	-2.398892e+01
1.886418e+02	-2.403915e+01
1.897313e+02	-2.408759e+01
1.908272e+02	-2.413765e+01
1.919294e+02	-2.418923e+01
1.930380e+02	-2.423831e+01
1.941530e+02	-2.428790e+01
1.952744e+02	-2.433638e+01
1.964023e+02	-2.438762e+01
1.975367e+02	-2.443673e+01
1.986777e+02	-2.448430e+01
1.998252e+02	-2.453444e+01
2.009794e+02	-2.458719e+01
2.021403e+02	-2.463822e+01
2.033078e+02	-2.468491e+01
2.044821e+02	-2.473631e+01
2.056632e+02	-2.478523e+01
2.068511e+02	-2.483686e+01
2.080459e+02	-2.488572e+01
2.092475e+02	-2.493760e+01
2.104561e+02	-2.498654e+01
2.116717e+02	-2.503775e+01
2.128943e+02	-2.508534e+01
2.141240e+02	-2.513531e+01
2.153608e+02	-2.518578e+01
2.166047e+02	-2.523505e+01
2.178558e+02	-2.528475e+01
2.191141e+02	-2.533161e+01
2.203797e+02	-2.538462e+01
2.216526e+02	-2.543215e+01
2.229329e+02	-2.548324e+01
2.242205e+02	-2.553839e+01
2.255156e+02	-2.558688e+01
2.268182e+02	-2.563343e+01
2.281283e+02	-2.568613e+01
2.294459e+02	-2.573362e+01
2.307712e+02	-2.578573e+01
2.321041e+02	-2.583360e+01
2.334447e+02	-2.588712e+01
2.347931e+02	-2.593420e+01
2.361493e+02	-2.598213e+01
2.375133e+02	-2.603274e+01
2.388851e+02	-2.608454e+01
2.402649e+02	-2.613833e+01
2.416527e+02	-2.618387e+01
2.430484e+02	-2.623329e+01
2.444523e+02	-2.628600e+01
2.458642e+02	-2.633474e+01
2.472843e+02	-2.638350e+01
2.487126e+02	-2.643309e+01
2.501492e+02	-2.648110e+01
2.515940e+02	-2.653543e+01
2.530472e+02	-2.658253e+01
2.545088e+02	-2.663072e+01
2.559789e+02	-2.668585e+01
2.574574e+02	-2.673512e+01
2.589444e+02	-2.678109e+01
2.604401e+02	-2.683489e+01
2.619444e+02	-2.688636e+01
2.634574e+02	-2.693573e+01
2.649791e+02	-2.698690e+01
2.665096e+02	-2.703440e+01
2.680489e+02	-2.708215e+01
2.695972e+02	-2.713297e+01
2.711544e+02	-2.718423e+01
2.727205e+02	-2.723118e+01
2.742958e+02	-2.728278e+01
2.758801e+02	-2.733337e+01
2.774736e+02	-2.738466e+01
2.790762e+02	-2.743451e+01
2.806882e+02	-2.748352e+01
2.823094e+02	-2.753669e+01
2.839400e+02	-2.757942e+01
2.855800e+02	-2.763184e+01
2.872295e+02	-2.768536e+01
2.888886e+02	-2.773043e+01
2.905572e+02	-2.778361e+01
2.922354e+02	-2.783058e+01
2.939234e+02	-2.788809e+01
2.956211e+02	-2.793551e+01
2.973286e+02	-2.798109e+01
2.990459e+02	-2.803759e+01
3.007732e+02	-2.808554e+01
3.025104e+02	-2.813079e+01
3.042577e+02	-2.818323e+01
3.060151e+02	-2.823883e+01
3.077826e+02	-2.828881e+01
3.095604e+02	-2.833345e+01
3.113484e+02	-2.838451e+01
3.131467e+02	-2.843532e+01
3.149554e+02	-2.848297e+01
3.167746e+02	-2.853265e+01
3.186043e+02	-2.858034e+01
3.204445e+02	-2.863515e+01
3.222954e+02	-2.867986e+01
3.241570e+02	-2.872915e+01
3.260293e+02	-2.878284e+01
3.279124e+02	-2.883573e+01
3.298064e+02	-2.888488e+01
3.317114e+02	-2.893393e+01
3.336273e+02	-2.898584e+01
3.355544e+02	-2.903293e+01
3.374925e+02	-2.908326e+01
3.394418e+02	-2.913598e+01
3.414024e+02	-2.918651e+01
3.433744e+02	-2.923302e+01
3.453577e+02	-2.928524e+01
3.473525e+02	-2.933420e+01
3.493588e+02	-2.938936e+01
3.513766e+02	-2.943421e+01
3.534062e+02	-2.949185e+01
3.554474e+02	-2.953391e+01
3.575005e+02	-2.958560e+01
3.595654e+02	-2.963299e+01
3.616422e+02	-2.967924e+01
3.637311e+02	-2.973866e+01
3.658320e+02	-2.978795e+01
3.679450e+02	-2.984053e+01
3.700702e+02	-2.988421e+01
3.722077e+02	-2.994080e+01
3.743576e+02	-2.998848e+01
3.765199e+02	-3.004083e+01
3.786946e+02	-3.008487e+01
3.808820e+02	-3.013376e+01
3.830819e+02	-3.018766e+01
3.852946e+02	-3.023421e+01
3.875200e+02	-3.029226e+01
3.897583e+02	-3.033813e+01
3.920096e+02	-3.038217e+01
3.942738e+02	-3.043057e+01
3.965511e+02	-3.048353e+01
3.988416e+02	-3.053800e+01
4.011452e+02	-3.059330e+01
4.034622e+02	-3.063384e+01
4.057926e+02	-3.069192e+01
4.081365e+02	-3.074169e+01
4.104938e+02	-3.078785e+01
4.128648e+02	-3.083791e+01
4.152495e+02	-3.088446e+01
4.176480e+02	-3.094099e+01
4.200603e+02	-3.098867e+01
4.224866e+02	-3.103802e+01
4.249268e+02	-3.108893e+01
4.273812e+02	-3.113515e+01
4.298497e+02	-3.118154e+01
4.323325e+02	-3.123832e+01
4.348297e+02	-3.129120e+01
4.373412e+02	-3.133581e+01
4.398673e+02	-3.139266e+01
4.424079e+02	-3.144315e+01
4.449633e+02	-3.149238e+01
4.475334e+02	-3.154048e+01
4.501183e+02	-3.159249e+01
4.527182e+02	-3.164237e+01
4.553330e+02	-3.169257e+01
4.579630e+02	-3.174277e+01
4.606082e+02	-3.178297e+01
4.632687e+02	-3.184607e+01
4.659445e+02	-3.189013e+01
4.686358e+02	-3.194279e+01
4.713426e+02	-3.199251e+01
4.740650e+02	-3.204726e+01
4.768032e+02	-3.209645e+01
4.795572e+02	-3.214718e+01
4.823271e+02	-3.218819e+01
4.851130e+02	-3.224848e+01
4.879150e+02	-3.229148e+01
4.907332e+02	-3.234613e+01
4.935676e+02	-3.239577e+01
4.964185e+02	-3.244830e+01
4.992858e+02	-3.249159e+01
5.021696e+02	-3.254452e+01
5.050701e+02	-3.259505e+01
5.079874e+02	-3.264108e+01
5.109215e+02	-3.269047e+01
5.138726e+02	-3.274631e+01
5.168407e+02	-3.279263e+01
5.198259e+02	-3.285195e+01
5.228284e+02	-3.289641e+01
5.258482e+02	-3.293786e+01
5.288855e+02	-3.299755e+01
5.319403e+02	-3.304657e+01
5.350128e+02	-3.309711e+01
5.381030e+02	-3.315096e+01
5.412111e+02	-3.319729e+01
5.443371e+02	-3.324338e+01
5.474812e+02	-3.330039e+01
5.506434e+02	-3.334446e+01
5.538239e+02	-3.340309e+01
5.570228e+02	-3.344358e+01
5.602401e+02	-3.350137e+01
5.634760e+02	-3.354637e+01
5.667306e+02	-3.360201e+01
5.700040e+02	-3.364517e+01
5.732964e+02	-3.370060e+01
5.766077e+02	-3.375018e+01
5.799382e+02	-3.380114e+01
5.832879e+02	-3.385660e+01
5.866569e+02	-3.390033e+01
5.900454e+02	-3.395638e+01
5.934535e+02	-3.400548e+01
5.968813e+02	-3.405671e+01
6.003288e+02	-3.409734e+01
6.037963e+02	-3.415137e+01
6.072838e+02	-3.420544e+01
6.107914e+02	-3.425902e+01
6.143194e+02	-3.429635e+01
6.178676e+02	-3.435344e+01
6.214364e+02	-3.440711e+01
6.250258e+02	-3.446051e+01
6.286359e+02	-3.450020e+01
6.322669e+02	-3.455339e+01
6.359189e+02	-3.459730e+01
6.395919e+02	-3.464935e+01
6.432862e+02	-3.470018e+01
6.470017e+02	-3.475800e+01
6.507388e+02	-3.481008e+01
6.544974e+02	-3.484536e+01
6.582778e+02	-3.491465e+01
6.620800e+02	-3.496005e+01
6.659041e+02	-3.500856e+01
6.697504e+02	-3.505915e+01
6.736188e+02	-3.510913e+01
6.775096e+02	-3.516058e+01
6.814229e+02	-3.521184e+01
6.853587e+02	-3.525583e+01
6.893173e+02	-3.530683e+01
6.932988e+02	-3.535828e+01
6.973033e+02	-3.540313e+01
7.013309e+02	-3.546666e+01
