Frequency(Hz)	Magnitude(dB)
1.000000e+01	-2.326491e+00
1.005776e+01	-2.347571e+00
1.011585e+01	-2.368290e+00
1.017428e+01	-2.389525e+00
1.023305e+01	-2.410704e+00
1.029215e+01	-2.432069e+00
1.035160e+01	-2.453659e+00
1.041139e+01	-2.475301e+00
1.047153e+01	-2.497222e+00
1.053201e+01	-2.519054e+00
1.059284e+01	-2.541182e+00
1.065403e+01	-2.563292e+00
1.071556e+01	-2.585956e+00
1.077746e+01	-2.608502e+00
1.083971e+01	-2.630985e+00
1.090232e+01	-2.653501e+00
1.096529e+01	-2.676844e+00
1.102862e+01	-2.699750e+00
1.109232e+01	-2.723161e+00
1.115639e+01	-2.746530e+00
1.122083e+01	-2.769986e+00
1.128564e+01	-2.793431e+00
1.135083e+01	-2.817367e+00
1.141639e+01	-2.841382e+00
1.148233e+01	-2.865235e+00
1.154865e+01	-2.889822e+00
1.161536e+01	-2.914002e+00
1.168245e+01	-2.938818e+00
1.174992e+01	-2.963290e+00
1.181779e+01	-2.988033e+00
1.188605e+01	-3.013145e+00
1.195470e+01	-3.038098e+00
1.202375e+01	-3.063216e+00
1.209320e+01	-3.088746e+00
1.216305e+01	-3.114380e+00
1.223330e+01	-3.139817e+00
1.230396e+01	-3.165809e+00
1.237503e+01	-3.191814e+00
1.244651e+01	-3.217666e+00
1.251840e+01	-3.243990e+00
1.259070e+01	-3.270486e+00
1.266343e+01	-3.297018e+00
1.273657e+01	-3.323821e+00
1.281014e+01	-3.350755e+00
1.288413e+01	-3.377309e+00
1.295855e+01	-3.404677e+00
1.303339e+01	-3.431979e+00
1.310867e+01	-3.459217e+00
1.318439e+01	-3.486701e+00
1.326054e+01	-3.514652e+00
1.333713e+01	-3.542335e+00
1.341417e+01	-3.570217e+00
1.349165e+01	-3.598271e+00
1.356958e+01	-3.626828e+00
1.364795e+01	-3.655080e+00
1.372678e+01	-3.683527e+00
1.380607e+01	-3.712417e+00
1.388581e+01	-3.740864e+00
1.396602e+01	-3.770119e+00
1.404668e+01	-3.798958e+00
1.412782e+01	-3.828319e+00
1.420942e+01	-3.857595e+00
1.429149e+01	-3.887142e+00
1.437404e+01	-3.916697e+00
1.445706e+01	-3.946840e+00
1.454057e+01	-3.976467e+00
1.462455e+01	-4.006686e+00
1.470902e+01	-4.037009e+00
1.479398e+01	-4.067317e+00
1.487943e+01	-4.097618e+00
1.496537e+01	-4.128193e+00
1.505181e+01	-4.159139e+00
1.513875e+01	-4.190021e+00
1.522619e+01	-4.221226e+00
1.531414e+01	-4.252302e+00
1.540259e+01	-4.283621e+00
1.549156e+01	-4.315103e+00
1.558103e+01	-4.346416e+00
1.567103e+01	-4.378118e+00
1.576155e+01	-4.409868e+00
1.585258e+01	-4.442176e+00
1.594415e+01	-4.474198e+00
1.603624e+01	-4.506151e+00
1.612886e+01	-4.538469e+00
1.622202e+01	-4.571473e+00
1.631572e+01	-4.603678e+00
1.640996e+01	-4.636835e+00
1.650474e+01	-4.669385e+00
1.660008e+01	-4.702647e+00
1.669596e+01	-4.735755e+00
1.679239e+01	-4.769005e+00
1.688938e+01	-4.802400e+00
1.698694e+01	-4.836049e+00
1.708505e+01	-4.869626e+00
1.718373e+01	-4.903428e+00
1.728299e+01	-4.937017e+00
1.738281e+01	-4.971212e+00
1.748322e+01	-5.005455e+00
1.758420e+01	-5.039860e+00
1.768576e+01	-5.074082e+00
1.778792e+01	-5.108724e+00
1.789066e+01	-5.143563e+00
1.799399e+01	-5.178153e+00
1.809793e+01	-5.213064e+00
1.820246e+01	-5.247830e+00
1.830760e+01	-5.283218e+00
1.841334e+01	-5.318267e+00
1.851969e+01	-5.353597e+00
1.862666e+01	-5.389269e+00
1.873425e+01	-5.424954e+00
1.884246e+01	-5.460765e+00
1.895129e+01	-5.496570e+00
1.906075e+01	-5.532524e+00
1.917085e+01	-5.568598e+00
1.928158e+01	-5.604884e+00
1.939295e+01	-5.641328e+00
1.950496e+01	-5.677535e+00
1.961762e+01	-5.714319e+00
1.973093e+01	-5.750488e+00
1.984490e+01	-5.787449e+00
1.995952e+01	-5.824330e+00
2.007480e+01	-5.861624e+00
2.019076e+01	-5.898280e+00
2.030738e+01	-5.935654e+00
2.042467e+01	-5.972949e+00
2.054264e+01	-6.010486e+00
2.066130e+01	-6.047850e+00
2.078064e+01	-6.085717e+00
2.090066e+01	-6.123529e+00
2.102139e+01	-6.161290e+00
2.114280e+01	-6.199295e+00
2.126492e+01	-6.237729e+00
2.138775e+01	-6.275499e+00
2.151128e+01	-6.313763e+00
2.163553e+01	-6.352344e+00
2.176050e+01	-6.390860e+00
2.188619e+01	-6.429446e+00
2.201260e+01	-6.468105e+00
2.213974e+01	-6.506471e+00
2.226762e+01	-6.545756e+00
2.239624e+01	-6.584660e+00
2.252560e+01	-6.623760e+00
2.265571e+01	-6.662896e+00
2.278656e+01	-6.702502e+00
2.291818e+01	-6.741611e+00
2.305055e+01	-6.781133e+00
2.318369e+01	-6.820754e+00
2.331760e+01	-6.860123e+00
2.345228e+01	-6.900491e+00
2.358774e+01	-6.940027e+00
2.372398e+01	-6.980083e+00
2.386101e+01	-7.020269e+00
2.399883e+01	-7.060077e+00
2.413745e+01	-7.100777e+00
2.427686e+01	-7.140934e+00
2.441709e+01	-7.181211e+00
2.455812e+01	-7.221956e+00
2.469997e+01	-7.262163e+00
2.484263e+01	-7.303009e+00
2.498612e+01	-7.343582e+00
2.513044e+01	-7.384663e+00
2.527559e+01	-7.425571e+00
2.542158e+01	-7.466552e+00
2.556842e+01	-7.507536e+00
2.571610e+01	-7.548910e+00
2.586463e+01	-7.590135e+00
2.601403e+01	-7.631081e+00
2.616428e+01	-7.672611e+00
2.631541e+01	-7.714178e+00
2.646740e+01	-7.755367e+00
2.662028e+01	-7.797424e+00
2.677404e+01	-7.838989e+00
2.692868e+01	-7.881095e+00
2.708422e+01	-7.922927e+00
2.724066e+01	-7.965221e+00
2.739800e+01	-8.006976e+00
2.755625e+01	-8.049868e+00
2.771541e+01	-8.091331e+00
2.787550e+01	-8.133598e+00
2.803650e+01	-8.175952e+00
2.819844e+01	-8.219054e+00
2.836131e+01	-8.261375e+00
2.852513e+01	-8.303580e+00
2.868989e+01	-8.346492e+00
2.885560e+01	-8.389193e+00
2.902227e+01	-8.432155e+00
2.918990e+01	-8.474822e+00
2.935850e+01	-8.518175e+00
2.952807e+01	-8.560848e+00
2.969863e+01	-8.604019e+00
2.987016e+01	-8.646877e+00
3.004269e+01	-8.690544e+00
3.021622e+01	-8.733149e+00
3.039075e+01	-8.776649e+00
3.056628e+01	-8.820247e+00
3.074283e+01	-8.864115e+00
3.092040e+01	-8.907499e+00
3.109900e+01	-8.950432e+00
3.127862e+01	-8.994686e+00
3.145929e+01	-9.038938e+00
3.164099e+01	-9.082367e+00
3.182375e+01	-9.126592e+00
3.200756e+01	-9.170354e+00
3.219244e+01	-9.214024e+00
3.237838e+01	-9.258280e+00
3.256540e+01	-9.302371e+00
3.275349e+01	-9.346357e+00
3.294268e+01	-9.390661e+00
3.313295e+01	-9.435173e+00
3.332433e+01	-9.479694e+00
3.351681e+01	-9.523729e+00
3.371040e+01	-9.567833e+00
3.390511e+01	-9.612641e+00
3.410094e+01	-9.656919e+00
3.429791e+01	-9.702089e+00
3.449601e+01	-9.746420e+00
3.469526e+01	-9.791477e+00
3.489566e+01	-9.836233e+00
3.509721e+01	-9.880739e+00
3.529993e+01	-9.926481e+00
3.550382e+01	-9.971275e+00
3.570889e+01	-1.001612e+01
3.591515e+01	-1.006167e+01
3.612259e+01	-1.010597e+01
3.633123e+01	-1.015170e+01
3.654108e+01	-1.019686e+01
3.675214e+01	-1.024204e+01
3.696442e+01	-1.028684e+01
3.717792e+01	-1.033230e+01
3.739266e+01	-1.037790e+01
3.760864e+01	-1.042356e+01
3.782587e+01	-1.046892e+01
3.804435e+01	-1.051428e+01
3.826409e+01	-1.055985e+01
3.848510e+01	-1.060626e+01
3.870739e+01	-1.065169e+01
3.893096e+01	-1.069731e+01
3.915583e+01	-1.074317e+01
3.938199e+01	-1.078935e+01
3.960946e+01	-1.083451e+01
3.983824e+01	-1.088041e+01
4.006834e+01	-1.092645e+01
4.029978e+01	-1.097265e+01
4.053255e+01	-1.101852e+01
4.076666e+01	-1.106465e+01
4.100213e+01	-1.111084e+01
4.123896e+01	-1.115741e+01
4.147715e+01	-1.120331e+01
4.171672e+01	-1.124926e+01
4.195767e+01	-1.129641e+01
4.220002e+01	-1.134191e+01
4.244377e+01	-1.138863e+01
4.268892e+01	-1.143485e+01
4.293549e+01	-1.148145e+01
4.318348e+01	-1.152826e+01
4.343291e+01	-1.157449e+01
4.368377e+01	-1.162109e+01
4.393609e+01	-1.166785e+01
4.418986e+01	-1.171424e+01
4.444510e+01	-1.176100e+01
4.470182e+01	-1.180769e+01
4.496001e+01	-1.185455e+01
4.521970e+01	-1.190160e+01
4.548089e+01	-1.194801e+01
4.574358e+01	-1.199531e+01
4.600779e+01	-1.204229e+01
4.627353e+01	-1.208860e+01
4.654081e+01	-1.213542e+01
4.680963e+01	-1.218184e+01
4.708000e+01	-1.222926e+01
4.735193e+01	-1.227635e+01
4.762543e+01	-1.232322e+01
4.790051e+01	-1.237046e+01
4.817719e+01	-1.241791e+01
4.845545e+01	-1.246540e+01
4.873533e+01	-1.251263e+01
4.901682e+01	-1.255917e+01
4.929994e+01	-1.260640e+01
4.958470e+01	-1.265397e+01
4.987110e+01	-1.270131e+01
5.015915e+01	-1.274873e+01
5.044887e+01	-1.279576e+01
5.074026e+01	-1.284401e+01
5.103333e+01	-1.289023e+01
5.132810e+01	-1.293811e+01
5.162457e+01	-1.298707e+01
5.192275e+01	-1.303319e+01
5.222265e+01	-1.308121e+01
5.252429e+01	-1.312895e+01
5.282767e+01	-1.317591e+01
5.313280e+01	-1.322445e+01
5.343969e+01	-1.327107e+01
5.374836e+01	-1.331971e+01
5.405880e+01	-1.336697e+01
5.437105e+01	-1.341386e+01
5.468509e+01	-1.346171e+01
5.500095e+01	-1.350972e+01
5.531863e+01	-1.355878e+01
5.563815e+01	-1.360537e+01
5.595951e+01	-1.365446e+01
5.628273e+01	-1.370210e+01
5.660782e+01	-1.374998e+01
5.693479e+01	-1.379730e+01
5.726364e+01	-1.384556e+01
5.759439e+01	-1.389294e+01
5.792705e+01	-1.394112e+01
5.826164e+01	-1.398957e+01
5.859815e+01	-1.403749e+01
5.893662e+01	-1.408597e+01
5.927703e+01	-1.413358e+01
5.961941e+01	-1.418184e+01
5.996377e+01	-1.423073e+01
6.031012e+01	-1.427747e+01
6.065847e+01	-1.432567e+01
6.100883e+01	-1.437453e+01
6.136121e+01	-1.442260e+01
6.171563e+01	-1.447154e+01
6.207210e+01	-1.451921e+01
6.243063e+01	-1.456772e+01
6.279122e+01	-1.461557e+01
6.315390e+01	-1.466368e+01
6.351868e+01	-1.471206e+01
6.388556e+01	-1.476081e+01
6.425456e+01	-1.480923e+01
6.462569e+01	-1.485644e+01
6.499897e+01	-1.490683e+01
6.537440e+01	-1.495369e+01
6.575200e+01	-1.500126e+01
6.613178e+01	-1.505123e+01
6.651375e+01	-1.509987e+01
6.689793e+01	-1.514821e+01
6.728433e+01	-1.519751e+01
6.767297e+01	-1.524529e+01
6.806384e+01	-1.529313e+01
6.845698e+01	-1.534194e+01
6.885238e+01	-1.539113e+01
6.925007e+01	-1.543935e+01
6.965005e+01	-1.548786e+01
7.005235e+01	-1.553676e+01
7.045697e+01	-1.558527e+01
7.086393e+01	-1.563466e+01
7.127323e+01	-1.568322e+01
7.168490e+01	-1.573041e+01
7.209895e+01	-1.578035e+01
7.251539e+01	-1.582935e+01
7.293424e+01	-1.587673e+01
7.335551e+01	-1.592636e+01
7.377920e+01	-1.597425e+01
7.420535e+01	-1.602415e+01
7.463396e+01	-1.607290e+01
7.506504e+01	-1.612063e+01
7.549861e+01	-1.617047e+01
7.593469e+01	-1.621889e+01
7.637328e+01	-1.626806e+01
7.681441e+01	-1.631749e+01
7.725809e+01	-1.636541e+01
7.770433e+01	-1.641367e+01
7.815315e+01	-1.646283e+01
7.860456e+01	-1.651252e+01
7.905857e+01	-1.656088e+01
7.951521e+01	-1.660960e+01
7.997449e+01	-1.665891e+01
8.043642e+01	-1.670826e+01
8.090102e+01	-1.675653e+01
8.136830e+01	-1.680601e+01
8.183828e+01	-1.685453e+01
8.231097e+01	-1.690483e+01
8.278640e+01	-1.695273e+01
8.326457e+01	-1.700216e+01
8.374550e+01	-1.704932e+01
8.422921e+01	-1.710098e+01
8.471572e+01	-1.714845e+01
8.520503e+01	-1.719778e+01
8.569717e+01	-1.724672e+01
8.619215e+01	-1.729740e+01
8.669000e+01	-1.734417e+01
8.719071e+01	-1.739470e+01
8.769432e+01	-1.744492e+01
8.820084e+01	-1.749431e+01
8.871029e+01	-1.754210e+01
8.922267e+01	-1.759072e+01
8.973802e+01	-1.764178e+01
9.025634e+01	-1.768885e+01
9.077766e+01	-1.773840e+01
9.130199e+01	-1.778834e+01
9.182935e+01	-1.783706e+01
9.235975e+01	-1.788611e+01
9.289321e+01	-1.793635e+01
9.342976e+01	-1.798355e+01
9.396941e+01	-1.803310e+01
9.451217e+01	-1.808252e+01
9.505807e+01	-1.813239e+01
9.560712e+01	-1.818154e+01
9.615934e+01	-1.823220e+01
9.671476e+01	-1.828162e+01
9.727338e+01	-1.833034e+01
9.783522e+01	-1.837872e+01
9.840032e+01	-1.842835e+01
9.896867e+01	-1.847745e+01
9.954031e+01	-1.852741e+01
1.001153e+02	-1.857670e+01
1.006935e+02	-1.862412e+01
1.012751e+02	-1.867509e+01
1.018601e+02	-1.872407e+01
1.024484e+02	-1.877218e+01
1.030402e+02	-1.882325e+01
1.036353e+02	-1.887194e+01
1.042339e+02	-1.892184e+01
1.048360e+02	-1.897207e+01
1.054415e+02	-1.902205e+01
1.060505e+02	-1.907035e+01
1.066631e+02	-1.911915e+01
1.072791e+02	-1.916879e+01
1.078988e+02	-1.921703e+01
1.085220e+02	-1.926859e+01
1.091488e+02	-1.931702e+01
1.097793e+02	-1.936665e+01
1.104133e+02	-1.941577e+01
1.110511e+02	-1.946656e+01
1.116925e+02	-1.951433e+01
1.123376e+02	-1.956435e+01
1.129865e+02	-1.961479e+01
1.136391e+02	-1.966234e+01
1.142955e+02	-1.971307e+01
1.149556e+02	-1.976071e+01
1.156196e+02	-1.981138e+01
1.162874e+02	-1.986261e+01
1.169591e+02	-1.990944e+01
1.176347e+02	-1.995989e+01
1.183141e+02	-2.001073e+01
1.189975e+02	-2.005959e+01
1.196848e+02	-2.010732e+01
1.203761e+02	-2.015970e+01
1.210714e+02	-2.020834e+01
1.217707e+02	-2.025737e+01
1.224740e+02	-2.030714e+01
1.231814e+02	-2.035594e+01
1.238929e+02	-2.040615e+01
1.246085e+02	-2.045677e+01
1.253283e+02	-2.050631e+01
1.260522e+02	-2.055300e+01
1.267802e+02	-2.060356e+01
1.275125e+02	-2.065548e+01
1.282490e+02	-2.070232e+01
1.289898e+02	-2.075357e+01
1.297348e+02	-2.080302e+01
1.304842e+02	-2.085450e+01
1.312378e+02	-2.090153e+01
1.319959e+02	-2.095343e+01
1.327583e+02	-2.100180e+01
1.335251e+02	-2.105032e+01
1.342963e+02	-2.110170e+01
1.350720e+02	-2.115074e+01
1.358522e+02	-2.119917e+01
1.366368e+02	-2.124999e+01
1.374260e+02	-2.129924e+01
1.382198e+02	-2.135001e+01
1.390182e+02	-2.140052e+01
1.398211e+02	-2.144756e+01
1.406287e+02	-2.150024e+01
1.414410e+02	-2.154765e+01
1.422579e+02	-2.159678e+01
1.430796e+02	-2.164788e+01
1.439060e+02	-2.169876e+01
1.447372e+02	-2.174793e+01
1.455732e+02	-2.179722e+01
1.464141e+02	-2.184550e+01
1.472597e+02	-2.189746e+01
1.481103e+02	-2.194412e+01
1.489658e+02	-2.199395e+01
1.498262e+02	-2.204369e+01
1.506916e+02	-2.209488e+01
1.515620e+02	-2.214536e+01
1.524374e+02	-2.219584e+01
1.533179e+02	-2.224386e+01
1.542034e+02	-2.229158e+01
1.550941e+02	-2.234373e+01
1.559899e+02	-2.239107e+01
1.568909e+02	-2.244347e+01
1.577971e+02	-2.249367e+01
1.587085e+02	-2.254139e+01
1.596252e+02	-2.259357e+01
1.605472e+02	-2.264181e+01
1.614745e+02	-2.269197e+01
1.624072e+02	-2.274278e+01
1.633453e+02	-2.279098e+01
1.642887e+02	-2.283913e+01
1.652377e+02	-2.289073e+01
1.661921e+02	-2.294157e+01
1.671520e+02	-2.299015e+01
1.681175e+02	-2.303920e+01
1.690885e+02	-2.309010e+01
1.700651e+02	-2.313776e+01
1.710474e+02	-2.319317e+01
1.720354e+02	-2.324116e+01
1.730291e+02	-2.328921e+01
1.740285e+02	-2.333932e+01
1.750337e+02	-2.338971e+01
1.760446e+02	-2.343912e+01
1.770615e+02	-2.348879e+01
1.780842e+02	-2.353796e+01
1.791128e+02	-2.358768e+01
1.801473e+02	-2.363553e+01
1.811878e+02	-2.368871e+01
1.822344e+02	-2.373925e+01
1.832870e+02	-2.378748e+01
1.843456e+02	-2.383736e+01
1.854104e+02	-2.388886e+01
1.864813e+02	-2.393781e+01
1.875584e+02	-2.398931e+01
1.886418e+02	-2.403927e+01
1.897313e+02	-2.408726e+01
1.908272e+02	-2.413702e+01
1.919294e+02	-2.418741e+01
1.930380e+02	-2.423499e+01
1.941530e+02	-2.428483e+01
1.952744e+02	-2.433762e+01
1.964023e+02	-2.438534e+01
1.975367e+02	-2.443815e+01
1.986777e+02	-2.448429e+01
1.998252e+02	-2.453453e+01
2.009794e+02	-2.458667e+01
2.021403e+02	-2.463233e+01
2.033078e+02	-2.468672e+01
2.044821e+02	-2.473432e+01
2.056632e+02	-2.478499e+01
2.068511e+02	-2.483411e+01
2.080459e+02	-2.488614e+01
2.092475e+02	-2.493508e+01
2.104561e+02	-2.498770e+01
2.116717e+02	-2.503373e+01
2.128943e+02	-2.508205e+01
2.141240e+02	-2.513619e+01
2.153608e+02	-2.518687e+01
2.166047e+02	-2.523555e+01
2.178558e+02	-2.528556e+01
2.191141e+02	-2.533282e+01
2.203797e+02	-2.538371e+01
2.216526e+02	-2.543342e+01
2.229329e+02	-2.548495e+01
2.242205e+02	-2.553225e+01
2.255156e+02	-2.558231e+01
2.268182e+02	-2.563121e+01
2.281283e+02	-2.568120e+01
2.294459e+02	-2.573077e+01
2.307712e+02	-2.578478e+01
2.321041e+02	-2.583237e+01
2.334447e+02	-2.588182e+01
2.347931e+02	-2.593269e+01
2.361493e+02	-2.598313e+01
2.375133e+02	-2.603182e+01
2.388851e+02	-2.608297e+01
2.402649e+02	-2.613220e+01
2.416527e+02	-2.618268e+01
2.430484e+02	-2.623284e+01
2.444523e+02	-2.628249e+01
2.458642e+02	-2.632870e+01
2.472843e+02	-2.638370e+01
2.487126e+02	-2.643382e+01
2.501492e+02	-2.648328e+01
2.515940e+02	-2.653438e+01
2.530472e+02	-2.658289e+01
2.545088e+02	-2.663273e+01
2.559789e+02	-2.668205e+01
2.574574e+02	-2.673090e+01
2.589444e+02	-2.678424e+01
2.604401e+02	-2.683376e+01
2.619444e+02	-2.688346e+01
2.634574e+02	-2.693343e+01
2.649791e+02	-2.698157e+01
2.665096e+02	-2.703237e+01
2.680489e+02	-2.708200e+01
2.695972e+02	-2.713014e+01
2.711544e+02	-2.718310e+01
2.727205e+02	-2.723446e+01
2.742958e+02	-2.728384e+01
2.758801e+02	-2.733314e+01
2.774736e+02	-2.738130e+01
2.790762e+02	-2.743105e+01
2.806882e+02	-2.748146e+01
2.823094e+02	-2.753014e+01
2.839400e+02	-2.758442e+01
2.855800e+02	-2.762995e+01
2.872295e+02	-2.768180e+01
2.888886e+02	-2.773151e+01
2.905572e+02	-2.778096e+01
2.922354e+02	-2.783062e+01
2.939234e+02	-2.788527e+01
2.956211e+02	-2.792720e+01
2.973286e+02	-2.798150e+01
2.990459e+02	-2.803002e+01
3.007732e+02	-2.808767e+01
3.025104e+02	-2.813388e+01
3.042577e+02	-2.818440e+01
3.060151e+02	-2.823326e+01
3.077826e+02	-2.828565e+01
3.095604e+02	-2.833244e+01
3.113484e+02	-2.838288e+01
3.131467e+02	-2.842879e+01
3.149554e+02	-2.848473e+01
3.167746e+02	-2.853224e+01
3.186043e+02	-2.858020e+01
3.204445e+02	-2.863074e+01
3.222954e+02	-2.868094e+01
3.241570e+02	-2.873136e+01
3.260293e+02	-2.878367e+01
3.279124e+02	-2.883159e+01
3.298064e+02	-2.888012e+01
3.317114e+02	-2.893391e+01
3.336273e+02	-2.897844e+01
3.355544e+02	-2.903090e+01
3.374925e+02	-2.908340e+01
3.394418e+02	-2.913136e+01
3.414024e+02	-2.918665e+01
3.433744e+02	-2.923690e+01
3.453577e+02	-2.927993e+01
3.473525e+02	-2.933381e+01
3.493588e+02	-2.938312e+01
3.513766e+02	-2.943453e+01
3.534062e+02	-2.948155e+01
3.554474e+02	-2.953220e+01
3.575005e+02	-2.958458e+01
3.595654e+02	-2.962905e+01
3.616422e+02	-2.968423e+01
3.637311e+02	-2.973181e+01
3.658320e+02	-2.978368e+01
3.679450e+02	-2.983757e+01
3.700702e+02	-2.988088e+01
3.722077e+02	-2.993349e+01
3.743576e+02	-2.998309e+01
3.765199e+02	-3.003197e+01
3.786946e+02	-3.008367e+01
3.808820e+02	-3.013747e+01
3.830819e+02	-3.018752e+01
3.852946e+02	-3.023561e+01
3.875200e+02	-3.028608e+01
3.897583e+02	-3.033908e+01
3.920096e+02	-3.038264e+01
3.942738e+02	-3.043282e+01
3.965511e+02	-3.048588e+01
3.988416e+02	-3.053258e+01
4.011452e+02	-3.058032e+01
4.034622e+02	-3.063350e+01
4.057926e+02	-3.069081e+01
4.081365e+02	-3.073364e+01
4.104938e+02	-3.078675e+01
4.128648e+02	-3.083316e+01
4.152495e+02	-3.088781e+01
4.176480e+02	-3.093903e+01
4.200603e+02	-3.098741e+01
4.224866e+02	-3.103500e+01
4.249268e+02	-3.108333e+01
4.273812e+02	-3.113539e+01
4.298497e+02	-3.118806e+01
4.323325e+02	-3.124153e+01
4.348297e+02	-3.128641e+01
4.373412e+02	-3.134300e+01
4.398673e+02	-3.138725e+01
4.424079e+02	-3.143606e+01
4.449633e+02	-3.148850e+01
4.475334e+02	-3.153274e+01
4.501183e+02	-3.159410e+01
4.527182e+02	-3.163967e+01
4.553330e+02	-3.169375e+01
4.579630e+02	-3.173816e+01
4.606082e+02	-3.178954e+01
4.632687e+02	-3.184179e+01
4.659445e+02	-3.188801e+01
4.686358e+02	-3.193692e+01
4.713426e+02	-3.199304e+01
4.740650e+02	-3.204149e+01
4.768032e+02	-3.209023e+01
4.795572e+02	-3.214296e+01
4.823271e+02	-3.218399e+01
4.851130e+02	-3.224365e+01
4.879150e+02	-3.228811e+01
4.907332e+02	-3.234127e+01
4.935676e+02	-3.239160e+01
4.964185e+02	-3.243853e+01
4.992858e+02	-3.248891e+01
5.021696e+02	-3.253858e+01
5.050701e+02	-3.258923e+01
5.079874e+02	-3.264705e+01
5.109215e+02	-3.269174e+01
5.138726e+02	-3.274670e+01
5.168407e+02	-3.279326e+01
5.198259e+02	-3.283187e+01
5.228284e+02	-3.289738e+01
5.258482e+02	-3.293654e+01
5.288855e+02	-3.299228e+01
5.319403e+02	-3.304191e+01
5.350128e+02	-3.308406e+01
5.381030e+02	-3.313988e+01
5.412111e+02	-3.319266e+01
5.443371e+02	-3.324555e+01
5.474812e+02	-3.329407e+01
5.506434e+02	-3.334167e+01
5.538239e+02	-3.339217e+01
5.570228e+02	-3.344785e+01
5.602401e+02	-3.349289e+01
5.634760e+02	-3.354344e+01
5.667306e+02	-3.359464e+01
5.700040e+02	-3.364924e+01
5.732964e+02	-3.369750e+01
5.766077e+02	-3.374696e+01
5.799382e+02	-3.380118e+01
5.832879e+02	-3.385249e+01
5.866569e+02	-3.389419e+01
5.900454e+02	-3.394987e+01
5.934535e+02	-3.399915e+01
5.968813e+02	-3.405484e+01
6.003288e+02	-3.409586e+01
6.037963e+02	-3.414332e+01
6.072838e+02	-3.419708e+01
6.107914e+02	-3.424723e+01
6.143194e+02	-3.429413e+01
6.178676e+02	-3.434284e+01
6.214364e+02	-3.439974e+01
6.250258e+02	-3.444690e+01
6.286359e+02	-3.450219e+01
6.322669e+02	-3.454278e+01
6.359189e+02	-3.461065e+01
6.395919e+02	-3.465492e+01
6.432862e+02	-3.470153e+01
6.470017e+02	-3.476342e+01
6.507388e+02	-3.480195e+01
6.544974e+02	-3.484786e+01
6.582778e+02	-3.489885e+01
6.620800e+02	-3.495908e+01
6.659041e+02	-3.500836e+01
6.697504e+02	-3.505017e+01
6.736188e+02	-3.511604e+01
6.775096e+02	-3.515217e+01
6.814229e+02	-3.519324e+01
6.853587e+02	-3.525589e+01
6.893173e+02	-3.530947e+01
6.932988e+02	-3.535382e+01
6.973033e+02	-3.541538e+01
7.013309e+02	-3.545665e+01
