Frequency(Hz)	Magnitude(dB)
1.000000e+01	-1.721775e-05
1.005776e+01	-1.741722e-05
1.011585e+01	-1.761901e-05
1.017428e+01	-1.782313e-05
1.023305e+01	-1.802961e-05
1.029215e+01	-1.823849e-05
1.035160e+01	-1.844979e-05
1.041139e+01	-1.866353e-05
1.047153e+01	-1.887976e-05
1.053201e+01	-1.909848e-05
1.059284e+01	-1.931974e-05
1.065403e+01	-1.954357e-05
1.071556e+01	-1.976998e-05
1.077746e+01	-1.999902e-05
1.083971e+01	-2.023072e-05
1.090232e+01	-2.046510e-05
1.096529e+01	-2.070219e-05
1.102862e+01	-2.094203e-05
1.109232e+01	-2.118465e-05
1.115639e+01	-2.143008e-05
1.122083e+01	-2.167835e-05
1.128564e+01	-2.192950e-05
1.135083e+01	-2.218356e-05
1.141639e+01	-2.244056e-05
1.148233e+01	-2.270054e-05
1.154865e+01	-2.296353e-05
1.161536e+01	-2.322957e-05
1.168245e+01	-2.349869e-05
1.174992e+01	-2.377093e-05
1.181779e+01	-2.404632e-05
1.188605e+01	-2.432490e-05
1.195470e+01	-2.460671e-05
1.202375e+01	-2.489179e-05
1.209320e+01	-2.518017e-05
1.216305e+01	-2.547188e-05
1.223330e+01	-2.576698e-05
1.230396e+01	-2.606550e-05
1.237503e+01	-2.636747e-05
1.244651e+01	-2.667295e-05
1.251840e+01	-2.698196e-05
1.259070e+01	-2.729455e-05
1.266343e+01	-2.761077e-05
1.273657e+01	-2.793064e-05
1.281014e+01	-2.825423e-05
1.288413e+01	-2.858156e-05
1.295855e+01	-2.891268e-05
1.303339e+01	-2.924764e-05
1.310867e+01	-2.958649e-05
1.318439e+01	-2.992925e-05
1.326054e+01	-3.027599e-05
1.333713e+01	-3.062674e-05
1.341417e+01	-3.098156e-05
1.349165e+01	-3.134049e-05
1.356958e+01	-3.170358e-05
1.364795e+01	-3.207087e-05
1.372678e+01	-3.244242e-05
1.380607e+01	-3.281827e-05
1.388581e+01	-3.319848e-05
1.396602e+01	-3.358309e-05
1.404668e+01	-3.397216e-05
1.412782e+01	-3.436574e-05
1.420942e+01	-3.476387e-05
1.429149e+01	-3.516662e-05
1.437404e+01	-3.557403e-05
1.445706e+01	-3.598617e-05
1.454057e+01	-3.640307e-05
1.462455e+01	-3.682481e-05
1.470902e+01	-3.725144e-05
1.479398e+01	-3.768300e-05
1.487943e+01	-3.811957e-05
1.496537e+01	-3.856119e-05
1.505181e+01	-3.900793e-05
1.513875e+01	-3.945985e-05
1.522619e+01	-3.991700e-05
1.531414e+01	-4.037945e-05
1.540259e+01	-4.084725e-05
1.549156e+01	-4.132048e-05
1.558103e+01	-4.179918e-05
1.567103e+01	-4.228344e-05
1.576155e+01	-4.277330e-05
1.585258e+01	-4.326884e-05
1.594415e+01	-4.377012e-05
1.603624e+01	-4.427720e-05
1.612886e+01	-4.479016e-05
1.622202e+01	-4.530907e-05
1.631572e+01	-4.583398e-05
1.640996e+01	-4.636498e-05
1.650474e+01	-4.690213e-05
1.660008e+01	-4.744550e-05
1.669596e+01	-4.799517e-05
1.679239e+01	-4.855120e-05
1.688938e+01	-4.911368e-05
1.698694e+01	-4.968267e-05
1.708505e+01	-5.025825e-05
1.718373e+01	-5.084051e-05
1.728299e+01	-5.142950e-05
1.738281e+01	-5.202533e-05
1.748322e+01	-5.262805e-05
1.758420e+01	-5.323776e-05
1.768576e+01	-5.385453e-05
1.778792e+01	-5.447844e-05
1.789066e+01	-5.510959e-05
1.799399e+01	-5.574804e-05
1.809793e+01	-5.639390e-05
1.820246e+01	-5.704723e-05
1.830760e+01	-5.770813e-05
1.841334e+01	-5.837670e-05
1.851969e+01	-5.905300e-05
1.862666e+01	-5.973714e-05
1.873425e+01	-6.042921e-05
1.884246e+01	-6.112929e-05
1.895129e+01	-6.183749e-05
1.906075e+01	-6.255389e-05
1.917085e+01	-6.327859e-05
1.928158e+01	-6.401168e-05
1.939295e+01	-6.475327e-05
1.950496e+01	-6.550345e-05
1.961762e+01	-6.626232e-05
1.973093e+01	-6.702998e-05
1.984490e+01	-6.780653e-05
1.995952e+01	-6.859209e-05
2.007480e+01	-6.938674e-05
2.019076e+01	-7.019060e-05
2.030738e+01	-7.100377e-05
2.042467e+01	-7.182636e-05
2.054264e+01	-7.265848e-05
2.066130e+01	-7.350024e-05
2.078064e+01	-7.435176e-05
2.090066e+01	-7.521313e-05
2.102139e+01	-7.608449e-05
2.114280e+01	-7.696594e-05
2.126492e+01	-7.785761e-05
2.138775e+01	-7.875960e-05
2.151128e+01	-7.967205e-05
2.163553e+01	-8.059506e-05
2.176050e+01	-8.152877e-05
2.188619e+01	-8.247329e-05
2.201260e+01	-8.342876e-05
2.213974e+01	-8.439530e-05
2.226762e+01	-8.537303e-05
2.239624e+01	-8.636209e-05
2.252560e+01	-8.736261e-05
2.265571e+01	-8.837472e-05
2.278656e+01	-8.939855e-05
2.291818e+01	-9.043425e-05
2.305055e+01	-9.148194e-05
2.318369e+01	-9.254178e-05
2.331760e+01	-9.361389e-05
2.345228e+01	-9.469842e-05
2.358774e+01	-9.579552e-05
2.372398e+01	-9.690532e-05
2.386101e+01	-9.802798e-05
2.399883e+01	-9.916365e-05
2.413745e+01	-1.003125e-04
2.427686e+01	-1.014746e-04
2.441709e+01	-1.026502e-04
2.455812e+01	-1.038394e-04
2.469997e+01	-1.050424e-04
2.484263e+01	-1.062594e-04
2.498612e+01	-1.074904e-04
2.513044e+01	-1.087357e-04
2.527559e+01	-1.099954e-04
2.542158e+01	-1.112697e-04
2.556842e+01	-1.125588e-04
2.571610e+01	-1.138628e-04
2.586463e+01	-1.151819e-04
2.601403e+01	-1.165163e-04
2.616428e+01	-1.178661e-04
2.631541e+01	-1.192316e-04
2.646740e+01	-1.206130e-04
2.662028e+01	-1.220103e-04
2.677404e+01	-1.234238e-04
2.692868e+01	-1.248537e-04
2.708422e+01	-1.263001e-04
2.724066e+01	-1.277633e-04
2.739800e+01	-1.292434e-04
2.755625e+01	-1.307407e-04
2.771541e+01	-1.322554e-04
2.787550e+01	-1.337876e-04
2.803650e+01	-1.353375e-04
2.819844e+01	-1.369054e-04
2.836131e+01	-1.384915e-04
2.852513e+01	-1.400959e-04
2.868989e+01	-1.417189e-04
2.885560e+01	-1.433608e-04
2.902227e+01	-1.450216e-04
2.918990e+01	-1.467017e-04
2.935850e+01	-1.484013e-04
2.952807e+01	-1.501205e-04
2.969863e+01	-1.518597e-04
2.987016e+01	-1.536190e-04
3.004269e+01	-1.553986e-04
3.021622e+01	-1.571990e-04
3.039075e+01	-1.590201e-04
3.056628e+01	-1.608624e-04
3.074283e+01	-1.627260e-04
3.092040e+01	-1.646112e-04
3.109900e+01	-1.665182e-04
3.127862e+01	-1.684473e-04
3.145929e+01	-1.703988e-04
3.164099e+01	-1.723729e-04
3.182375e+01	-1.743698e-04
3.200756e+01	-1.763899e-04
3.219244e+01	-1.784334e-04
3.237838e+01	-1.805005e-04
3.256540e+01	-1.825916e-04
3.275349e+01	-1.847070e-04
3.294268e+01	-1.868468e-04
3.313295e+01	-1.890114e-04
3.332433e+01	-1.912011e-04
3.351681e+01	-1.934162e-04
3.371040e+01	-1.956569e-04
3.390511e+01	-1.979236e-04
3.410094e+01	-2.002166e-04
3.429791e+01	-2.025361e-04
3.449601e+01	-2.048825e-04
3.469526e+01	-2.072560e-04
3.489566e+01	-2.096571e-04
3.509721e+01	-2.120860e-04
3.529993e+01	-2.145430e-04
3.550382e+01	-2.170285e-04
3.570889e+01	-2.195427e-04
3.591515e+01	-2.220861e-04
3.612259e+01	-2.246590e-04
3.633123e+01	-2.272617e-04
3.654108e+01	-2.298945e-04
3.675214e+01	-2.325578e-04
3.696442e+01	-2.352520e-04
3.717792e+01	-2.379774e-04
3.739266e+01	-2.407343e-04
3.760864e+01	-2.435232e-04
3.782587e+01	-2.463444e-04
3.804435e+01	-2.491983e-04
3.826409e+01	-2.520852e-04
3.848510e+01	-2.550056e-04
3.870739e+01	-2.579599e-04
3.893096e+01	-2.609483e-04
3.915583e+01	-2.639714e-04
3.938199e+01	-2.670295e-04
3.960946e+01	-2.701230e-04
3.983824e+01	-2.732523e-04
4.006834e+01	-2.764179e-04
4.029978e+01	-2.796202e-04
4.053255e+01	-2.828596e-04
4.076666e+01	-2.861365e-04
4.100213e+01	-2.894513e-04
4.123896e+01	-2.928046e-04
4.147715e+01	-2.961967e-04
4.171672e+01	-2.996281e-04
4.195767e+01	-3.030993e-04
4.220002e+01	-3.066106e-04
4.244377e+01	-3.101627e-04
4.268892e+01	-3.137559e-04
4.293549e+01	-3.173907e-04
4.318348e+01	-3.210676e-04
4.343291e+01	-3.247871e-04
4.368377e+01	-3.285497e-04
4.393609e+01	-3.323559e-04
4.418986e+01	-3.362062e-04
4.444510e+01	-3.401011e-04
4.470182e+01	-3.440411e-04
4.496001e+01	-3.480268e-04
4.521970e+01	-3.520586e-04
4.548089e+01	-3.561371e-04
4.574358e+01	-3.602629e-04
4.600779e+01	-3.644365e-04
4.627353e+01	-3.686584e-04
4.654081e+01	-3.729292e-04
4.680963e+01	-3.772495e-04
4.708000e+01	-3.816198e-04
4.735193e+01	-3.860408e-04
4.762543e+01	-3.905130e-04
4.790051e+01	-3.950370e-04
4.817719e+01	-3.996134e-04
4.845545e+01	-4.042428e-04
4.873533e+01	-4.089259e-04
4.901682e+01	-4.136632e-04
4.929994e+01	-4.184553e-04
4.958470e+01	-4.233030e-04
4.987110e+01	-4.282069e-04
5.015915e+01	-4.331675e-04
5.044887e+01	-4.381856e-04
5.074026e+01	-4.432619e-04
5.103333e+01	-4.483969e-04
5.132810e+01	-4.535914e-04
5.162457e+01	-4.588462e-04
5.192275e+01	-4.641617e-04
5.222265e+01	-4.695389e-04
5.252429e+01	-4.749783e-04
5.282767e+01	-4.804808e-04
5.313280e+01	-4.860470e-04
5.343969e+01	-4.916776e-04
5.374836e+01	-4.973735e-04
5.405880e+01	-5.031354e-04
5.437105e+01	-5.089640e-04
5.468509e+01	-5.148602e-04
5.500095e+01	-5.208246e-04
5.531863e+01	-5.268581e-04
5.563815e+01	-5.329616e-04
5.595951e+01	-5.391357e-04
5.628273e+01	-5.453813e-04
5.660782e+01	-5.516993e-04
5.693479e+01	-5.580905e-04
5.726364e+01	-5.645557e-04
5.759439e+01	-5.710958e-04
5.792705e+01	-5.777117e-04
5.826164e+01	-5.844042e-04
5.859815e+01	-5.911742e-04
5.893662e+01	-5.980226e-04
5.927703e+01	-6.049504e-04
5.961941e+01	-6.119584e-04
5.996377e+01	-6.190476e-04
6.031012e+01	-6.262190e-04
6.065847e+01	-6.334733e-04
6.100883e+01	-6.408118e-04
6.136121e+01	-6.482352e-04
6.171563e+01	-6.557446e-04
6.207210e+01	-6.633410e-04
6.243063e+01	-6.710254e-04
6.279122e+01	-6.787988e-04
6.315390e+01	-6.866623e-04
6.351868e+01	-6.946168e-04
6.388556e+01	-7.026635e-04
6.425456e+01	-7.108034e-04
6.462569e+01	-7.190375e-04
6.499897e+01	-7.273671e-04
6.537440e+01	-7.357931e-04
6.575200e+01	-7.443167e-04
6.613178e+01	-7.529391e-04
6.651375e+01	-7.616614e-04
6.689793e+01	-7.704846e-04
6.728433e+01	-7.794101e-04
6.767297e+01	-7.884390e-04
6.806384e+01	-7.975724e-04
6.845698e+01	-8.068116e-04
6.885238e+01	-8.161579e-04
6.925007e+01	-8.256124e-04
6.965005e+01	-8.351764e-04
7.005235e+01	-8.448512e-04
7.045697e+01	-8.546381e-04
7.086393e+01	-8.645383e-04
7.127323e+01	-8.745533e-04
7.168490e+01	-8.846842e-04
7.209895e+01	-8.949324e-04
7.251539e+01	-9.052994e-04
7.293424e+01	-9.157864e-04
7.335551e+01	-9.263949e-04
7.377920e+01	-9.371263e-04
7.420535e+01	-9.479820e-04
7.463396e+01	-9.589634e-04
7.506504e+01	-9.700720e-04
7.549861e+01	-9.813093e-04
7.593469e+01	-9.926767e-04
7.637328e+01	-1.004176e-03
7.681441e+01	-1.015808e-03
7.725809e+01	-1.027575e-03
7.770433e+01	-1.039478e-03
7.815315e+01	-1.051520e-03
7.860456e+01	-1.063700e-03
7.905857e+01	-1.076022e-03
7.951521e+01	-1.088486e-03
7.997449e+01	-1.101095e-03
8.043642e+01	-1.113850e-03
8.090102e+01	-1.126753e-03
8.136830e+01	-1.139805e-03
8.183828e+01	-1.153008e-03
8.231097e+01	-1.166364e-03
8.278640e+01	-1.179875e-03
8.326457e+01	-1.193542e-03
8.374550e+01	-1.207368e-03
8.422921e+01	-1.221353e-03
8.471572e+01	-1.235501e-03
8.520503e+01	-1.249813e-03
8.569717e+01	-1.264290e-03
8.619215e+01	-1.278935e-03
8.669000e+01	-1.293750e-03
8.719071e+01	-1.308736e-03
8.769432e+01	-1.323896e-03
8.820084e+01	-1.339231e-03
8.871029e+01	-1.354744e-03
8.922267e+01	-1.370436e-03
8.973802e+01	-1.386311e-03
9.025634e+01	-1.402369e-03
9.077766e+01	-1.418613e-03
9.130199e+01	-1.435045e-03
9.182935e+01	-1.451668e-03
9.235975e+01	-1.468483e-03
9.289321e+01	-1.485493e-03
9.342976e+01	-1.502700e-03
9.396941e+01	-1.520106e-03
9.451217e+01	-1.537714e-03
9.505807e+01	-1.555525e-03
9.560712e+01	-1.573543e-03
9.615934e+01	-1.591770e-03
9.671476e+01	-1.610207e-03
9.727338e+01	-1.628859e-03
9.783522e+01	-1.647726e-03
9.840032e+01	-1.666812e-03
9.896867e+01	-1.686118e-03
9.954031e+01	-1.705649e-03
1.001153e+02	-1.725405e-03
1.006935e+02	-1.745390e-03
1.012751e+02	-1.765607e-03
1.018601e+02	-1.786058e-03
1.024484e+02	-1.806745e-03
1.030402e+02	-1.827673e-03
1.036353e+02	-1.848842e-03
1.042339e+02	-1.870257e-03
1.048360e+02	-1.891920e-03
1.054415e+02	-1.913833e-03
1.060505e+02	-1.936001e-03
1.066631e+02	-1.958425e-03
1.072791e+02	-1.981108e-03
1.078988e+02	-2.004055e-03
1.085220e+02	-2.027267e-03
1.091488e+02	-2.050748e-03
1.097793e+02	-2.074500e-03
1.104133e+02	-2.098528e-03
1.110511e+02	-2.122834e-03
1.116925e+02	-2.147422e-03
1.123376e+02	-2.172294e-03
1.129865e+02	-2.197454e-03
1.136391e+02	-2.222906e-03
1.142955e+02	-2.248652e-03
1.149556e+02	-2.274696e-03
1.156196e+02	-2.301042e-03
1.162874e+02	-2.327694e-03
1.169591e+02	-2.354653e-03
1.176347e+02	-2.381925e-03
1.183141e+02	-2.409512e-03
1.189975e+02	-2.437420e-03
1.196848e+02	-2.465650e-03
1.203761e+02	-2.494207e-03
1.210714e+02	-2.523094e-03
1.217707e+02	-2.552316e-03
1.224740e+02	-2.581877e-03
1.231814e+02	-2.611780e-03
1.238929e+02	-2.642029e-03
1.246085e+02	-2.672628e-03
1.253283e+02	-2.703581e-03
1.260522e+02	-2.734893e-03
1.267802e+02	-2.766567e-03
1.275125e+02	-2.798608e-03
1.282490e+02	-2.831020e-03
1.289898e+02	-2.863808e-03
1.297348e+02	-2.896975e-03
1.304842e+02	-2.930525e-03
1.312378e+02	-2.964465e-03
1.319959e+02	-2.998797e-03
1.327583e+02	-3.033527e-03
1.335251e+02	-3.068659e-03
1.342963e+02	-3.104197e-03
1.350720e+02	-3.140147e-03
1.358522e+02	-3.176513e-03
1.366368e+02	-3.213300e-03
1.374260e+02	-3.250513e-03
1.382198e+02	-3.288157e-03
1.390182e+02	-3.326236e-03
1.398211e+02	-3.364757e-03
1.406287e+02	-3.403723e-03
1.414410e+02	-3.443140e-03
1.422579e+02	-3.483014e-03
1.430796e+02	-3.523349e-03
1.439060e+02	-3.564152e-03
1.447372e+02	-3.605426e-03
1.455732e+02	-3.647178e-03
1.464141e+02	-3.689414e-03
1.472597e+02	-3.732138e-03
1.481103e+02	-3.775357e-03
1.489658e+02	-3.819076e-03
1.498262e+02	-3.863302e-03
1.506916e+02	-3.908039e-03
1.515620e+02	-3.953294e-03
1.524374e+02	-3.999073e-03
1.533179e+02	-4.045381e-03
1.542034e+02	-4.092226e-03
1.550941e+02	-4.139613e-03
1.559899e+02	-4.187548e-03
1.568909e+02	-4.236038e-03
1.577971e+02	-4.285090e-03
1.587085e+02	-4.334709e-03
1.596252e+02	-4.384902e-03
1.605472e+02	-4.435676e-03
1.614745e+02	-4.487038e-03
1.624072e+02	-4.538995e-03
1.633453e+02	-4.591552e-03
1.642887e+02	-4.644718e-03
1.652377e+02	-4.698499e-03
1.661921e+02	-4.752903e-03
1.671520e+02	-4.807936e-03
1.681175e+02	-4.863606e-03
1.690885e+02	-4.919920e-03
1.700651e+02	-4.976886e-03
1.710474e+02	-5.034511e-03
1.720354e+02	-5.092802e-03
1.730291e+02	-5.151769e-03
1.740285e+02	-5.211417e-03
1.750337e+02	-5.271756e-03
1.760446e+02	-5.332793e-03
1.770615e+02	-5.394537e-03
1.780842e+02	-5.456994e-03
1.791128e+02	-5.520175e-03
1.801473e+02	-5.584086e-03
1.811878e+02	-5.648737e-03
1.822344e+02	-5.714136e-03
1.832870e+02	-5.780292e-03
1.843456e+02	-5.847213e-03
1.854104e+02	-5.914908e-03
1.864813e+02	-5.983386e-03
1.875584e+02	-6.052657e-03
1.886418e+02	-6.122729e-03
1.897313e+02	-6.193612e-03
1.908272e+02	-6.265314e-03
1.919294e+02	-6.337847e-03
1.930380e+02	-6.411218e-03
1.941530e+02	-6.485438e-03
1.952744e+02	-6.560517e-03
1.964023e+02	-6.636464e-03
1.975367e+02	-6.713289e-03
1.986777e+02	-6.791003e-03
1.998252e+02	-6.869616e-03
2.009794e+02	-6.949139e-03
2.021403e+02	-7.029581e-03
2.033078e+02	-7.110954e-03
2.044821e+02	-7.193268e-03
2.056632e+02	-7.276533e-03
2.068511e+02	-7.360762e-03
2.080459e+02	-7.445965e-03
2.092475e+02	-7.532154e-03
2.104561e+02	-7.619339e-03
2.116717e+02	-7.707532e-03
2.128943e+02	-7.796746e-03
2.141240e+02	-7.886991e-03
2.153608e+02	-7.978279e-03
2.166047e+02	-8.070624e-03
2.178558e+02	-8.164036e-03
2.191141e+02	-8.258528e-03
2.203797e+02	-8.354113e-03
2.216526e+02	-8.450803e-03
2.229329e+02	-8.548611e-03
2.242205e+02	-8.647550e-03
2.255156e+02	-8.747633e-03
2.268182e+02	-8.848873e-03
2.281283e+02	-8.951284e-03
2.294459e+02	-9.054878e-03
2.307712e+02	-9.159670e-03
2.321041e+02	-9.265674e-03
2.334447e+02	-9.372903e-03
2.347931e+02	-9.481371e-03
2.361493e+02	-9.591094e-03
2.375133e+02	-9.702085e-03
2.388851e+02	-9.814358e-03
2.402649e+02	-9.927930e-03
2.416527e+02	-1.004281e-02
2.430484e+02	-1.015903e-02
2.444523e+02	-1.027658e-02
2.458642e+02	-1.039550e-02
2.472843e+02	-1.051578e-02
2.487126e+02	-1.063746e-02
2.501492e+02	-1.076055e-02
2.515940e+02	-1.088505e-02
2.530472e+02	-1.101100e-02
2.545088e+02	-1.113840e-02
2.559789e+02	-1.126727e-02
2.574574e+02	-1.139764e-02
2.589444e+02	-1.152950e-02
2.604401e+02	-1.166290e-02
2.619444e+02	-1.179783e-02
2.634574e+02	-1.193432e-02
2.649791e+02	-1.207239e-02
2.665096e+02	-1.221206e-02
2.680489e+02	-1.235333e-02
2.695972e+02	-1.249624e-02
2.711544e+02	-1.264081e-02
2.727205e+02	-1.278704e-02
2.742958e+02	-1.293496e-02
2.758801e+02	-1.308458e-02
2.774736e+02	-1.323594e-02
2.790762e+02	-1.338905e-02
2.806882e+02	-1.354392e-02
2.823094e+02	-1.370058e-02
2.839400e+02	-1.385905e-02
2.855800e+02	-1.401935e-02
2.872295e+02	-1.418150e-02
2.888886e+02	-1.434553e-02
2.905572e+02	-1.451145e-02
2.922354e+02	-1.467928e-02
2.939234e+02	-1.484905e-02
2.956211e+02	-1.502078e-02
2.973286e+02	-1.519450e-02
2.990459e+02	-1.537022e-02
3.007732e+02	-1.554796e-02
3.025104e+02	-1.572776e-02
3.042577e+02	-1.590964e-02
3.060151e+02	-1.609361e-02
3.077826e+02	-1.627971e-02
3.095604e+02	-1.646796e-02
3.113484e+02	-1.665838e-02
3.131467e+02	-1.685099e-02
3.149554e+02	-1.704583e-02
3.167746e+02	-1.724292e-02
3.186043e+02	-1.744228e-02
3.204445e+02	-1.764394e-02
3.222954e+02	-1.784793e-02
3.241570e+02	-1.805427e-02
3.260293e+02	-1.826299e-02
3.279124e+02	-1.847412e-02
3.298064e+02	-1.868769e-02
3.317114e+02	-1.890372e-02
3.336273e+02	-1.912224e-02
3.355544e+02	-1.934328e-02
3.374925e+02	-1.956687e-02
3.394418e+02	-1.979304e-02
3.414024e+02	-2.002181e-02
3.433744e+02	-2.025323e-02
3.453577e+02	-2.048731e-02
3.473525e+02	-2.072410e-02
3.493588e+02	-2.096361e-02
3.513766e+02	-2.120588e-02
3.534062e+02	-2.145095e-02
3.554474e+02	-2.169884e-02
3.575005e+02	-2.194959e-02
3.595654e+02	-2.220323e-02
3.616422e+02	-2.245979e-02
3.637311e+02	-2.271931e-02
3.658320e+02	-2.298182e-02
3.679450e+02	-2.324736e-02
3.700702e+02	-2.351595e-02
3.722077e+02	-2.378764e-02
3.743576e+02	-2.406246e-02
3.765199e+02	-2.434045e-02
3.786946e+02	-2.462164e-02
3.808820e+02	-2.490607e-02
3.830819e+02	-2.519377e-02
3.852946e+02	-2.548479e-02
3.875200e+02	-2.577916e-02
3.897583e+02	-2.607692e-02
3.920096e+02	-2.637810e-02
3.942738e+02	-2.668276e-02
3.965511e+02	-2.699092e-02
3.988416e+02	-2.730263e-02
4.011452e+02	-2.761793e-02
4.034622e+02	-2.793686e-02
4.057926e+02	-2.825946e-02
4.081365e+02	-2.858577e-02
4.104938e+02	-2.891584e-02
4.128648e+02	-2.924971e-02
4.152495e+02	-2.958741e-02
4.176480e+02	-2.992901e-02
4.200603e+02	-3.027453e-02
4.224866e+02	-3.062403e-02
4.249268e+02	-3.097755e-02
4.273812e+02	-3.133513e-02
4.298497e+02	-3.169683e-02
4.323325e+02	-3.206269e-02
4.348297e+02	-3.243275e-02
4.373412e+02	-3.280707e-02
4.398673e+02	-3.318569e-02
4.424079e+02	-3.356867e-02
4.449633e+02	-3.395604e-02
4.475334e+02	-3.434787e-02
4.501183e+02	-3.474421e-02
4.527182e+02	-3.514510e-02
4.553330e+02	-3.555059e-02
4.579630e+02	-3.596074e-02
4.606082e+02	-3.637561e-02
4.632687e+02	-3.679524e-02
4.659445e+02	-3.721969e-02
4.686358e+02	-3.764902e-02
4.713426e+02	-3.808327e-02
4.740650e+02	-3.852252e-02
4.768032e+02	-3.896680e-02
4.795572e+02	-3.941619e-02
4.823271e+02	-3.987074e-02
4.851130e+02	-4.033050e-02
4.879150e+02	-4.079554e-02
4.907332e+02	-4.126592e-02
4.935676e+02	-4.174169e-02
4.964185e+02	-4.222293e-02
4.992858e+02	-4.270968e-02
5.021696e+02	-4.320202e-02
5.050701e+02	-4.370000e-02
5.079874e+02	-4.420369e-02
5.109215e+02	-4.471316e-02
5.138726e+02	-4.522847e-02
5.168407e+02	-4.574969e-02
5.198259e+02	-4.627689e-02
5.228284e+02	-4.681012e-02
5.258482e+02	-4.734947e-02
5.288855e+02	-4.789499e-02
5.319403e+02	-4.844677e-02
5.350128e+02	-4.900487e-02
5.381030e+02	-4.956936e-02
5.412111e+02	-5.014031e-02
5.443371e+02	-5.071780e-02
5.474812e+02	-5.130190e-02
5.506434e+02	-5.189269e-02
5.538239e+02	-5.249025e-02
5.570228e+02	-5.309464e-02
5.602401e+02	-5.370594e-02
5.634760e+02	-5.432425e-02
5.667306e+02	-5.494962e-02
5.700040e+02	-5.558215e-02
5.732964e+02	-5.622191e-02
5.766077e+02	-5.686898e-02
5.799382e+02	-5.752346e-02
5.832879e+02	-5.818541e-02
5.866569e+02	-5.885494e-02
5.900454e+02	-5.953211e-02
5.934535e+02	-6.021702e-02
5.968813e+02	-6.090975e-02
6.003288e+02	-6.161040e-02
6.037963e+02	-6.231905e-02
6.072838e+02	-6.303579e-02
6.107914e+02	-6.376071e-02
6.143194e+02	-6.449390e-02
6.178676e+02	-6.523547e-02
6.214364e+02	-6.598549e-02
6.250258e+02	-6.674408e-02
6.286359e+02	-6.751131e-02
6.322669e+02	-6.828730e-02
6.359189e+02	-6.907213e-02
6.395919e+02	-6.986591e-02
6.432862e+02	-7.066874e-02
6.470017e+02	-7.148072e-02
6.507388e+02	-7.230195e-02
6.544974e+02	-7.313254e-02
6.582778e+02	-7.397258e-02
6.620800e+02	-7.482219e-02
6.659041e+02	-7.568148e-02
6.697504e+02	-7.655054e-02
6.736188e+02	-7.742950e-02
6.775096e+02	-7.831845e-02
6.814229e+02	-7.921752e-02
6.853587e+02	-8.012682e-02
6.893173e+02	-8.104645e-02
6.932988e+02	-8.197654e-02
6.973033e+02	-8.291720e-02
7.013309e+02	-8.386855e-02
