Frequency(Hz)	Magnitude(dB)
1.000000e+01	-1.574598e-05
1.005776e+01	-1.592840e-05
1.011585e+01	-1.611294e-05
1.017428e+01	-1.629961e-05
1.023305e+01	-1.648844e-05
1.029215e+01	-1.667947e-05
1.035160e+01	-1.687270e-05
1.041139e+01	-1.706818e-05
1.047153e+01	-1.726592e-05
1.053201e+01	-1.746595e-05
1.059284e+01	-1.766829e-05
1.065403e+01	-1.787299e-05
1.071556e+01	-1.808005e-05
1.077746e+01	-1.828951e-05
1.083971e+01	-1.850140e-05
1.090232e+01	-1.871574e-05
1.096529e+01	-1.893257e-05
1.102862e+01	-1.915191e-05
1.109232e+01	-1.937379e-05
1.115639e+01	-1.959824e-05
1.122083e+01	-1.982529e-05
1.128564e+01	-2.005497e-05
1.135083e+01	-2.028731e-05
1.141639e+01	-2.052235e-05
1.148233e+01	-2.076010e-05
1.154865e+01	-2.100061e-05
1.161536e+01	-2.124391e-05
1.168245e+01	-2.149003e-05
1.174992e+01	-2.173899e-05
1.181779e+01	-2.199085e-05
1.188605e+01	-2.224561e-05
1.195470e+01	-2.250334e-05
1.202375e+01	-2.276404e-05
1.209320e+01	-2.302777e-05
1.216305e+01	-2.329455e-05
1.223330e+01	-2.356443e-05
1.230396e+01	-2.383742e-05
1.237503e+01	-2.411359e-05
1.244651e+01	-2.439295e-05
1.251840e+01	-2.467555e-05
1.259070e+01	-2.496142e-05
1.266343e+01	-2.525060e-05
1.273657e+01	-2.554314e-05
1.281014e+01	-2.583906e-05
1.288413e+01	-2.613841e-05
1.295855e+01	-2.644123e-05
1.303339e+01	-2.674756e-05
1.310867e+01	-2.705744e-05
1.318439e+01	-2.737091e-05
1.326054e+01	-2.768800e-05
1.333713e+01	-2.800878e-05
1.341417e+01	-2.833327e-05
1.349165e+01	-2.866151e-05
1.356958e+01	-2.899356e-05
1.364795e+01	-2.932946e-05
1.372678e+01	-2.966925e-05
1.380607e+01	-3.001298e-05
1.388581e+01	-3.036068e-05
1.396602e+01	-3.071242e-05
1.404668e+01	-3.106823e-05
1.412782e+01	-3.142816e-05
1.420942e+01	-3.179226e-05
1.429149e+01	-3.216059e-05
1.437404e+01	-3.253317e-05
1.445706e+01	-3.291008e-05
1.454057e+01	-3.329135e-05
1.462455e+01	-3.367704e-05
1.470902e+01	-3.406719e-05
1.479398e+01	-3.446187e-05
1.487943e+01	-3.486112e-05
1.496537e+01	-3.526499e-05
1.505181e+01	-3.567355e-05
1.513875e+01	-3.608683e-05
1.522619e+01	-3.650491e-05
1.531414e+01	-3.692782e-05
1.540259e+01	-3.735564e-05
1.549156e+01	-3.778842e-05
1.558103e+01	-3.822620e-05
1.567103e+01	-3.866906e-05
1.576155e+01	-3.911705e-05
1.585258e+01	-3.957023e-05
1.594415e+01	-4.002866e-05
1.603624e+01	-4.049240e-05
1.612886e+01	-4.096152e-05
1.622202e+01	-4.143607e-05
1.631572e+01	-4.191611e-05
1.640996e+01	-4.240172e-05
1.650474e+01	-4.289295e-05
1.660008e+01	-4.338988e-05
1.669596e+01	-4.389256e-05
1.679239e+01	-4.440106e-05
1.688938e+01	-4.491546e-05
1.698694e+01	-4.543581e-05
1.708505e+01	-4.596220e-05
1.718373e+01	-4.649468e-05
1.728299e+01	-4.703333e-05
1.738281e+01	-4.757822e-05
1.748322e+01	-4.812943e-05
1.758420e+01	-4.868702e-05
1.768576e+01	-4.925107e-05
1.778792e+01	-4.982165e-05
1.789066e+01	-5.039885e-05
1.799399e+01	-5.098273e-05
1.809793e+01	-5.157337e-05
1.820246e+01	-5.217086e-05
1.830760e+01	-5.277527e-05
1.841334e+01	-5.338668e-05
1.851969e+01	-5.400518e-05
1.862666e+01	-5.463084e-05
1.873425e+01	-5.526375e-05
1.884246e+01	-5.590399e-05
1.895129e+01	-5.655165e-05
1.906075e+01	-5.720681e-05
1.917085e+01	-5.786957e-05
1.928158e+01	-5.854000e-05
1.939295e+01	-5.921819e-05
1.950496e+01	-5.990425e-05
1.961762e+01	-6.059825e-05
1.973093e+01	-6.130029e-05
1.984490e+01	-6.201047e-05
1.995952e+01	-6.272887e-05
2.007480e+01	-6.345560e-05
2.019076e+01	-6.419074e-05
2.030738e+01	-6.493441e-05
2.042467e+01	-6.568668e-05
2.054264e+01	-6.644768e-05
2.066130e+01	-6.721749e-05
2.078064e+01	-6.799621e-05
2.090066e+01	-6.878396e-05
2.102139e+01	-6.958084e-05
2.114280e+01	-7.038694e-05
2.126492e+01	-7.120239e-05
2.138775e+01	-7.202728e-05
2.151128e+01	-7.286173e-05
2.163553e+01	-7.370585e-05
2.176050e+01	-7.455974e-05
2.188619e+01	-7.542353e-05
2.201260e+01	-7.629733e-05
2.213974e+01	-7.718125e-05
2.226762e+01	-7.807540e-05
2.239624e+01	-7.897992e-05
2.252560e+01	-7.989492e-05
2.265571e+01	-8.082051e-05
2.278656e+01	-8.175683e-05
2.291818e+01	-8.270400e-05
2.305055e+01	-8.366214e-05
2.318369e+01	-8.463138e-05
2.331760e+01	-8.561185e-05
2.345228e+01	-8.660367e-05
2.358774e+01	-8.760699e-05
2.372398e+01	-8.862193e-05
2.386101e+01	-8.964863e-05
2.399883e+01	-9.068723e-05
2.413745e+01	-9.173785e-05
2.427686e+01	-9.280065e-05
2.441709e+01	-9.387576e-05
2.455812e+01	-9.496332e-05
2.469997e+01	-9.606349e-05
2.484263e+01	-9.717640e-05
2.498612e+01	-9.830220e-05
2.513044e+01	-9.944105e-05
2.527559e+01	-1.005931e-04
2.542158e+01	-1.017585e-04
2.556842e+01	-1.029374e-04
2.571610e+01	-1.041299e-04
2.586463e+01	-1.053363e-04
2.601403e+01	-1.065566e-04
2.616428e+01	-1.077911e-04
2.631541e+01	-1.090398e-04
2.646740e+01	-1.103031e-04
2.662028e+01	-1.115810e-04
2.677404e+01	-1.128736e-04
2.692868e+01	-1.141813e-04
2.708422e+01	-1.155041e-04
2.724066e+01	-1.168422e-04
2.739800e+01	-1.181959e-04
2.755625e+01	-1.195652e-04
2.771541e+01	-1.209503e-04
2.787550e+01	-1.223516e-04
2.803650e+01	-1.237690e-04
2.819844e+01	-1.252029e-04
2.836131e+01	-1.266534e-04
2.852513e+01	-1.281207e-04
2.868989e+01	-1.296050e-04
2.885560e+01	-1.311065e-04
2.902227e+01	-1.326254e-04
2.918990e+01	-1.341618e-04
2.935850e+01	-1.357161e-04
2.952807e+01	-1.372884e-04
2.969863e+01	-1.388789e-04
2.987016e+01	-1.404878e-04
3.004269e+01	-1.421154e-04
3.021622e+01	-1.437618e-04
3.039075e+01	-1.454273e-04
3.056628e+01	-1.471121e-04
3.074283e+01	-1.488164e-04
3.092040e+01	-1.505404e-04
3.109900e+01	-1.522845e-04
3.127862e+01	-1.540487e-04
3.145929e+01	-1.558333e-04
3.164099e+01	-1.576387e-04
3.182375e+01	-1.594649e-04
3.200756e+01	-1.613124e-04
3.219244e+01	-1.631812e-04
3.237838e+01	-1.650716e-04
3.256540e+01	-1.669840e-04
3.275349e+01	-1.689185e-04
3.294268e+01	-1.708754e-04
3.313295e+01	-1.728550e-04
3.332433e+01	-1.748576e-04
3.351681e+01	-1.768833e-04
3.371040e+01	-1.789325e-04
3.390511e+01	-1.810054e-04
3.410094e+01	-1.831024e-04
3.429791e+01	-1.852237e-04
3.449601e+01	-1.873695e-04
3.469526e+01	-1.895402e-04
3.489566e+01	-1.917360e-04
3.509721e+01	-1.939572e-04
3.529993e+01	-1.962042e-04
3.550382e+01	-1.984773e-04
3.570889e+01	-2.007766e-04
3.591515e+01	-2.031026e-04
3.612259e+01	-2.054556e-04
3.633123e+01	-2.078358e-04
3.654108e+01	-2.102436e-04
3.675214e+01	-2.126792e-04
3.696442e+01	-2.151431e-04
3.717792e+01	-2.176355e-04
3.739266e+01	-2.201568e-04
3.760864e+01	-2.227074e-04
3.782587e+01	-2.252874e-04
3.804435e+01	-2.278974e-04
3.826409e+01	-2.305376e-04
3.848510e+01	-2.332083e-04
3.870739e+01	-2.359100e-04
3.893096e+01	-2.386430e-04
3.915583e+01	-2.414077e-04
3.938199e+01	-2.442044e-04
3.960946e+01	-2.470335e-04
3.983824e+01	-2.498954e-04
4.006834e+01	-2.527904e-04
4.029978e+01	-2.557190e-04
4.053255e+01	-2.586814e-04
4.076666e+01	-2.616783e-04
4.100213e+01	-2.647098e-04
4.123896e+01	-2.677764e-04
4.147715e+01	-2.708786e-04
4.171672e+01	-2.740167e-04
4.195767e+01	-2.771911e-04
4.220002e+01	-2.804024e-04
4.244377e+01	-2.836508e-04
4.268892e+01	-2.869369e-04
4.293549e+01	-2.902610e-04
4.318348e+01	-2.936237e-04
4.343291e+01	-2.970252e-04
4.368377e+01	-3.004662e-04
4.393609e+01	-3.039471e-04
4.418986e+01	-3.074683e-04
4.444510e+01	-3.110303e-04
4.470182e+01	-3.146335e-04
4.496001e+01	-3.182785e-04
4.521970e+01	-3.219657e-04
4.548089e+01	-3.256956e-04
4.574358e+01	-3.294688e-04
4.600779e+01	-3.332856e-04
4.627353e+01	-3.371467e-04
4.654081e+01	-3.410524e-04
4.680963e+01	-3.450035e-04
4.708000e+01	-3.490003e-04
4.735193e+01	-3.530434e-04
4.762543e+01	-3.571333e-04
4.790051e+01	-3.612706e-04
4.817719e+01	-3.654559e-04
4.845545e+01	-3.696896e-04
4.873533e+01	-3.739724e-04
4.901682e+01	-3.783048e-04
4.929994e+01	-3.826873e-04
4.958470e+01	-3.871207e-04
4.987110e+01	-3.916054e-04
5.015915e+01	-3.961420e-04
5.044887e+01	-4.007312e-04
5.074026e+01	-4.053736e-04
5.103333e+01	-4.100697e-04
5.132810e+01	-4.148203e-04
5.162457e+01	-4.196258e-04
5.192275e+01	-4.244871e-04
5.222265e+01	-4.294046e-04
5.252429e+01	-4.343792e-04
5.282767e+01	-4.394113e-04
5.313280e+01	-4.445018e-04
5.343969e+01	-4.496512e-04
5.374836e+01	-4.548602e-04
5.405880e+01	-4.601296e-04
5.437105e+01	-4.654601e-04
5.468509e+01	-4.708523e-04
5.500095e+01	-4.763069e-04
5.531863e+01	-4.818248e-04
5.563815e+01	-4.874065e-04
5.595951e+01	-4.930529e-04
5.628273e+01	-4.987648e-04
5.660782e+01	-5.045428e-04
5.693479e+01	-5.103877e-04
5.726364e+01	-5.163003e-04
5.759439e+01	-5.222814e-04
5.792705e+01	-5.283318e-04
5.826164e+01	-5.344523e-04
5.859815e+01	-5.406437e-04
5.893662e+01	-5.469068e-04
5.927703e+01	-5.532425e-04
5.961941e+01	-5.596516e-04
5.996377e+01	-5.661349e-04
6.031012e+01	-5.726932e-04
6.065847e+01	-5.793276e-04
6.100883e+01	-5.860388e-04
6.136121e+01	-5.928278e-04
6.171563e+01	-5.996954e-04
6.207210e+01	-6.066425e-04
6.243063e+01	-6.136702e-04
6.279122e+01	-6.207792e-04
6.315390e+01	-6.279706e-04
6.351868e+01	-6.352452e-04
6.388556e+01	-6.426042e-04
6.425456e+01	-6.500484e-04
6.462569e+01	-6.575788e-04
6.499897e+01	-6.651964e-04
6.537440e+01	-6.729023e-04
6.575200e+01	-6.806975e-04
6.613178e+01	-6.885829e-04
6.651375e+01	-6.965597e-04
6.689793e+01	-7.046289e-04
6.728433e+01	-7.127915e-04
6.767297e+01	-7.210487e-04
6.806384e+01	-7.294016e-04
6.845698e+01	-7.378512e-04
6.885238e+01	-7.463987e-04
6.925007e+01	-7.550451e-04
6.965005e+01	-7.637918e-04
7.005235e+01	-7.726397e-04
7.045697e+01	-7.815902e-04
7.086393e+01	-7.906443e-04
7.127323e+01	-7.998033e-04
7.168490e+01	-8.090683e-04
7.209895e+01	-8.184407e-04
7.251539e+01	-8.279217e-04
7.293424e+01	-8.375125e-04
7.335551e+01	-8.472143e-04
7.377920e+01	-8.570286e-04
7.420535e+01	-8.669565e-04
7.463396e+01	-8.769994e-04
7.506504e+01	-8.871586e-04
7.549861e+01	-8.974355e-04
7.593469e+01	-9.078315e-04
7.637328e+01	-9.183479e-04
7.681441e+01	-9.289860e-04
7.725809e+01	-9.397474e-04
7.770433e+01	-9.506335e-04
7.815315e+01	-9.616456e-04
7.860456e+01	-9.727853e-04
7.905857e+01	-9.840540e-04
7.951521e+01	-9.954532e-04
7.997449e+01	-1.006984e-03
8.043642e+01	-1.018649e-03
8.090102e+01	-1.030449e-03
8.136830e+01	-1.042386e-03
8.183828e+01	-1.054461e-03
8.231097e+01	-1.066675e-03
8.278640e+01	-1.079032e-03
8.326457e+01	-1.091531e-03
8.374550e+01	-1.104175e-03
8.422921e+01	-1.116965e-03
8.471572e+01	-1.129904e-03
8.520503e+01	-1.142993e-03
8.569717e+01	-1.156233e-03
8.619215e+01	-1.169626e-03
8.669000e+01	-1.183175e-03
8.719071e+01	-1.196880e-03
8.769432e+01	-1.210745e-03
8.820084e+01	-1.224769e-03
8.871029e+01	-1.238957e-03
8.922267e+01	-1.253308e-03
8.973802e+01	-1.267826e-03
9.025634e+01	-1.282512e-03
9.077766e+01	-1.297368e-03
9.130199e+01	-1.312396e-03
9.182935e+01	-1.327598e-03
9.235975e+01	-1.342976e-03
9.289321e+01	-1.358533e-03
9.342976e+01	-1.374269e-03
9.396941e+01	-1.390188e-03
9.451217e+01	-1.406291e-03
9.505807e+01	-1.422581e-03
9.560712e+01	-1.439059e-03
9.615934e+01	-1.455728e-03
9.671476e+01	-1.472590e-03
9.727338e+01	-1.489648e-03
9.783522e+01	-1.506902e-03
9.840032e+01	-1.524357e-03
9.896867e+01	-1.542014e-03
9.954031e+01	-1.559876e-03
1.001153e+02	-1.577944e-03
1.006935e+02	-1.596222e-03
1.012751e+02	-1.614711e-03
1.018601e+02	-1.633414e-03
1.024484e+02	-1.652334e-03
1.030402e+02	-1.671473e-03
1.036353e+02	-1.690834e-03
1.042339e+02	-1.710419e-03
1.048360e+02	-1.730230e-03
1.054415e+02	-1.750271e-03
1.060505e+02	-1.770545e-03
1.066631e+02	-1.791053e-03
1.072791e+02	-1.811798e-03
1.078988e+02	-1.832784e-03
1.085220e+02	-1.854013e-03
1.091488e+02	-1.875487e-03
1.097793e+02	-1.897211e-03
1.104133e+02	-1.919185e-03
1.110511e+02	-1.941415e-03
1.116925e+02	-1.963901e-03
1.123376e+02	-1.986648e-03
1.129865e+02	-2.009659e-03
1.136391e+02	-2.032936e-03
1.142955e+02	-2.056483e-03
1.149556e+02	-2.080302e-03
1.156196e+02	-2.104397e-03
1.162874e+02	-2.128771e-03
1.169591e+02	-2.153427e-03
1.176347e+02	-2.178369e-03
1.183141e+02	-2.203599e-03
1.189975e+02	-2.229122e-03
1.196848e+02	-2.254940e-03
1.203761e+02	-2.281057e-03
1.210714e+02	-2.307477e-03
1.217707e+02	-2.334203e-03
1.224740e+02	-2.361238e-03
1.231814e+02	-2.388586e-03
1.238929e+02	-2.416250e-03
1.246085e+02	-2.444235e-03
1.253283e+02	-2.472544e-03
1.260522e+02	-2.501181e-03
1.267802e+02	-2.530150e-03
1.275125e+02	-2.559453e-03
1.282490e+02	-2.589097e-03
1.289898e+02	-2.619083e-03
1.297348e+02	-2.649416e-03
1.304842e+02	-2.680101e-03
1.312378e+02	-2.711141e-03
1.319959e+02	-2.742540e-03
1.327583e+02	-2.774303e-03
1.335251e+02	-2.806434e-03
1.342963e+02	-2.838936e-03
1.350720e+02	-2.871815e-03
1.358522e+02	-2.905075e-03
1.366368e+02	-2.938720e-03
1.374260e+02	-2.972754e-03
1.382198e+02	-3.007182e-03
1.390182e+02	-3.042009e-03
1.398211e+02	-3.077239e-03
1.406287e+02	-3.112877e-03
1.414410e+02	-3.148927e-03
1.422579e+02	-3.185395e-03
1.430796e+02	-3.222285e-03
1.439060e+02	-3.259602e-03
1.447372e+02	-3.297351e-03
1.455732e+02	-3.335536e-03
1.464141e+02	-3.374165e-03
1.472597e+02	-3.413240e-03
1.481103e+02	-3.452767e-03
1.489658e+02	-3.492752e-03
1.498262e+02	-3.533200e-03
1.506916e+02	-3.574116e-03
1.515620e+02	-3.615506e-03
1.524374e+02	-3.657375e-03
1.533179e+02	-3.699729e-03
1.542034e+02	-3.742572e-03
1.550941e+02	-3.785912e-03
1.559899e+02	-3.829754e-03
1.568909e+02	-3.874102e-03
1.577971e+02	-3.918965e-03
1.587085e+02	-3.964346e-03
1.596252e+02	-4.010253e-03
1.605472e+02	-4.056691e-03
1.614745e+02	-4.103666e-03
1.624072e+02	-4.151186e-03
1.633453e+02	-4.199255e-03
1.642887e+02	-4.247881e-03
1.652377e+02	-4.297069e-03
1.661921e+02	-4.346827e-03
1.671520e+02	-4.397160e-03
1.681175e+02	-4.448076e-03
1.690885e+02	-4.499582e-03
1.700651e+02	-4.551683e-03
1.710474e+02	-4.604387e-03
1.720354e+02	-4.657702e-03
1.730291e+02	-4.711633e-03
1.740285e+02	-4.766189e-03
1.750337e+02	-4.821375e-03
1.760446e+02	-4.877201e-03
1.770615e+02	-4.933672e-03
1.780842e+02	-4.990797e-03
1.791128e+02	-5.048583e-03
1.801473e+02	-5.107038e-03
1.811878e+02	-5.166169e-03
1.822344e+02	-5.225984e-03
1.832870e+02	-5.286492e-03
1.843456e+02	-5.347699e-03
1.854104e+02	-5.409615e-03
1.864813e+02	-5.472247e-03
1.875584e+02	-5.535604e-03
1.886418e+02	-5.599694e-03
1.897313e+02	-5.664525e-03
1.908272e+02	-5.730107e-03
1.919294e+02	-5.796447e-03
1.930380e+02	-5.863555e-03
1.941530e+02	-5.931439e-03
1.952744e+02	-6.000109e-03
1.964023e+02	-6.069573e-03
1.975367e+02	-6.139841e-03
1.986777e+02	-6.210921e-03
1.998252e+02	-6.282824e-03
2.009794e+02	-6.355559e-03
2.021403e+02	-6.429135e-03
2.033078e+02	-6.503562e-03
2.044821e+02	-6.578850e-03
2.056632e+02	-6.655009e-03
2.068511e+02	-6.732050e-03
2.080459e+02	-6.809981e-03
2.092475e+02	-6.888813e-03
2.104561e+02	-6.968558e-03
2.116717e+02	-7.049224e-03
2.128943e+02	-7.130824e-03
2.141240e+02	-7.213368e-03
2.153608e+02	-7.296866e-03
2.166047e+02	-7.381330e-03
2.178558e+02	-7.466771e-03
2.191141e+02	-7.553200e-03
2.203797e+02	-7.640628e-03
2.216526e+02	-7.729068e-03
2.229329e+02	-7.818530e-03
2.242205e+02	-7.909027e-03
2.255156e+02	-8.000571e-03
2.268182e+02	-8.093173e-03
2.281283e+02	-8.186845e-03
2.294459e+02	-8.281601e-03
2.307712e+02	-8.377453e-03
2.321041e+02	-8.474413e-03
2.334447e+02	-8.572494e-03
2.347931e+02	-8.671709e-03
2.361493e+02	-8.772071e-03
2.375133e+02	-8.873593e-03
2.388851e+02	-8.976289e-03
2.402649e+02	-9.080173e-03
2.416527e+02	-9.185257e-03
2.430484e+02	-9.291557e-03
2.444523e+02	-9.399085e-03
2.458642e+02	-9.507856e-03
2.472843e+02	-9.617884e-03
2.487126e+02	-9.729185e-03
2.501492e+02	-9.841772e-03
2.515940e+02	-9.955660e-03
2.530472e+02	-1.007086e-02
2.545088e+02	-1.018740e-02
2.559789e+02	-1.030528e-02
2.574574e+02	-1.042453e-02
2.589444e+02	-1.054515e-02
2.604401e+02	-1.066717e-02
2.619444e+02	-1.079060e-02
2.634574e+02	-1.091545e-02
2.649791e+02	-1.104175e-02
2.665096e+02	-1.116951e-02
2.680489e+02	-1.129874e-02
2.695972e+02	-1.142946e-02
2.711544e+02	-1.156170e-02
2.727205e+02	-1.169546e-02
2.742958e+02	-1.183077e-02
2.758801e+02	-1.196765e-02
2.774736e+02	-1.210610e-02
2.790762e+02	-1.224615e-02
2.806882e+02	-1.238783e-02
2.823094e+02	-1.253113e-02
2.839400e+02	-1.267610e-02
2.855800e+02	-1.282274e-02
2.872295e+02	-1.297107e-02
2.888886e+02	-1.312111e-02
2.905572e+02	-1.327289e-02
2.922354e+02	-1.342642e-02
2.939234e+02	-1.358173e-02
2.956211e+02	-1.373883e-02
2.973286e+02	-1.389774e-02
2.990459e+02	-1.405848e-02
3.007732e+02	-1.422109e-02
3.025104e+02	-1.438557e-02
3.042577e+02	-1.455195e-02
3.060151e+02	-1.472025e-02
3.077826e+02	-1.489049e-02
3.095604e+02	-1.506270e-02
3.113484e+02	-1.523690e-02
3.131467e+02	-1.541311e-02
3.149554e+02	-1.559135e-02
3.167746e+02	-1.577165e-02
3.186043e+02	-1.595404e-02
3.204445e+02	-1.613852e-02
3.222954e+02	-1.632514e-02
3.241570e+02	-1.651391e-02
3.260293e+02	-1.670486e-02
3.279124e+02	-1.689801e-02
3.298064e+02	-1.709339e-02
3.317114e+02	-1.729103e-02
3.336273e+02	-1.749094e-02
3.355544e+02	-1.769316e-02
3.374925e+02	-1.789772e-02
3.394418e+02	-1.810464e-02
3.414024e+02	-1.831394e-02
3.433744e+02	-1.852566e-02
3.453577e+02	-1.873981e-02
3.473525e+02	-1.895644e-02
3.493588e+02	-1.917557e-02
3.513766e+02	-1.939723e-02
3.534062e+02	-1.962144e-02
3.554474e+02	-1.984824e-02
3.575005e+02	-2.007765e-02
3.595654e+02	-2.030971e-02
3.616422e+02	-2.054444e-02
3.637311e+02	-2.078189e-02
3.658320e+02	-2.102206e-02
3.679450e+02	-2.126501e-02
3.700702e+02	-2.151076e-02
3.722077e+02	-2.175934e-02
3.743576e+02	-2.201079e-02
3.765199e+02	-2.226513e-02
3.786946e+02	-2.252241e-02
3.808820e+02	-2.278265e-02
3.830819e+02	-2.304589e-02
3.852946e+02	-2.331216e-02
3.875200e+02	-2.358150e-02
3.897583e+02	-2.385395e-02
3.920096e+02	-2.412953e-02
3.942738e+02	-2.440829e-02
3.965511e+02	-2.469026e-02
3.988416e+02	-2.497547e-02
4.011452e+02	-2.526398e-02
4.034622e+02	-2.555580e-02
4.057926e+02	-2.585099e-02
4.081365e+02	-2.614957e-02
4.104938e+02	-2.645160e-02
4.128648e+02	-2.675710e-02
4.152495e+02	-2.706611e-02
4.176480e+02	-2.737869e-02
4.200603e+02	-2.769486e-02
4.224866e+02	-2.801468e-02
4.249268e+02	-2.833817e-02
4.273812e+02	-2.866539e-02
4.298497e+02	-2.899637e-02
4.323325e+02	-2.933116e-02
4.348297e+02	-2.966981e-02
4.373412e+02	-3.001235e-02
4.398673e+02	-3.035883e-02
4.424079e+02	-3.070930e-02
4.449633e+02	-3.106379e-02
4.475334e+02	-3.142237e-02
4.501183e+02	-3.178507e-02
4.527182e+02	-3.215194e-02
4.553330e+02	-3.252303e-02
4.579630e+02	-3.289838e-02
4.606082e+02	-3.327805e-02
4.632687e+02	-3.366209e-02
4.659445e+02	-3.405054e-02
4.686358e+02	-3.444345e-02
4.713426e+02	-3.484088e-02
4.740650e+02	-3.524288e-02
4.768032e+02	-3.564950e-02
4.795572e+02	-3.606079e-02
4.823271e+02	-3.647680e-02
4.851130e+02	-3.689759e-02
4.879150e+02	-3.732322e-02
4.907332e+02	-3.775373e-02
4.935676e+02	-3.818919e-02
4.964185e+02	-3.862965e-02
4.992858e+02	-3.907516e-02
5.021696e+02	-3.952579e-02
5.050701e+02	-3.998159e-02
5.079874e+02	-4.044263e-02
5.109215e+02	-4.090895e-02
5.138726e+02	-4.138063e-02
5.168407e+02	-4.185772e-02
5.198259e+02	-4.234028e-02
5.228284e+02	-4.282837e-02
5.258482e+02	-4.332207e-02
5.288855e+02	-4.382143e-02
5.319403e+02	-4.432651e-02
5.350128e+02	-4.483739e-02
5.381030e+02	-4.535412e-02
5.412111e+02	-4.587678e-02
5.443371e+02	-4.640543e-02
5.474812e+02	-4.694013e-02
5.506434e+02	-4.748096e-02
5.538239e+02	-4.802799e-02
5.570228e+02	-4.858129e-02
5.602401e+02	-4.914093e-02
5.634760e+02	-4.970697e-02
5.667306e+02	-5.027950e-02
5.700040e+02	-5.085858e-02
5.732964e+02	-5.144429e-02
5.766077e+02	-5.203671e-02
5.799382e+02	-5.263590e-02
5.832879e+02	-5.324196e-02
5.866569e+02	-5.385495e-02
5.900454e+02	-5.447495e-02
5.934535e+02	-5.510205e-02
5.968813e+02	-5.573631e-02
6.003288e+02	-5.637783e-02
6.037963e+02	-5.702669e-02
6.072838e+02	-5.768296e-02
6.107914e+02	-5.834674e-02
6.143194e+02	-5.901810e-02
6.178676e+02	-5.969713e-02
6.214364e+02	-6.038392e-02
6.250258e+02	-6.107856e-02
6.286359e+02	-6.178112e-02
6.322669e+02	-6.249172e-02
6.359189e+02	-6.321042e-02
6.395919e+02	-6.393733e-02
6.432862e+02	-6.467254e-02
6.470017e+02	-6.541614e-02
6.507388e+02	-6.616822e-02
6.544974e+02	-6.692888e-02
6.582778e+02	-6.769822e-02
6.620800e+02	-6.847633e-02
6.659041e+02	-6.926332e-02
6.697504e+02	-7.005927e-02
6.736188e+02	-7.086430e-02
6.775096e+02	-7.167850e-02
6.814229e+02	-7.250198e-02
6.853587e+02	-7.333483e-02
6.893173e+02	-7.417718e-02
6.932988e+02	-7.502911e-02
6.973033e+02	-7.589074e-02
7.013309e+02	-7.676218e-02
