Frequency(Hz)	Magnitude(dB)
1.000000e+01	-1.676631e-05
1.005776e+01	-1.696056e-05
1.011585e+01	-1.715705e-05
1.017428e+01	-1.735582e-05
1.023305e+01	-1.755689e-05
1.029215e+01	-1.776029e-05
1.035160e+01	-1.796605e-05
1.041139e+01	-1.817419e-05
1.047153e+01	-1.838474e-05
1.053201e+01	-1.859773e-05
1.059284e+01	-1.881319e-05
1.065403e+01	-1.903115e-05
1.071556e+01	-1.925163e-05
1.077746e+01	-1.947466e-05
1.083971e+01	-1.970028e-05
1.090232e+01	-1.992851e-05
1.096529e+01	-2.015939e-05
1.102862e+01	-2.039294e-05
1.109232e+01	-2.062920e-05
1.115639e+01	-2.086819e-05
1.122083e+01	-2.110996e-05
1.128564e+01	-2.135452e-05
1.135083e+01	-2.160192e-05
1.141639e+01	-2.185218e-05
1.148233e+01	-2.210535e-05
1.154865e+01	-2.236144e-05
1.161536e+01	-2.262051e-05
1.168245e+01	-2.288257e-05
1.174992e+01	-2.314767e-05
1.181779e+01	-2.341584e-05
1.188605e+01	-2.368712e-05
1.195470e+01	-2.396154e-05
1.202375e+01	-2.423914e-05
1.209320e+01	-2.451996e-05
1.216305e+01	-2.480403e-05
1.223330e+01	-2.509139e-05
1.230396e+01	-2.538208e-05
1.237503e+01	-2.567614e-05
1.244651e+01	-2.597360e-05
1.251840e+01	-2.627451e-05
1.259070e+01	-2.657891e-05
1.266343e+01	-2.688683e-05
1.273657e+01	-2.719832e-05
1.281014e+01	-2.751342e-05
1.288413e+01	-2.783217e-05
1.295855e+01	-2.815461e-05
1.303339e+01	-2.848079e-05
1.310867e+01	-2.881075e-05
1.318439e+01	-2.914453e-05
1.326054e+01	-2.948217e-05
1.333713e+01	-2.982373e-05
1.341417e+01	-3.016925e-05
1.349165e+01	-3.051876e-05
1.356958e+01	-3.087233e-05
1.364795e+01	-3.122999e-05
1.372678e+01	-3.159180e-05
1.380607e+01	-3.195780e-05
1.388581e+01	-3.232804e-05
1.396602e+01	-3.270257e-05
1.404668e+01	-3.308143e-05
1.412782e+01	-3.346469e-05
1.420942e+01	-3.385239e-05
1.429149e+01	-3.424457e-05
1.437404e+01	-3.464131e-05
1.445706e+01	-3.504263e-05
1.454057e+01	-3.544861e-05
1.462455e+01	-3.585929e-05
1.470902e+01	-3.627473e-05
1.479398e+01	-3.669498e-05
1.487943e+01	-3.712010e-05
1.496537e+01	-3.755014e-05
1.505181e+01	-3.798517e-05
1.513875e+01	-3.842524e-05
1.522619e+01	-3.887040e-05
1.531414e+01	-3.932073e-05
1.540259e+01	-3.977627e-05
1.549156e+01	-4.023708e-05
1.558103e+01	-4.070324e-05
1.567103e+01	-4.117479e-05
1.576155e+01	-4.165181e-05
1.585258e+01	-4.213436e-05
1.594415e+01	-4.262250e-05
1.603624e+01	-4.311629e-05
1.612886e+01	-4.361580e-05
1.622202e+01	-4.412110e-05
1.631572e+01	-4.463225e-05
1.640996e+01	-4.514932e-05
1.650474e+01	-4.567239e-05
1.660008e+01	-4.620151e-05
1.669596e+01	-4.673677e-05
1.679239e+01	-4.727822e-05
1.688938e+01	-4.782595e-05
1.698694e+01	-4.838003e-05
1.708505e+01	-4.894052e-05
1.718373e+01	-4.950750e-05
1.728299e+01	-5.008106e-05
1.738281e+01	-5.066126e-05
1.748322e+01	-5.124818e-05
1.758420e+01	-5.184190e-05
1.768576e+01	-5.244250e-05
1.778792e+01	-5.305006e-05
1.789066e+01	-5.366465e-05
1.799399e+01	-5.428637e-05
1.809793e+01	-5.491529e-05
1.820246e+01	-5.555149e-05
1.830760e+01	-5.619507e-05
1.841334e+01	-5.684610e-05
1.851969e+01	-5.750467e-05
1.862666e+01	-5.817088e-05
1.873425e+01	-5.884480e-05
1.884246e+01	-5.952653e-05
1.895129e+01	-6.021616e-05
1.906075e+01	-6.091377e-05
1.917085e+01	-6.161947e-05
1.928158e+01	-6.233334e-05
1.939295e+01	-6.305549e-05
1.950496e+01	-6.378600e-05
1.961762e+01	-6.452497e-05
1.973093e+01	-6.527250e-05
1.984490e+01	-6.602870e-05
1.995952e+01	-6.679365e-05
2.007480e+01	-6.756747e-05
2.019076e+01	-6.835025e-05
2.030738e+01	-6.914210e-05
2.042467e+01	-6.994313e-05
2.054264e+01	-7.075343e-05
2.066130e+01	-7.157312e-05
2.078064e+01	-7.240231e-05
2.090066e+01	-7.324110e-05
2.102139e+01	-7.408962e-05
2.114280e+01	-7.494796e-05
2.126492e+01	-7.581624e-05
2.138775e+01	-7.669459e-05
2.151128e+01	-7.758311e-05
2.163553e+01	-7.848192e-05
2.176050e+01	-7.939115e-05
2.188619e+01	-8.031091e-05
2.201260e+01	-8.124132e-05
2.213974e+01	-8.218252e-05
2.226762e+01	-8.313462e-05
2.239624e+01	-8.409775e-05
2.252560e+01	-8.507203e-05
2.265571e+01	-8.605761e-05
2.278656e+01	-8.705460e-05
2.291818e+01	-8.806314e-05
2.305055e+01	-8.908336e-05
2.318369e+01	-9.011541e-05
2.331760e+01	-9.115941e-05
2.345228e+01	-9.221551e-05
2.358774e+01	-9.328384e-05
2.372398e+01	-9.436455e-05
2.386101e+01	-9.545777e-05
2.399883e+01	-9.656367e-05
2.413745e+01	-9.768237e-05
2.427686e+01	-9.881404e-05
2.441709e+01	-9.995881e-05
2.455812e+01	-1.011168e-04
2.469997e+01	-1.022883e-04
2.484263e+01	-1.034733e-04
2.498612e+01	-1.046721e-04
2.513044e+01	-1.058847e-04
2.527559e+01	-1.071114e-04
2.542158e+01	-1.083523e-04
2.556842e+01	-1.096076e-04
2.571610e+01	-1.108774e-04
2.586463e+01	-1.121619e-04
2.601403e+01	-1.134613e-04
2.616428e+01	-1.147758e-04
2.631541e+01	-1.161055e-04
2.646740e+01	-1.174506e-04
2.662028e+01	-1.188113e-04
2.677404e+01	-1.201877e-04
2.692868e+01	-1.215801e-04
2.708422e+01	-1.229886e-04
2.724066e+01	-1.244135e-04
2.739800e+01	-1.258548e-04
2.755625e+01	-1.273128e-04
2.771541e+01	-1.287878e-04
2.787550e+01	-1.302798e-04
2.803650e+01	-1.317891e-04
2.819844e+01	-1.333159e-04
2.836131e+01	-1.348604e-04
2.852513e+01	-1.364227e-04
2.868989e+01	-1.380032e-04
2.885560e+01	-1.396020e-04
2.902227e+01	-1.412193e-04
2.918990e+01	-1.428553e-04
2.935850e+01	-1.445103e-04
2.952807e+01	-1.461845e-04
2.969863e+01	-1.478780e-04
2.987016e+01	-1.495912e-04
3.004269e+01	-1.513243e-04
3.021622e+01	-1.530774e-04
3.039075e+01	-1.548508e-04
3.056628e+01	-1.566447e-04
3.074283e+01	-1.584595e-04
3.092040e+01	-1.602952e-04
3.109900e+01	-1.621523e-04
3.127862e+01	-1.640308e-04
3.145929e+01	-1.659311e-04
3.164099e+01	-1.678534e-04
3.182375e+01	-1.697980e-04
3.200756e+01	-1.717651e-04
3.219244e+01	-1.737550e-04
3.237838e+01	-1.757680e-04
3.256540e+01	-1.778043e-04
3.275349e+01	-1.798642e-04
3.294268e+01	-1.819479e-04
3.313295e+01	-1.840558e-04
3.332433e+01	-1.861881e-04
3.351681e+01	-1.883450e-04
3.371040e+01	-1.905270e-04
3.390511e+01	-1.927343e-04
3.410094e+01	-1.949671e-04
3.429791e+01	-1.972258e-04
3.449601e+01	-1.995107e-04
3.469526e+01	-2.018220e-04
3.489566e+01	-2.041601e-04
3.509721e+01	-2.065253e-04
3.529993e+01	-2.089179e-04
3.550382e+01	-2.113382e-04
3.570889e+01	-2.137866e-04
3.591515e+01	-2.162633e-04
3.612259e+01	-2.187687e-04
3.633123e+01	-2.213031e-04
3.654108e+01	-2.238669e-04
3.675214e+01	-2.264604e-04
3.696442e+01	-2.290840e-04
3.717792e+01	-2.317379e-04
3.739266e+01	-2.344226e-04
3.760864e+01	-2.371383e-04
3.782587e+01	-2.398856e-04
3.804435e+01	-2.426646e-04
3.826409e+01	-2.454759e-04
3.848510e+01	-2.483197e-04
3.870739e+01	-2.511965e-04
3.893096e+01	-2.541066e-04
3.915583e+01	-2.570504e-04
3.938199e+01	-2.600283e-04
3.960946e+01	-2.630407e-04
3.983824e+01	-2.660880e-04
4.006834e+01	-2.691706e-04
4.029978e+01	-2.722890e-04
4.053255e+01	-2.754434e-04
4.076666e+01	-2.786344e-04
4.100213e+01	-2.818623e-04
4.123896e+01	-2.851277e-04
4.147715e+01	-2.884309e-04
4.171672e+01	-2.917723e-04
4.195767e+01	-2.951524e-04
4.220002e+01	-2.985717e-04
4.244377e+01	-3.020307e-04
4.268892e+01	-3.055296e-04
4.293549e+01	-3.090692e-04
4.318348e+01	-3.126497e-04
4.343291e+01	-3.162717e-04
4.368377e+01	-3.199357e-04
4.393609e+01	-3.236421e-04
4.418986e+01	-3.273914e-04
4.444510e+01	-3.311842e-04
4.470182e+01	-3.350209e-04
4.496001e+01	-3.389020e-04
4.521970e+01	-3.428282e-04
4.548089e+01	-3.467998e-04
4.574358e+01	-3.508174e-04
4.600779e+01	-3.548815e-04
4.627353e+01	-3.589928e-04
4.654081e+01	-3.631516e-04
4.680963e+01	-3.673587e-04
4.708000e+01	-3.716144e-04
4.735193e+01	-3.759195e-04
4.762543e+01	-3.802744e-04
4.790051e+01	-3.846798e-04
4.817719e+01	-3.891362e-04
4.845545e+01	-3.936443e-04
4.873533e+01	-3.982046e-04
4.901682e+01	-4.028177e-04
4.929994e+01	-4.074842e-04
4.958470e+01	-4.122048e-04
4.987110e+01	-4.169801e-04
5.015915e+01	-4.218107e-04
5.044887e+01	-4.266972e-04
5.074026e+01	-4.316404e-04
5.103333e+01	-4.366408e-04
5.132810e+01	-4.416991e-04
5.162457e+01	-4.468161e-04
5.192275e+01	-4.519923e-04
5.222265e+01	-4.572285e-04
5.252429e+01	-4.625253e-04
5.282767e+01	-4.678835e-04
5.313280e+01	-4.733038e-04
5.343969e+01	-4.787868e-04
5.374836e+01	-4.843334e-04
5.405880e+01	-4.899442e-04
5.437105e+01	-4.956200e-04
5.468509e+01	-5.013616e-04
5.500095e+01	-5.071697e-04
5.531863e+01	-5.130450e-04
5.563815e+01	-5.189884e-04
5.595951e+01	-5.250007e-04
5.628273e+01	-5.310826e-04
5.660782e+01	-5.372350e-04
5.693479e+01	-5.434586e-04
5.726364e+01	-5.497543e-04
5.759439e+01	-5.561230e-04
5.792705e+01	-5.625654e-04
5.826164e+01	-5.690824e-04
5.859815e+01	-5.756750e-04
5.893662e+01	-5.823439e-04
5.927703e+01	-5.890900e-04
5.961941e+01	-5.959143e-04
5.996377e+01	-6.028177e-04
6.031012e+01	-6.098010e-04
6.065847e+01	-6.168652e-04
6.100883e+01	-6.240113e-04
6.136121e+01	-6.312401e-04
6.171563e+01	-6.385526e-04
6.207210e+01	-6.459499e-04
6.243063e+01	-6.534328e-04
6.279122e+01	-6.610025e-04
6.315390e+01	-6.686598e-04
6.351868e+01	-6.764058e-04
6.388556e+01	-6.842415e-04
6.425456e+01	-6.921680e-04
6.462569e+01	-7.001863e-04
6.499897e+01	-7.082975e-04
6.537440e+01	-7.165026e-04
6.575200e+01	-7.248028e-04
6.613178e+01	-7.331991e-04
6.651375e+01	-7.416927e-04
6.689793e+01	-7.502847e-04
6.728433e+01	-7.589762e-04
6.767297e+01	-7.677684e-04
6.806384e+01	-7.766624e-04
6.845698e+01	-7.856594e-04
6.885238e+01	-7.947607e-04
6.925007e+01	-8.039673e-04
6.965005e+01	-8.132806e-04
7.005235e+01	-8.227018e-04
7.045697e+01	-8.322321e-04
7.086393e+01	-8.418728e-04
7.127323e+01	-8.516252e-04
7.168490e+01	-8.614905e-04
7.209895e+01	-8.714701e-04
7.251539e+01	-8.815653e-04
7.293424e+01	-8.917775e-04
7.335551e+01	-9.021079e-04
7.377920e+01	-9.125580e-04
7.420535e+01	-9.231291e-04
7.463396e+01	-9.338226e-04
7.506504e+01	-9.446400e-04
7.549861e+01	-9.555827e-04
7.593469e+01	-9.666522e-04
7.637328e+01	-9.778499e-04
7.681441e+01	-9.891772e-04
7.725809e+01	-1.000636e-03
7.770433e+01	-1.012227e-03
7.815315e+01	-1.023953e-03
7.860456e+01	-1.035814e-03
7.905857e+01	-1.047813e-03
7.951521e+01	-1.059950e-03
7.997449e+01	-1.072229e-03
8.043642e+01	-1.084649e-03
8.090102e+01	-1.097214e-03
8.136830e+01	-1.109924e-03
8.183828e+01	-1.122781e-03
8.231097e+01	-1.135787e-03
8.278640e+01	-1.148943e-03
8.326457e+01	-1.162252e-03
8.374550e+01	-1.175716e-03
8.422921e+01	-1.189335e-03
8.471572e+01	-1.203111e-03
8.520503e+01	-1.217048e-03
8.569717e+01	-1.231146e-03
8.619215e+01	-1.245407e-03
8.669000e+01	-1.259833e-03
8.719071e+01	-1.274426e-03
8.769432e+01	-1.289189e-03
8.820084e+01	-1.304122e-03
8.871029e+01	-1.319229e-03
8.922267e+01	-1.334510e-03
8.973802e+01	-1.349968e-03
9.025634e+01	-1.365605e-03
9.077766e+01	-1.381424e-03
9.130199e+01	-1.397425e-03
9.182935e+01	-1.413612e-03
9.235975e+01	-1.429987e-03
9.289321e+01	-1.446551e-03
9.342976e+01	-1.463307e-03
9.396941e+01	-1.480256e-03
9.451217e+01	-1.497403e-03
9.505807e+01	-1.514747e-03
9.560712e+01	-1.532293e-03
9.615934e+01	-1.550042e-03
9.671476e+01	-1.567996e-03
9.727338e+01	-1.586159e-03
9.783522e+01	-1.604531e-03
9.840032e+01	-1.623117e-03
9.896867e+01	-1.641918e-03
9.954031e+01	-1.660936e-03
1.001153e+02	-1.680175e-03
1.006935e+02	-1.699636e-03
1.012751e+02	-1.719323e-03
1.018601e+02	-1.739238e-03
1.024484e+02	-1.759383e-03
1.030402e+02	-1.779762e-03
1.036353e+02	-1.800377e-03
1.042339e+02	-1.821230e-03
1.048360e+02	-1.842325e-03
1.054415e+02	-1.863664e-03
1.060505e+02	-1.885251e-03
1.066631e+02	-1.907087e-03
1.072791e+02	-1.929176e-03
1.078988e+02	-1.951521e-03
1.085220e+02	-1.974125e-03
1.091488e+02	-1.996991e-03
1.097793e+02	-2.020121e-03
1.104133e+02	-2.043519e-03
1.110511e+02	-2.067188e-03
1.116925e+02	-2.091131e-03
1.123376e+02	-2.115352e-03
1.129865e+02	-2.139852e-03
1.136391e+02	-2.164637e-03
1.142955e+02	-2.189709e-03
1.149556e+02	-2.215070e-03
1.156196e+02	-2.240726e-03
1.162874e+02	-2.266679e-03
1.169591e+02	-2.292932e-03
1.176347e+02	-2.319489e-03
1.183141e+02	-2.346354e-03
1.189975e+02	-2.373529e-03
1.196848e+02	-2.401020e-03
1.203761e+02	-2.428828e-03
1.210714e+02	-2.456959e-03
1.217707e+02	-2.485415e-03
1.224740e+02	-2.514201e-03
1.231814e+02	-2.543320e-03
1.238929e+02	-2.572777e-03
1.246085e+02	-2.602574e-03
1.253283e+02	-2.632716e-03
1.260522e+02	-2.663208e-03
1.267802e+02	-2.694052e-03
1.275125e+02	-2.725254e-03
1.282490e+02	-2.756816e-03
1.289898e+02	-2.788744e-03
1.297348e+02	-2.821042e-03
1.304842e+02	-2.853714e-03
1.312378e+02	-2.886764e-03
1.319959e+02	-2.920197e-03
1.327583e+02	-2.954016e-03
1.335251e+02	-2.988228e-03
1.342963e+02	-3.022835e-03
1.350720e+02	-3.057843e-03
1.358522e+02	-3.093256e-03
1.366368e+02	-3.129080e-03
1.374260e+02	-3.165318e-03
1.382198e+02	-3.201975e-03
1.390182e+02	-3.239057e-03
1.398211e+02	-3.276568e-03
1.406287e+02	-3.314514e-03
1.414410e+02	-3.352898e-03
1.422579e+02	-3.391727e-03
1.430796e+02	-3.431006e-03
1.439060e+02	-3.470739e-03
1.447372e+02	-3.510932e-03
1.455732e+02	-3.551590e-03
1.464141e+02	-3.592720e-03
1.472597e+02	-3.634325e-03
1.481103e+02	-3.676411e-03
1.489658e+02	-3.718985e-03
1.498262e+02	-3.762052e-03
1.506916e+02	-3.805617e-03
1.515620e+02	-3.849687e-03
1.524374e+02	-3.894266e-03
1.533179e+02	-3.939362e-03
1.542034e+02	-3.984980e-03
1.550941e+02	-4.031125e-03
1.559899e+02	-4.077805e-03
1.568909e+02	-4.125025e-03
1.577971e+02	-4.172791e-03
1.587085e+02	-4.221111e-03
1.596252e+02	-4.269989e-03
1.605472e+02	-4.319433e-03
1.614745e+02	-4.369450e-03
1.624072e+02	-4.420045e-03
1.633453e+02	-4.471226e-03
1.642887e+02	-4.523000e-03
1.652377e+02	-4.575372e-03
1.661921e+02	-4.628351e-03
1.671520e+02	-4.681942e-03
1.681175e+02	-4.736154e-03
1.690885e+02	-4.790993e-03
1.700651e+02	-4.846467e-03
1.710474e+02	-4.902583e-03
1.720354e+02	-4.959348e-03
1.730291e+02	-5.016770e-03
1.740285e+02	-5.074857e-03
1.750337e+02	-5.133616e-03
1.760446e+02	-5.193054e-03
1.770615e+02	-5.253181e-03
1.780842e+02	-5.314003e-03
1.791128e+02	-5.375529e-03
1.801473e+02	-5.437767e-03
1.811878e+02	-5.500725e-03
1.822344e+02	-5.564411e-03
1.832870e+02	-5.628834e-03
1.843456e+02	-5.694003e-03
1.854104e+02	-5.759925e-03
1.864813e+02	-5.826611e-03
1.875584e+02	-5.894068e-03
1.886418e+02	-5.962305e-03
1.897313e+02	-6.031332e-03
1.908272e+02	-6.101157e-03
1.919294e+02	-6.171790e-03
1.930380e+02	-6.243240e-03
1.941530e+02	-6.315517e-03
1.952744e+02	-6.388630e-03
1.964023e+02	-6.462589e-03
1.975367e+02	-6.537403e-03
1.986777e+02	-6.613083e-03
1.998252e+02	-6.689638e-03
2.009794e+02	-6.767079e-03
2.021403e+02	-6.845415e-03
2.033078e+02	-6.924657e-03
2.044821e+02	-7.004817e-03
2.056632e+02	-7.085903e-03
2.068511e+02	-7.167927e-03
2.080459e+02	-7.250900e-03
2.092475e+02	-7.334832e-03
2.104561e+02	-7.419735e-03
2.116717e+02	-7.505620e-03
2.128943e+02	-7.592498e-03
2.141240e+02	-7.680382e-03
2.153608e+02	-7.769281e-03
2.166047e+02	-7.859208e-03
2.178558e+02	-7.950176e-03
2.191141e+02	-8.042195e-03
2.203797e+02	-8.135278e-03
2.216526e+02	-8.229438e-03
2.229329e+02	-8.324687e-03
2.242205e+02	-8.421036e-03
2.255156e+02	-8.518500e-03
2.268182e+02	-8.617091e-03
2.281283e+02	-8.716822e-03
2.294459e+02	-8.817706e-03
2.307712e+02	-8.919756e-03
2.321041e+02	-9.022986e-03
2.334447e+02	-9.127409e-03
2.347931e+02	-9.233040e-03
2.361493e+02	-9.339892e-03
2.375133e+02	-9.447979e-03
2.388851e+02	-9.557315e-03
2.402649e+02	-9.667915e-03
2.416527e+02	-9.779794e-03
2.430484e+02	-9.892966e-03
2.444523e+02	-1.000745e-02
2.458642e+02	-1.012325e-02
2.472843e+02	-1.024039e-02
2.487126e+02	-1.035889e-02
2.501492e+02	-1.047875e-02
2.515940e+02	-1.060000e-02
2.530472e+02	-1.072265e-02
2.545088e+02	-1.084672e-02
2.559789e+02	-1.097223e-02
2.574574e+02	-1.109918e-02
2.589444e+02	-1.122760e-02
2.604401e+02	-1.135750e-02
2.619444e+02	-1.148891e-02
2.634574e+02	-1.162183e-02
2.649791e+02	-1.175629e-02
2.665096e+02	-1.189230e-02
2.680489e+02	-1.202989e-02
2.695972e+02	-1.216906e-02
2.711544e+02	-1.230984e-02
2.727205e+02	-1.245225e-02
2.742958e+02	-1.259630e-02
2.758801e+02	-1.274202e-02
2.774736e+02	-1.288942e-02
2.790762e+02	-1.303852e-02
2.806882e+02	-1.318934e-02
2.823094e+02	-1.334191e-02
2.839400e+02	-1.349624e-02
2.855800e+02	-1.365235e-02
2.872295e+02	-1.381026e-02
2.888886e+02	-1.397000e-02
2.905572e+02	-1.413158e-02
2.922354e+02	-1.429503e-02
2.939234e+02	-1.446037e-02
2.956211e+02	-1.462761e-02
2.973286e+02	-1.479678e-02
2.990459e+02	-1.496791e-02
3.007732e+02	-1.514102e-02
3.025104e+02	-1.531612e-02
3.042577e+02	-1.549324e-02
3.060151e+02	-1.567241e-02
3.077826e+02	-1.585365e-02
3.095604e+02	-1.603697e-02
3.113484e+02	-1.622242e-02
3.131467e+02	-1.641000e-02
3.149554e+02	-1.659975e-02
3.167746e+02	-1.679169e-02
3.186043e+02	-1.698585e-02
3.204445e+02	-1.718224e-02
3.222954e+02	-1.738090e-02
3.241570e+02	-1.758186e-02
3.260293e+02	-1.778513e-02
3.279124e+02	-1.799074e-02
3.298064e+02	-1.819873e-02
3.317114e+02	-1.840912e-02
3.336273e+02	-1.862194e-02
3.355544e+02	-1.883721e-02
3.374925e+02	-1.905496e-02
3.394418e+02	-1.927523e-02
3.414024e+02	-1.949803e-02
3.433744e+02	-1.972341e-02
3.453577e+02	-1.995138e-02
3.473525e+02	-2.018199e-02
3.493588e+02	-2.041525e-02
3.513766e+02	-2.065120e-02
3.534062e+02	-2.088987e-02
3.554474e+02	-2.113130e-02
3.575005e+02	-2.137550e-02
3.595654e+02	-2.162252e-02
3.616422e+02	-2.187239e-02
3.637311e+02	-2.212514e-02
3.658320e+02	-2.238081e-02
3.679450e+02	-2.263942e-02
3.700702e+02	-2.290101e-02
3.722077e+02	-2.316561e-02
3.743576e+02	-2.343326e-02
3.765199e+02	-2.370400e-02
3.786946e+02	-2.397786e-02
3.808820e+02	-2.425487e-02
3.830819e+02	-2.453507e-02
3.852946e+02	-2.481850e-02
3.875200e+02	-2.510520e-02
3.897583e+02	-2.539519e-02
3.920096e+02	-2.568853e-02
3.942738e+02	-2.598525e-02
3.965511e+02	-2.628538e-02
3.988416e+02	-2.658896e-02
4.011452e+02	-2.689605e-02
4.034622e+02	-2.720667e-02
4.057926e+02	-2.752086e-02
4.081365e+02	-2.783867e-02
4.104938e+02	-2.816014e-02
4.128648e+02	-2.848531e-02
4.152495e+02	-2.881422e-02
4.176480e+02	-2.914692e-02
4.200603e+02	-2.948344e-02
4.224866e+02	-2.982384e-02
4.249268e+02	-3.016816e-02
4.273812e+02	-3.051643e-02
4.298497e+02	-3.086871e-02
4.323325e+02	-3.122504e-02
4.348297e+02	-3.158547e-02
4.373412e+02	-3.195005e-02
4.398673e+02	-3.231882e-02
4.424079e+02	-3.269183e-02
4.449633e+02	-3.306912e-02
4.475334e+02	-3.345076e-02
4.501183e+02	-3.383678e-02
4.527182e+02	-3.422724e-02
4.553330e+02	-3.462219e-02
4.579630e+02	-3.502167e-02
4.606082e+02	-3.542575e-02
4.632687e+02	-3.583447e-02
4.659445e+02	-3.624788e-02
4.686358e+02	-3.666605e-02
4.713426e+02	-3.708901e-02
4.740650e+02	-3.751684e-02
4.768032e+02	-3.794958e-02
4.795572e+02	-3.838729e-02
4.823271e+02	-3.883002e-02
4.851130e+02	-3.927784e-02
4.879150e+02	-3.973079e-02
4.907332e+02	-4.018895e-02
4.935676e+02	-4.065237e-02
4.964185e+02	-4.112110e-02
4.992858e+02	-4.159521e-02
5.021696e+02	-4.207476e-02
5.050701e+02	-4.255982e-02
5.079874e+02	-4.305044e-02
5.109215e+02	-4.354668e-02
5.138726e+02	-4.404862e-02
5.168407e+02	-4.455631e-02
5.198259e+02	-4.506982e-02
5.228284e+02	-4.558922e-02
5.258482e+02	-4.611457e-02
5.288855e+02	-4.664595e-02
5.319403e+02	-4.718341e-02
5.350128e+02	-4.772704e-02
5.381030e+02	-4.827689e-02
5.412111e+02	-4.883304e-02
5.443371e+02	-4.939556e-02
5.474812e+02	-4.996452e-02
5.506434e+02	-5.054000e-02
5.538239e+02	-5.112207e-02
5.570228e+02	-5.171080e-02
5.602401e+02	-5.230627e-02
5.634760e+02	-5.290855e-02
5.667306e+02	-5.351773e-02
5.700040e+02	-5.413388e-02
5.732964e+02	-5.475708e-02
5.766077e+02	-5.538740e-02
5.799382e+02	-5.602493e-02
5.832879e+02	-5.666976e-02
5.866569e+02	-5.732195e-02
5.900454e+02	-5.798161e-02
5.934535e+02	-5.864880e-02
5.968813e+02	-5.932361e-02
6.003288e+02	-6.000614e-02
6.037963e+02	-6.069647e-02
6.072838e+02	-6.139468e-02
6.107914e+02	-6.210086e-02
6.143194e+02	-6.281511e-02
6.178676e+02	-6.353751e-02
6.214364e+02	-6.426816e-02
6.250258e+02	-6.500715e-02
6.286359e+02	-6.575457e-02
6.322669e+02	-6.651051e-02
6.359189e+02	-6.727509e-02
6.395919e+02	-6.804838e-02
6.432862e+02	-6.883049e-02
6.470017e+02	-6.962151e-02
6.507388e+02	-7.042155e-02
6.544974e+02	-7.123071e-02
6.582778e+02	-7.204910e-02
6.620800e+02	-7.287680e-02
6.659041e+02	-7.371393e-02
6.697504e+02	-7.456060e-02
6.736188e+02	-7.541690e-02
6.775096e+02	-7.628295e-02
6.814229e+02	-7.715886e-02
6.853587e+02	-7.804474e-02
6.893173e+02	-7.894070e-02
6.932988e+02	-7.984684e-02
6.973033e+02	-8.076329e-02
7.013309e+02	-8.169016e-02
