Frequency(Hz)	Magnitude(dB)
1.000000e+01	-2.049388e+00
1.005776e+01	-2.068419e+00
1.011585e+01	-2.087448e+00
1.017428e+01	-2.106514e+00
1.023305e+01	-2.126162e+00
1.029215e+01	-2.145435e+00
1.035160e+01	-2.164972e+00
1.041139e+01	-2.184692e+00
1.047153e+01	-2.204376e+00
1.053201e+01	-2.224549e+00
1.059284e+01	-2.244731e+00
1.065403e+01	-2.264870e+00
1.071556e+01	-2.285151e+00
1.077746e+01	-2.305711e+00
1.083971e+01	-2.326371e+00
1.090232e+01	-2.347378e+00
1.096529e+01	-2.368307e+00
1.102862e+01	-2.389211e+00
1.109232e+01	-2.410554e+00
1.115639e+01	-2.431915e+00
1.122083e+01	-2.453569e+00
1.128564e+01	-2.475031e+00
1.135083e+01	-2.497005e+00
1.141639e+01	-2.518792e+00
1.148233e+01	-2.540972e+00
1.154865e+01	-2.563335e+00
1.161536e+01	-2.585637e+00
1.168245e+01	-2.608079e+00
1.174992e+01	-2.630729e+00
1.181779e+01	-2.653463e+00
1.188605e+01	-2.676603e+00
1.195470e+01	-2.699723e+00
1.202375e+01	-2.722890e+00
1.209320e+01	-2.746384e+00
1.216305e+01	-2.769757e+00
1.223330e+01	-2.793310e+00
1.230396e+01	-2.817182e+00
1.237503e+01	-2.841228e+00
1.244651e+01	-2.865183e+00
1.251840e+01	-2.889237e+00
1.259070e+01	-2.914296e+00
1.266343e+01	-2.938301e+00
1.273657e+01	-2.963047e+00
1.281014e+01	-2.987811e+00
1.288413e+01	-3.012659e+00
1.295855e+01	-3.037867e+00
1.303339e+01	-3.063129e+00
1.310867e+01	-3.088601e+00
1.318439e+01	-3.113902e+00
1.326054e+01	-3.139793e+00
1.333713e+01	-3.165551e+00
1.341417e+01	-3.191521e+00
1.349165e+01	-3.217556e+00
1.356958e+01	-3.243903e+00
1.364795e+01	-3.270158e+00
1.372678e+01	-3.296849e+00
1.380607e+01	-3.323279e+00
1.388581e+01	-3.350550e+00
1.396602e+01	-3.377474e+00
1.404668e+01	-3.404514e+00
1.412782e+01	-3.431697e+00
1.420942e+01	-3.459015e+00
1.429149e+01	-3.486693e+00
1.437404e+01	-3.514320e+00
1.445706e+01	-3.542214e+00
1.454057e+01	-3.570040e+00
1.462455e+01	-3.597838e+00
1.470902e+01	-3.626240e+00
1.479398e+01	-3.654843e+00
1.487943e+01	-3.683203e+00
1.496537e+01	-3.712054e+00
1.505181e+01	-3.741059e+00
1.513875e+01	-3.769697e+00
1.522619e+01	-3.798892e+00
1.531414e+01	-3.827851e+00
1.540259e+01	-3.857505e+00
1.549156e+01	-3.887032e+00
1.558103e+01	-3.916803e+00
1.567103e+01	-3.946382e+00
1.576155e+01	-3.976273e+00
1.585258e+01	-4.006442e+00
1.594415e+01	-4.036657e+00
1.603624e+01	-4.066937e+00
1.612886e+01	-4.097328e+00
1.622202e+01	-4.128201e+00
1.631572e+01	-4.158589e+00
1.640996e+01	-4.190100e+00
1.650474e+01	-4.220649e+00
1.660008e+01	-4.252115e+00
1.669596e+01	-4.283272e+00
1.679239e+01	-4.314801e+00
1.688938e+01	-4.346248e+00
1.698694e+01	-4.377772e+00
1.708505e+01	-4.409766e+00
1.718373e+01	-4.441888e+00
1.728299e+01	-4.473868e+00
1.738281e+01	-4.506178e+00
1.748322e+01	-4.538398e+00
1.758420e+01	-4.570879e+00
1.768576e+01	-4.603808e+00
1.778792e+01	-4.636398e+00
1.789066e+01	-4.669227e+00
1.799399e+01	-4.702467e+00
1.809793e+01	-4.735513e+00
1.820246e+01	-4.768694e+00
1.830760e+01	-4.802061e+00
1.841334e+01	-4.835559e+00
1.851969e+01	-4.869258e+00
1.862666e+01	-4.903114e+00
1.873425e+01	-4.936937e+00
1.884246e+01	-4.971107e+00
1.895129e+01	-5.005114e+00
1.906075e+01	-5.039378e+00
1.917085e+01	-5.073921e+00
1.928158e+01	-5.108491e+00
1.939295e+01	-5.143052e+00
1.950496e+01	-5.177812e+00
1.961762e+01	-5.212828e+00
1.973093e+01	-5.247858e+00
1.984490e+01	-5.282627e+00
1.995952e+01	-5.318275e+00
2.007480e+01	-5.353719e+00
2.019076e+01	-5.389017e+00
2.030738e+01	-5.424463e+00
2.042467e+01	-5.460326e+00
2.054264e+01	-5.496507e+00
2.066130e+01	-5.532135e+00
2.078064e+01	-5.568399e+00
2.090066e+01	-5.604392e+00
2.102139e+01	-5.640866e+00
2.114280e+01	-5.677469e+00
2.126492e+01	-5.713851e+00
2.138775e+01	-5.750798e+00
2.151128e+01	-5.787297e+00
2.163553e+01	-5.824184e+00
2.176050e+01	-5.861166e+00
2.188619e+01	-5.898336e+00
2.201260e+01	-5.935589e+00
2.213974e+01	-5.973089e+00
2.226762e+01	-6.010432e+00
2.239624e+01	-6.047777e+00
2.252560e+01	-6.085344e+00
2.265571e+01	-6.123158e+00
2.278656e+01	-6.161173e+00
2.291818e+01	-6.199131e+00
2.305055e+01	-6.237174e+00
2.318369e+01	-6.275496e+00
2.331760e+01	-6.313469e+00
2.345228e+01	-6.352320e+00
2.358774e+01	-6.390493e+00
2.372398e+01	-6.428957e+00
2.386101e+01	-6.467553e+00
2.399883e+01	-6.506488e+00
2.413745e+01	-6.545322e+00
2.427686e+01	-6.584617e+00
2.441709e+01	-6.623433e+00
2.455812e+01	-6.662849e+00
2.469997e+01	-6.701840e+00
2.484263e+01	-6.741176e+00
2.498612e+01	-6.780658e+00
2.513044e+01	-6.820552e+00
2.527559e+01	-6.860205e+00
2.542158e+01	-6.899313e+00
2.556842e+01	-6.939419e+00
2.571610e+01	-6.979765e+00
2.586463e+01	-7.019520e+00
2.601403e+01	-7.059970e+00
2.616428e+01	-7.099998e+00
2.631541e+01	-7.140550e+00
2.646740e+01	-7.180438e+00
2.662028e+01	-7.221453e+00
2.677404e+01	-7.261783e+00
2.692868e+01	-7.302368e+00
2.708422e+01	-7.343200e+00
2.724066e+01	-7.384372e+00
2.739800e+01	-7.425204e+00
2.755625e+01	-7.466215e+00
2.771541e+01	-7.507307e+00
2.787550e+01	-7.548540e+00
2.803650e+01	-7.589807e+00
2.819844e+01	-7.631109e+00
2.836131e+01	-7.672275e+00
2.852513e+01	-7.714086e+00
2.868989e+01	-7.755206e+00
2.885560e+01	-7.797637e+00
2.902227e+01	-7.839032e+00
2.918990e+01	-7.880904e+00
2.935850e+01	-7.922586e+00
2.952807e+01	-7.964389e+00
2.969863e+01	-8.006638e+00
2.987016e+01	-8.049365e+00
3.004269e+01	-8.091412e+00
3.021622e+01	-8.133367e+00
3.039075e+01	-8.175809e+00
3.056628e+01	-8.218403e+00
3.074283e+01	-8.260706e+00
3.092040e+01	-8.303313e+00
3.109900e+01	-8.346265e+00
3.127862e+01	-8.389110e+00
3.145929e+01	-8.431446e+00
3.164099e+01	-8.474539e+00
3.182375e+01	-8.517436e+00
3.200756e+01	-8.560320e+00
3.219244e+01	-8.603490e+00
3.237838e+01	-8.646643e+00
3.256540e+01	-8.689856e+00
3.275349e+01	-8.732937e+00
3.294268e+01	-8.776716e+00
3.313295e+01	-8.820095e+00
3.332433e+01	-8.863409e+00
3.351681e+01	-8.907018e+00
3.371040e+01	-8.950957e+00
3.390511e+01	-8.994246e+00
3.410094e+01	-9.038732e+00
3.429791e+01	-9.082119e+00
3.449601e+01	-9.125804e+00
3.469526e+01	-9.169724e+00
3.489566e+01	-9.213479e+00
3.509721e+01	-9.258082e+00
3.529993e+01	-9.301912e+00
3.550382e+01	-9.345615e+00
3.570889e+01	-9.390645e+00
3.591515e+01	-9.434854e+00
3.612259e+01	-9.478981e+00
3.633123e+01	-9.524022e+00
3.654108e+01	-9.567921e+00
3.675214e+01	-9.612549e+00
3.696442e+01	-9.656937e+00
3.717792e+01	-9.701547e+00
3.739266e+01	-9.746678e+00
3.760864e+01	-9.791105e+00
3.782587e+01	-9.835647e+00
3.804435e+01	-9.880498e+00
3.826409e+01	-9.925510e+00
3.848510e+01	-9.970991e+00
3.870739e+01	-1.001545e+01
3.893096e+01	-1.006056e+01
3.915583e+01	-1.010562e+01
3.938199e+01	-1.015106e+01
3.960946e+01	-1.019645e+01
3.983824e+01	-1.024185e+01
4.006834e+01	-1.028688e+01
4.029978e+01	-1.033228e+01
4.053255e+01	-1.037811e+01
4.076666e+01	-1.042323e+01
4.100213e+01	-1.046864e+01
4.123896e+01	-1.051419e+01
4.147715e+01	-1.055980e+01
4.171672e+01	-1.060513e+01
4.195767e+01	-1.065064e+01
4.220002e+01	-1.069751e+01
4.244377e+01	-1.074272e+01
4.268892e+01	-1.078824e+01
4.293549e+01	-1.083443e+01
4.318348e+01	-1.088057e+01
4.343291e+01	-1.092591e+01
4.368377e+01	-1.097211e+01
4.393609e+01	-1.101803e+01
4.418986e+01	-1.106462e+01
4.444510e+01	-1.111047e+01
4.470182e+01	-1.115680e+01
4.496001e+01	-1.120300e+01
4.521970e+01	-1.124964e+01
4.548089e+01	-1.129574e+01
4.574358e+01	-1.134255e+01
4.600779e+01	-1.138858e+01
4.627353e+01	-1.143477e+01
4.654081e+01	-1.148150e+01
4.680963e+01	-1.152785e+01
4.708000e+01	-1.157410e+01
4.735193e+01	-1.162070e+01
4.762543e+01	-1.166739e+01
4.790051e+01	-1.171389e+01
4.817719e+01	-1.176067e+01
4.845545e+01	-1.180694e+01
4.873533e+01	-1.185381e+01
4.901682e+01	-1.189995e+01
4.929994e+01	-1.194735e+01
4.958470e+01	-1.199410e+01
4.987110e+01	-1.204121e+01
5.015915e+01	-1.208849e+01
5.044887e+01	-1.213544e+01
5.074026e+01	-1.218202e+01
5.103333e+01	-1.222895e+01
5.132810e+01	-1.227644e+01
5.162457e+01	-1.232354e+01
5.192275e+01	-1.237053e+01
5.222265e+01	-1.241806e+01
5.252429e+01	-1.246488e+01
5.282767e+01	-1.251190e+01
5.313280e+01	-1.255933e+01
5.343969e+01	-1.260587e+01
5.374836e+01	-1.265354e+01
5.405880e+01	-1.270100e+01
5.437105e+01	-1.274788e+01
5.468509e+01	-1.279598e+01
5.500095e+01	-1.284315e+01
5.531863e+01	-1.289069e+01
5.563815e+01	-1.293783e+01
5.595951e+01	-1.298621e+01
5.628273e+01	-1.303279e+01
5.660782e+01	-1.308093e+01
5.693479e+01	-1.312804e+01
5.726364e+01	-1.317660e+01
5.759439e+01	-1.322459e+01
5.792705e+01	-1.327161e+01
5.826164e+01	-1.331872e+01
5.859815e+01	-1.336670e+01
5.893662e+01	-1.341392e+01
5.927703e+01	-1.346282e+01
5.961941e+01	-1.350985e+01
5.996377e+01	-1.355788e+01
6.031012e+01	-1.360655e+01
6.065847e+01	-1.365393e+01
6.100883e+01	-1.370087e+01
6.136121e+01	-1.374920e+01
6.171563e+01	-1.379735e+01
6.207210e+01	-1.384557e+01
6.243063e+01	-1.389345e+01
6.279122e+01	-1.394074e+01
6.315390e+01	-1.398903e+01
6.351868e+01	-1.403645e+01
6.388556e+01	-1.408473e+01
6.425456e+01	-1.413307e+01
6.462569e+01	-1.418103e+01
6.499897e+01	-1.422967e+01
6.537440e+01	-1.427814e+01
6.575200e+01	-1.432560e+01
6.613178e+01	-1.437403e+01
6.651375e+01	-1.442152e+01
6.689793e+01	-1.447137e+01
6.728433e+01	-1.451873e+01
6.767297e+01	-1.456752e+01
6.806384e+01	-1.461545e+01
6.845698e+01	-1.466389e+01
6.885238e+01	-1.471194e+01
6.925007e+01	-1.475995e+01
6.965005e+01	-1.480896e+01
7.005235e+01	-1.485647e+01
7.045697e+01	-1.490449e+01
7.086393e+01	-1.495389e+01
7.127323e+01	-1.500149e+01
7.168490e+01	-1.504973e+01
7.209895e+01	-1.509980e+01
7.251539e+01	-1.514789e+01
7.293424e+01	-1.519630e+01
7.335551e+01	-1.524466e+01
7.377920e+01	-1.529339e+01
7.420535e+01	-1.534210e+01
7.463396e+01	-1.539050e+01
7.506504e+01	-1.543997e+01
7.549861e+01	-1.548719e+01
7.593469e+01	-1.553591e+01
7.637328e+01	-1.558476e+01
7.681441e+01	-1.563333e+01
7.725809e+01	-1.568286e+01
7.770433e+01	-1.573061e+01
7.815315e+01	-1.577897e+01
7.860456e+01	-1.582782e+01
7.905857e+01	-1.587784e+01
7.951521e+01	-1.592532e+01
7.997449e+01	-1.597397e+01
8.043642e+01	-1.602301e+01
8.090102e+01	-1.607154e+01
8.136830e+01	-1.612140e+01
8.183828e+01	-1.616928e+01
8.231097e+01	-1.621837e+01
8.278640e+01	-1.626780e+01
8.326457e+01	-1.631683e+01
8.374550e+01	-1.636556e+01
8.422921e+01	-1.641415e+01
8.471572e+01	-1.646263e+01
8.520503e+01	-1.651213e+01
8.569717e+01	-1.656223e+01
8.619215e+01	-1.660968e+01
8.669000e+01	-1.665848e+01
8.719071e+01	-1.670684e+01
8.769432e+01	-1.675639e+01
8.820084e+01	-1.680533e+01
8.871029e+01	-1.685324e+01
8.922267e+01	-1.690365e+01
8.973802e+01	-1.695291e+01
9.025634e+01	-1.700234e+01
9.077766e+01	-1.705082e+01
9.130199e+01	-1.710009e+01
9.182935e+01	-1.714863e+01
9.235975e+01	-1.719719e+01
9.289321e+01	-1.724669e+01
9.342976e+01	-1.729678e+01
9.396941e+01	-1.734472e+01
9.451217e+01	-1.739406e+01
9.505807e+01	-1.744339e+01
9.560712e+01	-1.749430e+01
9.615934e+01	-1.754177e+01
9.671476e+01	-1.759148e+01
9.727338e+01	-1.764003e+01
9.783522e+01	-1.769135e+01
9.840032e+01	-1.773793e+01
9.896867e+01	-1.778680e+01
9.954031e+01	-1.783755e+01
1.001153e+02	-1.788610e+01
1.006935e+02	-1.793595e+01
1.012751e+02	-1.798510e+01
1.018601e+02	-1.803327e+01
1.024484e+02	-1.808273e+01
1.030402e+02	-1.813244e+01
1.036353e+02	-1.818183e+01
1.042339e+02	-1.823130e+01
1.048360e+02	-1.828081e+01
1.054415e+02	-1.832892e+01
1.060505e+02	-1.837870e+01
1.066631e+02	-1.842721e+01
1.072791e+02	-1.847574e+01
1.078988e+02	-1.852611e+01
1.085220e+02	-1.857606e+01
1.091488e+02	-1.862424e+01
1.097793e+02	-1.867478e+01
1.104133e+02	-1.872364e+01
1.110511e+02	-1.877213e+01
1.116925e+02	-1.882144e+01
1.123376e+02	-1.887310e+01
1.129865e+02	-1.892117e+01
1.136391e+02	-1.897111e+01
1.142955e+02	-1.902117e+01
1.149556e+02	-1.906858e+01
1.156196e+02	-1.911933e+01
1.162874e+02	-1.916865e+01
1.169591e+02	-1.921751e+01
1.176347e+02	-1.926706e+01
1.183141e+02	-1.931613e+01
1.189975e+02	-1.936772e+01
1.196848e+02	-1.941542e+01
1.203761e+02	-1.946273e+01
1.210714e+02	-1.951338e+01
1.217707e+02	-1.956482e+01
1.224740e+02	-1.961309e+01
1.231814e+02	-1.966392e+01
1.238929e+02	-1.971284e+01
1.246085e+02	-1.976234e+01
1.253283e+02	-1.981056e+01
1.260522e+02	-1.986075e+01
1.267802e+02	-1.991147e+01
1.275125e+02	-1.996057e+01
1.282490e+02	-2.000920e+01
1.289898e+02	-2.005882e+01
1.297348e+02	-2.010927e+01
1.304842e+02	-2.015892e+01
1.312378e+02	-2.020793e+01
1.319959e+02	-2.025764e+01
1.327583e+02	-2.030750e+01
1.335251e+02	-2.035735e+01
1.342963e+02	-2.040538e+01
1.350720e+02	-2.045532e+01
1.358522e+02	-2.050446e+01
1.366368e+02	-2.055507e+01
1.374260e+02	-2.060419e+01
1.382198e+02	-2.065611e+01
1.390182e+02	-2.070444e+01
1.398211e+02	-2.075327e+01
1.406287e+02	-2.080341e+01
1.414410e+02	-2.085283e+01
1.422579e+02	-2.090331e+01
1.430796e+02	-2.095308e+01
1.439060e+02	-2.100297e+01
1.447372e+02	-2.105004e+01
1.455732e+02	-2.110210e+01
1.464141e+02	-2.114990e+01
1.472597e+02	-2.119984e+01
1.481103e+02	-2.125046e+01
1.489658e+02	-2.129990e+01
1.498262e+02	-2.134869e+01
1.506916e+02	-2.139794e+01
1.515620e+02	-2.144799e+01
1.524374e+02	-2.149642e+01
1.533179e+02	-2.154888e+01
1.542034e+02	-2.159710e+01
1.550941e+02	-2.164740e+01
1.559899e+02	-2.169465e+01
1.568909e+02	-2.174530e+01
1.577971e+02	-2.179579e+01
1.587085e+02	-2.184625e+01
1.596252e+02	-2.189594e+01
1.605472e+02	-2.194540e+01
1.614745e+02	-2.199489e+01
1.624072e+02	-2.204229e+01
1.633453e+02	-2.209572e+01
1.642887e+02	-2.214241e+01
1.652377e+02	-2.219440e+01
1.661921e+02	-2.224520e+01
1.671520e+02	-2.229344e+01
1.681175e+02	-2.234502e+01
1.690885e+02	-2.239580e+01
1.700651e+02	-2.244133e+01
1.710474e+02	-2.249114e+01
1.720354e+02	-2.254196e+01
1.730291e+02	-2.259314e+01
1.740285e+02	-2.264095e+01
1.750337e+02	-2.269124e+01
1.760446e+02	-2.274247e+01
1.770615e+02	-2.279082e+01
1.780842e+02	-2.284004e+01
1.791128e+02	-2.289197e+01
1.801473e+02	-2.294065e+01
1.811878e+02	-2.298956e+01
1.822344e+02	-2.303981e+01
1.832870e+02	-2.308922e+01
1.843456e+02	-2.313878e+01
1.854104e+02	-2.318877e+01
1.864813e+02	-2.323549e+01
1.875584e+02	-2.328952e+01
1.886418e+02	-2.333835e+01
1.897313e+02	-2.338881e+01
1.908272e+02	-2.343727e+01
1.919294e+02	-2.348768e+01
1.930380e+02	-2.353598e+01
1.941530e+02	-2.359003e+01
1.952744e+02	-2.363869e+01
1.964023e+02	-2.368780e+01
1.975367e+02	-2.373645e+01
1.986777e+02	-2.378881e+01
1.998252e+02	-2.383606e+01
2.009794e+02	-2.388774e+01
2.021403e+02	-2.393765e+01
2.033078e+02	-2.398609e+01
2.044821e+02	-2.403870e+01
2.056632e+02	-2.408669e+01
2.068511e+02	-2.413868e+01
2.080459e+02	-2.418701e+01
2.092475e+02	-2.423930e+01
2.104561e+02	-2.428676e+01
2.116717e+02	-2.433565e+01
2.128943e+02	-2.438536e+01
2.141240e+02	-2.443404e+01
2.153608e+02	-2.448477e+01
2.166047e+02	-2.453631e+01
2.178558e+02	-2.458782e+01
2.191141e+02	-2.463615e+01
2.203797e+02	-2.468438e+01
2.216526e+02	-2.473510e+01
2.229329e+02	-2.478934e+01
2.242205e+02	-2.483608e+01
2.255156e+02	-2.488421e+01
2.268182e+02	-2.493456e+01
2.281283e+02	-2.498323e+01
2.294459e+02	-2.503616e+01
2.307712e+02	-2.508125e+01
2.321041e+02	-2.513399e+01
2.334447e+02	-2.518319e+01
2.347931e+02	-2.523477e+01
2.361493e+02	-2.528147e+01
2.375133e+02	-2.533415e+01
2.388851e+02	-2.538531e+01
2.402649e+02	-2.543388e+01
2.416527e+02	-2.548318e+01
2.430484e+02	-2.553307e+01
2.444523e+02	-2.558224e+01
2.458642e+02	-2.563347e+01
2.472843e+02	-2.568549e+01
2.487126e+02	-2.573240e+01
2.501492e+02	-2.578518e+01
2.515940e+02	-2.583329e+01
2.530472e+02	-2.588597e+01
2.545088e+02	-2.593484e+01
2.559789e+02	-2.598319e+01
2.574574e+02	-2.603083e+01
2.589444e+02	-2.608173e+01
2.604401e+02	-2.613536e+01
2.619444e+02	-2.618509e+01
2.634574e+02	-2.623150e+01
2.649791e+02	-2.628441e+01
2.665096e+02	-2.633285e+01
2.680489e+02	-2.637961e+01
2.695972e+02	-2.643016e+01
2.711544e+02	-2.648472e+01
2.727205e+02	-2.653262e+01
2.742958e+02	-2.658353e+01
2.758801e+02	-2.662989e+01
2.774736e+02	-2.668343e+01
2.790762e+02	-2.673298e+01
2.806882e+02	-2.678126e+01
2.823094e+02	-2.683416e+01
2.839400e+02	-2.688264e+01
2.855800e+02	-2.693035e+01
2.872295e+02	-2.698052e+01
2.888886e+02	-2.703302e+01
2.905572e+02	-2.708250e+01
2.922354e+02	-2.713457e+01
2.939234e+02	-2.718234e+01
2.956211e+02	-2.723129e+01
2.973286e+02	-2.728367e+01
2.990459e+02	-2.733033e+01
3.007732e+02	-2.738449e+01
3.025104e+02	-2.743248e+01
3.042577e+02	-2.748735e+01
3.060151e+02	-2.752840e+01
3.077826e+02	-2.758074e+01
3.095604e+02	-2.762928e+01
3.113484e+02	-2.768347e+01
3.131467e+02	-2.773304e+01
3.149554e+02	-2.778385e+01
3.167746e+02	-2.783312e+01
3.186043e+02	-2.787799e+01
3.204445e+02	-2.793376e+01
3.222954e+02	-2.798184e+01
3.241570e+02	-2.802895e+01
3.260293e+02	-2.807967e+01
3.279124e+02	-2.813418e+01
3.298064e+02	-2.818151e+01
3.317114e+02	-2.823093e+01
3.336273e+02	-2.828068e+01
3.355544e+02	-2.833519e+01
3.374925e+02	-2.838194e+01
3.394418e+02	-2.843481e+01
3.414024e+02	-2.848128e+01
3.433744e+02	-2.853191e+01
3.453577e+02	-2.858650e+01
3.473525e+02	-2.863264e+01
3.493588e+02	-2.868080e+01
3.513766e+02	-2.873025e+01
3.534062e+02	-2.878483e+01
3.554474e+02	-2.883515e+01
3.575005e+02	-2.888118e+01
3.595654e+02	-2.893501e+01
3.616422e+02	-2.898517e+01
3.637311e+02	-2.903271e+01
3.658320e+02	-2.908469e+01
3.679450e+02	-2.913089e+01
3.700702e+02	-2.918586e+01
3.722077e+02	-2.923152e+01
3.743576e+02	-2.928321e+01
3.765199e+02	-2.933788e+01
3.786946e+02	-2.938362e+01
3.808820e+02	-2.943432e+01
3.830819e+02	-2.948594e+01
3.852946e+02	-2.953308e+01
3.875200e+02	-2.958894e+01
3.897583e+02	-2.963212e+01
3.920096e+02	-2.967907e+01
3.942738e+02	-2.973553e+01
3.965511e+02	-2.978287e+01
3.988416e+02	-2.983452e+01
4.011452e+02	-2.988832e+01
4.034622e+02	-2.993964e+01
4.057926e+02	-2.998602e+01
4.081365e+02	-3.003415e+01
4.104938e+02	-3.008662e+01
4.128648e+02	-3.013181e+01
4.152495e+02	-3.018544e+01
4.176480e+02	-3.023371e+01
4.200603e+02	-3.028529e+01
4.224866e+02	-3.033334e+01
4.249268e+02	-3.038503e+01
4.273812e+02	-3.043421e+01
4.298497e+02	-3.048899e+01
4.323325e+02	-3.053746e+01
4.348297e+02	-3.058646e+01
4.373412e+02	-3.063526e+01
4.398673e+02	-3.068842e+01
4.424079e+02	-3.073265e+01
4.449633e+02	-3.078370e+01
4.475334e+02	-3.083379e+01
4.501183e+02	-3.088672e+01
4.527182e+02	-3.093828e+01
4.553330e+02	-3.098521e+01
4.579630e+02	-3.103907e+01
4.606082e+02	-3.108583e+01
4.632687e+02	-3.113893e+01
4.659445e+02	-3.119529e+01
4.686358e+02	-3.123729e+01
4.713426e+02	-3.128483e+01
4.740650e+02	-3.133532e+01
4.768032e+02	-3.138458e+01
4.795572e+02	-3.143402e+01
4.823271e+02	-3.148007e+01
4.851130e+02	-3.154100e+01
4.879150e+02	-3.158868e+01
4.907332e+02	-3.163482e+01
4.935676e+02	-3.167951e+01
4.964185e+02	-3.173881e+01
4.992858e+02	-3.179159e+01
5.021696e+02	-3.184027e+01
5.050701e+02	-3.189320e+01
5.079874e+02	-3.193487e+01
5.109215e+02	-3.198745e+01
5.138726e+02	-3.204016e+01
5.168407e+02	-3.208480e+01
5.198259e+02	-3.213586e+01
5.228284e+02	-3.218781e+01
5.258482e+02	-3.224286e+01
5.288855e+02	-3.229347e+01
5.319403e+02	-3.234423e+01
5.350128e+02	-3.238745e+01
5.381030e+02	-3.244831e+01
5.412111e+02	-3.249970e+01
5.443371e+02	-3.254147e+01
5.474812e+02	-3.259674e+01
5.506434e+02	-3.263865e+01
5.538239e+02	-3.269429e+01
5.570228e+02	-3.273811e+01
5.602401e+02	-3.279628e+01
5.634760e+02	-3.284653e+01
5.667306e+02	-3.289413e+01
5.700040e+02	-3.293981e+01
5.732964e+02	-3.299100e+01
5.766077e+02	-3.303794e+01
5.799382e+02	-3.309679e+01
5.832879e+02	-3.314389e+01
5.866569e+02	-3.319335e+01
5.900454e+02	-3.324108e+01
5.934535e+02	-3.329480e+01
5.968813e+02	-3.334534e+01
6.003288e+02	-3.339308e+01
6.037963e+02	-3.344126e+01
6.072838e+02	-3.350443e+01
6.107914e+02	-3.354079e+01
6.143194e+02	-3.359551e+01
6.178676e+02	-3.364986e+01
6.214364e+02	-3.370109e+01
6.250258e+02	-3.375223e+01
6.286359e+02	-3.380698e+01
6.322669e+02	-3.385020e+01
6.359189e+02	-3.390421e+01
6.395919e+02	-3.395054e+01
6.432862e+02	-3.399473e+01
6.470017e+02	-3.404775e+01
6.507388e+02	-3.409542e+01
6.544974e+02	-3.414788e+01
6.582778e+02	-3.421033e+01
6.620800e+02	-3.424989e+01
6.659041e+02	-3.430433e+01
6.697504e+02	-3.435061e+01
6.736188e+02	-3.440512e+01
6.775096e+02	-3.444803e+01
6.814229e+02	-3.449471e+01
6.853587e+02	-3.454115e+01
6.893173e+02	-3.460696e+01
6.932988e+02	-3.466496e+01
6.973033e+02	-3.470573e+01
7.013309e+02	-3.475060e+01
