Frequency(Hz)	Magnitude(dB)
1.000000e+01	-2.197914e+00
1.005776e+01	-2.217854e+00
1.011585e+01	-2.237980e+00
1.017428e+01	-2.258241e+00
1.023305e+01	-2.278548e+00
1.029215e+01	-2.298785e+00
1.035160e+01	-2.319322e+00
1.041139e+01	-2.340356e+00
1.047153e+01	-2.361375e+00
1.053201e+01	-2.382289e+00
1.059284e+01	-2.403544e+00
1.065403e+01	-2.424738e+00
1.071556e+01	-2.446303e+00
1.077746e+01	-2.467949e+00
1.083971e+01	-2.489791e+00
1.090232e+01	-2.511598e+00
1.096529e+01	-2.533579e+00
1.102862e+01	-2.555882e+00
1.109232e+01	-2.577951e+00
1.115639e+01	-2.600607e+00
1.122083e+01	-2.623134e+00
1.128564e+01	-2.646022e+00
1.135083e+01	-2.668790e+00
1.141639e+01	-2.691774e+00
1.148233e+01	-2.715104e+00
1.154865e+01	-2.738397e+00
1.161536e+01	-2.761921e+00
1.168245e+01	-2.785460e+00
1.174992e+01	-2.809131e+00
1.181779e+01	-2.833073e+00
1.188605e+01	-2.857239e+00
1.195470e+01	-2.881405e+00
1.202375e+01	-2.905699e+00
1.209320e+01	-2.930191e+00
1.216305e+01	-2.954655e+00
1.223330e+01	-2.979514e+00
1.230396e+01	-3.004363e+00
1.237503e+01	-3.029460e+00
1.244651e+01	-3.054688e+00
1.251840e+01	-3.079890e+00
1.259070e+01	-3.105386e+00
1.266343e+01	-3.131267e+00
1.273657e+01	-3.156948e+00
1.281014e+01	-3.182746e+00
1.288413e+01	-3.208858e+00
1.295855e+01	-3.235287e+00
1.303339e+01	-3.261579e+00
1.310867e+01	-3.287811e+00
1.318439e+01	-3.314811e+00
1.326054e+01	-3.341490e+00
1.333713e+01	-3.368369e+00
1.341417e+01	-3.395208e+00
1.349165e+01	-3.422401e+00
1.356958e+01	-3.449851e+00
1.364795e+01	-3.477340e+00
1.372678e+01	-3.505056e+00
1.380607e+01	-3.532766e+00
1.388581e+01	-3.560789e+00
1.396602e+01	-3.588932e+00
1.404668e+01	-3.617119e+00
1.412782e+01	-3.645404e+00
1.420942e+01	-3.673881e+00
1.429149e+01	-3.702726e+00
1.437404e+01	-3.731373e+00
1.445706e+01	-3.760335e+00
1.454057e+01	-3.789025e+00
1.462455e+01	-3.818244e+00
1.470902e+01	-3.847796e+00
1.479398e+01	-3.877174e+00
1.487943e+01	-3.906840e+00
1.496537e+01	-3.936406e+00
1.505181e+01	-3.966192e+00
1.513875e+01	-3.996290e+00
1.522619e+01	-4.026834e+00
1.531414e+01	-4.056583e+00
1.540259e+01	-4.087369e+00
1.549156e+01	-4.117992e+00
1.558103e+01	-4.148658e+00
1.567103e+01	-4.179626e+00
1.576155e+01	-4.210414e+00
1.585258e+01	-4.241501e+00
1.594415e+01	-4.272633e+00
1.603624e+01	-4.304426e+00
1.612886e+01	-4.335583e+00
1.622202e+01	-4.367402e+00
1.631572e+01	-4.399203e+00
1.640996e+01	-4.431165e+00
1.650474e+01	-4.463178e+00
1.660008e+01	-4.495154e+00
1.669596e+01	-4.527596e+00
1.679239e+01	-4.559973e+00
1.688938e+01	-4.592617e+00
1.698694e+01	-4.625380e+00
1.708505e+01	-4.658355e+00
1.718373e+01	-4.691272e+00
1.728299e+01	-4.724315e+00
1.738281e+01	-4.757904e+00
1.748322e+01	-4.790895e+00
1.758420e+01	-4.824219e+00
1.768576e+01	-4.858086e+00
1.778792e+01	-4.891859e+00
1.789066e+01	-4.925574e+00
1.799399e+01	-4.959138e+00
1.809793e+01	-4.994147e+00
1.820246e+01	-5.028207e+00
1.830760e+01	-5.062523e+00
1.841334e+01	-5.096773e+00
1.851969e+01	-5.131617e+00
1.862666e+01	-5.166364e+00
1.873425e+01	-5.201145e+00
1.884246e+01	-5.236037e+00
1.895129e+01	-5.271125e+00
1.906075e+01	-5.306548e+00
1.917085e+01	-5.341793e+00
1.928158e+01	-5.376796e+00
1.939295e+01	-5.412559e+00
1.950496e+01	-5.448548e+00
1.961762e+01	-5.484313e+00
1.973093e+01	-5.520036e+00
1.984490e+01	-5.556465e+00
1.995952e+01	-5.592666e+00
2.007480e+01	-5.628636e+00
2.019076e+01	-5.665265e+00
2.030738e+01	-5.701734e+00
2.042467e+01	-5.738369e+00
2.054264e+01	-5.774816e+00
2.066130e+01	-5.811860e+00
2.078064e+01	-5.848919e+00
2.090066e+01	-5.885882e+00
2.102139e+01	-5.923085e+00
2.114280e+01	-5.960435e+00
2.126492e+01	-5.997638e+00
2.138775e+01	-6.034925e+00
2.151128e+01	-6.072991e+00
2.163553e+01	-6.110413e+00
2.176050e+01	-6.148586e+00
2.188619e+01	-6.186637e+00
2.201260e+01	-6.224359e+00
2.213974e+01	-6.262637e+00
2.226762e+01	-6.300735e+00
2.239624e+01	-6.339335e+00
2.252560e+01	-6.377507e+00
2.265571e+01	-6.415979e+00
2.278656e+01	-6.454687e+00
2.291818e+01	-6.494150e+00
2.305055e+01	-6.532494e+00
2.318369e+01	-6.571439e+00
2.331760e+01	-6.610533e+00
2.345228e+01	-6.649392e+00
2.358774e+01	-6.688903e+00
2.372398e+01	-6.728097e+00
2.386101e+01	-6.768013e+00
2.399883e+01	-6.807188e+00
2.413745e+01	-6.847154e+00
2.427686e+01	-6.886124e+00
2.441709e+01	-6.926410e+00
2.455812e+01	-6.966388e+00
2.469997e+01	-7.006566e+00
2.484263e+01	-7.046619e+00
2.498612e+01	-7.086540e+00
2.513044e+01	-7.126933e+00
2.527559e+01	-7.167459e+00
2.542158e+01	-7.208075e+00
2.556842e+01	-7.248291e+00
2.571610e+01	-7.289274e+00
2.586463e+01	-7.329680e+00
2.601403e+01	-7.370640e+00
2.616428e+01	-7.411765e+00
2.631541e+01	-7.452630e+00
2.646740e+01	-7.493651e+00
2.662028e+01	-7.534887e+00
2.677404e+01	-7.575744e+00
2.692868e+01	-7.617318e+00
2.708422e+01	-7.658767e+00
2.724066e+01	-7.700192e+00
2.739800e+01	-7.741811e+00
2.755625e+01	-7.783112e+00
2.771541e+01	-7.825123e+00
2.787550e+01	-7.867010e+00
2.803650e+01	-7.908755e+00
2.819844e+01	-7.950756e+00
2.836131e+01	-7.992720e+00
2.852513e+01	-8.035009e+00
2.868989e+01	-8.077301e+00
2.885560e+01	-8.119804e+00
2.902227e+01	-8.161431e+00
2.918990e+01	-8.204210e+00
2.935850e+01	-8.246602e+00
2.952807e+01	-8.289406e+00
2.969863e+01	-8.331690e+00
2.987016e+01	-8.374465e+00
3.004269e+01	-8.417339e+00
3.021622e+01	-8.459716e+00
3.039075e+01	-8.503074e+00
3.056628e+01	-8.546219e+00
3.074283e+01	-8.589546e+00
3.092040e+01	-8.631993e+00
3.109900e+01	-8.675488e+00
3.127862e+01	-8.719237e+00
3.145929e+01	-8.761818e+00
3.164099e+01	-8.805778e+00
3.182375e+01	-8.849581e+00
3.200756e+01	-8.892749e+00
3.219244e+01	-8.936013e+00
3.237838e+01	-8.979878e+00
3.256540e+01	-9.023698e+00
3.275349e+01	-9.067140e+00
3.294268e+01	-9.111429e+00
3.313295e+01	-9.154706e+00
3.332433e+01	-9.199217e+00
3.351681e+01	-9.243303e+00
3.371040e+01	-9.287414e+00
3.390511e+01	-9.331562e+00
3.410094e+01	-9.375317e+00
3.429791e+01	-9.419960e+00
3.449601e+01	-9.464414e+00
3.469526e+01	-9.508543e+00
3.489566e+01	-9.553184e+00
3.509721e+01	-9.597181e+00
3.529993e+01	-9.642490e+00
3.550382e+01	-9.687112e+00
3.570889e+01	-9.731436e+00
3.591515e+01	-9.776344e+00
3.612259e+01	-9.820634e+00
3.633123e+01	-9.865809e+00
3.654108e+01	-9.910547e+00
3.675214e+01	-9.955896e+00
3.696442e+01	-1.000077e+01
3.717792e+01	-1.004613e+01
3.739266e+01	-1.009086e+01
3.760864e+01	-1.013514e+01
3.782587e+01	-1.018132e+01
3.804435e+01	-1.022685e+01
3.826409e+01	-1.027200e+01
3.848510e+01	-1.031678e+01
3.870739e+01	-1.036226e+01
3.893096e+01	-1.040815e+01
3.915583e+01	-1.045325e+01
3.938199e+01	-1.049853e+01
3.960946e+01	-1.054439e+01
3.983824e+01	-1.059046e+01
4.006834e+01	-1.063586e+01
4.029978e+01	-1.068142e+01
4.053255e+01	-1.072732e+01
4.076666e+01	-1.077302e+01
4.100213e+01	-1.081913e+01
4.123896e+01	-1.086472e+01
4.147715e+01	-1.091029e+01
4.171672e+01	-1.095692e+01
4.195767e+01	-1.100362e+01
4.220002e+01	-1.104904e+01
4.244377e+01	-1.109473e+01
4.268892e+01	-1.114098e+01
4.293549e+01	-1.118713e+01
4.318348e+01	-1.123433e+01
4.343291e+01	-1.128000e+01
4.368377e+01	-1.132601e+01
4.393609e+01	-1.137254e+01
4.418986e+01	-1.141910e+01
4.444510e+01	-1.146603e+01
4.470182e+01	-1.151170e+01
4.496001e+01	-1.155816e+01
4.521970e+01	-1.160493e+01
4.548089e+01	-1.165200e+01
4.574358e+01	-1.169892e+01
4.600779e+01	-1.174477e+01
4.627353e+01	-1.179164e+01
4.654081e+01	-1.183904e+01
4.680963e+01	-1.188550e+01
4.708000e+01	-1.193236e+01
4.735193e+01	-1.197891e+01
4.762543e+01	-1.202535e+01
4.790051e+01	-1.207193e+01
4.817719e+01	-1.211966e+01
4.845545e+01	-1.216634e+01
4.873533e+01	-1.221322e+01
4.901682e+01	-1.226015e+01
4.929994e+01	-1.230756e+01
4.958470e+01	-1.235450e+01
4.987110e+01	-1.240179e+01
5.015915e+01	-1.244905e+01
5.044887e+01	-1.249622e+01
5.074026e+01	-1.254326e+01
5.103333e+01	-1.259099e+01
5.132810e+01	-1.263815e+01
5.162457e+01	-1.268528e+01
5.192275e+01	-1.273238e+01
5.222265e+01	-1.278028e+01
5.252429e+01	-1.282723e+01
5.282767e+01	-1.287456e+01
5.313280e+01	-1.292232e+01
5.343969e+01	-1.296961e+01
5.374836e+01	-1.301802e+01
5.405880e+01	-1.306459e+01
5.437105e+01	-1.311239e+01
5.468509e+01	-1.315995e+01
5.500095e+01	-1.320844e+01
5.531863e+01	-1.325598e+01
5.563815e+01	-1.330313e+01
5.595951e+01	-1.335077e+01
5.628273e+01	-1.339762e+01
5.660782e+01	-1.344580e+01
5.693479e+01	-1.349401e+01
5.726364e+01	-1.354105e+01
5.759439e+01	-1.358953e+01
5.792705e+01	-1.363822e+01
5.826164e+01	-1.368566e+01
5.859815e+01	-1.373354e+01
5.893662e+01	-1.378057e+01
5.927703e+01	-1.382928e+01
5.961941e+01	-1.387679e+01
5.996377e+01	-1.392455e+01
6.031012e+01	-1.397251e+01
6.065847e+01	-1.402122e+01
6.100883e+01	-1.406879e+01
6.136121e+01	-1.411747e+01
6.171563e+01	-1.416564e+01
6.207210e+01	-1.421370e+01
6.243063e+01	-1.426150e+01
6.279122e+01	-1.430939e+01
6.315390e+01	-1.435738e+01
6.351868e+01	-1.440619e+01
6.388556e+01	-1.445440e+01
6.425456e+01	-1.450286e+01
6.462569e+01	-1.455177e+01
6.499897e+01	-1.459874e+01
6.537440e+01	-1.464730e+01
6.575200e+01	-1.469605e+01
6.613178e+01	-1.474506e+01
6.651375e+01	-1.479288e+01
6.689793e+01	-1.484137e+01
6.728433e+01	-1.488976e+01
6.767297e+01	-1.493799e+01
6.806384e+01	-1.498653e+01
6.845698e+01	-1.503507e+01
6.885238e+01	-1.508336e+01
6.925007e+01	-1.513181e+01
6.965005e+01	-1.518069e+01
7.005235e+01	-1.522849e+01
7.045697e+01	-1.527646e+01
7.086393e+01	-1.532550e+01
7.127323e+01	-1.537331e+01
7.168490e+01	-1.542247e+01
7.209895e+01	-1.547055e+01
7.251539e+01	-1.552045e+01
7.293424e+01	-1.556855e+01
7.335551e+01	-1.561688e+01
7.377920e+01	-1.566526e+01
7.420535e+01	-1.571552e+01
7.463396e+01	-1.576302e+01
7.506504e+01	-1.581181e+01
7.549861e+01	-1.586073e+01
7.593469e+01	-1.590920e+01
7.637328e+01	-1.595764e+01
7.681441e+01	-1.600652e+01
7.725809e+01	-1.605643e+01
7.770433e+01	-1.610522e+01
7.815315e+01	-1.615378e+01
7.860456e+01	-1.620169e+01
7.905857e+01	-1.625118e+01
7.951521e+01	-1.629919e+01
7.997449e+01	-1.634848e+01
8.043642e+01	-1.639712e+01
8.090102e+01	-1.644689e+01
8.136830e+01	-1.649525e+01
8.183828e+01	-1.654479e+01
8.231097e+01	-1.659337e+01
8.278640e+01	-1.664233e+01
8.326457e+01	-1.669068e+01
8.374550e+01	-1.674105e+01
8.422921e+01	-1.678830e+01
8.471572e+01	-1.683743e+01
8.520503e+01	-1.688765e+01
8.569717e+01	-1.693583e+01
8.619215e+01	-1.698584e+01
8.669000e+01	-1.703501e+01
8.719071e+01	-1.708317e+01
8.769432e+01	-1.713243e+01
8.820084e+01	-1.718116e+01
8.871029e+01	-1.723086e+01
8.922267e+01	-1.728032e+01
8.973802e+01	-1.732888e+01
9.025634e+01	-1.737802e+01
9.077766e+01	-1.742623e+01
9.130199e+01	-1.747703e+01
9.182935e+01	-1.752499e+01
9.235975e+01	-1.757372e+01
9.289321e+01	-1.762371e+01
9.342976e+01	-1.767199e+01
9.396941e+01	-1.772213e+01
9.451217e+01	-1.777088e+01
9.505807e+01	-1.782086e+01
9.560712e+01	-1.786892e+01
9.615934e+01	-1.791867e+01
9.671476e+01	-1.796749e+01
9.727338e+01	-1.801686e+01
9.783522e+01	-1.806692e+01
9.840032e+01	-1.811465e+01
9.896867e+01	-1.816545e+01
9.954031e+01	-1.821359e+01
1.001153e+02	-1.826354e+01
1.006935e+02	-1.831347e+01
1.012751e+02	-1.836243e+01
1.018601e+02	-1.841120e+01
1.024484e+02	-1.846046e+01
1.030402e+02	-1.850908e+01
1.036353e+02	-1.855964e+01
1.042339e+02	-1.860885e+01
1.048360e+02	-1.865774e+01
1.054415e+02	-1.870673e+01
1.060505e+02	-1.875700e+01
1.066631e+02	-1.880744e+01
1.072791e+02	-1.885598e+01
1.078988e+02	-1.890447e+01
1.085220e+02	-1.895373e+01
1.091488e+02	-1.900329e+01
1.097793e+02	-1.905368e+01
1.104133e+02	-1.910223e+01
1.110511e+02	-1.915112e+01
1.116925e+02	-1.920229e+01
1.123376e+02	-1.924984e+01
1.129865e+02	-1.930005e+01
1.136391e+02	-1.934963e+01
1.142955e+02	-1.940009e+01
1.149556e+02	-1.944754e+01
1.156196e+02	-1.949765e+01
1.162874e+02	-1.954752e+01
1.169591e+02	-1.959693e+01
1.176347e+02	-1.964787e+01
1.183141e+02	-1.969623e+01
1.189975e+02	-1.974496e+01
1.196848e+02	-1.979390e+01
1.203761e+02	-1.984421e+01
1.210714e+02	-1.989404e+01
1.217707e+02	-1.994309e+01
1.224740e+02	-1.999219e+01
1.231814e+02	-2.004242e+01
1.238929e+02	-2.009175e+01
1.246085e+02	-2.014211e+01
1.253283e+02	-2.019360e+01
1.260522e+02	-2.024096e+01
1.267802e+02	-2.028988e+01
1.275125e+02	-2.034013e+01
1.282490e+02	-2.039025e+01
1.289898e+02	-2.043918e+01
1.297348e+02	-2.048737e+01
1.304842e+02	-2.053815e+01
1.312378e+02	-2.058474e+01
1.319959e+02	-2.063770e+01
1.327583e+02	-2.068804e+01
1.335251e+02	-2.073821e+01
1.342963e+02	-2.078695e+01
1.350720e+02	-2.083604e+01
1.358522e+02	-2.088595e+01
1.366368e+02	-2.093298e+01
1.374260e+02	-2.098464e+01
1.382198e+02	-2.103501e+01
1.390182e+02	-2.108460e+01
1.398211e+02	-2.113172e+01
1.406287e+02	-2.118262e+01
1.414410e+02	-2.123457e+01
1.422579e+02	-2.128205e+01
1.430796e+02	-2.133145e+01
1.439060e+02	-2.138147e+01
1.447372e+02	-2.143120e+01
1.455732e+02	-2.148025e+01
1.464141e+02	-2.153249e+01
1.472597e+02	-2.158061e+01
1.481103e+02	-2.162947e+01
1.489658e+02	-2.168014e+01
1.498262e+02	-2.172969e+01
1.506916e+02	-2.178059e+01
1.515620e+02	-2.183029e+01
1.524374e+02	-2.187927e+01
1.533179e+02	-2.192869e+01
1.542034e+02	-2.197913e+01
1.550941e+02	-2.202754e+01
1.559899e+02	-2.207688e+01
1.568909e+02	-2.212725e+01
1.577971e+02	-2.217745e+01
1.587085e+02	-2.222839e+01
1.596252e+02	-2.227850e+01
1.605472e+02	-2.232769e+01
1.614745e+02	-2.237708e+01
1.624072e+02	-2.242656e+01
1.633453e+02	-2.247598e+01
1.642887e+02	-2.252370e+01
1.652377e+02	-2.257466e+01
1.661921e+02	-2.262636e+01
1.671520e+02	-2.267729e+01
1.681175e+02	-2.272508e+01
1.690885e+02	-2.277318e+01
1.700651e+02	-2.282341e+01
1.710474e+02	-2.287282e+01
1.720354e+02	-2.292623e+01
1.730291e+02	-2.297297e+01
1.740285e+02	-2.302471e+01
1.750337e+02	-2.307128e+01
1.760446e+02	-2.312225e+01
1.770615e+02	-2.317095e+01
1.780842e+02	-2.322214e+01
1.791128e+02	-2.327255e+01
1.801473e+02	-2.332290e+01
1.811878e+02	-2.337093e+01
1.822344e+02	-2.342243e+01
1.832870e+02	-2.347017e+01
1.843456e+02	-2.351869e+01
1.854104e+02	-2.357085e+01
1.864813e+02	-2.362020e+01
1.875584e+02	-2.367025e+01
1.886418e+02	-2.371846e+01
1.897313e+02	-2.377160e+01
1.908272e+02	-2.381886e+01
1.919294e+02	-2.387093e+01
1.930380e+02	-2.391933e+01
1.941530e+02	-2.397137e+01
1.952744e+02	-2.402089e+01
1.964023e+02	-2.406849e+01
1.975367e+02	-2.411811e+01
1.986777e+02	-2.416933e+01
1.998252e+02	-2.422017e+01
2.009794e+02	-2.426754e+01
2.021403e+02	-2.432160e+01
2.033078e+02	-2.437006e+01
2.044821e+02	-2.441920e+01
2.056632e+02	-2.446794e+01
2.068511e+02	-2.451966e+01
2.080459e+02	-2.456771e+01
2.092475e+02	-2.461968e+01
2.104561e+02	-2.466803e+01
2.116717e+02	-2.471913e+01
2.128943e+02	-2.476753e+01
2.141240e+02	-2.481786e+01
2.153608e+02	-2.486982e+01
2.166047e+02	-2.491886e+01
2.178558e+02	-2.497009e+01
2.191141e+02	-2.501894e+01
2.203797e+02	-2.506907e+01
2.216526e+02	-2.511958e+01
2.229329e+02	-2.516720e+01
2.242205e+02	-2.521883e+01
2.255156e+02	-2.526585e+01
2.268182e+02	-2.531826e+01
2.281283e+02	-2.536793e+01
2.294459e+02	-2.541751e+01
2.307712e+02	-2.546641e+01
2.321041e+02	-2.551753e+01
2.334447e+02	-2.556661e+01
2.347931e+02	-2.561587e+01
2.361493e+02	-2.566883e+01
2.375133e+02	-2.571489e+01
2.388851e+02	-2.576530e+01
2.402649e+02	-2.581457e+01
2.416527e+02	-2.586822e+01
2.430484e+02	-2.591715e+01
2.444523e+02	-2.596695e+01
2.458642e+02	-2.601476e+01
2.472843e+02	-2.606508e+01
2.487126e+02	-2.611464e+01
2.501492e+02	-2.616945e+01
2.515940e+02	-2.621673e+01
2.530472e+02	-2.626374e+01
2.545088e+02	-2.631537e+01
2.559789e+02	-2.636395e+01
2.574574e+02	-2.641473e+01
2.589444e+02	-2.646461e+01
2.604401e+02	-2.651796e+01
2.619444e+02	-2.656711e+01
2.634574e+02	-2.661608e+01
2.649791e+02	-2.666567e+01
2.665096e+02	-2.671378e+01
2.680489e+02	-2.676715e+01
2.695972e+02	-2.681447e+01
2.711544e+02	-2.686538e+01
2.727205e+02	-2.691532e+01
2.742958e+02	-2.696312e+01
2.758801e+02	-2.701405e+01
2.774736e+02	-2.706733e+01
2.790762e+02	-2.711405e+01
2.806882e+02	-2.716676e+01
2.823094e+02	-2.721720e+01
2.839400e+02	-2.726248e+01
2.855800e+02	-2.731556e+01
2.872295e+02	-2.736788e+01
2.888886e+02	-2.741269e+01
2.905572e+02	-2.746386e+01
2.922354e+02	-2.751577e+01
2.939234e+02	-2.756796e+01
2.956211e+02	-2.761816e+01
2.973286e+02	-2.766629e+01
2.990459e+02	-2.771565e+01
3.007732e+02	-2.776552e+01
3.025104e+02	-2.781465e+01
3.042577e+02	-2.786382e+01
3.060151e+02	-2.791563e+01
3.077826e+02	-2.796404e+01
3.095604e+02	-2.801732e+01
3.113484e+02	-2.806693e+01
3.131467e+02	-2.811909e+01
3.149554e+02	-2.816956e+01
3.167746e+02	-2.821529e+01
3.186043e+02	-2.826813e+01
3.204445e+02	-2.831469e+01
3.222954e+02	-2.836475e+01
3.241570e+02	-2.841634e+01
3.260293e+02	-2.846530e+01
3.279124e+02	-2.851858e+01
3.298064e+02	-2.856500e+01
3.317114e+02	-2.861899e+01
3.336273e+02	-2.866771e+01
3.355544e+02	-2.871446e+01
3.374925e+02	-2.876501e+01
3.394418e+02	-2.881616e+01
3.414024e+02	-2.886394e+01
3.433744e+02	-2.891665e+01
3.453577e+02	-2.896834e+01
3.473525e+02	-2.901647e+01
3.493588e+02	-2.906799e+01
3.513766e+02	-2.911349e+01
3.534062e+02	-2.917018e+01
3.554474e+02	-2.921340e+01
3.575005e+02	-2.926266e+01
3.595654e+02	-2.931140e+01
3.616422e+02	-2.936853e+01
3.637311e+02	-2.941390e+01
3.658320e+02	-2.946500e+01
3.679450e+02	-2.951771e+01
3.700702e+02	-2.956995e+01
3.722077e+02	-2.961619e+01
3.743576e+02	-2.966865e+01
3.765199e+02	-2.971307e+01
3.786946e+02	-2.976709e+01
3.808820e+02	-2.981208e+01
3.830819e+02	-2.987006e+01
3.852946e+02	-2.991991e+01
3.875200e+02	-2.996580e+01
3.897583e+02	-3.001986e+01
3.920096e+02	-3.006548e+01
3.942738e+02	-3.012291e+01
3.965511e+02	-3.017093e+01
3.988416e+02	-3.021686e+01
4.011452e+02	-3.026935e+01
4.034622e+02	-3.031913e+01
4.057926e+02	-3.036768e+01
4.081365e+02	-3.041907e+01
4.104938e+02	-3.046182e+01
4.128648e+02	-3.051760e+01
4.152495e+02	-3.057059e+01
4.176480e+02	-3.062172e+01
4.200603e+02	-3.067057e+01
4.224866e+02	-3.071750e+01
4.249268e+02	-3.077345e+01
4.273812e+02	-3.081830e+01
4.298497e+02	-3.087119e+01
4.323325e+02	-3.091399e+01
4.348297e+02	-3.097343e+01
4.373412e+02	-3.101872e+01
4.398673e+02	-3.107152e+01
4.424079e+02	-3.112172e+01
4.449633e+02	-3.116763e+01
4.475334e+02	-3.121523e+01
4.501183e+02	-3.127009e+01
4.527182e+02	-3.131795e+01
4.553330e+02	-3.136841e+01
4.579630e+02	-3.142179e+01
4.606082e+02	-3.147536e+01
4.632687e+02	-3.151849e+01
4.659445e+02	-3.156701e+01
4.686358e+02	-3.162206e+01
4.713426e+02	-3.167117e+01
4.740650e+02	-3.172402e+01
4.768032e+02	-3.176957e+01
4.795572e+02	-3.181670e+01
4.823271e+02	-3.187485e+01
4.851130e+02	-3.191629e+01
4.879150e+02	-3.196796e+01
4.907332e+02	-3.202289e+01
4.935676e+02	-3.207741e+01
4.964185e+02	-3.212500e+01
4.992858e+02	-3.217719e+01
5.021696e+02	-3.222755e+01
5.050701e+02	-3.227223e+01
5.079874e+02	-3.232123e+01
5.109215e+02	-3.237467e+01
5.138726e+02	-3.242676e+01
5.168407e+02	-3.247417e+01
5.198259e+02	-3.252730e+01
5.228284e+02	-3.257379e+01
5.258482e+02	-3.262991e+01
5.288855e+02	-3.267807e+01
5.319403e+02	-3.272367e+01
5.350128e+02	-3.277065e+01
5.381030e+02	-3.283172e+01
5.412111e+02	-3.287116e+01
5.443371e+02	-3.293102e+01
5.474812e+02	-3.297743e+01
5.506434e+02	-3.303131e+01
5.538239e+02	-3.307447e+01
5.570228e+02	-3.312346e+01
5.602401e+02	-3.317830e+01
5.634760e+02	-3.322437e+01
5.667306e+02	-3.327690e+01
5.700040e+02	-3.333131e+01
5.732964e+02	-3.338221e+01
5.766077e+02	-3.344017e+01
5.799382e+02	-3.347967e+01
5.832879e+02	-3.353920e+01
5.866569e+02	-3.358589e+01
5.900454e+02	-3.363191e+01
5.934535e+02	-3.367943e+01
5.968813e+02	-3.372777e+01
6.003288e+02	-3.378292e+01
6.037963e+02	-3.383438e+01
6.072838e+02	-3.387274e+01
6.107914e+02	-3.393703e+01
6.143194e+02	-3.398205e+01
6.178676e+02	-3.403602e+01
6.214364e+02	-3.407349e+01
6.250258e+02	-3.413429e+01
6.286359e+02	-3.418796e+01
6.322669e+02	-3.423997e+01
6.359189e+02	-3.428640e+01
6.395919e+02	-3.433631e+01
6.432862e+02	-3.438321e+01
6.470017e+02	-3.443011e+01
6.507388e+02	-3.448353e+01
6.544974e+02	-3.454191e+01
6.582778e+02	-3.458767e+01
6.620800e+02	-3.463797e+01
6.659041e+02	-3.469779e+01
6.697504e+02	-3.473594e+01
6.736188e+02	-3.478652e+01
6.775096e+02	-3.484156e+01
6.814229e+02	-3.488257e+01
6.853587e+02	-3.493105e+01
6.893173e+02	-3.498285e+01
6.932988e+02	-3.504118e+01
6.973033e+02	-3.509090e+01
7.013309e+02	-3.513648e+01
