Frequency(Hz)	Magnitude(dB)
1.000000e+01	-2.077001e+00
1.005776e+01	-2.096229e+00
1.011585e+01	-2.115508e+00
1.017428e+01	-2.134753e+00
1.023305e+01	-2.154191e+00
1.029215e+01	-2.173944e+00
1.035160e+01	-2.193714e+00
1.041139e+01	-2.213720e+00
1.047153e+01	-2.233591e+00
1.053201e+01	-2.253728e+00
1.059284e+01	-2.274206e+00
1.065403e+01	-2.294615e+00
1.071556e+01	-2.315163e+00
1.077746e+01	-2.335857e+00
1.083971e+01	-2.356719e+00
1.090232e+01	-2.377644e+00
1.096529e+01	-2.398929e+00
1.102862e+01	-2.420320e+00
1.109232e+01	-2.441728e+00
1.115639e+01	-2.463260e+00
1.122083e+01	-2.484915e+00
1.128564e+01	-2.506824e+00
1.135083e+01	-2.528643e+00
1.141639e+01	-2.550994e+00
1.148233e+01	-2.573298e+00
1.154865e+01	-2.595872e+00
1.161536e+01	-2.618401e+00
1.168245e+01	-2.641095e+00
1.174992e+01	-2.663854e+00
1.181779e+01	-2.686897e+00
1.188605e+01	-2.709993e+00
1.195470e+01	-2.733238e+00
1.202375e+01	-2.756990e+00
1.209320e+01	-2.780251e+00
1.216305e+01	-2.803945e+00
1.223330e+01	-2.827848e+00
1.230396e+01	-2.851989e+00
1.237503e+01	-2.876236e+00
1.244651e+01	-2.900387e+00
1.251840e+01	-2.924942e+00
1.259070e+01	-2.949556e+00
1.266343e+01	-2.974148e+00
1.273657e+01	-2.999046e+00
1.281014e+01	-3.024083e+00
1.288413e+01	-3.049424e+00
1.295855e+01	-3.074923e+00
1.303339e+01	-3.100089e+00
1.310867e+01	-3.125378e+00
1.318439e+01	-3.151256e+00
1.326054e+01	-3.177319e+00
1.333713e+01	-3.203360e+00
1.341417e+01	-3.229296e+00
1.349165e+01	-3.255780e+00
1.356958e+01	-3.282313e+00
1.364795e+01	-3.308833e+00
1.372678e+01	-3.335382e+00
1.380607e+01	-3.362565e+00
1.388581e+01	-3.389564e+00
1.396602e+01	-3.416818e+00
1.404668e+01	-3.443790e+00
1.412782e+01	-3.471346e+00
1.420942e+01	-3.499250e+00
1.429149e+01	-3.526932e+00
1.437404e+01	-3.554778e+00
1.445706e+01	-3.582719e+00
1.454057e+01	-3.610892e+00
1.462455e+01	-3.639353e+00
1.470902e+01	-3.667499e+00
1.479398e+01	-3.696384e+00
1.487943e+01	-3.724946e+00
1.496537e+01	-3.753721e+00
1.505181e+01	-3.782680e+00
1.513875e+01	-3.811880e+00
1.522619e+01	-3.841254e+00
1.531414e+01	-3.870933e+00
1.540259e+01	-3.900076e+00
1.549156e+01	-3.930217e+00
1.558103e+01	-3.959924e+00
1.567103e+01	-3.989755e+00
1.576155e+01	-4.020237e+00
1.585258e+01	-4.050116e+00
1.594415e+01	-4.080812e+00
1.603624e+01	-4.111093e+00
1.612886e+01	-4.141701e+00
1.622202e+01	-4.172524e+00
1.631572e+01	-4.203584e+00
1.640996e+01	-4.234741e+00
1.650474e+01	-4.266120e+00
1.660008e+01	-4.297606e+00
1.669596e+01	-4.329039e+00
1.679239e+01	-4.360320e+00
1.688938e+01	-4.392145e+00
1.698694e+01	-4.424027e+00
1.708505e+01	-4.456550e+00
1.718373e+01	-4.488549e+00
1.728299e+01	-4.520695e+00
1.738281e+01	-4.553140e+00
1.748322e+01	-4.585592e+00
1.758420e+01	-4.618346e+00
1.768576e+01	-4.651240e+00
1.778792e+01	-4.684155e+00
1.789066e+01	-4.717129e+00
1.799399e+01	-4.750384e+00
1.809793e+01	-4.783455e+00
1.820246e+01	-4.817056e+00
1.830760e+01	-4.850577e+00
1.841334e+01	-4.884545e+00
1.851969e+01	-4.918298e+00
1.862666e+01	-4.952494e+00
1.873425e+01	-4.986583e+00
1.884246e+01	-5.020684e+00
1.895129e+01	-5.054941e+00
1.906075e+01	-5.089235e+00
1.917085e+01	-5.124161e+00
1.928158e+01	-5.158852e+00
1.939295e+01	-5.193517e+00
1.950496e+01	-5.228796e+00
1.961762e+01	-5.263605e+00
1.973093e+01	-5.298947e+00
1.984490e+01	-5.334171e+00
1.995952e+01	-5.369697e+00
2.007480e+01	-5.405013e+00
2.019076e+01	-5.440918e+00
2.030738e+01	-5.476554e+00
2.042467e+01	-5.512458e+00
2.054264e+01	-5.548194e+00
2.066130e+01	-5.584666e+00
2.078064e+01	-5.620902e+00
2.090066e+01	-5.657399e+00
2.102139e+01	-5.693752e+00
2.114280e+01	-5.730370e+00
2.126492e+01	-5.767116e+00
2.138775e+01	-5.803642e+00
2.151128e+01	-5.840825e+00
2.163553e+01	-5.877744e+00
2.176050e+01	-5.914861e+00
2.188619e+01	-5.952671e+00
2.201260e+01	-5.989541e+00
2.213974e+01	-6.027182e+00
2.226762e+01	-6.064517e+00
2.239624e+01	-6.102333e+00
2.252560e+01	-6.139966e+00
2.265571e+01	-6.177882e+00
2.278656e+01	-6.216451e+00
2.291818e+01	-6.254522e+00
2.305055e+01	-6.292428e+00
2.318369e+01	-6.330975e+00
2.331760e+01	-6.369204e+00
2.345228e+01	-6.407738e+00
2.358774e+01	-6.446524e+00
2.372398e+01	-6.485590e+00
2.386101e+01	-6.523983e+00
2.399883e+01	-6.563011e+00
2.413745e+01	-6.602037e+00
2.427686e+01	-6.641188e+00
2.441709e+01	-6.680386e+00
2.455812e+01	-6.719708e+00
2.469997e+01	-6.758990e+00
2.484263e+01	-6.798450e+00
2.498612e+01	-6.838360e+00
2.513044e+01	-6.878373e+00
2.527559e+01	-6.917867e+00
2.542158e+01	-6.958252e+00
2.556842e+01	-6.998128e+00
2.571610e+01	-7.037839e+00
2.586463e+01	-7.078081e+00
2.601403e+01	-7.118196e+00
2.616428e+01	-7.158734e+00
2.631541e+01	-7.199156e+00
2.646740e+01	-7.239467e+00
2.662028e+01	-7.280428e+00
2.677404e+01	-7.321186e+00
2.692868e+01	-7.361760e+00
2.708422e+01	-7.402306e+00
2.724066e+01	-7.443565e+00
2.739800e+01	-7.485095e+00
2.755625e+01	-7.525822e+00
2.771541e+01	-7.567158e+00
2.787550e+01	-7.607869e+00
2.803650e+01	-7.649580e+00
2.819844e+01	-7.691223e+00
2.836131e+01	-7.732955e+00
2.852513e+01	-7.774221e+00
2.868989e+01	-7.815946e+00
2.885560e+01	-7.857771e+00
2.902227e+01	-7.899666e+00
2.918990e+01	-7.941415e+00
2.935850e+01	-7.983853e+00
2.952807e+01	-8.026052e+00
2.969863e+01	-8.067946e+00
2.987016e+01	-8.110348e+00
3.004269e+01	-8.152368e+00
3.021622e+01	-8.194958e+00
3.039075e+01	-8.237387e+00
3.056628e+01	-8.280149e+00
3.074283e+01	-8.322525e+00
3.092040e+01	-8.365392e+00
3.109900e+01	-8.407973e+00
3.127862e+01	-8.451164e+00
3.145929e+01	-8.493611e+00
3.164099e+01	-8.536815e+00
3.182375e+01	-8.579939e+00
3.200756e+01	-8.623615e+00
3.219244e+01	-8.666185e+00
3.237838e+01	-8.709025e+00
3.256540e+01	-8.752814e+00
3.275349e+01	-8.795978e+00
3.294268e+01	-8.839316e+00
3.313295e+01	-8.883396e+00
3.332433e+01	-8.926926e+00
3.351681e+01	-8.970557e+00
3.371040e+01	-9.013960e+00
3.390511e+01	-9.058271e+00
3.410094e+01	-9.102216e+00
3.429791e+01	-9.146148e+00
3.449601e+01	-9.189539e+00
3.469526e+01	-9.234018e+00
3.489566e+01	-9.277564e+00
3.509721e+01	-9.321831e+00
3.529993e+01	-9.365957e+00
3.550382e+01	-9.410135e+00
3.570889e+01	-9.454899e+00
3.591515e+01	-9.499085e+00
3.612259e+01	-9.543445e+00
3.633123e+01	-9.588025e+00
3.654108e+01	-9.632659e+00
3.675214e+01	-9.677088e+00
3.696442e+01	-9.721753e+00
3.717792e+01	-9.766650e+00
3.739266e+01	-9.811105e+00
3.760864e+01	-9.855941e+00
3.782587e+01	-9.901063e+00
3.804435e+01	-9.945634e+00
3.826409e+01	-9.990890e+00
3.848510e+01	-1.003600e+01
3.870739e+01	-1.008084e+01
3.893096e+01	-1.012681e+01
3.915583e+01	-1.017145e+01
3.938199e+01	-1.021726e+01
3.960946e+01	-1.026245e+01
3.983824e+01	-1.030684e+01
4.006834e+01	-1.035277e+01
4.029978e+01	-1.039856e+01
4.053255e+01	-1.044392e+01
4.076666e+01	-1.048924e+01
4.100213e+01	-1.053474e+01
4.123896e+01	-1.058026e+01
4.147715e+01	-1.062602e+01
4.171672e+01	-1.067172e+01
4.195767e+01	-1.071706e+01
4.220002e+01	-1.076347e+01
4.244377e+01	-1.080923e+01
4.268892e+01	-1.085502e+01
4.293549e+01	-1.090079e+01
4.318348e+01	-1.094711e+01
4.343291e+01	-1.099339e+01
4.368377e+01	-1.103871e+01
4.393609e+01	-1.108557e+01
4.418986e+01	-1.113093e+01
4.444510e+01	-1.117750e+01
4.470182e+01	-1.122366e+01
4.496001e+01	-1.127021e+01
4.521970e+01	-1.131642e+01
4.548089e+01	-1.136292e+01
4.574358e+01	-1.140865e+01
4.600779e+01	-1.145626e+01
4.627353e+01	-1.150211e+01
4.654081e+01	-1.154845e+01
4.680963e+01	-1.159488e+01
4.708000e+01	-1.164123e+01
4.735193e+01	-1.168790e+01
4.762543e+01	-1.173492e+01
4.790051e+01	-1.178107e+01
4.817719e+01	-1.182847e+01
4.845545e+01	-1.187477e+01
4.873533e+01	-1.192146e+01
4.901682e+01	-1.196882e+01
4.929994e+01	-1.201578e+01
4.958470e+01	-1.206259e+01
4.987110e+01	-1.210931e+01
5.015915e+01	-1.215672e+01
5.044887e+01	-1.220317e+01
5.074026e+01	-1.225010e+01
5.103333e+01	-1.229769e+01
5.132810e+01	-1.234463e+01
5.162457e+01	-1.239188e+01
5.192275e+01	-1.243935e+01
5.222265e+01	-1.248626e+01
5.252429e+01	-1.253362e+01
5.282767e+01	-1.258037e+01
5.313280e+01	-1.262822e+01
5.343969e+01	-1.267490e+01
5.374836e+01	-1.272241e+01
5.405880e+01	-1.277039e+01
5.437105e+01	-1.281827e+01
5.468509e+01	-1.286469e+01
5.500095e+01	-1.291188e+01
5.531863e+01	-1.295959e+01
5.563815e+01	-1.300708e+01
5.595951e+01	-1.305424e+01
5.628273e+01	-1.310291e+01
5.660782e+01	-1.315058e+01
5.693479e+01	-1.319707e+01
5.726364e+01	-1.324440e+01
5.759439e+01	-1.329281e+01
5.792705e+01	-1.334066e+01
5.826164e+01	-1.338738e+01
5.859815e+01	-1.343548e+01
5.893662e+01	-1.348370e+01
5.927703e+01	-1.353058e+01
5.961941e+01	-1.357956e+01
5.996377e+01	-1.362679e+01
6.031012e+01	-1.367475e+01
6.065847e+01	-1.372298e+01
6.100883e+01	-1.377132e+01
6.136121e+01	-1.381872e+01
6.171563e+01	-1.386630e+01
6.207210e+01	-1.391523e+01
6.243063e+01	-1.396297e+01
6.279122e+01	-1.401022e+01
6.315390e+01	-1.405821e+01
6.351868e+01	-1.410656e+01
6.388556e+01	-1.415436e+01
6.425456e+01	-1.420223e+01
6.462569e+01	-1.425121e+01
6.499897e+01	-1.429858e+01
6.537440e+01	-1.434793e+01
6.575200e+01	-1.439599e+01
6.613178e+01	-1.444504e+01
6.651375e+01	-1.449220e+01
6.689793e+01	-1.454016e+01
6.728433e+01	-1.458895e+01
6.767297e+01	-1.463688e+01
6.806384e+01	-1.468529e+01
6.845698e+01	-1.473411e+01
6.885238e+01	-1.478212e+01
6.925007e+01	-1.483039e+01
6.965005e+01	-1.487893e+01
7.005235e+01	-1.492740e+01
7.045697e+01	-1.497540e+01
7.086393e+01	-1.502494e+01
7.127323e+01	-1.507246e+01
7.168490e+01	-1.512063e+01
7.209895e+01	-1.516968e+01
7.251539e+01	-1.521763e+01
7.293424e+01	-1.526652e+01
7.335551e+01	-1.531542e+01
7.377920e+01	-1.536403e+01
7.420535e+01	-1.541228e+01
7.463396e+01	-1.546042e+01
7.506504e+01	-1.550892e+01
7.549861e+01	-1.555768e+01
7.593469e+01	-1.560677e+01
7.637328e+01	-1.565622e+01
7.681441e+01	-1.570424e+01
7.725809e+01	-1.575274e+01
7.770433e+01	-1.580224e+01
7.815315e+01	-1.584998e+01
7.860456e+01	-1.589860e+01
7.905857e+01	-1.594768e+01
7.951521e+01	-1.599747e+01
7.997449e+01	-1.604450e+01
8.043642e+01	-1.609442e+01
8.090102e+01	-1.614258e+01
8.136830e+01	-1.619100e+01
8.183828e+01	-1.624147e+01
8.231097e+01	-1.628905e+01
8.278640e+01	-1.633855e+01
8.326457e+01	-1.638726e+01
8.374550e+01	-1.643606e+01
8.422921e+01	-1.648504e+01
8.471572e+01	-1.653257e+01
8.520503e+01	-1.658248e+01
8.569717e+01	-1.663216e+01
8.619215e+01	-1.667997e+01
8.669000e+01	-1.672977e+01
8.719071e+01	-1.677802e+01
8.769432e+01	-1.682694e+01
8.820084e+01	-1.687646e+01
8.871029e+01	-1.692559e+01
8.922267e+01	-1.697383e+01
8.973802e+01	-1.702312e+01
9.025634e+01	-1.707351e+01
9.077766e+01	-1.712254e+01
9.130199e+01	-1.717055e+01
9.182935e+01	-1.722100e+01
9.235975e+01	-1.726916e+01
9.289321e+01	-1.731703e+01
9.342976e+01	-1.736697e+01
9.396941e+01	-1.741547e+01
9.451217e+01	-1.746634e+01
9.505807e+01	-1.751342e+01
9.560712e+01	-1.756324e+01
9.615934e+01	-1.761224e+01
9.671476e+01	-1.766175e+01
9.727338e+01	-1.771145e+01
9.783522e+01	-1.775982e+01
9.840032e+01	-1.780854e+01
9.896867e+01	-1.785983e+01
9.954031e+01	-1.790818e+01
1.001153e+02	-1.795677e+01
1.006935e+02	-1.800636e+01
1.012751e+02	-1.805681e+01
1.018601e+02	-1.810631e+01
1.024484e+02	-1.815473e+01
1.030402e+02	-1.820357e+01
1.036353e+02	-1.825273e+01
1.042339e+02	-1.830182e+01
1.048360e+02	-1.835262e+01
1.054415e+02	-1.840089e+01
1.060505e+02	-1.845021e+01
1.066631e+02	-1.849912e+01
1.072791e+02	-1.854908e+01
1.078988e+02	-1.859670e+01
1.085220e+02	-1.864645e+01
1.091488e+02	-1.869473e+01
1.097793e+02	-1.874648e+01
1.104133e+02	-1.879512e+01
1.110511e+02	-1.884472e+01
1.116925e+02	-1.889456e+01
1.123376e+02	-1.894300e+01
1.129865e+02	-1.899177e+01
1.136391e+02	-1.904169e+01
1.142955e+02	-1.909180e+01
1.149556e+02	-1.914116e+01
1.156196e+02	-1.919000e+01
1.162874e+02	-1.924025e+01
1.169591e+02	-1.928946e+01
1.176347e+02	-1.934002e+01
1.183141e+02	-1.938701e+01
1.189975e+02	-1.943903e+01
1.196848e+02	-1.948547e+01
1.203761e+02	-1.953654e+01
1.210714e+02	-1.958662e+01
1.217707e+02	-1.963544e+01
1.224740e+02	-1.968461e+01
1.231814e+02	-1.973509e+01
1.238929e+02	-1.978338e+01
1.246085e+02	-1.983319e+01
1.253283e+02	-1.988224e+01
1.260522e+02	-1.993259e+01
1.267802e+02	-1.998294e+01
1.275125e+02	-2.003274e+01
1.282490e+02	-2.008067e+01
1.289898e+02	-2.013053e+01
1.297348e+02	-2.018100e+01
1.304842e+02	-2.022851e+01
1.312378e+02	-2.027947e+01
1.319959e+02	-2.032768e+01
1.327583e+02	-2.038048e+01
1.335251e+02	-2.042956e+01
1.342963e+02	-2.047631e+01
1.350720e+02	-2.052652e+01
1.358522e+02	-2.057622e+01
1.366368e+02	-2.062682e+01
1.374260e+02	-2.067763e+01
1.382198e+02	-2.072502e+01
1.390182e+02	-2.077525e+01
1.398211e+02	-2.082387e+01
1.406287e+02	-2.087627e+01
1.414410e+02	-2.092309e+01
1.422579e+02	-2.097353e+01
1.430796e+02	-2.102427e+01
1.439060e+02	-2.107319e+01
1.447372e+02	-2.112418e+01
1.455732e+02	-2.117285e+01
1.464141e+02	-2.122209e+01
1.472597e+02	-2.127081e+01
1.481103e+02	-2.132052e+01
1.489658e+02	-2.137199e+01
1.498262e+02	-2.142254e+01
1.506916e+02	-2.147048e+01
1.515620e+02	-2.152109e+01
1.524374e+02	-2.157060e+01
1.533179e+02	-2.162123e+01
1.542034e+02	-2.167073e+01
1.550941e+02	-2.171997e+01
1.559899e+02	-2.176796e+01
1.568909e+02	-2.181798e+01
1.577971e+02	-2.186758e+01
1.587085e+02	-2.191761e+01
1.596252e+02	-2.196700e+01
1.605472e+02	-2.201882e+01
1.614745e+02	-2.206961e+01
1.624072e+02	-2.211709e+01
1.633453e+02	-2.216746e+01
1.642887e+02	-2.221769e+01
1.652377e+02	-2.226515e+01
1.661921e+02	-2.231745e+01
1.671520e+02	-2.236694e+01
1.681175e+02	-2.241482e+01
1.690885e+02	-2.246673e+01
1.700651e+02	-2.251522e+01
1.710474e+02	-2.256603e+01
1.720354e+02	-2.261247e+01
1.730291e+02	-2.266528e+01
1.740285e+02	-2.271393e+01
1.750337e+02	-2.276465e+01
1.760446e+02	-2.281346e+01
1.770615e+02	-2.286226e+01
1.780842e+02	-2.291305e+01
1.791128e+02	-2.296420e+01
1.801473e+02	-2.301230e+01
1.811878e+02	-2.306339e+01
1.822344e+02	-2.311170e+01
1.832870e+02	-2.316616e+01
1.843456e+02	-2.321020e+01
1.854104e+02	-2.326221e+01
1.864813e+02	-2.331066e+01
1.875584e+02	-2.336170e+01
1.886418e+02	-2.340946e+01
1.897313e+02	-2.346289e+01
1.908272e+02	-2.351057e+01
1.919294e+02	-2.355996e+01
1.930380e+02	-2.361101e+01
1.941530e+02	-2.366127e+01
1.952744e+02	-2.371252e+01
1.964023e+02	-2.376154e+01
1.975367e+02	-2.381180e+01
1.986777e+02	-2.386113e+01
1.998252e+02	-2.391151e+01
2.009794e+02	-2.395793e+01
2.021403e+02	-2.400909e+01
2.033078e+02	-2.406043e+01
2.044821e+02	-2.410981e+01
2.056632e+02	-2.415785e+01
2.068511e+02	-2.420849e+01
2.080459e+02	-2.425926e+01
2.092475e+02	-2.430710e+01
2.104561e+02	-2.436020e+01
2.116717e+02	-2.441123e+01
2.128943e+02	-2.445846e+01
2.141240e+02	-2.450791e+01
2.153608e+02	-2.455732e+01
2.166047e+02	-2.460467e+01
2.178558e+02	-2.466001e+01
2.191141e+02	-2.470299e+01
2.203797e+02	-2.475759e+01
2.216526e+02	-2.480880e+01
2.229329e+02	-2.485610e+01
2.242205e+02	-2.490986e+01
2.255156e+02	-2.495728e+01
2.268182e+02	-2.500717e+01
2.281283e+02	-2.505889e+01
2.294459e+02	-2.510845e+01
2.307712e+02	-2.515624e+01
2.321041e+02	-2.520745e+01
2.334447e+02	-2.525757e+01
2.347931e+02	-2.530774e+01
2.361493e+02	-2.536009e+01
2.375133e+02	-2.540660e+01
2.388851e+02	-2.546014e+01
2.402649e+02	-2.550659e+01
2.416527e+02	-2.555456e+01
2.430484e+02	-2.560876e+01
2.444523e+02	-2.565587e+01
2.458642e+02	-2.570452e+01
2.472843e+02	-2.575940e+01
2.487126e+02	-2.580398e+01
2.501492e+02	-2.585400e+01
2.515940e+02	-2.590583e+01
2.530472e+02	-2.595472e+01
2.545088e+02	-2.600255e+01
2.559789e+02	-2.605831e+01
2.574574e+02	-2.610513e+01
2.589444e+02	-2.615578e+01
2.604401e+02	-2.620507e+01
2.619444e+02	-2.625647e+01
2.634574e+02	-2.630866e+01
2.649791e+02	-2.635767e+01
2.665096e+02	-2.640467e+01
2.680489e+02	-2.645895e+01
2.695972e+02	-2.650557e+01
2.711544e+02	-2.655875e+01
2.727205e+02	-2.660828e+01
2.742958e+02	-2.665490e+01
2.758801e+02	-2.670392e+01
2.774736e+02	-2.675557e+01
2.790762e+02	-2.680526e+01
2.806882e+02	-2.685468e+01
2.823094e+02	-2.690326e+01
2.839400e+02	-2.695564e+01
2.855800e+02	-2.700452e+01
2.872295e+02	-2.705649e+01
2.888886e+02	-2.710808e+01
2.905572e+02	-2.715269e+01
2.922354e+02	-2.720799e+01
2.939234e+02	-2.725629e+01
2.956211e+02	-2.730900e+01
2.973286e+02	-2.735541e+01
2.990459e+02	-2.740463e+01
3.007732e+02	-2.745479e+01
3.025104e+02	-2.750259e+01
3.042577e+02	-2.755390e+01
3.060151e+02	-2.760515e+01
3.077826e+02	-2.765324e+01
3.095604e+02	-2.770510e+01
3.113484e+02	-2.775671e+01
3.131467e+02	-2.780455e+01
3.149554e+02	-2.785689e+01
3.167746e+02	-2.790841e+01
3.186043e+02	-2.795671e+01
3.204445e+02	-2.800725e+01
3.222954e+02	-2.805588e+01
3.241570e+02	-2.810293e+01
3.260293e+02	-2.815542e+01
3.279124e+02	-2.820674e+01
3.298064e+02	-2.825357e+01
3.317114e+02	-2.830442e+01
3.336273e+02	-2.835163e+01
3.355544e+02	-2.840610e+01
3.374925e+02	-2.846256e+01
3.394418e+02	-2.850539e+01
3.414024e+02	-2.855666e+01
3.433744e+02	-2.860767e+01
3.453577e+02	-2.865725e+01
3.473525e+02	-2.870601e+01
3.493588e+02	-2.875730e+01
3.513766e+02	-2.880653e+01
3.534062e+02	-2.885172e+01
3.554474e+02	-2.890777e+01
3.575005e+02	-2.895334e+01
3.595654e+02	-2.900452e+01
3.616422e+02	-2.906061e+01
3.637311e+02	-2.910814e+01
3.658320e+02	-2.915901e+01
3.679450e+02	-2.921089e+01
3.700702e+02	-2.925823e+01
3.722077e+02	-2.930684e+01
3.743576e+02	-2.935613e+01
3.765199e+02	-2.941044e+01
3.786946e+02	-2.945220e+01
3.808820e+02	-2.950984e+01
3.830819e+02	-2.956035e+01
3.852946e+02	-2.960548e+01
3.875200e+02	-2.966070e+01
3.897583e+02	-2.970803e+01
3.920096e+02	-2.975643e+01
3.942738e+02	-2.980378e+01
3.965511e+02	-2.985422e+01
3.988416e+02	-2.990612e+01
4.011452e+02	-2.996104e+01
4.034622e+02	-3.000170e+01
4.057926e+02	-3.005824e+01
4.081365e+02	-3.011381e+01
4.104938e+02	-3.015962e+01
4.128648e+02	-3.021509e+01
4.152495e+02	-3.025939e+01
4.176480e+02	-3.031126e+01
4.200603e+02	-3.036224e+01
4.224866e+02	-3.041102e+01
4.249268e+02	-3.045619e+01
4.273812e+02	-3.050653e+01
4.298497e+02	-3.055413e+01
4.323325e+02	-3.060471e+01
4.348297e+02	-3.065839e+01
4.373412e+02	-3.070604e+01
4.398673e+02	-3.076180e+01
4.424079e+02	-3.081372e+01
4.449633e+02	-3.086254e+01
4.475334e+02	-3.090830e+01
4.501183e+02	-3.095980e+01
4.527182e+02	-3.101489e+01
4.553330e+02	-3.106220e+01
4.579630e+02	-3.111050e+01
4.606082e+02	-3.115995e+01
4.632687e+02	-3.121581e+01
4.659445e+02	-3.126300e+01
4.686358e+02	-3.132172e+01
4.713426e+02	-3.135979e+01
4.740650e+02	-3.140865e+01
4.768032e+02	-3.146914e+01
4.795572e+02	-3.151816e+01
4.823271e+02	-3.156054e+01
4.851130e+02	-3.161381e+01
4.879150e+02	-3.166029e+01
4.907332e+02	-3.171217e+01
4.935676e+02	-3.176560e+01
4.964185e+02	-3.181123e+01
4.992858e+02	-3.186431e+01
5.021696e+02	-3.191374e+01
5.050701e+02	-3.197102e+01
5.079874e+02	-3.201373e+01
5.109215e+02	-3.206592e+01
5.138726e+02	-3.211966e+01
5.168407e+02	-3.216616e+01
5.198259e+02	-3.220900e+01
5.228284e+02	-3.226320e+01
5.258482e+02	-3.231057e+01
5.288855e+02	-3.236337e+01
5.319403e+02	-3.242372e+01
5.350128e+02	-3.247137e+01
5.381030e+02	-3.251128e+01
5.412111e+02	-3.256930e+01
5.443371e+02	-3.261202e+01
5.474812e+02	-3.267369e+01
5.506434e+02	-3.271911e+01
5.538239e+02	-3.276418e+01
5.570228e+02	-3.281418e+01
5.602401e+02	-3.287292e+01
5.634760e+02	-3.292287e+01
5.667306e+02	-3.296727e+01
5.700040e+02	-3.301847e+01
5.732964e+02	-3.307877e+01
5.766077e+02	-3.312055e+01
5.799382e+02	-3.316457e+01
5.832879e+02	-3.322257e+01
5.866569e+02	-3.327056e+01
5.900454e+02	-3.332031e+01
5.934535e+02	-3.337421e+01
5.968813e+02	-3.342133e+01
6.003288e+02	-3.346243e+01
6.037963e+02	-3.351951e+01
6.072838e+02	-3.356902e+01
6.107914e+02	-3.362258e+01
6.143194e+02	-3.367313e+01
6.178676e+02	-3.372363e+01
6.214364e+02	-3.378019e+01
6.250258e+02	-3.382595e+01
6.286359e+02	-3.387970e+01
6.322669e+02	-3.392696e+01
6.359189e+02	-3.397397e+01
6.395919e+02	-3.403177e+01
6.432862e+02	-3.408687e+01
6.470017e+02	-3.412775e+01
6.507388e+02	-3.417731e+01
6.544974e+02	-3.423083e+01
6.582778e+02	-3.427352e+01
6.620800e+02	-3.432337e+01
6.659041e+02	-3.437879e+01
6.697504e+02	-3.443415e+01
6.736188e+02	-3.447685e+01
6.775096e+02	-3.452438e+01
6.814229e+02	-3.457768e+01
6.853587e+02	-3.462780e+01
6.893173e+02	-3.467545e+01
6.932988e+02	-3.473913e+01
6.973033e+02	-3.478026e+01
7.013309e+02	-3.482926e+01
