Frequency(Hz)	Magnitude(dB)
1.000000e+01	-2.037315e+00
1.005776e+01	-2.055876e+00
1.011585e+01	-2.074886e+00
1.017428e+01	-2.093891e+00
1.023305e+01	-2.112949e+00
1.029215e+01	-2.132599e+00
1.035160e+01	-2.151953e+00
1.041139e+01	-2.171397e+00
1.047153e+01	-2.191358e+00
1.053201e+01	-2.211094e+00
1.059284e+01	-2.231231e+00
1.065403e+01	-2.251403e+00
1.071556e+01	-2.271746e+00
1.077746e+01	-2.292238e+00
1.083971e+01	-2.312752e+00
1.090232e+01	-2.333578e+00
1.096529e+01	-2.354371e+00
1.102862e+01	-2.375314e+00
1.109232e+01	-2.396423e+00
1.115639e+01	-2.417716e+00
1.122083e+01	-2.439288e+00
1.128564e+01	-2.460921e+00
1.135083e+01	-2.482595e+00
1.141639e+01	-2.504424e+00
1.148233e+01	-2.526362e+00
1.154865e+01	-2.548445e+00
1.161536e+01	-2.570634e+00
1.168245e+01	-2.593138e+00
1.174992e+01	-2.615714e+00
1.181779e+01	-2.638442e+00
1.188605e+01	-2.661443e+00
1.195470e+01	-2.684403e+00
1.202375e+01	-2.707316e+00
1.209320e+01	-2.730585e+00
1.216305e+01	-2.753956e+00
1.223330e+01	-2.777729e+00
1.230396e+01	-2.801446e+00
1.237503e+01	-2.825486e+00
1.244651e+01	-2.849133e+00
1.251840e+01	-2.873330e+00
1.259070e+01	-2.897612e+00
1.266343e+01	-2.922191e+00
1.273657e+01	-2.946674e+00
1.281014e+01	-2.971538e+00
1.288413e+01	-2.996364e+00
1.295855e+01	-3.021096e+00
1.303339e+01	-3.046422e+00
1.310867e+01	-3.071722e+00
1.318439e+01	-3.097022e+00
1.326054e+01	-3.122700e+00
1.333713e+01	-3.148633e+00
1.341417e+01	-3.174313e+00
1.349165e+01	-3.200277e+00
1.356958e+01	-3.226341e+00
1.364795e+01	-3.252608e+00
1.372678e+01	-3.279265e+00
1.380607e+01	-3.305650e+00
1.388581e+01	-3.332534e+00
1.396602e+01	-3.359580e+00
1.404668e+01	-3.386213e+00
1.412782e+01	-3.413536e+00
1.420942e+01	-3.440951e+00
1.429149e+01	-3.468257e+00
1.437404e+01	-3.495659e+00
1.445706e+01	-3.523695e+00
1.454057e+01	-3.551134e+00
1.462455e+01	-3.579473e+00
1.470902e+01	-3.607820e+00
1.479398e+01	-3.635959e+00
1.487943e+01	-3.664629e+00
1.496537e+01	-3.693027e+00
1.505181e+01	-3.721638e+00
1.513875e+01	-3.750375e+00
1.522619e+01	-3.779556e+00
1.531414e+01	-3.808626e+00
1.540259e+01	-3.837963e+00
1.549156e+01	-3.867648e+00
1.558103e+01	-3.897000e+00
1.567103e+01	-3.926464e+00
1.576155e+01	-3.956534e+00
1.585258e+01	-3.986452e+00
1.594415e+01	-4.016660e+00
1.603624e+01	-4.046781e+00
1.612886e+01	-4.077205e+00
1.622202e+01	-4.107950e+00
1.631572e+01	-4.138486e+00
1.640996e+01	-4.169434e+00
1.650474e+01	-4.199756e+00
1.660008e+01	-4.231196e+00
1.669596e+01	-4.262817e+00
1.679239e+01	-4.293834e+00
1.688938e+01	-4.325534e+00
1.698694e+01	-4.356972e+00
1.708505e+01	-4.388711e+00
1.718373e+01	-4.420442e+00
1.728299e+01	-4.452693e+00
1.738281e+01	-4.484691e+00
1.748322e+01	-4.517017e+00
1.758420e+01	-4.549205e+00
1.768576e+01	-4.582215e+00
1.778792e+01	-4.614634e+00
1.789066e+01	-4.647266e+00
1.799399e+01	-4.680227e+00
1.809793e+01	-4.713283e+00
1.820246e+01	-4.746639e+00
1.830760e+01	-4.779952e+00
1.841334e+01	-4.813352e+00
1.851969e+01	-4.846815e+00
1.862666e+01	-4.880673e+00
1.873425e+01	-4.914271e+00
1.884246e+01	-4.948659e+00
1.895129e+01	-4.982701e+00
1.906075e+01	-5.016984e+00
1.917085e+01	-5.051119e+00
1.928158e+01	-5.085315e+00
1.939295e+01	-5.119949e+00
1.950496e+01	-5.154722e+00
1.961762e+01	-5.189637e+00
1.973093e+01	-5.224504e+00
1.984490e+01	-5.259449e+00
1.995952e+01	-5.294972e+00
2.007480e+01	-5.329966e+00
2.019076e+01	-5.365415e+00
2.030738e+01	-5.400925e+00
2.042467e+01	-5.436490e+00
2.054264e+01	-5.472490e+00
2.066130e+01	-5.508206e+00
2.078064e+01	-5.544488e+00
2.090066e+01	-5.580570e+00
2.102139e+01	-5.616984e+00
2.114280e+01	-5.653115e+00
2.126492e+01	-5.689640e+00
2.138775e+01	-5.726151e+00
2.151128e+01	-5.763247e+00
2.163553e+01	-5.799708e+00
2.176050e+01	-5.836448e+00
2.188619e+01	-5.873729e+00
2.201260e+01	-5.910876e+00
2.213974e+01	-5.948089e+00
2.226762e+01	-5.985382e+00
2.239624e+01	-6.022860e+00
2.252560e+01	-6.060273e+00
2.265571e+01	-6.098390e+00
2.278656e+01	-6.135958e+00
2.291818e+01	-6.173710e+00
2.305055e+01	-6.211956e+00
2.318369e+01	-6.249953e+00
2.331760e+01	-6.288007e+00
2.345228e+01	-6.326403e+00
2.358774e+01	-6.364962e+00
2.372398e+01	-6.403536e+00
2.386101e+01	-6.442126e+00
2.399883e+01	-6.480601e+00
2.413745e+01	-6.519858e+00
2.427686e+01	-6.558491e+00
2.441709e+01	-6.597835e+00
2.455812e+01	-6.636737e+00
2.469997e+01	-6.676056e+00
2.484263e+01	-6.714985e+00
2.498612e+01	-6.754514e+00
2.513044e+01	-6.794139e+00
2.527559e+01	-6.833853e+00
2.542158e+01	-6.873455e+00
2.556842e+01	-6.913117e+00
2.571610e+01	-6.953237e+00
2.586463e+01	-6.993104e+00
2.601403e+01	-7.033007e+00
2.616428e+01	-7.073268e+00
2.631541e+01	-7.113689e+00
2.646740e+01	-7.153881e+00
2.662028e+01	-7.194331e+00
2.677404e+01	-7.234500e+00
2.692868e+01	-7.275614e+00
2.708422e+01	-7.316435e+00
2.724066e+01	-7.356823e+00
2.739800e+01	-7.398066e+00
2.755625e+01	-7.439046e+00
2.771541e+01	-7.480011e+00
2.787550e+01	-7.520960e+00
2.803650e+01	-7.561790e+00
2.819844e+01	-7.603484e+00
2.836131e+01	-7.645025e+00
2.852513e+01	-7.686645e+00
2.868989e+01	-7.728053e+00
2.885560e+01	-7.769914e+00
2.902227e+01	-7.810773e+00
2.918990e+01	-7.853216e+00
2.935850e+01	-7.895054e+00
2.952807e+01	-7.936951e+00
2.969863e+01	-7.978861e+00
2.987016e+01	-8.020816e+00
3.004269e+01	-8.063307e+00
3.021622e+01	-8.105069e+00
3.039075e+01	-8.147509e+00
3.056628e+01	-8.189762e+00
3.074283e+01	-8.232294e+00
3.092040e+01	-8.275142e+00
3.109900e+01	-8.317596e+00
3.127862e+01	-8.360486e+00
3.145929e+01	-8.403480e+00
3.164099e+01	-8.446008e+00
3.182375e+01	-8.489088e+00
3.200756e+01	-8.532303e+00
3.219244e+01	-8.575128e+00
3.237838e+01	-8.618567e+00
3.256540e+01	-8.660917e+00
3.275349e+01	-8.704482e+00
3.294268e+01	-8.747883e+00
3.313295e+01	-8.791165e+00
3.332433e+01	-8.834710e+00
3.351681e+01	-8.877908e+00
3.371040e+01	-8.921912e+00
3.390511e+01	-8.965652e+00
3.410094e+01	-9.008985e+00
3.429791e+01	-9.052346e+00
3.449601e+01	-9.096753e+00
3.469526e+01	-9.140814e+00
3.489566e+01	-9.184747e+00
3.509721e+01	-9.228569e+00
3.529993e+01	-9.272968e+00
3.550382e+01	-9.317066e+00
3.570889e+01	-9.360849e+00
3.591515e+01	-9.405045e+00
3.612259e+01	-9.450012e+00
3.633123e+01	-9.493579e+00
3.654108e+01	-9.538540e+00
3.675214e+01	-9.582702e+00
3.696442e+01	-9.627468e+00
3.717792e+01	-9.671938e+00
3.739266e+01	-9.716889e+00
3.760864e+01	-9.761611e+00
3.782587e+01	-9.805790e+00
3.804435e+01	-9.850789e+00
3.826409e+01	-9.896057e+00
3.848510e+01	-9.941154e+00
3.870739e+01	-9.986275e+00
3.893096e+01	-1.003085e+01
3.915583e+01	-1.007548e+01
3.938199e+01	-1.012161e+01
3.960946e+01	-1.016681e+01
3.983824e+01	-1.021151e+01
4.006834e+01	-1.025700e+01
4.029978e+01	-1.030206e+01
4.053255e+01	-1.034737e+01
4.076666e+01	-1.039327e+01
4.100213e+01	-1.043817e+01
4.123896e+01	-1.048397e+01
4.147715e+01	-1.052949e+01
4.171672e+01	-1.057486e+01
4.195767e+01	-1.062125e+01
4.220002e+01	-1.066646e+01
4.244377e+01	-1.071163e+01
4.268892e+01	-1.075831e+01
4.293549e+01	-1.080340e+01
4.318348e+01	-1.084935e+01
4.343291e+01	-1.089537e+01
4.368377e+01	-1.094183e+01
4.393609e+01	-1.098826e+01
4.418986e+01	-1.103399e+01
4.444510e+01	-1.107951e+01
4.470182e+01	-1.112639e+01
4.496001e+01	-1.117283e+01
4.521970e+01	-1.121824e+01
4.548089e+01	-1.126499e+01
4.574358e+01	-1.131100e+01
4.600779e+01	-1.135744e+01
4.627353e+01	-1.140375e+01
4.654081e+01	-1.145016e+01
4.680963e+01	-1.149694e+01
4.708000e+01	-1.154337e+01
4.735193e+01	-1.158947e+01
4.762543e+01	-1.163623e+01
4.790051e+01	-1.168254e+01
4.817719e+01	-1.172947e+01
4.845545e+01	-1.177638e+01
4.873533e+01	-1.182271e+01
4.901682e+01	-1.186992e+01
4.929994e+01	-1.191679e+01
4.958470e+01	-1.196305e+01
4.987110e+01	-1.201040e+01
5.015915e+01	-1.205765e+01
5.044887e+01	-1.210406e+01
5.074026e+01	-1.215108e+01
5.103333e+01	-1.219787e+01
5.132810e+01	-1.224511e+01
5.162457e+01	-1.229216e+01
5.192275e+01	-1.233971e+01
5.222265e+01	-1.238602e+01
5.252429e+01	-1.243307e+01
5.282767e+01	-1.248118e+01
5.313280e+01	-1.252801e+01
5.343969e+01	-1.257516e+01
5.374836e+01	-1.262270e+01
5.405880e+01	-1.267004e+01
5.437105e+01	-1.271737e+01
5.468509e+01	-1.276428e+01
5.500095e+01	-1.281235e+01
5.531863e+01	-1.285950e+01
5.563815e+01	-1.290640e+01
5.595951e+01	-1.295463e+01
5.628273e+01	-1.300199e+01
5.660782e+01	-1.304897e+01
5.693479e+01	-1.309745e+01
5.726364e+01	-1.314467e+01
5.759439e+01	-1.319157e+01
5.792705e+01	-1.323959e+01
5.826164e+01	-1.328709e+01
5.859815e+01	-1.333455e+01
5.893662e+01	-1.338210e+01
5.927703e+01	-1.343077e+01
5.961941e+01	-1.347856e+01
5.996377e+01	-1.352650e+01
6.031012e+01	-1.357357e+01
6.065847e+01	-1.362160e+01
6.100883e+01	-1.366935e+01
6.136121e+01	-1.371763e+01
6.171563e+01	-1.376483e+01
6.207210e+01	-1.381328e+01
6.243063e+01	-1.386155e+01
6.279122e+01	-1.390929e+01
6.315390e+01	-1.395728e+01
6.351868e+01	-1.400615e+01
6.388556e+01	-1.405321e+01
6.425456e+01	-1.410110e+01
6.462569e+01	-1.414917e+01
6.499897e+01	-1.419718e+01
6.537440e+01	-1.424576e+01
6.575200e+01	-1.429353e+01
6.613178e+01	-1.434102e+01
6.651375e+01	-1.439018e+01
6.689793e+01	-1.443817e+01
6.728433e+01	-1.448715e+01
6.767297e+01	-1.453539e+01
6.806384e+01	-1.458383e+01
6.845698e+01	-1.463164e+01
6.885238e+01	-1.467948e+01
6.925007e+01	-1.472815e+01
6.965005e+01	-1.477595e+01
7.005235e+01	-1.482481e+01
7.045697e+01	-1.487330e+01
7.086393e+01	-1.492219e+01
7.127323e+01	-1.496981e+01
7.168490e+01	-1.501821e+01
7.209895e+01	-1.506693e+01
7.251539e+01	-1.511607e+01
7.293424e+01	-1.516433e+01
7.335551e+01	-1.521245e+01
7.377920e+01	-1.526170e+01
7.420535e+01	-1.530960e+01
7.463396e+01	-1.535890e+01
7.506504e+01	-1.540675e+01
7.549861e+01	-1.545570e+01
7.593469e+01	-1.550356e+01
7.637328e+01	-1.555257e+01
7.681441e+01	-1.560146e+01
7.725809e+01	-1.565011e+01
7.770433e+01	-1.569926e+01
7.815315e+01	-1.574778e+01
7.860456e+01	-1.579624e+01
7.905857e+01	-1.584502e+01
7.951521e+01	-1.589325e+01
7.997449e+01	-1.594248e+01
8.043642e+01	-1.599098e+01
8.090102e+01	-1.603957e+01
8.136830e+01	-1.608960e+01
8.183828e+01	-1.613776e+01
8.231097e+01	-1.618737e+01
8.278640e+01	-1.623460e+01
8.326457e+01	-1.628344e+01
8.374550e+01	-1.633238e+01
8.422921e+01	-1.638145e+01
8.471572e+01	-1.643125e+01
8.520503e+01	-1.647911e+01
8.569717e+01	-1.652876e+01
8.619215e+01	-1.657683e+01
8.669000e+01	-1.662641e+01
8.719071e+01	-1.667471e+01
8.769432e+01	-1.672368e+01
8.820084e+01	-1.677271e+01
8.871029e+01	-1.682163e+01
8.922267e+01	-1.686998e+01
8.973802e+01	-1.691978e+01
9.025634e+01	-1.697010e+01
9.077766e+01	-1.701735e+01
9.130199e+01	-1.706527e+01
9.182935e+01	-1.711640e+01
9.235975e+01	-1.716528e+01
9.289321e+01	-1.721491e+01
9.342976e+01	-1.726413e+01
9.396941e+01	-1.731295e+01
9.451217e+01	-1.736194e+01
9.505807e+01	-1.741058e+01
9.560712e+01	-1.746045e+01
9.615934e+01	-1.750901e+01
9.671476e+01	-1.755774e+01
9.727338e+01	-1.760660e+01
9.783522e+01	-1.765636e+01
9.840032e+01	-1.770556e+01
9.896867e+01	-1.775488e+01
9.954031e+01	-1.780469e+01
1.001153e+02	-1.785343e+01
1.006935e+02	-1.790247e+01
1.012751e+02	-1.795209e+01
1.018601e+02	-1.800060e+01
1.024484e+02	-1.804996e+01
1.030402e+02	-1.810019e+01
1.036353e+02	-1.814848e+01
1.042339e+02	-1.819772e+01
1.048360e+02	-1.824711e+01
1.054415e+02	-1.829715e+01
1.060505e+02	-1.834570e+01
1.066631e+02	-1.839430e+01
1.072791e+02	-1.844422e+01
1.078988e+02	-1.849370e+01
1.085220e+02	-1.854250e+01
1.091488e+02	-1.859322e+01
1.097793e+02	-1.864154e+01
1.104133e+02	-1.869099e+01
1.110511e+02	-1.874060e+01
1.116925e+02	-1.879095e+01
1.123376e+02	-1.883913e+01
1.129865e+02	-1.888818e+01
1.136391e+02	-1.893929e+01
1.142955e+02	-1.898566e+01
1.149556e+02	-1.903726e+01
1.156196e+02	-1.908578e+01
1.162874e+02	-1.913511e+01
1.169591e+02	-1.918552e+01
1.176347e+02	-1.923318e+01
1.183141e+02	-1.928337e+01
1.189975e+02	-1.933320e+01
1.196848e+02	-1.938314e+01
1.203761e+02	-1.943145e+01
1.210714e+02	-1.948086e+01
1.217707e+02	-1.953002e+01
1.224740e+02	-1.958047e+01
1.231814e+02	-1.962964e+01
1.238929e+02	-1.967921e+01
1.246085e+02	-1.972866e+01
1.253283e+02	-1.977822e+01
1.260522e+02	-1.982865e+01
1.267802e+02	-1.987614e+01
1.275125e+02	-1.992697e+01
1.282490e+02	-1.997537e+01
1.289898e+02	-2.002701e+01
1.297348e+02	-2.007490e+01
1.304842e+02	-2.012384e+01
1.312378e+02	-2.017360e+01
1.319959e+02	-2.022425e+01
1.327583e+02	-2.027391e+01
1.335251e+02	-2.032379e+01
1.342963e+02	-2.037196e+01
1.350720e+02	-2.042368e+01
1.358522e+02	-2.047183e+01
1.366368e+02	-2.052115e+01
1.374260e+02	-2.057120e+01
1.382198e+02	-2.062143e+01
1.390182e+02	-2.067158e+01
1.398211e+02	-2.072141e+01
1.406287e+02	-2.077064e+01
1.414410e+02	-2.081993e+01
1.422579e+02	-2.086964e+01
1.430796e+02	-2.091823e+01
1.439060e+02	-2.096722e+01
1.447372e+02	-2.102009e+01
1.455732e+02	-2.106715e+01
1.464141e+02	-2.111791e+01
1.472597e+02	-2.116743e+01
1.481103e+02	-2.121730e+01
1.489658e+02	-2.126830e+01
1.498262e+02	-2.131675e+01
1.506916e+02	-2.136721e+01
1.515620e+02	-2.141666e+01
1.524374e+02	-2.146619e+01
1.533179e+02	-2.151425e+01
1.542034e+02	-2.156339e+01
1.550941e+02	-2.161280e+01
1.559899e+02	-2.166452e+01
1.568909e+02	-2.171369e+01
1.577971e+02	-2.176539e+01
1.587085e+02	-2.181548e+01
1.596252e+02	-2.186342e+01
1.605472e+02	-2.191298e+01
1.614745e+02	-2.196146e+01
1.624072e+02	-2.201320e+01
1.633453e+02	-2.206097e+01
1.642887e+02	-2.211180e+01
1.652377e+02	-2.216131e+01
1.661921e+02	-2.221176e+01
1.671520e+02	-2.226111e+01
1.681175e+02	-2.230849e+01
1.690885e+02	-2.236089e+01
1.700651e+02	-2.241045e+01
1.710474e+02	-2.245978e+01
1.720354e+02	-2.250827e+01
1.730291e+02	-2.255945e+01
1.740285e+02	-2.261001e+01
1.750337e+02	-2.265756e+01
1.760446e+02	-2.271006e+01
1.770615e+02	-2.275736e+01
1.780842e+02	-2.280857e+01
1.791128e+02	-2.285747e+01
1.801473e+02	-2.290633e+01
1.811878e+02	-2.295997e+01
1.822344e+02	-2.300579e+01
1.832870e+02	-2.305756e+01
1.843456e+02	-2.310587e+01
1.854104e+02	-2.315432e+01
1.864813e+02	-2.320786e+01
1.875584e+02	-2.325597e+01
1.886418e+02	-2.330439e+01
1.897313e+02	-2.335735e+01
1.908272e+02	-2.340558e+01
1.919294e+02	-2.345289e+01
1.930380e+02	-2.350540e+01
1.941530e+02	-2.355400e+01
1.952744e+02	-2.360405e+01
1.964023e+02	-2.365457e+01
1.975367e+02	-2.370486e+01
1.986777e+02	-2.375354e+01
1.998252e+02	-2.380304e+01
2.009794e+02	-2.385424e+01
2.021403e+02	-2.390620e+01
2.033078e+02	-2.395115e+01
2.044821e+02	-2.400271e+01
2.056632e+02	-2.405574e+01
2.068511e+02	-2.410335e+01
2.080459e+02	-2.415357e+01
2.092475e+02	-2.420178e+01
2.104561e+02	-2.425112e+01
2.116717e+02	-2.430489e+01
2.128943e+02	-2.435237e+01
2.141240e+02	-2.440098e+01
2.153608e+02	-2.445265e+01
2.166047e+02	-2.450437e+01
2.178558e+02	-2.455233e+01
2.191141e+02	-2.460204e+01
2.203797e+02	-2.465341e+01
2.216526e+02	-2.470303e+01
2.229329e+02	-2.475191e+01
2.242205e+02	-2.479886e+01
2.255156e+02	-2.485253e+01
2.268182e+02	-2.490351e+01
2.281283e+02	-2.495452e+01
2.294459e+02	-2.499989e+01
2.307712e+02	-2.504874e+01
2.321041e+02	-2.510481e+01
2.334447e+02	-2.515107e+01
2.347931e+02	-2.520329e+01
2.361493e+02	-2.524865e+01
2.375133e+02	-2.529971e+01
2.388851e+02	-2.535112e+01
2.402649e+02	-2.540173e+01
2.416527e+02	-2.545402e+01
2.430484e+02	-2.550099e+01
2.444523e+02	-2.555310e+01
2.458642e+02	-2.559948e+01
2.472843e+02	-2.564834e+01
2.487126e+02	-2.569740e+01
2.501492e+02	-2.574962e+01
2.515940e+02	-2.579978e+01
2.530472e+02	-2.584999e+01
2.545088e+02	-2.590009e+01
2.559789e+02	-2.595075e+01
2.574574e+02	-2.599840e+01
2.589444e+02	-2.604578e+01
2.604401e+02	-2.609830e+01
2.619444e+02	-2.614589e+01
2.634574e+02	-2.619872e+01
2.649791e+02	-2.625197e+01
2.665096e+02	-2.629955e+01
2.680489e+02	-2.635185e+01
2.695972e+02	-2.639913e+01
2.711544e+02	-2.645172e+01
2.727205e+02	-2.649680e+01
2.742958e+02	-2.655030e+01
2.758801e+02	-2.659819e+01
2.774736e+02	-2.665114e+01
2.790762e+02	-2.669866e+01
2.806882e+02	-2.675554e+01
2.823094e+02	-2.680170e+01
2.839400e+02	-2.685110e+01
2.855800e+02	-2.690072e+01
2.872295e+02	-2.695032e+01
2.888886e+02	-2.700309e+01
2.905572e+02	-2.705019e+01
2.922354e+02	-2.710068e+01
2.939234e+02	-2.715076e+01
2.956211e+02	-2.719853e+01
2.973286e+02	-2.725079e+01
2.990459e+02	-2.729935e+01
3.007732e+02	-2.734895e+01
3.025104e+02	-2.740102e+01
3.042577e+02	-2.744590e+01
3.060151e+02	-2.750134e+01
3.077826e+02	-2.754927e+01
3.095604e+02	-2.759658e+01
3.113484e+02	-2.765549e+01
3.131467e+02	-2.770136e+01
3.149554e+02	-2.774988e+01
3.167746e+02	-2.779899e+01
3.186043e+02	-2.785033e+01
3.204445e+02	-2.789880e+01
3.222954e+02	-2.795262e+01
3.241570e+02	-2.799847e+01
3.260293e+02	-2.804736e+01
3.279124e+02	-2.809341e+01
3.298064e+02	-2.815231e+01
3.317114e+02	-2.819679e+01
3.336273e+02	-2.825005e+01
3.355544e+02	-2.830111e+01
3.374925e+02	-2.834548e+01
3.394418e+02	-2.839983e+01
3.414024e+02	-2.845088e+01
3.433744e+02	-2.850107e+01
3.453577e+02	-2.855058e+01
3.473525e+02	-2.859874e+01
3.493588e+02	-2.865440e+01
3.513766e+02	-2.869783e+01
3.534062e+02	-2.875127e+01
3.554474e+02	-2.879993e+01
3.575005e+02	-2.885261e+01
3.595654e+02	-2.890006e+01
3.616422e+02	-2.894828e+01
3.637311e+02	-2.900100e+01
3.658320e+02	-2.904932e+01
3.679450e+02	-2.909798e+01
3.700702e+02	-2.915236e+01
3.722077e+02	-2.920281e+01
3.743576e+02	-2.924682e+01
3.765199e+02	-2.929587e+01
3.786946e+02	-2.935210e+01
3.808820e+02	-2.940176e+01
3.830819e+02	-2.944656e+01
3.852946e+02	-2.949960e+01
3.875200e+02	-2.955317e+01
3.897583e+02	-2.960107e+01
3.920096e+02	-2.965407e+01
3.942738e+02	-2.969918e+01
3.965511e+02	-2.974974e+01
3.988416e+02	-2.980137e+01
4.011452e+02	-2.985296e+01
4.034622e+02	-2.990117e+01
4.057926e+02	-2.994828e+01
4.081365e+02	-3.000084e+01
4.104938e+02	-3.005035e+01
4.128648e+02	-3.010032e+01
4.152495e+02	-3.015050e+01
4.176480e+02	-3.020222e+01
4.200603e+02	-3.025093e+01
4.224866e+02	-3.030606e+01
4.249268e+02	-3.035253e+01
4.273812e+02	-3.040143e+01
4.298497e+02	-3.045587e+01
4.323325e+02	-3.050610e+01
4.348297e+02	-3.055187e+01
4.373412e+02	-3.060458e+01
4.398673e+02	-3.065124e+01
4.424079e+02	-3.069872e+01
4.449633e+02	-3.075807e+01
4.475334e+02	-3.080327e+01
4.501183e+02	-3.085358e+01
4.527182e+02	-3.090211e+01
4.553330e+02	-3.095576e+01
4.579630e+02	-3.100328e+01
4.606082e+02	-3.104760e+01
4.632687e+02	-3.110074e+01
4.659445e+02	-3.115060e+01
4.686358e+02	-3.120660e+01
4.713426e+02	-3.125963e+01
4.740650e+02	-3.130261e+01
4.768032e+02	-3.135594e+01
4.795572e+02	-3.140580e+01
4.823271e+02	-3.145840e+01
4.851130e+02	-3.150421e+01
4.879150e+02	-3.155136e+01
4.907332e+02	-3.160195e+01
4.935676e+02	-3.166063e+01
4.964185e+02	-3.170422e+01
4.992858e+02	-3.175856e+01
5.021696e+02	-3.180530e+01
5.050701e+02	-3.185700e+01
5.079874e+02	-3.190633e+01
5.109215e+02	-3.195505e+01
5.138726e+02	-3.200409e+01
5.168407e+02	-3.205521e+01
5.198259e+02	-3.211260e+01
5.228284e+02	-3.216058e+01
5.258482e+02	-3.220734e+01
5.288855e+02	-3.226184e+01
5.319403e+02	-3.230705e+01
5.350128e+02	-3.235729e+01
5.381030e+02	-3.241154e+01
5.412111e+02	-3.245723e+01
5.443371e+02	-3.250922e+01
5.474812e+02	-3.255684e+01
5.506434e+02	-3.261639e+01
5.538239e+02	-3.266181e+01
5.570228e+02	-3.271024e+01
5.602401e+02	-3.276181e+01
5.634760e+02	-3.280997e+01
5.667306e+02	-3.285582e+01
5.700040e+02	-3.291366e+01
5.732964e+02	-3.295669e+01
5.766077e+02	-3.301323e+01
5.799382e+02	-3.306325e+01
5.832879e+02	-3.311601e+01
5.866569e+02	-3.316105e+01
5.900454e+02	-3.321332e+01
5.934535e+02	-3.326896e+01
5.968813e+02	-3.331350e+01
6.003288e+02	-3.337137e+01
6.037963e+02	-3.341156e+01
6.072838e+02	-3.346575e+01
6.107914e+02	-3.351945e+01
6.143194e+02	-3.356382e+01
6.178676e+02	-3.361777e+01
6.214364e+02	-3.366306e+01
6.250258e+02	-3.372719e+01
6.286359e+02	-3.376791e+01
6.322669e+02	-3.381149e+01
6.359189e+02	-3.386462e+01
6.395919e+02	-3.391797e+01
6.432862e+02	-3.396535e+01
6.470017e+02	-3.401559e+01
6.507388e+02	-3.406291e+01
6.544974e+02	-3.412291e+01
6.582778e+02	-3.416398e+01
6.620800e+02	-3.421143e+01
6.659041e+02	-3.426871e+01
6.697504e+02	-3.431062e+01
6.736188e+02	-3.436107e+01
6.775096e+02	-3.442589e+01
6.814229e+02	-3.447524e+01
6.853587e+02	-3.451332e+01
6.893173e+02	-3.457189e+01
6.932988e+02	-3.462782e+01
6.973033e+02	-3.468011e+01
7.013309e+02	-3.473229e+01
