Frequency(Hz)	Magnitude(dB)
1.000000e+01	-2.067687e+00
1.005776e+01	-2.086741e+00
1.011585e+01	-2.105867e+00
1.017428e+01	-2.125211e+00
1.023305e+01	-2.144827e+00
1.029215e+01	-2.164006e+00
1.035160e+01	-2.183686e+00
1.041139e+01	-2.203626e+00
1.047153e+01	-2.223615e+00
1.053201e+01	-2.243701e+00
1.059284e+01	-2.263940e+00
1.065403e+01	-2.284519e+00
1.071556e+01	-2.304930e+00
1.077746e+01	-2.325661e+00
1.083971e+01	-2.346527e+00
1.090232e+01	-2.367519e+00
1.096529e+01	-2.388345e+00
1.102862e+01	-2.409643e+00
1.109232e+01	-2.431107e+00
1.115639e+01	-2.452646e+00
1.122083e+01	-2.474179e+00
1.128564e+01	-2.496046e+00
1.135083e+01	-2.517946e+00
1.141639e+01	-2.539847e+00
1.148233e+01	-2.562271e+00
1.154865e+01	-2.584854e+00
1.161536e+01	-2.607396e+00
1.168245e+01	-2.629841e+00
1.174992e+01	-2.652598e+00
1.181779e+01	-2.675598e+00
1.188605e+01	-2.698814e+00
1.195470e+01	-2.721720e+00
1.202375e+01	-2.745112e+00
1.209320e+01	-2.768674e+00
1.216305e+01	-2.792290e+00
1.223330e+01	-2.816239e+00
1.230396e+01	-2.840023e+00
1.237503e+01	-2.864221e+00
1.244651e+01	-2.888400e+00
1.251840e+01	-2.912703e+00
1.259070e+01	-2.937460e+00
1.266343e+01	-2.961956e+00
1.273657e+01	-2.986846e+00
1.281014e+01	-3.011785e+00
1.288413e+01	-3.036844e+00
1.295855e+01	-3.062088e+00
1.303339e+01	-3.087774e+00
1.310867e+01	-3.113081e+00
1.318439e+01	-3.138683e+00
1.326054e+01	-3.164501e+00
1.333713e+01	-3.190603e+00
1.341417e+01	-3.216692e+00
1.349165e+01	-3.242903e+00
1.356958e+01	-3.269366e+00
1.364795e+01	-3.295425e+00
1.372678e+01	-3.322524e+00
1.380607e+01	-3.349201e+00
1.388581e+01	-3.376367e+00
1.396602e+01	-3.403342e+00
1.404668e+01	-3.430575e+00
1.412782e+01	-3.457969e+00
1.420942e+01	-3.485442e+00
1.429149e+01	-3.512961e+00
1.437404e+01	-3.540716e+00
1.445706e+01	-3.569130e+00
1.454057e+01	-3.596785e+00
1.462455e+01	-3.625318e+00
1.470902e+01	-3.653663e+00
1.479398e+01	-3.682240e+00
1.487943e+01	-3.711011e+00
1.496537e+01	-3.739469e+00
1.505181e+01	-3.768590e+00
1.513875e+01	-3.797732e+00
1.522619e+01	-3.826879e+00
1.531414e+01	-3.856212e+00
1.540259e+01	-3.885980e+00
1.549156e+01	-3.915326e+00
1.558103e+01	-3.945400e+00
1.567103e+01	-3.975264e+00
1.576155e+01	-4.005105e+00
1.585258e+01	-4.035663e+00
1.594415e+01	-4.065738e+00
1.603624e+01	-4.096108e+00
1.612886e+01	-4.126607e+00
1.622202e+01	-4.157820e+00
1.631572e+01	-4.188426e+00
1.640996e+01	-4.219271e+00
1.650474e+01	-4.250804e+00
1.660008e+01	-4.282023e+00
1.669596e+01	-4.313395e+00
1.679239e+01	-4.345046e+00
1.688938e+01	-4.376651e+00
1.698694e+01	-4.408633e+00
1.708505e+01	-4.440439e+00
1.718373e+01	-4.472670e+00
1.728299e+01	-4.504684e+00
1.738281e+01	-4.537029e+00
1.748322e+01	-4.569646e+00
1.758420e+01	-4.602402e+00
1.768576e+01	-4.634863e+00
1.778792e+01	-4.667993e+00
1.789066e+01	-4.700539e+00
1.799399e+01	-4.734160e+00
1.809793e+01	-4.767339e+00
1.820246e+01	-4.800542e+00
1.830760e+01	-4.834189e+00
1.841334e+01	-4.867878e+00
1.851969e+01	-4.901556e+00
1.862666e+01	-4.935676e+00
1.873425e+01	-4.969476e+00
1.884246e+01	-5.003752e+00
1.895129e+01	-5.038064e+00
1.906075e+01	-5.072537e+00
1.917085e+01	-5.107084e+00
1.928158e+01	-5.141595e+00
1.939295e+01	-5.176276e+00
1.950496e+01	-5.211273e+00
1.961762e+01	-5.246512e+00
1.973093e+01	-5.281677e+00
1.984490e+01	-5.316577e+00
1.995952e+01	-5.352141e+00
2.007480e+01	-5.387707e+00
2.019076e+01	-5.423154e+00
2.030738e+01	-5.458953e+00
2.042467e+01	-5.494764e+00
2.054264e+01	-5.530706e+00
2.066130e+01	-5.566974e+00
2.078064e+01	-5.603008e+00
2.090066e+01	-5.639160e+00
2.102139e+01	-5.675909e+00
2.114280e+01	-5.712281e+00
2.126492e+01	-5.749369e+00
2.138775e+01	-5.785527e+00
2.151128e+01	-5.822571e+00
2.163553e+01	-5.859897e+00
2.176050e+01	-5.896808e+00
2.188619e+01	-5.933953e+00
2.201260e+01	-5.971553e+00
2.213974e+01	-6.008617e+00
2.226762e+01	-6.046117e+00
2.239624e+01	-6.084001e+00
2.252560e+01	-6.121362e+00
2.265571e+01	-6.159146e+00
2.278656e+01	-6.197551e+00
2.291818e+01	-6.235453e+00
2.305055e+01	-6.273944e+00
2.318369e+01	-6.312197e+00
2.331760e+01	-6.350205e+00
2.345228e+01	-6.388618e+00
2.358774e+01	-6.427304e+00
2.372398e+01	-6.466406e+00
2.386101e+01	-6.505113e+00
2.399883e+01	-6.543930e+00
2.413745e+01	-6.582985e+00
2.427686e+01	-6.622113e+00
2.441709e+01	-6.660999e+00
2.455812e+01	-6.700354e+00
2.469997e+01	-6.739606e+00
2.484263e+01	-6.779369e+00
2.498612e+01	-6.818830e+00
2.513044e+01	-6.858244e+00
2.527559e+01	-6.898003e+00
2.542158e+01	-6.937807e+00
2.556842e+01	-6.978163e+00
2.571610e+01	-7.018095e+00
2.586463e+01	-7.058215e+00
2.601403e+01	-7.098440e+00
2.616428e+01	-7.138490e+00
2.631541e+01	-7.179247e+00
2.646740e+01	-7.219513e+00
2.662028e+01	-7.260305e+00
2.677404e+01	-7.300878e+00
2.692868e+01	-7.341738e+00
2.708422e+01	-7.382013e+00
2.724066e+01	-7.423147e+00
2.739800e+01	-7.464156e+00
2.755625e+01	-7.505254e+00
2.771541e+01	-7.546197e+00
2.787550e+01	-7.587659e+00
2.803650e+01	-7.629313e+00
2.819844e+01	-7.671077e+00
2.836131e+01	-7.712473e+00
2.852513e+01	-7.753910e+00
2.868989e+01	-7.795509e+00
2.885560e+01	-7.837354e+00
2.902227e+01	-7.879126e+00
2.918990e+01	-7.920836e+00
2.935850e+01	-7.963249e+00
2.952807e+01	-8.004991e+00
2.969863e+01	-8.047250e+00
2.987016e+01	-8.089990e+00
3.004269e+01	-8.131907e+00
3.021622e+01	-8.173707e+00
3.039075e+01	-8.216372e+00
3.056628e+01	-8.258930e+00
3.074283e+01	-8.301677e+00
3.092040e+01	-8.344165e+00
3.109900e+01	-8.387302e+00
3.127862e+01	-8.429914e+00
3.145929e+01	-8.472315e+00
3.164099e+01	-8.515909e+00
3.182375e+01	-8.558634e+00
3.200756e+01	-8.601612e+00
3.219244e+01	-8.645065e+00
3.237838e+01	-8.688045e+00
3.256540e+01	-8.731333e+00
3.275349e+01	-8.774531e+00
3.294268e+01	-8.818516e+00
3.313295e+01	-8.861705e+00
3.332433e+01	-8.904863e+00
3.351681e+01	-8.949273e+00
3.371040e+01	-8.992788e+00
3.390511e+01	-9.036140e+00
3.410094e+01	-9.079854e+00
3.429791e+01	-9.124139e+00
3.449601e+01	-9.167924e+00
3.469526e+01	-9.211803e+00
3.489566e+01	-9.256263e+00
3.509721e+01	-9.300522e+00
3.529993e+01	-9.344699e+00
3.550382e+01	-9.388609e+00
3.570889e+01	-9.432963e+00
3.591515e+01	-9.477161e+00
3.612259e+01	-9.522071e+00
3.633123e+01	-9.566210e+00
3.654108e+01	-9.610439e+00
3.675214e+01	-9.655321e+00
3.696442e+01	-9.699704e+00
3.717792e+01	-9.744463e+00
3.739266e+01	-9.789667e+00
3.760864e+01	-9.834197e+00
3.782587e+01	-9.878622e+00
3.804435e+01	-9.923650e+00
3.826409e+01	-9.967981e+00
3.848510e+01	-1.001424e+01
3.870739e+01	-1.005820e+01
3.893096e+01	-1.010379e+01
3.915583e+01	-1.014904e+01
3.938199e+01	-1.019492e+01
3.960946e+01	-1.023935e+01
3.983824e+01	-1.028551e+01
4.006834e+01	-1.033010e+01
4.029978e+01	-1.037565e+01
4.053255e+01	-1.042072e+01
4.076666e+01	-1.046649e+01
4.100213e+01	-1.051239e+01
4.123896e+01	-1.055804e+01
4.147715e+01	-1.060377e+01
4.171672e+01	-1.064893e+01
4.195767e+01	-1.069536e+01
4.220002e+01	-1.074119e+01
4.244377e+01	-1.078637e+01
4.268892e+01	-1.083212e+01
4.293549e+01	-1.087856e+01
4.318348e+01	-1.092430e+01
4.343291e+01	-1.097054e+01
4.368377e+01	-1.101632e+01
4.393609e+01	-1.106248e+01
4.418986e+01	-1.110865e+01
4.444510e+01	-1.115489e+01
4.470182e+01	-1.120133e+01
4.496001e+01	-1.124753e+01
4.521970e+01	-1.129314e+01
4.548089e+01	-1.133992e+01
4.574358e+01	-1.138669e+01
4.600779e+01	-1.143241e+01
4.627353e+01	-1.147917e+01
4.654081e+01	-1.152505e+01
4.680963e+01	-1.157228e+01
4.708000e+01	-1.161844e+01
4.735193e+01	-1.166502e+01
4.762543e+01	-1.171183e+01
4.790051e+01	-1.175872e+01
4.817719e+01	-1.180542e+01
4.845545e+01	-1.185203e+01
4.873533e+01	-1.189838e+01
4.901682e+01	-1.194577e+01
4.929994e+01	-1.199184e+01
4.958470e+01	-1.203985e+01
4.987110e+01	-1.208677e+01
5.015915e+01	-1.213340e+01
5.044887e+01	-1.218057e+01
5.074026e+01	-1.222744e+01
5.103333e+01	-1.227379e+01
5.132810e+01	-1.232153e+01
5.162457e+01	-1.236841e+01
5.192275e+01	-1.241559e+01
5.222265e+01	-1.246308e+01
5.252429e+01	-1.251000e+01
5.282767e+01	-1.255747e+01
5.313280e+01	-1.260453e+01
5.343969e+01	-1.265212e+01
5.374836e+01	-1.269955e+01
5.405880e+01	-1.274694e+01
5.437105e+01	-1.279389e+01
5.468509e+01	-1.284072e+01
5.500095e+01	-1.288889e+01
5.531863e+01	-1.293606e+01
5.563815e+01	-1.298229e+01
5.595951e+01	-1.303132e+01
5.628273e+01	-1.307896e+01
5.660782e+01	-1.312625e+01
5.693479e+01	-1.317427e+01
5.726364e+01	-1.322122e+01
5.759439e+01	-1.326913e+01
5.792705e+01	-1.331677e+01
5.826164e+01	-1.336410e+01
5.859815e+01	-1.341260e+01
5.893662e+01	-1.346042e+01
5.927703e+01	-1.350812e+01
5.961941e+01	-1.355498e+01
5.996377e+01	-1.360300e+01
6.031012e+01	-1.365103e+01
6.065847e+01	-1.369886e+01
6.100883e+01	-1.374681e+01
6.136121e+01	-1.379488e+01
6.171563e+01	-1.384365e+01
6.207210e+01	-1.389135e+01
6.243063e+01	-1.393850e+01
6.279122e+01	-1.398710e+01
6.315390e+01	-1.403473e+01
6.351868e+01	-1.408302e+01
6.388556e+01	-1.413069e+01
6.425456e+01	-1.417961e+01
6.462569e+01	-1.422733e+01
6.499897e+01	-1.427541e+01
6.537440e+01	-1.432359e+01
6.575200e+01	-1.437225e+01
6.613178e+01	-1.441972e+01
6.651375e+01	-1.446834e+01
6.689793e+01	-1.451666e+01
6.728433e+01	-1.456535e+01
6.767297e+01	-1.461334e+01
6.806384e+01	-1.466150e+01
6.845698e+01	-1.471051e+01
6.885238e+01	-1.475798e+01
6.925007e+01	-1.480608e+01
6.965005e+01	-1.485548e+01
7.005235e+01	-1.490357e+01
7.045697e+01	-1.495177e+01
7.086393e+01	-1.500016e+01
7.127323e+01	-1.504898e+01
7.168490e+01	-1.509756e+01
7.209895e+01	-1.514431e+01
7.251539e+01	-1.519407e+01
7.293424e+01	-1.524293e+01
7.335551e+01	-1.529123e+01
7.377920e+01	-1.533918e+01
7.420535e+01	-1.538775e+01
7.463396e+01	-1.543755e+01
7.506504e+01	-1.548446e+01
7.549861e+01	-1.553484e+01
7.593469e+01	-1.558275e+01
7.637328e+01	-1.563123e+01
7.681441e+01	-1.567906e+01
7.725809e+01	-1.572867e+01
7.770433e+01	-1.577731e+01
7.815315e+01	-1.582599e+01
7.860456e+01	-1.587567e+01
7.905857e+01	-1.592407e+01
7.951521e+01	-1.597208e+01
7.997449e+01	-1.601935e+01
8.043642e+01	-1.607036e+01
8.090102e+01	-1.611848e+01
8.136830e+01	-1.616728e+01
8.183828e+01	-1.621617e+01
8.231097e+01	-1.626534e+01
8.278640e+01	-1.631513e+01
8.326457e+01	-1.636233e+01
8.374550e+01	-1.641229e+01
8.422921e+01	-1.646068e+01
8.471572e+01	-1.651020e+01
8.520503e+01	-1.655873e+01
8.569717e+01	-1.660758e+01
8.619215e+01	-1.665683e+01
8.669000e+01	-1.670560e+01
8.719071e+01	-1.675440e+01
8.769432e+01	-1.680311e+01
8.820084e+01	-1.685300e+01
8.871029e+01	-1.690113e+01
8.922267e+01	-1.694920e+01
8.973802e+01	-1.699894e+01
9.025634e+01	-1.704821e+01
9.077766e+01	-1.709812e+01
9.130199e+01	-1.714656e+01
9.182935e+01	-1.719666e+01
9.235975e+01	-1.724494e+01
9.289321e+01	-1.729392e+01
9.342976e+01	-1.734260e+01
9.396941e+01	-1.739259e+01
9.451217e+01	-1.743973e+01
9.505807e+01	-1.749110e+01
9.560712e+01	-1.753952e+01
9.615934e+01	-1.758891e+01
9.671476e+01	-1.763780e+01
9.727338e+01	-1.768584e+01
9.783522e+01	-1.773597e+01
9.840032e+01	-1.778450e+01
9.896867e+01	-1.783620e+01
9.954031e+01	-1.788432e+01
1.001153e+02	-1.793321e+01
1.006935e+02	-1.798196e+01
1.012751e+02	-1.803141e+01
1.018601e+02	-1.807983e+01
1.024484e+02	-1.812883e+01
1.030402e+02	-1.817963e+01
1.036353e+02	-1.822855e+01
1.042339e+02	-1.827723e+01
1.048360e+02	-1.832634e+01
1.054415e+02	-1.837648e+01
1.060505e+02	-1.842534e+01
1.066631e+02	-1.847658e+01
1.072791e+02	-1.852479e+01
1.078988e+02	-1.857467e+01
1.085220e+02	-1.862260e+01
1.091488e+02	-1.867119e+01
1.097793e+02	-1.872103e+01
1.104133e+02	-1.877053e+01
1.110511e+02	-1.882050e+01
1.116925e+02	-1.886990e+01
1.123376e+02	-1.891870e+01
1.129865e+02	-1.896972e+01
1.136391e+02	-1.901638e+01
1.142955e+02	-1.906647e+01
1.149556e+02	-1.911645e+01
1.156196e+02	-1.916503e+01
1.162874e+02	-1.921678e+01
1.169591e+02	-1.926364e+01
1.176347e+02	-1.931433e+01
1.183141e+02	-1.936338e+01
1.189975e+02	-1.941350e+01
1.196848e+02	-1.946240e+01
1.203761e+02	-1.951140e+01
1.210714e+02	-1.956198e+01
1.217707e+02	-1.961174e+01
1.224740e+02	-1.966103e+01
1.231814e+02	-1.970945e+01
1.238929e+02	-1.975984e+01
1.246085e+02	-1.980919e+01
1.253283e+02	-1.985863e+01
1.260522e+02	-1.990972e+01
1.267802e+02	-1.995853e+01
1.275125e+02	-2.000930e+01
1.282490e+02	-2.005721e+01
1.289898e+02	-2.010493e+01
1.297348e+02	-2.015615e+01
1.304842e+02	-2.020532e+01
1.312378e+02	-2.025284e+01
1.319959e+02	-2.030430e+01
1.327583e+02	-2.035401e+01
1.335251e+02	-2.040401e+01
1.342963e+02	-2.045447e+01
1.350720e+02	-2.050173e+01
1.358522e+02	-2.055272e+01
1.366368e+02	-2.060138e+01
1.374260e+02	-2.065184e+01
1.382198e+02	-2.070062e+01
1.390182e+02	-2.075060e+01
1.398211e+02	-2.080081e+01
1.406287e+02	-2.085030e+01
1.414410e+02	-2.090113e+01
1.422579e+02	-2.094931e+01
1.430796e+02	-2.099896e+01
1.439060e+02	-2.104927e+01
1.447372e+02	-2.109765e+01
1.455732e+02	-2.114730e+01
1.464141e+02	-2.119671e+01
1.472597e+02	-2.124707e+01
1.481103e+02	-2.129640e+01
1.489658e+02	-2.134649e+01
1.498262e+02	-2.139756e+01
1.506916e+02	-2.144503e+01
1.515620e+02	-2.149252e+01
1.524374e+02	-2.154521e+01
1.533179e+02	-2.159567e+01
1.542034e+02	-2.164498e+01
1.550941e+02	-2.169478e+01
1.559899e+02	-2.174547e+01
1.568909e+02	-2.179363e+01
1.577971e+02	-2.184462e+01
1.587085e+02	-2.189295e+01
1.596252e+02	-2.194259e+01
1.605472e+02	-2.199309e+01
1.614745e+02	-2.204328e+01
1.624072e+02	-2.209107e+01
1.633453e+02	-2.213948e+01
1.642887e+02	-2.219125e+01
1.652377e+02	-2.224080e+01
1.661921e+02	-2.228927e+01
1.671520e+02	-2.234313e+01
1.681175e+02	-2.239152e+01
1.690885e+02	-2.243903e+01
1.700651e+02	-2.249238e+01
1.710474e+02	-2.254123e+01
1.720354e+02	-2.258945e+01
1.730291e+02	-2.263974e+01
1.740285e+02	-2.269023e+01
1.750337e+02	-2.273864e+01
1.760446e+02	-2.278947e+01
1.770615e+02	-2.284029e+01
1.780842e+02	-2.288959e+01
1.791128e+02	-2.293852e+01
1.801473e+02	-2.298800e+01
1.811878e+02	-2.303862e+01
1.822344e+02	-2.308640e+01
1.832870e+02	-2.313916e+01
1.843456e+02	-2.318815e+01
1.854104e+02	-2.323638e+01
1.864813e+02	-2.328645e+01
1.875584e+02	-2.333765e+01
1.886418e+02	-2.338524e+01
1.897313e+02	-2.343746e+01
1.908272e+02	-2.348667e+01
1.919294e+02	-2.353691e+01
1.930380e+02	-2.358724e+01
1.941530e+02	-2.363557e+01
1.952744e+02	-2.368532e+01
1.964023e+02	-2.373335e+01
1.975367e+02	-2.378420e+01
1.986777e+02	-2.383463e+01
1.998252e+02	-2.388641e+01
2.009794e+02	-2.393437e+01
2.021403e+02	-2.398406e+01
2.033078e+02	-2.403391e+01
2.044821e+02	-2.408485e+01
2.056632e+02	-2.413467e+01
2.068511e+02	-2.418148e+01
2.080459e+02	-2.423529e+01
2.092475e+02	-2.428482e+01
2.104561e+02	-2.433536e+01
2.116717e+02	-2.438370e+01
2.128943e+02	-2.443499e+01
2.141240e+02	-2.448422e+01
2.153608e+02	-2.453713e+01
2.166047e+02	-2.458494e+01
2.178558e+02	-2.463097e+01
2.191141e+02	-2.468350e+01
2.203797e+02	-2.473170e+01
2.216526e+02	-2.478140e+01
2.229329e+02	-2.483325e+01
2.242205e+02	-2.488199e+01
2.255156e+02	-2.493106e+01
2.268182e+02	-2.498085e+01
2.281283e+02	-2.503419e+01
2.294459e+02	-2.508211e+01
2.307712e+02	-2.513422e+01
2.321041e+02	-2.517939e+01
2.334447e+02	-2.522948e+01
2.347931e+02	-2.528107e+01
2.361493e+02	-2.533219e+01
2.375133e+02	-2.538038e+01
2.388851e+02	-2.543483e+01
2.402649e+02	-2.548247e+01
2.416527e+02	-2.553206e+01
2.430484e+02	-2.558145e+01
2.444523e+02	-2.562948e+01
2.458642e+02	-2.568212e+01
2.472843e+02	-2.573211e+01
2.487126e+02	-2.577982e+01
2.501492e+02	-2.582915e+01
2.515940e+02	-2.588142e+01
2.530472e+02	-2.592978e+01
2.545088e+02	-2.598102e+01
2.559789e+02	-2.603227e+01
2.574574e+02	-2.608054e+01
2.589444e+02	-2.613068e+01
2.604401e+02	-2.617792e+01
2.619444e+02	-2.622639e+01
2.634574e+02	-2.628138e+01
2.649791e+02	-2.633089e+01
2.665096e+02	-2.637983e+01
2.680489e+02	-2.643033e+01
2.695972e+02	-2.647921e+01
2.711544e+02	-2.652694e+01
2.727205e+02	-2.657887e+01
2.742958e+02	-2.662632e+01
2.758801e+02	-2.667437e+01
2.774736e+02	-2.672994e+01
2.790762e+02	-2.678013e+01
2.806882e+02	-2.682980e+01
2.823094e+02	-2.688125e+01
2.839400e+02	-2.692959e+01
2.855800e+02	-2.698404e+01
2.872295e+02	-2.702860e+01
2.888886e+02	-2.708064e+01
2.905572e+02	-2.713236e+01
2.922354e+02	-2.718299e+01
2.939234e+02	-2.722919e+01
2.956211e+02	-2.728192e+01
2.973286e+02	-2.733090e+01
2.990459e+02	-2.737964e+01
3.007732e+02	-2.742843e+01
3.025104e+02	-2.748076e+01
3.042577e+02	-2.752864e+01
3.060151e+02	-2.757735e+01
3.077826e+02	-2.762833e+01
3.095604e+02	-2.768233e+01
3.113484e+02	-2.773208e+01
3.131467e+02	-2.777448e+01
3.149554e+02	-2.782991e+01
3.167746e+02	-2.787863e+01
3.186043e+02	-2.793232e+01
3.204445e+02	-2.797537e+01
3.222954e+02	-2.802945e+01
3.241570e+02	-2.807863e+01
3.260293e+02	-2.813272e+01
3.279124e+02	-2.818232e+01
3.298064e+02	-2.823003e+01
3.317114e+02	-2.828098e+01
3.336273e+02	-2.832948e+01
3.355544e+02	-2.838391e+01
3.374925e+02	-2.843044e+01
3.394418e+02	-2.848236e+01
3.414024e+02	-2.853036e+01
3.433744e+02	-2.857731e+01
3.453577e+02	-2.862890e+01
3.473525e+02	-2.867967e+01
3.493588e+02	-2.873195e+01
3.513766e+02	-2.878167e+01
3.534062e+02	-2.883044e+01
3.554474e+02	-2.888465e+01
3.575005e+02	-2.893188e+01
3.595654e+02	-2.898139e+01
3.616422e+02	-2.902792e+01
3.637311e+02	-2.908430e+01
3.658320e+02	-2.913152e+01
3.679450e+02	-2.918003e+01
3.700702e+02	-2.923004e+01
3.722077e+02	-2.927879e+01
3.743576e+02	-2.933376e+01
3.765199e+02	-2.938761e+01
3.786946e+02	-2.942783e+01
3.808820e+02	-2.948144e+01
3.830819e+02	-2.953217e+01
3.852946e+02	-2.958241e+01
3.875200e+02	-2.962827e+01
3.897583e+02	-2.967929e+01
3.920096e+02	-2.972783e+01
3.942738e+02	-2.978463e+01
3.965511e+02	-2.983329e+01
3.988416e+02	-2.988036e+01
4.011452e+02	-2.992652e+01
4.034622e+02	-2.997852e+01
4.057926e+02	-3.002840e+01
4.081365e+02	-3.007781e+01
4.104938e+02	-3.013469e+01
4.128648e+02	-3.018083e+01
4.152495e+02	-3.023639e+01
4.176480e+02	-3.028310e+01
4.200603e+02	-3.033259e+01
4.224866e+02	-3.038594e+01
4.249268e+02	-3.043216e+01
4.273812e+02	-3.048277e+01
4.298497e+02	-3.053717e+01
4.323325e+02	-3.057867e+01
4.348297e+02	-3.063442e+01
4.373412e+02	-3.068075e+01
4.398673e+02	-3.073155e+01
4.424079e+02	-3.078780e+01
4.449633e+02	-3.084256e+01
4.475334e+02	-3.088264e+01
4.501183e+02	-3.093132e+01
4.527182e+02	-3.098836e+01
4.553330e+02	-3.103202e+01
4.579630e+02	-3.108301e+01
4.606082e+02	-3.113471e+01
4.632687e+02	-3.118668e+01
4.659445e+02	-3.123285e+01
4.686358e+02	-3.128144e+01
4.713426e+02	-3.133143e+01
4.740650e+02	-3.138648e+01
4.768032e+02	-3.143777e+01
4.795572e+02	-3.148203e+01
4.823271e+02	-3.153887e+01
4.851130e+02	-3.158985e+01
4.879150e+02	-3.163744e+01
4.907332e+02	-3.168868e+01
4.935676e+02	-3.173479e+01
4.964185e+02	-3.178763e+01
4.992858e+02	-3.183508e+01
5.021696e+02	-3.188451e+01
5.050701e+02	-3.194377e+01
5.079874e+02	-3.199100e+01
5.109215e+02	-3.203532e+01
5.138726e+02	-3.208544e+01
5.168407e+02	-3.213812e+01
5.198259e+02	-3.218427e+01
5.228284e+02	-3.223707e+01
5.258482e+02	-3.228566e+01
5.288855e+02	-3.233608e+01
5.319403e+02	-3.239413e+01
5.350128e+02	-3.243657e+01
5.381030e+02	-3.248655e+01
5.412111e+02	-3.253861e+01
5.443371e+02	-3.258938e+01
5.474812e+02	-3.263688e+01
5.506434e+02	-3.269099e+01
5.538239e+02	-3.273494e+01
5.570228e+02	-3.279482e+01
5.602401e+02	-3.283992e+01
5.634760e+02	-3.289592e+01
5.667306e+02	-3.294109e+01
5.700040e+02	-3.299111e+01
5.732964e+02	-3.304190e+01
5.766077e+02	-3.308712e+01
5.799382e+02	-3.314360e+01
5.832879e+02	-3.319071e+01
5.866569e+02	-3.324325e+01
5.900454e+02	-3.328585e+01
5.934535e+02	-3.334162e+01
5.968813e+02	-3.339056e+01
6.003288e+02	-3.343754e+01
6.037963e+02	-3.349174e+01
6.072838e+02	-3.354292e+01
6.107914e+02	-3.360782e+01
6.143194e+02	-3.364257e+01
6.178676e+02	-3.369573e+01
6.214364e+02	-3.374762e+01
6.250258e+02	-3.379384e+01
6.286359e+02	-3.384178e+01
6.322669e+02	-3.388849e+01
6.359189e+02	-3.394686e+01
6.395919e+02	-3.399744e+01
6.432862e+02	-3.404909e+01
6.470017e+02	-3.410278e+01
6.507388e+02	-3.414644e+01
6.544974e+02	-3.420401e+01
6.582778e+02	-3.424611e+01
6.620800e+02	-3.429187e+01
6.659041e+02	-3.435199e+01
6.697504e+02	-3.439884e+01
6.736188e+02	-3.444210e+01
6.775096e+02	-3.449719e+01
6.814229e+02	-3.454856e+01
6.853587e+02	-3.460888e+01
6.893173e+02	-3.465213e+01
6.932988e+02	-3.470894e+01
6.973033e+02	-3.474662e+01
7.013309e+02	-3.479698e+01
