Frequency(Hz)	Magnitude(dB)
1.000000e+01	-2.262456e+00
1.005776e+01	-2.282970e+00
1.011585e+01	-2.303723e+00
1.017428e+01	-2.324059e+00
1.023305e+01	-2.344926e+00
1.029215e+01	-2.365818e+00
1.035160e+01	-2.386911e+00
1.041139e+01	-2.407923e+00
1.047153e+01	-2.429704e+00
1.053201e+01	-2.450867e+00
1.059284e+01	-2.472700e+00
1.065403e+01	-2.494409e+00
1.071556e+01	-2.516592e+00
1.077746e+01	-2.538272e+00
1.083971e+01	-2.560512e+00
1.090232e+01	-2.583081e+00
1.096529e+01	-2.605467e+00
1.102862e+01	-2.627966e+00
1.109232e+01	-2.651098e+00
1.115639e+01	-2.673917e+00
1.122083e+01	-2.696958e+00
1.128564e+01	-2.720246e+00
1.135083e+01	-2.743561e+00
1.141639e+01	-2.766974e+00
1.148233e+01	-2.790774e+00
1.154865e+01	-2.814420e+00
1.161536e+01	-2.838392e+00
1.168245e+01	-2.862416e+00
1.174992e+01	-2.886543e+00
1.181779e+01	-2.911075e+00
1.188605e+01	-2.935457e+00
1.195470e+01	-2.960230e+00
1.202375e+01	-2.984679e+00
1.209320e+01	-3.009867e+00
1.216305e+01	-3.035136e+00
1.223330e+01	-3.060083e+00
1.230396e+01	-3.085519e+00
1.237503e+01	-3.110949e+00
1.244651e+01	-3.136699e+00
1.251840e+01	-3.162399e+00
1.259070e+01	-3.188733e+00
1.266343e+01	-3.214636e+00
1.273657e+01	-3.240685e+00
1.281014e+01	-3.267115e+00
1.288413e+01	-3.293708e+00
1.295855e+01	-3.320332e+00
1.303339e+01	-3.347195e+00
1.310867e+01	-3.374060e+00
1.318439e+01	-3.401301e+00
1.326054e+01	-3.428469e+00
1.333713e+01	-3.456059e+00
1.341417e+01	-3.483222e+00
1.349165e+01	-3.511150e+00
1.356958e+01	-3.538744e+00
1.364795e+01	-3.566926e+00
1.372678e+01	-3.594748e+00
1.380607e+01	-3.623106e+00
1.388581e+01	-3.651349e+00
1.396602e+01	-3.679851e+00
1.404668e+01	-3.708700e+00
1.412782e+01	-3.737439e+00
1.420942e+01	-3.766424e+00
1.429149e+01	-3.795735e+00
1.437404e+01	-3.824718e+00
1.445706e+01	-3.854202e+00
1.454057e+01	-3.883557e+00
1.462455e+01	-3.913288e+00
1.470902e+01	-3.943018e+00
1.479398e+01	-3.972969e+00
1.487943e+01	-4.003273e+00
1.496537e+01	-4.033243e+00
1.505181e+01	-4.063399e+00
1.513875e+01	-4.093950e+00
1.522619e+01	-4.124660e+00
1.531414e+01	-4.155363e+00
1.540259e+01	-4.186047e+00
1.549156e+01	-4.217058e+00
1.558103e+01	-4.248369e+00
1.567103e+01	-4.279577e+00
1.576155e+01	-4.311075e+00
1.585258e+01	-4.342262e+00
1.594415e+01	-4.373990e+00
1.603624e+01	-4.406217e+00
1.612886e+01	-4.438030e+00
1.622202e+01	-4.469913e+00
1.631572e+01	-4.502445e+00
1.640996e+01	-4.534573e+00
1.650474e+01	-4.567276e+00
1.660008e+01	-4.600018e+00
1.669596e+01	-4.632442e+00
1.679239e+01	-4.665638e+00
1.688938e+01	-4.698437e+00
1.698694e+01	-4.731487e+00
1.708505e+01	-4.764598e+00
1.718373e+01	-4.798346e+00
1.728299e+01	-4.831693e+00
1.738281e+01	-4.865272e+00
1.748322e+01	-4.899136e+00
1.758420e+01	-4.933074e+00
1.768576e+01	-4.967035e+00
1.778792e+01	-5.001407e+00
1.789066e+01	-5.035452e+00
1.799399e+01	-5.070004e+00
1.809793e+01	-5.104233e+00
1.820246e+01	-5.138855e+00
1.830760e+01	-5.173692e+00
1.841334e+01	-5.208716e+00
1.851969e+01	-5.243527e+00
1.862666e+01	-5.278856e+00
1.873425e+01	-5.314278e+00
1.884246e+01	-5.349402e+00
1.895129e+01	-5.384957e+00
1.906075e+01	-5.420702e+00
1.917085e+01	-5.456114e+00
1.928158e+01	-5.491966e+00
1.939295e+01	-5.528078e+00
1.950496e+01	-5.564274e+00
1.961762e+01	-5.600385e+00
1.973093e+01	-5.636875e+00
1.984490e+01	-5.673258e+00
1.995952e+01	-5.709901e+00
2.007480e+01	-5.746065e+00
2.019076e+01	-5.783010e+00
2.030738e+01	-5.819748e+00
2.042467e+01	-5.857014e+00
2.054264e+01	-5.893644e+00
2.066130e+01	-5.930956e+00
2.078064e+01	-5.968562e+00
2.090066e+01	-6.005816e+00
2.102139e+01	-6.043266e+00
2.114280e+01	-6.081173e+00
2.126492e+01	-6.118929e+00
2.138775e+01	-6.156604e+00
2.151128e+01	-6.194513e+00
2.163553e+01	-6.232560e+00
2.176050e+01	-6.270750e+00
2.188619e+01	-6.309038e+00
2.201260e+01	-6.347600e+00
2.213974e+01	-6.385826e+00
2.226762e+01	-6.424588e+00
2.239624e+01	-6.463026e+00
2.252560e+01	-6.501786e+00
2.265571e+01	-6.540904e+00
2.278656e+01	-6.579844e+00
2.291818e+01	-6.618868e+00
2.305055e+01	-6.658318e+00
2.318369e+01	-6.697804e+00
2.331760e+01	-6.736778e+00
2.345228e+01	-6.776191e+00
2.358774e+01	-6.815700e+00
2.372398e+01	-6.855499e+00
2.386101e+01	-6.894914e+00
2.399883e+01	-6.935220e+00
2.413745e+01	-6.974852e+00
2.427686e+01	-7.015165e+00
2.441709e+01	-7.054998e+00
2.455812e+01	-7.095195e+00
2.469997e+01	-7.135480e+00
2.484263e+01	-7.176454e+00
2.498612e+01	-7.216674e+00
2.513044e+01	-7.257329e+00
2.527559e+01	-7.297448e+00
2.542158e+01	-7.338241e+00
2.556842e+01	-7.379439e+00
2.571610e+01	-7.420076e+00
2.586463e+01	-7.461652e+00
2.601403e+01	-7.502372e+00
2.616428e+01	-7.543468e+00
2.631541e+01	-7.585105e+00
2.646740e+01	-7.626287e+00
2.662028e+01	-7.667587e+00
2.677404e+01	-7.709321e+00
2.692868e+01	-7.750634e+00
2.708422e+01	-7.792230e+00
2.724066e+01	-7.834513e+00
2.739800e+01	-7.875994e+00
2.755625e+01	-7.918127e+00
2.771541e+01	-7.960099e+00
2.787550e+01	-8.001878e+00
2.803650e+01	-8.044035e+00
2.819844e+01	-8.086772e+00
2.836131e+01	-8.128609e+00
2.852513e+01	-8.170873e+00
2.868989e+01	-8.213231e+00
2.885560e+01	-8.256158e+00
2.902227e+01	-8.298281e+00
2.918990e+01	-8.341357e+00
2.935850e+01	-8.383645e+00
2.952807e+01	-8.426385e+00
2.969863e+01	-8.469659e+00
2.987016e+01	-8.512679e+00
3.004269e+01	-8.555666e+00
3.021622e+01	-8.599039e+00
3.039075e+01	-8.641143e+00
3.056628e+01	-8.684879e+00
3.074283e+01	-8.727853e+00
3.092040e+01	-8.771735e+00
3.109900e+01	-8.814795e+00
3.127862e+01	-8.858665e+00
3.145929e+01	-8.902000e+00
3.164099e+01	-8.945480e+00
3.182375e+01	-8.989616e+00
3.200756e+01	-9.033121e+00
3.219244e+01	-9.077204e+00
3.237838e+01	-9.121216e+00
3.256540e+01	-9.164897e+00
3.275349e+01	-9.208238e+00
3.294268e+01	-9.252846e+00
3.313295e+01	-9.296952e+00
3.332433e+01	-9.340780e+00
3.351681e+01	-9.385684e+00
3.371040e+01	-9.430171e+00
3.390511e+01	-9.474191e+00
3.410094e+01	-9.518258e+00
3.429791e+01	-9.562871e+00
3.449601e+01	-9.606747e+00
3.469526e+01	-9.652294e+00
3.489566e+01	-9.696360e+00
3.509721e+01	-9.741028e+00
3.529993e+01	-9.785918e+00
3.550382e+01	-9.830748e+00
3.570889e+01	-9.875562e+00
3.591515e+01	-9.920246e+00
3.612259e+01	-9.965341e+00
3.633123e+01	-1.001057e+01
3.654108e+01	-1.005523e+01
3.675214e+01	-1.010075e+01
3.696442e+01	-1.014574e+01
3.717792e+01	-1.019177e+01
3.739266e+01	-1.023635e+01
3.760864e+01	-1.028174e+01
3.782587e+01	-1.032701e+01
3.804435e+01	-1.037211e+01
3.826409e+01	-1.041755e+01
3.848510e+01	-1.046366e+01
3.870739e+01	-1.050867e+01
3.893096e+01	-1.055430e+01
3.915583e+01	-1.060002e+01
3.938199e+01	-1.064547e+01
3.960946e+01	-1.069156e+01
3.983824e+01	-1.073709e+01
4.006834e+01	-1.078350e+01
4.029978e+01	-1.082953e+01
4.053255e+01	-1.087504e+01
4.076666e+01	-1.092118e+01
4.100213e+01	-1.096750e+01
4.123896e+01	-1.101264e+01
4.147715e+01	-1.105883e+01
4.171672e+01	-1.110520e+01
4.195767e+01	-1.115178e+01
4.220002e+01	-1.119754e+01
4.244377e+01	-1.124408e+01
4.268892e+01	-1.129033e+01
4.293549e+01	-1.133645e+01
4.318348e+01	-1.138251e+01
4.343291e+01	-1.142876e+01
4.368377e+01	-1.147509e+01
4.393609e+01	-1.152287e+01
4.418986e+01	-1.156842e+01
4.444510e+01	-1.161516e+01
4.470182e+01	-1.166163e+01
4.496001e+01	-1.170814e+01
4.521970e+01	-1.175520e+01
4.548089e+01	-1.180189e+01
4.574358e+01	-1.184905e+01
4.600779e+01	-1.189549e+01
4.627353e+01	-1.194236e+01
4.654081e+01	-1.198928e+01
4.680963e+01	-1.203584e+01
4.708000e+01	-1.208288e+01
4.735193e+01	-1.212997e+01
4.762543e+01	-1.217676e+01
4.790051e+01	-1.222411e+01
4.817719e+01	-1.227123e+01
4.845545e+01	-1.231891e+01
4.873533e+01	-1.236494e+01
4.901682e+01	-1.241213e+01
4.929994e+01	-1.245962e+01
4.958470e+01	-1.250660e+01
4.987110e+01	-1.255419e+01
5.015915e+01	-1.260155e+01
5.044887e+01	-1.264821e+01
5.074026e+01	-1.269548e+01
5.103333e+01	-1.274310e+01
5.132810e+01	-1.279031e+01
5.162457e+01	-1.283762e+01
5.192275e+01	-1.288530e+01
5.222265e+01	-1.293198e+01
5.252429e+01	-1.297995e+01
5.282767e+01	-1.302783e+01
5.313280e+01	-1.307493e+01
5.343969e+01	-1.312245e+01
5.374836e+01	-1.317042e+01
5.405880e+01	-1.321838e+01
5.437105e+01	-1.326608e+01
5.468509e+01	-1.331328e+01
5.500095e+01	-1.336097e+01
5.531863e+01	-1.340915e+01
5.563815e+01	-1.345669e+01
5.595951e+01	-1.350403e+01
5.628273e+01	-1.355239e+01
5.660782e+01	-1.360072e+01
5.693479e+01	-1.364753e+01
5.726364e+01	-1.369529e+01
5.759439e+01	-1.374387e+01
5.792705e+01	-1.379150e+01
5.826164e+01	-1.383925e+01
5.859815e+01	-1.388710e+01
5.893662e+01	-1.393613e+01
5.927703e+01	-1.398360e+01
5.961941e+01	-1.403162e+01
5.996377e+01	-1.407963e+01
6.031012e+01	-1.412798e+01
6.065847e+01	-1.417618e+01
6.100883e+01	-1.422442e+01
6.136121e+01	-1.427132e+01
6.171563e+01	-1.431964e+01
6.207210e+01	-1.436845e+01
6.243063e+01	-1.441659e+01
6.279122e+01	-1.446437e+01
6.315390e+01	-1.451350e+01
6.351868e+01	-1.456152e+01
6.388556e+01	-1.460918e+01
6.425456e+01	-1.465799e+01
6.462569e+01	-1.470612e+01
6.499897e+01	-1.475524e+01
6.537440e+01	-1.480263e+01
6.575200e+01	-1.485174e+01
6.613178e+01	-1.489966e+01
6.651375e+01	-1.494848e+01
6.689793e+01	-1.499633e+01
6.728433e+01	-1.504502e+01
6.767297e+01	-1.509424e+01
6.806384e+01	-1.514160e+01
6.845698e+01	-1.519194e+01
6.885238e+01	-1.523806e+01
6.925007e+01	-1.528745e+01
6.965005e+01	-1.533568e+01
7.005235e+01	-1.538454e+01
7.045697e+01	-1.543293e+01
7.086393e+01	-1.548263e+01
7.127323e+01	-1.552987e+01
7.168490e+01	-1.557902e+01
7.209895e+01	-1.562674e+01
7.251539e+01	-1.567711e+01
7.293424e+01	-1.572649e+01
7.335551e+01	-1.577371e+01
7.377920e+01	-1.582132e+01
7.420535e+01	-1.587082e+01
7.463396e+01	-1.592016e+01
7.506504e+01	-1.596843e+01
7.549861e+01	-1.601697e+01
7.593469e+01	-1.606666e+01
7.637328e+01	-1.611590e+01
7.681441e+01	-1.616407e+01
7.725809e+01	-1.621231e+01
7.770433e+01	-1.626129e+01
7.815315e+01	-1.631081e+01
7.860456e+01	-1.635938e+01
7.905857e+01	-1.640946e+01
7.951521e+01	-1.645662e+01
7.997449e+01	-1.650642e+01
8.043642e+01	-1.655647e+01
8.090102e+01	-1.660488e+01
8.136830e+01	-1.665250e+01
8.183828e+01	-1.670257e+01
8.231097e+01	-1.675057e+01
8.278640e+01	-1.679936e+01
8.326457e+01	-1.684903e+01
8.374550e+01	-1.689961e+01
8.422921e+01	-1.694736e+01
8.471572e+01	-1.699694e+01
8.520503e+01	-1.704533e+01
8.569717e+01	-1.709381e+01
8.619215e+01	-1.714347e+01
8.669000e+01	-1.719293e+01
8.719071e+01	-1.724115e+01
8.769432e+01	-1.729074e+01
8.820084e+01	-1.733966e+01
8.871029e+01	-1.738786e+01
8.922267e+01	-1.743789e+01
8.973802e+01	-1.748850e+01
9.025634e+01	-1.753673e+01
9.077766e+01	-1.758497e+01
9.130199e+01	-1.763472e+01
9.182935e+01	-1.768240e+01
9.235975e+01	-1.773286e+01
9.289321e+01	-1.778113e+01
9.342976e+01	-1.783106e+01
9.396941e+01	-1.787895e+01
9.451217e+01	-1.792873e+01
9.505807e+01	-1.797796e+01
9.560712e+01	-1.802796e+01
9.615934e+01	-1.807694e+01
9.671476e+01	-1.812823e+01
9.727338e+01	-1.817583e+01
9.783522e+01	-1.822443e+01
9.840032e+01	-1.827424e+01
9.896867e+01	-1.832474e+01
9.954031e+01	-1.837204e+01
1.001153e+02	-1.842284e+01
1.006935e+02	-1.847078e+01
1.012751e+02	-1.852102e+01
1.018601e+02	-1.856954e+01
1.024484e+02	-1.861867e+01
1.030402e+02	-1.866821e+01
1.036353e+02	-1.871713e+01
1.042339e+02	-1.876793e+01
1.048360e+02	-1.881786e+01
1.054415e+02	-1.886475e+01
1.060505e+02	-1.891618e+01
1.066631e+02	-1.896369e+01
1.072791e+02	-1.901516e+01
1.078988e+02	-1.906463e+01
1.085220e+02	-1.911365e+01
1.091488e+02	-1.916287e+01
1.097793e+02	-1.921230e+01
1.104133e+02	-1.926214e+01
1.110511e+02	-1.931104e+01
1.116925e+02	-1.936007e+01
1.123376e+02	-1.940937e+01
1.129865e+02	-1.945950e+01
1.136391e+02	-1.950974e+01
1.142955e+02	-1.955858e+01
1.149556e+02	-1.960736e+01
1.156196e+02	-1.965704e+01
1.162874e+02	-1.970629e+01
1.169591e+02	-1.975604e+01
1.176347e+02	-1.980574e+01
1.183141e+02	-1.985546e+01
1.189975e+02	-1.990463e+01
1.196848e+02	-1.995496e+01
1.203761e+02	-2.000316e+01
1.210714e+02	-2.005347e+01
1.217707e+02	-2.010386e+01
1.224740e+02	-2.015294e+01
1.231814e+02	-2.020157e+01
1.238929e+02	-2.025112e+01
1.246085e+02	-2.030033e+01
1.253283e+02	-2.035062e+01
1.260522e+02	-2.040108e+01
1.267802e+02	-2.044985e+01
1.275125e+02	-2.049938e+01
1.282490e+02	-2.054748e+01
1.289898e+02	-2.059868e+01
1.297348e+02	-2.064818e+01
1.304842e+02	-2.069741e+01
1.312378e+02	-2.074755e+01
1.319959e+02	-2.079561e+01
1.327583e+02	-2.084732e+01
1.335251e+02	-2.089575e+01
1.342963e+02	-2.094575e+01
1.350720e+02	-2.099635e+01
1.358522e+02	-2.104599e+01
1.366368e+02	-2.109579e+01
1.374260e+02	-2.114374e+01
1.382198e+02	-2.119456e+01
1.390182e+02	-2.124498e+01
1.398211e+02	-2.129389e+01
1.406287e+02	-2.134365e+01
1.414410e+02	-2.139329e+01
1.422579e+02	-2.144196e+01
1.430796e+02	-2.149227e+01
1.439060e+02	-2.154360e+01
1.447372e+02	-2.159188e+01
1.455732e+02	-2.164070e+01
1.464141e+02	-2.169101e+01
1.472597e+02	-2.174156e+01
1.481103e+02	-2.178856e+01
1.489658e+02	-2.184227e+01
1.498262e+02	-2.188839e+01
1.506916e+02	-2.193974e+01
1.515620e+02	-2.198881e+01
1.524374e+02	-2.203818e+01
1.533179e+02	-2.209111e+01
1.542034e+02	-2.213758e+01
1.550941e+02	-2.218772e+01
1.559899e+02	-2.223758e+01
1.568909e+02	-2.228807e+01
1.577971e+02	-2.233881e+01
1.587085e+02	-2.238490e+01
1.596252e+02	-2.243917e+01
1.605472e+02	-2.248773e+01
1.614745e+02	-2.253553e+01
1.624072e+02	-2.258654e+01
1.633453e+02	-2.263787e+01
1.642887e+02	-2.268825e+01
1.652377e+02	-2.273619e+01
1.661921e+02	-2.278611e+01
1.671520e+02	-2.283490e+01
1.681175e+02	-2.288555e+01
1.690885e+02	-2.293453e+01
1.700651e+02	-2.298759e+01
1.710474e+02	-2.303475e+01
1.720354e+02	-2.308598e+01
1.730291e+02	-2.313349e+01
1.740285e+02	-2.318175e+01
1.750337e+02	-2.323572e+01
1.760446e+02	-2.328388e+01
1.770615e+02	-2.333425e+01
1.780842e+02	-2.338207e+01
1.791128e+02	-2.343235e+01
1.801473e+02	-2.348330e+01
1.811878e+02	-2.353077e+01
1.822344e+02	-2.358233e+01
1.832870e+02	-2.363175e+01
1.843456e+02	-2.368107e+01
1.854104e+02	-2.373318e+01
1.864813e+02	-2.378190e+01
1.875584e+02	-2.383130e+01
1.886418e+02	-2.388085e+01
1.897313e+02	-2.393081e+01
1.908272e+02	-2.398259e+01
1.919294e+02	-2.403255e+01
1.930380e+02	-2.408137e+01
1.941530e+02	-2.412880e+01
1.952744e+02	-2.418169e+01
1.964023e+02	-2.423113e+01
1.975367e+02	-2.428139e+01
1.986777e+02	-2.433336e+01
1.998252e+02	-2.438162e+01
2.009794e+02	-2.442902e+01
2.021403e+02	-2.448057e+01
2.033078e+02	-2.452826e+01
2.044821e+02	-2.457882e+01
2.056632e+02	-2.462826e+01
2.068511e+02	-2.468043e+01
2.080459e+02	-2.473011e+01
2.092475e+02	-2.477827e+01
2.104561e+02	-2.482958e+01
2.116717e+02	-2.487737e+01
2.128943e+02	-2.492630e+01
2.141240e+02	-2.497877e+01
2.153608e+02	-2.502959e+01
2.166047e+02	-2.508119e+01
2.178558e+02	-2.513263e+01
2.191141e+02	-2.517748e+01
2.203797e+02	-2.522743e+01
2.216526e+02	-2.527921e+01
2.229329e+02	-2.532937e+01
2.242205e+02	-2.537414e+01
2.255156e+02	-2.542958e+01
2.268182e+02	-2.547854e+01
2.281283e+02	-2.552525e+01
2.294459e+02	-2.557910e+01
2.307712e+02	-2.562740e+01
2.321041e+02	-2.567749e+01
2.334447e+02	-2.572668e+01
2.347931e+02	-2.577563e+01
2.361493e+02	-2.582666e+01
2.375133e+02	-2.588012e+01
2.388851e+02	-2.592844e+01
2.402649e+02	-2.597824e+01
2.416527e+02	-2.602461e+01
2.430484e+02	-2.607627e+01
2.444523e+02	-2.612672e+01
2.458642e+02	-2.617859e+01
2.472843e+02	-2.622709e+01
2.487126e+02	-2.627685e+01
2.501492e+02	-2.632819e+01
2.515940e+02	-2.637790e+01
2.530472e+02	-2.642897e+01
2.545088e+02	-2.647652e+01
2.559789e+02	-2.652843e+01
2.574574e+02	-2.657766e+01
2.589444e+02	-2.662349e+01
2.604401e+02	-2.667716e+01
2.619444e+02	-2.672526e+01
2.634574e+02	-2.677407e+01
2.649791e+02	-2.682381e+01
2.665096e+02	-2.687478e+01
2.680489e+02	-2.692291e+01
2.695972e+02	-2.697623e+01
2.711544e+02	-2.703044e+01
2.727205e+02	-2.707320e+01
2.742958e+02	-2.712428e+01
2.758801e+02	-2.717596e+01
2.774736e+02	-2.722860e+01
2.790762e+02	-2.727958e+01
2.806882e+02	-2.732632e+01
2.823094e+02	-2.738005e+01
2.839400e+02	-2.742510e+01
2.855800e+02	-2.747199e+01
2.872295e+02	-2.752723e+01
2.888886e+02	-2.757792e+01
2.905572e+02	-2.762528e+01
2.922354e+02	-2.767376e+01
2.939234e+02	-2.773061e+01
2.956211e+02	-2.778096e+01
2.973286e+02	-2.782838e+01
2.990459e+02	-2.787556e+01
3.007732e+02	-2.792894e+01
3.025104e+02	-2.797621e+01
3.042577e+02	-2.802991e+01
3.060151e+02	-2.807513e+01
3.077826e+02	-2.812773e+01
3.095604e+02	-2.817513e+01
3.113484e+02	-2.822386e+01
3.131467e+02	-2.827448e+01
3.149554e+02	-2.833134e+01
3.167746e+02	-2.838024e+01
3.186043e+02	-2.842940e+01
3.204445e+02	-2.847729e+01
3.222954e+02	-2.852653e+01
3.241570e+02	-2.857987e+01
3.260293e+02	-2.862982e+01
3.279124e+02	-2.867566e+01
3.298064e+02	-2.872716e+01
3.317114e+02	-2.878148e+01
3.336273e+02	-2.883004e+01
3.355544e+02	-2.888045e+01
3.374925e+02	-2.892862e+01
3.394418e+02	-2.897706e+01
3.414024e+02	-2.902984e+01
3.433744e+02	-2.907976e+01
3.453577e+02	-2.912777e+01
3.473525e+02	-2.917852e+01
3.493588e+02	-2.922868e+01
3.513766e+02	-2.927719e+01
3.534062e+02	-2.932516e+01
3.554474e+02	-2.937984e+01
3.575005e+02	-2.942975e+01
3.595654e+02	-2.947803e+01
3.616422e+02	-2.953168e+01
3.637311e+02	-2.957599e+01
3.658320e+02	-2.962800e+01
3.679450e+02	-2.967533e+01
3.700702e+02	-2.972997e+01
3.722077e+02	-2.978174e+01
3.743576e+02	-2.983106e+01
3.765199e+02	-2.987547e+01
3.786946e+02	-2.992856e+01
3.808820e+02	-2.997694e+01
3.830819e+02	-3.002852e+01
3.852946e+02	-3.007977e+01
3.875200e+02	-3.013018e+01
3.897583e+02	-3.018320e+01
3.920096e+02	-3.023107e+01
3.942738e+02	-3.027401e+01
3.965511e+02	-3.033194e+01
3.988416e+02	-3.037779e+01
4.011452e+02	-3.043475e+01
4.034622e+02	-3.048518e+01
4.057926e+02	-3.053011e+01
4.081365e+02	-3.058144e+01
4.104938e+02	-3.063054e+01
4.128648e+02	-3.067951e+01
4.152495e+02	-3.072985e+01
4.176480e+02	-3.077832e+01
4.200603e+02	-3.083653e+01
4.224866e+02	-3.088440e+01
4.249268e+02	-3.093122e+01
4.273812e+02	-3.098279e+01
4.298497e+02	-3.102869e+01
4.323325e+02	-3.108128e+01
4.348297e+02	-3.112709e+01
4.373412e+02	-3.118833e+01
4.398673e+02	-3.123379e+01
4.424079e+02	-3.128285e+01
4.449633e+02	-3.133487e+01
4.475334e+02	-3.138526e+01
4.501183e+02	-3.144010e+01
4.527182e+02	-3.147859e+01
4.553330e+02	-3.153610e+01
4.579630e+02	-3.158643e+01
4.606082e+02	-3.163854e+01
4.632687e+02	-3.167891e+01
4.659445e+02	-3.173857e+01
4.686358e+02	-3.178797e+01
4.713426e+02	-3.183655e+01
4.740650e+02	-3.188403e+01
4.768032e+02	-3.193516e+01
4.795572e+02	-3.198303e+01
4.823271e+02	-3.203599e+01
4.851130e+02	-3.207895e+01
4.879150e+02	-3.213374e+01
4.907332e+02	-3.218841e+01
4.935676e+02	-3.223927e+01
4.964185e+02	-3.228702e+01
4.992858e+02	-3.233793e+01
5.021696e+02	-3.239138e+01
5.050701e+02	-3.243801e+01
5.079874e+02	-3.249056e+01
5.109215e+02	-3.253690e+01
5.138726e+02	-3.259186e+01
5.168407e+02	-3.263477e+01
5.198259e+02	-3.269206e+01
5.228284e+02	-3.274490e+01
5.258482e+02	-3.279220e+01
5.288855e+02	-3.283759e+01
5.319403e+02	-3.288513e+01
5.350128e+02	-3.294150e+01
5.381030e+02	-3.299093e+01
5.412111e+02	-3.303541e+01
5.443371e+02	-3.309568e+01
5.474812e+02	-3.313689e+01
5.506434e+02	-3.318951e+01
5.538239e+02	-3.323650e+01
5.570228e+02	-3.329636e+01
5.602401e+02	-3.333667e+01
5.634760e+02	-3.339278e+01
5.667306e+02	-3.344003e+01
5.700040e+02	-3.348775e+01
5.732964e+02	-3.354140e+01
5.766077e+02	-3.358794e+01
5.799382e+02	-3.364016e+01
5.832879e+02	-3.369371e+01
5.866569e+02	-3.374278e+01
5.900454e+02	-3.379933e+01
5.934535e+02	-3.384358e+01
5.968813e+02	-3.389306e+01
6.003288e+02	-3.394901e+01
6.037963e+02	-3.400532e+01
6.072838e+02	-3.403764e+01
6.107914e+02	-3.409887e+01
6.143194e+02	-3.414825e+01
6.178676e+02	-3.420193e+01
6.214364e+02	-3.424993e+01
6.250258e+02	-3.429838e+01
6.286359e+02	-3.434975e+01
6.322669e+02	-3.439357e+01
6.359189e+02	-3.445448e+01
6.395919e+02	-3.448809e+01
6.432862e+02	-3.454590e+01
6.470017e+02	-3.460087e+01
6.507388e+02	-3.464561e+01
6.544974e+02	-3.470233e+01
6.582778e+02	-3.475365e+01
6.620800e+02	-3.480853e+01
6.659041e+02	-3.484602e+01
6.697504e+02	-3.490189e+01
6.736188e+02	-3.495352e+01
6.775096e+02	-3.501032e+01
6.814229e+02	-3.505095e+01
6.853587e+02	-3.511124e+01
6.893173e+02	-3.515546e+01
6.932988e+02	-3.519879e+01
6.973033e+02	-3.524823e+01
7.013309e+02	-3.531282e+01
