Frequency(Hz)	Magnitude(dB)
1.000000e+01	-2.127585e+00
1.005776e+01	-2.147090e+00
1.011585e+01	-2.166684e+00
1.017428e+01	-2.186290e+00
1.023305e+01	-2.206417e+00
1.029215e+01	-2.226395e+00
1.035160e+01	-2.246563e+00
1.041139e+01	-2.266834e+00
1.047153e+01	-2.287281e+00
1.053201e+01	-2.307599e+00
1.059284e+01	-2.328469e+00
1.065403e+01	-2.349102e+00
1.071556e+01	-2.370084e+00
1.077746e+01	-2.391157e+00
1.083971e+01	-2.412687e+00
1.090232e+01	-2.433945e+00
1.096529e+01	-2.455426e+00
1.102862e+01	-2.477418e+00
1.109232e+01	-2.499050e+00
1.115639e+01	-2.520990e+00
1.122083e+01	-2.542979e+00
1.128564e+01	-2.565312e+00
1.135083e+01	-2.587651e+00
1.141639e+01	-2.610315e+00
1.148233e+01	-2.632901e+00
1.154865e+01	-2.655576e+00
1.161536e+01	-2.678495e+00
1.168245e+01	-2.701777e+00
1.174992e+01	-2.724977e+00
1.181779e+01	-2.748608e+00
1.188605e+01	-2.772076e+00
1.195470e+01	-2.795466e+00
1.202375e+01	-2.819295e+00
1.209320e+01	-2.843446e+00
1.216305e+01	-2.867222e+00
1.223330e+01	-2.891477e+00
1.230396e+01	-2.915902e+00
1.237503e+01	-2.940606e+00
1.244651e+01	-2.965294e+00
1.251840e+01	-2.990059e+00
1.259070e+01	-3.015174e+00
1.266343e+01	-3.040255e+00
1.273657e+01	-3.065250e+00
1.281014e+01	-3.090971e+00
1.288413e+01	-3.116345e+00
1.295855e+01	-3.142183e+00
1.303339e+01	-3.167939e+00
1.310867e+01	-3.193961e+00
1.318439e+01	-3.220000e+00
1.326054e+01	-3.246310e+00
1.333713e+01	-3.272626e+00
1.341417e+01	-3.299290e+00
1.349165e+01	-3.326071e+00
1.356958e+01	-3.352744e+00
1.364795e+01	-3.379763e+00
1.372678e+01	-3.406753e+00
1.380607e+01	-3.434133e+00
1.388581e+01	-3.461430e+00
1.396602e+01	-3.489056e+00
1.404668e+01	-3.516591e+00
1.412782e+01	-3.544597e+00
1.420942e+01	-3.572598e+00
1.429149e+01	-3.600768e+00
1.437404e+01	-3.629228e+00
1.445706e+01	-3.657415e+00
1.454057e+01	-3.685943e+00
1.462455e+01	-3.714415e+00
1.470902e+01	-3.743396e+00
1.479398e+01	-3.772794e+00
1.487943e+01	-3.801458e+00
1.496537e+01	-3.830845e+00
1.505181e+01	-3.860183e+00
1.513875e+01	-3.889538e+00
1.522619e+01	-3.919527e+00
1.531414e+01	-3.949456e+00
1.540259e+01	-3.979171e+00
1.549156e+01	-4.009053e+00
1.558103e+01	-4.039509e+00
1.567103e+01	-4.069581e+00
1.576155e+01	-4.100069e+00
1.585258e+01	-4.130934e+00
1.594415e+01	-4.161777e+00
1.603624e+01	-4.192642e+00
1.612886e+01	-4.223587e+00
1.622202e+01	-4.254952e+00
1.631572e+01	-4.286465e+00
1.640996e+01	-4.317675e+00
1.650474e+01	-4.349029e+00
1.660008e+01	-4.380995e+00
1.669596e+01	-4.412683e+00
1.679239e+01	-4.444684e+00
1.688938e+01	-4.476699e+00
1.698694e+01	-4.508995e+00
1.708505e+01	-4.541213e+00
1.718373e+01	-4.574030e+00
1.728299e+01	-4.606516e+00
1.738281e+01	-4.639429e+00
1.748322e+01	-4.672489e+00
1.758420e+01	-4.705464e+00
1.768576e+01	-4.738745e+00
1.778792e+01	-4.771497e+00
1.789066e+01	-4.805262e+00
1.799399e+01	-4.838558e+00
1.809793e+01	-4.872227e+00
1.820246e+01	-4.906233e+00
1.830760e+01	-4.939903e+00
1.841334e+01	-4.974081e+00
1.851969e+01	-5.008366e+00
1.862666e+01	-5.042626e+00
1.873425e+01	-5.077222e+00
1.884246e+01	-5.111528e+00
1.895129e+01	-5.146393e+00
1.906075e+01	-5.180841e+00
1.917085e+01	-5.215717e+00
1.928158e+01	-5.250942e+00
1.939295e+01	-5.286209e+00
1.950496e+01	-5.321559e+00
1.961762e+01	-5.356717e+00
1.973093e+01	-5.392291e+00
1.984490e+01	-5.428072e+00
1.995952e+01	-5.463867e+00
2.007480e+01	-5.499655e+00
2.019076e+01	-5.535421e+00
2.030738e+01	-5.571780e+00
2.042467e+01	-5.607777e+00
2.054264e+01	-5.644202e+00
2.066130e+01	-5.680574e+00
2.078064e+01	-5.717127e+00
2.090066e+01	-5.753760e+00
2.102139e+01	-5.790663e+00
2.114280e+01	-5.827504e+00
2.126492e+01	-5.864530e+00
2.138775e+01	-5.901656e+00
2.151128e+01	-5.939083e+00
2.163553e+01	-5.976309e+00
2.176050e+01	-6.013568e+00
2.188619e+01	-6.051170e+00
2.201260e+01	-6.089058e+00
2.213974e+01	-6.126823e+00
2.226762e+01	-6.164518e+00
2.239624e+01	-6.202274e+00
2.252560e+01	-6.240964e+00
2.265571e+01	-6.278664e+00
2.278656e+01	-6.316878e+00
2.291818e+01	-6.355734e+00
2.305055e+01	-6.393996e+00
2.318369e+01	-6.432829e+00
2.331760e+01	-6.471264e+00
2.345228e+01	-6.510037e+00
2.358774e+01	-6.548959e+00
2.372398e+01	-6.588091e+00
2.386101e+01	-6.627119e+00
2.399883e+01	-6.666188e+00
2.413745e+01	-6.705528e+00
2.427686e+01	-6.744883e+00
2.441709e+01	-6.784559e+00
2.455812e+01	-6.823703e+00
2.469997e+01	-6.863623e+00
2.484263e+01	-6.903538e+00
2.498612e+01	-6.943354e+00
2.513044e+01	-6.983126e+00
2.527559e+01	-7.023607e+00
2.542158e+01	-7.063583e+00
2.556842e+01	-7.103799e+00
2.571610e+01	-7.143920e+00
2.586463e+01	-7.184206e+00
2.601403e+01	-7.225183e+00
2.616428e+01	-7.265594e+00
2.631541e+01	-7.306270e+00
2.646740e+01	-7.346843e+00
2.662028e+01	-7.387724e+00
2.677404e+01	-7.428706e+00
2.692868e+01	-7.470173e+00
2.708422e+01	-7.511103e+00
2.724066e+01	-7.552467e+00
2.739800e+01	-7.593280e+00
2.755625e+01	-7.634734e+00
2.771541e+01	-7.675887e+00
2.787550e+01	-7.717701e+00
2.803650e+01	-7.759109e+00
2.819844e+01	-7.801178e+00
2.836131e+01	-7.842820e+00
2.852513e+01	-7.884576e+00
2.868989e+01	-7.926493e+00
2.885560e+01	-7.968323e+00
2.902227e+01	-8.010430e+00
2.918990e+01	-8.052502e+00
2.935850e+01	-8.095017e+00
2.952807e+01	-8.137167e+00
2.969863e+01	-8.179872e+00
2.987016e+01	-8.221939e+00
3.004269e+01	-8.264555e+00
3.021622e+01	-8.307335e+00
3.039075e+01	-8.350446e+00
3.056628e+01	-8.392833e+00
3.074283e+01	-8.435321e+00
3.092040e+01	-8.478459e+00
3.109900e+01	-8.521789e+00
3.127862e+01	-8.564451e+00
3.145929e+01	-8.607335e+00
3.164099e+01	-8.650792e+00
3.182375e+01	-8.694115e+00
3.200756e+01	-8.737217e+00
3.219244e+01	-8.780640e+00
3.237838e+01	-8.823999e+00
3.256540e+01	-8.867324e+00
3.275349e+01	-8.911158e+00
3.294268e+01	-8.954486e+00
3.313295e+01	-8.998019e+00
3.332433e+01	-9.042233e+00
3.351681e+01	-9.085999e+00
3.371040e+01	-9.130046e+00
3.390511e+01	-9.173669e+00
3.410094e+01	-9.217516e+00
3.429791e+01	-9.262084e+00
3.449601e+01	-9.306171e+00
3.469526e+01	-9.350202e+00
3.489566e+01	-9.394428e+00
3.509721e+01	-9.439103e+00
3.529993e+01	-9.483293e+00
3.550382e+01	-9.527728e+00
3.570889e+01	-9.572237e+00
3.591515e+01	-9.616251e+00
3.612259e+01	-9.661074e+00
3.633123e+01	-9.705764e+00
3.654108e+01	-9.750391e+00
3.675214e+01	-9.795325e+00
3.696442e+01	-9.840135e+00
3.717792e+01	-9.884745e+00
3.739266e+01	-9.929476e+00
3.760864e+01	-9.974638e+00
3.782587e+01	-1.002023e+01
3.804435e+01	-1.006498e+01
3.826409e+01	-1.010974e+01
3.848510e+01	-1.015558e+01
3.870739e+01	-1.020056e+01
3.893096e+01	-1.024520e+01
3.915583e+01	-1.029122e+01
3.938199e+01	-1.033613e+01
3.960946e+01	-1.038199e+01
3.983824e+01	-1.042765e+01
4.006834e+01	-1.047263e+01
4.029978e+01	-1.051860e+01
4.053255e+01	-1.056389e+01
4.076666e+01	-1.060949e+01
4.100213e+01	-1.065521e+01
4.123896e+01	-1.070166e+01
4.147715e+01	-1.074714e+01
4.171672e+01	-1.079261e+01
4.195767e+01	-1.083826e+01
4.220002e+01	-1.088425e+01
4.244377e+01	-1.093053e+01
4.268892e+01	-1.097738e+01
4.293549e+01	-1.102257e+01
4.318348e+01	-1.106847e+01
4.343291e+01	-1.111422e+01
4.368377e+01	-1.116032e+01
4.393609e+01	-1.120760e+01
4.418986e+01	-1.125331e+01
4.444510e+01	-1.129946e+01
4.470182e+01	-1.134608e+01
4.496001e+01	-1.139248e+01
4.521970e+01	-1.143875e+01
4.548089e+01	-1.148510e+01
4.574358e+01	-1.153232e+01
4.600779e+01	-1.157815e+01
4.627353e+01	-1.162464e+01
4.654081e+01	-1.167164e+01
4.680963e+01	-1.171870e+01
4.708000e+01	-1.176513e+01
4.735193e+01	-1.181197e+01
4.762543e+01	-1.185820e+01
4.790051e+01	-1.190493e+01
4.817719e+01	-1.195250e+01
4.845545e+01	-1.199907e+01
4.873533e+01	-1.204556e+01
4.901682e+01	-1.209231e+01
4.929994e+01	-1.214011e+01
4.958470e+01	-1.218637e+01
4.987110e+01	-1.223325e+01
5.015915e+01	-1.228116e+01
5.044887e+01	-1.232711e+01
5.074026e+01	-1.237527e+01
5.103333e+01	-1.242189e+01
5.132810e+01	-1.246909e+01
5.162457e+01	-1.251641e+01
5.192275e+01	-1.256313e+01
5.222265e+01	-1.261083e+01
5.252429e+01	-1.265794e+01
5.282767e+01	-1.270576e+01
5.313280e+01	-1.275309e+01
5.343969e+01	-1.279966e+01
5.374836e+01	-1.284806e+01
5.405880e+01	-1.289475e+01
5.437105e+01	-1.294239e+01
5.468509e+01	-1.299069e+01
5.500095e+01	-1.303715e+01
5.531863e+01	-1.308564e+01
5.563815e+01	-1.313260e+01
5.595951e+01	-1.318031e+01
5.628273e+01	-1.322746e+01
5.660782e+01	-1.327610e+01
5.693479e+01	-1.332312e+01
5.726364e+01	-1.337058e+01
5.759439e+01	-1.341790e+01
5.792705e+01	-1.346683e+01
5.826164e+01	-1.351375e+01
5.859815e+01	-1.356234e+01
5.893662e+01	-1.360926e+01
5.927703e+01	-1.365771e+01
5.961941e+01	-1.370588e+01
5.996377e+01	-1.375313e+01
6.031012e+01	-1.380161e+01
6.065847e+01	-1.384950e+01
6.100883e+01	-1.389772e+01
6.136121e+01	-1.394490e+01
6.171563e+01	-1.399382e+01
6.207210e+01	-1.404121e+01
6.243063e+01	-1.409089e+01
6.279122e+01	-1.413809e+01
6.315390e+01	-1.418538e+01
6.351868e+01	-1.423411e+01
6.388556e+01	-1.428245e+01
6.425456e+01	-1.432985e+01
6.462569e+01	-1.437854e+01
6.499897e+01	-1.442691e+01
6.537440e+01	-1.447526e+01
6.575200e+01	-1.452378e+01
6.613178e+01	-1.457206e+01
6.651375e+01	-1.461921e+01
6.689793e+01	-1.466865e+01
6.728433e+01	-1.471595e+01
6.767297e+01	-1.476434e+01
6.806384e+01	-1.481210e+01
6.845698e+01	-1.486123e+01
6.885238e+01	-1.490916e+01
6.925007e+01	-1.495744e+01
6.965005e+01	-1.500701e+01
7.005235e+01	-1.505598e+01
7.045697e+01	-1.510375e+01
7.086393e+01	-1.515298e+01
7.127323e+01	-1.520152e+01
7.168490e+01	-1.524976e+01
7.209895e+01	-1.529717e+01
7.251539e+01	-1.534624e+01
7.293424e+01	-1.539609e+01
7.335551e+01	-1.544363e+01
7.377920e+01	-1.549181e+01
7.420535e+01	-1.554009e+01
7.463396e+01	-1.558904e+01
7.506504e+01	-1.563853e+01
7.549861e+01	-1.568610e+01
7.593469e+01	-1.573516e+01
7.637328e+01	-1.578494e+01
7.681441e+01	-1.583123e+01
7.725809e+01	-1.588076e+01
7.770433e+01	-1.593002e+01
7.815315e+01	-1.597870e+01
7.860456e+01	-1.602780e+01
7.905857e+01	-1.607539e+01
7.951521e+01	-1.612498e+01
7.997449e+01	-1.617474e+01
8.043642e+01	-1.622320e+01
8.090102e+01	-1.627165e+01
8.136830e+01	-1.632035e+01
8.183828e+01	-1.636923e+01
8.231097e+01	-1.641852e+01
8.278640e+01	-1.646703e+01
8.326457e+01	-1.651679e+01
8.374550e+01	-1.656559e+01
8.422921e+01	-1.661308e+01
8.471572e+01	-1.666329e+01
8.520503e+01	-1.671127e+01
8.569717e+01	-1.676063e+01
8.619215e+01	-1.680953e+01
8.669000e+01	-1.685815e+01
8.719071e+01	-1.690815e+01
8.769432e+01	-1.695747e+01
8.820084e+01	-1.700675e+01
8.871029e+01	-1.705514e+01
8.922267e+01	-1.710339e+01
8.973802e+01	-1.715339e+01
9.025634e+01	-1.720163e+01
9.077766e+01	-1.725125e+01
9.130199e+01	-1.729984e+01
9.182935e+01	-1.735032e+01
9.235975e+01	-1.739787e+01
9.289321e+01	-1.744763e+01
9.342976e+01	-1.749713e+01
9.396941e+01	-1.754558e+01
9.451217e+01	-1.759603e+01
9.505807e+01	-1.764489e+01
9.560712e+01	-1.769369e+01
9.615934e+01	-1.774016e+01
9.671476e+01	-1.779319e+01
9.727338e+01	-1.784071e+01
9.783522e+01	-1.788954e+01
9.840032e+01	-1.794073e+01
9.896867e+01	-1.798813e+01
9.954031e+01	-1.803973e+01
1.001153e+02	-1.808652e+01
1.006935e+02	-1.813667e+01
1.012751e+02	-1.818718e+01
1.018601e+02	-1.823525e+01
1.024484e+02	-1.828433e+01
1.030402e+02	-1.833289e+01
1.036353e+02	-1.838325e+01
1.042339e+02	-1.843378e+01
1.048360e+02	-1.848157e+01
1.054415e+02	-1.853030e+01
1.060505e+02	-1.858113e+01
1.066631e+02	-1.862988e+01
1.072791e+02	-1.867778e+01
1.078988e+02	-1.872780e+01
1.085220e+02	-1.877736e+01
1.091488e+02	-1.882745e+01
1.097793e+02	-1.887584e+01
1.104133e+02	-1.892577e+01
1.110511e+02	-1.897601e+01
1.116925e+02	-1.902399e+01
1.123376e+02	-1.907356e+01
1.129865e+02	-1.912475e+01
1.136391e+02	-1.917329e+01
1.142955e+02	-1.922191e+01
1.149556e+02	-1.927192e+01
1.156196e+02	-1.932095e+01
1.162874e+02	-1.937071e+01
1.169591e+02	-1.942010e+01
1.176347e+02	-1.946880e+01
1.183141e+02	-1.951800e+01
1.189975e+02	-1.956874e+01
1.196848e+02	-1.961716e+01
1.203761e+02	-1.966861e+01
1.210714e+02	-1.971699e+01
1.217707e+02	-1.976841e+01
1.224740e+02	-1.981642e+01
1.231814e+02	-1.986606e+01
1.238929e+02	-1.991505e+01
1.246085e+02	-1.996524e+01
1.253283e+02	-2.001435e+01
1.260522e+02	-2.006238e+01
1.267802e+02	-2.011087e+01
1.275125e+02	-2.016239e+01
1.282490e+02	-2.021385e+01
1.289898e+02	-2.026262e+01
1.297348e+02	-2.031359e+01
1.304842e+02	-2.036009e+01
1.312378e+02	-2.041055e+01
1.319959e+02	-2.046012e+01
1.327583e+02	-2.050962e+01
1.335251e+02	-2.055753e+01
1.342963e+02	-2.060797e+01
1.350720e+02	-2.065912e+01
1.358522e+02	-2.070868e+01
1.366368e+02	-2.075700e+01
1.374260e+02	-2.080852e+01
1.382198e+02	-2.085712e+01
1.390182e+02	-2.090939e+01
1.398211e+02	-2.095677e+01
1.406287e+02	-2.100578e+01
1.414410e+02	-2.105610e+01
1.422579e+02	-2.110617e+01
1.430796e+02	-2.115391e+01
1.439060e+02	-2.120481e+01
1.447372e+02	-2.125419e+01
1.455732e+02	-2.130124e+01
1.464141e+02	-2.135276e+01
1.472597e+02	-2.140509e+01
1.481103e+02	-2.145194e+01
1.489658e+02	-2.150245e+01
1.498262e+02	-2.155373e+01
1.506916e+02	-2.160260e+01
1.515620e+02	-2.165172e+01
1.524374e+02	-2.170128e+01
1.533179e+02	-2.174946e+01
1.542034e+02	-2.180125e+01
1.550941e+02	-2.184903e+01
1.559899e+02	-2.189994e+01
1.568909e+02	-2.194971e+01
1.577971e+02	-2.200016e+01
1.587085e+02	-2.205019e+01
1.596252e+02	-2.210131e+01
1.605472e+02	-2.214743e+01
1.614745e+02	-2.219923e+01
1.624072e+02	-2.224835e+01
1.633453e+02	-2.229965e+01
1.642887e+02	-2.234942e+01
1.652377e+02	-2.239770e+01
1.661921e+02	-2.244668e+01
1.671520e+02	-2.249694e+01
1.681175e+02	-2.254735e+01
1.690885e+02	-2.259914e+01
1.700651e+02	-2.264751e+01
1.710474e+02	-2.269586e+01
1.720354e+02	-2.274410e+01
1.730291e+02	-2.279496e+01
1.740285e+02	-2.284582e+01
1.750337e+02	-2.289462e+01
1.760446e+02	-2.294484e+01
1.770615e+02	-2.299544e+01
1.780842e+02	-2.304648e+01
1.791128e+02	-2.309555e+01
1.801473e+02	-2.314414e+01
1.811878e+02	-2.319372e+01
1.822344e+02	-2.324539e+01
1.832870e+02	-2.329280e+01
1.843456e+02	-2.334267e+01
1.854104e+02	-2.339310e+01
1.864813e+02	-2.344296e+01
1.875584e+02	-2.349321e+01
1.886418e+02	-2.354323e+01
1.897313e+02	-2.359323e+01
1.908272e+02	-2.364408e+01
1.919294e+02	-2.369333e+01
1.930380e+02	-2.374409e+01
1.941530e+02	-2.378964e+01
1.952744e+02	-2.384177e+01
1.964023e+02	-2.389389e+01
1.975367e+02	-2.394028e+01
1.986777e+02	-2.399027e+01
1.998252e+02	-2.404048e+01
2.009794e+02	-2.409061e+01
2.021403e+02	-2.414243e+01
2.033078e+02	-2.419154e+01
2.044821e+02	-2.424155e+01
2.056632e+02	-2.429195e+01
2.068511e+02	-2.433949e+01
2.080459e+02	-2.439137e+01
2.092475e+02	-2.443742e+01
2.104561e+02	-2.449140e+01
2.116717e+02	-2.454061e+01
2.128943e+02	-2.458869e+01
2.141240e+02	-2.464186e+01
2.153608e+02	-2.469136e+01
2.166047e+02	-2.474115e+01
2.178558e+02	-2.478991e+01
2.191141e+02	-2.483915e+01
2.203797e+02	-2.489217e+01
2.216526e+02	-2.494234e+01
2.229329e+02	-2.498756e+01
2.242205e+02	-2.504031e+01
2.255156e+02	-2.508946e+01
2.268182e+02	-2.514131e+01
2.281283e+02	-2.518966e+01
2.294459e+02	-2.523961e+01
2.307712e+02	-2.529011e+01
2.321041e+02	-2.533755e+01
2.334447e+02	-2.538672e+01
2.347931e+02	-2.543853e+01
2.361493e+02	-2.548753e+01
2.375133e+02	-2.553978e+01
2.388851e+02	-2.558904e+01
2.402649e+02	-2.563882e+01
2.416527e+02	-2.568730e+01
2.430484e+02	-2.573426e+01
2.444523e+02	-2.578799e+01
2.458642e+02	-2.583754e+01
2.472843e+02	-2.588691e+01
2.487126e+02	-2.593953e+01
2.501492e+02	-2.598649e+01
2.515940e+02	-2.603702e+01
2.530472e+02	-2.608790e+01
2.545088e+02	-2.613796e+01
2.559789e+02	-2.618562e+01
2.574574e+02	-2.623678e+01
2.589444e+02	-2.628558e+01
2.604401e+02	-2.633335e+01
2.619444e+02	-2.638740e+01
2.634574e+02	-2.643806e+01
2.649791e+02	-2.648737e+01
2.665096e+02	-2.653675e+01
2.680489e+02	-2.658534e+01
2.695972e+02	-2.663376e+01
2.711544e+02	-2.669049e+01
2.727205e+02	-2.673555e+01
2.742958e+02	-2.678827e+01
2.758801e+02	-2.683566e+01
2.774736e+02	-2.688608e+01
2.790762e+02	-2.693573e+01
2.806882e+02	-2.698962e+01
2.823094e+02	-2.703432e+01
2.839400e+02	-2.708873e+01
2.855800e+02	-2.713893e+01
2.872295e+02	-2.718865e+01
2.888886e+02	-2.723778e+01
2.905572e+02	-2.728436e+01
2.922354e+02	-2.733614e+01
2.939234e+02	-2.738608e+01
2.956211e+02	-2.743614e+01
2.973286e+02	-2.748559e+01
2.990459e+02	-2.753779e+01
3.007732e+02	-2.759044e+01
3.025104e+02	-2.763758e+01
3.042577e+02	-2.768812e+01
3.060151e+02	-2.773692e+01
3.077826e+02	-2.778802e+01
3.095604e+02	-2.783790e+01
3.113484e+02	-2.788468e+01
3.131467e+02	-2.793189e+01
3.149554e+02	-2.799205e+01
3.167746e+02	-2.803648e+01
3.186043e+02	-2.808758e+01
3.204445e+02	-2.813561e+01
3.222954e+02	-2.818673e+01
3.241570e+02	-2.823535e+01
3.260293e+02	-2.828879e+01
3.279124e+02	-2.833760e+01
3.298064e+02	-2.838774e+01
3.317114e+02	-2.843569e+01
3.336273e+02	-2.848612e+01
3.355544e+02	-2.853841e+01
3.374925e+02	-2.858798e+01
3.394418e+02	-2.863592e+01
3.414024e+02	-2.868961e+01
3.433744e+02	-2.873841e+01
3.453577e+02	-2.878876e+01
3.473525e+02	-2.883644e+01
3.493588e+02	-2.889343e+01
3.513766e+02	-2.893755e+01
3.534062e+02	-2.899100e+01
3.554474e+02	-2.903479e+01
3.575005e+02	-2.909145e+01
3.595654e+02	-2.913265e+01
3.616422e+02	-2.918926e+01
3.637311e+02	-2.923742e+01
3.658320e+02	-2.928875e+01
3.679450e+02	-2.933731e+01
3.700702e+02	-2.939163e+01
3.722077e+02	-2.943701e+01
3.743576e+02	-2.949144e+01
3.765199e+02	-2.953993e+01
3.786946e+02	-2.958952e+01
3.808820e+02	-2.963779e+01
3.830819e+02	-2.968920e+01
3.852946e+02	-2.973752e+01
3.875200e+02	-2.978478e+01
3.897583e+02	-2.984299e+01
3.920096e+02	-2.989012e+01
3.942738e+02	-2.994090e+01
3.965511e+02	-2.999144e+01
3.988416e+02	-3.003513e+01
4.011452e+02	-3.008576e+01
4.034622e+02	-3.013447e+01
4.057926e+02	-3.018749e+01
4.081365e+02	-3.023923e+01
4.104938e+02	-3.028978e+01
4.128648e+02	-3.033861e+01
4.152495e+02	-3.039001e+01
4.176480e+02	-3.044173e+01
4.200603e+02	-3.048871e+01
4.224866e+02	-3.054262e+01
4.249268e+02	-3.059680e+01
4.273812e+02	-3.064143e+01
4.298497e+02	-3.069838e+01
4.323325e+02	-3.074464e+01
4.348297e+02	-3.079083e+01
4.373412e+02	-3.084443e+01
4.398673e+02	-3.089118e+01
4.424079e+02	-3.094262e+01
4.449633e+02	-3.099446e+01
4.475334e+02	-3.104009e+01
4.501183e+02	-3.109519e+01
4.527182e+02	-3.114185e+01
4.553330e+02	-3.119603e+01
4.579630e+02	-3.124816e+01
4.606082e+02	-3.129155e+01
4.632687e+02	-3.134433e+01
4.659445e+02	-3.139161e+01
4.686358e+02	-3.144792e+01
4.713426e+02	-3.149078e+01
4.740650e+02	-3.154095e+01
4.768032e+02	-3.159686e+01
4.795572e+02	-3.165133e+01
4.823271e+02	-3.169656e+01
4.851130e+02	-3.174290e+01
4.879150e+02	-3.180072e+01
4.907332e+02	-3.184782e+01
4.935676e+02	-3.189702e+01
4.964185e+02	-3.194517e+01
4.992858e+02	-3.199276e+01
5.021696e+02	-3.204991e+01
5.050701e+02	-3.209459e+01
5.079874e+02	-3.214480e+01
5.109215e+02	-3.219312e+01
5.138726e+02	-3.223789e+01
5.168407e+02	-3.230184e+01
5.198259e+02	-3.234956e+01
5.228284e+02	-3.239764e+01
5.258482e+02	-3.244542e+01
5.288855e+02	-3.249484e+01
5.319403e+02	-3.253873e+01
5.350128e+02	-3.259932e+01
5.381030e+02	-3.264539e+01
5.412111e+02	-3.269243e+01
5.443371e+02	-3.274496e+01
5.474812e+02	-3.280384e+01
5.506434e+02	-3.284928e+01
5.538239e+02	-3.290230e+01
5.570228e+02	-3.295053e+01
5.602401e+02	-3.300299e+01
5.634760e+02	-3.304603e+01
5.667306e+02	-3.309836e+01
5.700040e+02	-3.315305e+01
5.732964e+02	-3.320074e+01
5.766077e+02	-3.325011e+01
5.799382e+02	-3.330327e+01
5.832879e+02	-3.335457e+01
5.866569e+02	-3.340649e+01
5.900454e+02	-3.345733e+01
5.934535e+02	-3.350568e+01
5.968813e+02	-3.355487e+01
6.003288e+02	-3.360283e+01
6.037963e+02	-3.365557e+01
6.072838e+02	-3.371177e+01
6.107914e+02	-3.375296e+01
6.143194e+02	-3.380683e+01
6.178676e+02	-3.385553e+01
6.214364e+02	-3.390714e+01
6.250258e+02	-3.394938e+01
6.286359e+02	-3.400538e+01
6.322669e+02	-3.405967e+01
6.359189e+02	-3.410266e+01
6.395919e+02	-3.415140e+01
6.432862e+02	-3.420657e+01
6.470017e+02	-3.425265e+01
6.507388e+02	-3.431703e+01
6.544974e+02	-3.435375e+01
6.582778e+02	-3.440720e+01
6.620800e+02	-3.446463e+01
6.659041e+02	-3.451064e+01
6.697504e+02	-3.456436e+01
6.736188e+02	-3.461081e+01
6.775096e+02	-3.464745e+01
6.814229e+02	-3.471756e+01
6.853587e+02	-3.475591e+01
6.893173e+02	-3.480376e+01
6.932988e+02	-3.485974e+01
6.973033e+02	-3.490838e+01
7.013309e+02	-3.496445e+01
