Frequency(Hz)	Magnitude(dB)
1.000000e+01	-2.280440e+00
1.005776e+01	-2.301009e+00
1.011585e+01	-2.321756e+00
1.017428e+01	-2.342217e+00
1.023305e+01	-2.363206e+00
1.029215e+01	-2.384142e+00
1.035160e+01	-2.405545e+00
1.041139e+01	-2.426914e+00
1.047153e+01	-2.448471e+00
1.053201e+01	-2.470088e+00
1.059284e+01	-2.491827e+00
1.065403e+01	-2.513506e+00
1.071556e+01	-2.535869e+00
1.077746e+01	-2.557969e+00
1.083971e+01	-2.580265e+00
1.090232e+01	-2.602887e+00
1.096529e+01	-2.625458e+00
1.102862e+01	-2.648324e+00
1.109232e+01	-2.671226e+00
1.115639e+01	-2.694091e+00
1.122083e+01	-2.717406e+00
1.128564e+01	-2.740857e+00
1.135083e+01	-2.764111e+00
1.141639e+01	-2.787788e+00
1.148233e+01	-2.811325e+00
1.154865e+01	-2.835504e+00
1.161536e+01	-2.859620e+00
1.168245e+01	-2.883632e+00
1.174992e+01	-2.907956e+00
1.181779e+01	-2.932706e+00
1.188605e+01	-2.956915e+00
1.195470e+01	-2.982004e+00
1.202375e+01	-3.006685e+00
1.209320e+01	-3.032091e+00
1.216305e+01	-3.057309e+00
1.223330e+01	-3.082560e+00
1.230396e+01	-3.107917e+00
1.237503e+01	-3.133595e+00
1.244651e+01	-3.159425e+00
1.251840e+01	-3.185195e+00
1.259070e+01	-3.211373e+00
1.266343e+01	-3.237509e+00
1.273657e+01	-3.264117e+00
1.281014e+01	-3.290421e+00
1.288413e+01	-3.317405e+00
1.295855e+01	-3.343874e+00
1.303339e+01	-3.370940e+00
1.310867e+01	-3.397888e+00
1.318439e+01	-3.425290e+00
1.326054e+01	-3.452461e+00
1.333713e+01	-3.480399e+00
1.341417e+01	-3.507852e+00
1.349165e+01	-3.535510e+00
1.356958e+01	-3.563343e+00
1.364795e+01	-3.591699e+00
1.372678e+01	-3.619622e+00
1.380607e+01	-3.647955e+00
1.388581e+01	-3.676557e+00
1.396602e+01	-3.705170e+00
1.404668e+01	-3.733933e+00
1.412782e+01	-3.762715e+00
1.420942e+01	-3.791944e+00
1.429149e+01	-3.821207e+00
1.437404e+01	-3.850446e+00
1.445706e+01	-3.880110e+00
1.454057e+01	-3.909533e+00
1.462455e+01	-3.939286e+00
1.470902e+01	-3.969267e+00
1.479398e+01	-3.999261e+00
1.487943e+01	-4.029816e+00
1.496537e+01	-4.059578e+00
1.505181e+01	-4.090167e+00
1.513875e+01	-4.120891e+00
1.522619e+01	-4.151665e+00
1.531414e+01	-4.182153e+00
1.540259e+01	-4.213399e+00
1.549156e+01	-4.244743e+00
1.558103e+01	-4.275957e+00
1.567103e+01	-4.307021e+00
1.576155e+01	-4.338702e+00
1.585258e+01	-4.370372e+00
1.594415e+01	-4.402322e+00
1.603624e+01	-4.434149e+00
1.612886e+01	-4.466447e+00
1.622202e+01	-4.498707e+00
1.631572e+01	-4.530722e+00
1.640996e+01	-4.563588e+00
1.650474e+01	-4.595905e+00
1.660008e+01	-4.628608e+00
1.669596e+01	-4.661333e+00
1.679239e+01	-4.694550e+00
1.688938e+01	-4.727616e+00
1.698694e+01	-4.760631e+00
1.708505e+01	-4.794155e+00
1.718373e+01	-4.827245e+00
1.728299e+01	-4.861065e+00
1.738281e+01	-4.894870e+00
1.748322e+01	-4.928815e+00
1.758420e+01	-4.962826e+00
1.768576e+01	-4.997166e+00
1.778792e+01	-5.031039e+00
1.789066e+01	-5.065775e+00
1.799399e+01	-5.100280e+00
1.809793e+01	-5.134823e+00
1.820246e+01	-5.169910e+00
1.830760e+01	-5.204535e+00
1.841334e+01	-5.239344e+00
1.851969e+01	-5.274833e+00
1.862666e+01	-5.309791e+00
1.873425e+01	-5.345367e+00
1.884246e+01	-5.380673e+00
1.895129e+01	-5.416566e+00
1.906075e+01	-5.451649e+00
1.917085e+01	-5.487735e+00
1.928158e+01	-5.523588e+00
1.939295e+01	-5.559759e+00
1.950496e+01	-5.595949e+00
1.961762e+01	-5.632099e+00
1.973093e+01	-5.668540e+00
1.984490e+01	-5.705491e+00
1.995952e+01	-5.741611e+00
2.007480e+01	-5.778846e+00
2.019076e+01	-5.815466e+00
2.030738e+01	-5.852506e+00
2.042467e+01	-5.889666e+00
2.054264e+01	-5.926981e+00
2.066130e+01	-5.963676e+00
2.078064e+01	-6.001389e+00
2.090066e+01	-6.039011e+00
2.102139e+01	-6.076083e+00
2.114280e+01	-6.114261e+00
2.126492e+01	-6.151940e+00
2.138775e+01	-6.189685e+00
2.151128e+01	-6.228246e+00
2.163553e+01	-6.266121e+00
2.176050e+01	-6.304473e+00
2.188619e+01	-6.342946e+00
2.201260e+01	-6.381503e+00
2.213974e+01	-6.419751e+00
2.226762e+01	-6.458370e+00
2.239624e+01	-6.497461e+00
2.252560e+01	-6.536367e+00
2.265571e+01	-6.575112e+00
2.278656e+01	-6.614311e+00
2.291818e+01	-6.653522e+00
2.305055e+01	-6.692819e+00
2.318369e+01	-6.732315e+00
2.331760e+01	-6.771555e+00
2.345228e+01	-6.811330e+00
2.358774e+01	-6.850809e+00
2.372398e+01	-6.890544e+00
2.386101e+01	-6.930381e+00
2.399883e+01	-6.969958e+00
2.413745e+01	-7.010006e+00
2.427686e+01	-7.050414e+00
2.441709e+01	-7.090863e+00
2.455812e+01	-7.130718e+00
2.469997e+01	-7.171246e+00
2.484263e+01	-7.211517e+00
2.498612e+01	-7.252384e+00
2.513044e+01	-7.292868e+00
2.527559e+01	-7.334006e+00
2.542158e+01	-7.374666e+00
2.556842e+01	-7.415648e+00
2.571610e+01	-7.456545e+00
2.586463e+01	-7.497413e+00
2.601403e+01	-7.538421e+00
2.616428e+01	-7.579415e+00
2.631541e+01	-7.620874e+00
2.646740e+01	-7.662511e+00
2.662028e+01	-7.704272e+00
2.677404e+01	-7.745635e+00
2.692868e+01	-7.787411e+00
2.708422e+01	-7.829211e+00
2.724066e+01	-7.870863e+00
2.739800e+01	-7.912815e+00
2.755625e+01	-7.954872e+00
2.771541e+01	-7.996923e+00
2.787550e+01	-8.039312e+00
2.803650e+01	-8.080960e+00
2.819844e+01	-8.123209e+00
2.836131e+01	-8.165451e+00
2.852513e+01	-8.208151e+00
2.868989e+01	-8.250642e+00
2.885560e+01	-8.293799e+00
2.902227e+01	-8.335893e+00
2.918990e+01	-8.378678e+00
2.935850e+01	-8.421097e+00
2.952807e+01	-8.463745e+00
2.969863e+01	-8.507110e+00
2.987016e+01	-8.550493e+00
3.004269e+01	-8.593596e+00
3.021622e+01	-8.636733e+00
3.039075e+01	-8.679973e+00
3.056628e+01	-8.723092e+00
3.074283e+01	-8.766483e+00
3.092040e+01	-8.809753e+00
3.109900e+01	-8.853160e+00
3.127862e+01	-8.896565e+00
3.145929e+01	-8.940464e+00
3.164099e+01	-8.983655e+00
3.182375e+01	-9.027781e+00
3.200756e+01	-9.071494e+00
3.219244e+01	-9.115312e+00
3.237838e+01	-9.159583e+00
3.256540e+01	-9.203475e+00
3.275349e+01	-9.247183e+00
3.294268e+01	-9.291380e+00
3.313295e+01	-9.335820e+00
3.332433e+01	-9.379949e+00
3.351681e+01	-9.424095e+00
3.371040e+01	-9.468700e+00
3.390511e+01	-9.512590e+00
3.410094e+01	-9.557169e+00
3.429791e+01	-9.602073e+00
3.449601e+01	-9.646513e+00
3.469526e+01	-9.690479e+00
3.489566e+01	-9.735748e+00
3.509721e+01	-9.780848e+00
3.529993e+01	-9.825495e+00
3.550382e+01	-9.870220e+00
3.570889e+01	-9.914948e+00
3.591515e+01	-9.959543e+00
3.612259e+01	-1.000508e+01
3.633123e+01	-1.004994e+01
3.654108e+01	-1.009559e+01
3.675214e+01	-1.014017e+01
3.696442e+01	-1.018491e+01
3.717792e+01	-1.023091e+01
3.739266e+01	-1.027649e+01
3.760864e+01	-1.032161e+01
3.782587e+01	-1.036652e+01
3.804435e+01	-1.041213e+01
3.826409e+01	-1.045773e+01
3.848510e+01	-1.050370e+01
3.870739e+01	-1.054901e+01
3.893096e+01	-1.059448e+01
3.915583e+01	-1.064019e+01
3.938199e+01	-1.068570e+01
3.960946e+01	-1.073182e+01
3.983824e+01	-1.077805e+01
4.006834e+01	-1.082404e+01
4.029978e+01	-1.086920e+01
4.053255e+01	-1.091544e+01
4.076666e+01	-1.096104e+01
4.100213e+01	-1.100740e+01
4.123896e+01	-1.105284e+01
4.147715e+01	-1.109997e+01
4.171672e+01	-1.114623e+01
4.195767e+01	-1.119172e+01
4.220002e+01	-1.123848e+01
4.244377e+01	-1.128462e+01
4.268892e+01	-1.133054e+01
4.293549e+01	-1.137748e+01
4.318348e+01	-1.142381e+01
4.343291e+01	-1.147023e+01
4.368377e+01	-1.151666e+01
4.393609e+01	-1.156263e+01
4.418986e+01	-1.160951e+01
4.444510e+01	-1.165605e+01
4.470182e+01	-1.170303e+01
4.496001e+01	-1.174924e+01
4.521970e+01	-1.179626e+01
4.548089e+01	-1.184302e+01
4.574358e+01	-1.188937e+01
4.600779e+01	-1.193630e+01
4.627353e+01	-1.198355e+01
4.654081e+01	-1.203051e+01
4.680963e+01	-1.207780e+01
4.708000e+01	-1.212425e+01
4.735193e+01	-1.217092e+01
4.762543e+01	-1.221832e+01
4.790051e+01	-1.226494e+01
4.817719e+01	-1.231188e+01
4.845545e+01	-1.235915e+01
4.873533e+01	-1.240646e+01
4.901682e+01	-1.245374e+01
4.929994e+01	-1.250062e+01
4.958470e+01	-1.254755e+01
4.987110e+01	-1.259512e+01
5.015915e+01	-1.264286e+01
5.044887e+01	-1.268990e+01
5.074026e+01	-1.273723e+01
5.103333e+01	-1.278553e+01
5.132810e+01	-1.283187e+01
5.162457e+01	-1.287937e+01
5.192275e+01	-1.292671e+01
5.222265e+01	-1.297392e+01
5.252429e+01	-1.302214e+01
5.282767e+01	-1.306995e+01
5.313280e+01	-1.311716e+01
5.343969e+01	-1.316399e+01
5.374836e+01	-1.321194e+01
5.405880e+01	-1.325934e+01
5.437105e+01	-1.330740e+01
5.468509e+01	-1.335571e+01
5.500095e+01	-1.340320e+01
5.531863e+01	-1.345055e+01
5.563815e+01	-1.349880e+01
5.595951e+01	-1.354651e+01
5.628273e+01	-1.359447e+01
5.660782e+01	-1.364261e+01
5.693479e+01	-1.368990e+01
5.726364e+01	-1.373775e+01
5.759439e+01	-1.378556e+01
5.792705e+01	-1.383438e+01
5.826164e+01	-1.388193e+01
5.859815e+01	-1.392937e+01
5.893662e+01	-1.397737e+01
5.927703e+01	-1.402624e+01
5.961941e+01	-1.407374e+01
5.996377e+01	-1.412192e+01
6.031012e+01	-1.417127e+01
6.065847e+01	-1.421778e+01
6.100883e+01	-1.426659e+01
6.136121e+01	-1.431373e+01
6.171563e+01	-1.436279e+01
6.207210e+01	-1.441108e+01
6.243063e+01	-1.445895e+01
6.279122e+01	-1.450752e+01
6.315390e+01	-1.455515e+01
6.351868e+01	-1.460412e+01
6.388556e+01	-1.465219e+01
6.425456e+01	-1.470095e+01
6.462569e+01	-1.474949e+01
6.499897e+01	-1.479632e+01
6.537440e+01	-1.484597e+01
6.575200e+01	-1.489459e+01
6.613178e+01	-1.494240e+01
6.651375e+01	-1.499063e+01
6.689793e+01	-1.503993e+01
6.728433e+01	-1.508707e+01
6.767297e+01	-1.513670e+01
6.806384e+01	-1.518442e+01
6.845698e+01	-1.523271e+01
6.885238e+01	-1.528140e+01
6.925007e+01	-1.532997e+01
6.965005e+01	-1.537917e+01
7.005235e+01	-1.542730e+01
7.045697e+01	-1.547539e+01
7.086393e+01	-1.552376e+01
7.127323e+01	-1.557290e+01
7.168490e+01	-1.562178e+01
7.209895e+01	-1.567038e+01
7.251539e+01	-1.571914e+01
7.293424e+01	-1.576695e+01
7.335551e+01	-1.581713e+01
7.377920e+01	-1.586446e+01
7.420535e+01	-1.591448e+01
7.463396e+01	-1.596304e+01
7.506504e+01	-1.601142e+01
7.549861e+01	-1.605987e+01
7.593469e+01	-1.610899e+01
7.637328e+01	-1.615792e+01
7.681441e+01	-1.620693e+01
7.725809e+01	-1.625629e+01
7.770433e+01	-1.630447e+01
7.815315e+01	-1.635393e+01
7.860456e+01	-1.640182e+01
7.905857e+01	-1.645095e+01
7.951521e+01	-1.650056e+01
7.997449e+01	-1.654840e+01
8.043642e+01	-1.659768e+01
8.090102e+01	-1.664716e+01
8.136830e+01	-1.669559e+01
8.183828e+01	-1.674472e+01
8.231097e+01	-1.679338e+01
8.278640e+01	-1.684352e+01
8.326457e+01	-1.689037e+01
8.374550e+01	-1.693965e+01
8.422921e+01	-1.698943e+01
8.471572e+01	-1.703980e+01
8.520503e+01	-1.708775e+01
8.569717e+01	-1.713738e+01
8.619215e+01	-1.718500e+01
8.669000e+01	-1.723635e+01
8.719071e+01	-1.728356e+01
8.769432e+01	-1.733322e+01
8.820084e+01	-1.738269e+01
8.871029e+01	-1.743171e+01
8.922267e+01	-1.747994e+01
8.973802e+01	-1.752967e+01
9.025634e+01	-1.757981e+01
9.077766e+01	-1.762783e+01
9.130199e+01	-1.767673e+01
9.182935e+01	-1.772735e+01
9.235975e+01	-1.777668e+01
9.289321e+01	-1.782485e+01
9.342976e+01	-1.787428e+01
9.396941e+01	-1.792247e+01
9.451217e+01	-1.797113e+01
9.505807e+01	-1.802195e+01
9.560712e+01	-1.806996e+01
9.615934e+01	-1.812139e+01
9.671476e+01	-1.816894e+01
9.727338e+01	-1.821920e+01
9.783522e+01	-1.826799e+01
9.840032e+01	-1.831804e+01
9.896867e+01	-1.836562e+01
9.954031e+01	-1.841523e+01
1.001153e+02	-1.846457e+01
1.006935e+02	-1.851468e+01
1.012751e+02	-1.856443e+01
1.018601e+02	-1.861368e+01
1.024484e+02	-1.866304e+01
1.030402e+02	-1.871110e+01
1.036353e+02	-1.876205e+01
1.042339e+02	-1.881179e+01
1.048360e+02	-1.885897e+01
1.054415e+02	-1.891031e+01
1.060505e+02	-1.896063e+01
1.066631e+02	-1.900883e+01
1.072791e+02	-1.905760e+01
1.078988e+02	-1.910713e+01
1.085220e+02	-1.915642e+01
1.091488e+02	-1.920513e+01
1.097793e+02	-1.925543e+01
1.104133e+02	-1.930423e+01
1.110511e+02	-1.935368e+01
1.116925e+02	-1.940395e+01
1.123376e+02	-1.945351e+01
1.129865e+02	-1.950201e+01
1.136391e+02	-1.955264e+01
1.142955e+02	-1.960154e+01
1.149556e+02	-1.965227e+01
1.156196e+02	-1.970006e+01
1.162874e+02	-1.974999e+01
1.169591e+02	-1.979975e+01
1.176347e+02	-1.984877e+01
1.183141e+02	-1.989844e+01
1.189975e+02	-1.994747e+01
1.196848e+02	-1.999829e+01
1.203761e+02	-2.004853e+01
1.210714e+02	-2.009682e+01
1.217707e+02	-2.014719e+01
1.224740e+02	-2.019538e+01
1.231814e+02	-2.024670e+01
1.238929e+02	-2.029550e+01
1.246085e+02	-2.034488e+01
1.253283e+02	-2.039381e+01
1.260522e+02	-2.044504e+01
1.267802e+02	-2.049277e+01
1.275125e+02	-2.054171e+01
1.282490e+02	-2.059168e+01
1.289898e+02	-2.064174e+01
1.297348e+02	-2.069209e+01
1.304842e+02	-2.074111e+01
1.312378e+02	-2.079241e+01
1.319959e+02	-2.084019e+01
1.327583e+02	-2.089087e+01
1.335251e+02	-2.093967e+01
1.342963e+02	-2.099131e+01
1.350720e+02	-2.103855e+01
1.358522e+02	-2.108941e+01
1.366368e+02	-2.113668e+01
1.374260e+02	-2.118871e+01
1.382198e+02	-2.123937e+01
1.390182e+02	-2.128919e+01
1.398211e+02	-2.133846e+01
1.406287e+02	-2.138623e+01
1.414410e+02	-2.143639e+01
1.422579e+02	-2.148641e+01
1.430796e+02	-2.153527e+01
1.439060e+02	-2.158615e+01
1.447372e+02	-2.163511e+01
1.455732e+02	-2.168679e+01
1.464141e+02	-2.173645e+01
1.472597e+02	-2.178520e+01
1.481103e+02	-2.183355e+01
1.489658e+02	-2.188399e+01
1.498262e+02	-2.193467e+01
1.506916e+02	-2.198264e+01
1.515620e+02	-2.203306e+01
1.524374e+02	-2.208291e+01
1.533179e+02	-2.213116e+01
1.542034e+02	-2.218257e+01
1.550941e+02	-2.223247e+01
1.559899e+02	-2.228278e+01
1.568909e+02	-2.233168e+01
1.577971e+02	-2.237994e+01
1.587085e+02	-2.243060e+01
1.596252e+02	-2.248096e+01
1.605472e+02	-2.252946e+01
1.614745e+02	-2.258008e+01
1.624072e+02	-2.262980e+01
1.633453e+02	-2.268051e+01
1.642887e+02	-2.272934e+01
1.652377e+02	-2.277892e+01
1.661921e+02	-2.282931e+01
1.671520e+02	-2.288029e+01
1.681175e+02	-2.292636e+01
1.690885e+02	-2.297925e+01
1.700651e+02	-2.302698e+01
1.710474e+02	-2.307842e+01
1.720354e+02	-2.312474e+01
1.730291e+02	-2.317556e+01
1.740285e+02	-2.322862e+01
1.750337e+02	-2.327477e+01
1.760446e+02	-2.332580e+01
1.770615e+02	-2.337736e+01
1.780842e+02	-2.342582e+01
1.791128e+02	-2.347509e+01
1.801473e+02	-2.352568e+01
1.811878e+02	-2.357693e+01
1.822344e+02	-2.362617e+01
1.832870e+02	-2.367791e+01
1.843456e+02	-2.372632e+01
1.854104e+02	-2.377450e+01
1.864813e+02	-2.382519e+01
1.875584e+02	-2.387454e+01
1.886418e+02	-2.392499e+01
1.897313e+02	-2.397314e+01
1.908272e+02	-2.402453e+01
1.919294e+02	-2.407467e+01
1.930380e+02	-2.412525e+01
1.941530e+02	-2.417499e+01
1.952744e+02	-2.422225e+01
1.964023e+02	-2.427479e+01
1.975367e+02	-2.432376e+01
1.986777e+02	-2.437623e+01
1.998252e+02	-2.442414e+01
2.009794e+02	-2.447497e+01
2.021403e+02	-2.452047e+01
2.033078e+02	-2.457355e+01
2.044821e+02	-2.462310e+01
2.056632e+02	-2.467255e+01
2.068511e+02	-2.472310e+01
2.080459e+02	-2.477612e+01
2.092475e+02	-2.482278e+01
2.104561e+02	-2.487294e+01
2.116717e+02	-2.492445e+01
2.128943e+02	-2.497079e+01
2.141240e+02	-2.502317e+01
2.153608e+02	-2.507370e+01
2.166047e+02	-2.512407e+01
2.178558e+02	-2.517309e+01
2.191141e+02	-2.522037e+01
2.203797e+02	-2.527224e+01
2.216526e+02	-2.531903e+01
2.229329e+02	-2.536927e+01
2.242205e+02	-2.542133e+01
2.255156e+02	-2.547363e+01
2.268182e+02	-2.552176e+01
2.281283e+02	-2.556947e+01
2.294459e+02	-2.562066e+01
2.307712e+02	-2.567143e+01
2.321041e+02	-2.572342e+01
2.334447e+02	-2.577181e+01
2.347931e+02	-2.582173e+01
2.361493e+02	-2.587102e+01
2.375133e+02	-2.591998e+01
2.388851e+02	-2.597268e+01
2.402649e+02	-2.602025e+01
2.416527e+02	-2.607311e+01
2.430484e+02	-2.611979e+01
2.444523e+02	-2.617127e+01
2.458642e+02	-2.621932e+01
2.472843e+02	-2.627152e+01
2.487126e+02	-2.632145e+01
2.501492e+02	-2.636995e+01
2.515940e+02	-2.642092e+01
2.530472e+02	-2.647336e+01
2.545088e+02	-2.652229e+01
2.559789e+02	-2.656946e+01
2.574574e+02	-2.662090e+01
2.589444e+02	-2.667081e+01
2.604401e+02	-2.671970e+01
2.619444e+02	-2.676789e+01
2.634574e+02	-2.682231e+01
2.649791e+02	-2.686897e+01
2.665096e+02	-2.692008e+01
2.680489e+02	-2.696867e+01
2.695972e+02	-2.702249e+01
2.711544e+02	-2.707388e+01
2.727205e+02	-2.712351e+01
2.742958e+02	-2.716978e+01
2.758801e+02	-2.722285e+01
2.774736e+02	-2.727270e+01
2.790762e+02	-2.732232e+01
2.806882e+02	-2.737014e+01
2.823094e+02	-2.741841e+01
2.839400e+02	-2.747228e+01
2.855800e+02	-2.751766e+01
2.872295e+02	-2.757128e+01
2.888886e+02	-2.761850e+01
2.905572e+02	-2.766997e+01
2.922354e+02	-2.772300e+01
2.939234e+02	-2.777045e+01
2.956211e+02	-2.782327e+01
2.973286e+02	-2.786995e+01
2.990459e+02	-2.791870e+01
3.007732e+02	-2.796880e+01
3.025104e+02	-2.801795e+01
3.042577e+02	-2.806939e+01
3.060151e+02	-2.812003e+01
3.077826e+02	-2.817064e+01
3.095604e+02	-2.822002e+01
3.113484e+02	-2.827002e+01
3.131467e+02	-2.832273e+01
3.149554e+02	-2.836604e+01
3.167746e+02	-2.842309e+01
3.186043e+02	-2.846434e+01
3.204445e+02	-2.851969e+01
3.222954e+02	-2.856930e+01
3.241570e+02	-2.862076e+01
3.260293e+02	-2.867264e+01
3.279124e+02	-2.871880e+01
3.298064e+02	-2.877790e+01
3.317114e+02	-2.882205e+01
3.336273e+02	-2.887142e+01
3.355544e+02	-2.891883e+01
3.374925e+02	-2.897022e+01
3.394418e+02	-2.902221e+01
3.414024e+02	-2.907475e+01
3.433744e+02	-2.912342e+01
3.453577e+02	-2.917183e+01
3.473525e+02	-2.921801e+01
3.493588e+02	-2.927802e+01
3.513766e+02	-2.932513e+01
3.534062e+02	-2.936988e+01
3.554474e+02	-2.942409e+01
3.575005e+02	-2.947078e+01
3.595654e+02	-2.952205e+01
3.616422e+02	-2.956831e+01
3.637311e+02	-2.962054e+01
3.658320e+02	-2.966818e+01
3.679450e+02	-2.971782e+01
3.700702e+02	-2.977265e+01
3.722077e+02	-2.981972e+01
3.743576e+02	-2.987040e+01
3.765199e+02	-2.992851e+01
3.786946e+02	-2.997069e+01
3.808820e+02	-3.001981e+01
3.830819e+02	-3.007459e+01
3.852946e+02	-3.011815e+01
3.875200e+02	-3.017300e+01
3.897583e+02	-3.022798e+01
3.920096e+02	-3.027739e+01
3.942738e+02	-3.032337e+01
3.965511e+02	-3.037153e+01
3.988416e+02	-3.042431e+01
4.011452e+02	-3.047444e+01
4.034622e+02	-3.052412e+01
4.057926e+02	-3.057536e+01
4.081365e+02	-3.062650e+01
4.104938e+02	-3.067767e+01
4.128648e+02	-3.072431e+01
4.152495e+02	-3.077486e+01
4.176480e+02	-3.082344e+01
4.200603e+02	-3.087566e+01
4.224866e+02	-3.092534e+01
4.249268e+02	-3.097481e+01
4.273812e+02	-3.102144e+01
4.298497e+02	-3.107749e+01
4.323325e+02	-3.112358e+01
4.348297e+02	-3.117619e+01
4.373412e+02	-3.122629e+01
4.398673e+02	-3.127662e+01
4.424079e+02	-3.132456e+01
4.449633e+02	-3.137529e+01
4.475334e+02	-3.142408e+01
4.501183e+02	-3.147618e+01
4.527182e+02	-3.153166e+01
4.553330e+02	-3.157938e+01
4.579630e+02	-3.162283e+01
4.606082e+02	-3.167564e+01
4.632687e+02	-3.172422e+01
4.659445e+02	-3.177896e+01
4.686358e+02	-3.182464e+01
4.713426e+02	-3.187962e+01
4.740650e+02	-3.192624e+01
4.768032e+02	-3.197716e+01
4.795572e+02	-3.203166e+01
4.823271e+02	-3.207925e+01
4.851130e+02	-3.212752e+01
4.879150e+02	-3.218543e+01
4.907332e+02	-3.222022e+01
4.935676e+02	-3.228132e+01
4.964185e+02	-3.233281e+01
4.992858e+02	-3.237900e+01
5.021696e+02	-3.243121e+01
5.050701e+02	-3.247757e+01
5.079874e+02	-3.253061e+01
5.109215e+02	-3.258423e+01
5.138726e+02	-3.263444e+01
5.168407e+02	-3.268258e+01
5.198259e+02	-3.272984e+01
5.228284e+02	-3.277897e+01
5.258482e+02	-3.283672e+01
5.288855e+02	-3.289495e+01
5.319403e+02	-3.292953e+01
5.350128e+02	-3.298408e+01
5.381030e+02	-3.303916e+01
5.412111e+02	-3.308999e+01
5.443371e+02	-3.313222e+01
5.474812e+02	-3.317229e+01
5.506434e+02	-3.324048e+01
5.538239e+02	-3.329029e+01
5.570228e+02	-3.333192e+01
5.602401e+02	-3.338339e+01
5.634760e+02	-3.342977e+01
5.667306e+02	-3.348367e+01
5.700040e+02	-3.353620e+01
5.732964e+02	-3.358597e+01
5.766077e+02	-3.363807e+01
5.799382e+02	-3.368220e+01
5.832879e+02	-3.373982e+01
5.866569e+02	-3.378152e+01
5.900454e+02	-3.383997e+01
5.934535e+02	-3.388859e+01
5.968813e+02	-3.393283e+01
6.003288e+02	-3.399224e+01
6.037963e+02	-3.403823e+01
6.072838e+02	-3.409246e+01
6.107914e+02	-3.414004e+01
6.143194e+02	-3.418772e+01
6.178676e+02	-3.424184e+01
6.214364e+02	-3.429050e+01
6.250258e+02	-3.434330e+01
6.286359e+02	-3.439591e+01
6.322669e+02	-3.444301e+01
6.359189e+02	-3.448510e+01
6.395919e+02	-3.454412e+01
6.432862e+02	-3.459704e+01
6.470017e+02	-3.464111e+01
6.507388e+02	-3.468961e+01
6.544974e+02	-3.473773e+01
6.582778e+02	-3.479370e+01
6.620800e+02	-3.483992e+01
6.659041e+02	-3.489171e+01
6.697504e+02	-3.494016e+01
6.736188e+02	-3.499281e+01
6.775096e+02	-3.504348e+01
6.814229e+02	-3.509171e+01
6.853587e+02	-3.515355e+01
6.893173e+02	-3.520342e+01
6.932988e+02	-3.525197e+01
6.973033e+02	-3.529453e+01
7.013309e+02	-3.534624e+01
