Frequency(Hz)	Magnitude(dB)
1.000000e+01	-2.282992e+00
1.005776e+01	-2.303426e+00
1.011585e+01	-2.324146e+00
1.017428e+01	-2.345141e+00
1.023305e+01	-2.365760e+00
1.029215e+01	-2.387041e+00
1.035160e+01	-2.408276e+00
1.041139e+01	-2.429719e+00
1.047153e+01	-2.451063e+00
1.053201e+01	-2.472835e+00
1.059284e+01	-2.494488e+00
1.065403e+01	-2.516360e+00
1.071556e+01	-2.538772e+00
1.077746e+01	-2.560794e+00
1.083971e+01	-2.583138e+00
1.090232e+01	-2.605740e+00
1.096529e+01	-2.628404e+00
1.102862e+01	-2.651375e+00
1.109232e+01	-2.674053e+00
1.115639e+01	-2.696916e+00
1.122083e+01	-2.720198e+00
1.128564e+01	-2.743595e+00
1.135083e+01	-2.767099e+00
1.141639e+01	-2.790784e+00
1.148233e+01	-2.814393e+00
1.154865e+01	-2.838605e+00
1.161536e+01	-2.862540e+00
1.168245e+01	-2.886843e+00
1.174992e+01	-2.911016e+00
1.181779e+01	-2.935757e+00
1.188605e+01	-2.960177e+00
1.195470e+01	-2.985248e+00
1.202375e+01	-3.010073e+00
1.209320e+01	-3.035123e+00
1.216305e+01	-3.060632e+00
1.223330e+01	-3.085610e+00
1.230396e+01	-3.111145e+00
1.237503e+01	-3.136788e+00
1.244651e+01	-3.162717e+00
1.251840e+01	-3.188515e+00
1.259070e+01	-3.214846e+00
1.266343e+01	-3.241157e+00
1.273657e+01	-3.267359e+00
1.281014e+01	-3.293866e+00
1.288413e+01	-3.320562e+00
1.295855e+01	-3.347414e+00
1.303339e+01	-3.374570e+00
1.310867e+01	-3.401606e+00
1.318439e+01	-3.428672e+00
1.326054e+01	-3.455957e+00
1.333713e+01	-3.483532e+00
1.341417e+01	-3.511144e+00
1.349165e+01	-3.539003e+00
1.356958e+01	-3.566737e+00
1.364795e+01	-3.595099e+00
1.372678e+01	-3.623319e+00
1.380607e+01	-3.651743e+00
1.388581e+01	-3.680145e+00
1.396602e+01	-3.708727e+00
1.404668e+01	-3.737823e+00
1.412782e+01	-3.766376e+00
1.420942e+01	-3.795801e+00
1.429149e+01	-3.824737e+00
1.437404e+01	-3.854294e+00
1.445706e+01	-3.883878e+00
1.454057e+01	-3.913235e+00
1.462455e+01	-3.942966e+00
1.470902e+01	-3.972947e+00
1.479398e+01	-4.003117e+00
1.487943e+01	-4.033304e+00
1.496537e+01	-4.063496e+00
1.505181e+01	-4.093920e+00
1.513875e+01	-4.124667e+00
1.522619e+01	-4.155665e+00
1.531414e+01	-4.186691e+00
1.540259e+01	-4.217374e+00
1.549156e+01	-4.248533e+00
1.558103e+01	-4.279752e+00
1.567103e+01	-4.311321e+00
1.576155e+01	-4.342538e+00
1.585258e+01	-4.374614e+00
1.594415e+01	-4.406208e+00
1.603624e+01	-4.438374e+00
1.612886e+01	-4.470133e+00
1.622202e+01	-4.502564e+00
1.631572e+01	-4.535006e+00
1.640996e+01	-4.567382e+00
1.650474e+01	-4.600066e+00
1.660008e+01	-4.632717e+00
1.669596e+01	-4.665644e+00
1.679239e+01	-4.698868e+00
1.688938e+01	-4.731878e+00
1.698694e+01	-4.765062e+00
1.708505e+01	-4.798399e+00
1.718373e+01	-4.832230e+00
1.728299e+01	-4.865688e+00
1.738281e+01	-4.899508e+00
1.748322e+01	-4.933339e+00
1.758420e+01	-4.967391e+00
1.768576e+01	-5.001627e+00
1.778792e+01	-5.035726e+00
1.789066e+01	-5.070415e+00
1.799399e+01	-5.104462e+00
1.809793e+01	-5.139447e+00
1.820246e+01	-5.174028e+00
1.830760e+01	-5.208718e+00
1.841334e+01	-5.243963e+00
1.851969e+01	-5.279116e+00
1.862666e+01	-5.314202e+00
1.873425e+01	-5.349633e+00
1.884246e+01	-5.385092e+00
1.895129e+01	-5.420906e+00
1.906075e+01	-5.456468e+00
1.917085e+01	-5.492174e+00
1.928158e+01	-5.528417e+00
1.939295e+01	-5.564609e+00
1.950496e+01	-5.600595e+00
1.961762e+01	-5.637105e+00
1.973093e+01	-5.673202e+00
1.984490e+01	-5.709962e+00
1.995952e+01	-5.746416e+00
2.007480e+01	-5.783088e+00
2.019076e+01	-5.820236e+00
2.030738e+01	-5.856894e+00
2.042467e+01	-5.894130e+00
2.054264e+01	-5.931470e+00
2.066130e+01	-5.969014e+00
2.078064e+01	-6.006058e+00
2.090066e+01	-6.043936e+00
2.102139e+01	-6.081344e+00
2.114280e+01	-6.119109e+00
2.126492e+01	-6.156851e+00
2.138775e+01	-6.195190e+00
2.151128e+01	-6.233068e+00
2.163553e+01	-6.270694e+00
2.176050e+01	-6.309357e+00
2.188619e+01	-6.347546e+00
2.201260e+01	-6.386085e+00
2.213974e+01	-6.424866e+00
2.226762e+01	-6.463194e+00
2.239624e+01	-6.502101e+00
2.252560e+01	-6.541365e+00
2.265571e+01	-6.580062e+00
2.278656e+01	-6.619012e+00
2.291818e+01	-6.658490e+00
2.305055e+01	-6.697207e+00
2.318369e+01	-6.736861e+00
2.331760e+01	-6.776369e+00
2.345228e+01	-6.816140e+00
2.358774e+01	-6.855873e+00
2.372398e+01	-6.895673e+00
2.386101e+01	-6.935256e+00
2.399883e+01	-6.975261e+00
2.413745e+01	-7.015277e+00
2.427686e+01	-7.055475e+00
2.441709e+01	-7.095522e+00
2.455812e+01	-7.136100e+00
2.469997e+01	-7.176532e+00
2.484263e+01	-7.217120e+00
2.498612e+01	-7.257590e+00
2.513044e+01	-7.297846e+00
2.527559e+01	-7.339199e+00
2.542158e+01	-7.379646e+00
2.556842e+01	-7.420599e+00
2.571610e+01	-7.461614e+00
2.586463e+01	-7.502824e+00
2.601403e+01	-7.543518e+00
2.616428e+01	-7.585080e+00
2.631541e+01	-7.626403e+00
2.646740e+01	-7.668317e+00
2.662028e+01	-7.709255e+00
2.677404e+01	-7.750862e+00
2.692868e+01	-7.792613e+00
2.708422e+01	-7.834401e+00
2.724066e+01	-7.875706e+00
2.739800e+01	-7.918190e+00
2.755625e+01	-7.960338e+00
2.771541e+01	-8.001962e+00
2.787550e+01	-8.044368e+00
2.803650e+01	-8.086018e+00
2.819844e+01	-8.129004e+00
2.836131e+01	-8.171533e+00
2.852513e+01	-8.213047e+00
2.868989e+01	-8.255667e+00
2.885560e+01	-8.298941e+00
2.902227e+01	-8.341690e+00
2.918990e+01	-8.384317e+00
2.935850e+01	-8.426946e+00
2.952807e+01	-8.469456e+00
2.969863e+01	-8.512988e+00
2.987016e+01	-8.555459e+00
3.004269e+01	-8.599184e+00
3.021622e+01	-8.642018e+00
3.039075e+01	-8.685367e+00
3.056628e+01	-8.728448e+00
3.074283e+01	-8.771920e+00
3.092040e+01	-8.815242e+00
3.109900e+01	-8.858673e+00
3.127862e+01	-8.902013e+00
3.145929e+01	-8.946192e+00
3.164099e+01	-8.989626e+00
3.182375e+01	-9.033384e+00
3.200756e+01	-9.076888e+00
3.219244e+01	-9.120903e+00
3.237838e+01	-9.165193e+00
3.256540e+01	-9.209355e+00
3.275349e+01	-9.253270e+00
3.294268e+01	-9.296560e+00
3.313295e+01	-9.341715e+00
3.332433e+01	-9.385659e+00
3.351681e+01	-9.429927e+00
3.371040e+01	-9.474229e+00
3.390511e+01	-9.518658e+00
3.410094e+01	-9.562887e+00
3.429791e+01	-9.607933e+00
3.449601e+01	-9.652205e+00
3.469526e+01	-9.696783e+00
3.489566e+01	-9.740924e+00
3.509721e+01	-9.786254e+00
3.529993e+01	-9.830866e+00
3.550382e+01	-9.875792e+00
3.570889e+01	-9.920752e+00
3.591515e+01	-9.965607e+00
3.612259e+01	-1.001055e+01
3.633123e+01	-1.005582e+01
3.654108e+01	-1.010090e+01
3.675214e+01	-1.014569e+01
3.696442e+01	-1.019128e+01
3.717792e+01	-1.023634e+01
3.739266e+01	-1.028171e+01
3.760864e+01	-1.032748e+01
3.782587e+01	-1.037322e+01
3.804435e+01	-1.041871e+01
3.826409e+01	-1.046394e+01
3.848510e+01	-1.050886e+01
3.870739e+01	-1.055428e+01
3.893096e+01	-1.060046e+01
3.915583e+01	-1.064586e+01
3.938199e+01	-1.069156e+01
3.960946e+01	-1.073793e+01
3.983824e+01	-1.078375e+01
4.006834e+01	-1.082990e+01
4.029978e+01	-1.087493e+01
4.053255e+01	-1.092113e+01
4.076666e+01	-1.096730e+01
4.100213e+01	-1.101352e+01
4.123896e+01	-1.105965e+01
4.147715e+01	-1.110543e+01
4.171672e+01	-1.115207e+01
4.195767e+01	-1.119773e+01
4.220002e+01	-1.124345e+01
4.244377e+01	-1.129026e+01
4.268892e+01	-1.133701e+01
4.293549e+01	-1.138315e+01
4.318348e+01	-1.142922e+01
4.343291e+01	-1.147547e+01
4.368377e+01	-1.152233e+01
4.393609e+01	-1.156874e+01
4.418986e+01	-1.161557e+01
4.444510e+01	-1.166225e+01
4.470182e+01	-1.170889e+01
4.496001e+01	-1.175569e+01
4.521970e+01	-1.180234e+01
4.548089e+01	-1.184874e+01
4.574358e+01	-1.189544e+01
4.600779e+01	-1.194261e+01
4.627353e+01	-1.198962e+01
4.654081e+01	-1.203601e+01
4.680963e+01	-1.208271e+01
4.708000e+01	-1.213001e+01
4.735193e+01	-1.217690e+01
4.762543e+01	-1.222382e+01
4.790051e+01	-1.227181e+01
4.817719e+01	-1.231813e+01
4.845545e+01	-1.236493e+01
4.873533e+01	-1.241254e+01
4.901682e+01	-1.245962e+01
4.929994e+01	-1.250695e+01
4.958470e+01	-1.255410e+01
4.987110e+01	-1.260225e+01
5.015915e+01	-1.264872e+01
5.044887e+01	-1.269614e+01
5.074026e+01	-1.274313e+01
5.103333e+01	-1.279073e+01
5.132810e+01	-1.283795e+01
5.162457e+01	-1.288540e+01
5.192275e+01	-1.293304e+01
5.222265e+01	-1.298065e+01
5.252429e+01	-1.302818e+01
5.282767e+01	-1.307565e+01
5.313280e+01	-1.312350e+01
5.343969e+01	-1.317132e+01
5.374836e+01	-1.321773e+01
5.405880e+01	-1.326625e+01
5.437105e+01	-1.331312e+01
5.468509e+01	-1.336171e+01
5.500095e+01	-1.340944e+01
5.531863e+01	-1.345723e+01
5.563815e+01	-1.350501e+01
5.595951e+01	-1.355275e+01
5.628273e+01	-1.359982e+01
5.660782e+01	-1.364704e+01
5.693479e+01	-1.369582e+01
5.726364e+01	-1.374468e+01
5.759439e+01	-1.379162e+01
5.792705e+01	-1.384015e+01
5.826164e+01	-1.388688e+01
5.859815e+01	-1.393555e+01
5.893662e+01	-1.398363e+01
5.927703e+01	-1.403147e+01
5.961941e+01	-1.407914e+01
5.996377e+01	-1.412767e+01
6.031012e+01	-1.417589e+01
6.065847e+01	-1.422389e+01
6.100883e+01	-1.427254e+01
6.136121e+01	-1.432068e+01
6.171563e+01	-1.436901e+01
6.207210e+01	-1.441679e+01
6.243063e+01	-1.446513e+01
6.279122e+01	-1.451323e+01
6.315390e+01	-1.456183e+01
6.351868e+01	-1.460976e+01
6.388556e+01	-1.465873e+01
6.425456e+01	-1.470708e+01
6.462569e+01	-1.475584e+01
6.499897e+01	-1.480335e+01
6.537440e+01	-1.485119e+01
6.575200e+01	-1.489973e+01
6.613178e+01	-1.494894e+01
6.651375e+01	-1.499680e+01
6.689793e+01	-1.504532e+01
6.728433e+01	-1.509312e+01
6.767297e+01	-1.514274e+01
6.806384e+01	-1.519124e+01
6.845698e+01	-1.523937e+01
6.885238e+01	-1.528858e+01
6.925007e+01	-1.533693e+01
6.965005e+01	-1.538459e+01
7.005235e+01	-1.543344e+01
7.045697e+01	-1.548251e+01
7.086393e+01	-1.553168e+01
7.127323e+01	-1.557982e+01
7.168490e+01	-1.562757e+01
7.209895e+01	-1.567673e+01
7.251539e+01	-1.572564e+01
7.293424e+01	-1.577434e+01
7.335551e+01	-1.582318e+01
7.377920e+01	-1.587155e+01
7.420535e+01	-1.591972e+01
7.463396e+01	-1.596773e+01
7.506504e+01	-1.601869e+01
7.549861e+01	-1.606653e+01
7.593469e+01	-1.611453e+01
7.637328e+01	-1.616291e+01
7.681441e+01	-1.621342e+01
7.725809e+01	-1.626147e+01
7.770433e+01	-1.631184e+01
7.815315e+01	-1.636055e+01
7.860456e+01	-1.640754e+01
7.905857e+01	-1.645780e+01
7.951521e+01	-1.650723e+01
7.997449e+01	-1.655576e+01
8.043642e+01	-1.660343e+01
8.090102e+01	-1.665359e+01
8.136830e+01	-1.670234e+01
8.183828e+01	-1.675063e+01
8.231097e+01	-1.679973e+01
8.278640e+01	-1.684952e+01
8.326457e+01	-1.689772e+01
8.374550e+01	-1.694688e+01
8.422921e+01	-1.699537e+01
8.471572e+01	-1.704392e+01
8.520503e+01	-1.709451e+01
8.569717e+01	-1.714313e+01
8.619215e+01	-1.719220e+01
8.669000e+01	-1.724259e+01
8.719071e+01	-1.729116e+01
8.769432e+01	-1.734056e+01
8.820084e+01	-1.738906e+01
8.871029e+01	-1.743823e+01
8.922267e+01	-1.748619e+01
8.973802e+01	-1.753782e+01
9.025634e+01	-1.758641e+01
9.077766e+01	-1.763450e+01
9.130199e+01	-1.768359e+01
9.182935e+01	-1.773277e+01
9.235975e+01	-1.778256e+01
9.289321e+01	-1.783063e+01
9.342976e+01	-1.788041e+01
9.396941e+01	-1.792995e+01
9.451217e+01	-1.797939e+01
9.505807e+01	-1.802826e+01
9.560712e+01	-1.807704e+01
9.615934e+01	-1.812663e+01
9.671476e+01	-1.817610e+01
9.727338e+01	-1.822459e+01
9.783522e+01	-1.827487e+01
9.840032e+01	-1.832384e+01
9.896867e+01	-1.837315e+01
9.954031e+01	-1.842184e+01
1.001153e+02	-1.847143e+01
1.006935e+02	-1.852142e+01
1.012751e+02	-1.856887e+01
1.018601e+02	-1.861941e+01
1.024484e+02	-1.866891e+01
1.030402e+02	-1.871740e+01
1.036353e+02	-1.876723e+01
1.042339e+02	-1.881841e+01
1.048360e+02	-1.886587e+01
1.054415e+02	-1.891677e+01
1.060505e+02	-1.896644e+01
1.066631e+02	-1.901357e+01
1.072791e+02	-1.906387e+01
1.078988e+02	-1.911362e+01
1.085220e+02	-1.916302e+01
1.091488e+02	-1.921266e+01
1.097793e+02	-1.926192e+01
1.104133e+02	-1.931108e+01
1.110511e+02	-1.936023e+01
1.116925e+02	-1.941038e+01
1.123376e+02	-1.946017e+01
1.129865e+02	-1.951017e+01
1.136391e+02	-1.955687e+01
1.142955e+02	-1.960682e+01
1.149556e+02	-1.965585e+01
1.156196e+02	-1.970729e+01
1.162874e+02	-1.975623e+01
1.169591e+02	-1.980658e+01
1.176347e+02	-1.985510e+01
1.183141e+02	-1.990433e+01
1.189975e+02	-1.995345e+01
1.196848e+02	-2.000461e+01
1.203761e+02	-2.005382e+01
1.210714e+02	-2.010167e+01
1.217707e+02	-2.015174e+01
1.224740e+02	-2.020220e+01
1.231814e+02	-2.025097e+01
1.238929e+02	-2.030113e+01
1.246085e+02	-2.035098e+01
1.253283e+02	-2.039979e+01
1.260522e+02	-2.044870e+01
1.267802e+02	-2.049892e+01
1.275125e+02	-2.054999e+01
1.282490e+02	-2.059880e+01
1.289898e+02	-2.064889e+01
1.297348e+02	-2.069898e+01
1.304842e+02	-2.074722e+01
1.312378e+02	-2.079834e+01
1.319959e+02	-2.084750e+01
1.327583e+02	-2.089641e+01
1.335251e+02	-2.094563e+01
1.342963e+02	-2.099485e+01
1.350720e+02	-2.104506e+01
1.358522e+02	-2.109522e+01
1.366368e+02	-2.114541e+01
1.374260e+02	-2.119494e+01
1.382198e+02	-2.124478e+01
1.390182e+02	-2.129464e+01
1.398211e+02	-2.134375e+01
1.406287e+02	-2.139439e+01
1.414410e+02	-2.144327e+01
1.422579e+02	-2.149100e+01
1.430796e+02	-2.154283e+01
1.439060e+02	-2.159173e+01
1.447372e+02	-2.164293e+01
1.455732e+02	-2.169110e+01
1.464141e+02	-2.174066e+01
1.472597e+02	-2.179158e+01
1.481103e+02	-2.183966e+01
1.489658e+02	-2.188942e+01
1.498262e+02	-2.194074e+01
1.506916e+02	-2.199011e+01
1.515620e+02	-2.203931e+01
1.524374e+02	-2.208960e+01
1.533179e+02	-2.213939e+01
1.542034e+02	-2.218848e+01
1.550941e+02	-2.223831e+01
1.559899e+02	-2.228762e+01
1.568909e+02	-2.233754e+01
1.577971e+02	-2.238739e+01
1.587085e+02	-2.243850e+01
1.596252e+02	-2.248640e+01
1.605472e+02	-2.253803e+01
1.614745e+02	-2.258684e+01
1.624072e+02	-2.263656e+01
1.633453e+02	-2.268485e+01
1.642887e+02	-2.273369e+01
1.652377e+02	-2.278461e+01
1.661921e+02	-2.283515e+01
1.671520e+02	-2.288534e+01
1.681175e+02	-2.293395e+01
1.690885e+02	-2.298587e+01
1.700651e+02	-2.303396e+01
1.710474e+02	-2.308602e+01
1.720354e+02	-2.313308e+01
1.730291e+02	-2.318460e+01
1.740285e+02	-2.323398e+01
1.750337e+02	-2.328495e+01
1.760446e+02	-2.333331e+01
1.770615e+02	-2.338252e+01
1.780842e+02	-2.343118e+01
1.791128e+02	-2.348657e+01
1.801473e+02	-2.353286e+01
1.811878e+02	-2.358304e+01
1.822344e+02	-2.363522e+01
1.832870e+02	-2.368063e+01
1.843456e+02	-2.373251e+01
1.854104e+02	-2.378272e+01
1.864813e+02	-2.383165e+01
1.875584e+02	-2.388022e+01
1.886418e+02	-2.393118e+01
1.897313e+02	-2.398400e+01
1.908272e+02	-2.403191e+01
1.919294e+02	-2.408227e+01
1.930380e+02	-2.413014e+01
1.941530e+02	-2.418132e+01
1.952744e+02	-2.422867e+01
1.964023e+02	-2.428094e+01
1.975367e+02	-2.433078e+01
1.986777e+02	-2.438019e+01
1.998252e+02	-2.442966e+01
2.009794e+02	-2.448108e+01
2.021403e+02	-2.452848e+01
2.033078e+02	-2.457653e+01
2.044821e+02	-2.463041e+01
2.056632e+02	-2.468148e+01
2.068511e+02	-2.473100e+01
2.080459e+02	-2.477732e+01
2.092475e+02	-2.482933e+01
2.104561e+02	-2.487962e+01
2.116717e+02	-2.493224e+01
2.128943e+02	-2.497663e+01
2.141240e+02	-2.502942e+01
2.153608e+02	-2.508031e+01
2.166047e+02	-2.512840e+01
2.178558e+02	-2.517784e+01
2.191141e+02	-2.522992e+01
2.203797e+02	-2.527793e+01
2.216526e+02	-2.532570e+01
2.229329e+02	-2.537941e+01
2.242205e+02	-2.543084e+01
2.255156e+02	-2.547647e+01
2.268182e+02	-2.552582e+01
2.281283e+02	-2.557970e+01
2.294459e+02	-2.562792e+01
2.307712e+02	-2.567664e+01
2.321041e+02	-2.572842e+01
2.334447e+02	-2.577737e+01
2.347931e+02	-2.582857e+01
2.361493e+02	-2.587771e+01
2.375133e+02	-2.592839e+01
2.388851e+02	-2.597838e+01
2.402649e+02	-2.602773e+01
2.416527e+02	-2.608007e+01
2.430484e+02	-2.612727e+01
2.444523e+02	-2.617650e+01
2.458642e+02	-2.622704e+01
2.472843e+02	-2.627522e+01
2.487126e+02	-2.633022e+01
2.501492e+02	-2.637918e+01
2.515940e+02	-2.642904e+01
2.530472e+02	-2.647631e+01
2.545088e+02	-2.652980e+01
2.559789e+02	-2.657604e+01
2.574574e+02	-2.662685e+01
2.589444e+02	-2.667195e+01
2.604401e+02	-2.672956e+01
2.619444e+02	-2.678091e+01
2.634574e+02	-2.682690e+01
2.649791e+02	-2.687665e+01
2.665096e+02	-2.692828e+01
2.680489e+02	-2.697575e+01
2.695972e+02	-2.702638e+01
2.711544e+02	-2.707708e+01
2.727205e+02	-2.712511e+01
2.742958e+02	-2.717886e+01
2.758801e+02	-2.722869e+01
2.774736e+02	-2.728003e+01
2.790762e+02	-2.732562e+01
2.806882e+02	-2.737312e+01
2.823094e+02	-2.742900e+01
2.839400e+02	-2.747818e+01
2.855800e+02	-2.752971e+01
2.872295e+02	-2.757791e+01
2.888886e+02	-2.762231e+01
2.905572e+02	-2.767853e+01
2.922354e+02	-2.772919e+01
2.939234e+02	-2.777599e+01
2.956211e+02	-2.782460e+01
2.973286e+02	-2.787557e+01
2.990459e+02	-2.792908e+01
3.007732e+02	-2.797559e+01
3.025104e+02	-2.803183e+01
3.042577e+02	-2.807599e+01
3.060151e+02	-2.812868e+01
3.077826e+02	-2.817980e+01
3.095604e+02	-2.822696e+01
3.113484e+02	-2.827540e+01
3.131467e+02	-2.832734e+01
3.149554e+02	-2.837909e+01
3.167746e+02	-2.842325e+01
3.186043e+02	-2.847987e+01
3.204445e+02	-2.852505e+01
3.222954e+02	-2.857768e+01
3.241570e+02	-2.862812e+01
3.260293e+02	-2.868225e+01
3.279124e+02	-2.873140e+01
3.298064e+02	-2.877829e+01
3.317114e+02	-2.883231e+01
3.336273e+02	-2.887826e+01
3.355544e+02	-2.892483e+01
3.374925e+02	-2.897676e+01
3.394418e+02	-2.903109e+01
3.414024e+02	-2.907841e+01
3.433744e+02	-2.912628e+01
3.453577e+02	-2.917454e+01
3.473525e+02	-2.923246e+01
3.493588e+02	-2.927772e+01
3.513766e+02	-2.932799e+01
3.534062e+02	-2.937717e+01
3.554474e+02	-2.942512e+01
3.575005e+02	-2.948011e+01
3.595654e+02	-2.952804e+01
3.616422e+02	-2.958356e+01
3.637311e+02	-2.962423e+01
3.658320e+02	-2.967931e+01
3.679450e+02	-2.972735e+01
3.700702e+02	-2.978036e+01
3.722077e+02	-2.982773e+01
3.743576e+02	-2.988216e+01
3.765199e+02	-2.993067e+01
3.786946e+02	-2.998106e+01
3.808820e+02	-3.002973e+01
3.830819e+02	-3.007479e+01
3.852946e+02	-3.013091e+01
3.875200e+02	-3.018136e+01
3.897583e+02	-3.023020e+01
3.920096e+02	-3.028036e+01
3.942738e+02	-3.032960e+01
3.965511e+02	-3.038000e+01
3.988416e+02	-3.043293e+01
4.011452e+02	-3.048264e+01
4.034622e+02	-3.053522e+01
4.057926e+02	-3.057510e+01
4.081365e+02	-3.062535e+01
4.104938e+02	-3.068378e+01
4.128648e+02	-3.073311e+01
4.152495e+02	-3.077836e+01
4.176480e+02	-3.083606e+01
4.200603e+02	-3.088105e+01
4.224866e+02	-3.093509e+01
4.249268e+02	-3.097908e+01
4.273812e+02	-3.103139e+01
4.298497e+02	-3.108266e+01
4.323325e+02	-3.113666e+01
4.348297e+02	-3.118374e+01
4.373412e+02	-3.122963e+01
4.398673e+02	-3.128481e+01
4.424079e+02	-3.132797e+01
4.449633e+02	-3.138618e+01
4.475334e+02	-3.142862e+01
4.501183e+02	-3.148546e+01
4.527182e+02	-3.153889e+01
4.553330e+02	-3.158395e+01
4.579630e+02	-3.163010e+01
4.606082e+02	-3.168527e+01
4.632687e+02	-3.173069e+01
4.659445e+02	-3.177890e+01
4.686358e+02	-3.183743e+01
4.713426e+02	-3.188123e+01
4.740650e+02	-3.193081e+01
4.768032e+02	-3.198557e+01
4.795572e+02	-3.203424e+01
4.823271e+02	-3.208101e+01
4.851130e+02	-3.213188e+01
4.879150e+02	-3.218295e+01
4.907332e+02	-3.224152e+01
4.935676e+02	-3.228667e+01
4.964185e+02	-3.233264e+01
4.992858e+02	-3.238495e+01
5.021696e+02	-3.243250e+01
5.050701e+02	-3.248783e+01
5.079874e+02	-3.253509e+01
5.109215e+02	-3.259117e+01
5.138726e+02	-3.263367e+01
5.168407e+02	-3.268357e+01
5.198259e+02	-3.274076e+01
5.228284e+02	-3.278492e+01
5.258482e+02	-3.283390e+01
5.288855e+02	-3.288575e+01
5.319403e+02	-3.294099e+01
5.350128e+02	-3.299070e+01
5.381030e+02	-3.303537e+01
5.412111e+02	-3.308748e+01
5.443371e+02	-3.313552e+01
5.474812e+02	-3.319353e+01
5.506434e+02	-3.323413e+01
5.538239e+02	-3.329235e+01
5.570228e+02	-3.333993e+01
5.602401e+02	-3.339177e+01
5.634760e+02	-3.343946e+01
5.667306e+02	-3.348487e+01
5.700040e+02	-3.354257e+01
5.732964e+02	-3.359409e+01
5.766077e+02	-3.364415e+01
5.799382e+02	-3.369623e+01
5.832879e+02	-3.373802e+01
5.866569e+02	-3.378951e+01
5.900454e+02	-3.385195e+01
5.934535e+02	-3.389072e+01
5.968813e+02	-3.394154e+01
6.003288e+02	-3.399898e+01
6.037963e+02	-3.403661e+01
6.072838e+02	-3.409891e+01
6.107914e+02	-3.414088e+01
6.143194e+02	-3.419646e+01
6.178676e+02	-3.424718e+01
6.214364e+02	-3.429264e+01
6.250258e+02	-3.434579e+01
6.286359e+02	-3.439466e+01
6.322669e+02	-3.444933e+01
6.359189e+02	-3.449406e+01
6.395919e+02	-3.454345e+01
6.432862e+02	-3.459646e+01
6.470017e+02	-3.465319e+01
6.507388e+02	-3.470102e+01
6.544974e+02	-3.474997e+01
6.582778e+02	-3.480489e+01
6.620800e+02	-3.484355e+01
6.659041e+02	-3.490285e+01
6.697504e+02	-3.495909e+01
6.736188e+02	-3.499535e+01
6.775096e+02	-3.505187e+01
6.814229e+02	-3.510456e+01
6.853587e+02	-3.514935e+01
6.893173e+02	-3.520772e+01
6.932988e+02	-3.525082e+01
6.973033e+02	-3.531596e+01
7.013309e+02	-3.534664e+01
