Frequency(Hz)	Magnitude(dB)
1.000000e+01	-2.064660e+00
1.005776e+01	-2.083427e+00
1.011585e+01	-2.102488e+00
1.017428e+01	-2.121669e+00
1.023305e+01	-2.141336e+00
1.029215e+01	-2.160634e+00
1.035160e+01	-2.180442e+00
1.041139e+01	-2.200239e+00
1.047153e+01	-2.220198e+00
1.053201e+01	-2.240353e+00
1.059284e+01	-2.260548e+00
1.065403e+01	-2.280856e+00
1.071556e+01	-2.301272e+00
1.077746e+01	-2.322210e+00
1.083971e+01	-2.342783e+00
1.090232e+01	-2.363974e+00
1.096529e+01	-2.384969e+00
1.102862e+01	-2.405922e+00
1.109232e+01	-2.427220e+00
1.115639e+01	-2.448861e+00
1.122083e+01	-2.470567e+00
1.128564e+01	-2.492320e+00
1.135083e+01	-2.514206e+00
1.141639e+01	-2.536222e+00
1.148233e+01	-2.558314e+00
1.154865e+01	-2.580705e+00
1.161536e+01	-2.603597e+00
1.168245e+01	-2.625907e+00
1.174992e+01	-2.648394e+00
1.181779e+01	-2.671364e+00
1.188605e+01	-2.694747e+00
1.195470e+01	-2.718086e+00
1.202375e+01	-2.741169e+00
1.209320e+01	-2.764584e+00
1.216305e+01	-2.788145e+00
1.223330e+01	-2.812192e+00
1.230396e+01	-2.836182e+00
1.237503e+01	-2.860169e+00
1.244651e+01	-2.884277e+00
1.251840e+01	-2.908661e+00
1.259070e+01	-2.932882e+00
1.266343e+01	-2.957631e+00
1.273657e+01	-2.982623e+00
1.281014e+01	-3.007743e+00
1.288413e+01	-3.032569e+00
1.295855e+01	-3.057723e+00
1.303339e+01	-3.083219e+00
1.310867e+01	-3.108521e+00
1.318439e+01	-3.134444e+00
1.326054e+01	-3.160026e+00
1.333713e+01	-3.186103e+00
1.341417e+01	-3.212068e+00
1.349165e+01	-3.238213e+00
1.356958e+01	-3.264823e+00
1.364795e+01	-3.290972e+00
1.372678e+01	-3.317637e+00
1.380607e+01	-3.344319e+00
1.388581e+01	-3.371672e+00
1.396602e+01	-3.398569e+00
1.404668e+01	-3.425865e+00
1.412782e+01	-3.452979e+00
1.420942e+01	-3.480708e+00
1.429149e+01	-3.508591e+00
1.437404e+01	-3.536116e+00
1.445706e+01	-3.564032e+00
1.454057e+01	-3.592162e+00
1.462455e+01	-3.620309e+00
1.470902e+01	-3.648749e+00
1.479398e+01	-3.677448e+00
1.487943e+01	-3.705796e+00
1.496537e+01	-3.734726e+00
1.505181e+01	-3.763577e+00
1.513875e+01	-3.792518e+00
1.522619e+01	-3.821946e+00
1.531414e+01	-3.851375e+00
1.540259e+01	-3.880812e+00
1.549156e+01	-3.910242e+00
1.558103e+01	-3.940106e+00
1.567103e+01	-3.970001e+00
1.576155e+01	-4.000064e+00
1.585258e+01	-4.030082e+00
1.594415e+01	-4.060676e+00
1.603624e+01	-4.090943e+00
1.612886e+01	-4.121695e+00
1.622202e+01	-4.152257e+00
1.631572e+01	-4.183212e+00
1.640996e+01	-4.214069e+00
1.650474e+01	-4.245355e+00
1.660008e+01	-4.276581e+00
1.669596e+01	-4.307781e+00
1.679239e+01	-4.339369e+00
1.688938e+01	-4.371146e+00
1.698694e+01	-4.403189e+00
1.708505e+01	-4.434828e+00
1.718373e+01	-4.466849e+00
1.728299e+01	-4.499171e+00
1.738281e+01	-4.531348e+00
1.748322e+01	-4.563965e+00
1.758420e+01	-4.596838e+00
1.768576e+01	-4.629521e+00
1.778792e+01	-4.662130e+00
1.789066e+01	-4.695345e+00
1.799399e+01	-4.728405e+00
1.809793e+01	-4.761763e+00
1.820246e+01	-4.795007e+00
1.830760e+01	-4.828273e+00
1.841334e+01	-4.862086e+00
1.851969e+01	-4.895609e+00
1.862666e+01	-4.929870e+00
1.873425e+01	-4.963738e+00
1.884246e+01	-4.997976e+00
1.895129e+01	-5.032302e+00
1.906075e+01	-5.066356e+00
1.917085e+01	-5.101203e+00
1.928158e+01	-5.135556e+00
1.939295e+01	-5.170381e+00
1.950496e+01	-5.205124e+00
1.961762e+01	-5.240086e+00
1.973093e+01	-5.275425e+00
1.984490e+01	-5.310408e+00
1.995952e+01	-5.345929e+00
2.007480e+01	-5.381648e+00
2.019076e+01	-5.416920e+00
2.030738e+01	-5.452910e+00
2.042467e+01	-5.488711e+00
2.054264e+01	-5.524570e+00
2.066130e+01	-5.560666e+00
2.078064e+01	-5.597038e+00
2.090066e+01	-5.632824e+00
2.102139e+01	-5.669391e+00
2.114280e+01	-5.706093e+00
2.126492e+01	-5.742614e+00
2.138775e+01	-5.778924e+00
2.151128e+01	-5.816110e+00
2.163553e+01	-5.853195e+00
2.176050e+01	-5.890290e+00
2.188619e+01	-5.927247e+00
2.201260e+01	-5.964695e+00
2.213974e+01	-6.001801e+00
2.226762e+01	-6.039884e+00
2.239624e+01	-6.077432e+00
2.252560e+01	-6.115298e+00
2.265571e+01	-6.153070e+00
2.278656e+01	-6.190620e+00
2.291818e+01	-6.228879e+00
2.305055e+01	-6.266990e+00
2.318369e+01	-6.305067e+00
2.331760e+01	-6.343494e+00
2.345228e+01	-6.381863e+00
2.358774e+01	-6.420692e+00
2.372398e+01	-6.459491e+00
2.386101e+01	-6.497981e+00
2.399883e+01	-6.537213e+00
2.413745e+01	-6.575934e+00
2.427686e+01	-6.614852e+00
2.441709e+01	-6.654174e+00
2.455812e+01	-6.693632e+00
2.469997e+01	-6.732745e+00
2.484263e+01	-6.772474e+00
2.498612e+01	-6.812142e+00
2.513044e+01	-6.851702e+00
2.527559e+01	-6.891517e+00
2.542158e+01	-6.931155e+00
2.556842e+01	-6.971461e+00
2.571610e+01	-7.011097e+00
2.586463e+01	-7.051500e+00
2.601403e+01	-7.091646e+00
2.616428e+01	-7.131552e+00
2.631541e+01	-7.172416e+00
2.646740e+01	-7.212728e+00
2.662028e+01	-7.253327e+00
2.677404e+01	-7.293775e+00
2.692868e+01	-7.334590e+00
2.708422e+01	-7.375047e+00
2.724066e+01	-7.416338e+00
2.739800e+01	-7.457444e+00
2.755625e+01	-7.498571e+00
2.771541e+01	-7.539564e+00
2.787550e+01	-7.580595e+00
2.803650e+01	-7.622209e+00
2.819844e+01	-7.663550e+00
2.836131e+01	-7.704895e+00
2.852513e+01	-7.746896e+00
2.868989e+01	-7.788284e+00
2.885560e+01	-7.829990e+00
2.902227e+01	-7.872038e+00
2.918990e+01	-7.914111e+00
2.935850e+01	-7.955503e+00
2.952807e+01	-7.998067e+00
2.969863e+01	-8.039768e+00
2.987016e+01	-8.082055e+00
3.004269e+01	-8.124741e+00
3.021622e+01	-8.166934e+00
3.039075e+01	-8.209127e+00
3.056628e+01	-8.251893e+00
3.074283e+01	-8.294069e+00
3.092040e+01	-8.337218e+00
3.109900e+01	-8.379760e+00
3.127862e+01	-8.422406e+00
3.145929e+01	-8.464665e+00
3.164099e+01	-8.508172e+00
3.182375e+01	-8.551213e+00
3.200756e+01	-8.594144e+00
3.219244e+01	-8.637422e+00
3.237838e+01	-8.681462e+00
3.256540e+01	-8.724161e+00
3.275349e+01	-8.767231e+00
3.294268e+01	-8.810538e+00
3.313295e+01	-8.853983e+00
3.332433e+01	-8.897933e+00
3.351681e+01	-8.941143e+00
3.371040e+01	-8.984695e+00
3.390511e+01	-9.028896e+00
3.410094e+01	-9.072386e+00
3.429791e+01	-9.116263e+00
3.449601e+01	-9.160754e+00
3.469526e+01	-9.204596e+00
3.489566e+01	-9.248709e+00
3.509721e+01	-9.292310e+00
3.529993e+01	-9.336615e+00
3.550382e+01	-9.381072e+00
3.570889e+01	-9.425598e+00
3.591515e+01	-9.469904e+00
3.612259e+01	-9.513833e+00
3.633123e+01	-9.558158e+00
3.654108e+01	-9.602503e+00
3.675214e+01	-9.647965e+00
3.696442e+01	-9.692037e+00
3.717792e+01	-9.736788e+00
3.739266e+01	-9.781762e+00
3.760864e+01	-9.826351e+00
3.782587e+01	-9.871613e+00
3.804435e+01	-9.916233e+00
3.826409e+01	-9.961098e+00
3.848510e+01	-1.000608e+01
3.870739e+01	-1.005128e+01
3.893096e+01	-1.009633e+01
3.915583e+01	-1.014096e+01
3.938199e+01	-1.018646e+01
3.960946e+01	-1.023201e+01
3.983824e+01	-1.027734e+01
4.006834e+01	-1.032280e+01
4.029978e+01	-1.036829e+01
4.053255e+01	-1.041334e+01
4.076666e+01	-1.045913e+01
4.100213e+01	-1.050478e+01
4.123896e+01	-1.055001e+01
4.147715e+01	-1.059477e+01
4.171672e+01	-1.064157e+01
4.195767e+01	-1.068747e+01
4.220002e+01	-1.073340e+01
4.244377e+01	-1.077895e+01
4.268892e+01	-1.082413e+01
4.293549e+01	-1.087055e+01
4.318348e+01	-1.091635e+01
4.343291e+01	-1.096308e+01
4.368377e+01	-1.100852e+01
4.393609e+01	-1.105478e+01
4.418986e+01	-1.110072e+01
4.444510e+01	-1.114664e+01
4.470182e+01	-1.119237e+01
4.496001e+01	-1.123929e+01
4.521970e+01	-1.128505e+01
4.548089e+01	-1.133164e+01
4.574358e+01	-1.137775e+01
4.600779e+01	-1.142494e+01
4.627353e+01	-1.147068e+01
4.654081e+01	-1.151772e+01
4.680963e+01	-1.156422e+01
4.708000e+01	-1.161078e+01
4.735193e+01	-1.165653e+01
4.762543e+01	-1.170419e+01
4.790051e+01	-1.175006e+01
4.817719e+01	-1.179726e+01
4.845545e+01	-1.184320e+01
4.873533e+01	-1.189109e+01
4.901682e+01	-1.193754e+01
4.929994e+01	-1.198421e+01
4.958470e+01	-1.203167e+01
4.987110e+01	-1.207789e+01
5.015915e+01	-1.212505e+01
5.044887e+01	-1.217242e+01
5.074026e+01	-1.221932e+01
5.103333e+01	-1.226581e+01
5.132810e+01	-1.231299e+01
5.162457e+01	-1.236037e+01
5.192275e+01	-1.240786e+01
5.222265e+01	-1.245512e+01
5.252429e+01	-1.250169e+01
5.282767e+01	-1.254891e+01
5.313280e+01	-1.259547e+01
5.343969e+01	-1.264367e+01
5.374836e+01	-1.269016e+01
5.405880e+01	-1.273858e+01
5.437105e+01	-1.278544e+01
5.468509e+01	-1.283326e+01
5.500095e+01	-1.287978e+01
5.531863e+01	-1.292740e+01
5.563815e+01	-1.297561e+01
5.595951e+01	-1.302296e+01
5.628273e+01	-1.307064e+01
5.660782e+01	-1.311817e+01
5.693479e+01	-1.316546e+01
5.726364e+01	-1.321375e+01
5.759439e+01	-1.326142e+01
5.792705e+01	-1.330898e+01
5.826164e+01	-1.335694e+01
5.859815e+01	-1.340385e+01
5.893662e+01	-1.345187e+01
5.927703e+01	-1.350016e+01
5.961941e+01	-1.354730e+01
5.996377e+01	-1.359509e+01
6.031012e+01	-1.364280e+01
6.065847e+01	-1.369017e+01
6.100883e+01	-1.373894e+01
6.136121e+01	-1.378696e+01
6.171563e+01	-1.383462e+01
6.207210e+01	-1.388344e+01
6.243063e+01	-1.393111e+01
6.279122e+01	-1.397917e+01
6.315390e+01	-1.402697e+01
6.351868e+01	-1.407525e+01
6.388556e+01	-1.412269e+01
6.425456e+01	-1.417114e+01
6.462569e+01	-1.421885e+01
6.499897e+01	-1.426786e+01
6.537440e+01	-1.431585e+01
6.575200e+01	-1.436332e+01
6.613178e+01	-1.441183e+01
6.651375e+01	-1.446004e+01
6.689793e+01	-1.450805e+01
6.728433e+01	-1.455688e+01
6.767297e+01	-1.460502e+01
6.806384e+01	-1.465363e+01
6.845698e+01	-1.470188e+01
6.885238e+01	-1.475012e+01
6.925007e+01	-1.479813e+01
6.965005e+01	-1.484652e+01
7.005235e+01	-1.489524e+01
7.045697e+01	-1.494322e+01
7.086393e+01	-1.499220e+01
7.127323e+01	-1.504013e+01
7.168490e+01	-1.508941e+01
7.209895e+01	-1.513662e+01
7.251539e+01	-1.518668e+01
7.293424e+01	-1.523415e+01
7.335551e+01	-1.528202e+01
7.377920e+01	-1.533127e+01
7.420535e+01	-1.538043e+01
7.463396e+01	-1.542804e+01
7.506504e+01	-1.547795e+01
7.549861e+01	-1.552555e+01
7.593469e+01	-1.557537e+01
7.637328e+01	-1.562260e+01
7.681441e+01	-1.567198e+01
7.725809e+01	-1.572025e+01
7.770433e+01	-1.576926e+01
7.815315e+01	-1.581842e+01
7.860456e+01	-1.586677e+01
7.905857e+01	-1.591520e+01
7.951521e+01	-1.596420e+01
7.997449e+01	-1.601307e+01
8.043642e+01	-1.606173e+01
8.090102e+01	-1.611039e+01
8.136830e+01	-1.615993e+01
8.183828e+01	-1.620794e+01
8.231097e+01	-1.625710e+01
8.278640e+01	-1.630580e+01
8.326457e+01	-1.635536e+01
8.374550e+01	-1.640349e+01
8.422921e+01	-1.645205e+01
8.471572e+01	-1.650188e+01
8.520503e+01	-1.654975e+01
8.569717e+01	-1.659945e+01
8.619215e+01	-1.664710e+01
8.669000e+01	-1.669717e+01
8.719071e+01	-1.674629e+01
8.769432e+01	-1.679408e+01
8.820084e+01	-1.684301e+01
8.871029e+01	-1.689264e+01
8.922267e+01	-1.694188e+01
8.973802e+01	-1.699128e+01
9.025634e+01	-1.704016e+01
9.077766e+01	-1.708998e+01
9.130199e+01	-1.713767e+01
9.182935e+01	-1.718784e+01
9.235975e+01	-1.723705e+01
9.289321e+01	-1.728637e+01
9.342976e+01	-1.733354e+01
9.396941e+01	-1.738296e+01
9.451217e+01	-1.743282e+01
9.505807e+01	-1.748123e+01
9.560712e+01	-1.753222e+01
9.615934e+01	-1.757970e+01
9.671476e+01	-1.763008e+01
9.727338e+01	-1.767955e+01
9.783522e+01	-1.772792e+01
9.840032e+01	-1.777723e+01
9.896867e+01	-1.782704e+01
9.954031e+01	-1.787562e+01
1.001153e+02	-1.792487e+01
1.006935e+02	-1.797306e+01
1.012751e+02	-1.802267e+01
1.018601e+02	-1.807218e+01
1.024484e+02	-1.812078e+01
1.030402e+02	-1.816987e+01
1.036353e+02	-1.821999e+01
1.042339e+02	-1.826902e+01
1.048360e+02	-1.831905e+01
1.054415e+02	-1.836818e+01
1.060505e+02	-1.841629e+01
1.066631e+02	-1.846695e+01
1.072791e+02	-1.851505e+01
1.078988e+02	-1.856444e+01
1.085220e+02	-1.861496e+01
1.091488e+02	-1.866350e+01
1.097793e+02	-1.871348e+01
1.104133e+02	-1.876236e+01
1.110511e+02	-1.881122e+01
1.116925e+02	-1.886118e+01
1.123376e+02	-1.891060e+01
1.129865e+02	-1.895959e+01
1.136391e+02	-1.900881e+01
1.142955e+02	-1.906000e+01
1.149556e+02	-1.910794e+01
1.156196e+02	-1.915703e+01
1.162874e+02	-1.920702e+01
1.169591e+02	-1.925656e+01
1.176347e+02	-1.930488e+01
1.183141e+02	-1.935546e+01
1.189975e+02	-1.940586e+01
1.196848e+02	-1.945449e+01
1.203761e+02	-1.950432e+01
1.210714e+02	-1.955317e+01
1.217707e+02	-1.960294e+01
1.224740e+02	-1.965180e+01
1.231814e+02	-1.970097e+01
1.238929e+02	-1.975164e+01
1.246085e+02	-1.980124e+01
1.253283e+02	-1.985104e+01
1.260522e+02	-1.990043e+01
1.267802e+02	-1.995085e+01
1.275125e+02	-1.999966e+01
1.282490e+02	-2.004772e+01
1.289898e+02	-2.009848e+01
1.297348e+02	-2.014875e+01
1.304842e+02	-2.019805e+01
1.312378e+02	-2.024680e+01
1.319959e+02	-2.029639e+01
1.327583e+02	-2.034535e+01
1.335251e+02	-2.039589e+01
1.342963e+02	-2.044451e+01
1.350720e+02	-2.049176e+01
1.358522e+02	-2.054570e+01
1.366368e+02	-2.059355e+01
1.374260e+02	-2.064328e+01
1.382198e+02	-2.069363e+01
1.390182e+02	-2.074272e+01
1.398211e+02	-2.079111e+01
1.406287e+02	-2.084239e+01
1.414410e+02	-2.089113e+01
1.422579e+02	-2.094059e+01
1.430796e+02	-2.099203e+01
1.439060e+02	-2.104020e+01
1.447372e+02	-2.109160e+01
1.455732e+02	-2.113810e+01
1.464141e+02	-2.118959e+01
1.472597e+02	-2.123890e+01
1.481103e+02	-2.128947e+01
1.489658e+02	-2.133948e+01
1.498262e+02	-2.138742e+01
1.506916e+02	-2.143895e+01
1.515620e+02	-2.148701e+01
1.524374e+02	-2.153890e+01
1.533179e+02	-2.158698e+01
1.542034e+02	-2.163787e+01
1.550941e+02	-2.168701e+01
1.559899e+02	-2.173468e+01
1.568909e+02	-2.178480e+01
1.577971e+02	-2.183347e+01
1.587085e+02	-2.188623e+01
1.596252e+02	-2.193491e+01
1.605472e+02	-2.198416e+01
1.614745e+02	-2.203462e+01
1.624072e+02	-2.208323e+01
1.633453e+02	-2.213345e+01
1.642887e+02	-2.218270e+01
1.652377e+02	-2.223232e+01
1.661921e+02	-2.228362e+01
1.671520e+02	-2.233317e+01
1.681175e+02	-2.238192e+01
1.690885e+02	-2.243243e+01
1.700651e+02	-2.248168e+01
1.710474e+02	-2.253260e+01
1.720354e+02	-2.258330e+01
1.730291e+02	-2.263061e+01
1.740285e+02	-2.268118e+01
1.750337e+02	-2.272776e+01
1.760446e+02	-2.277968e+01
1.770615e+02	-2.283090e+01
1.780842e+02	-2.287955e+01
1.791128e+02	-2.292935e+01
1.801473e+02	-2.298002e+01
1.811878e+02	-2.302943e+01
1.822344e+02	-2.308049e+01
1.832870e+02	-2.312986e+01
1.843456e+02	-2.318026e+01
1.854104e+02	-2.322955e+01
1.864813e+02	-2.327785e+01
1.875584e+02	-2.332988e+01
1.886418e+02	-2.337671e+01
1.897313e+02	-2.342819e+01
1.908272e+02	-2.347574e+01
1.919294e+02	-2.352998e+01
1.930380e+02	-2.357900e+01
1.941530e+02	-2.362840e+01
1.952744e+02	-2.367785e+01
1.964023e+02	-2.372857e+01
1.975367e+02	-2.377701e+01
1.986777e+02	-2.382793e+01
1.998252e+02	-2.387639e+01
2.009794e+02	-2.392343e+01
2.021403e+02	-2.397761e+01
2.033078e+02	-2.402603e+01
2.044821e+02	-2.407731e+01
2.056632e+02	-2.412708e+01
2.068511e+02	-2.417683e+01
2.080459e+02	-2.422619e+01
2.092475e+02	-2.427675e+01
2.104561e+02	-2.432605e+01
2.116717e+02	-2.437774e+01
2.128943e+02	-2.442558e+01
2.141240e+02	-2.447306e+01
2.153608e+02	-2.452395e+01
2.166047e+02	-2.457554e+01
2.178558e+02	-2.462203e+01
2.191141e+02	-2.467554e+01
2.203797e+02	-2.472688e+01
2.216526e+02	-2.477763e+01
2.229329e+02	-2.482224e+01
2.242205e+02	-2.487713e+01
2.255156e+02	-2.492429e+01
2.268182e+02	-2.497425e+01
2.281283e+02	-2.502400e+01
2.294459e+02	-2.507688e+01
2.307712e+02	-2.512448e+01
2.321041e+02	-2.517310e+01
2.334447e+02	-2.521947e+01
2.347931e+02	-2.527470e+01
2.361493e+02	-2.532283e+01
2.375133e+02	-2.537334e+01
2.388851e+02	-2.542481e+01
2.402649e+02	-2.547237e+01
2.416527e+02	-2.552464e+01
2.430484e+02	-2.557257e+01
2.444523e+02	-2.562536e+01
2.458642e+02	-2.567238e+01
2.472843e+02	-2.572491e+01
2.487126e+02	-2.577376e+01
2.501492e+02	-2.582317e+01
2.515940e+02	-2.587291e+01
2.530472e+02	-2.592356e+01
2.545088e+02	-2.597368e+01
2.559789e+02	-2.602233e+01
2.574574e+02	-2.607195e+01
2.589444e+02	-2.612132e+01
2.604401e+02	-2.617129e+01
2.619444e+02	-2.622274e+01
2.634574e+02	-2.627198e+01
2.649791e+02	-2.632534e+01
2.665096e+02	-2.637336e+01
2.680489e+02	-2.642034e+01
2.695972e+02	-2.647402e+01
2.711544e+02	-2.652230e+01
2.727205e+02	-2.657292e+01
2.742958e+02	-2.662417e+01
2.758801e+02	-2.666938e+01
2.774736e+02	-2.672336e+01
2.790762e+02	-2.677163e+01
2.806882e+02	-2.681986e+01
2.823094e+02	-2.687213e+01
2.839400e+02	-2.692138e+01
2.855800e+02	-2.697208e+01
2.872295e+02	-2.702187e+01
2.888886e+02	-2.707332e+01
2.905572e+02	-2.712232e+01
2.922354e+02	-2.717127e+01
2.939234e+02	-2.722295e+01
2.956211e+02	-2.727155e+01
2.973286e+02	-2.732279e+01
2.990459e+02	-2.737180e+01
3.007732e+02	-2.742390e+01
3.025104e+02	-2.747397e+01
3.042577e+02	-2.752292e+01
3.060151e+02	-2.757865e+01
3.077826e+02	-2.762010e+01
3.095604e+02	-2.767161e+01
3.113484e+02	-2.772565e+01
3.131467e+02	-2.777300e+01
3.149554e+02	-2.782175e+01
3.167746e+02	-2.787215e+01
3.186043e+02	-2.791966e+01
3.204445e+02	-2.797158e+01
3.222954e+02	-2.802185e+01
3.241570e+02	-2.807279e+01
3.260293e+02	-2.812658e+01
3.279124e+02	-2.817184e+01
3.298064e+02	-2.822439e+01
3.317114e+02	-2.827633e+01
3.336273e+02	-2.832228e+01
3.355544e+02	-2.837047e+01
3.374925e+02	-2.841999e+01
3.394418e+02	-2.847039e+01
3.414024e+02	-2.852224e+01
3.433744e+02	-2.857180e+01
3.453577e+02	-2.862389e+01
3.473525e+02	-2.867554e+01
3.493588e+02	-2.872235e+01
3.513766e+02	-2.877227e+01
3.534062e+02	-2.882508e+01
3.554474e+02	-2.887804e+01
3.575005e+02	-2.892389e+01
3.595654e+02	-2.897300e+01
3.616422e+02	-2.902113e+01
3.637311e+02	-2.907592e+01
3.658320e+02	-2.912457e+01
3.679450e+02	-2.917347e+01
3.700702e+02	-2.922499e+01
3.722077e+02	-2.926963e+01
3.743576e+02	-2.932107e+01
3.765199e+02	-2.936762e+01
3.786946e+02	-2.942518e+01
3.808820e+02	-2.947340e+01
3.830819e+02	-2.952529e+01
3.852946e+02	-2.957218e+01
3.875200e+02	-2.962485e+01
3.897583e+02	-2.967296e+01
3.920096e+02	-2.972524e+01
3.942738e+02	-2.977770e+01
3.965511e+02	-2.982605e+01
3.988416e+02	-2.987546e+01
4.011452e+02	-2.992321e+01
4.034622e+02	-2.997593e+01
4.057926e+02	-3.002687e+01
4.081365e+02	-3.007374e+01
4.104938e+02	-3.012821e+01
4.128648e+02	-3.017696e+01
4.152495e+02	-3.022184e+01
4.176480e+02	-3.027227e+01
4.200603e+02	-3.032344e+01
4.224866e+02	-3.037914e+01
4.249268e+02	-3.042828e+01
4.273812e+02	-3.047370e+01
4.298497e+02	-3.053018e+01
4.323325e+02	-3.058164e+01
4.348297e+02	-3.062796e+01
4.373412e+02	-3.067848e+01
4.398673e+02	-3.072578e+01
4.424079e+02	-3.078159e+01
4.449633e+02	-3.082704e+01
4.475334e+02	-3.087915e+01
4.501183e+02	-3.092386e+01
4.527182e+02	-3.097376e+01
4.553330e+02	-3.102799e+01
4.579630e+02	-3.108451e+01
4.606082e+02	-3.112945e+01
4.632687e+02	-3.118047e+01
4.659445e+02	-3.123556e+01
4.686358e+02	-3.128294e+01
4.713426e+02	-3.132587e+01
4.740650e+02	-3.138044e+01
4.768032e+02	-3.142739e+01
4.795572e+02	-3.148246e+01
4.823271e+02	-3.152458e+01
4.851130e+02	-3.158157e+01
4.879150e+02	-3.163113e+01
4.907332e+02	-3.168561e+01
4.935676e+02	-3.173357e+01
4.964185e+02	-3.178140e+01
4.992858e+02	-3.183392e+01
5.021696e+02	-3.187774e+01
5.050701e+02	-3.193050e+01
5.079874e+02	-3.198443e+01
5.109215e+02	-3.203332e+01
5.138726e+02	-3.208511e+01
5.168407e+02	-3.213007e+01
5.198259e+02	-3.217949e+01
5.228284e+02	-3.223262e+01
5.258482e+02	-3.227354e+01
5.288855e+02	-3.233924e+01
5.319403e+02	-3.238705e+01
5.350128e+02	-3.243352e+01
5.381030e+02	-3.248438e+01
5.412111e+02	-3.253338e+01
5.443371e+02	-3.258697e+01
5.474812e+02	-3.263746e+01
5.506434e+02	-3.268204e+01
5.538239e+02	-3.273456e+01
5.570228e+02	-3.278767e+01
5.602401e+02	-3.283143e+01
5.634760e+02	-3.289083e+01
5.667306e+02	-3.293053e+01
5.700040e+02	-3.298740e+01
5.732964e+02	-3.304000e+01
5.766077e+02	-3.308850e+01
5.799382e+02	-3.312959e+01
5.832879e+02	-3.318369e+01
5.866569e+02	-3.323667e+01
5.900454e+02	-3.328147e+01
5.934535e+02	-3.333947e+01
5.968813e+02	-3.339245e+01
6.003288e+02	-3.343806e+01
6.037963e+02	-3.348969e+01
6.072838e+02	-3.354060e+01
6.107914e+02	-3.359394e+01
6.143194e+02	-3.363870e+01
6.178676e+02	-3.368948e+01
6.214364e+02	-3.374644e+01
6.250258e+02	-3.379080e+01
6.286359e+02	-3.384929e+01
6.322669e+02	-3.388484e+01
6.359189e+02	-3.394455e+01
6.395919e+02	-3.398628e+01
6.432862e+02	-3.404117e+01
6.470017e+02	-3.409125e+01
6.507388e+02	-3.413847e+01
6.544974e+02	-3.419396e+01
6.582778e+02	-3.424845e+01
6.620800e+02	-3.429808e+01
6.659041e+02	-3.433893e+01
6.697504e+02	-3.439892e+01
6.736188e+02	-3.444599e+01
6.775096e+02	-3.449142e+01
6.814229e+02	-3.454835e+01
6.853587e+02	-3.459743e+01
6.893173e+02	-3.464513e+01
6.932988e+02	-3.470543e+01
6.973033e+02	-3.474470e+01
7.013309e+02	-3.480297e+01
