Frequency(Hz)	Magnitude(dB)
1.000000e+01	-2.064383e+00
1.005776e+01	-2.083185e+00
1.011585e+01	-2.102539e+00
1.017428e+01	-2.121552e+00
1.023305e+01	-2.141194e+00
1.029215e+01	-2.160720e+00
1.035160e+01	-2.180423e+00
1.041139e+01	-2.200073e+00
1.047153e+01	-2.219981e+00
1.053201e+01	-2.240165e+00
1.059284e+01	-2.260482e+00
1.065403e+01	-2.280740e+00
1.071556e+01	-2.301273e+00
1.077746e+01	-2.321989e+00
1.083971e+01	-2.342801e+00
1.090232e+01	-2.363723e+00
1.096529e+01	-2.384856e+00
1.102862e+01	-2.405924e+00
1.109232e+01	-2.427313e+00
1.115639e+01	-2.448792e+00
1.122083e+01	-2.470487e+00
1.128564e+01	-2.492009e+00
1.135083e+01	-2.514418e+00
1.141639e+01	-2.536048e+00
1.148233e+01	-2.558501e+00
1.154865e+01	-2.580671e+00
1.161536e+01	-2.602996e+00
1.168245e+01	-2.625604e+00
1.174992e+01	-2.648549e+00
1.181779e+01	-2.671302e+00
1.188605e+01	-2.694337e+00
1.195470e+01	-2.717809e+00
1.202375e+01	-2.740987e+00
1.209320e+01	-2.764656e+00
1.216305e+01	-2.788449e+00
1.223330e+01	-2.811907e+00
1.230396e+01	-2.835838e+00
1.237503e+01	-2.860144e+00
1.244651e+01	-2.884074e+00
1.251840e+01	-2.908295e+00
1.259070e+01	-2.933027e+00
1.266343e+01	-2.957528e+00
1.273657e+01	-2.982343e+00
1.281014e+01	-3.007507e+00
1.288413e+01	-3.032515e+00
1.295855e+01	-3.057621e+00
1.303339e+01	-3.083009e+00
1.310867e+01	-3.108540e+00
1.318439e+01	-3.134178e+00
1.326054e+01	-3.159790e+00
1.333713e+01	-3.185670e+00
1.341417e+01	-3.211928e+00
1.349165e+01	-3.237848e+00
1.356958e+01	-3.264061e+00
1.364795e+01	-3.290896e+00
1.372678e+01	-3.317708e+00
1.380607e+01	-3.344361e+00
1.388581e+01	-3.371390e+00
1.396602e+01	-3.398425e+00
1.404668e+01	-3.425672e+00
1.412782e+01	-3.452949e+00
1.420942e+01	-3.480502e+00
1.429149e+01	-3.508173e+00
1.437404e+01	-3.536112e+00
1.445706e+01	-3.563891e+00
1.454057e+01	-3.591666e+00
1.462455e+01	-3.619998e+00
1.470902e+01	-3.648465e+00
1.479398e+01	-3.676912e+00
1.487943e+01	-3.705820e+00
1.496537e+01	-3.734572e+00
1.505181e+01	-3.763428e+00
1.513875e+01	-3.792481e+00
1.522619e+01	-3.821595e+00
1.531414e+01	-3.851060e+00
1.540259e+01	-3.880506e+00
1.549156e+01	-3.910072e+00
1.558103e+01	-3.939964e+00
1.567103e+01	-3.969868e+00
1.576155e+01	-3.999873e+00
1.585258e+01	-4.029956e+00
1.594415e+01	-4.060538e+00
1.603624e+01	-4.090881e+00
1.612886e+01	-4.121335e+00
1.622202e+01	-4.152023e+00
1.631572e+01	-4.182914e+00
1.640996e+01	-4.213845e+00
1.650474e+01	-4.245111e+00
1.660008e+01	-4.276198e+00
1.669596e+01	-4.307740e+00
1.679239e+01	-4.339465e+00
1.688938e+01	-4.370897e+00
1.698694e+01	-4.402749e+00
1.708505e+01	-4.434873e+00
1.718373e+01	-4.466829e+00
1.728299e+01	-4.498898e+00
1.738281e+01	-4.531464e+00
1.748322e+01	-4.563716e+00
1.758420e+01	-4.596351e+00
1.768576e+01	-4.629061e+00
1.778792e+01	-4.661894e+00
1.789066e+01	-4.694866e+00
1.799399e+01	-4.727940e+00
1.809793e+01	-4.761274e+00
1.820246e+01	-4.794400e+00
1.830760e+01	-4.828180e+00
1.841334e+01	-4.861699e+00
1.851969e+01	-4.895792e+00
1.862666e+01	-4.929562e+00
1.873425e+01	-4.963431e+00
1.884246e+01	-4.997723e+00
1.895129e+01	-5.031860e+00
1.906075e+01	-5.066248e+00
1.917085e+01	-5.100859e+00
1.928158e+01	-5.135350e+00
1.939295e+01	-5.169926e+00
1.950496e+01	-5.205042e+00
1.961762e+01	-5.240100e+00
1.973093e+01	-5.275107e+00
1.984490e+01	-5.310270e+00
1.995952e+01	-5.345732e+00
2.007480e+01	-5.381052e+00
2.019076e+01	-5.416651e+00
2.030738e+01	-5.452607e+00
2.042467e+01	-5.488231e+00
2.054264e+01	-5.524098e+00
2.066130e+01	-5.560585e+00
2.078064e+01	-5.596401e+00
2.090066e+01	-5.632809e+00
2.102139e+01	-5.669176e+00
2.114280e+01	-5.705693e+00
2.126492e+01	-5.742374e+00
2.138775e+01	-5.779066e+00
2.151128e+01	-5.815729e+00
2.163553e+01	-5.853285e+00
2.176050e+01	-5.890046e+00
2.188619e+01	-5.927238e+00
2.201260e+01	-5.964651e+00
2.213974e+01	-6.001627e+00
2.226762e+01	-6.039628e+00
2.239624e+01	-6.077152e+00
2.252560e+01	-6.115259e+00
2.265571e+01	-6.152450e+00
2.278656e+01	-6.190559e+00
2.291818e+01	-6.228622e+00
2.305055e+01	-6.267151e+00
2.318369e+01	-6.305061e+00
2.331760e+01	-6.343761e+00
2.345228e+01	-6.381803e+00
2.358774e+01	-6.420595e+00
2.372398e+01	-6.459145e+00
2.386101e+01	-6.497779e+00
2.399883e+01	-6.536908e+00
2.413745e+01	-6.576093e+00
2.427686e+01	-6.614792e+00
2.441709e+01	-6.653848e+00
2.455812e+01	-6.693473e+00
2.469997e+01	-6.732454e+00
2.484263e+01	-6.772381e+00
2.498612e+01	-6.811797e+00
2.513044e+01	-6.851344e+00
2.527559e+01	-6.891311e+00
2.542158e+01	-6.930833e+00
2.556842e+01	-6.970961e+00
2.571610e+01	-7.011081e+00
2.586463e+01	-7.051224e+00
2.601403e+01	-7.091227e+00
2.616428e+01	-7.131466e+00
2.631541e+01	-7.171968e+00
2.646740e+01	-7.212794e+00
2.662028e+01	-7.253329e+00
2.677404e+01	-7.293818e+00
2.692868e+01	-7.334331e+00
2.708422e+01	-7.375238e+00
2.724066e+01	-7.416130e+00
2.739800e+01	-7.457050e+00
2.755625e+01	-7.497988e+00
2.771541e+01	-7.539482e+00
2.787550e+01	-7.580837e+00
2.803650e+01	-7.621699e+00
2.819844e+01	-7.663159e+00
2.836131e+01	-7.704799e+00
2.852513e+01	-7.746403e+00
2.868989e+01	-7.787884e+00
2.885560e+01	-7.829689e+00
2.902227e+01	-7.871391e+00
2.918990e+01	-7.913490e+00
2.935850e+01	-7.955560e+00
2.952807e+01	-7.997493e+00
2.969863e+01	-8.039616e+00
2.987016e+01	-8.081896e+00
3.004269e+01	-8.123872e+00
3.021622e+01	-8.166606e+00
3.039075e+01	-8.209077e+00
3.056628e+01	-8.251469e+00
3.074283e+01	-8.293711e+00
3.092040e+01	-8.336541e+00
3.109900e+01	-8.379354e+00
3.127862e+01	-8.422116e+00
3.145929e+01	-8.464901e+00
3.164099e+01	-8.508051e+00
3.182375e+01	-8.551464e+00
3.200756e+01	-8.594109e+00
3.219244e+01	-8.637034e+00
3.237838e+01	-8.680777e+00
3.256540e+01	-8.723069e+00
3.275349e+01	-8.767422e+00
3.294268e+01	-8.810465e+00
3.313295e+01	-8.853604e+00
3.332433e+01	-8.897756e+00
3.351681e+01	-8.941128e+00
3.371040e+01	-8.984350e+00
3.390511e+01	-9.028546e+00
3.410094e+01	-9.072254e+00
3.429791e+01	-9.116451e+00
3.449601e+01	-9.160234e+00
3.469526e+01	-9.203923e+00
3.489566e+01	-9.248545e+00
3.509721e+01	-9.291895e+00
3.529993e+01	-9.336580e+00
3.550382e+01	-9.380733e+00
3.570889e+01	-9.424845e+00
3.591515e+01	-9.469090e+00
3.612259e+01	-9.513519e+00
3.633123e+01	-9.558148e+00
3.654108e+01	-9.602296e+00
3.675214e+01	-9.646947e+00
3.696442e+01	-9.691514e+00
3.717792e+01	-9.736880e+00
3.739266e+01	-9.781256e+00
3.760864e+01	-9.826229e+00
3.782587e+01	-9.870994e+00
3.804435e+01	-9.915801e+00
3.826409e+01	-9.960726e+00
3.848510e+01	-1.000607e+01
3.870739e+01	-1.005100e+01
3.893096e+01	-1.009563e+01
3.915583e+01	-1.014068e+01
3.938199e+01	-1.018616e+01
3.960946e+01	-1.023092e+01
3.983824e+01	-1.027667e+01
4.006834e+01	-1.032211e+01
4.029978e+01	-1.036736e+01
4.053255e+01	-1.041258e+01
4.076666e+01	-1.045866e+01
4.100213e+01	-1.050415e+01
4.123896e+01	-1.054929e+01
4.147715e+01	-1.059466e+01
4.171672e+01	-1.064120e+01
4.195767e+01	-1.068691e+01
4.220002e+01	-1.073206e+01
4.244377e+01	-1.077830e+01
4.268892e+01	-1.082455e+01
4.293549e+01	-1.087006e+01
4.318348e+01	-1.091630e+01
4.343291e+01	-1.096246e+01
4.368377e+01	-1.100788e+01
4.393609e+01	-1.105447e+01
4.418986e+01	-1.110000e+01
4.444510e+01	-1.114613e+01
4.470182e+01	-1.119288e+01
4.496001e+01	-1.123869e+01
4.521970e+01	-1.128548e+01
4.548089e+01	-1.133131e+01
4.574358e+01	-1.137838e+01
4.600779e+01	-1.142389e+01
4.627353e+01	-1.147041e+01
4.654081e+01	-1.151772e+01
4.680963e+01	-1.156449e+01
4.708000e+01	-1.161021e+01
4.735193e+01	-1.165716e+01
4.762543e+01	-1.170393e+01
4.790051e+01	-1.175006e+01
4.817719e+01	-1.179668e+01
4.845545e+01	-1.184422e+01
4.873533e+01	-1.189104e+01
4.901682e+01	-1.193772e+01
4.929994e+01	-1.198410e+01
4.958470e+01	-1.203073e+01
4.987110e+01	-1.207774e+01
5.015915e+01	-1.212482e+01
5.044887e+01	-1.217196e+01
5.074026e+01	-1.221880e+01
5.103333e+01	-1.226520e+01
5.132810e+01	-1.231234e+01
5.162457e+01	-1.235941e+01
5.192275e+01	-1.240719e+01
5.222265e+01	-1.245463e+01
5.252429e+01	-1.250123e+01
5.282767e+01	-1.254815e+01
5.313280e+01	-1.259613e+01
5.343969e+01	-1.264370e+01
5.374836e+01	-1.269076e+01
5.405880e+01	-1.273825e+01
5.437105e+01	-1.278479e+01
5.468509e+01	-1.283241e+01
5.500095e+01	-1.288004e+01
5.531863e+01	-1.292783e+01
5.563815e+01	-1.297474e+01
5.595951e+01	-1.302318e+01
5.628273e+01	-1.306991e+01
5.660782e+01	-1.311743e+01
5.693479e+01	-1.316509e+01
5.726364e+01	-1.321298e+01
5.759439e+01	-1.326032e+01
5.792705e+01	-1.330805e+01
5.826164e+01	-1.335653e+01
5.859815e+01	-1.340379e+01
5.893662e+01	-1.345189e+01
5.927703e+01	-1.349904e+01
5.961941e+01	-1.354743e+01
5.996377e+01	-1.359473e+01
6.031012e+01	-1.364285e+01
6.065847e+01	-1.369071e+01
6.100883e+01	-1.373883e+01
6.136121e+01	-1.378684e+01
6.171563e+01	-1.383452e+01
6.207210e+01	-1.388217e+01
6.243063e+01	-1.393035e+01
6.279122e+01	-1.397892e+01
6.315390e+01	-1.402696e+01
6.351868e+01	-1.407482e+01
6.388556e+01	-1.412245e+01
6.425456e+01	-1.417019e+01
6.462569e+01	-1.421909e+01
6.499897e+01	-1.426678e+01
6.537440e+01	-1.431512e+01
6.575200e+01	-1.436361e+01
6.613178e+01	-1.441191e+01
6.651375e+01	-1.446016e+01
6.689793e+01	-1.450715e+01
6.728433e+01	-1.455573e+01
6.767297e+01	-1.460511e+01
6.806384e+01	-1.465291e+01
6.845698e+01	-1.470102e+01
6.885238e+01	-1.475060e+01
6.925007e+01	-1.479755e+01
6.965005e+01	-1.484617e+01
7.005235e+01	-1.489550e+01
7.045697e+01	-1.494265e+01
7.086393e+01	-1.499107e+01
7.127323e+01	-1.504022e+01
7.168490e+01	-1.508935e+01
7.209895e+01	-1.513675e+01
7.251539e+01	-1.518513e+01
7.293424e+01	-1.523452e+01
7.335551e+01	-1.528286e+01
7.377920e+01	-1.533084e+01
7.420535e+01	-1.537956e+01
7.463396e+01	-1.542732e+01
7.506504e+01	-1.547665e+01
7.549861e+01	-1.552493e+01
7.593469e+01	-1.557315e+01
7.637328e+01	-1.562202e+01
7.681441e+01	-1.567100e+01
7.725809e+01	-1.572023e+01
7.770433e+01	-1.576874e+01
7.815315e+01	-1.581642e+01
7.860456e+01	-1.586662e+01
7.905857e+01	-1.591521e+01
7.951521e+01	-1.596412e+01
7.997449e+01	-1.601202e+01
8.043642e+01	-1.606111e+01
8.090102e+01	-1.610939e+01
8.136830e+01	-1.615943e+01
8.183828e+01	-1.620816e+01
8.231097e+01	-1.625641e+01
8.278640e+01	-1.630490e+01
8.326457e+01	-1.635424e+01
8.374550e+01	-1.640219e+01
8.422921e+01	-1.645111e+01
8.471572e+01	-1.650167e+01
8.520503e+01	-1.654965e+01
8.569717e+01	-1.659863e+01
8.619215e+01	-1.664816e+01
8.669000e+01	-1.669635e+01
8.719071e+01	-1.674531e+01
8.769432e+01	-1.679423e+01
8.820084e+01	-1.684432e+01
8.871029e+01	-1.689317e+01
8.922267e+01	-1.694198e+01
8.973802e+01	-1.699071e+01
9.025634e+01	-1.704038e+01
9.077766e+01	-1.708817e+01
9.130199e+01	-1.713908e+01
9.182935e+01	-1.718713e+01
9.235975e+01	-1.723624e+01
9.289321e+01	-1.728541e+01
9.342976e+01	-1.733499e+01
9.396941e+01	-1.738340e+01
9.451217e+01	-1.743256e+01
9.505807e+01	-1.748211e+01
9.560712e+01	-1.753118e+01
9.615934e+01	-1.757975e+01
9.671476e+01	-1.762892e+01
9.727338e+01	-1.767927e+01
9.783522e+01	-1.772653e+01
9.840032e+01	-1.777649e+01
9.896867e+01	-1.782513e+01
9.954031e+01	-1.787562e+01
1.001153e+02	-1.792369e+01
1.006935e+02	-1.797335e+01
1.012751e+02	-1.802285e+01
1.018601e+02	-1.807260e+01
1.024484e+02	-1.812005e+01
1.030402e+02	-1.817084e+01
1.036353e+02	-1.822021e+01
1.042339e+02	-1.826918e+01
1.048360e+02	-1.831935e+01
1.054415e+02	-1.836818e+01
1.060505e+02	-1.841656e+01
1.066631e+02	-1.846635e+01
1.072791e+02	-1.851441e+01
1.078988e+02	-1.856502e+01
1.085220e+02	-1.861399e+01
1.091488e+02	-1.866325e+01
1.097793e+02	-1.871366e+01
1.104133e+02	-1.876288e+01
1.110511e+02	-1.881213e+01
1.116925e+02	-1.886046e+01
1.123376e+02	-1.891076e+01
1.129865e+02	-1.895922e+01
1.136391e+02	-1.900945e+01
1.142955e+02	-1.905734e+01
1.149556e+02	-1.910750e+01
1.156196e+02	-1.915710e+01
1.162874e+02	-1.920667e+01
1.169591e+02	-1.925634e+01
1.176347e+02	-1.930533e+01
1.183141e+02	-1.935494e+01
1.189975e+02	-1.940518e+01
1.196848e+02	-1.945559e+01
1.203761e+02	-1.950448e+01
1.210714e+02	-1.955287e+01
1.217707e+02	-1.960190e+01
1.224740e+02	-1.965240e+01
1.231814e+02	-1.970242e+01
1.238929e+02	-1.975091e+01
1.246085e+02	-1.979935e+01
1.253283e+02	-1.985092e+01
1.260522e+02	-1.989907e+01
1.267802e+02	-1.994875e+01
1.275125e+02	-1.999937e+01
1.282490e+02	-2.004844e+01
1.289898e+02	-2.009743e+01
1.297348e+02	-2.014781e+01
1.304842e+02	-2.019529e+01
1.312378e+02	-2.024729e+01
1.319959e+02	-2.029692e+01
1.327583e+02	-2.034547e+01
1.335251e+02	-2.039648e+01
1.342963e+02	-2.044527e+01
1.350720e+02	-2.049329e+01
1.358522e+02	-2.054312e+01
1.366368e+02	-2.059356e+01
1.374260e+02	-2.064362e+01
1.382198e+02	-2.069226e+01
1.390182e+02	-2.074051e+01
1.398211e+02	-2.079078e+01
1.406287e+02	-2.084227e+01
1.414410e+02	-2.089001e+01
1.422579e+02	-2.094005e+01
1.430796e+02	-2.099067e+01
1.439060e+02	-2.104034e+01
1.447372e+02	-2.108869e+01
1.455732e+02	-2.113874e+01
1.464141e+02	-2.118830e+01
1.472597e+02	-2.123982e+01
1.481103e+02	-2.128755e+01
1.489658e+02	-2.133892e+01
1.498262e+02	-2.138761e+01
1.506916e+02	-2.143808e+01
1.515620e+02	-2.148744e+01
1.524374e+02	-2.153679e+01
1.533179e+02	-2.158659e+01
1.542034e+02	-2.163529e+01
1.550941e+02	-2.168808e+01
1.559899e+02	-2.173586e+01
1.568909e+02	-2.178479e+01
1.577971e+02	-2.183417e+01
1.587085e+02	-2.188444e+01
1.596252e+02	-2.193381e+01
1.605472e+02	-2.198442e+01
1.614745e+02	-2.203437e+01
1.624072e+02	-2.208329e+01
1.633453e+02	-2.213366e+01
1.642887e+02	-2.218371e+01
1.652377e+02	-2.223222e+01
1.661921e+02	-2.228119e+01
1.671520e+02	-2.233328e+01
1.681175e+02	-2.238255e+01
1.690885e+02	-2.243110e+01
1.700651e+02	-2.248285e+01
1.710474e+02	-2.252885e+01
1.720354e+02	-2.258248e+01
1.730291e+02	-2.263197e+01
1.740285e+02	-2.267952e+01
1.750337e+02	-2.272931e+01
1.760446e+02	-2.277984e+01
1.770615e+02	-2.282893e+01
1.780842e+02	-2.288107e+01
1.791128e+02	-2.292956e+01
1.801473e+02	-2.298055e+01
1.811878e+02	-2.302811e+01
1.822344e+02	-2.308108e+01
1.832870e+02	-2.312855e+01
1.843456e+02	-2.317767e+01
1.854104e+02	-2.322945e+01
1.864813e+02	-2.327865e+01
1.875584e+02	-2.332666e+01
1.886418e+02	-2.337834e+01
1.897313e+02	-2.342879e+01
1.908272e+02	-2.347694e+01
1.919294e+02	-2.352681e+01
1.930380e+02	-2.357816e+01
1.941530e+02	-2.362942e+01
1.952744e+02	-2.367779e+01
1.964023e+02	-2.372628e+01
1.975367e+02	-2.377669e+01
1.986777e+02	-2.382508e+01
1.998252e+02	-2.387823e+01
2.009794e+02	-2.392540e+01
2.021403e+02	-2.397436e+01
2.033078e+02	-2.402925e+01
2.044821e+02	-2.407656e+01
2.056632e+02	-2.412535e+01
2.068511e+02	-2.417546e+01
2.080459e+02	-2.422235e+01
2.092475e+02	-2.427549e+01
2.104561e+02	-2.432656e+01
2.116717e+02	-2.437445e+01
2.128943e+02	-2.442487e+01
2.141240e+02	-2.447579e+01
2.153608e+02	-2.452713e+01
2.166047e+02	-2.457383e+01
2.178558e+02	-2.462438e+01
2.191141e+02	-2.467561e+01
2.203797e+02	-2.472636e+01
2.216526e+02	-2.477180e+01
2.229329e+02	-2.482456e+01
2.242205e+02	-2.487500e+01
2.255156e+02	-2.492337e+01
2.268182e+02	-2.497570e+01
2.281283e+02	-2.502387e+01
2.294459e+02	-2.507376e+01
2.307712e+02	-2.512459e+01
2.321041e+02	-2.517381e+01
2.334447e+02	-2.522228e+01
2.347931e+02	-2.527505e+01
2.361493e+02	-2.532321e+01
2.375133e+02	-2.536910e+01
2.388851e+02	-2.542197e+01
2.402649e+02	-2.547087e+01
2.416527e+02	-2.552390e+01
2.430484e+02	-2.557647e+01
2.444523e+02	-2.562229e+01
2.458642e+02	-2.567267e+01
2.472843e+02	-2.572320e+01
2.487126e+02	-2.577624e+01
2.501492e+02	-2.582341e+01
2.515940e+02	-2.587370e+01
2.530472e+02	-2.592281e+01
2.545088e+02	-2.597503e+01
2.559789e+02	-2.602050e+01
2.574574e+02	-2.607468e+01
2.589444e+02	-2.612157e+01
2.604401e+02	-2.617112e+01
2.619444e+02	-2.622198e+01
2.634574e+02	-2.627171e+01
2.649791e+02	-2.632352e+01
2.665096e+02	-2.637360e+01
2.680489e+02	-2.642466e+01
2.695972e+02	-2.647330e+01
2.711544e+02	-2.652286e+01
2.727205e+02	-2.657367e+01
2.742958e+02	-2.661970e+01
2.758801e+02	-2.667219e+01
2.774736e+02	-2.672149e+01
2.790762e+02	-2.677093e+01
2.806882e+02	-2.682316e+01
2.823094e+02	-2.687305e+01
2.839400e+02	-2.692426e+01
2.855800e+02	-2.697134e+01
2.872295e+02	-2.702629e+01
2.888886e+02	-2.707453e+01
2.905572e+02	-2.712171e+01
2.922354e+02	-2.717306e+01
2.939234e+02	-2.722442e+01
2.956211e+02	-2.727573e+01
2.973286e+02	-2.731830e+01
2.990459e+02	-2.737241e+01
3.007732e+02	-2.742173e+01
3.025104e+02	-2.747146e+01
3.042577e+02	-2.752094e+01
3.060151e+02	-2.757134e+01
3.077826e+02	-2.762500e+01
3.095604e+02	-2.767042e+01
3.113484e+02	-2.772020e+01
3.131467e+02	-2.777252e+01
3.149554e+02	-2.782033e+01
3.167746e+02	-2.787256e+01
3.186043e+02	-2.791867e+01
3.204445e+02	-2.796943e+01
3.222954e+02	-2.801969e+01
3.241570e+02	-2.807271e+01
3.260293e+02	-2.811966e+01
3.279124e+02	-2.817440e+01
3.298064e+02	-2.822301e+01
3.317114e+02	-2.826861e+01
3.336273e+02	-2.832170e+01
3.355544e+02	-2.837153e+01
3.374925e+02	-2.842867e+01
3.394418e+02	-2.847413e+01
3.414024e+02	-2.852271e+01
3.433744e+02	-2.857072e+01
3.453577e+02	-2.862692e+01
3.473525e+02	-2.867238e+01
3.493588e+02	-2.872598e+01
3.513766e+02	-2.877281e+01
3.534062e+02	-2.882661e+01
3.554474e+02	-2.887287e+01
3.575005e+02	-2.892299e+01
3.595654e+02	-2.897232e+01
3.616422e+02	-2.901698e+01
3.637311e+02	-2.906777e+01
3.658320e+02	-2.912219e+01
3.679450e+02	-2.917375e+01
3.700702e+02	-2.921786e+01
3.722077e+02	-2.927301e+01
3.743576e+02	-2.932362e+01
3.765199e+02	-2.937395e+01
3.786946e+02	-2.942389e+01
3.808820e+02	-2.947263e+01
3.830819e+02	-2.951735e+01
3.852946e+02	-2.957277e+01
3.875200e+02	-2.962504e+01
3.897583e+02	-2.967360e+01
3.920096e+02	-2.972366e+01
3.942738e+02	-2.977220e+01
3.965511e+02	-2.982353e+01
3.988416e+02	-2.987291e+01
4.011452e+02	-2.992614e+01
4.034622e+02	-2.997720e+01
4.057926e+02	-3.002045e+01
4.081365e+02	-3.007197e+01
4.104938e+02	-3.012318e+01
4.128648e+02	-3.017612e+01
4.152495e+02	-3.022363e+01
4.176480e+02	-3.027666e+01
4.200603e+02	-3.032357e+01
4.224866e+02	-3.038152e+01
4.249268e+02	-3.042492e+01
4.273812e+02	-3.047629e+01
4.298497e+02	-3.052445e+01
4.323325e+02	-3.057314e+01
4.348297e+02	-3.062119e+01
4.373412e+02	-3.067698e+01
4.398673e+02	-3.072928e+01
4.424079e+02	-3.077706e+01
4.449633e+02	-3.083230e+01
4.475334e+02	-3.088297e+01
4.501183e+02	-3.092789e+01
4.527182e+02	-3.097797e+01
4.553330e+02	-3.102870e+01
4.579630e+02	-3.106989e+01
4.606082e+02	-3.112844e+01
4.632687e+02	-3.118452e+01
4.659445e+02	-3.122326e+01
4.686358e+02	-3.128029e+01
4.713426e+02	-3.132995e+01
4.740650e+02	-3.138073e+01
4.768032e+02	-3.142830e+01
4.795572e+02	-3.147929e+01
4.823271e+02	-3.153338e+01
4.851130e+02	-3.158000e+01
4.879150e+02	-3.162958e+01
4.907332e+02	-3.167621e+01
4.935676e+02	-3.173181e+01
4.964185e+02	-3.177917e+01
4.992858e+02	-3.182697e+01
5.021696e+02	-3.188122e+01
5.050701e+02	-3.193060e+01
5.079874e+02	-3.197936e+01
5.109215e+02	-3.203327e+01
5.138726e+02	-3.208482e+01
5.168407e+02	-3.213211e+01
5.198259e+02	-3.218144e+01
5.228284e+02	-3.223172e+01
5.258482e+02	-3.229030e+01
5.288855e+02	-3.233109e+01
5.319403e+02	-3.237946e+01
5.350128e+02	-3.243643e+01
5.381030e+02	-3.248127e+01
5.412111e+02	-3.253640e+01
5.443371e+02	-3.258391e+01
5.474812e+02	-3.263181e+01
5.506434e+02	-3.269074e+01
5.538239e+02	-3.272950e+01
5.570228e+02	-3.279459e+01
5.602401e+02	-3.282989e+01
5.634760e+02	-3.288578e+01
5.667306e+02	-3.293722e+01
5.700040e+02	-3.298779e+01
5.732964e+02	-3.303619e+01
5.766077e+02	-3.309174e+01
5.799382e+02	-3.313747e+01
5.832879e+02	-3.318775e+01
5.866569e+02	-3.323186e+01
5.900454e+02	-3.328683e+01
5.934535e+02	-3.334054e+01
5.968813e+02	-3.338230e+01
6.003288e+02	-3.344037e+01
6.037963e+02	-3.348555e+01
6.072838e+02	-3.354216e+01
6.107914e+02	-3.358809e+01
6.143194e+02	-3.364542e+01
6.178676e+02	-3.369467e+01
6.214364e+02	-3.374031e+01
6.250258e+02	-3.379038e+01
6.286359e+02	-3.384335e+01
6.322669e+02	-3.389219e+01
6.359189e+02	-3.393780e+01
6.395919e+02	-3.399077e+01
6.432862e+02	-3.404318e+01
6.470017e+02	-3.409397e+01
6.507388e+02	-3.414444e+01
6.544974e+02	-3.419319e+01
6.582778e+02	-3.424377e+01
6.620800e+02	-3.429028e+01
6.659041e+02	-3.434756e+01
6.697504e+02	-3.439854e+01
6.736188e+02	-3.444588e+01
6.775096e+02	-3.449511e+01
6.814229e+02	-3.454244e+01
6.853587e+02	-3.458960e+01
6.893173e+02	-3.464245e+01
6.932988e+02	-3.469269e+01
6.973033e+02	-3.474318e+01
7.013309e+02	-3.479945e+01
