Frequency(Hz)	Magnitude(dB)
1.000000e+01	-2.065152e+00
1.005776e+01	-2.084218e+00
1.011585e+01	-2.103458e+00
1.017428e+01	-2.122488e+00
1.023305e+01	-2.141817e+00
1.029215e+01	-2.161474e+00
1.035160e+01	-2.181109e+00
1.041139e+01	-2.200833e+00
1.047153e+01	-2.220942e+00
1.053201e+01	-2.241138e+00
1.059284e+01	-2.261263e+00
1.065403e+01	-2.281923e+00
1.071556e+01	-2.302101e+00
1.077746e+01	-2.322843e+00
1.083971e+01	-2.343659e+00
1.090232e+01	-2.364497e+00
1.096529e+01	-2.385639e+00
1.102862e+01	-2.406789e+00
1.109232e+01	-2.427916e+00
1.115639e+01	-2.449701e+00
1.122083e+01	-2.471243e+00
1.128564e+01	-2.492930e+00
1.135083e+01	-2.515013e+00
1.141639e+01	-2.536995e+00
1.148233e+01	-2.559290e+00
1.154865e+01	-2.581911e+00
1.161536e+01	-2.604097e+00
1.168245e+01	-2.626943e+00
1.174992e+01	-2.649303e+00
1.181779e+01	-2.672269e+00
1.188605e+01	-2.695464e+00
1.195470e+01	-2.718676e+00
1.202375e+01	-2.742169e+00
1.209320e+01	-2.765606e+00
1.216305e+01	-2.789157e+00
1.223330e+01	-2.813062e+00
1.230396e+01	-2.836825e+00
1.237503e+01	-2.860848e+00
1.244651e+01	-2.885045e+00
1.251840e+01	-2.909395e+00
1.259070e+01	-2.933861e+00
1.266343e+01	-2.958779e+00
1.273657e+01	-2.983397e+00
1.281014e+01	-3.008532e+00
1.288413e+01	-3.033480e+00
1.295855e+01	-3.058738e+00
1.303339e+01	-3.083982e+00
1.310867e+01	-3.109337e+00
1.318439e+01	-3.135233e+00
1.326054e+01	-3.160707e+00
1.333713e+01	-3.187065e+00
1.341417e+01	-3.212876e+00
1.349165e+01	-3.239432e+00
1.356958e+01	-3.265703e+00
1.364795e+01	-3.292367e+00
1.372678e+01	-3.318513e+00
1.380607e+01	-3.345415e+00
1.388581e+01	-3.372532e+00
1.396602e+01	-3.399502e+00
1.404668e+01	-3.426840e+00
1.412782e+01	-3.454294e+00
1.420942e+01	-3.481721e+00
1.429149e+01	-3.509138e+00
1.437404e+01	-3.537252e+00
1.445706e+01	-3.565025e+00
1.454057e+01	-3.592971e+00
1.462455e+01	-3.621450e+00
1.470902e+01	-3.649786e+00
1.479398e+01	-3.678089e+00
1.487943e+01	-3.706975e+00
1.496537e+01	-3.735765e+00
1.505181e+01	-3.764535e+00
1.513875e+01	-3.793774e+00
1.522619e+01	-3.822778e+00
1.531414e+01	-3.852151e+00
1.540259e+01	-3.881692e+00
1.549156e+01	-3.911396e+00
1.558103e+01	-3.941257e+00
1.567103e+01	-3.971100e+00
1.576155e+01	-4.000818e+00
1.585258e+01	-4.031368e+00
1.594415e+01	-4.061686e+00
1.603624e+01	-4.092117e+00
1.612886e+01	-4.122864e+00
1.622202e+01	-4.153451e+00
1.631572e+01	-4.184456e+00
1.640996e+01	-4.215208e+00
1.650474e+01	-4.246319e+00
1.660008e+01	-4.277651e+00
1.669596e+01	-4.309226e+00
1.679239e+01	-4.340715e+00
1.688938e+01	-4.372247e+00
1.698694e+01	-4.403925e+00
1.708505e+01	-4.435994e+00
1.718373e+01	-4.468270e+00
1.728299e+01	-4.500512e+00
1.738281e+01	-4.532580e+00
1.748322e+01	-4.565152e+00
1.758420e+01	-4.597976e+00
1.768576e+01	-4.630343e+00
1.778792e+01	-4.663306e+00
1.789066e+01	-4.696504e+00
1.799399e+01	-4.729337e+00
1.809793e+01	-4.762734e+00
1.820246e+01	-4.795878e+00
1.830760e+01	-4.829661e+00
1.841334e+01	-4.863374e+00
1.851969e+01	-4.897044e+00
1.862666e+01	-4.930696e+00
1.873425e+01	-4.965010e+00
1.884246e+01	-4.998975e+00
1.895129e+01	-5.033531e+00
1.906075e+01	-5.067868e+00
1.917085e+01	-5.102241e+00
1.928158e+01	-5.136797e+00
1.939295e+01	-5.171671e+00
1.950496e+01	-5.206064e+00
1.961762e+01	-5.241425e+00
1.973093e+01	-5.276514e+00
1.984490e+01	-5.312013e+00
1.995952e+01	-5.347200e+00
2.007480e+01	-5.382816e+00
2.019076e+01	-5.418192e+00
2.030738e+01	-5.453750e+00
2.042467e+01	-5.490173e+00
2.054264e+01	-5.525969e+00
2.066130e+01	-5.561577e+00
2.078064e+01	-5.597926e+00
2.090066e+01	-5.634588e+00
2.102139e+01	-5.670609e+00
2.114280e+01	-5.707167e+00
2.126492e+01	-5.743597e+00
2.138775e+01	-5.781070e+00
2.151128e+01	-5.817672e+00
2.163553e+01	-5.854370e+00
2.176050e+01	-5.891925e+00
2.188619e+01	-5.928966e+00
2.201260e+01	-5.965923e+00
2.213974e+01	-6.003701e+00
2.226762e+01	-6.040755e+00
2.239624e+01	-6.078865e+00
2.252560e+01	-6.116294e+00
2.265571e+01	-6.154308e+00
2.278656e+01	-6.192428e+00
2.291818e+01	-6.230132e+00
2.305055e+01	-6.268484e+00
2.318369e+01	-6.306963e+00
2.331760e+01	-6.344829e+00
2.345228e+01	-6.383524e+00
2.358774e+01	-6.422107e+00
2.372398e+01	-6.460918e+00
2.386101e+01	-6.499317e+00
2.399883e+01	-6.538112e+00
2.413745e+01	-6.577611e+00
2.427686e+01	-6.616588e+00
2.441709e+01	-6.655648e+00
2.455812e+01	-6.695023e+00
2.469997e+01	-6.734180e+00
2.484263e+01	-6.773860e+00
2.498612e+01	-6.813299e+00
2.513044e+01	-6.853092e+00
2.527559e+01	-6.892856e+00
2.542158e+01	-6.932746e+00
2.556842e+01	-6.972394e+00
2.571610e+01	-7.012686e+00
2.586463e+01	-7.052792e+00
2.601403e+01	-7.092624e+00
2.616428e+01	-7.133156e+00
2.631541e+01	-7.173493e+00
2.646740e+01	-7.213936e+00
2.662028e+01	-7.254611e+00
2.677404e+01	-7.294939e+00
2.692868e+01	-7.336291e+00
2.708422e+01	-7.376778e+00
2.724066e+01	-7.417700e+00
2.739800e+01	-7.458461e+00
2.755625e+01	-7.499764e+00
2.771541e+01	-7.540756e+00
2.787550e+01	-7.582377e+00
2.803650e+01	-7.623808e+00
2.819844e+01	-7.664669e+00
2.836131e+01	-7.706294e+00
2.852513e+01	-7.747711e+00
2.868989e+01	-7.789664e+00
2.885560e+01	-7.831688e+00
2.902227e+01	-7.873434e+00
2.918990e+01	-7.915471e+00
2.935850e+01	-7.957294e+00
2.952807e+01	-7.999924e+00
2.969863e+01	-8.041300e+00
2.987016e+01	-8.083545e+00
3.004269e+01	-8.125678e+00
3.021622e+01	-8.167782e+00
3.039075e+01	-8.210764e+00
3.056628e+01	-8.253118e+00
3.074283e+01	-8.295612e+00
3.092040e+01	-8.338554e+00
3.109900e+01	-8.380639e+00
3.127862e+01	-8.424018e+00
3.145929e+01	-8.466410e+00
3.164099e+01	-8.510077e+00
3.182375e+01	-8.553219e+00
3.200756e+01	-8.595764e+00
3.219244e+01	-8.638684e+00
3.237838e+01	-8.682252e+00
3.256540e+01	-8.725409e+00
3.275349e+01	-8.769170e+00
3.294268e+01	-8.812320e+00
3.313295e+01	-8.856227e+00
3.332433e+01	-8.899165e+00
3.351681e+01	-8.943506e+00
3.371040e+01	-8.986567e+00
3.390511e+01	-9.030385e+00
3.410094e+01	-9.073886e+00
3.429791e+01	-9.117789e+00
3.449601e+01	-9.161764e+00
3.469526e+01	-9.205758e+00
3.489566e+01	-9.250006e+00
3.509721e+01	-9.294690e+00
3.529993e+01	-9.338129e+00
3.550382e+01	-9.382133e+00
3.570889e+01	-9.426922e+00
3.591515e+01	-9.471483e+00
3.612259e+01	-9.515684e+00
3.633123e+01	-9.559773e+00
3.654108e+01	-9.604667e+00
3.675214e+01	-9.648816e+00
3.696442e+01	-9.693823e+00
3.717792e+01	-9.738457e+00
3.739266e+01	-9.782821e+00
3.760864e+01	-9.828036e+00
3.782587e+01	-9.872721e+00
3.804435e+01	-9.917557e+00
3.826409e+01	-9.962829e+00
3.848510e+01	-1.000794e+01
3.870739e+01	-1.005245e+01
3.893096e+01	-1.009815e+01
3.915583e+01	-1.014319e+01
3.938199e+01	-1.018804e+01
3.960946e+01	-1.023320e+01
3.983824e+01	-1.027895e+01
4.006834e+01	-1.032419e+01
4.029978e+01	-1.036964e+01
4.053255e+01	-1.041508e+01
4.076666e+01	-1.046067e+01
4.100213e+01	-1.050658e+01
4.123896e+01	-1.055165e+01
4.147715e+01	-1.059720e+01
4.171672e+01	-1.064358e+01
4.195767e+01	-1.068819e+01
4.220002e+01	-1.073473e+01
4.244377e+01	-1.078014e+01
4.268892e+01	-1.082696e+01
4.293549e+01	-1.087169e+01
4.318348e+01	-1.091806e+01
4.343291e+01	-1.096426e+01
4.368377e+01	-1.101018e+01
4.393609e+01	-1.105669e+01
4.418986e+01	-1.110253e+01
4.444510e+01	-1.114843e+01
4.470182e+01	-1.119427e+01
4.496001e+01	-1.124070e+01
4.521970e+01	-1.128763e+01
4.548089e+01	-1.133357e+01
4.574358e+01	-1.137947e+01
4.600779e+01	-1.142661e+01
4.627353e+01	-1.147296e+01
4.654081e+01	-1.151940e+01
4.680963e+01	-1.156576e+01
4.708000e+01	-1.161244e+01
4.735193e+01	-1.165850e+01
4.762543e+01	-1.170550e+01
4.790051e+01	-1.175198e+01
4.817719e+01	-1.179881e+01
4.845545e+01	-1.184575e+01
4.873533e+01	-1.189257e+01
4.901682e+01	-1.193860e+01
4.929994e+01	-1.198613e+01
4.958470e+01	-1.203262e+01
4.987110e+01	-1.207988e+01
5.015915e+01	-1.212659e+01
5.044887e+01	-1.217357e+01
5.074026e+01	-1.222062e+01
5.103333e+01	-1.226777e+01
5.132810e+01	-1.231525e+01
5.162457e+01	-1.236211e+01
5.192275e+01	-1.240883e+01
5.222265e+01	-1.245612e+01
5.252429e+01	-1.250307e+01
5.282767e+01	-1.255128e+01
5.313280e+01	-1.259861e+01
5.343969e+01	-1.264572e+01
5.374836e+01	-1.269296e+01
5.405880e+01	-1.273993e+01
5.437105e+01	-1.278737e+01
5.468509e+01	-1.283486e+01
5.500095e+01	-1.288251e+01
5.531863e+01	-1.292961e+01
5.563815e+01	-1.297704e+01
5.595951e+01	-1.302426e+01
5.628273e+01	-1.307210e+01
5.660782e+01	-1.311951e+01
5.693479e+01	-1.316767e+01
5.726364e+01	-1.321558e+01
5.759439e+01	-1.326276e+01
5.792705e+01	-1.331014e+01
5.826164e+01	-1.335847e+01
5.859815e+01	-1.340547e+01
5.893662e+01	-1.345338e+01
5.927703e+01	-1.350138e+01
5.961941e+01	-1.354887e+01
5.996377e+01	-1.359708e+01
6.031012e+01	-1.364409e+01
6.065847e+01	-1.369281e+01
6.100883e+01	-1.374090e+01
6.136121e+01	-1.378851e+01
6.171563e+01	-1.383651e+01
6.207210e+01	-1.388488e+01
6.243063e+01	-1.393240e+01
6.279122e+01	-1.398051e+01
6.315390e+01	-1.402844e+01
6.351868e+01	-1.407643e+01
6.388556e+01	-1.412527e+01
6.425456e+01	-1.417335e+01
6.462569e+01	-1.422071e+01
6.499897e+01	-1.426976e+01
6.537440e+01	-1.431748e+01
6.575200e+01	-1.436579e+01
6.613178e+01	-1.441364e+01
6.651375e+01	-1.446152e+01
6.689793e+01	-1.450940e+01
6.728433e+01	-1.455756e+01
6.767297e+01	-1.460665e+01
6.806384e+01	-1.465416e+01
6.845698e+01	-1.470269e+01
6.885238e+01	-1.475115e+01
6.925007e+01	-1.480037e+01
6.965005e+01	-1.484866e+01
7.005235e+01	-1.489612e+01
7.045697e+01	-1.494529e+01
7.086393e+01	-1.499372e+01
7.127323e+01	-1.504185e+01
7.168490e+01	-1.509082e+01
7.209895e+01	-1.513918e+01
7.251539e+01	-1.518763e+01
7.293424e+01	-1.523600e+01
7.335551e+01	-1.528452e+01
7.377920e+01	-1.533360e+01
7.420535e+01	-1.538158e+01
7.463396e+01	-1.542993e+01
7.506504e+01	-1.547959e+01
7.549861e+01	-1.552693e+01
7.593469e+01	-1.557587e+01
7.637328e+01	-1.562440e+01
7.681441e+01	-1.567376e+01
7.725809e+01	-1.572232e+01
7.770433e+01	-1.577085e+01
7.815315e+01	-1.582045e+01
7.860456e+01	-1.586843e+01
7.905857e+01	-1.591650e+01
7.951521e+01	-1.596593e+01
7.997449e+01	-1.601468e+01
8.043642e+01	-1.606371e+01
8.090102e+01	-1.611187e+01
8.136830e+01	-1.616155e+01
8.183828e+01	-1.620976e+01
8.231097e+01	-1.625863e+01
8.278640e+01	-1.630803e+01
8.326457e+01	-1.635643e+01
8.374550e+01	-1.640554e+01
8.422921e+01	-1.645398e+01
8.471572e+01	-1.650302e+01
8.520503e+01	-1.655252e+01
8.569717e+01	-1.660088e+01
8.619215e+01	-1.664943e+01
8.669000e+01	-1.669796e+01
8.719071e+01	-1.674810e+01
8.769432e+01	-1.679664e+01
8.820084e+01	-1.684434e+01
8.871029e+01	-1.689466e+01
8.922267e+01	-1.694415e+01
8.973802e+01	-1.699170e+01
9.025634e+01	-1.704150e+01
9.077766e+01	-1.709165e+01
9.130199e+01	-1.713886e+01
9.182935e+01	-1.718975e+01
9.235975e+01	-1.723841e+01
9.289321e+01	-1.728699e+01
9.342976e+01	-1.733544e+01
9.396941e+01	-1.738468e+01
9.451217e+01	-1.743452e+01
9.505807e+01	-1.748415e+01
9.560712e+01	-1.753134e+01
9.615934e+01	-1.758198e+01
9.671476e+01	-1.763062e+01
9.727338e+01	-1.768014e+01
9.783522e+01	-1.772867e+01
9.840032e+01	-1.777892e+01
9.896867e+01	-1.782677e+01
9.954031e+01	-1.787738e+01
1.001153e+02	-1.792508e+01
1.006935e+02	-1.797460e+01
1.012751e+02	-1.802488e+01
1.018601e+02	-1.807497e+01
1.024484e+02	-1.812405e+01
1.030402e+02	-1.817241e+01
1.036353e+02	-1.822221e+01
1.042339e+02	-1.827154e+01
1.048360e+02	-1.832165e+01
1.054415e+02	-1.836886e+01
1.060505e+02	-1.841909e+01
1.066631e+02	-1.846723e+01
1.072791e+02	-1.851742e+01
1.078988e+02	-1.856647e+01
1.085220e+02	-1.861711e+01
1.091488e+02	-1.866639e+01
1.097793e+02	-1.871472e+01
1.104133e+02	-1.876347e+01
1.110511e+02	-1.881319e+01
1.116925e+02	-1.886232e+01
1.123376e+02	-1.891204e+01
1.129865e+02	-1.896169e+01
1.136391e+02	-1.901212e+01
1.142955e+02	-1.906075e+01
1.149556e+02	-1.911197e+01
1.156196e+02	-1.915956e+01
1.162874e+02	-1.920920e+01
1.169591e+02	-1.925752e+01
1.176347e+02	-1.930834e+01
1.183141e+02	-1.935823e+01
1.189975e+02	-1.940591e+01
1.196848e+02	-1.945712e+01
1.203761e+02	-1.950520e+01
1.210714e+02	-1.955482e+01
1.217707e+02	-1.960497e+01
1.224740e+02	-1.965370e+01
1.231814e+02	-1.970509e+01
1.238929e+02	-1.975387e+01
1.246085e+02	-1.980288e+01
1.253283e+02	-1.985335e+01
1.260522e+02	-1.990214e+01
1.267802e+02	-1.995084e+01
1.275125e+02	-2.000132e+01
1.282490e+02	-2.005090e+01
1.289898e+02	-2.009863e+01
1.297348e+02	-2.014909e+01
1.304842e+02	-2.019910e+01
1.312378e+02	-2.024811e+01
1.319959e+02	-2.029819e+01
1.327583e+02	-2.034854e+01
1.335251e+02	-2.039837e+01
1.342963e+02	-2.044745e+01
1.350720e+02	-2.049643e+01
1.358522e+02	-2.054491e+01
1.366368e+02	-2.059544e+01
1.374260e+02	-2.064560e+01
1.382198e+02	-2.069607e+01
1.390182e+02	-2.074476e+01
1.398211e+02	-2.079501e+01
1.406287e+02	-2.084484e+01
1.414410e+02	-2.089268e+01
1.422579e+02	-2.094419e+01
1.430796e+02	-2.099210e+01
1.439060e+02	-2.104206e+01
1.447372e+02	-2.109193e+01
1.455732e+02	-2.114076e+01
1.464141e+02	-2.119201e+01
1.472597e+02	-2.124274e+01
1.481103e+02	-2.129109e+01
1.489658e+02	-2.133987e+01
1.498262e+02	-2.139135e+01
1.506916e+02	-2.143831e+01
1.515620e+02	-2.149058e+01
1.524374e+02	-2.153795e+01
1.533179e+02	-2.158787e+01
1.542034e+02	-2.163860e+01
1.550941e+02	-2.168925e+01
1.559899e+02	-2.173880e+01
1.568909e+02	-2.178801e+01
1.577971e+02	-2.183709e+01
1.587085e+02	-2.188739e+01
1.596252e+02	-2.193701e+01
1.605472e+02	-2.198362e+01
1.614745e+02	-2.203547e+01
1.624072e+02	-2.208531e+01
1.633453e+02	-2.213623e+01
1.642887e+02	-2.218745e+01
1.652377e+02	-2.223317e+01
1.661921e+02	-2.228482e+01
1.671520e+02	-2.233714e+01
1.681175e+02	-2.238251e+01
1.690885e+02	-2.243327e+01
1.700651e+02	-2.248604e+01
1.710474e+02	-2.253280e+01
1.720354e+02	-2.258412e+01
1.730291e+02	-2.263469e+01
1.740285e+02	-2.268463e+01
1.750337e+02	-2.273145e+01
1.760446e+02	-2.278277e+01
1.770615e+02	-2.283396e+01
1.780842e+02	-2.288182e+01
1.791128e+02	-2.293186e+01
1.801473e+02	-2.298296e+01
1.811878e+02	-2.303227e+01
1.822344e+02	-2.308052e+01
1.832870e+02	-2.313285e+01
1.843456e+02	-2.317986e+01
1.854104e+02	-2.323164e+01
1.864813e+02	-2.328149e+01
1.875584e+02	-2.333215e+01
1.886418e+02	-2.337856e+01
1.897313e+02	-2.343122e+01
1.908272e+02	-2.347820e+01
1.919294e+02	-2.353064e+01
1.930380e+02	-2.358137e+01
1.941530e+02	-2.363091e+01
1.952744e+02	-2.367662e+01
1.964023e+02	-2.372820e+01
1.975367e+02	-2.378077e+01
1.986777e+02	-2.383061e+01
1.998252e+02	-2.387875e+01
2.009794e+02	-2.393042e+01
2.021403e+02	-2.398034e+01
2.033078e+02	-2.402667e+01
2.044821e+02	-2.407903e+01
2.056632e+02	-2.412994e+01
2.068511e+02	-2.417682e+01
2.080459e+02	-2.422650e+01
2.092475e+02	-2.427798e+01
2.104561e+02	-2.432781e+01
2.116717e+02	-2.437625e+01
2.128943e+02	-2.442680e+01
2.141240e+02	-2.447702e+01
2.153608e+02	-2.452922e+01
2.166047e+02	-2.457597e+01
2.178558e+02	-2.462609e+01
2.191141e+02	-2.467794e+01
2.203797e+02	-2.472487e+01
2.216526e+02	-2.477777e+01
2.229329e+02	-2.482896e+01
2.242205e+02	-2.487703e+01
2.255156e+02	-2.492672e+01
2.268182e+02	-2.497431e+01
2.281283e+02	-2.502479e+01
2.294459e+02	-2.507502e+01
2.307712e+02	-2.512840e+01
2.321041e+02	-2.517531e+01
2.334447e+02	-2.522703e+01
2.347931e+02	-2.527698e+01
2.361493e+02	-2.532564e+01
2.375133e+02	-2.537384e+01
2.388851e+02	-2.542896e+01
2.402649e+02	-2.547491e+01
2.416527e+02	-2.552649e+01
2.430484e+02	-2.557547e+01
2.444523e+02	-2.562718e+01
2.458642e+02	-2.567240e+01
2.472843e+02	-2.572726e+01
2.487126e+02	-2.577565e+01
2.501492e+02	-2.582611e+01
2.515940e+02	-2.587445e+01
2.530472e+02	-2.592254e+01
2.545088e+02	-2.597271e+01
2.559789e+02	-2.602157e+01
2.574574e+02	-2.607584e+01
2.589444e+02	-2.612360e+01
2.604401e+02	-2.617295e+01
2.619444e+02	-2.622578e+01
2.634574e+02	-2.627496e+01
2.649791e+02	-2.632097e+01
2.665096e+02	-2.637124e+01
2.680489e+02	-2.642520e+01
2.695972e+02	-2.647883e+01
2.711544e+02	-2.652563e+01
2.727205e+02	-2.657220e+01
2.742958e+02	-2.662672e+01
2.758801e+02	-2.666891e+01
2.774736e+02	-2.672654e+01
2.790762e+02	-2.677708e+01
2.806882e+02	-2.682698e+01
2.823094e+02	-2.687495e+01
2.839400e+02	-2.692539e+01
2.855800e+02	-2.697269e+01
2.872295e+02	-2.702361e+01
2.888886e+02	-2.707538e+01
2.905572e+02	-2.712204e+01
2.922354e+02	-2.717301e+01
2.939234e+02	-2.722353e+01
2.956211e+02	-2.727517e+01
2.973286e+02	-2.732456e+01
2.990459e+02	-2.736855e+01
3.007732e+02	-2.742735e+01
3.025104e+02	-2.747539e+01
3.042577e+02	-2.752338e+01
3.060151e+02	-2.757191e+01
3.077826e+02	-2.762278e+01
3.095604e+02	-2.767357e+01
3.113484e+02	-2.772782e+01
3.131467e+02	-2.777825e+01
3.149554e+02	-2.782480e+01
3.167746e+02	-2.787399e+01
3.186043e+02	-2.792292e+01
3.204445e+02	-2.797384e+01
3.222954e+02	-2.802263e+01
3.241570e+02	-2.807473e+01
3.260293e+02	-2.812361e+01
3.279124e+02	-2.817177e+01
3.298064e+02	-2.822367e+01
3.317114e+02	-2.827026e+01
3.336273e+02	-2.832469e+01
3.355544e+02	-2.837555e+01
3.374925e+02	-2.842131e+01
3.394418e+02	-2.847380e+01
3.414024e+02	-2.852083e+01
3.433744e+02	-2.857006e+01
3.453577e+02	-2.862592e+01
3.473525e+02	-2.867218e+01
3.493588e+02	-2.872582e+01
3.513766e+02	-2.877272e+01
3.534062e+02	-2.882732e+01
3.554474e+02	-2.887878e+01
3.575005e+02	-2.892445e+01
3.595654e+02	-2.897559e+01
3.616422e+02	-2.902096e+01
3.637311e+02	-2.907690e+01
3.658320e+02	-2.912698e+01
3.679450e+02	-2.917267e+01
3.700702e+02	-2.922525e+01
3.722077e+02	-2.927509e+01
3.743576e+02	-2.932336e+01
3.765199e+02	-2.937542e+01
3.786946e+02	-2.942621e+01
3.808820e+02	-2.947540e+01
3.830819e+02	-2.952364e+01
3.852946e+02	-2.957619e+01
3.875200e+02	-2.962572e+01
3.897583e+02	-2.967514e+01
3.920096e+02	-2.972243e+01
3.942738e+02	-2.977361e+01
3.965511e+02	-2.982751e+01
3.988416e+02	-2.987860e+01
4.011452e+02	-2.992750e+01
4.034622e+02	-2.997768e+01
4.057926e+02	-3.002731e+01
4.081365e+02	-3.008033e+01
4.104938e+02	-3.013221e+01
4.128648e+02	-3.017243e+01
4.152495e+02	-3.022539e+01
4.176480e+02	-3.028098e+01
4.200603e+02	-3.033028e+01
4.224866e+02	-3.037860e+01
4.249268e+02	-3.042593e+01
4.273812e+02	-3.048030e+01
4.298497e+02	-3.052700e+01
4.323325e+02	-3.058217e+01
4.348297e+02	-3.063424e+01
4.373412e+02	-3.067616e+01
4.398673e+02	-3.072305e+01
4.424079e+02	-3.077422e+01
4.449633e+02	-3.083220e+01
4.475334e+02	-3.087909e+01
4.501183e+02	-3.093193e+01
4.527182e+02	-3.097499e+01
4.553330e+02	-3.102588e+01
4.579630e+02	-3.107836e+01
4.606082e+02	-3.113189e+01
4.632687e+02	-3.117666e+01
4.659445e+02	-3.122895e+01
4.686358e+02	-3.128191e+01
4.713426e+02	-3.133544e+01
4.740650e+02	-3.137828e+01
4.768032e+02	-3.143060e+01
4.795572e+02	-3.148187e+01
4.823271e+02	-3.153346e+01
4.851130e+02	-3.158065e+01
4.879150e+02	-3.162961e+01
4.907332e+02	-3.168138e+01
4.935676e+02	-3.173517e+01
4.964185e+02	-3.178331e+01
4.992858e+02	-3.183379e+01
5.021696e+02	-3.188361e+01
5.050701e+02	-3.193277e+01
5.079874e+02	-3.198030e+01
5.109215e+02	-3.202699e+01
5.138726e+02	-3.208891e+01
5.168407e+02	-3.213311e+01
5.198259e+02	-3.218342e+01
5.228284e+02	-3.223576e+01
5.258482e+02	-3.227839e+01
5.288855e+02	-3.233158e+01
5.319403e+02	-3.237914e+01
5.350128e+02	-3.243766e+01
5.381030e+02	-3.248916e+01
5.412111e+02	-3.253376e+01
5.443371e+02	-3.257789e+01
5.474812e+02	-3.263750e+01
5.506434e+02	-3.268367e+01
5.538239e+02	-3.273889e+01
5.570228e+02	-3.278457e+01
5.602401e+02	-3.283995e+01
5.634760e+02	-3.288882e+01
5.667306e+02	-3.293454e+01
5.700040e+02	-3.298321e+01
5.732964e+02	-3.303558e+01
5.766077e+02	-3.308815e+01
5.799382e+02	-3.313559e+01
5.832879e+02	-3.318844e+01
5.866569e+02	-3.323971e+01
5.900454e+02	-3.328697e+01
5.934535e+02	-3.334259e+01
5.968813e+02	-3.339054e+01
6.003288e+02	-3.343490e+01
6.037963e+02	-3.348545e+01
6.072838e+02	-3.354416e+01
6.107914e+02	-3.358563e+01
6.143194e+02	-3.364220e+01
6.178676e+02	-3.369367e+01
6.214364e+02	-3.374193e+01
6.250258e+02	-3.378306e+01
6.286359e+02	-3.384161e+01
6.322669e+02	-3.390149e+01
6.359189e+02	-3.393965e+01
6.395919e+02	-3.398584e+01
6.432862e+02	-3.404545e+01
6.470017e+02	-3.409576e+01
6.507388e+02	-3.414970e+01
6.544974e+02	-3.419162e+01
6.582778e+02	-3.424150e+01
6.620800e+02	-3.429327e+01
6.659041e+02	-3.435482e+01
6.697504e+02	-3.439746e+01
6.736188e+02	-3.445757e+01
6.775096e+02	-3.450100e+01
6.814229e+02	-3.454014e+01
6.853587e+02	-3.459705e+01
6.893173e+02	-3.464449e+01
6.932988e+02	-3.470233e+01
6.973033e+02	-3.473938e+01
7.013309e+02	-3.480452e+01
