Frequency(Hz)	Magnitude(dB)
1.000000e+01	-1.702180e-05
1.005776e+01	-1.721900e-05
1.011585e+01	-1.741848e-05
1.017428e+01	-1.762028e-05
1.023305e+01	-1.782442e-05
1.029215e+01	-1.803092e-05
1.035160e+01	-1.823981e-05
1.041139e+01	-1.845112e-05
1.047153e+01	-1.866488e-05
1.053201e+01	-1.888112e-05
1.059284e+01	-1.909986e-05
1.065403e+01	-1.932114e-05
1.071556e+01	-1.954498e-05
1.077746e+01	-1.977141e-05
1.083971e+01	-2.000047e-05
1.090232e+01	-2.023218e-05
1.096529e+01	-2.046658e-05
1.102862e+01	-2.070369e-05
1.109232e+01	-2.094354e-05
1.115639e+01	-2.118618e-05
1.122083e+01	-2.143163e-05
1.128564e+01	-2.167992e-05
1.135083e+01	-2.193109e-05
1.141639e+01	-2.218516e-05
1.148233e+01	-2.244218e-05
1.154865e+01	-2.270218e-05
1.161536e+01	-2.296519e-05
1.168245e+01	-2.323125e-05
1.174992e+01	-2.350039e-05
1.181779e+01	-2.377265e-05
1.188605e+01	-2.404806e-05
1.195470e+01	-2.432666e-05
1.202375e+01	-2.460849e-05
1.209320e+01	-2.489359e-05
1.216305e+01	-2.518199e-05
1.223330e+01	-2.547373e-05
1.230396e+01	-2.576885e-05
1.237503e+01	-2.606738e-05
1.244651e+01	-2.636938e-05
1.251840e+01	-2.667488e-05
1.259070e+01	-2.698391e-05
1.266343e+01	-2.729653e-05
1.273657e+01	-2.761276e-05
1.281014e+01	-2.793266e-05
1.288413e+01	-2.825627e-05
1.295855e+01	-2.858363e-05
1.303339e+01	-2.891478e-05
1.310867e+01	-2.924976e-05
1.318439e+01	-2.958863e-05
1.326054e+01	-2.993142e-05
1.333713e+01	-3.027818e-05
1.341417e+01	-3.062896e-05
1.349165e+01	-3.098380e-05
1.356958e+01	-3.134276e-05
1.364795e+01	-3.170587e-05
1.372678e+01	-3.207319e-05
1.380607e+01	-3.244477e-05
1.388581e+01	-3.282065e-05
1.396602e+01	-3.320088e-05
1.404668e+01	-3.358552e-05
1.412782e+01	-3.397462e-05
1.420942e+01	-3.436822e-05
1.429149e+01	-3.476639e-05
1.437404e+01	-3.516916e-05
1.445706e+01	-3.557661e-05
1.454057e+01	-3.598877e-05
1.462455e+01	-3.640571e-05
1.470902e+01	-3.682748e-05
1.479398e+01	-3.725413e-05
1.487943e+01	-3.768573e-05
1.496537e+01	-3.812233e-05
1.505181e+01	-3.856398e-05
1.513875e+01	-3.901075e-05
1.522619e+01	-3.946270e-05
1.531414e+01	-3.991989e-05
1.540259e+01	-4.038237e-05
1.549156e+01	-4.085021e-05
1.558103e+01	-4.132347e-05
1.567103e+01	-4.180221e-05
1.576155e+01	-4.228650e-05
1.585258e+01	-4.277639e-05
1.594415e+01	-4.327197e-05
1.603624e+01	-4.377328e-05
1.612886e+01	-4.428041e-05
1.622202e+01	-4.479340e-05
1.631572e+01	-4.531235e-05
1.640996e+01	-4.583730e-05
1.650474e+01	-4.636833e-05
1.660008e+01	-4.690552e-05
1.669596e+01	-4.744893e-05
1.679239e+01	-4.799864e-05
1.688938e+01	-4.855471e-05
1.698694e+01	-4.911723e-05
1.708505e+01	-4.968626e-05
1.718373e+01	-5.026189e-05
1.728299e+01	-5.084418e-05
1.738281e+01	-5.143322e-05
1.748322e+01	-5.202909e-05
1.758420e+01	-5.263186e-05
1.768576e+01	-5.324161e-05
1.778792e+01	-5.385842e-05
1.789066e+01	-5.448238e-05
1.799399e+01	-5.511357e-05
1.809793e+01	-5.575208e-05
1.820246e+01	-5.639797e-05
1.830760e+01	-5.705136e-05
1.841334e+01	-5.771231e-05
1.851969e+01	-5.838092e-05
1.862666e+01	-5.905727e-05
1.873425e+01	-5.974146e-05
1.884246e+01	-6.043358e-05
1.895129e+01	-6.113371e-05
1.906075e+01	-6.184196e-05
1.917085e+01	-6.255841e-05
1.928158e+01	-6.328316e-05
1.939295e+01	-6.401631e-05
1.950496e+01	-6.475795e-05
1.961762e+01	-6.550819e-05
1.973093e+01	-6.626711e-05
1.984490e+01	-6.703483e-05
1.995952e+01	-6.781144e-05
2.007480e+01	-6.859705e-05
2.019076e+01	-6.939176e-05
2.030738e+01	-7.019567e-05
2.042467e+01	-7.100890e-05
2.054264e+01	-7.183155e-05
2.066130e+01	-7.266374e-05
2.078064e+01	-7.350556e-05
2.090066e+01	-7.435713e-05
2.102139e+01	-7.521857e-05
2.114280e+01	-7.608999e-05
2.126492e+01	-7.697151e-05
2.138775e+01	-7.786324e-05
2.151128e+01	-7.876530e-05
2.163553e+01	-7.967781e-05
2.176050e+01	-8.060089e-05
2.188619e+01	-8.153466e-05
2.201260e+01	-8.247926e-05
2.213974e+01	-8.343479e-05
2.226762e+01	-8.440140e-05
2.239624e+01	-8.537920e-05
2.252560e+01	-8.636834e-05
2.265571e+01	-8.736893e-05
2.278656e+01	-8.838111e-05
2.291818e+01	-8.940502e-05
2.305055e+01	-9.044079e-05
2.318369e+01	-9.148856e-05
2.331760e+01	-9.254847e-05
2.345228e+01	-9.362066e-05
2.358774e+01	-9.470527e-05
2.372398e+01	-9.580244e-05
2.386101e+01	-9.691233e-05
2.399883e+01	-9.803507e-05
2.413745e+01	-9.917082e-05
2.427686e+01	-1.003197e-04
2.441709e+01	-1.014820e-04
2.455812e+01	-1.026576e-04
2.469997e+01	-1.038469e-04
2.484263e+01	-1.050500e-04
2.498612e+01	-1.062670e-04
2.513044e+01	-1.074982e-04
2.527559e+01	-1.087435e-04
2.542158e+01	-1.100033e-04
2.556842e+01	-1.112777e-04
2.571610e+01	-1.125669e-04
2.586463e+01	-1.138710e-04
2.601403e+01	-1.151902e-04
2.616428e+01	-1.165247e-04
2.631541e+01	-1.178747e-04
2.646740e+01	-1.192403e-04
2.662028e+01	-1.206217e-04
2.677404e+01	-1.220191e-04
2.692868e+01	-1.234327e-04
2.708422e+01	-1.248627e-04
2.724066e+01	-1.263092e-04
2.739800e+01	-1.277725e-04
2.755625e+01	-1.292528e-04
2.771541e+01	-1.307502e-04
2.787550e+01	-1.322650e-04
2.803650e+01	-1.337973e-04
2.819844e+01	-1.353473e-04
2.836131e+01	-1.369153e-04
2.852513e+01	-1.385015e-04
2.868989e+01	-1.401061e-04
2.885560e+01	-1.417292e-04
2.902227e+01	-1.433711e-04
2.918990e+01	-1.450321e-04
2.935850e+01	-1.467123e-04
2.952807e+01	-1.484120e-04
2.969863e+01	-1.501314e-04
2.987016e+01	-1.518706e-04
3.004269e+01	-1.536301e-04
3.021622e+01	-1.554099e-04
3.039075e+01	-1.572103e-04
3.056628e+01	-1.590316e-04
3.074283e+01	-1.608740e-04
3.092040e+01	-1.627377e-04
3.109900e+01	-1.646231e-04
3.127862e+01	-1.665302e-04
3.145929e+01	-1.684595e-04
3.164099e+01	-1.704111e-04
3.182375e+01	-1.723853e-04
3.200756e+01	-1.743824e-04
3.219244e+01	-1.764026e-04
3.237838e+01	-1.784463e-04
3.256540e+01	-1.805136e-04
3.275349e+01	-1.826048e-04
3.294268e+01	-1.847203e-04
3.313295e+01	-1.868603e-04
3.332433e+01	-1.890251e-04
3.351681e+01	-1.912150e-04
3.371040e+01	-1.934302e-04
3.390511e+01	-1.956711e-04
3.410094e+01	-1.979379e-04
3.429791e+01	-2.002310e-04
3.449601e+01	-2.025507e-04
3.469526e+01	-2.048973e-04
3.489566e+01	-2.072710e-04
3.509721e+01	-2.096722e-04
3.529993e+01	-2.121013e-04
3.550382e+01	-2.145585e-04
3.570889e+01	-2.170441e-04
3.591515e+01	-2.195586e-04
3.612259e+01	-2.221022e-04
3.633123e+01	-2.246752e-04
3.654108e+01	-2.272781e-04
3.675214e+01	-2.299111e-04
3.696442e+01	-2.325746e-04
3.717792e+01	-2.352690e-04
3.739266e+01	-2.379946e-04
3.760864e+01	-2.407517e-04
3.782587e+01	-2.435408e-04
3.804435e+01	-2.463622e-04
3.826409e+01	-2.492163e-04
3.848510e+01	-2.521035e-04
3.870739e+01	-2.550241e-04
3.893096e+01	-2.579785e-04
3.915583e+01	-2.609672e-04
3.938199e+01	-2.639905e-04
3.960946e+01	-2.670488e-04
3.983824e+01	-2.701425e-04
4.006834e+01	-2.732721e-04
4.029978e+01	-2.764379e-04
4.053255e+01	-2.796404e-04
4.076666e+01	-2.828800e-04
4.100213e+01	-2.861572e-04
4.123896e+01	-2.894723e-04
4.147715e+01	-2.928258e-04
4.171672e+01	-2.962181e-04
4.195767e+01	-2.996498e-04
4.220002e+01	-3.031212e-04
4.244377e+01	-3.066328e-04
4.268892e+01	-3.101851e-04
4.293549e+01	-3.137786e-04
4.318348e+01	-3.174136e-04
4.343291e+01	-3.210908e-04
4.368377e+01	-3.248106e-04
4.393609e+01	-3.285735e-04
4.418986e+01	-3.323800e-04
4.444510e+01	-3.362305e-04
4.470182e+01	-3.401257e-04
4.496001e+01	-3.440660e-04
4.521970e+01	-3.480519e-04
4.548089e+01	-3.520840e-04
4.574358e+01	-3.561629e-04
4.600779e+01	-3.602889e-04
4.627353e+01	-3.644628e-04
4.654081e+01	-3.686850e-04
4.680963e+01	-3.729562e-04
4.708000e+01	-3.772768e-04
4.735193e+01	-3.816475e-04
4.762543e+01	-3.860687e-04
4.790051e+01	-3.905413e-04
4.817719e+01	-3.950656e-04
4.845545e+01	-3.996423e-04
4.873533e+01	-4.042721e-04
4.901682e+01	-4.089555e-04
4.929994e+01	-4.136931e-04
4.958470e+01	-4.184856e-04
4.987110e+01	-4.233336e-04
5.015915e+01	-4.282378e-04
5.044887e+01	-4.331988e-04
5.074026e+01	-4.382173e-04
5.103333e+01	-4.432939e-04
5.132810e+01	-4.484293e-04
5.162457e+01	-4.536243e-04
5.192275e+01	-4.588793e-04
5.222265e+01	-4.641953e-04
5.252429e+01	-4.695728e-04
5.282767e+01	-4.750127e-04
5.313280e+01	-4.805155e-04
5.343969e+01	-4.860821e-04
5.374836e+01	-4.917132e-04
5.405880e+01	-4.974095e-04
5.437105e+01	-5.031718e-04
5.468509e+01	-5.090008e-04
5.500095e+01	-5.148974e-04
5.531863e+01	-5.208623e-04
5.563815e+01	-5.268962e-04
5.595951e+01	-5.330001e-04
5.628273e+01	-5.391747e-04
5.660782e+01	-5.454208e-04
5.693479e+01	-5.517392e-04
5.726364e+01	-5.581309e-04
5.759439e+01	-5.645965e-04
5.792705e+01	-5.711371e-04
5.826164e+01	-5.777535e-04
5.859815e+01	-5.844464e-04
5.893662e+01	-5.912170e-04
5.927703e+01	-5.980659e-04
5.961941e+01	-6.049942e-04
5.996377e+01	-6.120027e-04
6.031012e+01	-6.190924e-04
6.065847e+01	-6.262643e-04
6.100883e+01	-6.335192e-04
6.136121e+01	-6.408581e-04
6.171563e+01	-6.482821e-04
6.207210e+01	-6.557920e-04
6.243063e+01	-6.633890e-04
6.279122e+01	-6.710739e-04
6.315390e+01	-6.788479e-04
6.351868e+01	-6.867119e-04
6.388556e+01	-6.946670e-04
6.425456e+01	-7.027143e-04
6.462569e+01	-7.108548e-04
6.499897e+01	-7.190895e-04
6.537440e+01	-7.274197e-04
6.575200e+01	-7.358463e-04
6.613178e+01	-7.443706e-04
6.651375e+01	-7.529936e-04
6.689793e+01	-7.617165e-04
6.728433e+01	-7.705404e-04
6.767297e+01	-7.794665e-04
6.806384e+01	-7.884960e-04
6.845698e+01	-7.976301e-04
6.885238e+01	-8.068700e-04
6.925007e+01	-8.162169e-04
6.965005e+01	-8.256721e-04
7.005235e+01	-8.352369e-04
7.045697e+01	-8.449124e-04
7.086393e+01	-8.546999e-04
7.127323e+01	-8.646009e-04
7.168490e+01	-8.746165e-04
7.209895e+01	-8.847482e-04
7.251539e+01	-8.949972e-04
7.293424e+01	-9.053649e-04
7.335551e+01	-9.158527e-04
7.377920e+01	-9.264619e-04
7.420535e+01	-9.371941e-04
7.463396e+01	-9.480505e-04
7.506504e+01	-9.590328e-04
7.549861e+01	-9.701422e-04
7.593469e+01	-9.813803e-04
7.637328e+01	-9.927485e-04
7.681441e+01	-1.004248e-03
7.725809e+01	-1.015882e-03
7.770433e+01	-1.027649e-03
7.815315e+01	-1.039554e-03
7.860456e+01	-1.051596e-03
7.905857e+01	-1.063777e-03
7.951521e+01	-1.076100e-03
7.997449e+01	-1.088565e-03
8.043642e+01	-1.101175e-03
8.090102e+01	-1.113931e-03
8.136830e+01	-1.126834e-03
8.183828e+01	-1.139887e-03
8.231097e+01	-1.153091e-03
8.278640e+01	-1.166448e-03
8.326457e+01	-1.179960e-03
8.374550e+01	-1.193628e-03
8.422921e+01	-1.207455e-03
8.471572e+01	-1.221442e-03
8.520503e+01	-1.235591e-03
8.569717e+01	-1.249903e-03
8.619215e+01	-1.264381e-03
8.669000e+01	-1.279028e-03
8.719071e+01	-1.293843e-03
8.769432e+01	-1.308830e-03
8.820084e+01	-1.323991e-03
8.871029e+01	-1.339328e-03
8.922267e+01	-1.354842e-03
8.973802e+01	-1.370536e-03
9.025634e+01	-1.386411e-03
9.077766e+01	-1.402470e-03
9.130199e+01	-1.418716e-03
9.182935e+01	-1.435149e-03
9.235975e+01	-1.451773e-03
9.289321e+01	-1.468589e-03
9.342976e+01	-1.485600e-03
9.396941e+01	-1.502809e-03
9.451217e+01	-1.520216e-03
9.505807e+01	-1.537825e-03
9.560712e+01	-1.555638e-03
9.615934e+01	-1.573657e-03
9.671476e+01	-1.591885e-03
9.727338e+01	-1.610324e-03
9.783522e+01	-1.628977e-03
9.840032e+01	-1.647845e-03
9.896867e+01	-1.666932e-03
9.954031e+01	-1.686240e-03
1.001153e+02	-1.705772e-03
1.006935e+02	-1.725530e-03
1.012751e+02	-1.745517e-03
1.018601e+02	-1.765735e-03
1.024484e+02	-1.786187e-03
1.030402e+02	-1.806876e-03
1.036353e+02	-1.827805e-03
1.042339e+02	-1.848976e-03
1.048360e+02	-1.870392e-03
1.054415e+02	-1.892057e-03
1.060505e+02	-1.913972e-03
1.066631e+02	-1.936141e-03
1.072791e+02	-1.958566e-03
1.078988e+02	-1.981252e-03
1.085220e+02	-2.004200e-03
1.091488e+02	-2.027413e-03
1.097793e+02	-2.050896e-03
1.104133e+02	-2.074650e-03
1.110511e+02	-2.098680e-03
1.116925e+02	-2.122988e-03
1.123376e+02	-2.147577e-03
1.129865e+02	-2.172451e-03
1.136391e+02	-2.197613e-03
1.142955e+02	-2.223067e-03
1.149556e+02	-2.248815e-03
1.156196e+02	-2.274861e-03
1.162874e+02	-2.301209e-03
1.169591e+02	-2.327862e-03
1.176347e+02	-2.354824e-03
1.183141e+02	-2.382097e-03
1.189975e+02	-2.409687e-03
1.196848e+02	-2.437596e-03
1.203761e+02	-2.465828e-03
1.210714e+02	-2.494387e-03
1.217707e+02	-2.523277e-03
1.224740e+02	-2.552501e-03
1.231814e+02	-2.582064e-03
1.238929e+02	-2.611969e-03
1.246085e+02	-2.642220e-03
1.253283e+02	-2.672821e-03
1.260522e+02	-2.703777e-03
1.267802e+02	-2.735091e-03
1.275125e+02	-2.766768e-03
1.282490e+02	-2.798811e-03
1.289898e+02	-2.831225e-03
1.297348e+02	-2.864015e-03
1.304842e+02	-2.897184e-03
1.312378e+02	-2.930738e-03
1.319959e+02	-2.964679e-03
1.327583e+02	-2.999014e-03
1.335251e+02	-3.033746e-03
1.342963e+02	-3.068881e-03
1.350720e+02	-3.104422e-03
1.358522e+02	-3.140374e-03
1.366368e+02	-3.176743e-03
1.374260e+02	-3.213533e-03
1.382198e+02	-3.250748e-03
1.390182e+02	-3.288395e-03
1.398211e+02	-3.326477e-03
1.406287e+02	-3.365000e-03
1.414410e+02	-3.403970e-03
1.422579e+02	-3.443390e-03
1.430796e+02	-3.483266e-03
1.439060e+02	-3.523604e-03
1.447372e+02	-3.564410e-03
1.455732e+02	-3.605687e-03
1.464141e+02	-3.647442e-03
1.472597e+02	-3.689681e-03
1.481103e+02	-3.732408e-03
1.489658e+02	-3.775631e-03
1.498262e+02	-3.819353e-03
1.506916e+02	-3.863581e-03
1.515620e+02	-3.908322e-03
1.524374e+02	-3.953580e-03
1.533179e+02	-3.999362e-03
1.542034e+02	-4.045674e-03
1.550941e+02	-4.092522e-03
1.559899e+02	-4.139913e-03
1.568909e+02	-4.187852e-03
1.577971e+02	-4.236345e-03
1.587085e+02	-4.285400e-03
1.596252e+02	-4.335023e-03
1.605472e+02	-4.385220e-03
1.614745e+02	-4.435998e-03
1.624072e+02	-4.487363e-03
1.633453e+02	-4.539323e-03
1.642887e+02	-4.591885e-03
1.652377e+02	-4.645054e-03
1.661921e+02	-4.698839e-03
1.671520e+02	-4.753247e-03
1.681175e+02	-4.808284e-03
1.690885e+02	-4.863958e-03
1.700651e+02	-4.920276e-03
1.710474e+02	-4.977246e-03
1.720354e+02	-5.034875e-03
1.730291e+02	-5.093171e-03
1.740285e+02	-5.152142e-03
1.750337e+02	-5.211795e-03
1.760446e+02	-5.272138e-03
1.770615e+02	-5.333180e-03
1.780842e+02	-5.394928e-03
1.791128e+02	-5.457390e-03
1.801473e+02	-5.520575e-03
1.811878e+02	-5.584491e-03
1.822344e+02	-5.649147e-03
1.832870e+02	-5.714550e-03
1.843456e+02	-5.780711e-03
1.854104e+02	-5.847636e-03
1.864813e+02	-5.915337e-03
1.875584e+02	-5.983820e-03
1.886418e+02	-6.053096e-03
1.897313e+02	-6.123173e-03
1.908272e+02	-6.194061e-03
1.919294e+02	-6.265769e-03
1.930380e+02	-6.338306e-03
1.941530e+02	-6.411683e-03
1.952744e+02	-6.485908e-03
1.964023e+02	-6.560992e-03
1.975367e+02	-6.636945e-03
1.986777e+02	-6.713776e-03
1.998252e+02	-6.791496e-03
2.009794e+02	-6.870114e-03
2.021403e+02	-6.949643e-03
2.033078e+02	-7.030091e-03
2.044821e+02	-7.111469e-03
2.056632e+02	-7.193789e-03
2.068511e+02	-7.277061e-03
2.080459e+02	-7.361296e-03
2.092475e+02	-7.446505e-03
2.104561e+02	-7.532700e-03
2.116717e+02	-7.619891e-03
2.128943e+02	-7.708091e-03
2.141240e+02	-7.797311e-03
2.153608e+02	-7.887563e-03
2.166047e+02	-7.978858e-03
2.178558e+02	-8.071209e-03
2.191141e+02	-8.164628e-03
2.203797e+02	-8.259127e-03
2.216526e+02	-8.354719e-03
2.229329e+02	-8.451416e-03
2.242205e+02	-8.549231e-03
2.255156e+02	-8.648177e-03
2.268182e+02	-8.748267e-03
2.281283e+02	-8.849515e-03
2.294459e+02	-8.951933e-03
2.307712e+02	-9.055535e-03
2.321041e+02	-9.160335e-03
2.334447e+02	-9.266346e-03
2.347931e+02	-9.373583e-03
2.361493e+02	-9.482059e-03
2.375133e+02	-9.591790e-03
2.388851e+02	-9.702788e-03
2.402649e+02	-9.815070e-03
2.416527e+02	-9.928650e-03
2.430484e+02	-1.004354e-02
2.444523e+02	-1.015976e-02
2.458642e+02	-1.027733e-02
2.472843e+02	-1.039625e-02
2.487126e+02	-1.051655e-02
2.501492e+02	-1.063823e-02
2.515940e+02	-1.076133e-02
2.530472e+02	-1.088584e-02
2.545088e+02	-1.101180e-02
2.559789e+02	-1.113921e-02
2.574574e+02	-1.126809e-02
2.589444e+02	-1.139846e-02
2.604401e+02	-1.153034e-02
2.619444e+02	-1.166374e-02
2.634574e+02	-1.179869e-02
2.649791e+02	-1.193519e-02
2.665096e+02	-1.207327e-02
2.680489e+02	-1.221294e-02
2.695972e+02	-1.235423e-02
2.711544e+02	-1.249715e-02
2.727205e+02	-1.264172e-02
2.742958e+02	-1.278796e-02
2.758801e+02	-1.293590e-02
2.774736e+02	-1.308553e-02
2.790762e+02	-1.323690e-02
2.806882e+02	-1.339002e-02
2.823094e+02	-1.354490e-02
2.839400e+02	-1.370158e-02
2.855800e+02	-1.386006e-02
2.872295e+02	-1.402037e-02
2.888886e+02	-1.418253e-02
2.905572e+02	-1.434657e-02
2.922354e+02	-1.451250e-02
2.939234e+02	-1.468035e-02
2.956211e+02	-1.485013e-02
2.973286e+02	-1.502187e-02
2.990459e+02	-1.519560e-02
3.007732e+02	-1.537133e-02
3.025104e+02	-1.554909e-02
3.042577e+02	-1.572891e-02
3.060151e+02	-1.591080e-02
3.077826e+02	-1.609478e-02
3.095604e+02	-1.628090e-02
3.113484e+02	-1.646915e-02
3.131467e+02	-1.665959e-02
3.149554e+02	-1.685222e-02
3.167746e+02	-1.704707e-02
3.186043e+02	-1.724417e-02
3.204445e+02	-1.744355e-02
3.222954e+02	-1.764522e-02
3.241570e+02	-1.784923e-02
3.260293e+02	-1.805558e-02
3.279124e+02	-1.826432e-02
3.298064e+02	-1.847547e-02
3.317114e+02	-1.868905e-02
3.336273e+02	-1.890509e-02
3.355544e+02	-1.912363e-02
3.374925e+02	-1.934469e-02
3.394418e+02	-1.956829e-02
3.414024e+02	-1.979448e-02
3.433744e+02	-2.002327e-02
3.453577e+02	-2.025470e-02
3.473525e+02	-2.048880e-02
3.493588e+02	-2.072560e-02
3.513766e+02	-2.096513e-02
3.534062e+02	-2.120743e-02
3.554474e+02	-2.145251e-02
3.575005e+02	-2.170042e-02
3.595654e+02	-2.195119e-02
3.616422e+02	-2.220485e-02
3.637311e+02	-2.246143e-02
3.658320e+02	-2.272097e-02
3.679450e+02	-2.298350e-02
3.700702e+02	-2.324905e-02
3.722077e+02	-2.351767e-02
3.743576e+02	-2.378938e-02
3.765199e+02	-2.406422e-02
3.786946e+02	-2.434222e-02
3.808820e+02	-2.462343e-02
3.830819e+02	-2.490788e-02
3.852946e+02	-2.519561e-02
3.875200e+02	-2.548665e-02
3.897583e+02	-2.578104e-02
3.920096e+02	-2.607882e-02
3.942738e+02	-2.638003e-02
3.965511e+02	-2.668470e-02
3.988416e+02	-2.699289e-02
4.011452e+02	-2.730462e-02
4.034622e+02	-2.761995e-02
4.057926e+02	-2.793890e-02
4.081365e+02	-2.826152e-02
4.104938e+02	-2.858786e-02
4.128648e+02	-2.891795e-02
4.152495e+02	-2.925184e-02
4.176480e+02	-2.958958e-02
4.200603e+02	-2.993119e-02
4.224866e+02	-3.027674e-02
4.249268e+02	-3.062627e-02
4.273812e+02	-3.097981e-02
4.298497e+02	-3.133742e-02
4.323325e+02	-3.169915e-02
4.348297e+02	-3.206503e-02
4.373412e+02	-3.243512e-02
4.398673e+02	-3.280947e-02
4.424079e+02	-3.318812e-02
4.449633e+02	-3.357112e-02
4.475334e+02	-3.395853e-02
4.501183e+02	-3.435039e-02
4.527182e+02	-3.474675e-02
4.553330e+02	-3.514767e-02
4.579630e+02	-3.555319e-02
4.606082e+02	-3.596337e-02
4.632687e+02	-3.637827e-02
4.659445e+02	-3.679793e-02
4.686358e+02	-3.722242e-02
4.713426e+02	-3.765177e-02
4.740650e+02	-3.808606e-02
4.768032e+02	-3.852534e-02
4.795572e+02	-3.896966e-02
4.823271e+02	-3.941908e-02
4.851130e+02	-3.987366e-02
4.879150e+02	-4.033346e-02
4.907332e+02	-4.079853e-02
4.935676e+02	-4.126894e-02
4.964185e+02	-4.174475e-02
4.992858e+02	-4.222602e-02
5.021696e+02	-4.271281e-02
5.050701e+02	-4.320518e-02
5.079874e+02	-4.370320e-02
5.109215e+02	-4.420694e-02
5.138726e+02	-4.471644e-02
5.168407e+02	-4.523179e-02
5.198259e+02	-4.575305e-02
5.228284e+02	-4.628028e-02
5.258482e+02	-4.681356e-02
5.288855e+02	-4.735294e-02
5.319403e+02	-4.789851e-02
5.350128e+02	-4.845033e-02
5.381030e+02	-4.900847e-02
5.412111e+02	-4.957300e-02
5.443371e+02	-5.014399e-02
5.474812e+02	-5.072153e-02
5.506434e+02	-5.130568e-02
5.538239e+02	-5.189651e-02
5.570228e+02	-5.249411e-02
5.602401e+02	-5.309854e-02
5.634760e+02	-5.370990e-02
5.667306e+02	-5.432824e-02
5.700040e+02	-5.495366e-02
5.732964e+02	-5.558624e-02
5.766077e+02	-5.622605e-02
5.799382e+02	-5.687317e-02
5.832879e+02	-5.752770e-02
5.866569e+02	-5.818970e-02
5.900454e+02	-5.885927e-02
5.934535e+02	-5.953650e-02
5.968813e+02	-6.022146e-02
6.003288e+02	-6.091424e-02
6.037963e+02	-6.161494e-02
6.072838e+02	-6.232364e-02
6.107914e+02	-6.304044e-02
6.143194e+02	-6.376541e-02
6.178676e+02	-6.449866e-02
6.214364e+02	-6.524028e-02
6.250258e+02	-6.599037e-02
6.286359e+02	-6.674901e-02
6.322669e+02	-6.751630e-02
6.359189e+02	-6.829235e-02
6.395919e+02	-6.907724e-02
6.432862e+02	-6.987108e-02
6.470017e+02	-7.067397e-02
6.507388e+02	-7.148601e-02
6.544974e+02	-7.230730e-02
6.582778e+02	-7.313795e-02
6.620800e+02	-7.397806e-02
6.659041e+02	-7.482773e-02
6.697504e+02	-7.568708e-02
6.736188e+02	-7.655621e-02
6.775096e+02	-7.743523e-02
6.814229e+02	-7.832426e-02
6.853587e+02	-7.922340e-02
6.893173e+02	-8.013276e-02
6.932988e+02	-8.105246e-02
6.973033e+02	-8.198262e-02
7.013309e+02	-8.292336e-02
