Frequency(Hz)	Magnitude(dB)
1.000000e+01	-2.192142e+00
1.005776e+01	-2.212010e+00
1.011585e+01	-2.232167e+00
1.017428e+01	-2.252190e+00
1.023305e+01	-2.272643e+00
1.029215e+01	-2.292957e+00
1.035160e+01	-2.313464e+00
1.041139e+01	-2.334443e+00
1.047153e+01	-2.355083e+00
1.053201e+01	-2.376028e+00
1.059284e+01	-2.397197e+00
1.065403e+01	-2.418791e+00
1.071556e+01	-2.439989e+00
1.077746e+01	-2.461543e+00
1.083971e+01	-2.483315e+00
1.090232e+01	-2.505290e+00
1.096529e+01	-2.527165e+00
1.102862e+01	-2.549252e+00
1.109232e+01	-2.571293e+00
1.115639e+01	-2.593981e+00
1.122083e+01	-2.616589e+00
1.128564e+01	-2.639134e+00
1.135083e+01	-2.662000e+00
1.141639e+01	-2.685160e+00
1.148233e+01	-2.708304e+00
1.154865e+01	-2.731695e+00
1.161536e+01	-2.754908e+00
1.168245e+01	-2.778553e+00
1.174992e+01	-2.802162e+00
1.181779e+01	-2.826139e+00
1.188605e+01	-2.850242e+00
1.195470e+01	-2.874312e+00
1.202375e+01	-2.898582e+00
1.209320e+01	-2.922940e+00
1.216305e+01	-2.947418e+00
1.223330e+01	-2.972220e+00
1.230396e+01	-2.997107e+00
1.237503e+01	-3.022303e+00
1.244651e+01	-3.047219e+00
1.251840e+01	-3.072670e+00
1.259070e+01	-3.098063e+00
1.266343e+01	-3.123642e+00
1.273657e+01	-3.149280e+00
1.281014e+01	-3.175323e+00
1.288413e+01	-3.201224e+00
1.295855e+01	-3.227284e+00
1.303339e+01	-3.253977e+00
1.310867e+01	-3.280212e+00
1.318439e+01	-3.306657e+00
1.326054e+01	-3.333552e+00
1.333713e+01	-3.360333e+00
1.341417e+01	-3.387670e+00
1.349165e+01	-3.414489e+00
1.356958e+01	-3.442085e+00
1.364795e+01	-3.469407e+00
1.372678e+01	-3.496924e+00
1.380607e+01	-3.524704e+00
1.388581e+01	-3.552444e+00
1.396602e+01	-3.580719e+00
1.404668e+01	-3.608589e+00
1.412782e+01	-3.636918e+00
1.420942e+01	-3.665462e+00
1.429149e+01	-3.694175e+00
1.437404e+01	-3.722796e+00
1.445706e+01	-3.751399e+00
1.454057e+01	-3.780834e+00
1.462455e+01	-3.810002e+00
1.470902e+01	-3.839247e+00
1.479398e+01	-3.868663e+00
1.487943e+01	-3.897950e+00
1.496537e+01	-3.927754e+00
1.505181e+01	-3.957628e+00
1.513875e+01	-3.987553e+00
1.522619e+01	-4.017703e+00
1.531414e+01	-4.047902e+00
1.540259e+01	-4.078556e+00
1.549156e+01	-4.108917e+00
1.558103e+01	-4.139718e+00
1.567103e+01	-4.170393e+00
1.576155e+01	-4.201213e+00
1.585258e+01	-4.232397e+00
1.594415e+01	-4.263598e+00
1.603624e+01	-4.295357e+00
1.612886e+01	-4.326630e+00
1.622202e+01	-4.358139e+00
1.631572e+01	-4.389827e+00
1.640996e+01	-4.421792e+00
1.650474e+01	-4.453821e+00
1.660008e+01	-4.485718e+00
1.669596e+01	-4.517883e+00
1.679239e+01	-4.550690e+00
1.688938e+01	-4.583401e+00
1.698694e+01	-4.615814e+00
1.708505e+01	-4.648371e+00
1.718373e+01	-4.681535e+00
1.728299e+01	-4.714808e+00
1.738281e+01	-4.747684e+00
1.748322e+01	-4.781267e+00
1.758420e+01	-4.814830e+00
1.768576e+01	-4.848385e+00
1.778792e+01	-4.882053e+00
1.789066e+01	-4.915815e+00
1.799399e+01	-4.949913e+00
1.809793e+01	-4.983657e+00
1.820246e+01	-5.018084e+00
1.830760e+01	-5.052718e+00
1.841334e+01	-5.086560e+00
1.851969e+01	-5.121388e+00
1.862666e+01	-5.155996e+00
1.873425e+01	-5.190820e+00
1.884246e+01	-5.225843e+00
1.895129e+01	-5.260845e+00
1.906075e+01	-5.296108e+00
1.917085e+01	-5.331227e+00
1.928158e+01	-5.366863e+00
1.939295e+01	-5.402185e+00
1.950496e+01	-5.438073e+00
1.961762e+01	-5.473932e+00
1.973093e+01	-5.509874e+00
1.984490e+01	-5.545616e+00
1.995952e+01	-5.581999e+00
2.007480e+01	-5.618019e+00
2.019076e+01	-5.654708e+00
2.030738e+01	-5.690982e+00
2.042467e+01	-5.727561e+00
2.054264e+01	-5.764294e+00
2.066130e+01	-5.801306e+00
2.078064e+01	-5.838252e+00
2.090066e+01	-5.875228e+00
2.102139e+01	-5.912316e+00
2.114280e+01	-5.949408e+00
2.126492e+01	-5.986760e+00
2.138775e+01	-6.024043e+00
2.151128e+01	-6.061682e+00
2.163553e+01	-6.099634e+00
2.176050e+01	-6.137205e+00
2.188619e+01	-6.175150e+00
2.201260e+01	-6.213204e+00
2.213974e+01	-6.251439e+00
2.226762e+01	-6.289570e+00
2.239624e+01	-6.327778e+00
2.252560e+01	-6.366376e+00
2.265571e+01	-6.404861e+00
2.278656e+01	-6.443590e+00
2.291818e+01	-6.482080e+00
2.305055e+01	-6.521077e+00
2.318369e+01	-6.559616e+00
2.331760e+01	-6.599056e+00
2.345228e+01	-6.637997e+00
2.358774e+01	-6.677869e+00
2.372398e+01	-6.716751e+00
2.386101e+01	-6.756645e+00
2.399883e+01	-6.795920e+00
2.413745e+01	-6.835167e+00
2.427686e+01	-6.874824e+00
2.441709e+01	-6.914902e+00
2.455812e+01	-6.954285e+00
2.469997e+01	-6.994197e+00
2.484263e+01	-7.034646e+00
2.498612e+01	-7.074564e+00
2.513044e+01	-7.115221e+00
2.527559e+01	-7.155280e+00
2.542158e+01	-7.196234e+00
2.556842e+01	-7.236404e+00
2.571610e+01	-7.277221e+00
2.586463e+01	-7.317815e+00
2.601403e+01	-7.358473e+00
2.616428e+01	-7.399135e+00
2.631541e+01	-7.440399e+00
2.646740e+01	-7.481448e+00
2.662028e+01	-7.522441e+00
2.677404e+01	-7.563799e+00
2.692868e+01	-7.605199e+00
2.708422e+01	-7.646463e+00
2.724066e+01	-7.687827e+00
2.739800e+01	-7.729214e+00
2.755625e+01	-7.770924e+00
2.771541e+01	-7.812627e+00
2.787550e+01	-7.854676e+00
2.803650e+01	-7.896561e+00
2.819844e+01	-7.938575e+00
2.836131e+01	-7.980262e+00
2.852513e+01	-8.022866e+00
2.868989e+01	-8.064506e+00
2.885560e+01	-8.106736e+00
2.902227e+01	-8.149360e+00
2.918990e+01	-8.191297e+00
2.935850e+01	-8.233999e+00
2.952807e+01	-8.277138e+00
2.969863e+01	-8.319286e+00
2.987016e+01	-8.362104e+00
3.004269e+01	-8.404911e+00
3.021622e+01	-8.447716e+00
3.039075e+01	-8.490591e+00
3.056628e+01	-8.533721e+00
3.074283e+01	-8.576394e+00
3.092040e+01	-8.619718e+00
3.109900e+01	-8.663022e+00
3.127862e+01	-8.706297e+00
3.145929e+01	-8.749638e+00
3.164099e+01	-8.792784e+00
3.182375e+01	-8.836349e+00
3.200756e+01	-8.880268e+00
3.219244e+01	-8.923697e+00
3.237838e+01	-8.966663e+00
3.256540e+01	-9.011039e+00
3.275349e+01	-9.054609e+00
3.294268e+01	-9.098584e+00
3.313295e+01	-9.141737e+00
3.332433e+01	-9.185993e+00
3.351681e+01	-9.230162e+00
3.371040e+01	-9.273770e+00
3.390511e+01	-9.318403e+00
3.410094e+01	-9.362989e+00
3.429791e+01	-9.406916e+00
3.449601e+01	-9.451485e+00
3.469526e+01	-9.495336e+00
3.489566e+01	-9.539772e+00
3.509721e+01	-9.584616e+00
3.529993e+01	-9.629421e+00
3.550382e+01	-9.673539e+00
3.570889e+01	-9.718584e+00
3.591515e+01	-9.763287e+00
3.612259e+01	-9.807846e+00
3.633123e+01	-9.853310e+00
3.654108e+01	-9.897352e+00
3.675214e+01	-9.942278e+00
3.696442e+01	-9.987182e+00
3.717792e+01	-1.003267e+01
3.739266e+01	-1.007736e+01
3.760864e+01	-1.012274e+01
3.782587e+01	-1.016803e+01
3.804435e+01	-1.021302e+01
3.826409e+01	-1.025830e+01
3.848510e+01	-1.030376e+01
3.870739e+01	-1.034882e+01
3.893096e+01	-1.039504e+01
3.915583e+01	-1.044001e+01
3.938199e+01	-1.048535e+01
3.960946e+01	-1.053101e+01
3.983824e+01	-1.057695e+01
4.006834e+01	-1.062255e+01
4.029978e+01	-1.066855e+01
4.053255e+01	-1.071419e+01
4.076666e+01	-1.075956e+01
4.100213e+01	-1.080565e+01
4.123896e+01	-1.085169e+01
4.147715e+01	-1.089689e+01
4.171672e+01	-1.094352e+01
4.195767e+01	-1.098937e+01
4.220002e+01	-1.103537e+01
4.244377e+01	-1.108144e+01
4.268892e+01	-1.112855e+01
4.293549e+01	-1.117435e+01
4.318348e+01	-1.122073e+01
4.343291e+01	-1.126683e+01
4.368377e+01	-1.131247e+01
4.393609e+01	-1.135911e+01
4.418986e+01	-1.140526e+01
4.444510e+01	-1.145227e+01
4.470182e+01	-1.149787e+01
4.496001e+01	-1.154426e+01
4.521970e+01	-1.159129e+01
4.548089e+01	-1.163797e+01
4.574358e+01	-1.168524e+01
4.600779e+01	-1.173124e+01
4.627353e+01	-1.177861e+01
4.654081e+01	-1.182513e+01
4.680963e+01	-1.187180e+01
4.708000e+01	-1.191826e+01
4.735193e+01	-1.196474e+01
4.762543e+01	-1.201177e+01
4.790051e+01	-1.205878e+01
4.817719e+01	-1.210645e+01
4.845545e+01	-1.215284e+01
4.873533e+01	-1.219946e+01
4.901682e+01	-1.224633e+01
4.929994e+01	-1.229364e+01
4.958470e+01	-1.234089e+01
4.987110e+01	-1.238831e+01
5.015915e+01	-1.243520e+01
5.044887e+01	-1.248186e+01
5.074026e+01	-1.253008e+01
5.103333e+01	-1.257692e+01
5.132810e+01	-1.262408e+01
5.162457e+01	-1.267226e+01
5.192275e+01	-1.271940e+01
5.222265e+01	-1.276603e+01
5.252429e+01	-1.281348e+01
5.282767e+01	-1.286158e+01
5.313280e+01	-1.290915e+01
5.343969e+01	-1.295653e+01
5.374836e+01	-1.300311e+01
5.405880e+01	-1.305095e+01
5.437105e+01	-1.309874e+01
5.468509e+01	-1.314600e+01
5.500095e+01	-1.319403e+01
5.531863e+01	-1.324127e+01
5.563815e+01	-1.328872e+01
5.595951e+01	-1.333713e+01
5.628273e+01	-1.338367e+01
5.660782e+01	-1.343107e+01
5.693479e+01	-1.348026e+01
5.726364e+01	-1.352759e+01
5.759439e+01	-1.357617e+01
5.792705e+01	-1.362373e+01
5.826164e+01	-1.367107e+01
5.859815e+01	-1.371911e+01
5.893662e+01	-1.376714e+01
5.927703e+01	-1.381538e+01
5.961941e+01	-1.386306e+01
5.996377e+01	-1.391200e+01
6.031012e+01	-1.395880e+01
6.065847e+01	-1.400659e+01
6.100883e+01	-1.405530e+01
6.136121e+01	-1.410350e+01
6.171563e+01	-1.415177e+01
6.207210e+01	-1.419920e+01
6.243063e+01	-1.424697e+01
6.279122e+01	-1.429502e+01
6.315390e+01	-1.434436e+01
6.351868e+01	-1.439265e+01
6.388556e+01	-1.444122e+01
6.425456e+01	-1.448971e+01
6.462569e+01	-1.453674e+01
6.499897e+01	-1.458404e+01
6.537440e+01	-1.463381e+01
6.575200e+01	-1.468111e+01
6.613178e+01	-1.472975e+01
6.651375e+01	-1.477904e+01
6.689793e+01	-1.482624e+01
6.728433e+01	-1.487564e+01
6.767297e+01	-1.492336e+01
6.806384e+01	-1.497262e+01
6.845698e+01	-1.502001e+01
6.885238e+01	-1.506873e+01
6.925007e+01	-1.511760e+01
6.965005e+01	-1.516608e+01
7.005235e+01	-1.521464e+01
7.045697e+01	-1.526299e+01
7.086393e+01	-1.531036e+01
7.127323e+01	-1.536000e+01
7.168490e+01	-1.540871e+01
7.209895e+01	-1.545716e+01
7.251539e+01	-1.550527e+01
7.293424e+01	-1.555486e+01
7.335551e+01	-1.560309e+01
7.377920e+01	-1.565084e+01
7.420535e+01	-1.570022e+01
7.463396e+01	-1.574947e+01
7.506504e+01	-1.579772e+01
7.549861e+01	-1.584606e+01
7.593469e+01	-1.589516e+01
7.637328e+01	-1.594335e+01
7.681441e+01	-1.599288e+01
7.725809e+01	-1.604132e+01
7.770433e+01	-1.609064e+01
7.815315e+01	-1.613889e+01
7.860456e+01	-1.618781e+01
7.905857e+01	-1.623641e+01
7.951521e+01	-1.628536e+01
7.997449e+01	-1.633469e+01
8.043642e+01	-1.638281e+01
8.090102e+01	-1.643332e+01
8.136830e+01	-1.648128e+01
8.183828e+01	-1.653001e+01
8.231097e+01	-1.657984e+01
8.278640e+01	-1.662757e+01
8.326457e+01	-1.667737e+01
8.374550e+01	-1.672609e+01
8.422921e+01	-1.677487e+01
8.471572e+01	-1.682330e+01
8.520503e+01	-1.687234e+01
8.569717e+01	-1.692125e+01
8.619215e+01	-1.697107e+01
8.669000e+01	-1.701966e+01
8.719071e+01	-1.706888e+01
8.769432e+01	-1.711809e+01
8.820084e+01	-1.716677e+01
8.871029e+01	-1.721427e+01
8.922267e+01	-1.726586e+01
8.973802e+01	-1.731517e+01
9.025634e+01	-1.736413e+01
9.077766e+01	-1.741363e+01
9.130199e+01	-1.746128e+01
9.182935e+01	-1.751018e+01
9.235975e+01	-1.756041e+01
9.289321e+01	-1.761066e+01
9.342976e+01	-1.765740e+01
9.396941e+01	-1.770756e+01
9.451217e+01	-1.775611e+01
9.505807e+01	-1.780604e+01
9.560712e+01	-1.785305e+01
9.615934e+01	-1.790481e+01
9.671476e+01	-1.795489e+01
9.727338e+01	-1.800341e+01
9.783522e+01	-1.805242e+01
9.840032e+01	-1.810097e+01
9.896867e+01	-1.815010e+01
9.954031e+01	-1.820030e+01
1.001153e+02	-1.824866e+01
1.006935e+02	-1.829840e+01
1.012751e+02	-1.834822e+01
1.018601e+02	-1.839512e+01
1.024484e+02	-1.844590e+01
1.030402e+02	-1.849514e+01
1.036353e+02	-1.854583e+01
1.042339e+02	-1.859413e+01
1.048360e+02	-1.864276e+01
1.054415e+02	-1.869401e+01
1.060505e+02	-1.874325e+01
1.066631e+02	-1.879116e+01
1.072791e+02	-1.884015e+01
1.078988e+02	-1.889049e+01
1.085220e+02	-1.894099e+01
1.091488e+02	-1.898959e+01
1.097793e+02	-1.903834e+01
1.104133e+02	-1.908792e+01
1.110511e+02	-1.913769e+01
1.116925e+02	-1.918778e+01
1.123376e+02	-1.923557e+01
1.129865e+02	-1.928661e+01
1.136391e+02	-1.933514e+01
1.142955e+02	-1.938579e+01
1.149556e+02	-1.943527e+01
1.156196e+02	-1.948345e+01
1.162874e+02	-1.953224e+01
1.169591e+02	-1.958355e+01
1.176347e+02	-1.963220e+01
1.183141e+02	-1.968192e+01
1.189975e+02	-1.973218e+01
1.196848e+02	-1.977963e+01
1.203761e+02	-1.983094e+01
1.210714e+02	-1.988006e+01
1.217707e+02	-1.992853e+01
1.224740e+02	-1.997797e+01
1.231814e+02	-2.002874e+01
1.238929e+02	-2.007898e+01
1.246085e+02	-2.012753e+01
1.253283e+02	-2.017750e+01
1.260522e+02	-2.022519e+01
1.267802e+02	-2.027715e+01
1.275125e+02	-2.032709e+01
1.282490e+02	-2.037467e+01
1.289898e+02	-2.042526e+01
1.297348e+02	-2.047546e+01
1.304842e+02	-2.052579e+01
1.312378e+02	-2.057405e+01
1.319959e+02	-2.062222e+01
1.327583e+02	-2.067124e+01
1.335251e+02	-2.072226e+01
1.342963e+02	-2.076959e+01
1.350720e+02	-2.082141e+01
1.358522e+02	-2.087069e+01
1.366368e+02	-2.092134e+01
1.374260e+02	-2.097120e+01
1.382198e+02	-2.101937e+01
1.390182e+02	-2.107021e+01
1.398211e+02	-2.111871e+01
1.406287e+02	-2.116859e+01
1.414410e+02	-2.121888e+01
1.422579e+02	-2.126781e+01
1.430796e+02	-2.132163e+01
1.439060e+02	-2.136743e+01
1.447372e+02	-2.141661e+01
1.455732e+02	-2.146702e+01
1.464141e+02	-2.151773e+01
1.472597e+02	-2.156553e+01
1.481103e+02	-2.161701e+01
1.489658e+02	-2.166590e+01
1.498262e+02	-2.171501e+01
1.506916e+02	-2.176587e+01
1.515620e+02	-2.181497e+01
1.524374e+02	-2.186528e+01
1.533179e+02	-2.191419e+01
1.542034e+02	-2.196338e+01
1.550941e+02	-2.201324e+01
1.559899e+02	-2.206363e+01
1.568909e+02	-2.211365e+01
1.577971e+02	-2.216283e+01
1.587085e+02	-2.221439e+01
1.596252e+02	-2.226268e+01
1.605472e+02	-2.231033e+01
1.614745e+02	-2.236306e+01
1.624072e+02	-2.241409e+01
1.633453e+02	-2.246097e+01
1.642887e+02	-2.251171e+01
1.652377e+02	-2.256044e+01
1.661921e+02	-2.261034e+01
1.671520e+02	-2.266054e+01
1.681175e+02	-2.271040e+01
1.690885e+02	-2.275855e+01
1.700651e+02	-2.280780e+01
1.710474e+02	-2.286073e+01
1.720354e+02	-2.291144e+01
1.730291e+02	-2.295822e+01
1.740285e+02	-2.300848e+01
1.750337e+02	-2.305805e+01
1.760446e+02	-2.310862e+01
1.770615e+02	-2.315948e+01
1.780842e+02	-2.320728e+01
1.791128e+02	-2.325604e+01
1.801473e+02	-2.330748e+01
1.811878e+02	-2.335725e+01
1.822344e+02	-2.340947e+01
1.832870e+02	-2.345874e+01
1.843456e+02	-2.350512e+01
1.854104e+02	-2.355731e+01
1.864813e+02	-2.360912e+01
1.875584e+02	-2.365441e+01
1.886418e+02	-2.370737e+01
1.897313e+02	-2.375900e+01
1.908272e+02	-2.380752e+01
1.919294e+02	-2.385780e+01
1.930380e+02	-2.390353e+01
1.941530e+02	-2.395466e+01
1.952744e+02	-2.400514e+01
1.964023e+02	-2.405659e+01
1.975367e+02	-2.410514e+01
1.986777e+02	-2.415630e+01
1.998252e+02	-2.420556e+01
2.009794e+02	-2.425602e+01
2.021403e+02	-2.430241e+01
2.033078e+02	-2.435470e+01
2.044821e+02	-2.440434e+01
2.056632e+02	-2.445200e+01
2.068511e+02	-2.450611e+01
2.080459e+02	-2.455129e+01
2.092475e+02	-2.460412e+01
2.104561e+02	-2.465362e+01
2.116717e+02	-2.470363e+01
2.128943e+02	-2.475211e+01
2.141240e+02	-2.480274e+01
2.153608e+02	-2.485389e+01
2.166047e+02	-2.490396e+01
2.178558e+02	-2.495445e+01
2.191141e+02	-2.500353e+01
2.203797e+02	-2.505477e+01
2.216526e+02	-2.510406e+01
2.229329e+02	-2.515060e+01
2.242205e+02	-2.520319e+01
2.255156e+02	-2.525414e+01
2.268182e+02	-2.530147e+01
2.281283e+02	-2.535369e+01
2.294459e+02	-2.540163e+01
2.307712e+02	-2.545532e+01
2.321041e+02	-2.550116e+01
2.334447e+02	-2.555334e+01
2.347931e+02	-2.560261e+01
2.361493e+02	-2.565559e+01
2.375133e+02	-2.570086e+01
2.388851e+02	-2.575124e+01
2.402649e+02	-2.580037e+01
2.416527e+02	-2.585191e+01
2.430484e+02	-2.589670e+01
2.444523e+02	-2.595513e+01
2.458642e+02	-2.599998e+01
2.472843e+02	-2.605230e+01
2.487126e+02	-2.610125e+01
2.501492e+02	-2.614799e+01
2.515940e+02	-2.620322e+01
2.530472e+02	-2.624786e+01
2.545088e+02	-2.630071e+01
2.559789e+02	-2.634924e+01
2.574574e+02	-2.640477e+01
2.589444e+02	-2.645567e+01
2.604401e+02	-2.650455e+01
2.619444e+02	-2.655145e+01
2.634574e+02	-2.660506e+01
2.649791e+02	-2.664995e+01
2.665096e+02	-2.670226e+01
2.680489e+02	-2.674999e+01
2.695972e+02	-2.680055e+01
2.711544e+02	-2.685236e+01
2.727205e+02	-2.690456e+01
2.742958e+02	-2.695233e+01
2.758801e+02	-2.699860e+01
2.774736e+02	-2.705037e+01
2.790762e+02	-2.710068e+01
2.806882e+02	-2.715363e+01
2.823094e+02	-2.720132e+01
2.839400e+02	-2.725322e+01
2.855800e+02	-2.730147e+01
2.872295e+02	-2.735539e+01
2.888886e+02	-2.740434e+01
2.905572e+02	-2.745204e+01
2.922354e+02	-2.750576e+01
2.939234e+02	-2.755196e+01
2.956211e+02	-2.760183e+01
2.973286e+02	-2.765384e+01
2.990459e+02	-2.769940e+01
3.007732e+02	-2.775074e+01
3.025104e+02	-2.780002e+01
3.042577e+02	-2.785383e+01
3.060151e+02	-2.790030e+01
3.077826e+02	-2.795342e+01
3.095604e+02	-2.800317e+01
3.113484e+02	-2.805291e+01
3.131467e+02	-2.809992e+01
3.149554e+02	-2.815009e+01
3.167746e+02	-2.820028e+01
3.186043e+02	-2.825105e+01
3.204445e+02	-2.830048e+01
3.222954e+02	-2.835513e+01
3.241570e+02	-2.840171e+01
3.260293e+02	-2.845645e+01
3.279124e+02	-2.850312e+01
3.298064e+02	-2.854988e+01
3.317114e+02	-2.859818e+01
3.336273e+02	-2.865371e+01
3.355544e+02	-2.870307e+01
3.374925e+02	-2.875150e+01
3.394418e+02	-2.880016e+01
3.414024e+02	-2.885591e+01
3.433744e+02	-2.890251e+01
3.453577e+02	-2.895361e+01
3.473525e+02	-2.900318e+01
3.493588e+02	-2.905546e+01
3.513766e+02	-2.910158e+01
3.534062e+02	-2.915578e+01
3.554474e+02	-2.920301e+01
3.575005e+02	-2.925367e+01
3.595654e+02	-2.930023e+01
3.616422e+02	-2.935398e+01
3.637311e+02	-2.940573e+01
3.658320e+02	-2.945597e+01
3.679450e+02	-2.950586e+01
3.700702e+02	-2.954947e+01
3.722077e+02	-2.960306e+01
3.743576e+02	-2.965548e+01
3.765199e+02	-2.970311e+01
3.786946e+02	-2.975476e+01
3.808820e+02	-2.980691e+01
3.830819e+02	-2.985406e+01
3.852946e+02	-2.990164e+01
3.875200e+02	-2.995449e+01
3.897583e+02	-3.000411e+01
3.920096e+02	-3.005513e+01
3.942738e+02	-3.010730e+01
3.965511e+02	-3.015881e+01
3.988416e+02	-3.020792e+01
4.011452e+02	-3.025709e+01
4.034622e+02	-3.030633e+01
4.057926e+02	-3.036104e+01
4.081365e+02	-3.040705e+01
4.104938e+02	-3.045429e+01
4.128648e+02	-3.050590e+01
4.152495e+02	-3.055621e+01
4.176480e+02	-3.060832e+01
4.200603e+02	-3.065213e+01
4.224866e+02	-3.070410e+01
4.249268e+02	-3.075984e+01
4.273812e+02	-3.080527e+01
4.298497e+02	-3.085314e+01
4.323325e+02	-3.090877e+01
4.348297e+02	-3.095882e+01
4.373412e+02	-3.101116e+01
4.398673e+02	-3.105914e+01
4.424079e+02	-3.110993e+01
4.449633e+02	-3.116007e+01
4.475334e+02	-3.120756e+01
4.501183e+02	-3.125543e+01
4.527182e+02	-3.130464e+01
4.553330e+02	-3.136004e+01
4.579630e+02	-3.140791e+01
4.606082e+02	-3.146301e+01
4.632687e+02	-3.151284e+01
4.659445e+02	-3.155158e+01
4.686358e+02	-3.160946e+01
4.713426e+02	-3.165547e+01
4.740650e+02	-3.170922e+01
4.768032e+02	-3.176180e+01
4.795572e+02	-3.181462e+01
4.823271e+02	-3.185924e+01
4.851130e+02	-3.190459e+01
4.879150e+02	-3.195869e+01
4.907332e+02	-3.200919e+01
4.935676e+02	-3.205844e+01
4.964185e+02	-3.211342e+01
4.992858e+02	-3.216148e+01
5.021696e+02	-3.220990e+01
5.050701e+02	-3.225929e+01
5.079874e+02	-3.231583e+01
5.109215e+02	-3.236647e+01
5.138726e+02	-3.241392e+01
5.168407e+02	-3.246243e+01
5.198259e+02	-3.251168e+01
5.228284e+02	-3.256877e+01
5.258482e+02	-3.261750e+01
5.288855e+02	-3.266423e+01
5.319403e+02	-3.270535e+01
5.350128e+02	-3.276107e+01
5.381030e+02	-3.281718e+01
5.412111e+02	-3.286462e+01
5.443371e+02	-3.290971e+01
5.474812e+02	-3.296642e+01
5.506434e+02	-3.301521e+01
5.538239e+02	-3.306761e+01
5.570228e+02	-3.311730e+01
5.602401e+02	-3.316563e+01
5.634760e+02	-3.321733e+01
5.667306e+02	-3.326435e+01
5.700040e+02	-3.332019e+01
5.732964e+02	-3.336892e+01
5.766077e+02	-3.341755e+01
5.799382e+02	-3.346658e+01
5.832879e+02	-3.352251e+01
5.866569e+02	-3.356299e+01
5.900454e+02	-3.361545e+01
5.934535e+02	-3.366844e+01
5.968813e+02	-3.371935e+01
6.003288e+02	-3.377206e+01
6.037963e+02	-3.381842e+01
6.072838e+02	-3.387730e+01
6.107914e+02	-3.392063e+01
6.143194e+02	-3.397055e+01
6.178676e+02	-3.401813e+01
6.214364e+02	-3.406778e+01
6.250258e+02	-3.411849e+01
6.286359e+02	-3.416733e+01
6.322669e+02	-3.422426e+01
6.359189e+02	-3.426968e+01
6.395919e+02	-3.432416e+01
6.432862e+02	-3.437300e+01
6.470017e+02	-3.442745e+01
6.507388e+02	-3.447639e+01
6.544974e+02	-3.451894e+01
6.582778e+02	-3.458352e+01
6.620800e+02	-3.462417e+01
6.659041e+02	-3.467697e+01
6.697504e+02	-3.472497e+01
6.736188e+02	-3.477785e+01
6.775096e+02	-3.483088e+01
6.814229e+02	-3.487456e+01
6.853587e+02	-3.493237e+01
6.893173e+02	-3.497173e+01
6.932988e+02	-3.503630e+01
6.973033e+02	-3.507827e+01
7.013309e+02	-3.512407e+01
