Frequency(Hz)	Magnitude(dB)
1.000000e+01	-2.099272e+00
1.005776e+01	-2.118682e+00
1.011585e+01	-2.138150e+00
1.017428e+01	-2.157661e+00
1.023305e+01	-2.177461e+00
1.029215e+01	-2.196867e+00
1.035160e+01	-2.216708e+00
1.041139e+01	-2.236980e+00
1.047153e+01	-2.257273e+00
1.053201e+01	-2.277518e+00
1.059284e+01	-2.297876e+00
1.065403e+01	-2.318721e+00
1.071556e+01	-2.339386e+00
1.077746e+01	-2.360177e+00
1.083971e+01	-2.381438e+00
1.090232e+01	-2.402443e+00
1.096529e+01	-2.423896e+00
1.102862e+01	-2.445187e+00
1.109232e+01	-2.466945e+00
1.115639e+01	-2.488637e+00
1.122083e+01	-2.510538e+00
1.128564e+01	-2.532495e+00
1.135083e+01	-2.554902e+00
1.141639e+01	-2.577058e+00
1.148233e+01	-2.599726e+00
1.154865e+01	-2.622244e+00
1.161536e+01	-2.644704e+00
1.168245e+01	-2.667702e+00
1.174992e+01	-2.690836e+00
1.181779e+01	-2.714070e+00
1.188605e+01	-2.737222e+00
1.195470e+01	-2.760858e+00
1.202375e+01	-2.784589e+00
1.209320e+01	-2.808189e+00
1.216305e+01	-2.832128e+00
1.223330e+01	-2.856098e+00
1.230396e+01	-2.880241e+00
1.237503e+01	-2.904541e+00
1.244651e+01	-2.929221e+00
1.251840e+01	-2.953695e+00
1.259070e+01	-2.978438e+00
1.266343e+01	-3.003279e+00
1.273657e+01	-3.028248e+00
1.281014e+01	-3.053538e+00
1.288413e+01	-3.079016e+00
1.295855e+01	-3.104339e+00
1.303339e+01	-3.130063e+00
1.310867e+01	-3.155762e+00
1.318439e+01	-3.181587e+00
1.326054e+01	-3.207734e+00
1.333713e+01	-3.233771e+00
1.341417e+01	-3.260213e+00
1.349165e+01	-3.286806e+00
1.356958e+01	-3.313367e+00
1.364795e+01	-3.340093e+00
1.372678e+01	-3.367170e+00
1.380607e+01	-3.394285e+00
1.388581e+01	-3.421207e+00
1.396602e+01	-3.448800e+00
1.404668e+01	-3.476128e+00
1.412782e+01	-3.503782e+00
1.420942e+01	-3.531607e+00
1.429149e+01	-3.559416e+00
1.437404e+01	-3.587378e+00
1.445706e+01	-3.615845e+00
1.454057e+01	-3.644274e+00
1.462455e+01	-3.672557e+00
1.470902e+01	-3.701037e+00
1.479398e+01	-3.729837e+00
1.487943e+01	-3.758688e+00
1.496537e+01	-3.788000e+00
1.505181e+01	-3.817020e+00
1.513875e+01	-3.846316e+00
1.522619e+01	-3.875512e+00
1.531414e+01	-3.905425e+00
1.540259e+01	-3.935443e+00
1.549156e+01	-3.964925e+00
1.558103e+01	-3.994959e+00
1.567103e+01	-4.025067e+00
1.576155e+01	-4.055581e+00
1.585258e+01	-4.086064e+00
1.594415e+01	-4.116398e+00
1.603624e+01	-4.147401e+00
1.612886e+01	-4.178171e+00
1.622202e+01	-4.209045e+00
1.631572e+01	-4.240191e+00
1.640996e+01	-4.271338e+00
1.650474e+01	-4.302889e+00
1.660008e+01	-4.334090e+00
1.669596e+01	-4.365945e+00
1.679239e+01	-4.397694e+00
1.688938e+01	-4.429676e+00
1.698694e+01	-4.461964e+00
1.708505e+01	-4.493695e+00
1.718373e+01	-4.526292e+00
1.728299e+01	-4.558674e+00
1.738281e+01	-4.591183e+00
1.748322e+01	-4.623836e+00
1.758420e+01	-4.656675e+00
1.768576e+01	-4.689779e+00
1.778792e+01	-4.722930e+00
1.789066e+01	-4.755800e+00
1.799399e+01	-4.789619e+00
1.809793e+01	-4.822879e+00
1.820246e+01	-4.856441e+00
1.830760e+01	-4.890148e+00
1.841334e+01	-4.924246e+00
1.851969e+01	-4.958042e+00
1.862666e+01	-4.992186e+00
1.873425e+01	-5.026522e+00
1.884246e+01	-5.060966e+00
1.895129e+01	-5.095348e+00
1.906075e+01	-5.129775e+00
1.917085e+01	-5.164912e+00
1.928158e+01	-5.199532e+00
1.939295e+01	-5.234436e+00
1.950496e+01	-5.269555e+00
1.961762e+01	-5.304461e+00
1.973093e+01	-5.340153e+00
1.984490e+01	-5.375763e+00
1.995952e+01	-5.411297e+00
2.007480e+01	-5.446910e+00
2.019076e+01	-5.482834e+00
2.030738e+01	-5.518843e+00
2.042467e+01	-5.554853e+00
2.054264e+01	-5.590725e+00
2.066130e+01	-5.627028e+00
2.078064e+01	-5.663391e+00
2.090066e+01	-5.700089e+00
2.102139e+01	-5.736692e+00
2.114280e+01	-5.773696e+00
2.126492e+01	-5.810200e+00
2.138775e+01	-5.847273e+00
2.151128e+01	-5.884103e+00
2.163553e+01	-5.921426e+00
2.176050e+01	-5.958726e+00
2.188619e+01	-5.995699e+00
2.201260e+01	-6.033357e+00
2.213974e+01	-6.071210e+00
2.226762e+01	-6.108808e+00
2.239624e+01	-6.146799e+00
2.252560e+01	-6.184566e+00
2.265571e+01	-6.222631e+00
2.278656e+01	-6.260894e+00
2.291818e+01	-6.299138e+00
2.305055e+01	-6.337563e+00
2.318369e+01	-6.375861e+00
2.331760e+01	-6.414528e+00
2.345228e+01	-6.453414e+00
2.358774e+01	-6.491845e+00
2.372398e+01	-6.530168e+00
2.386101e+01	-6.569738e+00
2.399883e+01	-6.608797e+00
2.413745e+01	-6.647733e+00
2.427686e+01	-6.687004e+00
2.441709e+01	-6.726252e+00
2.455812e+01	-6.765749e+00
2.469997e+01	-6.805148e+00
2.484263e+01	-6.844905e+00
2.498612e+01	-6.884841e+00
2.513044e+01	-6.924721e+00
2.527559e+01	-6.964842e+00
2.542158e+01	-7.004654e+00
2.556842e+01	-7.044800e+00
2.571610e+01	-7.084920e+00
2.586463e+01	-7.125091e+00
2.601403e+01	-7.165421e+00
2.616428e+01	-7.205921e+00
2.631541e+01	-7.246677e+00
2.646740e+01	-7.287084e+00
2.662028e+01	-7.328045e+00
2.677404e+01	-7.368703e+00
2.692868e+01	-7.409569e+00
2.708422e+01	-7.450648e+00
2.724066e+01	-7.491775e+00
2.739800e+01	-7.532962e+00
2.755625e+01	-7.573681e+00
2.771541e+01	-7.615273e+00
2.787550e+01	-7.656947e+00
2.803650e+01	-7.698114e+00
2.819844e+01	-7.740213e+00
2.836131e+01	-7.781507e+00
2.852513e+01	-7.823116e+00
2.868989e+01	-7.865282e+00
2.885560e+01	-7.907028e+00
2.902227e+01	-7.948746e+00
2.918990e+01	-7.990856e+00
2.935850e+01	-8.032897e+00
2.952807e+01	-8.075222e+00
2.969863e+01	-8.117514e+00
2.987016e+01	-8.159699e+00
3.004269e+01	-8.202047e+00
3.021622e+01	-8.245062e+00
3.039075e+01	-8.287609e+00
3.056628e+01	-8.330045e+00
3.074283e+01	-8.372943e+00
3.092040e+01	-8.415297e+00
3.109900e+01	-8.458513e+00
3.127862e+01	-8.501368e+00
3.145929e+01	-8.544633e+00
3.164099e+01	-8.587211e+00
3.182375e+01	-8.630156e+00
3.200756e+01	-8.673912e+00
3.219244e+01	-8.716774e+00
3.237838e+01	-8.760029e+00
3.256540e+01	-8.803252e+00
3.275349e+01	-8.847177e+00
3.294268e+01	-8.891002e+00
3.313295e+01	-8.934001e+00
3.332433e+01	-8.977727e+00
3.351681e+01	-9.021597e+00
3.371040e+01	-9.065444e+00
3.390511e+01	-9.109027e+00
3.410094e+01	-9.153034e+00
3.429791e+01	-9.196706e+00
3.449601e+01	-9.241342e+00
3.469526e+01	-9.284963e+00
3.489566e+01	-9.328979e+00
3.509721e+01	-9.374186e+00
3.529993e+01	-9.417919e+00
3.550382e+01	-9.461857e+00
3.570889e+01	-9.507128e+00
3.591515e+01	-9.551428e+00
3.612259e+01	-9.595821e+00
3.633123e+01	-9.639986e+00
3.654108e+01	-9.684467e+00
3.675214e+01	-9.729341e+00
3.696442e+01	-9.773881e+00
3.717792e+01	-9.818962e+00
3.739266e+01	-9.863587e+00
3.760864e+01	-9.908422e+00
3.782587e+01	-9.953443e+00
3.804435e+01	-9.998676e+00
3.826409e+01	-1.004386e+01
3.848510e+01	-1.008892e+01
3.870739e+01	-1.013381e+01
3.893096e+01	-1.017901e+01
3.915583e+01	-1.022431e+01
3.938199e+01	-1.027023e+01
3.960946e+01	-1.031558e+01
3.983824e+01	-1.036063e+01
4.006834e+01	-1.040580e+01
4.029978e+01	-1.045136e+01
4.053255e+01	-1.049684e+01
4.076666e+01	-1.054316e+01
4.100213e+01	-1.058825e+01
4.123896e+01	-1.063360e+01
4.147715e+01	-1.067944e+01
4.171672e+01	-1.072486e+01
4.195767e+01	-1.077140e+01
4.220002e+01	-1.081695e+01
4.244377e+01	-1.086337e+01
4.268892e+01	-1.090911e+01
4.293549e+01	-1.095531e+01
4.318348e+01	-1.100037e+01
4.343291e+01	-1.104663e+01
4.368377e+01	-1.109267e+01
4.393609e+01	-1.113896e+01
4.418986e+01	-1.118512e+01
4.444510e+01	-1.123136e+01
4.470182e+01	-1.127798e+01
4.496001e+01	-1.132437e+01
4.521970e+01	-1.137080e+01
4.548089e+01	-1.141725e+01
4.574358e+01	-1.146391e+01
4.600779e+01	-1.151009e+01
4.627353e+01	-1.155638e+01
4.654081e+01	-1.160267e+01
4.680963e+01	-1.164983e+01
4.708000e+01	-1.169663e+01
4.735193e+01	-1.174315e+01
4.762543e+01	-1.178937e+01
4.790051e+01	-1.183616e+01
4.817719e+01	-1.188273e+01
4.845545e+01	-1.193003e+01
4.873533e+01	-1.197689e+01
4.901682e+01	-1.202358e+01
4.929994e+01	-1.207011e+01
4.958470e+01	-1.211658e+01
4.987110e+01	-1.216412e+01
5.015915e+01	-1.221105e+01
5.044887e+01	-1.225871e+01
5.074026e+01	-1.230572e+01
5.103333e+01	-1.235253e+01
5.132810e+01	-1.239937e+01
5.162457e+01	-1.244699e+01
5.192275e+01	-1.249443e+01
5.222265e+01	-1.254204e+01
5.252429e+01	-1.258873e+01
5.282767e+01	-1.263525e+01
5.313280e+01	-1.268289e+01
5.343969e+01	-1.273044e+01
5.374836e+01	-1.277836e+01
5.405880e+01	-1.282525e+01
5.437105e+01	-1.287269e+01
5.468509e+01	-1.291993e+01
5.500095e+01	-1.296750e+01
5.531863e+01	-1.301458e+01
5.563815e+01	-1.306310e+01
5.595951e+01	-1.311048e+01
5.628273e+01	-1.315832e+01
5.660782e+01	-1.320534e+01
5.693479e+01	-1.325280e+01
5.726364e+01	-1.330107e+01
5.759439e+01	-1.334864e+01
5.792705e+01	-1.339601e+01
5.826164e+01	-1.344492e+01
5.859815e+01	-1.349170e+01
5.893662e+01	-1.353980e+01
5.927703e+01	-1.358736e+01
5.961941e+01	-1.363516e+01
5.996377e+01	-1.368326e+01
6.031012e+01	-1.373089e+01
6.065847e+01	-1.377879e+01
6.100883e+01	-1.382722e+01
6.136121e+01	-1.387499e+01
6.171563e+01	-1.392330e+01
6.207210e+01	-1.397086e+01
6.243063e+01	-1.401831e+01
6.279122e+01	-1.406671e+01
6.315390e+01	-1.411435e+01
6.351868e+01	-1.416307e+01
6.388556e+01	-1.421114e+01
6.425456e+01	-1.425914e+01
6.462569e+01	-1.430795e+01
6.499897e+01	-1.435611e+01
6.537440e+01	-1.440396e+01
6.575200e+01	-1.445176e+01
6.613178e+01	-1.449995e+01
6.651375e+01	-1.454865e+01
6.689793e+01	-1.459634e+01
6.728433e+01	-1.464477e+01
6.767297e+01	-1.469405e+01
6.806384e+01	-1.474159e+01
6.845698e+01	-1.479017e+01
6.885238e+01	-1.483821e+01
6.925007e+01	-1.488733e+01
6.965005e+01	-1.493542e+01
7.005235e+01	-1.498384e+01
7.045697e+01	-1.503277e+01
7.086393e+01	-1.508123e+01
7.127323e+01	-1.512923e+01
7.168490e+01	-1.517748e+01
7.209895e+01	-1.522657e+01
7.251539e+01	-1.527483e+01
7.293424e+01	-1.532368e+01
7.335551e+01	-1.537173e+01
7.377920e+01	-1.541980e+01
7.420535e+01	-1.546874e+01
7.463396e+01	-1.551794e+01
7.506504e+01	-1.556658e+01
7.549861e+01	-1.561547e+01
7.593469e+01	-1.566399e+01
7.637328e+01	-1.571277e+01
7.681441e+01	-1.576144e+01
7.725809e+01	-1.580972e+01
7.770433e+01	-1.585837e+01
7.815315e+01	-1.590691e+01
7.860456e+01	-1.595614e+01
7.905857e+01	-1.600504e+01
7.951521e+01	-1.605395e+01
7.997449e+01	-1.610252e+01
8.043642e+01	-1.615124e+01
8.090102e+01	-1.620034e+01
8.136830e+01	-1.624956e+01
8.183828e+01	-1.629888e+01
8.231097e+01	-1.634726e+01
8.278640e+01	-1.639518e+01
8.326457e+01	-1.644436e+01
8.374550e+01	-1.649257e+01
8.422921e+01	-1.654186e+01
8.471572e+01	-1.659139e+01
8.520503e+01	-1.663969e+01
8.569717e+01	-1.668931e+01
8.619215e+01	-1.673864e+01
8.669000e+01	-1.678691e+01
8.719071e+01	-1.683593e+01
8.769432e+01	-1.688465e+01
8.820084e+01	-1.693400e+01
8.871029e+01	-1.698271e+01
8.922267e+01	-1.703171e+01
8.973802e+01	-1.708058e+01
9.025634e+01	-1.713094e+01
9.077766e+01	-1.717879e+01
9.130199e+01	-1.722860e+01
9.182935e+01	-1.727725e+01
9.235975e+01	-1.732593e+01
9.289321e+01	-1.737489e+01
9.342976e+01	-1.742486e+01
9.396941e+01	-1.747332e+01
9.451217e+01	-1.752351e+01
9.505807e+01	-1.757225e+01
9.560712e+01	-1.762082e+01
9.615934e+01	-1.767168e+01
9.671476e+01	-1.772059e+01
9.727338e+01	-1.776871e+01
9.783522e+01	-1.781859e+01
9.840032e+01	-1.786708e+01
9.896867e+01	-1.791549e+01
9.954031e+01	-1.796495e+01
1.001153e+02	-1.801497e+01
1.006935e+02	-1.806385e+01
1.012751e+02	-1.811460e+01
1.018601e+02	-1.816209e+01
1.024484e+02	-1.821171e+01
1.030402e+02	-1.826146e+01
1.036353e+02	-1.831078e+01
1.042339e+02	-1.835843e+01
1.048360e+02	-1.840765e+01
1.054415e+02	-1.845782e+01
1.060505e+02	-1.850685e+01
1.066631e+02	-1.855725e+01
1.072791e+02	-1.860564e+01
1.078988e+02	-1.865615e+01
1.085220e+02	-1.870531e+01
1.091488e+02	-1.875424e+01
1.097793e+02	-1.880343e+01
1.104133e+02	-1.885341e+01
1.110511e+02	-1.890366e+01
1.116925e+02	-1.895168e+01
1.123376e+02	-1.900195e+01
1.129865e+02	-1.904944e+01
1.136391e+02	-1.909979e+01
1.142955e+02	-1.915015e+01
1.149556e+02	-1.919914e+01
1.156196e+02	-1.924786e+01
1.162874e+02	-1.929666e+01
1.169591e+02	-1.934775e+01
1.176347e+02	-1.939762e+01
1.183141e+02	-1.944695e+01
1.189975e+02	-1.949596e+01
1.196848e+02	-1.954491e+01
1.203761e+02	-1.959456e+01
1.210714e+02	-1.964455e+01
1.217707e+02	-1.969285e+01
1.224740e+02	-1.974218e+01
1.231814e+02	-1.979191e+01
1.238929e+02	-1.984140e+01
1.246085e+02	-1.989255e+01
1.253283e+02	-1.994010e+01
1.260522e+02	-1.999082e+01
1.267802e+02	-2.004064e+01
1.275125e+02	-2.008996e+01
1.282490e+02	-2.014071e+01
1.289898e+02	-2.018954e+01
1.297348e+02	-2.023886e+01
1.304842e+02	-2.028832e+01
1.312378e+02	-2.033685e+01
1.319959e+02	-2.038624e+01
1.327583e+02	-2.043528e+01
1.335251e+02	-2.048681e+01
1.342963e+02	-2.053566e+01
1.350720e+02	-2.058577e+01
1.358522e+02	-2.063563e+01
1.366368e+02	-2.068363e+01
1.374260e+02	-2.073480e+01
1.382198e+02	-2.078451e+01
1.390182e+02	-2.083356e+01
1.398211e+02	-2.088422e+01
1.406287e+02	-2.093511e+01
1.414410e+02	-2.098235e+01
1.422579e+02	-2.103300e+01
1.430796e+02	-2.108216e+01
1.439060e+02	-2.113143e+01
1.447372e+02	-2.118226e+01
1.455732e+02	-2.123117e+01
1.464141e+02	-2.127994e+01
1.472597e+02	-2.133007e+01
1.481103e+02	-2.137951e+01
1.489658e+02	-2.142911e+01
1.498262e+02	-2.147988e+01
1.506916e+02	-2.152778e+01
1.515620e+02	-2.157933e+01
1.524374e+02	-2.162995e+01
1.533179e+02	-2.167703e+01
1.542034e+02	-2.172745e+01
1.550941e+02	-2.177707e+01
1.559899e+02	-2.182771e+01
1.568909e+02	-2.187763e+01
1.577971e+02	-2.192908e+01
1.587085e+02	-2.197719e+01
1.596252e+02	-2.202571e+01
1.605472e+02	-2.207538e+01
1.614745e+02	-2.212590e+01
1.624072e+02	-2.217426e+01
1.633453e+02	-2.222703e+01
1.642887e+02	-2.227377e+01
1.652377e+02	-2.232528e+01
1.661921e+02	-2.237287e+01
1.671520e+02	-2.242207e+01
1.681175e+02	-2.247242e+01
1.690885e+02	-2.252499e+01
1.700651e+02	-2.257369e+01
1.710474e+02	-2.262107e+01
1.720354e+02	-2.267163e+01
1.730291e+02	-2.272336e+01
1.740285e+02	-2.277105e+01
1.750337e+02	-2.282213e+01
1.760446e+02	-2.287075e+01
1.770615e+02	-2.292063e+01
1.780842e+02	-2.297140e+01
1.791128e+02	-2.302059e+01
1.801473e+02	-2.307268e+01
1.811878e+02	-2.311979e+01
1.822344e+02	-2.316955e+01
1.832870e+02	-2.321807e+01
1.843456e+02	-2.327171e+01
1.854104e+02	-2.331953e+01
1.864813e+02	-2.336963e+01
1.875584e+02	-2.341672e+01
1.886418e+02	-2.346812e+01
1.897313e+02	-2.351952e+01
1.908272e+02	-2.356908e+01
1.919294e+02	-2.362053e+01
1.930380e+02	-2.366966e+01
1.941530e+02	-2.371980e+01
1.952744e+02	-2.376952e+01
1.964023e+02	-2.381837e+01
1.975367e+02	-2.386726e+01
1.986777e+02	-2.391792e+01
1.998252e+02	-2.396992e+01
2.009794e+02	-2.401802e+01
2.021403e+02	-2.406874e+01
2.033078e+02	-2.411754e+01
2.044821e+02	-2.416818e+01
2.056632e+02	-2.421776e+01
2.068511e+02	-2.426807e+01
2.080459e+02	-2.431564e+01
2.092475e+02	-2.436809e+01
2.104561e+02	-2.441749e+01
2.116717e+02	-2.446821e+01
2.128943e+02	-2.451717e+01
2.141240e+02	-2.456836e+01
2.153608e+02	-2.461749e+01
2.166047e+02	-2.466566e+01
2.178558e+02	-2.471593e+01
2.191141e+02	-2.476597e+01
2.203797e+02	-2.481601e+01
2.216526e+02	-2.486495e+01
2.229329e+02	-2.491702e+01
2.242205e+02	-2.496660e+01
2.255156e+02	-2.501465e+01
2.268182e+02	-2.506499e+01
2.281283e+02	-2.511821e+01
2.294459e+02	-2.516385e+01
2.307712e+02	-2.521566e+01
2.321041e+02	-2.526396e+01
2.334447e+02	-2.531625e+01
2.347931e+02	-2.536441e+01
2.361493e+02	-2.541823e+01
2.375133e+02	-2.546281e+01
2.388851e+02	-2.551256e+01
2.402649e+02	-2.556618e+01
2.416527e+02	-2.561482e+01
2.430484e+02	-2.566470e+01
2.444523e+02	-2.571392e+01
2.458642e+02	-2.576682e+01
2.472843e+02	-2.581531e+01
2.487126e+02	-2.586295e+01
2.501492e+02	-2.591666e+01
2.515940e+02	-2.596418e+01
2.530472e+02	-2.601521e+01
2.545088e+02	-2.606249e+01
2.559789e+02	-2.611432e+01
2.574574e+02	-2.616587e+01
2.589444e+02	-2.621382e+01
2.604401e+02	-2.625953e+01
2.619444e+02	-2.631655e+01
2.634574e+02	-2.636458e+01
2.649791e+02	-2.641450e+01
2.665096e+02	-2.646602e+01
2.680489e+02	-2.651136e+01
2.695972e+02	-2.656176e+01
2.711544e+02	-2.661466e+01
2.727205e+02	-2.666447e+01
2.742958e+02	-2.671663e+01
2.758801e+02	-2.676253e+01
2.774736e+02	-2.681501e+01
2.790762e+02	-2.686393e+01
2.806882e+02	-2.691203e+01
2.823094e+02	-2.696463e+01
2.839400e+02	-2.701671e+01
2.855800e+02	-2.706243e+01
2.872295e+02	-2.711429e+01
2.888886e+02	-2.716354e+01
2.905572e+02	-2.721167e+01
2.922354e+02	-2.726525e+01
2.939234e+02	-2.731142e+01
2.956211e+02	-2.736366e+01
2.973286e+02	-2.740769e+01
2.990459e+02	-2.746127e+01
3.007732e+02	-2.751398e+01
3.025104e+02	-2.756323e+01
3.042577e+02	-2.761358e+01
3.060151e+02	-2.766145e+01
3.077826e+02	-2.771504e+01
3.095604e+02	-2.776929e+01
3.113484e+02	-2.781376e+01
3.131467e+02	-2.786421e+01
3.149554e+02	-2.790854e+01
3.167746e+02	-2.796140e+01
3.186043e+02	-2.801564e+01
3.204445e+02	-2.806385e+01
3.222954e+02	-2.811226e+01
3.241570e+02	-2.815997e+01
3.260293e+02	-2.821521e+01
3.279124e+02	-2.826503e+01
3.298064e+02	-2.831941e+01
3.317114e+02	-2.836345e+01
3.336273e+02	-2.841415e+01
3.355544e+02	-2.846598e+01
3.374925e+02	-2.851460e+01
3.394418e+02	-2.856399e+01
3.414024e+02	-2.861843e+01
3.433744e+02	-2.866645e+01
3.453577e+02	-2.871783e+01
3.473525e+02	-2.876211e+01
3.493588e+02	-2.881673e+01
3.513766e+02	-2.886256e+01
3.534062e+02	-2.890985e+01
3.554474e+02	-2.896279e+01
3.575005e+02	-2.901277e+01
3.595654e+02	-2.906064e+01
3.616422e+02	-2.911478e+01
3.637311e+02	-2.916308e+01
3.658320e+02	-2.921598e+01
3.679450e+02	-2.926378e+01
3.700702e+02	-2.931388e+01
3.722077e+02	-2.936580e+01
3.743576e+02	-2.941877e+01
3.765199e+02	-2.946874e+01
3.786946e+02	-2.951789e+01
3.808820e+02	-2.956590e+01
3.830819e+02	-2.961370e+01
3.852946e+02	-2.966729e+01
3.875200e+02	-2.971411e+01
3.897583e+02	-2.976536e+01
3.920096e+02	-2.982183e+01
3.942738e+02	-2.986082e+01
3.965511e+02	-2.991511e+01
3.988416e+02	-2.997276e+01
4.011452e+02	-3.001420e+01
4.034622e+02	-3.006668e+01
4.057926e+02	-3.011509e+01
4.081365e+02	-3.016672e+01
4.104938e+02	-3.021151e+01
4.128648e+02	-3.026551e+01
4.152495e+02	-3.030893e+01
4.176480e+02	-3.036105e+01
4.200603e+02	-3.042138e+01
4.224866e+02	-3.046483e+01
4.249268e+02	-3.051738e+01
4.273812e+02	-3.056596e+01
4.298497e+02	-3.061700e+01
4.323325e+02	-3.067028e+01
4.348297e+02	-3.071794e+01
4.373412e+02	-3.076677e+01
4.398673e+02	-3.081398e+01
4.424079e+02	-3.087181e+01
4.449633e+02	-3.091427e+01
4.475334e+02	-3.096916e+01
4.501183e+02	-3.101837e+01
4.527182e+02	-3.107078e+01
4.553330e+02	-3.112032e+01
4.579630e+02	-3.116401e+01
4.606082e+02	-3.121866e+01
4.632687e+02	-3.126733e+01
4.659445e+02	-3.132248e+01
4.686358e+02	-3.137079e+01
4.713426e+02	-3.141639e+01
4.740650e+02	-3.146976e+01
4.768032e+02	-3.151542e+01
4.795572e+02	-3.157023e+01
4.823271e+02	-3.162125e+01
4.851130e+02	-3.167064e+01
4.879150e+02	-3.171865e+01
4.907332e+02	-3.177215e+01
4.935676e+02	-3.181637e+01
4.964185e+02	-3.187559e+01
4.992858e+02	-3.192537e+01
5.021696e+02	-3.196917e+01
5.050701e+02	-3.201793e+01
5.079874e+02	-3.207260e+01
5.109215e+02	-3.212124e+01
5.138726e+02	-3.216616e+01
5.168407e+02	-3.222354e+01
5.198259e+02	-3.227078e+01
5.228284e+02	-3.232597e+01
5.258482e+02	-3.237318e+01
5.288855e+02	-3.242394e+01
5.319403e+02	-3.247370e+01
5.350128e+02	-3.253042e+01
5.381030e+02	-3.257054e+01
5.412111e+02	-3.262211e+01
5.443371e+02	-3.267116e+01
5.474812e+02	-3.271994e+01
5.506434e+02	-3.277846e+01
5.538239e+02	-3.282347e+01
5.570228e+02	-3.286921e+01
5.602401e+02	-3.291877e+01
5.634760e+02	-3.297492e+01
5.667306e+02	-3.302517e+01
5.700040e+02	-3.307487e+01
5.732964e+02	-3.313091e+01
5.766077e+02	-3.318289e+01
5.799382e+02	-3.323156e+01
5.832879e+02	-3.327238e+01
5.866569e+02	-3.332586e+01
5.900454e+02	-3.337581e+01
5.934535e+02	-3.343567e+01
5.968813e+02	-3.346868e+01
6.003288e+02	-3.352933e+01
6.037963e+02	-3.357910e+01
6.072838e+02	-3.363197e+01
6.107914e+02	-3.367569e+01
6.143194e+02	-3.372999e+01
6.178676e+02	-3.378128e+01
6.214364e+02	-3.382655e+01
6.250258e+02	-3.388606e+01
6.286359e+02	-3.393675e+01
6.322669e+02	-3.397872e+01
6.359189e+02	-3.403272e+01
6.395919e+02	-3.407590e+01
6.432862e+02	-3.413301e+01
6.470017e+02	-3.417742e+01
6.507388e+02	-3.423482e+01
6.544974e+02	-3.428669e+01
6.582778e+02	-3.432818e+01
6.620800e+02	-3.438432e+01
6.659041e+02	-3.443585e+01
6.697504e+02	-3.448762e+01
6.736188e+02	-3.453251e+01
6.775096e+02	-3.458221e+01
6.814229e+02	-3.464372e+01
6.853587e+02	-3.468904e+01
6.893173e+02	-3.473394e+01
6.932988e+02	-3.478713e+01
6.973033e+02	-3.483960e+01
7.013309e+02	-3.488420e+01
