Frequency(Hz)	Magnitude(dB)
1.000000e+01	-1.973977e+00
1.005776e+01	-1.992495e+00
1.011585e+01	-2.010744e+00
1.017428e+01	-2.029548e+00
1.023305e+01	-2.047990e+00
1.029215e+01	-2.067312e+00
1.035160e+01	-2.086132e+00
1.041139e+01	-2.105307e+00
1.047153e+01	-2.124630e+00
1.053201e+01	-2.144137e+00
1.059284e+01	-2.163680e+00
1.065403e+01	-2.183185e+00
1.071556e+01	-2.202930e+00
1.077746e+01	-2.223030e+00
1.083971e+01	-2.243201e+00
1.090232e+01	-2.263268e+00
1.096529e+01	-2.283850e+00
1.102862e+01	-2.304458e+00
1.109232e+01	-2.325002e+00
1.115639e+01	-2.345756e+00
1.122083e+01	-2.366716e+00
1.128564e+01	-2.387705e+00
1.135083e+01	-2.408987e+00
1.141639e+01	-2.430400e+00
1.148233e+01	-2.452192e+00
1.154865e+01	-2.473822e+00
1.161536e+01	-2.495248e+00
1.168245e+01	-2.517503e+00
1.174992e+01	-2.539530e+00
1.181779e+01	-2.561605e+00
1.188605e+01	-2.584045e+00
1.195470e+01	-2.606475e+00
1.202375e+01	-2.629344e+00
1.209320e+01	-2.651890e+00
1.216305e+01	-2.674813e+00
1.223330e+01	-2.697996e+00
1.230396e+01	-2.721291e+00
1.237503e+01	-2.744754e+00
1.244651e+01	-2.768043e+00
1.251840e+01	-2.791829e+00
1.259070e+01	-2.815463e+00
1.266343e+01	-2.839322e+00
1.273657e+01	-2.863667e+00
1.281014e+01	-2.887719e+00
1.288413e+01	-2.912086e+00
1.295855e+01	-2.936397e+00
1.303339e+01	-2.961310e+00
1.310867e+01	-2.985714e+00
1.318439e+01	-3.011015e+00
1.326054e+01	-3.036255e+00
1.333713e+01	-3.061419e+00
1.341417e+01	-3.086724e+00
1.349165e+01	-3.112235e+00
1.356958e+01	-3.137821e+00
1.364795e+01	-3.163642e+00
1.372678e+01	-3.189563e+00
1.380607e+01	-3.215711e+00
1.388581e+01	-3.241934e+00
1.396602e+01	-3.268419e+00
1.404668e+01	-3.294906e+00
1.412782e+01	-3.321804e+00
1.420942e+01	-3.348447e+00
1.429149e+01	-3.375284e+00
1.437404e+01	-3.402470e+00
1.445706e+01	-3.429991e+00
1.454057e+01	-3.457028e+00
1.462455e+01	-3.484442e+00
1.470902e+01	-3.512290e+00
1.479398e+01	-3.539950e+00
1.487943e+01	-3.568150e+00
1.496537e+01	-3.595923e+00
1.505181e+01	-3.624488e+00
1.513875e+01	-3.652901e+00
1.522619e+01	-3.681490e+00
1.531414e+01	-3.710096e+00
1.540259e+01	-3.738474e+00
1.549156e+01	-3.767687e+00
1.558103e+01	-3.796799e+00
1.567103e+01	-3.826096e+00
1.576155e+01	-3.855524e+00
1.585258e+01	-3.884763e+00
1.594415e+01	-3.914221e+00
1.603624e+01	-3.944105e+00
1.612886e+01	-3.974173e+00
1.622202e+01	-4.004336e+00
1.631572e+01	-4.034326e+00
1.640996e+01	-4.064744e+00
1.650474e+01	-4.095159e+00
1.660008e+01	-4.125974e+00
1.669596e+01	-4.156877e+00
1.679239e+01	-4.187505e+00
1.688938e+01	-4.218217e+00
1.698694e+01	-4.249586e+00
1.708505e+01	-4.281099e+00
1.718373e+01	-4.312286e+00
1.728299e+01	-4.344103e+00
1.738281e+01	-4.375496e+00
1.748322e+01	-4.407538e+00
1.758420e+01	-4.439445e+00
1.768576e+01	-4.471521e+00
1.778792e+01	-4.503514e+00
1.789066e+01	-4.536054e+00
1.799399e+01	-4.568582e+00
1.809793e+01	-4.601030e+00
1.820246e+01	-4.633908e+00
1.830760e+01	-4.666649e+00
1.841334e+01	-4.699971e+00
1.851969e+01	-4.732954e+00
1.862666e+01	-4.765979e+00
1.873425e+01	-4.799819e+00
1.884246e+01	-4.833348e+00
1.895129e+01	-4.867046e+00
1.906075e+01	-4.900230e+00
1.917085e+01	-4.934588e+00
1.928158e+01	-4.968756e+00
1.939295e+01	-5.002816e+00
1.950496e+01	-5.036930e+00
1.961762e+01	-5.071298e+00
1.973093e+01	-5.105716e+00
1.984490e+01	-5.140447e+00
1.995952e+01	-5.175243e+00
2.007480e+01	-5.210247e+00
2.019076e+01	-5.245405e+00
2.030738e+01	-5.280598e+00
2.042467e+01	-5.315633e+00
2.054264e+01	-5.351217e+00
2.066130e+01	-5.386451e+00
2.078064e+01	-5.422262e+00
2.090066e+01	-5.457523e+00
2.102139e+01	-5.493595e+00
2.114280e+01	-5.529696e+00
2.126492e+01	-5.565521e+00
2.138775e+01	-5.602147e+00
2.151128e+01	-5.638264e+00
2.163553e+01	-5.674536e+00
2.176050e+01	-5.711294e+00
2.188619e+01	-5.748161e+00
2.201260e+01	-5.784661e+00
2.213974e+01	-5.821662e+00
2.226762e+01	-5.858799e+00
2.239624e+01	-5.895444e+00
2.252560e+01	-5.932913e+00
2.265571e+01	-5.969895e+00
2.278656e+01	-6.007393e+00
2.291818e+01	-6.045305e+00
2.305055e+01	-6.082846e+00
2.318369e+01	-6.120432e+00
2.331760e+01	-6.158415e+00
2.345228e+01	-6.196102e+00
2.358774e+01	-6.233923e+00
2.372398e+01	-6.272686e+00
2.386101e+01	-6.311073e+00
2.399883e+01	-6.349169e+00
2.413745e+01	-6.387446e+00
2.427686e+01	-6.425783e+00
2.441709e+01	-6.464958e+00
2.455812e+01	-6.503724e+00
2.469997e+01	-6.542526e+00
2.484263e+01	-6.581449e+00
2.498612e+01	-6.620384e+00
2.513044e+01	-6.659882e+00
2.527559e+01	-6.699318e+00
2.542158e+01	-6.738532e+00
2.556842e+01	-6.778095e+00
2.571610e+01	-6.817329e+00
2.586463e+01	-6.856862e+00
2.601403e+01	-6.897222e+00
2.616428e+01	-6.936785e+00
2.631541e+01	-6.976807e+00
2.646740e+01	-7.016721e+00
2.662028e+01	-7.057059e+00
2.677404e+01	-7.097068e+00
2.692868e+01	-7.137438e+00
2.708422e+01	-7.177787e+00
2.724066e+01	-7.218625e+00
2.739800e+01	-7.258817e+00
2.755625e+01	-7.299615e+00
2.771541e+01	-7.340289e+00
2.787550e+01	-7.381246e+00
2.803650e+01	-7.422209e+00
2.819844e+01	-7.462965e+00
2.836131e+01	-7.504047e+00
2.852513e+01	-7.545735e+00
2.868989e+01	-7.586577e+00
2.885560e+01	-7.627763e+00
2.902227e+01	-7.669482e+00
2.918990e+01	-7.710908e+00
2.935850e+01	-7.752330e+00
2.952807e+01	-7.794761e+00
2.969863e+01	-7.835906e+00
2.987016e+01	-7.877838e+00
3.004269e+01	-7.920136e+00
3.021622e+01	-7.961388e+00
3.039075e+01	-8.003755e+00
3.056628e+01	-8.046002e+00
3.074283e+01	-8.088161e+00
3.092040e+01	-8.130321e+00
3.109900e+01	-8.172779e+00
3.127862e+01	-8.215210e+00
3.145929e+01	-8.257890e+00
3.164099e+01	-8.300412e+00
3.182375e+01	-8.343087e+00
3.200756e+01	-8.385486e+00
3.219244e+01	-8.428338e+00
3.237838e+01	-8.471686e+00
3.256540e+01	-8.514572e+00
3.275349e+01	-8.557433e+00
3.294268e+01	-8.600213e+00
3.313295e+01	-8.643526e+00
3.332433e+01	-8.687086e+00
3.351681e+01	-8.729826e+00
3.371040e+01	-8.773231e+00
3.390511e+01	-8.817420e+00
3.410094e+01	-8.860326e+00
3.429791e+01	-8.903985e+00
3.449601e+01	-8.947399e+00
3.469526e+01	-8.991207e+00
3.489566e+01	-9.035628e+00
3.509721e+01	-9.078534e+00
3.529993e+01	-9.122989e+00
3.550382e+01	-9.166759e+00
3.570889e+01	-9.210583e+00
3.591515e+01	-9.254747e+00
3.612259e+01	-9.299240e+00
3.633123e+01	-9.343135e+00
3.654108e+01	-9.387481e+00
3.675214e+01	-9.431607e+00
3.696442e+01	-9.475657e+00
3.717792e+01	-9.519764e+00
3.739266e+01	-9.564661e+00
3.760864e+01	-9.609088e+00
3.782587e+01	-9.653924e+00
3.804435e+01	-9.698225e+00
3.826409e+01	-9.743446e+00
3.848510e+01	-9.787951e+00
3.870739e+01	-9.832655e+00
3.893096e+01	-9.876673e+00
3.915583e+01	-9.922802e+00
3.938199e+01	-9.967860e+00
3.960946e+01	-1.001228e+01
3.983824e+01	-1.005788e+01
4.006834e+01	-1.010241e+01
4.029978e+01	-1.014764e+01
4.053255e+01	-1.019337e+01
4.076666e+01	-1.023818e+01
4.100213e+01	-1.028398e+01
4.123896e+01	-1.032882e+01
4.147715e+01	-1.037410e+01
4.171672e+01	-1.041958e+01
4.195767e+01	-1.046542e+01
4.220002e+01	-1.051075e+01
4.244377e+01	-1.055674e+01
4.268892e+01	-1.060213e+01
4.293549e+01	-1.064716e+01
4.318348e+01	-1.069360e+01
4.343291e+01	-1.073933e+01
4.368377e+01	-1.078519e+01
4.393609e+01	-1.083101e+01
4.418986e+01	-1.087703e+01
4.444510e+01	-1.092319e+01
4.470182e+01	-1.096832e+01
4.496001e+01	-1.101463e+01
4.521970e+01	-1.106127e+01
4.548089e+01	-1.110764e+01
4.574358e+01	-1.115386e+01
4.600779e+01	-1.119975e+01
4.627353e+01	-1.124598e+01
4.654081e+01	-1.129191e+01
4.680963e+01	-1.133864e+01
4.708000e+01	-1.138492e+01
4.735193e+01	-1.143145e+01
4.762543e+01	-1.147750e+01
4.790051e+01	-1.152467e+01
4.817719e+01	-1.157063e+01
4.845545e+01	-1.161694e+01
4.873533e+01	-1.166418e+01
4.901682e+01	-1.171092e+01
4.929994e+01	-1.175694e+01
4.958470e+01	-1.180391e+01
4.987110e+01	-1.185062e+01
5.015915e+01	-1.189669e+01
5.044887e+01	-1.194408e+01
5.074026e+01	-1.199084e+01
5.103333e+01	-1.203768e+01
5.132810e+01	-1.208455e+01
5.162457e+01	-1.213232e+01
5.192275e+01	-1.217881e+01
5.222265e+01	-1.222660e+01
5.252429e+01	-1.227229e+01
5.282767e+01	-1.232028e+01
5.313280e+01	-1.236730e+01
5.343969e+01	-1.241357e+01
5.374836e+01	-1.246113e+01
5.405880e+01	-1.250876e+01
5.437105e+01	-1.255626e+01
5.468509e+01	-1.260274e+01
5.500095e+01	-1.264995e+01
5.531863e+01	-1.269775e+01
5.563815e+01	-1.274516e+01
5.595951e+01	-1.279251e+01
5.628273e+01	-1.283985e+01
5.660782e+01	-1.288701e+01
5.693479e+01	-1.293429e+01
5.726364e+01	-1.298186e+01
5.759439e+01	-1.302955e+01
5.792705e+01	-1.307645e+01
5.826164e+01	-1.312488e+01
5.859815e+01	-1.317209e+01
5.893662e+01	-1.322007e+01
5.927703e+01	-1.326812e+01
5.961941e+01	-1.331543e+01
5.996377e+01	-1.336290e+01
6.031012e+01	-1.341117e+01
6.065847e+01	-1.345890e+01
6.100883e+01	-1.350618e+01
6.136121e+01	-1.355447e+01
6.171563e+01	-1.360242e+01
6.207210e+01	-1.364945e+01
6.243063e+01	-1.369760e+01
6.279122e+01	-1.374576e+01
6.315390e+01	-1.379411e+01
6.351868e+01	-1.384154e+01
6.388556e+01	-1.388961e+01
6.425456e+01	-1.393747e+01
6.462569e+01	-1.398507e+01
6.499897e+01	-1.403365e+01
6.537440e+01	-1.408210e+01
6.575200e+01	-1.412920e+01
6.613178e+01	-1.417851e+01
6.651375e+01	-1.422554e+01
6.689793e+01	-1.427447e+01
6.728433e+01	-1.432313e+01
6.767297e+01	-1.436981e+01
6.806384e+01	-1.441916e+01
6.845698e+01	-1.446788e+01
6.885238e+01	-1.451495e+01
6.925007e+01	-1.456287e+01
6.965005e+01	-1.461152e+01
7.005235e+01	-1.465988e+01
7.045697e+01	-1.470896e+01
7.086393e+01	-1.475639e+01
7.127323e+01	-1.480532e+01
7.168490e+01	-1.485255e+01
7.209895e+01	-1.490257e+01
7.251539e+01	-1.495039e+01
7.293424e+01	-1.499768e+01
7.335551e+01	-1.504725e+01
7.377920e+01	-1.509561e+01
7.420535e+01	-1.514422e+01
7.463396e+01	-1.519203e+01
7.506504e+01	-1.524152e+01
7.549861e+01	-1.529021e+01
7.593469e+01	-1.533768e+01
7.637328e+01	-1.538701e+01
7.681441e+01	-1.543459e+01
7.725809e+01	-1.548340e+01
7.770433e+01	-1.553280e+01
7.815315e+01	-1.558091e+01
7.860456e+01	-1.562937e+01
7.905857e+01	-1.567836e+01
7.951521e+01	-1.572786e+01
7.997449e+01	-1.577645e+01
8.043642e+01	-1.582455e+01
8.090102e+01	-1.587186e+01
8.136830e+01	-1.592221e+01
8.183828e+01	-1.597138e+01
8.231097e+01	-1.602014e+01
8.278640e+01	-1.606833e+01
8.326457e+01	-1.611688e+01
8.374550e+01	-1.616636e+01
8.422921e+01	-1.621444e+01
8.471572e+01	-1.626377e+01
8.520503e+01	-1.631269e+01
8.569717e+01	-1.636241e+01
8.619215e+01	-1.640955e+01
8.669000e+01	-1.645954e+01
8.719071e+01	-1.650808e+01
8.769432e+01	-1.655681e+01
8.820084e+01	-1.660621e+01
8.871029e+01	-1.665401e+01
8.922267e+01	-1.670397e+01
8.973802e+01	-1.675289e+01
9.025634e+01	-1.680175e+01
9.077766e+01	-1.685065e+01
9.130199e+01	-1.690071e+01
9.182935e+01	-1.694872e+01
9.235975e+01	-1.699845e+01
9.289321e+01	-1.704685e+01
9.342976e+01	-1.709605e+01
9.396941e+01	-1.714422e+01
9.451217e+01	-1.719421e+01
9.505807e+01	-1.724438e+01
9.560712e+01	-1.729224e+01
9.615934e+01	-1.734244e+01
9.671476e+01	-1.739028e+01
9.727338e+01	-1.743982e+01
9.783522e+01	-1.748850e+01
9.840032e+01	-1.753745e+01
9.896867e+01	-1.758790e+01
9.954031e+01	-1.763723e+01
1.001153e+02	-1.768644e+01
1.006935e+02	-1.773423e+01
1.012751e+02	-1.778485e+01
1.018601e+02	-1.783326e+01
1.024484e+02	-1.788307e+01
1.030402e+02	-1.793229e+01
1.036353e+02	-1.798148e+01
1.042339e+02	-1.803029e+01
1.048360e+02	-1.808007e+01
1.054415e+02	-1.812678e+01
1.060505e+02	-1.817718e+01
1.066631e+02	-1.822792e+01
1.072791e+02	-1.827587e+01
1.078988e+02	-1.832542e+01
1.085220e+02	-1.837557e+01
1.091488e+02	-1.842354e+01
1.097793e+02	-1.847350e+01
1.104133e+02	-1.852243e+01
1.110511e+02	-1.857168e+01
1.116925e+02	-1.862160e+01
1.123376e+02	-1.867090e+01
1.129865e+02	-1.871938e+01
1.136391e+02	-1.876972e+01
1.142955e+02	-1.882005e+01
1.149556e+02	-1.886743e+01
1.156196e+02	-1.891726e+01
1.162874e+02	-1.896708e+01
1.169591e+02	-1.901642e+01
1.176347e+02	-1.906586e+01
1.183141e+02	-1.911551e+01
1.189975e+02	-1.916574e+01
1.196848e+02	-1.921412e+01
1.203761e+02	-1.926345e+01
1.210714e+02	-1.931199e+01
1.217707e+02	-1.936339e+01
1.224740e+02	-1.941348e+01
1.231814e+02	-1.946068e+01
1.238929e+02	-1.951141e+01
1.246085e+02	-1.956019e+01
1.253283e+02	-1.960860e+01
1.260522e+02	-1.965915e+01
1.267802e+02	-1.970750e+01
1.275125e+02	-1.975909e+01
1.282490e+02	-1.980921e+01
1.289898e+02	-1.985715e+01
1.297348e+02	-1.990785e+01
1.304842e+02	-1.995595e+01
1.312378e+02	-2.000602e+01
1.319959e+02	-2.005555e+01
1.327583e+02	-2.010571e+01
1.335251e+02	-2.015466e+01
1.342963e+02	-2.020436e+01
1.350720e+02	-2.025175e+01
1.358522e+02	-2.030316e+01
1.366368e+02	-2.035231e+01
1.374260e+02	-2.040101e+01
1.382198e+02	-2.045181e+01
1.390182e+02	-2.050167e+01
1.398211e+02	-2.055147e+01
1.406287e+02	-2.060079e+01
1.414410e+02	-2.064912e+01
1.422579e+02	-2.069918e+01
1.430796e+02	-2.075081e+01
1.439060e+02	-2.080034e+01
1.447372e+02	-2.084937e+01
1.455732e+02	-2.089715e+01
1.464141e+02	-2.094962e+01
1.472597e+02	-2.099804e+01
1.481103e+02	-2.104840e+01
1.489658e+02	-2.109851e+01
1.498262e+02	-2.114701e+01
1.506916e+02	-2.119659e+01
1.515620e+02	-2.124673e+01
1.524374e+02	-2.129616e+01
1.533179e+02	-2.134439e+01
1.542034e+02	-2.139472e+01
1.550941e+02	-2.144546e+01
1.559899e+02	-2.149491e+01
1.568909e+02	-2.154512e+01
1.577971e+02	-2.159405e+01
1.587085e+02	-2.164303e+01
1.596252e+02	-2.169227e+01
1.605472e+02	-2.174207e+01
1.614745e+02	-2.179237e+01
1.624072e+02	-2.184337e+01
1.633453e+02	-2.189206e+01
1.642887e+02	-2.194214e+01
1.652377e+02	-2.199224e+01
1.661921e+02	-2.204228e+01
1.671520e+02	-2.209181e+01
1.681175e+02	-2.214227e+01
1.690885e+02	-2.219039e+01
1.700651e+02	-2.224256e+01
1.710474e+02	-2.229135e+01
1.720354e+02	-2.233996e+01
1.730291e+02	-2.239086e+01
1.740285e+02	-2.243855e+01
1.750337e+02	-2.248909e+01
1.760446e+02	-2.253728e+01
1.770615e+02	-2.258976e+01
1.780842e+02	-2.263702e+01
1.791128e+02	-2.268716e+01
1.801473e+02	-2.273790e+01
1.811878e+02	-2.278806e+01
1.822344e+02	-2.283630e+01
1.832870e+02	-2.288730e+01
1.843456e+02	-2.293852e+01
1.854104e+02	-2.298564e+01
1.864813e+02	-2.303594e+01
1.875584e+02	-2.308794e+01
1.886418e+02	-2.313566e+01
1.897313e+02	-2.318596e+01
1.908272e+02	-2.323455e+01
1.919294e+02	-2.328929e+01
1.930380e+02	-2.333560e+01
1.941530e+02	-2.338506e+01
1.952744e+02	-2.343480e+01
1.964023e+02	-2.348387e+01
1.975367e+02	-2.353683e+01
1.986777e+02	-2.358557e+01
1.998252e+02	-2.363255e+01
2.009794e+02	-2.368574e+01
2.021403e+02	-2.373330e+01
2.033078e+02	-2.378500e+01
2.044821e+02	-2.383188e+01
2.056632e+02	-2.388257e+01
2.068511e+02	-2.393517e+01
2.080459e+02	-2.398213e+01
2.092475e+02	-2.403523e+01
2.104561e+02	-2.408277e+01
2.116717e+02	-2.413478e+01
2.128943e+02	-2.418008e+01
2.141240e+02	-2.423447e+01
2.153608e+02	-2.428053e+01
2.166047e+02	-2.433217e+01
2.178558e+02	-2.438269e+01
2.191141e+02	-2.443010e+01
2.203797e+02	-2.448133e+01
2.216526e+02	-2.453110e+01
2.229329e+02	-2.458295e+01
2.242205e+02	-2.463283e+01
2.255156e+02	-2.468172e+01
2.268182e+02	-2.473075e+01
2.281283e+02	-2.478266e+01
2.294459e+02	-2.483181e+01
2.307712e+02	-2.487788e+01
2.321041e+02	-2.493020e+01
2.334447e+02	-2.498097e+01
2.347931e+02	-2.503172e+01
2.361493e+02	-2.508078e+01
2.375133e+02	-2.513010e+01
2.388851e+02	-2.518271e+01
2.402649e+02	-2.523037e+01
2.416527e+02	-2.527910e+01
2.430484e+02	-2.532826e+01
2.444523e+02	-2.538142e+01
2.458642e+02	-2.543185e+01
2.472843e+02	-2.548136e+01
2.487126e+02	-2.552940e+01
2.501492e+02	-2.557988e+01
2.515940e+02	-2.563121e+01
2.530472e+02	-2.567952e+01
2.545088e+02	-2.572988e+01
2.559789e+02	-2.578044e+01
2.574574e+02	-2.583232e+01
2.589444e+02	-2.588378e+01
2.604401e+02	-2.593250e+01
2.619444e+02	-2.597891e+01
2.634574e+02	-2.603200e+01
2.649791e+02	-2.608430e+01
2.665096e+02	-2.613160e+01
2.680489e+02	-2.617932e+01
2.695972e+02	-2.622670e+01
2.711544e+02	-2.628033e+01
2.727205e+02	-2.633135e+01
2.742958e+02	-2.637808e+01
2.758801e+02	-2.642858e+01
2.774736e+02	-2.648018e+01
2.790762e+02	-2.653033e+01
2.806882e+02	-2.657967e+01
2.823094e+02	-2.662480e+01
2.839400e+02	-2.667888e+01
2.855800e+02	-2.672852e+01
2.872295e+02	-2.677848e+01
2.888886e+02	-2.683026e+01
2.905572e+02	-2.688082e+01
2.922354e+02	-2.693048e+01
2.939234e+02	-2.697706e+01
2.956211e+02	-2.702860e+01
2.973286e+02	-2.707841e+01
2.990459e+02	-2.712855e+01
3.007732e+02	-2.717406e+01
3.025104e+02	-2.722809e+01
3.042577e+02	-2.727923e+01
3.060151e+02	-2.732731e+01
3.077826e+02	-2.738030e+01
3.095604e+02	-2.743006e+01
3.113484e+02	-2.747559e+01
3.131467e+02	-2.752651e+01
3.149554e+02	-2.758166e+01
3.167746e+02	-2.762974e+01
3.186043e+02	-2.768036e+01
3.204445e+02	-2.772679e+01
3.222954e+02	-2.778060e+01
3.241570e+02	-2.782750e+01
3.260293e+02	-2.787704e+01
3.279124e+02	-2.792878e+01
3.298064e+02	-2.797890e+01
3.317114e+02	-2.802956e+01
3.336273e+02	-2.807772e+01
3.355544e+02	-2.813246e+01
3.374925e+02	-2.817576e+01
3.394418e+02	-2.823233e+01
3.414024e+02	-2.828255e+01
3.433744e+02	-2.833260e+01
3.453577e+02	-2.837673e+01
3.473525e+02	-2.843122e+01
3.493588e+02	-2.847743e+01
3.513766e+02	-2.852809e+01
3.534062e+02	-2.857704e+01
3.554474e+02	-2.863027e+01
3.575005e+02	-2.868097e+01
3.595654e+02	-2.872775e+01
3.616422e+02	-2.878212e+01
3.637311e+02	-2.883364e+01
3.658320e+02	-2.887787e+01
3.679450e+02	-2.893234e+01
3.700702e+02	-2.898255e+01
3.722077e+02	-2.903387e+01
3.743576e+02	-2.908173e+01
3.765199e+02	-2.913263e+01
3.786946e+02	-2.917711e+01
3.808820e+02	-2.922999e+01
3.830819e+02	-2.927886e+01
3.852946e+02	-2.932699e+01
3.875200e+02	-2.937776e+01
3.897583e+02	-2.942868e+01
3.920096e+02	-2.948065e+01
3.942738e+02	-2.953111e+01
3.965511e+02	-2.958280e+01
3.988416e+02	-2.963405e+01
4.011452e+02	-2.967703e+01
4.034622e+02	-2.973457e+01
4.057926e+02	-2.978146e+01
4.081365e+02	-2.982618e+01
4.104938e+02	-2.988004e+01
4.128648e+02	-2.992853e+01
4.152495e+02	-2.998186e+01
4.176480e+02	-3.003524e+01
4.200603e+02	-3.008289e+01
4.224866e+02	-3.012364e+01
4.249268e+02	-3.017950e+01
4.273812e+02	-3.022798e+01
4.298497e+02	-3.028325e+01
4.323325e+02	-3.033066e+01
4.348297e+02	-3.038535e+01
4.373412e+02	-3.043349e+01
4.398673e+02	-3.048257e+01
4.424079e+02	-3.053150e+01
4.449633e+02	-3.058033e+01
4.475334e+02	-3.063638e+01
4.501183e+02	-3.067888e+01
4.527182e+02	-3.073298e+01
4.553330e+02	-3.078325e+01
4.579630e+02	-3.083279e+01
4.606082e+02	-3.087676e+01
4.632687e+02	-3.093624e+01
4.659445e+02	-3.097698e+01
4.686358e+02	-3.103643e+01
4.713426e+02	-3.107872e+01
4.740650e+02	-3.113477e+01
4.768032e+02	-3.118282e+01
4.795572e+02	-3.123900e+01
4.823271e+02	-3.128601e+01
4.851130e+02	-3.133880e+01
4.879150e+02	-3.138552e+01
4.907332e+02	-3.143063e+01
4.935676e+02	-3.148594e+01
4.964185e+02	-3.153194e+01
4.992858e+02	-3.158827e+01
5.021696e+02	-3.163507e+01
5.050701e+02	-3.168100e+01
5.079874e+02	-3.173921e+01
5.109215e+02	-3.178579e+01
5.138726e+02	-3.184040e+01
5.168407e+02	-3.188280e+01
5.198259e+02	-3.193742e+01
5.228284e+02	-3.198765e+01
5.258482e+02	-3.203984e+01
5.288855e+02	-3.208876e+01
5.319403e+02	-3.213580e+01
5.350128e+02	-3.218751e+01
5.381030e+02	-3.223325e+01
5.412111e+02	-3.229073e+01
5.443371e+02	-3.234201e+01
5.474812e+02	-3.238498e+01
5.506434e+02	-3.243303e+01
5.538239e+02	-3.248710e+01
5.570228e+02	-3.254860e+01
5.602401e+02	-3.259032e+01
5.634760e+02	-3.263860e+01
5.667306e+02	-3.269085e+01
5.700040e+02	-3.273911e+01
5.732964e+02	-3.279066e+01
5.766077e+02	-3.283954e+01
5.799382e+02	-3.289745e+01
5.832879e+02	-3.294218e+01
5.866569e+02	-3.299169e+01
5.900454e+02	-3.304085e+01
5.934535e+02	-3.309019e+01
5.968813e+02	-3.314162e+01
6.003288e+02	-3.319393e+01
6.037963e+02	-3.324370e+01
6.072838e+02	-3.328674e+01
6.107914e+02	-3.334479e+01
6.143194e+02	-3.339872e+01
6.178676e+02	-3.344381e+01
6.214364e+02	-3.349827e+01
6.250258e+02	-3.355320e+01
6.286359e+02	-3.359068e+01
6.322669e+02	-3.364203e+01
6.359189e+02	-3.369684e+01
6.395919e+02	-3.375219e+01
6.432862e+02	-3.379646e+01
6.470017e+02	-3.384467e+01
6.507388e+02	-3.389737e+01
6.544974e+02	-3.394203e+01
6.582778e+02	-3.399391e+01
6.620800e+02	-3.404656e+01
6.659041e+02	-3.409364e+01
6.697504e+02	-3.414405e+01
6.736188e+02	-3.420278e+01
6.775096e+02	-3.425519e+01
6.814229e+02	-3.429643e+01
6.853587e+02	-3.436149e+01
6.893173e+02	-3.439536e+01
6.932988e+02	-3.444648e+01
6.973033e+02	-3.450372e+01
7.013309e+02	-3.455054e+01
