Frequency(Hz)	Magnitude(dB)
1.000000e+01	-1.692817e-05
1.005776e+01	-1.712429e-05
1.011585e+01	-1.732268e-05
1.017428e+01	-1.752337e-05
1.023305e+01	-1.772638e-05
1.029215e+01	-1.793174e-05
1.035160e+01	-1.813949e-05
1.041139e+01	-1.834964e-05
1.047153e+01	-1.856222e-05
1.053201e+01	-1.877727e-05
1.059284e+01	-1.899481e-05
1.065403e+01	-1.921487e-05
1.071556e+01	-1.943748e-05
1.077746e+01	-1.966267e-05
1.083971e+01	-1.989046e-05
1.090232e+01	-2.012090e-05
1.096529e+01	-2.035401e-05
1.102862e+01	-2.058981e-05
1.109232e+01	-2.082835e-05
1.115639e+01	-2.106965e-05
1.122083e+01	-2.131375e-05
1.128564e+01	-2.156067e-05
1.135083e+01	-2.181046e-05
1.141639e+01	-2.206314e-05
1.148233e+01	-2.231875e-05
1.154865e+01	-2.257732e-05
1.161536e+01	-2.283888e-05
1.168245e+01	-2.310347e-05
1.174992e+01	-2.337113e-05
1.181779e+01	-2.364189e-05
1.188605e+01	-2.391579e-05
1.195470e+01	-2.419286e-05
1.202375e+01	-2.447314e-05
1.209320e+01	-2.475667e-05
1.216305e+01	-2.504348e-05
1.223330e+01	-2.533362e-05
1.230396e+01	-2.562711e-05
1.237503e+01	-2.592401e-05
1.244651e+01	-2.622434e-05
1.251840e+01	-2.652816e-05
1.259070e+01	-2.683550e-05
1.266343e+01	-2.714639e-05
1.273657e+01	-2.746089e-05
1.281014e+01	-2.777903e-05
1.288413e+01	-2.810086e-05
1.295855e+01	-2.842641e-05
1.303339e+01	-2.875574e-05
1.310867e+01	-2.908888e-05
1.318439e+01	-2.942588e-05
1.326054e+01	-2.976679e-05
1.333713e+01	-3.011164e-05
1.341417e+01	-3.046049e-05
1.349165e+01	-3.081339e-05
1.356958e+01	-3.117037e-05
1.364795e+01	-3.153148e-05
1.372678e+01	-3.189678e-05
1.380607e+01	-3.226631e-05
1.388581e+01	-3.264013e-05
1.396602e+01	-3.301827e-05
1.404668e+01	-3.340080e-05
1.412782e+01	-3.378775e-05
1.420942e+01	-3.417919e-05
1.429149e+01	-3.457516e-05
1.437404e+01	-3.497573e-05
1.445706e+01	-3.538093e-05
1.454057e+01	-3.579082e-05
1.462455e+01	-3.620547e-05
1.470902e+01	-3.662492e-05
1.479398e+01	-3.704923e-05
1.487943e+01	-3.747845e-05
1.496537e+01	-3.791265e-05
1.505181e+01	-3.835187e-05
1.513875e+01	-3.879619e-05
1.522619e+01	-3.924565e-05
1.531414e+01	-3.970032e-05
1.540259e+01	-4.016026e-05
1.549156e+01	-4.062552e-05
1.558103e+01	-4.109618e-05
1.567103e+01	-4.157229e-05
1.576155e+01	-4.205391e-05
1.585258e+01	-4.254112e-05
1.594415e+01	-4.303396e-05
1.603624e+01	-4.353252e-05
1.612886e+01	-4.403686e-05
1.622202e+01	-4.454703e-05
1.631572e+01	-4.506312e-05
1.640996e+01	-4.558519e-05
1.650474e+01	-4.611330e-05
1.660008e+01	-4.664753e-05
1.669596e+01	-4.718795e-05
1.679239e+01	-4.773464e-05
1.688938e+01	-4.828765e-05
1.698694e+01	-4.884708e-05
1.708505e+01	-4.941298e-05
1.718373e+01	-4.998544e-05
1.728299e+01	-5.056453e-05
1.738281e+01	-5.115033e-05
1.748322e+01	-5.174292e-05
1.758420e+01	-5.234237e-05
1.768576e+01	-5.294877e-05
1.778792e+01	-5.356219e-05
1.789066e+01	-5.418272e-05
1.799399e+01	-5.481044e-05
1.809793e+01	-5.544543e-05
1.820246e+01	-5.608778e-05
1.830760e+01	-5.673756e-05
1.841334e+01	-5.739488e-05
1.851969e+01	-5.805981e-05
1.862666e+01	-5.873245e-05
1.873425e+01	-5.941287e-05
1.884246e+01	-6.010118e-05
1.895129e+01	-6.079747e-05
1.906075e+01	-6.150182e-05
1.917085e+01	-6.221433e-05
1.928158e+01	-6.293509e-05
1.939295e+01	-6.366421e-05
1.950496e+01	-6.440177e-05
1.961762e+01	-6.514788e-05
1.973093e+01	-6.590263e-05
1.984490e+01	-6.666612e-05
1.995952e+01	-6.743846e-05
2.007480e+01	-6.821975e-05
2.019076e+01	-6.901009e-05
2.030738e+01	-6.980958e-05
2.042467e+01	-7.061834e-05
2.054264e+01	-7.143647e-05
2.066130e+01	-7.226407e-05
2.078064e+01	-7.310127e-05
2.090066e+01	-7.394816e-05
2.102139e+01	-7.480486e-05
2.114280e+01	-7.567149e-05
2.126492e+01	-7.654815e-05
2.138775e+01	-7.743498e-05
2.151128e+01	-7.833208e-05
2.163553e+01	-7.923957e-05
2.176050e+01	-8.015757e-05
2.188619e+01	-8.108621e-05
2.201260e+01	-8.202561e-05
2.213974e+01	-8.297589e-05
2.226762e+01	-8.393718e-05
2.239624e+01	-8.490960e-05
2.252560e+01	-8.589330e-05
2.265571e+01	-8.688838e-05
2.278656e+01	-8.789500e-05
2.291818e+01	-8.891328e-05
2.305055e+01	-8.994335e-05
2.318369e+01	-9.098536e-05
2.331760e+01	-9.203944e-05
2.345228e+01	-9.310573e-05
2.358774e+01	-9.418438e-05
2.372398e+01	-9.527552e-05
2.386101e+01	-9.637930e-05
2.399883e+01	-9.749587e-05
2.413745e+01	-9.862537e-05
2.427686e+01	-9.976796e-05
2.441709e+01	-1.009238e-04
2.455812e+01	-1.020930e-04
2.469997e+01	-1.032758e-04
2.484263e+01	-1.044722e-04
2.498612e+01	-1.056826e-04
2.513044e+01	-1.069069e-04
2.527559e+01	-1.081454e-04
2.542158e+01	-1.093983e-04
2.556842e+01	-1.106657e-04
2.571610e+01	-1.119478e-04
2.586463e+01	-1.132447e-04
2.601403e+01	-1.145567e-04
2.616428e+01	-1.158838e-04
2.631541e+01	-1.172263e-04
2.646740e+01	-1.185844e-04
2.662028e+01	-1.199582e-04
2.677404e+01	-1.213480e-04
2.692868e+01	-1.227538e-04
2.708422e+01	-1.241759e-04
2.724066e+01	-1.256145e-04
2.739800e+01	-1.270698e-04
2.755625e+01	-1.285419e-04
2.771541e+01	-1.300311e-04
2.787550e+01	-1.315375e-04
2.803650e+01	-1.330614e-04
2.819844e+01	-1.346029e-04
2.836131e+01	-1.361623e-04
2.852513e+01	-1.377397e-04
2.868989e+01	-1.393355e-04
2.885560e+01	-1.409497e-04
2.902227e+01	-1.425826e-04
2.918990e+01	-1.442344e-04
2.935850e+01	-1.459054e-04
2.952807e+01	-1.475957e-04
2.969863e+01	-1.493056e-04
2.987016e+01	-1.510353e-04
3.004269e+01	-1.527851e-04
3.021622e+01	-1.545551e-04
3.039075e+01	-1.563456e-04
3.056628e+01	-1.581569e-04
3.074283e+01	-1.599892e-04
3.092040e+01	-1.618427e-04
3.109900e+01	-1.637176e-04
3.127862e+01	-1.656143e-04
3.145929e+01	-1.675330e-04
3.164099e+01	-1.694738e-04
3.182375e+01	-1.714372e-04
3.200756e+01	-1.734233e-04
3.219244e+01	-1.754324e-04
3.237838e+01	-1.774648e-04
3.256540e+01	-1.795207e-04
3.275349e+01	-1.816005e-04
3.294268e+01	-1.837043e-04
3.313295e+01	-1.858326e-04
3.332433e+01	-1.879854e-04
3.351681e+01	-1.901633e-04
3.371040e+01	-1.923663e-04
3.390511e+01	-1.945949e-04
3.410094e+01	-1.968493e-04
3.429791e+01	-1.991298e-04
3.449601e+01	-2.014367e-04
3.469526e+01	-2.037703e-04
3.489566e+01	-2.061310e-04
3.509721e+01	-2.085190e-04
3.529993e+01	-2.109347e-04
3.550382e+01	-2.133784e-04
3.570889e+01	-2.158504e-04
3.591515e+01	-2.183510e-04
3.612259e+01	-2.208806e-04
3.633123e+01	-2.234395e-04
3.654108e+01	-2.260280e-04
3.675214e+01	-2.286466e-04
3.696442e+01	-2.312954e-04
3.717792e+01	-2.339750e-04
3.739266e+01	-2.366856e-04
3.760864e+01	-2.394276e-04
3.782587e+01	-2.422013e-04
3.804435e+01	-2.450072e-04
3.826409e+01	-2.478456e-04
3.848510e+01	-2.507169e-04
3.870739e+01	-2.536214e-04
3.893096e+01	-2.565596e-04
3.915583e+01	-2.595318e-04
3.938199e+01	-2.625385e-04
3.960946e+01	-2.655800e-04
3.983824e+01	-2.686567e-04
4.006834e+01	-2.717691e-04
4.029978e+01	-2.749175e-04
4.053255e+01	-2.781024e-04
4.076666e+01	-2.813242e-04
4.100213e+01	-2.845833e-04
4.123896e+01	-2.878802e-04
4.147715e+01	-2.912152e-04
4.171672e+01	-2.945889e-04
4.195767e+01	-2.980017e-04
4.220002e+01	-3.014540e-04
4.244377e+01	-3.049463e-04
4.268892e+01	-3.084791e-04
4.293549e+01	-3.120528e-04
4.318348e+01	-3.156679e-04
4.343291e+01	-3.193248e-04
4.368377e+01	-3.230241e-04
4.393609e+01	-3.267663e-04
4.418986e+01	-3.305519e-04
4.444510e+01	-3.343813e-04
4.470182e+01	-3.382550e-04
4.496001e+01	-3.421736e-04
4.521970e+01	-3.461376e-04
4.548089e+01	-3.501476e-04
4.574358e+01	-3.542040e-04
4.600779e+01	-3.583074e-04
4.627353e+01	-3.624583e-04
4.654081e+01	-3.666573e-04
4.680963e+01	-3.709049e-04
4.708000e+01	-3.752018e-04
4.735193e+01	-3.795484e-04
4.762543e+01	-3.839454e-04
4.790051e+01	-3.883933e-04
4.817719e+01	-3.928927e-04
4.845545e+01	-3.974443e-04
4.873533e+01	-4.020486e-04
4.901682e+01	-4.067062e-04
4.929994e+01	-4.114178e-04
4.958470e+01	-4.161840e-04
4.987110e+01	-4.210053e-04
5.015915e+01	-4.258826e-04
5.044887e+01	-4.308163e-04
5.074026e+01	-4.358071e-04
5.103333e+01	-4.408558e-04
5.132810e+01	-4.459630e-04
5.162457e+01	-4.511293e-04
5.192275e+01	-4.563555e-04
5.222265e+01	-4.616423e-04
5.252429e+01	-4.669902e-04
5.282767e+01	-4.724001e-04
5.313280e+01	-4.778727e-04
5.343969e+01	-4.834087e-04
5.374836e+01	-4.890088e-04
5.405880e+01	-4.946738e-04
5.437105e+01	-5.004044e-04
5.468509e+01	-5.062014e-04
5.500095e+01	-5.120655e-04
5.531863e+01	-5.179976e-04
5.563815e+01	-5.239984e-04
5.595951e+01	-5.300687e-04
5.628273e+01	-5.362093e-04
5.660782e+01	-5.424210e-04
5.693479e+01	-5.487047e-04
5.726364e+01	-5.550612e-04
5.759439e+01	-5.614913e-04
5.792705e+01	-5.679959e-04
5.826164e+01	-5.745759e-04
5.859815e+01	-5.812321e-04
5.893662e+01	-5.879653e-04
5.927703e+01	-5.947766e-04
5.961941e+01	-6.016668e-04
5.996377e+01	-6.086368e-04
6.031012e+01	-6.156875e-04
6.065847e+01	-6.228199e-04
6.100883e+01	-6.300349e-04
6.136121e+01	-6.373335e-04
6.171563e+01	-6.447166e-04
6.207210e+01	-6.521853e-04
6.243063e+01	-6.597405e-04
6.279122e+01	-6.673832e-04
6.315390e+01	-6.751144e-04
6.351868e+01	-6.829352e-04
6.388556e+01	-6.908465e-04
6.425456e+01	-6.988495e-04
6.462569e+01	-7.069452e-04
6.499897e+01	-7.151347e-04
6.537440e+01	-7.234190e-04
6.575200e+01	-7.317994e-04
6.613178e+01	-7.402767e-04
6.651375e+01	-7.488523e-04
6.689793e+01	-7.575272e-04
6.728433e+01	-7.663026e-04
6.767297e+01	-7.751796e-04
6.806384e+01	-7.841595e-04
6.845698e+01	-7.932433e-04
6.885238e+01	-8.024324e-04
6.925007e+01	-8.117280e-04
6.965005e+01	-8.211312e-04
7.005235e+01	-8.306433e-04
7.045697e+01	-8.402656e-04
7.086393e+01	-8.499993e-04
7.127323e+01	-8.598458e-04
7.168490e+01	-8.698064e-04
7.209895e+01	-8.798823e-04
7.251539e+01	-8.900750e-04
7.293424e+01	-9.003856e-04
7.335551e+01	-9.108158e-04
7.377920e+01	-9.213667e-04
7.420535e+01	-9.320398e-04
7.463396e+01	-9.428366e-04
7.506504e+01	-9.537584e-04
7.549861e+01	-9.648067e-04
7.593469e+01	-9.759830e-04
7.637328e+01	-9.872888e-04
7.681441e+01	-9.987255e-04
7.725809e+01	-1.010295e-03
7.770433e+01	-1.021998e-03
7.815315e+01	-1.033837e-03
7.860456e+01	-1.045812e-03
7.905857e+01	-1.057927e-03
7.951521e+01	-1.070182e-03
7.997449e+01	-1.082579e-03
8.043642e+01	-1.095119e-03
8.090102e+01	-1.107805e-03
8.136830e+01	-1.120637e-03
8.183828e+01	-1.133618e-03
8.231097e+01	-1.146750e-03
8.278640e+01	-1.160034e-03
8.326457e+01	-1.173471e-03
8.374550e+01	-1.187064e-03
8.422921e+01	-1.200815e-03
8.471572e+01	-1.214724e-03
8.520503e+01	-1.228795e-03
8.569717e+01	-1.243029e-03
8.619215e+01	-1.257428e-03
8.669000e+01	-1.271994e-03
8.719071e+01	-1.286728e-03
8.769432e+01	-1.301633e-03
8.820084e+01	-1.316710e-03
8.871029e+01	-1.331962e-03
8.922267e+01	-1.347391e-03
8.973802e+01	-1.362998e-03
9.025634e+01	-1.378787e-03
9.077766e+01	-1.394758e-03
9.130199e+01	-1.410914e-03
9.182935e+01	-1.427257e-03
9.235975e+01	-1.443789e-03
9.289321e+01	-1.460513e-03
9.342976e+01	-1.477431e-03
9.396941e+01	-1.494544e-03
9.451217e+01	-1.511856e-03
9.505807e+01	-1.529368e-03
9.560712e+01	-1.547083e-03
9.615934e+01	-1.565003e-03
9.671476e+01	-1.583131e-03
9.727338e+01	-1.601468e-03
9.783522e+01	-1.620018e-03
9.840032e+01	-1.638783e-03
9.896867e+01	-1.657765e-03
9.954031e+01	-1.676967e-03
1.001153e+02	-1.696392e-03
1.006935e+02	-1.716041e-03
1.012751e+02	-1.735918e-03
1.018601e+02	-1.756025e-03
1.024484e+02	-1.776364e-03
1.030402e+02	-1.796940e-03
1.036353e+02	-1.817754e-03
1.042339e+02	-1.838808e-03
1.048360e+02	-1.860107e-03
1.054415e+02	-1.881652e-03
1.060505e+02	-1.903447e-03
1.066631e+02	-1.925494e-03
1.072791e+02	-1.947796e-03
1.078988e+02	-1.970357e-03
1.085220e+02	-1.993178e-03
1.091488e+02	-2.016265e-03
1.097793e+02	-2.039618e-03
1.104133e+02	-2.063242e-03
1.110511e+02	-2.087139e-03
1.116925e+02	-2.111314e-03
1.123376e+02	-2.135768e-03
1.129865e+02	-2.160505e-03
1.136391e+02	-2.185529e-03
1.142955e+02	-2.210842e-03
1.149556e+02	-2.236449e-03
1.156196e+02	-2.262352e-03
1.162874e+02	-2.288555e-03
1.169591e+02	-2.315061e-03
1.176347e+02	-2.341875e-03
1.183141e+02	-2.368999e-03
1.189975e+02	-2.396437e-03
1.196848e+02	-2.424192e-03
1.203761e+02	-2.452269e-03
1.210714e+02	-2.480671e-03
1.217707e+02	-2.509402e-03
1.224740e+02	-2.538466e-03
1.231814e+02	-2.567866e-03
1.238929e+02	-2.597606e-03
1.246085e+02	-2.627691e-03
1.253283e+02	-2.658124e-03
1.260522e+02	-2.688910e-03
1.267802e+02	-2.720052e-03
1.275125e+02	-2.751554e-03
1.282490e+02	-2.783422e-03
1.289898e+02	-2.815658e-03
1.297348e+02	-2.848267e-03
1.304842e+02	-2.881254e-03
1.312378e+02	-2.914623e-03
1.319959e+02	-2.948378e-03
1.327583e+02	-2.982524e-03
1.335251e+02	-3.017066e-03
1.342963e+02	-3.052007e-03
1.350720e+02	-3.087352e-03
1.358522e+02	-3.123107e-03
1.366368e+02	-3.159276e-03
1.374260e+02	-3.195864e-03
1.382198e+02	-3.232875e-03
1.390182e+02	-3.270314e-03
1.398211e+02	-3.308187e-03
1.406287e+02	-3.346499e-03
1.414410e+02	-3.385254e-03
1.422579e+02	-3.424457e-03
1.430796e+02	-3.464115e-03
1.439060e+02	-3.504231e-03
1.447372e+02	-3.544812e-03
1.455732e+02	-3.585863e-03
1.464141e+02	-3.627388e-03
1.472597e+02	-3.669395e-03
1.481103e+02	-3.711888e-03
1.489658e+02	-3.754872e-03
1.498262e+02	-3.798354e-03
1.506916e+02	-3.842340e-03
1.515620e+02	-3.886834e-03
1.524374e+02	-3.931844e-03
1.533179e+02	-3.977374e-03
1.542034e+02	-4.023432e-03
1.550941e+02	-4.070023e-03
1.559899e+02	-4.117152e-03
1.568909e+02	-4.164828e-03
1.577971e+02	-4.213055e-03
1.587085e+02	-4.261840e-03
1.596252e+02	-4.311190e-03
1.605472e+02	-4.361111e-03
1.614745e+02	-4.411610e-03
1.624072e+02	-4.462694e-03
1.633453e+02	-4.514368e-03
1.642887e+02	-4.566641e-03
1.652377e+02	-4.619518e-03
1.661921e+02	-4.673008e-03
1.671520e+02	-4.727116e-03
1.681175e+02	-4.781851e-03
1.690885e+02	-4.837219e-03
1.700651e+02	-4.893228e-03
1.710474e+02	-4.949885e-03
1.720354e+02	-5.007197e-03
1.730291e+02	-5.065173e-03
1.740285e+02	-5.123820e-03
1.750337e+02	-5.183145e-03
1.760446e+02	-5.243157e-03
1.770615e+02	-5.303863e-03
1.780842e+02	-5.365271e-03
1.791128e+02	-5.427391e-03
1.801473e+02	-5.490228e-03
1.811878e+02	-5.553793e-03
1.822344e+02	-5.618094e-03
1.832870e+02	-5.683138e-03
1.843456e+02	-5.748935e-03
1.854104e+02	-5.815493e-03
1.864813e+02	-5.882822e-03
1.875584e+02	-5.950929e-03
1.886418e+02	-6.019824e-03
1.897313e+02	-6.089516e-03
1.908272e+02	-6.160015e-03
1.919294e+02	-6.231329e-03
1.930380e+02	-6.303468e-03
1.941530e+02	-6.376441e-03
1.952744e+02	-6.450259e-03
1.964023e+02	-6.524930e-03
1.975367e+02	-6.600466e-03
1.986777e+02	-6.676875e-03
1.998252e+02	-6.754168e-03
2.009794e+02	-6.832355e-03
2.021403e+02	-6.911447e-03
2.033078e+02	-6.991453e-03
2.044821e+02	-7.072384e-03
2.056632e+02	-7.154252e-03
2.068511e+02	-7.237067e-03
2.080459e+02	-7.320839e-03
2.092475e+02	-7.405580e-03
2.104561e+02	-7.491302e-03
2.116717e+02	-7.578014e-03
2.128943e+02	-7.665730e-03
2.141240e+02	-7.754460e-03
2.153608e+02	-7.844216e-03
2.166047e+02	-7.935010e-03
2.178558e+02	-8.026854e-03
2.191141e+02	-8.119760e-03
2.203797e+02	-8.213740e-03
2.216526e+02	-8.308807e-03
2.229329e+02	-8.404973e-03
2.242205e+02	-8.502252e-03
2.255156e+02	-8.600654e-03
2.268182e+02	-8.700195e-03
2.281283e+02	-8.800887e-03
2.294459e+02	-8.902742e-03
2.307712e+02	-9.005776e-03
2.321041e+02	-9.110000e-03
2.334447e+02	-9.215430e-03
2.347931e+02	-9.322078e-03
2.361493e+02	-9.429959e-03
2.375133e+02	-9.539087e-03
2.388851e+02	-9.649476e-03
2.402649e+02	-9.761142e-03
2.416527e+02	-9.874098e-03
2.430484e+02	-9.988360e-03
2.444523e+02	-1.010394e-02
2.458642e+02	-1.022086e-02
2.472843e+02	-1.033913e-02
2.487126e+02	-1.045877e-02
2.501492e+02	-1.057979e-02
2.515940e+02	-1.070221e-02
2.530472e+02	-1.082604e-02
2.545088e+02	-1.095130e-02
2.559789e+02	-1.107801e-02
2.574574e+02	-1.120619e-02
2.589444e+02	-1.133585e-02
2.604401e+02	-1.146700e-02
2.619444e+02	-1.159967e-02
2.634574e+02	-1.173387e-02
2.649791e+02	-1.186963e-02
2.665096e+02	-1.200695e-02
2.680489e+02	-1.214586e-02
2.695972e+02	-1.228637e-02
2.711544e+02	-1.242851e-02
2.727205e+02	-1.257229e-02
2.742958e+02	-1.271772e-02
2.758801e+02	-1.286484e-02
2.774736e+02	-1.301366e-02
2.790762e+02	-1.316420e-02
2.806882e+02	-1.331648e-02
2.823094e+02	-1.347051e-02
2.839400e+02	-1.362632e-02
2.855800e+02	-1.378394e-02
2.872295e+02	-1.394337e-02
2.888886e+02	-1.410464e-02
2.905572e+02	-1.426778e-02
2.922354e+02	-1.443280e-02
2.939234e+02	-1.459973e-02
2.956211e+02	-1.476858e-02
2.973286e+02	-1.493938e-02
2.990459e+02	-1.511216e-02
3.007732e+02	-1.528693e-02
3.025104e+02	-1.546371e-02
3.042577e+02	-1.564254e-02
3.060151e+02	-1.582343e-02
3.077826e+02	-1.600641e-02
3.095604e+02	-1.619150e-02
3.113484e+02	-1.637873e-02
3.131467e+02	-1.656812e-02
3.149554e+02	-1.675969e-02
3.167746e+02	-1.695348e-02
3.186043e+02	-1.714950e-02
3.204445e+02	-1.734778e-02
3.222954e+02	-1.754835e-02
3.241570e+02	-1.775124e-02
3.260293e+02	-1.795646e-02
3.279124e+02	-1.816406e-02
3.298064e+02	-1.837405e-02
3.317114e+02	-1.858646e-02
3.336273e+02	-1.880132e-02
3.355544e+02	-1.901866e-02
3.374925e+02	-1.923851e-02
3.394418e+02	-1.946089e-02
3.414024e+02	-1.968583e-02
3.433744e+02	-1.991337e-02
3.453577e+02	-2.014354e-02
3.473525e+02	-2.037636e-02
3.493588e+02	-2.061186e-02
3.513766e+02	-2.085008e-02
3.534062e+02	-2.109105e-02
3.554474e+02	-2.133479e-02
3.575005e+02	-2.158134e-02
3.595654e+02	-2.183074e-02
3.616422e+02	-2.208301e-02
3.637311e+02	-2.233818e-02
3.658320e+02	-2.259630e-02
3.679450e+02	-2.285739e-02
3.700702e+02	-2.312150e-02
3.722077e+02	-2.338864e-02
3.743576e+02	-2.365886e-02
3.765199e+02	-2.393220e-02
3.786946e+02	-2.420868e-02
3.808820e+02	-2.448836e-02
3.830819e+02	-2.477125e-02
3.852946e+02	-2.505740e-02
3.875200e+02	-2.534685e-02
3.897583e+02	-2.563963e-02
3.920096e+02	-2.593578e-02
3.942738e+02	-2.623534e-02
3.965511e+02	-2.653835e-02
3.988416e+02	-2.684485e-02
4.011452e+02	-2.715488e-02
4.034622e+02	-2.746848e-02
4.057926e+02	-2.778569e-02
4.081365e+02	-2.810655e-02
4.104938e+02	-2.843110e-02
4.128648e+02	-2.875939e-02
4.152495e+02	-2.909145e-02
4.176480e+02	-2.942734e-02
4.200603e+02	-2.976709e-02
4.224866e+02	-3.011075e-02
4.249268e+02	-3.045837e-02
4.273812e+02	-3.080998e-02
4.298497e+02	-3.116564e-02
4.323325e+02	-3.152538e-02
4.348297e+02	-3.188927e-02
4.373412e+02	-3.225734e-02
4.398673e+02	-3.262964e-02
4.424079e+02	-3.300622e-02
4.449633e+02	-3.338713e-02
4.475334e+02	-3.377242e-02
4.501183e+02	-3.416214e-02
4.527182e+02	-3.455634e-02
4.553330e+02	-3.495507e-02
4.579630e+02	-3.535838e-02
4.606082e+02	-3.576633e-02
4.632687e+02	-3.617896e-02
4.659445e+02	-3.659633e-02
4.686358e+02	-3.701850e-02
4.713426e+02	-3.744551e-02
4.740650e+02	-3.787743e-02
4.768032e+02	-3.831431e-02
4.795572e+02	-3.875621e-02
4.823271e+02	-3.920318e-02
4.851130e+02	-3.965528e-02
4.879150e+02	-4.011257e-02
4.907332e+02	-4.057511e-02
4.935676e+02	-4.104295e-02
4.964185e+02	-4.151617e-02
4.992858e+02	-4.199481e-02
5.021696e+02	-4.247895e-02
5.050701e+02	-4.296864e-02
5.079874e+02	-4.346395e-02
5.109215e+02	-4.396493e-02
5.138726e+02	-4.447166e-02
5.168407e+02	-4.498421e-02
5.198259e+02	-4.550262e-02
5.228284e+02	-4.602699e-02
5.258482e+02	-4.655736e-02
5.288855e+02	-4.709381e-02
5.319403e+02	-4.763640e-02
5.350128e+02	-4.818522e-02
5.381030e+02	-4.874032e-02
5.412111e+02	-4.930177e-02
5.443371e+02	-4.986966e-02
5.474812e+02	-5.044406e-02
5.506434e+02	-5.102502e-02
5.538239e+02	-5.161264e-02
5.570228e+02	-5.220699e-02
5.602401e+02	-5.280814e-02
5.634760e+02	-5.341617e-02
5.667306e+02	-5.403115e-02
5.700040e+02	-5.465317e-02
5.732964e+02	-5.528231e-02
5.766077e+02	-5.591864e-02
5.799382e+02	-5.656225e-02
5.832879e+02	-5.721322e-02
5.866569e+02	-5.787163e-02
5.900454e+02	-5.853756e-02
5.934535e+02	-5.921111e-02
5.968813e+02	-5.989235e-02
6.003288e+02	-6.058137e-02
6.037963e+02	-6.127827e-02
6.072838e+02	-6.198312e-02
6.107914e+02	-6.269602e-02
6.143194e+02	-6.341707e-02
6.178676e+02	-6.414634e-02
6.214364e+02	-6.488394e-02
6.250258e+02	-6.562995e-02
6.286359e+02	-6.638448e-02
6.322669e+02	-6.714761e-02
6.359189e+02	-6.791945e-02
6.395919e+02	-6.870009e-02
6.432862e+02	-6.948963e-02
6.470017e+02	-7.028817e-02
6.507388e+02	-7.109581e-02
6.544974e+02	-7.191265e-02
6.582778e+02	-7.273880e-02
6.620800e+02	-7.357436e-02
6.659041e+02	-7.441944e-02
6.697504e+02	-7.527413e-02
6.736188e+02	-7.613856e-02
6.775096e+02	-7.701283e-02
6.814229e+02	-7.789704e-02
6.853587e+02	-7.879132e-02
6.893173e+02	-7.969576e-02
6.932988e+02	-8.061050e-02
6.973033e+02	-8.153563e-02
7.013309e+02	-8.247128e-02
