Frequency(Hz)	Magnitude(dB)
1.000000e+01	-2.023993e+00
1.005776e+01	-2.042746e+00
1.011585e+01	-2.061497e+00
1.017428e+01	-2.080518e+00
1.023305e+01	-2.099740e+00
1.029215e+01	-2.119029e+00
1.035160e+01	-2.138419e+00
1.041139e+01	-2.157854e+00
1.047153e+01	-2.177697e+00
1.053201e+01	-2.197184e+00
1.059284e+01	-2.217240e+00
1.065403e+01	-2.237512e+00
1.071556e+01	-2.257679e+00
1.077746e+01	-2.277851e+00
1.083971e+01	-2.298159e+00
1.090232e+01	-2.319108e+00
1.096529e+01	-2.339765e+00
1.102862e+01	-2.360800e+00
1.109232e+01	-2.381894e+00
1.115639e+01	-2.403056e+00
1.122083e+01	-2.424278e+00
1.128564e+01	-2.445720e+00
1.135083e+01	-2.467364e+00
1.141639e+01	-2.488975e+00
1.148233e+01	-2.510788e+00
1.154865e+01	-2.533006e+00
1.161536e+01	-2.555173e+00
1.168245e+01	-2.577453e+00
1.174992e+01	-2.599915e+00
1.181779e+01	-2.622547e+00
1.188605e+01	-2.645368e+00
1.195470e+01	-2.668138e+00
1.202375e+01	-2.691159e+00
1.209320e+01	-2.714386e+00
1.216305e+01	-2.737800e+00
1.223330e+01	-2.761229e+00
1.230396e+01	-2.785131e+00
1.237503e+01	-2.808693e+00
1.244651e+01	-2.832262e+00
1.251840e+01	-2.856457e+00
1.259070e+01	-2.881023e+00
1.266343e+01	-2.904847e+00
1.273657e+01	-2.929545e+00
1.281014e+01	-2.954311e+00
1.288413e+01	-2.978862e+00
1.295855e+01	-3.003648e+00
1.303339e+01	-3.028773e+00
1.310867e+01	-3.053811e+00
1.318439e+01	-3.079383e+00
1.326054e+01	-3.104674e+00
1.333713e+01	-3.130633e+00
1.341417e+01	-3.156266e+00
1.349165e+01	-3.182013e+00
1.356958e+01	-3.208318e+00
1.364795e+01	-3.234347e+00
1.372678e+01	-3.260818e+00
1.380607e+01	-3.287104e+00
1.388581e+01	-3.313918e+00
1.396602e+01	-3.340766e+00
1.404668e+01	-3.367398e+00
1.412782e+01	-3.394523e+00
1.420942e+01	-3.421903e+00
1.429149e+01	-3.449045e+00
1.437404e+01	-3.476655e+00
1.445706e+01	-3.504150e+00
1.454057e+01	-3.531857e+00
1.462455e+01	-3.559686e+00
1.470902e+01	-3.587966e+00
1.479398e+01	-3.615891e+00
1.487943e+01	-3.644508e+00
1.496537e+01	-3.673079e+00
1.505181e+01	-3.701565e+00
1.513875e+01	-3.730199e+00
1.522619e+01	-3.759173e+00
1.531414e+01	-3.788469e+00
1.540259e+01	-3.817742e+00
1.549156e+01	-3.846825e+00
1.558103e+01	-3.876302e+00
1.567103e+01	-3.905826e+00
1.576155e+01	-3.935479e+00
1.585258e+01	-3.965361e+00
1.594415e+01	-3.995563e+00
1.603624e+01	-4.025853e+00
1.612886e+01	-4.056102e+00
1.622202e+01	-4.086402e+00
1.631572e+01	-4.116949e+00
1.640996e+01	-4.147763e+00
1.650474e+01	-4.178770e+00
1.660008e+01	-4.209630e+00
1.669596e+01	-4.240306e+00
1.679239e+01	-4.271991e+00
1.688938e+01	-4.303468e+00
1.698694e+01	-4.334810e+00
1.708505e+01	-4.366540e+00
1.718373e+01	-4.398122e+00
1.728299e+01	-4.430300e+00
1.738281e+01	-4.462491e+00
1.748322e+01	-4.494443e+00
1.758420e+01	-4.526738e+00
1.768576e+01	-4.559092e+00
1.778792e+01	-4.591847e+00
1.789066e+01	-4.624840e+00
1.799399e+01	-4.657331e+00
1.809793e+01	-4.690147e+00
1.820246e+01	-4.723458e+00
1.830760e+01	-4.756344e+00
1.841334e+01	-4.789994e+00
1.851969e+01	-4.823537e+00
1.862666e+01	-4.857239e+00
1.873425e+01	-4.890987e+00
1.884246e+01	-4.924753e+00
1.895129e+01	-4.958585e+00
1.906075e+01	-4.992796e+00
1.917085e+01	-5.027056e+00
1.928158e+01	-5.061467e+00
1.939295e+01	-5.095835e+00
1.950496e+01	-5.130454e+00
1.961762e+01	-5.165167e+00
1.973093e+01	-5.200137e+00
1.984490e+01	-5.235056e+00
1.995952e+01	-5.270190e+00
2.007480e+01	-5.305340e+00
2.019076e+01	-5.340443e+00
2.030738e+01	-5.376340e+00
2.042467e+01	-5.411818e+00
2.054264e+01	-5.447286e+00
2.066130e+01	-5.483280e+00
2.078064e+01	-5.519014e+00
2.090066e+01	-5.555301e+00
2.102139e+01	-5.591656e+00
2.114280e+01	-5.628078e+00
2.126492e+01	-5.664067e+00
2.138775e+01	-5.700740e+00
2.151128e+01	-5.737257e+00
2.163553e+01	-5.774035e+00
2.176050e+01	-5.810804e+00
2.188619e+01	-5.847724e+00
2.201260e+01	-5.884546e+00
2.213974e+01	-5.921875e+00
2.226762e+01	-5.959386e+00
2.239624e+01	-5.996436e+00
2.252560e+01	-6.034189e+00
2.265571e+01	-6.071695e+00
2.278656e+01	-6.109456e+00
2.291818e+01	-6.147486e+00
2.305055e+01	-6.184948e+00
2.318369e+01	-6.223238e+00
2.331760e+01	-6.261816e+00
2.345228e+01	-6.299520e+00
2.358774e+01	-6.338223e+00
2.372398e+01	-6.376311e+00
2.386101e+01	-6.414855e+00
2.399883e+01	-6.453678e+00
2.413745e+01	-6.492682e+00
2.427686e+01	-6.531301e+00
2.441709e+01	-6.570636e+00
2.455812e+01	-6.609322e+00
2.469997e+01	-6.648391e+00
2.484263e+01	-6.687699e+00
2.498612e+01	-6.726901e+00
2.513044e+01	-6.766583e+00
2.527559e+01	-6.806098e+00
2.542158e+01	-6.845612e+00
2.556842e+01	-6.885423e+00
2.571610e+01	-6.925229e+00
2.586463e+01	-6.965267e+00
2.601403e+01	-7.005393e+00
2.616428e+01	-7.045466e+00
2.631541e+01	-7.085001e+00
2.646740e+01	-7.125765e+00
2.662028e+01	-7.166108e+00
2.677404e+01	-7.206681e+00
2.692868e+01	-7.247277e+00
2.708422e+01	-7.287939e+00
2.724066e+01	-7.328471e+00
2.739800e+01	-7.369328e+00
2.755625e+01	-7.410008e+00
2.771541e+01	-7.451013e+00
2.787550e+01	-7.492264e+00
2.803650e+01	-7.533266e+00
2.819844e+01	-7.574584e+00
2.836131e+01	-7.616145e+00
2.852513e+01	-7.657510e+00
2.868989e+01	-7.699121e+00
2.885560e+01	-7.740528e+00
2.902227e+01	-7.782194e+00
2.918990e+01	-7.823543e+00
2.935850e+01	-7.865455e+00
2.952807e+01	-7.907655e+00
2.969863e+01	-7.949648e+00
2.987016e+01	-7.991505e+00
3.004269e+01	-8.033626e+00
3.021622e+01	-8.076059e+00
3.039075e+01	-8.118246e+00
3.056628e+01	-8.160549e+00
3.074283e+01	-8.202841e+00
3.092040e+01	-8.245505e+00
3.109900e+01	-8.288004e+00
3.127862e+01	-8.330396e+00
3.145929e+01	-8.373490e+00
3.164099e+01	-8.416143e+00
3.182375e+01	-8.459004e+00
3.200756e+01	-8.501862e+00
3.219244e+01	-8.544773e+00
3.237838e+01	-8.587958e+00
3.256540e+01	-8.630975e+00
3.275349e+01	-8.674564e+00
3.294268e+01	-8.717608e+00
3.313295e+01	-8.760998e+00
3.332433e+01	-8.804219e+00
3.351681e+01	-8.847844e+00
3.371040e+01	-8.891782e+00
3.390511e+01	-8.934683e+00
3.410094e+01	-8.978761e+00
3.429791e+01	-9.022403e+00
3.449601e+01	-9.066131e+00
3.469526e+01	-9.109810e+00
3.489566e+01	-9.154010e+00
3.509721e+01	-9.197998e+00
3.529993e+01	-9.242181e+00
3.550382e+01	-9.285857e+00
3.570889e+01	-9.330171e+00
3.591515e+01	-9.374226e+00
3.612259e+01	-9.418543e+00
3.633123e+01	-9.462873e+00
3.654108e+01	-9.507434e+00
3.675214e+01	-9.552198e+00
3.696442e+01	-9.595995e+00
3.717792e+01	-9.640352e+00
3.739266e+01	-9.685449e+00
3.760864e+01	-9.730152e+00
3.782587e+01	-9.775259e+00
3.804435e+01	-9.819653e+00
3.826409e+01	-9.864395e+00
3.848510e+01	-9.909307e+00
3.870739e+01	-9.954457e+00
3.893096e+01	-9.999217e+00
3.915583e+01	-1.004463e+01
3.938199e+01	-1.008963e+01
3.960946e+01	-1.013484e+01
3.983824e+01	-1.018000e+01
4.006834e+01	-1.022537e+01
4.029978e+01	-1.027059e+01
4.053255e+01	-1.031655e+01
4.076666e+01	-1.036092e+01
4.100213e+01	-1.040678e+01
4.123896e+01	-1.045213e+01
4.147715e+01	-1.049722e+01
4.171672e+01	-1.054326e+01
4.195767e+01	-1.058847e+01
4.220002e+01	-1.063495e+01
4.244377e+01	-1.068041e+01
4.268892e+01	-1.072624e+01
4.293549e+01	-1.077184e+01
4.318348e+01	-1.081799e+01
4.343291e+01	-1.086331e+01
4.368377e+01	-1.090979e+01
4.393609e+01	-1.095617e+01
4.418986e+01	-1.100149e+01
4.444510e+01	-1.104774e+01
4.470182e+01	-1.109327e+01
4.496001e+01	-1.114029e+01
4.521970e+01	-1.118659e+01
4.548089e+01	-1.123252e+01
4.574358e+01	-1.127858e+01
4.600779e+01	-1.132607e+01
4.627353e+01	-1.137096e+01
4.654081e+01	-1.141770e+01
4.680963e+01	-1.146457e+01
4.708000e+01	-1.151072e+01
4.735193e+01	-1.155703e+01
4.762543e+01	-1.160376e+01
4.790051e+01	-1.165006e+01
4.817719e+01	-1.169668e+01
4.845545e+01	-1.174383e+01
4.873533e+01	-1.179051e+01
4.901682e+01	-1.183700e+01
4.929994e+01	-1.188392e+01
4.958470e+01	-1.193071e+01
4.987110e+01	-1.197780e+01
5.015915e+01	-1.202480e+01
5.044887e+01	-1.207134e+01
5.074026e+01	-1.211848e+01
5.103333e+01	-1.216499e+01
5.132810e+01	-1.221233e+01
5.162457e+01	-1.225960e+01
5.192275e+01	-1.230661e+01
5.222265e+01	-1.235282e+01
5.252429e+01	-1.240055e+01
5.282767e+01	-1.244764e+01
5.313280e+01	-1.249480e+01
5.343969e+01	-1.254217e+01
5.374836e+01	-1.258932e+01
5.405880e+01	-1.263591e+01
5.437105e+01	-1.268411e+01
5.468509e+01	-1.273130e+01
5.500095e+01	-1.277928e+01
5.531863e+01	-1.282646e+01
5.563815e+01	-1.287310e+01
5.595951e+01	-1.292022e+01
5.628273e+01	-1.296837e+01
5.660782e+01	-1.301575e+01
5.693479e+01	-1.306390e+01
5.726364e+01	-1.311129e+01
5.759439e+01	-1.315889e+01
5.792705e+01	-1.320641e+01
5.826164e+01	-1.325313e+01
5.859815e+01	-1.330142e+01
5.893662e+01	-1.334930e+01
5.927703e+01	-1.339751e+01
5.961941e+01	-1.344520e+01
5.996377e+01	-1.349293e+01
6.031012e+01	-1.354064e+01
6.065847e+01	-1.358872e+01
6.100883e+01	-1.363563e+01
6.136121e+01	-1.368398e+01
6.171563e+01	-1.373242e+01
6.207210e+01	-1.377965e+01
6.243063e+01	-1.382822e+01
6.279122e+01	-1.387585e+01
6.315390e+01	-1.392313e+01
6.351868e+01	-1.397180e+01
6.388556e+01	-1.401994e+01
6.425456e+01	-1.406803e+01
6.462569e+01	-1.411527e+01
6.499897e+01	-1.416320e+01
6.537440e+01	-1.421228e+01
6.575200e+01	-1.426016e+01
6.613178e+01	-1.430862e+01
6.651375e+01	-1.435680e+01
6.689793e+01	-1.440484e+01
6.728433e+01	-1.445320e+01
6.767297e+01	-1.450124e+01
6.806384e+01	-1.454863e+01
6.845698e+01	-1.459750e+01
6.885238e+01	-1.464646e+01
6.925007e+01	-1.469399e+01
6.965005e+01	-1.474260e+01
7.005235e+01	-1.479059e+01
7.045697e+01	-1.484001e+01
7.086393e+01	-1.488778e+01
7.127323e+01	-1.493674e+01
7.168490e+01	-1.498469e+01
7.209895e+01	-1.503388e+01
7.251539e+01	-1.508207e+01
7.293424e+01	-1.513056e+01
7.335551e+01	-1.517899e+01
7.377920e+01	-1.522732e+01
7.420535e+01	-1.527545e+01
7.463396e+01	-1.532363e+01
7.506504e+01	-1.537278e+01
7.549861e+01	-1.542140e+01
7.593469e+01	-1.547048e+01
7.637328e+01	-1.551845e+01
7.681441e+01	-1.556705e+01
7.725809e+01	-1.561631e+01
7.770433e+01	-1.566469e+01
7.815315e+01	-1.571267e+01
7.860456e+01	-1.576251e+01
7.905857e+01	-1.581089e+01
7.951521e+01	-1.585887e+01
7.997449e+01	-1.590801e+01
8.043642e+01	-1.595630e+01
8.090102e+01	-1.600525e+01
8.136830e+01	-1.605408e+01
8.183828e+01	-1.610264e+01
8.231097e+01	-1.615133e+01
8.278640e+01	-1.620094e+01
8.326457e+01	-1.624887e+01
8.374550e+01	-1.629834e+01
8.422921e+01	-1.634699e+01
8.471572e+01	-1.639625e+01
8.520503e+01	-1.644521e+01
8.569717e+01	-1.649451e+01
8.619215e+01	-1.654341e+01
8.669000e+01	-1.659270e+01
8.719071e+01	-1.663970e+01
8.769432e+01	-1.668870e+01
8.820084e+01	-1.673865e+01
8.871029e+01	-1.678829e+01
8.922267e+01	-1.683749e+01
8.973802e+01	-1.688550e+01
9.025634e+01	-1.693459e+01
9.077766e+01	-1.698475e+01
9.130199e+01	-1.703309e+01
9.182935e+01	-1.708135e+01
9.235975e+01	-1.713066e+01
9.289321e+01	-1.718033e+01
9.342976e+01	-1.722904e+01
9.396941e+01	-1.727867e+01
9.451217e+01	-1.732731e+01
9.505807e+01	-1.737555e+01
9.560712e+01	-1.742610e+01
9.615934e+01	-1.747501e+01
9.671476e+01	-1.752326e+01
9.727338e+01	-1.757353e+01
9.783522e+01	-1.762168e+01
9.840032e+01	-1.767125e+01
9.896867e+01	-1.771984e+01
9.954031e+01	-1.777033e+01
1.001153e+02	-1.781998e+01
1.006935e+02	-1.786956e+01
1.012751e+02	-1.791672e+01
1.018601e+02	-1.796660e+01
1.024484e+02	-1.801600e+01
1.030402e+02	-1.806463e+01
1.036353e+02	-1.811356e+01
1.042339e+02	-1.816295e+01
1.048360e+02	-1.821346e+01
1.054415e+02	-1.826142e+01
1.060505e+02	-1.831051e+01
1.066631e+02	-1.835979e+01
1.072791e+02	-1.840979e+01
1.078988e+02	-1.845991e+01
1.085220e+02	-1.850933e+01
1.091488e+02	-1.855636e+01
1.097793e+02	-1.860790e+01
1.104133e+02	-1.865748e+01
1.110511e+02	-1.870577e+01
1.116925e+02	-1.875592e+01
1.123376e+02	-1.880471e+01
1.129865e+02	-1.885354e+01
1.136391e+02	-1.890317e+01
1.142955e+02	-1.895282e+01
1.149556e+02	-1.900172e+01
1.156196e+02	-1.905245e+01
1.162874e+02	-1.910073e+01
1.169591e+02	-1.915019e+01
1.176347e+02	-1.919940e+01
1.183141e+02	-1.925036e+01
1.189975e+02	-1.929900e+01
1.196848e+02	-1.934799e+01
1.203761e+02	-1.939736e+01
1.210714e+02	-1.944676e+01
1.217707e+02	-1.949611e+01
1.224740e+02	-1.954591e+01
1.231814e+02	-1.959549e+01
1.238929e+02	-1.964345e+01
1.246085e+02	-1.969439e+01
1.253283e+02	-1.974329e+01
1.260522e+02	-1.979381e+01
1.267802e+02	-1.984233e+01
1.275125e+02	-1.989186e+01
1.282490e+02	-1.994131e+01
1.289898e+02	-1.999185e+01
1.297348e+02	-2.004174e+01
1.304842e+02	-2.009119e+01
1.312378e+02	-2.014013e+01
1.319959e+02	-2.019098e+01
1.327583e+02	-2.023930e+01
1.335251e+02	-2.028839e+01
1.342963e+02	-2.033942e+01
1.350720e+02	-2.038937e+01
1.358522e+02	-2.043889e+01
1.366368e+02	-2.048758e+01
1.374260e+02	-2.053704e+01
1.382198e+02	-2.058781e+01
1.390182e+02	-2.063627e+01
1.398211e+02	-2.068673e+01
1.406287e+02	-2.073446e+01
1.414410e+02	-2.078340e+01
1.422579e+02	-2.083516e+01
1.430796e+02	-2.088253e+01
1.439060e+02	-2.093440e+01
1.447372e+02	-2.098435e+01
1.455732e+02	-2.103346e+01
1.464141e+02	-2.108183e+01
1.472597e+02	-2.113367e+01
1.481103e+02	-2.118175e+01
1.489658e+02	-2.123268e+01
1.498262e+02	-2.128053e+01
1.506916e+02	-2.133069e+01
1.515620e+02	-2.138063e+01
1.524374e+02	-2.142912e+01
1.533179e+02	-2.147971e+01
1.542034e+02	-2.153002e+01
1.550941e+02	-2.157905e+01
1.559899e+02	-2.163094e+01
1.568909e+02	-2.167990e+01
1.577971e+02	-2.172809e+01
1.587085e+02	-2.177869e+01
1.596252e+02	-2.182889e+01
1.605472e+02	-2.187619e+01
1.614745e+02	-2.192639e+01
1.624072e+02	-2.197848e+01
1.633453e+02	-2.202831e+01
1.642887e+02	-2.207525e+01
1.652377e+02	-2.212774e+01
1.661921e+02	-2.217566e+01
1.671520e+02	-2.222575e+01
1.681175e+02	-2.227753e+01
1.690885e+02	-2.232481e+01
1.700651e+02	-2.237629e+01
1.710474e+02	-2.242643e+01
1.720354e+02	-2.247417e+01
1.730291e+02	-2.252169e+01
1.740285e+02	-2.257336e+01
1.750337e+02	-2.262480e+01
1.760446e+02	-2.267259e+01
1.770615e+02	-2.272173e+01
1.780842e+02	-2.277391e+01
1.791128e+02	-2.282206e+01
1.801473e+02	-2.287285e+01
1.811878e+02	-2.292461e+01
1.822344e+02	-2.297005e+01
1.832870e+02	-2.302302e+01
1.843456e+02	-2.307106e+01
1.854104e+02	-2.312228e+01
1.864813e+02	-2.317005e+01
1.875584e+02	-2.322201e+01
1.886418e+02	-2.327219e+01
1.897313e+02	-2.332037e+01
1.908272e+02	-2.337027e+01
1.919294e+02	-2.342178e+01
1.930380e+02	-2.347187e+01
1.941530e+02	-2.352125e+01
1.952744e+02	-2.356989e+01
1.964023e+02	-2.362251e+01
1.975367e+02	-2.367121e+01
1.986777e+02	-2.372214e+01
1.998252e+02	-2.376687e+01
2.009794e+02	-2.381927e+01
2.021403e+02	-2.387053e+01
2.033078e+02	-2.391832e+01
2.044821e+02	-2.397039e+01
2.056632e+02	-2.402032e+01
2.068511e+02	-2.406837e+01
2.080459e+02	-2.411866e+01
2.092475e+02	-2.416840e+01
2.104561e+02	-2.421664e+01
2.116717e+02	-2.427033e+01
2.128943e+02	-2.431988e+01
2.141240e+02	-2.437019e+01
2.153608e+02	-2.441863e+01
2.166047e+02	-2.446574e+01
2.178558e+02	-2.451744e+01
2.191141e+02	-2.456864e+01
2.203797e+02	-2.461765e+01
2.216526e+02	-2.466846e+01
2.229329e+02	-2.471703e+01
2.242205e+02	-2.476964e+01
2.255156e+02	-2.481720e+01
2.268182e+02	-2.486733e+01
2.281283e+02	-2.491547e+01
2.294459e+02	-2.496909e+01
2.307712e+02	-2.501764e+01
2.321041e+02	-2.506495e+01
2.334447e+02	-2.511431e+01
2.347931e+02	-2.516356e+01
2.361493e+02	-2.521516e+01
2.375133e+02	-2.526608e+01
2.388851e+02	-2.531434e+01
2.402649e+02	-2.536707e+01
2.416527e+02	-2.541484e+01
2.430484e+02	-2.546750e+01
2.444523e+02	-2.551402e+01
2.458642e+02	-2.556782e+01
2.472843e+02	-2.561638e+01
2.487126e+02	-2.566553e+01
2.501492e+02	-2.571527e+01
2.515940e+02	-2.576624e+01
2.530472e+02	-2.581683e+01
2.545088e+02	-2.586518e+01
2.559789e+02	-2.591666e+01
2.574574e+02	-2.596624e+01
2.589444e+02	-2.601475e+01
2.604401e+02	-2.606293e+01
2.619444e+02	-2.611497e+01
2.634574e+02	-2.616232e+01
2.649791e+02	-2.621622e+01
2.665096e+02	-2.626369e+01
2.680489e+02	-2.631375e+01
2.695972e+02	-2.636453e+01
2.711544e+02	-2.641779e+01
2.727205e+02	-2.646635e+01
2.742958e+02	-2.651660e+01
2.758801e+02	-2.656528e+01
2.774736e+02	-2.661346e+01
2.790762e+02	-2.666509e+01
2.806882e+02	-2.671440e+01
2.823094e+02	-2.676389e+01
2.839400e+02	-2.681586e+01
2.855800e+02	-2.686532e+01
2.872295e+02	-2.691589e+01
2.888886e+02	-2.696133e+01
2.905572e+02	-2.701622e+01
2.922354e+02	-2.706659e+01
2.939234e+02	-2.711367e+01
2.956211e+02	-2.716134e+01
2.973286e+02	-2.721158e+01
2.990459e+02	-2.726180e+01
3.007732e+02	-2.731590e+01
3.025104e+02	-2.736348e+01
3.042577e+02	-2.741154e+01
3.060151e+02	-2.746397e+01
3.077826e+02	-2.751518e+01
3.095604e+02	-2.756385e+01
3.113484e+02	-2.761584e+01
3.131467e+02	-2.766922e+01
3.149554e+02	-2.771166e+01
3.167746e+02	-2.776327e+01
3.186043e+02	-2.781624e+01
3.204445e+02	-2.786522e+01
3.222954e+02	-2.791204e+01
3.241570e+02	-2.796316e+01
3.260293e+02	-2.801558e+01
3.279124e+02	-2.806912e+01
3.298064e+02	-2.811916e+01
3.317114e+02	-2.816318e+01
3.336273e+02	-2.821441e+01
3.355544e+02	-2.826660e+01
3.374925e+02	-2.831289e+01
3.394418e+02	-2.836208e+01
3.414024e+02	-2.841648e+01
3.433744e+02	-2.846945e+01
3.453577e+02	-2.851576e+01
3.473525e+02	-2.856586e+01
3.493588e+02	-2.861670e+01
3.513766e+02	-2.866787e+01
3.534062e+02	-2.871340e+01
3.554474e+02	-2.876467e+01
3.575005e+02	-2.881529e+01
3.595654e+02	-2.886302e+01
3.616422e+02	-2.891899e+01
3.637311e+02	-2.896251e+01
3.658320e+02	-2.901566e+01
3.679450e+02	-2.907084e+01
3.700702e+02	-2.911335e+01
3.722077e+02	-2.916602e+01
3.743576e+02	-2.921727e+01
3.765199e+02	-2.926400e+01
3.786946e+02	-2.931074e+01
3.808820e+02	-2.936105e+01
3.830819e+02	-2.941206e+01
3.852946e+02	-2.946783e+01
3.875200e+02	-2.951698e+01
3.897583e+02	-2.956257e+01
3.920096e+02	-2.961531e+01
3.942738e+02	-2.966620e+01
3.965511e+02	-2.971380e+01
3.988416e+02	-2.976762e+01
4.011452e+02	-2.981611e+01
4.034622e+02	-2.987186e+01
4.057926e+02	-2.991765e+01
4.081365e+02	-2.996563e+01
4.104938e+02	-3.001737e+01
4.128648e+02	-3.006302e+01
4.152495e+02	-3.011571e+01
4.176480e+02	-3.016781e+01
4.200603e+02	-3.022124e+01
4.224866e+02	-3.026704e+01
4.249268e+02	-3.031154e+01
4.273812e+02	-3.036949e+01
4.298497e+02	-3.041853e+01
4.323325e+02	-3.046761e+01
4.348297e+02	-3.052551e+01
4.373412e+02	-3.056680e+01
4.398673e+02	-3.061876e+01
4.424079e+02	-3.066754e+01
4.449633e+02	-3.072128e+01
4.475334e+02	-3.076940e+01
4.501183e+02	-3.082009e+01
4.527182e+02	-3.086746e+01
4.553330e+02	-3.091752e+01
4.579630e+02	-3.097092e+01
4.606082e+02	-3.101856e+01
4.632687e+02	-3.107327e+01
4.659445e+02	-3.111611e+01
4.686358e+02	-3.117358e+01
4.713426e+02	-3.122157e+01
4.740650e+02	-3.127401e+01
4.768032e+02	-3.132255e+01
4.795572e+02	-3.137199e+01
4.823271e+02	-3.141986e+01
4.851130e+02	-3.147447e+01
4.879150e+02	-3.152094e+01
4.907332e+02	-3.157100e+01
4.935676e+02	-3.162479e+01
4.964185e+02	-3.166915e+01
4.992858e+02	-3.172705e+01
5.021696e+02	-3.177208e+01
5.050701e+02	-3.182038e+01
5.079874e+02	-3.187497e+01
5.109215e+02	-3.192487e+01
5.138726e+02	-3.197466e+01
5.168407e+02	-3.202101e+01
5.198259e+02	-3.207575e+01
5.228284e+02	-3.212259e+01
5.258482e+02	-3.217827e+01
5.288855e+02	-3.222425e+01
5.319403e+02	-3.227853e+01
5.350128e+02	-3.232333e+01
5.381030e+02	-3.237432e+01
5.412111e+02	-3.242744e+01
5.443371e+02	-3.247399e+01
5.474812e+02	-3.252540e+01
5.506434e+02	-3.258275e+01
5.538239e+02	-3.262200e+01
5.570228e+02	-3.267386e+01
5.602401e+02	-3.272115e+01
5.634760e+02	-3.277074e+01
5.667306e+02	-3.282795e+01
5.700040e+02	-3.287005e+01
5.732964e+02	-3.292642e+01
5.766077e+02	-3.298272e+01
5.799382e+02	-3.303161e+01
5.832879e+02	-3.308023e+01
5.866569e+02	-3.312736e+01
5.900454e+02	-3.318179e+01
5.934535e+02	-3.322656e+01
5.968813e+02	-3.327874e+01
6.003288e+02	-3.333926e+01
6.037963e+02	-3.338679e+01
6.072838e+02	-3.343429e+01
6.107914e+02	-3.348216e+01
6.143194e+02	-3.352269e+01
6.178676e+02	-3.357963e+01
6.214364e+02	-3.363588e+01
6.250258e+02	-3.368319e+01
6.286359e+02	-3.372968e+01
6.322669e+02	-3.377418e+01
6.359189e+02	-3.382997e+01
6.395919e+02	-3.387518e+01
6.432862e+02	-3.394423e+01
6.470017e+02	-3.398527e+01
6.507388e+02	-3.403549e+01
6.544974e+02	-3.408030e+01
6.582778e+02	-3.413455e+01
6.620800e+02	-3.417918e+01
6.659041e+02	-3.424010e+01
6.697504e+02	-3.428290e+01
6.736188e+02	-3.433806e+01
6.775096e+02	-3.437579e+01
6.814229e+02	-3.443937e+01
6.853587e+02	-3.449357e+01
6.893173e+02	-3.453609e+01
6.932988e+02	-3.459463e+01
6.973033e+02	-3.463458e+01
7.013309e+02	-3.468760e+01
