Frequency(Hz)	Magnitude(dB)
1.000000e+01	-2.003860e+00
1.005776e+01	-2.022296e+00
1.011585e+01	-2.041190e+00
1.017428e+01	-2.059712e+00
1.023305e+01	-2.078804e+00
1.029215e+01	-2.097800e+00
1.035160e+01	-2.117125e+00
1.041139e+01	-2.136458e+00
1.047153e+01	-2.155727e+00
1.053201e+01	-2.175485e+00
1.059284e+01	-2.195353e+00
1.065403e+01	-2.215525e+00
1.071556e+01	-2.235465e+00
1.077746e+01	-2.255465e+00
1.083971e+01	-2.275614e+00
1.090232e+01	-2.296171e+00
1.096529e+01	-2.317024e+00
1.102862e+01	-2.337645e+00
1.109232e+01	-2.358639e+00
1.115639e+01	-2.379625e+00
1.122083e+01	-2.400836e+00
1.128564e+01	-2.422092e+00
1.135083e+01	-2.443440e+00
1.141639e+01	-2.465282e+00
1.148233e+01	-2.487040e+00
1.154865e+01	-2.508997e+00
1.161536e+01	-2.530881e+00
1.168245e+01	-2.553103e+00
1.174992e+01	-2.575402e+00
1.181779e+01	-2.597680e+00
1.188605e+01	-2.620534e+00
1.195470e+01	-2.643226e+00
1.202375e+01	-2.666058e+00
1.209320e+01	-2.688778e+00
1.216305e+01	-2.712044e+00
1.223330e+01	-2.735301e+00
1.230396e+01	-2.759147e+00
1.237503e+01	-2.782396e+00
1.244651e+01	-2.806155e+00
1.251840e+01	-2.830037e+00
1.259070e+01	-2.854182e+00
1.266343e+01	-2.878362e+00
1.273657e+01	-2.902689e+00
1.281014e+01	-2.926820e+00
1.288413e+01	-2.951749e+00
1.295855e+01	-2.976507e+00
1.303339e+01	-3.001301e+00
1.310867e+01	-3.026523e+00
1.318439e+01	-3.051591e+00
1.326054e+01	-3.076835e+00
1.333713e+01	-3.102233e+00
1.341417e+01	-3.128136e+00
1.349165e+01	-3.153675e+00
1.356958e+01	-3.179637e+00
1.364795e+01	-3.205579e+00
1.372678e+01	-3.231865e+00
1.380607e+01	-3.258157e+00
1.388581e+01	-3.284174e+00
1.396602e+01	-3.311297e+00
1.404668e+01	-3.337970e+00
1.412782e+01	-3.364889e+00
1.420942e+01	-3.392047e+00
1.429149e+01	-3.419105e+00
1.437404e+01	-3.446453e+00
1.445706e+01	-3.474239e+00
1.454057e+01	-3.501698e+00
1.462455e+01	-3.529645e+00
1.470902e+01	-3.557236e+00
1.479398e+01	-3.585249e+00
1.487943e+01	-3.613267e+00
1.496537e+01	-3.641780e+00
1.505181e+01	-3.670215e+00
1.513875e+01	-3.698809e+00
1.522619e+01	-3.727674e+00
1.531414e+01	-3.756608e+00
1.540259e+01	-3.785625e+00
1.549156e+01	-3.814587e+00
1.558103e+01	-3.844212e+00
1.567103e+01	-3.873467e+00
1.576155e+01	-3.903045e+00
1.585258e+01	-3.932808e+00
1.594415e+01	-3.962659e+00
1.603624e+01	-3.992254e+00
1.612886e+01	-4.022828e+00
1.622202e+01	-4.053156e+00
1.631572e+01	-4.083303e+00
1.640996e+01	-4.114165e+00
1.650474e+01	-4.144859e+00
1.660008e+01	-4.175423e+00
1.669596e+01	-4.206743e+00
1.679239e+01	-4.237570e+00
1.688938e+01	-4.268718e+00
1.698694e+01	-4.300436e+00
1.708505e+01	-4.331879e+00
1.718373e+01	-4.363301e+00
1.728299e+01	-4.395351e+00
1.738281e+01	-4.427261e+00
1.748322e+01	-4.458964e+00
1.758420e+01	-4.491177e+00
1.768576e+01	-4.523580e+00
1.778792e+01	-4.555890e+00
1.789066e+01	-4.588629e+00
1.799399e+01	-4.621391e+00
1.809793e+01	-4.654128e+00
1.820246e+01	-4.687074e+00
1.830760e+01	-4.720156e+00
1.841334e+01	-4.753318e+00
1.851969e+01	-4.786801e+00
1.862666e+01	-4.819995e+00
1.873425e+01	-4.853711e+00
1.884246e+01	-4.887400e+00
1.895129e+01	-4.921389e+00
1.906075e+01	-4.955268e+00
1.917085e+01	-4.989873e+00
1.928158e+01	-5.023878e+00
1.939295e+01	-5.058034e+00
1.950496e+01	-5.092560e+00
1.961762e+01	-5.127118e+00
1.973093e+01	-5.162087e+00
1.984490e+01	-5.196809e+00
1.995952e+01	-5.231687e+00
2.007480e+01	-5.266651e+00
2.019076e+01	-5.301852e+00
2.030738e+01	-5.337149e+00
2.042467e+01	-5.372848e+00
2.054264e+01	-5.408413e+00
2.066130e+01	-5.444206e+00
2.078064e+01	-5.479507e+00
2.090066e+01	-5.515736e+00
2.102139e+01	-5.551391e+00
2.114280e+01	-5.587697e+00
2.126492e+01	-5.624233e+00
2.138775e+01	-5.660856e+00
2.151128e+01	-5.697251e+00
2.163553e+01	-5.733836e+00
2.176050e+01	-5.770601e+00
2.188619e+01	-5.807362e+00
2.201260e+01	-5.844312e+00
2.213974e+01	-5.881283e+00
2.226762e+01	-5.918388e+00
2.239624e+01	-5.955752e+00
2.252560e+01	-5.993354e+00
2.265571e+01	-6.030488e+00
2.278656e+01	-6.068161e+00
2.291818e+01	-6.105682e+00
2.305055e+01	-6.143994e+00
2.318369e+01	-6.181581e+00
2.331760e+01	-6.219414e+00
2.345228e+01	-6.257689e+00
2.358774e+01	-6.296308e+00
2.372398e+01	-6.334560e+00
2.386101e+01	-6.372835e+00
2.399883e+01	-6.411449e+00
2.413745e+01	-6.450098e+00
2.427686e+01	-6.488818e+00
2.441709e+01	-6.527625e+00
2.455812e+01	-6.566481e+00
2.469997e+01	-6.605465e+00
2.484263e+01	-6.644690e+00
2.498612e+01	-6.683472e+00
2.513044e+01	-6.723085e+00
2.527559e+01	-6.762803e+00
2.542158e+01	-6.802450e+00
2.556842e+01	-6.842068e+00
2.571610e+01	-6.881496e+00
2.586463e+01	-6.921677e+00
2.601403e+01	-6.961315e+00
2.616428e+01	-7.001442e+00
2.631541e+01	-7.041328e+00
2.646740e+01	-7.081488e+00
2.662028e+01	-7.122147e+00
2.677404e+01	-7.162293e+00
2.692868e+01	-7.203141e+00
2.708422e+01	-7.243352e+00
2.724066e+01	-7.283883e+00
2.739800e+01	-7.324626e+00
2.755625e+01	-7.365326e+00
2.771541e+01	-7.406300e+00
2.787550e+01	-7.447080e+00
2.803650e+01	-7.488045e+00
2.819844e+01	-7.529591e+00
2.836131e+01	-7.570661e+00
2.852513e+01	-7.611770e+00
2.868989e+01	-7.653638e+00
2.885560e+01	-7.694863e+00
2.902227e+01	-7.736708e+00
2.918990e+01	-7.777956e+00
2.935850e+01	-7.820000e+00
2.952807e+01	-7.861362e+00
2.969863e+01	-7.903289e+00
2.987016e+01	-7.945535e+00
3.004269e+01	-7.987605e+00
3.021622e+01	-8.029876e+00
3.039075e+01	-8.071807e+00
3.056628e+01	-8.113934e+00
3.074283e+01	-8.156144e+00
3.092040e+01	-8.198619e+00
3.109900e+01	-8.240733e+00
3.127862e+01	-8.283788e+00
3.145929e+01	-8.326299e+00
3.164099e+01	-8.369423e+00
3.182375e+01	-8.412244e+00
3.200756e+01	-8.454927e+00
3.219244e+01	-8.498016e+00
3.237838e+01	-8.540893e+00
3.256540e+01	-8.584190e+00
3.275349e+01	-8.626576e+00
3.294268e+01	-8.670136e+00
3.313295e+01	-8.712922e+00
3.332433e+01	-8.756919e+00
3.351681e+01	-8.799894e+00
3.371040e+01	-8.843390e+00
3.390511e+01	-8.886862e+00
3.410094e+01	-8.930735e+00
3.429791e+01	-8.974476e+00
3.449601e+01	-9.018137e+00
3.469526e+01	-9.061560e+00
3.489566e+01	-9.105674e+00
3.509721e+01	-9.149493e+00
3.529993e+01	-9.193493e+00
3.550382e+01	-9.237733e+00
3.570889e+01	-9.282190e+00
3.591515e+01	-9.325567e+00
3.612259e+01	-9.370102e+00
3.633123e+01	-9.414777e+00
3.654108e+01	-9.458480e+00
3.675214e+01	-9.502481e+00
3.696442e+01	-9.547135e+00
3.717792e+01	-9.591838e+00
3.739266e+01	-9.636402e+00
3.760864e+01	-9.681305e+00
3.782587e+01	-9.726196e+00
3.804435e+01	-9.770677e+00
3.826409e+01	-9.815682e+00
3.848510e+01	-9.860182e+00
3.870739e+01	-9.904961e+00
3.893096e+01	-9.950026e+00
3.915583e+01	-9.994696e+00
3.938199e+01	-1.004083e+01
3.960946e+01	-1.008506e+01
3.983824e+01	-1.013007e+01
4.006834e+01	-1.017500e+01
4.029978e+01	-1.022073e+01
4.053255e+01	-1.026616e+01
4.076666e+01	-1.031114e+01
4.100213e+01	-1.035666e+01
4.123896e+01	-1.040213e+01
4.147715e+01	-1.044761e+01
4.171672e+01	-1.049356e+01
4.195767e+01	-1.053907e+01
4.220002e+01	-1.058433e+01
4.244377e+01	-1.062949e+01
4.268892e+01	-1.067559e+01
4.293549e+01	-1.072129e+01
4.318348e+01	-1.076766e+01
4.343291e+01	-1.081375e+01
4.368377e+01	-1.085937e+01
4.393609e+01	-1.090506e+01
4.418986e+01	-1.095079e+01
4.444510e+01	-1.099748e+01
4.470182e+01	-1.104383e+01
4.496001e+01	-1.108939e+01
4.521970e+01	-1.113527e+01
4.548089e+01	-1.118156e+01
4.574358e+01	-1.122803e+01
4.600779e+01	-1.127463e+01
4.627353e+01	-1.132119e+01
4.654081e+01	-1.136698e+01
4.680963e+01	-1.141339e+01
4.708000e+01	-1.146018e+01
4.735193e+01	-1.150696e+01
4.762543e+01	-1.155288e+01
4.790051e+01	-1.159885e+01
4.817719e+01	-1.164629e+01
4.845545e+01	-1.169267e+01
4.873533e+01	-1.173942e+01
4.901682e+01	-1.178527e+01
4.929994e+01	-1.183252e+01
4.958470e+01	-1.187923e+01
4.987110e+01	-1.192605e+01
5.015915e+01	-1.197264e+01
5.044887e+01	-1.202048e+01
5.074026e+01	-1.206757e+01
5.103333e+01	-1.211429e+01
5.132810e+01	-1.216051e+01
5.162457e+01	-1.220765e+01
5.192275e+01	-1.225507e+01
5.222265e+01	-1.230191e+01
5.252429e+01	-1.234882e+01
5.282767e+01	-1.239630e+01
5.313280e+01	-1.244327e+01
5.343969e+01	-1.249065e+01
5.374836e+01	-1.253789e+01
5.405880e+01	-1.258553e+01
5.437105e+01	-1.263240e+01
5.468509e+01	-1.267965e+01
5.500095e+01	-1.272682e+01
5.531863e+01	-1.277484e+01
5.563815e+01	-1.282148e+01
5.595951e+01	-1.286929e+01
5.628273e+01	-1.291599e+01
5.660782e+01	-1.296391e+01
5.693479e+01	-1.301122e+01
5.726364e+01	-1.305986e+01
5.759439e+01	-1.310576e+01
5.792705e+01	-1.315364e+01
5.826164e+01	-1.320176e+01
5.859815e+01	-1.324885e+01
5.893662e+01	-1.329708e+01
5.927703e+01	-1.334474e+01
5.961941e+01	-1.339193e+01
5.996377e+01	-1.344083e+01
6.031012e+01	-1.348753e+01
6.065847e+01	-1.353564e+01
6.100883e+01	-1.358393e+01
6.136121e+01	-1.363180e+01
6.171563e+01	-1.367944e+01
6.207210e+01	-1.372740e+01
6.243063e+01	-1.377585e+01
6.279122e+01	-1.382317e+01
6.315390e+01	-1.387129e+01
6.351868e+01	-1.391915e+01
6.388556e+01	-1.396685e+01
6.425456e+01	-1.401576e+01
6.462569e+01	-1.406378e+01
6.499897e+01	-1.411064e+01
6.537440e+01	-1.415952e+01
6.575200e+01	-1.420738e+01
6.613178e+01	-1.425517e+01
6.651375e+01	-1.430345e+01
6.689793e+01	-1.435202e+01
6.728433e+01	-1.439971e+01
6.767297e+01	-1.444824e+01
6.806384e+01	-1.449644e+01
6.845698e+01	-1.454468e+01
6.885238e+01	-1.459370e+01
6.925007e+01	-1.464165e+01
6.965005e+01	-1.469063e+01
7.005235e+01	-1.473791e+01
7.045697e+01	-1.478636e+01
7.086393e+01	-1.483452e+01
7.127323e+01	-1.488339e+01
7.168490e+01	-1.493189e+01
7.209895e+01	-1.497990e+01
7.251539e+01	-1.502746e+01
7.293424e+01	-1.507746e+01
7.335551e+01	-1.512605e+01
7.377920e+01	-1.517360e+01
7.420535e+01	-1.522255e+01
7.463396e+01	-1.527116e+01
7.506504e+01	-1.531966e+01
7.549861e+01	-1.536723e+01
7.593469e+01	-1.541703e+01
7.637328e+01	-1.546528e+01
7.681441e+01	-1.551359e+01
7.725809e+01	-1.556220e+01
7.770433e+01	-1.561136e+01
7.815315e+01	-1.565933e+01
7.860456e+01	-1.570823e+01
7.905857e+01	-1.575732e+01
7.951521e+01	-1.580676e+01
7.997449e+01	-1.585494e+01
8.043642e+01	-1.590217e+01
8.090102e+01	-1.595257e+01
8.136830e+01	-1.600087e+01
8.183828e+01	-1.605017e+01
8.231097e+01	-1.609877e+01
8.278640e+01	-1.614780e+01
8.326457e+01	-1.619651e+01
8.374550e+01	-1.624450e+01
8.422921e+01	-1.629313e+01
8.471572e+01	-1.634372e+01
8.520503e+01	-1.639220e+01
8.569717e+01	-1.643977e+01
8.619215e+01	-1.648931e+01
8.669000e+01	-1.653725e+01
8.719071e+01	-1.658771e+01
8.769432e+01	-1.663769e+01
8.820084e+01	-1.668559e+01
8.871029e+01	-1.673431e+01
8.922267e+01	-1.678321e+01
8.973802e+01	-1.683244e+01
9.025634e+01	-1.688238e+01
9.077766e+01	-1.693076e+01
9.130199e+01	-1.697730e+01
9.182935e+01	-1.702851e+01
9.235975e+01	-1.707762e+01
9.289321e+01	-1.712641e+01
9.342976e+01	-1.717561e+01
9.396941e+01	-1.722405e+01
9.451217e+01	-1.727232e+01
9.505807e+01	-1.732082e+01
9.560712e+01	-1.737272e+01
9.615934e+01	-1.742048e+01
9.671476e+01	-1.747106e+01
9.727338e+01	-1.751873e+01
9.783522e+01	-1.756793e+01
9.840032e+01	-1.761730e+01
9.896867e+01	-1.766550e+01
9.954031e+01	-1.771563e+01
1.001153e+02	-1.776569e+01
1.006935e+02	-1.781500e+01
1.012751e+02	-1.786355e+01
1.018601e+02	-1.791288e+01
1.024484e+02	-1.796089e+01
1.030402e+02	-1.800934e+01
1.036353e+02	-1.805985e+01
1.042339e+02	-1.810945e+01
1.048360e+02	-1.815787e+01
1.054415e+02	-1.820681e+01
1.060505e+02	-1.825668e+01
1.066631e+02	-1.830728e+01
1.072791e+02	-1.835600e+01
1.078988e+02	-1.840404e+01
1.085220e+02	-1.845555e+01
1.091488e+02	-1.850500e+01
1.097793e+02	-1.855270e+01
1.104133e+02	-1.860208e+01
1.110511e+02	-1.865091e+01
1.116925e+02	-1.870210e+01
1.123376e+02	-1.875098e+01
1.129865e+02	-1.880003e+01
1.136391e+02	-1.884987e+01
1.142955e+02	-1.889892e+01
1.149556e+02	-1.894838e+01
1.156196e+02	-1.899785e+01
1.162874e+02	-1.904602e+01
1.169591e+02	-1.909603e+01
1.176347e+02	-1.914628e+01
1.183141e+02	-1.919648e+01
1.189975e+02	-1.924475e+01
1.196848e+02	-1.929324e+01
1.203761e+02	-1.934349e+01
1.210714e+02	-1.939315e+01
1.217707e+02	-1.944264e+01
1.224740e+02	-1.949148e+01
1.231814e+02	-1.954100e+01
1.238929e+02	-1.959098e+01
1.246085e+02	-1.964100e+01
1.253283e+02	-1.969069e+01
1.260522e+02	-1.974039e+01
1.267802e+02	-1.978970e+01
1.275125e+02	-1.983806e+01
1.282490e+02	-1.988874e+01
1.289898e+02	-1.993672e+01
1.297348e+02	-1.998811e+01
1.304842e+02	-2.003664e+01
1.312378e+02	-2.008608e+01
1.319959e+02	-2.013568e+01
1.327583e+02	-2.018474e+01
1.335251e+02	-2.023454e+01
1.342963e+02	-2.028411e+01
1.350720e+02	-2.033453e+01
1.358522e+02	-2.038492e+01
1.366368e+02	-2.043362e+01
1.374260e+02	-2.048197e+01
1.382198e+02	-2.053181e+01
1.390182e+02	-2.057983e+01
1.398211e+02	-2.063264e+01
1.406287e+02	-2.068180e+01
1.414410e+02	-2.073029e+01
1.422579e+02	-2.077977e+01
1.430796e+02	-2.082872e+01
1.439060e+02	-2.088046e+01
1.447372e+02	-2.092900e+01
1.455732e+02	-2.097712e+01
1.464141e+02	-2.102723e+01
1.472597e+02	-2.107847e+01
1.481103e+02	-2.112736e+01
1.489658e+02	-2.117754e+01
1.498262e+02	-2.122843e+01
1.506916e+02	-2.127716e+01
1.515620e+02	-2.132595e+01
1.524374e+02	-2.137438e+01
1.533179e+02	-2.142559e+01
1.542034e+02	-2.147718e+01
1.550941e+02	-2.152564e+01
1.559899e+02	-2.157581e+01
1.568909e+02	-2.162596e+01
1.577971e+02	-2.167346e+01
1.587085e+02	-2.172460e+01
1.596252e+02	-2.177300e+01
1.605472e+02	-2.182405e+01
1.614745e+02	-2.187522e+01
1.624072e+02	-2.192346e+01
1.633453e+02	-2.197147e+01
1.642887e+02	-2.202190e+01
1.652377e+02	-2.207222e+01
1.661921e+02	-2.212046e+01
1.671520e+02	-2.217065e+01
1.681175e+02	-2.222063e+01
1.690885e+02	-2.227005e+01
1.700651e+02	-2.232195e+01
1.710474e+02	-2.237150e+01
1.720354e+02	-2.242024e+01
1.730291e+02	-2.247000e+01
1.740285e+02	-2.252069e+01
1.750337e+02	-2.256676e+01
1.760446e+02	-2.261984e+01
1.770615e+02	-2.267039e+01
1.780842e+02	-2.272014e+01
1.791128e+02	-2.276620e+01
1.801473e+02	-2.281832e+01
1.811878e+02	-2.286883e+01
1.822344e+02	-2.291905e+01
1.832870e+02	-2.296865e+01
1.843456e+02	-2.301870e+01
1.854104e+02	-2.306733e+01
1.864813e+02	-2.311951e+01
1.875584e+02	-2.316937e+01
1.886418e+02	-2.321872e+01
1.897313e+02	-2.326644e+01
1.908272e+02	-2.331615e+01
1.919294e+02	-2.336649e+01
1.930380e+02	-2.341453e+01
1.941530e+02	-2.346506e+01
1.952744e+02	-2.351632e+01
1.964023e+02	-2.356598e+01
1.975367e+02	-2.361616e+01
1.986777e+02	-2.366489e+01
1.998252e+02	-2.371446e+01
2.009794e+02	-2.376690e+01
2.021403e+02	-2.381660e+01
2.033078e+02	-2.386302e+01
2.044821e+02	-2.391556e+01
2.056632e+02	-2.396506e+01
2.068511e+02	-2.401447e+01
2.080459e+02	-2.406438e+01
2.092475e+02	-2.411410e+01
2.104561e+02	-2.416439e+01
2.116717e+02	-2.421187e+01
2.128943e+02	-2.426280e+01
2.141240e+02	-2.431371e+01
2.153608e+02	-2.436314e+01
2.166047e+02	-2.441289e+01
2.178558e+02	-2.446614e+01
2.191141e+02	-2.451238e+01
2.203797e+02	-2.456220e+01
2.216526e+02	-2.461420e+01
2.229329e+02	-2.466310e+01
2.242205e+02	-2.471240e+01
2.255156e+02	-2.476529e+01
2.268182e+02	-2.481195e+01
2.281283e+02	-2.486077e+01
2.294459e+02	-2.490974e+01
2.307712e+02	-2.496039e+01
2.321041e+02	-2.501188e+01
2.334447e+02	-2.506241e+01
2.347931e+02	-2.511380e+01
2.361493e+02	-2.516154e+01
2.375133e+02	-2.521262e+01
2.388851e+02	-2.526360e+01
2.402649e+02	-2.531462e+01
2.416527e+02	-2.536075e+01
2.430484e+02	-2.541368e+01
2.444523e+02	-2.546096e+01
2.458642e+02	-2.551238e+01
2.472843e+02	-2.556077e+01
2.487126e+02	-2.561250e+01
2.501492e+02	-2.566242e+01
2.515940e+02	-2.570903e+01
2.530472e+02	-2.575989e+01
2.545088e+02	-2.581165e+01
2.559789e+02	-2.586123e+01
2.574574e+02	-2.591102e+01
2.589444e+02	-2.596186e+01
2.604401e+02	-2.601473e+01
2.619444e+02	-2.606289e+01
2.634574e+02	-2.611193e+01
2.649791e+02	-2.616279e+01
2.665096e+02	-2.621142e+01
2.680489e+02	-2.625965e+01
2.695972e+02	-2.631148e+01
2.711544e+02	-2.636049e+01
2.727205e+02	-2.641280e+01
2.742958e+02	-2.646112e+01
2.758801e+02	-2.651197e+01
2.774736e+02	-2.656219e+01
2.790762e+02	-2.661068e+01
2.806882e+02	-2.665795e+01
2.823094e+02	-2.670879e+01
2.839400e+02	-2.676236e+01
2.855800e+02	-2.680881e+01
2.872295e+02	-2.686046e+01
2.888886e+02	-2.690933e+01
2.905572e+02	-2.696352e+01
2.922354e+02	-2.701672e+01
2.939234e+02	-2.706335e+01
2.956211e+02	-2.711007e+01
2.973286e+02	-2.716081e+01
2.990459e+02	-2.720987e+01
3.007732e+02	-2.725934e+01
3.025104e+02	-2.730806e+01
3.042577e+02	-2.736241e+01
3.060151e+02	-2.741387e+01
3.077826e+02	-2.745931e+01
3.095604e+02	-2.751171e+01
3.113484e+02	-2.756287e+01
3.131467e+02	-2.761046e+01
3.149554e+02	-2.766162e+01
3.167746e+02	-2.771352e+01
3.186043e+02	-2.776287e+01
3.204445e+02	-2.780808e+01
3.222954e+02	-2.785899e+01
3.241570e+02	-2.791397e+01
3.260293e+02	-2.796203e+01
3.279124e+02	-2.801284e+01
3.298064e+02	-2.806100e+01
3.317114e+02	-2.811162e+01
3.336273e+02	-2.816358e+01
3.355544e+02	-2.821298e+01
3.374925e+02	-2.826542e+01
3.394418e+02	-2.831112e+01
3.414024e+02	-2.836435e+01
3.433744e+02	-2.841341e+01
3.453577e+02	-2.846052e+01
3.473525e+02	-2.851125e+01
3.493588e+02	-2.855969e+01
3.513766e+02	-2.861213e+01
3.534062e+02	-2.866704e+01
3.554474e+02	-2.870940e+01
3.575005e+02	-2.876368e+01
3.595654e+02	-2.881090e+01
3.616422e+02	-2.885780e+01
3.637311e+02	-2.890865e+01
3.658320e+02	-2.896164e+01
3.679450e+02	-2.901334e+01
3.700702e+02	-2.906339e+01
3.722077e+02	-2.910868e+01
3.743576e+02	-2.916399e+01
3.765199e+02	-2.921046e+01
3.786946e+02	-2.925990e+01
3.808820e+02	-2.931369e+01
3.830819e+02	-2.936326e+01
3.852946e+02	-2.941710e+01
3.875200e+02	-2.946167e+01
3.897583e+02	-2.951665e+01
3.920096e+02	-2.956235e+01
3.942738e+02	-2.961044e+01
3.965511e+02	-2.966423e+01
3.988416e+02	-2.970682e+01
4.011452e+02	-2.975828e+01
4.034622e+02	-2.981726e+01
4.057926e+02	-2.986362e+01
4.081365e+02	-2.991246e+01
4.104938e+02	-2.996173e+01
4.128648e+02	-3.001727e+01
4.152495e+02	-3.006144e+01
4.176480e+02	-3.011596e+01
4.200603e+02	-3.016769e+01
4.224866e+02	-3.020935e+01
4.249268e+02	-3.026904e+01
4.273812e+02	-3.031164e+01
4.298497e+02	-3.036577e+01
4.323325e+02	-3.041842e+01
4.348297e+02	-3.046335e+01
4.373412e+02	-3.051238e+01
4.398673e+02	-3.056712e+01
4.424079e+02	-3.061548e+01
4.449633e+02	-3.066617e+01
4.475334e+02	-3.071194e+01
4.501183e+02	-3.076556e+01
4.527182e+02	-3.081664e+01
4.553330e+02	-3.086829e+01
4.579630e+02	-3.091639e+01
4.606082e+02	-3.097425e+01
4.632687e+02	-3.101314e+01
4.659445e+02	-3.107127e+01
4.686358e+02	-3.111489e+01
4.713426e+02	-3.116712e+01
4.740650e+02	-3.121831e+01
4.768032e+02	-3.126797e+01
4.795572e+02	-3.131568e+01
4.823271e+02	-3.136110e+01
4.851130e+02	-3.142155e+01
4.879150e+02	-3.147160e+01
4.907332e+02	-3.151624e+01
4.935676e+02	-3.156888e+01
4.964185e+02	-3.161934e+01
4.992858e+02	-3.167197e+01
5.021696e+02	-3.171833e+01
5.050701e+02	-3.176910e+01
5.079874e+02	-3.181844e+01
5.109215e+02	-3.187073e+01
5.138726e+02	-3.191942e+01
5.168407e+02	-3.196821e+01
5.198259e+02	-3.202543e+01
5.228284e+02	-3.206910e+01
5.258482e+02	-3.212045e+01
5.288855e+02	-3.217255e+01
5.319403e+02	-3.222072e+01
5.350128e+02	-3.226746e+01
5.381030e+02	-3.232379e+01
5.412111e+02	-3.237223e+01
5.443371e+02	-3.241932e+01
5.474812e+02	-3.247218e+01
5.506434e+02	-3.252394e+01
5.538239e+02	-3.257423e+01
5.570228e+02	-3.262867e+01
5.602401e+02	-3.267510e+01
5.634760e+02	-3.272568e+01
5.667306e+02	-3.277173e+01
5.700040e+02	-3.282581e+01
5.732964e+02	-3.287874e+01
5.766077e+02	-3.292554e+01
5.799382e+02	-3.297166e+01
5.832879e+02	-3.302209e+01
5.866569e+02	-3.307872e+01
5.900454e+02	-3.312668e+01
5.934535e+02	-3.318075e+01
5.968813e+02	-3.322602e+01
6.003288e+02	-3.327477e+01
6.037963e+02	-3.332554e+01
6.072838e+02	-3.337594e+01
6.107914e+02	-3.343011e+01
6.143194e+02	-3.347646e+01
6.178676e+02	-3.352365e+01
6.214364e+02	-3.357512e+01
6.250258e+02	-3.362284e+01
6.286359e+02	-3.367631e+01
6.322669e+02	-3.372506e+01
6.359189e+02	-3.377953e+01
6.395919e+02	-3.383176e+01
6.432862e+02	-3.387968e+01
6.470017e+02	-3.393428e+01
6.507388e+02	-3.398115e+01
6.544974e+02	-3.403132e+01
6.582778e+02	-3.408161e+01
6.620800e+02	-3.413137e+01
6.659041e+02	-3.418390e+01
6.697504e+02	-3.423823e+01
6.736188e+02	-3.428109e+01
6.775096e+02	-3.433506e+01
6.814229e+02	-3.438434e+01
6.853587e+02	-3.443790e+01
6.893173e+02	-3.448602e+01
6.932988e+02	-3.453215e+01
6.973033e+02	-3.458133e+01
7.013309e+02	-3.463590e+01
