Frequency(Hz)	Magnitude(dB)
1.000000e+01	-1.890824e+00
1.005776e+01	-1.908515e+00
1.011585e+01	-1.926377e+00
1.017428e+01	-1.944537e+00
1.023305e+01	-1.962481e+00
1.029215e+01	-1.980690e+00
1.035160e+01	-1.999296e+00
1.041139e+01	-2.017762e+00
1.047153e+01	-2.036299e+00
1.053201e+01	-2.054950e+00
1.059284e+01	-2.073979e+00
1.065403e+01	-2.093170e+00
1.071556e+01	-2.112204e+00
1.077746e+01	-2.131713e+00
1.083971e+01	-2.151013e+00
1.090232e+01	-2.170760e+00
1.096529e+01	-2.190748e+00
1.102862e+01	-2.210481e+00
1.109232e+01	-2.230378e+00
1.115639e+01	-2.250419e+00
1.122083e+01	-2.271018e+00
1.128564e+01	-2.291435e+00
1.135083e+01	-2.311798e+00
1.141639e+01	-2.332709e+00
1.148233e+01	-2.353460e+00
1.154865e+01	-2.374496e+00
1.161536e+01	-2.395510e+00
1.168245e+01	-2.416954e+00
1.174992e+01	-2.438304e+00
1.181779e+01	-2.459888e+00
1.188605e+01	-2.481456e+00
1.195470e+01	-2.503375e+00
1.202375e+01	-2.525384e+00
1.209320e+01	-2.547536e+00
1.216305e+01	-2.569756e+00
1.223330e+01	-2.592207e+00
1.230396e+01	-2.614834e+00
1.237503e+01	-2.637560e+00
1.244651e+01	-2.660250e+00
1.251840e+01	-2.683330e+00
1.259070e+01	-2.706263e+00
1.266343e+01	-2.729721e+00
1.273657e+01	-2.753316e+00
1.281014e+01	-2.776414e+00
1.288413e+01	-2.800293e+00
1.295855e+01	-2.824239e+00
1.303339e+01	-2.848509e+00
1.310867e+01	-2.872254e+00
1.318439e+01	-2.896545e+00
1.326054e+01	-2.920688e+00
1.333713e+01	-2.945441e+00
1.341417e+01	-2.970231e+00
1.349165e+01	-2.995327e+00
1.356958e+01	-3.020056e+00
1.364795e+01	-3.045460e+00
1.372678e+01	-3.070600e+00
1.380607e+01	-3.096055e+00
1.388581e+01	-3.121436e+00
1.396602e+01	-3.147159e+00
1.404668e+01	-3.173252e+00
1.412782e+01	-3.199151e+00
1.420942e+01	-3.225466e+00
1.429149e+01	-3.251527e+00
1.437404e+01	-3.278115e+00
1.445706e+01	-3.304601e+00
1.454057e+01	-3.331112e+00
1.462455e+01	-3.358243e+00
1.470902e+01	-3.385024e+00
1.479398e+01	-3.412277e+00
1.487943e+01	-3.439766e+00
1.496537e+01	-3.467033e+00
1.505181e+01	-3.494606e+00
1.513875e+01	-3.522404e+00
1.522619e+01	-3.550217e+00
1.531414e+01	-3.578453e+00
1.540259e+01	-3.606550e+00
1.549156e+01	-3.634601e+00
1.558103e+01	-3.663274e+00
1.567103e+01	-3.691492e+00
1.576155e+01	-3.720260e+00
1.585258e+01	-3.749357e+00
1.594415e+01	-3.778327e+00
1.603624e+01	-3.807377e+00
1.612886e+01	-3.836800e+00
1.622202e+01	-3.866191e+00
1.631572e+01	-3.895593e+00
1.640996e+01	-3.925243e+00
1.650474e+01	-3.955159e+00
1.660008e+01	-3.985462e+00
1.669596e+01	-4.015609e+00
1.679239e+01	-4.045537e+00
1.688938e+01	-4.075938e+00
1.698694e+01	-4.106441e+00
1.708505e+01	-4.137160e+00
1.718373e+01	-4.168069e+00
1.728299e+01	-4.198687e+00
1.738281e+01	-4.230348e+00
1.748322e+01	-4.260957e+00
1.758420e+01	-4.292364e+00
1.768576e+01	-4.323862e+00
1.778792e+01	-4.355546e+00
1.789066e+01	-4.387323e+00
1.799399e+01	-4.419179e+00
1.809793e+01	-4.451100e+00
1.820246e+01	-4.483095e+00
1.830760e+01	-4.515742e+00
1.841334e+01	-4.548302e+00
1.851969e+01	-4.580764e+00
1.862666e+01	-4.613175e+00
1.873425e+01	-4.645988e+00
1.884246e+01	-4.678765e+00
1.895129e+01	-4.711985e+00
1.906075e+01	-4.745064e+00
1.917085e+01	-4.778285e+00
1.928158e+01	-4.811924e+00
1.939295e+01	-4.845353e+00
1.950496e+01	-4.879258e+00
1.961762e+01	-4.913358e+00
1.973093e+01	-4.946966e+00
1.984490e+01	-4.981211e+00
1.995952e+01	-5.015352e+00
2.007480e+01	-5.049632e+00
2.019076e+01	-5.084139e+00
2.030738e+01	-5.118710e+00
2.042467e+01	-5.153391e+00
2.054264e+01	-5.188142e+00
2.066130e+01	-5.223072e+00
2.078064e+01	-5.257827e+00
2.090066e+01	-5.293416e+00
2.102139e+01	-5.328553e+00
2.114280e+01	-5.363877e+00
2.126492e+01	-5.399464e+00
2.138775e+01	-5.435203e+00
2.151128e+01	-5.470939e+00
2.163553e+01	-5.506986e+00
2.176050e+01	-5.542449e+00
2.188619e+01	-5.578883e+00
2.201260e+01	-5.614985e+00
2.213974e+01	-5.651396e+00
2.226762e+01	-5.687883e+00
2.239624e+01	-5.724742e+00
2.252560e+01	-5.761196e+00
2.265571e+01	-5.798193e+00
2.278656e+01	-5.835441e+00
2.291818e+01	-5.871965e+00
2.305055e+01	-5.909596e+00
2.318369e+01	-5.946373e+00
2.331760e+01	-5.983815e+00
2.345228e+01	-6.021018e+00
2.358774e+01	-6.058960e+00
2.372398e+01	-6.096684e+00
2.386101e+01	-6.133930e+00
2.399883e+01	-6.172263e+00
2.413745e+01	-6.210390e+00
2.427686e+01	-6.248492e+00
2.441709e+01	-6.286861e+00
2.455812e+01	-6.324892e+00
2.469997e+01	-6.363387e+00
2.484263e+01	-6.401487e+00
2.498612e+01	-6.440306e+00
2.513044e+01	-6.479165e+00
2.527559e+01	-6.517743e+00
2.542158e+01	-6.556785e+00
2.556842e+01	-6.596302e+00
2.571610e+01	-6.634903e+00
2.586463e+01	-6.674344e+00
2.601403e+01	-6.713481e+00
2.616428e+01	-6.753221e+00
2.631541e+01	-6.792438e+00
2.646740e+01	-6.832002e+00
2.662028e+01	-6.871917e+00
2.677404e+01	-6.911499e+00
2.692868e+01	-6.951357e+00
2.708422e+01	-6.991408e+00
2.724066e+01	-7.031561e+00
2.739800e+01	-7.071675e+00
2.755625e+01	-7.112182e+00
2.771541e+01	-7.152206e+00
2.787550e+01	-7.192529e+00
2.803650e+01	-7.233098e+00
2.819844e+01	-7.274232e+00
2.836131e+01	-7.314418e+00
2.852513e+01	-7.355365e+00
2.868989e+01	-7.396215e+00
2.885560e+01	-7.437079e+00
2.902227e+01	-7.478138e+00
2.918990e+01	-7.518897e+00
2.935850e+01	-7.560343e+00
2.952807e+01	-7.601746e+00
2.969863e+01	-7.643428e+00
2.987016e+01	-7.684520e+00
3.004269e+01	-7.726407e+00
3.021622e+01	-7.767765e+00
3.039075e+01	-7.809624e+00
3.056628e+01	-7.851453e+00
3.074283e+01	-7.893122e+00
3.092040e+01	-7.935010e+00
3.109900e+01	-7.976943e+00
3.127862e+01	-8.019393e+00
3.145929e+01	-8.061292e+00
3.164099e+01	-8.103657e+00
3.182375e+01	-8.146093e+00
3.200756e+01	-8.188375e+00
3.219244e+01	-8.230955e+00
3.237838e+01	-8.273584e+00
3.256540e+01	-8.315668e+00
3.275349e+01	-8.358508e+00
3.294268e+01	-8.401626e+00
3.313295e+01	-8.444302e+00
3.332433e+01	-8.487278e+00
3.351681e+01	-8.530177e+00
3.371040e+01	-8.573129e+00
3.390511e+01	-8.616509e+00
3.410094e+01	-8.659229e+00
3.429791e+01	-8.703070e+00
3.449601e+01	-8.745633e+00
3.469526e+01	-8.789215e+00
3.489566e+01	-8.832653e+00
3.509721e+01	-8.875936e+00
3.529993e+01	-8.919872e+00
3.550382e+01	-8.963732e+00
3.570889e+01	-9.007285e+00
3.591515e+01	-9.051047e+00
3.612259e+01	-9.095041e+00
3.633123e+01	-9.138751e+00
3.654108e+01	-9.182324e+00
3.675214e+01	-9.226847e+00
3.696442e+01	-9.271044e+00
3.717792e+01	-9.315185e+00
3.739266e+01	-9.359037e+00
3.760864e+01	-9.403884e+00
3.782587e+01	-9.448159e+00
3.804435e+01	-9.492189e+00
3.826409e+01	-9.536746e+00
3.848510e+01	-9.581262e+00
3.870739e+01	-9.625538e+00
3.893096e+01	-9.670057e+00
3.915583e+01	-9.715441e+00
3.938199e+01	-9.759597e+00
3.960946e+01	-9.804427e+00
3.983824e+01	-9.849348e+00
4.006834e+01	-9.893860e+00
4.029978e+01	-9.938899e+00
4.053255e+01	-9.983604e+00
4.076666e+01	-1.002929e+01
4.100213e+01	-1.007385e+01
4.123896e+01	-1.011927e+01
4.147715e+01	-1.016475e+01
4.171672e+01	-1.020974e+01
4.195767e+01	-1.025464e+01
4.220002e+01	-1.029996e+01
4.244377e+01	-1.034539e+01
4.268892e+01	-1.039100e+01
4.293549e+01	-1.043656e+01
4.318348e+01	-1.048188e+01
4.343291e+01	-1.052718e+01
4.368377e+01	-1.057307e+01
4.393609e+01	-1.061871e+01
4.418986e+01	-1.066455e+01
4.444510e+01	-1.070959e+01
4.470182e+01	-1.075616e+01
4.496001e+01	-1.080222e+01
4.521970e+01	-1.084796e+01
4.548089e+01	-1.089389e+01
4.574358e+01	-1.093948e+01
4.600779e+01	-1.098581e+01
4.627353e+01	-1.103188e+01
4.654081e+01	-1.107802e+01
4.680963e+01	-1.112442e+01
4.708000e+01	-1.116996e+01
4.735193e+01	-1.121632e+01
4.762543e+01	-1.126227e+01
4.790051e+01	-1.130956e+01
4.817719e+01	-1.135538e+01
4.845545e+01	-1.140218e+01
4.873533e+01	-1.144778e+01
4.901682e+01	-1.149476e+01
4.929994e+01	-1.154152e+01
4.958470e+01	-1.158753e+01
4.987110e+01	-1.163417e+01
5.015915e+01	-1.168098e+01
5.044887e+01	-1.172765e+01
5.074026e+01	-1.177415e+01
5.103333e+01	-1.182117e+01
5.132810e+01	-1.186731e+01
5.162457e+01	-1.191444e+01
5.192275e+01	-1.196166e+01
5.222265e+01	-1.200849e+01
5.252429e+01	-1.205495e+01
5.282767e+01	-1.210185e+01
5.313280e+01	-1.214864e+01
5.343969e+01	-1.219638e+01
5.374836e+01	-1.224370e+01
5.405880e+01	-1.229084e+01
5.437105e+01	-1.233747e+01
5.468509e+01	-1.238464e+01
5.500095e+01	-1.243128e+01
5.531863e+01	-1.247897e+01
5.563815e+01	-1.252637e+01
5.595951e+01	-1.257298e+01
5.628273e+01	-1.262080e+01
5.660782e+01	-1.266681e+01
5.693479e+01	-1.271446e+01
5.726364e+01	-1.276247e+01
5.759439e+01	-1.281000e+01
5.792705e+01	-1.285751e+01
5.826164e+01	-1.290451e+01
5.859815e+01	-1.295224e+01
5.893662e+01	-1.299944e+01
5.927703e+01	-1.304761e+01
5.961941e+01	-1.309415e+01
5.996377e+01	-1.314190e+01
6.031012e+01	-1.318950e+01
6.065847e+01	-1.323806e+01
6.100883e+01	-1.328534e+01
6.136121e+01	-1.333282e+01
6.171563e+01	-1.338044e+01
6.207210e+01	-1.342847e+01
6.243063e+01	-1.347608e+01
6.279122e+01	-1.352395e+01
6.315390e+01	-1.357196e+01
6.351868e+01	-1.361976e+01
6.388556e+01	-1.366784e+01
6.425456e+01	-1.371580e+01
6.462569e+01	-1.376400e+01
6.499897e+01	-1.381179e+01
6.537440e+01	-1.385973e+01
6.575200e+01	-1.390715e+01
6.613178e+01	-1.395476e+01
6.651375e+01	-1.400247e+01
6.689793e+01	-1.405139e+01
6.728433e+01	-1.409917e+01
6.767297e+01	-1.414708e+01
6.806384e+01	-1.419657e+01
6.845698e+01	-1.424436e+01
6.885238e+01	-1.429183e+01
6.925007e+01	-1.433916e+01
6.965005e+01	-1.438751e+01
7.005235e+01	-1.443584e+01
7.045697e+01	-1.448454e+01
7.086393e+01	-1.453202e+01
7.127323e+01	-1.458037e+01
7.168490e+01	-1.463023e+01
7.209895e+01	-1.467823e+01
7.251539e+01	-1.472651e+01
7.293424e+01	-1.477500e+01
7.335551e+01	-1.482343e+01
7.377920e+01	-1.487106e+01
7.420535e+01	-1.491976e+01
7.463396e+01	-1.496882e+01
7.506504e+01	-1.501614e+01
7.549861e+01	-1.506562e+01
7.593469e+01	-1.511264e+01
7.637328e+01	-1.516217e+01
7.681441e+01	-1.520936e+01
7.725809e+01	-1.525838e+01
7.770433e+01	-1.530695e+01
7.815315e+01	-1.535620e+01
7.860456e+01	-1.540483e+01
7.905857e+01	-1.545304e+01
7.951521e+01	-1.550171e+01
7.997449e+01	-1.555112e+01
8.043642e+01	-1.559859e+01
8.090102e+01	-1.564779e+01
8.136830e+01	-1.569560e+01
8.183828e+01	-1.574487e+01
8.231097e+01	-1.579379e+01
8.278640e+01	-1.584270e+01
8.326457e+01	-1.589123e+01
8.374550e+01	-1.594070e+01
8.422921e+01	-1.598856e+01
8.471572e+01	-1.603789e+01
8.520503e+01	-1.608521e+01
8.569717e+01	-1.613417e+01
8.619215e+01	-1.618389e+01
8.669000e+01	-1.623328e+01
8.719071e+01	-1.628138e+01
8.769432e+01	-1.633060e+01
8.820084e+01	-1.637998e+01
8.871029e+01	-1.642890e+01
8.922267e+01	-1.647710e+01
8.973802e+01	-1.652628e+01
9.025634e+01	-1.657580e+01
9.077766e+01	-1.662436e+01
9.130199e+01	-1.667312e+01
9.182935e+01	-1.672168e+01
9.235975e+01	-1.677076e+01
9.289321e+01	-1.682118e+01
9.342976e+01	-1.686941e+01
9.396941e+01	-1.691897e+01
9.451217e+01	-1.696774e+01
9.505807e+01	-1.701723e+01
9.560712e+01	-1.706427e+01
9.615934e+01	-1.711318e+01
9.671476e+01	-1.716408e+01
9.727338e+01	-1.721224e+01
9.783522e+01	-1.726171e+01
9.840032e+01	-1.731013e+01
9.896867e+01	-1.735926e+01
9.954031e+01	-1.740876e+01
1.001153e+02	-1.745757e+01
1.006935e+02	-1.750666e+01
1.012751e+02	-1.755512e+01
1.018601e+02	-1.760573e+01
1.024484e+02	-1.765503e+01
1.030402e+02	-1.770435e+01
1.036353e+02	-1.775275e+01
1.042339e+02	-1.780168e+01
1.048360e+02	-1.785162e+01
1.054415e+02	-1.790009e+01
1.060505e+02	-1.795027e+01
1.066631e+02	-1.799934e+01
1.072791e+02	-1.804850e+01
1.078988e+02	-1.809775e+01
1.085220e+02	-1.814637e+01
1.091488e+02	-1.819603e+01
1.097793e+02	-1.824493e+01
1.104133e+02	-1.829438e+01
1.110511e+02	-1.834375e+01
1.116925e+02	-1.839315e+01
1.123376e+02	-1.844220e+01
1.129865e+02	-1.849151e+01
1.136391e+02	-1.854125e+01
1.142955e+02	-1.858895e+01
1.149556e+02	-1.864016e+01
1.156196e+02	-1.868923e+01
1.162874e+02	-1.873806e+01
1.169591e+02	-1.878722e+01
1.176347e+02	-1.883672e+01
1.183141e+02	-1.888642e+01
1.189975e+02	-1.893649e+01
1.196848e+02	-1.898543e+01
1.203761e+02	-1.903451e+01
1.210714e+02	-1.908434e+01
1.217707e+02	-1.913465e+01
1.224740e+02	-1.918239e+01
1.231814e+02	-1.923307e+01
1.238929e+02	-1.927964e+01
1.246085e+02	-1.933317e+01
1.253283e+02	-1.938105e+01
1.260522e+02	-1.943052e+01
1.267802e+02	-1.947906e+01
1.275125e+02	-1.952840e+01
1.282490e+02	-1.957816e+01
1.289898e+02	-1.962879e+01
1.297348e+02	-1.967547e+01
1.304842e+02	-1.972804e+01
1.312378e+02	-1.977564e+01
1.319959e+02	-1.982527e+01
1.327583e+02	-1.987685e+01
1.335251e+02	-1.992647e+01
1.342963e+02	-1.997476e+01
1.350720e+02	-2.002425e+01
1.358522e+02	-2.007410e+01
1.366368e+02	-2.012330e+01
1.374260e+02	-2.017438e+01
1.382198e+02	-2.022226e+01
1.390182e+02	-2.027208e+01
1.398211e+02	-2.032004e+01
1.406287e+02	-2.036986e+01
1.414410e+02	-2.042067e+01
1.422579e+02	-2.046923e+01
1.430796e+02	-2.052219e+01
1.439060e+02	-2.056971e+01
1.447372e+02	-2.061803e+01
1.455732e+02	-2.066859e+01
1.464141e+02	-2.071841e+01
1.472597e+02	-2.076893e+01
1.481103e+02	-2.081639e+01
1.489658e+02	-2.086616e+01
1.498262e+02	-2.091679e+01
1.506916e+02	-2.096592e+01
1.515620e+02	-2.101681e+01
1.524374e+02	-2.106615e+01
1.533179e+02	-2.111585e+01
1.542034e+02	-2.116601e+01
1.550941e+02	-2.121675e+01
1.559899e+02	-2.126540e+01
1.568909e+02	-2.131433e+01
1.577971e+02	-2.136445e+01
1.587085e+02	-2.141152e+01
1.596252e+02	-2.146292e+01
1.605472e+02	-2.151206e+01
1.614745e+02	-2.156198e+01
1.624072e+02	-2.161269e+01
1.633453e+02	-2.166245e+01
1.642887e+02	-2.171444e+01
1.652377e+02	-2.176202e+01
1.661921e+02	-2.181046e+01
1.671520e+02	-2.186168e+01
1.681175e+02	-2.190994e+01
1.690885e+02	-2.196169e+01
1.700651e+02	-2.200761e+01
1.710474e+02	-2.205910e+01
1.720354e+02	-2.211003e+01
1.730291e+02	-2.215926e+01
1.740285e+02	-2.220928e+01
1.750337e+02	-2.225801e+01
1.760446e+02	-2.230847e+01
1.770615e+02	-2.235878e+01
1.780842e+02	-2.240836e+01
1.791128e+02	-2.245703e+01
1.801473e+02	-2.250786e+01
1.811878e+02	-2.255689e+01
1.822344e+02	-2.260863e+01
1.832870e+02	-2.265823e+01
1.843456e+02	-2.270738e+01
1.854104e+02	-2.275571e+01
1.864813e+02	-2.280685e+01
1.875584e+02	-2.285729e+01
1.886418e+02	-2.290637e+01
1.897313e+02	-2.295474e+01
1.908272e+02	-2.300506e+01
1.919294e+02	-2.305605e+01
1.930380e+02	-2.310607e+01
1.941530e+02	-2.315402e+01
1.952744e+02	-2.320584e+01
1.964023e+02	-2.325323e+01
1.975367e+02	-2.330300e+01
1.986777e+02	-2.335477e+01
1.998252e+02	-2.340420e+01
2.009794e+02	-2.345349e+01
2.021403e+02	-2.350496e+01
2.033078e+02	-2.355525e+01
2.044821e+02	-2.360447e+01
2.056632e+02	-2.365412e+01
2.068511e+02	-2.370307e+01
2.080459e+02	-2.375422e+01
2.092475e+02	-2.380155e+01
2.104561e+02	-2.385176e+01
2.116717e+02	-2.390156e+01
2.128943e+02	-2.395083e+01
2.141240e+02	-2.400127e+01
2.153608e+02	-2.405186e+01
2.166047e+02	-2.410245e+01
2.178558e+02	-2.415315e+01
2.191141e+02	-2.420205e+01
2.203797e+02	-2.425189e+01
2.216526e+02	-2.429903e+01
2.229329e+02	-2.435304e+01
2.242205e+02	-2.440039e+01
2.255156e+02	-2.445024e+01
2.268182e+02	-2.449803e+01
2.281283e+02	-2.455105e+01
2.294459e+02	-2.459928e+01
2.307712e+02	-2.465047e+01
2.321041e+02	-2.470223e+01
2.334447e+02	-2.475044e+01
2.347931e+02	-2.480106e+01
2.361493e+02	-2.485090e+01
2.375133e+02	-2.489629e+01
2.388851e+02	-2.495050e+01
2.402649e+02	-2.499977e+01
2.416527e+02	-2.504882e+01
2.430484e+02	-2.509970e+01
2.444523e+02	-2.514832e+01
2.458642e+02	-2.519763e+01
2.472843e+02	-2.524810e+01
2.487126e+02	-2.529958e+01
2.501492e+02	-2.534872e+01
2.515940e+02	-2.539864e+01
2.530472e+02	-2.545080e+01
2.545088e+02	-2.549873e+01
2.559789e+02	-2.554726e+01
2.574574e+02	-2.559697e+01
2.589444e+02	-2.564493e+01
2.604401e+02	-2.569917e+01
2.619444e+02	-2.574888e+01
2.634574e+02	-2.579841e+01
2.649791e+02	-2.585066e+01
2.665096e+02	-2.590003e+01
2.680489e+02	-2.594832e+01
2.695972e+02	-2.599624e+01
2.711544e+02	-2.604827e+01
2.727205e+02	-2.609860e+01
2.742958e+02	-2.614752e+01
2.758801e+02	-2.619671e+01
2.774736e+02	-2.624561e+01
2.790762e+02	-2.629440e+01
2.806882e+02	-2.634911e+01
2.823094e+02	-2.639933e+01
2.839400e+02	-2.644955e+01
2.855800e+02	-2.649808e+01
2.872295e+02	-2.655042e+01
2.888886e+02	-2.659882e+01
2.905572e+02	-2.664444e+01
2.922354e+02	-2.670221e+01
2.939234e+02	-2.675107e+01
2.956211e+02	-2.680103e+01
2.973286e+02	-2.685308e+01
2.990459e+02	-2.690044e+01
3.007732e+02	-2.694765e+01
3.025104e+02	-2.699607e+01
3.042577e+02	-2.705250e+01
3.060151e+02	-2.709679e+01
3.077826e+02	-2.714811e+01
3.095604e+02	-2.719920e+01
3.113484e+02	-2.724858e+01
3.131467e+02	-2.729556e+01
3.149554e+02	-2.735071e+01
3.167746e+02	-2.739837e+01
3.186043e+02	-2.744456e+01
3.204445e+02	-2.749686e+01
3.222954e+02	-2.754467e+01
3.241570e+02	-2.760295e+01
3.260293e+02	-2.764791e+01
3.279124e+02	-2.770485e+01
3.298064e+02	-2.775038e+01
3.317114e+02	-2.779879e+01
3.336273e+02	-2.784550e+01
3.355544e+02	-2.789889e+01
3.374925e+02	-2.795254e+01
3.394418e+02	-2.799752e+01
3.414024e+02	-2.804836e+01
3.433744e+02	-2.809889e+01
3.453577e+02	-2.814819e+01
3.473525e+02	-2.819969e+01
3.493588e+02	-2.824788e+01
3.513766e+02	-2.829927e+01
3.534062e+02	-2.834952e+01
3.554474e+02	-2.839835e+01
3.575005e+02	-2.845467e+01
3.595654e+02	-2.849951e+01
3.616422e+02	-2.855091e+01
3.637311e+02	-2.860331e+01
3.658320e+02	-2.865020e+01
3.679450e+02	-2.869926e+01
3.700702e+02	-2.874905e+01
3.722077e+02	-2.879728e+01
3.743576e+02	-2.885171e+01
3.765199e+02	-2.889850e+01
3.786946e+02	-2.894839e+01
3.808820e+02	-2.899720e+01
3.830819e+02	-2.905141e+01
3.852946e+02	-2.910139e+01
3.875200e+02	-2.915093e+01
3.897583e+02	-2.919497e+01
3.920096e+02	-2.925109e+01
3.942738e+02	-2.929769e+01
3.965511e+02	-2.935362e+01
3.988416e+02	-2.940172e+01
4.011452e+02	-2.944622e+01
4.034622e+02	-2.949830e+01
4.057926e+02	-2.955120e+01
4.081365e+02	-2.959979e+01
4.104938e+02	-2.964783e+01
4.128648e+02	-2.970381e+01
4.152495e+02	-2.975258e+01
4.176480e+02	-2.980512e+01
4.200603e+02	-2.984682e+01
4.224866e+02	-2.990035e+01
4.249268e+02	-2.994862e+01
4.273812e+02	-3.000313e+01
4.298497e+02	-3.005360e+01
4.323325e+02	-3.010585e+01
4.348297e+02	-3.015349e+01
4.373412e+02	-3.020007e+01
4.398673e+02	-3.025894e+01
4.424079e+02	-3.030383e+01
4.449633e+02	-3.035181e+01
4.475334e+02	-3.040152e+01
4.501183e+02	-3.045515e+01
4.527182e+02	-3.050256e+01
4.553330e+02	-3.055374e+01
4.579630e+02	-3.060207e+01
4.606082e+02	-3.064810e+01
4.632687e+02	-3.070358e+01
4.659445e+02	-3.074906e+01
4.686358e+02	-3.080310e+01
4.713426e+02	-3.085117e+01
4.740650e+02	-3.089914e+01
4.768032e+02	-3.095765e+01
4.795572e+02	-3.100166e+01
4.823271e+02	-3.105327e+01
4.851130e+02	-3.110404e+01
4.879150e+02	-3.115452e+01
4.907332e+02	-3.120651e+01
4.935676e+02	-3.125115e+01
4.964185e+02	-3.130014e+01
4.992858e+02	-3.135562e+01
5.021696e+02	-3.140575e+01
5.050701e+02	-3.145547e+01
5.079874e+02	-3.150805e+01
5.109215e+02	-3.156396e+01
5.138726e+02	-3.160363e+01
5.168407e+02	-3.165552e+01
5.198259e+02	-3.170363e+01
5.228284e+02	-3.175499e+01
5.258482e+02	-3.180921e+01
5.288855e+02	-3.185843e+01
5.319403e+02	-3.190494e+01
5.350128e+02	-3.195712e+01
5.381030e+02	-3.201493e+01
5.412111e+02	-3.205556e+01
5.443371e+02	-3.211147e+01
5.474812e+02	-3.215832e+01
5.506434e+02	-3.221128e+01
5.538239e+02	-3.225917e+01
5.570228e+02	-3.230856e+01
5.602401e+02	-3.236360e+01
5.634760e+02	-3.240472e+01
5.667306e+02	-3.246384e+01
5.700040e+02	-3.250247e+01
5.732964e+02	-3.256031e+01
5.766077e+02	-3.260740e+01
5.799382e+02	-3.266126e+01
5.832879e+02	-3.271944e+01
5.866569e+02	-3.276405e+01
5.900454e+02	-3.281564e+01
5.934535e+02	-3.286524e+01
5.968813e+02	-3.291409e+01
6.003288e+02	-3.296450e+01
6.037963e+02	-3.301523e+01
6.072838e+02	-3.306296e+01
6.107914e+02	-3.311355e+01
6.143194e+02	-3.316421e+01
6.178676e+02	-3.321240e+01
6.214364e+02	-3.326292e+01
6.250258e+02	-3.332201e+01
6.286359e+02	-3.335945e+01
6.322669e+02	-3.341649e+01
6.359189e+02	-3.346674e+01
6.395919e+02	-3.351316e+01
6.432862e+02	-3.356605e+01
6.470017e+02	-3.361924e+01
6.507388e+02	-3.366318e+01
6.544974e+02	-3.372148e+01
6.582778e+02	-3.376485e+01
6.620800e+02	-3.381081e+01
6.659041e+02	-3.387879e+01
6.697504e+02	-3.391929e+01
6.736188e+02	-3.396840e+01
6.775096e+02	-3.401296e+01
6.814229e+02	-3.407695e+01
6.853587e+02	-3.412162e+01
6.893173e+02	-3.416468e+01
6.932988e+02	-3.422356e+01
6.973033e+02	-3.426761e+01
7.013309e+02	-3.432604e+01
