Frequency(Hz)	Magnitude(dB)
1.000000e+01	-1.667295e-05
1.005776e+01	-1.686611e-05
1.011585e+01	-1.706151e-05
1.017428e+01	-1.725917e-05
1.023305e+01	-1.745912e-05
1.029215e+01	-1.766139e-05
1.035160e+01	-1.786600e-05
1.041139e+01	-1.807298e-05
1.047153e+01	-1.828236e-05
1.053201e+01	-1.849417e-05
1.059284e+01	-1.870843e-05
1.065403e+01	-1.892517e-05
1.071556e+01	-1.914442e-05
1.077746e+01	-1.936622e-05
1.083971e+01	-1.959058e-05
1.090232e+01	-1.981754e-05
1.096529e+01	-2.004713e-05
1.102862e+01	-2.027938e-05
1.109232e+01	-2.051433e-05
1.115639e+01	-2.075199e-05
1.122083e+01	-2.099241e-05
1.128564e+01	-2.123561e-05
1.135083e+01	-2.148163e-05
1.141639e+01	-2.173050e-05
1.148233e+01	-2.198225e-05
1.154865e+01	-2.223692e-05
1.161536e+01	-2.249454e-05
1.168245e+01	-2.275515e-05
1.174992e+01	-2.301877e-05
1.181779e+01	-2.328545e-05
1.188605e+01	-2.355522e-05
1.195470e+01	-2.382811e-05
1.202375e+01	-2.410416e-05
1.209320e+01	-2.438342e-05
1.216305e+01	-2.466590e-05
1.223330e+01	-2.495167e-05
1.230396e+01	-2.524074e-05
1.237503e+01	-2.553316e-05
1.244651e+01	-2.582896e-05
1.251840e+01	-2.612820e-05
1.259070e+01	-2.643090e-05
1.266343e+01	-2.673711e-05
1.273657e+01	-2.704687e-05
1.281014e+01	-2.736021e-05
1.288413e+01	-2.767718e-05
1.295855e+01	-2.799783e-05
1.303339e+01	-2.832219e-05
1.310867e+01	-2.865031e-05
1.318439e+01	-2.898223e-05
1.326054e+01	-2.931800e-05
1.333713e+01	-2.965766e-05
1.341417e+01	-3.000125e-05
1.349165e+01	-3.034882e-05
1.356958e+01	-3.070042e-05
1.364795e+01	-3.105609e-05
1.372678e+01	-3.141588e-05
1.380607e+01	-3.177984e-05
1.388581e+01	-3.214802e-05
1.396602e+01	-3.252046e-05
1.404668e+01	-3.289722e-05
1.412782e+01	-3.327834e-05
1.420942e+01	-3.366388e-05
1.429149e+01	-3.405388e-05
1.437404e+01	-3.444840e-05
1.445706e+01	-3.484750e-05
1.454057e+01	-3.525121e-05
1.462455e+01	-3.565961e-05
1.470902e+01	-3.607273e-05
1.479398e+01	-3.649064e-05
1.487943e+01	-3.691339e-05
1.496537e+01	-3.734104e-05
1.505181e+01	-3.777365e-05
1.513875e+01	-3.821127e-05
1.522619e+01	-3.865395e-05
1.531414e+01	-3.910177e-05
1.540259e+01	-3.955477e-05
1.549156e+01	-4.001302e-05
1.558103e+01	-4.047658e-05
1.567103e+01	-4.094551e-05
1.576155e+01	-4.141987e-05
1.585258e+01	-4.189973e-05
1.594415e+01	-4.238515e-05
1.603624e+01	-4.287619e-05
1.612886e+01	-4.337292e-05
1.622202e+01	-4.387541e-05
1.631572e+01	-4.438371e-05
1.640996e+01	-4.489791e-05
1.650474e+01	-4.541806e-05
1.660008e+01	-4.594424e-05
1.669596e+01	-4.647651e-05
1.679239e+01	-4.701495e-05
1.688938e+01	-4.755963e-05
1.698694e+01	-4.811062e-05
1.708505e+01	-4.866799e-05
1.718373e+01	-4.923182e-05
1.728299e+01	-4.980218e-05
1.738281e+01	-5.037915e-05
1.748322e+01	-5.096280e-05
1.758420e+01	-5.155322e-05
1.768576e+01	-5.215047e-05
1.778792e+01	-5.275465e-05
1.789066e+01	-5.336582e-05
1.799399e+01	-5.398407e-05
1.809793e+01	-5.460949e-05
1.820246e+01	-5.524215e-05
1.830760e+01	-5.588215e-05
1.841334e+01	-5.652955e-05
1.851969e+01	-5.718446e-05
1.862666e+01	-5.784695e-05
1.873425e+01	-5.851712e-05
1.884246e+01	-5.919505e-05
1.895129e+01	-5.988084e-05
1.906075e+01	-6.057457e-05
1.917085e+01	-6.127634e-05
1.928158e+01	-6.198624e-05
1.939295e+01	-6.270436e-05
1.950496e+01	-6.343080e-05
1.961762e+01	-6.416566e-05
1.973093e+01	-6.490903e-05
1.984490e+01	-6.566102e-05
1.995952e+01	-6.642171e-05
2.007480e+01	-6.719122e-05
2.019076e+01	-6.796964e-05
2.030738e+01	-6.875708e-05
2.042467e+01	-6.955365e-05
2.054264e+01	-7.035944e-05
2.066130e+01	-7.117457e-05
2.078064e+01	-7.199914e-05
2.090066e+01	-7.283326e-05
2.102139e+01	-7.367705e-05
2.114280e+01	-7.453061e-05
2.126492e+01	-7.539406e-05
2.138775e+01	-7.626751e-05
2.151128e+01	-7.715108e-05
2.163553e+01	-7.804489e-05
2.176050e+01	-7.894906e-05
2.188619e+01	-7.986370e-05
2.201260e+01	-8.078893e-05
2.213974e+01	-8.172488e-05
2.226762e+01	-8.267168e-05
2.239624e+01	-8.362945e-05
2.252560e+01	-8.459831e-05
2.265571e+01	-8.557839e-05
2.278656e+01	-8.656983e-05
2.291818e+01	-8.757276e-05
2.305055e+01	-8.858730e-05
2.318369e+01	-8.961360e-05
2.331760e+01	-9.065179e-05
2.345228e+01	-9.170200e-05
2.358774e+01	-9.276438e-05
2.372398e+01	-9.383907e-05
2.386101e+01	-9.492621e-05
2.399883e+01	-9.602595e-05
2.413745e+01	-9.713842e-05
2.427686e+01	-9.826379e-05
2.441709e+01	-9.940219e-05
2.455812e+01	-1.005538e-04
2.469997e+01	-1.017187e-04
2.484263e+01	-1.028971e-04
2.498612e+01	-1.040892e-04
2.513044e+01	-1.052951e-04
2.527559e+01	-1.065150e-04
2.542158e+01	-1.077489e-04
2.556842e+01	-1.089972e-04
2.571610e+01	-1.102600e-04
2.586463e+01	-1.115374e-04
2.601403e+01	-1.128295e-04
2.616428e+01	-1.141367e-04
2.631541e+01	-1.154590e-04
2.646740e+01	-1.167966e-04
2.662028e+01	-1.181497e-04
2.677404e+01	-1.195184e-04
2.692868e+01	-1.209031e-04
2.708422e+01	-1.223038e-04
2.724066e+01	-1.237207e-04
2.739800e+01	-1.251540e-04
2.755625e+01	-1.266039e-04
2.771541e+01	-1.280706e-04
2.787550e+01	-1.295543e-04
2.803650e+01	-1.310552e-04
2.819844e+01	-1.325735e-04
2.836131e+01	-1.341094e-04
2.852513e+01	-1.356631e-04
2.868989e+01	-1.372347e-04
2.885560e+01	-1.388246e-04
2.902227e+01	-1.404329e-04
2.918990e+01	-1.420598e-04
2.935850e+01	-1.437056e-04
2.952807e+01	-1.453705e-04
2.969863e+01	-1.470546e-04
2.987016e+01	-1.487582e-04
3.004269e+01	-1.504816e-04
3.021622e+01	-1.522249e-04
3.039075e+01	-1.539885e-04
3.056628e+01	-1.557725e-04
3.074283e+01	-1.575771e-04
3.092040e+01	-1.594026e-04
3.109900e+01	-1.612493e-04
3.127862e+01	-1.631174e-04
3.145929e+01	-1.650071e-04
3.164099e+01	-1.669187e-04
3.182375e+01	-1.688525e-04
3.200756e+01	-1.708087e-04
3.219244e+01	-1.727875e-04
3.237838e+01	-1.747892e-04
3.256540e+01	-1.768142e-04
3.275349e+01	-1.788626e-04
3.294268e+01	-1.809347e-04
3.313295e+01	-1.830309e-04
3.332433e+01	-1.851513e-04
3.351681e+01	-1.872963e-04
3.371040e+01	-1.894661e-04
3.390511e+01	-1.916611e-04
3.410094e+01	-1.938814e-04
3.429791e+01	-1.961276e-04
3.449601e+01	-1.983997e-04
3.469526e+01	-2.006982e-04
3.489566e+01	-2.030233e-04
3.509721e+01	-2.053753e-04
3.529993e+01	-2.077546e-04
3.550382e+01	-2.101614e-04
3.570889e+01	-2.125961e-04
3.591515e+01	-2.150590e-04
3.612259e+01	-2.175505e-04
3.633123e+01	-2.200708e-04
3.654108e+01	-2.226203e-04
3.675214e+01	-2.251994e-04
3.696442e+01	-2.278083e-04
3.717792e+01	-2.304475e-04
3.739266e+01	-2.331172e-04
3.760864e+01	-2.358178e-04
3.782587e+01	-2.385498e-04
3.804435e+01	-2.413134e-04
3.826409e+01	-2.441090e-04
3.848510e+01	-2.469370e-04
3.870739e+01	-2.497977e-04
3.893096e+01	-2.526916e-04
3.915583e+01	-2.556190e-04
3.938199e+01	-2.585804e-04
3.960946e+01	-2.615760e-04
3.983824e+01	-2.646063e-04
4.006834e+01	-2.676718e-04
4.029978e+01	-2.707727e-04
4.053255e+01	-2.739096e-04
4.076666e+01	-2.770828e-04
4.100213e+01	-2.802928e-04
4.123896e+01	-2.835400e-04
4.147715e+01	-2.868247e-04
4.171672e+01	-2.901476e-04
4.195767e+01	-2.935089e-04
4.220002e+01	-2.969092e-04
4.244377e+01	-3.003488e-04
4.268892e+01	-3.038283e-04
4.293549e+01	-3.073481e-04
4.318348e+01	-3.109087e-04
4.343291e+01	-3.145106e-04
4.368377e+01	-3.181541e-04
4.393609e+01	-3.218399e-04
4.418986e+01	-3.255684e-04
4.444510e+01	-3.293400e-04
4.470182e+01	-3.331554e-04
4.496001e+01	-3.370149e-04
4.521970e+01	-3.409192e-04
4.548089e+01	-3.448687e-04
4.574358e+01	-3.488639e-04
4.600779e+01	-3.529054e-04
4.627353e+01	-3.569938e-04
4.654081e+01	-3.611295e-04
4.680963e+01	-3.653131e-04
4.708000e+01	-3.695451e-04
4.735193e+01	-3.738262e-04
4.762543e+01	-3.781569e-04
4.790051e+01	-3.825378e-04
4.817719e+01	-3.869694e-04
4.845545e+01	-3.914523e-04
4.873533e+01	-3.959872e-04
4.901682e+01	-4.005746e-04
4.929994e+01	-4.052152e-04
4.958470e+01	-4.099095e-04
4.987110e+01	-4.146582e-04
5.015915e+01	-4.194619e-04
5.044887e+01	-4.243212e-04
5.074026e+01	-4.292369e-04
5.103333e+01	-4.342094e-04
5.132810e+01	-4.392396e-04
5.162457e+01	-4.443281e-04
5.192275e+01	-4.494755e-04
5.222265e+01	-4.546825e-04
5.252429e+01	-4.599498e-04
5.282767e+01	-4.652782e-04
5.313280e+01	-4.706683e-04
5.343969e+01	-4.761208e-04
5.374836e+01	-4.816365e-04
5.405880e+01	-4.872161e-04
5.437105e+01	-4.928603e-04
5.468509e+01	-4.985699e-04
5.500095e+01	-5.043456e-04
5.531863e+01	-5.101882e-04
5.563815e+01	-5.160986e-04
5.595951e+01	-5.220773e-04
5.628273e+01	-5.281254e-04
5.660782e+01	-5.342435e-04
5.693479e+01	-5.404325e-04
5.726364e+01	-5.466931e-04
5.759439e+01	-5.530263e-04
5.792705e+01	-5.594329e-04
5.826164e+01	-5.659136e-04
5.859815e+01	-5.724695e-04
5.893662e+01	-5.791012e-04
5.927703e+01	-5.858098e-04
5.961941e+01	-5.925961e-04
5.996377e+01	-5.994610e-04
6.031012e+01	-6.064055e-04
6.065847e+01	-6.134304e-04
6.100883e+01	-6.205366e-04
6.136121e+01	-6.277252e-04
6.171563e+01	-6.349970e-04
6.207210e+01	-6.423531e-04
6.243063e+01	-6.497944e-04
6.279122e+01	-6.573218e-04
6.315390e+01	-6.649365e-04
6.351868e+01	-6.726394e-04
6.388556e+01	-6.804315e-04
6.425456e+01	-6.883139e-04
6.462569e+01	-6.962875e-04
6.499897e+01	-7.043535e-04
6.537440e+01	-7.125130e-04
6.575200e+01	-7.207670e-04
6.613178e+01	-7.291166e-04
6.651375e+01	-7.375629e-04
6.689793e+01	-7.461070e-04
6.728433e+01	-7.547501e-04
6.767297e+01	-7.634933e-04
6.806384e+01	-7.723378e-04
6.845698e+01	-7.812847e-04
6.885238e+01	-7.903353e-04
6.925007e+01	-7.994907e-04
6.965005e+01	-8.087522e-04
7.005235e+01	-8.181209e-04
7.045697e+01	-8.275982e-04
7.086393e+01	-8.371852e-04
7.127323e+01	-8.468833e-04
7.168490e+01	-8.566937e-04
7.209895e+01	-8.666177e-04
7.251539e+01	-8.766567e-04
7.293424e+01	-8.868120e-04
7.335551e+01	-8.970849e-04
7.377920e+01	-9.074768e-04
7.420535e+01	-9.179890e-04
7.463396e+01	-9.286230e-04
7.506504e+01	-9.393802e-04
7.549861e+01	-9.502620e-04
7.593469e+01	-9.612698e-04
7.637328e+01	-9.724051e-04
7.681441e+01	-9.836695e-04
7.725809e+01	-9.950642e-04
7.770433e+01	-1.006591e-03
7.815315e+01	-1.018251e-03
7.860456e+01	-1.030047e-03
7.905857e+01	-1.041978e-03
7.951521e+01	-1.054049e-03
7.997449e+01	-1.066259e-03
8.043642e+01	-1.078610e-03
8.090102e+01	-1.091104e-03
8.136830e+01	-1.103743e-03
8.183828e+01	-1.116529e-03
8.231097e+01	-1.129463e-03
8.278640e+01	-1.142546e-03
8.326457e+01	-1.155781e-03
8.374550e+01	-1.169169e-03
8.422921e+01	-1.182712e-03
8.471572e+01	-1.196413e-03
8.520503e+01	-1.210271e-03
8.569717e+01	-1.224291e-03
8.619215e+01	-1.238473e-03
8.669000e+01	-1.252819e-03
8.719071e+01	-1.267331e-03
8.769432e+01	-1.282011e-03
8.820084e+01	-1.296861e-03
8.871029e+01	-1.311883e-03
8.922267e+01	-1.327079e-03
8.973802e+01	-1.342452e-03
9.025634e+01	-1.358002e-03
9.077766e+01	-1.373732e-03
9.130199e+01	-1.389645e-03
9.182935e+01	-1.405742e-03
9.235975e+01	-1.422025e-03
9.289321e+01	-1.438497e-03
9.342976e+01	-1.455159e-03
9.396941e+01	-1.472015e-03
9.451217e+01	-1.489065e-03
9.505807e+01	-1.506314e-03
9.560712e+01	-1.523762e-03
9.615934e+01	-1.541412e-03
9.671476e+01	-1.559266e-03
9.727338e+01	-1.577327e-03
9.783522e+01	-1.595598e-03
9.840032e+01	-1.614080e-03
9.896867e+01	-1.632776e-03
9.954031e+01	-1.651688e-03
1.001153e+02	-1.670820e-03
1.006935e+02	-1.690173e-03
1.012751e+02	-1.709750e-03
1.018601e+02	-1.729554e-03
1.024484e+02	-1.749588e-03
1.030402e+02	-1.769853e-03
1.036353e+02	-1.790353e-03
1.042339e+02	-1.811090e-03
1.048360e+02	-1.832068e-03
1.054415e+02	-1.853288e-03
1.060505e+02	-1.874754e-03
1.066631e+02	-1.896469e-03
1.072791e+02	-1.918436e-03
1.078988e+02	-1.940656e-03
1.085220e+02	-1.963134e-03
1.091488e+02	-1.985872e-03
1.097793e+02	-2.008874e-03
1.104133e+02	-2.032142e-03
1.110511e+02	-2.055679e-03
1.116925e+02	-2.079489e-03
1.123376e+02	-2.103575e-03
1.129865e+02	-2.127939e-03
1.136391e+02	-2.152586e-03
1.142955e+02	-2.177518e-03
1.149556e+02	-2.202738e-03
1.156196e+02	-2.228251e-03
1.162874e+02	-2.254059e-03
1.169591e+02	-2.280166e-03
1.176347e+02	-2.306576e-03
1.183141e+02	-2.333291e-03
1.189975e+02	-2.360315e-03
1.196848e+02	-2.387652e-03
1.203761e+02	-2.415306e-03
1.210714e+02	-2.443280e-03
1.217707e+02	-2.471578e-03
1.224740e+02	-2.500204e-03
1.231814e+02	-2.529161e-03
1.238929e+02	-2.558453e-03
1.246085e+02	-2.588085e-03
1.253283e+02	-2.618060e-03
1.260522e+02	-2.648381e-03
1.267802e+02	-2.679054e-03
1.275125e+02	-2.710082e-03
1.282490e+02	-2.741469e-03
1.289898e+02	-2.773219e-03
1.297348e+02	-2.805337e-03
1.304842e+02	-2.837827e-03
1.312378e+02	-2.870693e-03
1.319959e+02	-2.903940e-03
1.327583e+02	-2.937572e-03
1.335251e+02	-2.971592e-03
1.342963e+02	-3.006007e-03
1.350720e+02	-3.040820e-03
1.358522e+02	-3.076037e-03
1.366368e+02	-3.111660e-03
1.374260e+02	-3.147697e-03
1.382198e+02	-3.184150e-03
1.390182e+02	-3.221026e-03
1.398211e+02	-3.258328e-03
1.406287e+02	-3.296062e-03
1.414410e+02	-3.334233e-03
1.422579e+02	-3.372846e-03
1.430796e+02	-3.411906e-03
1.439060e+02	-3.451418e-03
1.447372e+02	-3.491388e-03
1.455732e+02	-3.531820e-03
1.464141e+02	-3.572720e-03
1.472597e+02	-3.614094e-03
1.481103e+02	-3.655946e-03
1.489658e+02	-3.698283e-03
1.498262e+02	-3.741111e-03
1.506916e+02	-3.784433e-03
1.515620e+02	-3.828258e-03
1.524374e+02	-3.872589e-03
1.533179e+02	-3.917434e-03
1.542034e+02	-3.962798e-03
1.550941e+02	-4.008686e-03
1.559899e+02	-4.055106e-03
1.568909e+02	-4.102063e-03
1.577971e+02	-4.149564e-03
1.587085e+02	-4.197615e-03
1.596252e+02	-4.246221e-03
1.605472e+02	-4.295390e-03
1.614745e+02	-4.345129e-03
1.624072e+02	-4.395443e-03
1.633453e+02	-4.446339e-03
1.642887e+02	-4.497824e-03
1.652377e+02	-4.549905e-03
1.661921e+02	-4.602589e-03
1.671520e+02	-4.655883e-03
1.681175e+02	-4.709793e-03
1.690885e+02	-4.764327e-03
1.700651e+02	-4.819492e-03
1.710474e+02	-4.875296e-03
1.720354e+02	-4.931745e-03
1.730291e+02	-4.988848e-03
1.740285e+02	-5.046611e-03
1.750337e+02	-5.105043e-03
1.760446e+02	-5.164151e-03
1.770615e+02	-5.223943e-03
1.780842e+02	-5.284427e-03
1.791128e+02	-5.345610e-03
1.801473e+02	-5.407502e-03
1.811878e+02	-5.470110e-03
1.822344e+02	-5.533442e-03
1.832870e+02	-5.597507e-03
1.843456e+02	-5.662313e-03
1.854104e+02	-5.727869e-03
1.864813e+02	-5.794183e-03
1.875584e+02	-5.861265e-03
1.886418e+02	-5.929123e-03
1.897313e+02	-5.997766e-03
1.908272e+02	-6.067203e-03
1.919294e+02	-6.137443e-03
1.930380e+02	-6.208496e-03
1.941530e+02	-6.280371e-03
1.952744e+02	-6.353077e-03
1.964023e+02	-6.426624e-03
1.975367e+02	-6.501022e-03
1.986777e+02	-6.576281e-03
1.998252e+02	-6.652411e-03
2.009794e+02	-6.729421e-03
2.021403e+02	-6.807321e-03
2.033078e+02	-6.886123e-03
2.044821e+02	-6.965836e-03
2.056632e+02	-7.046472e-03
2.068511e+02	-7.128040e-03
2.080459e+02	-7.210551e-03
2.092475e+02	-7.294017e-03
2.104561e+02	-7.378448e-03
2.116717e+02	-7.463855e-03
2.128943e+02	-7.550250e-03
2.141240e+02	-7.637645e-03
2.153608e+02	-7.726050e-03
2.166047e+02	-7.815477e-03
2.178558e+02	-7.905939e-03
2.191141e+02	-7.997447e-03
2.203797e+02	-8.090012e-03
2.216526e+02	-8.183649e-03
2.229329e+02	-8.278368e-03
2.242205e+02	-8.374182e-03
2.255156e+02	-8.471104e-03
2.268182e+02	-8.569147e-03
2.281283e+02	-8.668323e-03
2.294459e+02	-8.768646e-03
2.307712e+02	-8.870129e-03
2.321041e+02	-8.972785e-03
2.334447e+02	-9.076628e-03
2.347931e+02	-9.181671e-03
2.361493e+02	-9.287929e-03
2.375133e+02	-9.395415e-03
2.388851e+02	-9.504144e-03
2.402649e+02	-9.614130e-03
2.416527e+02	-9.725387e-03
2.430484e+02	-9.837930e-03
2.444523e+02	-9.951773e-03
2.458642e+02	-1.006693e-02
2.472843e+02	-1.018342e-02
2.487126e+02	-1.030126e-02
2.501492e+02	-1.042046e-02
2.515940e+02	-1.054104e-02
2.530472e+02	-1.066301e-02
2.545088e+02	-1.078639e-02
2.559789e+02	-1.091119e-02
2.574574e+02	-1.103744e-02
2.589444e+02	-1.116515e-02
2.604401e+02	-1.129433e-02
2.619444e+02	-1.142500e-02
2.634574e+02	-1.155719e-02
2.649791e+02	-1.169090e-02
2.665096e+02	-1.182616e-02
2.680489e+02	-1.196298e-02
2.695972e+02	-1.210138e-02
2.711544e+02	-1.224138e-02
2.727205e+02	-1.238299e-02
2.742958e+02	-1.252624e-02
2.758801e+02	-1.267115e-02
2.774736e+02	-1.281773e-02
2.790762e+02	-1.296601e-02
2.806882e+02	-1.311599e-02
2.823094e+02	-1.326771e-02
2.839400e+02	-1.342118e-02
2.855800e+02	-1.357643e-02
2.872295e+02	-1.373346e-02
2.888886e+02	-1.389231e-02
2.905572e+02	-1.405300e-02
2.922354e+02	-1.421554e-02
2.939234e+02	-1.437996e-02
2.956211e+02	-1.454627e-02
2.973286e+02	-1.471451e-02
2.990459e+02	-1.488468e-02
3.007732e+02	-1.505683e-02
3.025104e+02	-1.523096e-02
3.042577e+02	-1.540710e-02
3.060151e+02	-1.558527e-02
3.077826e+02	-1.576550e-02
3.095604e+02	-1.594781e-02
3.113484e+02	-1.613223e-02
3.131467e+02	-1.631877e-02
3.149554e+02	-1.650747e-02
3.167746e+02	-1.669834e-02
3.186043e+02	-1.689142e-02
3.204445e+02	-1.708672e-02
3.222954e+02	-1.728428e-02
3.241570e+02	-1.748412e-02
3.260293e+02	-1.768626e-02
3.279124e+02	-1.789074e-02
3.298064e+02	-1.809757e-02
3.317114e+02	-1.830679e-02
3.336273e+02	-1.851843e-02
3.355544e+02	-1.873251e-02
3.374925e+02	-1.894905e-02
3.394418e+02	-1.916809e-02
3.414024e+02	-1.938966e-02
3.433744e+02	-1.961379e-02
3.453577e+02	-1.984050e-02
3.473525e+02	-2.006982e-02
3.493588e+02	-2.030179e-02
3.513766e+02	-2.053643e-02
3.534062e+02	-2.077378e-02
3.554474e+02	-2.101387e-02
3.575005e+02	-2.125672e-02
3.595654e+02	-2.150237e-02
3.616422e+02	-2.175086e-02
3.637311e+02	-2.200220e-02
3.658320e+02	-2.225645e-02
3.679450e+02	-2.251363e-02
3.700702e+02	-2.277376e-02
3.722077e+02	-2.303690e-02
3.743576e+02	-2.330307e-02
3.765199e+02	-2.357231e-02
3.786946e+02	-2.384465e-02
3.808820e+02	-2.412012e-02
3.830819e+02	-2.439877e-02
3.852946e+02	-2.468063e-02
3.875200e+02	-2.496574e-02
3.897583e+02	-2.525413e-02
3.920096e+02	-2.554584e-02
3.942738e+02	-2.584091e-02
3.965511e+02	-2.613938e-02
3.988416e+02	-2.644129e-02
4.011452e+02	-2.674667e-02
4.034622e+02	-2.705557e-02
4.057926e+02	-2.736802e-02
4.081365e+02	-2.768407e-02
4.104938e+02	-2.800376e-02
4.128648e+02	-2.832713e-02
4.152495e+02	-2.865422e-02
4.176480e+02	-2.898507e-02
4.200603e+02	-2.931974e-02
4.224866e+02	-2.965825e-02
4.249268e+02	-3.000066e-02
4.273812e+02	-3.034700e-02
4.298497e+02	-3.069733e-02
4.323325e+02	-3.105169e-02
4.348297e+02	-3.141013e-02
4.373412e+02	-3.177269e-02
4.398673e+02	-3.213942e-02
4.424079e+02	-3.251036e-02
4.449633e+02	-3.288557e-02
4.475334e+02	-3.326509e-02
4.501183e+02	-3.364898e-02
4.527182e+02	-3.403728e-02
4.553330e+02	-3.443004e-02
4.579630e+02	-3.482732e-02
4.606082e+02	-3.522916e-02
4.632687e+02	-3.563562e-02
4.659445e+02	-3.604675e-02
4.686358e+02	-3.646260e-02
4.713426e+02	-3.688323e-02
4.740650e+02	-3.730869e-02
4.768032e+02	-3.773903e-02
4.795572e+02	-3.817432e-02
4.823271e+02	-3.861461e-02
4.851130e+02	-3.905995e-02
4.879150e+02	-3.951041e-02
4.907332e+02	-3.996603e-02
4.935676e+02	-4.042689e-02
4.964185e+02	-4.089303e-02
4.992858e+02	-4.136452e-02
5.021696e+02	-4.184143e-02
5.050701e+02	-4.232380e-02
5.079874e+02	-4.281171e-02
5.109215e+02	-4.330522e-02
5.138726e+02	-4.380438e-02
5.168407e+02	-4.430927e-02
5.198259e+02	-4.481995e-02
5.228284e+02	-4.533648e-02
5.258482e+02	-4.585893e-02
5.288855e+02	-4.638738e-02
5.319403e+02	-4.692188e-02
5.350128e+02	-4.746250e-02
5.381030e+02	-4.800932e-02
5.412111e+02	-4.856240e-02
5.443371e+02	-4.912182e-02
5.474812e+02	-4.968764e-02
5.506434e+02	-5.025995e-02
5.538239e+02	-5.083881e-02
5.570228e+02	-5.142429e-02
5.602401e+02	-5.201648e-02
5.634760e+02	-5.261545e-02
5.667306e+02	-5.322127e-02
5.700040e+02	-5.383402e-02
5.732964e+02	-5.445378e-02
5.766077e+02	-5.508063e-02
5.799382e+02	-5.571466e-02
5.832879e+02	-5.635593e-02
5.866569e+02	-5.700453e-02
5.900454e+02	-5.766055e-02
5.934535e+02	-5.832407e-02
5.968813e+02	-5.899517e-02
6.003288e+02	-5.967394e-02
6.037963e+02	-6.036047e-02
6.072838e+02	-6.105484e-02
6.107914e+02	-6.175713e-02
6.143194e+02	-6.246745e-02
6.178676e+02	-6.318588e-02
6.214364e+02	-6.391251e-02
6.250258e+02	-6.464744e-02
6.286359e+02	-6.539075e-02
6.322669e+02	-6.614254e-02
6.359189e+02	-6.690291e-02
6.395919e+02	-6.767195e-02
6.432862e+02	-6.844976e-02
6.470017e+02	-6.923644e-02
6.507388e+02	-7.003209e-02
6.544974e+02	-7.083681e-02
6.582778e+02	-7.165069e-02
6.620800e+02	-7.247385e-02
6.659041e+02	-7.330639e-02
6.697504e+02	-7.414841e-02
6.736188e+02	-7.500001e-02
6.775096e+02	-7.586132e-02
6.814229e+02	-7.673242e-02
6.853587e+02	-7.761344e-02
6.893173e+02	-7.850448e-02
6.932988e+02	-7.940566e-02
6.973033e+02	-8.031708e-02
7.013309e+02	-8.123887e-02
