Frequency(Hz)	Magnitude(dB)
1.000000e+01	-2.066869e+00
1.005776e+01	-2.086212e+00
1.011585e+01	-2.105123e+00
1.017428e+01	-2.124424e+00
1.023305e+01	-2.143546e+00
1.029215e+01	-2.163253e+00
1.035160e+01	-2.182887e+00
1.041139e+01	-2.203103e+00
1.047153e+01	-2.222788e+00
1.053201e+01	-2.242849e+00
1.059284e+01	-2.263210e+00
1.065403e+01	-2.283598e+00
1.071556e+01	-2.304074e+00
1.077746e+01	-2.324841e+00
1.083971e+01	-2.345563e+00
1.090232e+01	-2.366551e+00
1.096529e+01	-2.387586e+00
1.102862e+01	-2.408741e+00
1.109232e+01	-2.430182e+00
1.115639e+01	-2.451562e+00
1.122083e+01	-2.473269e+00
1.128564e+01	-2.495079e+00
1.135083e+01	-2.517009e+00
1.141639e+01	-2.539042e+00
1.148233e+01	-2.561370e+00
1.154865e+01	-2.583883e+00
1.161536e+01	-2.606211e+00
1.168245e+01	-2.629026e+00
1.174992e+01	-2.651719e+00
1.181779e+01	-2.674490e+00
1.188605e+01	-2.697450e+00
1.195470e+01	-2.720808e+00
1.202375e+01	-2.744308e+00
1.209320e+01	-2.767651e+00
1.216305e+01	-2.791345e+00
1.223330e+01	-2.815129e+00
1.230396e+01	-2.839133e+00
1.237503e+01	-2.863112e+00
1.244651e+01	-2.887349e+00
1.251840e+01	-2.911668e+00
1.259070e+01	-2.936459e+00
1.266343e+01	-2.960716e+00
1.273657e+01	-2.985688e+00
1.281014e+01	-3.010729e+00
1.288413e+01	-3.035896e+00
1.295855e+01	-3.061253e+00
1.303339e+01	-3.086284e+00
1.310867e+01	-3.111910e+00
1.318439e+01	-3.137418e+00
1.326054e+01	-3.163233e+00
1.333713e+01	-3.189502e+00
1.341417e+01	-3.215413e+00
1.349165e+01	-3.241633e+00
1.356958e+01	-3.268090e+00
1.364795e+01	-3.294649e+00
1.372678e+01	-3.321245e+00
1.380607e+01	-3.347946e+00
1.388581e+01	-3.375020e+00
1.396602e+01	-3.401993e+00
1.404668e+01	-3.429244e+00
1.412782e+01	-3.456908e+00
1.420942e+01	-3.484128e+00
1.429149e+01	-3.511927e+00
1.437404e+01	-3.540075e+00
1.445706e+01	-3.567812e+00
1.454057e+01	-3.596070e+00
1.462455e+01	-3.624247e+00
1.470902e+01	-3.652225e+00
1.479398e+01	-3.680707e+00
1.487943e+01	-3.709728e+00
1.496537e+01	-3.738282e+00
1.505181e+01	-3.767480e+00
1.513875e+01	-3.796370e+00
1.522619e+01	-3.825706e+00
1.531414e+01	-3.854961e+00
1.540259e+01	-3.884460e+00
1.549156e+01	-3.914147e+00
1.558103e+01	-3.943849e+00
1.567103e+01	-3.973922e+00
1.576155e+01	-4.003999e+00
1.585258e+01	-4.034160e+00
1.594415e+01	-4.064437e+00
1.603624e+01	-4.095009e+00
1.612886e+01	-4.125379e+00
1.622202e+01	-4.156365e+00
1.631572e+01	-4.187066e+00
1.640996e+01	-4.218268e+00
1.650474e+01	-4.249430e+00
1.660008e+01	-4.280551e+00
1.669596e+01	-4.312115e+00
1.679239e+01	-4.343597e+00
1.688938e+01	-4.375213e+00
1.698694e+01	-4.407164e+00
1.708505e+01	-4.439339e+00
1.718373e+01	-4.471163e+00
1.728299e+01	-4.503324e+00
1.738281e+01	-4.535977e+00
1.748322e+01	-4.568168e+00
1.758420e+01	-4.600807e+00
1.768576e+01	-4.633814e+00
1.778792e+01	-4.666299e+00
1.789066e+01	-4.699371e+00
1.799399e+01	-4.732805e+00
1.809793e+01	-4.766064e+00
1.820246e+01	-4.799032e+00
1.830760e+01	-4.833061e+00
1.841334e+01	-4.866609e+00
1.851969e+01	-4.900073e+00
1.862666e+01	-4.934107e+00
1.873425e+01	-4.967990e+00
1.884246e+01	-5.002184e+00
1.895129e+01	-5.036550e+00
1.906075e+01	-5.071098e+00
1.917085e+01	-5.105712e+00
1.928158e+01	-5.140049e+00
1.939295e+01	-5.175166e+00
1.950496e+01	-5.209914e+00
1.961762e+01	-5.244971e+00
1.973093e+01	-5.279918e+00
1.984490e+01	-5.315358e+00
1.995952e+01	-5.350437e+00
2.007480e+01	-5.386275e+00
2.019076e+01	-5.421700e+00
2.030738e+01	-5.457430e+00
2.042467e+01	-5.493475e+00
2.054264e+01	-5.529191e+00
2.066130e+01	-5.565674e+00
2.078064e+01	-5.601541e+00
2.090066e+01	-5.637897e+00
2.102139e+01	-5.674212e+00
2.114280e+01	-5.710622e+00
2.126492e+01	-5.747246e+00
2.138775e+01	-5.784122e+00
2.151128e+01	-5.820996e+00
2.163553e+01	-5.857887e+00
2.176050e+01	-5.895140e+00
2.188619e+01	-5.932390e+00
2.201260e+01	-5.969850e+00
2.213974e+01	-6.007372e+00
2.226762e+01	-6.044881e+00
2.239624e+01	-6.082536e+00
2.252560e+01	-6.120150e+00
2.265571e+01	-6.157956e+00
2.278656e+01	-6.195718e+00
2.291818e+01	-6.234152e+00
2.305055e+01	-6.271845e+00
2.318369e+01	-6.310317e+00
2.331760e+01	-6.348805e+00
2.345228e+01	-6.387113e+00
2.358774e+01	-6.425750e+00
2.372398e+01	-6.464610e+00
2.386101e+01	-6.502946e+00
2.399883e+01	-6.541999e+00
2.413745e+01	-6.581233e+00
2.427686e+01	-6.620320e+00
2.441709e+01	-6.659051e+00
2.455812e+01	-6.698584e+00
2.469997e+01	-6.737906e+00
2.484263e+01	-6.777719e+00
2.498612e+01	-6.817004e+00
2.513044e+01	-6.856494e+00
2.527559e+01	-6.896750e+00
2.542158e+01	-6.936381e+00
2.556842e+01	-6.976434e+00
2.571610e+01	-7.016460e+00
2.586463e+01	-7.056615e+00
2.601403e+01	-7.096532e+00
2.616428e+01	-7.137139e+00
2.631541e+01	-7.177093e+00
2.646740e+01	-7.217977e+00
2.662028e+01	-7.258684e+00
2.677404e+01	-7.298866e+00
2.692868e+01	-7.339843e+00
2.708422e+01	-7.380805e+00
2.724066e+01	-7.421330e+00
2.739800e+01	-7.462485e+00
2.755625e+01	-7.503435e+00
2.771541e+01	-7.544656e+00
2.787550e+01	-7.586403e+00
2.803650e+01	-7.627776e+00
2.819844e+01	-7.668823e+00
2.836131e+01	-7.710327e+00
2.852513e+01	-7.752093e+00
2.868989e+01	-7.793689e+00
2.885560e+01	-7.835379e+00
2.902227e+01	-7.877228e+00
2.918990e+01	-7.919196e+00
2.935850e+01	-7.961255e+00
2.952807e+01	-8.003184e+00
2.969863e+01	-8.045605e+00
2.987016e+01	-8.087672e+00
3.004269e+01	-8.129948e+00
3.021622e+01	-8.172392e+00
3.039075e+01	-8.214792e+00
3.056628e+01	-8.257115e+00
3.074283e+01	-8.299829e+00
3.092040e+01	-8.342864e+00
3.109900e+01	-8.385207e+00
3.127862e+01	-8.428266e+00
3.145929e+01	-8.470932e+00
3.164099e+01	-8.514187e+00
3.182375e+01	-8.556737e+00
3.200756e+01	-8.599548e+00
3.219244e+01	-8.643457e+00
3.237838e+01	-8.686959e+00
3.256540e+01	-8.729944e+00
3.275349e+01	-8.773092e+00
3.294268e+01	-8.816107e+00
3.313295e+01	-8.859939e+00
3.332433e+01	-8.903529e+00
3.351681e+01	-8.947400e+00
3.371040e+01	-8.990830e+00
3.390511e+01	-9.034417e+00
3.410094e+01	-9.078733e+00
3.429791e+01	-9.122401e+00
3.449601e+01	-9.165935e+00
3.469526e+01	-9.209736e+00
3.489566e+01	-9.254222e+00
3.509721e+01	-9.298004e+00
3.529993e+01	-9.342581e+00
3.550382e+01	-9.386316e+00
3.570889e+01	-9.430806e+00
3.591515e+01	-9.475341e+00
3.612259e+01	-9.519178e+00
3.633123e+01	-9.563906e+00
3.654108e+01	-9.608632e+00
3.675214e+01	-9.653005e+00
3.696442e+01	-9.697904e+00
3.717792e+01	-9.742905e+00
3.739266e+01	-9.787356e+00
3.760864e+01	-9.832091e+00
3.782587e+01	-9.876771e+00
3.804435e+01	-9.921832e+00
3.826409e+01	-9.967016e+00
3.848510e+01	-1.001204e+01
3.870739e+01	-1.005727e+01
3.893096e+01	-1.010230e+01
3.915583e+01	-1.014752e+01
3.938199e+01	-1.019295e+01
3.960946e+01	-1.023753e+01
3.983824e+01	-1.028318e+01
4.006834e+01	-1.032823e+01
4.029978e+01	-1.037408e+01
4.053255e+01	-1.041940e+01
4.076666e+01	-1.046499e+01
4.100213e+01	-1.051023e+01
4.123896e+01	-1.055611e+01
4.147715e+01	-1.060118e+01
4.171672e+01	-1.064730e+01
4.195767e+01	-1.069349e+01
4.220002e+01	-1.073865e+01
4.244377e+01	-1.078362e+01
4.268892e+01	-1.083084e+01
4.293549e+01	-1.087655e+01
4.318348e+01	-1.092241e+01
4.343291e+01	-1.096808e+01
4.368377e+01	-1.101429e+01
4.393609e+01	-1.106067e+01
4.418986e+01	-1.110679e+01
4.444510e+01	-1.115305e+01
4.470182e+01	-1.119933e+01
4.496001e+01	-1.124561e+01
4.521970e+01	-1.129168e+01
4.548089e+01	-1.133749e+01
4.574358e+01	-1.138451e+01
4.600779e+01	-1.143096e+01
4.627353e+01	-1.147747e+01
4.654081e+01	-1.152369e+01
4.680963e+01	-1.157022e+01
4.708000e+01	-1.161616e+01
4.735193e+01	-1.166335e+01
4.762543e+01	-1.171042e+01
4.790051e+01	-1.175593e+01
4.817719e+01	-1.180340e+01
4.845545e+01	-1.185032e+01
4.873533e+01	-1.189689e+01
4.901682e+01	-1.194421e+01
4.929994e+01	-1.199022e+01
4.958470e+01	-1.203731e+01
4.987110e+01	-1.208484e+01
5.015915e+01	-1.213102e+01
5.044887e+01	-1.217772e+01
5.074026e+01	-1.222508e+01
5.103333e+01	-1.227214e+01
5.132810e+01	-1.231923e+01
5.162457e+01	-1.236636e+01
5.192275e+01	-1.241350e+01
5.222265e+01	-1.246113e+01
5.252429e+01	-1.250750e+01
5.282767e+01	-1.255525e+01
5.313280e+01	-1.260259e+01
5.343969e+01	-1.264953e+01
5.374836e+01	-1.269750e+01
5.405880e+01	-1.274469e+01
5.437105e+01	-1.279205e+01
5.468509e+01	-1.283920e+01
5.500095e+01	-1.288633e+01
5.531863e+01	-1.293359e+01
5.563815e+01	-1.298129e+01
5.595951e+01	-1.302845e+01
5.628273e+01	-1.307732e+01
5.660782e+01	-1.312427e+01
5.693479e+01	-1.317156e+01
5.726364e+01	-1.321907e+01
5.759439e+01	-1.326697e+01
5.792705e+01	-1.331449e+01
5.826164e+01	-1.336127e+01
5.859815e+01	-1.341050e+01
5.893662e+01	-1.345877e+01
5.927703e+01	-1.350620e+01
5.961941e+01	-1.355382e+01
5.996377e+01	-1.360145e+01
6.031012e+01	-1.364819e+01
6.065847e+01	-1.369702e+01
6.100883e+01	-1.374611e+01
6.136121e+01	-1.379328e+01
6.171563e+01	-1.384153e+01
6.207210e+01	-1.388898e+01
6.243063e+01	-1.393639e+01
6.279122e+01	-1.398525e+01
6.315390e+01	-1.403248e+01
6.351868e+01	-1.408098e+01
6.388556e+01	-1.412918e+01
6.425456e+01	-1.417696e+01
6.462569e+01	-1.422491e+01
6.499897e+01	-1.427333e+01
6.537440e+01	-1.432229e+01
6.575200e+01	-1.437039e+01
6.613178e+01	-1.441883e+01
6.651375e+01	-1.446549e+01
6.689793e+01	-1.451482e+01
6.728433e+01	-1.456268e+01
6.767297e+01	-1.461136e+01
6.806384e+01	-1.465971e+01
6.845698e+01	-1.470839e+01
6.885238e+01	-1.475641e+01
6.925007e+01	-1.480529e+01
6.965005e+01	-1.485301e+01
7.005235e+01	-1.490163e+01
7.045697e+01	-1.495014e+01
7.086393e+01	-1.499935e+01
7.127323e+01	-1.504608e+01
7.168490e+01	-1.509424e+01
7.209895e+01	-1.514341e+01
7.251539e+01	-1.519140e+01
7.293424e+01	-1.524087e+01
7.335551e+01	-1.528936e+01
7.377920e+01	-1.533891e+01
7.420535e+01	-1.538726e+01
7.463396e+01	-1.543482e+01
7.506504e+01	-1.548416e+01
7.549861e+01	-1.553194e+01
7.593469e+01	-1.558042e+01
7.637328e+01	-1.562953e+01
7.681441e+01	-1.567820e+01
7.725809e+01	-1.572650e+01
7.770433e+01	-1.577516e+01
7.815315e+01	-1.582433e+01
7.860456e+01	-1.587271e+01
7.905857e+01	-1.592183e+01
7.951521e+01	-1.597007e+01
7.997449e+01	-1.601941e+01
8.043642e+01	-1.606858e+01
8.090102e+01	-1.611685e+01
8.136830e+01	-1.616554e+01
8.183828e+01	-1.621426e+01
8.231097e+01	-1.626368e+01
8.278640e+01	-1.631170e+01
8.326457e+01	-1.636150e+01
8.374550e+01	-1.641099e+01
8.422921e+01	-1.645929e+01
8.471572e+01	-1.650862e+01
8.520503e+01	-1.655752e+01
8.569717e+01	-1.660552e+01
8.619215e+01	-1.665404e+01
8.669000e+01	-1.670414e+01
8.719071e+01	-1.675303e+01
8.769432e+01	-1.680133e+01
8.820084e+01	-1.684977e+01
8.871029e+01	-1.689914e+01
8.922267e+01	-1.694836e+01
8.973802e+01	-1.699889e+01
9.025634e+01	-1.704575e+01
9.077766e+01	-1.709609e+01
9.130199e+01	-1.714375e+01
9.182935e+01	-1.719375e+01
9.235975e+01	-1.724284e+01
9.289321e+01	-1.729159e+01
9.342976e+01	-1.734019e+01
9.396941e+01	-1.738945e+01
9.451217e+01	-1.743903e+01
9.505807e+01	-1.748827e+01
9.560712e+01	-1.753675e+01
9.615934e+01	-1.758692e+01
9.671476e+01	-1.763701e+01
9.727338e+01	-1.768541e+01
9.783522e+01	-1.773369e+01
9.840032e+01	-1.778359e+01
9.896867e+01	-1.783350e+01
9.954031e+01	-1.788157e+01
1.001153e+02	-1.793201e+01
1.006935e+02	-1.798038e+01
1.012751e+02	-1.802993e+01
1.018601e+02	-1.807928e+01
1.024484e+02	-1.812825e+01
1.030402e+02	-1.817726e+01
1.036353e+02	-1.822595e+01
1.042339e+02	-1.827605e+01
1.048360e+02	-1.832538e+01
1.054415e+02	-1.837529e+01
1.060505e+02	-1.842243e+01
1.066631e+02	-1.847284e+01
1.072791e+02	-1.852198e+01
1.078988e+02	-1.857255e+01
1.085220e+02	-1.862086e+01
1.091488e+02	-1.866985e+01
1.097793e+02	-1.872082e+01
1.104133e+02	-1.876922e+01
1.110511e+02	-1.881795e+01
1.116925e+02	-1.886737e+01
1.123376e+02	-1.891791e+01
1.129865e+02	-1.896705e+01
1.136391e+02	-1.901625e+01
1.142955e+02	-1.906392e+01
1.149556e+02	-1.911586e+01
1.156196e+02	-1.916265e+01
1.162874e+02	-1.921447e+01
1.169591e+02	-1.926333e+01
1.176347e+02	-1.931215e+01
1.183141e+02	-1.936264e+01
1.189975e+02	-1.941028e+01
1.196848e+02	-1.946007e+01
1.203761e+02	-1.950926e+01
1.210714e+02	-1.955965e+01
1.217707e+02	-1.960969e+01
1.224740e+02	-1.965937e+01
1.231814e+02	-1.970777e+01
1.238929e+02	-1.975687e+01
1.246085e+02	-1.980722e+01
1.253283e+02	-1.985548e+01
1.260522e+02	-1.990520e+01
1.267802e+02	-1.995563e+01
1.275125e+02	-2.000616e+01
1.282490e+02	-2.005576e+01
1.289898e+02	-2.010491e+01
1.297348e+02	-2.015475e+01
1.304842e+02	-2.020501e+01
1.312378e+02	-2.025399e+01
1.319959e+02	-2.030232e+01
1.327583e+02	-2.035164e+01
1.335251e+02	-2.040215e+01
1.342963e+02	-2.045052e+01
1.350720e+02	-2.050130e+01
1.358522e+02	-2.054963e+01
1.366368e+02	-2.059937e+01
1.374260e+02	-2.064965e+01
1.382198e+02	-2.069806e+01
1.390182e+02	-2.074845e+01
1.398211e+02	-2.079889e+01
1.406287e+02	-2.084801e+01
1.414410e+02	-2.089800e+01
1.422579e+02	-2.094709e+01
1.430796e+02	-2.099868e+01
1.439060e+02	-2.104702e+01
1.447372e+02	-2.109626e+01
1.455732e+02	-2.114557e+01
1.464141e+02	-2.119604e+01
1.472597e+02	-2.124610e+01
1.481103e+02	-2.129585e+01
1.489658e+02	-2.134638e+01
1.498262e+02	-2.139394e+01
1.506916e+02	-2.144295e+01
1.515620e+02	-2.149220e+01
1.524374e+02	-2.154212e+01
1.533179e+02	-2.159405e+01
1.542034e+02	-2.164340e+01
1.550941e+02	-2.169292e+01
1.559899e+02	-2.174259e+01
1.568909e+02	-2.179277e+01
1.577971e+02	-2.184170e+01
1.587085e+02	-2.189297e+01
1.596252e+02	-2.194080e+01
1.605472e+02	-2.199032e+01
1.614745e+02	-2.204054e+01
1.624072e+02	-2.208997e+01
1.633453e+02	-2.214191e+01
1.642887e+02	-2.218686e+01
1.652377e+02	-2.223971e+01
1.661921e+02	-2.228910e+01
1.671520e+02	-2.234064e+01
1.681175e+02	-2.238957e+01
1.690885e+02	-2.243992e+01
1.700651e+02	-2.249064e+01
1.710474e+02	-2.253949e+01
1.720354e+02	-2.258920e+01
1.730291e+02	-2.263944e+01
1.740285e+02	-2.268869e+01
1.750337e+02	-2.273713e+01
1.760446e+02	-2.278684e+01
1.770615e+02	-2.283802e+01
1.780842e+02	-2.288840e+01
1.791128e+02	-2.293489e+01
1.801473e+02	-2.298533e+01
1.811878e+02	-2.303710e+01
1.822344e+02	-2.308658e+01
1.832870e+02	-2.313368e+01
1.843456e+02	-2.318699e+01
1.854104e+02	-2.323474e+01
1.864813e+02	-2.328633e+01
1.875584e+02	-2.333502e+01
1.886418e+02	-2.338335e+01
1.897313e+02	-2.343572e+01
1.908272e+02	-2.348686e+01
1.919294e+02	-2.353344e+01
1.930380e+02	-2.358342e+01
1.941530e+02	-2.363648e+01
1.952744e+02	-2.368311e+01
1.964023e+02	-2.373242e+01
1.975367e+02	-2.378553e+01
1.986777e+02	-2.383211e+01
1.998252e+02	-2.388152e+01
2.009794e+02	-2.393205e+01
2.021403e+02	-2.398308e+01
2.033078e+02	-2.403399e+01
2.044821e+02	-2.408288e+01
2.056632e+02	-2.413226e+01
2.068511e+02	-2.418314e+01
2.080459e+02	-2.423127e+01
2.092475e+02	-2.428563e+01
2.104561e+02	-2.433222e+01
2.116717e+02	-2.438209e+01
2.128943e+02	-2.443220e+01
2.141240e+02	-2.448101e+01
2.153608e+02	-2.453236e+01
2.166047e+02	-2.457957e+01
2.178558e+02	-2.463351e+01
2.191141e+02	-2.468245e+01
2.203797e+02	-2.473011e+01
2.216526e+02	-2.478193e+01
2.229329e+02	-2.483049e+01
2.242205e+02	-2.487811e+01
2.255156e+02	-2.493239e+01
2.268182e+02	-2.498155e+01
2.281283e+02	-2.503133e+01
2.294459e+02	-2.508103e+01
2.307712e+02	-2.512899e+01
2.321041e+02	-2.517887e+01
2.334447e+02	-2.523099e+01
2.347931e+02	-2.527907e+01
2.361493e+02	-2.533270e+01
2.375133e+02	-2.537974e+01
2.388851e+02	-2.542938e+01
2.402649e+02	-2.548231e+01
2.416527e+02	-2.552925e+01
2.430484e+02	-2.557972e+01
2.444523e+02	-2.563084e+01
2.458642e+02	-2.567645e+01
2.472843e+02	-2.573249e+01
2.487126e+02	-2.577815e+01
2.501492e+02	-2.583114e+01
2.515940e+02	-2.587754e+01
2.530472e+02	-2.592914e+01
2.545088e+02	-2.597648e+01
2.559789e+02	-2.603122e+01
2.574574e+02	-2.607947e+01
2.589444e+02	-2.612937e+01
2.604401e+02	-2.618151e+01
2.619444e+02	-2.622785e+01
2.634574e+02	-2.627686e+01
2.649791e+02	-2.632958e+01
2.665096e+02	-2.637678e+01
2.680489e+02	-2.642782e+01
2.695972e+02	-2.647911e+01
2.711544e+02	-2.652862e+01
2.727205e+02	-2.657889e+01
2.742958e+02	-2.662500e+01
2.758801e+02	-2.667593e+01
2.774736e+02	-2.672911e+01
2.790762e+02	-2.678039e+01
2.806882e+02	-2.682923e+01
2.823094e+02	-2.687837e+01
2.839400e+02	-2.693037e+01
2.855800e+02	-2.697678e+01
2.872295e+02	-2.703039e+01
2.888886e+02	-2.707967e+01
2.905572e+02	-2.712790e+01
2.922354e+02	-2.718150e+01
2.939234e+02	-2.723065e+01
2.956211e+02	-2.728117e+01
2.973286e+02	-2.733065e+01
2.990459e+02	-2.738073e+01
3.007732e+02	-2.742556e+01
3.025104e+02	-2.747912e+01
3.042577e+02	-2.752879e+01
3.060151e+02	-2.757806e+01
3.077826e+02	-2.762847e+01
3.095604e+02	-2.767913e+01
3.113484e+02	-2.773003e+01
3.131467e+02	-2.777869e+01
3.149554e+02	-2.782832e+01
3.167746e+02	-2.787945e+01
3.186043e+02	-2.792836e+01
3.204445e+02	-2.797994e+01
3.222954e+02	-2.803277e+01
3.241570e+02	-2.807934e+01
3.260293e+02	-2.813310e+01
3.279124e+02	-2.818024e+01
3.298064e+02	-2.823263e+01
3.317114e+02	-2.828318e+01
3.336273e+02	-2.832724e+01
3.355544e+02	-2.837548e+01
3.374925e+02	-2.843023e+01
3.394418e+02	-2.847677e+01
3.414024e+02	-2.852408e+01
3.433744e+02	-2.857973e+01
3.453577e+02	-2.862890e+01
3.473525e+02	-2.867799e+01
3.493588e+02	-2.873030e+01
3.513766e+02	-2.877699e+01
3.534062e+02	-2.882723e+01
3.554474e+02	-2.887938e+01
3.575005e+02	-2.892664e+01
3.595654e+02	-2.898094e+01
3.616422e+02	-2.902870e+01
3.637311e+02	-2.908102e+01
3.658320e+02	-2.912729e+01
3.679450e+02	-2.918206e+01
3.700702e+02	-2.923129e+01
3.722077e+02	-2.928041e+01
3.743576e+02	-2.932488e+01
3.765199e+02	-2.938065e+01
3.786946e+02	-2.943182e+01
3.808820e+02	-2.947616e+01
3.830819e+02	-2.953130e+01
3.852946e+02	-2.957802e+01
3.875200e+02	-2.963152e+01
3.897583e+02	-2.968106e+01
3.920096e+02	-2.972960e+01
3.942738e+02	-2.978648e+01
3.965511e+02	-2.982880e+01
3.988416e+02	-2.987761e+01
4.011452e+02	-2.992605e+01
4.034622e+02	-2.997994e+01
4.057926e+02	-3.002856e+01
4.081365e+02	-3.007686e+01
4.104938e+02	-3.012767e+01
4.128648e+02	-3.017862e+01
4.152495e+02	-3.022813e+01
4.176480e+02	-3.028257e+01
4.200603e+02	-3.033634e+01
4.224866e+02	-3.038378e+01
4.249268e+02	-3.043087e+01
4.273812e+02	-3.048609e+01
4.298497e+02	-3.053463e+01
4.323325e+02	-3.058081e+01
4.348297e+02	-3.063948e+01
4.373412e+02	-3.068132e+01
4.398673e+02	-3.074322e+01
4.424079e+02	-3.078396e+01
4.449633e+02	-3.083683e+01
4.475334e+02	-3.088496e+01
4.501183e+02	-3.093444e+01
4.527182e+02	-3.098132e+01
4.553330e+02	-3.103542e+01
4.579630e+02	-3.108446e+01
4.606082e+02	-3.113028e+01
4.632687e+02	-3.118784e+01
4.659445e+02	-3.123839e+01
4.686358e+02	-3.127985e+01
4.713426e+02	-3.133073e+01
4.740650e+02	-3.138118e+01
4.768032e+02	-3.143444e+01
4.795572e+02	-3.148838e+01
4.823271e+02	-3.153515e+01
4.851130e+02	-3.158295e+01
4.879150e+02	-3.163475e+01
4.907332e+02	-3.168914e+01
4.935676e+02	-3.173830e+01
4.964185e+02	-3.179009e+01
4.992858e+02	-3.183974e+01
5.021696e+02	-3.189111e+01
5.050701e+02	-3.193885e+01
5.079874e+02	-3.198484e+01
5.109215e+02	-3.204238e+01
5.138726e+02	-3.209115e+01
5.168407e+02	-3.214037e+01
5.198259e+02	-3.218048e+01
5.228284e+02	-3.223412e+01
5.258482e+02	-3.228551e+01
5.288855e+02	-3.234091e+01
5.319403e+02	-3.239869e+01
5.350128e+02	-3.243629e+01
5.381030e+02	-3.248678e+01
5.412111e+02	-3.253724e+01
5.443371e+02	-3.259220e+01
5.474812e+02	-3.264104e+01
5.506434e+02	-3.269233e+01
5.538239e+02	-3.273635e+01
5.570228e+02	-3.278516e+01
5.602401e+02	-3.283991e+01
5.634760e+02	-3.288986e+01
5.667306e+02	-3.294014e+01
5.700040e+02	-3.299272e+01
5.732964e+02	-3.304556e+01
5.766077e+02	-3.308652e+01
5.799382e+02	-3.314512e+01
5.832879e+02	-3.319223e+01
5.866569e+02	-3.324463e+01
5.900454e+02	-3.329407e+01
5.934535e+02	-3.333675e+01
5.968813e+02	-3.339266e+01
6.003288e+02	-3.344507e+01
6.037963e+02	-3.349381e+01
6.072838e+02	-3.353560e+01
6.107914e+02	-3.359219e+01
6.143194e+02	-3.364735e+01
6.178676e+02	-3.370045e+01
6.214364e+02	-3.374722e+01
6.250258e+02	-3.380201e+01
6.286359e+02	-3.384080e+01
6.322669e+02	-3.389313e+01
6.359189e+02	-3.394723e+01
6.395919e+02	-3.399897e+01
6.432862e+02	-3.405545e+01
6.470017e+02	-3.410600e+01
6.507388e+02	-3.414748e+01
6.544974e+02	-3.420656e+01
6.582778e+02	-3.424990e+01
6.620800e+02	-3.428984e+01
6.659041e+02	-3.435381e+01
6.697504e+02	-3.440209e+01
6.736188e+02	-3.444926e+01
6.775096e+02	-3.449417e+01
6.814229e+02	-3.454125e+01
6.853587e+02	-3.460325e+01
6.893173e+02	-3.465396e+01
6.932988e+02	-3.469711e+01
6.973033e+02	-3.475435e+01
7.013309e+02	-3.480506e+01
