Frequency(Hz)	Magnitude(dB)
1.000000e+01	-2.297601e+00
1.005776e+01	-2.317881e+00
1.011585e+01	-2.338534e+00
1.017428e+01	-2.359572e+00
1.023305e+01	-2.380701e+00
1.029215e+01	-2.402042e+00
1.035160e+01	-2.423108e+00
1.041139e+01	-2.444587e+00
1.047153e+01	-2.466011e+00
1.053201e+01	-2.488139e+00
1.059284e+01	-2.509950e+00
1.065403e+01	-2.531726e+00
1.071556e+01	-2.554079e+00
1.077746e+01	-2.576390e+00
1.083971e+01	-2.598799e+00
1.090232e+01	-2.621419e+00
1.096529e+01	-2.644097e+00
1.102862e+01	-2.667279e+00
1.109232e+01	-2.690047e+00
1.115639e+01	-2.713237e+00
1.122083e+01	-2.736696e+00
1.128564e+01	-2.759829e+00
1.135083e+01	-2.783481e+00
1.141639e+01	-2.807511e+00
1.148233e+01	-2.831187e+00
1.154865e+01	-2.855443e+00
1.161536e+01	-2.879600e+00
1.168245e+01	-2.903854e+00
1.174992e+01	-2.928241e+00
1.181779e+01	-2.952922e+00
1.188605e+01	-2.977673e+00
1.195470e+01	-3.002507e+00
1.202375e+01	-3.027688e+00
1.209320e+01	-3.052796e+00
1.216305e+01	-3.078171e+00
1.223330e+01	-3.103792e+00
1.230396e+01	-3.129090e+00
1.237503e+01	-3.154672e+00
1.244651e+01	-3.180762e+00
1.251840e+01	-3.206783e+00
1.259070e+01	-3.233071e+00
1.266343e+01	-3.259458e+00
1.273657e+01	-3.285748e+00
1.281014e+01	-3.312526e+00
1.288413e+01	-3.339550e+00
1.295855e+01	-3.366211e+00
1.303339e+01	-3.393153e+00
1.310867e+01	-3.420363e+00
1.318439e+01	-3.447623e+00
1.326054e+01	-3.475085e+00
1.333713e+01	-3.502786e+00
1.341417e+01	-3.530701e+00
1.349165e+01	-3.558558e+00
1.356958e+01	-3.586548e+00
1.364795e+01	-3.614719e+00
1.372678e+01	-3.643087e+00
1.380607e+01	-3.671562e+00
1.388581e+01	-3.700162e+00
1.396602e+01	-3.728949e+00
1.404668e+01	-3.757870e+00
1.412782e+01	-3.786864e+00
1.420942e+01	-3.815943e+00
1.429149e+01	-3.845425e+00
1.437404e+01	-3.874695e+00
1.445706e+01	-3.904461e+00
1.454057e+01	-3.934149e+00
1.462455e+01	-3.963965e+00
1.470902e+01	-3.994108e+00
1.479398e+01	-4.024018e+00
1.487943e+01	-4.054500e+00
1.496537e+01	-4.084769e+00
1.505181e+01	-4.115342e+00
1.513875e+01	-4.145986e+00
1.522619e+01	-4.176866e+00
1.531414e+01	-4.207977e+00
1.540259e+01	-4.238986e+00
1.549156e+01	-4.270486e+00
1.558103e+01	-4.301671e+00
1.567103e+01	-4.333392e+00
1.576155e+01	-4.364842e+00
1.585258e+01	-4.396683e+00
1.594415e+01	-4.428848e+00
1.603624e+01	-4.460768e+00
1.612886e+01	-4.492841e+00
1.622202e+01	-4.525065e+00
1.631572e+01	-4.557675e+00
1.640996e+01	-4.590073e+00
1.650474e+01	-4.622781e+00
1.660008e+01	-4.655685e+00
1.669596e+01	-4.688694e+00
1.679239e+01	-4.721899e+00
1.688938e+01	-4.755046e+00
1.698694e+01	-4.788436e+00
1.708505e+01	-4.821566e+00
1.718373e+01	-4.855369e+00
1.728299e+01	-4.889153e+00
1.738281e+01	-4.922709e+00
1.748322e+01	-4.957057e+00
1.758420e+01	-4.991073e+00
1.768576e+01	-5.025315e+00
1.778792e+01	-5.059580e+00
1.789066e+01	-5.094244e+00
1.799399e+01	-5.128891e+00
1.809793e+01	-5.163501e+00
1.820246e+01	-5.198387e+00
1.830760e+01	-5.232926e+00
1.841334e+01	-5.268187e+00
1.851969e+01	-5.303598e+00
1.862666e+01	-5.339150e+00
1.873425e+01	-5.374104e+00
1.884246e+01	-5.410198e+00
1.895129e+01	-5.445426e+00
1.906075e+01	-5.481569e+00
1.917085e+01	-5.517508e+00
1.928158e+01	-5.553447e+00
1.939295e+01	-5.589674e+00
1.950496e+01	-5.625866e+00
1.961762e+01	-5.662196e+00
1.973093e+01	-5.698730e+00
1.984490e+01	-5.735204e+00
1.995952e+01	-5.772154e+00
2.007480e+01	-5.808986e+00
2.019076e+01	-5.845813e+00
2.030738e+01	-5.883172e+00
2.042467e+01	-5.920401e+00
2.054264e+01	-5.957323e+00
2.066130e+01	-5.994879e+00
2.078064e+01	-6.032317e+00
2.090066e+01	-6.070234e+00
2.102139e+01	-6.107800e+00
2.114280e+01	-6.145263e+00
2.126492e+01	-6.183100e+00
2.138775e+01	-6.221180e+00
2.151128e+01	-6.259651e+00
2.163553e+01	-6.297761e+00
2.176050e+01	-6.336234e+00
2.188619e+01	-6.374719e+00
2.201260e+01	-6.413528e+00
2.213974e+01	-6.451919e+00
2.226762e+01	-6.490497e+00
2.239624e+01	-6.529629e+00
2.252560e+01	-6.568391e+00
2.265571e+01	-6.607342e+00
2.278656e+01	-6.647032e+00
2.291818e+01	-6.685654e+00
2.305055e+01	-6.725353e+00
2.318369e+01	-6.764223e+00
2.331760e+01	-6.804414e+00
2.345228e+01	-6.843735e+00
2.358774e+01	-6.883227e+00
2.372398e+01	-6.923251e+00
2.386101e+01	-6.963360e+00
2.399883e+01	-7.003186e+00
2.413745e+01	-7.043310e+00
2.427686e+01	-7.083516e+00
2.441709e+01	-7.123486e+00
2.455812e+01	-7.164117e+00
2.469997e+01	-7.204787e+00
2.484263e+01	-7.245196e+00
2.498612e+01	-7.285827e+00
2.513044e+01	-7.326598e+00
2.527559e+01	-7.367217e+00
2.542158e+01	-7.408288e+00
2.556842e+01	-7.449138e+00
2.571610e+01	-7.489818e+00
2.586463e+01	-7.531460e+00
2.601403e+01	-7.572568e+00
2.616428e+01	-7.613714e+00
2.631541e+01	-7.655005e+00
2.646740e+01	-7.696748e+00
2.662028e+01	-7.738694e+00
2.677404e+01	-7.780187e+00
2.692868e+01	-7.822262e+00
2.708422e+01	-7.863243e+00
2.724066e+01	-7.905105e+00
2.739800e+01	-7.947612e+00
2.755625e+01	-7.989290e+00
2.771541e+01	-8.031781e+00
2.787550e+01	-8.074029e+00
2.803650e+01	-8.116268e+00
2.819844e+01	-8.158473e+00
2.836131e+01	-8.201259e+00
2.852513e+01	-8.243609e+00
2.868989e+01	-8.285732e+00
2.885560e+01	-8.328572e+00
2.902227e+01	-8.370945e+00
2.918990e+01	-8.413991e+00
2.935850e+01	-8.457113e+00
2.952807e+01	-8.499471e+00
2.969863e+01	-8.542753e+00
2.987016e+01	-8.585845e+00
3.004269e+01	-8.629020e+00
3.021622e+01	-8.672370e+00
3.039075e+01	-8.715403e+00
3.056628e+01	-8.758885e+00
3.074283e+01	-8.802758e+00
3.092040e+01	-8.845419e+00
3.109900e+01	-8.889532e+00
3.127862e+01	-8.932796e+00
3.145929e+01	-8.976151e+00
3.164099e+01	-9.020288e+00
3.182375e+01	-9.063598e+00
3.200756e+01	-9.107560e+00
3.219244e+01	-9.151635e+00
3.237838e+01	-9.195770e+00
3.256540e+01	-9.239560e+00
3.275349e+01	-9.283327e+00
3.294268e+01	-9.328121e+00
3.313295e+01	-9.372665e+00
3.332433e+01	-9.416366e+00
3.351681e+01	-9.460965e+00
3.371040e+01	-9.505435e+00
3.390511e+01	-9.549595e+00
3.410094e+01	-9.593798e+00
3.429791e+01	-9.639046e+00
3.449601e+01	-9.683633e+00
3.469526e+01	-9.728046e+00
3.489566e+01	-9.772557e+00
3.509721e+01	-9.817177e+00
3.529993e+01	-9.862063e+00
3.550382e+01	-9.907124e+00
3.570889e+01	-9.952429e+00
3.591515e+01	-9.996941e+00
3.612259e+01	-1.004242e+01
3.633123e+01	-1.008726e+01
3.654108e+01	-1.013255e+01
3.675214e+01	-1.017767e+01
3.696442e+01	-1.022313e+01
3.717792e+01	-1.026782e+01
3.739266e+01	-1.031382e+01
3.760864e+01	-1.035904e+01
3.782587e+01	-1.040454e+01
3.804435e+01	-1.045000e+01
3.826409e+01	-1.049490e+01
3.848510e+01	-1.054157e+01
3.870739e+01	-1.058662e+01
3.893096e+01	-1.063219e+01
3.915583e+01	-1.067772e+01
3.938199e+01	-1.072377e+01
3.960946e+01	-1.076981e+01
3.983824e+01	-1.081557e+01
4.006834e+01	-1.086089e+01
4.029978e+01	-1.090767e+01
4.053255e+01	-1.095305e+01
4.076666e+01	-1.099918e+01
4.100213e+01	-1.104591e+01
4.123896e+01	-1.109144e+01
4.147715e+01	-1.113732e+01
4.171672e+01	-1.118334e+01
4.195767e+01	-1.123008e+01
4.220002e+01	-1.127649e+01
4.244377e+01	-1.132245e+01
4.268892e+01	-1.136919e+01
4.293549e+01	-1.141550e+01
4.318348e+01	-1.146209e+01
4.343291e+01	-1.150812e+01
4.368377e+01	-1.155482e+01
4.393609e+01	-1.160150e+01
4.418986e+01	-1.164850e+01
4.444510e+01	-1.169484e+01
4.470182e+01	-1.174212e+01
4.496001e+01	-1.178801e+01
4.521970e+01	-1.183504e+01
4.548089e+01	-1.188167e+01
4.574358e+01	-1.192886e+01
4.600779e+01	-1.197519e+01
4.627353e+01	-1.202159e+01
4.654081e+01	-1.206879e+01
4.680963e+01	-1.211612e+01
4.708000e+01	-1.216315e+01
4.735193e+01	-1.220953e+01
4.762543e+01	-1.225692e+01
4.790051e+01	-1.230387e+01
4.817719e+01	-1.235081e+01
4.845545e+01	-1.239846e+01
4.873533e+01	-1.244533e+01
4.901682e+01	-1.249224e+01
4.929994e+01	-1.254019e+01
4.958470e+01	-1.258694e+01
4.987110e+01	-1.263458e+01
5.015915e+01	-1.268130e+01
5.044887e+01	-1.272904e+01
5.074026e+01	-1.277608e+01
5.103333e+01	-1.282398e+01
5.132810e+01	-1.287106e+01
5.162457e+01	-1.291850e+01
5.192275e+01	-1.296545e+01
5.222265e+01	-1.301371e+01
5.252429e+01	-1.306104e+01
5.282767e+01	-1.310893e+01
5.313280e+01	-1.315623e+01
5.343969e+01	-1.320347e+01
5.374836e+01	-1.325161e+01
5.405880e+01	-1.330025e+01
5.437105e+01	-1.334668e+01
5.468509e+01	-1.339470e+01
5.500095e+01	-1.344240e+01
5.531863e+01	-1.349026e+01
5.563815e+01	-1.353797e+01
5.595951e+01	-1.358573e+01
5.628273e+01	-1.363342e+01
5.660782e+01	-1.368176e+01
5.693479e+01	-1.372928e+01
5.726364e+01	-1.377737e+01
5.759439e+01	-1.382558e+01
5.792705e+01	-1.387343e+01
5.826164e+01	-1.392131e+01
5.859815e+01	-1.396949e+01
5.893662e+01	-1.401734e+01
5.927703e+01	-1.406452e+01
5.961941e+01	-1.411355e+01
5.996377e+01	-1.416188e+01
6.031012e+01	-1.420996e+01
6.065847e+01	-1.425802e+01
6.100883e+01	-1.430611e+01
6.136121e+01	-1.435393e+01
6.171563e+01	-1.440275e+01
6.207210e+01	-1.445085e+01
6.243063e+01	-1.449936e+01
6.279122e+01	-1.454604e+01
6.315390e+01	-1.459527e+01
6.351868e+01	-1.464405e+01
6.388556e+01	-1.469267e+01
6.425456e+01	-1.474053e+01
6.462569e+01	-1.478733e+01
6.499897e+01	-1.483754e+01
6.537440e+01	-1.488581e+01
6.575200e+01	-1.493359e+01
6.613178e+01	-1.498281e+01
6.651375e+01	-1.503061e+01
6.689793e+01	-1.507955e+01
6.728433e+01	-1.512690e+01
6.767297e+01	-1.517602e+01
6.806384e+01	-1.522475e+01
6.845698e+01	-1.527358e+01
6.885238e+01	-1.532183e+01
6.925007e+01	-1.537002e+01
6.965005e+01	-1.541906e+01
7.005235e+01	-1.546730e+01
7.045697e+01	-1.551629e+01
7.086393e+01	-1.556571e+01
7.127323e+01	-1.561490e+01
7.168490e+01	-1.566224e+01
7.209895e+01	-1.571106e+01
7.251539e+01	-1.576026e+01
7.293424e+01	-1.580749e+01
7.335551e+01	-1.585720e+01
7.377920e+01	-1.590577e+01
7.420535e+01	-1.595435e+01
7.463396e+01	-1.600361e+01
7.506504e+01	-1.605215e+01
7.549861e+01	-1.610101e+01
7.593469e+01	-1.615014e+01
7.637328e+01	-1.619855e+01
7.681441e+01	-1.624713e+01
7.725809e+01	-1.629541e+01
7.770433e+01	-1.634535e+01
7.815315e+01	-1.639373e+01
7.860456e+01	-1.644238e+01
7.905857e+01	-1.649095e+01
7.951521e+01	-1.654028e+01
7.997449e+01	-1.658864e+01
8.043642e+01	-1.663889e+01
8.090102e+01	-1.668772e+01
8.136830e+01	-1.673736e+01
8.183828e+01	-1.678582e+01
8.231097e+01	-1.683425e+01
8.278640e+01	-1.688279e+01
8.326457e+01	-1.693254e+01
8.374550e+01	-1.698075e+01
8.422921e+01	-1.703112e+01
8.471572e+01	-1.707981e+01
8.520503e+01	-1.712889e+01
8.569717e+01	-1.717649e+01
8.619215e+01	-1.722596e+01
8.669000e+01	-1.727517e+01
8.719071e+01	-1.732402e+01
8.769432e+01	-1.737424e+01
8.820084e+01	-1.742302e+01
8.871029e+01	-1.747252e+01
8.922267e+01	-1.752176e+01
8.973802e+01	-1.756951e+01
9.025634e+01	-1.761986e+01
9.077766e+01	-1.766882e+01
9.130199e+01	-1.771720e+01
9.182935e+01	-1.776810e+01
9.235975e+01	-1.781635e+01
9.289321e+01	-1.786572e+01
9.342976e+01	-1.791471e+01
9.396941e+01	-1.796376e+01
9.451217e+01	-1.801450e+01
9.505807e+01	-1.806239e+01
9.560712e+01	-1.811254e+01
9.615934e+01	-1.816089e+01
9.671476e+01	-1.820955e+01
9.727338e+01	-1.826020e+01
9.783522e+01	-1.831035e+01
9.840032e+01	-1.835845e+01
9.896867e+01	-1.840772e+01
9.954031e+01	-1.845619e+01
1.001153e+02	-1.850752e+01
1.006935e+02	-1.855530e+01
1.012751e+02	-1.860364e+01
1.018601e+02	-1.865370e+01
1.024484e+02	-1.870225e+01
1.030402e+02	-1.875355e+01
1.036353e+02	-1.880123e+01
1.042339e+02	-1.885073e+01
1.048360e+02	-1.890187e+01
1.054415e+02	-1.894915e+01
1.060505e+02	-1.899999e+01
1.066631e+02	-1.904875e+01
1.072791e+02	-1.909791e+01
1.078988e+02	-1.914769e+01
1.085220e+02	-1.919778e+01
1.091488e+02	-1.924767e+01
1.097793e+02	-1.929515e+01
1.104133e+02	-1.934594e+01
1.110511e+02	-1.939478e+01
1.116925e+02	-1.944545e+01
1.123376e+02	-1.949466e+01
1.129865e+02	-1.954355e+01
1.136391e+02	-1.959338e+01
1.142955e+02	-1.964268e+01
1.149556e+02	-1.969362e+01
1.156196e+02	-1.974136e+01
1.162874e+02	-1.979117e+01
1.169591e+02	-1.984037e+01
1.176347e+02	-1.988963e+01
1.183141e+02	-1.993935e+01
1.189975e+02	-1.998976e+01
1.196848e+02	-2.004058e+01
1.203761e+02	-2.008717e+01
1.210714e+02	-2.013684e+01
1.217707e+02	-2.018655e+01
1.224740e+02	-2.023720e+01
1.231814e+02	-2.028689e+01
1.238929e+02	-2.033732e+01
1.246085e+02	-2.038553e+01
1.253283e+02	-2.043480e+01
1.260522e+02	-2.048384e+01
1.267802e+02	-2.053178e+01
1.275125e+02	-2.058366e+01
1.282490e+02	-2.063450e+01
1.289898e+02	-2.068299e+01
1.297348e+02	-2.073134e+01
1.304842e+02	-2.078022e+01
1.312378e+02	-2.083234e+01
1.319959e+02	-2.088092e+01
1.327583e+02	-2.093076e+01
1.335251e+02	-2.098075e+01
1.342963e+02	-2.103092e+01
1.350720e+02	-2.107800e+01
1.358522e+02	-2.113078e+01
1.366368e+02	-2.117959e+01
1.374260e+02	-2.122943e+01
1.382198e+02	-2.128060e+01
1.390182e+02	-2.132942e+01
1.398211e+02	-2.137939e+01
1.406287e+02	-2.142735e+01
1.414410e+02	-2.147695e+01
1.422579e+02	-2.152597e+01
1.430796e+02	-2.157518e+01
1.439060e+02	-2.162785e+01
1.447372e+02	-2.167499e+01
1.455732e+02	-2.172687e+01
1.464141e+02	-2.177607e+01
1.472597e+02	-2.182797e+01
1.481103e+02	-2.187481e+01
1.489658e+02	-2.192599e+01
1.498262e+02	-2.197436e+01
1.506916e+02	-2.202557e+01
1.515620e+02	-2.207460e+01
1.524374e+02	-2.212404e+01
1.533179e+02	-2.217400e+01
1.542034e+02	-2.222462e+01
1.550941e+02	-2.227118e+01
1.559899e+02	-2.232340e+01
1.568909e+02	-2.237392e+01
1.577971e+02	-2.242122e+01
1.587085e+02	-2.247338e+01
1.596252e+02	-2.252266e+01
1.605472e+02	-2.257139e+01
1.614745e+02	-2.262130e+01
1.624072e+02	-2.267176e+01
1.633453e+02	-2.272147e+01
1.642887e+02	-2.277008e+01
1.652377e+02	-2.282171e+01
1.661921e+02	-2.286906e+01
1.671520e+02	-2.292064e+01
1.681175e+02	-2.296986e+01
1.690885e+02	-2.301972e+01
1.700651e+02	-2.306950e+01
1.710474e+02	-2.312039e+01
1.720354e+02	-2.316918e+01
1.730291e+02	-2.321727e+01
1.740285e+02	-2.326798e+01
1.750337e+02	-2.331791e+01
1.760446e+02	-2.336828e+01
1.770615e+02	-2.341786e+01
1.780842e+02	-2.346973e+01
1.791128e+02	-2.351714e+01
1.801473e+02	-2.356676e+01
1.811878e+02	-2.361885e+01
1.822344e+02	-2.366709e+01
1.832870e+02	-2.371413e+01
1.843456e+02	-2.376851e+01
1.854104e+02	-2.381771e+01
1.864813e+02	-2.386688e+01
1.875584e+02	-2.391661e+01
1.886418e+02	-2.396686e+01
1.897313e+02	-2.401596e+01
1.908272e+02	-2.406917e+01
1.919294e+02	-2.411590e+01
1.930380e+02	-2.416480e+01
1.941530e+02	-2.421606e+01
1.952744e+02	-2.426656e+01
1.964023e+02	-2.431604e+01
1.975367e+02	-2.436454e+01
1.986777e+02	-2.441552e+01
1.998252e+02	-2.446336e+01
2.009794e+02	-2.451396e+01
2.021403e+02	-2.456649e+01
2.033078e+02	-2.461423e+01
2.044821e+02	-2.466321e+01
2.056632e+02	-2.471249e+01
2.068511e+02	-2.476434e+01
2.080459e+02	-2.481312e+01
2.092475e+02	-2.486409e+01
2.104561e+02	-2.491514e+01
2.116717e+02	-2.496417e+01
2.128943e+02	-2.501405e+01
2.141240e+02	-2.506384e+01
2.153608e+02	-2.511464e+01
2.166047e+02	-2.516647e+01
2.178558e+02	-2.521445e+01
2.191141e+02	-2.526432e+01
2.203797e+02	-2.531522e+01
2.216526e+02	-2.536317e+01
2.229329e+02	-2.541163e+01
2.242205e+02	-2.546495e+01
2.255156e+02	-2.551329e+01
2.268182e+02	-2.556451e+01
2.281283e+02	-2.561048e+01
2.294459e+02	-2.566447e+01
2.307712e+02	-2.571103e+01
2.321041e+02	-2.576274e+01
2.334447e+02	-2.581335e+01
2.347931e+02	-2.586428e+01
2.361493e+02	-2.591084e+01
2.375133e+02	-2.596575e+01
2.388851e+02	-2.601102e+01
2.402649e+02	-2.606107e+01
2.416527e+02	-2.611104e+01
2.430484e+02	-2.615870e+01
2.444523e+02	-2.620967e+01
2.458642e+02	-2.626480e+01
2.472843e+02	-2.631347e+01
2.487126e+02	-2.636317e+01
2.501492e+02	-2.641280e+01
2.515940e+02	-2.646455e+01
2.530472e+02	-2.650949e+01
2.545088e+02	-2.656021e+01
2.559789e+02	-2.661154e+01
2.574574e+02	-2.666119e+01
2.589444e+02	-2.670995e+01
2.604401e+02	-2.676103e+01
2.619444e+02	-2.681597e+01
2.634574e+02	-2.686500e+01
2.649791e+02	-2.691278e+01
2.665096e+02	-2.696509e+01
2.680489e+02	-2.701171e+01
2.695972e+02	-2.706427e+01
2.711544e+02	-2.711156e+01
2.727205e+02	-2.715999e+01
2.742958e+02	-2.721145e+01
2.758801e+02	-2.726107e+01
2.774736e+02	-2.731252e+01
2.790762e+02	-2.736309e+01
2.806882e+02	-2.741206e+01
2.823094e+02	-2.746184e+01
2.839400e+02	-2.751165e+01
2.855800e+02	-2.755929e+01
2.872295e+02	-2.761040e+01
2.888886e+02	-2.766357e+01
2.905572e+02	-2.771187e+01
2.922354e+02	-2.775957e+01
2.939234e+02	-2.781216e+01
2.956211e+02	-2.786231e+01
2.973286e+02	-2.791019e+01
2.990459e+02	-2.796619e+01
3.007732e+02	-2.801174e+01
3.025104e+02	-2.806140e+01
3.042577e+02	-2.811195e+01
3.060151e+02	-2.816509e+01
3.077826e+02	-2.821330e+01
3.095604e+02	-2.826165e+01
3.113484e+02	-2.831438e+01
3.131467e+02	-2.835875e+01
3.149554e+02	-2.840981e+01
3.167746e+02	-2.846349e+01
3.186043e+02	-2.851008e+01
3.204445e+02	-2.855868e+01
3.222954e+02	-2.861364e+01
3.241570e+02	-2.866155e+01
3.260293e+02	-2.871274e+01
3.279124e+02	-2.876241e+01
3.298064e+02	-2.881374e+01
3.317114e+02	-2.886004e+01
3.336273e+02	-2.891204e+01
3.355544e+02	-2.895891e+01
3.374925e+02	-2.901366e+01
3.394418e+02	-2.906320e+01
3.414024e+02	-2.911305e+01
3.433744e+02	-2.916315e+01
3.453577e+02	-2.921477e+01
3.473525e+02	-2.926130e+01
3.493588e+02	-2.931413e+01
3.513766e+02	-2.935988e+01
3.534062e+02	-2.941846e+01
3.554474e+02	-2.946723e+01
3.575005e+02	-2.951608e+01
3.595654e+02	-2.956353e+01
3.616422e+02	-2.961669e+01
3.637311e+02	-2.966189e+01
3.658320e+02	-2.971229e+01
3.679450e+02	-2.976392e+01
3.700702e+02	-2.981381e+01
3.722077e+02	-2.986264e+01
3.743576e+02	-2.991701e+01
3.765199e+02	-2.996482e+01
3.786946e+02	-3.001502e+01
3.808820e+02	-3.006054e+01
3.830819e+02	-3.011586e+01
3.852946e+02	-3.016808e+01
3.875200e+02	-3.021806e+01
3.897583e+02	-3.026118e+01
3.920096e+02	-3.031595e+01
3.942738e+02	-3.036728e+01
3.965511e+02	-3.041595e+01
3.988416e+02	-3.046460e+01
4.011452e+02	-3.051584e+01
4.034622e+02	-3.056247e+01
4.057926e+02	-3.062068e+01
4.081365e+02	-3.066683e+01
4.104938e+02	-3.071608e+01
4.128648e+02	-3.076501e+01
4.152495e+02	-3.081813e+01
4.176480e+02	-3.086437e+01
4.200603e+02	-3.091965e+01
4.224866e+02	-3.095885e+01
4.249268e+02	-3.101463e+01
4.273812e+02	-3.106693e+01
4.298497e+02	-3.111394e+01
4.323325e+02	-3.116850e+01
4.348297e+02	-3.121740e+01
4.373412e+02	-3.126502e+01
4.398673e+02	-3.131768e+01
4.424079e+02	-3.136363e+01
4.449633e+02	-3.141704e+01
4.475334e+02	-3.146517e+01
4.501183e+02	-3.151347e+01
4.527182e+02	-3.156831e+01
4.553330e+02	-3.162044e+01
4.579630e+02	-3.166325e+01
4.606082e+02	-3.171844e+01
4.632687e+02	-3.176580e+01
4.659445e+02	-3.182401e+01
4.686358e+02	-3.186314e+01
4.713426e+02	-3.191907e+01
4.740650e+02	-3.197120e+01
4.768032e+02	-3.202207e+01
4.795572e+02	-3.206588e+01
4.823271e+02	-3.211856e+01
4.851130e+02	-3.217271e+01
4.879150e+02	-3.222284e+01
4.907332e+02	-3.226894e+01
4.935676e+02	-3.232151e+01
4.964185e+02	-3.237170e+01
4.992858e+02	-3.242151e+01
5.021696e+02	-3.247085e+01
5.050701e+02	-3.252206e+01
5.079874e+02	-3.256995e+01
5.109215e+02	-3.262223e+01
5.138726e+02	-3.267208e+01
5.168407e+02	-3.271899e+01
5.198259e+02	-3.276520e+01
5.228284e+02	-3.282293e+01
5.258482e+02	-3.287188e+01
5.288855e+02	-3.292008e+01
5.319403e+02	-3.297339e+01
5.350128e+02	-3.303440e+01
5.381030e+02	-3.307810e+01
5.412111e+02	-3.312873e+01
5.443371e+02	-3.318309e+01
5.474812e+02	-3.322609e+01
5.506434e+02	-3.328448e+01
5.538239e+02	-3.332990e+01
5.570228e+02	-3.338071e+01
5.602401e+02	-3.343647e+01
5.634760e+02	-3.347176e+01
5.667306e+02	-3.352693e+01
5.700040e+02	-3.357719e+01
5.732964e+02	-3.363220e+01
5.766077e+02	-3.367865e+01
5.799382e+02	-3.372597e+01
5.832879e+02	-3.378015e+01
5.866569e+02	-3.384020e+01
5.900454e+02	-3.387816e+01
5.934535e+02	-3.392780e+01
5.968813e+02	-3.398424e+01
6.003288e+02	-3.403319e+01
6.037963e+02	-3.408543e+01
6.072838e+02	-3.413527e+01
6.107914e+02	-3.418355e+01
6.143194e+02	-3.422842e+01
6.178676e+02	-3.428252e+01
6.214364e+02	-3.433357e+01
6.250258e+02	-3.438483e+01
6.286359e+02	-3.443158e+01
6.322669e+02	-3.447989e+01
6.359189e+02	-3.453303e+01
6.395919e+02	-3.458076e+01
6.432862e+02	-3.463429e+01
6.470017e+02	-3.467886e+01
6.507388e+02	-3.473178e+01
6.544974e+02	-3.478371e+01
6.582778e+02	-3.483826e+01
6.620800e+02	-3.489460e+01
6.659041e+02	-3.494508e+01
6.697504e+02	-3.499448e+01
6.736188e+02	-3.503215e+01
6.775096e+02	-3.508555e+01
6.814229e+02	-3.513704e+01
6.853587e+02	-3.519462e+01
6.893173e+02	-3.523862e+01
6.932988e+02	-3.529287e+01
6.973033e+02	-3.534254e+01
7.013309e+02	-3.539175e+01
