Frequency(Hz)	Magnitude(dB)
1.000000e+01	-1.692228e-05
1.005776e+01	-1.711833e-05
1.011585e+01	-1.731665e-05
1.017428e+01	-1.751726e-05
1.023305e+01	-1.772021e-05
1.029215e+01	-1.792550e-05
1.035160e+01	-1.813317e-05
1.041139e+01	-1.834325e-05
1.047153e+01	-1.855576e-05
1.053201e+01	-1.877073e-05
1.059284e+01	-1.898820e-05
1.065403e+01	-1.920818e-05
1.071556e+01	-1.943071e-05
1.077746e+01	-1.965582e-05
1.083971e+01	-1.988354e-05
1.090232e+01	-2.011389e-05
1.096529e+01	-2.034692e-05
1.102862e+01	-2.058264e-05
1.109232e+01	-2.082110e-05
1.115639e+01	-2.106232e-05
1.122083e+01	-2.130633e-05
1.128564e+01	-2.155317e-05
1.135083e+01	-2.180287e-05
1.141639e+01	-2.205546e-05
1.148233e+01	-2.231098e-05
1.154865e+01	-2.256945e-05
1.161536e+01	-2.283093e-05
1.168245e+01	-2.309543e-05
1.174992e+01	-2.336299e-05
1.181779e+01	-2.363366e-05
1.188605e+01	-2.390746e-05
1.195470e+01	-2.418444e-05
1.202375e+01	-2.446462e-05
1.209320e+01	-2.474805e-05
1.216305e+01	-2.503476e-05
1.223330e+01	-2.532479e-05
1.230396e+01	-2.561819e-05
1.237503e+01	-2.591498e-05
1.244651e+01	-2.621521e-05
1.251840e+01	-2.651892e-05
1.259070e+01	-2.682615e-05
1.266343e+01	-2.713694e-05
1.273657e+01	-2.745133e-05
1.281014e+01	-2.776936e-05
1.288413e+01	-2.809107e-05
1.295855e+01	-2.841651e-05
1.303339e+01	-2.874572e-05
1.310867e+01	-2.907875e-05
1.318439e+01	-2.941563e-05
1.326054e+01	-2.975642e-05
1.333713e+01	-3.010116e-05
1.341417e+01	-3.044989e-05
1.349165e+01	-3.080266e-05
1.356958e+01	-3.115951e-05
1.364795e+01	-3.152050e-05
1.372678e+01	-3.188567e-05
1.380607e+01	-3.225508e-05
1.388581e+01	-3.262876e-05
1.396602e+01	-3.300677e-05
1.404668e+01	-3.338916e-05
1.412782e+01	-3.377598e-05
1.420942e+01	-3.416729e-05
1.429149e+01	-3.456312e-05
1.437404e+01	-3.496355e-05
1.445706e+01	-3.536861e-05
1.454057e+01	-3.577836e-05
1.462455e+01	-3.619286e-05
1.470902e+01	-3.661216e-05
1.479398e+01	-3.703632e-05
1.487943e+01	-3.746540e-05
1.496537e+01	-3.789944e-05
1.505181e+01	-3.833852e-05
1.513875e+01	-3.878268e-05
1.522619e+01	-3.923198e-05
1.531414e+01	-3.968649e-05
1.540259e+01	-4.014627e-05
1.549156e+01	-4.061138e-05
1.558103e+01	-4.108187e-05
1.567103e+01	-4.155781e-05
1.576155e+01	-4.203927e-05
1.585258e+01	-4.252630e-05
1.594415e+01	-4.301898e-05
1.603624e+01	-4.351736e-05
1.612886e+01	-4.402152e-05
1.622202e+01	-4.453152e-05
1.631572e+01	-4.504743e-05
1.640996e+01	-4.556931e-05
1.650474e+01	-4.609724e-05
1.660008e+01	-4.663129e-05
1.669596e+01	-4.717152e-05
1.679239e+01	-4.771801e-05
1.688938e+01	-4.827084e-05
1.698694e+01	-4.883006e-05
1.708505e+01	-4.939577e-05
1.718373e+01	-4.996803e-05
1.728299e+01	-5.054692e-05
1.738281e+01	-5.113252e-05
1.748322e+01	-5.172490e-05
1.758420e+01	-5.232414e-05
1.768576e+01	-5.293033e-05
1.778792e+01	-5.354354e-05
1.789066e+01	-5.416385e-05
1.799399e+01	-5.479135e-05
1.809793e+01	-5.542612e-05
1.820246e+01	-5.606824e-05
1.830760e+01	-5.671781e-05
1.841334e+01	-5.737489e-05
1.851969e+01	-5.803959e-05
1.862666e+01	-5.871199e-05
1.873425e+01	-5.939218e-05
1.884246e+01	-6.008025e-05
1.895129e+01	-6.077630e-05
1.906075e+01	-6.148040e-05
1.917085e+01	-6.219266e-05
1.928158e+01	-6.291318e-05
1.939295e+01	-6.364204e-05
1.950496e+01	-6.437934e-05
1.961762e+01	-6.512519e-05
1.973093e+01	-6.587968e-05
1.984490e+01	-6.664291e-05
1.995952e+01	-6.741498e-05
2.007480e+01	-6.819599e-05
2.019076e+01	-6.898606e-05
2.030738e+01	-6.978527e-05
2.042467e+01	-7.059375e-05
2.054264e+01	-7.141159e-05
2.066130e+01	-7.223891e-05
2.078064e+01	-7.307581e-05
2.090066e+01	-7.392240e-05
2.102139e+01	-7.477881e-05
2.114280e+01	-7.564513e-05
2.126492e+01	-7.652150e-05
2.138775e+01	-7.740801e-05
2.151128e+01	-7.830480e-05
2.163553e+01	-7.921197e-05
2.176050e+01	-8.012966e-05
2.188619e+01	-8.105797e-05
2.201260e+01	-8.199704e-05
2.213974e+01	-8.294699e-05
2.226762e+01	-8.390795e-05
2.239624e+01	-8.488003e-05
2.252560e+01	-8.586338e-05
2.265571e+01	-8.685812e-05
2.278656e+01	-8.786439e-05
2.291818e+01	-8.888231e-05
2.305055e+01	-8.991203e-05
2.318369e+01	-9.095367e-05
2.331760e+01	-9.200739e-05
2.345228e+01	-9.307331e-05
2.358774e+01	-9.415158e-05
2.372398e+01	-9.524234e-05
2.386101e+01	-9.634573e-05
2.399883e+01	-9.746191e-05
2.413745e+01	-9.859102e-05
2.427686e+01	-9.973321e-05
2.441709e+01	-1.008886e-04
2.455812e+01	-1.020574e-04
2.469997e+01	-1.032398e-04
2.484263e+01	-1.044358e-04
2.498612e+01	-1.056457e-04
2.513044e+01	-1.068697e-04
2.527559e+01	-1.081078e-04
2.542158e+01	-1.093602e-04
2.556842e+01	-1.106272e-04
2.571610e+01	-1.119088e-04
2.586463e+01	-1.132053e-04
2.601403e+01	-1.145168e-04
2.616428e+01	-1.158435e-04
2.631541e+01	-1.171855e-04
2.646740e+01	-1.185431e-04
2.662028e+01	-1.199165e-04
2.677404e+01	-1.213057e-04
2.692868e+01	-1.227111e-04
2.708422e+01	-1.241327e-04
2.724066e+01	-1.255708e-04
2.739800e+01	-1.270255e-04
2.755625e+01	-1.284971e-04
2.771541e+01	-1.299858e-04
2.787550e+01	-1.314917e-04
2.803650e+01	-1.330150e-04
2.819844e+01	-1.345560e-04
2.836131e+01	-1.361149e-04
2.852513e+01	-1.376918e-04
2.868989e+01	-1.392869e-04
2.885560e+01	-1.409006e-04
2.902227e+01	-1.425329e-04
2.918990e+01	-1.441842e-04
2.935850e+01	-1.458546e-04
2.952807e+01	-1.475443e-04
2.969863e+01	-1.492536e-04
2.987016e+01	-1.509827e-04
3.004269e+01	-1.527319e-04
3.021622e+01	-1.545013e-04
3.039075e+01	-1.562912e-04
3.056628e+01	-1.581018e-04
3.074283e+01	-1.599335e-04
3.092040e+01	-1.617863e-04
3.109900e+01	-1.636606e-04
3.127862e+01	-1.655566e-04
3.145929e+01	-1.674746e-04
3.164099e+01	-1.694148e-04
3.182375e+01	-1.713775e-04
3.200756e+01	-1.733629e-04
3.219244e+01	-1.753713e-04
3.237838e+01	-1.774030e-04
3.256540e+01	-1.794582e-04
3.275349e+01	-1.815373e-04
3.294268e+01	-1.836404e-04
3.313295e+01	-1.857679e-04
3.332433e+01	-1.879200e-04
3.351681e+01	-1.900970e-04
3.371040e+01	-1.922993e-04
3.390511e+01	-1.945271e-04
3.410094e+01	-1.967807e-04
3.429791e+01	-1.990604e-04
3.449601e+01	-2.013665e-04
3.469526e+01	-2.036994e-04
3.489566e+01	-2.060592e-04
3.509721e+01	-2.084464e-04
3.529993e+01	-2.108613e-04
3.550382e+01	-2.133041e-04
3.570889e+01	-2.157752e-04
3.591515e+01	-2.182750e-04
3.612259e+01	-2.208037e-04
3.633123e+01	-2.233617e-04
3.654108e+01	-2.259493e-04
3.675214e+01	-2.285669e-04
3.696442e+01	-2.312149e-04
3.717792e+01	-2.338935e-04
3.739266e+01	-2.366032e-04
3.760864e+01	-2.393442e-04
3.782587e+01	-2.421170e-04
3.804435e+01	-2.449219e-04
3.826409e+01	-2.477593e-04
3.848510e+01	-2.506296e-04
3.870739e+01	-2.535331e-04
3.893096e+01	-2.564703e-04
3.915583e+01	-2.594415e-04
3.938199e+01	-2.624471e-04
3.960946e+01	-2.654875e-04
3.983824e+01	-2.685632e-04
4.006834e+01	-2.716744e-04
4.029978e+01	-2.748218e-04
4.053255e+01	-2.780055e-04
4.076666e+01	-2.812262e-04
4.100213e+01	-2.844842e-04
4.123896e+01	-2.877799e-04
4.147715e+01	-2.911138e-04
4.171672e+01	-2.944863e-04
4.195767e+01	-2.978979e-04
4.220002e+01	-3.013490e-04
4.244377e+01	-3.048401e-04
4.268892e+01	-3.083717e-04
4.293549e+01	-3.119441e-04
4.318348e+01	-3.155579e-04
4.343291e+01	-3.192136e-04
4.368377e+01	-3.229117e-04
4.393609e+01	-3.266525e-04
4.418986e+01	-3.304368e-04
4.444510e+01	-3.342648e-04
4.470182e+01	-3.381372e-04
4.496001e+01	-3.420545e-04
4.521970e+01	-3.460171e-04
4.548089e+01	-3.500256e-04
4.574358e+01	-3.540806e-04
4.600779e+01	-3.581826e-04
4.627353e+01	-3.623320e-04
4.654081e+01	-3.665296e-04
4.680963e+01	-3.707758e-04
4.708000e+01	-3.750711e-04
4.735193e+01	-3.794162e-04
4.762543e+01	-3.838117e-04
4.790051e+01	-3.882580e-04
4.817719e+01	-3.927559e-04
4.845545e+01	-3.973059e-04
4.873533e+01	-4.019086e-04
4.901682e+01	-4.065646e-04
4.929994e+01	-4.112745e-04
4.958470e+01	-4.160390e-04
4.987110e+01	-4.208587e-04
5.015915e+01	-4.257342e-04
5.044887e+01	-4.306662e-04
5.074026e+01	-4.356554e-04
5.103333e+01	-4.407023e-04
5.132810e+01	-4.458077e-04
5.162457e+01	-4.509722e-04
5.192275e+01	-4.561966e-04
5.222265e+01	-4.614815e-04
5.252429e+01	-4.668276e-04
5.282767e+01	-4.722356e-04
5.313280e+01	-4.777063e-04
5.343969e+01	-4.832404e-04
5.374836e+01	-4.888385e-04
5.405880e+01	-4.945015e-04
5.437105e+01	-5.002301e-04
5.468509e+01	-5.060251e-04
5.500095e+01	-5.118872e-04
5.531863e+01	-5.178172e-04
5.563815e+01	-5.238159e-04
5.595951e+01	-5.298841e-04
5.628273e+01	-5.360225e-04
5.660782e+01	-5.422321e-04
5.693479e+01	-5.485136e-04
5.726364e+01	-5.548679e-04
5.759439e+01	-5.612958e-04
5.792705e+01	-5.677981e-04
5.826164e+01	-5.743758e-04
5.859815e+01	-5.810297e-04
5.893662e+01	-5.877606e-04
5.927703e+01	-5.945695e-04
5.961941e+01	-6.014573e-04
5.996377e+01	-6.084248e-04
6.031012e+01	-6.154731e-04
6.065847e+01	-6.226030e-04
6.100883e+01	-6.298155e-04
6.136121e+01	-6.371116e-04
6.171563e+01	-6.444921e-04
6.207210e+01	-6.519582e-04
6.243063e+01	-6.595107e-04
6.279122e+01	-6.671508e-04
6.315390e+01	-6.748793e-04
6.351868e+01	-6.826973e-04
6.388556e+01	-6.906059e-04
6.425456e+01	-6.986062e-04
6.462569e+01	-7.066990e-04
6.499897e+01	-7.148857e-04
6.537440e+01	-7.231671e-04
6.575200e+01	-7.315445e-04
6.613178e+01	-7.400189e-04
6.651375e+01	-7.485915e-04
6.689793e+01	-7.572634e-04
6.728433e+01	-7.660357e-04
6.767297e+01	-7.749097e-04
6.806384e+01	-7.838864e-04
6.845698e+01	-7.929671e-04
6.885238e+01	-8.021530e-04
6.925007e+01	-8.114453e-04
6.965005e+01	-8.208452e-04
7.005235e+01	-8.303540e-04
7.045697e+01	-8.399730e-04
7.086393e+01	-8.497033e-04
7.127323e+01	-8.595464e-04
7.168490e+01	-8.695035e-04
7.209895e+01	-8.795759e-04
7.251539e+01	-8.897650e-04
7.293424e+01	-9.000721e-04
7.335551e+01	-9.104986e-04
7.377920e+01	-9.210458e-04
7.420535e+01	-9.317153e-04
7.463396e+01	-9.425083e-04
7.506504e+01	-9.534263e-04
7.549861e+01	-9.644708e-04
7.593469e+01	-9.756432e-04
7.637328e+01	-9.869450e-04
7.681441e+01	-9.983777e-04
7.725809e+01	-1.009943e-03
7.770433e+01	-1.021642e-03
7.815315e+01	-1.033476e-03
7.860456e+01	-1.045448e-03
7.905857e+01	-1.057558e-03
7.951521e+01	-1.069809e-03
7.997449e+01	-1.082202e-03
8.043642e+01	-1.094738e-03
8.090102e+01	-1.107419e-03
8.136830e+01	-1.120247e-03
8.183828e+01	-1.133224e-03
8.231097e+01	-1.146351e-03
8.278640e+01	-1.159630e-03
8.326457e+01	-1.173062e-03
8.374550e+01	-1.186651e-03
8.422921e+01	-1.200397e-03
8.471572e+01	-1.214301e-03
8.520503e+01	-1.228368e-03
8.569717e+01	-1.242596e-03
8.619215e+01	-1.256990e-03
8.669000e+01	-1.271551e-03
8.719071e+01	-1.286280e-03
8.769432e+01	-1.301179e-03
8.820084e+01	-1.316252e-03
8.871029e+01	-1.331498e-03
8.922267e+01	-1.346922e-03
8.973802e+01	-1.362524e-03
9.025634e+01	-1.378306e-03
9.077766e+01	-1.394272e-03
9.130199e+01	-1.410422e-03
9.182935e+01	-1.426760e-03
9.235975e+01	-1.443286e-03
9.289321e+01	-1.460004e-03
9.342976e+01	-1.476916e-03
9.396941e+01	-1.494024e-03
9.451217e+01	-1.511329e-03
9.505807e+01	-1.528835e-03
9.560712e+01	-1.546544e-03
9.615934e+01	-1.564458e-03
9.671476e+01	-1.582579e-03
9.727338e+01	-1.600911e-03
9.783522e+01	-1.619454e-03
9.840032e+01	-1.638212e-03
9.896867e+01	-1.657188e-03
9.954031e+01	-1.676383e-03
1.001153e+02	-1.695801e-03
1.006935e+02	-1.715443e-03
1.012751e+02	-1.735313e-03
1.018601e+02	-1.755413e-03
1.024484e+02	-1.775746e-03
1.030402e+02	-1.796314e-03
1.036353e+02	-1.817121e-03
1.042339e+02	-1.838168e-03
1.048360e+02	-1.859459e-03
1.054415e+02	-1.880997e-03
1.060505e+02	-1.902784e-03
1.066631e+02	-1.924823e-03
1.072791e+02	-1.947118e-03
1.078988e+02	-1.969670e-03
1.085220e+02	-1.992484e-03
1.091488e+02	-2.015563e-03
1.097793e+02	-2.038908e-03
1.104133e+02	-2.062524e-03
1.110511e+02	-2.086413e-03
1.116925e+02	-2.110578e-03
1.123376e+02	-2.135024e-03
1.129865e+02	-2.159753e-03
1.136391e+02	-2.184768e-03
1.142955e+02	-2.210072e-03
1.149556e+02	-2.235670e-03
1.156196e+02	-2.261564e-03
1.162874e+02	-2.287758e-03
1.169591e+02	-2.314255e-03
1.176347e+02	-2.341059e-03
1.183141e+02	-2.368174e-03
1.189975e+02	-2.395602e-03
1.196848e+02	-2.423348e-03
1.203761e+02	-2.451415e-03
1.210714e+02	-2.479807e-03
1.217707e+02	-2.508528e-03
1.224740e+02	-2.537582e-03
1.231814e+02	-2.566972e-03
1.238929e+02	-2.596702e-03
1.246085e+02	-2.626776e-03
1.253283e+02	-2.657199e-03
1.260522e+02	-2.687973e-03
1.267802e+02	-2.719105e-03
1.275125e+02	-2.750596e-03
1.282490e+02	-2.782452e-03
1.289898e+02	-2.814677e-03
1.297348e+02	-2.847275e-03
1.304842e+02	-2.880251e-03
1.312378e+02	-2.913608e-03
1.319959e+02	-2.947352e-03
1.327583e+02	-2.981486e-03
1.335251e+02	-3.016015e-03
1.342963e+02	-3.050944e-03
1.350720e+02	-3.086277e-03
1.358522e+02	-3.122020e-03
1.366368e+02	-3.158176e-03
1.374260e+02	-3.194751e-03
1.382198e+02	-3.231749e-03
1.390182e+02	-3.269176e-03
1.398211e+02	-3.307036e-03
1.406287e+02	-3.345334e-03
1.414410e+02	-3.384075e-03
1.422579e+02	-3.423265e-03
1.430796e+02	-3.462909e-03
1.439060e+02	-3.503011e-03
1.447372e+02	-3.543578e-03
1.455732e+02	-3.584614e-03
1.464141e+02	-3.626125e-03
1.472597e+02	-3.668117e-03
1.481103e+02	-3.710595e-03
1.489658e+02	-3.753565e-03
1.498262e+02	-3.797032e-03
1.506916e+02	-3.841002e-03
1.515620e+02	-3.885481e-03
1.524374e+02	-3.930475e-03
1.533179e+02	-3.975989e-03
1.542034e+02	-4.022031e-03
1.550941e+02	-4.068605e-03
1.559899e+02	-4.115719e-03
1.568909e+02	-4.163378e-03
1.577971e+02	-4.211588e-03
1.587085e+02	-4.260356e-03
1.596252e+02	-4.309689e-03
1.605472e+02	-4.359593e-03
1.614745e+02	-4.410074e-03
1.624072e+02	-4.461140e-03
1.633453e+02	-4.512796e-03
1.642887e+02	-4.565051e-03
1.652377e+02	-4.617910e-03
1.661921e+02	-4.671381e-03
1.671520e+02	-4.725470e-03
1.681175e+02	-4.780186e-03
1.690885e+02	-4.835535e-03
1.700651e+02	-4.891524e-03
1.710474e+02	-4.948161e-03
1.720354e+02	-5.005454e-03
1.730291e+02	-5.063409e-03
1.740285e+02	-5.122036e-03
1.750337e+02	-5.181340e-03
1.760446e+02	-5.241331e-03
1.770615e+02	-5.302016e-03
1.780842e+02	-5.363403e-03
1.791128e+02	-5.425501e-03
1.801473e+02	-5.488317e-03
1.811878e+02	-5.551860e-03
1.822344e+02	-5.616138e-03
1.832870e+02	-5.681159e-03
1.843456e+02	-5.746933e-03
1.854104e+02	-5.813468e-03
1.864813e+02	-5.880773e-03
1.875584e+02	-5.948857e-03
1.886418e+02	-6.017728e-03
1.897313e+02	-6.087396e-03
1.908272e+02	-6.157870e-03
1.919294e+02	-6.229159e-03
1.930380e+02	-6.301273e-03
1.941530e+02	-6.374221e-03
1.952744e+02	-6.448013e-03
1.964023e+02	-6.522659e-03
1.975367e+02	-6.598168e-03
1.986777e+02	-6.674550e-03
1.998252e+02	-6.751816e-03
2.009794e+02	-6.829976e-03
2.021403e+02	-6.909040e-03
2.033078e+02	-6.989019e-03
2.044821e+02	-7.069922e-03
2.056632e+02	-7.151761e-03
2.068511e+02	-7.234547e-03
2.080459e+02	-7.318290e-03
2.092475e+02	-7.403002e-03
2.104561e+02	-7.488694e-03
2.116717e+02	-7.575376e-03
2.128943e+02	-7.663061e-03
2.141240e+02	-7.751760e-03
2.153608e+02	-7.841485e-03
2.166047e+02	-7.932247e-03
2.178558e+02	-8.024059e-03
2.191141e+02	-8.116933e-03
2.203797e+02	-8.210881e-03
2.216526e+02	-8.305914e-03
2.229329e+02	-8.402047e-03
2.242205e+02	-8.499292e-03
2.255156e+02	-8.597660e-03
2.268182e+02	-8.697166e-03
2.281283e+02	-8.797823e-03
2.294459e+02	-8.899643e-03
2.307712e+02	-9.002640e-03
2.321041e+02	-9.106829e-03
2.334447e+02	-9.212221e-03
2.347931e+02	-9.318832e-03
2.361493e+02	-9.426676e-03
2.375133e+02	-9.535766e-03
2.388851e+02	-9.646117e-03
2.402649e+02	-9.757744e-03
2.416527e+02	-9.870661e-03
2.430484e+02	-9.984883e-03
2.444523e+02	-1.010043e-02
2.458642e+02	-1.021730e-02
2.472843e+02	-1.033553e-02
2.487126e+02	-1.045513e-02
2.501492e+02	-1.057610e-02
2.515940e+02	-1.069848e-02
2.530472e+02	-1.082227e-02
2.545088e+02	-1.094749e-02
2.559789e+02	-1.107416e-02
2.574574e+02	-1.120229e-02
2.589444e+02	-1.133190e-02
2.604401e+02	-1.146301e-02
2.619444e+02	-1.159563e-02
2.634574e+02	-1.172979e-02
2.649791e+02	-1.186550e-02
2.665096e+02	-1.200277e-02
2.680489e+02	-1.214163e-02
2.695972e+02	-1.228209e-02
2.711544e+02	-1.242418e-02
2.727205e+02	-1.256791e-02
2.742958e+02	-1.271330e-02
2.758801e+02	-1.286037e-02
2.774736e+02	-1.300913e-02
2.790762e+02	-1.315962e-02
2.806882e+02	-1.331184e-02
2.823094e+02	-1.346582e-02
2.839400e+02	-1.362158e-02
2.855800e+02	-1.377914e-02
2.872295e+02	-1.393852e-02
2.888886e+02	-1.409974e-02
2.905572e+02	-1.426281e-02
2.922354e+02	-1.442778e-02
2.939234e+02	-1.459465e-02
2.956211e+02	-1.476344e-02
2.973286e+02	-1.493418e-02
2.990459e+02	-1.510690e-02
3.007732e+02	-1.528161e-02
3.025104e+02	-1.545833e-02
3.042577e+02	-1.563710e-02
3.060151e+02	-1.581792e-02
3.077826e+02	-1.600084e-02
3.095604e+02	-1.618587e-02
3.113484e+02	-1.637303e-02
3.131467e+02	-1.656235e-02
3.149554e+02	-1.675386e-02
3.167746e+02	-1.694758e-02
3.186043e+02	-1.714353e-02
3.204445e+02	-1.734175e-02
3.222954e+02	-1.754225e-02
3.241570e+02	-1.774506e-02
3.260293e+02	-1.795022e-02
3.279124e+02	-1.815774e-02
3.298064e+02	-1.836765e-02
3.317114e+02	-1.857999e-02
3.336273e+02	-1.879478e-02
3.355544e+02	-1.901204e-02
3.374925e+02	-1.923181e-02
3.394418e+02	-1.945412e-02
3.414024e+02	-1.967898e-02
3.433744e+02	-1.990645e-02
3.453577e+02	-2.013653e-02
3.473525e+02	-2.036927e-02
3.493588e+02	-2.060469e-02
3.513766e+02	-2.084282e-02
3.534062e+02	-2.108371e-02
3.554474e+02	-2.132736e-02
3.575005e+02	-2.157383e-02
3.595654e+02	-2.182314e-02
3.616422e+02	-2.207532e-02
3.637311e+02	-2.233041e-02
3.658320e+02	-2.258844e-02
3.679450e+02	-2.284944e-02
3.700702e+02	-2.311345e-02
3.722077e+02	-2.338050e-02
3.743576e+02	-2.365063e-02
3.765199e+02	-2.392387e-02
3.786946e+02	-2.420026e-02
3.808820e+02	-2.447984e-02
3.830819e+02	-2.476263e-02
3.852946e+02	-2.504868e-02
3.875200e+02	-2.533803e-02
3.897583e+02	-2.563070e-02
3.920096e+02	-2.592675e-02
3.942738e+02	-2.622621e-02
3.965511e+02	-2.652912e-02
3.988416e+02	-2.683551e-02
4.011452e+02	-2.714543e-02
4.034622e+02	-2.745892e-02
4.057926e+02	-2.777602e-02
4.081365e+02	-2.809677e-02
4.104938e+02	-2.842121e-02
4.128648e+02	-2.874938e-02
4.152495e+02	-2.908133e-02
4.176480e+02	-2.941710e-02
4.200603e+02	-2.975674e-02
4.224866e+02	-3.010028e-02
4.249268e+02	-3.044777e-02
4.273812e+02	-3.079926e-02
4.298497e+02	-3.115479e-02
4.323325e+02	-3.151442e-02
4.348297e+02	-3.187818e-02
4.373412e+02	-3.224612e-02
4.398673e+02	-3.261829e-02
4.424079e+02	-3.299474e-02
4.449633e+02	-3.337552e-02
4.475334e+02	-3.376068e-02
4.501183e+02	-3.415026e-02
4.527182e+02	-3.454432e-02
4.553330e+02	-3.494291e-02
4.579630e+02	-3.534608e-02
4.606082e+02	-3.575389e-02
4.632687e+02	-3.616638e-02
4.659445e+02	-3.658360e-02
4.686358e+02	-3.700562e-02
4.713426e+02	-3.743249e-02
4.740650e+02	-3.786426e-02
4.768032e+02	-3.830099e-02
4.795572e+02	-3.874273e-02
4.823271e+02	-3.918954e-02
4.851130e+02	-3.964149e-02
4.879150e+02	-4.009862e-02
4.907332e+02	-4.056100e-02
4.935676e+02	-4.102868e-02
4.964185e+02	-4.150173e-02
4.992858e+02	-4.198021e-02
5.021696e+02	-4.246418e-02
5.050701e+02	-4.295370e-02
5.079874e+02	-4.344883e-02
5.109215e+02	-4.394965e-02
5.138726e+02	-4.445620e-02
5.168407e+02	-4.496857e-02
5.198259e+02	-4.548681e-02
5.228284e+02	-4.601098e-02
5.258482e+02	-4.654117e-02
5.288855e+02	-4.707743e-02
5.319403e+02	-4.761984e-02
5.350128e+02	-4.816847e-02
5.381030e+02	-4.872337e-02
5.412111e+02	-4.928464e-02
5.443371e+02	-4.985233e-02
5.474812e+02	-5.042652e-02
5.506434e+02	-5.100729e-02
5.538239e+02	-5.159471e-02
5.570228e+02	-5.218885e-02
5.602401e+02	-5.278979e-02
5.634760e+02	-5.339760e-02
5.667306e+02	-5.401238e-02
5.700040e+02	-5.463418e-02
5.732964e+02	-5.526310e-02
5.766077e+02	-5.589921e-02
5.799382e+02	-5.654259e-02
5.832879e+02	-5.719334e-02
5.866569e+02	-5.785152e-02
5.900454e+02	-5.851722e-02
5.934535e+02	-5.919053e-02
5.968813e+02	-5.987154e-02
6.003288e+02	-6.056032e-02
6.037963e+02	-6.125698e-02
6.072838e+02	-6.196159e-02
6.107914e+02	-6.267424e-02
6.143194e+02	-6.339504e-02
6.178676e+02	-6.412406e-02
6.214364e+02	-6.486140e-02
6.250258e+02	-6.560715e-02
6.286359e+02	-6.636142e-02
6.322669e+02	-6.712429e-02
6.359189e+02	-6.789586e-02
6.395919e+02	-6.867623e-02
6.432862e+02	-6.946549e-02
6.470017e+02	-7.026375e-02
6.507388e+02	-7.107111e-02
6.544974e+02	-7.188768e-02
6.582778e+02	-7.271354e-02
6.620800e+02	-7.354881e-02
6.659041e+02	-7.439359e-02
6.697504e+02	-7.524799e-02
6.736188e+02	-7.611212e-02
6.775096e+02	-7.698609e-02
6.814229e+02	-7.786999e-02
6.853587e+02	-7.876396e-02
6.893173e+02	-7.966809e-02
6.932988e+02	-8.058251e-02
6.973033e+02	-8.150732e-02
7.013309e+02	-8.244264e-02
