Frequency(Hz)	Magnitude(dB)
1.000000e+01	-1.704587e-05
1.005776e+01	-1.724335e-05
1.011585e+01	-1.744312e-05
1.017428e+01	-1.764520e-05
1.023305e+01	-1.784963e-05
1.029215e+01	-1.805642e-05
1.035160e+01	-1.826561e-05
1.041139e+01	-1.847722e-05
1.047153e+01	-1.869128e-05
1.053201e+01	-1.890783e-05
1.059284e+01	-1.912688e-05
1.065403e+01	-1.934847e-05
1.071556e+01	-1.957263e-05
1.077746e+01	-1.979938e-05
1.083971e+01	-2.002876e-05
1.090232e+01	-2.026080e-05
1.096529e+01	-2.049553e-05
1.102862e+01	-2.073297e-05
1.109232e+01	-2.097317e-05
1.115639e+01	-2.121615e-05
1.122083e+01	-2.146194e-05
1.128564e+01	-2.171058e-05
1.135083e+01	-2.196211e-05
1.141639e+01	-2.221654e-05
1.148233e+01	-2.247393e-05
1.154865e+01	-2.273429e-05
1.161536e+01	-2.299768e-05
1.168245e+01	-2.326411e-05
1.174992e+01	-2.353363e-05
1.181779e+01	-2.380627e-05
1.188605e+01	-2.408207e-05
1.195470e+01	-2.436107e-05
1.202375e+01	-2.464330e-05
1.209320e+01	-2.492880e-05
1.216305e+01	-2.521760e-05
1.223330e+01	-2.550976e-05
1.230396e+01	-2.580529e-05
1.237503e+01	-2.610425e-05
1.244651e+01	-2.640668e-05
1.251840e+01	-2.671261e-05
1.259070e+01	-2.702208e-05
1.266343e+01	-2.733514e-05
1.273657e+01	-2.765182e-05
1.281014e+01	-2.797217e-05
1.288413e+01	-2.829624e-05
1.295855e+01	-2.862406e-05
1.303339e+01	-2.895567e-05
1.310867e+01	-2.929113e-05
1.318439e+01	-2.963048e-05
1.326054e+01	-2.997375e-05
1.333713e+01	-3.032101e-05
1.341417e+01	-3.067228e-05
1.349165e+01	-3.102763e-05
1.356958e+01	-3.138709e-05
1.364795e+01	-3.175072e-05
1.372678e+01	-3.211856e-05
1.380607e+01	-3.249066e-05
1.388581e+01	-3.286707e-05
1.396602e+01	-3.324784e-05
1.404668e+01	-3.363303e-05
1.412782e+01	-3.402267e-05
1.420942e+01	-3.441683e-05
1.429149e+01	-3.481556e-05
1.437404e+01	-3.521891e-05
1.445706e+01	-3.562693e-05
1.454057e+01	-3.603967e-05
1.462455e+01	-3.645720e-05
1.470902e+01	-3.687957e-05
1.479398e+01	-3.730682e-05
1.487943e+01	-3.773903e-05
1.496537e+01	-3.817625e-05
1.505181e+01	-3.861853e-05
1.513875e+01	-3.906593e-05
1.522619e+01	-3.951852e-05
1.531414e+01	-3.997635e-05
1.540259e+01	-4.043949e-05
1.549156e+01	-4.090799e-05
1.558103e+01	-4.138191e-05
1.567103e+01	-4.186133e-05
1.576155e+01	-4.234631e-05
1.585258e+01	-4.283690e-05
1.594415e+01	-4.333317e-05
1.603624e+01	-4.383520e-05
1.612886e+01	-4.434304e-05
1.622202e+01	-4.485676e-05
1.631572e+01	-4.537644e-05
1.640996e+01	-4.590213e-05
1.650474e+01	-4.643392e-05
1.660008e+01	-4.697187e-05
1.669596e+01	-4.751604e-05
1.679239e+01	-4.806653e-05
1.688938e+01	-4.862339e-05
1.698694e+01	-4.918670e-05
1.708505e+01	-4.975654e-05
1.718373e+01	-5.033298e-05
1.728299e+01	-5.091610e-05
1.738281e+01	-5.150597e-05
1.748322e+01	-5.210268e-05
1.758420e+01	-5.270630e-05
1.768576e+01	-5.331691e-05
1.778792e+01	-5.393460e-05
1.789066e+01	-5.455945e-05
1.799399e+01	-5.519153e-05
1.809793e+01	-5.583093e-05
1.820246e+01	-5.647775e-05
1.830760e+01	-5.713205e-05
1.841334e+01	-5.779394e-05
1.851969e+01	-5.846349e-05
1.862666e+01	-5.914080e-05
1.873425e+01	-5.982596e-05
1.884246e+01	-6.051906e-05
1.895129e+01	-6.122018e-05
1.906075e+01	-6.192943e-05
1.917085e+01	-6.264690e-05
1.928158e+01	-6.337267e-05
1.939295e+01	-6.410686e-05
1.950496e+01	-6.484955e-05
1.961762e+01	-6.560084e-05
1.973093e+01	-6.636084e-05
1.984490e+01	-6.712964e-05
1.995952e+01	-6.790735e-05
2.007480e+01	-6.869407e-05
2.019076e+01	-6.948991e-05
2.030738e+01	-7.029496e-05
2.042467e+01	-7.110934e-05
2.054264e+01	-7.193315e-05
2.066130e+01	-7.276651e-05
2.078064e+01	-7.360953e-05
2.090066e+01	-7.446231e-05
2.102139e+01	-7.532496e-05
2.114280e+01	-7.619762e-05
2.126492e+01	-7.708038e-05
2.138775e+01	-7.797337e-05
2.151128e+01	-7.887671e-05
2.163553e+01	-7.979051e-05
2.176050e+01	-8.071489e-05
2.188619e+01	-8.164999e-05
2.201260e+01	-8.259592e-05
2.213974e+01	-8.355281e-05
2.226762e+01	-8.452078e-05
2.239624e+01	-8.549997e-05
2.252560e+01	-8.649050e-05
2.265571e+01	-8.749250e-05
2.278656e+01	-8.850612e-05
2.291818e+01	-8.953148e-05
2.305055e+01	-9.056871e-05
2.318369e+01	-9.161796e-05
2.331760e+01	-9.267937e-05
2.345228e+01	-9.375308e-05
2.358774e+01	-9.483922e-05
2.372398e+01	-9.593795e-05
2.386101e+01	-9.704940e-05
2.399883e+01	-9.817374e-05
2.413745e+01	-9.931109e-05
2.427686e+01	-1.004616e-04
2.441709e+01	-1.016255e-04
2.455812e+01	-1.028028e-04
2.469997e+01	-1.039938e-04
2.484263e+01	-1.051986e-04
2.498612e+01	-1.064173e-04
2.513044e+01	-1.076502e-04
2.527559e+01	-1.088973e-04
2.542158e+01	-1.101589e-04
2.556842e+01	-1.114351e-04
2.571610e+01	-1.127261e-04
2.586463e+01	-1.140321e-04
2.601403e+01	-1.153532e-04
2.616428e+01	-1.166895e-04
2.631541e+01	-1.180414e-04
2.646740e+01	-1.194089e-04
2.662028e+01	-1.207923e-04
2.677404e+01	-1.221917e-04
2.692868e+01	-1.236073e-04
2.708422e+01	-1.250393e-04
2.724066e+01	-1.264879e-04
2.739800e+01	-1.279533e-04
2.755625e+01	-1.294356e-04
2.771541e+01	-1.309351e-04
2.787550e+01	-1.324520e-04
2.803650e+01	-1.339865e-04
2.819844e+01	-1.355387e-04
2.836131e+01	-1.371090e-04
2.852513e+01	-1.386974e-04
2.868989e+01	-1.403042e-04
2.885560e+01	-1.419297e-04
2.902227e+01	-1.435739e-04
2.918990e+01	-1.452372e-04
2.935850e+01	-1.469198e-04
2.952807e+01	-1.486219e-04
2.969863e+01	-1.503437e-04
2.987016e+01	-1.520854e-04
3.004269e+01	-1.538474e-04
3.021622e+01	-1.556297e-04
3.039075e+01	-1.574327e-04
3.056628e+01	-1.592565e-04
3.074283e+01	-1.611015e-04
3.092040e+01	-1.629679e-04
3.109900e+01	-1.648559e-04
3.127862e+01	-1.667658e-04
3.145929e+01	-1.686978e-04
3.164099e+01	-1.706521e-04
3.182375e+01	-1.726292e-04
3.200756e+01	-1.746291e-04
3.219244e+01	-1.766522e-04
3.237838e+01	-1.786987e-04
3.256540e+01	-1.807689e-04
3.275349e+01	-1.828631e-04
3.294268e+01	-1.849816e-04
3.313295e+01	-1.871246e-04
3.332433e+01	-1.892925e-04
3.351681e+01	-1.914854e-04
3.371040e+01	-1.937038e-04
3.390511e+01	-1.959478e-04
3.410094e+01	-1.982179e-04
3.429791e+01	-2.005143e-04
3.449601e+01	-2.028372e-04
3.469526e+01	-2.051871e-04
3.489566e+01	-2.075642e-04
3.509721e+01	-2.099688e-04
3.529993e+01	-2.124013e-04
3.550382e+01	-2.148620e-04
3.570889e+01	-2.173511e-04
3.591515e+01	-2.198691e-04
3.612259e+01	-2.224163e-04
3.633123e+01	-2.249930e-04
3.654108e+01	-2.275996e-04
3.675214e+01	-2.302363e-04
3.696442e+01	-2.329036e-04
3.717792e+01	-2.356017e-04
3.739266e+01	-2.383312e-04
3.760864e+01	-2.410922e-04
3.782587e+01	-2.438853e-04
3.804435e+01	-2.467107e-04
3.826409e+01	-2.495688e-04
3.848510e+01	-2.524600e-04
3.870739e+01	-2.553848e-04
3.893096e+01	-2.583434e-04
3.915583e+01	-2.613363e-04
3.938199e+01	-2.643639e-04
3.960946e+01	-2.674265e-04
3.983824e+01	-2.705246e-04
4.006834e+01	-2.736586e-04
4.029978e+01	-2.768289e-04
4.053255e+01	-2.800360e-04
4.076666e+01	-2.832801e-04
4.100213e+01	-2.865619e-04
4.123896e+01	-2.898817e-04
4.147715e+01	-2.932399e-04
4.171672e+01	-2.966371e-04
4.195767e+01	-3.000736e-04
4.220002e+01	-3.035499e-04
4.244377e+01	-3.070665e-04
4.268892e+01	-3.106238e-04
4.293549e+01	-3.142224e-04
4.318348e+01	-3.178626e-04
4.343291e+01	-3.215450e-04
4.368377e+01	-3.252700e-04
4.393609e+01	-3.290382e-04
4.418986e+01	-3.328501e-04
4.444510e+01	-3.367061e-04
4.470182e+01	-3.406068e-04
4.496001e+01	-3.445526e-04
4.521970e+01	-3.485442e-04
4.548089e+01	-3.525820e-04
4.574358e+01	-3.566666e-04
4.600779e+01	-3.607985e-04
4.627353e+01	-3.649783e-04
4.654081e+01	-3.692065e-04
4.680963e+01	-3.734837e-04
4.708000e+01	-3.778104e-04
4.735193e+01	-3.821872e-04
4.762543e+01	-3.866148e-04
4.790051e+01	-3.910936e-04
4.817719e+01	-3.956244e-04
4.845545e+01	-4.002076e-04
4.873533e+01	-4.048439e-04
4.901682e+01	-4.095339e-04
4.929994e+01	-4.142782e-04
4.958470e+01	-4.190775e-04
4.987110e+01	-4.239324e-04
5.015915e+01	-4.288435e-04
5.044887e+01	-4.338115e-04
5.074026e+01	-4.388371e-04
5.103333e+01	-4.439209e-04
5.132810e+01	-4.490636e-04
5.162457e+01	-4.542658e-04
5.192275e+01	-4.595284e-04
5.222265e+01	-4.648518e-04
5.252429e+01	-4.702370e-04
5.282767e+01	-4.756845e-04
5.313280e+01	-4.811951e-04
5.343969e+01	-4.867696e-04
5.374836e+01	-4.924087e-04
5.405880e+01	-4.981130e-04
5.437105e+01	-5.038835e-04
5.468509e+01	-5.097207e-04
5.500095e+01	-5.156256e-04
5.531863e+01	-5.215990e-04
5.563815e+01	-5.276415e-04
5.595951e+01	-5.337540e-04
5.628273e+01	-5.399373e-04
5.660782e+01	-5.461922e-04
5.693479e+01	-5.525196e-04
5.726364e+01	-5.589202e-04
5.759439e+01	-5.653951e-04
5.792705e+01	-5.719449e-04
5.826164e+01	-5.785706e-04
5.859815e+01	-5.852730e-04
5.893662e+01	-5.920531e-04
5.927703e+01	-5.989118e-04
5.961941e+01	-6.058498e-04
5.996377e+01	-6.128683e-04
6.031012e+01	-6.199680e-04
6.065847e+01	-6.271500e-04
6.100883e+01	-6.344152e-04
6.136121e+01	-6.417645e-04
6.171563e+01	-6.491990e-04
6.207210e+01	-6.567195e-04
6.243063e+01	-6.643272e-04
6.279122e+01	-6.720231e-04
6.315390e+01	-6.798080e-04
6.351868e+01	-6.876832e-04
6.388556e+01	-6.956495e-04
6.425456e+01	-7.037082e-04
6.462569e+01	-7.118601e-04
6.499897e+01	-7.201066e-04
6.537440e+01	-7.284485e-04
6.575200e+01	-7.368871e-04
6.613178e+01	-7.454234e-04
6.651375e+01	-7.540585e-04
6.689793e+01	-7.627938e-04
6.728433e+01	-7.716301e-04
6.767297e+01	-7.805689e-04
6.806384e+01	-7.896112e-04
6.845698e+01	-7.987582e-04
6.885238e+01	-8.080112e-04
6.925007e+01	-8.173713e-04
6.965005e+01	-8.268399e-04
7.005235e+01	-8.364181e-04
7.045697e+01	-8.461073e-04
7.086393e+01	-8.559087e-04
7.127323e+01	-8.658237e-04
7.168490e+01	-8.758535e-04
7.209895e+01	-8.859994e-04
7.251539e+01	-8.962629e-04
7.293424e+01	-9.066453e-04
7.335551e+01	-9.171479e-04
7.377920e+01	-9.277722e-04
7.420535e+01	-9.385195e-04
7.463396e+01	-9.493914e-04
7.506504e+01	-9.603891e-04
7.549861e+01	-9.715142e-04
7.593469e+01	-9.827682e-04
7.637328e+01	-9.941525e-04
7.681441e+01	-1.005669e-03
7.725809e+01	-1.017318e-03
7.770433e+01	-1.029103e-03
7.815315e+01	-1.041024e-03
7.860456e+01	-1.053083e-03
7.905857e+01	-1.065282e-03
7.951521e+01	-1.077622e-03
7.997449e+01	-1.090105e-03
8.043642e+01	-1.102732e-03
8.090102e+01	-1.115506e-03
8.136830e+01	-1.128428e-03
8.183828e+01	-1.141499e-03
8.231097e+01	-1.154722e-03
8.278640e+01	-1.168098e-03
8.326457e+01	-1.181629e-03
8.374550e+01	-1.195317e-03
8.422921e+01	-1.209163e-03
8.471572e+01	-1.223169e-03
8.520503e+01	-1.237338e-03
8.569717e+01	-1.251671e-03
8.619215e+01	-1.266170e-03
8.669000e+01	-1.280836e-03
8.719071e+01	-1.295673e-03
8.769432e+01	-1.310681e-03
8.820084e+01	-1.325864e-03
8.871029e+01	-1.341222e-03
8.922267e+01	-1.356758e-03
8.973802e+01	-1.372474e-03
9.025634e+01	-1.388372e-03
9.077766e+01	-1.404454e-03
9.130199e+01	-1.420722e-03
9.182935e+01	-1.437179e-03
9.235975e+01	-1.453826e-03
9.289321e+01	-1.470666e-03
9.342976e+01	-1.487701e-03
9.396941e+01	-1.504934e-03
9.451217e+01	-1.522366e-03
9.505807e+01	-1.540000e-03
9.560712e+01	-1.557838e-03
9.615934e+01	-1.575882e-03
9.671476e+01	-1.594136e-03
9.727338e+01	-1.612601e-03
9.783522e+01	-1.631280e-03
9.840032e+01	-1.650175e-03
9.896867e+01	-1.669289e-03
9.954031e+01	-1.688625e-03
1.001153e+02	-1.708184e-03
1.006935e+02	-1.727970e-03
1.012751e+02	-1.747985e-03
1.018601e+02	-1.768232e-03
1.024484e+02	-1.788713e-03
1.030402e+02	-1.809431e-03
1.036353e+02	-1.830390e-03
1.042339e+02	-1.851591e-03
1.048360e+02	-1.873037e-03
1.054415e+02	-1.894732e-03
1.060505e+02	-1.916678e-03
1.066631e+02	-1.938879e-03
1.072791e+02	-1.961336e-03
1.078988e+02	-1.984053e-03
1.085220e+02	-2.007034e-03
1.091488e+02	-2.030280e-03
1.097793e+02	-2.053796e-03
1.104133e+02	-2.077584e-03
1.110511e+02	-2.101648e-03
1.116925e+02	-2.125990e-03
1.123376e+02	-2.150614e-03
1.129865e+02	-2.175523e-03
1.136391e+02	-2.200721e-03
1.142955e+02	-2.226210e-03
1.149556e+02	-2.251995e-03
1.156196e+02	-2.278078e-03
1.162874e+02	-2.304463e-03
1.169591e+02	-2.331154e-03
1.176347e+02	-2.358153e-03
1.183141e+02	-2.385466e-03
1.189975e+02	-2.413094e-03
1.196848e+02	-2.441043e-03
1.203761e+02	-2.469315e-03
1.210714e+02	-2.497914e-03
1.217707e+02	-2.526845e-03
1.224740e+02	-2.556110e-03
1.231814e+02	-2.585715e-03
1.238929e+02	-2.615662e-03
1.246085e+02	-2.645956e-03
1.253283e+02	-2.676600e-03
1.260522e+02	-2.707600e-03
1.267802e+02	-2.738958e-03
1.275125e+02	-2.770680e-03
1.282490e+02	-2.802768e-03
1.289898e+02	-2.835229e-03
1.297348e+02	-2.868065e-03
1.304842e+02	-2.901281e-03
1.312378e+02	-2.934882e-03
1.319959e+02	-2.968871e-03
1.327583e+02	-3.003255e-03
1.335251e+02	-3.038036e-03
1.342963e+02	-3.073220e-03
1.350720e+02	-3.108811e-03
1.358522e+02	-3.144814e-03
1.366368e+02	-3.181235e-03
1.374260e+02	-3.218076e-03
1.382198e+02	-3.255345e-03
1.390182e+02	-3.293044e-03
1.398211e+02	-3.331181e-03
1.406287e+02	-3.369758e-03
1.414410e+02	-3.408782e-03
1.422579e+02	-3.448258e-03
1.430796e+02	-3.488191e-03
1.439060e+02	-3.528586e-03
1.447372e+02	-3.569449e-03
1.455732e+02	-3.610785e-03
1.464141e+02	-3.652599e-03
1.472597e+02	-3.694897e-03
1.481103e+02	-3.737685e-03
1.489658e+02	-3.780969e-03
1.498262e+02	-3.824753e-03
1.506916e+02	-3.869044e-03
1.515620e+02	-3.913847e-03
1.524374e+02	-3.959170e-03
1.533179e+02	-4.005016e-03
1.542034e+02	-4.051394e-03
1.550941e+02	-4.098308e-03
1.559899e+02	-4.145766e-03
1.568909e+02	-4.193772e-03
1.577971e+02	-4.242334e-03
1.587085e+02	-4.291458e-03
1.596252e+02	-4.341151e-03
1.605472e+02	-4.391419e-03
1.614745e+02	-4.442269e-03
1.624072e+02	-4.493707e-03
1.633453e+02	-4.545740e-03
1.642887e+02	-4.598376e-03
1.652377e+02	-4.651621e-03
1.661921e+02	-4.705482e-03
1.671520e+02	-4.759966e-03
1.681175e+02	-4.815081e-03
1.690885e+02	-4.870834e-03
1.700651e+02	-4.927231e-03
1.710474e+02	-4.984282e-03
1.720354e+02	-5.041992e-03
1.730291e+02	-5.100371e-03
1.740285e+02	-5.159425e-03
1.750337e+02	-5.219162e-03
1.760446e+02	-5.279591e-03
1.770615e+02	-5.340718e-03
1.780842e+02	-5.402553e-03
1.791128e+02	-5.465104e-03
1.801473e+02	-5.528378e-03
1.811878e+02	-5.592385e-03
1.822344e+02	-5.657132e-03
1.832870e+02	-5.722628e-03
1.843456e+02	-5.788881e-03
1.854104e+02	-5.855902e-03
1.864813e+02	-5.923698e-03
1.875584e+02	-5.992278e-03
1.886418e+02	-6.061651e-03
1.897313e+02	-6.131827e-03
1.908272e+02	-6.202815e-03
1.919294e+02	-6.274624e-03
1.930380e+02	-6.347264e-03
1.941530e+02	-6.420745e-03
1.952744e+02	-6.495075e-03
1.964023e+02	-6.570265e-03
1.975367e+02	-6.646325e-03
1.986777e+02	-6.723264e-03
1.998252e+02	-6.801094e-03
2.009794e+02	-6.879824e-03
2.021403e+02	-6.959464e-03
2.033078e+02	-7.040026e-03
2.044821e+02	-7.121520e-03
2.056632e+02	-7.203956e-03
2.068511e+02	-7.287345e-03
2.080459e+02	-7.371699e-03
2.092475e+02	-7.457029e-03
2.104561e+02	-7.543345e-03
2.116717e+02	-7.630660e-03
2.128943e+02	-7.718984e-03
2.141240e+02	-7.808330e-03
2.153608e+02	-7.898709e-03
2.166047e+02	-7.990133e-03
2.178558e+02	-8.082614e-03
2.191141e+02	-8.176165e-03
2.203797e+02	-8.270798e-03
2.216526e+02	-8.366524e-03
2.229329e+02	-8.463358e-03
2.242205e+02	-8.561311e-03
2.255156e+02	-8.660397e-03
2.268182e+02	-8.760629e-03
2.281283e+02	-8.862019e-03
2.294459e+02	-8.964581e-03
2.307712e+02	-9.068330e-03
2.321041e+02	-9.173277e-03
2.334447e+02	-9.279438e-03
2.347931e+02	-9.386826e-03
2.361493e+02	-9.495456e-03
2.375133e+02	-9.605341e-03
2.388851e+02	-9.716497e-03
2.402649e+02	-9.828937e-03
2.416527e+02	-9.942677e-03
2.430484e+02	-1.005773e-02
2.444523e+02	-1.017412e-02
2.458642e+02	-1.029185e-02
2.472843e+02	-1.041094e-02
2.487126e+02	-1.053140e-02
2.501492e+02	-1.065326e-02
2.515940e+02	-1.077653e-02
2.530472e+02	-1.090122e-02
2.545088e+02	-1.102735e-02
2.559789e+02	-1.115494e-02
2.574574e+02	-1.128401e-02
2.589444e+02	-1.141456e-02
2.604401e+02	-1.154663e-02
2.619444e+02	-1.168022e-02
2.634574e+02	-1.181535e-02
2.649791e+02	-1.195205e-02
2.665096e+02	-1.209032e-02
2.680489e+02	-1.223019e-02
2.695972e+02	-1.237168e-02
2.711544e+02	-1.251480e-02
2.727205e+02	-1.265958e-02
2.742958e+02	-1.280603e-02
2.758801e+02	-1.295416e-02
2.774736e+02	-1.310401e-02
2.790762e+02	-1.325560e-02
2.806882e+02	-1.340893e-02
2.823094e+02	-1.356403e-02
2.839400e+02	-1.372092e-02
2.855800e+02	-1.387963e-02
2.872295e+02	-1.404017e-02
2.888886e+02	-1.420256e-02
2.905572e+02	-1.436683e-02
2.922354e+02	-1.453299e-02
2.939234e+02	-1.470107e-02
2.956211e+02	-1.487110e-02
2.973286e+02	-1.504308e-02
2.990459e+02	-1.521706e-02
3.007732e+02	-1.539304e-02
3.025104e+02	-1.557105e-02
3.042577e+02	-1.575111e-02
3.060151e+02	-1.593326e-02
3.077826e+02	-1.611751e-02
3.095604e+02	-1.630388e-02
3.113484e+02	-1.649240e-02
3.131467e+02	-1.668310e-02
3.149554e+02	-1.687601e-02
3.167746e+02	-1.707113e-02
3.186043e+02	-1.726851e-02
3.204445e+02	-1.746817e-02
3.222954e+02	-1.767013e-02
3.241570e+02	-1.787442e-02
3.260293e+02	-1.808107e-02
3.279124e+02	-1.829010e-02
3.298064e+02	-1.850154e-02
3.317114e+02	-1.871542e-02
3.336273e+02	-1.893177e-02
3.355544e+02	-1.915062e-02
3.374925e+02	-1.937199e-02
3.394418e+02	-1.959591e-02
3.414024e+02	-1.982241e-02
3.433744e+02	-2.005153e-02
3.453577e+02	-2.028328e-02
3.473525e+02	-2.051772e-02
3.493588e+02	-2.075485e-02
3.513766e+02	-2.099472e-02
3.534062e+02	-2.123735e-02
3.554474e+02	-2.148278e-02
3.575005e+02	-2.173104e-02
3.595654e+02	-2.198216e-02
3.616422e+02	-2.223617e-02
3.637311e+02	-2.249312e-02
3.658320e+02	-2.275302e-02
3.679450e+02	-2.301592e-02
3.700702e+02	-2.328185e-02
3.722077e+02	-2.355084e-02
3.743576e+02	-2.382293e-02
3.765199e+02	-2.409816e-02
3.786946e+02	-2.437656e-02
3.808820e+02	-2.465816e-02
3.830819e+02	-2.494301e-02
3.852946e+02	-2.523114e-02
3.875200e+02	-2.552259e-02
3.897583e+02	-2.581739e-02
3.920096e+02	-2.611559e-02
3.942738e+02	-2.641722e-02
3.965511e+02	-2.672233e-02
3.988416e+02	-2.703095e-02
4.011452e+02	-2.734312e-02
4.034622e+02	-2.765889e-02
4.057926e+02	-2.797829e-02
4.081365e+02	-2.830136e-02
4.104938e+02	-2.862816e-02
4.128648e+02	-2.895872e-02
4.152495e+02	-2.929308e-02
4.176480e+02	-2.963128e-02
4.200603e+02	-2.997338e-02
4.224866e+02	-3.031941e-02
4.249268e+02	-3.066943e-02
4.273812e+02	-3.102347e-02
4.298497e+02	-3.138158e-02
4.323325e+02	-3.174382e-02
4.348297e+02	-3.211021e-02
4.373412e+02	-3.248082e-02
4.398673e+02	-3.285570e-02
4.424079e+02	-3.323488e-02
4.449633e+02	-3.361842e-02
4.475334e+02	-3.400637e-02
4.501183e+02	-3.439878e-02
4.527182e+02	-3.479570e-02
4.553330e+02	-3.519718e-02
4.579630e+02	-3.560327e-02
4.606082e+02	-3.601403e-02
4.632687e+02	-3.642951e-02
4.659445e+02	-3.684976e-02
4.686358e+02	-3.727483e-02
4.713426e+02	-3.770479e-02
4.740650e+02	-3.813969e-02
4.768032e+02	-3.857958e-02
4.795572e+02	-3.902453e-02
4.823271e+02	-3.947458e-02
4.851130e+02	-3.992979e-02
4.879150e+02	-4.039024e-02
4.907332e+02	-4.085596e-02
4.935676e+02	-4.132703e-02
4.964185e+02	-4.180351e-02
4.992858e+02	-4.228545e-02
5.021696e+02	-4.277292e-02
5.050701e+02	-4.326598e-02
5.079874e+02	-4.376470e-02
5.109215e+02	-4.426914e-02
5.138726e+02	-4.477936e-02
5.168407e+02	-4.529543e-02
5.198259e+02	-4.581742e-02
5.228284e+02	-4.634539e-02
5.258482e+02	-4.687941e-02
5.288855e+02	-4.741955e-02
5.319403e+02	-4.796588e-02
5.350128e+02	-4.851847e-02
5.381030e+02	-4.907739e-02
5.412111e+02	-4.964271e-02
5.443371e+02	-5.021450e-02
5.474812e+02	-5.079284e-02
5.506434e+02	-5.137781e-02
5.538239e+02	-5.196947e-02
5.570228e+02	-5.256790e-02
5.602401e+02	-5.317318e-02
5.634760e+02	-5.378539e-02
5.667306e+02	-5.440460e-02
5.700040e+02	-5.503089e-02
5.732964e+02	-5.566435e-02
5.766077e+02	-5.630505e-02
5.799382e+02	-5.695308e-02
5.832879e+02	-5.760852e-02
5.866569e+02	-5.827145e-02
5.900454e+02	-5.894195e-02
5.934535e+02	-5.962012e-02
5.968813e+02	-6.030604e-02
6.003288e+02	-6.099979e-02
6.037963e+02	-6.170146e-02
6.072838e+02	-6.241115e-02
6.107914e+02	-6.312894e-02
6.143194e+02	-6.385493e-02
6.178676e+02	-6.458921e-02
6.214364e+02	-6.533186e-02
6.250258e+02	-6.608299e-02
6.286359e+02	-6.684268e-02
6.322669e+02	-6.761104e-02
6.359189e+02	-6.838817e-02
6.395919e+02	-6.917415e-02
6.432862e+02	-6.996910e-02
6.470017e+02	-7.077311e-02
6.507388e+02	-7.158628e-02
6.544974e+02	-7.240871e-02
6.582778e+02	-7.324051e-02
6.620800e+02	-7.408179e-02
6.659041e+02	-7.493265e-02
6.697504e+02	-7.579319e-02
6.736188e+02	-7.666353e-02
6.775096e+02	-7.754377e-02
6.814229e+02	-7.843403e-02
6.853587e+02	-7.933441e-02
6.893173e+02	-8.024504e-02
6.932988e+02	-8.116602e-02
6.973033e+02	-8.209747e-02
7.013309e+02	-8.303951e-02
