Frequency(Hz)	Magnitude(dB)
1.000000e+01	-1.851193e-05
1.005776e+01	-1.872639e-05
1.011585e+01	-1.894334e-05
1.017428e+01	-1.916281e-05
1.023305e+01	-1.938481e-05
1.029215e+01	-1.960939e-05
1.035160e+01	-1.983657e-05
1.041139e+01	-2.006638e-05
1.047153e+01	-2.029886e-05
1.053201e+01	-2.053402e-05
1.059284e+01	-2.077191e-05
1.065403e+01	-2.101256e-05
1.071556e+01	-2.125600e-05
1.077746e+01	-2.150225e-05
1.083971e+01	-2.175136e-05
1.090232e+01	-2.200336e-05
1.096529e+01	-2.225827e-05
1.102862e+01	-2.251614e-05
1.109232e+01	-2.277700e-05
1.115639e+01	-2.304087e-05
1.122083e+01	-2.330781e-05
1.128564e+01	-2.357783e-05
1.135083e+01	-2.385099e-05
1.141639e+01	-2.412731e-05
1.148233e+01	-2.440683e-05
1.154865e+01	-2.468959e-05
1.161536e+01	-2.497562e-05
1.168245e+01	-2.526497e-05
1.174992e+01	-2.555767e-05
1.181779e+01	-2.585377e-05
1.188605e+01	-2.615329e-05
1.195470e+01	-2.645628e-05
1.202375e+01	-2.676278e-05
1.209320e+01	-2.707284e-05
1.216305e+01	-2.738648e-05
1.223330e+01	-2.770376e-05
1.230396e+01	-2.802471e-05
1.237503e+01	-2.834939e-05
1.244651e+01	-2.867782e-05
1.251840e+01	-2.901006e-05
1.259070e+01	-2.934615e-05
1.266343e+01	-2.968613e-05
1.273657e+01	-3.003005e-05
1.281014e+01	-3.037796e-05
1.288413e+01	-3.072989e-05
1.295855e+01	-3.108591e-05
1.303339e+01	-3.144605e-05
1.310867e+01	-3.181036e-05
1.318439e+01	-3.217889e-05
1.326054e+01	-3.255169e-05
1.333713e+01	-3.292880e-05
1.341417e+01	-3.331029e-05
1.349165e+01	-3.369620e-05
1.356958e+01	-3.408658e-05
1.364795e+01	-3.448148e-05
1.372678e+01	-3.488096e-05
1.380607e+01	-3.528506e-05
1.388581e+01	-3.569385e-05
1.396602e+01	-3.610737e-05
1.404668e+01	-3.652568e-05
1.412782e+01	-3.694884e-05
1.420942e+01	-3.737690e-05
1.429149e+01	-3.780992e-05
1.437404e+01	-3.824796e-05
1.445706e+01	-3.869107e-05
1.454057e+01	-3.913931e-05
1.462455e+01	-3.959275e-05
1.470902e+01	-4.005144e-05
1.479398e+01	-4.051544e-05
1.487943e+01	-4.098483e-05
1.496537e+01	-4.145964e-05
1.505181e+01	-4.193996e-05
1.513875e+01	-4.242585e-05
1.522619e+01	-4.291736e-05
1.531414e+01	-4.341457e-05
1.540259e+01	-4.391753e-05
1.549156e+01	-4.442633e-05
1.558103e+01	-4.494102e-05
1.567103e+01	-4.546167e-05
1.576155e+01	-4.598835e-05
1.585258e+01	-4.652114e-05
1.594415e+01	-4.706010e-05
1.603624e+01	-4.760530e-05
1.612886e+01	-4.815681e-05
1.622202e+01	-4.871472e-05
1.631572e+01	-4.927909e-05
1.640996e+01	-4.985000e-05
1.650474e+01	-5.042752e-05
1.660008e+01	-5.101174e-05
1.669596e+01	-5.160272e-05
1.679239e+01	-5.220055e-05
1.688938e+01	-5.280530e-05
1.698694e+01	-5.341706e-05
1.708505e+01	-5.403591e-05
1.718373e+01	-5.466193e-05
1.728299e+01	-5.529520e-05
1.738281e+01	-5.593580e-05
1.748322e+01	-5.658383e-05
1.758420e+01	-5.723937e-05
1.768576e+01	-5.790249e-05
1.778792e+01	-5.857331e-05
1.789066e+01	-5.925189e-05
1.799399e+01	-5.993834e-05
1.809793e+01	-6.063273e-05
1.820246e+01	-6.133518e-05
1.830760e+01	-6.204576e-05
1.841334e+01	-6.276457e-05
1.851969e+01	-6.349171e-05
1.862666e+01	-6.422727e-05
1.873425e+01	-6.497136e-05
1.884246e+01	-6.572406e-05
1.895129e+01	-6.648549e-05
1.906075e+01	-6.725573e-05
1.917085e+01	-6.803491e-05
1.928158e+01	-6.882310e-05
1.939295e+01	-6.962043e-05
1.950496e+01	-7.042700e-05
1.961762e+01	-7.124291e-05
1.973093e+01	-7.206827e-05
1.984490e+01	-7.290319e-05
1.995952e+01	-7.374779e-05
2.007480e+01	-7.460217e-05
2.019076e+01	-7.546645e-05
2.030738e+01	-7.634074e-05
2.042467e+01	-7.722516e-05
2.054264e+01	-7.811983e-05
2.066130e+01	-7.902486e-05
2.078064e+01	-7.994038e-05
2.090066e+01	-8.086650e-05
2.102139e+01	-8.180335e-05
2.114280e+01	-8.275106e-05
2.126492e+01	-8.370975e-05
2.138775e+01	-8.467954e-05
2.151128e+01	-8.566056e-05
2.163553e+01	-8.665295e-05
2.176050e+01	-8.765684e-05
2.188619e+01	-8.867236e-05
2.201260e+01	-8.969965e-05
2.213974e+01	-9.073883e-05
2.226762e+01	-9.179005e-05
2.239624e+01	-9.285346e-05
2.252560e+01	-9.392918e-05
2.265571e+01	-9.501736e-05
2.278656e+01	-9.611815e-05
2.291818e+01	-9.723169e-05
2.305055e+01	-9.835814e-05
2.318369e+01	-9.949763e-05
2.331760e+01	-1.006503e-04
2.345228e+01	-1.018164e-04
2.358774e+01	-1.029959e-04
2.372398e+01	-1.041892e-04
2.386101e+01	-1.053962e-04
2.399883e+01	-1.066172e-04
2.413745e+01	-1.078524e-04
2.427686e+01	-1.091019e-04
2.441709e+01	-1.103658e-04
2.455812e+01	-1.116445e-04
2.469997e+01	-1.129379e-04
2.484263e+01	-1.142463e-04
2.498612e+01	-1.155698e-04
2.513044e+01	-1.169087e-04
2.527559e+01	-1.182631e-04
2.542158e+01	-1.196332e-04
2.556842e+01	-1.210192e-04
2.571610e+01	-1.224212e-04
2.586463e+01	-1.238395e-04
2.601403e+01	-1.252742e-04
2.616428e+01	-1.267255e-04
2.631541e+01	-1.281936e-04
2.646740e+01	-1.296787e-04
2.662028e+01	-1.311811e-04
2.677404e+01	-1.327008e-04
2.692868e+01	-1.342382e-04
2.708422e+01	-1.357933e-04
2.724066e+01	-1.373665e-04
2.739800e+01	-1.389579e-04
2.755625e+01	-1.405678e-04
2.771541e+01	-1.421962e-04
2.787550e+01	-1.438436e-04
2.803650e+01	-1.455100e-04
2.819844e+01	-1.471958e-04
2.836131e+01	-1.489011e-04
2.852513e+01	-1.506261e-04
2.868989e+01	-1.523711e-04
2.885560e+01	-1.541363e-04
2.902227e+01	-1.559220e-04
2.918990e+01	-1.577284e-04
2.935850e+01	-1.595557e-04
2.952807e+01	-1.614041e-04
2.969863e+01	-1.632740e-04
2.987016e+01	-1.651656e-04
3.004269e+01	-1.670790e-04
3.021622e+01	-1.690146e-04
3.039075e+01	-1.709727e-04
3.056628e+01	-1.729534e-04
3.074283e+01	-1.749571e-04
3.092040e+01	-1.769840e-04
3.109900e+01	-1.790343e-04
3.127862e+01	-1.811084e-04
3.145929e+01	-1.832066e-04
3.164099e+01	-1.853290e-04
3.182375e+01	-1.874761e-04
3.200756e+01	-1.896480e-04
3.219244e+01	-1.918451e-04
3.237838e+01	-1.940676e-04
3.256540e+01	-1.963159e-04
3.275349e+01	-1.985902e-04
3.294268e+01	-2.008909e-04
3.313295e+01	-2.032182e-04
3.332433e+01	-2.055725e-04
3.351681e+01	-2.079540e-04
3.371040e+01	-2.103632e-04
3.390511e+01	-2.128002e-04
3.410094e+01	-2.152655e-04
3.429791e+01	-2.177594e-04
3.449601e+01	-2.202821e-04
3.469526e+01	-2.228341e-04
3.489566e+01	-2.254156e-04
3.509721e+01	-2.280271e-04
3.529993e+01	-2.306687e-04
3.550382e+01	-2.333410e-04
3.570889e+01	-2.360443e-04
3.591515e+01	-2.387788e-04
3.612259e+01	-2.415451e-04
3.633123e+01	-2.443434e-04
3.654108e+01	-2.471741e-04
3.675214e+01	-2.500376e-04
3.696442e+01	-2.529342e-04
3.717792e+01	-2.558645e-04
3.739266e+01	-2.588286e-04
3.760864e+01	-2.618272e-04
3.782587e+01	-2.648604e-04
3.804435e+01	-2.679288e-04
3.826409e+01	-2.710327e-04
3.848510e+01	-2.741726e-04
3.870739e+01	-2.773489e-04
3.893096e+01	-2.805619e-04
3.915583e+01	-2.838122e-04
3.938199e+01	-2.871002e-04
3.960946e+01	-2.904262e-04
3.983824e+01	-2.937907e-04
4.006834e+01	-2.971943e-04
4.029978e+01	-3.006372e-04
4.053255e+01	-3.041201e-04
4.076666e+01	-3.076433e-04
4.100213e+01	-3.112073e-04
4.123896e+01	-3.148126e-04
4.147715e+01	-3.184596e-04
4.171672e+01	-3.221489e-04
4.195767e+01	-3.258810e-04
4.220002e+01	-3.296562e-04
4.244377e+01	-3.334753e-04
4.268892e+01	-3.373385e-04
4.293549e+01	-3.412465e-04
4.318348e+01	-3.451998e-04
4.343291e+01	-3.491989e-04
4.368377e+01	-3.532443e-04
4.393609e+01	-3.573365e-04
4.418986e+01	-3.614762e-04
4.444510e+01	-3.656638e-04
4.470182e+01	-3.699000e-04
4.496001e+01	-3.741852e-04
4.521970e+01	-3.785200e-04
4.548089e+01	-3.829051e-04
4.574358e+01	-3.873410e-04
4.600779e+01	-3.918282e-04
4.627353e+01	-3.963674e-04
4.654081e+01	-4.009593e-04
4.680963e+01	-4.056043e-04
4.708000e+01	-4.103031e-04
4.735193e+01	-4.150563e-04
4.762543e+01	-4.198646e-04
4.790051e+01	-4.247286e-04
4.817719e+01	-4.296490e-04
4.845545e+01	-4.346264e-04
4.873533e+01	-4.396614e-04
4.901682e+01	-4.447547e-04
4.929994e+01	-4.499070e-04
4.958470e+01	-4.551191e-04
4.987110e+01	-4.603915e-04
5.015915e+01	-4.657249e-04
5.044887e+01	-4.711202e-04
5.074026e+01	-4.765780e-04
5.103333e+01	-4.820989e-04
5.132810e+01	-4.876839e-04
5.162457e+01	-4.933335e-04
5.192275e+01	-4.990486e-04
5.222265e+01	-5.048299e-04
5.252429e+01	-5.106781e-04
5.282767e+01	-5.165941e-04
5.313280e+01	-5.225786e-04
5.343969e+01	-5.286325e-04
5.374836e+01	-5.347565e-04
5.405880e+01	-5.409514e-04
5.437105e+01	-5.472181e-04
5.468509e+01	-5.535573e-04
5.500095e+01	-5.599700e-04
5.531863e+01	-5.664570e-04
5.563815e+01	-5.730191e-04
5.595951e+01	-5.796573e-04
5.628273e+01	-5.863723e-04
5.660782e+01	-5.931651e-04
5.693479e+01	-6.000366e-04
5.726364e+01	-6.069877e-04
5.759439e+01	-6.140194e-04
5.792705e+01	-6.211324e-04
5.826164e+01	-6.283279e-04
5.859815e+01	-6.356067e-04
5.893662e+01	-6.429699e-04
5.927703e+01	-6.504183e-04
5.961941e+01	-6.579530e-04
5.996377e+01	-6.655750e-04
6.031012e+01	-6.732853e-04
6.065847e+01	-6.810848e-04
6.100883e+01	-6.889748e-04
6.136121e+01	-6.969561e-04
6.171563e+01	-7.050299e-04
6.207210e+01	-7.131972e-04
6.243063e+01	-7.214591e-04
6.279122e+01	-7.298167e-04
6.315390e+01	-7.382711e-04
6.351868e+01	-7.468234e-04
6.388556e+01	-7.554748e-04
6.425456e+01	-7.642264e-04
6.462569e+01	-7.730794e-04
6.499897e+01	-7.820349e-04
6.537440e+01	-7.910942e-04
6.575200e+01	-8.002584e-04
6.613178e+01	-8.095287e-04
6.651375e+01	-8.189065e-04
6.689793e+01	-8.283928e-04
6.728433e+01	-8.379891e-04
6.767297e+01	-8.476964e-04
6.806384e+01	-8.575163e-04
6.845698e+01	-8.674498e-04
6.885238e+01	-8.774985e-04
6.925007e+01	-8.876635e-04
6.965005e+01	-8.979462e-04
7.005235e+01	-9.083481e-04
7.045697e+01	-9.188705e-04
7.086393e+01	-9.295147e-04
7.127323e+01	-9.402822e-04
7.168490e+01	-9.511744e-04
7.209895e+01	-9.621928e-04
7.251539e+01	-9.733388e-04
7.293424e+01	-9.846140e-04
7.335551e+01	-9.960197e-04
7.377920e+01	-1.007557e-03
7.420535e+01	-1.019229e-03
7.463396e+01	-1.031036e-03
7.506504e+01	-1.042979e-03
7.549861e+01	-1.055061e-03
7.593469e+01	-1.067282e-03
7.637328e+01	-1.079646e-03
7.681441e+01	-1.092152e-03
7.725809e+01	-1.104803e-03
7.770433e+01	-1.117601e-03
7.815315e+01	-1.130547e-03
7.860456e+01	-1.143643e-03
7.905857e+01	-1.156891e-03
7.951521e+01	-1.170292e-03
7.997449e+01	-1.183848e-03
8.043642e+01	-1.197561e-03
8.090102e+01	-1.211434e-03
8.136830e+01	-1.225466e-03
8.183828e+01	-1.239662e-03
8.231097e+01	-1.254021e-03
8.278640e+01	-1.268548e-03
8.326457e+01	-1.283242e-03
8.374550e+01	-1.298106e-03
8.422921e+01	-1.313143e-03
8.471572e+01	-1.328354e-03
8.520503e+01	-1.343741e-03
8.569717e+01	-1.359306e-03
8.619215e+01	-1.375051e-03
8.669000e+01	-1.390979e-03
8.719071e+01	-1.407091e-03
8.769432e+01	-1.423390e-03
8.820084e+01	-1.439878e-03
8.871029e+01	-1.456556e-03
8.922267e+01	-1.473428e-03
8.973802e+01	-1.490495e-03
9.025634e+01	-1.507760e-03
9.077766e+01	-1.525225e-03
9.130199e+01	-1.542892e-03
9.182935e+01	-1.560763e-03
9.235975e+01	-1.578842e-03
9.289321e+01	-1.597130e-03
9.342976e+01	-1.615630e-03
9.396941e+01	-1.634344e-03
9.451217e+01	-1.653274e-03
9.505807e+01	-1.672424e-03
9.560712e+01	-1.691796e-03
9.615934e+01	-1.711392e-03
9.671476e+01	-1.731215e-03
9.727338e+01	-1.751268e-03
9.783522e+01	-1.771552e-03
9.840032e+01	-1.792072e-03
9.896867e+01	-1.812829e-03
9.954031e+01	-1.833827e-03
1.001153e+02	-1.855068e-03
1.006935e+02	-1.876555e-03
1.012751e+02	-1.898290e-03
1.018601e+02	-1.920278e-03
1.024484e+02	-1.942520e-03
1.030402e+02	-1.965019e-03
1.036353e+02	-1.987779e-03
1.042339e+02	-2.010803e-03
1.048360e+02	-2.034093e-03
1.054415e+02	-2.057653e-03
1.060505e+02	-2.081486e-03
1.066631e+02	-2.105594e-03
1.072791e+02	-2.129982e-03
1.078988e+02	-2.154653e-03
1.085220e+02	-2.179608e-03
1.091488e+02	-2.204853e-03
1.097793e+02	-2.230391e-03
1.104133e+02	-2.256224e-03
1.110511e+02	-2.282356e-03
1.116925e+02	-2.308790e-03
1.123376e+02	-2.335531e-03
1.129865e+02	-2.362582e-03
1.136391e+02	-2.389945e-03
1.142955e+02	-2.417626e-03
1.149556e+02	-2.445626e-03
1.156196e+02	-2.473952e-03
1.162874e+02	-2.502605e-03
1.169591e+02	-2.531590e-03
1.176347e+02	-2.560910e-03
1.183141e+02	-2.590570e-03
1.189975e+02	-2.620573e-03
1.196848e+02	-2.650924e-03
1.203761e+02	-2.681626e-03
1.210714e+02	-2.712684e-03
1.217707e+02	-2.744101e-03
1.224740e+02	-2.775882e-03
1.231814e+02	-2.808031e-03
1.238929e+02	-2.840552e-03
1.246085e+02	-2.873450e-03
1.253283e+02	-2.906728e-03
1.260522e+02	-2.940392e-03
1.267802e+02	-2.974446e-03
1.275125e+02	-3.008894e-03
1.282490e+02	-3.043740e-03
1.289898e+02	-3.078990e-03
1.297348e+02	-3.114648e-03
1.304842e+02	-3.150719e-03
1.312378e+02	-3.187208e-03
1.319959e+02	-3.224119e-03
1.327583e+02	-3.261457e-03
1.335251e+02	-3.299227e-03
1.342963e+02	-3.337435e-03
1.350720e+02	-3.376085e-03
1.358522e+02	-3.415182e-03
1.366368e+02	-3.454733e-03
1.374260e+02	-3.494740e-03
1.382198e+02	-3.535211e-03
1.390182e+02	-3.576151e-03
1.398211e+02	-3.617564e-03
1.406287e+02	-3.659457e-03
1.414410e+02	-3.701835e-03
1.422579e+02	-3.744703e-03
1.430796e+02	-3.788067e-03
1.439060e+02	-3.831934e-03
1.447372e+02	-3.876308e-03
1.455732e+02	-3.921195e-03
1.464141e+02	-3.966603e-03
1.472597e+02	-4.012536e-03
1.481103e+02	-4.059000e-03
1.489658e+02	-4.106002e-03
1.498262e+02	-4.153549e-03
1.506916e+02	-4.201645e-03
1.515620e+02	-4.250299e-03
1.524374e+02	-4.299515e-03
1.533179e+02	-4.349301e-03
1.542034e+02	-4.399663e-03
1.550941e+02	-4.450608e-03
1.559899e+02	-4.502143e-03
1.568909e+02	-4.554274e-03
1.577971e+02	-4.607009e-03
1.587085e+02	-4.660353e-03
1.596252e+02	-4.714315e-03
1.605472e+02	-4.768902e-03
1.614745e+02	-4.824120e-03
1.624072e+02	-4.879977e-03
1.633453e+02	-4.936481e-03
1.642887e+02	-4.993638e-03
1.652377e+02	-5.051457e-03
1.661921e+02	-5.109945e-03
1.671520e+02	-5.169110e-03
1.681175e+02	-5.228959e-03
1.690885e+02	-5.289501e-03
1.700651e+02	-5.350743e-03
1.710474e+02	-5.412695e-03
1.720354e+02	-5.475362e-03
1.730291e+02	-5.538755e-03
1.740285e+02	-5.602882e-03
1.750337e+02	-5.667750e-03
1.760446e+02	-5.733369e-03
1.770615e+02	-5.799747e-03
1.780842e+02	-5.866893e-03
1.791128e+02	-5.934816e-03
1.801473e+02	-6.003525e-03
1.811878e+02	-6.073029e-03
1.822344e+02	-6.143336e-03
1.832870e+02	-6.214457e-03
1.843456e+02	-6.286401e-03
1.854104e+02	-6.359177e-03
1.864813e+02	-6.432795e-03
1.875584e+02	-6.507265e-03
1.886418e+02	-6.582596e-03
1.897313e+02	-6.658799e-03
1.908272e+02	-6.735882e-03
1.919294e+02	-6.813858e-03
1.930380e+02	-6.892735e-03
1.941530e+02	-6.972525e-03
1.952744e+02	-7.053238e-03
1.964023e+02	-7.134884e-03
1.975367e+02	-7.217475e-03
1.986777e+02	-7.301021e-03
1.998252e+02	-7.385533e-03
2.009794e+02	-7.471022e-03
2.021403e+02	-7.557501e-03
2.033078e+02	-7.644979e-03
2.044821e+02	-7.733469e-03
2.056632e+02	-7.822982e-03
2.068511e+02	-7.913531e-03
2.080459e+02	-8.005126e-03
2.092475e+02	-8.097781e-03
2.104561e+02	-8.191507e-03
2.116717e+02	-8.286317e-03
2.128943e+02	-8.382223e-03
2.141240e+02	-8.479238e-03
2.153608e+02	-8.577375e-03
2.166047e+02	-8.676647e-03
2.178558e+02	-8.777066e-03
2.191141e+02	-8.878646e-03
2.203797e+02	-8.981401e-03
2.216526e+02	-9.085344e-03
2.229329e+02	-9.190488e-03
2.242205e+02	-9.296848e-03
2.255156e+02	-9.404438e-03
2.268182e+02	-9.513271e-03
2.281283e+02	-9.623362e-03
2.294459e+02	-9.734726e-03
2.307712e+02	-9.847377e-03
2.321041e+02	-9.961330e-03
2.334447e+02	-1.007660e-02
2.347931e+02	-1.019320e-02
2.361493e+02	-1.031115e-02
2.375133e+02	-1.043047e-02
2.388851e+02	-1.055116e-02
2.402649e+02	-1.067325e-02
2.416527e+02	-1.079674e-02
2.430484e+02	-1.092167e-02
2.444523e+02	-1.104804e-02
2.458642e+02	-1.117587e-02
2.472843e+02	-1.130517e-02
2.487126e+02	-1.143597e-02
2.501492e+02	-1.156829e-02
2.515940e+02	-1.170213e-02
2.530472e+02	-1.183751e-02
2.545088e+02	-1.197446e-02
2.559789e+02	-1.211300e-02
2.574574e+02	-1.225313e-02
2.589444e+02	-1.239488e-02
2.604401e+02	-1.253827e-02
2.619444e+02	-1.268332e-02
2.634574e+02	-1.283004e-02
2.649791e+02	-1.297846e-02
2.665096e+02	-1.312859e-02
2.680489e+02	-1.328045e-02
2.695972e+02	-1.343407e-02
2.711544e+02	-1.358946e-02
2.727205e+02	-1.374665e-02
2.742958e+02	-1.390566e-02
2.758801e+02	-1.406649e-02
2.774736e+02	-1.422919e-02
2.790762e+02	-1.439376e-02
2.806882e+02	-1.456024e-02
2.823094e+02	-1.472864e-02
2.839400e+02	-1.489898e-02
2.855800e+02	-1.507129e-02
2.872295e+02	-1.524558e-02
2.888886e+02	-1.542189e-02
2.905572e+02	-1.560024e-02
2.922354e+02	-1.578064e-02
2.939234e+02	-1.596313e-02
2.956211e+02	-1.614772e-02
2.973286e+02	-1.633444e-02
2.990459e+02	-1.652332e-02
3.007732e+02	-1.671438e-02
3.025104e+02	-1.690764e-02
3.042577e+02	-1.710313e-02
3.060151e+02	-1.730088e-02
3.077826e+02	-1.750091e-02
3.095604e+02	-1.770325e-02
3.113484e+02	-1.790792e-02
3.131467e+02	-1.811495e-02
3.149554e+02	-1.832438e-02
3.167746e+02	-1.853621e-02
3.186043e+02	-1.875050e-02
3.204445e+02	-1.896725e-02
3.222954e+02	-1.918650e-02
3.241570e+02	-1.940828e-02
3.260293e+02	-1.963262e-02
3.279124e+02	-1.985955e-02
3.298064e+02	-2.008910e-02
3.317114e+02	-2.032129e-02
3.336273e+02	-2.055616e-02
3.355544e+02	-2.079373e-02
3.374925e+02	-2.103405e-02
3.394418e+02	-2.127713e-02
3.414024e+02	-2.152302e-02
3.433744e+02	-2.177175e-02
3.453577e+02	-2.202333e-02
3.473525e+02	-2.227782e-02
3.493588e+02	-2.253525e-02
3.513766e+02	-2.279564e-02
3.534062e+02	-2.305903e-02
3.554474e+02	-2.332545e-02
3.575005e+02	-2.359495e-02
3.595654e+02	-2.386755e-02
3.616422e+02	-2.414329e-02
3.637311e+02	-2.442221e-02
3.658320e+02	-2.470434e-02
3.679450e+02	-2.498972e-02
3.700702e+02	-2.527838e-02
3.722077e+02	-2.557037e-02
3.743576e+02	-2.586573e-02
3.765199e+02	-2.616449e-02
3.786946e+02	-2.646668e-02
3.808820e+02	-2.677236e-02
3.830819e+02	-2.708155e-02
3.852946e+02	-2.739431e-02
3.875200e+02	-2.771066e-02
3.897583e+02	-2.803066e-02
3.920096e+02	-2.835434e-02
3.942738e+02	-2.868174e-02
3.965511e+02	-2.901291e-02
3.988416e+02	-2.934790e-02
4.011452e+02	-2.968673e-02
4.034622e+02	-3.002947e-02
4.057926e+02	-3.037615e-02
4.081365e+02	-3.072682e-02
4.104938e+02	-3.108152e-02
4.128648e+02	-3.144030e-02
4.152495e+02	-3.180321e-02
4.176480e+02	-3.217029e-02
4.200603e+02	-3.254159e-02
4.224866e+02	-3.291716e-02
4.249268e+02	-3.329705e-02
4.273812e+02	-3.368130e-02
4.298497e+02	-3.406997e-02
4.323325e+02	-3.446311e-02
4.348297e+02	-3.486077e-02
4.373412e+02	-3.526300e-02
4.398673e+02	-3.566985e-02
4.424079e+02	-3.608137e-02
4.449633e+02	-3.649762e-02
4.475334e+02	-3.691866e-02
4.501183e+02	-3.734452e-02
4.527182e+02	-3.777528e-02
4.553330e+02	-3.821099e-02
4.579630e+02	-3.865170e-02
4.606082e+02	-3.909747e-02
4.632687e+02	-3.954836e-02
4.659445e+02	-4.000442e-02
4.686358e+02	-4.046572e-02
4.713426e+02	-4.093231e-02
4.740650e+02	-4.140426e-02
4.768032e+02	-4.188162e-02
4.795572e+02	-4.236446e-02
4.823271e+02	-4.285284e-02
4.851130e+02	-4.334681e-02
4.879150e+02	-4.384646e-02
4.907332e+02	-4.435183e-02
4.935676e+02	-4.486300e-02
4.964185e+02	-4.538003e-02
4.992858e+02	-4.590299e-02
5.021696e+02	-4.643194e-02
5.050701e+02	-4.696695e-02
5.079874e+02	-4.750809e-02
5.109215e+02	-4.805544e-02
5.138726e+02	-4.860905e-02
5.168407e+02	-4.916901e-02
5.198259e+02	-4.973538e-02
5.228284e+02	-5.030823e-02
5.258482e+02	-5.088765e-02
5.288855e+02	-5.147370e-02
5.319403e+02	-5.206645e-02
5.350128e+02	-5.266599e-02
5.381030e+02	-5.327240e-02
5.412111e+02	-5.388574e-02
5.443371e+02	-5.450610e-02
5.474812e+02	-5.513355e-02
5.506434e+02	-5.576818e-02
5.538239e+02	-5.641007e-02
5.570228e+02	-5.705930e-02
5.602401e+02	-5.771595e-02
5.634760e+02	-5.838011e-02
5.667306e+02	-5.905185e-02
5.700040e+02	-5.973128e-02
5.732964e+02	-6.041846e-02
5.766077e+02	-6.111350e-02
5.799382e+02	-6.181647e-02
5.832879e+02	-6.252747e-02
5.866569e+02	-6.324659e-02
5.900454e+02	-6.397392e-02
5.934535e+02	-6.470955e-02
5.968813e+02	-6.545358e-02
6.003288e+02	-6.620609e-02
6.037963e+02	-6.696719e-02
6.072838e+02	-6.773697e-02
6.107914e+02	-6.851553e-02
6.143194e+02	-6.930297e-02
6.178676e+02	-7.009938e-02
6.214364e+02	-7.090487e-02
6.250258e+02	-7.171954e-02
6.286359e+02	-7.254349e-02
6.322669e+02	-7.337683e-02
6.359189e+02	-7.421966e-02
6.395919e+02	-7.507208e-02
6.432862e+02	-7.593421e-02
6.470017e+02	-7.680616e-02
6.507388e+02	-7.768802e-02
6.544974e+02	-7.857992e-02
6.582778e+02	-7.948196e-02
6.620800e+02	-8.039427e-02
6.659041e+02	-8.131694e-02
6.697504e+02	-8.225011e-02
6.736188e+02	-8.319388e-02
6.775096e+02	-8.414837e-02
6.814229e+02	-8.511371e-02
6.853587e+02	-8.609001e-02
6.893173e+02	-8.707740e-02
6.932988e+02	-8.807600e-02
6.973033e+02	-8.908593e-02
7.013309e+02	-9.010733e-02
