Frequency(Hz)	Magnitude(dB)
1.000000e+01	-1.598133e-05
1.005776e+01	-1.616648e-05
1.011585e+01	-1.635377e-05
1.017428e+01	-1.654323e-05
1.023305e+01	-1.673489e-05
1.029215e+01	-1.692877e-05
1.035160e+01	-1.712489e-05
1.041139e+01	-1.732329e-05
1.047153e+01	-1.752398e-05
1.053201e+01	-1.772700e-05
1.059284e+01	-1.793238e-05
1.065403e+01	-1.814013e-05
1.071556e+01	-1.835029e-05
1.077746e+01	-1.856288e-05
1.083971e+01	-1.877793e-05
1.090232e+01	-1.899548e-05
1.096529e+01	-1.921555e-05
1.102862e+01	-1.943817e-05
1.109232e+01	-1.966336e-05
1.115639e+01	-1.989117e-05
1.122083e+01	-2.012161e-05
1.128564e+01	-2.035473e-05
1.135083e+01	-2.059054e-05
1.141639e+01	-2.082909e-05
1.148233e+01	-2.107040e-05
1.154865e+01	-2.131450e-05
1.161536e+01	-2.156144e-05
1.168245e+01	-2.181123e-05
1.174992e+01	-2.206392e-05
1.181779e+01	-2.231954e-05
1.188605e+01	-2.257811e-05
1.195470e+01	-2.283969e-05
1.202375e+01	-2.310429e-05
1.209320e+01	-2.337196e-05
1.216305e+01	-2.364273e-05
1.223330e+01	-2.391664e-05
1.230396e+01	-2.419372e-05
1.237503e+01	-2.447401e-05
1.244651e+01	-2.475754e-05
1.251840e+01	-2.504437e-05
1.259070e+01	-2.533451e-05
1.266343e+01	-2.562802e-05
1.273657e+01	-2.592492e-05
1.281014e+01	-2.622527e-05
1.288413e+01	-2.652910e-05
1.295855e+01	-2.683644e-05
1.303339e+01	-2.714735e-05
1.310867e+01	-2.746186e-05
1.318439e+01	-2.778001e-05
1.326054e+01	-2.810185e-05
1.333713e+01	-2.842742e-05
1.341417e+01	-2.875675e-05
1.349165e+01	-2.908991e-05
1.356958e+01	-2.942692e-05
1.364795e+01	-2.976784e-05
1.372678e+01	-3.011271e-05
1.380607e+01	-3.046157e-05
1.388581e+01	-3.081447e-05
1.396602e+01	-3.117147e-05
1.404668e+01	-3.153260e-05
1.412782e+01	-3.189791e-05
1.420942e+01	-3.226745e-05
1.429149e+01	-3.264128e-05
1.437404e+01	-3.301944e-05
1.445706e+01	-3.340197e-05
1.454057e+01	-3.378894e-05
1.462455e+01	-3.418040e-05
1.470902e+01	-3.457639e-05
1.479398e+01	-3.497696e-05
1.487943e+01	-3.538218e-05
1.496537e+01	-3.579209e-05
1.505181e+01	-3.620675e-05
1.513875e+01	-3.662621e-05
1.522619e+01	-3.705053e-05
1.531414e+01	-3.747977e-05
1.540259e+01	-3.791398e-05
1.549156e+01	-3.835323e-05
1.558103e+01	-3.879756e-05
1.567103e+01	-3.924704e-05
1.576155e+01	-3.970172e-05
1.585258e+01	-4.016168e-05
1.594415e+01	-4.062696e-05
1.603624e+01	-4.109763e-05
1.612886e+01	-4.157375e-05
1.622202e+01	-4.205540e-05
1.631572e+01	-4.254262e-05
1.640996e+01	-4.303548e-05
1.650474e+01	-4.353406e-05
1.660008e+01	-4.403841e-05
1.669596e+01	-4.454861e-05
1.679239e+01	-4.506471e-05
1.688938e+01	-4.558680e-05
1.698694e+01	-4.611493e-05
1.708505e+01	-4.664918e-05
1.718373e+01	-4.718962e-05
1.728299e+01	-4.773632e-05
1.738281e+01	-4.828936e-05
1.748322e+01	-4.884880e-05
1.758420e+01	-4.941472e-05
1.768576e+01	-4.998720e-05
1.778792e+01	-5.056632e-05
1.789066e+01	-5.115214e-05
1.799399e+01	-5.174475e-05
1.809793e+01	-5.234422e-05
1.820246e+01	-5.295064e-05
1.830760e+01	-5.356408e-05
1.841334e+01	-5.418463e-05
1.851969e+01	-5.481237e-05
1.862666e+01	-5.544739e-05
1.873425e+01	-5.608976e-05
1.884246e+01	-5.673957e-05
1.895129e+01	-5.739691e-05
1.906075e+01	-5.806186e-05
1.917085e+01	-5.873452e-05
1.928158e+01	-5.941497e-05
1.939295e+01	-6.010331e-05
1.950496e+01	-6.079961e-05
1.961762e+01	-6.150399e-05
1.973093e+01	-6.221653e-05
1.984490e+01	-6.293732e-05
1.995952e+01	-6.366646e-05
2.007480e+01	-6.440405e-05
2.019076e+01	-6.515018e-05
2.030738e+01	-6.590496e-05
2.042467e+01	-6.666848e-05
2.054264e+01	-6.744084e-05
2.066130e+01	-6.822216e-05
2.078064e+01	-6.901253e-05
2.090066e+01	-6.981205e-05
2.102139e+01	-7.062084e-05
2.114280e+01	-7.143899e-05
2.126492e+01	-7.226662e-05
2.138775e+01	-7.310385e-05
2.151128e+01	-7.395077e-05
2.163553e+01	-7.480750e-05
2.176050e+01	-7.567416e-05
2.188619e+01	-7.655086e-05
2.201260e+01	-7.743771e-05
2.213974e+01	-7.833484e-05
2.226762e+01	-7.924236e-05
2.239624e+01	-8.016040e-05
2.252560e+01	-8.108907e-05
2.265571e+01	-8.202850e-05
2.278656e+01	-8.297882e-05
2.291818e+01	-8.394014e-05
2.305055e+01	-8.491260e-05
2.318369e+01	-8.589633e-05
2.331760e+01	-8.689145e-05
2.345228e+01	-8.789810e-05
2.358774e+01	-8.891642e-05
2.372398e+01	-8.994653e-05
2.386101e+01	-9.098857e-05
2.399883e+01	-9.204269e-05
2.413745e+01	-9.310902e-05
2.427686e+01	-9.418770e-05
2.441709e+01	-9.527888e-05
2.455812e+01	-9.638270e-05
2.469997e+01	-9.749931e-05
2.484263e+01	-9.862885e-05
2.498612e+01	-9.977148e-05
2.513044e+01	-1.009273e-04
2.527559e+01	-1.020966e-04
2.542158e+01	-1.032794e-04
2.556842e+01	-1.044759e-04
2.571610e+01	-1.056863e-04
2.586463e+01	-1.069107e-04
2.601403e+01	-1.081492e-04
2.616428e+01	-1.094022e-04
2.631541e+01	-1.106696e-04
2.646740e+01	-1.119517e-04
2.662028e+01	-1.132487e-04
2.677404e+01	-1.145607e-04
2.692868e+01	-1.158879e-04
2.708422e+01	-1.172305e-04
2.724066e+01	-1.185886e-04
2.739800e+01	-1.199625e-04
2.755625e+01	-1.213523e-04
2.771541e+01	-1.227581e-04
2.787550e+01	-1.241803e-04
2.803650e+01	-1.256189e-04
2.819844e+01	-1.270743e-04
2.836131e+01	-1.285464e-04
2.852513e+01	-1.300356e-04
2.868989e+01	-1.315421e-04
2.885560e+01	-1.330661e-04
2.902227e+01	-1.346076e-04
2.918990e+01	-1.361671e-04
2.935850e+01	-1.377446e-04
2.952807e+01	-1.393404e-04
2.969863e+01	-1.409546e-04
2.987016e+01	-1.425876e-04
3.004269e+01	-1.442395e-04
3.021622e+01	-1.459105e-04
3.039075e+01	-1.476009e-04
3.056628e+01	-1.493109e-04
3.074283e+01	-1.510407e-04
3.092040e+01	-1.527905e-04
3.109900e+01	-1.545606e-04
3.127862e+01	-1.563512e-04
3.145929e+01	-1.581625e-04
3.164099e+01	-1.599948e-04
3.182375e+01	-1.618484e-04
3.200756e+01	-1.637234e-04
3.219244e+01	-1.656201e-04
3.237838e+01	-1.675389e-04
3.256540e+01	-1.694798e-04
3.275349e+01	-1.714432e-04
3.294268e+01	-1.734294e-04
3.313295e+01	-1.754386e-04
3.332433e+01	-1.774711e-04
3.351681e+01	-1.795271e-04
3.371040e+01	-1.816069e-04
3.390511e+01	-1.837108e-04
3.410094e+01	-1.858391e-04
3.429791e+01	-1.879921e-04
3.449601e+01	-1.901700e-04
3.469526e+01	-1.923731e-04
3.489566e+01	-1.946017e-04
3.509721e+01	-1.968562e-04
3.529993e+01	-1.991368e-04
3.550382e+01	-2.014438e-04
3.570889e+01	-2.037775e-04
3.591515e+01	-2.061383e-04
3.612259e+01	-2.085264e-04
3.633123e+01	-2.109422e-04
3.654108e+01	-2.133859e-04
3.675214e+01	-2.158580e-04
3.696442e+01	-2.183587e-04
3.717792e+01	-2.208884e-04
3.739266e+01	-2.234474e-04
3.760864e+01	-2.260360e-04
3.782587e+01	-2.286546e-04
3.804435e+01	-2.313036e-04
3.826409e+01	-2.339832e-04
3.848510e+01	-2.366939e-04
3.870739e+01	-2.394360e-04
3.893096e+01	-2.422099e-04
3.915583e+01	-2.450159e-04
3.938199e+01	-2.478544e-04
3.960946e+01	-2.507257e-04
3.983824e+01	-2.536304e-04
4.006834e+01	-2.565687e-04
4.029978e+01	-2.595410e-04
4.053255e+01	-2.625478e-04
4.076666e+01	-2.655894e-04
4.100213e+01	-2.686662e-04
4.123896e+01	-2.717787e-04
4.147715e+01	-2.749272e-04
4.171672e+01	-2.781122e-04
4.195767e+01	-2.813341e-04
4.220002e+01	-2.845933e-04
4.244377e+01	-2.878903e-04
4.268892e+01	-2.912255e-04
4.293549e+01	-2.945993e-04
4.318348e+01	-2.980122e-04
4.343291e+01	-3.014646e-04
4.368377e+01	-3.049571e-04
4.393609e+01	-3.084900e-04
4.418986e+01	-3.120638e-04
4.444510e+01	-3.156790e-04
4.470182e+01	-3.193361e-04
4.496001e+01	-3.230355e-04
4.521970e+01	-3.267779e-04
4.548089e+01	-3.305635e-04
4.574358e+01	-3.343931e-04
4.600779e+01	-3.382669e-04
4.627353e+01	-3.421857e-04
4.654081e+01	-3.461499e-04
4.680963e+01	-3.501599e-04
4.708000e+01	-3.542165e-04
4.735193e+01	-3.583200e-04
4.762543e+01	-3.624711e-04
4.790051e+01	-3.666702e-04
4.817719e+01	-3.709180e-04
4.845545e+01	-3.752150e-04
4.873533e+01	-3.795618e-04
4.901682e+01	-3.839589e-04
4.929994e+01	-3.884070e-04
4.958470e+01	-3.929066e-04
4.987110e+01	-3.974583e-04
5.015915e+01	-4.020628e-04
5.044887e+01	-4.067206e-04
5.074026e+01	-4.114323e-04
5.103333e+01	-4.161986e-04
5.132810e+01	-4.210202e-04
5.162457e+01	-4.258976e-04
5.192275e+01	-4.308315e-04
5.222265e+01	-4.358225e-04
5.252429e+01	-4.408714e-04
5.282767e+01	-4.459787e-04
5.313280e+01	-4.511453e-04
5.343969e+01	-4.563716e-04
5.374836e+01	-4.616585e-04
5.405880e+01	-4.670067e-04
5.437105e+01	-4.724168e-04
5.468509e+01	-4.778896e-04
5.500095e+01	-4.834258e-04
5.531863e+01	-4.890261e-04
5.563815e+01	-4.946912e-04
5.595951e+01	-5.004220e-04
5.628273e+01	-5.062192e-04
5.660782e+01	-5.120836e-04
5.693479e+01	-5.180159e-04
5.726364e+01	-5.240169e-04
5.759439e+01	-5.300874e-04
5.792705e+01	-5.362282e-04
5.826164e+01	-5.424402e-04
5.859815e+01	-5.487241e-04
5.893662e+01	-5.550808e-04
5.927703e+01	-5.615111e-04
5.961941e+01	-5.680160e-04
5.996377e+01	-5.745962e-04
6.031012e+01	-5.812526e-04
6.065847e+01	-5.879861e-04
6.100883e+01	-5.947976e-04
6.136121e+01	-6.016880e-04
6.171563e+01	-6.086582e-04
6.207210e+01	-6.157092e-04
6.243063e+01	-6.228419e-04
6.279122e+01	-6.300571e-04
6.315390e+01	-6.373560e-04
6.351868e+01	-6.447394e-04
6.388556e+01	-6.522083e-04
6.425456e+01	-6.597637e-04
6.462569e+01	-6.674067e-04
6.499897e+01	-6.751382e-04
6.537440e+01	-6.829592e-04
6.575200e+01	-6.908709e-04
6.613178e+01	-6.988742e-04
6.651375e+01	-7.069702e-04
6.689793e+01	-7.151599e-04
6.728433e+01	-7.234446e-04
6.767297e+01	-7.318252e-04
6.806384e+01	-7.403028e-04
6.845698e+01	-7.488787e-04
6.885238e+01	-7.575539e-04
6.925007e+01	-7.663296e-04
6.965005e+01	-7.752069e-04
7.005235e+01	-7.841871e-04
7.045697e+01	-7.932713e-04
7.086393e+01	-8.024607e-04
7.127323e+01	-8.117566e-04
7.168490e+01	-8.211601e-04
7.209895e+01	-8.306726e-04
7.251539e+01	-8.402952e-04
7.293424e+01	-8.500293e-04
7.335551e+01	-8.598762e-04
7.377920e+01	-8.698371e-04
7.420535e+01	-8.799133e-04
7.463396e+01	-8.901063e-04
7.506504e+01	-9.004174e-04
7.549861e+01	-9.108479e-04
7.593469e+01	-9.213992e-04
7.637328e+01	-9.320727e-04
7.681441e+01	-9.428698e-04
7.725809e+01	-9.537920e-04
7.770433e+01	-9.648408e-04
7.815315e+01	-9.760174e-04
7.860456e+01	-9.873236e-04
7.905857e+01	-9.987607e-04
7.951521e+01	-1.010330e-03
7.997449e+01	-1.022034e-03
8.043642e+01	-1.033873e-03
8.090102e+01	-1.045849e-03
8.136830e+01	-1.057964e-03
8.183828e+01	-1.070219e-03
8.231097e+01	-1.082617e-03
8.278640e+01	-1.095158e-03
8.326457e+01	-1.107844e-03
8.374550e+01	-1.120677e-03
8.422921e+01	-1.133658e-03
8.471572e+01	-1.146790e-03
8.520503e+01	-1.160074e-03
8.569717e+01	-1.173512e-03
8.619215e+01	-1.187106e-03
8.669000e+01	-1.200857e-03
8.719071e+01	-1.214767e-03
8.769432e+01	-1.228839e-03
8.820084e+01	-1.243073e-03
8.871029e+01	-1.257472e-03
8.922267e+01	-1.272038e-03
8.973802e+01	-1.286773e-03
9.025634e+01	-1.301678e-03
9.077766e+01	-1.316756e-03
9.130199e+01	-1.332009e-03
9.182935e+01	-1.347438e-03
9.235975e+01	-1.363046e-03
9.289321e+01	-1.378835e-03
9.342976e+01	-1.394807e-03
9.396941e+01	-1.410963e-03
9.451217e+01	-1.427307e-03
9.505807e+01	-1.443840e-03
9.560712e+01	-1.460564e-03
9.615934e+01	-1.477483e-03
9.671476e+01	-1.494597e-03
9.727338e+01	-1.511909e-03
9.783522e+01	-1.529422e-03
9.840032e+01	-1.547137e-03
9.896867e+01	-1.565058e-03
9.954031e+01	-1.583187e-03
1.001153e+02	-1.601525e-03
1.006935e+02	-1.620075e-03
1.012751e+02	-1.638841e-03
1.018601e+02	-1.657824e-03
1.024484e+02	-1.677026e-03
1.030402e+02	-1.696451e-03
1.036353e+02	-1.716101e-03
1.042339e+02	-1.735979e-03
1.048360e+02	-1.756086e-03
1.054415e+02	-1.776427e-03
1.060505e+02	-1.797003e-03
1.066631e+02	-1.817818e-03
1.072791e+02	-1.838873e-03
1.078988e+02	-1.860172e-03
1.085220e+02	-1.881718e-03
1.091488e+02	-1.903514e-03
1.097793e+02	-1.925561e-03
1.104133e+02	-1.947865e-03
1.110511e+02	-1.970426e-03
1.116925e+02	-1.993249e-03
1.123376e+02	-2.016336e-03
1.129865e+02	-2.039690e-03
1.136391e+02	-2.063315e-03
1.142955e+02	-2.087213e-03
1.149556e+02	-2.111388e-03
1.156196e+02	-2.135843e-03
1.162874e+02	-2.160581e-03
1.169591e+02	-2.185606e-03
1.176347e+02	-2.210920e-03
1.183141e+02	-2.236527e-03
1.189975e+02	-2.262431e-03
1.196848e+02	-2.288635e-03
1.203761e+02	-2.315143e-03
1.210714e+02	-2.341957e-03
1.217707e+02	-2.369082e-03
1.224740e+02	-2.396521e-03
1.231814e+02	-2.424277e-03
1.238929e+02	-2.452355e-03
1.246085e+02	-2.480758e-03
1.253283e+02	-2.509490e-03
1.260522e+02	-2.538555e-03
1.267802e+02	-2.567956e-03
1.275125e+02	-2.597698e-03
1.282490e+02	-2.627783e-03
1.289898e+02	-2.658218e-03
1.297348e+02	-2.689004e-03
1.304842e+02	-2.720147e-03
1.312378e+02	-2.751651e-03
1.319959e+02	-2.783519e-03
1.327583e+02	-2.815757e-03
1.335251e+02	-2.848367e-03
1.342963e+02	-2.881355e-03
1.350720e+02	-2.914725e-03
1.358522e+02	-2.948482e-03
1.366368e+02	-2.982629e-03
1.374260e+02	-3.017171e-03
1.382198e+02	-3.052114e-03
1.390182e+02	-3.087461e-03
1.398211e+02	-3.123217e-03
1.406287e+02	-3.159387e-03
1.414410e+02	-3.195976e-03
1.422579e+02	-3.232988e-03
1.430796e+02	-3.270429e-03
1.439060e+02	-3.308304e-03
1.447372e+02	-3.346616e-03
1.455732e+02	-3.385373e-03
1.464141e+02	-3.424578e-03
1.472597e+02	-3.464236e-03
1.481103e+02	-3.504354e-03
1.489658e+02	-3.544936e-03
1.498262e+02	-3.585988e-03
1.506916e+02	-3.627516e-03
1.515620e+02	-3.669524e-03
1.524374e+02	-3.712018e-03
1.533179e+02	-3.755004e-03
1.542034e+02	-3.798487e-03
1.550941e+02	-3.842474e-03
1.559899e+02	-3.886971e-03
1.568909e+02	-3.931982e-03
1.577971e+02	-3.977514e-03
1.587085e+02	-4.023573e-03
1.596252e+02	-4.070165e-03
1.605472e+02	-4.117297e-03
1.614745e+02	-4.164974e-03
1.624072e+02	-4.213203e-03
1.633453e+02	-4.261990e-03
1.642887e+02	-4.311341e-03
1.652377e+02	-4.361264e-03
1.661921e+02	-4.411765e-03
1.671520e+02	-4.462850e-03
1.681175e+02	-4.514526e-03
1.690885e+02	-4.566801e-03
1.700651e+02	-4.619680e-03
1.710474e+02	-4.673171e-03
1.720354e+02	-4.727282e-03
1.730291e+02	-4.782018e-03
1.740285e+02	-4.837388e-03
1.750337e+02	-4.893399e-03
1.760446e+02	-4.950058e-03
1.770615e+02	-5.007372e-03
1.780842e+02	-5.065350e-03
1.791128e+02	-5.123999e-03
1.801473e+02	-5.183326e-03
1.811878e+02	-5.243340e-03
1.822344e+02	-5.304048e-03
1.832870e+02	-5.365459e-03
1.843456e+02	-5.427580e-03
1.854104e+02	-5.490420e-03
1.864813e+02	-5.553987e-03
1.875584e+02	-5.618290e-03
1.886418e+02	-5.683337e-03
1.897313e+02	-5.749136e-03
1.908272e+02	-5.815696e-03
1.919294e+02	-5.883027e-03
1.930380e+02	-5.951136e-03
1.941530e+02	-6.020034e-03
1.952744e+02	-6.089729e-03
1.964023e+02	-6.160229e-03
1.975367e+02	-6.231546e-03
1.986777e+02	-6.303687e-03
1.998252e+02	-6.376664e-03
2.009794e+02	-6.450484e-03
2.021403e+02	-6.525158e-03
2.033078e+02	-6.600696e-03
2.044821e+02	-6.677108e-03
2.056632e+02	-6.754403e-03
2.068511e+02	-6.832593e-03
2.080459e+02	-6.911687e-03
2.092475e+02	-6.991696e-03
2.104561e+02	-7.072631e-03
2.116717e+02	-7.154501e-03
2.128943e+02	-7.237319e-03
2.141240e+02	-7.321094e-03
2.153608e+02	-7.405838e-03
2.166047e+02	-7.491563e-03
2.178558e+02	-7.578278e-03
2.191141e+02	-7.665997e-03
2.203797e+02	-7.754730e-03
2.216526e+02	-7.844489e-03
2.229329e+02	-7.935286e-03
2.242205e+02	-8.027133e-03
2.255156e+02	-8.120042e-03
2.268182e+02	-8.214026e-03
2.281283e+02	-8.309096e-03
2.294459e+02	-8.405265e-03
2.307712e+02	-8.502547e-03
2.321041e+02	-8.600953e-03
2.334447e+02	-8.700497e-03
2.347931e+02	-8.801192e-03
2.361493e+02	-8.903051e-03
2.375133e+02	-9.006088e-03
2.388851e+02	-9.110316e-03
2.402649e+02	-9.215749e-03
2.416527e+02	-9.322401e-03
2.430484e+02	-9.430286e-03
2.444523e+02	-9.539418e-03
2.458642e+02	-9.649811e-03
2.472843e+02	-9.761480e-03
2.487126e+02	-9.874441e-03
2.501492e+02	-9.988706e-03
2.515940e+02	-1.010429e-02
2.530472e+02	-1.022122e-02
2.545088e+02	-1.033949e-02
2.559789e+02	-1.045913e-02
2.574574e+02	-1.058015e-02
2.589444e+02	-1.070258e-02
2.604401e+02	-1.082641e-02
2.619444e+02	-1.095168e-02
2.634574e+02	-1.107840e-02
2.649791e+02	-1.120658e-02
2.665096e+02	-1.133624e-02
2.680489e+02	-1.146740e-02
2.695972e+02	-1.160007e-02
2.711544e+02	-1.173428e-02
2.727205e+02	-1.187004e-02
2.742958e+02	-1.200736e-02
2.758801e+02	-1.214628e-02
2.774736e+02	-1.228679e-02
2.790762e+02	-1.242894e-02
2.806882e+02	-1.257272e-02
2.823094e+02	-1.271816e-02
2.839400e+02	-1.286529e-02
2.855800e+02	-1.301411e-02
2.872295e+02	-1.316465e-02
2.888886e+02	-1.331693e-02
2.905572e+02	-1.347097e-02
2.922354e+02	-1.362679e-02
2.939234e+02	-1.378441e-02
2.956211e+02	-1.394385e-02
2.973286e+02	-1.410513e-02
2.990459e+02	-1.426827e-02
3.007732e+02	-1.443330e-02
3.025104e+02	-1.460023e-02
3.042577e+02	-1.476909e-02
3.060151e+02	-1.493990e-02
3.077826e+02	-1.511268e-02
3.095604e+02	-1.528745e-02
3.113484e+02	-1.546424e-02
3.131467e+02	-1.564308e-02
3.149554e+02	-1.582397e-02
3.167746e+02	-1.600696e-02
3.186043e+02	-1.619206e-02
3.204445e+02	-1.637929e-02
3.222954e+02	-1.656869e-02
3.241570e+02	-1.676027e-02
3.260293e+02	-1.695406e-02
3.279124e+02	-1.715009e-02
3.298064e+02	-1.734837e-02
3.317114e+02	-1.754895e-02
3.336273e+02	-1.775184e-02
3.355544e+02	-1.795708e-02
3.374925e+02	-1.816468e-02
3.394418e+02	-1.837467e-02
3.414024e+02	-1.858709e-02
3.433744e+02	-1.880196e-02
3.453577e+02	-1.901931e-02
3.473525e+02	-1.923916e-02
3.493588e+02	-1.946155e-02
3.513766e+02	-1.968650e-02
3.534062e+02	-1.991405e-02
3.554474e+02	-2.014422e-02
3.575005e+02	-2.037705e-02
3.595654e+02	-2.061256e-02
3.616422e+02	-2.085079e-02
3.637311e+02	-2.109176e-02
3.658320e+02	-2.133551e-02
3.679450e+02	-2.158207e-02
3.700702e+02	-2.183147e-02
3.722077e+02	-2.208375e-02
3.743576e+02	-2.233894e-02
3.765199e+02	-2.259706e-02
3.786946e+02	-2.285817e-02
3.808820e+02	-2.312228e-02
3.830819e+02	-2.338943e-02
3.852946e+02	-2.365966e-02
3.875200e+02	-2.393301e-02
3.897583e+02	-2.420950e-02
3.920096e+02	-2.448918e-02
3.942738e+02	-2.477208e-02
3.965511e+02	-2.505824e-02
3.988416e+02	-2.534770e-02
4.011452e+02	-2.564049e-02
4.034622e+02	-2.593665e-02
4.057926e+02	-2.623622e-02
4.081365e+02	-2.653924e-02
4.104938e+02	-2.684575e-02
4.128648e+02	-2.715579e-02
4.152495e+02	-2.746940e-02
4.176480e+02	-2.778662e-02
4.200603e+02	-2.810749e-02
4.224866e+02	-2.843205e-02
4.249268e+02	-2.876035e-02
4.273812e+02	-2.909242e-02
4.298497e+02	-2.942832e-02
4.323325e+02	-2.976808e-02
4.348297e+02	-3.011175e-02
4.373412e+02	-3.045938e-02
4.398673e+02	-3.081100e-02
4.424079e+02	-3.116667e-02
4.449633e+02	-3.152643e-02
4.475334e+02	-3.189033e-02
4.501183e+02	-3.225841e-02
4.527182e+02	-3.263072e-02
4.553330e+02	-3.300731e-02
4.579630e+02	-3.338824e-02
4.606082e+02	-3.377354e-02
4.632687e+02	-3.416327e-02
4.659445e+02	-3.455748e-02
4.686358e+02	-3.495622e-02
4.713426e+02	-3.535955e-02
4.740650e+02	-3.576750e-02
4.768032e+02	-3.618015e-02
4.795572e+02	-3.659753e-02
4.823271e+02	-3.701971e-02
4.851130e+02	-3.744674e-02
4.879150e+02	-3.787867e-02
4.907332e+02	-3.831557e-02
4.935676e+02	-3.875747e-02
4.964185e+02	-3.920446e-02
4.992858e+02	-3.965657e-02
5.021696e+02	-4.011388e-02
5.050701e+02	-4.057643e-02
5.079874e+02	-4.104429e-02
5.109215e+02	-4.151752e-02
5.138726e+02	-4.199618e-02
5.168407e+02	-4.248033e-02
5.198259e+02	-4.297003e-02
5.228284e+02	-4.346535e-02
5.258482e+02	-4.396636e-02
5.288855e+02	-4.447310e-02
5.319403e+02	-4.498566e-02
5.350128e+02	-4.550409e-02
5.381030e+02	-4.602847e-02
5.412111e+02	-4.655886e-02
5.443371e+02	-4.709532e-02
5.474812e+02	-4.763793e-02
5.506434e+02	-4.818676e-02
5.538239e+02	-4.874188e-02
5.570228e+02	-4.930335e-02
5.602401e+02	-4.987126e-02
5.634760e+02	-5.044567e-02
5.667306e+02	-5.102665e-02
5.700040e+02	-5.161429e-02
5.732964e+02	-5.220865e-02
5.766077e+02	-5.280982e-02
5.799382e+02	-5.341786e-02
5.832879e+02	-5.403287e-02
5.866569e+02	-5.465490e-02
5.900454e+02	-5.528406e-02
5.934535e+02	-5.592041e-02
5.968813e+02	-5.656403e-02
6.003288e+02	-5.721502e-02
6.037963e+02	-5.787344e-02
6.072838e+02	-5.853940e-02
6.107914e+02	-5.921296e-02
6.143194e+02	-5.989422e-02
6.178676e+02	-6.058326e-02
6.214364e+02	-6.128018e-02
6.250258e+02	-6.198505e-02
6.286359e+02	-6.269797e-02
6.322669e+02	-6.341904e-02
6.359189e+02	-6.414833e-02
6.395919e+02	-6.488595e-02
6.432862e+02	-6.563198e-02
6.470017e+02	-6.638653e-02
6.507388e+02	-6.714968e-02
6.544974e+02	-6.792154e-02
6.582778e+02	-6.870220e-02
6.620800e+02	-6.949176e-02
6.659041e+02	-7.029032e-02
6.697504e+02	-7.109798e-02
6.736188e+02	-7.191484e-02
6.775096e+02	-7.274101e-02
6.814229e+02	-7.357659e-02
6.853587e+02	-7.442169e-02
6.893173e+02	-7.527641e-02
6.932988e+02	-7.614086e-02
6.973033e+02	-7.701515e-02
7.013309e+02	-7.789939e-02
