Frequency(Hz)	Magnitude(dB)
1.000000e+01	-2.021503e+00
1.005776e+01	-2.040332e+00
1.011585e+01	-2.058814e+00
1.017428e+01	-2.078126e+00
1.023305e+01	-2.096923e+00
1.029215e+01	-2.116177e+00
1.035160e+01	-2.135948e+00
1.041139e+01	-2.154996e+00
1.047153e+01	-2.174680e+00
1.053201e+01	-2.194487e+00
1.059284e+01	-2.214543e+00
1.065403e+01	-2.234715e+00
1.071556e+01	-2.254973e+00
1.077746e+01	-2.275103e+00
1.083971e+01	-2.295658e+00
1.090232e+01	-2.316136e+00
1.096529e+01	-2.337034e+00
1.102862e+01	-2.357849e+00
1.109232e+01	-2.378727e+00
1.115639e+01	-2.400088e+00
1.122083e+01	-2.421416e+00
1.128564e+01	-2.442639e+00
1.135083e+01	-2.464519e+00
1.141639e+01	-2.486068e+00
1.148233e+01	-2.508003e+00
1.154865e+01	-2.529887e+00
1.161536e+01	-2.552334e+00
1.168245e+01	-2.574452e+00
1.174992e+01	-2.596830e+00
1.181779e+01	-2.619585e+00
1.188605e+01	-2.642173e+00
1.195470e+01	-2.665062e+00
1.202375e+01	-2.688130e+00
1.209320e+01	-2.711227e+00
1.216305e+01	-2.734719e+00
1.223330e+01	-2.758143e+00
1.230396e+01	-2.781584e+00
1.237503e+01	-2.805508e+00
1.244651e+01	-2.829212e+00
1.251840e+01	-2.853253e+00
1.259070e+01	-2.877468e+00
1.266343e+01	-2.901684e+00
1.273657e+01	-2.926219e+00
1.281014e+01	-2.950834e+00
1.288413e+01	-2.975401e+00
1.295855e+01	-3.000355e+00
1.303339e+01	-3.025371e+00
1.310867e+01	-3.050519e+00
1.318439e+01	-3.075857e+00
1.326054e+01	-3.101161e+00
1.333713e+01	-3.127105e+00
1.341417e+01	-3.152655e+00
1.349165e+01	-3.178435e+00
1.356958e+01	-3.204357e+00
1.364795e+01	-3.230541e+00
1.372678e+01	-3.257050e+00
1.380607e+01	-3.283363e+00
1.388581e+01	-3.310215e+00
1.396602e+01	-3.337047e+00
1.404668e+01	-3.363920e+00
1.412782e+01	-3.390881e+00
1.420942e+01	-3.418074e+00
1.429149e+01	-3.445428e+00
1.437404e+01	-3.472729e+00
1.445706e+01	-3.500498e+00
1.454057e+01	-3.528235e+00
1.462455e+01	-3.556054e+00
1.470902e+01	-3.584140e+00
1.479398e+01	-3.612224e+00
1.487943e+01	-3.640746e+00
1.496537e+01	-3.669083e+00
1.505181e+01	-3.697795e+00
1.513875e+01	-3.726589e+00
1.522619e+01	-3.755449e+00
1.531414e+01	-3.784202e+00
1.540259e+01	-3.813521e+00
1.549156e+01	-3.842747e+00
1.558103e+01	-3.872282e+00
1.567103e+01	-3.901947e+00
1.576155e+01	-3.931609e+00
1.585258e+01	-3.961500e+00
1.594415e+01	-3.991407e+00
1.603624e+01	-4.021556e+00
1.612886e+01	-4.051813e+00
1.622202e+01	-4.082236e+00
1.631572e+01	-4.112563e+00
1.640996e+01	-4.143614e+00
1.650474e+01	-4.174358e+00
1.660008e+01	-4.205394e+00
1.669596e+01	-4.236464e+00
1.679239e+01	-4.267602e+00
1.688938e+01	-4.298934e+00
1.698694e+01	-4.330440e+00
1.708505e+01	-4.362380e+00
1.718373e+01	-4.393853e+00
1.728299e+01	-4.425916e+00
1.738281e+01	-4.458043e+00
1.748322e+01	-4.490120e+00
1.758420e+01	-4.522348e+00
1.768576e+01	-4.554928e+00
1.778792e+01	-4.587474e+00
1.789066e+01	-4.620138e+00
1.799399e+01	-4.652778e+00
1.809793e+01	-4.685926e+00
1.820246e+01	-4.719049e+00
1.830760e+01	-4.752240e+00
1.841334e+01	-4.785375e+00
1.851969e+01	-4.818849e+00
1.862666e+01	-4.852448e+00
1.873425e+01	-4.886485e+00
1.884246e+01	-4.920023e+00
1.895129e+01	-4.953946e+00
1.906075e+01	-4.987996e+00
1.917085e+01	-5.022085e+00
1.928158e+01	-5.057035e+00
1.939295e+01	-5.091144e+00
1.950496e+01	-5.125791e+00
1.961762e+01	-5.160616e+00
1.973093e+01	-5.195471e+00
1.984490e+01	-5.230454e+00
1.995952e+01	-5.265632e+00
2.007480e+01	-5.300476e+00
2.019076e+01	-5.336164e+00
2.030738e+01	-5.371404e+00
2.042467e+01	-5.406991e+00
2.054264e+01	-5.442739e+00
2.066130e+01	-5.478193e+00
2.078064e+01	-5.514421e+00
2.090066e+01	-5.550584e+00
2.102139e+01	-5.586398e+00
2.114280e+01	-5.622481e+00
2.126492e+01	-5.659186e+00
2.138775e+01	-5.695592e+00
2.151128e+01	-5.732164e+00
2.163553e+01	-5.768890e+00
2.176050e+01	-5.806110e+00
2.188619e+01	-5.842536e+00
2.201260e+01	-5.879762e+00
2.213974e+01	-5.916807e+00
2.226762e+01	-5.954287e+00
2.239624e+01	-5.991712e+00
2.252560e+01	-6.028914e+00
2.265571e+01	-6.066580e+00
2.278656e+01	-6.104589e+00
2.291818e+01	-6.142169e+00
2.305055e+01	-6.180188e+00
2.318369e+01	-6.217886e+00
2.331760e+01	-6.256128e+00
2.345228e+01	-6.294364e+00
2.358774e+01	-6.332536e+00
2.372398e+01	-6.371210e+00
2.386101e+01	-6.409914e+00
2.399883e+01	-6.448596e+00
2.413745e+01	-6.487186e+00
2.427686e+01	-6.526052e+00
2.441709e+01	-6.565083e+00
2.455812e+01	-6.603891e+00
2.469997e+01	-6.642860e+00
2.484263e+01	-6.682849e+00
2.498612e+01	-6.721577e+00
2.513044e+01	-6.761348e+00
2.527559e+01	-6.800771e+00
2.542158e+01	-6.840378e+00
2.556842e+01	-6.880055e+00
2.571610e+01	-6.920154e+00
2.586463e+01	-6.959989e+00
2.601403e+01	-6.999745e+00
2.616428e+01	-7.039752e+00
2.631541e+01	-7.079769e+00
2.646740e+01	-7.120237e+00
2.662028e+01	-7.160848e+00
2.677404e+01	-7.201029e+00
2.692868e+01	-7.241901e+00
2.708422e+01	-7.282118e+00
2.724066e+01	-7.323507e+00
2.739800e+01	-7.363833e+00
2.755625e+01	-7.404930e+00
2.771541e+01	-7.445479e+00
2.787550e+01	-7.486698e+00
2.803650e+01	-7.528288e+00
2.819844e+01	-7.569020e+00
2.836131e+01	-7.610253e+00
2.852513e+01	-7.652225e+00
2.868989e+01	-7.693079e+00
2.885560e+01	-7.734743e+00
2.902227e+01	-7.776738e+00
2.918990e+01	-7.818333e+00
2.935850e+01	-7.859866e+00
2.952807e+01	-7.902039e+00
2.969863e+01	-7.943751e+00
2.987016e+01	-7.985853e+00
3.004269e+01	-8.028287e+00
3.021622e+01	-8.069917e+00
3.039075e+01	-8.112591e+00
3.056628e+01	-8.154564e+00
3.074283e+01	-8.197250e+00
3.092040e+01	-8.239661e+00
3.109900e+01	-8.282519e+00
3.127862e+01	-8.324720e+00
3.145929e+01	-8.367314e+00
3.164099e+01	-8.410071e+00
3.182375e+01	-8.453312e+00
3.200756e+01	-8.495936e+00
3.219244e+01	-8.539216e+00
3.237838e+01	-8.581886e+00
3.256540e+01	-8.624951e+00
3.275349e+01	-8.668488e+00
3.294268e+01	-8.711558e+00
3.313295e+01	-8.755205e+00
3.332433e+01	-8.798692e+00
3.351681e+01	-8.841944e+00
3.371040e+01	-8.885612e+00
3.390511e+01	-8.929107e+00
3.410094e+01	-8.972553e+00
3.429791e+01	-9.016212e+00
3.449601e+01	-9.060277e+00
3.469526e+01	-9.103958e+00
3.489566e+01	-9.147651e+00
3.509721e+01	-9.191518e+00
3.529993e+01	-9.235779e+00
3.550382e+01	-9.279955e+00
3.570889e+01	-9.324090e+00
3.591515e+01	-9.368087e+00
3.612259e+01	-9.412261e+00
3.633123e+01	-9.456954e+00
3.654108e+01	-9.501532e+00
3.675214e+01	-9.546202e+00
3.696442e+01	-9.589988e+00
3.717792e+01	-9.634661e+00
3.739266e+01	-9.679266e+00
3.760864e+01	-9.724480e+00
3.782587e+01	-9.769073e+00
3.804435e+01	-9.812989e+00
3.826409e+01	-9.858841e+00
3.848510e+01	-9.903650e+00
3.870739e+01	-9.948477e+00
3.893096e+01	-9.993832e+00
3.915583e+01	-1.003798e+01
3.938199e+01	-1.008359e+01
3.960946e+01	-1.012799e+01
3.983824e+01	-1.017408e+01
4.006834e+01	-1.021925e+01
4.029978e+01	-1.026391e+01
4.053255e+01	-1.030986e+01
4.076666e+01	-1.035570e+01
4.100213e+01	-1.040079e+01
4.123896e+01	-1.044620e+01
4.147715e+01	-1.049187e+01
4.171672e+01	-1.053756e+01
4.195767e+01	-1.058261e+01
4.220002e+01	-1.062848e+01
4.244377e+01	-1.067446e+01
4.268892e+01	-1.072004e+01
4.293549e+01	-1.076572e+01
4.318348e+01	-1.081171e+01
4.343291e+01	-1.085668e+01
4.368377e+01	-1.090289e+01
4.393609e+01	-1.094980e+01
4.418986e+01	-1.099591e+01
4.444510e+01	-1.104154e+01
4.470182e+01	-1.108728e+01
4.496001e+01	-1.113373e+01
4.521970e+01	-1.117944e+01
4.548089e+01	-1.122581e+01
4.574358e+01	-1.127259e+01
4.600779e+01	-1.131886e+01
4.627353e+01	-1.136518e+01
4.654081e+01	-1.141147e+01
4.680963e+01	-1.145791e+01
4.708000e+01	-1.150412e+01
4.735193e+01	-1.155074e+01
4.762543e+01	-1.159753e+01
4.790051e+01	-1.164362e+01
4.817719e+01	-1.169045e+01
4.845545e+01	-1.173626e+01
4.873533e+01	-1.178381e+01
4.901682e+01	-1.183077e+01
4.929994e+01	-1.187782e+01
4.958470e+01	-1.192400e+01
4.987110e+01	-1.197070e+01
5.015915e+01	-1.201807e+01
5.044887e+01	-1.206524e+01
5.074026e+01	-1.211241e+01
5.103333e+01	-1.215888e+01
5.132810e+01	-1.220559e+01
5.162457e+01	-1.225335e+01
5.192275e+01	-1.229945e+01
5.222265e+01	-1.234717e+01
5.252429e+01	-1.239358e+01
5.282767e+01	-1.244124e+01
5.313280e+01	-1.248807e+01
5.343969e+01	-1.253544e+01
5.374836e+01	-1.258366e+01
5.405880e+01	-1.262991e+01
5.437105e+01	-1.267724e+01
5.468509e+01	-1.272423e+01
5.500095e+01	-1.277228e+01
5.531863e+01	-1.281933e+01
5.563815e+01	-1.286769e+01
5.595951e+01	-1.291489e+01
5.628273e+01	-1.296246e+01
5.660782e+01	-1.300963e+01
5.693479e+01	-1.305733e+01
5.726364e+01	-1.310484e+01
5.759439e+01	-1.315180e+01
5.792705e+01	-1.319960e+01
5.826164e+01	-1.324763e+01
5.859815e+01	-1.329536e+01
5.893662e+01	-1.334324e+01
5.927703e+01	-1.339113e+01
5.961941e+01	-1.343831e+01
5.996377e+01	-1.348626e+01
6.031012e+01	-1.353436e+01
6.065847e+01	-1.358157e+01
6.100883e+01	-1.362900e+01
6.136121e+01	-1.367745e+01
6.171563e+01	-1.372560e+01
6.207210e+01	-1.377389e+01
6.243063e+01	-1.382093e+01
6.279122e+01	-1.386950e+01
6.315390e+01	-1.391716e+01
6.351868e+01	-1.396565e+01
6.388556e+01	-1.401243e+01
6.425456e+01	-1.406196e+01
6.462569e+01	-1.410896e+01
6.499897e+01	-1.415720e+01
6.537440e+01	-1.420529e+01
6.575200e+01	-1.425339e+01
6.613178e+01	-1.430182e+01
6.651375e+01	-1.434957e+01
6.689793e+01	-1.439806e+01
6.728433e+01	-1.444559e+01
6.767297e+01	-1.449441e+01
6.806384e+01	-1.454309e+01
6.845698e+01	-1.459133e+01
6.885238e+01	-1.463956e+01
6.925007e+01	-1.468775e+01
6.965005e+01	-1.473613e+01
7.005235e+01	-1.478445e+01
7.045697e+01	-1.483265e+01
7.086393e+01	-1.488119e+01
7.127323e+01	-1.492997e+01
7.168490e+01	-1.497790e+01
7.209895e+01	-1.502658e+01
7.251539e+01	-1.507516e+01
7.293424e+01	-1.512369e+01
7.335551e+01	-1.517202e+01
7.377920e+01	-1.522041e+01
7.420535e+01	-1.526857e+01
7.463396e+01	-1.531930e+01
7.506504e+01	-1.536664e+01
7.549861e+01	-1.541457e+01
7.593469e+01	-1.546339e+01
7.637328e+01	-1.551208e+01
7.681441e+01	-1.556002e+01
7.725809e+01	-1.561006e+01
7.770433e+01	-1.565790e+01
7.815315e+01	-1.570551e+01
7.860456e+01	-1.575533e+01
7.905857e+01	-1.580341e+01
7.951521e+01	-1.585327e+01
7.997449e+01	-1.590176e+01
8.043642e+01	-1.595025e+01
8.090102e+01	-1.599914e+01
8.136830e+01	-1.604811e+01
8.183828e+01	-1.609696e+01
8.231097e+01	-1.614621e+01
8.278640e+01	-1.619377e+01
8.326457e+01	-1.624274e+01
8.374550e+01	-1.629209e+01
8.422921e+01	-1.634100e+01
8.471572e+01	-1.638902e+01
8.520503e+01	-1.643775e+01
8.569717e+01	-1.648688e+01
8.619215e+01	-1.653542e+01
8.669000e+01	-1.658387e+01
8.719071e+01	-1.663407e+01
8.769432e+01	-1.668316e+01
8.820084e+01	-1.673114e+01
8.871029e+01	-1.678071e+01
8.922267e+01	-1.682947e+01
8.973802e+01	-1.687903e+01
9.025634e+01	-1.692804e+01
9.077766e+01	-1.697787e+01
9.130199e+01	-1.702605e+01
9.182935e+01	-1.707500e+01
9.235975e+01	-1.712418e+01
9.289321e+01	-1.717316e+01
9.342976e+01	-1.722336e+01
9.396941e+01	-1.727114e+01
9.451217e+01	-1.732143e+01
9.505807e+01	-1.737010e+01
9.560712e+01	-1.741919e+01
9.615934e+01	-1.746705e+01
9.671476e+01	-1.751653e+01
9.727338e+01	-1.756623e+01
9.783522e+01	-1.761497e+01
9.840032e+01	-1.766408e+01
9.896867e+01	-1.771418e+01
9.954031e+01	-1.776275e+01
1.001153e+02	-1.781165e+01
1.006935e+02	-1.786060e+01
1.012751e+02	-1.790957e+01
1.018601e+02	-1.796004e+01
1.024484e+02	-1.800991e+01
1.030402e+02	-1.805765e+01
1.036353e+02	-1.810807e+01
1.042339e+02	-1.815650e+01
1.048360e+02	-1.820588e+01
1.054415e+02	-1.825516e+01
1.060505e+02	-1.830652e+01
1.066631e+02	-1.835433e+01
1.072791e+02	-1.840332e+01
1.078988e+02	-1.845422e+01
1.085220e+02	-1.850199e+01
1.091488e+02	-1.855014e+01
1.097793e+02	-1.859973e+01
1.104133e+02	-1.865011e+01
1.110511e+02	-1.869900e+01
1.116925e+02	-1.874919e+01
1.123376e+02	-1.879715e+01
1.129865e+02	-1.884743e+01
1.136391e+02	-1.889629e+01
1.142955e+02	-1.894674e+01
1.149556e+02	-1.899623e+01
1.156196e+02	-1.904454e+01
1.162874e+02	-1.909502e+01
1.169591e+02	-1.914464e+01
1.176347e+02	-1.919302e+01
1.183141e+02	-1.924490e+01
1.189975e+02	-1.929097e+01
1.196848e+02	-1.934219e+01
1.203761e+02	-1.939360e+01
1.210714e+02	-1.944107e+01
1.217707e+02	-1.949012e+01
1.224740e+02	-1.953985e+01
1.231814e+02	-1.958919e+01
1.238929e+02	-1.963687e+01
1.246085e+02	-1.968775e+01
1.253283e+02	-1.973666e+01
1.260522e+02	-1.978779e+01
1.267802e+02	-1.983620e+01
1.275125e+02	-1.988694e+01
1.282490e+02	-1.993551e+01
1.289898e+02	-1.998414e+01
1.297348e+02	-2.003626e+01
1.304842e+02	-2.008364e+01
1.312378e+02	-2.013427e+01
1.319959e+02	-2.018329e+01
1.327583e+02	-2.023396e+01
1.335251e+02	-2.028240e+01
1.342963e+02	-2.033273e+01
1.350720e+02	-2.038221e+01
1.358522e+02	-2.043080e+01
1.366368e+02	-2.048046e+01
1.374260e+02	-2.052998e+01
1.382198e+02	-2.057936e+01
1.390182e+02	-2.063072e+01
1.398211e+02	-2.067901e+01
1.406287e+02	-2.072934e+01
1.414410e+02	-2.077806e+01
1.422579e+02	-2.082767e+01
1.430796e+02	-2.088023e+01
1.439060e+02	-2.092721e+01
1.447372e+02	-2.097653e+01
1.455732e+02	-2.102864e+01
1.464141e+02	-2.107645e+01
1.472597e+02	-2.112428e+01
1.481103e+02	-2.117520e+01
1.489658e+02	-2.122499e+01
1.498262e+02	-2.127492e+01
1.506916e+02	-2.132423e+01
1.515620e+02	-2.137379e+01
1.524374e+02	-2.142462e+01
1.533179e+02	-2.147261e+01
1.542034e+02	-2.152194e+01
1.550941e+02	-2.157316e+01
1.559899e+02	-2.162277e+01
1.568909e+02	-2.167399e+01
1.577971e+02	-2.172303e+01
1.587085e+02	-2.177074e+01
1.596252e+02	-2.182001e+01
1.605472e+02	-2.187001e+01
1.614745e+02	-2.192205e+01
1.624072e+02	-2.196898e+01
1.633453e+02	-2.202180e+01
1.642887e+02	-2.207218e+01
1.652377e+02	-2.212001e+01
1.661921e+02	-2.216941e+01
1.671520e+02	-2.221836e+01
1.681175e+02	-2.227019e+01
1.690885e+02	-2.231628e+01
1.700651e+02	-2.236880e+01
1.710474e+02	-2.241896e+01
1.720354e+02	-2.246834e+01
1.730291e+02	-2.251908e+01
1.740285e+02	-2.256786e+01
1.750337e+02	-2.261663e+01
1.760446e+02	-2.266705e+01
1.770615e+02	-2.271616e+01
1.780842e+02	-2.276497e+01
1.791128e+02	-2.281547e+01
1.801473e+02	-2.286672e+01
1.811878e+02	-2.291650e+01
1.822344e+02	-2.296596e+01
1.832870e+02	-2.301710e+01
1.843456e+02	-2.306366e+01
1.854104e+02	-2.311419e+01
1.864813e+02	-2.316497e+01
1.875584e+02	-2.321549e+01
1.886418e+02	-2.326507e+01
1.897313e+02	-2.331616e+01
1.908272e+02	-2.336395e+01
1.919294e+02	-2.341491e+01
1.930380e+02	-2.346307e+01
1.941530e+02	-2.351379e+01
1.952744e+02	-2.356612e+01
1.964023e+02	-2.361211e+01
1.975367e+02	-2.366442e+01
1.986777e+02	-2.371089e+01
1.998252e+02	-2.376344e+01
2.009794e+02	-2.381291e+01
2.021403e+02	-2.386233e+01
2.033078e+02	-2.391339e+01
2.044821e+02	-2.396296e+01
2.056632e+02	-2.401152e+01
2.068511e+02	-2.406243e+01
2.080459e+02	-2.411325e+01
2.092475e+02	-2.416164e+01
2.104561e+02	-2.421202e+01
2.116717e+02	-2.426151e+01
2.128943e+02	-2.431200e+01
2.141240e+02	-2.436094e+01
2.153608e+02	-2.441087e+01
2.166047e+02	-2.446177e+01
2.178558e+02	-2.450895e+01
2.191141e+02	-2.456167e+01
2.203797e+02	-2.461204e+01
2.216526e+02	-2.466161e+01
2.229329e+02	-2.471128e+01
2.242205e+02	-2.476127e+01
2.255156e+02	-2.481207e+01
2.268182e+02	-2.486067e+01
2.281283e+02	-2.491125e+01
2.294459e+02	-2.495855e+01
2.307712e+02	-2.500963e+01
2.321041e+02	-2.505910e+01
2.334447e+02	-2.510833e+01
2.347931e+02	-2.516245e+01
2.361493e+02	-2.520928e+01
2.375133e+02	-2.525838e+01
2.388851e+02	-2.531188e+01
2.402649e+02	-2.535952e+01
2.416527e+02	-2.541203e+01
2.430484e+02	-2.545897e+01
2.444523e+02	-2.550904e+01
2.458642e+02	-2.555535e+01
2.472843e+02	-2.560817e+01
2.487126e+02	-2.565755e+01
2.501492e+02	-2.570840e+01
2.515940e+02	-2.575980e+01
2.530472e+02	-2.580943e+01
2.545088e+02	-2.586272e+01
2.559789e+02	-2.590933e+01
2.574574e+02	-2.595787e+01
2.589444e+02	-2.600717e+01
2.604401e+02	-2.605780e+01
2.619444e+02	-2.610914e+01
2.634574e+02	-2.615803e+01
2.649791e+02	-2.620815e+01
2.665096e+02	-2.625418e+01
2.680489e+02	-2.631147e+01
2.695972e+02	-2.635717e+01
2.711544e+02	-2.641145e+01
2.727205e+02	-2.646108e+01
2.742958e+02	-2.650869e+01
2.758801e+02	-2.656107e+01
2.774736e+02	-2.661071e+01
2.790762e+02	-2.665794e+01
2.806882e+02	-2.671016e+01
2.823094e+02	-2.675887e+01
2.839400e+02	-2.680786e+01
2.855800e+02	-2.685984e+01
2.872295e+02	-2.690929e+01
2.888886e+02	-2.696127e+01
2.905572e+02	-2.700626e+01
2.922354e+02	-2.705789e+01
2.939234e+02	-2.710762e+01
2.956211e+02	-2.715692e+01
2.973286e+02	-2.720791e+01
2.990459e+02	-2.726058e+01
3.007732e+02	-2.731118e+01
3.025104e+02	-2.735676e+01
3.042577e+02	-2.740678e+01
3.060151e+02	-2.746120e+01
3.077826e+02	-2.750819e+01
3.095604e+02	-2.755651e+01
3.113484e+02	-2.760547e+01
3.131467e+02	-2.766289e+01
3.149554e+02	-2.770701e+01
3.167746e+02	-2.775746e+01
3.186043e+02	-2.780846e+01
3.204445e+02	-2.785978e+01
3.222954e+02	-2.790626e+01
3.241570e+02	-2.795721e+01
3.260293e+02	-2.800868e+01
3.279124e+02	-2.805516e+01
3.298064e+02	-2.810671e+01
3.317114e+02	-2.815871e+01
3.336273e+02	-2.821075e+01
3.355544e+02	-2.825778e+01
3.374925e+02	-2.830976e+01
3.394418e+02	-2.835671e+01
3.414024e+02	-2.840892e+01
3.433744e+02	-2.845957e+01
3.453577e+02	-2.850377e+01
3.473525e+02	-2.855940e+01
3.493588e+02	-2.860842e+01
3.513766e+02	-2.865909e+01
3.534062e+02	-2.870921e+01
3.554474e+02	-2.876064e+01
3.575005e+02	-2.880688e+01
3.595654e+02	-2.885864e+01
3.616422e+02	-2.891206e+01
3.637311e+02	-2.895460e+01
3.658320e+02	-2.900710e+01
3.679450e+02	-2.905964e+01
3.700702e+02	-2.911254e+01
3.722077e+02	-2.915815e+01
3.743576e+02	-2.920578e+01
3.765199e+02	-2.926042e+01
3.786946e+02	-2.930587e+01
3.808820e+02	-2.936353e+01
3.830819e+02	-2.941047e+01
3.852946e+02	-2.946200e+01
3.875200e+02	-2.951451e+01
3.897583e+02	-2.955956e+01
3.920096e+02	-2.961028e+01
3.942738e+02	-2.966007e+01
3.965511e+02	-2.971138e+01
3.988416e+02	-2.975802e+01
4.011452e+02	-2.980934e+01
4.034622e+02	-2.985946e+01
4.057926e+02	-2.990978e+01
4.081365e+02	-2.995963e+01
4.104938e+02	-3.001040e+01
4.128648e+02	-3.005700e+01
4.152495e+02	-3.011466e+01
4.176480e+02	-3.016277e+01
4.200603e+02	-3.020991e+01
4.224866e+02	-3.026617e+01
4.249268e+02	-3.031087e+01
4.273812e+02	-3.036098e+01
4.298497e+02	-3.040953e+01
4.323325e+02	-3.046321e+01
4.348297e+02	-3.051094e+01
4.373412e+02	-3.056104e+01
4.398673e+02	-3.060956e+01
4.424079e+02	-3.066441e+01
4.449633e+02	-3.071234e+01
4.475334e+02	-3.076177e+01
4.501183e+02	-3.081550e+01
4.527182e+02	-3.086316e+01
4.553330e+02	-3.091867e+01
4.579630e+02	-3.096208e+01
4.606082e+02	-3.101345e+01
4.632687e+02	-3.106287e+01
4.659445e+02	-3.111357e+01
4.686358e+02	-3.116157e+01
4.713426e+02	-3.120557e+01
4.740650e+02	-3.126416e+01
4.768032e+02	-3.131950e+01
4.795572e+02	-3.136779e+01
4.823271e+02	-3.141600e+01
4.851130e+02	-3.145986e+01
4.879150e+02	-3.151566e+01
4.907332e+02	-3.156593e+01
4.935676e+02	-3.161570e+01
4.964185e+02	-3.166488e+01
4.992858e+02	-3.170998e+01
5.021696e+02	-3.176301e+01
5.050701e+02	-3.181376e+01
5.079874e+02	-3.186717e+01
5.109215e+02	-3.191583e+01
5.138726e+02	-3.197248e+01
5.168407e+02	-3.201733e+01
5.198259e+02	-3.206472e+01
5.228284e+02	-3.212386e+01
5.258482e+02	-3.216783e+01
5.288855e+02	-3.221463e+01
5.319403e+02	-3.226420e+01
5.350128e+02	-3.231936e+01
5.381030e+02	-3.236220e+01
5.412111e+02	-3.241799e+01
5.443371e+02	-3.246638e+01
5.474812e+02	-3.252206e+01
5.506434e+02	-3.257180e+01
5.538239e+02	-3.261848e+01
5.570228e+02	-3.266725e+01
5.602401e+02	-3.271847e+01
5.634760e+02	-3.277503e+01
5.667306e+02	-3.282535e+01
5.700040e+02	-3.287336e+01
5.732964e+02	-3.291853e+01
5.766077e+02	-3.297340e+01
5.799382e+02	-3.302009e+01
5.832879e+02	-3.307505e+01
5.866569e+02	-3.312302e+01
5.900454e+02	-3.318128e+01
5.934535e+02	-3.321914e+01
5.968813e+02	-3.327429e+01
6.003288e+02	-3.332594e+01
6.037963e+02	-3.337578e+01
6.072838e+02	-3.342644e+01
6.107914e+02	-3.347398e+01
6.143194e+02	-3.353304e+01
6.178676e+02	-3.357753e+01
6.214364e+02	-3.362109e+01
6.250258e+02	-3.367921e+01
6.286359e+02	-3.372100e+01
6.322669e+02	-3.377169e+01
6.359189e+02	-3.382653e+01
6.395919e+02	-3.388357e+01
6.432862e+02	-3.392133e+01
6.470017e+02	-3.397945e+01
6.507388e+02	-3.402611e+01
6.544974e+02	-3.407334e+01
6.582778e+02	-3.412651e+01
6.620800e+02	-3.417906e+01
6.659041e+02	-3.423218e+01
6.697504e+02	-3.427515e+01
6.736188e+02	-3.433192e+01
6.775096e+02	-3.438601e+01
6.814229e+02	-3.442826e+01
6.853587e+02	-3.447819e+01
6.893173e+02	-3.453836e+01
6.932988e+02	-3.458047e+01
6.973033e+02	-3.463350e+01
7.013309e+02	-3.468602e+01
