Frequency(Hz)	Magnitude(dB)
1.000000e+01	-1.773081e-05
1.005776e+01	-1.793622e-05
1.011585e+01	-1.814402e-05
1.017428e+01	-1.835422e-05
1.023305e+01	-1.856686e-05
1.029215e+01	-1.878196e-05
1.035160e+01	-1.899955e-05
1.041139e+01	-1.921967e-05
1.047153e+01	-1.944233e-05
1.053201e+01	-1.966758e-05
1.059284e+01	-1.989543e-05
1.065403e+01	-2.012592e-05
1.071556e+01	-2.035909e-05
1.077746e+01	-2.059495e-05
1.083971e+01	-2.083355e-05
1.090232e+01	-2.107491e-05
1.096529e+01	-2.131907e-05
1.102862e+01	-2.156606e-05
1.109232e+01	-2.181591e-05
1.115639e+01	-2.206865e-05
1.122083e+01	-2.232432e-05
1.128564e+01	-2.258295e-05
1.135083e+01	-2.284458e-05
1.141639e+01	-2.310924e-05
1.148233e+01	-2.337697e-05
1.154865e+01	-2.364780e-05
1.161536e+01	-2.392176e-05
1.168245e+01	-2.419890e-05
1.174992e+01	-2.447925e-05
1.181779e+01	-2.476285e-05
1.188605e+01	-2.504973e-05
1.195470e+01	-2.533994e-05
1.202375e+01	-2.563351e-05
1.209320e+01	-2.593048e-05
1.216305e+01	-2.623089e-05
1.223330e+01	-2.653478e-05
1.230396e+01	-2.684220e-05
1.237503e+01	-2.715317e-05
1.244651e+01	-2.746775e-05
1.251840e+01	-2.778597e-05
1.259070e+01	-2.810787e-05
1.266343e+01	-2.843351e-05
1.273657e+01	-2.876292e-05
1.281014e+01	-2.909614e-05
1.288413e+01	-2.943323e-05
1.295855e+01	-2.977422e-05
1.303339e+01	-3.011916e-05
1.310867e+01	-3.046810e-05
1.318439e+01	-3.082108e-05
1.326054e+01	-3.117815e-05
1.333713e+01	-3.153936e-05
1.341417e+01	-3.190475e-05
1.349165e+01	-3.227437e-05
1.356958e+01	-3.264828e-05
1.364795e+01	-3.302652e-05
1.372678e+01	-3.340914e-05
1.380607e+01	-3.379619e-05
1.388581e+01	-3.418772e-05
1.396602e+01	-3.458380e-05
1.404668e+01	-3.498446e-05
1.412782e+01	-3.538976e-05
1.420942e+01	-3.579976e-05
1.429149e+01	-3.621451e-05
1.437404e+01	-3.663406e-05
1.445706e+01	-3.705848e-05
1.454057e+01	-3.748781e-05
1.462455e+01	-3.792211e-05
1.470902e+01	-3.836145e-05
1.479398e+01	-3.880588e-05
1.487943e+01	-3.925545e-05
1.496537e+01	-3.971023e-05
1.505181e+01	-4.017029e-05
1.513875e+01	-4.063567e-05
1.522619e+01	-4.110644e-05
1.531414e+01	-4.158267e-05
1.540259e+01	-4.206441e-05
1.549156e+01	-4.255174e-05
1.558103e+01	-4.304471e-05
1.567103e+01	-4.354339e-05
1.576155e+01	-4.404785e-05
1.585258e+01	-4.455816e-05
1.594415e+01	-4.507437e-05
1.603624e+01	-4.559657e-05
1.612886e+01	-4.612481e-05
1.622202e+01	-4.665918e-05
1.631572e+01	-4.719974e-05
1.640996e+01	-4.774656e-05
1.650474e+01	-4.829971e-05
1.660008e+01	-4.885927e-05
1.669596e+01	-4.942532e-05
1.679239e+01	-4.999792e-05
1.688938e+01	-5.057716e-05
1.698694e+01	-5.116310e-05
1.708505e+01	-5.175584e-05
1.718373e+01	-5.235544e-05
1.728299e+01	-5.296199e-05
1.738281e+01	-5.357557e-05
1.748322e+01	-5.419625e-05
1.758420e+01	-5.482413e-05
1.768576e+01	-5.545927e-05
1.778792e+01	-5.610178e-05
1.789066e+01	-5.675173e-05
1.799399e+01	-5.740921e-05
1.809793e+01	-5.807431e-05
1.820246e+01	-5.874711e-05
1.830760e+01	-5.942771e-05
1.841334e+01	-6.011619e-05
1.851969e+01	-6.081265e-05
1.862666e+01	-6.151718e-05
1.873425e+01	-6.222986e-05
1.884246e+01	-6.295081e-05
1.895129e+01	-6.368011e-05
1.906075e+01	-6.441785e-05
1.917085e+01	-6.516415e-05
1.928158e+01	-6.591909e-05
1.939295e+01	-6.668277e-05
1.950496e+01	-6.745530e-05
1.961762e+01	-6.823679e-05
1.973093e+01	-6.902732e-05
1.984490e+01	-6.982702e-05
1.995952e+01	-7.063598e-05
2.007480e+01	-7.145431e-05
2.019076e+01	-7.228212e-05
2.030738e+01	-7.311952e-05
2.042467e+01	-7.396662e-05
2.054264e+01	-7.482354e-05
2.066130e+01	-7.569038e-05
2.078064e+01	-7.656727e-05
2.090066e+01	-7.745431e-05
2.102139e+01	-7.835164e-05
2.114280e+01	-7.925935e-05
2.126492e+01	-8.017759e-05
2.138775e+01	-8.110646e-05
2.151128e+01	-8.204609e-05
2.163553e+01	-8.299661e-05
2.176050e+01	-8.395814e-05
2.188619e+01	-8.493081e-05
2.201260e+01	-8.591474e-05
2.213974e+01	-8.691008e-05
2.226762e+01	-8.791695e-05
2.239624e+01	-8.893548e-05
2.252560e+01	-8.996581e-05
2.265571e+01	-9.100808e-05
2.278656e+01	-9.206242e-05
2.291818e+01	-9.312898e-05
2.305055e+01	-9.420789e-05
2.318369e+01	-9.529931e-05
2.331760e+01	-9.640336e-05
2.345228e+01	-9.752021e-05
2.358774e+01	-9.865000e-05
2.372398e+01	-9.979287e-05
2.386101e+01	-1.009490e-04
2.399883e+01	-1.021185e-04
2.413745e+01	-1.033016e-04
2.427686e+01	-1.044983e-04
2.441709e+01	-1.057089e-04
2.455812e+01	-1.069336e-04
2.469997e+01	-1.081724e-04
2.484263e+01	-1.094256e-04
2.498612e+01	-1.106933e-04
2.513044e+01	-1.119757e-04
2.527559e+01	-1.132730e-04
2.542158e+01	-1.145853e-04
2.556842e+01	-1.159128e-04
2.571610e+01	-1.172556e-04
2.586463e+01	-1.186140e-04
2.601403e+01	-1.199882e-04
2.616428e+01	-1.213783e-04
2.631541e+01	-1.227845e-04
2.646740e+01	-1.242069e-04
2.662028e+01	-1.256459e-04
2.677404e+01	-1.271015e-04
2.692868e+01	-1.285740e-04
2.708422e+01	-1.300635e-04
2.724066e+01	-1.315703e-04
2.739800e+01	-1.330946e-04
2.755625e+01	-1.346365e-04
2.771541e+01	-1.361963e-04
2.787550e+01	-1.377741e-04
2.803650e+01	-1.393702e-04
2.819844e+01	-1.409849e-04
2.836131e+01	-1.426182e-04
2.852513e+01	-1.442704e-04
2.868989e+01	-1.459418e-04
2.885560e+01	-1.476326e-04
2.902227e+01	-1.493429e-04
2.918990e+01	-1.510730e-04
2.935850e+01	-1.528232e-04
2.952807e+01	-1.545937e-04
2.969863e+01	-1.563847e-04
2.987016e+01	-1.581964e-04
3.004269e+01	-1.600291e-04
3.021622e+01	-1.618831e-04
3.039075e+01	-1.637585e-04
3.056628e+01	-1.656557e-04
3.074283e+01	-1.675748e-04
3.092040e+01	-1.695161e-04
3.109900e+01	-1.714800e-04
3.127862e+01	-1.734666e-04
3.145929e+01	-1.754762e-04
3.164099e+01	-1.775091e-04
3.182375e+01	-1.795656e-04
3.200756e+01	-1.816458e-04
3.219244e+01	-1.837502e-04
3.237838e+01	-1.858790e-04
3.256540e+01	-1.880324e-04
3.275349e+01	-1.902107e-04
3.294268e+01	-1.924143e-04
3.313295e+01	-1.946435e-04
3.332433e+01	-1.968984e-04
3.351681e+01	-1.991795e-04
3.371040e+01	-2.014870e-04
3.390511e+01	-2.038212e-04
3.410094e+01	-2.061825e-04
3.429791e+01	-2.085711e-04
3.449601e+01	-2.109874e-04
3.469526e+01	-2.134317e-04
3.489566e+01	-2.159043e-04
3.509721e+01	-2.184055e-04
3.529993e+01	-2.209358e-04
3.550382e+01	-2.234953e-04
3.570889e+01	-2.260845e-04
3.591515e+01	-2.287037e-04
3.612259e+01	-2.313532e-04
3.633123e+01	-2.340334e-04
3.654108e+01	-2.367447e-04
3.675214e+01	-2.394874e-04
3.696442e+01	-2.422618e-04
3.717792e+01	-2.450684e-04
3.739266e+01	-2.479075e-04
3.760864e+01	-2.507795e-04
3.782587e+01	-2.536848e-04
3.804435e+01	-2.566237e-04
3.826409e+01	-2.595966e-04
3.848510e+01	-2.626041e-04
3.870739e+01	-2.656463e-04
3.893096e+01	-2.687238e-04
3.915583e+01	-2.718369e-04
3.938199e+01	-2.749861e-04
3.960946e+01	-2.781718e-04
3.983824e+01	-2.813944e-04
4.006834e+01	-2.846544e-04
4.029978e+01	-2.879520e-04
4.053255e+01	-2.912879e-04
4.076666e+01	-2.946625e-04
4.100213e+01	-2.980761e-04
4.123896e+01	-3.015293e-04
4.147715e+01	-3.050225e-04
4.171672e+01	-3.085561e-04
4.195767e+01	-3.121307e-04
4.220002e+01	-3.157467e-04
4.244377e+01	-3.194045e-04
4.268892e+01	-3.231048e-04
4.293549e+01	-3.268479e-04
4.318348e+01	-3.306344e-04
4.343291e+01	-3.344647e-04
4.368377e+01	-3.383395e-04
4.393609e+01	-3.422591e-04
4.418986e+01	-3.462241e-04
4.444510e+01	-3.502350e-04
4.470182e+01	-3.542924e-04
4.496001e+01	-3.583968e-04
4.521970e+01	-3.625488e-04
4.548089e+01	-3.667488e-04
4.574358e+01	-3.709975e-04
4.600779e+01	-3.752955e-04
4.627353e+01	-3.796432e-04
4.654081e+01	-3.840412e-04
4.680963e+01	-3.884903e-04
4.708000e+01	-3.929908e-04
4.735193e+01	-3.975435e-04
4.762543e+01	-4.021490e-04
4.790051e+01	-4.068078e-04
4.817719e+01	-4.115205e-04
4.845545e+01	-4.162879e-04
4.873533e+01	-4.211104e-04
4.901682e+01	-4.259889e-04
4.929994e+01	-4.309238e-04
4.958470e+01	-4.359160e-04
4.987110e+01	-4.409659e-04
5.015915e+01	-4.460744e-04
5.044887e+01	-4.512420e-04
5.074026e+01	-4.564695e-04
5.103333e+01	-4.617575e-04
5.132810e+01	-4.671068e-04
5.162457e+01	-4.725181e-04
5.192275e+01	-4.779920e-04
5.222265e+01	-4.835294e-04
5.252429e+01	-4.891309e-04
5.282767e+01	-4.947973e-04
5.313280e+01	-5.005293e-04
5.343969e+01	-5.063278e-04
5.374836e+01	-5.121934e-04
5.405880e+01	-5.181269e-04
5.437105e+01	-5.241292e-04
5.468509e+01	-5.302010e-04
5.500095e+01	-5.363432e-04
5.531863e+01	-5.425565e-04
5.563815e+01	-5.488417e-04
5.595951e+01	-5.551998e-04
5.628273e+01	-5.616315e-04
5.660782e+01	-5.681378e-04
5.693479e+01	-5.747194e-04
5.726364e+01	-5.813772e-04
5.759439e+01	-5.881121e-04
5.792705e+01	-5.949251e-04
5.826164e+01	-6.018170e-04
5.859815e+01	-6.087887e-04
5.893662e+01	-6.158412e-04
5.927703e+01	-6.229754e-04
5.961941e+01	-6.301922e-04
5.996377e+01	-6.374926e-04
6.031012e+01	-6.448776e-04
6.065847e+01	-6.523481e-04
6.100883e+01	-6.599052e-04
6.136121e+01	-6.675498e-04
6.171563e+01	-6.752829e-04
6.207210e+01	-6.831057e-04
6.243063e+01	-6.910190e-04
6.279122e+01	-6.990240e-04
6.315390e+01	-7.071217e-04
6.351868e+01	-7.153133e-04
6.388556e+01	-7.235997e-04
6.425456e+01	-7.319821e-04
6.462569e+01	-7.404616e-04
6.499897e+01	-7.490393e-04
6.537440e+01	-7.577163e-04
6.575200e+01	-7.664939e-04
6.613178e+01	-7.753732e-04
6.651375e+01	-7.843553e-04
6.689793e+01	-7.934414e-04
6.728433e+01	-8.026328e-04
6.767297e+01	-8.119306e-04
6.806384e+01	-8.213362e-04
6.845698e+01	-8.308507e-04
6.885238e+01	-8.404754e-04
6.925007e+01	-8.502116e-04
6.965005e+01	-8.600605e-04
7.005235e+01	-8.700236e-04
7.045697e+01	-8.801020e-04
7.086393e+01	-8.902972e-04
7.127323e+01	-9.006104e-04
7.168490e+01	-9.110432e-04
7.209895e+01	-9.215967e-04
7.251539e+01	-9.322725e-04
7.293424e+01	-9.430720e-04
7.335551e+01	-9.539965e-04
7.377920e+01	-9.650476e-04
7.420535e+01	-9.762267e-04
7.463396e+01	-9.875353e-04
7.506504e+01	-9.989748e-04
7.549861e+01	-1.010547e-03
7.593469e+01	-1.022253e-03
7.637328e+01	-1.034095e-03
7.681441e+01	-1.046073e-03
7.725809e+01	-1.058191e-03
7.770433e+01	-1.070449e-03
7.815315e+01	-1.082849e-03
7.860456e+01	-1.095392e-03
7.905857e+01	-1.108081e-03
7.951521e+01	-1.120917e-03
7.997449e+01	-1.133901e-03
8.043642e+01	-1.147036e-03
8.090102e+01	-1.160323e-03
8.136830e+01	-1.173764e-03
8.183828e+01	-1.187360e-03
8.231097e+01	-1.201114e-03
8.278640e+01	-1.215028e-03
8.326457e+01	-1.229102e-03
8.374550e+01	-1.243340e-03
8.422921e+01	-1.257742e-03
8.471572e+01	-1.272311e-03
8.520503e+01	-1.287049e-03
8.569717e+01	-1.301958e-03
8.619215e+01	-1.317039e-03
8.669000e+01	-1.332295e-03
8.719071e+01	-1.347727e-03
8.769432e+01	-1.363339e-03
8.820084e+01	-1.379131e-03
8.871029e+01	-1.395106e-03
8.922267e+01	-1.411266e-03
8.973802e+01	-1.427613e-03
9.025634e+01	-1.444150e-03
9.077766e+01	-1.460878e-03
9.130199e+01	-1.477799e-03
9.182935e+01	-1.494917e-03
9.235975e+01	-1.512233e-03
9.289321e+01	-1.529750e-03
9.342976e+01	-1.547469e-03
9.396941e+01	-1.565394e-03
9.451217e+01	-1.583526e-03
9.505807e+01	-1.601868e-03
9.560712e+01	-1.620423e-03
9.615934e+01	-1.639192e-03
9.671476e+01	-1.658179e-03
9.727338e+01	-1.677386e-03
9.783522e+01	-1.696815e-03
9.840032e+01	-1.716469e-03
9.896867e+01	-1.736351e-03
9.954031e+01	-1.756463e-03
1.001153e+02	-1.776808e-03
1.006935e+02	-1.797388e-03
1.012751e+02	-1.818207e-03
1.018601e+02	-1.839267e-03
1.024484e+02	-1.860571e-03
1.030402e+02	-1.882122e-03
1.036353e+02	-1.903922e-03
1.042339e+02	-1.925974e-03
1.048360e+02	-1.948282e-03
1.054415e+02	-1.970849e-03
1.060505e+02	-1.993676e-03
1.066631e+02	-2.016768e-03
1.072791e+02	-2.040127e-03
1.078988e+02	-2.063757e-03
1.085220e+02	-2.087660e-03
1.091488e+02	-2.111841e-03
1.097793e+02	-2.136301e-03
1.104133e+02	-2.161044e-03
1.110511e+02	-2.186074e-03
1.116925e+02	-2.211394e-03
1.123376e+02	-2.237007e-03
1.129865e+02	-2.262917e-03
1.136391e+02	-2.289126e-03
1.142955e+02	-2.315639e-03
1.149556e+02	-2.342459e-03
1.156196e+02	-2.369590e-03
1.162874e+02	-2.397035e-03
1.169591e+02	-2.424797e-03
1.176347e+02	-2.452881e-03
1.183141e+02	-2.481290e-03
1.189975e+02	-2.510028e-03
1.196848e+02	-2.539099e-03
1.203761e+02	-2.568507e-03
1.210714e+02	-2.598255e-03
1.217707e+02	-2.628347e-03
1.224740e+02	-2.658788e-03
1.231814e+02	-2.689581e-03
1.238929e+02	-2.720731e-03
1.246085e+02	-2.752241e-03
1.253283e+02	-2.784116e-03
1.260522e+02	-2.816361e-03
1.267802e+02	-2.848978e-03
1.275125e+02	-2.881973e-03
1.282490e+02	-2.915351e-03
1.289898e+02	-2.949114e-03
1.297348e+02	-2.983269e-03
1.304842e+02	-3.017819e-03
1.312378e+02	-3.052769e-03
1.319959e+02	-3.088123e-03
1.327583e+02	-3.123887e-03
1.335251e+02	-3.160065e-03
1.342963e+02	-3.196661e-03
1.350720e+02	-3.233682e-03
1.358522e+02	-3.271131e-03
1.366368e+02	-3.309013e-03
1.374260e+02	-3.347334e-03
1.382198e+02	-3.386099e-03
1.390182e+02	-3.425312e-03
1.398211e+02	-3.464979e-03
1.406287e+02	-3.505106e-03
1.414410e+02	-3.545697e-03
1.422579e+02	-3.586758e-03
1.430796e+02	-3.628294e-03
1.439060e+02	-3.670311e-03
1.447372e+02	-3.712814e-03
1.455732e+02	-3.755809e-03
1.464141e+02	-3.799302e-03
1.472597e+02	-3.843299e-03
1.481103e+02	-3.887804e-03
1.489658e+02	-3.932825e-03
1.498262e+02	-3.978367e-03
1.506916e+02	-4.024436e-03
1.515620e+02	-4.071038e-03
1.524374e+02	-4.118180e-03
1.533179e+02	-4.165867e-03
1.542034e+02	-4.214106e-03
1.550941e+02	-4.262904e-03
1.559899e+02	-4.312266e-03
1.568909e+02	-4.362200e-03
1.577971e+02	-4.412711e-03
1.587085e+02	-4.463807e-03
1.596252e+02	-4.515495e-03
1.605472e+02	-4.567780e-03
1.614745e+02	-4.620671e-03
1.624072e+02	-4.674174e-03
1.633453e+02	-4.728296e-03
1.642887e+02	-4.783044e-03
1.652377e+02	-4.838426e-03
1.661921e+02	-4.894449e-03
1.671520e+02	-4.951120e-03
1.681175e+02	-5.008447e-03
1.690885e+02	-5.066437e-03
1.700651e+02	-5.125098e-03
1.710474e+02	-5.184438e-03
1.720354e+02	-5.244465e-03
1.730291e+02	-5.305186e-03
1.740285e+02	-5.366610e-03
1.750337e+02	-5.428745e-03
1.760446e+02	-5.491598e-03
1.770615e+02	-5.555179e-03
1.780842e+02	-5.619496e-03
1.791128e+02	-5.684556e-03
1.801473e+02	-5.750370e-03
1.811878e+02	-5.816944e-03
1.822344e+02	-5.884289e-03
1.832870e+02	-5.952414e-03
1.843456e+02	-6.021326e-03
1.854104e+02	-6.091035e-03
1.864813e+02	-6.161552e-03
1.875584e+02	-6.232883e-03
1.886418e+02	-6.305040e-03
1.897313e+02	-6.378032e-03
1.908272e+02	-6.451868e-03
1.919294e+02	-6.526558e-03
1.930380e+02	-6.602113e-03
1.941530e+02	-6.678541e-03
1.952744e+02	-6.755853e-03
1.964023e+02	-6.834060e-03
1.975367e+02	-6.913171e-03
1.986777e+02	-6.993197e-03
1.998252e+02	-7.074149e-03
2.009794e+02	-7.156037e-03
2.021403e+02	-7.238872e-03
2.033078e+02	-7.322665e-03
2.044821e+02	-7.407428e-03
2.056632e+02	-7.493171e-03
2.068511e+02	-7.579905e-03
2.080459e+02	-7.667642e-03
2.092475e+02	-7.756394e-03
2.104561e+02	-7.846173e-03
2.116717e+02	-7.936989e-03
2.128943e+02	-8.028856e-03
2.141240e+02	-8.121785e-03
2.153608e+02	-8.215789e-03
2.166047e+02	-8.310880e-03
2.178558e+02	-8.407070e-03
2.191141e+02	-8.504372e-03
2.203797e+02	-8.602800e-03
2.216526e+02	-8.702365e-03
2.229329e+02	-8.803082e-03
2.242205e+02	-8.904963e-03
2.255156e+02	-9.008022e-03
2.268182e+02	-9.112272e-03
2.281283e+02	-9.217728e-03
2.294459e+02	-9.324403e-03
2.307712e+02	-9.432311e-03
2.321041e+02	-9.541466e-03
2.334447e+02	-9.651883e-03
2.347931e+02	-9.763577e-03
2.361493e+02	-9.876561e-03
2.375133e+02	-9.990851e-03
2.388851e+02	-1.010646e-02
2.402649e+02	-1.022341e-02
2.416527e+02	-1.034171e-02
2.430484e+02	-1.046138e-02
2.444523e+02	-1.058243e-02
2.458642e+02	-1.070487e-02
2.472843e+02	-1.082874e-02
2.487126e+02	-1.095403e-02
2.501492e+02	-1.108078e-02
2.515940e+02	-1.120898e-02
2.530472e+02	-1.133867e-02
2.545088e+02	-1.146986e-02
2.559789e+02	-1.160256e-02
2.574574e+02	-1.173680e-02
2.589444e+02	-1.187259e-02
2.604401e+02	-1.200994e-02
2.619444e+02	-1.214889e-02
2.634574e+02	-1.228943e-02
2.649791e+02	-1.243161e-02
2.665096e+02	-1.257542e-02
2.680489e+02	-1.272090e-02
2.695972e+02	-1.286805e-02
2.711544e+02	-1.301691e-02
2.727205e+02	-1.316748e-02
2.742958e+02	-1.331980e-02
2.758801e+02	-1.347387e-02
2.774736e+02	-1.362972e-02
2.790762e+02	-1.378737e-02
2.806882e+02	-1.394685e-02
2.823094e+02	-1.410816e-02
2.839400e+02	-1.427134e-02
2.855800e+02	-1.443640e-02
2.872295e+02	-1.460337e-02
2.888886e+02	-1.477226e-02
2.905572e+02	-1.494311e-02
2.922354e+02	-1.511592e-02
2.939234e+02	-1.529074e-02
2.956211e+02	-1.546757e-02
2.973286e+02	-1.564644e-02
2.990459e+02	-1.582737e-02
3.007732e+02	-1.601040e-02
3.025104e+02	-1.619554e-02
3.042577e+02	-1.638281e-02
3.060151e+02	-1.657225e-02
3.077826e+02	-1.676387e-02
3.095604e+02	-1.695770e-02
3.113484e+02	-1.715377e-02
3.131467e+02	-1.735211e-02
3.149554e+02	-1.755273e-02
3.167746e+02	-1.775566e-02
3.186043e+02	-1.796094e-02
3.204445e+02	-1.816858e-02
3.222954e+02	-1.837862e-02
3.241570e+02	-1.859109e-02
3.260293e+02	-1.880600e-02
3.279124e+02	-1.902340e-02
3.298064e+02	-1.924330e-02
3.317114e+02	-1.946574e-02
3.336273e+02	-1.969074e-02
3.355544e+02	-1.991834e-02
3.374925e+02	-2.014856e-02
3.394418e+02	-2.038143e-02
3.414024e+02	-2.061700e-02
3.433744e+02	-2.085527e-02
3.453577e+02	-2.109630e-02
3.473525e+02	-2.134010e-02
3.493588e+02	-2.158672e-02
3.513766e+02	-2.183617e-02
3.534062e+02	-2.208850e-02
3.554474e+02	-2.234375e-02
3.575005e+02	-2.260193e-02
3.595654e+02	-2.286309e-02
3.616422e+02	-2.312725e-02
3.637311e+02	-2.339446e-02
3.658320e+02	-2.366475e-02
3.679450e+02	-2.393816e-02
3.700702e+02	-2.421471e-02
3.722077e+02	-2.449445e-02
3.743576e+02	-2.477741e-02
3.765199e+02	-2.506364e-02
3.786946e+02	-2.535315e-02
3.808820e+02	-2.564601e-02
3.830819e+02	-2.594223e-02
3.852946e+02	-2.624187e-02
3.875200e+02	-2.654496e-02
3.897583e+02	-2.685153e-02
3.920096e+02	-2.716164e-02
3.942738e+02	-2.747531e-02
3.965511e+02	-2.779260e-02
3.988416e+02	-2.811354e-02
4.011452e+02	-2.843817e-02
4.034622e+02	-2.876654e-02
4.057926e+02	-2.909869e-02
4.081365e+02	-2.943466e-02
4.104938e+02	-2.977450e-02
4.128648e+02	-3.011824e-02
4.152495e+02	-3.046594e-02
4.176480e+02	-3.081764e-02
4.200603e+02	-3.117339e-02
4.224866e+02	-3.153322e-02
4.249268e+02	-3.189720e-02
4.273812e+02	-3.226536e-02
4.298497e+02	-3.263775e-02
4.323325e+02	-3.301443e-02
4.348297e+02	-3.339544e-02
4.373412e+02	-3.378082e-02
4.398673e+02	-3.417064e-02
4.424079e+02	-3.456493e-02
4.449633e+02	-3.496376e-02
4.475334e+02	-3.536717e-02
4.501183e+02	-3.577522e-02
4.527182e+02	-3.618795e-02
4.553330e+02	-3.660543e-02
4.579630e+02	-3.702770e-02
4.606082e+02	-3.745482e-02
4.632687e+02	-3.788685e-02
4.659445e+02	-3.832383e-02
4.686358e+02	-3.876584e-02
4.713426e+02	-3.921292e-02
4.740650e+02	-3.966513e-02
4.768032e+02	-4.012253e-02
4.795572e+02	-4.058519e-02
4.823271e+02	-4.105315e-02
4.851130e+02	-4.152648e-02
4.879150e+02	-4.200524e-02
4.907332e+02	-4.248950e-02
4.935676e+02	-4.297931e-02
4.964185e+02	-4.347474e-02
4.992858e+02	-4.397585e-02
5.021696e+02	-4.448271e-02
5.050701e+02	-4.499538e-02
5.079874e+02	-4.551392e-02
5.109215e+02	-4.603841e-02
5.138726e+02	-4.656892e-02
5.168407e+02	-4.710550e-02
5.198259e+02	-4.764823e-02
5.228284e+02	-4.819718e-02
5.258482e+02	-4.875241e-02
5.288855e+02	-4.931401e-02
5.319403e+02	-4.988204e-02
5.350128e+02	-5.045657e-02
5.381030e+02	-5.103769e-02
5.412111e+02	-5.162545e-02
5.443371e+02	-5.221994e-02
5.474812e+02	-5.282124e-02
5.506434e+02	-5.342942e-02
5.538239e+02	-5.404456e-02
5.570228e+02	-5.466673e-02
5.602401e+02	-5.529602e-02
5.634760e+02	-5.593251e-02
5.667306e+02	-5.657628e-02
5.700040e+02	-5.722740e-02
5.732964e+02	-5.788597e-02
5.766077e+02	-5.855207e-02
5.799382e+02	-5.922578e-02
5.832879e+02	-5.990719e-02
5.866569e+02	-6.059639e-02
5.900454e+02	-6.129345e-02
5.934535e+02	-6.199848e-02
5.968813e+02	-6.271156e-02
6.003288e+02	-6.343278e-02
6.037963e+02	-6.416223e-02
6.072838e+02	-6.490001e-02
6.107914e+02	-6.564621e-02
6.143194e+02	-6.640092e-02
6.178676e+02	-6.716424e-02
6.214364e+02	-6.793627e-02
6.250258e+02	-6.871710e-02
6.286359e+02	-6.950683e-02
6.322669e+02	-7.030557e-02
6.359189e+02	-7.111341e-02
6.395919e+02	-7.193045e-02
6.432862e+02	-7.275680e-02
6.470017e+02	-7.359257e-02
6.507388e+02	-7.443785e-02
6.544974e+02	-7.529276e-02
6.582778e+02	-7.615740e-02
6.620800e+02	-7.703188e-02
6.659041e+02	-7.791631e-02
6.697504e+02	-7.881080e-02
6.736188e+02	-7.971547e-02
6.775096e+02	-8.063043e-02
6.814229e+02	-8.155578e-02
6.853587e+02	-8.249166e-02
6.893173e+02	-8.343817e-02
6.932988e+02	-8.439544e-02
6.973033e+02	-8.536359e-02
7.013309e+02	-8.634272e-02
