Frequency(Hz)	Magnitude(dB)
1.000000e+01	-2.256127e+00
1.005776e+01	-2.276422e+00
1.011585e+01	-2.296671e+00
1.017428e+01	-2.317140e+00
1.023305e+01	-2.337732e+00
1.029215e+01	-2.358954e+00
1.035160e+01	-2.380067e+00
1.041139e+01	-2.401247e+00
1.047153e+01	-2.422601e+00
1.053201e+01	-2.444079e+00
1.059284e+01	-2.465543e+00
1.065403e+01	-2.487197e+00
1.071556e+01	-2.509120e+00
1.077746e+01	-2.531105e+00
1.083971e+01	-2.553611e+00
1.090232e+01	-2.575728e+00
1.096529e+01	-2.598236e+00
1.102862e+01	-2.620582e+00
1.109232e+01	-2.643500e+00
1.115639e+01	-2.666246e+00
1.122083e+01	-2.689193e+00
1.128564e+01	-2.712431e+00
1.135083e+01	-2.735622e+00
1.141639e+01	-2.759125e+00
1.148233e+01	-2.782803e+00
1.154865e+01	-2.806610e+00
1.161536e+01	-2.830411e+00
1.168245e+01	-2.854684e+00
1.174992e+01	-2.878814e+00
1.181779e+01	-2.902748e+00
1.188605e+01	-2.927469e+00
1.195470e+01	-2.952230e+00
1.202375e+01	-2.976807e+00
1.209320e+01	-3.001952e+00
1.216305e+01	-3.026673e+00
1.223330e+01	-3.051691e+00
1.230396e+01	-3.077278e+00
1.237503e+01	-3.102624e+00
1.244651e+01	-3.128528e+00
1.251840e+01	-3.154107e+00
1.259070e+01	-3.179909e+00
1.266343e+01	-3.206076e+00
1.273657e+01	-3.232291e+00
1.281014e+01	-3.258780e+00
1.288413e+01	-3.285095e+00
1.295855e+01	-3.311682e+00
1.303339e+01	-3.338370e+00
1.310867e+01	-3.365301e+00
1.318439e+01	-3.392302e+00
1.326054e+01	-3.419429e+00
1.333713e+01	-3.447053e+00
1.341417e+01	-3.474516e+00
1.349165e+01	-3.501948e+00
1.356958e+01	-3.529702e+00
1.364795e+01	-3.557618e+00
1.372678e+01	-3.585604e+00
1.380607e+01	-3.613889e+00
1.388581e+01	-3.642369e+00
1.396602e+01	-3.670650e+00
1.404668e+01	-3.699076e+00
1.412782e+01	-3.727911e+00
1.420942e+01	-3.756728e+00
1.429149e+01	-3.786166e+00
1.437404e+01	-3.815231e+00
1.445706e+01	-3.844716e+00
1.454057e+01	-3.873797e+00
1.462455e+01	-3.903389e+00
1.470902e+01	-3.933401e+00
1.479398e+01	-3.963092e+00
1.487943e+01	-3.993066e+00
1.496537e+01	-4.023342e+00
1.505181e+01	-4.053631e+00
1.513875e+01	-4.083990e+00
1.522619e+01	-4.114688e+00
1.531414e+01	-4.145156e+00
1.540259e+01	-4.176030e+00
1.549156e+01	-4.206986e+00
1.558103e+01	-4.238012e+00
1.567103e+01	-4.269382e+00
1.576155e+01	-4.300793e+00
1.585258e+01	-4.332069e+00
1.594415e+01	-4.363799e+00
1.603624e+01	-4.395614e+00
1.612886e+01	-4.427453e+00
1.622202e+01	-4.459846e+00
1.631572e+01	-4.491950e+00
1.640996e+01	-4.523886e+00
1.650474e+01	-4.556545e+00
1.660008e+01	-4.589106e+00
1.669596e+01	-4.621944e+00
1.679239e+01	-4.654743e+00
1.688938e+01	-4.687649e+00
1.698694e+01	-4.720702e+00
1.708505e+01	-4.754128e+00
1.718373e+01	-4.787322e+00
1.728299e+01	-4.820685e+00
1.738281e+01	-4.854454e+00
1.748322e+01	-4.887958e+00
1.758420e+01	-4.922029e+00
1.768576e+01	-4.956255e+00
1.778792e+01	-4.990121e+00
1.789066e+01	-5.023858e+00
1.799399e+01	-5.058314e+00
1.809793e+01	-5.093180e+00
1.820246e+01	-5.127680e+00
1.830760e+01	-5.162732e+00
1.841334e+01	-5.197167e+00
1.851969e+01	-5.232228e+00
1.862666e+01	-5.267579e+00
1.873425e+01	-5.302478e+00
1.884246e+01	-5.337983e+00
1.895129e+01	-5.373289e+00
1.906075e+01	-5.409150e+00
1.917085e+01	-5.444547e+00
1.928158e+01	-5.480458e+00
1.939295e+01	-5.516503e+00
1.950496e+01	-5.552124e+00
1.961762e+01	-5.588736e+00
1.973093e+01	-5.624711e+00
1.984490e+01	-5.661282e+00
1.995952e+01	-5.697558e+00
2.007480e+01	-5.734246e+00
2.019076e+01	-5.770875e+00
2.030738e+01	-5.807902e+00
2.042467e+01	-5.844857e+00
2.054264e+01	-5.881987e+00
2.066130e+01	-5.919169e+00
2.078064e+01	-5.956449e+00
2.090066e+01	-5.993395e+00
2.102139e+01	-6.031018e+00
2.114280e+01	-6.068710e+00
2.126492e+01	-6.106322e+00
2.138775e+01	-6.144498e+00
2.151128e+01	-6.181994e+00
2.163553e+01	-6.220151e+00
2.176050e+01	-6.258469e+00
2.188619e+01	-6.296636e+00
2.201260e+01	-6.334948e+00
2.213974e+01	-6.373340e+00
2.226762e+01	-6.411887e+00
2.239624e+01	-6.450329e+00
2.252560e+01	-6.489310e+00
2.265571e+01	-6.528270e+00
2.278656e+01	-6.567139e+00
2.291818e+01	-6.605890e+00
2.305055e+01	-6.645284e+00
2.318369e+01	-6.684604e+00
2.331760e+01	-6.724004e+00
2.345228e+01	-6.763256e+00
2.358774e+01	-6.803071e+00
2.372398e+01	-6.842384e+00
2.386101e+01	-6.882477e+00
2.399883e+01	-6.921912e+00
2.413745e+01	-6.961751e+00
2.427686e+01	-7.001724e+00
2.441709e+01	-7.042192e+00
2.455812e+01	-7.082182e+00
2.469997e+01	-7.122626e+00
2.484263e+01	-7.163063e+00
2.498612e+01	-7.203217e+00
2.513044e+01	-7.243885e+00
2.527559e+01	-7.284453e+00
2.542158e+01	-7.325486e+00
2.556842e+01	-7.365838e+00
2.571610e+01	-7.406962e+00
2.586463e+01	-7.448204e+00
2.601403e+01	-7.488916e+00
2.616428e+01	-7.530370e+00
2.631541e+01	-7.571363e+00
2.646740e+01	-7.612794e+00
2.662028e+01	-7.654022e+00
2.677404e+01	-7.695604e+00
2.692868e+01	-7.737311e+00
2.708422e+01	-7.778959e+00
2.724066e+01	-7.820467e+00
2.739800e+01	-7.862171e+00
2.755625e+01	-7.904035e+00
2.771541e+01	-7.946209e+00
2.787550e+01	-7.988231e+00
2.803650e+01	-8.030310e+00
2.819844e+01	-8.072351e+00
2.836131e+01	-8.114532e+00
2.852513e+01	-8.157169e+00
2.868989e+01	-8.199669e+00
2.885560e+01	-8.241685e+00
2.902227e+01	-8.284516e+00
2.918990e+01	-8.327222e+00
2.935850e+01	-8.369689e+00
2.952807e+01	-8.412259e+00
2.969863e+01	-8.455461e+00
2.987016e+01	-8.498537e+00
3.004269e+01	-8.541437e+00
3.021622e+01	-8.584369e+00
3.039075e+01	-8.627538e+00
3.056628e+01	-8.670845e+00
3.074283e+01	-8.714303e+00
3.092040e+01	-8.757735e+00
3.109900e+01	-8.800745e+00
3.127862e+01	-8.844753e+00
3.145929e+01	-8.887658e+00
3.164099e+01	-8.931643e+00
3.182375e+01	-8.975149e+00
3.200756e+01	-9.018456e+00
3.219244e+01	-9.062732e+00
3.237838e+01	-9.106311e+00
3.256540e+01	-9.150500e+00
3.275349e+01	-9.194604e+00
3.294268e+01	-9.238407e+00
3.313295e+01	-9.282443e+00
3.332433e+01	-9.326692e+00
3.351681e+01	-9.370856e+00
3.371040e+01	-9.415128e+00
3.390511e+01	-9.458968e+00
3.410094e+01	-9.503208e+00
3.429791e+01	-9.548465e+00
3.449601e+01	-9.592724e+00
3.469526e+01	-9.637135e+00
3.489566e+01	-9.681953e+00
3.509721e+01	-9.726575e+00
3.529993e+01	-9.771045e+00
3.550382e+01	-9.815942e+00
3.570889e+01	-9.860750e+00
3.591515e+01	-9.906155e+00
3.612259e+01	-9.950598e+00
3.633123e+01	-9.996174e+00
3.654108e+01	-1.004055e+01
3.675214e+01	-1.008601e+01
3.696442e+01	-1.013105e+01
3.717792e+01	-1.017639e+01
3.739266e+01	-1.022103e+01
3.760864e+01	-1.026642e+01
3.782587e+01	-1.031207e+01
3.804435e+01	-1.035716e+01
3.826409e+01	-1.040295e+01
3.848510e+01	-1.044835e+01
3.870739e+01	-1.049409e+01
3.893096e+01	-1.053917e+01
3.915583e+01	-1.058528e+01
3.938199e+01	-1.063115e+01
3.960946e+01	-1.067685e+01
3.983824e+01	-1.072204e+01
4.006834e+01	-1.076856e+01
4.029978e+01	-1.081381e+01
4.053255e+01	-1.086058e+01
4.076666e+01	-1.090597e+01
4.100213e+01	-1.095230e+01
4.123896e+01	-1.099740e+01
4.147715e+01	-1.104361e+01
4.171672e+01	-1.109041e+01
4.195767e+01	-1.113651e+01
4.220002e+01	-1.118264e+01
4.244377e+01	-1.122868e+01
4.268892e+01	-1.127528e+01
4.293549e+01	-1.132133e+01
4.318348e+01	-1.136776e+01
4.343291e+01	-1.141438e+01
4.368377e+01	-1.146101e+01
4.393609e+01	-1.150634e+01
4.418986e+01	-1.155351e+01
4.444510e+01	-1.160027e+01
4.470182e+01	-1.164659e+01
4.496001e+01	-1.169320e+01
4.521970e+01	-1.173936e+01
4.548089e+01	-1.178707e+01
4.574358e+01	-1.183310e+01
4.600779e+01	-1.188016e+01
4.627353e+01	-1.192668e+01
4.654081e+01	-1.197366e+01
4.680963e+01	-1.202091e+01
4.708000e+01	-1.206730e+01
4.735193e+01	-1.211401e+01
4.762543e+01	-1.216120e+01
4.790051e+01	-1.220822e+01
4.817719e+01	-1.225549e+01
4.845545e+01	-1.230281e+01
4.873533e+01	-1.234965e+01
4.901682e+01	-1.239698e+01
4.929994e+01	-1.244391e+01
4.958470e+01	-1.249165e+01
4.987110e+01	-1.253767e+01
5.015915e+01	-1.258600e+01
5.044887e+01	-1.263311e+01
5.074026e+01	-1.268030e+01
5.103333e+01	-1.272762e+01
5.132810e+01	-1.277518e+01
5.162457e+01	-1.282229e+01
5.192275e+01	-1.286979e+01
5.222265e+01	-1.291726e+01
5.252429e+01	-1.296535e+01
5.282767e+01	-1.301206e+01
5.313280e+01	-1.305948e+01
5.343969e+01	-1.310653e+01
5.374836e+01	-1.315417e+01
5.405880e+01	-1.320238e+01
5.437105e+01	-1.324987e+01
5.468509e+01	-1.329797e+01
5.500095e+01	-1.334575e+01
5.531863e+01	-1.339282e+01
5.563815e+01	-1.344079e+01
5.595951e+01	-1.348875e+01
5.628273e+01	-1.353603e+01
5.660782e+01	-1.358445e+01
5.693479e+01	-1.363186e+01
5.726364e+01	-1.367964e+01
5.759439e+01	-1.372712e+01
5.792705e+01	-1.377649e+01
5.826164e+01	-1.382390e+01
5.859815e+01	-1.387132e+01
5.893662e+01	-1.391981e+01
5.927703e+01	-1.396804e+01
5.961941e+01	-1.401570e+01
5.996377e+01	-1.406395e+01
6.031012e+01	-1.411128e+01
6.065847e+01	-1.415968e+01
6.100883e+01	-1.420790e+01
6.136121e+01	-1.425654e+01
6.171563e+01	-1.430427e+01
6.207210e+01	-1.435272e+01
6.243063e+01	-1.440105e+01
6.279122e+01	-1.444831e+01
6.315390e+01	-1.449730e+01
6.351868e+01	-1.454563e+01
6.388556e+01	-1.459362e+01
6.425456e+01	-1.464160e+01
6.462569e+01	-1.469062e+01
6.499897e+01	-1.473889e+01
6.537440e+01	-1.478742e+01
6.575200e+01	-1.483550e+01
6.613178e+01	-1.488330e+01
6.651375e+01	-1.493211e+01
6.689793e+01	-1.498040e+01
6.728433e+01	-1.502964e+01
6.767297e+01	-1.507751e+01
6.806384e+01	-1.512595e+01
6.845698e+01	-1.517505e+01
6.885238e+01	-1.522335e+01
6.925007e+01	-1.527143e+01
6.965005e+01	-1.531976e+01
7.005235e+01	-1.537024e+01
7.045697e+01	-1.541689e+01
7.086393e+01	-1.546590e+01
7.127323e+01	-1.551413e+01
7.168490e+01	-1.556372e+01
7.209895e+01	-1.561218e+01
7.251539e+01	-1.566032e+01
7.293424e+01	-1.570965e+01
7.335551e+01	-1.575795e+01
7.377920e+01	-1.580675e+01
7.420535e+01	-1.585522e+01
7.463396e+01	-1.590418e+01
7.506504e+01	-1.595241e+01
7.549861e+01	-1.600118e+01
7.593469e+01	-1.604993e+01
7.637328e+01	-1.609927e+01
7.681441e+01	-1.614803e+01
7.725809e+01	-1.619763e+01
7.770433e+01	-1.624705e+01
7.815315e+01	-1.629475e+01
7.860456e+01	-1.634267e+01
7.905857e+01	-1.639244e+01
7.951521e+01	-1.644135e+01
7.997449e+01	-1.648975e+01
8.043642e+01	-1.653918e+01
8.090102e+01	-1.658695e+01
8.136830e+01	-1.663651e+01
8.183828e+01	-1.668573e+01
8.231097e+01	-1.673559e+01
8.278640e+01	-1.678344e+01
8.326457e+01	-1.683237e+01
8.374550e+01	-1.688212e+01
8.422921e+01	-1.693072e+01
8.471572e+01	-1.697956e+01
8.520503e+01	-1.702799e+01
8.569717e+01	-1.707817e+01
8.619215e+01	-1.712712e+01
8.669000e+01	-1.717546e+01
8.719071e+01	-1.722534e+01
8.769432e+01	-1.727528e+01
8.820084e+01	-1.732309e+01
8.871029e+01	-1.737311e+01
8.922267e+01	-1.742288e+01
8.973802e+01	-1.746942e+01
9.025634e+01	-1.751764e+01
9.077766e+01	-1.756910e+01
9.130199e+01	-1.761906e+01
9.182935e+01	-1.766769e+01
9.235975e+01	-1.771659e+01
9.289321e+01	-1.776554e+01
9.342976e+01	-1.781532e+01
9.396941e+01	-1.786369e+01
9.451217e+01	-1.791402e+01
9.505807e+01	-1.796342e+01
9.560712e+01	-1.801206e+01
9.615934e+01	-1.806206e+01
9.671476e+01	-1.811053e+01
9.727338e+01	-1.815918e+01
9.783522e+01	-1.820970e+01
9.840032e+01	-1.825799e+01
9.896867e+01	-1.830702e+01
9.954031e+01	-1.835558e+01
1.001153e+02	-1.840599e+01
1.006935e+02	-1.845430e+01
1.012751e+02	-1.850560e+01
1.018601e+02	-1.855473e+01
1.024484e+02	-1.860279e+01
1.030402e+02	-1.865230e+01
1.036353e+02	-1.870197e+01
1.042339e+02	-1.875211e+01
1.048360e+02	-1.879972e+01
1.054415e+02	-1.885062e+01
1.060505e+02	-1.889901e+01
1.066631e+02	-1.894991e+01
1.072791e+02	-1.899797e+01
1.078988e+02	-1.904828e+01
1.085220e+02	-1.909860e+01
1.091488e+02	-1.914477e+01
1.097793e+02	-1.919548e+01
1.104133e+02	-1.924467e+01
1.110511e+02	-1.929559e+01
1.116925e+02	-1.934439e+01
1.123376e+02	-1.939362e+01
1.129865e+02	-1.944362e+01
1.136391e+02	-1.949200e+01
1.142955e+02	-1.954304e+01
1.149556e+02	-1.959231e+01
1.156196e+02	-1.964114e+01
1.162874e+02	-1.969055e+01
1.169591e+02	-1.974025e+01
1.176347e+02	-1.979009e+01
1.183141e+02	-1.983768e+01
1.189975e+02	-1.988735e+01
1.196848e+02	-1.993817e+01
1.203761e+02	-1.998728e+01
1.210714e+02	-2.003692e+01
1.217707e+02	-2.008578e+01
1.224740e+02	-2.013672e+01
1.231814e+02	-2.018584e+01
1.238929e+02	-2.023368e+01
1.246085e+02	-2.028440e+01
1.253283e+02	-2.033438e+01
1.260522e+02	-2.038577e+01
1.267802e+02	-2.043331e+01
1.275125e+02	-2.048362e+01
1.282490e+02	-2.053110e+01
1.289898e+02	-2.058145e+01
1.297348e+02	-2.063268e+01
1.304842e+02	-2.067918e+01
1.312378e+02	-2.073049e+01
1.319959e+02	-2.078151e+01
1.327583e+02	-2.083226e+01
1.335251e+02	-2.088095e+01
1.342963e+02	-2.092782e+01
1.350720e+02	-2.098027e+01
1.358522e+02	-2.102846e+01
1.366368e+02	-2.107960e+01
1.374260e+02	-2.113091e+01
1.382198e+02	-2.117693e+01
1.390182e+02	-2.122737e+01
1.398211e+02	-2.127753e+01
1.406287e+02	-2.132731e+01
1.414410e+02	-2.137768e+01
1.422579e+02	-2.142759e+01
1.430796e+02	-2.147552e+01
1.439060e+02	-2.152487e+01
1.447372e+02	-2.157521e+01
1.455732e+02	-2.162671e+01
1.464141e+02	-2.167646e+01
1.472597e+02	-2.172424e+01
1.481103e+02	-2.177309e+01
1.489658e+02	-2.182400e+01
1.498262e+02	-2.187526e+01
1.506916e+02	-2.192285e+01
1.515620e+02	-2.197157e+01
1.524374e+02	-2.202258e+01
1.533179e+02	-2.207373e+01
1.542034e+02	-2.212098e+01
1.550941e+02	-2.217308e+01
1.559899e+02	-2.222058e+01
1.568909e+02	-2.227193e+01
1.577971e+02	-2.232104e+01
1.587085e+02	-2.236905e+01
1.596252e+02	-2.242033e+01
1.605472e+02	-2.247029e+01
1.614745e+02	-2.251767e+01
1.624072e+02	-2.257111e+01
1.633453e+02	-2.261936e+01
1.642887e+02	-2.266961e+01
1.652377e+02	-2.272074e+01
1.661921e+02	-2.277003e+01
1.671520e+02	-2.282093e+01
1.681175e+02	-2.286773e+01
1.690885e+02	-2.291798e+01
1.700651e+02	-2.296729e+01
1.710474e+02	-2.301698e+01
1.720354e+02	-2.306645e+01
1.730291e+02	-2.311556e+01
1.740285e+02	-2.316734e+01
1.750337e+02	-2.321418e+01
1.760446e+02	-2.326470e+01
1.770615e+02	-2.331562e+01
1.780842e+02	-2.336459e+01
1.791128e+02	-2.341644e+01
1.801473e+02	-2.346565e+01
1.811878e+02	-2.351512e+01
1.822344e+02	-2.356432e+01
1.832870e+02	-2.361743e+01
1.843456e+02	-2.366347e+01
1.854104e+02	-2.371346e+01
1.864813e+02	-2.376580e+01
1.875584e+02	-2.381848e+01
1.886418e+02	-2.386341e+01
1.897313e+02	-2.391444e+01
1.908272e+02	-2.396304e+01
1.919294e+02	-2.401261e+01
1.930380e+02	-2.406566e+01
1.941530e+02	-2.411395e+01
1.952744e+02	-2.416323e+01
1.964023e+02	-2.421623e+01
1.975367e+02	-2.426141e+01
1.986777e+02	-2.431664e+01
1.998252e+02	-2.436181e+01
2.009794e+02	-2.441641e+01
2.021403e+02	-2.446357e+01
2.033078e+02	-2.451269e+01
2.044821e+02	-2.456331e+01
2.056632e+02	-2.461248e+01
2.068511e+02	-2.466413e+01
2.080459e+02	-2.471210e+01
2.092475e+02	-2.476301e+01
2.104561e+02	-2.481138e+01
2.116717e+02	-2.486302e+01
2.128943e+02	-2.491521e+01
2.141240e+02	-2.496203e+01
2.153608e+02	-2.501310e+01
2.166047e+02	-2.506312e+01
2.178558e+02	-2.511127e+01
2.191141e+02	-2.516134e+01
2.203797e+02	-2.521133e+01
2.216526e+02	-2.526014e+01
2.229329e+02	-2.531221e+01
2.242205e+02	-2.536527e+01
2.255156e+02	-2.541020e+01
2.268182e+02	-2.546377e+01
2.281283e+02	-2.551469e+01
2.294459e+02	-2.556224e+01
2.307712e+02	-2.560934e+01
2.321041e+02	-2.565990e+01
2.334447e+02	-2.571026e+01
2.347931e+02	-2.576243e+01
2.361493e+02	-2.580928e+01
2.375133e+02	-2.586262e+01
2.388851e+02	-2.591131e+01
2.402649e+02	-2.596441e+01
2.416527e+02	-2.601324e+01
2.430484e+02	-2.606053e+01
2.444523e+02	-2.610947e+01
2.458642e+02	-2.615976e+01
2.472843e+02	-2.621440e+01
2.487126e+02	-2.626420e+01
2.501492e+02	-2.631028e+01
2.515940e+02	-2.636055e+01
2.530472e+02	-2.641148e+01
2.545088e+02	-2.646199e+01
2.559789e+02	-2.650927e+01
2.574574e+02	-2.655716e+01
2.589444e+02	-2.661098e+01
2.604401e+02	-2.666146e+01
2.619444e+02	-2.671169e+01
2.634574e+02	-2.675939e+01
2.649791e+02	-2.681012e+01
2.665096e+02	-2.685800e+01
2.680489e+02	-2.691064e+01
2.695972e+02	-2.695789e+01
2.711544e+02	-2.701355e+01
2.727205e+02	-2.705560e+01
2.742958e+02	-2.710685e+01
2.758801e+02	-2.716233e+01
2.774736e+02	-2.720966e+01
2.790762e+02	-2.725654e+01
2.806882e+02	-2.731220e+01
2.823094e+02	-2.736045e+01
2.839400e+02	-2.740742e+01
2.855800e+02	-2.745943e+01
2.872295e+02	-2.751035e+01
2.888886e+02	-2.755818e+01
2.905572e+02	-2.760762e+01
2.922354e+02	-2.766005e+01
2.939234e+02	-2.770820e+01
2.956211e+02	-2.775498e+01
2.973286e+02	-2.780982e+01
2.990459e+02	-2.785519e+01
3.007732e+02	-2.790758e+01
3.025104e+02	-2.796183e+01
3.042577e+02	-2.801137e+01
3.060151e+02	-2.805905e+01
3.077826e+02	-2.810792e+01
3.095604e+02	-2.816235e+01
3.113484e+02	-2.821567e+01
3.131467e+02	-2.826019e+01
3.149554e+02	-2.831247e+01
3.167746e+02	-2.836166e+01
3.186043e+02	-2.840651e+01
3.204445e+02	-2.846241e+01
3.222954e+02	-2.850919e+01
3.241570e+02	-2.855752e+01
3.260293e+02	-2.861013e+01
3.279124e+02	-2.865908e+01
3.298064e+02	-2.871246e+01
3.317114e+02	-2.875605e+01
3.336273e+02	-2.881354e+01
3.355544e+02	-2.886376e+01
3.374925e+02	-2.890783e+01
3.394418e+02	-2.896181e+01
3.414024e+02	-2.901130e+01
3.433744e+02	-2.905981e+01
3.453577e+02	-2.911179e+01
3.473525e+02	-2.916432e+01
3.493588e+02	-2.920998e+01
3.513766e+02	-2.925960e+01
3.534062e+02	-2.931387e+01
3.554474e+02	-2.936174e+01
3.575005e+02	-2.941068e+01
3.595654e+02	-2.945698e+01
3.616422e+02	-2.951228e+01
3.637311e+02	-2.955856e+01
3.658320e+02	-2.961353e+01
3.679450e+02	-2.965931e+01
3.700702e+02	-2.970974e+01
3.722077e+02	-2.976080e+01
3.743576e+02	-2.980998e+01
3.765199e+02	-2.985829e+01
3.786946e+02	-2.991711e+01
3.808820e+02	-2.996424e+01
3.830819e+02	-3.001178e+01
3.852946e+02	-3.006226e+01
3.875200e+02	-3.010963e+01
3.897583e+02	-3.016719e+01
3.920096e+02	-3.020933e+01
3.942738e+02	-3.025916e+01
3.965511e+02	-3.031361e+01
3.988416e+02	-3.036053e+01
4.011452e+02	-3.041326e+01
4.034622e+02	-3.046032e+01
4.057926e+02	-3.051229e+01
4.081365e+02	-3.056535e+01
4.104938e+02	-3.061092e+01
4.128648e+02	-3.066707e+01
4.152495e+02	-3.071055e+01
4.176480e+02	-3.076683e+01
4.200603e+02	-3.080876e+01
4.224866e+02	-3.086059e+01
4.249268e+02	-3.090745e+01
4.273812e+02	-3.096880e+01
4.298497e+02	-3.101690e+01
4.323325e+02	-3.106708e+01
4.348297e+02	-3.111571e+01
4.373412e+02	-3.116395e+01
4.398673e+02	-3.121159e+01
4.424079e+02	-3.126838e+01
4.449633e+02	-3.131826e+01
4.475334e+02	-3.136286e+01
4.501183e+02	-3.141149e+01
4.527182e+02	-3.146151e+01
4.553330e+02	-3.151648e+01
4.579630e+02	-3.157273e+01
4.606082e+02	-3.161582e+01
4.632687e+02	-3.166586e+01
4.659445e+02	-3.171750e+01
4.686358e+02	-3.176359e+01
4.713426e+02	-3.181546e+01
4.740650e+02	-3.186967e+01
4.768032e+02	-3.191765e+01
4.795572e+02	-3.196564e+01
4.823271e+02	-3.202008e+01
4.851130e+02	-3.206790e+01
4.879150e+02	-3.211555e+01
4.907332e+02	-3.216649e+01
4.935676e+02	-3.221399e+01
4.964185e+02	-3.226957e+01
4.992858e+02	-3.231738e+01
5.021696e+02	-3.236779e+01
5.050701e+02	-3.241356e+01
5.079874e+02	-3.246969e+01
5.109215e+02	-3.251742e+01
5.138726e+02	-3.257087e+01
5.168407e+02	-3.261673e+01
5.198259e+02	-3.267308e+01
5.228284e+02	-3.272602e+01
5.258482e+02	-3.277230e+01
5.288855e+02	-3.282105e+01
5.319403e+02	-3.286977e+01
5.350128e+02	-3.292068e+01
5.381030e+02	-3.297170e+01
5.412111e+02	-3.301729e+01
5.443371e+02	-3.306762e+01
5.474812e+02	-3.312254e+01
5.506434e+02	-3.316489e+01
5.538239e+02	-3.322178e+01
5.570228e+02	-3.327683e+01
5.602401e+02	-3.332554e+01
5.634760e+02	-3.337921e+01
5.667306e+02	-3.342538e+01
5.700040e+02	-3.347896e+01
5.732964e+02	-3.352155e+01
5.766077e+02	-3.357177e+01
5.799382e+02	-3.362029e+01
5.832879e+02	-3.367854e+01
5.866569e+02	-3.373064e+01
5.900454e+02	-3.377570e+01
5.934535e+02	-3.382398e+01
5.968813e+02	-3.387635e+01
6.003288e+02	-3.391862e+01
6.037963e+02	-3.397905e+01
6.072838e+02	-3.402888e+01
6.107914e+02	-3.407677e+01
6.143194e+02	-3.413455e+01
6.178676e+02	-3.417640e+01
6.214364e+02	-3.422644e+01
6.250258e+02	-3.428320e+01
6.286359e+02	-3.433279e+01
6.322669e+02	-3.437809e+01
6.359189e+02	-3.443399e+01
6.395919e+02	-3.447112e+01
6.432862e+02	-3.453259e+01
6.470017e+02	-3.457778e+01
6.507388e+02	-3.462348e+01
6.544974e+02	-3.468155e+01
6.582778e+02	-3.472860e+01
6.620800e+02	-3.478045e+01
6.659041e+02	-3.482645e+01
6.697504e+02	-3.488534e+01
6.736188e+02	-3.493731e+01
6.775096e+02	-3.497896e+01
6.814229e+02	-3.503858e+01
6.853587e+02	-3.509336e+01
6.893173e+02	-3.513869e+01
6.932988e+02	-3.518923e+01
6.973033e+02	-3.522575e+01
7.013309e+02	-3.528732e+01
