Frequency(Hz)	Magnitude(dB)
1.000000e+01	-2.149982e+00
1.005776e+01	-2.169646e+00
1.011585e+01	-2.189195e+00
1.017428e+01	-2.209268e+00
1.023305e+01	-2.229211e+00
1.029215e+01	-2.249151e+00
1.035160e+01	-2.269516e+00
1.041139e+01	-2.290173e+00
1.047153e+01	-2.310581e+00
1.053201e+01	-2.331372e+00
1.059284e+01	-2.352189e+00
1.065403e+01	-2.373230e+00
1.071556e+01	-2.394357e+00
1.077746e+01	-2.415490e+00
1.083971e+01	-2.437129e+00
1.090232e+01	-2.458408e+00
1.096529e+01	-2.480043e+00
1.102862e+01	-2.502112e+00
1.109232e+01	-2.523737e+00
1.115639e+01	-2.546101e+00
1.122083e+01	-2.568631e+00
1.128564e+01	-2.590848e+00
1.135083e+01	-2.613546e+00
1.141639e+01	-2.636039e+00
1.148233e+01	-2.658924e+00
1.154865e+01	-2.682006e+00
1.161536e+01	-2.704994e+00
1.168245e+01	-2.728011e+00
1.174992e+01	-2.751737e+00
1.181779e+01	-2.775325e+00
1.188605e+01	-2.799193e+00
1.195470e+01	-2.822742e+00
1.202375e+01	-2.846855e+00
1.209320e+01	-2.870800e+00
1.216305e+01	-2.894985e+00
1.223330e+01	-2.919586e+00
1.230396e+01	-2.944143e+00
1.237503e+01	-2.968841e+00
1.244651e+01	-2.993660e+00
1.251840e+01	-3.018704e+00
1.259070e+01	-3.043955e+00
1.266343e+01	-3.069147e+00
1.273657e+01	-3.094268e+00
1.281014e+01	-3.119963e+00
1.288413e+01	-3.145681e+00
1.295855e+01	-3.171762e+00
1.303339e+01	-3.197425e+00
1.310867e+01	-3.223912e+00
1.318439e+01	-3.250051e+00
1.326054e+01	-3.276499e+00
1.333713e+01	-3.303006e+00
1.341417e+01	-3.329670e+00
1.349165e+01	-3.356411e+00
1.356958e+01	-3.383479e+00
1.364795e+01	-3.410621e+00
1.372678e+01	-3.437759e+00
1.380607e+01	-3.465521e+00
1.388581e+01	-3.493021e+00
1.396602e+01	-3.520489e+00
1.404668e+01	-3.548548e+00
1.412782e+01	-3.576543e+00
1.420942e+01	-3.604497e+00
1.429149e+01	-3.632938e+00
1.437404e+01	-3.661540e+00
1.445706e+01	-3.689911e+00
1.454057e+01	-3.718635e+00
1.462455e+01	-3.747508e+00
1.470902e+01	-3.776536e+00
1.479398e+01	-3.805388e+00
1.487943e+01	-3.834887e+00
1.496537e+01	-3.864285e+00
1.505181e+01	-3.893847e+00
1.513875e+01	-3.923442e+00
1.522619e+01	-3.953380e+00
1.531414e+01	-3.983373e+00
1.540259e+01	-4.013417e+00
1.549156e+01	-4.043660e+00
1.558103e+01	-4.073882e+00
1.567103e+01	-4.104584e+00
1.576155e+01	-4.135174e+00
1.585258e+01	-4.166074e+00
1.594415e+01	-4.197066e+00
1.603624e+01	-4.228320e+00
1.612886e+01	-4.259301e+00
1.622202e+01	-4.290367e+00
1.631572e+01	-4.321900e+00
1.640996e+01	-4.353732e+00
1.650474e+01	-4.385684e+00
1.660008e+01	-4.416981e+00
1.669596e+01	-4.449234e+00
1.679239e+01	-4.481525e+00
1.688938e+01	-4.513626e+00
1.698694e+01	-4.546091e+00
1.708505e+01	-4.578569e+00
1.718373e+01	-4.611275e+00
1.728299e+01	-4.643977e+00
1.738281e+01	-4.677033e+00
1.748322e+01	-4.709972e+00
1.758420e+01	-4.743102e+00
1.768576e+01	-4.776513e+00
1.778792e+01	-4.810023e+00
1.789066e+01	-4.843398e+00
1.799399e+01	-4.877314e+00
1.809793e+01	-4.911076e+00
1.820246e+01	-4.944699e+00
1.830760e+01	-4.978957e+00
1.841334e+01	-5.013475e+00
1.851969e+01	-5.047270e+00
1.862666e+01	-5.081935e+00
1.873425e+01	-5.116398e+00
1.884246e+01	-5.151243e+00
1.895129e+01	-5.186080e+00
1.906075e+01	-5.220995e+00
1.917085e+01	-5.256081e+00
1.928158e+01	-5.291155e+00
1.939295e+01	-5.326590e+00
1.950496e+01	-5.361481e+00
1.961762e+01	-5.397700e+00
1.973093e+01	-5.432778e+00
1.984490e+01	-5.468957e+00
1.995952e+01	-5.504762e+00
2.007480e+01	-5.540659e+00
2.019076e+01	-5.576861e+00
2.030738e+01	-5.612997e+00
2.042467e+01	-5.649407e+00
2.054264e+01	-5.685927e+00
2.066130e+01	-5.722134e+00
2.078064e+01	-5.758771e+00
2.090066e+01	-5.795935e+00
2.102139e+01	-5.832671e+00
2.114280e+01	-5.869977e+00
2.126492e+01	-5.907166e+00
2.138775e+01	-5.944247e+00
2.151128e+01	-5.981225e+00
2.163553e+01	-6.019008e+00
2.176050e+01	-6.056742e+00
2.188619e+01	-6.094344e+00
2.201260e+01	-6.131947e+00
2.213974e+01	-6.169801e+00
2.226762e+01	-6.207938e+00
2.239624e+01	-6.245968e+00
2.252560e+01	-6.284539e+00
2.265571e+01	-6.322496e+00
2.278656e+01	-6.360650e+00
2.291818e+01	-6.399254e+00
2.305055e+01	-6.438163e+00
2.318369e+01	-6.476825e+00
2.331760e+01	-6.515707e+00
2.345228e+01	-6.554353e+00
2.358774e+01	-6.593650e+00
2.372398e+01	-6.632490e+00
2.386101e+01	-6.671855e+00
2.399883e+01	-6.711381e+00
2.413745e+01	-6.750568e+00
2.427686e+01	-6.789910e+00
2.441709e+01	-6.830115e+00
2.455812e+01	-6.869493e+00
2.469997e+01	-6.909420e+00
2.484263e+01	-6.949042e+00
2.498612e+01	-6.989192e+00
2.513044e+01	-7.028982e+00
2.527559e+01	-7.069455e+00
2.542158e+01	-7.109524e+00
2.556842e+01	-7.149422e+00
2.571610e+01	-7.190328e+00
2.586463e+01	-7.230598e+00
2.601403e+01	-7.271354e+00
2.616428e+01	-7.312175e+00
2.631541e+01	-7.353055e+00
2.646740e+01	-7.393648e+00
2.662028e+01	-7.434517e+00
2.677404e+01	-7.475836e+00
2.692868e+01	-7.516536e+00
2.708422e+01	-7.557917e+00
2.724066e+01	-7.599455e+00
2.739800e+01	-7.640599e+00
2.755625e+01	-7.682280e+00
2.771541e+01	-7.723796e+00
2.787550e+01	-7.765431e+00
2.803650e+01	-7.807032e+00
2.819844e+01	-7.848581e+00
2.836131e+01	-7.890678e+00
2.852513e+01	-7.932716e+00
2.868989e+01	-7.974589e+00
2.885560e+01	-8.016586e+00
2.902227e+01	-8.059363e+00
2.918990e+01	-8.101114e+00
2.935850e+01	-8.143358e+00
2.952807e+01	-8.185564e+00
2.969863e+01	-8.228567e+00
2.987016e+01	-8.270388e+00
3.004269e+01	-8.313619e+00
3.021622e+01	-8.356048e+00
3.039075e+01	-8.398962e+00
3.056628e+01	-8.441638e+00
3.074283e+01	-8.484060e+00
3.092040e+01	-8.527344e+00
3.109900e+01	-8.570513e+00
3.127862e+01	-8.613487e+00
3.145929e+01	-8.656535e+00
3.164099e+01	-8.700066e+00
3.182375e+01	-8.743497e+00
3.200756e+01	-8.786864e+00
3.219244e+01	-8.830550e+00
3.237838e+01	-8.873654e+00
3.256540e+01	-8.917731e+00
3.275349e+01	-8.960968e+00
3.294268e+01	-9.004396e+00
3.313295e+01	-9.048198e+00
3.332433e+01	-9.092647e+00
3.351681e+01	-9.135962e+00
3.371040e+01	-9.179917e+00
3.390511e+01	-9.223963e+00
3.410094e+01	-9.267807e+00
3.429791e+01	-9.312274e+00
3.449601e+01	-9.356174e+00
3.469526e+01	-9.400440e+00
3.489566e+01	-9.445365e+00
3.509721e+01	-9.489636e+00
3.529993e+01	-9.533492e+00
3.550382e+01	-9.578618e+00
3.570889e+01	-9.622112e+00
3.591515e+01	-9.667304e+00
3.612259e+01	-9.711803e+00
3.633123e+01	-9.757073e+00
3.654108e+01	-9.801354e+00
3.675214e+01	-9.846571e+00
3.696442e+01	-9.891172e+00
3.717792e+01	-9.936066e+00
3.739266e+01	-9.981024e+00
3.760864e+01	-1.002662e+01
3.782587e+01	-1.007144e+01
3.804435e+01	-1.011609e+01
3.826409e+01	-1.016193e+01
3.848510e+01	-1.020671e+01
3.870739e+01	-1.025215e+01
3.893096e+01	-1.029675e+01
3.915583e+01	-1.034314e+01
3.938199e+01	-1.038816e+01
3.960946e+01	-1.043362e+01
3.983824e+01	-1.047942e+01
4.006834e+01	-1.052484e+01
4.029978e+01	-1.057069e+01
4.053255e+01	-1.061598e+01
4.076666e+01	-1.066192e+01
4.100213e+01	-1.070746e+01
4.123896e+01	-1.075311e+01
4.147715e+01	-1.079933e+01
4.171672e+01	-1.084588e+01
4.195767e+01	-1.089139e+01
4.220002e+01	-1.093659e+01
4.244377e+01	-1.098311e+01
4.268892e+01	-1.102906e+01
4.293549e+01	-1.107504e+01
4.318348e+01	-1.112143e+01
4.343291e+01	-1.116724e+01
4.368377e+01	-1.121392e+01
4.393609e+01	-1.126005e+01
4.418986e+01	-1.130695e+01
4.444510e+01	-1.135270e+01
4.470182e+01	-1.139913e+01
4.496001e+01	-1.144548e+01
4.521970e+01	-1.149197e+01
4.548089e+01	-1.153839e+01
4.574358e+01	-1.158507e+01
4.600779e+01	-1.163132e+01
4.627353e+01	-1.167858e+01
4.654081e+01	-1.172473e+01
4.680963e+01	-1.177135e+01
4.708000e+01	-1.181757e+01
4.735193e+01	-1.186555e+01
4.762543e+01	-1.191137e+01
4.790051e+01	-1.195829e+01
4.817719e+01	-1.200538e+01
4.845545e+01	-1.205205e+01
4.873533e+01	-1.209876e+01
4.901682e+01	-1.214612e+01
4.929994e+01	-1.219320e+01
4.958470e+01	-1.223967e+01
4.987110e+01	-1.228719e+01
5.015915e+01	-1.233417e+01
5.044887e+01	-1.238142e+01
5.074026e+01	-1.242935e+01
5.103333e+01	-1.247577e+01
5.132810e+01	-1.252283e+01
5.162457e+01	-1.257065e+01
5.192275e+01	-1.261724e+01
5.222265e+01	-1.266453e+01
5.252429e+01	-1.271203e+01
5.282767e+01	-1.275972e+01
5.313280e+01	-1.280682e+01
5.343969e+01	-1.285501e+01
5.374836e+01	-1.290207e+01
5.405880e+01	-1.294916e+01
5.437105e+01	-1.299728e+01
5.468509e+01	-1.304423e+01
5.500095e+01	-1.309178e+01
5.531863e+01	-1.313932e+01
5.563815e+01	-1.318670e+01
5.595951e+01	-1.323431e+01
5.628273e+01	-1.328181e+01
5.660782e+01	-1.332924e+01
5.693479e+01	-1.337765e+01
5.726364e+01	-1.342544e+01
5.759439e+01	-1.347258e+01
5.792705e+01	-1.352069e+01
5.826164e+01	-1.356837e+01
5.859815e+01	-1.361694e+01
5.893662e+01	-1.366467e+01
5.927703e+01	-1.371226e+01
5.961941e+01	-1.376072e+01
5.996377e+01	-1.380788e+01
6.031012e+01	-1.385685e+01
6.065847e+01	-1.390449e+01
6.100883e+01	-1.395166e+01
6.136121e+01	-1.399940e+01
6.171563e+01	-1.404850e+01
6.207210e+01	-1.409740e+01
6.243063e+01	-1.414448e+01
6.279122e+01	-1.419272e+01
6.315390e+01	-1.424010e+01
6.351868e+01	-1.428846e+01
6.388556e+01	-1.433701e+01
6.425456e+01	-1.438556e+01
6.462569e+01	-1.443327e+01
6.499897e+01	-1.448130e+01
6.537440e+01	-1.452971e+01
6.575200e+01	-1.457777e+01
6.613178e+01	-1.462665e+01
6.651375e+01	-1.467504e+01
6.689793e+01	-1.472355e+01
6.728433e+01	-1.477240e+01
6.767297e+01	-1.482071e+01
6.806384e+01	-1.486850e+01
6.845698e+01	-1.491689e+01
6.885238e+01	-1.496533e+01
6.925007e+01	-1.501276e+01
6.965005e+01	-1.506179e+01
7.005235e+01	-1.511002e+01
7.045697e+01	-1.515942e+01
7.086393e+01	-1.520781e+01
7.127323e+01	-1.525578e+01
7.168490e+01	-1.530522e+01
7.209895e+01	-1.535272e+01
7.251539e+01	-1.540110e+01
7.293424e+01	-1.545056e+01
7.335551e+01	-1.549854e+01
7.377920e+01	-1.554801e+01
7.420535e+01	-1.559624e+01
7.463396e+01	-1.564456e+01
7.506504e+01	-1.569354e+01
7.549861e+01	-1.574139e+01
7.593469e+01	-1.578988e+01
7.637328e+01	-1.584030e+01
7.681441e+01	-1.588833e+01
7.725809e+01	-1.593686e+01
7.770433e+01	-1.598719e+01
7.815315e+01	-1.603437e+01
7.860456e+01	-1.608306e+01
7.905857e+01	-1.613253e+01
7.951521e+01	-1.618100e+01
7.997449e+01	-1.623010e+01
8.043642e+01	-1.627781e+01
8.090102e+01	-1.632638e+01
8.136830e+01	-1.637652e+01
8.183828e+01	-1.642519e+01
8.231097e+01	-1.647239e+01
8.278640e+01	-1.652267e+01
8.326457e+01	-1.657227e+01
8.374550e+01	-1.662080e+01
8.422921e+01	-1.666950e+01
8.471572e+01	-1.671959e+01
8.520503e+01	-1.676777e+01
8.569717e+01	-1.681684e+01
8.619215e+01	-1.686550e+01
8.669000e+01	-1.691494e+01
8.719071e+01	-1.696374e+01
8.769432e+01	-1.701273e+01
8.820084e+01	-1.706233e+01
8.871029e+01	-1.711182e+01
8.922267e+01	-1.715969e+01
8.973802e+01	-1.720915e+01
9.025634e+01	-1.725702e+01
9.077766e+01	-1.730839e+01
9.130199e+01	-1.735725e+01
9.182935e+01	-1.740568e+01
9.235975e+01	-1.745520e+01
9.289321e+01	-1.750335e+01
9.342976e+01	-1.755281e+01
9.396941e+01	-1.760210e+01
9.451217e+01	-1.765090e+01
9.505807e+01	-1.769893e+01
9.560712e+01	-1.775017e+01
9.615934e+01	-1.779938e+01
9.671476e+01	-1.784763e+01
9.727338e+01	-1.789663e+01
9.783522e+01	-1.794650e+01
9.840032e+01	-1.799618e+01
9.896867e+01	-1.804450e+01
9.954031e+01	-1.809287e+01
1.001153e+02	-1.814349e+01
1.006935e+02	-1.819162e+01
1.012751e+02	-1.824125e+01
1.018601e+02	-1.829040e+01
1.024484e+02	-1.834104e+01
1.030402e+02	-1.838951e+01
1.036353e+02	-1.843828e+01
1.042339e+02	-1.848788e+01
1.048360e+02	-1.853887e+01
1.054415e+02	-1.858693e+01
1.060505e+02	-1.863565e+01
1.066631e+02	-1.868762e+01
1.072791e+02	-1.873463e+01
1.078988e+02	-1.878456e+01
1.085220e+02	-1.883316e+01
1.091488e+02	-1.888236e+01
1.097793e+02	-1.893229e+01
1.104133e+02	-1.898120e+01
1.110511e+02	-1.903153e+01
1.116925e+02	-1.908226e+01
1.123376e+02	-1.913047e+01
1.129865e+02	-1.918003e+01
1.136391e+02	-1.922992e+01
1.142955e+02	-1.927968e+01
1.149556e+02	-1.932835e+01
1.156196e+02	-1.937797e+01
1.162874e+02	-1.942657e+01
1.169591e+02	-1.947611e+01
1.176347e+02	-1.952581e+01
1.183141e+02	-1.957630e+01
1.189975e+02	-1.962504e+01
1.196848e+02	-1.967572e+01
1.203761e+02	-1.972494e+01
1.210714e+02	-1.977269e+01
1.217707e+02	-1.982409e+01
1.224740e+02	-1.987285e+01
1.231814e+02	-1.992241e+01
1.238929e+02	-1.997320e+01
1.246085e+02	-2.002148e+01
1.253283e+02	-2.007026e+01
1.260522e+02	-2.011949e+01
1.267802e+02	-2.016969e+01
1.275125e+02	-2.021836e+01
1.282490e+02	-2.026976e+01
1.289898e+02	-2.031775e+01
1.297348e+02	-2.036756e+01
1.304842e+02	-2.041764e+01
1.312378e+02	-2.046649e+01
1.319959e+02	-2.051686e+01
1.327583e+02	-2.056628e+01
1.335251e+02	-2.061431e+01
1.342963e+02	-2.066594e+01
1.350720e+02	-2.071536e+01
1.358522e+02	-2.076462e+01
1.366368e+02	-2.081379e+01
1.374260e+02	-2.086434e+01
1.382198e+02	-2.091336e+01
1.390182e+02	-2.096237e+01
1.398211e+02	-2.101137e+01
1.406287e+02	-2.106241e+01
1.414410e+02	-2.111214e+01
1.422579e+02	-2.116201e+01
1.430796e+02	-2.121324e+01
1.439060e+02	-2.126254e+01
1.447372e+02	-2.131085e+01
1.455732e+02	-2.136204e+01
1.464141e+02	-2.141204e+01
1.472597e+02	-2.145944e+01
1.481103e+02	-2.151071e+01
1.489658e+02	-2.155782e+01
1.498262e+02	-2.160899e+01
1.506916e+02	-2.165939e+01
1.515620e+02	-2.170979e+01
1.524374e+02	-2.175728e+01
1.533179e+02	-2.180568e+01
1.542034e+02	-2.185804e+01
1.550941e+02	-2.190718e+01
1.559899e+02	-2.195766e+01
1.568909e+02	-2.200633e+01
1.577971e+02	-2.205547e+01
1.587085e+02	-2.210682e+01
1.596252e+02	-2.215692e+01
1.605472e+02	-2.220549e+01
1.614745e+02	-2.225664e+01
1.624072e+02	-2.230497e+01
1.633453e+02	-2.235231e+01
1.642887e+02	-2.240630e+01
1.652377e+02	-2.245556e+01
1.661921e+02	-2.250516e+01
1.671520e+02	-2.255653e+01
1.681175e+02	-2.260229e+01
1.690885e+02	-2.265457e+01
1.700651e+02	-2.270194e+01
1.710474e+02	-2.275261e+01
1.720354e+02	-2.280407e+01
1.730291e+02	-2.285190e+01
1.740285e+02	-2.290310e+01
1.750337e+02	-2.295259e+01
1.760446e+02	-2.300392e+01
1.770615e+02	-2.304986e+01
1.780842e+02	-2.310123e+01
1.791128e+02	-2.315146e+01
1.801473e+02	-2.320180e+01
1.811878e+02	-2.325115e+01
1.822344e+02	-2.330266e+01
1.832870e+02	-2.334996e+01
1.843456e+02	-2.340151e+01
1.854104e+02	-2.344739e+01
1.864813e+02	-2.349994e+01
1.875584e+02	-2.354877e+01
1.886418e+02	-2.360087e+01
1.897313e+02	-2.364878e+01
1.908272e+02	-2.369914e+01
1.919294e+02	-2.374777e+01
1.930380e+02	-2.380125e+01
1.941530e+02	-2.384935e+01
1.952744e+02	-2.390045e+01
1.964023e+02	-2.394789e+01
1.975367e+02	-2.400010e+01
1.986777e+02	-2.405073e+01
1.998252e+02	-2.409927e+01
2.009794e+02	-2.415059e+01
2.021403e+02	-2.419959e+01
2.033078e+02	-2.424943e+01
2.044821e+02	-2.429663e+01
2.056632e+02	-2.434930e+01
2.068511e+02	-2.439682e+01
2.080459e+02	-2.444759e+01
2.092475e+02	-2.449824e+01
2.104561e+02	-2.454921e+01
2.116717e+02	-2.459722e+01
2.128943e+02	-2.464690e+01
2.141240e+02	-2.469732e+01
2.153608e+02	-2.474552e+01
2.166047e+02	-2.479605e+01
2.178558e+02	-2.484723e+01
2.191141e+02	-2.489525e+01
2.203797e+02	-2.494800e+01
2.216526e+02	-2.499633e+01
2.229329e+02	-2.504440e+01
2.242205e+02	-2.509437e+01
2.255156e+02	-2.514585e+01
2.268182e+02	-2.519367e+01
2.281283e+02	-2.524735e+01
2.294459e+02	-2.529574e+01
2.307712e+02	-2.534799e+01
2.321041e+02	-2.539435e+01
2.334447e+02	-2.544575e+01
2.347931e+02	-2.549739e+01
2.361493e+02	-2.554551e+01
2.375133e+02	-2.559764e+01
2.388851e+02	-2.564648e+01
2.402649e+02	-2.569484e+01
2.416527e+02	-2.574485e+01
2.430484e+02	-2.579461e+01
2.444523e+02	-2.584811e+01
2.458642e+02	-2.589435e+01
2.472843e+02	-2.594731e+01
2.487126e+02	-2.599964e+01
2.501492e+02	-2.604381e+01
2.515940e+02	-2.609221e+01
2.530472e+02	-2.614687e+01
2.545088e+02	-2.619520e+01
2.559789e+02	-2.624488e+01
2.574574e+02	-2.629480e+01
2.589444e+02	-2.634425e+01
2.604401e+02	-2.639498e+01
2.619444e+02	-2.644514e+01
2.634574e+02	-2.649408e+01
2.649791e+02	-2.654767e+01
2.665096e+02	-2.659229e+01
2.680489e+02	-2.664548e+01
2.695972e+02	-2.669366e+01
2.711544e+02	-2.674526e+01
2.727205e+02	-2.679554e+01
2.742958e+02	-2.684404e+01
2.758801e+02	-2.689255e+01
2.774736e+02	-2.694082e+01
2.790762e+02	-2.699201e+01
2.806882e+02	-2.704651e+01
2.823094e+02	-2.709269e+01
2.839400e+02	-2.714499e+01
2.855800e+02	-2.719492e+01
2.872295e+02	-2.724095e+01
2.888886e+02	-2.729288e+01
2.905572e+02	-2.734317e+01
2.922354e+02	-2.739544e+01
2.939234e+02	-2.744585e+01
2.956211e+02	-2.749536e+01
2.973286e+02	-2.754198e+01
2.990459e+02	-2.758812e+01
3.007732e+02	-2.764351e+01
3.025104e+02	-2.769063e+01
3.042577e+02	-2.774472e+01
3.060151e+02	-2.780051e+01
3.077826e+02	-2.784301e+01
3.095604e+02	-2.789256e+01
3.113484e+02	-2.794527e+01
3.131467e+02	-2.799340e+01
3.149554e+02	-2.804705e+01
3.167746e+02	-2.809404e+01
3.186043e+02	-2.813960e+01
3.204445e+02	-2.819152e+01
3.222954e+02	-2.824225e+01
3.241570e+02	-2.829138e+01
3.260293e+02	-2.834701e+01
3.279124e+02	-2.839204e+01
3.298064e+02	-2.844611e+01
3.317114e+02	-2.849598e+01
3.336273e+02	-2.854658e+01
3.355544e+02	-2.859191e+01
3.374925e+02	-2.864755e+01
3.394418e+02	-2.869426e+01
3.414024e+02	-2.874663e+01
3.433744e+02	-2.879834e+01
3.453577e+02	-2.884686e+01
3.473525e+02	-2.889541e+01
3.493588e+02	-2.894524e+01
3.513766e+02	-2.899625e+01
3.534062e+02	-2.904972e+01
3.554474e+02	-2.909777e+01
3.575005e+02	-2.914480e+01
3.595654e+02	-2.919864e+01
3.616422e+02	-2.924355e+01
3.637311e+02	-2.929653e+01
3.658320e+02	-2.934683e+01
3.679450e+02	-2.939686e+01
3.700702e+02	-2.944219e+01
3.722077e+02	-2.949652e+01
3.743576e+02	-2.954671e+01
3.765199e+02	-2.959411e+01
3.786946e+02	-2.964536e+01
3.808820e+02	-2.970151e+01
3.830819e+02	-2.974483e+01
3.852946e+02	-2.979393e+01
3.875200e+02	-2.984700e+01
3.897583e+02	-2.989758e+01
3.920096e+02	-2.994797e+01
3.942738e+02	-2.999361e+01
3.965511e+02	-3.005334e+01
3.988416e+02	-3.009618e+01
4.011452e+02	-3.014551e+01
4.034622e+02	-3.019363e+01
4.057926e+02	-3.024235e+01
4.081365e+02	-3.029207e+01
4.104938e+02	-3.034442e+01
4.128648e+02	-3.039358e+01
4.152495e+02	-3.045256e+01
4.176480e+02	-3.049942e+01
4.200603e+02	-3.054694e+01
4.224866e+02	-3.059793e+01
4.249268e+02	-3.064401e+01
4.273812e+02	-3.069953e+01
4.298497e+02	-3.074382e+01
4.323325e+02	-3.079251e+01
4.348297e+02	-3.084426e+01
4.373412e+02	-3.089133e+01
4.398673e+02	-3.095460e+01
4.424079e+02	-3.100217e+01
4.449633e+02	-3.104368e+01
4.475334e+02	-3.110390e+01
4.501183e+02	-3.114637e+01
4.527182e+02	-3.120193e+01
4.553330e+02	-3.125302e+01
4.579630e+02	-3.130003e+01
4.606082e+02	-3.134696e+01
4.632687e+02	-3.139667e+01
4.659445e+02	-3.144420e+01
4.686358e+02	-3.150456e+01
4.713426e+02	-3.155652e+01
4.740650e+02	-3.159331e+01
4.768032e+02	-3.165439e+01
4.795572e+02	-3.170546e+01
4.823271e+02	-3.175081e+01
4.851130e+02	-3.180169e+01
4.879150e+02	-3.185028e+01
4.907332e+02	-3.189998e+01
4.935676e+02	-3.195053e+01
4.964185e+02	-3.200365e+01
4.992858e+02	-3.205426e+01
5.021696e+02	-3.210192e+01
5.050701e+02	-3.215348e+01
5.079874e+02	-3.219988e+01
5.109215e+02	-3.225026e+01
5.138726e+02	-3.230563e+01
5.168407e+02	-3.235107e+01
5.198259e+02	-3.240745e+01
5.228284e+02	-3.245246e+01
5.258482e+02	-3.250477e+01
5.288855e+02	-3.255137e+01
5.319403e+02	-3.260041e+01
5.350128e+02	-3.265230e+01
5.381030e+02	-3.270743e+01
5.412111e+02	-3.275077e+01
5.443371e+02	-3.280501e+01
5.474812e+02	-3.285437e+01
5.506434e+02	-3.291399e+01
5.538239e+02	-3.295381e+01
5.570228e+02	-3.300502e+01
5.602401e+02	-3.306125e+01
5.634760e+02	-3.310749e+01
5.667306e+02	-3.315476e+01
5.700040e+02	-3.321146e+01
5.732964e+02	-3.325336e+01
5.766077e+02	-3.331121e+01
5.799382e+02	-3.336014e+01
5.832879e+02	-3.340857e+01
5.866569e+02	-3.345631e+01
5.900454e+02	-3.350870e+01
5.934535e+02	-3.355813e+01
5.968813e+02	-3.360945e+01
6.003288e+02	-3.366393e+01
6.037963e+02	-3.371760e+01
6.072838e+02	-3.376279e+01
6.107914e+02	-3.381719e+01
6.143194e+02	-3.386221e+01
6.178676e+02	-3.392109e+01
6.214364e+02	-3.395481e+01
6.250258e+02	-3.400308e+01
6.286359e+02	-3.406573e+01
6.322669e+02	-3.410363e+01
6.359189e+02	-3.416422e+01
6.395919e+02	-3.421508e+01
6.432862e+02	-3.426839e+01
6.470017e+02	-3.431205e+01
6.507388e+02	-3.435726e+01
6.544974e+02	-3.441416e+01
6.582778e+02	-3.446393e+01
6.620800e+02	-3.451117e+01
6.659041e+02	-3.456580e+01
6.697504e+02	-3.461553e+01
6.736188e+02	-3.467003e+01
6.775096e+02	-3.471868e+01
6.814229e+02	-3.476413e+01
6.853587e+02	-3.481967e+01
6.893173e+02	-3.487012e+01
6.932988e+02	-3.491455e+01
6.973033e+02	-3.496762e+01
7.013309e+02	-3.502213e+01
