Frequency(Hz)	Magnitude(dB)
1.000000e+01	-1.847885e-05
1.005776e+01	-1.869294e-05
1.011585e+01	-1.890950e-05
1.017428e+01	-1.912857e-05
1.023305e+01	-1.935018e-05
1.029215e+01	-1.957436e-05
1.035160e+01	-1.980113e-05
1.041139e+01	-2.003053e-05
1.047153e+01	-2.026259e-05
1.053201e+01	-2.049734e-05
1.059284e+01	-2.073480e-05
1.065403e+01	-2.097502e-05
1.071556e+01	-2.121802e-05
1.077746e+01	-2.146384e-05
1.083971e+01	-2.171250e-05
1.090232e+01	-2.196405e-05
1.096529e+01	-2.221851e-05
1.102862e+01	-2.247591e-05
1.109232e+01	-2.273630e-05
1.115639e+01	-2.299971e-05
1.122083e+01	-2.326617e-05
1.128564e+01	-2.353571e-05
1.135083e+01	-2.380838e-05
1.141639e+01	-2.408420e-05
1.148233e+01	-2.436322e-05
1.154865e+01	-2.464548e-05
1.161536e+01	-2.493100e-05
1.168245e+01	-2.521983e-05
1.174992e+01	-2.551201e-05
1.181779e+01	-2.580757e-05
1.188605e+01	-2.610656e-05
1.195470e+01	-2.640901e-05
1.202375e+01	-2.671497e-05
1.209320e+01	-2.702447e-05
1.216305e+01	-2.733755e-05
1.223330e+01	-2.765426e-05
1.230396e+01	-2.797465e-05
1.237503e+01	-2.829874e-05
1.244651e+01	-2.862659e-05
1.251840e+01	-2.895823e-05
1.259070e+01	-2.929372e-05
1.266343e+01	-2.963310e-05
1.273657e+01	-2.997640e-05
1.281014e+01	-3.032369e-05
1.288413e+01	-3.067499e-05
1.295855e+01	-3.103037e-05
1.303339e+01	-3.138986e-05
1.310867e+01	-3.175352e-05
1.318439e+01	-3.212140e-05
1.326054e+01	-3.249353e-05
1.333713e+01	-3.286997e-05
1.341417e+01	-3.325078e-05
1.349165e+01	-3.363600e-05
1.356958e+01	-3.402568e-05
1.364795e+01	-3.441988e-05
1.372678e+01	-3.481864e-05
1.380607e+01	-3.522202e-05
1.388581e+01	-3.563007e-05
1.396602e+01	-3.604286e-05
1.404668e+01	-3.646042e-05
1.412782e+01	-3.688282e-05
1.420942e+01	-3.731012e-05
1.429149e+01	-3.774237e-05
1.437404e+01	-3.817962e-05
1.445706e+01	-3.862194e-05
1.454057e+01	-3.906938e-05
1.462455e+01	-3.952201e-05
1.470902e+01	-3.997988e-05
1.479398e+01	-4.044306e-05
1.487943e+01	-4.091160e-05
1.496537e+01	-4.138557e-05
1.505181e+01	-4.186503e-05
1.513875e+01	-4.235005e-05
1.522619e+01	-4.284068e-05
1.531414e+01	-4.333700e-05
1.540259e+01	-4.383907e-05
1.549156e+01	-4.434696e-05
1.558103e+01	-4.486073e-05
1.567103e+01	-4.538045e-05
1.576155e+01	-4.590619e-05
1.585258e+01	-4.643802e-05
1.594415e+01	-4.697602e-05
1.603624e+01	-4.752024e-05
1.612886e+01	-4.807078e-05
1.622202e+01	-4.862769e-05
1.631572e+01	-4.919105e-05
1.640996e+01	-4.976094e-05
1.650474e+01	-5.033743e-05
1.660008e+01	-5.092060e-05
1.669596e+01	-5.151052e-05
1.679239e+01	-5.210728e-05
1.688938e+01	-5.271096e-05
1.698694e+01	-5.332163e-05
1.708505e+01	-5.393937e-05
1.718373e+01	-5.456427e-05
1.728299e+01	-5.519641e-05
1.738281e+01	-5.583587e-05
1.748322e+01	-5.648274e-05
1.758420e+01	-5.713710e-05
1.768576e+01	-5.779905e-05
1.778792e+01	-5.846866e-05
1.789066e+01	-5.914603e-05
1.799399e+01	-5.983125e-05
1.809793e+01	-6.052441e-05
1.820246e+01	-6.122559e-05
1.830760e+01	-6.193490e-05
1.841334e+01	-6.265243e-05
1.851969e+01	-6.337827e-05
1.862666e+01	-6.411252e-05
1.873425e+01	-6.485528e-05
1.884246e+01	-6.560664e-05
1.895129e+01	-6.636670e-05
1.906075e+01	-6.713558e-05
1.917085e+01	-6.791335e-05
1.928158e+01	-6.870014e-05
1.939295e+01	-6.949605e-05
1.950496e+01	-7.030117e-05
1.961762e+01	-7.111562e-05
1.973093e+01	-7.193951e-05
1.984490e+01	-7.277294e-05
1.995952e+01	-7.361603e-05
2.007480e+01	-7.446889e-05
2.019076e+01	-7.533162e-05
2.030738e+01	-7.620435e-05
2.042467e+01	-7.708719e-05
2.054264e+01	-7.798026e-05
2.066130e+01	-7.888368e-05
2.078064e+01	-7.979756e-05
2.090066e+01	-8.072203e-05
2.102139e+01	-8.165720e-05
2.114280e+01	-8.260322e-05
2.126492e+01	-8.356019e-05
2.138775e+01	-8.452825e-05
2.151128e+01	-8.550752e-05
2.163553e+01	-8.649814e-05
2.176050e+01	-8.750024e-05
2.188619e+01	-8.851394e-05
2.201260e+01	-8.953939e-05
2.213974e+01	-9.057672e-05
2.226762e+01	-9.162606e-05
2.239624e+01	-9.268756e-05
2.252560e+01	-9.376136e-05
2.265571e+01	-9.484760e-05
2.278656e+01	-9.594643e-05
2.291818e+01	-9.705798e-05
2.305055e+01	-9.818241e-05
2.318369e+01	-9.931987e-05
2.331760e+01	-1.004705e-04
2.345228e+01	-1.016345e-04
2.358774e+01	-1.028119e-04
2.372398e+01	-1.040030e-04
2.386101e+01	-1.052079e-04
2.399883e+01	-1.064267e-04
2.413745e+01	-1.076597e-04
2.427686e+01	-1.089070e-04
2.441709e+01	-1.101687e-04
2.455812e+01	-1.114450e-04
2.469997e+01	-1.127361e-04
2.484263e+01	-1.140422e-04
2.498612e+01	-1.153633e-04
2.513044e+01	-1.166998e-04
2.527559e+01	-1.180518e-04
2.542158e+01	-1.194195e-04
2.556842e+01	-1.208030e-04
2.571610e+01	-1.222025e-04
2.586463e+01	-1.236182e-04
2.601403e+01	-1.250503e-04
2.616428e+01	-1.264991e-04
2.631541e+01	-1.279646e-04
2.646740e+01	-1.294470e-04
2.662028e+01	-1.309467e-04
2.677404e+01	-1.324637e-04
2.692868e+01	-1.339983e-04
2.708422e+01	-1.355507e-04
2.724066e+01	-1.371211e-04
2.739800e+01	-1.387097e-04
2.755625e+01	-1.403166e-04
2.771541e+01	-1.419422e-04
2.787550e+01	-1.435866e-04
2.803650e+01	-1.452501e-04
2.819844e+01	-1.469328e-04
2.836131e+01	-1.486350e-04
2.852513e+01	-1.503570e-04
2.868989e+01	-1.520989e-04
2.885560e+01	-1.538610e-04
2.902227e+01	-1.556435e-04
2.918990e+01	-1.574466e-04
2.935850e+01	-1.592706e-04
2.952807e+01	-1.611158e-04
2.969863e+01	-1.629823e-04
2.987016e+01	-1.648705e-04
3.004269e+01	-1.667805e-04
3.021622e+01	-1.687127e-04
3.039075e+01	-1.706672e-04
3.056628e+01	-1.726444e-04
3.074283e+01	-1.746445e-04
3.092040e+01	-1.766678e-04
3.109900e+01	-1.787145e-04
3.127862e+01	-1.807849e-04
3.145929e+01	-1.828793e-04
3.164099e+01	-1.849979e-04
3.182375e+01	-1.871411e-04
3.200756e+01	-1.893092e-04
3.219244e+01	-1.915023e-04
3.237838e+01	-1.937209e-04
3.256540e+01	-1.959652e-04
3.275349e+01	-1.982354e-04
3.294268e+01	-2.005320e-04
3.313295e+01	-2.028551e-04
3.332433e+01	-2.052052e-04
3.351681e+01	-2.075825e-04
3.371040e+01	-2.099874e-04
3.390511e+01	-2.124201e-04
3.410094e+01	-2.148809e-04
3.429791e+01	-2.173703e-04
3.449601e+01	-2.198886e-04
3.469526e+01	-2.224360e-04
3.489566e+01	-2.250129e-04
3.509721e+01	-2.276197e-04
3.529993e+01	-2.302566e-04
3.550382e+01	-2.329241e-04
3.570889e+01	-2.356226e-04
3.591515e+01	-2.383522e-04
3.612259e+01	-2.411135e-04
3.633123e+01	-2.439068e-04
3.654108e+01	-2.467325e-04
3.675214e+01	-2.495909e-04
3.696442e+01	-2.524824e-04
3.717792e+01	-2.554074e-04
3.739266e+01	-2.583662e-04
3.760864e+01	-2.613594e-04
3.782587e+01	-2.643872e-04
3.804435e+01	-2.674501e-04
3.826409e+01	-2.705485e-04
3.848510e+01	-2.736828e-04
3.870739e+01	-2.768534e-04
3.893096e+01	-2.800607e-04
3.915583e+01	-2.833052e-04
3.938199e+01	-2.865872e-04
3.960946e+01	-2.899073e-04
3.983824e+01	-2.932659e-04
4.006834e+01	-2.966633e-04
4.029978e+01	-3.001001e-04
4.053255e+01	-3.035767e-04
4.076666e+01	-3.070936e-04
4.100213e+01	-3.106513e-04
4.123896e+01	-3.142501e-04
4.147715e+01	-3.178907e-04
4.171672e+01	-3.215734e-04
4.195767e+01	-3.252988e-04
4.220002e+01	-3.290673e-04
4.244377e+01	-3.328795e-04
4.268892e+01	-3.367358e-04
4.293549e+01	-3.406369e-04
4.318348e+01	-3.445831e-04
4.343291e+01	-3.485750e-04
4.368377e+01	-3.526132e-04
4.393609e+01	-3.566981e-04
4.418986e+01	-3.608304e-04
4.444510e+01	-3.650106e-04
4.470182e+01	-3.692391e-04
4.496001e+01	-3.735167e-04
4.521970e+01	-3.778438e-04
4.548089e+01	-3.822210e-04
4.574358e+01	-3.866490e-04
4.600779e+01	-3.911282e-04
4.627353e+01	-3.956593e-04
4.654081e+01	-4.002429e-04
4.680963e+01	-4.048796e-04
4.708000e+01	-4.095701e-04
4.735193e+01	-4.143148e-04
4.762543e+01	-4.191145e-04
4.790051e+01	-4.239698e-04
4.817719e+01	-4.288814e-04
4.845545e+01	-4.338499e-04
4.873533e+01	-4.388759e-04
4.901682e+01	-4.439601e-04
4.929994e+01	-4.491033e-04
4.958470e+01	-4.543060e-04
4.987110e+01	-4.595690e-04
5.015915e+01	-4.648929e-04
5.044887e+01	-4.702785e-04
5.074026e+01	-4.757265e-04
5.103333e+01	-4.812377e-04
5.132810e+01	-4.868126e-04
5.162457e+01	-4.924522e-04
5.192275e+01	-4.981570e-04
5.222265e+01	-5.039280e-04
5.252429e+01	-5.097658e-04
5.282767e+01	-5.156712e-04
5.313280e+01	-5.216450e-04
5.343969e+01	-5.276881e-04
5.374836e+01	-5.338011e-04
5.405880e+01	-5.399850e-04
5.437105e+01	-5.462404e-04
5.468509e+01	-5.525684e-04
5.500095e+01	-5.589696e-04
5.531863e+01	-5.654450e-04
5.563815e+01	-5.719954e-04
5.595951e+01	-5.786217e-04
5.628273e+01	-5.853248e-04
5.660782e+01	-5.921054e-04
5.693479e+01	-5.989647e-04
5.726364e+01	-6.059034e-04
5.759439e+01	-6.129224e-04
5.792705e+01	-6.200228e-04
5.826164e+01	-6.272054e-04
5.859815e+01	-6.344712e-04
5.893662e+01	-6.418212e-04
5.927703e+01	-6.492563e-04
5.961941e+01	-6.567776e-04
5.996377e+01	-6.643859e-04
6.031012e+01	-6.720824e-04
6.065847e+01	-6.798681e-04
6.100883e+01	-6.877439e-04
6.136121e+01	-6.957110e-04
6.171563e+01	-7.037703e-04
6.207210e+01	-7.119230e-04
6.243063e+01	-7.201702e-04
6.279122e+01	-7.285129e-04
6.315390e+01	-7.369522e-04
6.351868e+01	-7.454892e-04
6.388556e+01	-7.541252e-04
6.425456e+01	-7.628611e-04
6.462569e+01	-7.716983e-04
6.499897e+01	-7.806378e-04
6.537440e+01	-7.896809e-04
6.575200e+01	-7.988288e-04
6.613178e+01	-8.080825e-04
6.651375e+01	-8.174435e-04
6.689793e+01	-8.269129e-04
6.728433e+01	-8.364920e-04
6.767297e+01	-8.461821e-04
6.806384e+01	-8.559843e-04
6.845698e+01	-8.659002e-04
6.885238e+01	-8.759309e-04
6.925007e+01	-8.860777e-04
6.965005e+01	-8.963421e-04
7.005235e+01	-9.067254e-04
7.045697e+01	-9.172289e-04
7.086393e+01	-9.278542e-04
7.127323e+01	-9.386024e-04
7.168490e+01	-9.494752e-04
7.209895e+01	-9.604739e-04
7.251539e+01	-9.716000e-04
7.293424e+01	-9.828550e-04
7.335551e+01	-9.942404e-04
7.377920e+01	-1.005758e-03
7.420535e+01	-1.017408e-03
7.463396e+01	-1.029194e-03
7.506504e+01	-1.041116e-03
7.549861e+01	-1.053176e-03
7.593469e+01	-1.065376e-03
7.637328e+01	-1.077717e-03
7.681441e+01	-1.090201e-03
7.725809e+01	-1.102830e-03
7.770433e+01	-1.115605e-03
7.815315e+01	-1.128528e-03
7.860456e+01	-1.141600e-03
7.905857e+01	-1.154824e-03
7.951521e+01	-1.168201e-03
7.997449e+01	-1.181733e-03
8.043642e+01	-1.195422e-03
8.090102e+01	-1.209269e-03
8.136830e+01	-1.223277e-03
8.183828e+01	-1.237447e-03
8.231097e+01	-1.251781e-03
8.278640e+01	-1.266281e-03
8.326457e+01	-1.280949e-03
8.374550e+01	-1.295787e-03
8.422921e+01	-1.310797e-03
8.471572e+01	-1.325981e-03
8.520503e+01	-1.341340e-03
8.569717e+01	-1.356878e-03
8.619215e+01	-1.372595e-03
8.669000e+01	-1.388494e-03
8.719071e+01	-1.404578e-03
8.769432e+01	-1.420848e-03
8.820084e+01	-1.437306e-03
8.871029e+01	-1.453954e-03
8.922267e+01	-1.470796e-03
8.973802e+01	-1.487833e-03
9.025634e+01	-1.505067e-03
9.077766e+01	-1.522500e-03
9.130199e+01	-1.540136e-03
9.182935e+01	-1.557975e-03
9.235975e+01	-1.576022e-03
9.289321e+01	-1.594277e-03
9.342976e+01	-1.612744e-03
9.396941e+01	-1.631424e-03
9.451217e+01	-1.650321e-03
9.505807e+01	-1.669437e-03
9.560712e+01	-1.688774e-03
9.615934e+01	-1.708335e-03
9.671476e+01	-1.728123e-03
9.727338e+01	-1.748139e-03
9.783522e+01	-1.768388e-03
9.840032e+01	-1.788871e-03
9.896867e+01	-1.809591e-03
9.954031e+01	-1.830551e-03
1.001153e+02	-1.851754e-03
1.006935e+02	-1.873203e-03
1.012751e+02	-1.894899e-03
1.018601e+02	-1.916847e-03
1.024484e+02	-1.939050e-03
1.030402e+02	-1.961509e-03
1.036353e+02	-1.984228e-03
1.042339e+02	-2.007211e-03
1.048360e+02	-2.030460e-03
1.054415e+02	-2.053977e-03
1.060505e+02	-2.077768e-03
1.066631e+02	-2.101833e-03
1.072791e+02	-2.126178e-03
1.078988e+02	-2.150804e-03
1.085220e+02	-2.175715e-03
1.091488e+02	-2.200915e-03
1.097793e+02	-2.226407e-03
1.104133e+02	-2.252194e-03
1.110511e+02	-2.278279e-03
1.116925e+02	-2.304666e-03
1.123376e+02	-2.331359e-03
1.129865e+02	-2.358362e-03
1.136391e+02	-2.385676e-03
1.142955e+02	-2.413307e-03
1.149556e+02	-2.441258e-03
1.156196e+02	-2.469533e-03
1.162874e+02	-2.498135e-03
1.169591e+02	-2.527068e-03
1.176347e+02	-2.556336e-03
1.183141e+02	-2.585943e-03
1.189975e+02	-2.615893e-03
1.196848e+02	-2.646189e-03
1.203761e+02	-2.676837e-03
1.210714e+02	-2.707839e-03
1.217707e+02	-2.739200e-03
1.224740e+02	-2.770924e-03
1.231814e+02	-2.803016e-03
1.238929e+02	-2.835479e-03
1.246085e+02	-2.868318e-03
1.253283e+02	-2.901537e-03
1.260522e+02	-2.935141e-03
1.267802e+02	-2.969133e-03
1.275125e+02	-3.003520e-03
1.282490e+02	-3.038304e-03
1.289898e+02	-3.073491e-03
1.297348e+02	-3.109085e-03
1.304842e+02	-3.145092e-03
1.312378e+02	-3.181515e-03
1.319959e+02	-3.218360e-03
1.327583e+02	-3.255632e-03
1.335251e+02	-3.293335e-03
1.342963e+02	-3.331474e-03
1.350720e+02	-3.370055e-03
1.358522e+02	-3.409083e-03
1.366368e+02	-3.448562e-03
1.374260e+02	-3.488499e-03
1.382198e+02	-3.528898e-03
1.390182e+02	-3.569764e-03
1.398211e+02	-3.611103e-03
1.406287e+02	-3.652921e-03
1.414410e+02	-3.695223e-03
1.422579e+02	-3.738015e-03
1.430796e+02	-3.781302e-03
1.439060e+02	-3.825090e-03
1.447372e+02	-3.869385e-03
1.455732e+02	-3.914193e-03
1.464141e+02	-3.959519e-03
1.472597e+02	-4.005370e-03
1.481103e+02	-4.051751e-03
1.489658e+02	-4.098670e-03
1.498262e+02	-4.146131e-03
1.506916e+02	-4.194142e-03
1.515620e+02	-4.242708e-03
1.524374e+02	-4.291837e-03
1.533179e+02	-4.341534e-03
1.542034e+02	-4.391806e-03
1.550941e+02	-4.442660e-03
1.559899e+02	-4.494103e-03
1.568909e+02	-4.546141e-03
1.577971e+02	-4.598781e-03
1.587085e+02	-4.652031e-03
1.596252e+02	-4.705897e-03
1.605472e+02	-4.760386e-03
1.614745e+02	-4.815505e-03
1.624072e+02	-4.871263e-03
1.633453e+02	-4.927666e-03
1.642887e+02	-4.984721e-03
1.652377e+02	-5.042437e-03
1.661921e+02	-5.100820e-03
1.671520e+02	-5.159880e-03
1.681175e+02	-5.219622e-03
1.690885e+02	-5.280056e-03
1.700651e+02	-5.341189e-03
1.710474e+02	-5.403030e-03
1.720354e+02	-5.465586e-03
1.730291e+02	-5.528865e-03
1.740285e+02	-5.592877e-03
1.750337e+02	-5.657630e-03
1.760446e+02	-5.723132e-03
1.770615e+02	-5.789391e-03
1.780842e+02	-5.856418e-03
1.791128e+02	-5.924219e-03
1.801473e+02	-5.992806e-03
1.811878e+02	-6.062185e-03
1.822344e+02	-6.132367e-03
1.832870e+02	-6.203362e-03
1.843456e+02	-6.275177e-03
1.854104e+02	-6.347823e-03
1.864813e+02	-6.421310e-03
1.875584e+02	-6.495647e-03
1.886418e+02	-6.570843e-03
1.897313e+02	-6.646910e-03
1.908272e+02	-6.723856e-03
1.919294e+02	-6.801693e-03
1.930380e+02	-6.880430e-03
1.941530e+02	-6.960077e-03
1.952744e+02	-7.040646e-03
1.964023e+02	-7.122146e-03
1.975367e+02	-7.204590e-03
1.986777e+02	-7.287987e-03
1.998252e+02	-7.372348e-03
2.009794e+02	-7.457685e-03
2.021403e+02	-7.544009e-03
2.033078e+02	-7.631331e-03
2.044821e+02	-7.719663e-03
2.056632e+02	-7.809017e-03
2.068511e+02	-7.899404e-03
2.080459e+02	-7.990836e-03
2.092475e+02	-8.083325e-03
2.104561e+02	-8.176884e-03
2.116717e+02	-8.271525e-03
2.128943e+02	-8.367260e-03
2.141240e+02	-8.464103e-03
2.153608e+02	-8.562064e-03
2.166047e+02	-8.661159e-03
2.178558e+02	-8.761399e-03
2.191141e+02	-8.862798e-03
2.203797e+02	-8.965370e-03
2.216526e+02	-9.069127e-03
2.229329e+02	-9.174084e-03
2.242205e+02	-9.280254e-03
2.255156e+02	-9.387652e-03
2.268182e+02	-9.496291e-03
2.281283e+02	-9.606186e-03
2.294459e+02	-9.717351e-03
2.307712e+02	-9.829801e-03
2.321041e+02	-9.943551e-03
2.334447e+02	-1.005862e-02
2.347931e+02	-1.017501e-02
2.361493e+02	-1.029275e-02
2.375133e+02	-1.041185e-02
2.388851e+02	-1.053233e-02
2.402649e+02	-1.065420e-02
2.416527e+02	-1.077748e-02
2.430484e+02	-1.090218e-02
2.444523e+02	-1.102832e-02
2.458642e+02	-1.115592e-02
2.472843e+02	-1.128500e-02
2.487126e+02	-1.141557e-02
2.501492e+02	-1.154764e-02
2.515940e+02	-1.168124e-02
2.530472e+02	-1.181639e-02
2.545088e+02	-1.195310e-02
2.559789e+02	-1.209138e-02
2.574574e+02	-1.223127e-02
2.589444e+02	-1.237277e-02
2.604401e+02	-1.251590e-02
2.619444e+02	-1.266069e-02
2.634574e+02	-1.280715e-02
2.649791e+02	-1.295530e-02
2.665096e+02	-1.310516e-02
2.680489e+02	-1.325676e-02
2.695972e+02	-1.341010e-02
2.711544e+02	-1.356522e-02
2.727205e+02	-1.372213e-02
2.742958e+02	-1.388085e-02
2.758801e+02	-1.404140e-02
2.774736e+02	-1.420381e-02
2.790762e+02	-1.436809e-02
2.806882e+02	-1.453427e-02
2.823094e+02	-1.470236e-02
2.839400e+02	-1.487240e-02
2.855800e+02	-1.504440e-02
2.872295e+02	-1.521839e-02
2.888886e+02	-1.539438e-02
2.905572e+02	-1.557241e-02
2.922354e+02	-1.575249e-02
2.939234e+02	-1.593465e-02
2.956211e+02	-1.611892e-02
2.973286e+02	-1.630531e-02
2.990459e+02	-1.649385e-02
3.007732e+02	-1.668457e-02
3.025104e+02	-1.687748e-02
3.042577e+02	-1.707263e-02
3.060151e+02	-1.727002e-02
3.077826e+02	-1.746970e-02
3.095604e+02	-1.767168e-02
3.113484e+02	-1.787598e-02
3.131467e+02	-1.808265e-02
3.149554e+02	-1.829170e-02
3.167746e+02	-1.850316e-02
3.186043e+02	-1.871706e-02
3.204445e+02	-1.893343e-02
3.222954e+02	-1.915229e-02
3.241570e+02	-1.937368e-02
3.260293e+02	-1.959762e-02
3.279124e+02	-1.982414e-02
3.298064e+02	-2.005328e-02
3.317114e+02	-2.028506e-02
3.336273e+02	-2.051951e-02
3.355544e+02	-2.075666e-02
3.374925e+02	-2.099655e-02
3.394418e+02	-2.123920e-02
3.414024e+02	-2.148465e-02
3.433744e+02	-2.173293e-02
3.453577e+02	-2.198408e-02
3.473525e+02	-2.223811e-02
3.493588e+02	-2.249508e-02
3.513766e+02	-2.275500e-02
3.534062e+02	-2.301793e-02
3.554474e+02	-2.328388e-02
3.575005e+02	-2.355289e-02
3.595654e+02	-2.382501e-02
3.616422e+02	-2.410026e-02
3.637311e+02	-2.437868e-02
3.658320e+02	-2.466031e-02
3.679450e+02	-2.494518e-02
3.700702e+02	-2.523334e-02
3.722077e+02	-2.552481e-02
3.743576e+02	-2.581964e-02
3.765199e+02	-2.611787e-02
3.786946e+02	-2.641952e-02
3.808820e+02	-2.672466e-02
3.830819e+02	-2.703330e-02
3.852946e+02	-2.734550e-02
3.875200e+02	-2.766129e-02
3.897583e+02	-2.798072e-02
3.920096e+02	-2.830383e-02
3.942738e+02	-2.863065e-02
3.965511e+02	-2.896123e-02
3.988416e+02	-2.929562e-02
4.011452e+02	-2.963386e-02
4.034622e+02	-2.997599e-02
4.057926e+02	-3.032205e-02
4.081365e+02	-3.067209e-02
4.104938e+02	-3.102616e-02
4.128648e+02	-3.138431e-02
4.152495e+02	-3.174657e-02
4.176480e+02	-3.211300e-02
4.200603e+02	-3.248364e-02
4.224866e+02	-3.285855e-02
4.249268e+02	-3.323776e-02
4.273812e+02	-3.362133e-02
4.298497e+02	-3.400932e-02
4.323325e+02	-3.440176e-02
4.348297e+02	-3.479871e-02
4.373412e+02	-3.520022e-02
4.398673e+02	-3.560635e-02
4.424079e+02	-3.601715e-02
4.449633e+02	-3.643266e-02
4.475334e+02	-3.685295e-02
4.501183e+02	-3.727806e-02
4.527182e+02	-3.770806e-02
4.553330e+02	-3.814299e-02
4.579630e+02	-3.858292e-02
4.606082e+02	-3.902790e-02
4.632687e+02	-3.947799e-02
4.659445e+02	-3.993324e-02
4.686358e+02	-4.039372e-02
4.713426e+02	-4.085949e-02
4.740650e+02	-4.133060e-02
4.768032e+02	-4.180712e-02
4.795572e+02	-4.228910e-02
4.823271e+02	-4.277661e-02
4.851130e+02	-4.326972e-02
4.879150e+02	-4.376848e-02
4.907332e+02	-4.427295e-02
4.935676e+02	-4.478322e-02
4.964185e+02	-4.529933e-02
4.992858e+02	-4.582136e-02
5.021696e+02	-4.634938e-02
5.050701e+02	-4.688344e-02
5.079874e+02	-4.742363e-02
5.109215e+02	-4.797000e-02
5.138726e+02	-4.852264e-02
5.168407e+02	-4.908161e-02
5.198259e+02	-4.964697e-02
5.228284e+02	-5.021882e-02
5.258482e+02	-5.079721e-02
5.288855e+02	-5.138222e-02
5.319403e+02	-5.197393e-02
5.350128e+02	-5.257241e-02
5.381030e+02	-5.317774e-02
5.412111e+02	-5.379000e-02
5.443371e+02	-5.440926e-02
5.474812e+02	-5.503561e-02
5.506434e+02	-5.566912e-02
5.538239e+02	-5.630987e-02
5.570228e+02	-5.695795e-02
5.602401e+02	-5.761344e-02
5.634760e+02	-5.827643e-02
5.667306e+02	-5.894699e-02
5.700040e+02	-5.962521e-02
5.732964e+02	-6.031118e-02
5.766077e+02	-6.100499e-02
5.799382e+02	-6.170673e-02
5.832879e+02	-6.241647e-02
5.866569e+02	-6.313433e-02
5.900454e+02	-6.386037e-02
5.934535e+02	-6.459471e-02
5.968813e+02	-6.533742e-02
6.003288e+02	-6.608861e-02
6.037963e+02	-6.684837e-02
6.072838e+02	-6.761679e-02
6.107914e+02	-6.839398e-02
6.143194e+02	-6.918003e-02
6.178676e+02	-6.997504e-02
6.214364e+02	-7.077911e-02
6.250258e+02	-7.159235e-02
6.286359e+02	-7.241485e-02
6.322669e+02	-7.324672e-02
6.359189e+02	-7.408806e-02
6.395919e+02	-7.493899e-02
6.432862e+02	-7.579960e-02
6.470017e+02	-7.667001e-02
6.507388e+02	-7.755033e-02
6.544974e+02	-7.844066e-02
6.582778e+02	-7.934111e-02
6.620800e+02	-8.025181e-02
6.659041e+02	-8.117287e-02
6.697504e+02	-8.210439e-02
6.736188e+02	-8.304651e-02
6.775096e+02	-8.399933e-02
6.814229e+02	-8.496297e-02
6.853587e+02	-8.593756e-02
6.893173e+02	-8.692321e-02
6.932988e+02	-8.792006e-02
6.973033e+02	-8.892822e-02
7.013309e+02	-8.994782e-02
