Frequency(Hz)	Magnitude(dB)
1.000000e+01	-1.711079e-05
1.005776e+01	-1.730902e-05
1.011585e+01	-1.750955e-05
1.017428e+01	-1.771240e-05
1.023305e+01	-1.791761e-05
1.029215e+01	-1.812519e-05
1.035160e+01	-1.833517e-05
1.041139e+01	-1.854759e-05
1.047153e+01	-1.876247e-05
1.053201e+01	-1.897984e-05
1.059284e+01	-1.919972e-05
1.065403e+01	-1.942216e-05
1.071556e+01	-1.964717e-05
1.077746e+01	-1.987478e-05
1.083971e+01	-2.010504e-05
1.090232e+01	-2.033796e-05
1.096529e+01	-2.057358e-05
1.102862e+01	-2.081193e-05
1.109232e+01	-2.105304e-05
1.115639e+01	-2.129695e-05
1.122083e+01	-2.154368e-05
1.128564e+01	-2.179327e-05
1.135083e+01	-2.204575e-05
1.141639e+01	-2.230115e-05
1.148233e+01	-2.255952e-05
1.154865e+01	-2.282087e-05
1.161536e+01	-2.308526e-05
1.168245e+01	-2.335271e-05
1.174992e+01	-2.362326e-05
1.181779e+01	-2.389694e-05
1.188605e+01	-2.417379e-05
1.195470e+01	-2.445385e-05
1.202375e+01	-2.473715e-05
1.209320e+01	-2.502374e-05
1.216305e+01	-2.531364e-05
1.223330e+01	-2.560691e-05
1.230396e+01	-2.590357e-05
1.237503e+01	-2.620367e-05
1.244651e+01	-2.650725e-05
1.251840e+01	-2.681434e-05
1.259070e+01	-2.712499e-05
1.266343e+01	-2.743924e-05
1.273657e+01	-2.775713e-05
1.281014e+01	-2.807870e-05
1.288413e+01	-2.840400e-05
1.295855e+01	-2.873307e-05
1.303339e+01	-2.906595e-05
1.310867e+01	-2.940268e-05
1.318439e+01	-2.974332e-05
1.326054e+01	-3.008791e-05
1.333713e+01	-3.043648e-05
1.341417e+01	-3.078909e-05
1.349165e+01	-3.114579e-05
1.356958e+01	-3.150663e-05
1.364795e+01	-3.187164e-05
1.372678e+01	-3.224088e-05
1.380607e+01	-3.261440e-05
1.388581e+01	-3.299224e-05
1.396602e+01	-3.337446e-05
1.404668e+01	-3.376111e-05
1.412782e+01	-3.415225e-05
1.420942e+01	-3.454791e-05
1.429149e+01	-3.494815e-05
1.437404e+01	-3.535304e-05
1.445706e+01	-3.576261e-05
1.454057e+01	-3.617693e-05
1.462455e+01	-3.659604e-05
1.470902e+01	-3.702002e-05
1.479398e+01	-3.744890e-05
1.487943e+01	-3.788276e-05
1.496537e+01	-3.832164e-05
1.505181e+01	-3.876560e-05
1.513875e+01	-3.921471e-05
1.522619e+01	-3.966902e-05
1.531414e+01	-4.012860e-05
1.540259e+01	-4.059350e-05
1.549156e+01	-4.106378e-05
1.558103e+01	-4.153951e-05
1.567103e+01	-4.202076e-05
1.576155e+01	-4.250758e-05
1.585258e+01	-4.300004e-05
1.594415e+01	-4.349820e-05
1.603624e+01	-4.400214e-05
1.612886e+01	-4.451191e-05
1.622202e+01	-4.502759e-05
1.631572e+01	-4.554925e-05
1.640996e+01	-4.607695e-05
1.650474e+01	-4.661076e-05
1.660008e+01	-4.715075e-05
1.669596e+01	-4.769701e-05
1.679239e+01	-4.824959e-05
1.688938e+01	-4.880857e-05
1.698694e+01	-4.937403e-05
1.708505e+01	-4.994603e-05
1.718373e+01	-5.052467e-05
1.728299e+01	-5.111001e-05
1.738281e+01	-5.170213e-05
1.748322e+01	-5.230111e-05
1.758420e+01	-5.290703e-05
1.768576e+01	-5.351997e-05
1.778792e+01	-5.414001e-05
1.789066e+01	-5.476723e-05
1.799399e+01	-5.540172e-05
1.809793e+01	-5.604356e-05
1.820246e+01	-5.669284e-05
1.830760e+01	-5.734963e-05
1.841334e+01	-5.801404e-05
1.851969e+01	-5.868615e-05
1.862666e+01	-5.936604e-05
1.873425e+01	-6.005380e-05
1.884246e+01	-6.074954e-05
1.895129e+01	-6.145333e-05
1.906075e+01	-6.216528e-05
1.917085e+01	-6.288548e-05
1.928158e+01	-6.361402e-05
1.939295e+01	-6.435100e-05
1.950496e+01	-6.509652e-05
1.961762e+01	-6.585068e-05
1.973093e+01	-6.661357e-05
1.984490e+01	-6.738530e-05
1.995952e+01	-6.816597e-05
2.007480e+01	-6.895569e-05
2.019076e+01	-6.975455e-05
2.030738e+01	-7.056267e-05
2.042467e+01	-7.138015e-05
2.054264e+01	-7.220710e-05
2.066130e+01	-7.304364e-05
2.078064e+01	-7.388986e-05
2.090066e+01	-7.474589e-05
2.102139e+01	-7.561183e-05
2.114280e+01	-7.648781e-05
2.126492e+01	-7.737393e-05
2.138775e+01	-7.827032e-05
2.151128e+01	-7.917710e-05
2.163553e+01	-8.009438e-05
2.176050e+01	-8.102229e-05
2.188619e+01	-8.196094e-05
2.201260e+01	-8.291048e-05
2.213974e+01	-8.387101e-05
2.226762e+01	-8.484267e-05
2.239624e+01	-8.582558e-05
2.252560e+01	-8.681989e-05
2.265571e+01	-8.782571e-05
2.278656e+01	-8.884318e-05
2.291818e+01	-8.987245e-05
2.305055e+01	-9.091363e-05
2.318369e+01	-9.196688e-05
2.331760e+01	-9.303233e-05
2.345228e+01	-9.411013e-05
2.358774e+01	-9.520041e-05
2.372398e+01	-9.630332e-05
2.386101e+01	-9.741901e-05
2.399883e+01	-9.854762e-05
2.413745e+01	-9.968931e-05
2.427686e+01	-1.008442e-04
2.441709e+01	-1.020125e-04
2.455812e+01	-1.031943e-04
2.469997e+01	-1.043899e-04
2.484263e+01	-1.055992e-04
2.498612e+01	-1.068226e-04
2.513044e+01	-1.080602e-04
2.527559e+01	-1.093121e-04
2.542158e+01	-1.105785e-04
2.556842e+01	-1.118595e-04
2.571610e+01	-1.131554e-04
2.586463e+01	-1.144664e-04
2.601403e+01	-1.157925e-04
2.616428e+01	-1.171339e-04
2.631541e+01	-1.184909e-04
2.646740e+01	-1.198637e-04
2.662028e+01	-1.212523e-04
2.677404e+01	-1.226570e-04
2.692868e+01	-1.240780e-04
2.708422e+01	-1.255155e-04
2.724066e+01	-1.269696e-04
2.739800e+01	-1.284406e-04
2.755625e+01	-1.299285e-04
2.771541e+01	-1.314338e-04
2.787550e+01	-1.329565e-04
2.803650e+01	-1.344968e-04
2.819844e+01	-1.360549e-04
2.836131e+01	-1.376311e-04
2.852513e+01	-1.392256e-04
2.868989e+01	-1.408386e-04
2.885560e+01	-1.424702e-04
2.902227e+01	-1.441207e-04
2.918990e+01	-1.457904e-04
2.935850e+01	-1.474794e-04
2.952807e+01	-1.491879e-04
2.969863e+01	-1.509163e-04
2.987016e+01	-1.526646e-04
3.004269e+01	-1.544333e-04
3.021622e+01	-1.562224e-04
3.039075e+01	-1.580322e-04
3.056628e+01	-1.598631e-04
3.074283e+01	-1.617151e-04
3.092040e+01	-1.635886e-04
3.109900e+01	-1.654837e-04
3.127862e+01	-1.674009e-04
3.145929e+01	-1.693402e-04
3.164099e+01	-1.713020e-04
3.182375e+01	-1.732866e-04
3.200756e+01	-1.752941e-04
3.219244e+01	-1.773249e-04
3.237838e+01	-1.793792e-04
3.256540e+01	-1.814573e-04
3.275349e+01	-1.835595e-04
3.294268e+01	-1.856861e-04
3.313295e+01	-1.878372e-04
3.332433e+01	-1.900133e-04
3.351681e+01	-1.922147e-04
3.371040e+01	-1.944415e-04
3.390511e+01	-1.966941e-04
3.410094e+01	-1.989728e-04
3.429791e+01	-2.012779e-04
3.449601e+01	-2.036097e-04
3.469526e+01	-2.059685e-04
3.489566e+01	-2.083547e-04
3.509721e+01	-2.107684e-04
3.529993e+01	-2.132102e-04
3.550382e+01	-2.156802e-04
3.570889e+01	-2.181789e-04
3.591515e+01	-2.207065e-04
3.612259e+01	-2.232634e-04
3.633123e+01	-2.258499e-04
3.654108e+01	-2.284663e-04
3.675214e+01	-2.311131e-04
3.696442e+01	-2.337905e-04
3.717792e+01	-2.364990e-04
3.739266e+01	-2.392388e-04
3.760864e+01	-2.420104e-04
3.782587e+01	-2.448141e-04
3.804435e+01	-2.476502e-04
3.826409e+01	-2.505192e-04
3.848510e+01	-2.534215e-04
3.870739e+01	-2.563574e-04
3.893096e+01	-2.593273e-04
3.915583e+01	-2.623315e-04
3.938199e+01	-2.653706e-04
3.960946e+01	-2.684449e-04
3.983824e+01	-2.715548e-04
4.006834e+01	-2.747008e-04
4.029978e+01	-2.778832e-04
4.053255e+01	-2.811024e-04
4.076666e+01	-2.843590e-04
4.100213e+01	-2.876532e-04
4.123896e+01	-2.909857e-04
4.147715e+01	-2.943567e-04
4.171672e+01	-2.977668e-04
4.195767e+01	-3.012164e-04
4.220002e+01	-3.047059e-04
4.244377e+01	-3.082359e-04
4.268892e+01	-3.118068e-04
4.293549e+01	-3.154190e-04
4.318348e+01	-3.190731e-04
4.343291e+01	-3.227695e-04
4.368377e+01	-3.265087e-04
4.393609e+01	-3.302913e-04
4.418986e+01	-3.341177e-04
4.444510e+01	-3.379884e-04
4.470182e+01	-3.419039e-04
4.496001e+01	-3.458648e-04
4.521970e+01	-3.498716e-04
4.548089e+01	-3.539248e-04
4.574358e+01	-3.580249e-04
4.600779e+01	-3.621725e-04
4.627353e+01	-3.663682e-04
4.654081e+01	-3.706125e-04
4.680963e+01	-3.749060e-04
4.708000e+01	-3.792492e-04
4.735193e+01	-3.836427e-04
4.762543e+01	-3.880871e-04
4.790051e+01	-3.925830e-04
4.817719e+01	-3.971310e-04
4.845545e+01	-4.017316e-04
4.873533e+01	-4.063856e-04
4.901682e+01	-4.110935e-04
4.929994e+01	-4.158559e-04
4.958470e+01	-4.206734e-04
4.987110e+01	-4.255468e-04
5.015915e+01	-4.304767e-04
5.044887e+01	-4.354636e-04
5.074026e+01	-4.405083e-04
5.103333e+01	-4.456115e-04
5.132810e+01	-4.507737e-04
5.162457e+01	-4.559958e-04
5.192275e+01	-4.612783e-04
5.222265e+01	-4.666221e-04
5.252429e+01	-4.720277e-04
5.282767e+01	-4.774960e-04
5.313280e+01	-4.830276e-04
5.343969e+01	-4.886233e-04
5.374836e+01	-4.942838e-04
5.405880e+01	-5.000099e-04
5.437105e+01	-5.058023e-04
5.468509e+01	-5.116619e-04
5.500095e+01	-5.175892e-04
5.531863e+01	-5.235853e-04
5.563815e+01	-5.296508e-04
5.595951e+01	-5.357866e-04
5.628273e+01	-5.419934e-04
5.660782e+01	-5.482722e-04
5.693479e+01	-5.546237e-04
5.726364e+01	-5.610487e-04
5.759439e+01	-5.675482e-04
5.792705e+01	-5.741230e-04
5.826164e+01	-5.807739e-04
5.859815e+01	-5.875019e-04
5.893662e+01	-5.943078e-04
5.927703e+01	-6.011925e-04
5.961941e+01	-6.081570e-04
5.996377e+01	-6.152022e-04
6.031012e+01	-6.223289e-04
6.065847e+01	-6.295383e-04
6.100883e+01	-6.368311e-04
6.136121e+01	-6.442084e-04
6.171563e+01	-6.516712e-04
6.207210e+01	-6.592204e-04
6.243063e+01	-6.668571e-04
6.279122e+01	-6.745822e-04
6.315390e+01	-6.823968e-04
6.351868e+01	-6.903019e-04
6.388556e+01	-6.982986e-04
6.425456e+01	-7.063880e-04
6.462569e+01	-7.145710e-04
6.499897e+01	-7.228488e-04
6.537440e+01	-7.312225e-04
6.575200e+01	-7.396932e-04
6.613178e+01	-7.482620e-04
6.651375e+01	-7.569301e-04
6.689793e+01	-7.656985e-04
6.728433e+01	-7.745686e-04
6.767297e+01	-7.835413e-04
6.806384e+01	-7.926181e-04
6.845698e+01	-8.017999e-04
6.885238e+01	-8.110881e-04
6.925007e+01	-8.204839e-04
6.965005e+01	-8.299885e-04
7.005235e+01	-8.396032e-04
7.045697e+01	-8.493293e-04
7.086393e+01	-8.591681e-04
7.127323e+01	-8.691208e-04
7.168490e+01	-8.791887e-04
7.209895e+01	-8.893733e-04
7.251539e+01	-8.996759e-04
7.293424e+01	-9.100978e-04
7.335551e+01	-9.206404e-04
7.377920e+01	-9.313051e-04
7.420535e+01	-9.420934e-04
7.463396e+01	-9.530066e-04
7.506504e+01	-9.640462e-04
7.549861e+01	-9.752137e-04
7.593469e+01	-9.865105e-04
7.637328e+01	-9.979382e-04
7.681441e+01	-1.009498e-03
7.725809e+01	-1.021192e-03
7.770433e+01	-1.033022e-03
7.815315e+01	-1.044988e-03
7.860456e+01	-1.057093e-03
7.905857e+01	-1.069338e-03
7.951521e+01	-1.081725e-03
7.997449e+01	-1.094256e-03
8.043642e+01	-1.106931e-03
8.090102e+01	-1.119754e-03
8.136830e+01	-1.132725e-03
8.183828e+01	-1.145846e-03
8.231097e+01	-1.159119e-03
8.278640e+01	-1.172546e-03
8.326457e+01	-1.186128e-03
8.374550e+01	-1.199868e-03
8.422921e+01	-1.213767e-03
8.471572e+01	-1.227827e-03
8.520503e+01	-1.242050e-03
8.569717e+01	-1.256437e-03
8.619215e+01	-1.270991e-03
8.669000e+01	-1.285714e-03
8.719071e+01	-1.300607e-03
8.769432e+01	-1.315672e-03
8.820084e+01	-1.330912e-03
8.871029e+01	-1.346329e-03
8.922267e+01	-1.361924e-03
8.973802e+01	-1.377700e-03
9.025634e+01	-1.393658e-03
9.077766e+01	-1.409802e-03
9.130199e+01	-1.426132e-03
9.182935e+01	-1.442651e-03
9.235975e+01	-1.459362e-03
9.289321e+01	-1.476266e-03
9.342976e+01	-1.493366e-03
9.396941e+01	-1.510664e-03
9.451217e+01	-1.528163e-03
9.505807e+01	-1.545864e-03
9.560712e+01	-1.563770e-03
9.615934e+01	-1.581883e-03
9.671476e+01	-1.600206e-03
9.727338e+01	-1.618741e-03
9.783522e+01	-1.637491e-03
9.840032e+01	-1.656459e-03
9.896867e+01	-1.675645e-03
9.954031e+01	-1.695054e-03
1.001153e+02	-1.714688e-03
1.006935e+02	-1.734549e-03
1.012751e+02	-1.754641e-03
1.018601e+02	-1.774964e-03
1.024484e+02	-1.795524e-03
1.030402e+02	-1.816321e-03
1.036353e+02	-1.837359e-03
1.042339e+02	-1.858641e-03
1.048360e+02	-1.880169e-03
1.054415e+02	-1.901946e-03
1.060505e+02	-1.923976e-03
1.066631e+02	-1.946261e-03
1.072791e+02	-1.968804e-03
1.078988e+02	-1.991608e-03
1.085220e+02	-2.014675e-03
1.091488e+02	-2.038011e-03
1.097793e+02	-2.061616e-03
1.104133e+02	-2.085494e-03
1.110511e+02	-2.109650e-03
1.116925e+02	-2.134084e-03
1.123376e+02	-2.158802e-03
1.129865e+02	-2.183806e-03
1.136391e+02	-2.209100e-03
1.142955e+02	-2.234686e-03
1.149556e+02	-2.260569e-03
1.156196e+02	-2.286751e-03
1.162874e+02	-2.313237e-03
1.169591e+02	-2.340029e-03
1.176347e+02	-2.367132e-03
1.183141e+02	-2.394548e-03
1.189975e+02	-2.422282e-03
1.196848e+02	-2.450336e-03
1.203761e+02	-2.478716e-03
1.210714e+02	-2.507424e-03
1.217707e+02	-2.536465e-03
1.224740e+02	-2.565842e-03
1.231814e+02	-2.595559e-03
1.238929e+02	-2.625620e-03
1.246085e+02	-2.656029e-03
1.253283e+02	-2.686791e-03
1.260522e+02	-2.717908e-03
1.267802e+02	-2.749386e-03
1.275125e+02	-2.781228e-03
1.282490e+02	-2.813439e-03
1.289898e+02	-2.846022e-03
1.297348e+02	-2.878983e-03
1.304842e+02	-2.912326e-03
1.312378e+02	-2.946055e-03
1.319959e+02	-2.980174e-03
1.327583e+02	-3.014688e-03
1.335251e+02	-3.049602e-03
1.342963e+02	-3.084919e-03
1.350720e+02	-3.120646e-03
1.358522e+02	-3.156786e-03
1.366368e+02	-3.193345e-03
1.374260e+02	-3.230327e-03
1.382198e+02	-3.267737e-03
1.390182e+02	-3.305580e-03
1.398211e+02	-3.343862e-03
1.406287e+02	-3.382586e-03
1.414410e+02	-3.421759e-03
1.422579e+02	-3.461385e-03
1.430796e+02	-3.501470e-03
1.439060e+02	-3.542019e-03
1.447372e+02	-3.583037e-03
1.455732e+02	-3.624530e-03
1.464141e+02	-3.666503e-03
1.472597e+02	-3.708963e-03
1.481103e+02	-3.751913e-03
1.489658e+02	-3.795361e-03
1.498262e+02	-3.839312e-03
1.506916e+02	-3.883771e-03
1.515620e+02	-3.928746e-03
1.524374e+02	-3.974240e-03
1.533179e+02	-4.020261e-03
1.542034e+02	-4.066815e-03
1.550941e+02	-4.113908e-03
1.559899e+02	-4.161546e-03
1.568909e+02	-4.209735e-03
1.577971e+02	-4.258482e-03
1.587085e+02	-4.307793e-03
1.596252e+02	-4.357675e-03
1.605472e+02	-4.408134e-03
1.614745e+02	-4.459177e-03
1.624072e+02	-4.510811e-03
1.633453e+02	-4.563042e-03
1.642887e+02	-4.615878e-03
1.652377e+02	-4.669326e-03
1.661921e+02	-4.723392e-03
1.671520e+02	-4.778083e-03
1.681175e+02	-4.833408e-03
1.690885e+02	-4.889372e-03
1.700651e+02	-4.945985e-03
1.710474e+02	-5.003252e-03
1.720354e+02	-5.061182e-03
1.730291e+02	-5.119783e-03
1.740285e+02	-5.179061e-03
1.750337e+02	-5.239026e-03
1.760446e+02	-5.299684e-03
1.770615e+02	-5.361044e-03
1.780842e+02	-5.423114e-03
1.791128e+02	-5.485903e-03
1.801473e+02	-5.549418e-03
1.811878e+02	-5.613668e-03
1.822344e+02	-5.678661e-03
1.832870e+02	-5.744406e-03
1.843456e+02	-5.810912e-03
1.854104e+02	-5.878187e-03
1.864813e+02	-5.946240e-03
1.875584e+02	-6.015081e-03
1.886418e+02	-6.084719e-03
1.897313e+02	-6.155162e-03
1.908272e+02	-6.226420e-03
1.919294e+02	-6.298502e-03
1.930380e+02	-6.371418e-03
1.941530e+02	-6.445177e-03
1.952744e+02	-6.519790e-03
1.964023e+02	-6.595266e-03
1.975367e+02	-6.671615e-03
1.986777e+02	-6.748847e-03
1.998252e+02	-6.826973e-03
2.009794e+02	-6.906002e-03
2.021403e+02	-6.985945e-03
2.033078e+02	-7.066813e-03
2.044821e+02	-7.148617e-03
2.056632e+02	-7.231366e-03
2.068511e+02	-7.315072e-03
2.080459e+02	-7.399747e-03
2.092475e+02	-7.485401e-03
2.104561e+02	-7.572045e-03
2.116717e+02	-7.659692e-03
2.128943e+02	-7.748352e-03
2.141240e+02	-7.838037e-03
2.153608e+02	-7.928760e-03
2.166047e+02	-8.020532e-03
2.178558e+02	-8.113364e-03
2.191141e+02	-8.207271e-03
2.203797e+02	-8.302263e-03
2.216526e+02	-8.398354e-03
2.229329e+02	-8.495555e-03
2.242205e+02	-8.593881e-03
2.255156e+02	-8.693343e-03
2.268182e+02	-8.793955e-03
2.281283e+02	-8.895731e-03
2.294459e+02	-8.998683e-03
2.307712e+02	-9.102826e-03
2.321041e+02	-9.208172e-03
2.334447e+02	-9.314736e-03
2.347931e+02	-9.422532e-03
2.361493e+02	-9.531575e-03
2.375133e+02	-9.641877e-03
2.388851e+02	-9.753455e-03
2.402649e+02	-9.866323e-03
2.416527e+02	-9.980495e-03
2.430484e+02	-1.009599e-02
2.444523e+02	-1.021281e-02
2.458642e+02	-1.033099e-02
2.472843e+02	-1.045053e-02
2.487126e+02	-1.057146e-02
2.501492e+02	-1.069378e-02
2.515940e+02	-1.081751e-02
2.530472e+02	-1.094268e-02
2.545088e+02	-1.106929e-02
2.559789e+02	-1.119737e-02
2.574574e+02	-1.132692e-02
2.589444e+02	-1.145797e-02
2.604401e+02	-1.159054e-02
2.619444e+02	-1.172464e-02
2.634574e+02	-1.186028e-02
2.649791e+02	-1.199750e-02
2.665096e+02	-1.213630e-02
2.680489e+02	-1.227670e-02
2.695972e+02	-1.241872e-02
2.711544e+02	-1.256239e-02
2.727205e+02	-1.270771e-02
2.742958e+02	-1.285472e-02
2.758801e+02	-1.300342e-02
2.774736e+02	-1.315384e-02
2.790762e+02	-1.330599e-02
2.806882e+02	-1.345991e-02
2.823094e+02	-1.361560e-02
2.839400e+02	-1.377309e-02
2.855800e+02	-1.393239e-02
2.872295e+02	-1.409354e-02
2.888886e+02	-1.425655e-02
2.905572e+02	-1.442144e-02
2.922354e+02	-1.458824e-02
2.939234e+02	-1.475696e-02
2.956211e+02	-1.492762e-02
2.973286e+02	-1.510026e-02
2.990459e+02	-1.527489e-02
3.007732e+02	-1.545154e-02
3.025104e+02	-1.563023e-02
3.042577e+02	-1.581098e-02
3.060151e+02	-1.599381e-02
3.077826e+02	-1.617876e-02
3.095604e+02	-1.636584e-02
3.113484e+02	-1.655508e-02
3.131467e+02	-1.674651e-02
3.149554e+02	-1.694014e-02
3.167746e+02	-1.713601e-02
3.186043e+02	-1.733413e-02
3.204445e+02	-1.753455e-02
3.222954e+02	-1.773727e-02
3.241570e+02	-1.794234e-02
3.260293e+02	-1.814977e-02
3.279124e+02	-1.835959e-02
3.298064e+02	-1.857184e-02
3.317114e+02	-1.878653e-02
3.336273e+02	-1.900370e-02
3.355544e+02	-1.922337e-02
3.374925e+02	-1.944558e-02
3.394418e+02	-1.967035e-02
3.414024e+02	-1.989771e-02
3.433744e+02	-2.012769e-02
3.453577e+02	-2.036033e-02
3.473525e+02	-2.059565e-02
3.493588e+02	-2.083368e-02
3.513766e+02	-2.107446e-02
3.534062e+02	-2.131801e-02
3.554474e+02	-2.156437e-02
3.575005e+02	-2.181357e-02
3.595654e+02	-2.206564e-02
3.616422e+02	-2.232062e-02
3.637311e+02	-2.257853e-02
3.658320e+02	-2.283942e-02
3.679450e+02	-2.310331e-02
3.700702e+02	-2.337025e-02
3.722077e+02	-2.364026e-02
3.743576e+02	-2.391338e-02
3.765199e+02	-2.418965e-02
3.786946e+02	-2.446910e-02
3.808820e+02	-2.475177e-02
3.830819e+02	-2.503770e-02
3.852946e+02	-2.532692e-02
3.875200e+02	-2.561947e-02
3.897583e+02	-2.591539e-02
3.920096e+02	-2.621472e-02
3.942738e+02	-2.651749e-02
3.965511e+02	-2.682375e-02
3.988416e+02	-2.713354e-02
4.011452e+02	-2.744689e-02
4.034622e+02	-2.776385e-02
4.057926e+02	-2.808446e-02
4.081365e+02	-2.840876e-02
4.104938e+02	-2.873679e-02
4.128648e+02	-2.906859e-02
4.152495e+02	-2.940422e-02
4.176480e+02	-2.974370e-02
4.200603e+02	-3.008709e-02
4.224866e+02	-3.043443e-02
4.249268e+02	-3.078577e-02
4.273812e+02	-3.114115e-02
4.298497e+02	-3.150062e-02
4.323325e+02	-3.186422e-02
4.348297e+02	-3.223200e-02
4.373412e+02	-3.260401e-02
4.398673e+02	-3.298030e-02
4.424079e+02	-3.336091e-02
4.449633e+02	-3.374590e-02
4.475334e+02	-3.413531e-02
4.501183e+02	-3.452920e-02
4.527182e+02	-3.492762e-02
4.553330e+02	-3.533062e-02
4.579630e+02	-3.573824e-02
4.606082e+02	-3.615055e-02
4.632687e+02	-3.656760e-02
4.659445e+02	-3.698943e-02
4.686358e+02	-3.741611e-02
4.713426e+02	-3.784770e-02
4.740650e+02	-3.828423e-02
4.768032e+02	-3.872578e-02
4.795572e+02	-3.917240e-02
4.823271e+02	-3.962415e-02
4.851130e+02	-4.008108e-02
4.879150e+02	-4.054326e-02
4.907332e+02	-4.101074e-02
4.935676e+02	-4.148359e-02
4.964185e+02	-4.196186e-02
4.992858e+02	-4.244562e-02
5.021696e+02	-4.293493e-02
5.050701e+02	-4.342984e-02
5.079874e+02	-4.393044e-02
5.109215e+02	-4.443678e-02
5.138726e+02	-4.494892e-02
5.168407e+02	-4.546693e-02
5.198259e+02	-4.599088e-02
5.228284e+02	-4.652084e-02
5.258482e+02	-4.705687e-02
5.288855e+02	-4.759905e-02
5.319403e+02	-4.814743e-02
5.350128e+02	-4.870210e-02
5.381030e+02	-4.926312e-02
5.412111e+02	-4.983056e-02
5.443371e+02	-5.040451e-02
5.474812e+02	-5.098502e-02
5.506434e+02	-5.157219e-02
5.538239e+02	-5.216607e-02
5.570228e+02	-5.276675e-02
5.602401e+02	-5.337431e-02
5.634760e+02	-5.398881e-02
5.667306e+02	-5.461035e-02
5.700040e+02	-5.523899e-02
5.732964e+02	-5.587483e-02
5.766077e+02	-5.651794e-02
5.799382e+02	-5.716840e-02
5.832879e+02	-5.782629e-02
5.866569e+02	-5.849171e-02
5.900454e+02	-5.916473e-02
5.934535e+02	-5.984544e-02
5.968813e+02	-6.053393e-02
6.003288e+02	-6.123028e-02
6.037963e+02	-6.193459e-02
6.072838e+02	-6.264694e-02
6.107914e+02	-6.336742e-02
6.143194e+02	-6.409613e-02
6.178676e+02	-6.483315e-02
6.214364e+02	-6.557859e-02
6.250258e+02	-6.633253e-02
6.286359e+02	-6.709507e-02
6.322669e+02	-6.786631e-02
6.359189e+02	-6.864634e-02
6.395919e+02	-6.943526e-02
6.432862e+02	-7.023318e-02
6.470017e+02	-7.104020e-02
6.507388e+02	-7.185641e-02
6.544974e+02	-7.268192e-02
6.582778e+02	-7.351683e-02
6.620800e+02	-7.436125e-02
6.659041e+02	-7.521528e-02
6.697504e+02	-7.607904e-02
6.736188e+02	-7.695263e-02
6.775096e+02	-7.783616e-02
6.814229e+02	-7.872974e-02
6.853587e+02	-7.963349e-02
6.893173e+02	-8.054751e-02
6.932988e+02	-8.147192e-02
6.973033e+02	-8.240685e-02
7.013309e+02	-8.335240e-02
