Frequency(Hz)	Magnitude(dB)
1.000000e+01	-2.497462e+00
1.005776e+01	-2.519275e+00
1.011585e+01	-2.541363e+00
1.017428e+01	-2.563670e+00
1.023305e+01	-2.586220e+00
1.029215e+01	-2.608660e+00
1.035160e+01	-2.631455e+00
1.041139e+01	-2.654180e+00
1.047153e+01	-2.677045e+00
1.053201e+01	-2.700341e+00
1.059284e+01	-2.723427e+00
1.065403e+01	-2.746844e+00
1.071556e+01	-2.770385e+00
1.077746e+01	-2.793899e+00
1.083971e+01	-2.817539e+00
1.090232e+01	-2.841508e+00
1.096529e+01	-2.865850e+00
1.102862e+01	-2.889828e+00
1.109232e+01	-2.914265e+00
1.115639e+01	-2.938958e+00
1.122083e+01	-2.963611e+00
1.128564e+01	-2.988390e+00
1.135083e+01	-3.013435e+00
1.141639e+01	-3.038497e+00
1.148233e+01	-3.063820e+00
1.154865e+01	-3.089260e+00
1.161536e+01	-3.114561e+00
1.168245e+01	-3.140265e+00
1.174992e+01	-3.166204e+00
1.181779e+01	-3.192140e+00
1.188605e+01	-3.218387e+00
1.195470e+01	-3.244275e+00
1.202375e+01	-3.270832e+00
1.209320e+01	-3.297188e+00
1.216305e+01	-3.324177e+00
1.223330e+01	-3.350891e+00
1.230396e+01	-3.377903e+00
1.237503e+01	-3.405038e+00
1.244651e+01	-3.432326e+00
1.251840e+01	-3.459808e+00
1.259070e+01	-3.487347e+00
1.266343e+01	-3.514948e+00
1.273657e+01	-3.542648e+00
1.281014e+01	-3.570530e+00
1.288413e+01	-3.598674e+00
1.295855e+01	-3.626889e+00
1.303339e+01	-3.655448e+00
1.310867e+01	-3.683909e+00
1.318439e+01	-3.712682e+00
1.326054e+01	-3.741423e+00
1.333713e+01	-3.770411e+00
1.341417e+01	-3.799851e+00
1.349165e+01	-3.828875e+00
1.356958e+01	-3.858092e+00
1.364795e+01	-3.887607e+00
1.372678e+01	-3.917280e+00
1.380607e+01	-3.947167e+00
1.388581e+01	-3.977246e+00
1.396602e+01	-4.007177e+00
1.404668e+01	-4.037355e+00
1.412782e+01	-4.067614e+00
1.420942e+01	-4.098186e+00
1.429149e+01	-4.128871e+00
1.437404e+01	-4.159374e+00
1.445706e+01	-4.190561e+00
1.454057e+01	-4.221228e+00
1.462455e+01	-4.252421e+00
1.470902e+01	-4.283840e+00
1.479398e+01	-4.315389e+00
1.487943e+01	-4.346828e+00
1.496537e+01	-4.378587e+00
1.505181e+01	-4.410670e+00
1.513875e+01	-4.442254e+00
1.522619e+01	-4.474632e+00
1.531414e+01	-4.506744e+00
1.540259e+01	-4.539079e+00
1.549156e+01	-4.571629e+00
1.558103e+01	-4.604514e+00
1.567103e+01	-4.637049e+00
1.576155e+01	-4.670029e+00
1.585258e+01	-4.702952e+00
1.594415e+01	-4.736039e+00
1.603624e+01	-4.769665e+00
1.612886e+01	-4.802825e+00
1.622202e+01	-4.836272e+00
1.631572e+01	-4.869912e+00
1.640996e+01	-4.903948e+00
1.650474e+01	-4.937569e+00
1.660008e+01	-4.972003e+00
1.669596e+01	-5.005872e+00
1.679239e+01	-5.040366e+00
1.688938e+01	-5.074847e+00
1.698694e+01	-5.109417e+00
1.708505e+01	-5.143581e+00
1.718373e+01	-5.178497e+00
1.728299e+01	-5.213582e+00
1.738281e+01	-5.248545e+00
1.748322e+01	-5.283569e+00
1.758420e+01	-5.319142e+00
1.768576e+01	-5.354446e+00
1.778792e+01	-5.389838e+00
1.789066e+01	-5.425629e+00
1.799399e+01	-5.461146e+00
1.809793e+01	-5.496708e+00
1.820246e+01	-5.532811e+00
1.830760e+01	-5.569099e+00
1.841334e+01	-5.605577e+00
1.851969e+01	-5.641622e+00
1.862666e+01	-5.678001e+00
1.873425e+01	-5.714551e+00
1.884246e+01	-5.751374e+00
1.895129e+01	-5.788022e+00
1.906075e+01	-5.824993e+00
1.917085e+01	-5.862171e+00
1.928158e+01	-5.898978e+00
1.939295e+01	-5.936326e+00
1.950496e+01	-5.973535e+00
1.961762e+01	-6.010990e+00
1.973093e+01	-6.048775e+00
1.984490e+01	-6.086396e+00
1.995952e+01	-6.123925e+00
2.007480e+01	-6.161948e+00
2.019076e+01	-6.200162e+00
2.030738e+01	-6.237798e+00
2.042467e+01	-6.275904e+00
2.054264e+01	-6.314579e+00
2.066130e+01	-6.352439e+00
2.078064e+01	-6.391422e+00
2.090066e+01	-6.430033e+00
2.102139e+01	-6.468491e+00
2.114280e+01	-6.507337e+00
2.126492e+01	-6.546235e+00
2.138775e+01	-6.585152e+00
2.151128e+01	-6.624605e+00
2.163553e+01	-6.663051e+00
2.176050e+01	-6.702774e+00
2.188619e+01	-6.742158e+00
2.201260e+01	-6.781431e+00
2.213974e+01	-6.821393e+00
2.226762e+01	-6.860907e+00
2.239624e+01	-6.900665e+00
2.252560e+01	-6.940427e+00
2.265571e+01	-6.980692e+00
2.278656e+01	-7.020740e+00
2.291818e+01	-7.060469e+00
2.305055e+01	-7.101147e+00
2.318369e+01	-7.141393e+00
2.331760e+01	-7.181878e+00
2.345228e+01	-7.222438e+00
2.358774e+01	-7.262619e+00
2.372398e+01	-7.303772e+00
2.386101e+01	-7.344106e+00
2.399883e+01	-7.385408e+00
2.413745e+01	-7.426239e+00
2.427686e+01	-7.466868e+00
2.441709e+01	-7.508436e+00
2.455812e+01	-7.549282e+00
2.469997e+01	-7.590536e+00
2.484263e+01	-7.631968e+00
2.498612e+01	-7.673430e+00
2.513044e+01	-7.714369e+00
2.527559e+01	-7.756449e+00
2.542158e+01	-7.797916e+00
2.556842e+01	-7.839964e+00
2.571610e+01	-7.881634e+00
2.586463e+01	-7.923479e+00
2.601403e+01	-7.965901e+00
2.616428e+01	-8.007941e+00
2.631541e+01	-8.049709e+00
2.646740e+01	-8.091957e+00
2.662028e+01	-8.134254e+00
2.677404e+01	-8.177105e+00
2.692868e+01	-8.219499e+00
2.708422e+01	-8.261661e+00
2.724066e+01	-8.304305e+00
2.739800e+01	-8.347288e+00
2.755625e+01	-8.389753e+00
2.771541e+01	-8.432400e+00
2.787550e+01	-8.475024e+00
2.803650e+01	-8.518726e+00
2.819844e+01	-8.561177e+00
2.836131e+01	-8.604561e+00
2.852513e+01	-8.647767e+00
2.868989e+01	-8.690918e+00
2.885560e+01	-8.734513e+00
2.902227e+01	-8.777680e+00
2.918990e+01	-8.821171e+00
2.935850e+01	-8.864447e+00
2.952807e+01	-8.908206e+00
2.969863e+01	-8.951706e+00
2.987016e+01	-8.995651e+00
3.004269e+01	-9.039319e+00
3.021622e+01	-9.082672e+00
3.039075e+01	-9.127040e+00
3.056628e+01	-9.170544e+00
3.074283e+01	-9.215023e+00
3.092040e+01	-9.259181e+00
3.109900e+01	-9.302631e+00
3.127862e+01	-9.347393e+00
3.145929e+01	-9.391348e+00
3.164099e+01	-9.435714e+00
3.182375e+01	-9.480250e+00
3.200756e+01	-9.524527e+00
3.219244e+01	-9.569130e+00
3.237838e+01	-9.613341e+00
3.256540e+01	-9.657461e+00
3.275349e+01	-9.702453e+00
3.294268e+01	-9.747488e+00
3.313295e+01	-9.792628e+00
3.332433e+01	-9.836770e+00
3.351681e+01	-9.882418e+00
3.371040e+01	-9.926636e+00
3.390511e+01	-9.971525e+00
3.410094e+01	-1.001683e+01
3.429791e+01	-1.006204e+01
3.449601e+01	-1.010677e+01
3.469526e+01	-1.015229e+01
3.489566e+01	-1.019752e+01
3.509721e+01	-1.024266e+01
3.529993e+01	-1.028808e+01
3.550382e+01	-1.033296e+01
3.570889e+01	-1.037870e+01
3.591515e+01	-1.042331e+01
3.612259e+01	-1.047003e+01
3.633123e+01	-1.051543e+01
3.654108e+01	-1.056096e+01
3.675214e+01	-1.060697e+01
3.696442e+01	-1.065215e+01
3.717792e+01	-1.069784e+01
3.739266e+01	-1.074394e+01
3.760864e+01	-1.078888e+01
3.782587e+01	-1.083545e+01
3.804435e+01	-1.088084e+01
3.826409e+01	-1.092760e+01
3.848510e+01	-1.097308e+01
3.870739e+01	-1.101932e+01
3.893096e+01	-1.106553e+01
3.915583e+01	-1.111189e+01
3.938199e+01	-1.115786e+01
3.960946e+01	-1.120385e+01
3.983824e+01	-1.125064e+01
4.006834e+01	-1.129624e+01
4.029978e+01	-1.134257e+01
4.053255e+01	-1.138829e+01
4.076666e+01	-1.143571e+01
4.100213e+01	-1.148175e+01
4.123896e+01	-1.152842e+01
4.147715e+01	-1.157526e+01
4.171672e+01	-1.162169e+01
4.195767e+01	-1.166815e+01
4.220002e+01	-1.171477e+01
4.244377e+01	-1.176128e+01
4.268892e+01	-1.180857e+01
4.293549e+01	-1.185500e+01
4.318348e+01	-1.190181e+01
4.343291e+01	-1.194828e+01
4.368377e+01	-1.199558e+01
4.393609e+01	-1.204265e+01
4.418986e+01	-1.208891e+01
4.444510e+01	-1.213587e+01
4.470182e+01	-1.218361e+01
4.496001e+01	-1.223065e+01
4.521970e+01	-1.227814e+01
4.548089e+01	-1.232417e+01
4.574358e+01	-1.237128e+01
4.600779e+01	-1.241827e+01
4.627353e+01	-1.246547e+01
4.654081e+01	-1.251321e+01
4.680963e+01	-1.256061e+01
4.708000e+01	-1.260681e+01
4.735193e+01	-1.265487e+01
4.762543e+01	-1.270158e+01
4.790051e+01	-1.274950e+01
4.817719e+01	-1.279718e+01
4.845545e+01	-1.284413e+01
4.873533e+01	-1.289214e+01
4.901682e+01	-1.293954e+01
4.929994e+01	-1.298675e+01
4.958470e+01	-1.303474e+01
4.987110e+01	-1.308201e+01
5.015915e+01	-1.312925e+01
5.044887e+01	-1.317721e+01
5.074026e+01	-1.322518e+01
5.103333e+01	-1.327211e+01
5.132810e+01	-1.331966e+01
5.162457e+01	-1.336726e+01
5.192275e+01	-1.341610e+01
5.222265e+01	-1.346276e+01
5.252429e+01	-1.351130e+01
5.282767e+01	-1.355899e+01
5.313280e+01	-1.360706e+01
5.343969e+01	-1.365467e+01
5.374836e+01	-1.370219e+01
5.405880e+01	-1.375037e+01
5.437105e+01	-1.379746e+01
5.468509e+01	-1.384587e+01
5.500095e+01	-1.389401e+01
5.531863e+01	-1.394146e+01
5.563815e+01	-1.398932e+01
5.595951e+01	-1.403857e+01
5.628273e+01	-1.408642e+01
5.660782e+01	-1.413494e+01
5.693479e+01	-1.418203e+01
5.726364e+01	-1.423091e+01
5.759439e+01	-1.427842e+01
5.792705e+01	-1.432702e+01
5.826164e+01	-1.437472e+01
5.859815e+01	-1.442335e+01
5.893662e+01	-1.447102e+01
5.927703e+01	-1.452014e+01
5.961941e+01	-1.456749e+01
5.996377e+01	-1.461636e+01
6.031012e+01	-1.466444e+01
6.065847e+01	-1.471270e+01
6.100883e+01	-1.476199e+01
6.136121e+01	-1.481026e+01
6.171563e+01	-1.485860e+01
6.207210e+01	-1.490588e+01
6.243063e+01	-1.495471e+01
6.279122e+01	-1.500357e+01
6.315390e+01	-1.505233e+01
6.351868e+01	-1.510008e+01
6.388556e+01	-1.514848e+01
6.425456e+01	-1.519766e+01
6.462569e+01	-1.524601e+01
6.499897e+01	-1.529407e+01
6.537440e+01	-1.534311e+01
6.575200e+01	-1.539039e+01
6.613178e+01	-1.543995e+01
6.651375e+01	-1.548829e+01
6.689793e+01	-1.553679e+01
6.728433e+01	-1.558555e+01
6.767297e+01	-1.563366e+01
6.806384e+01	-1.568330e+01
6.845698e+01	-1.573153e+01
6.885238e+01	-1.578057e+01
6.925007e+01	-1.582971e+01
6.965005e+01	-1.587826e+01
7.005235e+01	-1.592717e+01
7.045697e+01	-1.597509e+01
7.086393e+01	-1.602357e+01
7.127323e+01	-1.607366e+01
7.168490e+01	-1.612181e+01
7.209895e+01	-1.617091e+01
7.251539e+01	-1.621988e+01
7.293424e+01	-1.626815e+01
7.335551e+01	-1.631689e+01
7.377920e+01	-1.636528e+01
7.420535e+01	-1.641496e+01
7.463396e+01	-1.646373e+01
7.506504e+01	-1.651270e+01
7.549861e+01	-1.656174e+01
7.593469e+01	-1.660997e+01
7.637328e+01	-1.665915e+01
7.681441e+01	-1.670738e+01
7.725809e+01	-1.675774e+01
7.770433e+01	-1.680658e+01
7.815315e+01	-1.685539e+01
7.860456e+01	-1.690579e+01
7.905857e+01	-1.695347e+01
7.951521e+01	-1.700230e+01
7.997449e+01	-1.705169e+01
8.043642e+01	-1.710053e+01
8.090102e+01	-1.714985e+01
8.136830e+01	-1.719836e+01
8.183828e+01	-1.724782e+01
8.231097e+01	-1.729670e+01
8.278640e+01	-1.734581e+01
8.326457e+01	-1.739434e+01
8.374550e+01	-1.744378e+01
8.422921e+01	-1.749296e+01
8.471572e+01	-1.754231e+01
8.520503e+01	-1.759226e+01
8.569717e+01	-1.764028e+01
8.619215e+01	-1.768828e+01
8.669000e+01	-1.774077e+01
8.719071e+01	-1.778831e+01
8.769432e+01	-1.783631e+01
8.820084e+01	-1.788775e+01
8.871029e+01	-1.793746e+01
8.922267e+01	-1.798508e+01
8.973802e+01	-1.803354e+01
9.025634e+01	-1.808255e+01
9.077766e+01	-1.813267e+01
9.130199e+01	-1.818258e+01
9.182935e+01	-1.823093e+01
9.235975e+01	-1.828079e+01
9.289321e+01	-1.832973e+01
9.342976e+01	-1.837978e+01
9.396941e+01	-1.842879e+01
9.451217e+01	-1.847992e+01
9.505807e+01	-1.852640e+01
9.560712e+01	-1.857622e+01
9.615934e+01	-1.862658e+01
9.671476e+01	-1.867585e+01
9.727338e+01	-1.872472e+01
9.783522e+01	-1.877491e+01
9.840032e+01	-1.882470e+01
9.896867e+01	-1.887254e+01
9.954031e+01	-1.892142e+01
1.001153e+02	-1.897150e+01
1.006935e+02	-1.902017e+01
1.012751e+02	-1.906957e+01
1.018601e+02	-1.911962e+01
1.024484e+02	-1.917112e+01
1.030402e+02	-1.921925e+01
1.036353e+02	-1.926956e+01
1.042339e+02	-1.931676e+01
1.048360e+02	-1.936705e+01
1.054415e+02	-1.941658e+01
1.060505e+02	-1.946578e+01
1.066631e+02	-1.951591e+01
1.072791e+02	-1.956464e+01
1.078988e+02	-1.961424e+01
1.085220e+02	-1.966599e+01
1.091488e+02	-1.971380e+01
1.097793e+02	-1.976339e+01
1.104133e+02	-1.981189e+01
1.110511e+02	-1.986251e+01
1.116925e+02	-1.991084e+01
1.123376e+02	-1.996099e+01
1.129865e+02	-2.000941e+01
1.136391e+02	-2.005960e+01
1.142955e+02	-2.010868e+01
1.149556e+02	-2.015869e+01
1.156196e+02	-2.020978e+01
1.162874e+02	-2.025878e+01
1.169591e+02	-2.030855e+01
1.176347e+02	-2.035706e+01
1.183141e+02	-2.040847e+01
1.189975e+02	-2.045583e+01
1.196848e+02	-2.050806e+01
1.203761e+02	-2.055706e+01
1.210714e+02	-2.060587e+01
1.217707e+02	-2.065599e+01
1.224740e+02	-2.070488e+01
1.231814e+02	-2.075384e+01
1.238929e+02	-2.080379e+01
1.246085e+02	-2.085283e+01
1.253283e+02	-2.090296e+01
1.260522e+02	-2.095064e+01
1.267802e+02	-2.100143e+01
1.275125e+02	-2.105170e+01
1.282490e+02	-2.110263e+01
1.289898e+02	-2.115144e+01
1.297348e+02	-2.120045e+01
1.304842e+02	-2.125031e+01
1.312378e+02	-2.130129e+01
1.319959e+02	-2.134793e+01
1.327583e+02	-2.139904e+01
1.335251e+02	-2.144989e+01
1.342963e+02	-2.149960e+01
1.350720e+02	-2.154569e+01
1.358522e+02	-2.159963e+01
1.366368e+02	-2.164751e+01
1.374260e+02	-2.169792e+01
1.382198e+02	-2.174765e+01
1.390182e+02	-2.179574e+01
1.398211e+02	-2.184659e+01
1.406287e+02	-2.190033e+01
1.414410e+02	-2.194737e+01
1.422579e+02	-2.199728e+01
1.430796e+02	-2.204605e+01
1.439060e+02	-2.209649e+01
1.447372e+02	-2.214543e+01
1.455732e+02	-2.219575e+01
1.464141e+02	-2.224498e+01
1.472597e+02	-2.229495e+01
1.481103e+02	-2.234684e+01
1.489658e+02	-2.239565e+01
1.498262e+02	-2.244531e+01
1.506916e+02	-2.249288e+01
1.515620e+02	-2.254543e+01
1.524374e+02	-2.259252e+01
1.533179e+02	-2.264312e+01
1.542034e+02	-2.269277e+01
1.550941e+02	-2.274209e+01
1.559899e+02	-2.279563e+01
1.568909e+02	-2.284243e+01
1.577971e+02	-2.289286e+01
1.587085e+02	-2.294217e+01
1.596252e+02	-2.299201e+01
1.605472e+02	-2.304308e+01
1.614745e+02	-2.309139e+01
1.624072e+02	-2.314116e+01
1.633453e+02	-2.319245e+01
1.642887e+02	-2.323944e+01
1.652377e+02	-2.328737e+01
1.661921e+02	-2.334065e+01
1.671520e+02	-2.339163e+01
1.681175e+02	-2.344116e+01
1.690885e+02	-2.348853e+01
1.700651e+02	-2.354280e+01
1.710474e+02	-2.358704e+01
1.720354e+02	-2.363857e+01
1.730291e+02	-2.368811e+01
1.740285e+02	-2.373945e+01
1.750337e+02	-2.379101e+01
1.760446e+02	-2.383683e+01
1.770615e+02	-2.388748e+01
1.780842e+02	-2.393597e+01
1.791128e+02	-2.398620e+01
1.801473e+02	-2.403577e+01
1.811878e+02	-2.408667e+01
1.822344e+02	-2.413758e+01
1.832870e+02	-2.418736e+01
1.843456e+02	-2.423613e+01
1.854104e+02	-2.428553e+01
1.864813e+02	-2.433619e+01
1.875584e+02	-2.438765e+01
1.886418e+02	-2.443518e+01
1.897313e+02	-2.448791e+01
1.908272e+02	-2.453358e+01
1.919294e+02	-2.458362e+01
1.930380e+02	-2.463858e+01
1.941530e+02	-2.468380e+01
1.952744e+02	-2.473566e+01
1.964023e+02	-2.478437e+01
1.975367e+02	-2.483542e+01
1.986777e+02	-2.488588e+01
1.998252e+02	-2.493377e+01
2.009794e+02	-2.498427e+01
2.021403e+02	-2.503514e+01
2.033078e+02	-2.508400e+01
2.044821e+02	-2.513597e+01
2.056632e+02	-2.518724e+01
2.068511e+02	-2.523396e+01
2.080459e+02	-2.528761e+01
2.092475e+02	-2.533535e+01
2.104561e+02	-2.538664e+01
2.116717e+02	-2.543282e+01
2.128943e+02	-2.548330e+01
2.141240e+02	-2.553485e+01
2.153608e+02	-2.558339e+01
2.166047e+02	-2.563408e+01
2.178558e+02	-2.568411e+01
2.191141e+02	-2.573242e+01
2.203797e+02	-2.578462e+01
2.216526e+02	-2.583354e+01
2.229329e+02	-2.588342e+01
2.242205e+02	-2.593590e+01
2.255156e+02	-2.598328e+01
2.268182e+02	-2.603201e+01
2.281283e+02	-2.608236e+01
2.294459e+02	-2.613523e+01
2.307712e+02	-2.618318e+01
2.321041e+02	-2.623087e+01
2.334447e+02	-2.627922e+01
2.347931e+02	-2.633363e+01
2.361493e+02	-2.638623e+01
2.375133e+02	-2.643335e+01
2.388851e+02	-2.648096e+01
2.402649e+02	-2.653104e+01
2.416527e+02	-2.658278e+01
2.430484e+02	-2.663491e+01
2.444523e+02	-2.668417e+01
2.458642e+02	-2.673229e+01
2.472843e+02	-2.678206e+01
2.487126e+02	-2.683330e+01
2.501492e+02	-2.688593e+01
2.515940e+02	-2.693699e+01
2.530472e+02	-2.698337e+01
2.545088e+02	-2.703488e+01
2.559789e+02	-2.707997e+01
2.574574e+02	-2.713159e+01
2.589444e+02	-2.718111e+01
2.604401e+02	-2.723173e+01
2.619444e+02	-2.727872e+01
2.634574e+02	-2.733279e+01
2.649791e+02	-2.738345e+01
2.665096e+02	-2.743379e+01
2.680489e+02	-2.747966e+01
2.695972e+02	-2.753309e+01
2.711544e+02	-2.758361e+01
2.727205e+02	-2.763280e+01
2.742958e+02	-2.768426e+01
2.758801e+02	-2.773386e+01
2.774736e+02	-2.778383e+01
2.790762e+02	-2.783314e+01
2.806882e+02	-2.788284e+01
2.823094e+02	-2.793399e+01
2.839400e+02	-2.797954e+01
2.855800e+02	-2.803330e+01
2.872295e+02	-2.808449e+01
2.888886e+02	-2.813033e+01
2.905572e+02	-2.818060e+01
2.922354e+02	-2.823634e+01
2.939234e+02	-2.828183e+01
2.956211e+02	-2.833244e+01
2.973286e+02	-2.838257e+01
2.990459e+02	-2.843187e+01
3.007732e+02	-2.848155e+01
3.025104e+02	-2.853181e+01
3.042577e+02	-2.858091e+01
3.060151e+02	-2.863084e+01
3.077826e+02	-2.868295e+01
3.095604e+02	-2.873190e+01
3.113484e+02	-2.878496e+01
3.131467e+02	-2.883115e+01
3.149554e+02	-2.888377e+01
3.167746e+02	-2.892910e+01
3.186043e+02	-2.898890e+01
3.204445e+02	-2.903406e+01
3.222954e+02	-2.908054e+01
3.241570e+02	-2.913280e+01
3.260293e+02	-2.918328e+01
3.279124e+02	-2.923167e+01
3.298064e+02	-2.928584e+01
3.317114e+02	-2.933332e+01
3.336273e+02	-2.938609e+01
3.355544e+02	-2.943646e+01
3.374925e+02	-2.948889e+01
3.394418e+02	-2.953609e+01
3.414024e+02	-2.958155e+01
3.433744e+02	-2.963633e+01
3.453577e+02	-2.968593e+01
3.473525e+02	-2.973653e+01
3.493588e+02	-2.978440e+01
3.513766e+02	-2.983254e+01
3.534062e+02	-2.988957e+01
3.554474e+02	-2.993739e+01
3.575005e+02	-2.998945e+01
3.595654e+02	-3.003610e+01
3.616422e+02	-3.008807e+01
3.637311e+02	-3.013991e+01
3.658320e+02	-3.019060e+01
3.679450e+02	-3.023245e+01
3.700702e+02	-3.028655e+01
3.722077e+02	-3.033851e+01
3.743576e+02	-3.038449e+01
3.765199e+02	-3.043289e+01
3.786946e+02	-3.048277e+01
3.808820e+02	-3.054023e+01
3.830819e+02	-3.058899e+01
3.852946e+02	-3.064041e+01
3.875200e+02	-3.069029e+01
3.897583e+02	-3.073477e+01
3.920096e+02	-3.078056e+01
3.942738e+02	-3.083297e+01
3.965511e+02	-3.088921e+01
3.988416e+02	-3.093374e+01
4.011452e+02	-3.098526e+01
4.034622e+02	-3.103550e+01
4.057926e+02	-3.108563e+01
4.081365e+02	-3.113391e+01
4.104938e+02	-3.118662e+01
4.128648e+02	-3.123654e+01
4.152495e+02	-3.129195e+01
4.176480e+02	-3.133895e+01
4.200603e+02	-3.138832e+01
4.224866e+02	-3.143545e+01
4.249268e+02	-3.149383e+01
4.273812e+02	-3.153364e+01
4.298497e+02	-3.158936e+01
4.323325e+02	-3.163581e+01
4.348297e+02	-3.168479e+01
4.373412e+02	-3.174558e+01
4.398673e+02	-3.178876e+01
4.424079e+02	-3.183306e+01
4.449633e+02	-3.188724e+01
4.475334e+02	-3.193785e+01
4.501183e+02	-3.198210e+01
4.527182e+02	-3.203762e+01
4.553330e+02	-3.208874e+01
4.579630e+02	-3.214096e+01
4.606082e+02	-3.218991e+01
4.632687e+02	-3.223665e+01
4.659445e+02	-3.229023e+01
4.686358e+02	-3.234461e+01
4.713426e+02	-3.238844e+01
4.740650e+02	-3.244545e+01
4.768032e+02	-3.249693e+01
4.795572e+02	-3.254249e+01
4.823271e+02	-3.259699e+01
4.851130e+02	-3.264954e+01
4.879150e+02	-3.269117e+01
4.907332e+02	-3.274595e+01
4.935676e+02	-3.279090e+01
4.964185e+02	-3.284710e+01
4.992858e+02	-3.289391e+01
5.021696e+02	-3.294569e+01
5.050701e+02	-3.299476e+01
5.079874e+02	-3.303660e+01
5.109215e+02	-3.309350e+01
5.138726e+02	-3.314266e+01
5.168407e+02	-3.319591e+01
5.198259e+02	-3.324465e+01
5.228284e+02	-3.329201e+01
5.258482e+02	-3.334675e+01
5.288855e+02	-3.339542e+01
5.319403e+02	-3.344615e+01
5.350128e+02	-3.349414e+01
5.381030e+02	-3.354884e+01
5.412111e+02	-3.359557e+01
5.443371e+02	-3.365903e+01
5.474812e+02	-3.369692e+01
5.506434e+02	-3.375840e+01
5.538239e+02	-3.380135e+01
5.570228e+02	-3.384955e+01
5.602401e+02	-3.389405e+01
5.634760e+02	-3.394227e+01
5.667306e+02	-3.399027e+01
5.700040e+02	-3.405096e+01
5.732964e+02	-3.410580e+01
5.766077e+02	-3.415358e+01
5.799382e+02	-3.419778e+01
5.832879e+02	-3.425249e+01
5.866569e+02	-3.429941e+01
5.900454e+02	-3.435339e+01
5.934535e+02	-3.439821e+01
5.968813e+02	-3.445185e+01
6.003288e+02	-3.450521e+01
6.037963e+02	-3.454908e+01
6.072838e+02	-3.460074e+01
6.107914e+02	-3.465950e+01
6.143194e+02	-3.469835e+01
6.178676e+02	-3.474432e+01
6.214364e+02	-3.480260e+01
6.250258e+02	-3.485324e+01
6.286359e+02	-3.490225e+01
6.322669e+02	-3.495474e+01
6.359189e+02	-3.500594e+01
6.395919e+02	-3.504911e+01
6.432862e+02	-3.510465e+01
6.470017e+02	-3.516071e+01
6.507388e+02	-3.520408e+01
6.544974e+02	-3.525389e+01
6.582778e+02	-3.530957e+01
6.620800e+02	-3.535976e+01
6.659041e+02	-3.540934e+01
6.697504e+02	-3.546332e+01
6.736188e+02	-3.550932e+01
6.775096e+02	-3.555603e+01
6.814229e+02	-3.560911e+01
6.853587e+02	-3.566469e+01
6.893173e+02	-3.570742e+01
6.932988e+02	-3.576233e+01
6.973033e+02	-3.580896e+01
7.013309e+02	-3.585195e+01
