Frequency(Hz)	Magnitude(dB)
1.000000e+01	-2.150956e+00
1.005776e+01	-2.170564e+00
1.011585e+01	-2.190431e+00
1.017428e+01	-2.210359e+00
1.023305e+01	-2.230262e+00
1.029215e+01	-2.250347e+00
1.035160e+01	-2.270847e+00
1.041139e+01	-2.291064e+00
1.047153e+01	-2.311807e+00
1.053201e+01	-2.332679e+00
1.059284e+01	-2.353274e+00
1.065403e+01	-2.374426e+00
1.071556e+01	-2.395294e+00
1.077746e+01	-2.416663e+00
1.083971e+01	-2.438164e+00
1.090232e+01	-2.459750e+00
1.096529e+01	-2.481466e+00
1.102862e+01	-2.503422e+00
1.109232e+01	-2.525082e+00
1.115639e+01	-2.547350e+00
1.122083e+01	-2.569483e+00
1.128564e+01	-2.592189e+00
1.135083e+01	-2.614716e+00
1.141639e+01	-2.637556e+00
1.148233e+01	-2.660271e+00
1.154865e+01	-2.683036e+00
1.161536e+01	-2.706396e+00
1.168245e+01	-2.729468e+00
1.174992e+01	-2.753036e+00
1.181779e+01	-2.776336e+00
1.188605e+01	-2.800116e+00
1.195470e+01	-2.824180e+00
1.202375e+01	-2.848190e+00
1.209320e+01	-2.872437e+00
1.216305e+01	-2.896688e+00
1.223330e+01	-2.921165e+00
1.230396e+01	-2.945537e+00
1.237503e+01	-2.970119e+00
1.244651e+01	-2.994955e+00
1.251840e+01	-3.020124e+00
1.259070e+01	-3.045118e+00
1.266343e+01	-3.070363e+00
1.273657e+01	-3.095821e+00
1.281014e+01	-3.121425e+00
1.288413e+01	-3.147127e+00
1.295855e+01	-3.173147e+00
1.303339e+01	-3.198969e+00
1.310867e+01	-3.225188e+00
1.318439e+01	-3.251634e+00
1.326054e+01	-3.277898e+00
1.333713e+01	-3.304807e+00
1.341417e+01	-3.331226e+00
1.349165e+01	-3.357790e+00
1.356958e+01	-3.385143e+00
1.364795e+01	-3.411936e+00
1.372678e+01	-3.439619e+00
1.380607e+01	-3.467019e+00
1.388581e+01	-3.494688e+00
1.396602e+01	-3.522090e+00
1.404668e+01	-3.550098e+00
1.412782e+01	-3.577959e+00
1.420942e+01	-3.606176e+00
1.429149e+01	-3.634634e+00
1.437404e+01	-3.663218e+00
1.445706e+01	-3.691626e+00
1.454057e+01	-3.720110e+00
1.462455e+01	-3.749213e+00
1.470902e+01	-3.778083e+00
1.479398e+01	-3.807306e+00
1.487943e+01	-3.836566e+00
1.496537e+01	-3.866034e+00
1.505181e+01	-3.895465e+00
1.513875e+01	-3.925126e+00
1.522619e+01	-3.955254e+00
1.531414e+01	-3.984989e+00
1.540259e+01	-4.015070e+00
1.549156e+01	-4.045255e+00
1.558103e+01	-4.075746e+00
1.567103e+01	-4.106012e+00
1.576155e+01	-4.136722e+00
1.585258e+01	-4.167924e+00
1.594415e+01	-4.198694e+00
1.603624e+01	-4.229427e+00
1.612886e+01	-4.261017e+00
1.622202e+01	-4.292275e+00
1.631572e+01	-4.323599e+00
1.640996e+01	-4.355567e+00
1.650474e+01	-4.387107e+00
1.660008e+01	-4.418644e+00
1.669596e+01	-4.450756e+00
1.679239e+01	-4.482924e+00
1.688938e+01	-4.515359e+00
1.698694e+01	-4.547992e+00
1.708505e+01	-4.580369e+00
1.718373e+01	-4.612949e+00
1.728299e+01	-4.645811e+00
1.738281e+01	-4.678818e+00
1.748322e+01	-4.711894e+00
1.758420e+01	-4.744849e+00
1.768576e+01	-4.778185e+00
1.778792e+01	-4.811726e+00
1.789066e+01	-4.845206e+00
1.799399e+01	-4.878887e+00
1.809793e+01	-4.912724e+00
1.820246e+01	-4.946740e+00
1.830760e+01	-4.980859e+00
1.841334e+01	-5.014873e+00
1.851969e+01	-5.049225e+00
1.862666e+01	-5.083614e+00
1.873425e+01	-5.118432e+00
1.884246e+01	-5.152891e+00
1.895129e+01	-5.187885e+00
1.906075e+01	-5.222648e+00
1.917085e+01	-5.257895e+00
1.928158e+01	-5.292805e+00
1.939295e+01	-5.328755e+00
1.950496e+01	-5.363826e+00
1.961762e+01	-5.399289e+00
1.973093e+01	-5.434839e+00
1.984490e+01	-5.470996e+00
1.995952e+01	-5.506179e+00
2.007480e+01	-5.542375e+00
2.019076e+01	-5.578756e+00
2.030738e+01	-5.614837e+00
2.042467e+01	-5.651424e+00
2.054264e+01	-5.687851e+00
2.066130e+01	-5.724641e+00
2.078064e+01	-5.761254e+00
2.090066e+01	-5.798056e+00
2.102139e+01	-5.834941e+00
2.114280e+01	-5.871678e+00
2.126492e+01	-5.909053e+00
2.138775e+01	-5.946164e+00
2.151128e+01	-5.983573e+00
2.163553e+01	-6.020945e+00
2.176050e+01	-6.058576e+00
2.188619e+01	-6.096728e+00
2.201260e+01	-6.133934e+00
2.213974e+01	-6.172258e+00
2.226762e+01	-6.209955e+00
2.239624e+01	-6.247944e+00
2.252560e+01	-6.286083e+00
2.265571e+01	-6.324436e+00
2.278656e+01	-6.363084e+00
2.291818e+01	-6.401663e+00
2.305055e+01	-6.440290e+00
2.318369e+01	-6.479019e+00
2.331760e+01	-6.517718e+00
2.345228e+01	-6.556632e+00
2.358774e+01	-6.595790e+00
2.372398e+01	-6.634715e+00
2.386101e+01	-6.673816e+00
2.399883e+01	-6.713451e+00
2.413745e+01	-6.752968e+00
2.427686e+01	-6.792453e+00
2.441709e+01	-6.831906e+00
2.455812e+01	-6.871230e+00
2.469997e+01	-6.911469e+00
2.484263e+01	-6.951371e+00
2.498612e+01	-6.991431e+00
2.513044e+01	-7.031304e+00
2.527559e+01	-7.071410e+00
2.542158e+01	-7.111911e+00
2.556842e+01	-7.151722e+00
2.571610e+01	-7.192468e+00
2.586463e+01	-7.232838e+00
2.601403e+01	-7.273354e+00
2.616428e+01	-7.314398e+00
2.631541e+01	-7.354987e+00
2.646740e+01	-7.395760e+00
2.662028e+01	-7.436961e+00
2.677404e+01	-7.477933e+00
2.692868e+01	-7.519043e+00
2.708422e+01	-7.560235e+00
2.724066e+01	-7.601468e+00
2.739800e+01	-7.642698e+00
2.755625e+01	-7.684204e+00
2.771541e+01	-7.725810e+00
2.787550e+01	-7.767736e+00
2.803650e+01	-7.808969e+00
2.819844e+01	-7.851191e+00
2.836131e+01	-7.893007e+00
2.852513e+01	-7.934596e+00
2.868989e+01	-7.976879e+00
2.885560e+01	-8.018883e+00
2.902227e+01	-8.061178e+00
2.918990e+01	-8.103232e+00
2.935850e+01	-8.145779e+00
2.952807e+01	-8.188010e+00
2.969863e+01	-8.230822e+00
2.987016e+01	-8.272745e+00
3.004269e+01	-8.315555e+00
3.021622e+01	-8.358010e+00
3.039075e+01	-8.401508e+00
3.056628e+01	-8.443731e+00
3.074283e+01	-8.486786e+00
3.092040e+01	-8.529811e+00
3.109900e+01	-8.572936e+00
3.127862e+01	-8.615642e+00
3.145929e+01	-8.658961e+00
3.164099e+01	-8.702225e+00
3.182375e+01	-8.745652e+00
3.200756e+01	-8.789210e+00
3.219244e+01	-8.832475e+00
3.237838e+01	-8.876189e+00
3.256540e+01	-8.919238e+00
3.275349e+01	-8.963145e+00
3.294268e+01	-9.006708e+00
3.313295e+01	-9.050834e+00
3.332433e+01	-9.095031e+00
3.351681e+01	-9.138161e+00
3.371040e+01	-9.182354e+00
3.390511e+01	-9.226266e+00
3.410094e+01	-9.269835e+00
3.429791e+01	-9.314475e+00
3.449601e+01	-9.358403e+00
3.469526e+01	-9.403050e+00
3.489566e+01	-9.447619e+00
3.509721e+01	-9.491557e+00
3.529993e+01	-9.536012e+00
3.550382e+01	-9.580996e+00
3.570889e+01	-9.625449e+00
3.591515e+01	-9.669719e+00
3.612259e+01	-9.714513e+00
3.633123e+01	-9.759200e+00
3.654108e+01	-9.803933e+00
3.675214e+01	-9.848829e+00
3.696442e+01	-9.893746e+00
3.717792e+01	-9.938502e+00
3.739266e+01	-9.983670e+00
3.760864e+01	-1.002838e+01
3.782587e+01	-1.007329e+01
3.804435e+01	-1.011906e+01
3.826409e+01	-1.016379e+01
3.848510e+01	-1.020932e+01
3.870739e+01	-1.025471e+01
3.893096e+01	-1.029941e+01
3.915583e+01	-1.034548e+01
3.938199e+01	-1.039088e+01
3.960946e+01	-1.043612e+01
3.983824e+01	-1.048197e+01
4.006834e+01	-1.052702e+01
4.029978e+01	-1.057288e+01
4.053255e+01	-1.061839e+01
4.076666e+01	-1.066461e+01
4.100213e+01	-1.070994e+01
4.123896e+01	-1.075556e+01
4.147715e+01	-1.080185e+01
4.171672e+01	-1.084778e+01
4.195767e+01	-1.089328e+01
4.220002e+01	-1.093905e+01
4.244377e+01	-1.098527e+01
4.268892e+01	-1.103151e+01
4.293549e+01	-1.107805e+01
4.318348e+01	-1.112380e+01
4.343291e+01	-1.116994e+01
4.368377e+01	-1.121610e+01
4.393609e+01	-1.126214e+01
4.418986e+01	-1.130864e+01
4.444510e+01	-1.135537e+01
4.470182e+01	-1.140136e+01
4.496001e+01	-1.144795e+01
4.521970e+01	-1.149498e+01
4.548089e+01	-1.154048e+01
4.574358e+01	-1.158748e+01
4.600779e+01	-1.163437e+01
4.627353e+01	-1.168075e+01
4.654081e+01	-1.172717e+01
4.680963e+01	-1.177419e+01
4.708000e+01	-1.182077e+01
4.735193e+01	-1.186743e+01
4.762543e+01	-1.191501e+01
4.790051e+01	-1.196139e+01
4.817719e+01	-1.200770e+01
4.845545e+01	-1.205448e+01
4.873533e+01	-1.210172e+01
4.901682e+01	-1.214927e+01
4.929994e+01	-1.219535e+01
4.958470e+01	-1.224282e+01
4.987110e+01	-1.229025e+01
5.015915e+01	-1.233691e+01
5.044887e+01	-1.238363e+01
5.074026e+01	-1.243076e+01
5.103333e+01	-1.247846e+01
5.132810e+01	-1.252577e+01
5.162457e+01	-1.257285e+01
5.192275e+01	-1.262003e+01
5.222265e+01	-1.266766e+01
5.252429e+01	-1.271437e+01
5.282767e+01	-1.276284e+01
5.313280e+01	-1.280985e+01
5.343969e+01	-1.285653e+01
5.374836e+01	-1.290427e+01
5.405880e+01	-1.295233e+01
5.437105e+01	-1.299970e+01
5.468509e+01	-1.304626e+01
5.500095e+01	-1.309427e+01
5.531863e+01	-1.314222e+01
5.563815e+01	-1.318976e+01
5.595951e+01	-1.323695e+01
5.628273e+01	-1.328497e+01
5.660782e+01	-1.333282e+01
5.693479e+01	-1.337970e+01
5.726364e+01	-1.342840e+01
5.759439e+01	-1.347553e+01
5.792705e+01	-1.352400e+01
5.826164e+01	-1.357170e+01
5.859815e+01	-1.361869e+01
5.893662e+01	-1.366719e+01
5.927703e+01	-1.371524e+01
5.961941e+01	-1.376293e+01
5.996377e+01	-1.381163e+01
6.031012e+01	-1.385862e+01
6.065847e+01	-1.390678e+01
6.100883e+01	-1.395474e+01
6.136121e+01	-1.400266e+01
6.171563e+01	-1.405072e+01
6.207210e+01	-1.409893e+01
6.243063e+01	-1.414728e+01
6.279122e+01	-1.419527e+01
6.315390e+01	-1.424319e+01
6.351868e+01	-1.429126e+01
6.388556e+01	-1.433986e+01
6.425456e+01	-1.438809e+01
6.462569e+01	-1.443595e+01
6.499897e+01	-1.448407e+01
6.537440e+01	-1.453179e+01
6.575200e+01	-1.458099e+01
6.613178e+01	-1.462977e+01
6.651375e+01	-1.467724e+01
6.689793e+01	-1.472660e+01
6.728433e+01	-1.477395e+01
6.767297e+01	-1.482213e+01
6.806384e+01	-1.487050e+01
6.845698e+01	-1.491875e+01
6.885238e+01	-1.496769e+01
6.925007e+01	-1.501640e+01
6.965005e+01	-1.506412e+01
7.005235e+01	-1.511333e+01
7.045697e+01	-1.516122e+01
7.086393e+01	-1.521060e+01
7.127323e+01	-1.525887e+01
7.168490e+01	-1.530731e+01
7.209895e+01	-1.535614e+01
7.251539e+01	-1.540410e+01
7.293424e+01	-1.545328e+01
7.335551e+01	-1.550154e+01
7.377920e+01	-1.554927e+01
7.420535e+01	-1.559896e+01
7.463396e+01	-1.564712e+01
7.506504e+01	-1.569598e+01
7.549861e+01	-1.574444e+01
7.593469e+01	-1.579393e+01
7.637328e+01	-1.584133e+01
7.681441e+01	-1.589029e+01
7.725809e+01	-1.593965e+01
7.770433e+01	-1.598891e+01
7.815315e+01	-1.603790e+01
7.860456e+01	-1.608707e+01
7.905857e+01	-1.613499e+01
7.951521e+01	-1.618343e+01
7.997449e+01	-1.623275e+01
8.043642e+01	-1.628230e+01
8.090102e+01	-1.632968e+01
8.136830e+01	-1.637921e+01
8.183828e+01	-1.642787e+01
8.231097e+01	-1.647808e+01
8.278640e+01	-1.652649e+01
8.326457e+01	-1.657409e+01
8.374550e+01	-1.662441e+01
8.422921e+01	-1.667293e+01
8.471572e+01	-1.672191e+01
8.520503e+01	-1.677099e+01
8.569717e+01	-1.682008e+01
8.619215e+01	-1.686914e+01
8.669000e+01	-1.691736e+01
8.719071e+01	-1.696799e+01
8.769432e+01	-1.701672e+01
8.820084e+01	-1.706499e+01
8.871029e+01	-1.711297e+01
8.922267e+01	-1.716418e+01
8.973802e+01	-1.721205e+01
9.025634e+01	-1.726050e+01
9.077766e+01	-1.731016e+01
9.130199e+01	-1.735968e+01
9.182935e+01	-1.740786e+01
9.235975e+01	-1.745764e+01
9.289321e+01	-1.750806e+01
9.342976e+01	-1.755497e+01
9.396941e+01	-1.760412e+01
9.451217e+01	-1.765444e+01
9.505807e+01	-1.770358e+01
9.560712e+01	-1.775373e+01
9.615934e+01	-1.780101e+01
9.671476e+01	-1.785232e+01
9.727338e+01	-1.789938e+01
9.783522e+01	-1.795011e+01
9.840032e+01	-1.799933e+01
9.896867e+01	-1.804745e+01
9.954031e+01	-1.809670e+01
1.001153e+02	-1.814565e+01
1.006935e+02	-1.819606e+01
1.012751e+02	-1.824542e+01
1.018601e+02	-1.829505e+01
1.024484e+02	-1.834358e+01
1.030402e+02	-1.839369e+01
1.036353e+02	-1.844090e+01
1.042339e+02	-1.849061e+01
1.048360e+02	-1.854053e+01
1.054415e+02	-1.859003e+01
1.060505e+02	-1.863901e+01
1.066631e+02	-1.868944e+01
1.072791e+02	-1.873976e+01
1.078988e+02	-1.878753e+01
1.085220e+02	-1.883686e+01
1.091488e+02	-1.888588e+01
1.097793e+02	-1.893563e+01
1.104133e+02	-1.898400e+01
1.110511e+02	-1.903389e+01
1.116925e+02	-1.908341e+01
1.123376e+02	-1.913284e+01
1.129865e+02	-1.918376e+01
1.136391e+02	-1.923237e+01
1.142955e+02	-1.928221e+01
1.149556e+02	-1.933015e+01
1.156196e+02	-1.937846e+01
1.162874e+02	-1.943091e+01
1.169591e+02	-1.947899e+01
1.176347e+02	-1.953000e+01
1.183141e+02	-1.957870e+01
1.189975e+02	-1.962706e+01
1.196848e+02	-1.967557e+01
1.203761e+02	-1.972702e+01
1.210714e+02	-1.977496e+01
1.217707e+02	-1.982519e+01
1.224740e+02	-1.987476e+01
1.231814e+02	-1.992384e+01
1.238929e+02	-1.997425e+01
1.246085e+02	-2.002393e+01
1.253283e+02	-2.007325e+01
1.260522e+02	-2.012202e+01
1.267802e+02	-2.017115e+01
1.275125e+02	-2.022319e+01
1.282490e+02	-2.027078e+01
1.289898e+02	-2.032134e+01
1.297348e+02	-2.037104e+01
1.304842e+02	-2.042014e+01
1.312378e+02	-2.047045e+01
1.319959e+02	-2.052078e+01
1.327583e+02	-2.056867e+01
1.335251e+02	-2.061852e+01
1.342963e+02	-2.066913e+01
1.350720e+02	-2.071844e+01
1.358522e+02	-2.076813e+01
1.366368e+02	-2.081633e+01
1.374260e+02	-2.086823e+01
1.382198e+02	-2.091882e+01
1.390182e+02	-2.096797e+01
1.398211e+02	-2.101494e+01
1.406287e+02	-2.106795e+01
1.414410e+02	-2.111764e+01
1.422579e+02	-2.116397e+01
1.430796e+02	-2.121516e+01
1.439060e+02	-2.126385e+01
1.447372e+02	-2.131321e+01
1.455732e+02	-2.136130e+01
1.464141e+02	-2.141126e+01
1.472597e+02	-2.146322e+01
1.481103e+02	-2.151132e+01
1.489658e+02	-2.156113e+01
1.498262e+02	-2.161210e+01
1.506916e+02	-2.166426e+01
1.515620e+02	-2.171149e+01
1.524374e+02	-2.176396e+01
1.533179e+02	-2.181149e+01
1.542034e+02	-2.186050e+01
1.550941e+02	-2.191011e+01
1.559899e+02	-2.195951e+01
1.568909e+02	-2.200801e+01
1.577971e+02	-2.205911e+01
1.587085e+02	-2.210764e+01
1.596252e+02	-2.215853e+01
1.605472e+02	-2.220949e+01
1.614745e+02	-2.225877e+01
1.624072e+02	-2.230974e+01
1.633453e+02	-2.235999e+01
1.642887e+02	-2.240572e+01
1.652377e+02	-2.245724e+01
1.661921e+02	-2.250785e+01
1.671520e+02	-2.255549e+01
1.681175e+02	-2.260574e+01
1.690885e+02	-2.265441e+01
1.700651e+02	-2.270594e+01
1.710474e+02	-2.275762e+01
1.720354e+02	-2.280650e+01
1.730291e+02	-2.285494e+01
1.740285e+02	-2.290651e+01
1.750337e+02	-2.295467e+01
1.760446e+02	-2.300515e+01
1.770615e+02	-2.305449e+01
1.780842e+02	-2.310548e+01
1.791128e+02	-2.315365e+01
1.801473e+02	-2.320430e+01
1.811878e+02	-2.325321e+01
1.822344e+02	-2.330345e+01
1.832870e+02	-2.335257e+01
1.843456e+02	-2.339951e+01
1.854104e+02	-2.345150e+01
1.864813e+02	-2.350459e+01
1.875584e+02	-2.355567e+01
1.886418e+02	-2.360182e+01
1.897313e+02	-2.365324e+01
1.908272e+02	-2.370146e+01
1.919294e+02	-2.375232e+01
1.930380e+02	-2.380303e+01
1.941530e+02	-2.385103e+01
1.952744e+02	-2.390052e+01
1.964023e+02	-2.395084e+01
1.975367e+02	-2.400091e+01
1.986777e+02	-2.405220e+01
1.998252e+02	-2.410274e+01
2.009794e+02	-2.414924e+01
2.021403e+02	-2.420335e+01
2.033078e+02	-2.425166e+01
2.044821e+02	-2.430227e+01
2.056632e+02	-2.434885e+01
2.068511e+02	-2.439832e+01
2.080459e+02	-2.445281e+01
2.092475e+02	-2.450165e+01
2.104561e+02	-2.454853e+01
2.116717e+02	-2.459753e+01
2.128943e+02	-2.465127e+01
2.141240e+02	-2.469976e+01
2.153608e+02	-2.474869e+01
2.166047e+02	-2.479802e+01
2.178558e+02	-2.484747e+01
2.191141e+02	-2.489673e+01
2.203797e+02	-2.494901e+01
2.216526e+02	-2.499525e+01
2.229329e+02	-2.504703e+01
2.242205e+02	-2.510138e+01
2.255156e+02	-2.514718e+01
2.268182e+02	-2.519820e+01
2.281283e+02	-2.525140e+01
2.294459e+02	-2.529882e+01
2.307712e+02	-2.534853e+01
2.321041e+02	-2.539990e+01
2.334447e+02	-2.544846e+01
2.347931e+02	-2.549919e+01
2.361493e+02	-2.554891e+01
2.375133e+02	-2.560114e+01
2.388851e+02	-2.564499e+01
2.402649e+02	-2.570095e+01
2.416527e+02	-2.575111e+01
2.430484e+02	-2.579805e+01
2.444523e+02	-2.584733e+01
2.458642e+02	-2.589951e+01
2.472843e+02	-2.594527e+01
2.487126e+02	-2.600247e+01
2.501492e+02	-2.605006e+01
2.515940e+02	-2.609795e+01
2.530472e+02	-2.614867e+01
2.545088e+02	-2.619663e+01
2.559789e+02	-2.624579e+01
2.574574e+02	-2.629839e+01
2.589444e+02	-2.634884e+01
2.604401e+02	-2.639533e+01
2.619444e+02	-2.644577e+01
2.634574e+02	-2.649718e+01
2.649791e+02	-2.654670e+01
2.665096e+02	-2.659689e+01
2.680489e+02	-2.664732e+01
2.695972e+02	-2.669515e+01
2.711544e+02	-2.674959e+01
2.727205e+02	-2.679720e+01
2.742958e+02	-2.684629e+01
2.758801e+02	-2.690070e+01
2.774736e+02	-2.694926e+01
2.790762e+02	-2.699401e+01
2.806882e+02	-2.704479e+01
2.823094e+02	-2.710034e+01
2.839400e+02	-2.714740e+01
2.855800e+02	-2.719853e+01
2.872295e+02	-2.724673e+01
2.888886e+02	-2.729794e+01
2.905572e+02	-2.734811e+01
2.922354e+02	-2.739459e+01
2.939234e+02	-2.744799e+01
2.956211e+02	-2.749960e+01
2.973286e+02	-2.754626e+01
2.990459e+02	-2.759603e+01
3.007732e+02	-2.764959e+01
3.025104e+02	-2.769249e+01
3.042577e+02	-2.774537e+01
3.060151e+02	-2.779274e+01
3.077826e+02	-2.785139e+01
3.095604e+02	-2.789645e+01
3.113484e+02	-2.794575e+01
3.131467e+02	-2.799322e+01
3.149554e+02	-2.804357e+01
3.167746e+02	-2.809974e+01
3.186043e+02	-2.814523e+01
3.204445e+02	-2.819843e+01
3.222954e+02	-2.824092e+01
3.241570e+02	-2.830022e+01
3.260293e+02	-2.834842e+01
3.279124e+02	-2.839482e+01
3.298064e+02	-2.844376e+01
3.317114e+02	-2.849666e+01
3.336273e+02	-2.854634e+01
3.355544e+02	-2.859231e+01
3.374925e+02	-2.864849e+01
3.394418e+02	-2.869819e+01
3.414024e+02	-2.875008e+01
3.433744e+02	-2.879679e+01
3.453577e+02	-2.884767e+01
3.473525e+02	-2.889237e+01
3.493588e+02	-2.895035e+01
3.513766e+02	-2.899815e+01
3.534062e+02	-2.904613e+01
3.554474e+02	-2.910198e+01
3.575005e+02	-2.914589e+01
3.595654e+02	-2.919565e+01
3.616422e+02	-2.924984e+01
3.637311e+02	-2.929967e+01
3.658320e+02	-2.935158e+01
3.679450e+02	-2.939717e+01
3.700702e+02	-2.945340e+01
3.722077e+02	-2.950004e+01
3.743576e+02	-2.954733e+01
3.765199e+02	-2.959668e+01
3.786946e+02	-2.964405e+01
3.808820e+02	-2.969520e+01
3.830819e+02	-2.974812e+01
3.852946e+02	-2.979751e+01
3.875200e+02	-2.984873e+01
3.897583e+02	-2.989736e+01
3.920096e+02	-2.994855e+01
3.942738e+02	-3.000116e+01
3.965511e+02	-3.004877e+01
3.988416e+02	-3.010377e+01
4.011452e+02	-3.014750e+01
4.034622e+02	-3.020102e+01
4.057926e+02	-3.024634e+01
4.081365e+02	-3.030144e+01
4.104938e+02	-3.035439e+01
4.128648e+02	-3.040298e+01
4.152495e+02	-3.045424e+01
4.176480e+02	-3.050171e+01
4.200603e+02	-3.055385e+01
4.224866e+02	-3.060676e+01
4.249268e+02	-3.064923e+01
4.273812e+02	-3.070513e+01
4.298497e+02	-3.074771e+01
4.323325e+02	-3.080214e+01
4.348297e+02	-3.085420e+01
4.373412e+02	-3.090444e+01
4.398673e+02	-3.095493e+01
4.424079e+02	-3.100737e+01
4.449633e+02	-3.105447e+01
4.475334e+02	-3.110158e+01
4.501183e+02	-3.114930e+01
4.527182e+02	-3.120581e+01
4.553330e+02	-3.125040e+01
4.579630e+02	-3.130324e+01
4.606082e+02	-3.135502e+01
4.632687e+02	-3.139995e+01
4.659445e+02	-3.145270e+01
4.686358e+02	-3.150599e+01
4.713426e+02	-3.155082e+01
4.740650e+02	-3.161002e+01
4.768032e+02	-3.165721e+01
4.795572e+02	-3.170311e+01
4.823271e+02	-3.175713e+01
4.851130e+02	-3.180413e+01
4.879150e+02	-3.185724e+01
4.907332e+02	-3.190630e+01
4.935676e+02	-3.195767e+01
4.964185e+02	-3.201119e+01
4.992858e+02	-3.205406e+01
5.021696e+02	-3.210886e+01
5.050701e+02	-3.216415e+01
5.079874e+02	-3.220827e+01
5.109215e+02	-3.225666e+01
5.138726e+02	-3.230352e+01
5.168407e+02	-3.236378e+01
5.198259e+02	-3.240780e+01
5.228284e+02	-3.245653e+01
5.258482e+02	-3.250524e+01
5.288855e+02	-3.255389e+01
5.319403e+02	-3.260452e+01
5.350128e+02	-3.265480e+01
5.381030e+02	-3.271442e+01
5.412111e+02	-3.276124e+01
5.443371e+02	-3.280735e+01
5.474812e+02	-3.285894e+01
5.506434e+02	-3.290961e+01
5.538239e+02	-3.296057e+01
5.570228e+02	-3.301547e+01
5.602401e+02	-3.306900e+01
5.634760e+02	-3.310915e+01
5.667306e+02	-3.315962e+01
5.700040e+02	-3.320835e+01
5.732964e+02	-3.326821e+01
5.766077e+02	-3.331028e+01
5.799382e+02	-3.335169e+01
5.832879e+02	-3.341407e+01
5.866569e+02	-3.347162e+01
5.900454e+02	-3.351378e+01
5.934535e+02	-3.356429e+01
5.968813e+02	-3.360895e+01
6.003288e+02	-3.366909e+01
6.037963e+02	-3.371373e+01
6.072838e+02	-3.376594e+01
6.107914e+02	-3.381909e+01
6.143194e+02	-3.386281e+01
6.178676e+02	-3.391252e+01
6.214364e+02	-3.396578e+01
6.250258e+02	-3.401859e+01
6.286359e+02	-3.406852e+01
6.322669e+02	-3.412172e+01
6.359189e+02	-3.416536e+01
6.395919e+02	-3.422831e+01
6.432862e+02	-3.426637e+01
6.470017e+02	-3.432510e+01
6.507388e+02	-3.437431e+01
6.544974e+02	-3.441805e+01
6.582778e+02	-3.446164e+01
6.620800e+02	-3.452282e+01
6.659041e+02	-3.457099e+01
6.697504e+02	-3.461914e+01
6.736188e+02	-3.467911e+01
6.775096e+02	-3.471946e+01
6.814229e+02	-3.476841e+01
6.853587e+02	-3.481500e+01
6.893173e+02	-3.486911e+01
6.932988e+02	-3.492218e+01
6.973033e+02	-3.497105e+01
7.013309e+02	-3.502658e+01
