Frequency(Hz)	Magnitude(dB)
1.000000e+01	-1.687423e-05
1.005776e+01	-1.706972e-05
1.011585e+01	-1.726748e-05
1.017428e+01	-1.746753e-05
1.023305e+01	-1.766989e-05
1.029215e+01	-1.787460e-05
1.035160e+01	-1.808169e-05
1.041139e+01	-1.829117e-05
1.047153e+01	-1.850308e-05
1.053201e+01	-1.871744e-05
1.059284e+01	-1.893428e-05
1.065403e+01	-1.915364e-05
1.071556e+01	-1.937554e-05
1.077746e+01	-1.960001e-05
1.083971e+01	-1.982708e-05
1.090232e+01	-2.005679e-05
1.096529e+01	-2.028915e-05
1.102862e+01	-2.052420e-05
1.109232e+01	-2.076198e-05
1.115639e+01	-2.100252e-05
1.122083e+01	-2.124583e-05
1.128564e+01	-2.149197e-05
1.135083e+01	-2.174096e-05
1.141639e+01	-2.199284e-05
1.148233e+01	-2.224763e-05
1.154865e+01	-2.250537e-05
1.161536e+01	-2.276610e-05
1.168245e+01	-2.302986e-05
1.174992e+01	-2.329666e-05
1.181779e+01	-2.356656e-05
1.188605e+01	-2.383958e-05
1.195470e+01	-2.411577e-05
1.202375e+01	-2.439516e-05
1.209320e+01	-2.467778e-05
1.216305e+01	-2.496368e-05
1.223330e+01	-2.525289e-05
1.230396e+01	-2.554545e-05
1.237503e+01	-2.584140e-05
1.244651e+01	-2.614078e-05
1.251840e+01	-2.644363e-05
1.259070e+01	-2.674999e-05
1.266343e+01	-2.705989e-05
1.273657e+01	-2.737339e-05
1.281014e+01	-2.769051e-05
1.288413e+01	-2.801131e-05
1.295855e+01	-2.833583e-05
1.303339e+01	-2.866411e-05
1.310867e+01	-2.899619e-05
1.318439e+01	-2.933212e-05
1.326054e+01	-2.967194e-05
1.333713e+01	-3.001569e-05
1.341417e+01	-3.036343e-05
1.349165e+01	-3.071520e-05
1.356958e+01	-3.107104e-05
1.364795e+01	-3.143101e-05
1.372678e+01	-3.179514e-05
1.380607e+01	-3.216350e-05
1.388581e+01	-3.253612e-05
1.396602e+01	-3.291306e-05
1.404668e+01	-3.329437e-05
1.412782e+01	-3.368009e-05
1.420942e+01	-3.407028e-05
1.429149e+01	-3.446499e-05
1.437404e+01	-3.486428e-05
1.445706e+01	-3.526819e-05
1.454057e+01	-3.567678e-05
1.462455e+01	-3.609010e-05
1.470902e+01	-3.650821e-05
1.479398e+01	-3.693117e-05
1.487943e+01	-3.735903e-05
1.496537e+01	-3.779184e-05
1.505181e+01	-3.822967e-05
1.513875e+01	-3.867257e-05
1.522619e+01	-3.912060e-05
1.531414e+01	-3.957382e-05
1.540259e+01	-4.003229e-05
1.549156e+01	-4.049607e-05
1.558103e+01	-4.096523e-05
1.567103e+01	-4.143982e-05
1.576155e+01	-4.191991e-05
1.585258e+01	-4.240556e-05
1.594415e+01	-4.289684e-05
1.603624e+01	-4.339381e-05
1.612886e+01	-4.389653e-05
1.622202e+01	-4.440509e-05
1.631572e+01	-4.491953e-05
1.640996e+01	-4.543993e-05
1.650474e+01	-4.596636e-05
1.660008e+01	-4.649889e-05
1.669596e+01	-4.703759e-05
1.679239e+01	-4.758253e-05
1.688938e+01	-4.813379e-05
1.698694e+01	-4.869143e-05
1.708505e+01	-4.925553e-05
1.718373e+01	-4.982616e-05
1.728299e+01	-5.040341e-05
1.738281e+01	-5.098734e-05
1.748322e+01	-5.157804e-05
1.758420e+01	-5.217559e-05
1.768576e+01	-5.278005e-05
1.778792e+01	-5.339152e-05
1.789066e+01	-5.401007e-05
1.799399e+01	-5.463579e-05
1.809793e+01	-5.526876e-05
1.820246e+01	-5.590906e-05
1.830760e+01	-5.655677e-05
1.841334e+01	-5.721200e-05
1.851969e+01	-5.787481e-05
1.862666e+01	-5.854530e-05
1.873425e+01	-5.922356e-05
1.884246e+01	-5.990968e-05
1.895129e+01	-6.060374e-05
1.906075e+01	-6.130585e-05
1.917085e+01	-6.201609e-05
1.928158e+01	-6.273456e-05
1.939295e+01	-6.346135e-05
1.950496e+01	-6.419656e-05
1.961762e+01	-6.494029e-05
1.973093e+01	-6.569264e-05
1.984490e+01	-6.645370e-05
1.995952e+01	-6.722358e-05
2.007480e+01	-6.800237e-05
2.019076e+01	-6.879019e-05
2.030738e+01	-6.958714e-05
2.042467e+01	-7.039332e-05
2.054264e+01	-7.120884e-05
2.066130e+01	-7.203381e-05
2.078064e+01	-7.286833e-05
2.090066e+01	-7.371253e-05
2.102139e+01	-7.456650e-05
2.114280e+01	-7.543036e-05
2.126492e+01	-7.630424e-05
2.138775e+01	-7.718824e-05
2.151128e+01	-7.808248e-05
2.163553e+01	-7.898708e-05
2.176050e+01	-7.990215e-05
2.188619e+01	-8.082783e-05
2.201260e+01	-8.176424e-05
2.213974e+01	-8.271149e-05
2.226762e+01	-8.366972e-05
2.239624e+01	-8.463905e-05
2.252560e+01	-8.561960e-05
2.265571e+01	-8.661152e-05
2.278656e+01	-8.761493e-05
2.291818e+01	-8.862996e-05
2.305055e+01	-8.965675e-05
2.318369e+01	-9.069544e-05
2.331760e+01	-9.174616e-05
2.345228e+01	-9.280906e-05
2.358774e+01	-9.388426e-05
2.372398e+01	-9.497193e-05
2.386101e+01	-9.607219e-05
2.399883e+01	-9.718520e-05
2.413745e+01	-9.831111e-05
2.427686e+01	-9.945006e-05
2.441709e+01	-1.006022e-04
2.455812e+01	-1.017677e-04
2.469997e+01	-1.029467e-04
2.484263e+01	-1.041393e-04
2.498612e+01	-1.053458e-04
2.513044e+01	-1.065662e-04
2.527559e+01	-1.078008e-04
2.542158e+01	-1.090497e-04
2.556842e+01	-1.103131e-04
2.571610e+01	-1.115911e-04
2.586463e+01	-1.128839e-04
2.601403e+01	-1.141916e-04
2.616428e+01	-1.155146e-04
2.631541e+01	-1.168528e-04
2.646740e+01	-1.182066e-04
2.662028e+01	-1.195760e-04
2.677404e+01	-1.209613e-04
2.692868e+01	-1.223627e-04
2.708422e+01	-1.237802e-04
2.724066e+01	-1.252143e-04
2.739800e+01	-1.266649e-04
2.755625e+01	-1.281323e-04
2.771541e+01	-1.296167e-04
2.787550e+01	-1.311183e-04
2.803650e+01	-1.326374e-04
2.819844e+01	-1.341740e-04
2.836131e+01	-1.357284e-04
2.852513e+01	-1.373008e-04
2.868989e+01	-1.388915e-04
2.885560e+01	-1.405005e-04
2.902227e+01	-1.421283e-04
2.918990e+01	-1.437748e-04
2.935850e+01	-1.454405e-04
2.952807e+01	-1.471254e-04
2.969863e+01	-1.488299e-04
2.987016e+01	-1.505541e-04
3.004269e+01	-1.522983e-04
3.021622e+01	-1.540626e-04
3.039075e+01	-1.558475e-04
3.056628e+01	-1.576530e-04
3.074283e+01	-1.594794e-04
3.092040e+01	-1.613270e-04
3.109900e+01	-1.631959e-04
3.127862e+01	-1.650866e-04
3.145929e+01	-1.669991e-04
3.164099e+01	-1.689338e-04
3.182375e+01	-1.708909e-04
3.200756e+01	-1.728707e-04
3.219244e+01	-1.748734e-04
3.237838e+01	-1.768993e-04
3.256540e+01	-1.789487e-04
3.275349e+01	-1.810218e-04
3.294268e+01	-1.831190e-04
3.313295e+01	-1.852404e-04
3.332433e+01	-1.873864e-04
3.351681e+01	-1.895573e-04
3.371040e+01	-1.917533e-04
3.390511e+01	-1.939748e-04
3.410094e+01	-1.962220e-04
3.429791e+01	-1.984953e-04
3.449601e+01	-2.007948e-04
3.469526e+01	-2.031210e-04
3.489566e+01	-2.054742e-04
3.509721e+01	-2.078546e-04
3.529993e+01	-2.102626e-04
3.550382e+01	-2.126985e-04
3.570889e+01	-2.151626e-04
3.591515e+01	-2.176553e-04
3.612259e+01	-2.201768e-04
3.633123e+01	-2.227275e-04
3.654108e+01	-2.253078e-04
3.675214e+01	-2.279180e-04
3.696442e+01	-2.305584e-04
3.717792e+01	-2.332295e-04
3.739266e+01	-2.359314e-04
3.760864e+01	-2.386647e-04
3.782587e+01	-2.414296e-04
3.804435e+01	-2.442265e-04
3.826409e+01	-2.470559e-04
3.848510e+01	-2.499180e-04
3.870739e+01	-2.528133e-04
3.893096e+01	-2.557421e-04
3.915583e+01	-2.587049e-04
3.938199e+01	-2.617020e-04
3.960946e+01	-2.647338e-04
3.983824e+01	-2.678007e-04
4.006834e+01	-2.709031e-04
4.029978e+01	-2.740415e-04
4.053255e+01	-2.772163e-04
4.076666e+01	-2.804278e-04
4.100213e+01	-2.836765e-04
4.123896e+01	-2.869629e-04
4.147715e+01	-2.902873e-04
4.171672e+01	-2.936503e-04
4.195767e+01	-2.970522e-04
4.220002e+01	-3.004935e-04
4.244377e+01	-3.039746e-04
4.268892e+01	-3.074962e-04
4.293549e+01	-3.110585e-04
4.318348e+01	-3.146620e-04
4.343291e+01	-3.183073e-04
4.368377e+01	-3.219949e-04
4.393609e+01	-3.257251e-04
4.418986e+01	-3.294986e-04
4.444510e+01	-3.333158e-04
4.470182e+01	-3.371772e-04
4.496001e+01	-3.410833e-04
4.521970e+01	-3.450347e-04
4.548089e+01	-3.490319e-04
4.574358e+01	-3.530754e-04
4.600779e+01	-3.571657e-04
4.627353e+01	-3.613034e-04
4.654081e+01	-3.654890e-04
4.680963e+01	-3.697231e-04
4.708000e+01	-3.740063e-04
4.735193e+01	-3.783390e-04
4.762543e+01	-3.827220e-04
4.790051e+01	-3.871557e-04
4.817719e+01	-3.916408e-04
4.845545e+01	-3.961779e-04
4.873533e+01	-4.007675e-04
4.901682e+01	-4.054103e-04
4.929994e+01	-4.101069e-04
4.958470e+01	-4.148579e-04
4.987110e+01	-4.196639e-04
5.015915e+01	-4.245256e-04
5.044887e+01	-4.294436e-04
5.074026e+01	-4.344185e-04
5.103333e+01	-4.394511e-04
5.132810e+01	-4.445420e-04
5.162457e+01	-4.496919e-04
5.192275e+01	-4.549014e-04
5.222265e+01	-4.601713e-04
5.252429e+01	-4.655023e-04
5.282767e+01	-4.708949e-04
5.313280e+01	-4.763501e-04
5.343969e+01	-4.818684e-04
5.374836e+01	-4.874507e-04
5.405880e+01	-4.930976e-04
5.437105e+01	-4.988100e-04
5.468509e+01	-5.045885e-04
5.500095e+01	-5.104339e-04
5.531863e+01	-5.163471e-04
5.563815e+01	-5.223288e-04
5.595951e+01	-5.283797e-04
5.628273e+01	-5.345008e-04
5.660782e+01	-5.406927e-04
5.693479e+01	-5.469564e-04
5.726364e+01	-5.532926e-04
5.759439e+01	-5.597023e-04
5.792705e+01	-5.661862e-04
5.826164e+01	-5.727451e-04
5.859815e+01	-5.793801e-04
5.893662e+01	-5.860919e-04
5.927703e+01	-5.928815e-04
5.961941e+01	-5.997497e-04
5.996377e+01	-6.066975e-04
6.031012e+01	-6.137258e-04
6.065847e+01	-6.208354e-04
6.100883e+01	-6.280275e-04
6.136121e+01	-6.353028e-04
6.171563e+01	-6.426624e-04
6.207210e+01	-6.501073e-04
6.243063e+01	-6.576384e-04
6.279122e+01	-6.652567e-04
6.315390e+01	-6.729633e-04
6.351868e+01	-6.807592e-04
6.388556e+01	-6.886453e-04
6.425456e+01	-6.966228e-04
6.462569e+01	-7.046927e-04
6.499897e+01	-7.128561e-04
6.537440e+01	-7.211141e-04
6.575200e+01	-7.294677e-04
6.613178e+01	-7.379180e-04
6.651375e+01	-7.464663e-04
6.689793e+01	-7.551136e-04
6.728433e+01	-7.638610e-04
6.767297e+01	-7.727097e-04
6.806384e+01	-7.816610e-04
6.845698e+01	-7.907159e-04
6.885238e+01	-7.998757e-04
6.925007e+01	-8.091417e-04
6.965005e+01	-8.185149e-04
7.005235e+01	-8.279967e-04
7.045697e+01	-8.375884e-04
7.086393e+01	-8.472911e-04
7.127323e+01	-8.571062e-04
7.168490e+01	-8.670351e-04
7.209895e+01	-8.770789e-04
7.251539e+01	-8.872390e-04
7.293424e+01	-8.975169e-04
7.335551e+01	-9.079138e-04
7.377920e+01	-9.184311e-04
7.420535e+01	-9.290702e-04
7.463396e+01	-9.398326e-04
7.506504e+01	-9.507196e-04
7.549861e+01	-9.617327e-04
7.593469e+01	-9.728734e-04
7.637328e+01	-9.841432e-04
7.681441e+01	-9.955434e-04
7.725809e+01	-1.007076e-03
7.770433e+01	-1.018742e-03
7.815315e+01	-1.030543e-03
7.860456e+01	-1.042480e-03
7.905857e+01	-1.054556e-03
7.951521e+01	-1.066772e-03
7.997449e+01	-1.079129e-03
8.043642e+01	-1.091630e-03
8.090102e+01	-1.104275e-03
8.136830e+01	-1.117067e-03
8.183828e+01	-1.130007e-03
8.231097e+01	-1.143096e-03
8.278640e+01	-1.156338e-03
8.326457e+01	-1.169732e-03
8.374550e+01	-1.183282e-03
8.422921e+01	-1.196989e-03
8.471572e+01	-1.210854e-03
8.520503e+01	-1.224880e-03
8.569717e+01	-1.239069e-03
8.619215e+01	-1.253422e-03
8.669000e+01	-1.267941e-03
8.719071e+01	-1.282628e-03
8.769432e+01	-1.297486e-03
8.820084e+01	-1.312515e-03
8.871029e+01	-1.327719e-03
8.922267e+01	-1.343098e-03
8.973802e+01	-1.358656e-03
9.025634e+01	-1.374394e-03
9.077766e+01	-1.390314e-03
9.130199e+01	-1.406419e-03
9.182935e+01	-1.422710e-03
9.235975e+01	-1.439189e-03
9.289321e+01	-1.455860e-03
9.342976e+01	-1.472724e-03
9.396941e+01	-1.489783e-03
9.451217e+01	-1.507039e-03
9.505807e+01	-1.524495e-03
9.560712e+01	-1.542154e-03
9.615934e+01	-1.560017e-03
9.671476e+01	-1.578087e-03
9.727338e+01	-1.596366e-03
9.783522e+01	-1.614857e-03
9.840032e+01	-1.633562e-03
9.896867e+01	-1.652484e-03
9.954031e+01	-1.671625e-03
1.001153e+02	-1.690987e-03
1.006935e+02	-1.710574e-03
1.012751e+02	-1.730387e-03
1.018601e+02	-1.750430e-03
1.024484e+02	-1.770705e-03
1.030402e+02	-1.791215e-03
1.036353e+02	-1.811963e-03
1.042339e+02	-1.832950e-03
1.048360e+02	-1.854181e-03
1.054415e+02	-1.875657e-03
1.060505e+02	-1.897383e-03
1.066631e+02	-1.919359e-03
1.072791e+02	-1.941591e-03
1.078988e+02	-1.964079e-03
1.085220e+02	-1.986829e-03
1.091488e+02	-2.009841e-03
1.097793e+02	-2.033120e-03
1.104133e+02	-2.056669e-03
1.110511e+02	-2.080490e-03
1.116925e+02	-2.104588e-03
1.123376e+02	-2.128964e-03
1.129865e+02	-2.153622e-03
1.136391e+02	-2.178566e-03
1.142955e+02	-2.203799e-03
1.149556e+02	-2.229324e-03
1.156196e+02	-2.255145e-03
1.162874e+02	-2.281264e-03
1.169591e+02	-2.307686e-03
1.176347e+02	-2.334414e-03
1.183141e+02	-2.361452e-03
1.189975e+02	-2.388802e-03
1.196848e+02	-2.416470e-03
1.203761e+02	-2.444457e-03
1.210714e+02	-2.472769e-03
1.217707e+02	-2.501408e-03
1.224740e+02	-2.530379e-03
1.231814e+02	-2.559686e-03
1.238929e+02	-2.589331e-03
1.246085e+02	-2.619320e-03
1.253283e+02	-2.649657e-03
1.260522e+02	-2.680344e-03
1.267802e+02	-2.711387e-03
1.275125e+02	-2.742789e-03
1.282490e+02	-2.774555e-03
1.289898e+02	-2.806689e-03
1.297348e+02	-2.839194e-03
1.304842e+02	-2.872076e-03
1.312378e+02	-2.905339e-03
1.319959e+02	-2.938986e-03
1.327583e+02	-2.973024e-03
1.335251e+02	-3.007455e-03
1.342963e+02	-3.042285e-03
1.350720e+02	-3.077518e-03
1.358522e+02	-3.113159e-03
1.366368e+02	-3.149213e-03
1.374260e+02	-3.185684e-03
1.382198e+02	-3.222577e-03
1.390182e+02	-3.259897e-03
1.398211e+02	-3.297650e-03
1.406287e+02	-3.335839e-03
1.414410e+02	-3.374471e-03
1.422579e+02	-3.413550e-03
1.430796e+02	-3.453081e-03
1.439060e+02	-3.493069e-03
1.447372e+02	-3.533521e-03
1.455732e+02	-3.574441e-03
1.464141e+02	-3.615834e-03
1.472597e+02	-3.657707e-03
1.481103e+02	-3.700065e-03
1.489658e+02	-3.742912e-03
1.498262e+02	-3.786256e-03
1.506916e+02	-3.830101e-03
1.515620e+02	-3.874454e-03
1.524374e+02	-3.919321e-03
1.533179e+02	-3.964706e-03
1.542034e+02	-4.010617e-03
1.550941e+02	-4.057059e-03
1.559899e+02	-4.104039e-03
1.568909e+02	-4.151563e-03
1.577971e+02	-4.199636e-03
1.587085e+02	-4.248266e-03
1.596252e+02	-4.297459e-03
1.605472e+02	-4.347221e-03
1.614745e+02	-4.397560e-03
1.624072e+02	-4.448480e-03
1.633453e+02	-4.499990e-03
1.642887e+02	-4.552097e-03
1.652377e+02	-4.604806e-03
1.661921e+02	-4.658125e-03
1.671520e+02	-4.712061e-03
1.681175e+02	-4.766622e-03
1.690885e+02	-4.821813e-03
1.700651e+02	-4.877644e-03
1.710474e+02	-4.934121e-03
1.720354e+02	-4.991251e-03
1.730291e+02	-5.049042e-03
1.740285e+02	-5.107502e-03
1.750337e+02	-5.166638e-03
1.760446e+02	-5.226459e-03
1.770615e+02	-5.286972e-03
1.780842e+02	-5.348185e-03
1.791128e+02	-5.410107e-03
1.801473e+02	-5.472744e-03
1.811878e+02	-5.536107e-03
1.822344e+02	-5.600203e-03
1.832870e+02	-5.665040e-03
1.843456e+02	-5.730628e-03
1.854104e+02	-5.796974e-03
1.864813e+02	-5.864088e-03
1.875584e+02	-5.931979e-03
1.886418e+02	-6.000654e-03
1.897313e+02	-6.070125e-03
1.908272e+02	-6.140399e-03
1.919294e+02	-6.211486e-03
1.930380e+02	-6.283396e-03
1.941530e+02	-6.356137e-03
1.952744e+02	-6.429720e-03
1.964023e+02	-6.504154e-03
1.975367e+02	-6.579449e-03
1.986777e+02	-6.655615e-03
1.998252e+02	-6.732662e-03
2.009794e+02	-6.810600e-03
2.021403e+02	-6.889440e-03
2.033078e+02	-6.969192e-03
2.044821e+02	-7.049866e-03
2.056632e+02	-7.131473e-03
2.068511e+02	-7.214024e-03
2.080459e+02	-7.297530e-03
2.092475e+02	-7.382002e-03
2.104561e+02	-7.467450e-03
2.116717e+02	-7.553887e-03
2.128943e+02	-7.641324e-03
2.141240e+02	-7.729771e-03
2.153608e+02	-7.819242e-03
2.166047e+02	-7.909747e-03
2.178558e+02	-8.001299e-03
2.191141e+02	-8.093909e-03
2.203797e+02	-8.187591e-03
2.216526e+02	-8.282355e-03
2.229329e+02	-8.378216e-03
2.242205e+02	-8.475184e-03
2.255156e+02	-8.573274e-03
2.268182e+02	-8.672498e-03
2.281283e+02	-8.772870e-03
2.294459e+02	-8.874402e-03
2.307712e+02	-8.977107e-03
2.321041e+02	-9.081000e-03
2.334447e+02	-9.186094e-03
2.347931e+02	-9.292403e-03
2.361493e+02	-9.399941e-03
2.375133e+02	-9.508722e-03
2.388851e+02	-9.618761e-03
2.402649e+02	-9.730072e-03
2.416527e+02	-9.842669e-03
2.430484e+02	-9.956567e-03
2.444523e+02	-1.007178e-02
2.458642e+02	-1.018833e-02
2.472843e+02	-1.030622e-02
2.487126e+02	-1.042548e-02
2.501492e+02	-1.054611e-02
2.515940e+02	-1.066814e-02
2.530472e+02	-1.079158e-02
2.545088e+02	-1.091645e-02
2.559789e+02	-1.104276e-02
2.574574e+02	-1.117052e-02
2.589444e+02	-1.129977e-02
2.604401e+02	-1.143051e-02
2.619444e+02	-1.156276e-02
2.634574e+02	-1.169653e-02
2.649791e+02	-1.183185e-02
2.665096e+02	-1.196874e-02
2.680489e+02	-1.210721e-02
2.695972e+02	-1.224727e-02
2.711544e+02	-1.238896e-02
2.727205e+02	-1.253228e-02
2.742958e+02	-1.267726e-02
2.758801e+02	-1.282391e-02
2.774736e+02	-1.297225e-02
2.790762e+02	-1.312231e-02
2.806882e+02	-1.327410e-02
2.823094e+02	-1.342765e-02
2.839400e+02	-1.358297e-02
2.855800e+02	-1.374008e-02
2.872295e+02	-1.389901e-02
2.888886e+02	-1.405977e-02
2.905572e+02	-1.422239e-02
2.922354e+02	-1.438688e-02
2.939234e+02	-1.455328e-02
2.956211e+02	-1.472160e-02
2.973286e+02	-1.489186e-02
2.990459e+02	-1.506408e-02
3.007732e+02	-1.523830e-02
3.025104e+02	-1.541452e-02
3.042577e+02	-1.559278e-02
3.060151e+02	-1.577310e-02
3.077826e+02	-1.595550e-02
3.095604e+02	-1.614000e-02
3.113484e+02	-1.632663e-02
3.131467e+02	-1.651542e-02
3.149554e+02	-1.670639e-02
3.167746e+02	-1.689956e-02
3.186043e+02	-1.709495e-02
3.204445e+02	-1.729261e-02
3.222954e+02	-1.749254e-02
3.241570e+02	-1.769478e-02
3.260293e+02	-1.789936e-02
3.279124e+02	-1.810629e-02
3.298064e+02	-1.831562e-02
3.317114e+02	-1.852735e-02
3.336273e+02	-1.874153e-02
3.355544e+02	-1.895818e-02
3.374925e+02	-1.917733e-02
3.394418e+02	-1.939901e-02
3.414024e+02	-1.962324e-02
3.433744e+02	-1.985006e-02
3.453577e+02	-2.007949e-02
3.473525e+02	-2.031157e-02
3.493588e+02	-2.054633e-02
3.513766e+02	-2.078379e-02
3.534062e+02	-2.102399e-02
3.554474e+02	-2.126696e-02
3.575005e+02	-2.151273e-02
3.595654e+02	-2.176134e-02
3.616422e+02	-2.201281e-02
3.637311e+02	-2.226718e-02
3.658320e+02	-2.252448e-02
3.679450e+02	-2.278474e-02
3.700702e+02	-2.304800e-02
3.722077e+02	-2.331430e-02
3.743576e+02	-2.358367e-02
3.765199e+02	-2.385614e-02
3.786946e+02	-2.413175e-02
3.808820e+02	-2.441053e-02
3.830819e+02	-2.469253e-02
3.852946e+02	-2.497777e-02
3.875200e+02	-2.526630e-02
3.897583e+02	-2.555815e-02
3.920096e+02	-2.585337e-02
3.942738e+02	-2.615198e-02
3.965511e+02	-2.645403e-02
3.988416e+02	-2.675956e-02
4.011452e+02	-2.706861e-02
4.034622e+02	-2.738121e-02
4.057926e+02	-2.769742e-02
4.081365e+02	-2.801726e-02
4.104938e+02	-2.834078e-02
4.128648e+02	-2.866803e-02
4.152495e+02	-2.899905e-02
4.176480e+02	-2.933387e-02
4.200603e+02	-2.967255e-02
4.224866e+02	-3.001512e-02
4.249268e+02	-3.036163e-02
4.273812e+02	-3.071213e-02
4.298497e+02	-3.106666e-02
4.323325e+02	-3.142527e-02
4.348297e+02	-3.178801e-02
4.373412e+02	-3.215491e-02
4.398673e+02	-3.252603e-02
4.424079e+02	-3.290143e-02
4.449633e+02	-3.328113e-02
4.475334e+02	-3.366520e-02
4.501183e+02	-3.405369e-02
4.527182e+02	-3.444664e-02
4.553330e+02	-3.484411e-02
4.579630e+02	-3.524615e-02
4.606082e+02	-3.565280e-02
4.632687e+02	-3.606413e-02
4.659445e+02	-3.648018e-02
4.686358e+02	-3.690101e-02
4.713426e+02	-3.732668e-02
4.740650e+02	-3.775723e-02
4.768032e+02	-3.819273e-02
4.795572e+02	-3.863323e-02
4.823271e+02	-3.907879e-02
4.851130e+02	-3.952946e-02
4.879150e+02	-3.998531e-02
4.907332e+02	-4.044638e-02
4.935676e+02	-4.091275e-02
4.964185e+02	-4.138447e-02
4.992858e+02	-4.186161e-02
5.021696e+02	-4.234421e-02
5.050701e+02	-4.283236e-02
5.079874e+02	-4.332610e-02
5.109215e+02	-4.382551e-02
5.138726e+02	-4.433064e-02
5.168407e+02	-4.484156e-02
5.198259e+02	-4.535835e-02
5.228284e+02	-4.588105e-02
5.258482e+02	-4.640975e-02
5.288855e+02	-4.694451e-02
5.319403e+02	-4.748539e-02
5.350128e+02	-4.803248e-02
5.381030e+02	-4.858583e-02
5.412111e+02	-4.914551e-02
5.443371e+02	-4.971161e-02
5.474812e+02	-5.028420e-02
5.506434e+02	-5.086333e-02
5.538239e+02	-5.144910e-02
5.570228e+02	-5.204158e-02
5.602401e+02	-5.264083e-02
5.634760e+02	-5.324694e-02
5.667306e+02	-5.385999e-02
5.700040e+02	-5.448005e-02
5.732964e+02	-5.510721e-02
5.766077e+02	-5.574154e-02
5.799382e+02	-5.638312e-02
5.832879e+02	-5.703204e-02
5.866569e+02	-5.768838e-02
5.900454e+02	-5.835221e-02
5.934535e+02	-5.902364e-02
5.968813e+02	-5.970274e-02
6.003288e+02	-6.038960e-02
6.037963e+02	-6.108430e-02
6.072838e+02	-6.178694e-02
6.107914e+02	-6.249760e-02
6.143194e+02	-6.321638e-02
6.178676e+02	-6.394336e-02
6.214364e+02	-6.467864e-02
6.250258e+02	-6.542231e-02
6.286359e+02	-6.617447e-02
6.322669e+02	-6.693520e-02
6.359189e+02	-6.770462e-02
6.395919e+02	-6.848280e-02
6.432862e+02	-6.926987e-02
6.470017e+02	-7.006590e-02
6.507388e+02	-7.087100e-02
6.544974e+02	-7.168529e-02
6.582778e+02	-7.250884e-02
6.620800e+02	-7.334178e-02
6.659041e+02	-7.418421e-02
6.697504e+02	-7.503623e-02
6.736188e+02	-7.589794e-02
6.775096e+02	-7.676947e-02
6.814229e+02	-7.765092e-02
6.853587e+02	-7.854239e-02
6.893173e+02	-7.944400e-02
6.932988e+02	-8.035587e-02
6.973033e+02	-8.127811e-02
7.013309e+02	-8.221083e-02
