Frequency(Hz)	Magnitude(dB)
1.000000e+01	-2.219180e+00
1.005776e+01	-2.239154e+00
1.011585e+01	-2.259396e+00
1.017428e+01	-2.279606e+00
1.023305e+01	-2.300039e+00
1.029215e+01	-2.320703e+00
1.035160e+01	-2.341499e+00
1.041139e+01	-2.362612e+00
1.047153e+01	-2.383575e+00
1.053201e+01	-2.404776e+00
1.059284e+01	-2.426032e+00
1.065403e+01	-2.447625e+00
1.071556e+01	-2.469111e+00
1.077746e+01	-2.491158e+00
1.083971e+01	-2.512864e+00
1.090232e+01	-2.534941e+00
1.096529e+01	-2.556997e+00
1.102862e+01	-2.579561e+00
1.109232e+01	-2.601972e+00
1.115639e+01	-2.624490e+00
1.122083e+01	-2.647413e+00
1.128564e+01	-2.670070e+00
1.135083e+01	-2.693085e+00
1.141639e+01	-2.716428e+00
1.148233e+01	-2.739963e+00
1.154865e+01	-2.763306e+00
1.161536e+01	-2.786788e+00
1.168245e+01	-2.810835e+00
1.174992e+01	-2.834217e+00
1.181779e+01	-2.858753e+00
1.188605e+01	-2.882805e+00
1.195470e+01	-2.907131e+00
1.202375e+01	-2.931552e+00
1.209320e+01	-2.956163e+00
1.216305e+01	-2.980863e+00
1.223330e+01	-3.005889e+00
1.230396e+01	-3.031020e+00
1.237503e+01	-3.056008e+00
1.244651e+01	-3.081286e+00
1.251840e+01	-3.106855e+00
1.259070e+01	-3.132647e+00
1.266343e+01	-3.158272e+00
1.273657e+01	-3.184372e+00
1.281014e+01	-3.210566e+00
1.288413e+01	-3.236561e+00
1.295855e+01	-3.263055e+00
1.303339e+01	-3.289320e+00
1.310867e+01	-3.315933e+00
1.318439e+01	-3.342824e+00
1.326054e+01	-3.369933e+00
1.333713e+01	-3.396759e+00
1.341417e+01	-3.424115e+00
1.349165e+01	-3.451631e+00
1.356958e+01	-3.479025e+00
1.364795e+01	-3.506301e+00
1.372678e+01	-3.534285e+00
1.380607e+01	-3.562326e+00
1.388581e+01	-3.590254e+00
1.396602e+01	-3.618598e+00
1.404668e+01	-3.646766e+00
1.412782e+01	-3.675766e+00
1.420942e+01	-3.704251e+00
1.429149e+01	-3.732925e+00
1.437404e+01	-3.761859e+00
1.445706e+01	-3.790957e+00
1.454057e+01	-3.820055e+00
1.462455e+01	-3.849090e+00
1.470902e+01	-3.878831e+00
1.479398e+01	-3.908480e+00
1.487943e+01	-3.938204e+00
1.496537e+01	-3.968227e+00
1.505181e+01	-3.998371e+00
1.513875e+01	-4.028218e+00
1.522619e+01	-4.058582e+00
1.531414e+01	-4.089159e+00
1.540259e+01	-4.119564e+00
1.549156e+01	-4.150312e+00
1.558103e+01	-4.181126e+00
1.567103e+01	-4.212187e+00
1.576155e+01	-4.243061e+00
1.585258e+01	-4.274450e+00
1.594415e+01	-4.306070e+00
1.603624e+01	-4.337608e+00
1.612886e+01	-4.369319e+00
1.622202e+01	-4.400899e+00
1.631572e+01	-4.433110e+00
1.640996e+01	-4.464857e+00
1.650474e+01	-4.497243e+00
1.660008e+01	-4.529502e+00
1.669596e+01	-4.562111e+00
1.679239e+01	-4.594886e+00
1.688938e+01	-4.627433e+00
1.698694e+01	-4.659996e+00
1.708505e+01	-4.692958e+00
1.718373e+01	-4.726252e+00
1.728299e+01	-4.759349e+00
1.738281e+01	-4.792946e+00
1.748322e+01	-4.826625e+00
1.758420e+01	-4.860128e+00
1.768576e+01	-4.893645e+00
1.778792e+01	-4.927728e+00
1.789066e+01	-4.961417e+00
1.799399e+01	-4.995568e+00
1.809793e+01	-5.030315e+00
1.820246e+01	-5.064070e+00
1.830760e+01	-5.098877e+00
1.841334e+01	-5.133443e+00
1.851969e+01	-5.168255e+00
1.862666e+01	-5.202927e+00
1.873425e+01	-5.238064e+00
1.884246e+01	-5.273190e+00
1.895129e+01	-5.308128e+00
1.906075e+01	-5.343694e+00
1.917085e+01	-5.379287e+00
1.928158e+01	-5.414781e+00
1.939295e+01	-5.450393e+00
1.950496e+01	-5.486473e+00
1.961762e+01	-5.522594e+00
1.973093e+01	-5.558604e+00
1.984490e+01	-5.594563e+00
1.995952e+01	-5.630539e+00
2.007480e+01	-5.667186e+00
2.019076e+01	-5.703499e+00
2.030738e+01	-5.740367e+00
2.042467e+01	-5.777136e+00
2.054264e+01	-5.813947e+00
2.066130e+01	-5.850983e+00
2.078064e+01	-5.887978e+00
2.090066e+01	-5.925228e+00
2.102139e+01	-5.962258e+00
2.114280e+01	-5.999962e+00
2.126492e+01	-6.037566e+00
2.138775e+01	-6.074959e+00
2.151128e+01	-6.112582e+00
2.163553e+01	-6.150752e+00
2.176050e+01	-6.188689e+00
2.188619e+01	-6.226654e+00
2.201260e+01	-6.264930e+00
2.213974e+01	-6.302890e+00
2.226762e+01	-6.341386e+00
2.239624e+01	-6.379775e+00
2.252560e+01	-6.418332e+00
2.265571e+01	-6.457023e+00
2.278656e+01	-6.496001e+00
2.291818e+01	-6.534747e+00
2.305055e+01	-6.573707e+00
2.318369e+01	-6.612682e+00
2.331760e+01	-6.651673e+00
2.345228e+01	-6.691338e+00
2.358774e+01	-6.730027e+00
2.372398e+01	-6.769633e+00
2.386101e+01	-6.809567e+00
2.399883e+01	-6.849118e+00
2.413745e+01	-6.888647e+00
2.427686e+01	-6.928964e+00
2.441709e+01	-6.968327e+00
2.455812e+01	-7.008653e+00
2.469997e+01	-7.048706e+00
2.484263e+01	-7.088813e+00
2.498612e+01	-7.129399e+00
2.513044e+01	-7.169656e+00
2.527559e+01	-7.209939e+00
2.542158e+01	-7.250847e+00
2.556842e+01	-7.291400e+00
2.571610e+01	-7.332013e+00
2.586463e+01	-7.372706e+00
2.601403e+01	-7.413950e+00
2.616428e+01	-7.454883e+00
2.631541e+01	-7.495498e+00
2.646740e+01	-7.536835e+00
2.662028e+01	-7.578015e+00
2.677404e+01	-7.620074e+00
2.692868e+01	-7.661061e+00
2.708422e+01	-7.702464e+00
2.724066e+01	-7.744187e+00
2.739800e+01	-7.785897e+00
2.755625e+01	-7.827237e+00
2.771541e+01	-7.869136e+00
2.787550e+01	-7.911321e+00
2.803650e+01	-7.952893e+00
2.819844e+01	-7.995460e+00
2.836131e+01	-8.037474e+00
2.852513e+01	-8.079646e+00
2.868989e+01	-8.121974e+00
2.885560e+01	-8.164425e+00
2.902227e+01	-8.206357e+00
2.918990e+01	-8.248628e+00
2.935850e+01	-8.291931e+00
2.952807e+01	-8.334132e+00
2.969863e+01	-8.376947e+00
2.987016e+01	-8.419786e+00
3.004269e+01	-8.462412e+00
3.021622e+01	-8.505262e+00
3.039075e+01	-8.548672e+00
3.056628e+01	-8.591422e+00
3.074283e+01	-8.634980e+00
3.092040e+01	-8.678203e+00
3.109900e+01	-8.721007e+00
3.127862e+01	-8.764732e+00
3.145929e+01	-8.808495e+00
3.164099e+01	-8.851319e+00
3.182375e+01	-8.894683e+00
3.200756e+01	-8.938514e+00
3.219244e+01	-8.982658e+00
3.237838e+01	-9.025689e+00
3.256540e+01	-9.069863e+00
3.275349e+01	-9.113545e+00
3.294268e+01	-9.157745e+00
3.313295e+01	-9.201527e+00
3.332433e+01	-9.245208e+00
3.351681e+01	-9.289884e+00
3.371040e+01	-9.333625e+00
3.390511e+01	-9.378378e+00
3.410094e+01	-9.422402e+00
3.429791e+01	-9.466546e+00
3.449601e+01	-9.511150e+00
3.469526e+01	-9.555384e+00
3.489566e+01	-9.600176e+00
3.509721e+01	-9.644618e+00
3.529993e+01	-9.689526e+00
3.550382e+01	-9.734054e+00
3.570889e+01	-9.778709e+00
3.591515e+01	-9.823477e+00
3.612259e+01	-9.868188e+00
3.633123e+01	-9.913207e+00
3.654108e+01	-9.958373e+00
3.675214e+01	-1.000302e+01
3.696442e+01	-1.004848e+01
3.717792e+01	-1.009381e+01
3.739266e+01	-1.013865e+01
3.760864e+01	-1.018392e+01
3.782587e+01	-1.022872e+01
3.804435e+01	-1.027447e+01
3.826409e+01	-1.031942e+01
3.848510e+01	-1.036573e+01
3.870739e+01	-1.041100e+01
3.893096e+01	-1.045601e+01
3.915583e+01	-1.050182e+01
3.938199e+01	-1.054711e+01
3.960946e+01	-1.059342e+01
3.983824e+01	-1.063847e+01
4.006834e+01	-1.068469e+01
4.029978e+01	-1.073042e+01
4.053255e+01	-1.077615e+01
4.076666e+01	-1.082177e+01
4.100213e+01	-1.086746e+01
4.123896e+01	-1.091334e+01
4.147715e+01	-1.095960e+01
4.171672e+01	-1.100551e+01
4.195767e+01	-1.105222e+01
4.220002e+01	-1.109717e+01
4.244377e+01	-1.114388e+01
4.268892e+01	-1.119007e+01
4.293549e+01	-1.123592e+01
4.318348e+01	-1.128255e+01
4.343291e+01	-1.132958e+01
4.368377e+01	-1.137531e+01
4.393609e+01	-1.142170e+01
4.418986e+01	-1.146831e+01
4.444510e+01	-1.151512e+01
4.470182e+01	-1.156149e+01
4.496001e+01	-1.160787e+01
4.521970e+01	-1.165462e+01
4.548089e+01	-1.170083e+01
4.574358e+01	-1.174745e+01
4.600779e+01	-1.179385e+01
4.627353e+01	-1.184159e+01
4.654081e+01	-1.188751e+01
4.680963e+01	-1.193531e+01
4.708000e+01	-1.198208e+01
4.735193e+01	-1.202831e+01
4.762543e+01	-1.207486e+01
4.790051e+01	-1.212253e+01
4.817719e+01	-1.216986e+01
4.845545e+01	-1.221595e+01
4.873533e+01	-1.226340e+01
4.901682e+01	-1.231043e+01
4.929994e+01	-1.235783e+01
4.958470e+01	-1.240423e+01
4.987110e+01	-1.245170e+01
5.015915e+01	-1.249900e+01
5.044887e+01	-1.254635e+01
5.074026e+01	-1.259323e+01
5.103333e+01	-1.264038e+01
5.132810e+01	-1.268801e+01
5.162457e+01	-1.273569e+01
5.192275e+01	-1.278295e+01
5.222265e+01	-1.282999e+01
5.252429e+01	-1.287676e+01
5.282767e+01	-1.292475e+01
5.313280e+01	-1.297252e+01
5.343969e+01	-1.301981e+01
5.374836e+01	-1.306748e+01
5.405880e+01	-1.311501e+01
5.437105e+01	-1.316271e+01
5.468509e+01	-1.321021e+01
5.500095e+01	-1.325805e+01
5.531863e+01	-1.330576e+01
5.563815e+01	-1.335337e+01
5.595951e+01	-1.340215e+01
5.628273e+01	-1.344886e+01
5.660782e+01	-1.349633e+01
5.693479e+01	-1.354492e+01
5.726364e+01	-1.359226e+01
5.759439e+01	-1.364017e+01
5.792705e+01	-1.368782e+01
5.826164e+01	-1.373602e+01
5.859815e+01	-1.378413e+01
5.893662e+01	-1.383164e+01
5.927703e+01	-1.387898e+01
5.961941e+01	-1.392762e+01
5.996377e+01	-1.397553e+01
6.031012e+01	-1.402328e+01
6.065847e+01	-1.407169e+01
6.100883e+01	-1.411970e+01
6.136121e+01	-1.416741e+01
6.171563e+01	-1.421640e+01
6.207210e+01	-1.426379e+01
6.243063e+01	-1.431255e+01
6.279122e+01	-1.436069e+01
6.315390e+01	-1.440840e+01
6.351868e+01	-1.445645e+01
6.388556e+01	-1.450500e+01
6.425456e+01	-1.455335e+01
6.462569e+01	-1.460197e+01
6.499897e+01	-1.465000e+01
6.537440e+01	-1.469821e+01
6.575200e+01	-1.474707e+01
6.613178e+01	-1.479514e+01
6.651375e+01	-1.484435e+01
6.689793e+01	-1.489212e+01
6.728433e+01	-1.494123e+01
6.767297e+01	-1.498886e+01
6.806384e+01	-1.503689e+01
6.845698e+01	-1.508492e+01
6.885238e+01	-1.513385e+01
6.925007e+01	-1.518356e+01
6.965005e+01	-1.523081e+01
7.005235e+01	-1.528041e+01
7.045697e+01	-1.532824e+01
7.086393e+01	-1.537735e+01
7.127323e+01	-1.542488e+01
7.168490e+01	-1.547488e+01
7.209895e+01	-1.552311e+01
7.251539e+01	-1.557061e+01
7.293424e+01	-1.562094e+01
7.335551e+01	-1.566829e+01
7.377920e+01	-1.571660e+01
7.420535e+01	-1.576634e+01
7.463396e+01	-1.581462e+01
7.506504e+01	-1.586358e+01
7.549861e+01	-1.591160e+01
7.593469e+01	-1.596094e+01
7.637328e+01	-1.600993e+01
7.681441e+01	-1.605826e+01
7.725809e+01	-1.610743e+01
7.770433e+01	-1.615589e+01
7.815315e+01	-1.620499e+01
7.860456e+01	-1.625407e+01
7.905857e+01	-1.630324e+01
7.951521e+01	-1.635262e+01
7.997449e+01	-1.640027e+01
8.043642e+01	-1.644918e+01
8.090102e+01	-1.649778e+01
8.136830e+01	-1.654831e+01
8.183828e+01	-1.659560e+01
8.231097e+01	-1.664527e+01
8.278640e+01	-1.669318e+01
8.326457e+01	-1.674269e+01
8.374550e+01	-1.679265e+01
8.422921e+01	-1.684043e+01
8.471572e+01	-1.688929e+01
8.520503e+01	-1.693910e+01
8.569717e+01	-1.698846e+01
8.619215e+01	-1.703744e+01
8.669000e+01	-1.708504e+01
8.719071e+01	-1.713448e+01
8.769432e+01	-1.718373e+01
8.820084e+01	-1.723284e+01
8.871029e+01	-1.728226e+01
8.922267e+01	-1.733145e+01
8.973802e+01	-1.738087e+01
9.025634e+01	-1.743105e+01
9.077766e+01	-1.747822e+01
9.130199e+01	-1.752743e+01
9.182935e+01	-1.757805e+01
9.235975e+01	-1.762635e+01
9.289321e+01	-1.767512e+01
9.342976e+01	-1.772366e+01
9.396941e+01	-1.777417e+01
9.451217e+01	-1.782276e+01
9.505807e+01	-1.787139e+01
9.560712e+01	-1.792245e+01
9.615934e+01	-1.797150e+01
9.671476e+01	-1.802105e+01
9.727338e+01	-1.806982e+01
9.783522e+01	-1.811999e+01
9.840032e+01	-1.816694e+01
9.896867e+01	-1.821663e+01
9.954031e+01	-1.826636e+01
1.001153e+02	-1.831465e+01
1.006935e+02	-1.836477e+01
1.012751e+02	-1.841355e+01
1.018601e+02	-1.846238e+01
1.024484e+02	-1.851320e+01
1.030402e+02	-1.856198e+01
1.036353e+02	-1.861029e+01
1.042339e+02	-1.866262e+01
1.048360e+02	-1.870937e+01
1.054415e+02	-1.875922e+01
1.060505e+02	-1.880844e+01
1.066631e+02	-1.885782e+01
1.072791e+02	-1.890766e+01
1.078988e+02	-1.895531e+01
1.085220e+02	-1.900625e+01
1.091488e+02	-1.905735e+01
1.097793e+02	-1.910503e+01
1.104133e+02	-1.915532e+01
1.110511e+02	-1.920278e+01
1.116925e+02	-1.925222e+01
1.123376e+02	-1.930236e+01
1.129865e+02	-1.935316e+01
1.136391e+02	-1.940324e+01
1.142955e+02	-1.945153e+01
1.149556e+02	-1.949977e+01
1.156196e+02	-1.954856e+01
1.162874e+02	-1.959959e+01
1.169591e+02	-1.964924e+01
1.176347e+02	-1.969784e+01
1.183141e+02	-1.974813e+01
1.189975e+02	-1.979615e+01
1.196848e+02	-1.984789e+01
1.203761e+02	-1.989592e+01
1.210714e+02	-1.994588e+01
1.217707e+02	-1.999668e+01
1.224740e+02	-2.004386e+01
1.231814e+02	-2.009514e+01
1.238929e+02	-2.014606e+01
1.246085e+02	-2.019398e+01
1.253283e+02	-2.024268e+01
1.260522e+02	-2.029300e+01
1.267802e+02	-2.034166e+01
1.275125e+02	-2.039213e+01
1.282490e+02	-2.044222e+01
1.289898e+02	-2.049133e+01
1.297348e+02	-2.053943e+01
1.304842e+02	-2.058948e+01
1.312378e+02	-2.063967e+01
1.319959e+02	-2.068867e+01
1.327583e+02	-2.073860e+01
1.335251e+02	-2.078812e+01
1.342963e+02	-2.084267e+01
1.350720e+02	-2.089007e+01
1.358522e+02	-2.093599e+01
1.366368e+02	-2.098678e+01
1.374260e+02	-2.103669e+01
1.382198e+02	-2.108694e+01
1.390182e+02	-2.113751e+01
1.398211e+02	-2.118778e+01
1.406287e+02	-2.123595e+01
1.414410e+02	-2.128394e+01
1.422579e+02	-2.133579e+01
1.430796e+02	-2.138601e+01
1.439060e+02	-2.143116e+01
1.447372e+02	-2.148406e+01
1.455732e+02	-2.153301e+01
1.464141e+02	-2.158441e+01
1.472597e+02	-2.163310e+01
1.481103e+02	-2.168339e+01
1.489658e+02	-2.173221e+01
1.498262e+02	-2.178312e+01
1.506916e+02	-2.183171e+01
1.515620e+02	-2.188369e+01
1.524374e+02	-2.193137e+01
1.533179e+02	-2.198078e+01
1.542034e+02	-2.203198e+01
1.550941e+02	-2.207933e+01
1.559899e+02	-2.213018e+01
1.568909e+02	-2.217930e+01
1.577971e+02	-2.223016e+01
1.587085e+02	-2.227913e+01
1.596252e+02	-2.232966e+01
1.605472e+02	-2.237922e+01
1.614745e+02	-2.242956e+01
1.624072e+02	-2.247833e+01
1.633453e+02	-2.252839e+01
1.642887e+02	-2.257625e+01
1.652377e+02	-2.262775e+01
1.661921e+02	-2.267758e+01
1.671520e+02	-2.272653e+01
1.681175e+02	-2.277681e+01
1.690885e+02	-2.282799e+01
1.700651e+02	-2.287818e+01
1.710474e+02	-2.292648e+01
1.720354e+02	-2.297646e+01
1.730291e+02	-2.302766e+01
1.740285e+02	-2.307600e+01
1.750337e+02	-2.312526e+01
1.760446e+02	-2.317640e+01
1.770615e+02	-2.322453e+01
1.780842e+02	-2.327525e+01
1.791128e+02	-2.332570e+01
1.801473e+02	-2.337507e+01
1.811878e+02	-2.342547e+01
1.822344e+02	-2.347268e+01
1.832870e+02	-2.352427e+01
1.843456e+02	-2.357314e+01
1.854104e+02	-2.362544e+01
1.864813e+02	-2.367645e+01
1.875584e+02	-2.372226e+01
1.886418e+02	-2.377188e+01
1.897313e+02	-2.382424e+01
1.908272e+02	-2.387187e+01
1.919294e+02	-2.392127e+01
1.930380e+02	-2.397146e+01
1.941530e+02	-2.402472e+01
1.952744e+02	-2.407493e+01
1.964023e+02	-2.412096e+01
1.975367e+02	-2.417295e+01
1.986777e+02	-2.422189e+01
1.998252e+02	-2.427261e+01
2.009794e+02	-2.432240e+01
2.021403e+02	-2.437075e+01
2.033078e+02	-2.441959e+01
2.044821e+02	-2.447209e+01
2.056632e+02	-2.452329e+01
2.068511e+02	-2.456995e+01
2.080459e+02	-2.462282e+01
2.092475e+02	-2.466871e+01
2.104561e+02	-2.472071e+01
2.116717e+02	-2.476991e+01
2.128943e+02	-2.482090e+01
2.141240e+02	-2.487029e+01
2.153608e+02	-2.491951e+01
2.166047e+02	-2.496849e+01
2.178558e+02	-2.501694e+01
2.191141e+02	-2.506888e+01
2.203797e+02	-2.511859e+01
2.216526e+02	-2.517139e+01
2.229329e+02	-2.522328e+01
2.242205e+02	-2.527265e+01
2.255156e+02	-2.531665e+01
2.268182e+02	-2.537093e+01
2.281283e+02	-2.541993e+01
2.294459e+02	-2.546704e+01
2.307712e+02	-2.552038e+01
2.321041e+02	-2.556746e+01
2.334447e+02	-2.561743e+01
2.347931e+02	-2.567059e+01
2.361493e+02	-2.571966e+01
2.375133e+02	-2.577001e+01
2.388851e+02	-2.581898e+01
2.402649e+02	-2.586718e+01
2.416527e+02	-2.592101e+01
2.430484e+02	-2.596923e+01
2.444523e+02	-2.601781e+01
2.458642e+02	-2.606993e+01
2.472843e+02	-2.612044e+01
2.487126e+02	-2.617011e+01
2.501492e+02	-2.621813e+01
2.515940e+02	-2.627005e+01
2.530472e+02	-2.631604e+01
2.545088e+02	-2.636937e+01
2.559789e+02	-2.641749e+01
2.574574e+02	-2.646774e+01
2.589444e+02	-2.652010e+01
2.604401e+02	-2.657135e+01
2.619444e+02	-2.661759e+01
2.634574e+02	-2.666956e+01
2.649791e+02	-2.671834e+01
2.665096e+02	-2.676449e+01
2.680489e+02	-2.681681e+01
2.695972e+02	-2.686944e+01
2.711544e+02	-2.691591e+01
2.727205e+02	-2.696808e+01
2.742958e+02	-2.701509e+01
2.758801e+02	-2.706694e+01
2.774736e+02	-2.711723e+01
2.790762e+02	-2.716920e+01
2.806882e+02	-2.722119e+01
2.823094e+02	-2.726704e+01
2.839400e+02	-2.731799e+01
2.855800e+02	-2.736617e+01
2.872295e+02	-2.741694e+01
2.888886e+02	-2.746646e+01
2.905572e+02	-2.751378e+01
2.922354e+02	-2.756822e+01
2.939234e+02	-2.761604e+01
2.956211e+02	-2.766617e+01
2.973286e+02	-2.771380e+01
2.990459e+02	-2.776766e+01
3.007732e+02	-2.782098e+01
3.025104e+02	-2.786704e+01
3.042577e+02	-2.791858e+01
3.060151e+02	-2.797030e+01
3.077826e+02	-2.801807e+01
3.095604e+02	-2.806856e+01
3.113484e+02	-2.811763e+01
3.131467e+02	-2.816724e+01
3.149554e+02	-2.822045e+01
3.167746e+02	-2.826829e+01
3.186043e+02	-2.831855e+01
3.204445e+02	-2.836714e+01
3.222954e+02	-2.841660e+01
3.241570e+02	-2.846403e+01
3.260293e+02	-2.851882e+01
3.279124e+02	-2.856845e+01
3.298064e+02	-2.862122e+01
3.317114e+02	-2.866350e+01
3.336273e+02	-2.871538e+01
3.355544e+02	-2.877008e+01
3.374925e+02	-2.881856e+01
3.394418e+02	-2.886956e+01
3.414024e+02	-2.891834e+01
3.433744e+02	-2.896837e+01
3.453577e+02	-2.901253e+01
3.473525e+02	-2.906763e+01
3.493588e+02	-2.911556e+01
3.513766e+02	-2.917277e+01
3.534062e+02	-2.922020e+01
3.554474e+02	-2.926898e+01
3.575005e+02	-2.931806e+01
3.595654e+02	-2.937407e+01
3.616422e+02	-2.941944e+01
3.637311e+02	-2.946840e+01
3.658320e+02	-2.952301e+01
3.679450e+02	-2.956918e+01
3.700702e+02	-2.961723e+01
3.722077e+02	-2.966969e+01
3.743576e+02	-2.971814e+01
3.765199e+02	-2.976710e+01
3.786946e+02	-2.982667e+01
3.808820e+02	-2.987028e+01
3.830819e+02	-2.991603e+01
3.852946e+02	-2.996694e+01
3.875200e+02	-3.001990e+01
3.897583e+02	-3.007207e+01
3.920096e+02	-3.011901e+01
3.942738e+02	-3.016819e+01
3.965511e+02	-3.021683e+01
3.988416e+02	-3.026909e+01
4.011452e+02	-3.031591e+01
4.034622e+02	-3.037536e+01
4.057926e+02	-3.042300e+01
4.081365e+02	-3.047109e+01
4.104938e+02	-3.051771e+01
4.128648e+02	-3.057119e+01
4.152495e+02	-3.062369e+01
4.176480e+02	-3.067119e+01
4.200603e+02	-3.072102e+01
4.224866e+02	-3.077095e+01
4.249268e+02	-3.082312e+01
4.273812e+02	-3.086959e+01
4.298497e+02	-3.091999e+01
4.323325e+02	-3.096774e+01
4.348297e+02	-3.101876e+01
4.373412e+02	-3.107182e+01
4.398673e+02	-3.112324e+01
4.424079e+02	-3.117285e+01
4.449633e+02	-3.121919e+01
4.475334e+02	-3.127459e+01
4.501183e+02	-3.132477e+01
4.527182e+02	-3.136903e+01
4.553330e+02	-3.141895e+01
4.579630e+02	-3.147540e+01
4.606082e+02	-3.153191e+01
4.632687e+02	-3.156734e+01
4.659445e+02	-3.162860e+01
4.686358e+02	-3.167550e+01
4.713426e+02	-3.172366e+01
4.740650e+02	-3.177799e+01
4.768032e+02	-3.182449e+01
4.795572e+02	-3.187311e+01
4.823271e+02	-3.192563e+01
4.851130e+02	-3.196882e+01
4.879150e+02	-3.202146e+01
4.907332e+02	-3.207773e+01
4.935676e+02	-3.212591e+01
4.964185e+02	-3.217863e+01
4.992858e+02	-3.222423e+01
5.021696e+02	-3.227156e+01
5.050701e+02	-3.231860e+01
5.079874e+02	-3.237314e+01
5.109215e+02	-3.242002e+01
5.138726e+02	-3.247741e+01
5.168407e+02	-3.253191e+01
5.198259e+02	-3.257629e+01
5.228284e+02	-3.261451e+01
5.258482e+02	-3.267446e+01
5.288855e+02	-3.272990e+01
5.319403e+02	-3.277097e+01
5.350128e+02	-3.283474e+01
5.381030e+02	-3.287769e+01
5.412111e+02	-3.292824e+01
5.443371e+02	-3.298074e+01
5.474812e+02	-3.302711e+01
5.506434e+02	-3.308298e+01
5.538239e+02	-3.312820e+01
5.570228e+02	-3.317849e+01
5.602401e+02	-3.322683e+01
5.634760e+02	-3.327465e+01
5.667306e+02	-3.332541e+01
5.700040e+02	-3.338163e+01
5.732964e+02	-3.343222e+01
5.766077e+02	-3.348120e+01
5.799382e+02	-3.352711e+01
5.832879e+02	-3.358753e+01
5.866569e+02	-3.362957e+01
5.900454e+02	-3.367780e+01
5.934535e+02	-3.373252e+01
5.968813e+02	-3.377888e+01
6.003288e+02	-3.382891e+01
6.037963e+02	-3.388275e+01
6.072838e+02	-3.393300e+01
6.107914e+02	-3.397681e+01
6.143194e+02	-3.403332e+01
6.178676e+02	-3.407803e+01
6.214364e+02	-3.413786e+01
6.250258e+02	-3.418929e+01
6.286359e+02	-3.423212e+01
6.322669e+02	-3.427777e+01
6.359189e+02	-3.434208e+01
6.395919e+02	-3.439005e+01
6.432862e+02	-3.443596e+01
6.470017e+02	-3.448276e+01
6.507388e+02	-3.454177e+01
6.544974e+02	-3.457453e+01
6.582778e+02	-3.463801e+01
6.620800e+02	-3.468338e+01
6.659041e+02	-3.474806e+01
6.697504e+02	-3.478593e+01
6.736188e+02	-3.484479e+01
6.775096e+02	-3.488880e+01
6.814229e+02	-3.493403e+01
6.853587e+02	-3.498917e+01
6.893173e+02	-3.503867e+01
6.932988e+02	-3.508519e+01
6.973033e+02	-3.514350e+01
7.013309e+02	-3.518674e+01
