Frequency(Hz)	Magnitude(dB)
1.000000e+01	-2.064856e+00
1.005776e+01	-2.083879e+00
1.011585e+01	-2.103111e+00
1.017428e+01	-2.122154e+00
1.023305e+01	-2.141705e+00
1.029215e+01	-2.161378e+00
1.035160e+01	-2.180884e+00
1.041139e+01	-2.200796e+00
1.047153e+01	-2.220625e+00
1.053201e+01	-2.240599e+00
1.059284e+01	-2.261209e+00
1.065403e+01	-2.281637e+00
1.071556e+01	-2.301874e+00
1.077746e+01	-2.322715e+00
1.083971e+01	-2.343306e+00
1.090232e+01	-2.364289e+00
1.096529e+01	-2.385358e+00
1.102862e+01	-2.406577e+00
1.109232e+01	-2.427877e+00
1.115639e+01	-2.449454e+00
1.122083e+01	-2.470862e+00
1.128564e+01	-2.492879e+00
1.135083e+01	-2.514759e+00
1.141639e+01	-2.536658e+00
1.148233e+01	-2.559048e+00
1.154865e+01	-2.581358e+00
1.161536e+01	-2.603827e+00
1.168245e+01	-2.626449e+00
1.174992e+01	-2.649180e+00
1.181779e+01	-2.671961e+00
1.188605e+01	-2.695313e+00
1.195470e+01	-2.718462e+00
1.202375e+01	-2.741753e+00
1.209320e+01	-2.765248e+00
1.216305e+01	-2.788958e+00
1.223330e+01	-2.812743e+00
1.230396e+01	-2.836632e+00
1.237503e+01	-2.860863e+00
1.244651e+01	-2.884653e+00
1.251840e+01	-2.909179e+00
1.259070e+01	-2.933770e+00
1.266343e+01	-2.958351e+00
1.273657e+01	-2.983042e+00
1.281014e+01	-3.007992e+00
1.288413e+01	-3.033235e+00
1.295855e+01	-3.058464e+00
1.303339e+01	-3.083548e+00
1.310867e+01	-3.109206e+00
1.318439e+01	-3.134869e+00
1.326054e+01	-3.160602e+00
1.333713e+01	-3.186599e+00
1.341417e+01	-3.212574e+00
1.349165e+01	-3.238900e+00
1.356958e+01	-3.265148e+00
1.364795e+01	-3.291552e+00
1.372678e+01	-3.318243e+00
1.380607e+01	-3.345108e+00
1.388581e+01	-3.372334e+00
1.396602e+01	-3.399091e+00
1.404668e+01	-3.426489e+00
1.412782e+01	-3.453968e+00
1.420942e+01	-3.481342e+00
1.429149e+01	-3.508861e+00
1.437404e+01	-3.536785e+00
1.445706e+01	-3.564674e+00
1.454057e+01	-3.592768e+00
1.462455e+01	-3.621109e+00
1.470902e+01	-3.649265e+00
1.479398e+01	-3.677822e+00
1.487943e+01	-3.706388e+00
1.496537e+01	-3.735123e+00
1.505181e+01	-3.764167e+00
1.513875e+01	-3.793227e+00
1.522619e+01	-3.822314e+00
1.531414e+01	-3.851877e+00
1.540259e+01	-3.881157e+00
1.549156e+01	-3.911023e+00
1.558103e+01	-3.940914e+00
1.567103e+01	-3.970800e+00
1.576155e+01	-4.000777e+00
1.585258e+01	-4.030950e+00
1.594415e+01	-4.061297e+00
1.603624e+01	-4.091818e+00
1.612886e+01	-4.122401e+00
1.622202e+01	-4.153122e+00
1.631572e+01	-4.183702e+00
1.640996e+01	-4.214897e+00
1.650474e+01	-4.245870e+00
1.660008e+01	-4.277270e+00
1.669596e+01	-4.308733e+00
1.679239e+01	-4.340108e+00
1.688938e+01	-4.371595e+00
1.698694e+01	-4.403377e+00
1.708505e+01	-4.435480e+00
1.718373e+01	-4.467750e+00
1.728299e+01	-4.499848e+00
1.738281e+01	-4.531998e+00
1.748322e+01	-4.564699e+00
1.758420e+01	-4.597362e+00
1.768576e+01	-4.630075e+00
1.778792e+01	-4.663039e+00
1.789066e+01	-4.696177e+00
1.799399e+01	-4.729134e+00
1.809793e+01	-4.762277e+00
1.820246e+01	-4.795646e+00
1.830760e+01	-4.829077e+00
1.841334e+01	-4.862893e+00
1.851969e+01	-4.896682e+00
1.862666e+01	-4.930566e+00
1.873425e+01	-4.964582e+00
1.884246e+01	-4.998285e+00
1.895129e+01	-5.032771e+00
1.906075e+01	-5.067490e+00
1.917085e+01	-5.101849e+00
1.928158e+01	-5.136466e+00
1.939295e+01	-5.171103e+00
1.950496e+01	-5.206108e+00
1.961762e+01	-5.241312e+00
1.973093e+01	-5.276208e+00
1.984490e+01	-5.311417e+00
1.995952e+01	-5.346708e+00
2.007480e+01	-5.382390e+00
2.019076e+01	-5.417658e+00
2.030738e+01	-5.453360e+00
2.042467e+01	-5.489344e+00
2.054264e+01	-5.525512e+00
2.066130e+01	-5.561832e+00
2.078064e+01	-5.597634e+00
2.090066e+01	-5.633922e+00
2.102139e+01	-5.670487e+00
2.114280e+01	-5.706812e+00
2.126492e+01	-5.743418e+00
2.138775e+01	-5.780231e+00
2.151128e+01	-5.817067e+00
2.163553e+01	-5.853855e+00
2.176050e+01	-5.890894e+00
2.188619e+01	-5.928450e+00
2.201260e+01	-5.965698e+00
2.213974e+01	-6.003078e+00
2.226762e+01	-6.040538e+00
2.239624e+01	-6.077975e+00
2.252560e+01	-6.115689e+00
2.265571e+01	-6.153825e+00
2.278656e+01	-6.191849e+00
2.291818e+01	-6.229687e+00
2.305055e+01	-6.268360e+00
2.318369e+01	-6.306409e+00
2.331760e+01	-6.344686e+00
2.345228e+01	-6.383231e+00
2.358774e+01	-6.421561e+00
2.372398e+01	-6.460243e+00
2.386101e+01	-6.499249e+00
2.399883e+01	-6.538130e+00
2.413745e+01	-6.576911e+00
2.427686e+01	-6.616172e+00
2.441709e+01	-6.655388e+00
2.455812e+01	-6.694460e+00
2.469997e+01	-6.733850e+00
2.484263e+01	-6.773431e+00
2.498612e+01	-6.813017e+00
2.513044e+01	-6.852210e+00
2.527559e+01	-6.892228e+00
2.542158e+01	-6.932223e+00
2.556842e+01	-6.972180e+00
2.571610e+01	-7.012218e+00
2.586463e+01	-7.052342e+00
2.601403e+01	-7.092532e+00
2.616428e+01	-7.132639e+00
2.631541e+01	-7.172950e+00
2.646740e+01	-7.213696e+00
2.662028e+01	-7.253918e+00
2.677404e+01	-7.295066e+00
2.692868e+01	-7.335753e+00
2.708422e+01	-7.376248e+00
2.724066e+01	-7.417135e+00
2.739800e+01	-7.458639e+00
2.755625e+01	-7.499721e+00
2.771541e+01	-7.540730e+00
2.787550e+01	-7.581869e+00
2.803650e+01	-7.623116e+00
2.819844e+01	-7.664841e+00
2.836131e+01	-7.706158e+00
2.852513e+01	-7.747275e+00
2.868989e+01	-7.788975e+00
2.885560e+01	-7.831178e+00
2.902227e+01	-7.873096e+00
2.918990e+01	-7.914876e+00
2.935850e+01	-7.956839e+00
2.952807e+01	-7.998765e+00
2.969863e+01	-8.040917e+00
2.987016e+01	-8.083177e+00
3.004269e+01	-8.124814e+00
3.021622e+01	-8.167086e+00
3.039075e+01	-8.210632e+00
3.056628e+01	-8.252697e+00
3.074283e+01	-8.294985e+00
3.092040e+01	-8.338091e+00
3.109900e+01	-8.380264e+00
3.127862e+01	-8.423392e+00
3.145929e+01	-8.466348e+00
3.164099e+01	-8.509031e+00
3.182375e+01	-8.552300e+00
3.200756e+01	-8.595527e+00
3.219244e+01	-8.638268e+00
3.237838e+01	-8.681670e+00
3.256540e+01	-8.725323e+00
3.275349e+01	-8.768312e+00
3.294268e+01	-8.811729e+00
3.313295e+01	-8.855650e+00
3.332433e+01	-8.898435e+00
3.351681e+01	-8.942214e+00
3.371040e+01	-8.986039e+00
3.390511e+01	-9.029863e+00
3.410094e+01	-9.073189e+00
3.429791e+01	-9.117303e+00
3.449601e+01	-9.161659e+00
3.469526e+01	-9.205377e+00
3.489566e+01	-9.249719e+00
3.509721e+01	-9.293730e+00
3.529993e+01	-9.337824e+00
3.550382e+01	-9.381795e+00
3.570889e+01	-9.425843e+00
3.591515e+01	-9.470902e+00
3.612259e+01	-9.514836e+00
3.633123e+01	-9.559511e+00
3.654108e+01	-9.603833e+00
3.675214e+01	-9.648711e+00
3.696442e+01	-9.693038e+00
3.717792e+01	-9.737949e+00
3.739266e+01	-9.782236e+00
3.760864e+01	-9.827755e+00
3.782587e+01	-9.872040e+00
3.804435e+01	-9.917110e+00
3.826409e+01	-9.962342e+00
3.848510e+01	-1.000710e+01
3.870739e+01	-1.005241e+01
3.893096e+01	-1.009745e+01
3.915583e+01	-1.014250e+01
3.938199e+01	-1.018722e+01
3.960946e+01	-1.023259e+01
3.983824e+01	-1.027815e+01
4.006834e+01	-1.032399e+01
4.029978e+01	-1.036873e+01
4.053255e+01	-1.041429e+01
4.076666e+01	-1.045991e+01
4.100213e+01	-1.050582e+01
4.123896e+01	-1.055105e+01
4.147715e+01	-1.059666e+01
4.171672e+01	-1.064234e+01
4.195767e+01	-1.068826e+01
4.220002e+01	-1.073381e+01
4.244377e+01	-1.077945e+01
4.268892e+01	-1.082599e+01
4.293549e+01	-1.087158e+01
4.318348e+01	-1.091778e+01
4.343291e+01	-1.096366e+01
4.368377e+01	-1.100964e+01
4.393609e+01	-1.105604e+01
4.418986e+01	-1.110194e+01
4.444510e+01	-1.114808e+01
4.470182e+01	-1.119380e+01
4.496001e+01	-1.124100e+01
4.521970e+01	-1.128657e+01
4.548089e+01	-1.133251e+01
4.574358e+01	-1.137959e+01
4.600779e+01	-1.142515e+01
4.627353e+01	-1.147211e+01
4.654081e+01	-1.151820e+01
4.680963e+01	-1.156470e+01
4.708000e+01	-1.161214e+01
4.735193e+01	-1.165804e+01
4.762543e+01	-1.170508e+01
4.790051e+01	-1.175174e+01
4.817719e+01	-1.179819e+01
4.845545e+01	-1.184525e+01
4.873533e+01	-1.189172e+01
4.901682e+01	-1.193846e+01
4.929994e+01	-1.198554e+01
4.958470e+01	-1.203278e+01
4.987110e+01	-1.207986e+01
5.015915e+01	-1.212650e+01
5.044887e+01	-1.217317e+01
5.074026e+01	-1.222002e+01
5.103333e+01	-1.226781e+01
5.132810e+01	-1.231465e+01
5.162457e+01	-1.236167e+01
5.192275e+01	-1.240853e+01
5.222265e+01	-1.245642e+01
5.252429e+01	-1.250301e+01
5.282767e+01	-1.255097e+01
5.313280e+01	-1.259756e+01
5.343969e+01	-1.264466e+01
5.374836e+01	-1.269225e+01
5.405880e+01	-1.273871e+01
5.437105e+01	-1.278630e+01
5.468509e+01	-1.283318e+01
5.500095e+01	-1.288186e+01
5.531863e+01	-1.292856e+01
5.563815e+01	-1.297646e+01
5.595951e+01	-1.302441e+01
5.628273e+01	-1.307146e+01
5.660782e+01	-1.311870e+01
5.693479e+01	-1.316732e+01
5.726364e+01	-1.321380e+01
5.759439e+01	-1.326171e+01
5.792705e+01	-1.330998e+01
5.826164e+01	-1.335750e+01
5.859815e+01	-1.340509e+01
5.893662e+01	-1.345213e+01
5.927703e+01	-1.350022e+01
5.961941e+01	-1.354826e+01
5.996377e+01	-1.359669e+01
6.031012e+01	-1.364441e+01
6.065847e+01	-1.369207e+01
6.100883e+01	-1.374019e+01
6.136121e+01	-1.378842e+01
6.171563e+01	-1.383605e+01
6.207210e+01	-1.388350e+01
6.243063e+01	-1.393198e+01
6.279122e+01	-1.397963e+01
6.315390e+01	-1.402817e+01
6.351868e+01	-1.407585e+01
6.388556e+01	-1.412386e+01
6.425456e+01	-1.417192e+01
6.462569e+01	-1.421940e+01
6.499897e+01	-1.426876e+01
6.537440e+01	-1.431706e+01
6.575200e+01	-1.436489e+01
6.613178e+01	-1.441275e+01
6.651375e+01	-1.446113e+01
6.689793e+01	-1.450979e+01
6.728433e+01	-1.455854e+01
6.767297e+01	-1.460582e+01
6.806384e+01	-1.465435e+01
6.845698e+01	-1.470195e+01
6.885238e+01	-1.475085e+01
6.925007e+01	-1.479903e+01
6.965005e+01	-1.484737e+01
7.005235e+01	-1.489664e+01
7.045697e+01	-1.494430e+01
7.086393e+01	-1.499335e+01
7.127323e+01	-1.504184e+01
7.168490e+01	-1.509016e+01
7.209895e+01	-1.513745e+01
7.251539e+01	-1.518676e+01
7.293424e+01	-1.523525e+01
7.335551e+01	-1.528385e+01
7.377920e+01	-1.533316e+01
7.420535e+01	-1.538149e+01
7.463396e+01	-1.543097e+01
7.506504e+01	-1.547902e+01
7.549861e+01	-1.552705e+01
7.593469e+01	-1.557504e+01
7.637328e+01	-1.562472e+01
7.681441e+01	-1.567327e+01
7.725809e+01	-1.572198e+01
7.770433e+01	-1.576969e+01
7.815315e+01	-1.581942e+01
7.860456e+01	-1.586829e+01
7.905857e+01	-1.591679e+01
7.951521e+01	-1.596405e+01
7.997449e+01	-1.601456e+01
8.043642e+01	-1.606348e+01
8.090102e+01	-1.611139e+01
8.136830e+01	-1.616059e+01
8.183828e+01	-1.621006e+01
8.231097e+01	-1.625824e+01
8.278640e+01	-1.630687e+01
8.326457e+01	-1.635666e+01
8.374550e+01	-1.640453e+01
8.422921e+01	-1.645399e+01
8.471572e+01	-1.650300e+01
8.520503e+01	-1.655134e+01
8.569717e+01	-1.660000e+01
8.619215e+01	-1.664877e+01
8.669000e+01	-1.669821e+01
8.719071e+01	-1.674779e+01
8.769432e+01	-1.679672e+01
8.820084e+01	-1.684441e+01
8.871029e+01	-1.689433e+01
8.922267e+01	-1.694336e+01
8.973802e+01	-1.699301e+01
9.025634e+01	-1.704132e+01
9.077766e+01	-1.708887e+01
9.130199e+01	-1.713939e+01
9.182935e+01	-1.718745e+01
9.235975e+01	-1.723768e+01
9.289321e+01	-1.728761e+01
9.342976e+01	-1.733556e+01
9.396941e+01	-1.738452e+01
9.451217e+01	-1.743420e+01
9.505807e+01	-1.748348e+01
9.560712e+01	-1.753173e+01
9.615934e+01	-1.758138e+01
9.671476e+01	-1.763004e+01
9.727338e+01	-1.768032e+01
9.783522e+01	-1.772819e+01
9.840032e+01	-1.777770e+01
9.896867e+01	-1.782742e+01
9.954031e+01	-1.787722e+01
1.001153e+02	-1.792587e+01
1.006935e+02	-1.797369e+01
1.012751e+02	-1.802370e+01
1.018601e+02	-1.807396e+01
1.024484e+02	-1.812169e+01
1.030402e+02	-1.817198e+01
1.036353e+02	-1.822184e+01
1.042339e+02	-1.826986e+01
1.048360e+02	-1.831970e+01
1.054415e+02	-1.837000e+01
1.060505e+02	-1.841896e+01
1.066631e+02	-1.846690e+01
1.072791e+02	-1.851754e+01
1.078988e+02	-1.856600e+01
1.085220e+02	-1.861621e+01
1.091488e+02	-1.866548e+01
1.097793e+02	-1.871435e+01
1.104133e+02	-1.876333e+01
1.110511e+02	-1.881427e+01
1.116925e+02	-1.886197e+01
1.123376e+02	-1.891236e+01
1.129865e+02	-1.896098e+01
1.136391e+02	-1.901170e+01
1.142955e+02	-1.906067e+01
1.149556e+02	-1.910934e+01
1.156196e+02	-1.915947e+01
1.162874e+02	-1.920805e+01
1.169591e+02	-1.925881e+01
1.176347e+02	-1.930740e+01
1.183141e+02	-1.935716e+01
1.189975e+02	-1.940477e+01
1.196848e+02	-1.945511e+01
1.203761e+02	-1.950450e+01
1.210714e+02	-1.955491e+01
1.217707e+02	-1.960386e+01
1.224740e+02	-1.965183e+01
1.231814e+02	-1.970187e+01
1.238929e+02	-1.975244e+01
1.246085e+02	-1.979996e+01
1.253283e+02	-1.985178e+01
1.260522e+02	-1.990111e+01
1.267802e+02	-1.995102e+01
1.275125e+02	-1.999985e+01
1.282490e+02	-2.004955e+01
1.289898e+02	-2.010149e+01
1.297348e+02	-2.014881e+01
1.304842e+02	-2.019922e+01
1.312378e+02	-2.024612e+01
1.319959e+02	-2.029706e+01
1.327583e+02	-2.034556e+01
1.335251e+02	-2.039544e+01
1.342963e+02	-2.044666e+01
1.350720e+02	-2.049649e+01
1.358522e+02	-2.054419e+01
1.366368e+02	-2.059579e+01
1.374260e+02	-2.064737e+01
1.382198e+02	-2.069338e+01
1.390182e+02	-2.074356e+01
1.398211e+02	-2.079364e+01
1.406287e+02	-2.084363e+01
1.414410e+02	-2.089270e+01
1.422579e+02	-2.094013e+01
1.430796e+02	-2.099227e+01
1.439060e+02	-2.104046e+01
1.447372e+02	-2.108970e+01
1.455732e+02	-2.114206e+01
1.464141e+02	-2.119078e+01
1.472597e+02	-2.123965e+01
1.481103e+02	-2.129040e+01
1.489658e+02	-2.134067e+01
1.498262e+02	-2.138975e+01
1.506916e+02	-2.143891e+01
1.515620e+02	-2.148880e+01
1.524374e+02	-2.154083e+01
1.533179e+02	-2.158934e+01
1.542034e+02	-2.163731e+01
1.550941e+02	-2.168845e+01
1.559899e+02	-2.173636e+01
1.568909e+02	-2.178801e+01
1.577971e+02	-2.183670e+01
1.587085e+02	-2.188422e+01
1.596252e+02	-2.193613e+01
1.605472e+02	-2.198567e+01
1.614745e+02	-2.203566e+01
1.624072e+02	-2.208504e+01
1.633453e+02	-2.213663e+01
1.642887e+02	-2.218464e+01
1.652377e+02	-2.223410e+01
1.661921e+02	-2.228368e+01
1.671520e+02	-2.233415e+01
1.681175e+02	-2.238330e+01
1.690885e+02	-2.243401e+01
1.700651e+02	-2.248330e+01
1.710474e+02	-2.253375e+01
1.720354e+02	-2.258207e+01
1.730291e+02	-2.263308e+01
1.740285e+02	-2.268280e+01
1.750337e+02	-2.273154e+01
1.760446e+02	-2.277917e+01
1.770615e+02	-2.283156e+01
1.780842e+02	-2.288297e+01
1.791128e+02	-2.293252e+01
1.801473e+02	-2.298095e+01
1.811878e+02	-2.303042e+01
1.822344e+02	-2.308181e+01
1.832870e+02	-2.313109e+01
1.843456e+02	-2.318122e+01
1.854104e+02	-2.323241e+01
1.864813e+02	-2.327907e+01
1.875584e+02	-2.333098e+01
1.886418e+02	-2.338106e+01
1.897313e+02	-2.343004e+01
1.908272e+02	-2.347798e+01
1.919294e+02	-2.352576e+01
1.930380e+02	-2.358003e+01
1.941530e+02	-2.362653e+01
1.952744e+02	-2.367941e+01
1.964023e+02	-2.373005e+01
1.975367e+02	-2.377791e+01
1.986777e+02	-2.383047e+01
1.998252e+02	-2.387651e+01
2.009794e+02	-2.392623e+01
2.021403e+02	-2.397524e+01
2.033078e+02	-2.402984e+01
2.044821e+02	-2.407690e+01
2.056632e+02	-2.412577e+01
2.068511e+02	-2.417709e+01
2.080459e+02	-2.422700e+01
2.092475e+02	-2.427652e+01
2.104561e+02	-2.432650e+01
2.116717e+02	-2.437559e+01
2.128943e+02	-2.442588e+01
2.141240e+02	-2.447698e+01
2.153608e+02	-2.452780e+01
2.166047e+02	-2.457675e+01
2.178558e+02	-2.462490e+01
2.191141e+02	-2.467644e+01
2.203797e+02	-2.472741e+01
2.216526e+02	-2.477657e+01
2.229329e+02	-2.482673e+01
2.242205e+02	-2.487272e+01
2.255156e+02	-2.492779e+01
2.268182e+02	-2.497541e+01
2.281283e+02	-2.502417e+01
2.294459e+02	-2.507425e+01
2.307712e+02	-2.512595e+01
2.321041e+02	-2.517567e+01
2.334447e+02	-2.522402e+01
2.347931e+02	-2.527327e+01
2.361493e+02	-2.532457e+01
2.375133e+02	-2.537595e+01
2.388851e+02	-2.542131e+01
2.402649e+02	-2.547201e+01
2.416527e+02	-2.552394e+01
2.430484e+02	-2.557265e+01
2.444523e+02	-2.562144e+01
2.458642e+02	-2.567746e+01
2.472843e+02	-2.572433e+01
2.487126e+02	-2.577330e+01
2.501492e+02	-2.582260e+01
2.515940e+02	-2.587451e+01
2.530472e+02	-2.592256e+01
2.545088e+02	-2.597178e+01
2.559789e+02	-2.601903e+01
2.574574e+02	-2.607458e+01
2.589444e+02	-2.612494e+01
2.604401e+02	-2.617582e+01
2.619444e+02	-2.622103e+01
2.634574e+02	-2.627063e+01
2.649791e+02	-2.632760e+01
2.665096e+02	-2.637074e+01
2.680489e+02	-2.642516e+01
2.695972e+02	-2.647208e+01
2.711544e+02	-2.652272e+01
2.727205e+02	-2.657406e+01
2.742958e+02	-2.662053e+01
2.758801e+02	-2.667495e+01
2.774736e+02	-2.672174e+01
2.790762e+02	-2.677377e+01
2.806882e+02	-2.682388e+01
2.823094e+02	-2.687407e+01
2.839400e+02	-2.692263e+01
2.855800e+02	-2.697449e+01
2.872295e+02	-2.702329e+01
2.888886e+02	-2.707676e+01
2.905572e+02	-2.712412e+01
2.922354e+02	-2.717252e+01
2.939234e+02	-2.722406e+01
2.956211e+02	-2.727033e+01
2.973286e+02	-2.732216e+01
2.990459e+02	-2.737172e+01
3.007732e+02	-2.742246e+01
3.025104e+02	-2.747095e+01
3.042577e+02	-2.752520e+01
3.060151e+02	-2.757303e+01
3.077826e+02	-2.762534e+01
3.095604e+02	-2.767622e+01
3.113484e+02	-2.772118e+01
3.131467e+02	-2.777106e+01
3.149554e+02	-2.782587e+01
3.167746e+02	-2.787206e+01
3.186043e+02	-2.792265e+01
3.204445e+02	-2.797286e+01
3.222954e+02	-2.802409e+01
3.241570e+02	-2.807242e+01
3.260293e+02	-2.812325e+01
3.279124e+02	-2.817140e+01
3.298064e+02	-2.822328e+01
3.317114e+02	-2.827358e+01
3.336273e+02	-2.832254e+01
3.355544e+02	-2.837626e+01
3.374925e+02	-2.842227e+01
3.394418e+02	-2.847139e+01
3.414024e+02	-2.852011e+01
3.433744e+02	-2.857521e+01
3.453577e+02	-2.862351e+01
3.473525e+02	-2.867324e+01
3.493588e+02	-2.872577e+01
3.513766e+02	-2.877108e+01
3.534062e+02	-2.882130e+01
3.554474e+02	-2.887746e+01
3.575005e+02	-2.892093e+01
3.595654e+02	-2.897452e+01
3.616422e+02	-2.902123e+01
3.637311e+02	-2.907470e+01
3.658320e+02	-2.912304e+01
3.679450e+02	-2.917432e+01
3.700702e+02	-2.922693e+01
3.722077e+02	-2.927226e+01
3.743576e+02	-2.932642e+01
3.765199e+02	-2.937346e+01
3.786946e+02	-2.942487e+01
3.808820e+02	-2.947434e+01
3.830819e+02	-2.952561e+01
3.852946e+02	-2.957279e+01
3.875200e+02	-2.962344e+01
3.897583e+02	-2.967228e+01
3.920096e+02	-2.972659e+01
3.942738e+02	-2.977209e+01
3.965511e+02	-2.982753e+01
3.988416e+02	-2.987603e+01
4.011452e+02	-2.992770e+01
4.034622e+02	-2.998178e+01
4.057926e+02	-3.002369e+01
4.081365e+02	-3.007463e+01
4.104938e+02	-3.012857e+01
4.128648e+02	-3.017512e+01
4.152495e+02	-3.022213e+01
4.176480e+02	-3.027837e+01
4.200603e+02	-3.032827e+01
4.224866e+02	-3.037515e+01
4.249268e+02	-3.042563e+01
4.273812e+02	-3.047149e+01
4.298497e+02	-3.052756e+01
4.323325e+02	-3.057378e+01
4.348297e+02	-3.062427e+01
4.373412e+02	-3.067819e+01
4.398673e+02	-3.072246e+01
4.424079e+02	-3.077613e+01
4.449633e+02	-3.082845e+01
4.475334e+02	-3.088250e+01
4.501183e+02	-3.092500e+01
4.527182e+02	-3.097468e+01
4.553330e+02	-3.102022e+01
4.579630e+02	-3.107881e+01
4.606082e+02	-3.113186e+01
4.632687e+02	-3.117893e+01
4.659445e+02	-3.123100e+01
4.686358e+02	-3.127724e+01
4.713426e+02	-3.133522e+01
4.740650e+02	-3.137904e+01
4.768032e+02	-3.142610e+01
4.795572e+02	-3.147989e+01
4.823271e+02	-3.152978e+01
4.851130e+02	-3.158122e+01
4.879150e+02	-3.163542e+01
4.907332e+02	-3.167762e+01
4.935676e+02	-3.173473e+01
4.964185e+02	-3.178101e+01
4.992858e+02	-3.182800e+01
5.021696e+02	-3.188220e+01
5.050701e+02	-3.192880e+01
5.079874e+02	-3.197662e+01
5.109215e+02	-3.203657e+01
5.138726e+02	-3.208298e+01
5.168407e+02	-3.213173e+01
5.198259e+02	-3.218436e+01
5.228284e+02	-3.222572e+01
5.258482e+02	-3.228369e+01
5.288855e+02	-3.233517e+01
5.319403e+02	-3.237926e+01
5.350128e+02	-3.243187e+01
5.381030e+02	-3.248262e+01
5.412111e+02	-3.253630e+01
5.443371e+02	-3.258426e+01
5.474812e+02	-3.263534e+01
5.506434e+02	-3.269080e+01
5.538239e+02	-3.273843e+01
5.570228e+02	-3.277955e+01
5.602401e+02	-3.283061e+01
5.634760e+02	-3.288586e+01
5.667306e+02	-3.293648e+01
5.700040e+02	-3.297992e+01
5.732964e+02	-3.304449e+01
5.766077e+02	-3.308693e+01
5.799382e+02	-3.313451e+01
5.832879e+02	-3.318183e+01
5.866569e+02	-3.323460e+01
5.900454e+02	-3.328734e+01
5.934535e+02	-3.334003e+01
5.968813e+02	-3.339003e+01
6.003288e+02	-3.343186e+01
6.037963e+02	-3.349374e+01
6.072838e+02	-3.354296e+01
6.107914e+02	-3.359290e+01
6.143194e+02	-3.363880e+01
6.178676e+02	-3.368910e+01
6.214364e+02	-3.374321e+01
6.250258e+02	-3.378897e+01
6.286359e+02	-3.383632e+01
6.322669e+02	-3.389053e+01
6.359189e+02	-3.394805e+01
6.395919e+02	-3.399085e+01
6.432862e+02	-3.404512e+01
6.470017e+02	-3.409312e+01
6.507388e+02	-3.414097e+01
6.544974e+02	-3.418979e+01
6.582778e+02	-3.424066e+01
6.620800e+02	-3.430457e+01
6.659041e+02	-3.434627e+01
6.697504e+02	-3.439110e+01
6.736188e+02	-3.443675e+01
6.775096e+02	-3.450409e+01
6.814229e+02	-3.454119e+01
6.853587e+02	-3.459245e+01
6.893173e+02	-3.464686e+01
6.932988e+02	-3.469405e+01
6.973033e+02	-3.475605e+01
7.013309e+02	-3.479681e+01
