Frequency(Hz)	Magnitude(dB)
1.000000e+01	-1.918163e+00
1.005776e+01	-1.936099e+00
1.011585e+01	-1.954283e+00
1.017428e+01	-1.972413e+00
1.023305e+01	-1.990667e+00
1.029215e+01	-2.009369e+00
1.035160e+01	-2.027856e+00
1.041139e+01	-2.046622e+00
1.047153e+01	-2.065399e+00
1.053201e+01	-2.084355e+00
1.059284e+01	-2.103567e+00
1.065403e+01	-2.122814e+00
1.071556e+01	-2.142313e+00
1.077746e+01	-2.161721e+00
1.083971e+01	-2.181475e+00
1.090232e+01	-2.201417e+00
1.096529e+01	-2.221090e+00
1.102862e+01	-2.241295e+00
1.109232e+01	-2.261418e+00
1.115639e+01	-2.282014e+00
1.122083e+01	-2.302530e+00
1.128564e+01	-2.323143e+00
1.135083e+01	-2.344094e+00
1.141639e+01	-2.364509e+00
1.148233e+01	-2.385905e+00
1.154865e+01	-2.407214e+00
1.161536e+01	-2.428402e+00
1.168245e+01	-2.449964e+00
1.174992e+01	-2.471662e+00
1.181779e+01	-2.493621e+00
1.188605e+01	-2.515324e+00
1.195470e+01	-2.537600e+00
1.202375e+01	-2.559610e+00
1.209320e+01	-2.581914e+00
1.216305e+01	-2.604580e+00
1.223330e+01	-2.627014e+00
1.230396e+01	-2.649734e+00
1.237503e+01	-2.672694e+00
1.244651e+01	-2.695588e+00
1.251840e+01	-2.718870e+00
1.259070e+01	-2.742404e+00
1.266343e+01	-2.765798e+00
1.273657e+01	-2.789559e+00
1.281014e+01	-2.813481e+00
1.288413e+01	-2.837294e+00
1.295855e+01	-2.861339e+00
1.303339e+01	-2.885714e+00
1.310867e+01	-2.909901e+00
1.318439e+01	-2.934453e+00
1.326054e+01	-2.959010e+00
1.333713e+01	-2.983634e+00
1.341417e+01	-3.008606e+00
1.349165e+01	-3.033887e+00
1.356958e+01	-3.058975e+00
1.364795e+01	-3.084428e+00
1.372678e+01	-3.110049e+00
1.380607e+01	-3.135558e+00
1.388581e+01	-3.161221e+00
1.396602e+01	-3.187473e+00
1.404668e+01	-3.213431e+00
1.412782e+01	-3.239710e+00
1.420942e+01	-3.265794e+00
1.429149e+01	-3.292486e+00
1.437404e+01	-3.319130e+00
1.445706e+01	-3.345639e+00
1.454057e+01	-3.372960e+00
1.462455e+01	-3.399889e+00
1.470902e+01	-3.427091e+00
1.479398e+01	-3.454646e+00
1.487943e+01	-3.481898e+00
1.496537e+01	-3.509624e+00
1.505181e+01	-3.537359e+00
1.513875e+01	-3.565304e+00
1.522619e+01	-3.593591e+00
1.531414e+01	-3.621695e+00
1.540259e+01	-3.650034e+00
1.549156e+01	-3.678731e+00
1.558103e+01	-3.707214e+00
1.567103e+01	-3.736058e+00
1.576155e+01	-3.764842e+00
1.585258e+01	-3.794306e+00
1.594415e+01	-3.823276e+00
1.603624e+01	-3.852655e+00
1.612886e+01	-3.882322e+00
1.622202e+01	-3.911549e+00
1.631572e+01	-3.941565e+00
1.640996e+01	-3.971472e+00
1.650474e+01	-4.001407e+00
1.660008e+01	-4.031504e+00
1.669596e+01	-4.062075e+00
1.679239e+01	-4.092753e+00
1.688938e+01	-4.122772e+00
1.698694e+01	-4.153667e+00
1.708505e+01	-4.184596e+00
1.718373e+01	-4.215776e+00
1.728299e+01	-4.246963e+00
1.738281e+01	-4.278128e+00
1.748322e+01	-4.309487e+00
1.758420e+01	-4.340819e+00
1.768576e+01	-4.372742e+00
1.778792e+01	-4.404399e+00
1.789066e+01	-4.436537e+00
1.799399e+01	-4.468438e+00
1.809793e+01	-4.500912e+00
1.820246e+01	-4.533118e+00
1.830760e+01	-4.565754e+00
1.841334e+01	-4.598144e+00
1.851969e+01	-4.630802e+00
1.862666e+01	-4.663800e+00
1.873425e+01	-4.696861e+00
1.884246e+01	-4.729681e+00
1.895129e+01	-4.763169e+00
1.906075e+01	-4.796656e+00
1.917085e+01	-4.830074e+00
1.928158e+01	-4.863420e+00
1.939295e+01	-4.897621e+00
1.950496e+01	-4.931282e+00
1.961762e+01	-4.965391e+00
1.973093e+01	-4.999471e+00
1.984490e+01	-5.033876e+00
1.995952e+01	-5.068419e+00
2.007480e+01	-5.103014e+00
2.019076e+01	-5.137208e+00
2.030738e+01	-5.172192e+00
2.042467e+01	-5.206974e+00
2.054264e+01	-5.242247e+00
2.066130e+01	-5.277230e+00
2.078064e+01	-5.312194e+00
2.090066e+01	-5.347685e+00
2.102139e+01	-5.383418e+00
2.114280e+01	-5.418736e+00
2.126492e+01	-5.454436e+00
2.138775e+01	-5.490396e+00
2.151128e+01	-5.526443e+00
2.163553e+01	-5.562262e+00
2.176050e+01	-5.598641e+00
2.188619e+01	-5.634931e+00
2.201260e+01	-5.671202e+00
2.213974e+01	-5.707869e+00
2.226762e+01	-5.744408e+00
2.239624e+01	-5.781129e+00
2.252560e+01	-5.818164e+00
2.265571e+01	-5.855235e+00
2.278656e+01	-5.892275e+00
2.291818e+01	-5.929110e+00
2.305055e+01	-5.966539e+00
2.318369e+01	-6.004256e+00
2.331760e+01	-6.041345e+00
2.345228e+01	-6.079180e+00
2.358774e+01	-6.117016e+00
2.372398e+01	-6.154822e+00
2.386101e+01	-6.192921e+00
2.399883e+01	-6.230899e+00
2.413745e+01	-6.269161e+00
2.427686e+01	-6.307750e+00
2.441709e+01	-6.345632e+00
2.455812e+01	-6.384325e+00
2.469997e+01	-6.422833e+00
2.484263e+01	-6.461338e+00
2.498612e+01	-6.500168e+00
2.513044e+01	-6.539307e+00
2.527559e+01	-6.577518e+00
2.542158e+01	-6.616748e+00
2.556842e+01	-6.656542e+00
2.571610e+01	-6.695459e+00
2.586463e+01	-6.734857e+00
2.601403e+01	-6.774221e+00
2.616428e+01	-6.813713e+00
2.631541e+01	-6.853126e+00
2.646740e+01	-6.893541e+00
2.662028e+01	-6.933266e+00
2.677404e+01	-6.973238e+00
2.692868e+01	-7.013053e+00
2.708422e+01	-7.053066e+00
2.724066e+01	-7.093498e+00
2.739800e+01	-7.133986e+00
2.755625e+01	-7.173780e+00
2.771541e+01	-7.214259e+00
2.787550e+01	-7.255063e+00
2.803650e+01	-7.295893e+00
2.819844e+01	-7.336738e+00
2.836131e+01	-7.377122e+00
2.852513e+01	-7.418346e+00
2.868989e+01	-7.459210e+00
2.885560e+01	-7.500216e+00
2.902227e+01	-7.541726e+00
2.918990e+01	-7.583018e+00
2.935850e+01	-7.623920e+00
2.952807e+01	-7.665698e+00
2.969863e+01	-7.707005e+00
2.987016e+01	-7.748875e+00
3.004269e+01	-7.790378e+00
3.021622e+01	-7.832303e+00
3.039075e+01	-7.873957e+00
3.056628e+01	-7.915648e+00
3.074283e+01	-7.958139e+00
3.092040e+01	-8.000223e+00
3.109900e+01	-8.042047e+00
3.127862e+01	-8.084640e+00
3.145929e+01	-8.126620e+00
3.164099e+01	-8.168637e+00
3.182375e+01	-8.211492e+00
3.200756e+01	-8.253527e+00
3.219244e+01	-8.296457e+00
3.237838e+01	-8.338741e+00
3.256540e+01	-8.381900e+00
3.275349e+01	-8.424789e+00
3.294268e+01	-8.467093e+00
3.313295e+01	-8.509945e+00
3.332433e+01	-8.553317e+00
3.351681e+01	-8.596737e+00
3.371040e+01	-8.639828e+00
3.390511e+01	-8.682981e+00
3.410094e+01	-8.726019e+00
3.429791e+01	-8.769549e+00
3.449601e+01	-8.812972e+00
3.469526e+01	-8.856426e+00
3.489566e+01	-8.899941e+00
3.509721e+01	-8.943234e+00
3.529993e+01	-8.987166e+00
3.550382e+01	-9.030952e+00
3.570889e+01	-9.074325e+00
3.591515e+01	-9.118322e+00
3.612259e+01	-9.162521e+00
3.633123e+01	-9.206458e+00
3.654108e+01	-9.250463e+00
3.675214e+01	-9.294626e+00
3.696442e+01	-9.339115e+00
3.717792e+01	-9.383288e+00
3.739266e+01	-9.426936e+00
3.760864e+01	-9.471929e+00
3.782587e+01	-9.516533e+00
3.804435e+01	-9.560778e+00
3.826409e+01	-9.605197e+00
3.848510e+01	-9.649500e+00
3.870739e+01	-9.694633e+00
3.893096e+01	-9.739387e+00
3.915583e+01	-9.783496e+00
3.938199e+01	-9.827944e+00
3.960946e+01	-9.873273e+00
3.983824e+01	-9.918344e+00
4.006834e+01	-9.963277e+00
4.029978e+01	-1.000791e+01
4.053255e+01	-1.005360e+01
4.076666e+01	-1.009872e+01
4.100213e+01	-1.014377e+01
4.123896e+01	-1.018893e+01
4.147715e+01	-1.023413e+01
4.171672e+01	-1.027932e+01
4.195767e+01	-1.032443e+01
4.220002e+01	-1.036986e+01
4.244377e+01	-1.041525e+01
4.268892e+01	-1.046137e+01
4.293549e+01	-1.050637e+01
4.318348e+01	-1.055267e+01
4.343291e+01	-1.059766e+01
4.368377e+01	-1.064341e+01
4.393609e+01	-1.068933e+01
4.418986e+01	-1.073487e+01
4.444510e+01	-1.078079e+01
4.470182e+01	-1.082669e+01
4.496001e+01	-1.087317e+01
4.521970e+01	-1.091862e+01
4.548089e+01	-1.096467e+01
4.574358e+01	-1.101084e+01
4.600779e+01	-1.105670e+01
4.627353e+01	-1.110305e+01
4.654081e+01	-1.114896e+01
4.680963e+01	-1.119577e+01
4.708000e+01	-1.124146e+01
4.735193e+01	-1.128783e+01
4.762543e+01	-1.133417e+01
4.790051e+01	-1.138070e+01
4.817719e+01	-1.142676e+01
4.845545e+01	-1.147304e+01
4.873533e+01	-1.152018e+01
4.901682e+01	-1.156680e+01
4.929994e+01	-1.161324e+01
4.958470e+01	-1.165958e+01
4.987110e+01	-1.170657e+01
5.015915e+01	-1.175297e+01
5.044887e+01	-1.179931e+01
5.074026e+01	-1.184634e+01
5.103333e+01	-1.189305e+01
5.132810e+01	-1.194024e+01
5.162457e+01	-1.198701e+01
5.192275e+01	-1.203390e+01
5.222265e+01	-1.207987e+01
5.252429e+01	-1.212745e+01
5.282767e+01	-1.217459e+01
5.313280e+01	-1.222125e+01
5.343969e+01	-1.226797e+01
5.374836e+01	-1.231581e+01
5.405880e+01	-1.236279e+01
5.437105e+01	-1.240934e+01
5.468509e+01	-1.245716e+01
5.500095e+01	-1.250417e+01
5.531863e+01	-1.255133e+01
5.563815e+01	-1.259856e+01
5.595951e+01	-1.264594e+01
5.628273e+01	-1.269327e+01
5.660782e+01	-1.273996e+01
5.693479e+01	-1.278772e+01
5.726364e+01	-1.283498e+01
5.759439e+01	-1.288321e+01
5.792705e+01	-1.293082e+01
5.826164e+01	-1.297780e+01
5.859815e+01	-1.302534e+01
5.893662e+01	-1.307266e+01
5.927703e+01	-1.312090e+01
5.961941e+01	-1.316805e+01
5.996377e+01	-1.321575e+01
6.031012e+01	-1.326367e+01
6.065847e+01	-1.331132e+01
6.100883e+01	-1.335934e+01
6.136121e+01	-1.340673e+01
6.171563e+01	-1.345407e+01
6.207210e+01	-1.350275e+01
6.243063e+01	-1.354961e+01
6.279122e+01	-1.359808e+01
6.315390e+01	-1.364536e+01
6.351868e+01	-1.369417e+01
6.388556e+01	-1.374081e+01
6.425456e+01	-1.378950e+01
6.462569e+01	-1.383783e+01
6.499897e+01	-1.388511e+01
6.537440e+01	-1.393290e+01
6.575200e+01	-1.398114e+01
6.613178e+01	-1.402924e+01
6.651375e+01	-1.407688e+01
6.689793e+01	-1.412468e+01
6.728433e+01	-1.417319e+01
6.767297e+01	-1.422124e+01
6.806384e+01	-1.427001e+01
6.845698e+01	-1.431773e+01
6.885238e+01	-1.436619e+01
6.925007e+01	-1.441397e+01
6.965005e+01	-1.446293e+01
7.005235e+01	-1.451105e+01
7.045697e+01	-1.456017e+01
7.086393e+01	-1.460646e+01
7.127323e+01	-1.465587e+01
7.168490e+01	-1.470319e+01
7.209895e+01	-1.475332e+01
7.251539e+01	-1.480099e+01
7.293424e+01	-1.484849e+01
7.335551e+01	-1.489722e+01
7.377920e+01	-1.494637e+01
7.420535e+01	-1.499361e+01
7.463396e+01	-1.504365e+01
7.506504e+01	-1.509162e+01
7.549861e+01	-1.513985e+01
7.593469e+01	-1.518750e+01
7.637328e+01	-1.523591e+01
7.681441e+01	-1.528544e+01
7.725809e+01	-1.533390e+01
7.770433e+01	-1.538182e+01
7.815315e+01	-1.543048e+01
7.860456e+01	-1.547975e+01
7.905857e+01	-1.552784e+01
7.951521e+01	-1.557609e+01
7.997449e+01	-1.562585e+01
8.043642e+01	-1.567389e+01
8.090102e+01	-1.572190e+01
8.136830e+01	-1.577147e+01
8.183828e+01	-1.581990e+01
8.231097e+01	-1.586890e+01
8.278640e+01	-1.591738e+01
8.326457e+01	-1.596627e+01
8.374550e+01	-1.601460e+01
8.422921e+01	-1.606438e+01
8.471572e+01	-1.611243e+01
8.520503e+01	-1.616149e+01
8.569717e+01	-1.621115e+01
8.619215e+01	-1.625874e+01
8.669000e+01	-1.630808e+01
8.719071e+01	-1.635707e+01
8.769432e+01	-1.640512e+01
8.820084e+01	-1.645470e+01
8.871029e+01	-1.650348e+01
8.922267e+01	-1.655233e+01
8.973802e+01	-1.660218e+01
9.025634e+01	-1.664977e+01
9.077766e+01	-1.669899e+01
9.130199e+01	-1.674817e+01
9.182935e+01	-1.679626e+01
9.235975e+01	-1.684584e+01
9.289321e+01	-1.689626e+01
9.342976e+01	-1.694385e+01
9.396941e+01	-1.699376e+01
9.451217e+01	-1.704109e+01
9.505807e+01	-1.709070e+01
9.560712e+01	-1.714116e+01
9.615934e+01	-1.718974e+01
9.671476e+01	-1.723969e+01
9.727338e+01	-1.728744e+01
9.783522e+01	-1.733630e+01
9.840032e+01	-1.738544e+01
9.896867e+01	-1.743562e+01
9.954031e+01	-1.748309e+01
1.001153e+02	-1.753335e+01
1.006935e+02	-1.758264e+01
1.012751e+02	-1.763076e+01
1.018601e+02	-1.768084e+01
1.024484e+02	-1.772989e+01
1.030402e+02	-1.777982e+01
1.036353e+02	-1.782838e+01
1.042339e+02	-1.787709e+01
1.048360e+02	-1.792740e+01
1.054415e+02	-1.797616e+01
1.060505e+02	-1.802576e+01
1.066631e+02	-1.807405e+01
1.072791e+02	-1.812407e+01
1.078988e+02	-1.817223e+01
1.085220e+02	-1.822157e+01
1.091488e+02	-1.827208e+01
1.097793e+02	-1.832086e+01
1.104133e+02	-1.837089e+01
1.110511e+02	-1.841798e+01
1.116925e+02	-1.846851e+01
1.123376e+02	-1.851753e+01
1.129865e+02	-1.856774e+01
1.136391e+02	-1.861689e+01
1.142955e+02	-1.866632e+01
1.149556e+02	-1.871650e+01
1.156196e+02	-1.876607e+01
1.162874e+02	-1.881483e+01
1.169591e+02	-1.886420e+01
1.176347e+02	-1.891308e+01
1.183141e+02	-1.896311e+01
1.189975e+02	-1.901061e+01
1.196848e+02	-1.906189e+01
1.203761e+02	-1.911038e+01
1.210714e+02	-1.916091e+01
1.217707e+02	-1.921029e+01
1.224740e+02	-1.925853e+01
1.231814e+02	-1.930821e+01
1.238929e+02	-1.935883e+01
1.246085e+02	-1.940674e+01
1.253283e+02	-1.945745e+01
1.260522e+02	-1.950645e+01
1.267802e+02	-1.955553e+01
1.275125e+02	-1.960594e+01
1.282490e+02	-1.965488e+01
1.289898e+02	-1.970386e+01
1.297348e+02	-1.975388e+01
1.304842e+02	-1.980389e+01
1.312378e+02	-1.985329e+01
1.319959e+02	-1.990199e+01
1.327583e+02	-1.995347e+01
1.335251e+02	-2.000015e+01
1.342963e+02	-2.004965e+01
1.350720e+02	-2.009844e+01
1.358522e+02	-2.015050e+01
1.366368e+02	-2.019857e+01
1.374260e+02	-2.025001e+01
1.382198e+02	-2.029951e+01
1.390182e+02	-2.034932e+01
1.398211e+02	-2.039819e+01
1.406287e+02	-2.044820e+01
1.414410e+02	-2.049684e+01
1.422579e+02	-2.054746e+01
1.430796e+02	-2.059657e+01
1.439060e+02	-2.064570e+01
1.447372e+02	-2.069510e+01
1.455732e+02	-2.074494e+01
1.464141e+02	-2.079429e+01
1.472597e+02	-2.084382e+01
1.481103e+02	-2.089466e+01
1.489658e+02	-2.094407e+01
1.498262e+02	-2.099449e+01
1.506916e+02	-2.104366e+01
1.515620e+02	-2.109248e+01
1.524374e+02	-2.114288e+01
1.533179e+02	-2.119306e+01
1.542034e+02	-2.124097e+01
1.550941e+02	-2.129167e+01
1.559899e+02	-2.134139e+01
1.568909e+02	-2.139156e+01
1.577971e+02	-2.143916e+01
1.587085e+02	-2.149116e+01
1.596252e+02	-2.154070e+01
1.605472e+02	-2.159021e+01
1.614745e+02	-2.163948e+01
1.624072e+02	-2.168855e+01
1.633453e+02	-2.173685e+01
1.642887e+02	-2.178852e+01
1.652377e+02	-2.183946e+01
1.661921e+02	-2.188878e+01
1.671520e+02	-2.193699e+01
1.681175e+02	-2.198658e+01
1.690885e+02	-2.203625e+01
1.700651e+02	-2.208645e+01
1.710474e+02	-2.213578e+01
1.720354e+02	-2.218760e+01
1.730291e+02	-2.223527e+01
1.740285e+02	-2.228492e+01
1.750337e+02	-2.233763e+01
1.760446e+02	-2.238613e+01
1.770615e+02	-2.243322e+01
1.780842e+02	-2.248344e+01
1.791128e+02	-2.253392e+01
1.801473e+02	-2.258492e+01
1.811878e+02	-2.263590e+01
1.822344e+02	-2.268413e+01
1.832870e+02	-2.273356e+01
1.843456e+02	-2.278366e+01
1.854104e+02	-2.283365e+01
1.864813e+02	-2.288459e+01
1.875584e+02	-2.293485e+01
1.886418e+02	-2.298181e+01
1.897313e+02	-2.303390e+01
1.908272e+02	-2.308110e+01
1.919294e+02	-2.313148e+01
1.930380e+02	-2.318276e+01
1.941530e+02	-2.323141e+01
1.952744e+02	-2.328303e+01
1.964023e+02	-2.333154e+01
1.975367e+02	-2.338315e+01
1.986777e+02	-2.343072e+01
1.998252e+02	-2.347990e+01
2.009794e+02	-2.353002e+01
2.021403e+02	-2.357843e+01
2.033078e+02	-2.363116e+01
2.044821e+02	-2.367721e+01
2.056632e+02	-2.372673e+01
2.068511e+02	-2.378043e+01
2.080459e+02	-2.383062e+01
2.092475e+02	-2.387945e+01
2.104561e+02	-2.392747e+01
2.116717e+02	-2.397834e+01
2.128943e+02	-2.402861e+01
2.141240e+02	-2.407981e+01
2.153608e+02	-2.412942e+01
2.166047e+02	-2.417674e+01
2.178558e+02	-2.423006e+01
2.191141e+02	-2.427728e+01
2.203797e+02	-2.432785e+01
2.216526e+02	-2.437599e+01
2.229329e+02	-2.442731e+01
2.242205e+02	-2.447828e+01
2.255156e+02	-2.453045e+01
2.268182e+02	-2.457479e+01
2.281283e+02	-2.462701e+01
2.294459e+02	-2.467798e+01
2.307712e+02	-2.472486e+01
2.321041e+02	-2.477574e+01
2.334447e+02	-2.482729e+01
2.347931e+02	-2.487527e+01
2.361493e+02	-2.492636e+01
2.375133e+02	-2.497748e+01
2.388851e+02	-2.502736e+01
2.402649e+02	-2.507632e+01
2.416527e+02	-2.512877e+01
2.430484e+02	-2.517859e+01
2.444523e+02	-2.522620e+01
2.458642e+02	-2.527354e+01
2.472843e+02	-2.532511e+01
2.487126e+02	-2.537758e+01
2.501492e+02	-2.542360e+01
2.515940e+02	-2.547478e+01
2.530472e+02	-2.552702e+01
2.545088e+02	-2.557644e+01
2.559789e+02	-2.562582e+01
2.574574e+02	-2.567680e+01
2.589444e+02	-2.572594e+01
2.604401e+02	-2.577735e+01
2.619444e+02	-2.582684e+01
2.634574e+02	-2.587558e+01
2.649791e+02	-2.592539e+01
2.665096e+02	-2.597294e+01
2.680489e+02	-2.602353e+01
2.695972e+02	-2.607551e+01
2.711544e+02	-2.612463e+01
2.727205e+02	-2.617623e+01
2.742958e+02	-2.622480e+01
2.758801e+02	-2.627649e+01
2.774736e+02	-2.632484e+01
2.790762e+02	-2.637278e+01
2.806882e+02	-2.642255e+01
2.823094e+02	-2.647780e+01
2.839400e+02	-2.652486e+01
2.855800e+02	-2.657648e+01
2.872295e+02	-2.662538e+01
2.888886e+02	-2.667426e+01
2.905572e+02	-2.672500e+01
2.922354e+02	-2.677455e+01
2.939234e+02	-2.682475e+01
2.956211e+02	-2.687232e+01
2.973286e+02	-2.692335e+01
2.990459e+02	-2.697534e+01
3.007732e+02	-2.702521e+01
3.025104e+02	-2.707643e+01
3.042577e+02	-2.712038e+01
3.060151e+02	-2.717150e+01
3.077826e+02	-2.722537e+01
3.095604e+02	-2.727254e+01
3.113484e+02	-2.732539e+01
3.131467e+02	-2.737438e+01
3.149554e+02	-2.742384e+01
3.167746e+02	-2.747327e+01
3.186043e+02	-2.752406e+01
3.204445e+02	-2.757494e+01
3.222954e+02	-2.762747e+01
3.241570e+02	-2.767334e+01
3.260293e+02	-2.772651e+01
3.279124e+02	-2.777601e+01
3.298064e+02	-2.782304e+01
3.317114e+02	-2.787687e+01
3.336273e+02	-2.792421e+01
3.355544e+02	-2.797404e+01
3.374925e+02	-2.802555e+01
3.394418e+02	-2.807201e+01
3.414024e+02	-2.812399e+01
3.433744e+02	-2.817508e+01
3.453577e+02	-2.822459e+01
3.473525e+02	-2.827526e+01
3.493588e+02	-2.832593e+01
3.513766e+02	-2.837852e+01
3.534062e+02	-2.842374e+01
3.554474e+02	-2.847189e+01
3.575005e+02	-2.852370e+01
3.595654e+02	-2.857677e+01
3.616422e+02	-2.862681e+01
3.637311e+02	-2.867481e+01
3.658320e+02	-2.872119e+01
3.679450e+02	-2.877591e+01
3.700702e+02	-2.882303e+01
3.722077e+02	-2.887154e+01
3.743576e+02	-2.892556e+01
3.765199e+02	-2.897722e+01
3.786946e+02	-2.902427e+01
3.808820e+02	-2.907518e+01
3.830819e+02	-2.912823e+01
3.852946e+02	-2.917764e+01
3.875200e+02	-2.922216e+01
3.897583e+02	-2.927769e+01
3.920096e+02	-2.932455e+01
3.942738e+02	-2.937285e+01
3.965511e+02	-2.942438e+01
3.988416e+02	-2.947381e+01
4.011452e+02	-2.952871e+01
4.034622e+02	-2.957334e+01
4.057926e+02	-2.962760e+01
4.081365e+02	-2.967564e+01
4.104938e+02	-2.972466e+01
4.128648e+02	-2.977876e+01
4.152495e+02	-2.982219e+01
4.176480e+02	-2.987847e+01
4.200603e+02	-2.992601e+01
4.224866e+02	-2.997692e+01
4.249268e+02	-3.002638e+01
4.273812e+02	-3.007498e+01
4.298497e+02	-3.012744e+01
4.323325e+02	-3.018346e+01
4.348297e+02	-3.023054e+01
4.373412e+02	-3.028232e+01
4.398673e+02	-3.032937e+01
4.424079e+02	-3.037668e+01
4.449633e+02	-3.042688e+01
4.475334e+02	-3.047949e+01
4.501183e+02	-3.053066e+01
4.527182e+02	-3.057826e+01
4.553330e+02	-3.063097e+01
4.579630e+02	-3.067830e+01
4.606082e+02	-3.073665e+01
4.632687e+02	-3.077955e+01
4.659445e+02	-3.082816e+01
4.686358e+02	-3.087820e+01
4.713426e+02	-3.094194e+01
4.740650e+02	-3.097793e+01
4.768032e+02	-3.102746e+01
4.795572e+02	-3.108215e+01
4.823271e+02	-3.113458e+01
4.851130e+02	-3.118384e+01
4.879150e+02	-3.123208e+01
4.907332e+02	-3.128248e+01
4.935676e+02	-3.133318e+01
4.964185e+02	-3.137899e+01
4.992858e+02	-3.142794e+01
5.021696e+02	-3.148484e+01
5.050701e+02	-3.152929e+01
5.079874e+02	-3.158127e+01
5.109215e+02	-3.163530e+01
5.138726e+02	-3.168580e+01
5.168407e+02	-3.172823e+01
5.198259e+02	-3.177902e+01
5.228284e+02	-3.183591e+01
5.258482e+02	-3.188148e+01
5.288855e+02	-3.193755e+01
5.319403e+02	-3.198595e+01
5.350128e+02	-3.203594e+01
5.381030e+02	-3.208368e+01
5.412111e+02	-3.213397e+01
5.443371e+02	-3.218582e+01
5.474812e+02	-3.223199e+01
5.506434e+02	-3.228029e+01
5.538239e+02	-3.233663e+01
5.570228e+02	-3.238307e+01
5.602401e+02	-3.243326e+01
5.634760e+02	-3.247773e+01
5.667306e+02	-3.253005e+01
5.700040e+02	-3.258729e+01
5.732964e+02	-3.263284e+01
5.766077e+02	-3.268159e+01
5.799382e+02	-3.273585e+01
5.832879e+02	-3.278727e+01
5.866569e+02	-3.283273e+01
5.900454e+02	-3.288627e+01
5.934535e+02	-3.293557e+01
5.968813e+02	-3.299707e+01
6.003288e+02	-3.303868e+01
6.037963e+02	-3.308213e+01
6.072838e+02	-3.313454e+01
6.107914e+02	-3.319415e+01
6.143194e+02	-3.323942e+01
6.178676e+02	-3.329195e+01
6.214364e+02	-3.334083e+01
6.250258e+02	-3.338585e+01
6.286359e+02	-3.344095e+01
6.322669e+02	-3.348770e+01
6.359189e+02	-3.354367e+01
6.395919e+02	-3.358931e+01
6.432862e+02	-3.364307e+01
6.470017e+02	-3.369832e+01
6.507388e+02	-3.374257e+01
6.544974e+02	-3.379097e+01
6.582778e+02	-3.384023e+01
6.620800e+02	-3.389099e+01
6.659041e+02	-3.394439e+01
6.697504e+02	-3.400112e+01
6.736188e+02	-3.404629e+01
6.775096e+02	-3.408806e+01
6.814229e+02	-3.414162e+01
6.853587e+02	-3.420252e+01
6.893173e+02	-3.424078e+01
6.932988e+02	-3.429087e+01
6.973033e+02	-3.435021e+01
7.013309e+02	-3.440189e+01
