Frequency(Hz)	Magnitude(dB)
1.000000e+01	-1.831271e-05
1.005776e+01	-1.852487e-05
1.011585e+01	-1.873948e-05
1.017428e+01	-1.895658e-05
1.023305e+01	-1.917620e-05
1.029215e+01	-1.939836e-05
1.035160e+01	-1.962309e-05
1.041139e+01	-1.985043e-05
1.047153e+01	-2.008041e-05
1.053201e+01	-2.031304e-05
1.059284e+01	-2.054837e-05
1.065403e+01	-2.078643e-05
1.071556e+01	-2.102725e-05
1.077746e+01	-2.127085e-05
1.083971e+01	-2.151728e-05
1.090232e+01	-2.176657e-05
1.096529e+01	-2.201874e-05
1.102862e+01	-2.227383e-05
1.109232e+01	-2.253188e-05
1.115639e+01	-2.279291e-05
1.122083e+01	-2.305698e-05
1.128564e+01	-2.332410e-05
1.135083e+01	-2.359431e-05
1.141639e+01	-2.386766e-05
1.148233e+01	-2.414417e-05
1.154865e+01	-2.442389e-05
1.161536e+01	-2.470684e-05
1.168245e+01	-2.499308e-05
1.174992e+01	-2.528263e-05
1.181779e+01	-2.557554e-05
1.188605e+01	-2.587183e-05
1.195470e+01	-2.617157e-05
1.202375e+01	-2.647477e-05
1.209320e+01	-2.678149e-05
1.216305e+01	-2.709176e-05
1.223330e+01	-2.740562e-05
1.230396e+01	-2.772312e-05
1.237503e+01	-2.804430e-05
1.244651e+01	-2.836920e-05
1.251840e+01	-2.869787e-05
1.259070e+01	-2.903034e-05
1.266343e+01	-2.936666e-05
1.273657e+01	-2.970688e-05
1.281014e+01	-3.005104e-05
1.288413e+01	-3.039919e-05
1.295855e+01	-3.075137e-05
1.303339e+01	-3.110763e-05
1.310867e+01	-3.146802e-05
1.318439e+01	-3.183259e-05
1.326054e+01	-3.220138e-05
1.333713e+01	-3.257444e-05
1.341417e+01	-3.295182e-05
1.349165e+01	-3.333357e-05
1.356958e+01	-3.371975e-05
1.364795e+01	-3.411040e-05
1.372678e+01	-3.450558e-05
1.380607e+01	-3.490533e-05
1.388581e+01	-3.530972e-05
1.396602e+01	-3.571879e-05
1.404668e+01	-3.613260e-05
1.412782e+01	-3.655121e-05
1.420942e+01	-3.697466e-05
1.429149e+01	-3.740302e-05
1.437404e+01	-3.783634e-05
1.445706e+01	-3.827469e-05
1.454057e+01	-3.871811e-05
1.462455e+01	-3.916667e-05
1.470902e+01	-3.962042e-05
1.479398e+01	-4.007943e-05
1.487943e+01	-4.054376e-05
1.496537e+01	-4.101347e-05
1.505181e+01	-4.148862e-05
1.513875e+01	-4.196927e-05
1.522619e+01	-4.245550e-05
1.531414e+01	-4.294735e-05
1.540259e+01	-4.344491e-05
1.549156e+01	-4.394823e-05
1.558103e+01	-4.445738e-05
1.567103e+01	-4.497243e-05
1.576155e+01	-4.549344e-05
1.585258e+01	-4.602049e-05
1.594415e+01	-4.655365e-05
1.603624e+01	-4.709298e-05
1.612886e+01	-4.763857e-05
1.622202e+01	-4.819047e-05
1.631572e+01	-4.874877e-05
1.640996e+01	-4.931353e-05
1.650474e+01	-4.988484e-05
1.660008e+01	-5.046277e-05
1.669596e+01	-5.104739e-05
1.679239e+01	-5.163878e-05
1.688938e+01	-5.223703e-05
1.698694e+01	-5.284221e-05
1.708505e+01	-5.345439e-05
1.718373e+01	-5.407367e-05
1.728299e+01	-5.470013e-05
1.738281e+01	-5.533384e-05
1.748322e+01	-5.597490e-05
1.758420e+01	-5.662338e-05
1.768576e+01	-5.727937e-05
1.778792e+01	-5.794296e-05
1.789066e+01	-5.861424e-05
1.799399e+01	-5.929330e-05
1.809793e+01	-5.998023e-05
1.820246e+01	-6.067511e-05
1.830760e+01	-6.137804e-05
1.841334e+01	-6.208912e-05
1.851969e+01	-6.280843e-05
1.862666e+01	-6.353608e-05
1.873425e+01	-6.427216e-05
1.884246e+01	-6.501676e-05
1.895129e+01	-6.577000e-05
1.906075e+01	-6.653195e-05
1.917085e+01	-6.730274e-05
1.928158e+01	-6.808245e-05
1.939295e+01	-6.887120e-05
1.950496e+01	-6.966909e-05
1.961762e+01	-7.047622e-05
1.973093e+01	-7.129270e-05
1.984490e+01	-7.211864e-05
1.995952e+01	-7.295414e-05
2.007480e+01	-7.379933e-05
2.019076e+01	-7.465431e-05
2.030738e+01	-7.551919e-05
2.042467e+01	-7.639410e-05
2.054264e+01	-7.727914e-05
2.066130e+01	-7.817443e-05
2.078064e+01	-7.908009e-05
2.090066e+01	-7.999625e-05
2.102139e+01	-8.092302e-05
2.114280e+01	-8.186053e-05
2.126492e+01	-8.280889e-05
2.138775e+01	-8.376825e-05
2.151128e+01	-8.473872e-05
2.163553e+01	-8.572043e-05
2.176050e+01	-8.671352e-05
2.188619e+01	-8.771811e-05
2.201260e+01	-8.873433e-05
2.213974e+01	-8.976234e-05
2.226762e+01	-9.080225e-05
2.239624e+01	-9.185421e-05
2.252560e+01	-9.291835e-05
2.265571e+01	-9.399482e-05
2.278656e+01	-9.508377e-05
2.291818e+01	-9.618533e-05
2.305055e+01	-9.729965e-05
2.318369e+01	-9.842688e-05
2.331760e+01	-9.956717e-05
2.345228e+01	-1.007207e-04
2.358774e+01	-1.018875e-04
2.372398e+01	-1.030679e-04
2.386101e+01	-1.042620e-04
2.399883e+01	-1.054699e-04
2.413745e+01	-1.066917e-04
2.427686e+01	-1.079278e-04
2.441709e+01	-1.091781e-04
2.455812e+01	-1.104430e-04
2.469997e+01	-1.117225e-04
2.484263e+01	-1.130168e-04
2.498612e+01	-1.143261e-04
2.513044e+01	-1.156506e-04
2.527559e+01	-1.169904e-04
2.542158e+01	-1.183458e-04
2.556842e+01	-1.197168e-04
2.571610e+01	-1.211038e-04
2.586463e+01	-1.225068e-04
2.601403e+01	-1.239260e-04
2.616428e+01	-1.253617e-04
2.631541e+01	-1.268140e-04
2.646740e+01	-1.282832e-04
2.662028e+01	-1.297694e-04
2.677404e+01	-1.312728e-04
2.692868e+01	-1.327936e-04
2.708422e+01	-1.343320e-04
2.724066e+01	-1.358882e-04
2.739800e+01	-1.374625e-04
2.755625e+01	-1.390550e-04
2.771541e+01	-1.406660e-04
2.787550e+01	-1.422956e-04
2.803650e+01	-1.439441e-04
2.819844e+01	-1.456117e-04
2.836131e+01	-1.472987e-04
2.852513e+01	-1.490051e-04
2.868989e+01	-1.507314e-04
2.885560e+01	-1.524776e-04
2.902227e+01	-1.542441e-04
2.918990e+01	-1.560310e-04
2.935850e+01	-1.578386e-04
2.952807e+01	-1.596672e-04
2.969863e+01	-1.615169e-04
2.987016e+01	-1.633881e-04
3.004269e+01	-1.652810e-04
3.021622e+01	-1.671958e-04
3.039075e+01	-1.691328e-04
3.056628e+01	-1.710922e-04
3.074283e+01	-1.730743e-04
3.092040e+01	-1.750794e-04
3.109900e+01	-1.771077e-04
3.127862e+01	-1.791595e-04
3.145929e+01	-1.812350e-04
3.164099e+01	-1.833346e-04
3.182375e+01	-1.854586e-04
3.200756e+01	-1.876071e-04
3.219244e+01	-1.897805e-04
3.237838e+01	-1.919792e-04
3.256540e+01	-1.942032e-04
3.275349e+01	-1.964531e-04
3.294268e+01	-1.987290e-04
3.313295e+01	-2.010313e-04
3.332433e+01	-2.033602e-04
3.351681e+01	-2.057162e-04
3.371040e+01	-2.080994e-04
3.390511e+01	-2.105102e-04
3.410094e+01	-2.129490e-04
3.429791e+01	-2.154160e-04
3.449601e+01	-2.179116e-04
3.469526e+01	-2.204361e-04
3.489566e+01	-2.229898e-04
3.509721e+01	-2.255732e-04
3.529993e+01	-2.281864e-04
3.550382e+01	-2.308299e-04
3.570889e+01	-2.335041e-04
3.591515e+01	-2.362092e-04
3.612259e+01	-2.389457e-04
3.633123e+01	-2.417139e-04
3.654108e+01	-2.445141e-04
3.675214e+01	-2.473468e-04
3.696442e+01	-2.502123e-04
3.717792e+01	-2.531110e-04
3.739266e+01	-2.560433e-04
3.760864e+01	-2.590095e-04
3.782587e+01	-2.620101e-04
3.804435e+01	-2.650455e-04
3.826409e+01	-2.681160e-04
3.848510e+01	-2.712221e-04
3.870739e+01	-2.743642e-04
3.893096e+01	-2.775427e-04
3.915583e+01	-2.807580e-04
3.938199e+01	-2.840106e-04
3.960946e+01	-2.873008e-04
3.983824e+01	-2.906292e-04
4.006834e+01	-2.939961e-04
4.029978e+01	-2.974020e-04
4.053255e+01	-3.008473e-04
4.076666e+01	-3.043326e-04
4.100213e+01	-3.078583e-04
4.123896e+01	-3.114248e-04
4.147715e+01	-3.150326e-04
4.171672e+01	-3.186822e-04
4.195767e+01	-3.223741e-04
4.220002e+01	-3.261087e-04
4.244377e+01	-3.298866e-04
4.268892e+01	-3.337083e-04
4.293549e+01	-3.375743e-04
4.318348e+01	-3.414850e-04
4.343291e+01	-3.454410e-04
4.368377e+01	-3.494429e-04
4.393609e+01	-3.534911e-04
4.418986e+01	-3.575863e-04
4.444510e+01	-3.617288e-04
4.470182e+01	-3.659194e-04
4.496001e+01	-3.701585e-04
4.521970e+01	-3.744467e-04
4.548089e+01	-3.787846e-04
4.574358e+01	-3.831727e-04
4.600779e+01	-3.876117e-04
4.627353e+01	-3.921020e-04
4.654081e+01	-3.966444e-04
4.680963e+01	-4.012395e-04
4.708000e+01	-4.058877e-04
4.735193e+01	-4.105898e-04
4.762543e+01	-4.153464e-04
4.790051e+01	-4.201581e-04
4.817719e+01	-4.250255e-04
4.845545e+01	-4.299493e-04
4.873533e+01	-4.349301e-04
4.901682e+01	-4.399686e-04
4.929994e+01	-4.450655e-04
4.958470e+01	-4.502215e-04
4.987110e+01	-4.554371e-04
5.015915e+01	-4.607132e-04
5.044887e+01	-4.660504e-04
5.074026e+01	-4.714495e-04
5.103333e+01	-4.769110e-04
5.132810e+01	-4.824359e-04
5.162457e+01	-4.880247e-04
5.192275e+01	-4.936783e-04
5.222265e+01	-4.993974e-04
5.252429e+01	-5.051827e-04
5.282767e+01	-5.110350e-04
5.313280e+01	-5.169551e-04
5.343969e+01	-5.229438e-04
5.374836e+01	-5.290019e-04
5.405880e+01	-5.351302e-04
5.437105e+01	-5.413294e-04
5.468509e+01	-5.476005e-04
5.500095e+01	-5.539442e-04
5.531863e+01	-5.603614e-04
5.563815e+01	-5.668529e-04
5.595951e+01	-5.734196e-04
5.628273e+01	-5.800624e-04
5.660782e+01	-5.867821e-04
5.693479e+01	-5.935797e-04
5.726364e+01	-6.004560e-04
5.759439e+01	-6.074119e-04
5.792705e+01	-6.144485e-04
5.826164e+01	-6.215665e-04
5.859815e+01	-6.287670e-04
5.893662e+01	-6.360509e-04
5.927703e+01	-6.434192e-04
5.961941e+01	-6.508728e-04
5.996377e+01	-6.584128e-04
6.031012e+01	-6.660401e-04
6.065847e+01	-6.737558e-04
6.100883e+01	-6.815608e-04
6.136121e+01	-6.894563e-04
6.171563e+01	-6.974432e-04
6.207210e+01	-7.055226e-04
6.243063e+01	-7.136956e-04
6.279122e+01	-7.219632e-04
6.315390e+01	-7.303267e-04
6.351868e+01	-7.387870e-04
6.388556e+01	-7.473453e-04
6.425456e+01	-7.560028e-04
6.462569e+01	-7.647605e-04
6.499897e+01	-7.736197e-04
6.537440e+01	-7.825814e-04
6.575200e+01	-7.916470e-04
6.613178e+01	-8.008176e-04
6.651375e+01	-8.100945e-04
6.689793e+01	-8.194788e-04
6.728433e+01	-8.289717e-04
6.767297e+01	-8.385747e-04
6.806384e+01	-8.482888e-04
6.845698e+01	-8.581155e-04
6.885238e+01	-8.680560e-04
6.925007e+01	-8.781117e-04
6.965005e+01	-8.882838e-04
7.005235e+01	-8.985738e-04
7.045697e+01	-9.089829e-04
7.086393e+01	-9.195126e-04
7.127323e+01	-9.301643e-04
7.168490e+01	-9.409393e-04
7.209895e+01	-9.518391e-04
7.251539e+01	-9.628652e-04
7.293424e+01	-9.740190e-04
7.335551e+01	-9.853020e-04
7.377920e+01	-9.967157e-04
7.420535e+01	-1.008262e-03
7.463396e+01	-1.019941e-03
7.506504e+01	-1.031756e-03
7.549861e+01	-1.043708e-03
7.593469e+01	-1.055798e-03
7.637328e+01	-1.068028e-03
7.681441e+01	-1.080400e-03
7.725809e+01	-1.092915e-03
7.770433e+01	-1.105575e-03
7.815315e+01	-1.118382e-03
7.860456e+01	-1.131337e-03
7.905857e+01	-1.144442e-03
7.951521e+01	-1.157699e-03
7.997449e+01	-1.171110e-03
8.043642e+01	-1.184675e-03
8.090102e+01	-1.198398e-03
8.136830e+01	-1.212280e-03
8.183828e+01	-1.226323e-03
8.231097e+01	-1.240528e-03
8.278640e+01	-1.254898e-03
8.326457e+01	-1.269434e-03
8.374550e+01	-1.284139e-03
8.422921e+01	-1.299013e-03
8.471572e+01	-1.314061e-03
8.520503e+01	-1.329282e-03
8.569717e+01	-1.344680e-03
8.619215e+01	-1.360256e-03
8.669000e+01	-1.376012e-03
8.719071e+01	-1.391951e-03
8.769432e+01	-1.408075e-03
8.820084e+01	-1.424385e-03
8.871029e+01	-1.440884e-03
8.922267e+01	-1.457574e-03
8.973802e+01	-1.474458e-03
9.025634e+01	-1.491537e-03
9.077766e+01	-1.508814e-03
9.130199e+01	-1.526291e-03
9.182935e+01	-1.543970e-03
9.235975e+01	-1.561854e-03
9.289321e+01	-1.579945e-03
9.342976e+01	-1.598246e-03
9.396941e+01	-1.616759e-03
9.451217e+01	-1.635486e-03
9.505807e+01	-1.654430e-03
9.560712e+01	-1.673593e-03
9.615934e+01	-1.692978e-03
9.671476e+01	-1.712588e-03
9.727338e+01	-1.732425e-03
9.783522e+01	-1.752491e-03
9.840032e+01	-1.772790e-03
9.896867e+01	-1.793324e-03
9.954031e+01	-1.814096e-03
1.001153e+02	-1.835108e-03
1.006935e+02	-1.856364e-03
1.012751e+02	-1.877866e-03
1.018601e+02	-1.899617e-03
1.024484e+02	-1.921619e-03
1.030402e+02	-1.943877e-03
1.036353e+02	-1.966392e-03
1.042339e+02	-1.989168e-03
1.048360e+02	-2.012208e-03
1.054415e+02	-2.035514e-03
1.060505e+02	-2.059091e-03
1.066631e+02	-2.082940e-03
1.072791e+02	-2.107066e-03
1.078988e+02	-2.131471e-03
1.085220e+02	-2.156158e-03
1.091488e+02	-2.181131e-03
1.097793e+02	-2.206394e-03
1.104133e+02	-2.231949e-03
1.110511e+02	-2.257800e-03
1.116925e+02	-2.283950e-03
1.123376e+02	-2.310404e-03
1.129865e+02	-2.337163e-03
1.136391e+02	-2.364232e-03
1.142955e+02	-2.391615e-03
1.149556e+02	-2.419315e-03
1.156196e+02	-2.447335e-03
1.162874e+02	-2.475680e-03
1.169591e+02	-2.504353e-03
1.176347e+02	-2.533358e-03
1.183141e+02	-2.562699e-03
1.189975e+02	-2.592380e-03
1.196848e+02	-2.622404e-03
1.203761e+02	-2.652776e-03
1.210714e+02	-2.683500e-03
1.217707e+02	-2.714579e-03
1.224740e+02	-2.746019e-03
1.231814e+02	-2.777822e-03
1.238929e+02	-2.809993e-03
1.246085e+02	-2.842537e-03
1.253283e+02	-2.875458e-03
1.260522e+02	-2.908759e-03
1.267802e+02	-2.942447e-03
1.275125e+02	-2.976524e-03
1.282490e+02	-3.010996e-03
1.289898e+02	-3.045867e-03
1.297348e+02	-3.081141e-03
1.304842e+02	-3.116824e-03
1.312378e+02	-3.152921e-03
1.319959e+02	-3.189434e-03
1.327583e+02	-3.226371e-03
1.335251e+02	-3.263735e-03
1.342963e+02	-3.301532e-03
1.350720e+02	-3.339767e-03
1.358522e+02	-3.378444e-03
1.366368e+02	-3.417568e-03
1.374260e+02	-3.457146e-03
1.382198e+02	-3.497182e-03
1.390182e+02	-3.537681e-03
1.398211e+02	-3.578649e-03
1.406287e+02	-3.620091e-03
1.414410e+02	-3.662013e-03
1.422579e+02	-3.704421e-03
1.430796e+02	-3.747319e-03
1.439060e+02	-3.790714e-03
1.447372e+02	-3.834611e-03
1.455732e+02	-3.879016e-03
1.464141e+02	-3.923935e-03
1.472597e+02	-3.969374e-03
1.481103e+02	-4.015339e-03
1.489658e+02	-4.061836e-03
1.498262e+02	-4.108871e-03
1.506916e+02	-4.156450e-03
1.515620e+02	-4.204581e-03
1.524374e+02	-4.253268e-03
1.533179e+02	-4.302519e-03
1.542034e+02	-4.352339e-03
1.550941e+02	-4.402737e-03
1.559899e+02	-4.453717e-03
1.568909e+02	-4.505288e-03
1.577971e+02	-4.557456e-03
1.587085e+02	-4.610227e-03
1.596252e+02	-4.663609e-03
1.605472e+02	-4.717608e-03
1.614745e+02	-4.772233e-03
1.624072e+02	-4.827490e-03
1.633453e+02	-4.883386e-03
1.642887e+02	-4.939929e-03
1.652377e+02	-4.997126e-03
1.661921e+02	-5.054986e-03
1.671520e+02	-5.113514e-03
1.681175e+02	-5.172720e-03
1.690885e+02	-5.232612e-03
1.700651e+02	-5.293196e-03
1.710474e+02	-5.354481e-03
1.720354e+02	-5.416475e-03
1.730291e+02	-5.479187e-03
1.740285e+02	-5.542624e-03
1.750337e+02	-5.606795e-03
1.760446e+02	-5.671709e-03
1.770615e+02	-5.737374e-03
1.780842e+02	-5.803798e-03
1.791128e+02	-5.870991e-03
1.801473e+02	-5.938961e-03
1.811878e+02	-6.007718e-03
1.822344e+02	-6.077270e-03
1.832870e+02	-6.147627e-03
1.843456e+02	-6.218798e-03
1.854104e+02	-6.290792e-03
1.864813e+02	-6.363619e-03
1.875584e+02	-6.437288e-03
1.886418e+02	-6.511810e-03
1.897313e+02	-6.587193e-03
1.908272e+02	-6.663449e-03
1.919294e+02	-6.740587e-03
1.930380e+02	-6.818617e-03
1.941530e+02	-6.897549e-03
1.952744e+02	-6.977395e-03
1.964023e+02	-7.058164e-03
1.975367e+02	-7.139867e-03
1.986777e+02	-7.222515e-03
1.998252e+02	-7.306119e-03
2.009794e+02	-7.390690e-03
2.021403e+02	-7.476240e-03
2.033078e+02	-7.562778e-03
2.044821e+02	-7.650318e-03
2.056632e+02	-7.738869e-03
2.068511e+02	-7.828445e-03
2.080459e+02	-7.919057e-03
2.092475e+02	-8.010716e-03
2.104561e+02	-8.103436e-03
2.116717e+02	-8.197227e-03
2.128943e+02	-8.292103e-03
2.141240e+02	-8.388076e-03
2.153608e+02	-8.485159e-03
2.166047e+02	-8.583364e-03
2.178558e+02	-8.682705e-03
2.191141e+02	-8.783195e-03
2.203797e+02	-8.884846e-03
2.216526e+02	-8.987672e-03
2.229329e+02	-9.091687e-03
2.242205e+02	-9.196905e-03
2.255156e+02	-9.303339e-03
2.268182e+02	-9.411004e-03
2.281283e+02	-9.519913e-03
2.294459e+02	-9.630081e-03
2.307712e+02	-9.741522e-03
2.321041e+02	-9.854252e-03
2.334447e+02	-9.968284e-03
2.347931e+02	-1.008363e-02
2.361493e+02	-1.020032e-02
2.375133e+02	-1.031835e-02
2.388851e+02	-1.043775e-02
2.402649e+02	-1.055852e-02
2.416527e+02	-1.068070e-02
2.430484e+02	-1.080428e-02
2.444523e+02	-1.092929e-02
2.458642e+02	-1.105575e-02
2.472843e+02	-1.118367e-02
2.487126e+02	-1.131307e-02
2.501492e+02	-1.144396e-02
2.515940e+02	-1.157636e-02
2.530472e+02	-1.171029e-02
2.545088e+02	-1.184578e-02
2.559789e+02	-1.198282e-02
2.574574e+02	-1.212145e-02
2.589444e+02	-1.226168e-02
2.604401e+02	-1.240353e-02
2.619444e+02	-1.254702e-02
2.634574e+02	-1.269217e-02
2.649791e+02	-1.283900e-02
2.665096e+02	-1.298752e-02
2.680489e+02	-1.313775e-02
2.695972e+02	-1.328972e-02
2.711544e+02	-1.344345e-02
2.727205e+02	-1.359895e-02
2.742958e+02	-1.375625e-02
2.758801e+02	-1.391536e-02
2.774736e+02	-1.407631e-02
2.790762e+02	-1.423912e-02
2.806882e+02	-1.440381e-02
2.823094e+02	-1.457040e-02
2.839400e+02	-1.473891e-02
2.855800e+02	-1.490937e-02
2.872295e+02	-1.508180e-02
2.888886e+02	-1.525622e-02
2.905572e+02	-1.543265e-02
2.922354e+02	-1.561112e-02
2.939234e+02	-1.579165e-02
2.956211e+02	-1.597426e-02
2.973286e+02	-1.615898e-02
2.990459e+02	-1.634584e-02
3.007732e+02	-1.653485e-02
3.025104e+02	-1.672604e-02
3.042577e+02	-1.691943e-02
3.060151e+02	-1.711506e-02
3.077826e+02	-1.731295e-02
3.095604e+02	-1.751312e-02
3.113484e+02	-1.771560e-02
3.131467e+02	-1.792041e-02
3.149554e+02	-1.812759e-02
3.167746e+02	-1.833716e-02
3.186043e+02	-1.854914e-02
3.204445e+02	-1.876357e-02
3.222954e+02	-1.898048e-02
3.241570e+02	-1.919988e-02
3.260293e+02	-1.942182e-02
3.279124e+02	-1.964632e-02
3.298064e+02	-1.987340e-02
3.317114e+02	-2.010311e-02
3.336273e+02	-2.033546e-02
3.355544e+02	-2.057049e-02
3.374925e+02	-2.080823e-02
3.394418e+02	-2.104871e-02
3.414024e+02	-2.129197e-02
3.433744e+02	-2.153803e-02
3.453577e+02	-2.178693e-02
3.473525e+02	-2.203869e-02
3.493588e+02	-2.229336e-02
3.513766e+02	-2.255096e-02
3.534062e+02	-2.281153e-02
3.554474e+02	-2.307510e-02
3.575005e+02	-2.334171e-02
3.595654e+02	-2.361139e-02
3.616422e+02	-2.388418e-02
3.637311e+02	-2.416012e-02
3.658320e+02	-2.443923e-02
3.679450e+02	-2.472155e-02
3.700702e+02	-2.500713e-02
3.722077e+02	-2.529600e-02
3.743576e+02	-2.558820e-02
3.765199e+02	-2.588376e-02
3.786946e+02	-2.618272e-02
3.808820e+02	-2.648513e-02
3.830819e+02	-2.679101e-02
3.852946e+02	-2.710042e-02
3.875200e+02	-2.741339e-02
3.897583e+02	-2.772997e-02
3.920096e+02	-2.805019e-02
3.942738e+02	-2.837409e-02
3.965511e+02	-2.870172e-02
3.988416e+02	-2.903313e-02
4.011452e+02	-2.936834e-02
4.034622e+02	-2.970742e-02
4.057926e+02	-3.005039e-02
4.081365e+02	-3.039731e-02
4.104938e+02	-3.074822e-02
4.128648e+02	-3.110317e-02
4.152495e+02	-3.146220e-02
4.176480e+02	-3.182536e-02
4.200603e+02	-3.219269e-02
4.224866e+02	-3.256425e-02
4.249268e+02	-3.294008e-02
4.273812e+02	-3.332023e-02
4.298497e+02	-3.370475e-02
4.323325e+02	-3.409370e-02
4.348297e+02	-3.448711e-02
4.373412e+02	-3.488504e-02
4.398673e+02	-3.528755e-02
4.424079e+02	-3.569468e-02
4.449633e+02	-3.610649e-02
4.475334e+02	-3.652303e-02
4.501183e+02	-3.694435e-02
4.527182e+02	-3.737052e-02
4.553330e+02	-3.780158e-02
4.579630e+02	-3.823759e-02
4.606082e+02	-3.867860e-02
4.632687e+02	-3.912468e-02
4.659445e+02	-3.957588e-02
4.686358e+02	-4.003226e-02
4.713426e+02	-4.049388e-02
4.740650e+02	-4.096079e-02
4.768032e+02	-4.143307e-02
4.795572e+02	-4.191076e-02
4.823271e+02	-4.239393e-02
4.851130e+02	-4.288265e-02
4.879150e+02	-4.337697e-02
4.907332e+02	-4.387696e-02
4.935676e+02	-4.438268e-02
4.964185e+02	-4.489420e-02
4.992858e+02	-4.541159e-02
5.021696e+02	-4.593491e-02
5.050701e+02	-4.646423e-02
5.079874e+02	-4.699961e-02
5.109215e+02	-4.754113e-02
5.138726e+02	-4.808885e-02
5.168407e+02	-4.864285e-02
5.198259e+02	-4.920319e-02
5.228284e+02	-4.976995e-02
5.258482e+02	-5.034320e-02
5.288855e+02	-5.092302e-02
5.319403e+02	-5.150947e-02
5.350128e+02	-5.210264e-02
5.381030e+02	-5.270259e-02
5.412111e+02	-5.330941e-02
5.443371e+02	-5.392318e-02
5.474812e+02	-5.454396e-02
5.506434e+02	-5.517185e-02
5.538239e+02	-5.580692e-02
5.570228e+02	-5.644925e-02
5.602401e+02	-5.709893e-02
5.634760e+02	-5.775603e-02
5.667306e+02	-5.842065e-02
5.700040e+02	-5.909286e-02
5.732964e+02	-5.977275e-02
5.766077e+02	-6.046041e-02
5.799382e+02	-6.115592e-02
5.832879e+02	-6.185938e-02
5.866569e+02	-6.257088e-02
5.900454e+02	-6.329049e-02
5.934535e+02	-6.401832e-02
5.968813e+02	-6.475446e-02
6.003288e+02	-6.549900e-02
6.037963e+02	-6.625203e-02
6.072838e+02	-6.701365e-02
6.107914e+02	-6.778397e-02
6.143194e+02	-6.856306e-02
6.178676e+02	-6.935104e-02
6.214364e+02	-7.014800e-02
6.250258e+02	-7.095405e-02
6.286359e+02	-7.176928e-02
6.322669e+02	-7.259379e-02
6.359189e+02	-7.342771e-02
6.395919e+02	-7.427111e-02
6.432862e+02	-7.512412e-02
6.470017e+02	-7.598685e-02
6.507388e+02	-7.685939e-02
6.544974e+02	-7.774186e-02
6.582778e+02	-7.863437e-02
6.620800e+02	-7.953703e-02
6.659041e+02	-8.044996e-02
6.697504e+02	-8.137327e-02
6.736188e+02	-8.230708e-02
6.775096e+02	-8.325150e-02
6.814229e+02	-8.420665e-02
6.853587e+02	-8.517265e-02
6.893173e+02	-8.614962e-02
6.932988e+02	-8.713769e-02
6.973033e+02	-8.813697e-02
7.013309e+02	-8.914759e-02
