Frequency(Hz)	Magnitude(dB)
1.000000e+01	-2.054785e+00
1.005776e+01	-2.073797e+00
1.011585e+01	-2.092908e+00
1.017428e+01	-2.112018e+00
1.023305e+01	-2.131417e+00
1.029215e+01	-2.150849e+00
1.035160e+01	-2.170422e+00
1.041139e+01	-2.190264e+00
1.047153e+01	-2.210089e+00
1.053201e+01	-2.230251e+00
1.059284e+01	-2.250197e+00
1.065403e+01	-2.270556e+00
1.071556e+01	-2.291075e+00
1.077746e+01	-2.311545e+00
1.083971e+01	-2.332283e+00
1.090232e+01	-2.353300e+00
1.096529e+01	-2.374027e+00
1.102862e+01	-2.395033e+00
1.109232e+01	-2.416383e+00
1.115639e+01	-2.438036e+00
1.122083e+01	-2.459681e+00
1.128564e+01	-2.481265e+00
1.135083e+01	-2.502983e+00
1.141639e+01	-2.525101e+00
1.148233e+01	-2.546992e+00
1.154865e+01	-2.569402e+00
1.161536e+01	-2.591910e+00
1.168245e+01	-2.614271e+00
1.174992e+01	-2.637280e+00
1.181779e+01	-2.659860e+00
1.188605e+01	-2.682806e+00
1.195470e+01	-2.705982e+00
1.202375e+01	-2.729445e+00
1.209320e+01	-2.752750e+00
1.216305e+01	-2.776212e+00
1.223330e+01	-2.799715e+00
1.230396e+01	-2.823971e+00
1.237503e+01	-2.847701e+00
1.244651e+01	-2.872140e+00
1.251840e+01	-2.896073e+00
1.259070e+01	-2.920771e+00
1.266343e+01	-2.945108e+00
1.273657e+01	-2.969769e+00
1.281014e+01	-2.994716e+00
1.288413e+01	-3.019615e+00
1.295855e+01	-3.044840e+00
1.303339e+01	-3.070235e+00
1.310867e+01	-3.095466e+00
1.318439e+01	-3.121139e+00
1.326054e+01	-3.146886e+00
1.333713e+01	-3.172711e+00
1.341417e+01	-3.198742e+00
1.349165e+01	-3.225010e+00
1.356958e+01	-3.251235e+00
1.364795e+01	-3.277540e+00
1.372678e+01	-3.304115e+00
1.380607e+01	-3.330779e+00
1.388581e+01	-3.357745e+00
1.396602e+01	-3.384801e+00
1.404668e+01	-3.411919e+00
1.412782e+01	-3.439113e+00
1.420942e+01	-3.466694e+00
1.429149e+01	-3.494227e+00
1.437404e+01	-3.521986e+00
1.445706e+01	-3.549809e+00
1.454057e+01	-3.577905e+00
1.462455e+01	-3.605914e+00
1.470902e+01	-3.634213e+00
1.479398e+01	-3.662587e+00
1.487943e+01	-3.691190e+00
1.496537e+01	-3.720095e+00
1.505181e+01	-3.748698e+00
1.513875e+01	-3.778052e+00
1.522619e+01	-3.806992e+00
1.531414e+01	-3.836325e+00
1.540259e+01	-3.865790e+00
1.549156e+01	-3.894977e+00
1.558103e+01	-3.924965e+00
1.567103e+01	-3.954713e+00
1.576155e+01	-3.984480e+00
1.585258e+01	-4.014766e+00
1.594415e+01	-4.045337e+00
1.603624e+01	-4.075267e+00
1.612886e+01	-4.106028e+00
1.622202e+01	-4.136567e+00
1.631572e+01	-4.167171e+00
1.640996e+01	-4.198441e+00
1.650474e+01	-4.229134e+00
1.660008e+01	-4.260598e+00
1.669596e+01	-4.291926e+00
1.679239e+01	-4.323265e+00
1.688938e+01	-4.354925e+00
1.698694e+01	-4.386840e+00
1.708505e+01	-4.418533e+00
1.718373e+01	-4.450634e+00
1.728299e+01	-4.482592e+00
1.738281e+01	-4.514907e+00
1.748322e+01	-4.547482e+00
1.758420e+01	-4.579902e+00
1.768576e+01	-4.613034e+00
1.778792e+01	-4.645287e+00
1.789066e+01	-4.678163e+00
1.799399e+01	-4.711088e+00
1.809793e+01	-4.744669e+00
1.820246e+01	-4.777704e+00
1.830760e+01	-4.811363e+00
1.841334e+01	-4.844791e+00
1.851969e+01	-4.878628e+00
1.862666e+01	-4.912189e+00
1.873425e+01	-4.946675e+00
1.884246e+01	-4.980610e+00
1.895129e+01	-5.014900e+00
1.906075e+01	-5.048858e+00
1.917085e+01	-5.083416e+00
1.928158e+01	-5.117928e+00
1.939295e+01	-5.152755e+00
1.950496e+01	-5.187353e+00
1.961762e+01	-5.222513e+00
1.973093e+01	-5.257613e+00
1.984490e+01	-5.292598e+00
1.995952e+01	-5.327933e+00
2.007480e+01	-5.363325e+00
2.019076e+01	-5.399032e+00
2.030738e+01	-5.434491e+00
2.042467e+01	-5.470369e+00
2.054264e+01	-5.506268e+00
2.066130e+01	-5.542042e+00
2.078064e+01	-5.578287e+00
2.090066e+01	-5.614435e+00
2.102139e+01	-5.650963e+00
2.114280e+01	-5.687508e+00
2.126492e+01	-5.723962e+00
2.138775e+01	-5.760405e+00
2.151128e+01	-5.797295e+00
2.163553e+01	-5.834452e+00
2.176050e+01	-5.871132e+00
2.188619e+01	-5.908297e+00
2.201260e+01	-5.945555e+00
2.213974e+01	-5.982923e+00
2.226762e+01	-6.020843e+00
2.239624e+01	-6.058337e+00
2.252560e+01	-6.096055e+00
2.265571e+01	-6.133482e+00
2.278656e+01	-6.171775e+00
2.291818e+01	-6.209461e+00
2.305055e+01	-6.247609e+00
2.318369e+01	-6.285733e+00
2.331760e+01	-6.323923e+00
2.345228e+01	-6.362378e+00
2.358774e+01	-6.401255e+00
2.372398e+01	-6.439847e+00
2.386101e+01	-6.478392e+00
2.399883e+01	-6.516969e+00
2.413745e+01	-6.556385e+00
2.427686e+01	-6.595129e+00
2.441709e+01	-6.634410e+00
2.455812e+01	-6.673492e+00
2.469997e+01	-6.712661e+00
2.484263e+01	-6.752099e+00
2.498612e+01	-6.791640e+00
2.513044e+01	-6.831551e+00
2.527559e+01	-6.871196e+00
2.542158e+01	-6.910979e+00
2.556842e+01	-6.950433e+00
2.571610e+01	-6.990586e+00
2.586463e+01	-7.030745e+00
2.601403e+01	-7.070740e+00
2.616428e+01	-7.111363e+00
2.631541e+01	-7.151531e+00
2.646740e+01	-7.192050e+00
2.662028e+01	-7.232518e+00
2.677404e+01	-7.273211e+00
2.692868e+01	-7.313651e+00
2.708422e+01	-7.354379e+00
2.724066e+01	-7.395315e+00
2.739800e+01	-7.436121e+00
2.755625e+01	-7.477198e+00
2.771541e+01	-7.518511e+00
2.787550e+01	-7.560133e+00
2.803650e+01	-7.601077e+00
2.819844e+01	-7.642371e+00
2.836131e+01	-7.683665e+00
2.852513e+01	-7.725269e+00
2.868989e+01	-7.766996e+00
2.885560e+01	-7.808629e+00
2.902227e+01	-7.850878e+00
2.918990e+01	-7.892618e+00
2.935850e+01	-7.934241e+00
2.952807e+01	-7.976272e+00
2.969863e+01	-8.018330e+00
2.987016e+01	-8.060571e+00
3.004269e+01	-8.102811e+00
3.021622e+01	-8.145113e+00
3.039075e+01	-8.187583e+00
3.056628e+01	-8.229954e+00
3.074283e+01	-8.272461e+00
3.092040e+01	-8.314907e+00
3.109900e+01	-8.358207e+00
3.127862e+01	-8.400152e+00
3.145929e+01	-8.443012e+00
3.164099e+01	-8.486564e+00
3.182375e+01	-8.529378e+00
3.200756e+01	-8.572488e+00
3.219244e+01	-8.615740e+00
3.237838e+01	-8.658477e+00
3.256540e+01	-8.701461e+00
3.275349e+01	-8.745491e+00
3.294268e+01	-8.788695e+00
3.313295e+01	-8.832174e+00
3.332433e+01	-8.875616e+00
3.351681e+01	-8.919035e+00
3.371040e+01	-8.963259e+00
3.390511e+01	-9.006827e+00
3.410094e+01	-9.050536e+00
3.429791e+01	-9.093936e+00
3.449601e+01	-9.137985e+00
3.469526e+01	-9.181880e+00
3.489566e+01	-9.225975e+00
3.509721e+01	-9.269844e+00
3.529993e+01	-9.313803e+00
3.550382e+01	-9.358289e+00
3.570889e+01	-9.402619e+00
3.591515e+01	-9.446630e+00
3.612259e+01	-9.491484e+00
3.633123e+01	-9.535694e+00
3.654108e+01	-9.580358e+00
3.675214e+01	-9.624525e+00
3.696442e+01	-9.669801e+00
3.717792e+01	-9.714576e+00
3.739266e+01	-9.758639e+00
3.760864e+01	-9.803710e+00
3.782587e+01	-9.848826e+00
3.804435e+01	-9.893145e+00
3.826409e+01	-9.937990e+00
3.848510e+01	-9.983032e+00
3.870739e+01	-1.002842e+01
3.893096e+01	-1.007321e+01
3.915583e+01	-1.011831e+01
3.938199e+01	-1.016344e+01
3.960946e+01	-1.020810e+01
3.983824e+01	-1.025378e+01
4.006834e+01	-1.029980e+01
4.029978e+01	-1.034533e+01
4.053255e+01	-1.039071e+01
4.076666e+01	-1.043566e+01
4.100213e+01	-1.048109e+01
4.123896e+01	-1.052669e+01
4.147715e+01	-1.057292e+01
4.171672e+01	-1.061754e+01
4.195767e+01	-1.066378e+01
4.220002e+01	-1.071007e+01
4.244377e+01	-1.075540e+01
4.268892e+01	-1.080063e+01
4.293549e+01	-1.084699e+01
4.318348e+01	-1.089251e+01
4.343291e+01	-1.093872e+01
4.368377e+01	-1.098476e+01
4.393609e+01	-1.103135e+01
4.418986e+01	-1.107683e+01
4.444510e+01	-1.112335e+01
4.470182e+01	-1.116925e+01
4.496001e+01	-1.121559e+01
4.521970e+01	-1.126159e+01
4.548089e+01	-1.130821e+01
4.574358e+01	-1.135475e+01
4.600779e+01	-1.140085e+01
4.627353e+01	-1.144735e+01
4.654081e+01	-1.149397e+01
4.680963e+01	-1.154043e+01
4.708000e+01	-1.158690e+01
4.735193e+01	-1.163345e+01
4.762543e+01	-1.167980e+01
4.790051e+01	-1.172677e+01
4.817719e+01	-1.177366e+01
4.845545e+01	-1.182022e+01
4.873533e+01	-1.186673e+01
4.901682e+01	-1.191343e+01
4.929994e+01	-1.196027e+01
4.958470e+01	-1.200749e+01
4.987110e+01	-1.205388e+01
5.015915e+01	-1.210102e+01
5.044887e+01	-1.214806e+01
5.074026e+01	-1.219495e+01
5.103333e+01	-1.224223e+01
5.132810e+01	-1.228941e+01
5.162457e+01	-1.233604e+01
5.192275e+01	-1.238316e+01
5.222265e+01	-1.243028e+01
5.252429e+01	-1.247776e+01
5.282767e+01	-1.252501e+01
5.313280e+01	-1.257192e+01
5.343969e+01	-1.261964e+01
5.374836e+01	-1.266720e+01
5.405880e+01	-1.271446e+01
5.437105e+01	-1.276041e+01
5.468509e+01	-1.280952e+01
5.500095e+01	-1.285616e+01
5.531863e+01	-1.290358e+01
5.563815e+01	-1.295162e+01
5.595951e+01	-1.299899e+01
5.628273e+01	-1.304626e+01
5.660782e+01	-1.309431e+01
5.693479e+01	-1.314141e+01
5.726364e+01	-1.318894e+01
5.759439e+01	-1.323727e+01
5.792705e+01	-1.328404e+01
5.826164e+01	-1.333188e+01
5.859815e+01	-1.337884e+01
5.893662e+01	-1.342756e+01
5.927703e+01	-1.347491e+01
5.961941e+01	-1.352244e+01
5.996377e+01	-1.357036e+01
6.031012e+01	-1.361842e+01
6.065847e+01	-1.366673e+01
6.100883e+01	-1.371411e+01
6.136121e+01	-1.376253e+01
6.171563e+01	-1.380961e+01
6.207210e+01	-1.385900e+01
6.243063e+01	-1.390604e+01
6.279122e+01	-1.395413e+01
6.315390e+01	-1.400234e+01
6.351868e+01	-1.405023e+01
6.388556e+01	-1.409900e+01
6.425456e+01	-1.414682e+01
6.462569e+01	-1.419424e+01
6.499897e+01	-1.424230e+01
6.537440e+01	-1.429098e+01
6.575200e+01	-1.433949e+01
6.613178e+01	-1.438716e+01
6.651375e+01	-1.443502e+01
6.689793e+01	-1.448397e+01
6.728433e+01	-1.453269e+01
6.767297e+01	-1.458042e+01
6.806384e+01	-1.462854e+01
6.845698e+01	-1.467687e+01
6.885238e+01	-1.472579e+01
6.925007e+01	-1.477345e+01
6.965005e+01	-1.482259e+01
7.005235e+01	-1.487013e+01
7.045697e+01	-1.491829e+01
7.086393e+01	-1.496761e+01
7.127323e+01	-1.501600e+01
7.168490e+01	-1.506398e+01
7.209895e+01	-1.511258e+01
7.251539e+01	-1.516146e+01
7.293424e+01	-1.521085e+01
7.335551e+01	-1.525842e+01
7.377920e+01	-1.530696e+01
7.420535e+01	-1.535552e+01
7.463396e+01	-1.540353e+01
7.506504e+01	-1.545265e+01
7.549861e+01	-1.550116e+01
7.593469e+01	-1.554982e+01
7.637328e+01	-1.559823e+01
7.681441e+01	-1.564665e+01
7.725809e+01	-1.569648e+01
7.770433e+01	-1.574346e+01
7.815315e+01	-1.579300e+01
7.860456e+01	-1.584137e+01
7.905857e+01	-1.589021e+01
7.951521e+01	-1.593864e+01
7.997449e+01	-1.598804e+01
8.043642e+01	-1.603705e+01
8.090102e+01	-1.608630e+01
8.136830e+01	-1.613448e+01
8.183828e+01	-1.618292e+01
8.231097e+01	-1.623236e+01
8.278640e+01	-1.628135e+01
8.326457e+01	-1.632996e+01
8.374550e+01	-1.637878e+01
8.422921e+01	-1.642680e+01
8.471572e+01	-1.647631e+01
8.520503e+01	-1.652460e+01
8.569717e+01	-1.657444e+01
8.619215e+01	-1.662337e+01
8.669000e+01	-1.667242e+01
8.719071e+01	-1.672114e+01
8.769432e+01	-1.677114e+01
8.820084e+01	-1.681965e+01
8.871029e+01	-1.686742e+01
8.922267e+01	-1.691732e+01
8.973802e+01	-1.696696e+01
9.025634e+01	-1.701525e+01
9.077766e+01	-1.706502e+01
9.130199e+01	-1.711405e+01
9.182935e+01	-1.716125e+01
9.235975e+01	-1.721231e+01
9.289321e+01	-1.726018e+01
9.342976e+01	-1.730877e+01
9.396941e+01	-1.735897e+01
9.451217e+01	-1.740883e+01
9.505807e+01	-1.745736e+01
9.560712e+01	-1.750544e+01
9.615934e+01	-1.755543e+01
9.671476e+01	-1.760383e+01
9.727338e+01	-1.765375e+01
9.783522e+01	-1.770396e+01
9.840032e+01	-1.775183e+01
9.896867e+01	-1.780014e+01
9.954031e+01	-1.785105e+01
1.001153e+02	-1.789857e+01
1.006935e+02	-1.794891e+01
1.012751e+02	-1.799863e+01
1.018601e+02	-1.804654e+01
1.024484e+02	-1.809764e+01
1.030402e+02	-1.814531e+01
1.036353e+02	-1.819482e+01
1.042339e+02	-1.824357e+01
1.048360e+02	-1.829218e+01
1.054415e+02	-1.834300e+01
1.060505e+02	-1.839220e+01
1.066631e+02	-1.844273e+01
1.072791e+02	-1.849217e+01
1.078988e+02	-1.854036e+01
1.085220e+02	-1.858850e+01
1.091488e+02	-1.863994e+01
1.097793e+02	-1.868616e+01
1.104133e+02	-1.873790e+01
1.110511e+02	-1.878748e+01
1.116925e+02	-1.883693e+01
1.123376e+02	-1.888447e+01
1.129865e+02	-1.893527e+01
1.136391e+02	-1.898390e+01
1.142955e+02	-1.903459e+01
1.149556e+02	-1.908477e+01
1.156196e+02	-1.913085e+01
1.162874e+02	-1.918281e+01
1.169591e+02	-1.923312e+01
1.176347e+02	-1.928078e+01
1.183141e+02	-1.933022e+01
1.189975e+02	-1.937892e+01
1.196848e+02	-1.942928e+01
1.203761e+02	-1.947911e+01
1.210714e+02	-1.952768e+01
1.217707e+02	-1.957628e+01
1.224740e+02	-1.962647e+01
1.231814e+02	-1.967676e+01
1.238929e+02	-1.972619e+01
1.246085e+02	-1.977583e+01
1.253283e+02	-1.982599e+01
1.260522e+02	-1.987540e+01
1.267802e+02	-1.992545e+01
1.275125e+02	-1.997337e+01
1.282490e+02	-2.002407e+01
1.289898e+02	-2.007240e+01
1.297348e+02	-2.012255e+01
1.304842e+02	-2.017310e+01
1.312378e+02	-2.022089e+01
1.319959e+02	-2.027118e+01
1.327583e+02	-2.032069e+01
1.335251e+02	-2.036939e+01
1.342963e+02	-2.041937e+01
1.350720e+02	-2.046857e+01
1.358522e+02	-2.051682e+01
1.366368e+02	-2.056903e+01
1.374260e+02	-2.061789e+01
1.382198e+02	-2.066841e+01
1.390182e+02	-2.071658e+01
1.398211e+02	-2.076740e+01
1.406287e+02	-2.081593e+01
1.414410e+02	-2.086616e+01
1.422579e+02	-2.091557e+01
1.430796e+02	-2.096485e+01
1.439060e+02	-2.101468e+01
1.447372e+02	-2.106544e+01
1.455732e+02	-2.111373e+01
1.464141e+02	-2.116543e+01
1.472597e+02	-2.121485e+01
1.481103e+02	-2.126399e+01
1.489658e+02	-2.131280e+01
1.498262e+02	-2.136289e+01
1.506916e+02	-2.141353e+01
1.515620e+02	-2.146241e+01
1.524374e+02	-2.151163e+01
1.533179e+02	-2.156036e+01
1.542034e+02	-2.161102e+01
1.550941e+02	-2.166051e+01
1.559899e+02	-2.170894e+01
1.568909e+02	-2.176048e+01
1.577971e+02	-2.180852e+01
1.587085e+02	-2.185776e+01
1.596252e+02	-2.190902e+01
1.605472e+02	-2.195943e+01
1.614745e+02	-2.200767e+01
1.624072e+02	-2.205881e+01
1.633453e+02	-2.210794e+01
1.642887e+02	-2.215937e+01
1.652377e+02	-2.220865e+01
1.661921e+02	-2.225896e+01
1.671520e+02	-2.230587e+01
1.681175e+02	-2.235525e+01
1.690885e+02	-2.240534e+01
1.700651e+02	-2.245814e+01
1.710474e+02	-2.250697e+01
1.720354e+02	-2.255624e+01
1.730291e+02	-2.260669e+01
1.740285e+02	-2.265645e+01
1.750337e+02	-2.270552e+01
1.760446e+02	-2.275308e+01
1.770615e+02	-2.280672e+01
1.780842e+02	-2.285458e+01
1.791128e+02	-2.290486e+01
1.801473e+02	-2.295487e+01
1.811878e+02	-2.300501e+01
1.822344e+02	-2.305471e+01
1.832870e+02	-2.310616e+01
1.843456e+02	-2.315391e+01
1.854104e+02	-2.320364e+01
1.864813e+02	-2.325430e+01
1.875584e+02	-2.330379e+01
1.886418e+02	-2.335309e+01
1.897313e+02	-2.340499e+01
1.908272e+02	-2.345292e+01
1.919294e+02	-2.350213e+01
1.930380e+02	-2.355123e+01
1.941530e+02	-2.360205e+01
1.952744e+02	-2.365291e+01
1.964023e+02	-2.370256e+01
1.975367e+02	-2.375088e+01
1.986777e+02	-2.379699e+01
1.998252e+02	-2.385193e+01
2.009794e+02	-2.390078e+01
2.021403e+02	-2.395020e+01
2.033078e+02	-2.400146e+01
2.044821e+02	-2.405173e+01
2.056632e+02	-2.410072e+01
2.068511e+02	-2.414935e+01
2.080459e+02	-2.419966e+01
2.092475e+02	-2.425031e+01
2.104561e+02	-2.429647e+01
2.116717e+02	-2.434905e+01
2.128943e+02	-2.440040e+01
2.141240e+02	-2.444910e+01
2.153608e+02	-2.449988e+01
2.166047e+02	-2.454632e+01
2.178558e+02	-2.460193e+01
2.191141e+02	-2.464737e+01
2.203797e+02	-2.469829e+01
2.216526e+02	-2.474750e+01
2.229329e+02	-2.479965e+01
2.242205e+02	-2.484832e+01
2.255156e+02	-2.490135e+01
2.268182e+02	-2.494823e+01
2.281283e+02	-2.500079e+01
2.294459e+02	-2.505058e+01
2.307712e+02	-2.509914e+01
2.321041e+02	-2.515084e+01
2.334447e+02	-2.519850e+01
2.347931e+02	-2.524679e+01
2.361493e+02	-2.529956e+01
2.375133e+02	-2.534886e+01
2.388851e+02	-2.539823e+01
2.402649e+02	-2.544750e+01
2.416527e+02	-2.549842e+01
2.430484e+02	-2.555074e+01
2.444523e+02	-2.559544e+01
2.458642e+02	-2.564754e+01
2.472843e+02	-2.569504e+01
2.487126e+02	-2.574679e+01
2.501492e+02	-2.579625e+01
2.515940e+02	-2.584646e+01
2.530472e+02	-2.589740e+01
2.545088e+02	-2.594867e+01
2.559789e+02	-2.599600e+01
2.574574e+02	-2.604926e+01
2.589444e+02	-2.609756e+01
2.604401e+02	-2.614794e+01
2.619444e+02	-2.619636e+01
2.634574e+02	-2.624613e+01
2.649791e+02	-2.629562e+01
2.665096e+02	-2.634523e+01
2.680489e+02	-2.639382e+01
2.695972e+02	-2.644517e+01
2.711544e+02	-2.649923e+01
2.727205e+02	-2.654680e+01
2.742958e+02	-2.660095e+01
2.758801e+02	-2.664452e+01
2.774736e+02	-2.669857e+01
2.790762e+02	-2.674656e+01
2.806882e+02	-2.679375e+01
2.823094e+02	-2.684942e+01
2.839400e+02	-2.689546e+01
2.855800e+02	-2.694618e+01
2.872295e+02	-2.699381e+01
2.888886e+02	-2.704887e+01
2.905572e+02	-2.709753e+01
2.922354e+02	-2.714366e+01
2.939234e+02	-2.719656e+01
2.956211e+02	-2.724786e+01
2.973286e+02	-2.729619e+01
2.990459e+02	-2.734691e+01
3.007732e+02	-2.739764e+01
3.025104e+02	-2.744604e+01
3.042577e+02	-2.749921e+01
3.060151e+02	-2.754753e+01
3.077826e+02	-2.759662e+01
3.095604e+02	-2.764715e+01
3.113484e+02	-2.769694e+01
3.131467e+02	-2.774796e+01
3.149554e+02	-2.779678e+01
3.167746e+02	-2.784490e+01
3.186043e+02	-2.789637e+01
3.204445e+02	-2.794597e+01
3.222954e+02	-2.799500e+01
3.241570e+02	-2.804819e+01
3.260293e+02	-2.810112e+01
3.279124e+02	-2.814955e+01
3.298064e+02	-2.819819e+01
3.317114e+02	-2.824855e+01
3.336273e+02	-2.829731e+01
3.355544e+02	-2.834860e+01
3.374925e+02	-2.839662e+01
3.394418e+02	-2.844554e+01
3.414024e+02	-2.850203e+01
3.433744e+02	-2.854686e+01
3.453577e+02	-2.859408e+01
3.473525e+02	-2.864853e+01
3.493588e+02	-2.869314e+01
3.513766e+02	-2.874400e+01
3.534062e+02	-2.879938e+01
3.554474e+02	-2.884680e+01
3.575005e+02	-2.889809e+01
3.595654e+02	-2.894550e+01
3.616422e+02	-2.899922e+01
3.637311e+02	-2.904610e+01
3.658320e+02	-2.909633e+01
3.679450e+02	-2.914620e+01
3.700702e+02	-2.919419e+01
3.722077e+02	-2.924905e+01
3.743576e+02	-2.929713e+01
3.765199e+02	-2.934915e+01
3.786946e+02	-2.939870e+01
3.808820e+02	-2.945028e+01
3.830819e+02	-2.949832e+01
3.852946e+02	-2.955006e+01
3.875200e+02	-2.959772e+01
3.897583e+02	-2.964996e+01
3.920096e+02	-2.969694e+01
3.942738e+02	-2.974713e+01
3.965511e+02	-2.979957e+01
3.988416e+02	-2.984558e+01
4.011452e+02	-2.989601e+01
4.034622e+02	-2.995050e+01
4.057926e+02	-2.999954e+01
4.081365e+02	-3.005452e+01
4.104938e+02	-3.010000e+01
4.128648e+02	-3.015156e+01
4.152495e+02	-3.020285e+01
4.176480e+02	-3.025347e+01
4.200603e+02	-3.030264e+01
4.224866e+02	-3.035268e+01
4.249268e+02	-3.040104e+01
4.273812e+02	-3.045545e+01
4.298497e+02	-3.050130e+01
4.323325e+02	-3.054876e+01
4.348297e+02	-3.059882e+01
4.373412e+02	-3.065096e+01
4.398673e+02	-3.070341e+01
4.424079e+02	-3.075468e+01
4.449633e+02	-3.080408e+01
4.475334e+02	-3.084905e+01
4.501183e+02	-3.090370e+01
4.527182e+02	-3.095203e+01
4.553330e+02	-3.099783e+01
4.579630e+02	-3.105225e+01
4.606082e+02	-3.110114e+01
4.632687e+02	-3.115336e+01
4.659445e+02	-3.120253e+01
4.686358e+02	-3.125423e+01
4.713426e+02	-3.130516e+01
4.740650e+02	-3.135065e+01
4.768032e+02	-3.139963e+01
4.795572e+02	-3.145236e+01
4.823271e+02	-3.149728e+01
4.851130e+02	-3.155619e+01
4.879150e+02	-3.160178e+01
4.907332e+02	-3.165310e+01
4.935676e+02	-3.170309e+01
4.964185e+02	-3.175173e+01
4.992858e+02	-3.180420e+01
5.021696e+02	-3.185128e+01
5.050701e+02	-3.190544e+01
5.079874e+02	-3.195724e+01
5.109215e+02	-3.199844e+01
5.138726e+02	-3.205234e+01
5.168407e+02	-3.211569e+01
5.198259e+02	-3.215073e+01
5.228284e+02	-3.220832e+01
5.258482e+02	-3.226276e+01
5.288855e+02	-3.231122e+01
5.319403e+02	-3.236274e+01
5.350128e+02	-3.241897e+01
5.381030e+02	-3.245965e+01
5.412111e+02	-3.251437e+01
5.443371e+02	-3.255654e+01
5.474812e+02	-3.260539e+01
5.506434e+02	-3.266315e+01
5.538239e+02	-3.271571e+01
5.570228e+02	-3.275927e+01
5.602401e+02	-3.281513e+01
5.634760e+02	-3.286033e+01
5.667306e+02	-3.290716e+01
5.700040e+02	-3.295545e+01
5.732964e+02	-3.300468e+01
5.766077e+02	-3.305884e+01
5.799382e+02	-3.311540e+01
5.832879e+02	-3.316529e+01
5.866569e+02	-3.321132e+01
5.900454e+02	-3.326367e+01
5.934535e+02	-3.331531e+01
5.968813e+02	-3.336209e+01
6.003288e+02	-3.341526e+01
6.037963e+02	-3.346038e+01
6.072838e+02	-3.351225e+01
6.107914e+02	-3.356342e+01
6.143194e+02	-3.361043e+01
6.178676e+02	-3.366886e+01
6.214364e+02	-3.371508e+01
6.250258e+02	-3.376128e+01
6.286359e+02	-3.381817e+01
6.322669e+02	-3.385972e+01
6.359189e+02	-3.391630e+01
6.395919e+02	-3.396778e+01
6.432862e+02	-3.402065e+01
6.470017e+02	-3.406646e+01
6.507388e+02	-3.411698e+01
6.544974e+02	-3.416466e+01
6.582778e+02	-3.421748e+01
6.620800e+02	-3.426971e+01
6.659041e+02	-3.431956e+01
6.697504e+02	-3.436678e+01
6.736188e+02	-3.442588e+01
6.775096e+02	-3.446751e+01
6.814229e+02	-3.451894e+01
6.853587e+02	-3.457055e+01
6.893173e+02	-3.461835e+01
6.932988e+02	-3.467735e+01
6.973033e+02	-3.471805e+01
7.013309e+02	-3.476837e+01
