Frequency(Hz)	Magnitude(dB)
1.000000e+01	-2.081796e+00
1.005776e+01	-2.100946e+00
1.011585e+01	-2.120113e+00
1.017428e+01	-2.139647e+00
1.023305e+01	-2.158731e+00
1.029215e+01	-2.178608e+00
1.035160e+01	-2.198616e+00
1.041139e+01	-2.218415e+00
1.047153e+01	-2.238567e+00
1.053201e+01	-2.258668e+00
1.059284e+01	-2.279123e+00
1.065403e+01	-2.299561e+00
1.071556e+01	-2.320279e+00
1.077746e+01	-2.340754e+00
1.083971e+01	-2.361842e+00
1.090232e+01	-2.383079e+00
1.096529e+01	-2.404100e+00
1.102862e+01	-2.425635e+00
1.109232e+01	-2.447035e+00
1.115639e+01	-2.468511e+00
1.122083e+01	-2.490584e+00
1.128564e+01	-2.512387e+00
1.135083e+01	-2.534348e+00
1.141639e+01	-2.556638e+00
1.148233e+01	-2.578917e+00
1.154865e+01	-2.601201e+00
1.161536e+01	-2.623930e+00
1.168245e+01	-2.646591e+00
1.174992e+01	-2.669631e+00
1.181779e+01	-2.692557e+00
1.188605e+01	-2.715679e+00
1.195470e+01	-2.739431e+00
1.202375e+01	-2.762608e+00
1.209320e+01	-2.786187e+00
1.216305e+01	-2.809950e+00
1.223330e+01	-2.833867e+00
1.230396e+01	-2.857926e+00
1.237503e+01	-2.881908e+00
1.244651e+01	-2.906442e+00
1.251840e+01	-2.931085e+00
1.259070e+01	-2.955566e+00
1.266343e+01	-2.980658e+00
1.273657e+01	-3.005149e+00
1.281014e+01	-3.030446e+00
1.288413e+01	-3.055403e+00
1.295855e+01	-3.080409e+00
1.303339e+01	-3.106143e+00
1.310867e+01	-3.131883e+00
1.318439e+01	-3.157699e+00
1.326054e+01	-3.183916e+00
1.333713e+01	-3.209844e+00
1.341417e+01	-3.235757e+00
1.349165e+01	-3.262150e+00
1.356958e+01	-3.288931e+00
1.364795e+01	-3.315314e+00
1.372678e+01	-3.342215e+00
1.380607e+01	-3.369179e+00
1.388581e+01	-3.396072e+00
1.396602e+01	-3.423663e+00
1.404668e+01	-3.450811e+00
1.412782e+01	-3.478127e+00
1.420942e+01	-3.505627e+00
1.429149e+01	-3.533658e+00
1.437404e+01	-3.561563e+00
1.445706e+01	-3.589643e+00
1.454057e+01	-3.617707e+00
1.462455e+01	-3.646282e+00
1.470902e+01	-3.674593e+00
1.479398e+01	-3.703298e+00
1.487943e+01	-3.731857e+00
1.496537e+01	-3.761222e+00
1.505181e+01	-3.790211e+00
1.513875e+01	-3.819273e+00
1.522619e+01	-3.848650e+00
1.531414e+01	-3.878428e+00
1.540259e+01	-3.907866e+00
1.549156e+01	-3.937314e+00
1.558103e+01	-3.967151e+00
1.567103e+01	-3.997400e+00
1.576155e+01	-4.027456e+00
1.585258e+01	-4.057699e+00
1.594415e+01	-4.088407e+00
1.603624e+01	-4.119078e+00
1.612886e+01	-4.149618e+00
1.622202e+01	-4.180232e+00
1.631572e+01	-4.211201e+00
1.640996e+01	-4.242565e+00
1.650474e+01	-4.273735e+00
1.660008e+01	-4.305125e+00
1.669596e+01	-4.336650e+00
1.679239e+01	-4.368171e+00
1.688938e+01	-4.400112e+00
1.698694e+01	-4.432111e+00
1.708505e+01	-4.464206e+00
1.718373e+01	-4.496211e+00
1.728299e+01	-4.528824e+00
1.738281e+01	-4.561173e+00
1.748322e+01	-4.594003e+00
1.758420e+01	-4.626161e+00
1.768576e+01	-4.659362e+00
1.778792e+01	-4.692233e+00
1.789066e+01	-4.725420e+00
1.799399e+01	-4.758737e+00
1.809793e+01	-4.791859e+00
1.820246e+01	-4.825823e+00
1.830760e+01	-4.858992e+00
1.841334e+01	-4.892729e+00
1.851969e+01	-4.926850e+00
1.862666e+01	-4.960752e+00
1.873425e+01	-4.994847e+00
1.884246e+01	-5.028863e+00
1.895129e+01	-5.063433e+00
1.906075e+01	-5.098145e+00
1.917085e+01	-5.132520e+00
1.928158e+01	-5.167329e+00
1.939295e+01	-5.202423e+00
1.950496e+01	-5.237272e+00
1.961762e+01	-5.272238e+00
1.973093e+01	-5.307433e+00
1.984490e+01	-5.342817e+00
1.995952e+01	-5.378384e+00
2.007480e+01	-5.413952e+00
2.019076e+01	-5.449513e+00
2.030738e+01	-5.485739e+00
2.042467e+01	-5.521378e+00
2.054264e+01	-5.557329e+00
2.066130e+01	-5.593555e+00
2.078064e+01	-5.629797e+00
2.090066e+01	-5.666194e+00
2.102139e+01	-5.702653e+00
2.114280e+01	-5.739367e+00
2.126492e+01	-5.776062e+00
2.138775e+01	-5.813250e+00
2.151128e+01	-5.850185e+00
2.163553e+01	-5.886750e+00
2.176050e+01	-5.923977e+00
2.188619e+01	-5.961471e+00
2.201260e+01	-5.998977e+00
2.213974e+01	-6.036300e+00
2.226762e+01	-6.074006e+00
2.239624e+01	-6.111811e+00
2.252560e+01	-6.149423e+00
2.265571e+01	-6.187615e+00
2.278656e+01	-6.225746e+00
2.291818e+01	-6.263852e+00
2.305055e+01	-6.302220e+00
2.318369e+01	-6.340271e+00
2.331760e+01	-6.378837e+00
2.345228e+01	-6.417256e+00
2.358774e+01	-6.456253e+00
2.372398e+01	-6.494637e+00
2.386101e+01	-6.533583e+00
2.399883e+01	-6.572440e+00
2.413745e+01	-6.611775e+00
2.427686e+01	-6.650689e+00
2.441709e+01	-6.690308e+00
2.455812e+01	-6.729293e+00
2.469997e+01	-6.769038e+00
2.484263e+01	-6.808695e+00
2.498612e+01	-6.847929e+00
2.513044e+01	-6.887995e+00
2.527559e+01	-6.927568e+00
2.542158e+01	-6.967560e+00
2.556842e+01	-7.007650e+00
2.571610e+01	-7.047658e+00
2.586463e+01	-7.087759e+00
2.601403e+01	-7.128026e+00
2.616428e+01	-7.168569e+00
2.631541e+01	-7.209102e+00
2.646740e+01	-7.249846e+00
2.662028e+01	-7.290239e+00
2.677404e+01	-7.330990e+00
2.692868e+01	-7.371824e+00
2.708422e+01	-7.413042e+00
2.724066e+01	-7.453430e+00
2.739800e+01	-7.494860e+00
2.755625e+01	-7.535764e+00
2.771541e+01	-7.577016e+00
2.787550e+01	-7.618129e+00
2.803650e+01	-7.659732e+00
2.819844e+01	-7.701332e+00
2.836131e+01	-7.742991e+00
2.852513e+01	-7.784971e+00
2.868989e+01	-7.826369e+00
2.885560e+01	-7.868255e+00
2.902227e+01	-7.910235e+00
2.918990e+01	-7.951990e+00
2.935850e+01	-7.994156e+00
2.952807e+01	-8.035794e+00
2.969863e+01	-8.078506e+00
2.987016e+01	-8.120432e+00
3.004269e+01	-8.162853e+00
3.021622e+01	-8.205459e+00
3.039075e+01	-8.247872e+00
3.056628e+01	-8.290448e+00
3.074283e+01	-8.333050e+00
3.092040e+01	-8.375687e+00
3.109900e+01	-8.418517e+00
3.127862e+01	-8.461413e+00
3.145929e+01	-8.504305e+00
3.164099e+01	-8.547327e+00
3.182375e+01	-8.590499e+00
3.200756e+01	-8.633819e+00
3.219244e+01	-8.677076e+00
3.237838e+01	-8.719686e+00
3.256540e+01	-8.763358e+00
3.275349e+01	-8.807326e+00
3.294268e+01	-8.850576e+00
3.313295e+01	-8.893979e+00
3.332433e+01	-8.937417e+00
3.351681e+01	-8.981148e+00
3.371040e+01	-9.025329e+00
3.390511e+01	-9.068742e+00
3.410094e+01	-9.112748e+00
3.429791e+01	-9.156068e+00
3.449601e+01	-9.200122e+00
3.469526e+01	-9.244608e+00
3.489566e+01	-9.288755e+00
3.509721e+01	-9.332706e+00
3.529993e+01	-9.377041e+00
3.550382e+01	-9.421584e+00
3.570889e+01	-9.466029e+00
3.591515e+01	-9.509998e+00
3.612259e+01	-9.554351e+00
3.633123e+01	-9.599332e+00
3.654108e+01	-9.643805e+00
3.675214e+01	-9.688341e+00
3.696442e+01	-9.732846e+00
3.717792e+01	-9.777726e+00
3.739266e+01	-9.821864e+00
3.760864e+01	-9.866904e+00
3.782587e+01	-9.912159e+00
3.804435e+01	-9.956755e+00
3.826409e+01	-1.000223e+01
3.848510e+01	-1.004715e+01
3.870739e+01	-1.009245e+01
3.893096e+01	-1.013776e+01
3.915583e+01	-1.018237e+01
3.938199e+01	-1.022764e+01
3.960946e+01	-1.027311e+01
3.983824e+01	-1.031854e+01
4.006834e+01	-1.036373e+01
4.029978e+01	-1.040871e+01
4.053255e+01	-1.045521e+01
4.076666e+01	-1.050123e+01
4.100213e+01	-1.054620e+01
4.123896e+01	-1.059162e+01
4.147715e+01	-1.063721e+01
4.171672e+01	-1.068350e+01
4.195767e+01	-1.072896e+01
4.220002e+01	-1.077507e+01
4.244377e+01	-1.082056e+01
4.268892e+01	-1.086642e+01
4.293549e+01	-1.091185e+01
4.318348e+01	-1.095832e+01
4.343291e+01	-1.100474e+01
4.368377e+01	-1.105062e+01
4.393609e+01	-1.109576e+01
4.418986e+01	-1.114295e+01
4.444510e+01	-1.118942e+01
4.470182e+01	-1.123470e+01
4.496001e+01	-1.128141e+01
4.521970e+01	-1.132808e+01
4.548089e+01	-1.137451e+01
4.574358e+01	-1.142074e+01
4.600779e+01	-1.146705e+01
4.627353e+01	-1.151323e+01
4.654081e+01	-1.155975e+01
4.680963e+01	-1.160646e+01
4.708000e+01	-1.165289e+01
4.735193e+01	-1.169942e+01
4.762543e+01	-1.174727e+01
4.790051e+01	-1.179298e+01
4.817719e+01	-1.183997e+01
4.845545e+01	-1.188626e+01
4.873533e+01	-1.193333e+01
4.901682e+01	-1.198014e+01
4.929994e+01	-1.202749e+01
4.958470e+01	-1.207421e+01
4.987110e+01	-1.212085e+01
5.015915e+01	-1.216843e+01
5.044887e+01	-1.221516e+01
5.074026e+01	-1.226240e+01
5.103333e+01	-1.230941e+01
5.132810e+01	-1.235648e+01
5.162457e+01	-1.240265e+01
5.192275e+01	-1.245086e+01
5.222265e+01	-1.249764e+01
5.252429e+01	-1.254515e+01
5.282767e+01	-1.259214e+01
5.313280e+01	-1.263970e+01
5.343969e+01	-1.268763e+01
5.374836e+01	-1.273419e+01
5.405880e+01	-1.278125e+01
5.437105e+01	-1.282898e+01
5.468509e+01	-1.287654e+01
5.500095e+01	-1.292394e+01
5.531863e+01	-1.297138e+01
5.563815e+01	-1.301903e+01
5.595951e+01	-1.306585e+01
5.628273e+01	-1.311375e+01
5.660782e+01	-1.316132e+01
5.693479e+01	-1.320952e+01
5.726364e+01	-1.325651e+01
5.759439e+01	-1.330432e+01
5.792705e+01	-1.335158e+01
5.826164e+01	-1.340022e+01
5.859815e+01	-1.344802e+01
5.893662e+01	-1.349549e+01
5.927703e+01	-1.354333e+01
5.961941e+01	-1.359122e+01
5.996377e+01	-1.363916e+01
6.031012e+01	-1.368642e+01
6.065847e+01	-1.373514e+01
6.100883e+01	-1.378282e+01
6.136121e+01	-1.383098e+01
6.171563e+01	-1.387795e+01
6.207210e+01	-1.392633e+01
6.243063e+01	-1.397465e+01
6.279122e+01	-1.402290e+01
6.315390e+01	-1.407087e+01
6.351868e+01	-1.411870e+01
6.388556e+01	-1.416761e+01
6.425456e+01	-1.421519e+01
6.462569e+01	-1.426398e+01
6.499897e+01	-1.431194e+01
6.537440e+01	-1.435818e+01
6.575200e+01	-1.440748e+01
6.613178e+01	-1.445528e+01
6.651375e+01	-1.450534e+01
6.689793e+01	-1.455284e+01
6.728433e+01	-1.460105e+01
6.767297e+01	-1.464934e+01
6.806384e+01	-1.469758e+01
6.845698e+01	-1.474571e+01
6.885238e+01	-1.479410e+01
6.925007e+01	-1.484270e+01
6.965005e+01	-1.489092e+01
7.005235e+01	-1.493969e+01
7.045697e+01	-1.498810e+01
7.086393e+01	-1.503621e+01
7.127323e+01	-1.508402e+01
7.168490e+01	-1.513296e+01
7.209895e+01	-1.518153e+01
7.251539e+01	-1.522953e+01
7.293424e+01	-1.527909e+01
7.335551e+01	-1.532725e+01
7.377920e+01	-1.537611e+01
7.420535e+01	-1.542395e+01
7.463396e+01	-1.547215e+01
7.506504e+01	-1.552186e+01
7.549861e+01	-1.556927e+01
7.593469e+01	-1.561879e+01
7.637328e+01	-1.566794e+01
7.681441e+01	-1.571622e+01
7.725809e+01	-1.576480e+01
7.770433e+01	-1.581267e+01
7.815315e+01	-1.586300e+01
7.860456e+01	-1.591138e+01
7.905857e+01	-1.596021e+01
7.951521e+01	-1.600881e+01
7.997449e+01	-1.605678e+01
8.043642e+01	-1.610597e+01
8.090102e+01	-1.615512e+01
8.136830e+01	-1.620461e+01
8.183828e+01	-1.625208e+01
8.231097e+01	-1.630115e+01
8.278640e+01	-1.635053e+01
8.326457e+01	-1.639876e+01
8.374550e+01	-1.644825e+01
8.422921e+01	-1.649698e+01
8.471572e+01	-1.654557e+01
8.520503e+01	-1.659551e+01
8.569717e+01	-1.664367e+01
8.619215e+01	-1.669402e+01
8.669000e+01	-1.674182e+01
8.719071e+01	-1.679037e+01
8.769432e+01	-1.684005e+01
8.820084e+01	-1.688826e+01
8.871029e+01	-1.693701e+01
8.922267e+01	-1.698781e+01
8.973802e+01	-1.703437e+01
9.025634e+01	-1.708402e+01
9.077766e+01	-1.713276e+01
9.130199e+01	-1.718188e+01
9.182935e+01	-1.723059e+01
9.235975e+01	-1.728122e+01
9.289321e+01	-1.733014e+01
9.342976e+01	-1.737872e+01
9.396941e+01	-1.742785e+01
9.451217e+01	-1.747656e+01
9.505807e+01	-1.752542e+01
9.560712e+01	-1.757579e+01
9.615934e+01	-1.762507e+01
9.671476e+01	-1.767462e+01
9.727338e+01	-1.772338e+01
9.783522e+01	-1.777365e+01
9.840032e+01	-1.782240e+01
9.896867e+01	-1.787108e+01
9.954031e+01	-1.791998e+01
1.001153e+02	-1.796973e+01
1.006935e+02	-1.801955e+01
1.012751e+02	-1.806679e+01
1.018601e+02	-1.811725e+01
1.024484e+02	-1.816567e+01
1.030402e+02	-1.821626e+01
1.036353e+02	-1.826359e+01
1.042339e+02	-1.831483e+01
1.048360e+02	-1.836406e+01
1.054415e+02	-1.841220e+01
1.060505e+02	-1.846087e+01
1.066631e+02	-1.851235e+01
1.072791e+02	-1.856156e+01
1.078988e+02	-1.860908e+01
1.085220e+02	-1.865964e+01
1.091488e+02	-1.870972e+01
1.097793e+02	-1.875855e+01
1.104133e+02	-1.880952e+01
1.110511e+02	-1.885678e+01
1.116925e+02	-1.890620e+01
1.123376e+02	-1.895596e+01
1.129865e+02	-1.900408e+01
1.136391e+02	-1.905448e+01
1.142955e+02	-1.910492e+01
1.149556e+02	-1.915316e+01
1.156196e+02	-1.920342e+01
1.162874e+02	-1.925411e+01
1.169591e+02	-1.930039e+01
1.176347e+02	-1.935096e+01
1.183141e+02	-1.939830e+01
1.189975e+02	-1.944954e+01
1.196848e+02	-1.949785e+01
1.203761e+02	-1.954748e+01
1.210714e+02	-1.959909e+01
1.217707e+02	-1.964795e+01
1.224740e+02	-1.969702e+01
1.231814e+02	-1.974605e+01
1.238929e+02	-1.979740e+01
1.246085e+02	-1.984552e+01
1.253283e+02	-1.989592e+01
1.260522e+02	-1.994647e+01
1.267802e+02	-1.999539e+01
1.275125e+02	-2.004474e+01
1.282490e+02	-2.009484e+01
1.289898e+02	-2.014330e+01
1.297348e+02	-2.019350e+01
1.304842e+02	-2.024181e+01
1.312378e+02	-2.029302e+01
1.319959e+02	-2.034290e+01
1.327583e+02	-2.039182e+01
1.335251e+02	-2.043844e+01
1.342963e+02	-2.049032e+01
1.350720e+02	-2.054135e+01
1.358522e+02	-2.058989e+01
1.366368e+02	-2.063898e+01
1.374260e+02	-2.068961e+01
1.382198e+02	-2.073741e+01
1.390182e+02	-2.078971e+01
1.398211e+02	-2.083722e+01
1.406287e+02	-2.088851e+01
1.414410e+02	-2.093685e+01
1.422579e+02	-2.098612e+01
1.430796e+02	-2.103668e+01
1.439060e+02	-2.108549e+01
1.447372e+02	-2.113537e+01
1.455732e+02	-2.118510e+01
1.464141e+02	-2.123408e+01
1.472597e+02	-2.128536e+01
1.481103e+02	-2.133379e+01
1.489658e+02	-2.138404e+01
1.498262e+02	-2.143289e+01
1.506916e+02	-2.148227e+01
1.515620e+02	-2.153426e+01
1.524374e+02	-2.158064e+01
1.533179e+02	-2.163372e+01
1.542034e+02	-2.168339e+01
1.550941e+02	-2.173153e+01
1.559899e+02	-2.178228e+01
1.568909e+02	-2.183280e+01
1.577971e+02	-2.188138e+01
1.587085e+02	-2.193150e+01
1.596252e+02	-2.197835e+01
1.605472e+02	-2.202976e+01
1.614745e+02	-2.207890e+01
1.624072e+02	-2.213059e+01
1.633453e+02	-2.217755e+01
1.642887e+02	-2.222843e+01
1.652377e+02	-2.227962e+01
1.661921e+02	-2.233109e+01
1.671520e+02	-2.237881e+01
1.681175e+02	-2.242606e+01
1.690885e+02	-2.247794e+01
1.700651e+02	-2.252781e+01
1.710474e+02	-2.257668e+01
1.720354e+02	-2.262872e+01
1.730291e+02	-2.267485e+01
1.740285e+02	-2.272680e+01
1.750337e+02	-2.277632e+01
1.760446e+02	-2.282514e+01
1.770615e+02	-2.287539e+01
1.780842e+02	-2.292570e+01
1.791128e+02	-2.297491e+01
1.801473e+02	-2.302531e+01
1.811878e+02	-2.307279e+01
1.822344e+02	-2.312734e+01
1.832870e+02	-2.317624e+01
1.843456e+02	-2.322352e+01
1.854104e+02	-2.327627e+01
1.864813e+02	-2.332467e+01
1.875584e+02	-2.337529e+01
1.886418e+02	-2.342396e+01
1.897313e+02	-2.347400e+01
1.908272e+02	-2.352356e+01
1.919294e+02	-2.357240e+01
1.930380e+02	-2.362376e+01
1.941530e+02	-2.367496e+01
1.952744e+02	-2.372291e+01
1.964023e+02	-2.377057e+01
1.975367e+02	-2.381998e+01
1.986777e+02	-2.387234e+01
1.998252e+02	-2.392208e+01
2.009794e+02	-2.397135e+01
2.021403e+02	-2.402138e+01
2.033078e+02	-2.407070e+01
2.044821e+02	-2.411908e+01
2.056632e+02	-2.417217e+01
2.068511e+02	-2.422101e+01
2.080459e+02	-2.427230e+01
2.092475e+02	-2.432242e+01
2.104561e+02	-2.436882e+01
2.116717e+02	-2.442230e+01
2.128943e+02	-2.447017e+01
2.141240e+02	-2.452349e+01
2.153608e+02	-2.457184e+01
2.166047e+02	-2.462087e+01
2.178558e+02	-2.467140e+01
2.191141e+02	-2.471993e+01
2.203797e+02	-2.476962e+01
2.216526e+02	-2.481954e+01
2.229329e+02	-2.486661e+01
2.242205e+02	-2.492109e+01
2.255156e+02	-2.497075e+01
2.268182e+02	-2.501930e+01
2.281283e+02	-2.506972e+01
2.294459e+02	-2.512005e+01
2.307712e+02	-2.516811e+01
2.321041e+02	-2.522080e+01
2.334447e+02	-2.527055e+01
2.347931e+02	-2.531683e+01
2.361493e+02	-2.536740e+01
2.375133e+02	-2.541890e+01
2.388851e+02	-2.546498e+01
2.402649e+02	-2.551675e+01
2.416527e+02	-2.556762e+01
2.430484e+02	-2.562215e+01
2.444523e+02	-2.566897e+01
2.458642e+02	-2.571899e+01
2.472843e+02	-2.576705e+01
2.487126e+02	-2.581929e+01
2.501492e+02	-2.586616e+01
2.515940e+02	-2.591903e+01
2.530472e+02	-2.596705e+01
2.545088e+02	-2.601931e+01
2.559789e+02	-2.606742e+01
2.574574e+02	-2.611723e+01
2.589444e+02	-2.616818e+01
2.604401e+02	-2.621857e+01
2.619444e+02	-2.626832e+01
2.634574e+02	-2.631842e+01
2.649791e+02	-2.636918e+01
2.665096e+02	-2.641623e+01
2.680489e+02	-2.646948e+01
2.695972e+02	-2.651879e+01
2.711544e+02	-2.656622e+01
2.727205e+02	-2.661957e+01
2.742958e+02	-2.667039e+01
2.758801e+02	-2.671684e+01
2.774736e+02	-2.677262e+01
2.790762e+02	-2.681779e+01
2.806882e+02	-2.686724e+01
2.823094e+02	-2.692017e+01
2.839400e+02	-2.696731e+01
2.855800e+02	-2.701672e+01
2.872295e+02	-2.706905e+01
2.888886e+02	-2.711269e+01
2.905572e+02	-2.716158e+01
2.922354e+02	-2.721651e+01
2.939234e+02	-2.727018e+01
2.956211e+02	-2.731969e+01
2.973286e+02	-2.736698e+01
2.990459e+02	-2.741525e+01
3.007732e+02	-2.746439e+01
3.025104e+02	-2.751722e+01
3.042577e+02	-2.756704e+01
3.060151e+02	-2.761860e+01
3.077826e+02	-2.766635e+01
3.095604e+02	-2.771777e+01
3.113484e+02	-2.776870e+01
3.131467e+02	-2.782072e+01
3.149554e+02	-2.786589e+01
3.167746e+02	-2.791712e+01
3.186043e+02	-2.796934e+01
3.204445e+02	-2.801594e+01
3.222954e+02	-2.806886e+01
3.241570e+02	-2.811614e+01
3.260293e+02	-2.816398e+01
3.279124e+02	-2.821597e+01
3.298064e+02	-2.826997e+01
3.317114e+02	-2.831785e+01
3.336273e+02	-2.836743e+01
3.355544e+02	-2.841851e+01
3.374925e+02	-2.846436e+01
3.394418e+02	-2.851754e+01
3.414024e+02	-2.856935e+01
3.433744e+02	-2.862032e+01
3.453577e+02	-2.866613e+01
3.473525e+02	-2.871844e+01
3.493588e+02	-2.876407e+01
3.513766e+02	-2.882058e+01
3.534062e+02	-2.886712e+01
3.554474e+02	-2.891915e+01
3.575005e+02	-2.896759e+01
3.595654e+02	-2.901598e+01
3.616422e+02	-2.906724e+01
3.637311e+02	-2.912001e+01
3.658320e+02	-2.917363e+01
3.679450e+02	-2.922035e+01
3.700702e+02	-2.926741e+01
3.722077e+02	-2.931421e+01
3.743576e+02	-2.936165e+01
3.765199e+02	-2.941522e+01
3.786946e+02	-2.946961e+01
3.808820e+02	-2.952199e+01
3.830819e+02	-2.957360e+01
3.852946e+02	-2.961685e+01
3.875200e+02	-2.966511e+01
3.897583e+02	-2.971770e+01
3.920096e+02	-2.976927e+01
3.942738e+02	-2.982329e+01
3.965511e+02	-2.987016e+01
3.988416e+02	-2.991843e+01
4.011452e+02	-2.997269e+01
4.034622e+02	-3.001675e+01
4.057926e+02	-3.006216e+01
4.081365e+02	-3.012377e+01
4.104938e+02	-3.016736e+01
4.128648e+02	-3.022210e+01
4.152495e+02	-3.027645e+01
4.176480e+02	-3.032511e+01
4.200603e+02	-3.037243e+01
4.224866e+02	-3.041397e+01
4.249268e+02	-3.047062e+01
4.273812e+02	-3.052126e+01
4.298497e+02	-3.057350e+01
4.323325e+02	-3.062458e+01
4.348297e+02	-3.067108e+01
4.373412e+02	-3.071863e+01
4.398673e+02	-3.076843e+01
4.424079e+02	-3.082500e+01
4.449633e+02	-3.087481e+01
4.475334e+02	-3.092497e+01
4.501183e+02	-3.097482e+01
4.527182e+02	-3.102070e+01
4.553330e+02	-3.107594e+01
4.579630e+02	-3.112196e+01
4.606082e+02	-3.117561e+01
4.632687e+02	-3.122155e+01
4.659445e+02	-3.127100e+01
4.686358e+02	-3.131982e+01
4.713426e+02	-3.137271e+01
4.740650e+02	-3.143339e+01
4.768032e+02	-3.147399e+01
4.795572e+02	-3.152230e+01
4.823271e+02	-3.158024e+01
4.851130e+02	-3.162419e+01
4.879150e+02	-3.167162e+01
4.907332e+02	-3.173052e+01
4.935676e+02	-3.178277e+01
4.964185e+02	-3.182803e+01
4.992858e+02	-3.187254e+01
5.021696e+02	-3.192702e+01
5.050701e+02	-3.197630e+01
5.079874e+02	-3.202321e+01
5.109215e+02	-3.207491e+01
5.138726e+02	-3.212264e+01
5.168407e+02	-3.217223e+01
5.198259e+02	-3.222960e+01
5.228284e+02	-3.227950e+01
5.258482e+02	-3.232863e+01
5.288855e+02	-3.237610e+01
5.319403e+02	-3.242901e+01
5.350128e+02	-3.247383e+01
5.381030e+02	-3.252860e+01
5.412111e+02	-3.257751e+01
5.443371e+02	-3.263032e+01
5.474812e+02	-3.268064e+01
5.506434e+02	-3.273339e+01
5.538239e+02	-3.277451e+01
5.570228e+02	-3.282415e+01
5.602401e+02	-3.288142e+01
5.634760e+02	-3.292886e+01
5.667306e+02	-3.299028e+01
5.700040e+02	-3.302385e+01
5.732964e+02	-3.307801e+01
5.766077e+02	-3.313206e+01
5.799382e+02	-3.318109e+01
5.832879e+02	-3.322843e+01
5.866569e+02	-3.328723e+01
5.900454e+02	-3.333234e+01
5.934535e+02	-3.338490e+01
5.968813e+02	-3.343283e+01
6.003288e+02	-3.348081e+01
6.037963e+02	-3.353373e+01
6.072838e+02	-3.358125e+01
6.107914e+02	-3.363330e+01
6.143194e+02	-3.368219e+01
6.178676e+02	-3.372924e+01
6.214364e+02	-3.379079e+01
6.250258e+02	-3.383757e+01
6.286359e+02	-3.388094e+01
6.322669e+02	-3.393139e+01
6.359189e+02	-3.397665e+01
6.395919e+02	-3.403550e+01
6.432862e+02	-3.408455e+01
6.470017e+02	-3.413886e+01
6.507388e+02	-3.418394e+01
6.544974e+02	-3.423715e+01
6.582778e+02	-3.429403e+01
6.620800e+02	-3.434033e+01
6.659041e+02	-3.439477e+01
6.697504e+02	-3.444459e+01
6.736188e+02	-3.448799e+01
6.775096e+02	-3.454063e+01
6.814229e+02	-3.458760e+01
6.853587e+02	-3.464230e+01
6.893173e+02	-3.469398e+01
6.932988e+02	-3.474726e+01
6.973033e+02	-3.479636e+01
7.013309e+02	-3.483625e+01
