Frequency(Hz)	Magnitude(dB)
1.000000e+01	-1.983990e+00
1.005776e+01	-2.002099e+00
1.011585e+01	-2.020671e+00
1.017428e+01	-2.039693e+00
1.023305e+01	-2.058286e+00
1.029215e+01	-2.077354e+00
1.035160e+01	-2.096294e+00
1.041139e+01	-2.115712e+00
1.047153e+01	-2.134907e+00
1.053201e+01	-2.154397e+00
1.059284e+01	-2.173838e+00
1.065403e+01	-2.193690e+00
1.071556e+01	-2.213644e+00
1.077746e+01	-2.233886e+00
1.083971e+01	-2.253954e+00
1.090232e+01	-2.274219e+00
1.096529e+01	-2.294671e+00
1.102862e+01	-2.315524e+00
1.109232e+01	-2.336123e+00
1.115639e+01	-2.356836e+00
1.122083e+01	-2.377992e+00
1.128564e+01	-2.399309e+00
1.135083e+01	-2.420359e+00
1.141639e+01	-2.441941e+00
1.148233e+01	-2.463416e+00
1.154865e+01	-2.485310e+00
1.161536e+01	-2.507237e+00
1.168245e+01	-2.528953e+00
1.174992e+01	-2.551397e+00
1.181779e+01	-2.573497e+00
1.188605e+01	-2.595986e+00
1.195470e+01	-2.618488e+00
1.202375e+01	-2.641289e+00
1.209320e+01	-2.664185e+00
1.216305e+01	-2.687099e+00
1.223330e+01	-2.710249e+00
1.230396e+01	-2.733536e+00
1.237503e+01	-2.756941e+00
1.244651e+01	-2.780542e+00
1.251840e+01	-2.804417e+00
1.259070e+01	-2.828179e+00
1.266343e+01	-2.852377e+00
1.273657e+01	-2.876443e+00
1.281014e+01	-2.900870e+00
1.288413e+01	-2.925272e+00
1.295855e+01	-2.949663e+00
1.303339e+01	-2.974567e+00
1.310867e+01	-2.999661e+00
1.318439e+01	-3.024303e+00
1.326054e+01	-3.049378e+00
1.333713e+01	-3.074803e+00
1.341417e+01	-3.100445e+00
1.349165e+01	-3.125895e+00
1.356958e+01	-3.151565e+00
1.364795e+01	-3.177564e+00
1.372678e+01	-3.203724e+00
1.380607e+01	-3.229871e+00
1.388581e+01	-3.255943e+00
1.396602e+01	-3.282518e+00
1.404668e+01	-3.308999e+00
1.412782e+01	-3.336082e+00
1.420942e+01	-3.362700e+00
1.429149e+01	-3.389791e+00
1.437404e+01	-3.416933e+00
1.445706e+01	-3.444385e+00
1.454057e+01	-3.471802e+00
1.462455e+01	-3.499421e+00
1.470902e+01	-3.527085e+00
1.479398e+01	-3.555037e+00
1.487943e+01	-3.582843e+00
1.496537e+01	-3.611025e+00
1.505181e+01	-3.639426e+00
1.513875e+01	-3.667980e+00
1.522619e+01	-3.696458e+00
1.531414e+01	-3.725363e+00
1.540259e+01	-3.754097e+00
1.549156e+01	-3.783147e+00
1.558103e+01	-3.812394e+00
1.567103e+01	-3.841512e+00
1.576155e+01	-3.870968e+00
1.585258e+01	-3.900621e+00
1.594415e+01	-3.930371e+00
1.603624e+01	-3.960123e+00
1.612886e+01	-3.990094e+00
1.622202e+01	-4.020359e+00
1.631572e+01	-4.050465e+00
1.640996e+01	-4.080847e+00
1.650474e+01	-4.111614e+00
1.660008e+01	-4.142129e+00
1.669596e+01	-4.172855e+00
1.679239e+01	-4.204198e+00
1.688938e+01	-4.235346e+00
1.698694e+01	-4.266323e+00
1.708505e+01	-4.297873e+00
1.718373e+01	-4.329289e+00
1.728299e+01	-4.360870e+00
1.738281e+01	-4.392518e+00
1.748322e+01	-4.424699e+00
1.758420e+01	-4.456412e+00
1.768576e+01	-4.488947e+00
1.778792e+01	-4.521143e+00
1.789066e+01	-4.553434e+00
1.799399e+01	-4.585892e+00
1.809793e+01	-4.618837e+00
1.820246e+01	-4.651634e+00
1.830760e+01	-4.684509e+00
1.841334e+01	-4.717882e+00
1.851969e+01	-4.750793e+00
1.862666e+01	-4.784006e+00
1.873425e+01	-4.817548e+00
1.884246e+01	-4.851371e+00
1.895129e+01	-4.885034e+00
1.906075e+01	-4.918509e+00
1.917085e+01	-4.952552e+00
1.928158e+01	-4.986858e+00
1.939295e+01	-5.020932e+00
1.950496e+01	-5.055313e+00
1.961762e+01	-5.089669e+00
1.973093e+01	-5.124334e+00
1.984490e+01	-5.159064e+00
1.995952e+01	-5.193842e+00
2.007480e+01	-5.229164e+00
2.019076e+01	-5.263646e+00
2.030738e+01	-5.299323e+00
2.042467e+01	-5.334614e+00
2.054264e+01	-5.369947e+00
2.066130e+01	-5.405390e+00
2.078064e+01	-5.441116e+00
2.090066e+01	-5.476654e+00
2.102139e+01	-5.513152e+00
2.114280e+01	-5.548840e+00
2.126492e+01	-5.584866e+00
2.138775e+01	-5.621426e+00
2.151128e+01	-5.657822e+00
2.163553e+01	-5.694248e+00
2.176050e+01	-5.730787e+00
2.188619e+01	-5.767527e+00
2.201260e+01	-5.804297e+00
2.213974e+01	-5.841179e+00
2.226762e+01	-5.878119e+00
2.239624e+01	-5.915602e+00
2.252560e+01	-5.952852e+00
2.265571e+01	-5.989989e+00
2.278656e+01	-6.027583e+00
2.291818e+01	-6.065097e+00
2.305055e+01	-6.102871e+00
2.318369e+01	-6.140685e+00
2.331760e+01	-6.178440e+00
2.345228e+01	-6.216414e+00
2.358774e+01	-6.254718e+00
2.372398e+01	-6.292946e+00
2.386101e+01	-6.331156e+00
2.399883e+01	-6.369724e+00
2.413745e+01	-6.408309e+00
2.427686e+01	-6.446840e+00
2.441709e+01	-6.485670e+00
2.455812e+01	-6.524655e+00
2.469997e+01	-6.563479e+00
2.484263e+01	-6.602427e+00
2.498612e+01	-6.641840e+00
2.513044e+01	-6.680820e+00
2.527559e+01	-6.720218e+00
2.542158e+01	-6.759677e+00
2.556842e+01	-6.799106e+00
2.571610e+01	-6.838757e+00
2.586463e+01	-6.878590e+00
2.601403e+01	-6.918535e+00
2.616428e+01	-6.958027e+00
2.631541e+01	-6.998448e+00
2.646740e+01	-7.038285e+00
2.662028e+01	-7.078351e+00
2.677404e+01	-7.118501e+00
2.692868e+01	-7.159027e+00
2.708422e+01	-7.199888e+00
2.724066e+01	-7.239866e+00
2.739800e+01	-7.280625e+00
2.755625e+01	-7.321639e+00
2.771541e+01	-7.362463e+00
2.787550e+01	-7.403081e+00
2.803650e+01	-7.443912e+00
2.819844e+01	-7.485062e+00
2.836131e+01	-7.526229e+00
2.852513e+01	-7.567532e+00
2.868989e+01	-7.608944e+00
2.885560e+01	-7.650484e+00
2.902227e+01	-7.691695e+00
2.918990e+01	-7.732805e+00
2.935850e+01	-7.774405e+00
2.952807e+01	-7.816213e+00
2.969863e+01	-7.857971e+00
2.987016e+01	-7.899785e+00
3.004269e+01	-7.942285e+00
3.021622e+01	-7.984131e+00
3.039075e+01	-8.026043e+00
3.056628e+01	-8.068593e+00
3.074283e+01	-8.110518e+00
3.092040e+01	-8.153128e+00
3.109900e+01	-8.195141e+00
3.127862e+01	-8.237486e+00
3.145929e+01	-8.280795e+00
3.164099e+01	-8.322979e+00
3.182375e+01	-8.365463e+00
3.200756e+01	-8.408574e+00
3.219244e+01	-8.451347e+00
3.237838e+01	-8.494045e+00
3.256540e+01	-8.537333e+00
3.275349e+01	-8.580067e+00
3.294268e+01	-8.623587e+00
3.313295e+01	-8.666336e+00
3.332433e+01	-8.709721e+00
3.351681e+01	-8.753802e+00
3.371040e+01	-8.796512e+00
3.390511e+01	-8.840692e+00
3.410094e+01	-8.884053e+00
3.429791e+01	-8.927326e+00
3.449601e+01	-8.971135e+00
3.469526e+01	-9.014359e+00
3.489566e+01	-9.058648e+00
3.509721e+01	-9.102243e+00
3.529993e+01	-9.146139e+00
3.550382e+01	-9.190313e+00
3.570889e+01	-9.234069e+00
3.591515e+01	-9.278566e+00
3.612259e+01	-9.322422e+00
3.633123e+01	-9.366481e+00
3.654108e+01	-9.410424e+00
3.675214e+01	-9.455295e+00
3.696442e+01	-9.499649e+00
3.717792e+01	-9.544563e+00
3.739266e+01	-9.588602e+00
3.760864e+01	-9.633236e+00
3.782587e+01	-9.677375e+00
3.804435e+01	-9.722655e+00
3.826409e+01	-9.767243e+00
3.848510e+01	-9.811509e+00
3.870739e+01	-9.856987e+00
3.893096e+01	-9.901658e+00
3.915583e+01	-9.946646e+00
3.938199e+01	-9.991461e+00
3.960946e+01	-1.003638e+01
3.983824e+01	-1.008134e+01
4.006834e+01	-1.012709e+01
4.029978e+01	-1.017205e+01
4.053255e+01	-1.021669e+01
4.076666e+01	-1.026260e+01
4.100213e+01	-1.030821e+01
4.123896e+01	-1.035299e+01
4.147715e+01	-1.039864e+01
4.171672e+01	-1.044385e+01
4.195767e+01	-1.048976e+01
4.220002e+01	-1.053557e+01
4.244377e+01	-1.058082e+01
4.268892e+01	-1.062620e+01
4.293549e+01	-1.067211e+01
4.318348e+01	-1.071742e+01
4.343291e+01	-1.076354e+01
4.368377e+01	-1.080978e+01
4.393609e+01	-1.085581e+01
4.418986e+01	-1.090192e+01
4.444510e+01	-1.094771e+01
4.470182e+01	-1.099409e+01
4.496001e+01	-1.103985e+01
4.521970e+01	-1.108523e+01
4.548089e+01	-1.113199e+01
4.574358e+01	-1.117843e+01
4.600779e+01	-1.122409e+01
4.627353e+01	-1.127027e+01
4.654081e+01	-1.131691e+01
4.680963e+01	-1.136332e+01
4.708000e+01	-1.140990e+01
4.735193e+01	-1.145557e+01
4.762543e+01	-1.150231e+01
4.790051e+01	-1.154924e+01
4.817719e+01	-1.159594e+01
4.845545e+01	-1.164126e+01
4.873533e+01	-1.168860e+01
4.901682e+01	-1.173485e+01
4.929994e+01	-1.178182e+01
4.958470e+01	-1.182869e+01
4.987110e+01	-1.187546e+01
5.015915e+01	-1.192214e+01
5.044887e+01	-1.196922e+01
5.074026e+01	-1.201660e+01
5.103333e+01	-1.206343e+01
5.132810e+01	-1.210990e+01
5.162457e+01	-1.215746e+01
5.192275e+01	-1.220441e+01
5.222265e+01	-1.225124e+01
5.252429e+01	-1.229811e+01
5.282767e+01	-1.234558e+01
5.313280e+01	-1.239304e+01
5.343969e+01	-1.243931e+01
5.374836e+01	-1.248631e+01
5.405880e+01	-1.253379e+01
5.437105e+01	-1.258026e+01
5.468509e+01	-1.262821e+01
5.500095e+01	-1.267531e+01
5.531863e+01	-1.272352e+01
5.563815e+01	-1.276988e+01
5.595951e+01	-1.281844e+01
5.628273e+01	-1.286484e+01
5.660782e+01	-1.291244e+01
5.693479e+01	-1.296066e+01
5.726364e+01	-1.300780e+01
5.759439e+01	-1.305477e+01
5.792705e+01	-1.310290e+01
5.826164e+01	-1.315013e+01
5.859815e+01	-1.319840e+01
5.893662e+01	-1.324630e+01
5.927703e+01	-1.329324e+01
5.961941e+01	-1.334088e+01
5.996377e+01	-1.338907e+01
6.031012e+01	-1.343664e+01
6.065847e+01	-1.348473e+01
6.100883e+01	-1.353199e+01
6.136121e+01	-1.357997e+01
6.171563e+01	-1.362767e+01
6.207210e+01	-1.367592e+01
6.243063e+01	-1.372352e+01
6.279122e+01	-1.377098e+01
6.315390e+01	-1.381881e+01
6.351868e+01	-1.386744e+01
6.388556e+01	-1.391532e+01
6.425456e+01	-1.396254e+01
6.462569e+01	-1.401095e+01
6.499897e+01	-1.405950e+01
6.537440e+01	-1.410731e+01
6.575200e+01	-1.415527e+01
6.613178e+01	-1.420452e+01
6.651375e+01	-1.425240e+01
6.689793e+01	-1.430078e+01
6.728433e+01	-1.434762e+01
6.767297e+01	-1.439721e+01
6.806384e+01	-1.444407e+01
6.845698e+01	-1.449271e+01
6.885238e+01	-1.454131e+01
6.925007e+01	-1.458928e+01
6.965005e+01	-1.463788e+01
7.005235e+01	-1.468591e+01
7.045697e+01	-1.473432e+01
7.086393e+01	-1.478285e+01
7.127323e+01	-1.483059e+01
7.168490e+01	-1.487976e+01
7.209895e+01	-1.492814e+01
7.251539e+01	-1.497632e+01
7.293424e+01	-1.502460e+01
7.335551e+01	-1.507261e+01
7.377920e+01	-1.512092e+01
7.420535e+01	-1.516961e+01
7.463396e+01	-1.521838e+01
7.506504e+01	-1.526711e+01
7.549861e+01	-1.531553e+01
7.593469e+01	-1.536362e+01
7.637328e+01	-1.541259e+01
7.681441e+01	-1.546252e+01
7.725809e+01	-1.550960e+01
7.770433e+01	-1.555909e+01
7.815315e+01	-1.560745e+01
7.860456e+01	-1.565544e+01
7.905857e+01	-1.570465e+01
7.951521e+01	-1.575398e+01
7.997449e+01	-1.580207e+01
8.043642e+01	-1.585008e+01
8.090102e+01	-1.589915e+01
8.136830e+01	-1.594814e+01
8.183828e+01	-1.599781e+01
8.231097e+01	-1.604562e+01
8.278640e+01	-1.609399e+01
8.326457e+01	-1.614351e+01
8.374550e+01	-1.619231e+01
8.422921e+01	-1.624084e+01
8.471572e+01	-1.629064e+01
8.520503e+01	-1.633898e+01
8.569717e+01	-1.638652e+01
8.619215e+01	-1.643496e+01
8.669000e+01	-1.648537e+01
8.719071e+01	-1.653463e+01
8.769432e+01	-1.658436e+01
8.820084e+01	-1.663187e+01
8.871029e+01	-1.668049e+01
8.922267e+01	-1.672963e+01
8.973802e+01	-1.677977e+01
9.025634e+01	-1.682832e+01
9.077766e+01	-1.687624e+01
9.130199e+01	-1.692598e+01
9.182935e+01	-1.697482e+01
9.235975e+01	-1.702401e+01
9.289321e+01	-1.707329e+01
9.342976e+01	-1.712124e+01
9.396941e+01	-1.717084e+01
9.451217e+01	-1.722068e+01
9.505807e+01	-1.726947e+01
9.560712e+01	-1.731852e+01
9.615934e+01	-1.736746e+01
9.671476e+01	-1.741765e+01
9.727338e+01	-1.746541e+01
9.783522e+01	-1.751533e+01
9.840032e+01	-1.756505e+01
9.896867e+01	-1.761334e+01
9.954031e+01	-1.766291e+01
1.001153e+02	-1.771212e+01
1.006935e+02	-1.776166e+01
1.012751e+02	-1.780922e+01
1.018601e+02	-1.785998e+01
1.024484e+02	-1.790907e+01
1.030402e+02	-1.795809e+01
1.036353e+02	-1.800673e+01
1.042339e+02	-1.805598e+01
1.048360e+02	-1.810504e+01
1.054415e+02	-1.815413e+01
1.060505e+02	-1.820292e+01
1.066631e+02	-1.825291e+01
1.072791e+02	-1.830316e+01
1.078988e+02	-1.835371e+01
1.085220e+02	-1.840080e+01
1.091488e+02	-1.845083e+01
1.097793e+02	-1.850003e+01
1.104133e+02	-1.855015e+01
1.110511e+02	-1.859924e+01
1.116925e+02	-1.864845e+01
1.123376e+02	-1.869768e+01
1.129865e+02	-1.874652e+01
1.136391e+02	-1.879648e+01
1.142955e+02	-1.884505e+01
1.149556e+02	-1.889458e+01
1.156196e+02	-1.894194e+01
1.162874e+02	-1.899375e+01
1.169591e+02	-1.904333e+01
1.176347e+02	-1.909323e+01
1.183141e+02	-1.914249e+01
1.189975e+02	-1.919219e+01
1.196848e+02	-1.924022e+01
1.203761e+02	-1.929060e+01
1.210714e+02	-1.933920e+01
1.217707e+02	-1.938875e+01
1.224740e+02	-1.943919e+01
1.231814e+02	-1.948866e+01
1.238929e+02	-1.953805e+01
1.246085e+02	-1.958659e+01
1.253283e+02	-1.963718e+01
1.260522e+02	-1.968598e+01
1.267802e+02	-1.973456e+01
1.275125e+02	-1.978428e+01
1.282490e+02	-1.983552e+01
1.289898e+02	-1.988383e+01
1.297348e+02	-1.993294e+01
1.304842e+02	-1.998408e+01
1.312378e+02	-2.003019e+01
1.319959e+02	-2.008304e+01
1.327583e+02	-2.013131e+01
1.335251e+02	-2.018225e+01
1.342963e+02	-2.023103e+01
1.350720e+02	-2.027971e+01
1.358522e+02	-2.033048e+01
1.366368e+02	-2.037967e+01
1.374260e+02	-2.042983e+01
1.382198e+02	-2.047912e+01
1.390182e+02	-2.052907e+01
1.398211e+02	-2.058015e+01
1.406287e+02	-2.062637e+01
1.414410e+02	-2.067617e+01
1.422579e+02	-2.072743e+01
1.430796e+02	-2.077743e+01
1.439060e+02	-2.082547e+01
1.447372e+02	-2.087556e+01
1.455732e+02	-2.092694e+01
1.464141e+02	-2.097519e+01
1.472597e+02	-2.102384e+01
1.481103e+02	-2.107496e+01
1.489658e+02	-2.112498e+01
1.498262e+02	-2.117461e+01
1.506916e+02	-2.122294e+01
1.515620e+02	-2.127481e+01
1.524374e+02	-2.132239e+01
1.533179e+02	-2.137195e+01
1.542034e+02	-2.142332e+01
1.550941e+02	-2.147285e+01
1.559899e+02	-2.152226e+01
1.568909e+02	-2.157103e+01
1.577971e+02	-2.162006e+01
1.587085e+02	-2.166907e+01
1.596252e+02	-2.171908e+01
1.605472e+02	-2.176893e+01
1.614745e+02	-2.181868e+01
1.624072e+02	-2.187120e+01
1.633453e+02	-2.191707e+01
1.642887e+02	-2.196835e+01
1.652377e+02	-2.201600e+01
1.661921e+02	-2.206741e+01
1.671520e+02	-2.211864e+01
1.681175e+02	-2.216516e+01
1.690885e+02	-2.221742e+01
1.700651e+02	-2.226472e+01
1.710474e+02	-2.231597e+01
1.720354e+02	-2.236664e+01
1.730291e+02	-2.241537e+01
1.740285e+02	-2.246493e+01
1.750337e+02	-2.251418e+01
1.760446e+02	-2.256645e+01
1.770615e+02	-2.261582e+01
1.780842e+02	-2.266620e+01
1.791128e+02	-2.271671e+01
1.801473e+02	-2.276588e+01
1.811878e+02	-2.281415e+01
1.822344e+02	-2.286367e+01
1.832870e+02	-2.291218e+01
1.843456e+02	-2.296516e+01
1.854104e+02	-2.301439e+01
1.864813e+02	-2.306326e+01
1.875584e+02	-2.311471e+01
1.886418e+02	-2.316145e+01
1.897313e+02	-2.321364e+01
1.908272e+02	-2.326311e+01
1.919294e+02	-2.331035e+01
1.930380e+02	-2.336486e+01
1.941530e+02	-2.341317e+01
1.952744e+02	-2.346236e+01
1.964023e+02	-2.351026e+01
1.975367e+02	-2.356222e+01
1.986777e+02	-2.361435e+01
1.998252e+02	-2.366183e+01
2.009794e+02	-2.371033e+01
2.021403e+02	-2.376129e+01
2.033078e+02	-2.381097e+01
2.044821e+02	-2.385936e+01
2.056632e+02	-2.390952e+01
2.068511e+02	-2.395919e+01
2.080459e+02	-2.401244e+01
2.092475e+02	-2.405971e+01
2.104561e+02	-2.411023e+01
2.116717e+02	-2.415956e+01
2.128943e+02	-2.421037e+01
2.141240e+02	-2.426050e+01
2.153608e+02	-2.431086e+01
2.166047e+02	-2.436016e+01
2.178558e+02	-2.440954e+01
2.191141e+02	-2.446093e+01
2.203797e+02	-2.450922e+01
2.216526e+02	-2.456027e+01
2.229329e+02	-2.460818e+01
2.242205e+02	-2.465907e+01
2.255156e+02	-2.470474e+01
2.268182e+02	-2.475994e+01
2.281283e+02	-2.480955e+01
2.294459e+02	-2.485698e+01
2.307712e+02	-2.490808e+01
2.321041e+02	-2.495728e+01
2.334447e+02	-2.501002e+01
2.347931e+02	-2.505655e+01
2.361493e+02	-2.510706e+01
2.375133e+02	-2.515843e+01
2.388851e+02	-2.520805e+01
2.402649e+02	-2.525709e+01
2.416527e+02	-2.530964e+01
2.430484e+02	-2.535769e+01
2.444523e+02	-2.540818e+01
2.458642e+02	-2.545893e+01
2.472843e+02	-2.550482e+01
2.487126e+02	-2.555648e+01
2.501492e+02	-2.560702e+01
2.515940e+02	-2.565863e+01
2.530472e+02	-2.570828e+01
2.545088e+02	-2.575569e+01
2.559789e+02	-2.580953e+01
2.574574e+02	-2.585698e+01
2.589444e+02	-2.590708e+01
2.604401e+02	-2.595717e+01
2.619444e+02	-2.600688e+01
2.634574e+02	-2.605780e+01
2.649791e+02	-2.610339e+01
2.665096e+02	-2.615712e+01
2.680489e+02	-2.621207e+01
2.695972e+02	-2.626026e+01
2.711544e+02	-2.630736e+01
2.727205e+02	-2.635449e+01
2.742958e+02	-2.640749e+01
2.758801e+02	-2.645776e+01
2.774736e+02	-2.650723e+01
2.790762e+02	-2.655576e+01
2.806882e+02	-2.660747e+01
2.823094e+02	-2.665627e+01
2.839400e+02	-2.670565e+01
2.855800e+02	-2.675560e+01
2.872295e+02	-2.680615e+01
2.888886e+02	-2.685710e+01
2.905572e+02	-2.690543e+01
2.922354e+02	-2.695643e+01
2.939234e+02	-2.700602e+01
2.956211e+02	-2.705758e+01
2.973286e+02	-2.710238e+01
2.990459e+02	-2.715338e+01
3.007732e+02	-2.720617e+01
3.025104e+02	-2.725802e+01
3.042577e+02	-2.730861e+01
3.060151e+02	-2.735478e+01
3.077826e+02	-2.740515e+01
3.095604e+02	-2.745338e+01
3.113484e+02	-2.750623e+01
3.131467e+02	-2.755522e+01
3.149554e+02	-2.760803e+01
3.167746e+02	-2.765840e+01
3.186043e+02	-2.770647e+01
3.204445e+02	-2.775403e+01
3.222954e+02	-2.780795e+01
3.241570e+02	-2.785964e+01
3.260293e+02	-2.790644e+01
3.279124e+02	-2.795517e+01
3.298064e+02	-2.800359e+01
3.317114e+02	-2.805847e+01
3.336273e+02	-2.810584e+01
3.355544e+02	-2.815482e+01
3.374925e+02	-2.820502e+01
3.394418e+02	-2.826040e+01
3.414024e+02	-2.830498e+01
3.433744e+02	-2.835959e+01
3.453577e+02	-2.840671e+01
3.473525e+02	-2.845540e+01
3.493588e+02	-2.850509e+01
3.513766e+02	-2.855806e+01
3.534062e+02	-2.860867e+01
3.554474e+02	-2.865551e+01
3.575005e+02	-2.871047e+01
3.595654e+02	-2.875919e+01
3.616422e+02	-2.880672e+01
3.637311e+02	-2.886199e+01
3.658320e+02	-2.890285e+01
3.679450e+02	-2.895992e+01
3.700702e+02	-2.901172e+01
3.722077e+02	-2.905633e+01
3.743576e+02	-2.910574e+01
3.765199e+02	-2.915789e+01
3.786946e+02	-2.920836e+01
3.808820e+02	-2.925560e+01
3.830819e+02	-2.930529e+01
3.852946e+02	-2.935457e+01
3.875200e+02	-2.941073e+01
3.897583e+02	-2.945990e+01
3.920096e+02	-2.950780e+01
3.942738e+02	-2.955863e+01
3.965511e+02	-2.961232e+01
3.988416e+02	-2.965941e+01
4.011452e+02	-2.970517e+01
4.034622e+02	-2.975809e+01
4.057926e+02	-2.980692e+01
4.081365e+02	-2.985949e+01
4.104938e+02	-2.990991e+01
4.128648e+02	-2.996338e+01
4.152495e+02	-3.001174e+01
4.176480e+02	-3.005912e+01
4.200603e+02	-3.011380e+01
4.224866e+02	-3.015525e+01
4.249268e+02	-3.020600e+01
4.273812e+02	-3.025911e+01
4.298497e+02	-3.030911e+01
4.323325e+02	-3.035938e+01
4.348297e+02	-3.041055e+01
4.373412e+02	-3.045906e+01
4.398673e+02	-3.050619e+01
4.424079e+02	-3.056159e+01
4.449633e+02	-3.060816e+01
4.475334e+02	-3.066195e+01
4.501183e+02	-3.070684e+01
4.527182e+02	-3.076454e+01
4.553330e+02	-3.081379e+01
4.579630e+02	-3.086163e+01
4.606082e+02	-3.091174e+01
4.632687e+02	-3.096081e+01
4.659445e+02	-3.100820e+01
4.686358e+02	-3.106738e+01
4.713426e+02	-3.111816e+01
4.740650e+02	-3.116328e+01
4.768032e+02	-3.121420e+01
4.795572e+02	-3.126046e+01
4.823271e+02	-3.131215e+01
4.851130e+02	-3.136404e+01
4.879150e+02	-3.141299e+01
4.907332e+02	-3.146603e+01
4.935676e+02	-3.151560e+01
4.964185e+02	-3.156080e+01
4.992858e+02	-3.161709e+01
5.021696e+02	-3.166672e+01
5.050701e+02	-3.171514e+01
5.079874e+02	-3.176851e+01
5.109215e+02	-3.181335e+01
5.138726e+02	-3.187057e+01
5.168407e+02	-3.191729e+01
5.198259e+02	-3.197076e+01
5.228284e+02	-3.201697e+01
5.258482e+02	-3.206704e+01
5.288855e+02	-3.211201e+01
5.319403e+02	-3.216441e+01
5.350128e+02	-3.221480e+01
5.381030e+02	-3.226115e+01
5.412111e+02	-3.232522e+01
5.443371e+02	-3.236122e+01
5.474812e+02	-3.241656e+01
5.506434e+02	-3.247266e+01
5.538239e+02	-3.252109e+01
5.570228e+02	-3.256087e+01
5.602401e+02	-3.261545e+01
5.634760e+02	-3.267067e+01
5.667306e+02	-3.271859e+01
5.700040e+02	-3.276994e+01
5.732964e+02	-3.281437e+01
5.766077e+02	-3.286766e+01
5.799382e+02	-3.291546e+01
5.832879e+02	-3.297416e+01
5.866569e+02	-3.301617e+01
5.900454e+02	-3.306887e+01
5.934535e+02	-3.311359e+01
5.968813e+02	-3.317537e+01
6.003288e+02	-3.321636e+01
6.037963e+02	-3.327076e+01
6.072838e+02	-3.331811e+01
6.107914e+02	-3.336810e+01
6.143194e+02	-3.342074e+01
6.178676e+02	-3.347552e+01
6.214364e+02	-3.351905e+01
6.250258e+02	-3.357391e+01
6.286359e+02	-3.362620e+01
6.322669e+02	-3.367518e+01
6.359189e+02	-3.371985e+01
6.395919e+02	-3.377204e+01
6.432862e+02	-3.382609e+01
6.470017e+02	-3.387683e+01
6.507388e+02	-3.391977e+01
6.544974e+02	-3.398053e+01
6.582778e+02	-3.402393e+01
6.620800e+02	-3.407549e+01
6.659041e+02	-3.412831e+01
6.697504e+02	-3.418361e+01
6.736188e+02	-3.422848e+01
6.775096e+02	-3.427273e+01
6.814229e+02	-3.432375e+01
6.853587e+02	-3.438029e+01
6.893173e+02	-3.442439e+01
6.932988e+02	-3.447656e+01
6.973033e+02	-3.452671e+01
7.013309e+02	-3.458301e+01
