Frequency(Hz)	Magnitude(dB)
1.000000e+01	-1.985307e+00
1.005776e+01	-2.003571e+00
1.011585e+01	-2.022178e+00
1.017428e+01	-2.040851e+00
1.023305e+01	-2.059625e+00
1.029215e+01	-2.078507e+00
1.035160e+01	-2.097762e+00
1.041139e+01	-2.117013e+00
1.047153e+01	-2.136033e+00
1.053201e+01	-2.155915e+00
1.059284e+01	-2.175597e+00
1.065403e+01	-2.195259e+00
1.071556e+01	-2.214979e+00
1.077746e+01	-2.235117e+00
1.083971e+01	-2.255391e+00
1.090232e+01	-2.275843e+00
1.096529e+01	-2.296229e+00
1.102862e+01	-2.316764e+00
1.109232e+01	-2.337726e+00
1.115639e+01	-2.358482e+00
1.122083e+01	-2.379401e+00
1.128564e+01	-2.400678e+00
1.135083e+01	-2.422098e+00
1.141639e+01	-2.443526e+00
1.148233e+01	-2.465095e+00
1.154865e+01	-2.486801e+00
1.161536e+01	-2.508756e+00
1.168245e+01	-2.530869e+00
1.174992e+01	-2.552876e+00
1.181779e+01	-2.575108e+00
1.188605e+01	-2.597887e+00
1.195470e+01	-2.620111e+00
1.202375e+01	-2.642839e+00
1.209320e+01	-2.665916e+00
1.216305e+01	-2.688904e+00
1.223330e+01	-2.711861e+00
1.230396e+01	-2.735402e+00
1.237503e+01	-2.758838e+00
1.244651e+01	-2.782479e+00
1.251840e+01	-2.806095e+00
1.259070e+01	-2.829882e+00
1.266343e+01	-2.853922e+00
1.273657e+01	-2.878284e+00
1.281014e+01	-2.902516e+00
1.288413e+01	-2.927192e+00
1.295855e+01	-2.951580e+00
1.303339e+01	-2.976322e+00
1.310867e+01	-3.001152e+00
1.318439e+01	-3.026347e+00
1.326054e+01	-3.051539e+00
1.333713e+01	-3.076776e+00
1.341417e+01	-3.101879e+00
1.349165e+01	-3.127687e+00
1.356958e+01	-3.153646e+00
1.364795e+01	-3.179412e+00
1.372678e+01	-3.205632e+00
1.380607e+01	-3.231642e+00
1.388581e+01	-3.258091e+00
1.396602e+01	-3.284346e+00
1.404668e+01	-3.310987e+00
1.412782e+01	-3.337806e+00
1.420942e+01	-3.364533e+00
1.429149e+01	-3.391779e+00
1.437404e+01	-3.418933e+00
1.445706e+01	-3.445991e+00
1.454057e+01	-3.473839e+00
1.462455e+01	-3.501654e+00
1.470902e+01	-3.529155e+00
1.479398e+01	-3.557345e+00
1.487943e+01	-3.585150e+00
1.496537e+01	-3.612943e+00
1.505181e+01	-3.641703e+00
1.513875e+01	-3.670179e+00
1.522619e+01	-3.698684e+00
1.531414e+01	-3.727459e+00
1.540259e+01	-3.756217e+00
1.549156e+01	-3.785296e+00
1.558103e+01	-3.814683e+00
1.567103e+01	-3.843850e+00
1.576155e+01	-3.873107e+00
1.585258e+01	-3.902624e+00
1.594415e+01	-3.932520e+00
1.603624e+01	-3.962562e+00
1.612886e+01	-3.992453e+00
1.622202e+01	-4.022769e+00
1.631572e+01	-4.052845e+00
1.640996e+01	-4.083535e+00
1.650474e+01	-4.113849e+00
1.660008e+01	-4.144567e+00
1.669596e+01	-4.175188e+00
1.679239e+01	-4.206410e+00
1.688938e+01	-4.237465e+00
1.698694e+01	-4.268480e+00
1.708505e+01	-4.300249e+00
1.718373e+01	-4.331773e+00
1.728299e+01	-4.363232e+00
1.738281e+01	-4.395237e+00
1.748322e+01	-4.426821e+00
1.758420e+01	-4.458760e+00
1.768576e+01	-4.491074e+00
1.778792e+01	-4.523358e+00
1.789066e+01	-4.556049e+00
1.799399e+01	-4.588452e+00
1.809793e+01	-4.621248e+00
1.820246e+01	-4.654046e+00
1.830760e+01	-4.687171e+00
1.841334e+01	-4.720186e+00
1.851969e+01	-4.753050e+00
1.862666e+01	-4.786681e+00
1.873425e+01	-4.819933e+00
1.884246e+01	-4.853529e+00
1.895129e+01	-4.887427e+00
1.906075e+01	-4.921181e+00
1.917085e+01	-4.955305e+00
1.928158e+01	-4.989626e+00
1.939295e+01	-5.023566e+00
1.950496e+01	-5.057952e+00
1.961762e+01	-5.092486e+00
1.973093e+01	-5.127008e+00
1.984490e+01	-5.161617e+00
1.995952e+01	-5.196717e+00
2.007480e+01	-5.231631e+00
2.019076e+01	-5.266502e+00
2.030738e+01	-5.301860e+00
2.042467e+01	-5.337330e+00
2.054264e+01	-5.372844e+00
2.066130e+01	-5.408052e+00
2.078064e+01	-5.443988e+00
2.090066e+01	-5.479390e+00
2.102139e+01	-5.515365e+00
2.114280e+01	-5.551223e+00
2.126492e+01	-5.587609e+00
2.138775e+01	-5.623933e+00
2.151128e+01	-5.660509e+00
2.163553e+01	-5.696772e+00
2.176050e+01	-5.733396e+00
2.188619e+01	-5.770120e+00
2.201260e+01	-5.806752e+00
2.213974e+01	-5.843947e+00
2.226762e+01	-5.880897e+00
2.239624e+01	-5.918128e+00
2.252560e+01	-5.955433e+00
2.265571e+01	-5.992902e+00
2.278656e+01	-6.030291e+00
2.291818e+01	-6.067927e+00
2.305055e+01	-6.105652e+00
2.318369e+01	-6.143495e+00
2.331760e+01	-6.181342e+00
2.345228e+01	-6.219334e+00
2.358774e+01	-6.257519e+00
2.372398e+01	-6.295362e+00
2.386101e+01	-6.334092e+00
2.399883e+01	-6.372476e+00
2.413745e+01	-6.410878e+00
2.427686e+01	-6.449595e+00
2.441709e+01	-6.488652e+00
2.455812e+01	-6.527357e+00
2.469997e+01	-6.565816e+00
2.484263e+01	-6.605522e+00
2.498612e+01	-6.644344e+00
2.513044e+01	-6.683633e+00
2.527559e+01	-6.722737e+00
2.542158e+01	-6.762821e+00
2.556842e+01	-6.802245e+00
2.571610e+01	-6.841390e+00
2.586463e+01	-6.881084e+00
2.601403e+01	-6.921343e+00
2.616428e+01	-6.961429e+00
2.631541e+01	-7.001275e+00
2.646740e+01	-7.041016e+00
2.662028e+01	-7.081376e+00
2.677404e+01	-7.121454e+00
2.692868e+01	-7.161587e+00
2.708422e+01	-7.202515e+00
2.724066e+01	-7.242909e+00
2.739800e+01	-7.283392e+00
2.755625e+01	-7.324701e+00
2.771541e+01	-7.365069e+00
2.787550e+01	-7.406102e+00
2.803650e+01	-7.446582e+00
2.819844e+01	-7.487854e+00
2.836131e+01	-7.529381e+00
2.852513e+01	-7.570711e+00
2.868989e+01	-7.611714e+00
2.885560e+01	-7.653445e+00
2.902227e+01	-7.694884e+00
2.918990e+01	-7.736395e+00
2.935850e+01	-7.777540e+00
2.952807e+01	-7.819457e+00
2.969863e+01	-7.861574e+00
2.987016e+01	-7.903327e+00
3.004269e+01	-7.945237e+00
3.021622e+01	-7.987490e+00
3.039075e+01	-8.029191e+00
3.056628e+01	-8.071553e+00
3.074283e+01	-8.113583e+00
3.092040e+01	-8.156338e+00
3.109900e+01	-8.198446e+00
3.127862e+01	-8.241406e+00
3.145929e+01	-8.283220e+00
3.164099e+01	-8.326049e+00
3.182375e+01	-8.369226e+00
3.200756e+01	-8.411681e+00
3.219244e+01	-8.454345e+00
3.237838e+01	-8.497162e+00
3.256540e+01	-8.540490e+00
3.275349e+01	-8.583382e+00
3.294268e+01	-8.626337e+00
3.313295e+01	-8.670181e+00
3.332433e+01	-8.712763e+00
3.351681e+01	-8.756882e+00
3.371040e+01	-8.800036e+00
3.390511e+01	-8.843132e+00
3.410094e+01	-8.887208e+00
3.429791e+01	-8.929892e+00
3.449601e+01	-8.973942e+00
3.469526e+01	-9.017439e+00
3.489566e+01	-9.061719e+00
3.509721e+01	-9.105314e+00
3.529993e+01	-9.149223e+00
3.550382e+01	-9.193345e+00
3.570889e+01	-9.237041e+00
3.591515e+01	-9.281359e+00
3.612259e+01	-9.325304e+00
3.633123e+01	-9.369575e+00
3.654108e+01	-9.414197e+00
3.675214e+01	-9.458191e+00
3.696442e+01	-9.503030e+00
3.717792e+01	-9.547221e+00
3.739266e+01	-9.591618e+00
3.760864e+01	-9.636343e+00
3.782587e+01	-9.680857e+00
3.804435e+01	-9.725767e+00
3.826409e+01	-9.770557e+00
3.848510e+01	-9.814746e+00
3.870739e+01	-9.859703e+00
3.893096e+01	-9.904437e+00
3.915583e+01	-9.949481e+00
3.938199e+01	-9.995122e+00
3.960946e+01	-1.003961e+01
3.983824e+01	-1.008475e+01
4.006834e+01	-1.012989e+01
4.029978e+01	-1.017495e+01
4.053255e+01	-1.022056e+01
4.076666e+01	-1.026628e+01
4.100213e+01	-1.031144e+01
4.123896e+01	-1.035689e+01
4.147715e+01	-1.040178e+01
4.171672e+01	-1.044753e+01
4.195767e+01	-1.049300e+01
4.220002e+01	-1.053849e+01
4.244377e+01	-1.058464e+01
4.268892e+01	-1.063005e+01
4.293549e+01	-1.067553e+01
4.318348e+01	-1.072180e+01
4.343291e+01	-1.076696e+01
4.368377e+01	-1.081322e+01
4.393609e+01	-1.085916e+01
4.418986e+01	-1.090495e+01
4.444510e+01	-1.095063e+01
4.470182e+01	-1.099733e+01
4.496001e+01	-1.104327e+01
4.521970e+01	-1.108917e+01
4.548089e+01	-1.113538e+01
4.574358e+01	-1.118152e+01
4.600779e+01	-1.122771e+01
4.627353e+01	-1.127379e+01
4.654081e+01	-1.132007e+01
4.680963e+01	-1.136723e+01
4.708000e+01	-1.141310e+01
4.735193e+01	-1.145949e+01
4.762543e+01	-1.150559e+01
4.790051e+01	-1.155216e+01
4.817719e+01	-1.159934e+01
4.845545e+01	-1.164586e+01
4.873533e+01	-1.169140e+01
4.901682e+01	-1.173897e+01
4.929994e+01	-1.178621e+01
4.958470e+01	-1.183213e+01
4.987110e+01	-1.187933e+01
5.015915e+01	-1.192631e+01
5.044887e+01	-1.197352e+01
5.074026e+01	-1.201930e+01
5.103333e+01	-1.206651e+01
5.132810e+01	-1.211370e+01
5.162457e+01	-1.216028e+01
5.192275e+01	-1.220773e+01
5.222265e+01	-1.225468e+01
5.252429e+01	-1.230226e+01
5.282767e+01	-1.234861e+01
5.313280e+01	-1.239574e+01
5.343969e+01	-1.244278e+01
5.374836e+01	-1.249014e+01
5.405880e+01	-1.253694e+01
5.437105e+01	-1.258424e+01
5.468509e+01	-1.263150e+01
5.500095e+01	-1.267937e+01
5.531863e+01	-1.272669e+01
5.563815e+01	-1.277425e+01
5.595951e+01	-1.282104e+01
5.628273e+01	-1.286830e+01
5.660782e+01	-1.291641e+01
5.693479e+01	-1.296367e+01
5.726364e+01	-1.301075e+01
5.759439e+01	-1.305841e+01
5.792705e+01	-1.310580e+01
5.826164e+01	-1.315308e+01
5.859815e+01	-1.320076e+01
5.893662e+01	-1.324900e+01
5.927703e+01	-1.329612e+01
5.961941e+01	-1.334413e+01
5.996377e+01	-1.339227e+01
6.031012e+01	-1.343935e+01
6.065847e+01	-1.348753e+01
6.100883e+01	-1.353589e+01
6.136121e+01	-1.358401e+01
6.171563e+01	-1.363155e+01
6.207210e+01	-1.367922e+01
6.243063e+01	-1.372727e+01
6.279122e+01	-1.377440e+01
6.315390e+01	-1.382259e+01
6.351868e+01	-1.387038e+01
6.388556e+01	-1.391853e+01
6.425456e+01	-1.396668e+01
6.462569e+01	-1.401485e+01
6.499897e+01	-1.406367e+01
6.537440e+01	-1.411099e+01
6.575200e+01	-1.415879e+01
6.613178e+01	-1.420631e+01
6.651375e+01	-1.425481e+01
6.689793e+01	-1.430238e+01
6.728433e+01	-1.435133e+01
6.767297e+01	-1.440008e+01
6.806384e+01	-1.444804e+01
6.845698e+01	-1.449575e+01
6.885238e+01	-1.454444e+01
6.925007e+01	-1.459269e+01
6.965005e+01	-1.464133e+01
7.005235e+01	-1.468990e+01
7.045697e+01	-1.473752e+01
7.086393e+01	-1.478579e+01
7.127323e+01	-1.483416e+01
7.168490e+01	-1.488224e+01
7.209895e+01	-1.493194e+01
7.251539e+01	-1.497930e+01
7.293424e+01	-1.502875e+01
7.335551e+01	-1.507775e+01
7.377920e+01	-1.512510e+01
7.420535e+01	-1.517263e+01
7.463396e+01	-1.522340e+01
7.506504e+01	-1.527079e+01
7.549861e+01	-1.531814e+01
7.593469e+01	-1.536779e+01
7.637328e+01	-1.541692e+01
7.681441e+01	-1.546600e+01
7.725809e+01	-1.551427e+01
7.770433e+01	-1.556217e+01
7.815315e+01	-1.561078e+01
7.860456e+01	-1.565993e+01
7.905857e+01	-1.570833e+01
7.951521e+01	-1.575721e+01
7.997449e+01	-1.580637e+01
8.043642e+01	-1.585354e+01
8.090102e+01	-1.590305e+01
8.136830e+01	-1.595179e+01
8.183828e+01	-1.600108e+01
8.231097e+01	-1.605010e+01
8.278640e+01	-1.609888e+01
8.326457e+01	-1.614664e+01
8.374550e+01	-1.619560e+01
8.422921e+01	-1.624527e+01
8.471572e+01	-1.629447e+01
8.520503e+01	-1.634268e+01
8.569717e+01	-1.639063e+01
8.619215e+01	-1.644094e+01
8.669000e+01	-1.648858e+01
8.719071e+01	-1.653877e+01
8.769432e+01	-1.658688e+01
8.820084e+01	-1.663517e+01
8.871029e+01	-1.668462e+01
8.922267e+01	-1.673359e+01
8.973802e+01	-1.678235e+01
9.025634e+01	-1.683104e+01
9.077766e+01	-1.688055e+01
9.130199e+01	-1.692945e+01
9.182935e+01	-1.697831e+01
9.235975e+01	-1.702737e+01
9.289321e+01	-1.707599e+01
9.342976e+01	-1.712427e+01
9.396941e+01	-1.717500e+01
9.451217e+01	-1.722427e+01
9.505807e+01	-1.727449e+01
9.560712e+01	-1.732276e+01
9.615934e+01	-1.737178e+01
9.671476e+01	-1.741980e+01
9.727338e+01	-1.747083e+01
9.783522e+01	-1.751764e+01
9.840032e+01	-1.756833e+01
9.896867e+01	-1.761720e+01
9.954031e+01	-1.766725e+01
1.001153e+02	-1.771620e+01
1.006935e+02	-1.776439e+01
1.012751e+02	-1.781489e+01
1.018601e+02	-1.786356e+01
1.024484e+02	-1.791350e+01
1.030402e+02	-1.796166e+01
1.036353e+02	-1.801125e+01
1.042339e+02	-1.805996e+01
1.048360e+02	-1.810716e+01
1.054415e+02	-1.815842e+01
1.060505e+02	-1.820683e+01
1.066631e+02	-1.825774e+01
1.072791e+02	-1.830572e+01
1.078988e+02	-1.835589e+01
1.085220e+02	-1.840455e+01
1.091488e+02	-1.845446e+01
1.097793e+02	-1.850422e+01
1.104133e+02	-1.855312e+01
1.110511e+02	-1.860255e+01
1.116925e+02	-1.865092e+01
1.123376e+02	-1.870091e+01
1.129865e+02	-1.874930e+01
1.136391e+02	-1.879950e+01
1.142955e+02	-1.884840e+01
1.149556e+02	-1.889849e+01
1.156196e+02	-1.894711e+01
1.162874e+02	-1.899747e+01
1.169591e+02	-1.904690e+01
1.176347e+02	-1.909587e+01
1.183141e+02	-1.914500e+01
1.189975e+02	-1.919567e+01
1.196848e+02	-1.924422e+01
1.203761e+02	-1.929263e+01
1.210714e+02	-1.934498e+01
1.217707e+02	-1.939196e+01
1.224740e+02	-1.944112e+01
1.231814e+02	-1.949165e+01
1.238929e+02	-1.954170e+01
1.246085e+02	-1.959027e+01
1.253283e+02	-1.964026e+01
1.260522e+02	-1.968866e+01
1.267802e+02	-1.973896e+01
1.275125e+02	-1.978894e+01
1.282490e+02	-1.983796e+01
1.289898e+02	-1.988724e+01
1.297348e+02	-1.993742e+01
1.304842e+02	-1.998661e+01
1.312378e+02	-2.003642e+01
1.319959e+02	-2.008472e+01
1.327583e+02	-2.013497e+01
1.335251e+02	-2.018630e+01
1.342963e+02	-2.023534e+01
1.350720e+02	-2.028380e+01
1.358522e+02	-2.033533e+01
1.366368e+02	-2.038224e+01
1.374260e+02	-2.043100e+01
1.382198e+02	-2.048374e+01
1.390182e+02	-2.053284e+01
1.398211e+02	-2.058032e+01
1.406287e+02	-2.063080e+01
1.414410e+02	-2.068082e+01
1.422579e+02	-2.073137e+01
1.430796e+02	-2.077910e+01
1.439060e+02	-2.082997e+01
1.447372e+02	-2.088030e+01
1.455732e+02	-2.092944e+01
1.464141e+02	-2.098043e+01
1.472597e+02	-2.102875e+01
1.481103e+02	-2.107705e+01
1.489658e+02	-2.112763e+01
1.498262e+02	-2.117766e+01
1.506916e+02	-2.122677e+01
1.515620e+02	-2.127739e+01
1.524374e+02	-2.132609e+01
1.533179e+02	-2.137605e+01
1.542034e+02	-2.142390e+01
1.550941e+02	-2.147475e+01
1.559899e+02	-2.152545e+01
1.568909e+02	-2.157557e+01
1.577971e+02	-2.162283e+01
1.587085e+02	-2.167382e+01
1.596252e+02	-2.172401e+01
1.605472e+02	-2.177477e+01
1.614745e+02	-2.182281e+01
1.624072e+02	-2.187231e+01
1.633453e+02	-2.192329e+01
1.642887e+02	-2.197251e+01
1.652377e+02	-2.202260e+01
1.661921e+02	-2.207118e+01
1.671520e+02	-2.212074e+01
1.681175e+02	-2.217325e+01
1.690885e+02	-2.222125e+01
1.700651e+02	-2.227062e+01
1.710474e+02	-2.232083e+01
1.720354e+02	-2.236938e+01
1.730291e+02	-2.242196e+01
1.740285e+02	-2.247043e+01
1.750337e+02	-2.251975e+01
1.760446e+02	-2.257031e+01
1.770615e+02	-2.261657e+01
1.780842e+02	-2.266800e+01
1.791128e+02	-2.271846e+01
1.801473e+02	-2.276602e+01
1.811878e+02	-2.281934e+01
1.822344e+02	-2.286760e+01
1.832870e+02	-2.291866e+01
1.843456e+02	-2.296552e+01
1.854104e+02	-2.301679e+01
1.864813e+02	-2.307027e+01
1.875584e+02	-2.311625e+01
1.886418e+02	-2.316748e+01
1.897313e+02	-2.321670e+01
1.908272e+02	-2.326733e+01
1.919294e+02	-2.331584e+01
1.930380e+02	-2.336765e+01
1.941530e+02	-2.341401e+01
1.952744e+02	-2.346356e+01
1.964023e+02	-2.351593e+01
1.975367e+02	-2.356763e+01
1.986777e+02	-2.361683e+01
1.998252e+02	-2.366605e+01
2.009794e+02	-2.371360e+01
2.021403e+02	-2.376601e+01
2.033078e+02	-2.381354e+01
2.044821e+02	-2.386469e+01
2.056632e+02	-2.391371e+01
2.068511e+02	-2.396621e+01
2.080459e+02	-2.401313e+01
2.092475e+02	-2.406464e+01
2.104561e+02	-2.411520e+01
2.116717e+02	-2.416461e+01
2.128943e+02	-2.421406e+01
2.141240e+02	-2.426271e+01
2.153608e+02	-2.431366e+01
2.166047e+02	-2.436230e+01
2.178558e+02	-2.441243e+01
2.191141e+02	-2.446046e+01
2.203797e+02	-2.451331e+01
2.216526e+02	-2.456108e+01
2.229329e+02	-2.461080e+01
2.242205e+02	-2.466357e+01
2.255156e+02	-2.471269e+01
2.268182e+02	-2.476060e+01
2.281283e+02	-2.481259e+01
2.294459e+02	-2.486305e+01
2.307712e+02	-2.491217e+01
2.321041e+02	-2.496142e+01
2.334447e+02	-2.501077e+01
2.347931e+02	-2.506140e+01
2.361493e+02	-2.511148e+01
2.375133e+02	-2.516514e+01
2.388851e+02	-2.521325e+01
2.402649e+02	-2.526057e+01
2.416527e+02	-2.530860e+01
2.430484e+02	-2.536146e+01
2.444523e+02	-2.540963e+01
2.458642e+02	-2.546247e+01
2.472843e+02	-2.550913e+01
2.487126e+02	-2.556091e+01
2.501492e+02	-2.561010e+01
2.515940e+02	-2.566091e+01
2.530472e+02	-2.570941e+01
2.545088e+02	-2.576391e+01
2.559789e+02	-2.581203e+01
2.574574e+02	-2.586238e+01
2.589444e+02	-2.591162e+01
2.604401e+02	-2.596032e+01
2.619444e+02	-2.601178e+01
2.634574e+02	-2.606064e+01
2.649791e+02	-2.611052e+01
2.665096e+02	-2.616046e+01
2.680489e+02	-2.621164e+01
2.695972e+02	-2.626165e+01
2.711544e+02	-2.631113e+01
2.727205e+02	-2.635933e+01
2.742958e+02	-2.641145e+01
2.758801e+02	-2.645936e+01
2.774736e+02	-2.650967e+01
2.790762e+02	-2.655958e+01
2.806882e+02	-2.661000e+01
2.823094e+02	-2.665966e+01
2.839400e+02	-2.671199e+01
2.855800e+02	-2.675818e+01
2.872295e+02	-2.680825e+01
2.888886e+02	-2.685826e+01
2.905572e+02	-2.691159e+01
2.922354e+02	-2.696170e+01
2.939234e+02	-2.701213e+01
2.956211e+02	-2.706078e+01
2.973286e+02	-2.710885e+01
2.990459e+02	-2.715785e+01
3.007732e+02	-2.720648e+01
3.025104e+02	-2.725588e+01
3.042577e+02	-2.731202e+01
3.060151e+02	-2.735711e+01
3.077826e+02	-2.741191e+01
3.095604e+02	-2.746165e+01
3.113484e+02	-2.750780e+01
3.131467e+02	-2.755686e+01
3.149554e+02	-2.760879e+01
3.167746e+02	-2.766184e+01
3.186043e+02	-2.770970e+01
3.204445e+02	-2.776196e+01
3.222954e+02	-2.781300e+01
3.241570e+02	-2.785905e+01
3.260293e+02	-2.790639e+01
3.279124e+02	-2.795818e+01
3.298064e+02	-2.801221e+01
3.317114e+02	-2.805937e+01
3.336273e+02	-2.811321e+01
3.355544e+02	-2.816189e+01
3.374925e+02	-2.821019e+01
3.394418e+02	-2.826473e+01
3.414024e+02	-2.831070e+01
3.433744e+02	-2.836140e+01
3.453577e+02	-2.840756e+01
3.473525e+02	-2.845776e+01
3.493588e+02	-2.851234e+01
3.513766e+02	-2.855907e+01
3.534062e+02	-2.861081e+01
3.554474e+02	-2.866129e+01
3.575005e+02	-2.871120e+01
3.595654e+02	-2.876534e+01
3.616422e+02	-2.880964e+01
3.637311e+02	-2.886569e+01
3.658320e+02	-2.891140e+01
3.679450e+02	-2.896384e+01
3.700702e+02	-2.901333e+01
3.722077e+02	-2.906317e+01
3.743576e+02	-2.911442e+01
3.765199e+02	-2.916447e+01
3.786946e+02	-2.921191e+01
3.808820e+02	-2.925915e+01
3.830819e+02	-2.931038e+01
3.852946e+02	-2.936299e+01
3.875200e+02	-2.940842e+01
3.897583e+02	-2.946479e+01
3.920096e+02	-2.951391e+01
3.942738e+02	-2.956314e+01
3.965511e+02	-2.961225e+01
3.988416e+02	-2.966062e+01
4.011452e+02	-2.970919e+01
4.034622e+02	-2.976147e+01
4.057926e+02	-2.981732e+01
4.081365e+02	-2.985885e+01
4.104938e+02	-2.991454e+01
4.128648e+02	-2.996316e+01
4.152495e+02	-3.001200e+01
4.176480e+02	-3.006453e+01
4.200603e+02	-3.011559e+01
4.224866e+02	-3.016825e+01
4.249268e+02	-3.021805e+01
4.273812e+02	-3.026373e+01
4.298497e+02	-3.030770e+01
4.323325e+02	-3.036620e+01
4.348297e+02	-3.041197e+01
4.373412e+02	-3.046508e+01
4.398673e+02	-3.051097e+01
4.424079e+02	-3.056240e+01
4.449633e+02	-3.061624e+01
4.475334e+02	-3.066580e+01
4.501183e+02	-3.071662e+01
4.527182e+02	-3.076803e+01
4.553330e+02	-3.081421e+01
4.579630e+02	-3.086446e+01
4.606082e+02	-3.091559e+01
4.632687e+02	-3.096270e+01
4.659445e+02	-3.101818e+01
4.686358e+02	-3.106878e+01
4.713426e+02	-3.111516e+01
4.740650e+02	-3.116378e+01
4.768032e+02	-3.121732e+01
4.795572e+02	-3.126767e+01
4.823271e+02	-3.131339e+01
4.851130e+02	-3.137129e+01
4.879150e+02	-3.141752e+01
4.907332e+02	-3.146594e+01
4.935676e+02	-3.151769e+01
4.964185e+02	-3.157021e+01
4.992858e+02	-3.161728e+01
5.021696e+02	-3.166424e+01
5.050701e+02	-3.171612e+01
5.079874e+02	-3.177041e+01
5.109215e+02	-3.181608e+01
5.138726e+02	-3.186543e+01
5.168407e+02	-3.192051e+01
5.198259e+02	-3.196969e+01
5.228284e+02	-3.201962e+01
5.258482e+02	-3.207485e+01
5.288855e+02	-3.211712e+01
5.319403e+02	-3.216946e+01
5.350128e+02	-3.222163e+01
5.381030e+02	-3.226842e+01
5.412111e+02	-3.232765e+01
5.443371e+02	-3.237210e+01
5.474812e+02	-3.242432e+01
5.506434e+02	-3.246772e+01
5.538239e+02	-3.251609e+01
5.570228e+02	-3.256912e+01
5.602401e+02	-3.262145e+01
5.634760e+02	-3.266634e+01
5.667306e+02	-3.272317e+01
5.700040e+02	-3.277246e+01
5.732964e+02	-3.282468e+01
5.766077e+02	-3.287302e+01
5.799382e+02	-3.292037e+01
5.832879e+02	-3.297419e+01
5.866569e+02	-3.302788e+01
5.900454e+02	-3.307379e+01
5.934535e+02	-3.312626e+01
5.968813e+02	-3.317841e+01
6.003288e+02	-3.323266e+01
6.037963e+02	-3.327346e+01
6.072838e+02	-3.333003e+01
6.107914e+02	-3.337139e+01
6.143194e+02	-3.342753e+01
6.178676e+02	-3.348237e+01
6.214364e+02	-3.352738e+01
6.250258e+02	-3.357345e+01
6.286359e+02	-3.362635e+01
6.322669e+02	-3.368134e+01
6.359189e+02	-3.372613e+01
6.395919e+02	-3.378011e+01
6.432862e+02	-3.382917e+01
6.470017e+02	-3.388283e+01
6.507388e+02	-3.393434e+01
6.544974e+02	-3.397554e+01
6.582778e+02	-3.403510e+01
6.620800e+02	-3.408247e+01
6.659041e+02	-3.413111e+01
6.697504e+02	-3.418293e+01
6.736188e+02	-3.423549e+01
6.775096e+02	-3.428683e+01
6.814229e+02	-3.433286e+01
6.853587e+02	-3.438137e+01
6.893173e+02	-3.443490e+01
6.932988e+02	-3.447547e+01
6.973033e+02	-3.452730e+01
7.013309e+02	-3.458314e+01
