Frequency(Hz)	Magnitude(dB)
1.000000e+01	-2.092661e+00
1.005776e+01	-2.111524e+00
1.011585e+01	-2.131274e+00
1.017428e+01	-2.150831e+00
1.023305e+01	-2.170275e+00
1.029215e+01	-2.190002e+00
1.035160e+01	-2.209787e+00
1.041139e+01	-2.229773e+00
1.047153e+01	-2.250070e+00
1.053201e+01	-2.270314e+00
1.059284e+01	-2.290990e+00
1.065403e+01	-2.311560e+00
1.071556e+01	-2.332123e+00
1.077746e+01	-2.352995e+00
1.083971e+01	-2.373845e+00
1.090232e+01	-2.395075e+00
1.096529e+01	-2.416205e+00
1.102862e+01	-2.437887e+00
1.109232e+01	-2.459235e+00
1.115639e+01	-2.480920e+00
1.122083e+01	-2.502884e+00
1.128564e+01	-2.525074e+00
1.135083e+01	-2.547108e+00
1.141639e+01	-2.569214e+00
1.148233e+01	-2.591599e+00
1.154865e+01	-2.614185e+00
1.161536e+01	-2.636880e+00
1.168245e+01	-2.659618e+00
1.174992e+01	-2.682534e+00
1.181779e+01	-2.705821e+00
1.188605e+01	-2.729069e+00
1.195470e+01	-2.752413e+00
1.202375e+01	-2.775834e+00
1.209320e+01	-2.799707e+00
1.216305e+01	-2.823605e+00
1.223330e+01	-2.847697e+00
1.230396e+01	-2.871760e+00
1.237503e+01	-2.895944e+00
1.244651e+01	-2.920582e+00
1.251840e+01	-2.945060e+00
1.259070e+01	-2.969725e+00
1.266343e+01	-2.994339e+00
1.273657e+01	-3.019301e+00
1.281014e+01	-3.044632e+00
1.288413e+01	-3.069935e+00
1.295855e+01	-3.095486e+00
1.303339e+01	-3.120913e+00
1.310867e+01	-3.146836e+00
1.318439e+01	-3.172421e+00
1.326054e+01	-3.198450e+00
1.333713e+01	-3.224763e+00
1.341417e+01	-3.251021e+00
1.349165e+01	-3.277308e+00
1.356958e+01	-3.303648e+00
1.364795e+01	-3.330526e+00
1.372678e+01	-3.357662e+00
1.380607e+01	-3.384628e+00
1.388581e+01	-3.411848e+00
1.396602e+01	-3.438716e+00
1.404668e+01	-3.466558e+00
1.412782e+01	-3.494035e+00
1.420942e+01	-3.521666e+00
1.429149e+01	-3.549704e+00
1.437404e+01	-3.577569e+00
1.445706e+01	-3.605647e+00
1.454057e+01	-3.634061e+00
1.462455e+01	-3.662480e+00
1.470902e+01	-3.691102e+00
1.479398e+01	-3.719627e+00
1.487943e+01	-3.748552e+00
1.496537e+01	-3.777612e+00
1.505181e+01	-3.807025e+00
1.513875e+01	-3.836172e+00
1.522619e+01	-3.865359e+00
1.531414e+01	-3.894870e+00
1.540259e+01	-3.924574e+00
1.549156e+01	-3.954370e+00
1.558103e+01	-3.984326e+00
1.567103e+01	-4.014376e+00
1.576155e+01	-4.044982e+00
1.585258e+01	-4.075308e+00
1.594415e+01	-4.105750e+00
1.603624e+01	-4.136602e+00
1.612886e+01	-4.167104e+00
1.622202e+01	-4.197966e+00
1.631572e+01	-4.228979e+00
1.640996e+01	-4.260447e+00
1.650474e+01	-4.291532e+00
1.660008e+01	-4.323100e+00
1.669596e+01	-4.354846e+00
1.679239e+01	-4.386336e+00
1.688938e+01	-4.418325e+00
1.698694e+01	-4.450191e+00
1.708505e+01	-4.482695e+00
1.718373e+01	-4.514682e+00
1.728299e+01	-4.547217e+00
1.738281e+01	-4.579808e+00
1.748322e+01	-4.612416e+00
1.758420e+01	-4.645270e+00
1.768576e+01	-4.678206e+00
1.778792e+01	-4.711140e+00
1.789066e+01	-4.744349e+00
1.799399e+01	-4.777601e+00
1.809793e+01	-4.810984e+00
1.820246e+01	-4.844468e+00
1.830760e+01	-4.878373e+00
1.841334e+01	-4.912171e+00
1.851969e+01	-4.946031e+00
1.862666e+01	-4.980253e+00
1.873425e+01	-5.014392e+00
1.884246e+01	-5.049044e+00
1.895129e+01	-5.083028e+00
1.906075e+01	-5.117286e+00
1.917085e+01	-5.152441e+00
1.928158e+01	-5.187305e+00
1.939295e+01	-5.222137e+00
1.950496e+01	-5.257421e+00
1.961762e+01	-5.292402e+00
1.973093e+01	-5.327671e+00
1.984490e+01	-5.363151e+00
1.995952e+01	-5.398637e+00
2.007480e+01	-5.434441e+00
2.019076e+01	-5.469853e+00
2.030738e+01	-5.505994e+00
2.042467e+01	-5.541881e+00
2.054264e+01	-5.577901e+00
2.066130e+01	-5.614107e+00
2.078064e+01	-5.650461e+00
2.090066e+01	-5.686847e+00
2.102139e+01	-5.723829e+00
2.114280e+01	-5.760492e+00
2.126492e+01	-5.797327e+00
2.138775e+01	-5.833944e+00
2.151128e+01	-5.870903e+00
2.163553e+01	-5.908664e+00
2.176050e+01	-5.945673e+00
2.188619e+01	-5.982975e+00
2.201260e+01	-6.020233e+00
2.213974e+01	-6.057896e+00
2.226762e+01	-6.095774e+00
2.239624e+01	-6.133461e+00
2.252560e+01	-6.171276e+00
2.265571e+01	-6.209434e+00
2.278656e+01	-6.247312e+00
2.291818e+01	-6.285453e+00
2.305055e+01	-6.323294e+00
2.318369e+01	-6.362319e+00
2.331760e+01	-6.400802e+00
2.345228e+01	-6.439484e+00
2.358774e+01	-6.477934e+00
2.372398e+01	-6.516648e+00
2.386101e+01	-6.555914e+00
2.399883e+01	-6.594943e+00
2.413745e+01	-6.634484e+00
2.427686e+01	-6.672918e+00
2.441709e+01	-6.712596e+00
2.455812e+01	-6.751988e+00
2.469997e+01	-6.791051e+00
2.484263e+01	-6.831263e+00
2.498612e+01	-6.870761e+00
2.513044e+01	-6.910798e+00
2.527559e+01	-6.950781e+00
2.542158e+01	-6.990162e+00
2.556842e+01	-7.030644e+00
2.571610e+01	-7.070679e+00
2.586463e+01	-7.110789e+00
2.601403e+01	-7.151050e+00
2.616428e+01	-7.191783e+00
2.631541e+01	-7.232294e+00
2.646740e+01	-7.272811e+00
2.662028e+01	-7.313472e+00
2.677404e+01	-7.354685e+00
2.692868e+01	-7.395608e+00
2.708422e+01	-7.435947e+00
2.724066e+01	-7.477468e+00
2.739800e+01	-7.518211e+00
2.755625e+01	-7.559548e+00
2.771541e+01	-7.600620e+00
2.787550e+01	-7.642257e+00
2.803650e+01	-7.683316e+00
2.819844e+01	-7.725308e+00
2.836131e+01	-7.766747e+00
2.852513e+01	-7.808088e+00
2.868989e+01	-7.850219e+00
2.885560e+01	-7.892052e+00
2.902227e+01	-7.933626e+00
2.918990e+01	-7.975790e+00
2.935850e+01	-8.018259e+00
2.952807e+01	-8.060008e+00
2.969863e+01	-8.102610e+00
2.987016e+01	-8.144955e+00
3.004269e+01	-8.187244e+00
3.021622e+01	-8.229372e+00
3.039075e+01	-8.272512e+00
3.056628e+01	-8.314893e+00
3.074283e+01	-8.357743e+00
3.092040e+01	-8.400242e+00
3.109900e+01	-8.443251e+00
3.127862e+01	-8.486223e+00
3.145929e+01	-8.528833e+00
3.164099e+01	-8.572474e+00
3.182375e+01	-8.615466e+00
3.200756e+01	-8.658179e+00
3.219244e+01	-8.701592e+00
3.237838e+01	-8.744777e+00
3.256540e+01	-8.788203e+00
3.275349e+01	-8.831487e+00
3.294268e+01	-8.875318e+00
3.313295e+01	-8.919318e+00
3.332433e+01	-8.962393e+00
3.351681e+01	-9.006266e+00
3.371040e+01	-9.050018e+00
3.390511e+01	-9.093684e+00
3.410094e+01	-9.138184e+00
3.429791e+01	-9.181420e+00
3.449601e+01	-9.225677e+00
3.469526e+01	-9.269789e+00
3.489566e+01	-9.314076e+00
3.509721e+01	-9.358122e+00
3.529993e+01	-9.402471e+00
3.550382e+01	-9.446590e+00
3.570889e+01	-9.490657e+00
3.591515e+01	-9.535502e+00
3.612259e+01	-9.579894e+00
3.633123e+01	-9.623910e+00
3.654108e+01	-9.669125e+00
3.675214e+01	-9.713653e+00
3.696442e+01	-9.758619e+00
3.717792e+01	-9.803474e+00
3.739266e+01	-9.848577e+00
3.760864e+01	-9.893052e+00
3.782587e+01	-9.937885e+00
3.804435e+01	-9.982743e+00
3.826409e+01	-1.002815e+01
3.848510e+01	-1.007269e+01
3.870739e+01	-1.011826e+01
3.893096e+01	-1.016303e+01
3.915583e+01	-1.020816e+01
3.938199e+01	-1.025332e+01
3.960946e+01	-1.029953e+01
3.983824e+01	-1.034448e+01
4.006834e+01	-1.038971e+01
4.029978e+01	-1.043538e+01
4.053255e+01	-1.048088e+01
4.076666e+01	-1.052647e+01
4.100213e+01	-1.057218e+01
4.123896e+01	-1.061748e+01
4.147715e+01	-1.066391e+01
4.171672e+01	-1.070966e+01
4.195767e+01	-1.075493e+01
4.220002e+01	-1.080119e+01
4.244377e+01	-1.084679e+01
4.268892e+01	-1.089209e+01
4.293549e+01	-1.093882e+01
4.318348e+01	-1.098509e+01
4.343291e+01	-1.103083e+01
4.368377e+01	-1.107621e+01
4.393609e+01	-1.112345e+01
4.418986e+01	-1.116874e+01
4.444510e+01	-1.121571e+01
4.470182e+01	-1.126120e+01
4.496001e+01	-1.130804e+01
4.521970e+01	-1.135353e+01
4.548089e+01	-1.139999e+01
4.574358e+01	-1.144724e+01
4.600779e+01	-1.149346e+01
4.627353e+01	-1.154024e+01
4.654081e+01	-1.158667e+01
4.680963e+01	-1.163328e+01
4.708000e+01	-1.167976e+01
4.735193e+01	-1.172613e+01
4.762543e+01	-1.177296e+01
4.790051e+01	-1.181935e+01
4.817719e+01	-1.186585e+01
4.845545e+01	-1.191310e+01
4.873533e+01	-1.196069e+01
4.901682e+01	-1.200680e+01
4.929994e+01	-1.205402e+01
4.958470e+01	-1.210059e+01
4.987110e+01	-1.214813e+01
5.015915e+01	-1.219473e+01
5.044887e+01	-1.224160e+01
5.074026e+01	-1.228905e+01
5.103333e+01	-1.233584e+01
5.132810e+01	-1.238296e+01
5.162457e+01	-1.243044e+01
5.192275e+01	-1.247703e+01
5.222265e+01	-1.252492e+01
5.252429e+01	-1.257210e+01
5.282767e+01	-1.261808e+01
5.313280e+01	-1.266614e+01
5.343969e+01	-1.271383e+01
5.374836e+01	-1.276089e+01
5.405880e+01	-1.280849e+01
5.437105e+01	-1.285678e+01
5.468509e+01	-1.290330e+01
5.500095e+01	-1.295118e+01
5.531863e+01	-1.299849e+01
5.563815e+01	-1.304612e+01
5.595951e+01	-1.309357e+01
5.628273e+01	-1.314020e+01
5.660782e+01	-1.318900e+01
5.693479e+01	-1.323683e+01
5.726364e+01	-1.328404e+01
5.759439e+01	-1.333255e+01
5.792705e+01	-1.337983e+01
5.826164e+01	-1.342716e+01
5.859815e+01	-1.347512e+01
5.893662e+01	-1.352269e+01
5.927703e+01	-1.357042e+01
5.961941e+01	-1.361860e+01
5.996377e+01	-1.366657e+01
6.031012e+01	-1.371388e+01
6.065847e+01	-1.376271e+01
6.100883e+01	-1.380981e+01
6.136121e+01	-1.385825e+01
6.171563e+01	-1.390599e+01
6.207210e+01	-1.395328e+01
6.243063e+01	-1.400129e+01
6.279122e+01	-1.404995e+01
6.315390e+01	-1.409863e+01
6.351868e+01	-1.414695e+01
6.388556e+01	-1.419434e+01
6.425456e+01	-1.424240e+01
6.462569e+01	-1.429022e+01
6.499897e+01	-1.433834e+01
6.537440e+01	-1.438674e+01
6.575200e+01	-1.443537e+01
6.613178e+01	-1.448386e+01
6.651375e+01	-1.453129e+01
6.689793e+01	-1.457945e+01
6.728433e+01	-1.462758e+01
6.767297e+01	-1.467647e+01
6.806384e+01	-1.472496e+01
6.845698e+01	-1.477336e+01
6.885238e+01	-1.482071e+01
6.925007e+01	-1.486999e+01
6.965005e+01	-1.491871e+01
7.005235e+01	-1.496707e+01
7.045697e+01	-1.501543e+01
7.086393e+01	-1.506380e+01
7.127323e+01	-1.511197e+01
7.168490e+01	-1.516009e+01
7.209895e+01	-1.520918e+01
7.251539e+01	-1.525694e+01
7.293424e+01	-1.530602e+01
7.335551e+01	-1.535517e+01
7.377920e+01	-1.540379e+01
7.420535e+01	-1.545249e+01
7.463396e+01	-1.550073e+01
7.506504e+01	-1.554920e+01
7.549861e+01	-1.559829e+01
7.593469e+01	-1.564747e+01
7.637328e+01	-1.569548e+01
7.681441e+01	-1.574329e+01
7.725809e+01	-1.579258e+01
7.770433e+01	-1.584103e+01
7.815315e+01	-1.588936e+01
7.860456e+01	-1.593781e+01
7.905857e+01	-1.598731e+01
7.951521e+01	-1.603692e+01
7.997449e+01	-1.608596e+01
8.043642e+01	-1.613275e+01
8.090102e+01	-1.618329e+01
8.136830e+01	-1.623180e+01
8.183828e+01	-1.628017e+01
8.231097e+01	-1.632896e+01
8.278640e+01	-1.637908e+01
8.326457e+01	-1.642781e+01
8.374550e+01	-1.647651e+01
8.422921e+01	-1.652458e+01
8.471572e+01	-1.657256e+01
8.520503e+01	-1.662344e+01
8.569717e+01	-1.667282e+01
8.619215e+01	-1.672060e+01
8.669000e+01	-1.676986e+01
8.719071e+01	-1.681859e+01
8.769432e+01	-1.686637e+01
8.820084e+01	-1.691775e+01
8.871029e+01	-1.696546e+01
8.922267e+01	-1.701443e+01
8.973802e+01	-1.706434e+01
9.025634e+01	-1.711228e+01
9.077766e+01	-1.716055e+01
9.130199e+01	-1.721097e+01
9.182935e+01	-1.726040e+01
9.235975e+01	-1.730784e+01
9.289321e+01	-1.735883e+01
9.342976e+01	-1.740691e+01
9.396941e+01	-1.745609e+01
9.451217e+01	-1.750619e+01
9.505807e+01	-1.755467e+01
9.560712e+01	-1.760339e+01
9.615934e+01	-1.765248e+01
9.671476e+01	-1.770126e+01
9.727338e+01	-1.775083e+01
9.783522e+01	-1.780029e+01
9.840032e+01	-1.784975e+01
9.896867e+01	-1.789913e+01
9.954031e+01	-1.794852e+01
1.001153e+02	-1.799870e+01
1.006935e+02	-1.804679e+01
1.012751e+02	-1.809532e+01
1.018601e+02	-1.814511e+01
1.024484e+02	-1.819474e+01
1.030402e+02	-1.824369e+01
1.036353e+02	-1.829316e+01
1.042339e+02	-1.834426e+01
1.048360e+02	-1.839034e+01
1.054415e+02	-1.844164e+01
1.060505e+02	-1.849120e+01
1.066631e+02	-1.854047e+01
1.072791e+02	-1.858925e+01
1.078988e+02	-1.863871e+01
1.085220e+02	-1.868661e+01
1.091488e+02	-1.873645e+01
1.097793e+02	-1.878590e+01
1.104133e+02	-1.883713e+01
1.110511e+02	-1.888605e+01
1.116925e+02	-1.893506e+01
1.123376e+02	-1.898353e+01
1.129865e+02	-1.903350e+01
1.136391e+02	-1.908189e+01
1.142955e+02	-1.913274e+01
1.149556e+02	-1.918188e+01
1.156196e+02	-1.923106e+01
1.162874e+02	-1.928148e+01
1.169591e+02	-1.932927e+01
1.176347e+02	-1.937997e+01
1.183141e+02	-1.943000e+01
1.189975e+02	-1.947914e+01
1.196848e+02	-1.952774e+01
1.203761e+02	-1.957804e+01
1.210714e+02	-1.962617e+01
1.217707e+02	-1.967516e+01
1.224740e+02	-1.972483e+01
1.231814e+02	-1.977712e+01
1.238929e+02	-1.982504e+01
1.246085e+02	-1.987388e+01
1.253283e+02	-1.992212e+01
1.260522e+02	-1.997281e+01
1.267802e+02	-2.002405e+01
1.275125e+02	-2.007324e+01
1.282490e+02	-2.012105e+01
1.289898e+02	-2.017075e+01
1.297348e+02	-2.022178e+01
1.304842e+02	-2.026933e+01
1.312378e+02	-2.032017e+01
1.319959e+02	-2.037116e+01
1.327583e+02	-2.041873e+01
1.335251e+02	-2.047039e+01
1.342963e+02	-2.051963e+01
1.350720e+02	-2.056846e+01
1.358522e+02	-2.061659e+01
1.366368e+02	-2.066737e+01
1.374260e+02	-2.071633e+01
1.382198e+02	-2.076597e+01
1.390182e+02	-2.081552e+01
1.398211e+02	-2.086598e+01
1.406287e+02	-2.091717e+01
1.414410e+02	-2.096655e+01
1.422579e+02	-2.101578e+01
1.430796e+02	-2.106503e+01
1.439060e+02	-2.111289e+01
1.447372e+02	-2.116323e+01
1.455732e+02	-2.121322e+01
1.464141e+02	-2.126491e+01
1.472597e+02	-2.131365e+01
1.481103e+02	-2.136350e+01
1.489658e+02	-2.140950e+01
1.498262e+02	-2.146137e+01
1.506916e+02	-2.151106e+01
1.515620e+02	-2.156127e+01
1.524374e+02	-2.160990e+01
1.533179e+02	-2.165885e+01
1.542034e+02	-2.171128e+01
1.550941e+02	-2.175861e+01
1.559899e+02	-2.181104e+01
1.568909e+02	-2.185924e+01
1.577971e+02	-2.190726e+01
1.587085e+02	-2.195917e+01
1.596252e+02	-2.200780e+01
1.605472e+02	-2.205732e+01
1.614745e+02	-2.210717e+01
1.624072e+02	-2.215828e+01
1.633453e+02	-2.220756e+01
1.642887e+02	-2.225826e+01
1.652377e+02	-2.230712e+01
1.661921e+02	-2.235588e+01
1.671520e+02	-2.240537e+01
1.681175e+02	-2.245624e+01
1.690885e+02	-2.250589e+01
1.700651e+02	-2.255498e+01
1.710474e+02	-2.260287e+01
1.720354e+02	-2.265298e+01
1.730291e+02	-2.270605e+01
1.740285e+02	-2.275790e+01
1.750337e+02	-2.280447e+01
1.760446e+02	-2.285684e+01
1.770615e+02	-2.290377e+01
1.780842e+02	-2.295569e+01
1.791128e+02	-2.300358e+01
1.801473e+02	-2.305624e+01
1.811878e+02	-2.310251e+01
1.822344e+02	-2.315215e+01
1.832870e+02	-2.320235e+01
1.843456e+02	-2.325324e+01
1.854104e+02	-2.330110e+01
1.864813e+02	-2.335459e+01
1.875584e+02	-2.340371e+01
1.886418e+02	-2.345114e+01
1.897313e+02	-2.350236e+01
1.908272e+02	-2.355097e+01
1.919294e+02	-2.359913e+01
1.930380e+02	-2.365445e+01
1.941530e+02	-2.369980e+01
1.952744e+02	-2.375201e+01
1.964023e+02	-2.380060e+01
1.975367e+02	-2.384856e+01
1.986777e+02	-2.389928e+01
1.998252e+02	-2.394991e+01
2.009794e+02	-2.400085e+01
2.021403e+02	-2.404971e+01
2.033078e+02	-2.410164e+01
2.044821e+02	-2.415034e+01
2.056632e+02	-2.419858e+01
2.068511e+02	-2.425153e+01
2.080459e+02	-2.430109e+01
2.092475e+02	-2.435066e+01
2.104561e+02	-2.440017e+01
2.116717e+02	-2.445210e+01
2.128943e+02	-2.450018e+01
2.141240e+02	-2.455163e+01
2.153608e+02	-2.459950e+01
2.166047e+02	-2.464827e+01
2.178558e+02	-2.469849e+01
2.191141e+02	-2.474674e+01
2.203797e+02	-2.480006e+01
2.216526e+02	-2.484728e+01
2.229329e+02	-2.489699e+01
2.242205e+02	-2.494796e+01
2.255156e+02	-2.499850e+01
2.268182e+02	-2.504814e+01
2.281283e+02	-2.509815e+01
2.294459e+02	-2.514986e+01
2.307712e+02	-2.519844e+01
2.321041e+02	-2.524788e+01
2.334447e+02	-2.529910e+01
2.347931e+02	-2.534729e+01
2.361493e+02	-2.539867e+01
2.375133e+02	-2.544708e+01
2.388851e+02	-2.549853e+01
2.402649e+02	-2.554749e+01
2.416527e+02	-2.559324e+01
2.430484e+02	-2.564417e+01
2.444523e+02	-2.569687e+01
2.458642e+02	-2.574498e+01
2.472843e+02	-2.579317e+01
2.487126e+02	-2.584880e+01
2.501492e+02	-2.589789e+01
2.515940e+02	-2.594907e+01
2.530472e+02	-2.599608e+01
2.545088e+02	-2.604698e+01
2.559789e+02	-2.609464e+01
2.574574e+02	-2.614828e+01
2.589444e+02	-2.619606e+01
2.604401e+02	-2.624971e+01
2.619444e+02	-2.629676e+01
2.634574e+02	-2.634759e+01
2.649791e+02	-2.639548e+01
2.665096e+02	-2.644745e+01
2.680489e+02	-2.649585e+01
2.695972e+02	-2.654481e+01
2.711544e+02	-2.659716e+01
2.727205e+02	-2.664712e+01
2.742958e+02	-2.669522e+01
2.758801e+02	-2.674483e+01
2.774736e+02	-2.679579e+01
2.790762e+02	-2.684641e+01
2.806882e+02	-2.689640e+01
2.823094e+02	-2.694681e+01
2.839400e+02	-2.699763e+01
2.855800e+02	-2.704512e+01
2.872295e+02	-2.709823e+01
2.888886e+02	-2.714409e+01
2.905572e+02	-2.719642e+01
2.922354e+02	-2.724521e+01
2.939234e+02	-2.729573e+01
2.956211e+02	-2.734487e+01
2.973286e+02	-2.739295e+01
2.990459e+02	-2.744794e+01
3.007732e+02	-2.749527e+01
3.025104e+02	-2.754782e+01
3.042577e+02	-2.759247e+01
3.060151e+02	-2.764820e+01
3.077826e+02	-2.769558e+01
3.095604e+02	-2.774828e+01
3.113484e+02	-2.779511e+01
3.131467e+02	-2.784935e+01
3.149554e+02	-2.789408e+01
3.167746e+02	-2.794672e+01
3.186043e+02	-2.799673e+01
3.204445e+02	-2.804755e+01
3.222954e+02	-2.809911e+01
3.241570e+02	-2.814903e+01
3.260293e+02	-2.819624e+01
3.279124e+02	-2.824607e+01
3.298064e+02	-2.829281e+01
3.317114e+02	-2.834451e+01
3.336273e+02	-2.839602e+01
3.355544e+02	-2.844773e+01
3.374925e+02	-2.849292e+01
3.394418e+02	-2.854968e+01
3.414024e+02	-2.859367e+01
3.433744e+02	-2.864551e+01
3.453577e+02	-2.869876e+01
3.473525e+02	-2.874809e+01
3.493588e+02	-2.879886e+01
3.513766e+02	-2.884404e+01
3.534062e+02	-2.889686e+01
3.554474e+02	-2.894102e+01
3.575005e+02	-2.899281e+01
3.595654e+02	-2.904321e+01
3.616422e+02	-2.909696e+01
3.637311e+02	-2.914709e+01
3.658320e+02	-2.919358e+01
3.679450e+02	-2.924762e+01
3.700702e+02	-2.929351e+01
3.722077e+02	-2.934853e+01
3.743576e+02	-2.939503e+01
3.765199e+02	-2.944984e+01
3.786946e+02	-2.949401e+01
3.808820e+02	-2.954526e+01
3.830819e+02	-2.959807e+01
3.852946e+02	-2.964738e+01
3.875200e+02	-2.969555e+01
3.897583e+02	-2.974789e+01
3.920096e+02	-2.979418e+01
3.942738e+02	-2.985178e+01
3.965511e+02	-2.989497e+01
3.988416e+02	-2.994704e+01
4.011452e+02	-2.999910e+01
4.034622e+02	-3.004732e+01
4.057926e+02	-3.009779e+01
4.081365e+02	-3.014821e+01
4.104938e+02	-3.019788e+01
4.128648e+02	-3.025297e+01
4.152495e+02	-3.029881e+01
4.176480e+02	-3.034600e+01
4.200603e+02	-3.040070e+01
4.224866e+02	-3.045264e+01
4.249268e+02	-3.049487e+01
4.273812e+02	-3.055000e+01
4.298497e+02	-3.059955e+01
4.323325e+02	-3.064957e+01
4.348297e+02	-3.070366e+01
4.373412e+02	-3.074930e+01
4.398673e+02	-3.079664e+01
4.424079e+02	-3.085333e+01
4.449633e+02	-3.089919e+01
4.475334e+02	-3.095592e+01
4.501183e+02	-3.100424e+01
4.527182e+02	-3.105304e+01
4.553330e+02	-3.110484e+01
4.579630e+02	-3.114544e+01
4.606082e+02	-3.119582e+01
4.632687e+02	-3.126005e+01
4.659445e+02	-3.130071e+01
4.686358e+02	-3.135053e+01
4.713426e+02	-3.140330e+01
4.740650e+02	-3.145602e+01
4.768032e+02	-3.150522e+01
4.795572e+02	-3.154912e+01
4.823271e+02	-3.159952e+01
4.851130e+02	-3.164932e+01
4.879150e+02	-3.170217e+01
4.907332e+02	-3.175379e+01
4.935676e+02	-3.180592e+01
4.964185e+02	-3.185460e+01
4.992858e+02	-3.190642e+01
5.021696e+02	-3.195166e+01
5.050701e+02	-3.200067e+01
5.079874e+02	-3.204922e+01
5.109215e+02	-3.210993e+01
5.138726e+02	-3.215139e+01
5.168407e+02	-3.220713e+01
5.198259e+02	-3.225231e+01
5.228284e+02	-3.229910e+01
5.258482e+02	-3.235493e+01
5.288855e+02	-3.240724e+01
5.319403e+02	-3.245785e+01
5.350128e+02	-3.251299e+01
5.381030e+02	-3.255192e+01
5.412111e+02	-3.260617e+01
5.443371e+02	-3.265500e+01
5.474812e+02	-3.270145e+01
5.506434e+02	-3.275129e+01
5.538239e+02	-3.281006e+01
5.570228e+02	-3.285392e+01
5.602401e+02	-3.290186e+01
5.634760e+02	-3.296128e+01
5.667306e+02	-3.301019e+01
5.700040e+02	-3.305923e+01
5.732964e+02	-3.310955e+01
5.766077e+02	-3.315875e+01
5.799382e+02	-3.320608e+01
5.832879e+02	-3.326317e+01
5.866569e+02	-3.330673e+01
5.900454e+02	-3.336298e+01
5.934535e+02	-3.340842e+01
5.968813e+02	-3.346193e+01
6.003288e+02	-3.351611e+01
6.037963e+02	-3.356035e+01
6.072838e+02	-3.361086e+01
6.107914e+02	-3.366326e+01
6.143194e+02	-3.371721e+01
6.178676e+02	-3.376369e+01
6.214364e+02	-3.380075e+01
6.250258e+02	-3.386359e+01
6.286359e+02	-3.391238e+01
6.322669e+02	-3.396000e+01
6.359189e+02	-3.401245e+01
6.395919e+02	-3.406503e+01
6.432862e+02	-3.411485e+01
6.470017e+02	-3.416730e+01
6.507388e+02	-3.421851e+01
6.544974e+02	-3.425346e+01
6.582778e+02	-3.431171e+01
6.620800e+02	-3.437298e+01
6.659041e+02	-3.441380e+01
6.697504e+02	-3.446984e+01
6.736188e+02	-3.452059e+01
6.775096e+02	-3.457110e+01
6.814229e+02	-3.460987e+01
6.853587e+02	-3.466937e+01
6.893173e+02	-3.471973e+01
6.932988e+02	-3.477561e+01
6.973033e+02	-3.481289e+01
7.013309e+02	-3.486218e+01
