Frequency(Hz)	Magnitude(dB)
1.000000e+01	-2.241571e+00
1.005776e+01	-2.261901e+00
1.011585e+01	-2.282064e+00
1.017428e+01	-2.302777e+00
1.023305e+01	-2.323338e+00
1.029215e+01	-2.344003e+00
1.035160e+01	-2.365052e+00
1.041139e+01	-2.386133e+00
1.047153e+01	-2.407276e+00
1.053201e+01	-2.428784e+00
1.059284e+01	-2.450190e+00
1.065403e+01	-2.472038e+00
1.071556e+01	-2.493738e+00
1.077746e+01	-2.515583e+00
1.083971e+01	-2.537723e+00
1.090232e+01	-2.559887e+00
1.096529e+01	-2.582054e+00
1.102862e+01	-2.604722e+00
1.109232e+01	-2.627255e+00
1.115639e+01	-2.650402e+00
1.122083e+01	-2.672789e+00
1.128564e+01	-2.696288e+00
1.135083e+01	-2.719280e+00
1.141639e+01	-2.742629e+00
1.148233e+01	-2.766076e+00
1.154865e+01	-2.789684e+00
1.161536e+01	-2.813575e+00
1.168245e+01	-2.837667e+00
1.174992e+01	-2.861495e+00
1.181779e+01	-2.885720e+00
1.188605e+01	-2.910290e+00
1.195470e+01	-2.934641e+00
1.202375e+01	-2.959317e+00
1.209320e+01	-2.984181e+00
1.216305e+01	-3.008983e+00
1.223330e+01	-3.033969e+00
1.230396e+01	-3.059249e+00
1.237503e+01	-3.084718e+00
1.244651e+01	-3.110295e+00
1.251840e+01	-3.136014e+00
1.259070e+01	-3.161590e+00
1.266343e+01	-3.187416e+00
1.273657e+01	-3.213813e+00
1.281014e+01	-3.239926e+00
1.288413e+01	-3.266390e+00
1.295855e+01	-3.292755e+00
1.303339e+01	-3.319500e+00
1.310867e+01	-3.346076e+00
1.318439e+01	-3.372961e+00
1.326054e+01	-3.400362e+00
1.333713e+01	-3.427426e+00
1.341417e+01	-3.454701e+00
1.349165e+01	-3.482268e+00
1.356958e+01	-3.510002e+00
1.364795e+01	-3.538138e+00
1.372678e+01	-3.565936e+00
1.380607e+01	-3.594051e+00
1.388581e+01	-3.622300e+00
1.396602e+01	-3.650630e+00
1.404668e+01	-3.678965e+00
1.412782e+01	-3.707557e+00
1.420942e+01	-3.736435e+00
1.429149e+01	-3.765321e+00
1.437404e+01	-3.794534e+00
1.445706e+01	-3.823793e+00
1.454057e+01	-3.853052e+00
1.462455e+01	-3.882367e+00
1.470902e+01	-3.912136e+00
1.479398e+01	-3.941924e+00
1.487943e+01	-3.971630e+00
1.496537e+01	-4.002182e+00
1.505181e+01	-4.032239e+00
1.513875e+01	-4.062303e+00
1.522619e+01	-4.093046e+00
1.531414e+01	-4.123831e+00
1.540259e+01	-4.154123e+00
1.549156e+01	-4.185162e+00
1.558103e+01	-4.216157e+00
1.567103e+01	-4.247385e+00
1.576155e+01	-4.278642e+00
1.585258e+01	-4.310078e+00
1.594415e+01	-4.341428e+00
1.603624e+01	-4.373296e+00
1.612886e+01	-4.405034e+00
1.622202e+01	-4.436927e+00
1.631572e+01	-4.468775e+00
1.640996e+01	-4.501328e+00
1.650474e+01	-4.533509e+00
1.660008e+01	-4.566105e+00
1.669596e+01	-4.598504e+00
1.679239e+01	-4.631427e+00
1.688938e+01	-4.664298e+00
1.698694e+01	-4.697260e+00
1.708505e+01	-4.730318e+00
1.718373e+01	-4.763634e+00
1.728299e+01	-4.797258e+00
1.738281e+01	-4.830368e+00
1.748322e+01	-4.864183e+00
1.758420e+01	-4.897860e+00
1.768576e+01	-4.931575e+00
1.778792e+01	-4.965881e+00
1.789066e+01	-5.000167e+00
1.799399e+01	-5.034332e+00
1.809793e+01	-5.068862e+00
1.820246e+01	-5.103160e+00
1.830760e+01	-5.138015e+00
1.841334e+01	-5.172593e+00
1.851969e+01	-5.207429e+00
1.862666e+01	-5.242473e+00
1.873425e+01	-5.277717e+00
1.884246e+01	-5.312811e+00
1.895129e+01	-5.348108e+00
1.906075e+01	-5.383519e+00
1.917085e+01	-5.419460e+00
1.928158e+01	-5.454969e+00
1.939295e+01	-5.491133e+00
1.950496e+01	-5.526960e+00
1.961762e+01	-5.563231e+00
1.973093e+01	-5.598808e+00
1.984490e+01	-5.635441e+00
1.995952e+01	-5.671922e+00
2.007480e+01	-5.708365e+00
2.019076e+01	-5.745257e+00
2.030738e+01	-5.781806e+00
2.042467e+01	-5.818809e+00
2.054264e+01	-5.855525e+00
2.066130e+01	-5.892590e+00
2.078064e+01	-5.929513e+00
2.090066e+01	-5.967070e+00
2.102139e+01	-6.004404e+00
2.114280e+01	-6.041968e+00
2.126492e+01	-6.080021e+00
2.138775e+01	-6.117702e+00
2.151128e+01	-6.155495e+00
2.163553e+01	-6.193515e+00
2.176050e+01	-6.231323e+00
2.188619e+01	-6.269223e+00
2.201260e+01	-6.307956e+00
2.213974e+01	-6.346187e+00
2.226762e+01	-6.384806e+00
2.239624e+01	-6.423654e+00
2.252560e+01	-6.461940e+00
2.265571e+01	-6.500704e+00
2.278656e+01	-6.539790e+00
2.291818e+01	-6.578443e+00
2.305055e+01	-6.617436e+00
2.318369e+01	-6.656616e+00
2.331760e+01	-6.695796e+00
2.345228e+01	-6.735620e+00
2.358774e+01	-6.774725e+00
2.372398e+01	-6.814370e+00
2.386101e+01	-6.854173e+00
2.399883e+01	-6.894058e+00
2.413745e+01	-6.933692e+00
2.427686e+01	-6.973813e+00
2.441709e+01	-7.013332e+00
2.455812e+01	-7.054236e+00
2.469997e+01	-7.094053e+00
2.484263e+01	-7.134164e+00
2.498612e+01	-7.175126e+00
2.513044e+01	-7.215353e+00
2.527559e+01	-7.255927e+00
2.542158e+01	-7.296510e+00
2.556842e+01	-7.336884e+00
2.571610e+01	-7.378108e+00
2.586463e+01	-7.418941e+00
2.601403e+01	-7.459739e+00
2.616428e+01	-7.500851e+00
2.631541e+01	-7.542038e+00
2.646740e+01	-7.583292e+00
2.662028e+01	-7.624717e+00
2.677404e+01	-7.665994e+00
2.692868e+01	-7.707540e+00
2.708422e+01	-7.749455e+00
2.724066e+01	-7.790823e+00
2.739800e+01	-7.832760e+00
2.755625e+01	-7.874666e+00
2.771541e+01	-7.916827e+00
2.787550e+01	-7.958599e+00
2.803650e+01	-8.000350e+00
2.819844e+01	-8.042818e+00
2.836131e+01	-8.084220e+00
2.852513e+01	-8.126705e+00
2.868989e+01	-8.169749e+00
2.885560e+01	-8.211698e+00
2.902227e+01	-8.254321e+00
2.918990e+01	-8.296847e+00
2.935850e+01	-8.339432e+00
2.952807e+01	-8.382488e+00
2.969863e+01	-8.425094e+00
2.987016e+01	-8.468192e+00
3.004269e+01	-8.510926e+00
3.021622e+01	-8.553991e+00
3.039075e+01	-8.596972e+00
3.056628e+01	-8.639838e+00
3.074283e+01	-8.683443e+00
3.092040e+01	-8.726769e+00
3.109900e+01	-8.770085e+00
3.127862e+01	-8.813237e+00
3.145929e+01	-8.856762e+00
3.164099e+01	-8.900315e+00
3.182375e+01	-8.944323e+00
3.200756e+01	-8.987825e+00
3.219244e+01	-9.031742e+00
3.237838e+01	-9.075716e+00
3.256540e+01	-9.119206e+00
3.275349e+01	-9.163594e+00
3.294268e+01	-9.206563e+00
3.313295e+01	-9.251223e+00
3.332433e+01	-9.295618e+00
3.351681e+01	-9.338941e+00
3.371040e+01	-9.383725e+00
3.390511e+01	-9.428229e+00
3.410094e+01	-9.472255e+00
3.429791e+01	-9.516758e+00
3.449601e+01	-9.561664e+00
3.469526e+01	-9.606317e+00
3.489566e+01	-9.650338e+00
3.509721e+01	-9.694860e+00
3.529993e+01	-9.739774e+00
3.550382e+01	-9.784789e+00
3.570889e+01	-9.829516e+00
3.591515e+01	-9.873705e+00
3.612259e+01	-9.918935e+00
3.633123e+01	-9.964164e+00
3.654108e+01	-1.000864e+01
3.675214e+01	-1.005397e+01
3.696442e+01	-1.009901e+01
3.717792e+01	-1.014428e+01
3.739266e+01	-1.018945e+01
3.760864e+01	-1.023473e+01
3.782587e+01	-1.027967e+01
3.804435e+01	-1.032493e+01
3.826409e+01	-1.037072e+01
3.848510e+01	-1.041658e+01
3.870739e+01	-1.046208e+01
3.893096e+01	-1.050679e+01
3.915583e+01	-1.055270e+01
3.938199e+01	-1.059852e+01
3.960946e+01	-1.064412e+01
3.983824e+01	-1.069017e+01
4.006834e+01	-1.073612e+01
4.029978e+01	-1.078169e+01
4.053255e+01	-1.082729e+01
4.076666e+01	-1.087254e+01
4.100213e+01	-1.091960e+01
4.123896e+01	-1.096483e+01
4.147715e+01	-1.101126e+01
4.171672e+01	-1.105726e+01
4.195767e+01	-1.110328e+01
4.220002e+01	-1.114944e+01
4.244377e+01	-1.119568e+01
4.268892e+01	-1.124217e+01
4.293549e+01	-1.128829e+01
4.318348e+01	-1.133483e+01
4.343291e+01	-1.138170e+01
4.368377e+01	-1.142771e+01
4.393609e+01	-1.147368e+01
4.418986e+01	-1.152100e+01
4.444510e+01	-1.156703e+01
4.470182e+01	-1.161345e+01
4.496001e+01	-1.165998e+01
4.521970e+01	-1.170662e+01
4.548089e+01	-1.175283e+01
4.574358e+01	-1.180001e+01
4.600779e+01	-1.184674e+01
4.627353e+01	-1.189372e+01
4.654081e+01	-1.194078e+01
4.680963e+01	-1.198792e+01
4.708000e+01	-1.203391e+01
4.735193e+01	-1.208084e+01
4.762543e+01	-1.212859e+01
4.790051e+01	-1.217491e+01
4.817719e+01	-1.222200e+01
4.845545e+01	-1.226880e+01
4.873533e+01	-1.231650e+01
4.901682e+01	-1.236324e+01
4.929994e+01	-1.241087e+01
4.958470e+01	-1.245693e+01
4.987110e+01	-1.250489e+01
5.015915e+01	-1.255201e+01
5.044887e+01	-1.259877e+01
5.074026e+01	-1.264729e+01
5.103333e+01	-1.269394e+01
5.132810e+01	-1.274164e+01
5.162457e+01	-1.278858e+01
5.192275e+01	-1.283590e+01
5.222265e+01	-1.288373e+01
5.252429e+01	-1.293053e+01
5.282767e+01	-1.297811e+01
5.313280e+01	-1.302620e+01
5.343969e+01	-1.307369e+01
5.374836e+01	-1.312145e+01
5.405880e+01	-1.316936e+01
5.437105e+01	-1.321635e+01
5.468509e+01	-1.326362e+01
5.500095e+01	-1.331177e+01
5.531863e+01	-1.336018e+01
5.563815e+01	-1.340731e+01
5.595951e+01	-1.345476e+01
5.628273e+01	-1.350233e+01
5.660782e+01	-1.355052e+01
5.693479e+01	-1.359824e+01
5.726364e+01	-1.364645e+01
5.759439e+01	-1.369402e+01
5.792705e+01	-1.374229e+01
5.826164e+01	-1.378944e+01
5.859815e+01	-1.383776e+01
5.893662e+01	-1.388669e+01
5.927703e+01	-1.393399e+01
5.961941e+01	-1.398198e+01
5.996377e+01	-1.403002e+01
6.031012e+01	-1.407776e+01
6.065847e+01	-1.412639e+01
6.100883e+01	-1.417420e+01
6.136121e+01	-1.422272e+01
6.171563e+01	-1.426999e+01
6.207210e+01	-1.431863e+01
6.243063e+01	-1.436759e+01
6.279122e+01	-1.441535e+01
6.315390e+01	-1.446304e+01
6.351868e+01	-1.451183e+01
6.388556e+01	-1.455951e+01
6.425456e+01	-1.460748e+01
6.462569e+01	-1.465499e+01
6.499897e+01	-1.470387e+01
6.537440e+01	-1.475330e+01
6.575200e+01	-1.480117e+01
6.613178e+01	-1.484981e+01
6.651375e+01	-1.489728e+01
6.689793e+01	-1.494683e+01
6.728433e+01	-1.499547e+01
6.767297e+01	-1.504332e+01
6.806384e+01	-1.509206e+01
6.845698e+01	-1.513922e+01
6.885238e+01	-1.518844e+01
6.925007e+01	-1.523756e+01
6.965005e+01	-1.528544e+01
7.005235e+01	-1.533500e+01
7.045697e+01	-1.538221e+01
7.086393e+01	-1.543178e+01
7.127323e+01	-1.548028e+01
7.168490e+01	-1.552864e+01
7.209895e+01	-1.557703e+01
7.251539e+01	-1.562624e+01
7.293424e+01	-1.567486e+01
7.335551e+01	-1.572324e+01
7.377920e+01	-1.577262e+01
7.420535e+01	-1.582049e+01
7.463396e+01	-1.586913e+01
7.506504e+01	-1.591771e+01
7.549861e+01	-1.596568e+01
7.593469e+01	-1.601485e+01
7.637328e+01	-1.606531e+01
7.681441e+01	-1.611367e+01
7.725809e+01	-1.616297e+01
7.770433e+01	-1.621046e+01
7.815315e+01	-1.626026e+01
7.860456e+01	-1.630845e+01
7.905857e+01	-1.635709e+01
7.951521e+01	-1.640675e+01
7.997449e+01	-1.645503e+01
8.043642e+01	-1.650437e+01
8.090102e+01	-1.655297e+01
8.136830e+01	-1.660244e+01
8.183828e+01	-1.665098e+01
8.231097e+01	-1.669985e+01
8.278640e+01	-1.674856e+01
8.326457e+01	-1.679862e+01
8.374550e+01	-1.684707e+01
8.422921e+01	-1.689549e+01
8.471572e+01	-1.694524e+01
8.520503e+01	-1.699541e+01
8.569717e+01	-1.704223e+01
8.619215e+01	-1.709145e+01
8.669000e+01	-1.714198e+01
8.719071e+01	-1.719095e+01
8.769432e+01	-1.723866e+01
8.820084e+01	-1.728741e+01
8.871029e+01	-1.733802e+01
8.922267e+01	-1.738804e+01
8.973802e+01	-1.743458e+01
9.025634e+01	-1.748502e+01
9.077766e+01	-1.753363e+01
9.130199e+01	-1.758295e+01
9.182935e+01	-1.763313e+01
9.235975e+01	-1.768129e+01
9.289321e+01	-1.773035e+01
9.342976e+01	-1.778010e+01
9.396941e+01	-1.783034e+01
9.451217e+01	-1.787821e+01
9.505807e+01	-1.792801e+01
9.560712e+01	-1.797758e+01
9.615934e+01	-1.802634e+01
9.671476e+01	-1.807426e+01
9.727338e+01	-1.812475e+01
9.783522e+01	-1.817286e+01
9.840032e+01	-1.822280e+01
9.896867e+01	-1.827201e+01
9.954031e+01	-1.832251e+01
1.001153e+02	-1.836949e+01
1.006935e+02	-1.841846e+01
1.012751e+02	-1.846990e+01
1.018601e+02	-1.851977e+01
1.024484e+02	-1.856806e+01
1.030402e+02	-1.861723e+01
1.036353e+02	-1.866759e+01
1.042339e+02	-1.871574e+01
1.048360e+02	-1.876569e+01
1.054415e+02	-1.881372e+01
1.060505e+02	-1.886431e+01
1.066631e+02	-1.891273e+01
1.072791e+02	-1.896349e+01
1.078988e+02	-1.901273e+01
1.085220e+02	-1.906155e+01
1.091488e+02	-1.911237e+01
1.097793e+02	-1.915939e+01
1.104133e+02	-1.921048e+01
1.110511e+02	-1.925918e+01
1.116925e+02	-1.930874e+01
1.123376e+02	-1.935914e+01
1.129865e+02	-1.940931e+01
1.136391e+02	-1.945686e+01
1.142955e+02	-1.950659e+01
1.149556e+02	-1.955708e+01
1.156196e+02	-1.960702e+01
1.162874e+02	-1.965617e+01
1.169591e+02	-1.970587e+01
1.176347e+02	-1.975424e+01
1.183141e+02	-1.980410e+01
1.189975e+02	-1.985309e+01
1.196848e+02	-1.990185e+01
1.203761e+02	-1.995280e+01
1.210714e+02	-2.000289e+01
1.217707e+02	-2.005128e+01
1.224740e+02	-2.010136e+01
1.231814e+02	-2.015132e+01
1.238929e+02	-2.020162e+01
1.246085e+02	-2.025206e+01
1.253283e+02	-2.029839e+01
1.260522e+02	-2.034758e+01
1.267802e+02	-2.039722e+01
1.275125e+02	-2.044770e+01
1.282490e+02	-2.049769e+01
1.289898e+02	-2.054907e+01
1.297348e+02	-2.059933e+01
1.304842e+02	-2.064589e+01
1.312378e+02	-2.069690e+01
1.319959e+02	-2.074486e+01
1.327583e+02	-2.079389e+01
1.335251e+02	-2.084520e+01
1.342963e+02	-2.089476e+01
1.350720e+02	-2.094311e+01
1.358522e+02	-2.099491e+01
1.366368e+02	-2.104302e+01
1.374260e+02	-2.109226e+01
1.382198e+02	-2.114214e+01
1.390182e+02	-2.119183e+01
1.398211e+02	-2.124239e+01
1.406287e+02	-2.129263e+01
1.414410e+02	-2.134109e+01
1.422579e+02	-2.139243e+01
1.430796e+02	-2.144176e+01
1.439060e+02	-2.148963e+01
1.447372e+02	-2.153867e+01
1.455732e+02	-2.159049e+01
1.464141e+02	-2.163877e+01
1.472597e+02	-2.169059e+01
1.481103e+02	-2.174102e+01
1.489658e+02	-2.178913e+01
1.498262e+02	-2.183785e+01
1.506916e+02	-2.188959e+01
1.515620e+02	-2.193860e+01
1.524374e+02	-2.198830e+01
1.533179e+02	-2.203574e+01
1.542034e+02	-2.208685e+01
1.550941e+02	-2.213633e+01
1.559899e+02	-2.218870e+01
1.568909e+02	-2.223688e+01
1.577971e+02	-2.228526e+01
1.587085e+02	-2.233745e+01
1.596252e+02	-2.238496e+01
1.605472e+02	-2.243580e+01
1.614745e+02	-2.248472e+01
1.624072e+02	-2.253460e+01
1.633453e+02	-2.258350e+01
1.642887e+02	-2.263302e+01
1.652377e+02	-2.268181e+01
1.661921e+02	-2.273367e+01
1.671520e+02	-2.278428e+01
1.681175e+02	-2.283469e+01
1.690885e+02	-2.288334e+01
1.700651e+02	-2.293333e+01
1.710474e+02	-2.298370e+01
1.720354e+02	-2.303310e+01
1.730291e+02	-2.308223e+01
1.740285e+02	-2.313131e+01
1.750337e+02	-2.318280e+01
1.760446e+02	-2.322996e+01
1.770615e+02	-2.328190e+01
1.780842e+02	-2.333114e+01
1.791128e+02	-2.338205e+01
1.801473e+02	-2.343085e+01
1.811878e+02	-2.347903e+01
1.822344e+02	-2.352913e+01
1.832870e+02	-2.358113e+01
1.843456e+02	-2.363189e+01
1.854104e+02	-2.367997e+01
1.864813e+02	-2.373063e+01
1.875584e+02	-2.378041e+01
1.886418e+02	-2.383177e+01
1.897313e+02	-2.388117e+01
1.908272e+02	-2.393006e+01
1.919294e+02	-2.397827e+01
1.930380e+02	-2.402839e+01
1.941530e+02	-2.407878e+01
1.952744e+02	-2.413081e+01
1.964023e+02	-2.417851e+01
1.975367e+02	-2.422763e+01
1.986777e+02	-2.427970e+01
1.998252e+02	-2.432539e+01
2.009794e+02	-2.437717e+01
2.021403e+02	-2.442699e+01
2.033078e+02	-2.447650e+01
2.044821e+02	-2.452981e+01
2.056632e+02	-2.457826e+01
2.068511e+02	-2.462611e+01
2.080459e+02	-2.467619e+01
2.092475e+02	-2.472569e+01
2.104561e+02	-2.477832e+01
2.116717e+02	-2.483101e+01
2.128943e+02	-2.487600e+01
2.141240e+02	-2.492841e+01
2.153608e+02	-2.497694e+01
2.166047e+02	-2.502637e+01
2.178558e+02	-2.507758e+01
2.191141e+02	-2.512660e+01
2.203797e+02	-2.517731e+01
2.216526e+02	-2.522647e+01
2.229329e+02	-2.527465e+01
2.242205e+02	-2.532723e+01
2.255156e+02	-2.537703e+01
2.268182e+02	-2.542601e+01
2.281283e+02	-2.547231e+01
2.294459e+02	-2.552312e+01
2.307712e+02	-2.557448e+01
2.321041e+02	-2.562611e+01
2.334447e+02	-2.567775e+01
2.347931e+02	-2.572521e+01
2.361493e+02	-2.577483e+01
2.375133e+02	-2.582165e+01
2.388851e+02	-2.587834e+01
2.402649e+02	-2.592602e+01
2.416527e+02	-2.597330e+01
2.430484e+02	-2.602665e+01
2.444523e+02	-2.607484e+01
2.458642e+02	-2.612050e+01
2.472843e+02	-2.617418e+01
2.487126e+02	-2.622502e+01
2.501492e+02	-2.627334e+01
2.515940e+02	-2.632563e+01
2.530472e+02	-2.637402e+01
2.545088e+02	-2.642517e+01
2.559789e+02	-2.647517e+01
2.574574e+02	-2.652146e+01
2.589444e+02	-2.657498e+01
2.604401e+02	-2.662608e+01
2.619444e+02	-2.667243e+01
2.634574e+02	-2.672746e+01
2.649791e+02	-2.677654e+01
2.665096e+02	-2.682475e+01
2.680489e+02	-2.687271e+01
2.695972e+02	-2.692552e+01
2.711544e+02	-2.697157e+01
2.727205e+02	-2.702479e+01
2.742958e+02	-2.707735e+01
2.758801e+02	-2.712342e+01
2.774736e+02	-2.717648e+01
2.790762e+02	-2.722456e+01
2.806882e+02	-2.727278e+01
2.823094e+02	-2.732437e+01
2.839400e+02	-2.737329e+01
2.855800e+02	-2.742620e+01
2.872295e+02	-2.747752e+01
2.888886e+02	-2.752738e+01
2.905572e+02	-2.757781e+01
2.922354e+02	-2.762726e+01
2.939234e+02	-2.766917e+01
2.956211e+02	-2.772765e+01
2.973286e+02	-2.777324e+01
2.990459e+02	-2.782748e+01
3.007732e+02	-2.787813e+01
3.025104e+02	-2.792746e+01
3.042577e+02	-2.797377e+01
3.060151e+02	-2.802245e+01
3.077826e+02	-2.807334e+01
3.095604e+02	-2.812876e+01
3.113484e+02	-2.817757e+01
3.131467e+02	-2.822448e+01
3.149554e+02	-2.827540e+01
3.167746e+02	-2.832884e+01
3.186043e+02	-2.837886e+01
3.204445e+02	-2.842924e+01
3.222954e+02	-2.847354e+01
3.241570e+02	-2.852682e+01
3.260293e+02	-2.857572e+01
3.279124e+02	-2.862694e+01
3.298064e+02	-2.867271e+01
3.317114e+02	-2.872545e+01
3.336273e+02	-2.877518e+01
3.355544e+02	-2.882579e+01
3.374925e+02	-2.887683e+01
3.394418e+02	-2.892867e+01
3.414024e+02	-2.897766e+01
3.433744e+02	-2.902568e+01
3.453577e+02	-2.907307e+01
3.473525e+02	-2.912636e+01
3.493588e+02	-2.917621e+01
3.513766e+02	-2.922275e+01
3.534062e+02	-2.927412e+01
3.554474e+02	-2.932452e+01
3.575005e+02	-2.937742e+01
3.595654e+02	-2.942514e+01
3.616422e+02	-2.947264e+01
3.637311e+02	-2.952398e+01
3.658320e+02	-2.957832e+01
3.679450e+02	-2.962630e+01
3.700702e+02	-2.967704e+01
3.722077e+02	-2.972800e+01
3.743576e+02	-2.977579e+01
3.765199e+02	-2.982675e+01
3.786946e+02	-2.987706e+01
3.808820e+02	-2.992838e+01
3.830819e+02	-2.997840e+01
3.852946e+02	-3.002371e+01
3.875200e+02	-3.007417e+01
3.897583e+02	-3.012499e+01
3.920096e+02	-3.017264e+01
3.942738e+02	-3.023056e+01
3.965511e+02	-3.027295e+01
3.988416e+02	-3.033265e+01
4.011452e+02	-3.038158e+01
4.034622e+02	-3.042825e+01
4.057926e+02	-3.048268e+01
4.081365e+02	-3.052641e+01
4.104938e+02	-3.057660e+01
4.128648e+02	-3.062897e+01
4.152495e+02	-3.067694e+01
4.176480e+02	-3.072625e+01
4.200603e+02	-3.078139e+01
4.224866e+02	-3.082938e+01
4.249268e+02	-3.088071e+01
4.273812e+02	-3.093777e+01
4.298497e+02	-3.097847e+01
4.323325e+02	-3.102830e+01
4.348297e+02	-3.108197e+01
4.373412e+02	-3.113481e+01
4.398673e+02	-3.117907e+01
4.424079e+02	-3.123167e+01
4.449633e+02	-3.128052e+01
4.475334e+02	-3.132794e+01
4.501183e+02	-3.137701e+01
4.527182e+02	-3.143349e+01
4.553330e+02	-3.148010e+01
4.579630e+02	-3.152906e+01
4.606082e+02	-3.157661e+01
4.632687e+02	-3.163132e+01
4.659445e+02	-3.168149e+01
4.686358e+02	-3.172512e+01
4.713426e+02	-3.178354e+01
4.740650e+02	-3.183449e+01
4.768032e+02	-3.188542e+01
4.795572e+02	-3.193474e+01
4.823271e+02	-3.198356e+01
4.851130e+02	-3.203065e+01
4.879150e+02	-3.208014e+01
4.907332e+02	-3.213689e+01
4.935676e+02	-3.218316e+01
4.964185e+02	-3.222994e+01
4.992858e+02	-3.228812e+01
5.021696e+02	-3.233510e+01
5.050701e+02	-3.238114e+01
5.079874e+02	-3.242350e+01
5.109215e+02	-3.248748e+01
5.138726e+02	-3.253306e+01
5.168407e+02	-3.258595e+01
5.198259e+02	-3.263789e+01
5.228284e+02	-3.268497e+01
5.258482e+02	-3.273768e+01
5.288855e+02	-3.278889e+01
5.319403e+02	-3.284012e+01
5.350128e+02	-3.289021e+01
5.381030e+02	-3.293656e+01
5.412111e+02	-3.298483e+01
5.443371e+02	-3.303427e+01
5.474812e+02	-3.308905e+01
5.506434e+02	-3.313502e+01
5.538239e+02	-3.318977e+01
5.570228e+02	-3.324640e+01
5.602401e+02	-3.328368e+01
5.634760e+02	-3.334000e+01
5.667306e+02	-3.338859e+01
5.700040e+02	-3.343776e+01
5.732964e+02	-3.348892e+01
5.766077e+02	-3.353223e+01
5.799382e+02	-3.358646e+01
5.832879e+02	-3.364421e+01
5.866569e+02	-3.368425e+01
5.900454e+02	-3.373416e+01
5.934535e+02	-3.378730e+01
5.968813e+02	-3.383445e+01
6.003288e+02	-3.388728e+01
6.037963e+02	-3.393666e+01
6.072838e+02	-3.398879e+01
6.107914e+02	-3.404605e+01
6.143194e+02	-3.409257e+01
6.178676e+02	-3.414325e+01
6.214364e+02	-3.418955e+01
6.250258e+02	-3.424232e+01
6.286359e+02	-3.430609e+01
6.322669e+02	-3.434567e+01
6.359189e+02	-3.439394e+01
6.395919e+02	-3.443888e+01
6.432862e+02	-3.448926e+01
6.470017e+02	-3.454631e+01
6.507388e+02	-3.459653e+01
6.544974e+02	-3.464915e+01
6.582778e+02	-3.468958e+01
6.620800e+02	-3.474090e+01
6.659041e+02	-3.480237e+01
6.697504e+02	-3.484268e+01
6.736188e+02	-3.489400e+01
6.775096e+02	-3.494846e+01
6.814229e+02	-3.500426e+01
6.853587e+02	-3.505678e+01
6.893173e+02	-3.509655e+01
6.932988e+02	-3.516564e+01
6.973033e+02	-3.519558e+01
7.013309e+02	-3.525698e+01
