Frequency(Hz)	Magnitude(dB)
1.000000e+01	-1.777717e-05
1.005776e+01	-1.798312e-05
1.011585e+01	-1.819146e-05
1.017428e+01	-1.840221e-05
1.023305e+01	-1.861540e-05
1.029215e+01	-1.883107e-05
1.035160e+01	-1.904923e-05
1.041139e+01	-1.926992e-05
1.047153e+01	-1.949317e-05
1.053201e+01	-1.971900e-05
1.059284e+01	-1.994745e-05
1.065403e+01	-2.017855e-05
1.071556e+01	-2.041232e-05
1.077746e+01	-2.064880e-05
1.083971e+01	-2.088802e-05
1.090232e+01	-2.113002e-05
1.096529e+01	-2.137481e-05
1.102862e+01	-2.162245e-05
1.109232e+01	-2.187295e-05
1.115639e+01	-2.212635e-05
1.122083e+01	-2.238269e-05
1.128564e+01	-2.264200e-05
1.135083e+01	-2.290431e-05
1.141639e+01	-2.316967e-05
1.148233e+01	-2.343809e-05
1.154865e+01	-2.370963e-05
1.161536e+01	-2.398431e-05
1.168245e+01	-2.426217e-05
1.174992e+01	-2.454326e-05
1.181779e+01	-2.482760e-05
1.188605e+01	-2.511523e-05
1.195470e+01	-2.540620e-05
1.202375e+01	-2.570053e-05
1.209320e+01	-2.599828e-05
1.216305e+01	-2.629948e-05
1.223330e+01	-2.660416e-05
1.230396e+01	-2.691238e-05
1.237503e+01	-2.722417e-05
1.244651e+01	-2.753956e-05
1.251840e+01	-2.785862e-05
1.259070e+01	-2.818137e-05
1.266343e+01	-2.850785e-05
1.273657e+01	-2.883812e-05
1.281014e+01	-2.917222e-05
1.288413e+01	-2.951019e-05
1.295855e+01	-2.985207e-05
1.303339e+01	-3.019791e-05
1.310867e+01	-3.054776e-05
1.318439e+01	-3.090167e-05
1.326054e+01	-3.125967e-05
1.333713e+01	-3.162182e-05
1.341417e+01	-3.198817e-05
1.349165e+01	-3.235876e-05
1.356958e+01	-3.273364e-05
1.364795e+01	-3.311287e-05
1.372678e+01	-3.349649e-05
1.380607e+01	-3.388455e-05
1.388581e+01	-3.427711e-05
1.396602e+01	-3.467422e-05
1.404668e+01	-3.507593e-05
1.412782e+01	-3.548229e-05
1.420942e+01	-3.589336e-05
1.429149e+01	-3.630920e-05
1.437404e+01	-3.672985e-05
1.445706e+01	-3.715537e-05
1.454057e+01	-3.758583e-05
1.462455e+01	-3.802127e-05
1.470902e+01	-3.846175e-05
1.479398e+01	-3.890734e-05
1.487943e+01	-3.935809e-05
1.496537e+01	-3.981406e-05
1.505181e+01	-4.027532e-05
1.513875e+01	-4.074192e-05
1.522619e+01	-4.121392e-05
1.531414e+01	-4.169139e-05
1.540259e+01	-4.217440e-05
1.549156e+01	-4.266300e-05
1.558103e+01	-4.315726e-05
1.567103e+01	-4.365724e-05
1.576155e+01	-4.416302e-05
1.585258e+01	-4.467466e-05
1.594415e+01	-4.519223e-05
1.603624e+01	-4.571579e-05
1.612886e+01	-4.624541e-05
1.622202e+01	-4.678118e-05
1.631572e+01	-4.732315e-05
1.640996e+01	-4.787140e-05
1.650474e+01	-4.842600e-05
1.660008e+01	-4.898702e-05
1.669596e+01	-4.955455e-05
1.679239e+01	-5.012865e-05
1.688938e+01	-5.070940e-05
1.698694e+01	-5.129688e-05
1.708505e+01	-5.189116e-05
1.718373e+01	-5.249233e-05
1.728299e+01	-5.310047e-05
1.738281e+01	-5.371565e-05
1.748322e+01	-5.433795e-05
1.758420e+01	-5.496747e-05
1.768576e+01	-5.560428e-05
1.778792e+01	-5.624847e-05
1.789066e+01	-5.690012e-05
1.799399e+01	-5.755932e-05
1.809793e+01	-5.822615e-05
1.820246e+01	-5.890072e-05
1.830760e+01	-5.958309e-05
1.841334e+01	-6.027337e-05
1.851969e+01	-6.097165e-05
1.862666e+01	-6.167802e-05
1.873425e+01	-6.239257e-05
1.884246e+01	-6.311540e-05
1.895129e+01	-6.384661e-05
1.906075e+01	-6.458628e-05
1.917085e+01	-6.533453e-05
1.928158e+01	-6.609144e-05
1.939295e+01	-6.685712e-05
1.950496e+01	-6.763167e-05
1.961762e+01	-6.841520e-05
1.973093e+01	-6.920780e-05
1.984490e+01	-7.000959e-05
1.995952e+01	-7.082066e-05
2.007480e+01	-7.164113e-05
2.019076e+01	-7.247111e-05
2.030738e+01	-7.331070e-05
2.042467e+01	-7.416002e-05
2.054264e+01	-7.501918e-05
2.066130e+01	-7.588829e-05
2.078064e+01	-7.676746e-05
2.090066e+01	-7.765683e-05
2.102139e+01	-7.855650e-05
2.114280e+01	-7.946659e-05
2.126492e+01	-8.038722e-05
2.138775e+01	-8.131852e-05
2.151128e+01	-8.226061e-05
2.163553e+01	-8.321361e-05
2.176050e+01	-8.417766e-05
2.188619e+01	-8.515287e-05
2.201260e+01	-8.613938e-05
2.213974e+01	-8.713732e-05
2.226762e+01	-8.814682e-05
2.239624e+01	-8.916801e-05
2.252560e+01	-9.020104e-05
2.265571e+01	-9.124603e-05
2.278656e+01	-9.230313e-05
2.291818e+01	-9.337248e-05
2.305055e+01	-9.445421e-05
2.318369e+01	-9.554848e-05
2.331760e+01	-9.665542e-05
2.345228e+01	-9.777519e-05
2.358774e+01	-9.890793e-05
2.372398e+01	-1.000538e-04
2.386101e+01	-1.012129e-04
2.399883e+01	-1.023855e-04
2.413745e+01	-1.035716e-04
2.427686e+01	-1.047715e-04
2.441709e+01	-1.059853e-04
2.455812e+01	-1.072132e-04
2.469997e+01	-1.084553e-04
2.484263e+01	-1.097117e-04
2.498612e+01	-1.109828e-04
2.513044e+01	-1.122685e-04
2.527559e+01	-1.135692e-04
2.542158e+01	-1.148849e-04
2.556842e+01	-1.162158e-04
2.571610e+01	-1.175622e-04
2.586463e+01	-1.189242e-04
2.601403e+01	-1.203019e-04
2.616428e+01	-1.216956e-04
2.631541e+01	-1.231055e-04
2.646740e+01	-1.245317e-04
2.662028e+01	-1.259744e-04
2.677404e+01	-1.274338e-04
2.692868e+01	-1.289102e-04
2.708422e+01	-1.304036e-04
2.724066e+01	-1.319143e-04
2.739800e+01	-1.334426e-04
2.755625e+01	-1.349885e-04
2.771541e+01	-1.365524e-04
2.787550e+01	-1.381343e-04
2.803650e+01	-1.397346e-04
2.819844e+01	-1.413535e-04
2.836131e+01	-1.429911e-04
2.852513e+01	-1.446476e-04
2.868989e+01	-1.463234e-04
2.885560e+01	-1.480186e-04
2.902227e+01	-1.497334e-04
2.918990e+01	-1.514680e-04
2.935850e+01	-1.532228e-04
2.952807e+01	-1.549979e-04
2.969863e+01	-1.567936e-04
2.987016e+01	-1.586100e-04
3.004269e+01	-1.604475e-04
3.021622e+01	-1.623063e-04
3.039075e+01	-1.641867e-04
3.056628e+01	-1.660888e-04
3.074283e+01	-1.680129e-04
3.092040e+01	-1.699594e-04
3.109900e+01	-1.719284e-04
3.127862e+01	-1.739201e-04
3.145929e+01	-1.759350e-04
3.164099e+01	-1.779732e-04
3.182375e+01	-1.800351e-04
3.200756e+01	-1.821208e-04
3.219244e+01	-1.842307e-04
3.237838e+01	-1.863650e-04
3.256540e+01	-1.885240e-04
3.275349e+01	-1.907081e-04
3.294268e+01	-1.929174e-04
3.313295e+01	-1.951524e-04
3.332433e+01	-1.974132e-04
3.351681e+01	-1.997003e-04
3.371040e+01	-2.020138e-04
3.390511e+01	-2.043541e-04
3.410094e+01	-2.067216e-04
3.429791e+01	-2.091164e-04
3.449601e+01	-2.115390e-04
3.469526e+01	-2.139897e-04
3.489566e+01	-2.164688e-04
3.509721e+01	-2.189766e-04
3.529993e+01	-2.215134e-04
3.550382e+01	-2.240796e-04
3.570889e+01	-2.266756e-04
3.591515e+01	-2.293016e-04
3.612259e+01	-2.319581e-04
3.633123e+01	-2.346453e-04
3.654108e+01	-2.373637e-04
3.675214e+01	-2.401135e-04
3.696442e+01	-2.428952e-04
3.717792e+01	-2.457091e-04
3.739266e+01	-2.485557e-04
3.760864e+01	-2.514352e-04
3.782587e+01	-2.543480e-04
3.804435e+01	-2.572946e-04
3.826409e+01	-2.602754e-04
3.848510e+01	-2.632907e-04
3.870739e+01	-2.663409e-04
3.893096e+01	-2.694264e-04
3.915583e+01	-2.725477e-04
3.938199e+01	-2.757051e-04
3.960946e+01	-2.788991e-04
3.983824e+01	-2.821302e-04
4.006834e+01	-2.853986e-04
4.029978e+01	-2.887049e-04
4.053255e+01	-2.920495e-04
4.076666e+01	-2.954329e-04
4.100213e+01	-2.988554e-04
4.123896e+01	-3.023176e-04
4.147715e+01	-3.058200e-04
4.171672e+01	-3.093628e-04
4.195767e+01	-3.129468e-04
4.220002e+01	-3.165722e-04
4.244377e+01	-3.202397e-04
4.268892e+01	-3.239496e-04
4.293549e+01	-3.277025e-04
4.318348e+01	-3.314989e-04
4.343291e+01	-3.353392e-04
4.368377e+01	-3.392241e-04
4.393609e+01	-3.431539e-04
4.418986e+01	-3.471293e-04
4.444510e+01	-3.511507e-04
4.470182e+01	-3.552187e-04
4.496001e+01	-3.593339e-04
4.521970e+01	-3.634967e-04
4.548089e+01	-3.677077e-04
4.574358e+01	-3.719675e-04
4.600779e+01	-3.762767e-04
4.627353e+01	-3.806358e-04
4.654081e+01	-3.850453e-04
4.680963e+01	-3.895060e-04
4.708000e+01	-3.940183e-04
4.735193e+01	-3.985829e-04
4.762543e+01	-4.032004e-04
4.790051e+01	-4.078714e-04
4.817719e+01	-4.125964e-04
4.845545e+01	-4.173763e-04
4.873533e+01	-4.222114e-04
4.901682e+01	-4.271026e-04
4.929994e+01	-4.320505e-04
4.958470e+01	-4.370557e-04
4.987110e+01	-4.421188e-04
5.015915e+01	-4.472406e-04
5.044887e+01	-4.524218e-04
5.074026e+01	-4.576629e-04
5.103333e+01	-4.629648e-04
5.132810e+01	-4.683281e-04
5.162457e+01	-4.737535e-04
5.192275e+01	-4.792418e-04
5.222265e+01	-4.847936e-04
5.252429e+01	-4.904097e-04
5.282767e+01	-4.960909e-04
5.313280e+01	-5.018380e-04
5.343969e+01	-5.076516e-04
5.374836e+01	-5.135325e-04
5.405880e+01	-5.194816e-04
5.437105e+01	-5.254995e-04
5.468509e+01	-5.315872e-04
5.500095e+01	-5.377454e-04
5.531863e+01	-5.439750e-04
5.563815e+01	-5.502767e-04
5.595951e+01	-5.566514e-04
5.628273e+01	-5.630999e-04
5.660782e+01	-5.696231e-04
5.693479e+01	-5.762219e-04
5.726364e+01	-5.828972e-04
5.759439e+01	-5.896497e-04
5.792705e+01	-5.964805e-04
5.826164e+01	-6.033904e-04
5.859815e+01	-6.103804e-04
5.893662e+01	-6.174513e-04
5.927703e+01	-6.246041e-04
5.961941e+01	-6.318398e-04
5.996377e+01	-6.391593e-04
6.031012e+01	-6.465636e-04
6.065847e+01	-6.540537e-04
6.100883e+01	-6.616305e-04
6.136121e+01	-6.692951e-04
6.171563e+01	-6.770484e-04
6.207210e+01	-6.848916e-04
6.243063e+01	-6.928256e-04
6.279122e+01	-7.008516e-04
6.315390e+01	-7.089704e-04
6.351868e+01	-7.171834e-04
6.388556e+01	-7.254915e-04
6.425456e+01	-7.338958e-04
6.462569e+01	-7.423974e-04
6.499897e+01	-7.509976e-04
6.537440e+01	-7.596973e-04
6.575200e+01	-7.684978e-04
6.613178e+01	-7.774003e-04
6.651375e+01	-7.864059e-04
6.689793e+01	-7.955158e-04
6.728433e+01	-8.047312e-04
6.767297e+01	-8.140533e-04
6.806384e+01	-8.234835e-04
6.845698e+01	-8.330228e-04
6.885238e+01	-8.426727e-04
6.925007e+01	-8.524343e-04
6.965005e+01	-8.623090e-04
7.005235e+01	-8.722981e-04
7.045697e+01	-8.824029e-04
7.086393e+01	-8.926247e-04
7.127323e+01	-9.029650e-04
7.168490e+01	-9.134250e-04
7.209895e+01	-9.240061e-04
7.251539e+01	-9.347098e-04
7.293424e+01	-9.455375e-04
7.335551e+01	-9.564906e-04
7.377920e+01	-9.675706e-04
7.420535e+01	-9.787789e-04
7.463396e+01	-9.901170e-04
7.506504e+01	-1.001586e-03
7.549861e+01	-1.013189e-03
7.593469e+01	-1.024925e-03
7.637328e+01	-1.036798e-03
7.681441e+01	-1.048808e-03
7.725809e+01	-1.060957e-03
7.770433e+01	-1.073247e-03
7.815315e+01	-1.085680e-03
7.860456e+01	-1.098256e-03
7.905857e+01	-1.110978e-03
7.951521e+01	-1.123847e-03
7.997449e+01	-1.136866e-03
8.043642e+01	-1.150035e-03
8.090102e+01	-1.163357e-03
8.136830e+01	-1.176832e-03
8.183828e+01	-1.190465e-03
8.231097e+01	-1.204254e-03
8.278640e+01	-1.218204e-03
8.326457e+01	-1.232315e-03
8.374550e+01	-1.246590e-03
8.422921e+01	-1.261030e-03
8.471572e+01	-1.275637e-03
8.520503e+01	-1.290414e-03
8.569717e+01	-1.305361e-03
8.619215e+01	-1.320482e-03
8.669000e+01	-1.335778e-03
8.719071e+01	-1.351251e-03
8.769432e+01	-1.366903e-03
8.820084e+01	-1.382736e-03
8.871029e+01	-1.398753e-03
8.922267e+01	-1.414955e-03
8.973802e+01	-1.431345e-03
9.025634e+01	-1.447925e-03
9.077766e+01	-1.464697e-03
9.130199e+01	-1.481663e-03
9.182935e+01	-1.498825e-03
9.235975e+01	-1.516186e-03
9.289321e+01	-1.533749e-03
9.342976e+01	-1.551514e-03
9.396941e+01	-1.569486e-03
9.451217e+01	-1.587666e-03
9.505807e+01	-1.606056e-03
9.560712e+01	-1.624659e-03
9.615934e+01	-1.643477e-03
9.671476e+01	-1.662514e-03
9.727338e+01	-1.681771e-03
9.783522e+01	-1.701251e-03
9.840032e+01	-1.720956e-03
9.896867e+01	-1.740890e-03
9.954031e+01	-1.761055e-03
1.001153e+02	-1.781453e-03
1.006935e+02	-1.802087e-03
1.012751e+02	-1.822960e-03
1.018601e+02	-1.844075e-03
1.024484e+02	-1.865435e-03
1.030402e+02	-1.887042e-03
1.036353e+02	-1.908899e-03
1.042339e+02	-1.931009e-03
1.048360e+02	-1.953375e-03
1.054415e+02	-1.976000e-03
1.060505e+02	-1.998887e-03
1.066631e+02	-2.022040e-03
1.072791e+02	-2.045460e-03
1.078988e+02	-2.069152e-03
1.085220e+02	-2.093118e-03
1.091488e+02	-2.117361e-03
1.097793e+02	-2.141885e-03
1.104133e+02	-2.166693e-03
1.110511e+02	-2.191789e-03
1.116925e+02	-2.217174e-03
1.123376e+02	-2.242854e-03
1.129865e+02	-2.268832e-03
1.136391e+02	-2.295110e-03
1.142955e+02	-2.321692e-03
1.149556e+02	-2.348582e-03
1.156196e+02	-2.375784e-03
1.162874e+02	-2.403300e-03
1.169591e+02	-2.431135e-03
1.176347e+02	-2.459293e-03
1.183141e+02	-2.487776e-03
1.189975e+02	-2.516589e-03
1.196848e+02	-2.545736e-03
1.203761e+02	-2.575220e-03
1.210714e+02	-2.605046e-03
1.217707e+02	-2.635217e-03
1.224740e+02	-2.665737e-03
1.231814e+02	-2.696611e-03
1.238929e+02	-2.727842e-03
1.246085e+02	-2.759435e-03
1.253283e+02	-2.791393e-03
1.260522e+02	-2.823722e-03
1.267802e+02	-2.856424e-03
1.275125e+02	-2.889506e-03
1.282490e+02	-2.922970e-03
1.289898e+02	-2.956822e-03
1.297348e+02	-2.991066e-03
1.304842e+02	-3.025706e-03
1.312378e+02	-3.060747e-03
1.319959e+02	-3.096194e-03
1.327583e+02	-3.132051e-03
1.335251e+02	-3.168324e-03
1.342963e+02	-3.205016e-03
1.350720e+02	-3.242133e-03
1.358522e+02	-3.279680e-03
1.366368e+02	-3.317661e-03
1.374260e+02	-3.356082e-03
1.382198e+02	-3.394948e-03
1.390182e+02	-3.434264e-03
1.398211e+02	-3.474035e-03
1.406287e+02	-3.514266e-03
1.414410e+02	-3.554963e-03
1.422579e+02	-3.596131e-03
1.430796e+02	-3.637776e-03
1.439060e+02	-3.679903e-03
1.447372e+02	-3.722517e-03
1.455732e+02	-3.765625e-03
1.464141e+02	-3.809231e-03
1.472597e+02	-3.853342e-03
1.481103e+02	-3.897964e-03
1.489658e+02	-3.943103e-03
1.498262e+02	-3.988764e-03
1.506916e+02	-4.034953e-03
1.515620e+02	-4.081677e-03
1.524374e+02	-4.128942e-03
1.533179e+02	-4.176753e-03
1.542034e+02	-4.225119e-03
1.550941e+02	-4.274044e-03
1.559899e+02	-4.323535e-03
1.568909e+02	-4.373599e-03
1.577971e+02	-4.424242e-03
1.587085e+02	-4.475472e-03
1.596252e+02	-4.527294e-03
1.605472e+02	-4.579716e-03
1.614745e+02	-4.632745e-03
1.624072e+02	-4.686388e-03
1.633453e+02	-4.740651e-03
1.642887e+02	-4.795542e-03
1.652377e+02	-4.851069e-03
1.661921e+02	-4.907238e-03
1.671520e+02	-4.964057e-03
1.681175e+02	-5.021533e-03
1.690885e+02	-5.079675e-03
1.700651e+02	-5.138489e-03
1.710474e+02	-5.197984e-03
1.720354e+02	-5.258168e-03
1.730291e+02	-5.319048e-03
1.740285e+02	-5.380632e-03
1.750337e+02	-5.442929e-03
1.760446e+02	-5.505947e-03
1.770615e+02	-5.569693e-03
1.780842e+02	-5.634178e-03
1.791128e+02	-5.699408e-03
1.801473e+02	-5.765393e-03
1.811878e+02	-5.832142e-03
1.822344e+02	-5.899663e-03
1.832870e+02	-5.967965e-03
1.843456e+02	-6.037057e-03
1.854104e+02	-6.106948e-03
1.864813e+02	-6.177649e-03
1.875584e+02	-6.249167e-03
1.886418e+02	-6.321512e-03
1.897313e+02	-6.394694e-03
1.908272e+02	-6.468723e-03
1.919294e+02	-6.543608e-03
1.930380e+02	-6.619360e-03
1.941530e+02	-6.695987e-03
1.952744e+02	-6.773501e-03
1.964023e+02	-6.851912e-03
1.975367e+02	-6.931230e-03
1.986777e+02	-7.011465e-03
1.998252e+02	-7.092628e-03
2.009794e+02	-7.174730e-03
2.021403e+02	-7.257781e-03
2.033078e+02	-7.341793e-03
2.044821e+02	-7.426777e-03
2.056632e+02	-7.512743e-03
2.068511e+02	-7.599704e-03
2.080459e+02	-7.687670e-03
2.092475e+02	-7.776654e-03
2.104561e+02	-7.866666e-03
2.116717e+02	-7.957720e-03
2.128943e+02	-8.049826e-03
2.141240e+02	-8.142998e-03
2.153608e+02	-8.237247e-03
2.166047e+02	-8.332586e-03
2.178558e+02	-8.429027e-03
2.191141e+02	-8.526583e-03
2.203797e+02	-8.625267e-03
2.216526e+02	-8.725092e-03
2.229329e+02	-8.826072e-03
2.242205e+02	-8.928219e-03
2.255156e+02	-9.031546e-03
2.268182e+02	-9.136069e-03
2.281283e+02	-9.241799e-03
2.294459e+02	-9.348752e-03
2.307712e+02	-9.456942e-03
2.321041e+02	-9.566382e-03
2.334447e+02	-9.677087e-03
2.347931e+02	-9.789072e-03
2.361493e+02	-9.902351e-03
2.375133e+02	-1.001694e-02
2.388851e+02	-1.013285e-02
2.402649e+02	-1.025010e-02
2.416527e+02	-1.036871e-02
2.430484e+02	-1.048869e-02
2.444523e+02	-1.061006e-02
2.458642e+02	-1.073282e-02
2.472843e+02	-1.085701e-02
2.487126e+02	-1.098263e-02
2.501492e+02	-1.110971e-02
2.515940e+02	-1.123825e-02
2.530472e+02	-1.136827e-02
2.545088e+02	-1.149980e-02
2.559789e+02	-1.163285e-02
2.574574e+02	-1.176744e-02
2.589444e+02	-1.190358e-02
2.604401e+02	-1.204129e-02
2.619444e+02	-1.218060e-02
2.634574e+02	-1.232151e-02
2.649791e+02	-1.246406e-02
2.665096e+02	-1.260824e-02
2.680489e+02	-1.275410e-02
2.695972e+02	-1.290164e-02
2.711544e+02	-1.305088e-02
2.727205e+02	-1.320185e-02
2.742958e+02	-1.335456e-02
2.758801e+02	-1.350903e-02
2.774736e+02	-1.366529e-02
2.790762e+02	-1.382336e-02
2.806882e+02	-1.398324e-02
2.823094e+02	-1.414498e-02
2.839400e+02	-1.430858e-02
2.855800e+02	-1.447407e-02
2.872295e+02	-1.464147e-02
2.888886e+02	-1.481081e-02
2.905572e+02	-1.498210e-02
2.922354e+02	-1.515537e-02
2.939234e+02	-1.533063e-02
2.956211e+02	-1.550793e-02
2.973286e+02	-1.568726e-02
2.990459e+02	-1.586867e-02
3.007732e+02	-1.605217e-02
3.025104e+02	-1.623779e-02
3.042577e+02	-1.642555e-02
3.060151e+02	-1.661548e-02
3.077826e+02	-1.680760e-02
3.095604e+02	-1.700194e-02
3.113484e+02	-1.719852e-02
3.131467e+02	-1.739737e-02
3.149554e+02	-1.759851e-02
3.167746e+02	-1.780198e-02
3.186043e+02	-1.800779e-02
3.204445e+02	-1.821597e-02
3.222954e+02	-1.842656e-02
3.241570e+02	-1.863958e-02
3.260293e+02	-1.885505e-02
3.279124e+02	-1.907301e-02
3.298064e+02	-1.929348e-02
3.317114e+02	-1.951650e-02
3.336273e+02	-1.974209e-02
3.355544e+02	-1.997028e-02
3.374925e+02	-2.020110e-02
3.394418e+02	-2.043458e-02
3.414024e+02	-2.067075e-02
3.433744e+02	-2.090965e-02
3.453577e+02	-2.115130e-02
3.473525e+02	-2.139574e-02
3.493588e+02	-2.164299e-02
3.513766e+02	-2.189310e-02
3.534062e+02	-2.214609e-02
3.554474e+02	-2.240199e-02
3.575005e+02	-2.266085e-02
3.595654e+02	-2.292268e-02
3.616422e+02	-2.318753e-02
3.637311e+02	-2.345544e-02
3.658320e+02	-2.372643e-02
3.679450e+02	-2.400055e-02
3.700702e+02	-2.427782e-02
3.722077e+02	-2.455829e-02
3.743576e+02	-2.484198e-02
3.765199e+02	-2.512895e-02
3.786946e+02	-2.541922e-02
3.808820e+02	-2.571283e-02
3.830819e+02	-2.600983e-02
3.852946e+02	-2.631024e-02
3.875200e+02	-2.661412e-02
3.897583e+02	-2.692149e-02
3.920096e+02	-2.723240e-02
3.942738e+02	-2.754689e-02
3.965511e+02	-2.786500e-02
3.988416e+02	-2.818677e-02
4.011452e+02	-2.851225e-02
4.034622e+02	-2.884147e-02
4.057926e+02	-2.917448e-02
4.081365e+02	-2.951132e-02
4.104938e+02	-2.985204e-02
4.128648e+02	-3.019667e-02
4.152495e+02	-3.054528e-02
4.176480e+02	-3.089789e-02
4.200603e+02	-3.125456e-02
4.224866e+02	-3.161533e-02
4.249268e+02	-3.198024e-02
4.273812e+02	-3.234936e-02
4.298497e+02	-3.272272e-02
4.323325e+02	-3.310037e-02
4.348297e+02	-3.348236e-02
4.373412e+02	-3.386875e-02
4.398673e+02	-3.425957e-02
4.424079e+02	-3.465489e-02
4.449633e+02	-3.505475e-02
4.475334e+02	-3.545921e-02
4.501183e+02	-3.586831e-02
4.527182e+02	-3.628211e-02
4.553330e+02	-3.670067e-02
4.579630e+02	-3.712403e-02
4.606082e+02	-3.755226e-02
4.632687e+02	-3.798540e-02
4.659445e+02	-3.842352e-02
4.686358e+02	-3.886667e-02
4.713426e+02	-3.931491e-02
4.740650e+02	-3.976829e-02
4.768032e+02	-4.022688e-02
4.795572e+02	-4.069073e-02
4.823271e+02	-4.115990e-02
4.851130e+02	-4.163446e-02
4.879150e+02	-4.211446e-02
4.907332e+02	-4.259996e-02
4.935676e+02	-4.309104e-02
4.964185e+02	-4.358775e-02
4.992858e+02	-4.409016e-02
5.021696e+02	-4.459832e-02
5.050701e+02	-4.511232e-02
5.079874e+02	-4.563220e-02
5.109215e+02	-4.615805e-02
5.138726e+02	-4.668992e-02
5.168407e+02	-4.722789e-02
5.198259e+02	-4.777202e-02
5.228284e+02	-4.832238e-02
5.258482e+02	-4.887905e-02
5.288855e+02	-4.944210e-02
5.319403e+02	-5.001159e-02
5.350128e+02	-5.058761e-02
5.381030e+02	-5.117022e-02
5.412111e+02	-5.175950e-02
5.443371e+02	-5.235553e-02
5.474812e+02	-5.295837e-02
5.506434e+02	-5.356812e-02
5.538239e+02	-5.418484e-02
5.570228e+02	-5.480862e-02
5.602401e+02	-5.543953e-02
5.634760e+02	-5.607766e-02
5.667306e+02	-5.672308e-02
5.700040e+02	-5.737589e-02
5.732964e+02	-5.803615e-02
5.766077e+02	-5.870397e-02
5.799382e+02	-5.937941e-02
5.832879e+02	-6.006258e-02
5.866569e+02	-6.075354e-02
5.900454e+02	-6.145240e-02
5.934535e+02	-6.215924e-02
5.968813e+02	-6.287415e-02
6.003288e+02	-6.359723e-02
6.037963e+02	-6.432856e-02
6.072838e+02	-6.506823e-02
6.107914e+02	-6.581635e-02
6.143194e+02	-6.657300e-02
6.178676e+02	-6.733828e-02
6.214364e+02	-6.811229e-02
6.250258e+02	-6.889512e-02
6.286359e+02	-6.968688e-02
6.322669e+02	-7.048767e-02
6.359189e+02	-7.129758e-02
6.395919e+02	-7.211672e-02
6.432862e+02	-7.294519e-02
6.470017e+02	-7.378309e-02
6.507388e+02	-7.463054e-02
6.544974e+02	-7.548764e-02
6.582778e+02	-7.635450e-02
6.620800e+02	-7.723122e-02
6.659041e+02	-7.811791e-02
6.697504e+02	-7.901470e-02
6.736188e+02	-7.992168e-02
6.775096e+02	-8.083898e-02
6.814229e+02	-8.176670e-02
6.853587e+02	-8.270497e-02
6.893173e+02	-8.365391e-02
6.932988e+02	-8.461362e-02
6.973033e+02	-8.558424e-02
7.013309e+02	-8.656588e-02
