Frequency(Hz)	Magnitude(dB)
1.000000e+01	-2.178512e+00
1.005776e+01	-2.198351e+00
1.011585e+01	-2.218410e+00
1.017428e+01	-2.238507e+00
1.023305e+01	-2.258562e+00
1.029215e+01	-2.279163e+00
1.035160e+01	-2.299638e+00
1.041139e+01	-2.320083e+00
1.047153e+01	-2.340760e+00
1.053201e+01	-2.361722e+00
1.059284e+01	-2.382873e+00
1.065403e+01	-2.403981e+00
1.071556e+01	-2.425325e+00
1.077746e+01	-2.447173e+00
1.083971e+01	-2.468403e+00
1.090232e+01	-2.490072e+00
1.096529e+01	-2.512054e+00
1.102862e+01	-2.534215e+00
1.109232e+01	-2.556284e+00
1.115639e+01	-2.578575e+00
1.122083e+01	-2.601088e+00
1.128564e+01	-2.623535e+00
1.135083e+01	-2.646366e+00
1.141639e+01	-2.669533e+00
1.148233e+01	-2.692505e+00
1.154865e+01	-2.716005e+00
1.161536e+01	-2.739083e+00
1.168245e+01	-2.762514e+00
1.174992e+01	-2.785970e+00
1.181779e+01	-2.809759e+00
1.188605e+01	-2.833833e+00
1.195470e+01	-2.857855e+00
1.202375e+01	-2.882006e+00
1.209320e+01	-2.906320e+00
1.216305e+01	-2.930675e+00
1.223330e+01	-2.955389e+00
1.230396e+01	-2.980212e+00
1.237503e+01	-3.005167e+00
1.244651e+01	-3.030106e+00
1.251840e+01	-3.055506e+00
1.259070e+01	-3.080656e+00
1.266343e+01	-3.106037e+00
1.273657e+01	-3.131803e+00
1.281014e+01	-3.157670e+00
1.288413e+01	-3.183522e+00
1.295855e+01	-3.209554e+00
1.303339e+01	-3.235718e+00
1.310867e+01	-3.262236e+00
1.318439e+01	-3.288630e+00
1.326054e+01	-3.315312e+00
1.333713e+01	-3.342155e+00
1.341417e+01	-3.368920e+00
1.349165e+01	-3.395903e+00
1.356958e+01	-3.423343e+00
1.364795e+01	-3.450713e+00
1.372678e+01	-3.478252e+00
1.380607e+01	-3.505491e+00
1.388581e+01	-3.533517e+00
1.396602e+01	-3.561328e+00
1.404668e+01	-3.589378e+00
1.412782e+01	-3.617792e+00
1.420942e+01	-3.645857e+00
1.429149e+01	-3.674423e+00
1.437404e+01	-3.703179e+00
1.445706e+01	-3.732007e+00
1.454057e+01	-3.760664e+00
1.462455e+01	-3.789829e+00
1.470902e+01	-3.818781e+00
1.479398e+01	-3.848292e+00
1.487943e+01	-3.878114e+00
1.496537e+01	-3.907586e+00
1.505181e+01	-3.937105e+00
1.513875e+01	-3.967278e+00
1.522619e+01	-3.997101e+00
1.531414e+01	-4.027215e+00
1.540259e+01	-4.057860e+00
1.549156e+01	-4.088178e+00
1.558103e+01	-4.118633e+00
1.567103e+01	-4.149425e+00
1.576155e+01	-4.180358e+00
1.585258e+01	-4.211195e+00
1.594415e+01	-4.242230e+00
1.603624e+01	-4.273402e+00
1.612886e+01	-4.304869e+00
1.622202e+01	-4.336626e+00
1.631572e+01	-4.367908e+00
1.640996e+01	-4.399874e+00
1.650474e+01	-4.431842e+00
1.660008e+01	-4.464030e+00
1.669596e+01	-4.496125e+00
1.679239e+01	-4.528561e+00
1.688938e+01	-4.560906e+00
1.698694e+01	-4.593569e+00
1.708505e+01	-4.626222e+00
1.718373e+01	-4.659166e+00
1.728299e+01	-4.691994e+00
1.738281e+01	-4.725185e+00
1.748322e+01	-4.758432e+00
1.758420e+01	-4.791760e+00
1.768576e+01	-4.825217e+00
1.778792e+01	-4.858478e+00
1.789066e+01	-4.892763e+00
1.799399e+01	-4.926507e+00
1.809793e+01	-4.960560e+00
1.820246e+01	-4.994380e+00
1.830760e+01	-5.028973e+00
1.841334e+01	-5.063493e+00
1.851969e+01	-5.097784e+00
1.862666e+01	-5.132440e+00
1.873425e+01	-5.167183e+00
1.884246e+01	-5.201964e+00
1.895129e+01	-5.237028e+00
1.906075e+01	-5.272173e+00
1.917085e+01	-5.307076e+00
1.928158e+01	-5.342524e+00
1.939295e+01	-5.378094e+00
1.950496e+01	-5.413730e+00
1.961762e+01	-5.449274e+00
1.973093e+01	-5.485202e+00
1.984490e+01	-5.521429e+00
1.995952e+01	-5.557275e+00
2.007480e+01	-5.593171e+00
2.019076e+01	-5.629387e+00
2.030738e+01	-5.665761e+00
2.042467e+01	-5.702433e+00
2.054264e+01	-5.739298e+00
2.066130e+01	-5.776001e+00
2.078064e+01	-5.813084e+00
2.090066e+01	-5.850181e+00
2.102139e+01	-5.886957e+00
2.114280e+01	-5.923915e+00
2.126492e+01	-5.961092e+00
2.138775e+01	-5.998611e+00
2.151128e+01	-6.036039e+00
2.163553e+01	-6.073692e+00
2.176050e+01	-6.111518e+00
2.188619e+01	-6.149254e+00
2.201260e+01	-6.187493e+00
2.213974e+01	-6.225345e+00
2.226762e+01	-6.263699e+00
2.239624e+01	-6.301691e+00
2.252560e+01	-6.340213e+00
2.265571e+01	-6.378525e+00
2.278656e+01	-6.416937e+00
2.291818e+01	-6.455786e+00
2.305055e+01	-6.494533e+00
2.318369e+01	-6.533334e+00
2.331760e+01	-6.572023e+00
2.345228e+01	-6.611579e+00
2.358774e+01	-6.650580e+00
2.372398e+01	-6.689943e+00
2.386101e+01	-6.729344e+00
2.399883e+01	-6.768694e+00
2.413745e+01	-6.808091e+00
2.427686e+01	-6.847329e+00
2.441709e+01	-6.887509e+00
2.455812e+01	-6.927397e+00
2.469997e+01	-6.967434e+00
2.484263e+01	-7.007360e+00
2.498612e+01	-7.047170e+00
2.513044e+01	-7.087842e+00
2.527559e+01	-7.127886e+00
2.542158e+01	-7.168165e+00
2.556842e+01	-7.208831e+00
2.571610e+01	-7.249552e+00
2.586463e+01	-7.290179e+00
2.601403e+01	-7.330452e+00
2.616428e+01	-7.371639e+00
2.631541e+01	-7.412036e+00
2.646740e+01	-7.453426e+00
2.662028e+01	-7.495186e+00
2.677404e+01	-7.535809e+00
2.692868e+01	-7.576975e+00
2.708422e+01	-7.618549e+00
2.724066e+01	-7.659801e+00
2.739800e+01	-7.701175e+00
2.755625e+01	-7.742627e+00
2.771541e+01	-7.784463e+00
2.787550e+01	-7.825975e+00
2.803650e+01	-7.867648e+00
2.819844e+01	-7.909948e+00
2.836131e+01	-7.951987e+00
2.852513e+01	-7.993816e+00
2.868989e+01	-8.036000e+00
2.885560e+01	-8.078039e+00
2.902227e+01	-8.120181e+00
2.918990e+01	-8.162680e+00
2.935850e+01	-8.205205e+00
2.952807e+01	-8.247501e+00
2.969863e+01	-8.290265e+00
2.987016e+01	-8.333343e+00
3.004269e+01	-8.375278e+00
3.021622e+01	-8.418634e+00
3.039075e+01	-8.460849e+00
3.056628e+01	-8.504084e+00
3.074283e+01	-8.547214e+00
3.092040e+01	-8.590289e+00
3.109900e+01	-8.633614e+00
3.127862e+01	-8.676729e+00
3.145929e+01	-8.720112e+00
3.164099e+01	-8.763419e+00
3.182375e+01	-8.806620e+00
3.200756e+01	-8.850166e+00
3.219244e+01	-8.893495e+00
3.237838e+01	-8.937740e+00
3.256540e+01	-8.980996e+00
3.275349e+01	-9.024468e+00
3.294268e+01	-9.068687e+00
3.313295e+01	-9.112560e+00
3.332433e+01	-9.156194e+00
3.351681e+01	-9.200167e+00
3.371040e+01	-9.244114e+00
3.390511e+01	-9.288146e+00
3.410094e+01	-9.332443e+00
3.429791e+01	-9.376494e+00
3.449601e+01	-9.420991e+00
3.469526e+01	-9.464956e+00
3.489566e+01	-9.509413e+00
3.509721e+01	-9.554393e+00
3.529993e+01	-9.598594e+00
3.550382e+01	-9.643641e+00
3.570889e+01	-9.688190e+00
3.591515e+01	-9.732645e+00
3.612259e+01	-9.777342e+00
3.633123e+01	-9.822164e+00
3.654108e+01	-9.867071e+00
3.675214e+01	-9.912148e+00
3.696442e+01	-9.956454e+00
3.717792e+01	-1.000192e+01
3.739266e+01	-1.004641e+01
3.760864e+01	-1.009180e+01
3.782587e+01	-1.013710e+01
3.804435e+01	-1.018214e+01
3.826409e+01	-1.022767e+01
3.848510e+01	-1.027312e+01
3.870739e+01	-1.031814e+01
3.893096e+01	-1.036294e+01
3.915583e+01	-1.040953e+01
3.938199e+01	-1.045484e+01
3.960946e+01	-1.050015e+01
3.983824e+01	-1.054565e+01
4.006834e+01	-1.059130e+01
4.029978e+01	-1.063697e+01
4.053255e+01	-1.068285e+01
4.076666e+01	-1.072892e+01
4.100213e+01	-1.077457e+01
4.123896e+01	-1.082019e+01
4.147715e+01	-1.086685e+01
4.171672e+01	-1.091153e+01
4.195767e+01	-1.095739e+01
4.220002e+01	-1.100424e+01
4.244377e+01	-1.105000e+01
4.268892e+01	-1.109649e+01
4.293549e+01	-1.114267e+01
4.318348e+01	-1.118842e+01
4.343291e+01	-1.123461e+01
4.368377e+01	-1.128120e+01
4.393609e+01	-1.132728e+01
4.418986e+01	-1.137367e+01
4.444510e+01	-1.142013e+01
4.470182e+01	-1.146657e+01
4.496001e+01	-1.151333e+01
4.521970e+01	-1.155973e+01
4.548089e+01	-1.160636e+01
4.574358e+01	-1.165280e+01
4.600779e+01	-1.169945e+01
4.627353e+01	-1.174597e+01
4.654081e+01	-1.179273e+01
4.680963e+01	-1.183986e+01
4.708000e+01	-1.188650e+01
4.735193e+01	-1.193321e+01
4.762543e+01	-1.197979e+01
4.790051e+01	-1.202699e+01
4.817719e+01	-1.207357e+01
4.845545e+01	-1.212151e+01
4.873533e+01	-1.216834e+01
4.901682e+01	-1.221474e+01
4.929994e+01	-1.226159e+01
4.958470e+01	-1.230779e+01
4.987110e+01	-1.235579e+01
5.015915e+01	-1.240296e+01
5.044887e+01	-1.245065e+01
5.074026e+01	-1.249764e+01
5.103333e+01	-1.254457e+01
5.132810e+01	-1.259208e+01
5.162457e+01	-1.263985e+01
5.192275e+01	-1.268679e+01
5.222265e+01	-1.273430e+01
5.252429e+01	-1.278176e+01
5.282767e+01	-1.282871e+01
5.313280e+01	-1.287568e+01
5.343969e+01	-1.292323e+01
5.374836e+01	-1.297129e+01
5.405880e+01	-1.301938e+01
5.437105e+01	-1.306586e+01
5.468509e+01	-1.311355e+01
5.500095e+01	-1.316169e+01
5.531863e+01	-1.320904e+01
5.563815e+01	-1.325629e+01
5.595951e+01	-1.330442e+01
5.628273e+01	-1.335136e+01
5.660782e+01	-1.339897e+01
5.693479e+01	-1.344785e+01
5.726364e+01	-1.349525e+01
5.759439e+01	-1.354244e+01
5.792705e+01	-1.359050e+01
5.826164e+01	-1.363785e+01
5.859815e+01	-1.368649e+01
5.893662e+01	-1.373491e+01
5.927703e+01	-1.378280e+01
5.961941e+01	-1.383008e+01
5.996377e+01	-1.387817e+01
6.031012e+01	-1.392604e+01
6.065847e+01	-1.397417e+01
6.100883e+01	-1.402250e+01
6.136121e+01	-1.407045e+01
6.171563e+01	-1.411848e+01
6.207210e+01	-1.416618e+01
6.243063e+01	-1.421443e+01
6.279122e+01	-1.426215e+01
6.315390e+01	-1.431063e+01
6.351868e+01	-1.435898e+01
6.388556e+01	-1.440737e+01
6.425456e+01	-1.445569e+01
6.462569e+01	-1.450347e+01
6.499897e+01	-1.455233e+01
6.537440e+01	-1.460062e+01
6.575200e+01	-1.464889e+01
6.613178e+01	-1.469735e+01
6.651375e+01	-1.474472e+01
6.689793e+01	-1.479369e+01
6.728433e+01	-1.484233e+01
6.767297e+01	-1.489080e+01
6.806384e+01	-1.493945e+01
6.845698e+01	-1.498717e+01
6.885238e+01	-1.503507e+01
6.925007e+01	-1.508382e+01
6.965005e+01	-1.513363e+01
7.005235e+01	-1.518104e+01
7.045697e+01	-1.522960e+01
7.086393e+01	-1.527876e+01
7.127323e+01	-1.532682e+01
7.168490e+01	-1.537497e+01
7.209895e+01	-1.542482e+01
7.251539e+01	-1.547198e+01
7.293424e+01	-1.552094e+01
7.335551e+01	-1.556972e+01
7.377920e+01	-1.561825e+01
7.420535e+01	-1.566693e+01
7.463396e+01	-1.571541e+01
7.506504e+01	-1.576437e+01
7.549861e+01	-1.581324e+01
7.593469e+01	-1.586259e+01
7.637328e+01	-1.590978e+01
7.681441e+01	-1.595978e+01
7.725809e+01	-1.600882e+01
7.770433e+01	-1.605768e+01
7.815315e+01	-1.610606e+01
7.860456e+01	-1.615605e+01
7.905857e+01	-1.620373e+01
7.951521e+01	-1.625141e+01
7.997449e+01	-1.630011e+01
8.043642e+01	-1.634990e+01
8.090102e+01	-1.639900e+01
8.136830e+01	-1.644743e+01
8.183828e+01	-1.649737e+01
8.231097e+01	-1.654566e+01
8.278640e+01	-1.659365e+01
8.326457e+01	-1.664325e+01
8.374550e+01	-1.669239e+01
8.422921e+01	-1.674092e+01
8.471572e+01	-1.678986e+01
8.520503e+01	-1.683867e+01
8.569717e+01	-1.688891e+01
8.619215e+01	-1.693741e+01
8.669000e+01	-1.698571e+01
8.719071e+01	-1.703555e+01
8.769432e+01	-1.708384e+01
8.820084e+01	-1.713366e+01
8.871029e+01	-1.718318e+01
8.922267e+01	-1.723151e+01
8.973802e+01	-1.728028e+01
9.025634e+01	-1.732994e+01
9.077766e+01	-1.737987e+01
9.130199e+01	-1.742813e+01
9.182935e+01	-1.747702e+01
9.235975e+01	-1.752616e+01
9.289321e+01	-1.757575e+01
9.342976e+01	-1.762383e+01
9.396941e+01	-1.767515e+01
9.451217e+01	-1.772435e+01
9.505807e+01	-1.777178e+01
9.560712e+01	-1.782323e+01
9.615934e+01	-1.786951e+01
9.671476e+01	-1.791940e+01
9.727338e+01	-1.796936e+01
9.783522e+01	-1.801875e+01
9.840032e+01	-1.806812e+01
9.896867e+01	-1.811837e+01
9.954031e+01	-1.816576e+01
1.001153e+02	-1.821582e+01
1.006935e+02	-1.826501e+01
1.012751e+02	-1.831431e+01
1.018601e+02	-1.836386e+01
1.024484e+02	-1.841402e+01
1.030402e+02	-1.846199e+01
1.036353e+02	-1.851134e+01
1.042339e+02	-1.856051e+01
1.048360e+02	-1.861061e+01
1.054415e+02	-1.865993e+01
1.060505e+02	-1.870793e+01
1.066631e+02	-1.875617e+01
1.072791e+02	-1.880786e+01
1.078988e+02	-1.885730e+01
1.085220e+02	-1.890704e+01
1.091488e+02	-1.895574e+01
1.097793e+02	-1.900452e+01
1.104133e+02	-1.905430e+01
1.110511e+02	-1.910447e+01
1.116925e+02	-1.915323e+01
1.123376e+02	-1.920185e+01
1.129865e+02	-1.925242e+01
1.136391e+02	-1.930175e+01
1.142955e+02	-1.935111e+01
1.149556e+02	-1.940090e+01
1.156196e+02	-1.944894e+01
1.162874e+02	-1.949925e+01
1.169591e+02	-1.954970e+01
1.176347e+02	-1.959903e+01
1.183141e+02	-1.964904e+01
1.189975e+02	-1.969492e+01
1.196848e+02	-1.974478e+01
1.203761e+02	-1.979591e+01
1.210714e+02	-1.984653e+01
1.217707e+02	-1.989546e+01
1.224740e+02	-1.994490e+01
1.231814e+02	-1.999412e+01
1.238929e+02	-2.004215e+01
1.246085e+02	-2.009363e+01
1.253283e+02	-2.014278e+01
1.260522e+02	-2.019267e+01
1.267802e+02	-2.024296e+01
1.275125e+02	-2.029067e+01
1.282490e+02	-2.034161e+01
1.289898e+02	-2.039087e+01
1.297348e+02	-2.044140e+01
1.304842e+02	-2.048856e+01
1.312378e+02	-2.054051e+01
1.319959e+02	-2.058956e+01
1.327583e+02	-2.064022e+01
1.335251e+02	-2.068713e+01
1.342963e+02	-2.073760e+01
1.350720e+02	-2.078831e+01
1.358522e+02	-2.083714e+01
1.366368e+02	-2.088810e+01
1.374260e+02	-2.093590e+01
1.382198e+02	-2.098758e+01
1.390182e+02	-2.103558e+01
1.398211e+02	-2.108607e+01
1.406287e+02	-2.113587e+01
1.414410e+02	-2.118481e+01
1.422579e+02	-2.123506e+01
1.430796e+02	-2.128408e+01
1.439060e+02	-2.133441e+01
1.447372e+02	-2.138319e+01
1.455732e+02	-2.143425e+01
1.464141e+02	-2.148362e+01
1.472597e+02	-2.153266e+01
1.481103e+02	-2.158183e+01
1.489658e+02	-2.163071e+01
1.498262e+02	-2.167960e+01
1.506916e+02	-2.173210e+01
1.515620e+02	-2.178193e+01
1.524374e+02	-2.183023e+01
1.533179e+02	-2.187969e+01
1.542034e+02	-2.193106e+01
1.550941e+02	-2.197902e+01
1.559899e+02	-2.203041e+01
1.568909e+02	-2.208000e+01
1.577971e+02	-2.213002e+01
1.587085e+02	-2.217776e+01
1.596252e+02	-2.222863e+01
1.605472e+02	-2.227770e+01
1.614745e+02	-2.232659e+01
1.624072e+02	-2.237890e+01
1.633453e+02	-2.242900e+01
1.642887e+02	-2.247740e+01
1.652377e+02	-2.252802e+01
1.661921e+02	-2.257795e+01
1.671520e+02	-2.262931e+01
1.681175e+02	-2.267669e+01
1.690885e+02	-2.272749e+01
1.700651e+02	-2.277676e+01
1.710474e+02	-2.282664e+01
1.720354e+02	-2.287603e+01
1.730291e+02	-2.292663e+01
1.740285e+02	-2.297477e+01
1.750337e+02	-2.302550e+01
1.760446e+02	-2.307407e+01
1.770615e+02	-2.312430e+01
1.780842e+02	-2.317592e+01
1.791128e+02	-2.322407e+01
1.801473e+02	-2.327538e+01
1.811878e+02	-2.332435e+01
1.822344e+02	-2.337267e+01
1.832870e+02	-2.342615e+01
1.843456e+02	-2.347233e+01
1.854104e+02	-2.352265e+01
1.864813e+02	-2.357489e+01
1.875584e+02	-2.362402e+01
1.886418e+02	-2.367150e+01
1.897313e+02	-2.372428e+01
1.908272e+02	-2.377208e+01
1.919294e+02	-2.382275e+01
1.930380e+02	-2.387398e+01
1.941530e+02	-2.392118e+01
1.952744e+02	-2.396855e+01
1.964023e+02	-2.402104e+01
1.975367e+02	-2.407050e+01
1.986777e+02	-2.412181e+01
1.998252e+02	-2.417249e+01
2.009794e+02	-2.421995e+01
2.021403e+02	-2.427135e+01
2.033078e+02	-2.432096e+01
2.044821e+02	-2.436949e+01
2.056632e+02	-2.442097e+01
2.068511e+02	-2.446859e+01
2.080459e+02	-2.452239e+01
2.092475e+02	-2.456923e+01
2.104561e+02	-2.462207e+01
2.116717e+02	-2.466898e+01
2.128943e+02	-2.472023e+01
2.141240e+02	-2.477023e+01
2.153608e+02	-2.481872e+01
2.166047e+02	-2.487175e+01
2.178558e+02	-2.491534e+01
2.191141e+02	-2.497059e+01
2.203797e+02	-2.502061e+01
2.216526e+02	-2.507026e+01
2.229329e+02	-2.512174e+01
2.242205e+02	-2.516823e+01
2.255156e+02	-2.521735e+01
2.268182e+02	-2.527061e+01
2.281283e+02	-2.532011e+01
2.294459e+02	-2.536676e+01
2.307712e+02	-2.542180e+01
2.321041e+02	-2.546706e+01
2.334447e+02	-2.551659e+01
2.347931e+02	-2.556708e+01
2.361493e+02	-2.561672e+01
2.375133e+02	-2.566580e+01
2.388851e+02	-2.572352e+01
2.402649e+02	-2.576897e+01
2.416527e+02	-2.581976e+01
2.430484e+02	-2.586879e+01
2.444523e+02	-2.591725e+01
2.458642e+02	-2.597028e+01
2.472843e+02	-2.601899e+01
2.487126e+02	-2.606834e+01
2.501492e+02	-2.612104e+01
2.515940e+02	-2.616760e+01
2.530472e+02	-2.621847e+01
2.545088e+02	-2.626904e+01
2.559789e+02	-2.631706e+01
2.574574e+02	-2.636614e+01
2.589444e+02	-2.641979e+01
2.604401e+02	-2.646681e+01
2.619444e+02	-2.651669e+01
2.634574e+02	-2.657096e+01
2.649791e+02	-2.661974e+01
2.665096e+02	-2.666464e+01
2.680489e+02	-2.672308e+01
2.695972e+02	-2.677037e+01
2.711544e+02	-2.681889e+01
2.727205e+02	-2.686764e+01
2.742958e+02	-2.691648e+01
2.758801e+02	-2.696910e+01
2.774736e+02	-2.701736e+01
2.790762e+02	-2.706453e+01
2.806882e+02	-2.711860e+01
2.823094e+02	-2.716672e+01
2.839400e+02	-2.721787e+01
2.855800e+02	-2.726593e+01
2.872295e+02	-2.731543e+01
2.888886e+02	-2.736315e+01
2.905572e+02	-2.741763e+01
2.922354e+02	-2.746764e+01
2.939234e+02	-2.751757e+01
2.956211e+02	-2.756560e+01
2.973286e+02	-2.761541e+01
2.990459e+02	-2.766792e+01
3.007732e+02	-2.772092e+01
3.025104e+02	-2.776906e+01
3.042577e+02	-2.781828e+01
3.060151e+02	-2.786669e+01
3.077826e+02	-2.791689e+01
3.095604e+02	-2.796632e+01
3.113484e+02	-2.801814e+01
3.131467e+02	-2.806706e+01
3.149554e+02	-2.811712e+01
3.167746e+02	-2.816831e+01
3.186043e+02	-2.821879e+01
3.204445e+02	-2.826804e+01
3.222954e+02	-2.831885e+01
3.241570e+02	-2.836922e+01
3.260293e+02	-2.841933e+01
3.279124e+02	-2.846982e+01
3.298064e+02	-2.851584e+01
3.317114e+02	-2.857077e+01
3.336273e+02	-2.862119e+01
3.355544e+02	-2.866593e+01
3.374925e+02	-2.871930e+01
3.394418e+02	-2.877103e+01
3.414024e+02	-2.882066e+01
3.433744e+02	-2.887010e+01
3.453577e+02	-2.891601e+01
3.473525e+02	-2.896542e+01
3.493588e+02	-2.901296e+01
3.513766e+02	-2.906835e+01
3.534062e+02	-2.911693e+01
3.554474e+02	-2.917095e+01
3.575005e+02	-2.921684e+01
3.595654e+02	-2.927219e+01
3.616422e+02	-2.932129e+01
3.637311e+02	-2.937184e+01
3.658320e+02	-2.942485e+01
3.679450e+02	-2.947557e+01
3.700702e+02	-2.951928e+01
3.722077e+02	-2.957165e+01
3.743576e+02	-2.962137e+01
3.765199e+02	-2.967384e+01
3.786946e+02	-2.971963e+01
3.808820e+02	-2.977172e+01
3.830819e+02	-2.982009e+01
3.852946e+02	-2.986930e+01
3.875200e+02	-2.992266e+01
3.897583e+02	-2.996727e+01
3.920096e+02	-3.001816e+01
3.942738e+02	-3.007085e+01
3.965511e+02	-3.012215e+01
3.988416e+02	-3.017498e+01
4.011452e+02	-3.021878e+01
4.034622e+02	-3.027583e+01
4.057926e+02	-3.031824e+01
4.081365e+02	-3.037024e+01
4.104938e+02	-3.042094e+01
4.128648e+02	-3.047269e+01
4.152495e+02	-3.052399e+01
4.176480e+02	-3.056984e+01
4.200603e+02	-3.062273e+01
4.224866e+02	-3.066754e+01
4.249268e+02	-3.072245e+01
4.273812e+02	-3.077214e+01
4.298497e+02	-3.081995e+01
4.323325e+02	-3.086962e+01
4.348297e+02	-3.091870e+01
4.373412e+02	-3.097523e+01
4.398673e+02	-3.101855e+01
4.424079e+02	-3.107208e+01
4.449633e+02	-3.111989e+01
4.475334e+02	-3.117533e+01
4.501183e+02	-3.122620e+01
4.527182e+02	-3.127717e+01
4.553330e+02	-3.131898e+01
4.579630e+02	-3.137698e+01
4.606082e+02	-3.142293e+01
4.632687e+02	-3.147441e+01
4.659445e+02	-3.152464e+01
4.686358e+02	-3.157523e+01
4.713426e+02	-3.162157e+01
4.740650e+02	-3.167213e+01
4.768032e+02	-3.172693e+01
4.795572e+02	-3.176795e+01
4.823271e+02	-3.182546e+01
4.851130e+02	-3.187577e+01
4.879150e+02	-3.192958e+01
4.907332e+02	-3.197634e+01
4.935676e+02	-3.203439e+01
4.964185e+02	-3.207705e+01
4.992858e+02	-3.212584e+01
5.021696e+02	-3.217644e+01
5.050701e+02	-3.223147e+01
5.079874e+02	-3.227479e+01
5.109215e+02	-3.232056e+01
5.138726e+02	-3.238233e+01
5.168407e+02	-3.243481e+01
5.198259e+02	-3.247473e+01
5.228284e+02	-3.252557e+01
5.258482e+02	-3.258307e+01
5.288855e+02	-3.263834e+01
5.319403e+02	-3.267941e+01
5.350128e+02	-3.273422e+01
5.381030e+02	-3.278055e+01
5.412111e+02	-3.283064e+01
5.443371e+02	-3.287848e+01
5.474812e+02	-3.293331e+01
5.506434e+02	-3.298580e+01
5.538239e+02	-3.303264e+01
5.570228e+02	-3.307954e+01
5.602401e+02	-3.313113e+01
5.634760e+02	-3.317744e+01
5.667306e+02	-3.323538e+01
5.700040e+02	-3.328713e+01
5.732964e+02	-3.333168e+01
5.766077e+02	-3.337473e+01
5.799382e+02	-3.343503e+01
5.832879e+02	-3.349064e+01
5.866569e+02	-3.353332e+01
5.900454e+02	-3.359037e+01
5.934535e+02	-3.364348e+01
5.968813e+02	-3.368880e+01
6.003288e+02	-3.373445e+01
6.037963e+02	-3.378560e+01
6.072838e+02	-3.383293e+01
6.107914e+02	-3.388336e+01
6.143194e+02	-3.394010e+01
6.178676e+02	-3.398538e+01
6.214364e+02	-3.403440e+01
6.250258e+02	-3.408791e+01
6.286359e+02	-3.413981e+01
6.322669e+02	-3.419386e+01
6.359189e+02	-3.424107e+01
6.395919e+02	-3.428915e+01
6.432862e+02	-3.433911e+01
6.470017e+02	-3.438591e+01
6.507388e+02	-3.444169e+01
6.544974e+02	-3.449355e+01
6.582778e+02	-3.453720e+01
6.620800e+02	-3.459817e+01
6.659041e+02	-3.463831e+01
6.697504e+02	-3.470067e+01
6.736188e+02	-3.473869e+01
6.775096e+02	-3.478966e+01
6.814229e+02	-3.484135e+01
6.853587e+02	-3.488976e+01
6.893173e+02	-3.494853e+01
6.932988e+02	-3.498683e+01
6.973033e+02	-3.505716e+01
7.013309e+02	-3.508820e+01
