Frequency(Hz)	Magnitude(dB)
1.000000e+01	-1.745895e-05
1.005776e+01	-1.766121e-05
1.011585e+01	-1.786582e-05
1.017428e+01	-1.807280e-05
1.023305e+01	-1.828218e-05
1.029215e+01	-1.849399e-05
1.035160e+01	-1.870824e-05
1.041139e+01	-1.892498e-05
1.047153e+01	-1.914423e-05
1.053201e+01	-1.936602e-05
1.059284e+01	-1.959038e-05
1.065403e+01	-1.981734e-05
1.071556e+01	-2.004693e-05
1.077746e+01	-2.027918e-05
1.083971e+01	-2.051412e-05
1.090232e+01	-2.075178e-05
1.096529e+01	-2.099220e-05
1.102862e+01	-2.123540e-05
1.109232e+01	-2.148141e-05
1.115639e+01	-2.173028e-05
1.122083e+01	-2.198203e-05
1.128564e+01	-2.223670e-05
1.135083e+01	-2.249432e-05
1.141639e+01	-2.275492e-05
1.148233e+01	-2.301854e-05
1.154865e+01	-2.328522e-05
1.161536e+01	-2.355498e-05
1.168245e+01	-2.382787e-05
1.174992e+01	-2.410392e-05
1.181779e+01	-2.438317e-05
1.188605e+01	-2.466566e-05
1.195470e+01	-2.495142e-05
1.202375e+01	-2.524049e-05
1.209320e+01	-2.553290e-05
1.216305e+01	-2.582871e-05
1.223330e+01	-2.612794e-05
1.230396e+01	-2.643064e-05
1.237503e+01	-2.673684e-05
1.244651e+01	-2.704660e-05
1.251840e+01	-2.735994e-05
1.259070e+01	-2.767691e-05
1.266343e+01	-2.799755e-05
1.273657e+01	-2.832191e-05
1.281014e+01	-2.865003e-05
1.288413e+01	-2.898195e-05
1.295855e+01	-2.931771e-05
1.303339e+01	-2.965736e-05
1.310867e+01	-3.000095e-05
1.318439e+01	-3.034852e-05
1.326054e+01	-3.070011e-05
1.333713e+01	-3.105578e-05
1.341417e+01	-3.141557e-05
1.349165e+01	-3.177953e-05
1.356958e+01	-3.214770e-05
1.364795e+01	-3.252014e-05
1.372678e+01	-3.289689e-05
1.380607e+01	-3.327801e-05
1.388581e+01	-3.366354e-05
1.396602e+01	-3.405354e-05
1.404668e+01	-3.444806e-05
1.412782e+01	-3.484715e-05
1.420942e+01	-3.525086e-05
1.429149e+01	-3.565925e-05
1.437404e+01	-3.607237e-05
1.445706e+01	-3.649028e-05
1.454057e+01	-3.691303e-05
1.462455e+01	-3.734067e-05
1.470902e+01	-3.777327e-05
1.479398e+01	-3.821089e-05
1.487943e+01	-3.865357e-05
1.496537e+01	-3.910138e-05
1.505181e+01	-3.955438e-05
1.513875e+01	-4.001262e-05
1.522619e+01	-4.047618e-05
1.531414e+01	-4.094510e-05
1.540259e+01	-4.141946e-05
1.549156e+01	-4.189932e-05
1.558103e+01	-4.238473e-05
1.567103e+01	-4.287576e-05
1.576155e+01	-4.337249e-05
1.585258e+01	-4.387497e-05
1.594415e+01	-4.438327e-05
1.603624e+01	-4.489746e-05
1.612886e+01	-4.541761e-05
1.622202e+01	-4.594378e-05
1.631572e+01	-4.647605e-05
1.640996e+01	-4.701449e-05
1.650474e+01	-4.755916e-05
1.660008e+01	-4.811014e-05
1.669596e+01	-4.866751e-05
1.679239e+01	-4.923133e-05
1.688938e+01	-4.980169e-05
1.698694e+01	-5.037865e-05
1.708505e+01	-5.096230e-05
1.718373e+01	-5.155271e-05
1.728299e+01	-5.214996e-05
1.738281e+01	-5.275412e-05
1.748322e+01	-5.336529e-05
1.758420e+01	-5.398354e-05
1.768576e+01	-5.460895e-05
1.778792e+01	-5.524160e-05
1.789066e+01	-5.588159e-05
1.799399e+01	-5.652899e-05
1.809793e+01	-5.718389e-05
1.820246e+01	-5.784638e-05
1.830760e+01	-5.851654e-05
1.841334e+01	-5.919446e-05
1.851969e+01	-5.988024e-05
1.862666e+01	-6.057397e-05
1.873425e+01	-6.127573e-05
1.884246e+01	-6.198562e-05
1.895129e+01	-6.270374e-05
1.906075e+01	-6.343017e-05
1.917085e+01	-6.416502e-05
1.928158e+01	-6.490839e-05
1.939295e+01	-6.566036e-05
1.950496e+01	-6.642105e-05
1.961762e+01	-6.719055e-05
1.973093e+01	-6.796897e-05
1.984490e+01	-6.875640e-05
1.995952e+01	-6.955296e-05
2.007480e+01	-7.035874e-05
2.019076e+01	-7.117386e-05
2.030738e+01	-7.199842e-05
2.042467e+01	-7.283254e-05
2.054264e+01	-7.367631e-05
2.066130e+01	-7.452987e-05
2.078064e+01	-7.539331e-05
2.090066e+01	-7.626675e-05
2.102139e+01	-7.715032e-05
2.114280e+01	-7.804412e-05
2.126492e+01	-7.894827e-05
2.138775e+01	-7.986290e-05
2.151128e+01	-8.078813e-05
2.163553e+01	-8.172407e-05
2.176050e+01	-8.267086e-05
2.188619e+01	-8.362862e-05
2.201260e+01	-8.459747e-05
2.213974e+01	-8.557754e-05
2.226762e+01	-8.656897e-05
2.239624e+01	-8.757189e-05
2.252560e+01	-8.858642e-05
2.265571e+01	-8.961271e-05
2.278656e+01	-9.065089e-05
2.291818e+01	-9.170109e-05
2.305055e+01	-9.276346e-05
2.318369e+01	-9.383814e-05
2.331760e+01	-9.492527e-05
2.345228e+01	-9.602500e-05
2.358774e+01	-9.713746e-05
2.372398e+01	-9.826281e-05
2.386101e+01	-9.940120e-05
2.399883e+01	-1.005528e-04
2.413745e+01	-1.017177e-04
2.427686e+01	-1.028961e-04
2.441709e+01	-1.040882e-04
2.455812e+01	-1.052941e-04
2.469997e+01	-1.065139e-04
2.484263e+01	-1.077479e-04
2.498612e+01	-1.089962e-04
2.513044e+01	-1.102589e-04
2.527559e+01	-1.115362e-04
2.542158e+01	-1.128284e-04
2.556842e+01	-1.141355e-04
2.571610e+01	-1.154578e-04
2.586463e+01	-1.167954e-04
2.601403e+01	-1.181485e-04
2.616428e+01	-1.195173e-04
2.631541e+01	-1.209019e-04
2.646740e+01	-1.223025e-04
2.662028e+01	-1.237194e-04
2.677404e+01	-1.251527e-04
2.692868e+01	-1.266026e-04
2.708422e+01	-1.280694e-04
2.724066e+01	-1.295531e-04
2.739800e+01	-1.310539e-04
2.755625e+01	-1.325722e-04
2.771541e+01	-1.341081e-04
2.787550e+01	-1.356617e-04
2.803650e+01	-1.372334e-04
2.819844e+01	-1.388232e-04
2.836131e+01	-1.404315e-04
2.852513e+01	-1.420584e-04
2.868989e+01	-1.437042e-04
2.885560e+01	-1.453690e-04
2.902227e+01	-1.470531e-04
2.918990e+01	-1.487568e-04
2.935850e+01	-1.504801e-04
2.952807e+01	-1.522234e-04
2.969863e+01	-1.539870e-04
2.987016e+01	-1.557709e-04
3.004269e+01	-1.575755e-04
3.021622e+01	-1.594010e-04
3.039075e+01	-1.612477e-04
3.056628e+01	-1.631158e-04
3.074283e+01	-1.650055e-04
3.092040e+01	-1.669171e-04
3.109900e+01	-1.688508e-04
3.127862e+01	-1.708070e-04
3.145929e+01	-1.727858e-04
3.164099e+01	-1.747875e-04
3.182375e+01	-1.768124e-04
3.200756e+01	-1.788608e-04
3.219244e+01	-1.809329e-04
3.237838e+01	-1.830290e-04
3.256540e+01	-1.851494e-04
3.275349e+01	-1.872944e-04
3.294268e+01	-1.894642e-04
3.313295e+01	-1.916592e-04
3.332433e+01	-1.938795e-04
3.351681e+01	-1.961256e-04
3.371040e+01	-1.983977e-04
3.390511e+01	-2.006962e-04
3.410094e+01	-2.030213e-04
3.429791e+01	-2.053733e-04
3.449601e+01	-2.077525e-04
3.469526e+01	-2.101593e-04
3.489566e+01	-2.125940e-04
3.509721e+01	-2.150569e-04
3.529993e+01	-2.175483e-04
3.550382e+01	-2.200686e-04
3.570889e+01	-2.226181e-04
3.591515e+01	-2.251972e-04
3.612259e+01	-2.278061e-04
3.633123e+01	-2.304452e-04
3.654108e+01	-2.331149e-04
3.675214e+01	-2.358155e-04
3.696442e+01	-2.385474e-04
3.717792e+01	-2.413110e-04
3.739266e+01	-2.441066e-04
3.760864e+01	-2.469345e-04
3.782587e+01	-2.497952e-04
3.804435e+01	-2.526891e-04
3.826409e+01	-2.556165e-04
3.848510e+01	-2.585778e-04
3.870739e+01	-2.615734e-04
3.893096e+01	-2.646037e-04
3.915583e+01	-2.676691e-04
3.938199e+01	-2.707700e-04
3.960946e+01	-2.739069e-04
3.983824e+01	-2.770801e-04
4.006834e+01	-2.802900e-04
4.029978e+01	-2.835372e-04
4.053255e+01	-2.868219e-04
4.076666e+01	-2.901447e-04
4.100213e+01	-2.935060e-04
4.123896e+01	-2.969062e-04
4.147715e+01	-3.003459e-04
4.171672e+01	-3.038253e-04
4.195767e+01	-3.073451e-04
4.220002e+01	-3.109057e-04
4.244377e+01	-3.145075e-04
4.268892e+01	-3.181510e-04
4.293549e+01	-3.218367e-04
4.318348e+01	-3.255651e-04
4.343291e+01	-3.293368e-04
4.368377e+01	-3.331521e-04
4.393609e+01	-3.370116e-04
4.418986e+01	-3.409158e-04
4.444510e+01	-3.448652e-04
4.470182e+01	-3.488604e-04
4.496001e+01	-3.529019e-04
4.521970e+01	-3.569902e-04
4.548089e+01	-3.611259e-04
4.574358e+01	-3.653094e-04
4.600779e+01	-3.695415e-04
4.627353e+01	-3.738225e-04
4.654081e+01	-3.781532e-04
4.680963e+01	-3.825340e-04
4.708000e+01	-3.869656e-04
4.735193e+01	-3.914485e-04
4.762543e+01	-3.959833e-04
4.790051e+01	-4.005707e-04
4.817719e+01	-4.052112e-04
4.845545e+01	-4.099054e-04
4.873533e+01	-4.146541e-04
4.901682e+01	-4.194577e-04
4.929994e+01	-4.243170e-04
4.958470e+01	-4.292326e-04
4.987110e+01	-4.342051e-04
5.015915e+01	-4.392353e-04
5.044887e+01	-4.443237e-04
5.074026e+01	-4.494710e-04
5.103333e+01	-4.546780e-04
5.132810e+01	-4.599453e-04
5.162457e+01	-4.652736e-04
5.192275e+01	-4.706636e-04
5.222265e+01	-4.761161e-04
5.252429e+01	-4.816317e-04
5.282767e+01	-4.872112e-04
5.313280e+01	-4.928554e-04
5.343969e+01	-4.985649e-04
5.374836e+01	-5.043406e-04
5.405880e+01	-5.101832e-04
5.437105e+01	-5.160935e-04
5.468509e+01	-5.220722e-04
5.500095e+01	-5.281202e-04
5.531863e+01	-5.342382e-04
5.563815e+01	-5.404271e-04
5.595951e+01	-5.466877e-04
5.628273e+01	-5.530208e-04
5.660782e+01	-5.594273e-04
5.693479e+01	-5.659080e-04
5.726364e+01	-5.724638e-04
5.759439e+01	-5.790955e-04
5.792705e+01	-5.858040e-04
5.826164e+01	-5.925903e-04
5.859815e+01	-5.994551e-04
5.893662e+01	-6.063995e-04
5.927703e+01	-6.134243e-04
5.961941e+01	-6.205305e-04
5.996377e+01	-6.277190e-04
6.031012e+01	-6.349907e-04
6.065847e+01	-6.423467e-04
6.100883e+01	-6.497880e-04
6.136121e+01	-6.573154e-04
6.171563e+01	-6.649300e-04
6.207210e+01	-6.726328e-04
6.243063e+01	-6.804248e-04
6.279122e+01	-6.883071e-04
6.315390e+01	-6.962806e-04
6.351868e+01	-7.043466e-04
6.388556e+01	-7.125060e-04
6.425456e+01	-7.207599e-04
6.462569e+01	-7.291094e-04
6.499897e+01	-7.375556e-04
6.537440e+01	-7.460996e-04
6.575200e+01	-7.547426e-04
6.613178e+01	-7.634858e-04
6.651375e+01	-7.723302e-04
6.689793e+01	-7.812770e-04
6.728433e+01	-7.903275e-04
6.767297e+01	-7.994828e-04
6.806384e+01	-8.087442e-04
6.845698e+01	-8.181128e-04
6.885238e+01	-8.275900e-04
6.925007e+01	-8.371769e-04
6.965005e+01	-8.468749e-04
7.005235e+01	-8.566852e-04
7.045697e+01	-8.666092e-04
7.086393e+01	-8.766481e-04
7.127323e+01	-8.868032e-04
7.168490e+01	-8.970760e-04
7.209895e+01	-9.074678e-04
7.251539e+01	-9.179800e-04
7.293424e+01	-9.286139e-04
7.335551e+01	-9.393710e-04
7.377920e+01	-9.502526e-04
7.420535e+01	-9.612604e-04
7.463396e+01	-9.723956e-04
7.506504e+01	-9.836598e-04
7.549861e+01	-9.950544e-04
7.593469e+01	-1.006581e-03
7.637328e+01	-1.018241e-03
7.681441e+01	-1.030036e-03
7.725809e+01	-1.041968e-03
7.770433e+01	-1.054038e-03
7.815315e+01	-1.066248e-03
7.860456e+01	-1.078599e-03
7.905857e+01	-1.091094e-03
7.951521e+01	-1.103733e-03
7.997449e+01	-1.116518e-03
8.043642e+01	-1.129452e-03
8.090102e+01	-1.142535e-03
8.136830e+01	-1.155770e-03
8.183828e+01	-1.169158e-03
8.231097e+01	-1.182701e-03
8.278640e+01	-1.196401e-03
8.326457e+01	-1.210260e-03
8.374550e+01	-1.224279e-03
8.422921e+01	-1.238460e-03
8.471572e+01	-1.252806e-03
8.520503e+01	-1.267318e-03
8.569717e+01	-1.281998e-03
8.619215e+01	-1.296848e-03
8.669000e+01	-1.311870e-03
8.719071e+01	-1.327066e-03
8.769432e+01	-1.342438e-03
8.820084e+01	-1.357989e-03
8.871029e+01	-1.373719e-03
8.922267e+01	-1.389631e-03
8.973802e+01	-1.405728e-03
9.025634e+01	-1.422011e-03
9.077766e+01	-1.438482e-03
9.130199e+01	-1.455145e-03
9.182935e+01	-1.472000e-03
9.235975e+01	-1.489051e-03
9.289321e+01	-1.506299e-03
9.342976e+01	-1.523747e-03
9.396941e+01	-1.541397e-03
9.451217e+01	-1.559251e-03
9.505807e+01	-1.577312e-03
9.560712e+01	-1.595582e-03
9.615934e+01	-1.614064e-03
9.671476e+01	-1.632760e-03
9.727338e+01	-1.651672e-03
9.783522e+01	-1.670804e-03
9.840032e+01	-1.690157e-03
9.896867e+01	-1.709734e-03
9.954031e+01	-1.729537e-03
1.001153e+02	-1.749571e-03
1.006935e+02	-1.769836e-03
1.012751e+02	-1.790335e-03
1.018601e+02	-1.811073e-03
1.024484e+02	-1.832050e-03
1.030402e+02	-1.853270e-03
1.036353e+02	-1.874736e-03
1.042339e+02	-1.896451e-03
1.048360e+02	-1.918417e-03
1.054415e+02	-1.940637e-03
1.060505e+02	-1.963115e-03
1.066631e+02	-1.985853e-03
1.072791e+02	-2.008854e-03
1.078988e+02	-2.032122e-03
1.085220e+02	-2.055659e-03
1.091488e+02	-2.079469e-03
1.097793e+02	-2.103554e-03
1.104133e+02	-2.127918e-03
1.110511e+02	-2.152565e-03
1.116925e+02	-2.177496e-03
1.123376e+02	-2.202717e-03
1.129865e+02	-2.228229e-03
1.136391e+02	-2.254037e-03
1.142955e+02	-2.280144e-03
1.149556e+02	-2.306553e-03
1.156196e+02	-2.333268e-03
1.162874e+02	-2.360292e-03
1.169591e+02	-2.387629e-03
1.176347e+02	-2.415283e-03
1.183141e+02	-2.443257e-03
1.189975e+02	-2.471554e-03
1.196848e+02	-2.500180e-03
1.203761e+02	-2.529137e-03
1.210714e+02	-2.558429e-03
1.217707e+02	-2.588060e-03
1.224740e+02	-2.618034e-03
1.231814e+02	-2.648356e-03
1.238929e+02	-2.679028e-03
1.246085e+02	-2.710056e-03
1.253283e+02	-2.741442e-03
1.260522e+02	-2.773192e-03
1.267802e+02	-2.805310e-03
1.275125e+02	-2.837800e-03
1.282490e+02	-2.870666e-03
1.289898e+02	-2.903912e-03
1.297348e+02	-2.937543e-03
1.304842e+02	-2.971564e-03
1.312378e+02	-3.005978e-03
1.319959e+02	-3.040791e-03
1.327583e+02	-3.076007e-03
1.335251e+02	-3.111630e-03
1.342963e+02	-3.147666e-03
1.350720e+02	-3.184119e-03
1.358522e+02	-3.220995e-03
1.366368e+02	-3.258297e-03
1.374260e+02	-3.296031e-03
1.382198e+02	-3.334201e-03
1.390182e+02	-3.372814e-03
1.398211e+02	-3.411873e-03
1.406287e+02	-3.451385e-03
1.414410e+02	-3.491354e-03
1.422579e+02	-3.531786e-03
1.430796e+02	-3.572686e-03
1.439060e+02	-3.614059e-03
1.447372e+02	-3.655911e-03
1.455732e+02	-3.698248e-03
1.464141e+02	-3.741075e-03
1.472597e+02	-3.784397e-03
1.481103e+02	-3.828221e-03
1.489658e+02	-3.872552e-03
1.498262e+02	-3.917396e-03
1.506916e+02	-3.962760e-03
1.515620e+02	-4.008648e-03
1.524374e+02	-4.055067e-03
1.533179e+02	-4.102024e-03
1.542034e+02	-4.149524e-03
1.550941e+02	-4.197574e-03
1.559899e+02	-4.246181e-03
1.568909e+02	-4.295349e-03
1.577971e+02	-4.345087e-03
1.587085e+02	-4.395401e-03
1.596252e+02	-4.446296e-03
1.605472e+02	-4.497781e-03
1.614745e+02	-4.549862e-03
1.624072e+02	-4.602545e-03
1.633453e+02	-4.655838e-03
1.642887e+02	-4.709748e-03
1.652377e+02	-4.764282e-03
1.661921e+02	-4.819446e-03
1.671520e+02	-4.875249e-03
1.681175e+02	-4.931698e-03
1.690885e+02	-4.988800e-03
1.700651e+02	-5.046563e-03
1.710474e+02	-5.104995e-03
1.720354e+02	-5.164102e-03
1.730291e+02	-5.223893e-03
1.740285e+02	-5.284377e-03
1.750337e+02	-5.345560e-03
1.760446e+02	-5.407451e-03
1.770615e+02	-5.470058e-03
1.780842e+02	-5.533390e-03
1.791128e+02	-5.597454e-03
1.801473e+02	-5.662259e-03
1.811878e+02	-5.727815e-03
1.822344e+02	-5.794129e-03
1.832870e+02	-5.861210e-03
1.843456e+02	-5.929067e-03
1.854104e+02	-5.997709e-03
1.864813e+02	-6.067145e-03
1.875584e+02	-6.137385e-03
1.886418e+02	-6.208437e-03
1.897313e+02	-6.280312e-03
1.908272e+02	-6.353017e-03
1.919294e+02	-6.426564e-03
1.930380e+02	-6.500961e-03
1.941530e+02	-6.576220e-03
1.952744e+02	-6.652348e-03
1.964023e+02	-6.729358e-03
1.975367e+02	-6.807258e-03
1.986777e+02	-6.886059e-03
1.998252e+02	-6.965771e-03
2.009794e+02	-7.046406e-03
2.021403e+02	-7.127973e-03
2.033078e+02	-7.210484e-03
2.044821e+02	-7.293949e-03
2.056632e+02	-7.378379e-03
2.068511e+02	-7.463786e-03
2.080459e+02	-7.550180e-03
2.092475e+02	-7.637574e-03
2.104561e+02	-7.725978e-03
2.116717e+02	-7.815405e-03
2.128943e+02	-7.905866e-03
2.141240e+02	-7.997373e-03
2.153608e+02	-8.089938e-03
2.166047e+02	-8.183573e-03
2.178558e+02	-8.278291e-03
2.191141e+02	-8.374105e-03
2.203797e+02	-8.471026e-03
2.216526e+02	-8.569068e-03
2.229329e+02	-8.668243e-03
2.242205e+02	-8.768565e-03
2.255156e+02	-8.870047e-03
2.268182e+02	-8.972703e-03
2.281283e+02	-9.076545e-03
2.294459e+02	-9.181587e-03
2.307712e+02	-9.287844e-03
2.321041e+02	-9.395330e-03
2.334447e+02	-9.504057e-03
2.347931e+02	-9.614042e-03
2.361493e+02	-9.725298e-03
2.375133e+02	-9.837840e-03
2.388851e+02	-9.951683e-03
2.402649e+02	-1.006684e-02
2.416527e+02	-1.018333e-02
2.430484e+02	-1.030117e-02
2.444523e+02	-1.042037e-02
2.458642e+02	-1.054094e-02
2.472843e+02	-1.066291e-02
2.487126e+02	-1.078629e-02
2.501492e+02	-1.091109e-02
2.515940e+02	-1.103734e-02
2.530472e+02	-1.116505e-02
2.545088e+02	-1.129423e-02
2.559789e+02	-1.142490e-02
2.574574e+02	-1.155708e-02
2.589444e+02	-1.169080e-02
2.604401e+02	-1.182605e-02
2.619444e+02	-1.196287e-02
2.634574e+02	-1.210127e-02
2.649791e+02	-1.224127e-02
2.665096e+02	-1.238288e-02
2.680489e+02	-1.252613e-02
2.695972e+02	-1.267104e-02
2.711544e+02	-1.281762e-02
2.727205e+02	-1.296589e-02
2.742958e+02	-1.311588e-02
2.758801e+02	-1.326760e-02
2.774736e+02	-1.342107e-02
2.790762e+02	-1.357631e-02
2.806882e+02	-1.373334e-02
2.823094e+02	-1.389219e-02
2.839400e+02	-1.405288e-02
2.855800e+02	-1.421541e-02
2.872295e+02	-1.437983e-02
2.888886e+02	-1.454614e-02
2.905572e+02	-1.471438e-02
2.922354e+02	-1.488456e-02
2.939234e+02	-1.505670e-02
2.956211e+02	-1.523083e-02
2.973286e+02	-1.540696e-02
2.990459e+02	-1.558514e-02
3.007732e+02	-1.576537e-02
3.025104e+02	-1.594767e-02
3.042577e+02	-1.613209e-02
3.060151e+02	-1.631863e-02
3.077826e+02	-1.650733e-02
3.095604e+02	-1.669820e-02
3.113484e+02	-1.689127e-02
3.131467e+02	-1.708658e-02
3.149554e+02	-1.728413e-02
3.167746e+02	-1.748397e-02
3.186043e+02	-1.768611e-02
3.204445e+02	-1.789059e-02
3.222954e+02	-1.809742e-02
3.241570e+02	-1.830664e-02
3.260293e+02	-1.851827e-02
3.279124e+02	-1.873235e-02
3.298064e+02	-1.894889e-02
3.317114e+02	-1.916793e-02
3.336273e+02	-1.938950e-02
3.355544e+02	-1.961363e-02
3.374925e+02	-1.984033e-02
3.394418e+02	-2.006966e-02
3.414024e+02	-2.030162e-02
3.433744e+02	-2.053627e-02
3.453577e+02	-2.077361e-02
3.473525e+02	-2.101370e-02
3.493588e+02	-2.125655e-02
3.513766e+02	-2.150220e-02
3.534062e+02	-2.175068e-02
3.554474e+02	-2.200203e-02
3.575005e+02	-2.225627e-02
3.595654e+02	-2.251344e-02
3.616422e+02	-2.277358e-02
3.637311e+02	-2.303672e-02
3.658320e+02	-2.330289e-02
3.679450e+02	-2.357212e-02
3.700702e+02	-2.384446e-02
3.722077e+02	-2.411993e-02
3.743576e+02	-2.439858e-02
3.765199e+02	-2.468044e-02
3.786946e+02	-2.496554e-02
3.808820e+02	-2.525393e-02
3.830819e+02	-2.554564e-02
3.852946e+02	-2.584071e-02
3.875200e+02	-2.613918e-02
3.897583e+02	-2.644108e-02
3.920096e+02	-2.674646e-02
3.942738e+02	-2.705536e-02
3.965511e+02	-2.736781e-02
3.988416e+02	-2.768386e-02
4.011452e+02	-2.800355e-02
4.034622e+02	-2.832692e-02
4.057926e+02	-2.865401e-02
4.081365e+02	-2.898486e-02
4.104938e+02	-2.931952e-02
4.128648e+02	-2.965803e-02
4.152495e+02	-3.000043e-02
4.176480e+02	-3.034678e-02
4.200603e+02	-3.069711e-02
4.224866e+02	-3.105147e-02
4.249268e+02	-3.140990e-02
4.273812e+02	-3.177246e-02
4.298497e+02	-3.213918e-02
4.323325e+02	-3.251013e-02
4.348297e+02	-3.288534e-02
4.373412e+02	-3.326486e-02
4.398673e+02	-3.364874e-02
4.424079e+02	-3.403704e-02
4.449633e+02	-3.442980e-02
4.475334e+02	-3.482708e-02
4.501183e+02	-3.522892e-02
4.527182e+02	-3.563537e-02
4.553330e+02	-3.604650e-02
4.579630e+02	-3.646235e-02
4.606082e+02	-3.688298e-02
4.632687e+02	-3.730844e-02
4.659445e+02	-3.773878e-02
4.686358e+02	-3.817407e-02
4.713426e+02	-3.861435e-02
4.740650e+02	-3.905969e-02
4.768032e+02	-3.951015e-02
4.795572e+02	-3.996577e-02
4.823271e+02	-4.042663e-02
4.851130e+02	-4.089277e-02
4.879150e+02	-4.136426e-02
4.907332e+02	-4.184116e-02
4.935676e+02	-4.232354e-02
4.964185e+02	-4.281144e-02
4.992858e+02	-4.330495e-02
5.021696e+02	-4.380411e-02
5.050701e+02	-4.430900e-02
5.079874e+02	-4.481967e-02
5.109215e+02	-4.533621e-02
5.138726e+02	-4.585866e-02
5.168407e+02	-4.638710e-02
5.198259e+02	-4.692160e-02
5.228284e+02	-4.746222e-02
5.258482e+02	-4.800904e-02
5.288855e+02	-4.856212e-02
5.319403e+02	-4.912154e-02
5.350128e+02	-4.968736e-02
5.381030e+02	-5.025967e-02
5.412111e+02	-5.083852e-02
5.443371e+02	-5.142401e-02
5.474812e+02	-5.201619e-02
5.506434e+02	-5.261516e-02
5.538239e+02	-5.322098e-02
5.570228e+02	-5.383373e-02
5.602401e+02	-5.445349e-02
5.634760e+02	-5.508035e-02
5.667306e+02	-5.571437e-02
5.700040e+02	-5.635564e-02
5.732964e+02	-5.700424e-02
5.766077e+02	-5.766026e-02
5.799382e+02	-5.832378e-02
5.832879e+02	-5.899488e-02
5.866569e+02	-5.967365e-02
5.900454e+02	-6.036018e-02
5.934535e+02	-6.105455e-02
5.968813e+02	-6.175685e-02
6.003288e+02	-6.246717e-02
6.037963e+02	-6.318559e-02
6.072838e+02	-6.391223e-02
6.107914e+02	-6.464715e-02
6.143194e+02	-6.539046e-02
6.178676e+02	-6.614226e-02
6.214364e+02	-6.690263e-02
6.250258e+02	-6.767167e-02
6.286359e+02	-6.844948e-02
6.322669e+02	-6.923616e-02
6.359189e+02	-7.003181e-02
6.395919e+02	-7.083653e-02
6.432862e+02	-7.165042e-02
6.470017e+02	-7.247358e-02
6.507388e+02	-7.330612e-02
6.544974e+02	-7.414814e-02
6.582778e+02	-7.499975e-02
6.620800e+02	-7.586105e-02
6.659041e+02	-7.673216e-02
6.697504e+02	-7.761318e-02
6.736188e+02	-7.850422e-02
6.775096e+02	-7.940540e-02
6.814229e+02	-8.031683e-02
6.853587e+02	-8.123863e-02
6.893173e+02	-8.217090e-02
6.932988e+02	-8.311377e-02
6.973033e+02	-8.406735e-02
7.013309e+02	-8.503176e-02
