Frequency(Hz)	Magnitude(dB)
1.000000e+01	-2.100354e+00
1.005776e+01	-2.119524e+00
1.011585e+01	-2.139109e+00
1.017428e+01	-2.158640e+00
1.023305e+01	-2.178380e+00
1.029215e+01	-2.197997e+00
1.035160e+01	-2.217608e+00
1.041139e+01	-2.237946e+00
1.047153e+01	-2.258421e+00
1.053201e+01	-2.278573e+00
1.059284e+01	-2.299001e+00
1.065403e+01	-2.319594e+00
1.071556e+01	-2.340340e+00
1.077746e+01	-2.361341e+00
1.083971e+01	-2.382324e+00
1.090232e+01	-2.403522e+00
1.096529e+01	-2.425051e+00
1.102862e+01	-2.446538e+00
1.109232e+01	-2.468098e+00
1.115639e+01	-2.489800e+00
1.122083e+01	-2.511808e+00
1.128564e+01	-2.533704e+00
1.135083e+01	-2.555825e+00
1.141639e+01	-2.578353e+00
1.148233e+01	-2.600687e+00
1.154865e+01	-2.623292e+00
1.161536e+01	-2.646168e+00
1.168245e+01	-2.669019e+00
1.174992e+01	-2.692037e+00
1.181779e+01	-2.715370e+00
1.188605e+01	-2.738504e+00
1.195470e+01	-2.762002e+00
1.202375e+01	-2.785692e+00
1.209320e+01	-2.809546e+00
1.216305e+01	-2.833188e+00
1.223330e+01	-2.857366e+00
1.230396e+01	-2.881537e+00
1.237503e+01	-2.905709e+00
1.244651e+01	-2.930357e+00
1.251840e+01	-2.954680e+00
1.259070e+01	-2.979540e+00
1.266343e+01	-3.004558e+00
1.273657e+01	-3.029658e+00
1.281014e+01	-3.054767e+00
1.288413e+01	-3.080430e+00
1.295855e+01	-3.105849e+00
1.303339e+01	-3.131199e+00
1.310867e+01	-3.157038e+00
1.318439e+01	-3.182999e+00
1.326054e+01	-3.208964e+00
1.333713e+01	-3.235199e+00
1.341417e+01	-3.261441e+00
1.349165e+01	-3.287781e+00
1.356958e+01	-3.314694e+00
1.364795e+01	-3.341344e+00
1.372678e+01	-3.368306e+00
1.380607e+01	-3.395498e+00
1.388581e+01	-3.422776e+00
1.396602e+01	-3.450368e+00
1.404668e+01	-3.477479e+00
1.412782e+01	-3.505161e+00
1.420942e+01	-3.532678e+00
1.429149e+01	-3.560891e+00
1.437404e+01	-3.588820e+00
1.445706e+01	-3.616951e+00
1.454057e+01	-3.645290e+00
1.462455e+01	-3.674031e+00
1.470902e+01	-3.702504e+00
1.479398e+01	-3.731239e+00
1.487943e+01	-3.760319e+00
1.496537e+01	-3.789486e+00
1.505181e+01	-3.818413e+00
1.513875e+01	-3.847891e+00
1.522619e+01	-3.877353e+00
1.531414e+01	-3.906864e+00
1.540259e+01	-3.936427e+00
1.549156e+01	-3.966341e+00
1.558103e+01	-3.996600e+00
1.567103e+01	-4.026769e+00
1.576155e+01	-4.056736e+00
1.585258e+01	-4.087291e+00
1.594415e+01	-4.118154e+00
1.603624e+01	-4.148749e+00
1.612886e+01	-4.179492e+00
1.622202e+01	-4.210883e+00
1.631572e+01	-4.241629e+00
1.640996e+01	-4.273125e+00
1.650474e+01	-4.304472e+00
1.660008e+01	-4.336105e+00
1.669596e+01	-4.367457e+00
1.679239e+01	-4.399293e+00
1.688938e+01	-4.431259e+00
1.698694e+01	-4.463069e+00
1.708505e+01	-4.495557e+00
1.718373e+01	-4.527853e+00
1.728299e+01	-4.560407e+00
1.738281e+01	-4.592660e+00
1.748322e+01	-4.625552e+00
1.758420e+01	-4.658341e+00
1.768576e+01	-4.691367e+00
1.778792e+01	-4.724578e+00
1.789066e+01	-4.757846e+00
1.799399e+01	-4.791122e+00
1.809793e+01	-4.824675e+00
1.820246e+01	-4.858084e+00
1.830760e+01	-4.891830e+00
1.841334e+01	-4.926051e+00
1.851969e+01	-4.959981e+00
1.862666e+01	-4.993862e+00
1.873425e+01	-5.028129e+00
1.884246e+01	-5.062867e+00
1.895129e+01	-5.097114e+00
1.906075e+01	-5.131532e+00
1.917085e+01	-5.166192e+00
1.928158e+01	-5.201227e+00
1.939295e+01	-5.236190e+00
1.950496e+01	-5.271342e+00
1.961762e+01	-5.306618e+00
1.973093e+01	-5.341990e+00
1.984490e+01	-5.377365e+00
1.995952e+01	-5.413141e+00
2.007480e+01	-5.448791e+00
2.019076e+01	-5.484624e+00
2.030738e+01	-5.520363e+00
2.042467e+01	-5.556505e+00
2.054264e+01	-5.592536e+00
2.066130e+01	-5.628926e+00
2.078064e+01	-5.665410e+00
2.090066e+01	-5.701975e+00
2.102139e+01	-5.738395e+00
2.114280e+01	-5.775078e+00
2.126492e+01	-5.812046e+00
2.138775e+01	-5.849078e+00
2.151128e+01	-5.886469e+00
2.163553e+01	-5.923536e+00
2.176050e+01	-5.960759e+00
2.188619e+01	-5.998027e+00
2.201260e+01	-6.035167e+00
2.213974e+01	-6.073043e+00
2.226762e+01	-6.110912e+00
2.239624e+01	-6.148815e+00
2.252560e+01	-6.186470e+00
2.265571e+01	-6.224667e+00
2.278656e+01	-6.262717e+00
2.291818e+01	-6.301282e+00
2.305055e+01	-6.339334e+00
2.318369e+01	-6.377719e+00
2.331760e+01	-6.416348e+00
2.345228e+01	-6.455063e+00
2.358774e+01	-6.493867e+00
2.372398e+01	-6.532603e+00
2.386101e+01	-6.571686e+00
2.399883e+01	-6.610521e+00
2.413745e+01	-6.649992e+00
2.427686e+01	-6.688932e+00
2.441709e+01	-6.728470e+00
2.455812e+01	-6.767555e+00
2.469997e+01	-6.807415e+00
2.484263e+01	-6.847052e+00
2.498612e+01	-6.886812e+00
2.513044e+01	-6.926716e+00
2.527559e+01	-6.966909e+00
2.542158e+01	-7.006355e+00
2.556842e+01	-7.046450e+00
2.571610e+01	-7.086716e+00
2.586463e+01	-7.127142e+00
2.601403e+01	-7.167519e+00
2.616428e+01	-7.207944e+00
2.631541e+01	-7.248460e+00
2.646740e+01	-7.288861e+00
2.662028e+01	-7.329820e+00
2.677404e+01	-7.370839e+00
2.692868e+01	-7.411598e+00
2.708422e+01	-7.452593e+00
2.724066e+01	-7.493474e+00
2.739800e+01	-7.534666e+00
2.755625e+01	-7.576424e+00
2.771541e+01	-7.617414e+00
2.787550e+01	-7.658560e+00
2.803650e+01	-7.700013e+00
2.819844e+01	-7.741891e+00
2.836131e+01	-7.783530e+00
2.852513e+01	-7.825486e+00
2.868989e+01	-7.867239e+00
2.885560e+01	-7.909400e+00
2.902227e+01	-7.951312e+00
2.918990e+01	-7.992983e+00
2.935850e+01	-8.035169e+00
2.952807e+01	-8.077201e+00
2.969863e+01	-8.119454e+00
2.987016e+01	-8.161896e+00
3.004269e+01	-8.203842e+00
3.021622e+01	-8.247030e+00
3.039075e+01	-8.289482e+00
3.056628e+01	-8.331862e+00
3.074283e+01	-8.374791e+00
3.092040e+01	-8.417791e+00
3.109900e+01	-8.460289e+00
3.127862e+01	-8.503370e+00
3.145929e+01	-8.546379e+00
3.164099e+01	-8.590147e+00
3.182375e+01	-8.632386e+00
3.200756e+01	-8.675669e+00
3.219244e+01	-8.718949e+00
3.237838e+01	-8.762629e+00
3.256540e+01	-8.805797e+00
3.275349e+01	-8.849190e+00
3.294268e+01	-8.893139e+00
3.313295e+01	-8.936687e+00
3.332433e+01	-8.979943e+00
3.351681e+01	-9.024276e+00
3.371040e+01	-9.067788e+00
3.390511e+01	-9.111509e+00
3.410094e+01	-9.155226e+00
3.429791e+01	-9.199518e+00
3.449601e+01	-9.243185e+00
3.469526e+01	-9.287196e+00
3.489566e+01	-9.331905e+00
3.509721e+01	-9.375683e+00
3.529993e+01	-9.420617e+00
3.550382e+01	-9.464478e+00
3.570889e+01	-9.508959e+00
3.591515e+01	-9.553389e+00
3.612259e+01	-9.598462e+00
3.633123e+01	-9.642448e+00
3.654108e+01	-9.687451e+00
3.675214e+01	-9.731527e+00
3.696442e+01	-9.776231e+00
3.717792e+01	-9.821538e+00
3.739266e+01	-9.866180e+00
3.760864e+01	-9.910655e+00
3.782587e+01	-9.955497e+00
3.804435e+01	-1.000113e+01
3.826409e+01	-1.004617e+01
3.848510e+01	-1.009125e+01
3.870739e+01	-1.013662e+01
3.893096e+01	-1.018154e+01
3.915583e+01	-1.022589e+01
3.938199e+01	-1.027204e+01
3.960946e+01	-1.031706e+01
3.983824e+01	-1.036264e+01
4.006834e+01	-1.040793e+01
4.029978e+01	-1.045361e+01
4.053255e+01	-1.049882e+01
4.076666e+01	-1.054463e+01
4.100213e+01	-1.059018e+01
4.123896e+01	-1.063589e+01
4.147715e+01	-1.068214e+01
4.171672e+01	-1.072800e+01
4.195767e+01	-1.077352e+01
4.220002e+01	-1.081936e+01
4.244377e+01	-1.086482e+01
4.268892e+01	-1.091154e+01
4.293549e+01	-1.095663e+01
4.318348e+01	-1.100342e+01
4.343291e+01	-1.104926e+01
4.368377e+01	-1.109517e+01
4.393609e+01	-1.114170e+01
4.418986e+01	-1.118765e+01
4.444510e+01	-1.123378e+01
4.470182e+01	-1.128031e+01
4.496001e+01	-1.132639e+01
4.521970e+01	-1.137329e+01
4.548089e+01	-1.141920e+01
4.574358e+01	-1.146618e+01
4.600779e+01	-1.151201e+01
4.627353e+01	-1.155864e+01
4.654081e+01	-1.160551e+01
4.680963e+01	-1.165226e+01
4.708000e+01	-1.169868e+01
4.735193e+01	-1.174481e+01
4.762543e+01	-1.179232e+01
4.790051e+01	-1.183866e+01
4.817719e+01	-1.188553e+01
4.845545e+01	-1.193231e+01
4.873533e+01	-1.197878e+01
4.901682e+01	-1.202580e+01
4.929994e+01	-1.207257e+01
4.958470e+01	-1.211969e+01
4.987110e+01	-1.216699e+01
5.015915e+01	-1.221389e+01
5.044887e+01	-1.226076e+01
5.074026e+01	-1.230801e+01
5.103333e+01	-1.235467e+01
5.132810e+01	-1.240273e+01
5.162457e+01	-1.244911e+01
5.192275e+01	-1.249591e+01
5.222265e+01	-1.254323e+01
5.252429e+01	-1.259099e+01
5.282767e+01	-1.263747e+01
5.313280e+01	-1.268592e+01
5.343969e+01	-1.273255e+01
5.374836e+01	-1.278062e+01
5.405880e+01	-1.282751e+01
5.437105e+01	-1.287522e+01
5.468509e+01	-1.292242e+01
5.500095e+01	-1.296977e+01
5.531863e+01	-1.301745e+01
5.563815e+01	-1.306509e+01
5.595951e+01	-1.311331e+01
5.628273e+01	-1.316015e+01
5.660782e+01	-1.320803e+01
5.693479e+01	-1.325517e+01
5.726364e+01	-1.330338e+01
5.759439e+01	-1.335075e+01
5.792705e+01	-1.339854e+01
5.826164e+01	-1.344602e+01
5.859815e+01	-1.349402e+01
5.893662e+01	-1.354172e+01
5.927703e+01	-1.358950e+01
5.961941e+01	-1.363787e+01
5.996377e+01	-1.368609e+01
6.031012e+01	-1.373362e+01
6.065847e+01	-1.378232e+01
6.100883e+01	-1.382860e+01
6.136121e+01	-1.387760e+01
6.171563e+01	-1.392560e+01
6.207210e+01	-1.397266e+01
6.243063e+01	-1.402163e+01
6.279122e+01	-1.406866e+01
6.315390e+01	-1.411688e+01
6.351868e+01	-1.416561e+01
6.388556e+01	-1.421316e+01
6.425456e+01	-1.426166e+01
6.462569e+01	-1.431040e+01
6.499897e+01	-1.435880e+01
6.537440e+01	-1.440550e+01
6.575200e+01	-1.445439e+01
6.613178e+01	-1.450307e+01
6.651375e+01	-1.455087e+01
6.689793e+01	-1.459972e+01
6.728433e+01	-1.464778e+01
6.767297e+01	-1.469592e+01
6.806384e+01	-1.474397e+01
6.845698e+01	-1.479199e+01
6.885238e+01	-1.484083e+01
6.925007e+01	-1.488960e+01
6.965005e+01	-1.493733e+01
7.005235e+01	-1.498691e+01
7.045697e+01	-1.503492e+01
7.086393e+01	-1.508344e+01
7.127323e+01	-1.513150e+01
7.168490e+01	-1.518020e+01
7.209895e+01	-1.522874e+01
7.251539e+01	-1.527714e+01
7.293424e+01	-1.532608e+01
7.335551e+01	-1.537428e+01
7.377920e+01	-1.542346e+01
7.420535e+01	-1.547157e+01
7.463396e+01	-1.552056e+01
7.506504e+01	-1.556956e+01
7.549861e+01	-1.561841e+01
7.593469e+01	-1.566695e+01
7.637328e+01	-1.571510e+01
7.681441e+01	-1.576430e+01
7.725809e+01	-1.581203e+01
7.770433e+01	-1.586197e+01
7.815315e+01	-1.591018e+01
7.860456e+01	-1.595874e+01
7.905857e+01	-1.600769e+01
7.951521e+01	-1.605666e+01
7.997449e+01	-1.610497e+01
8.043642e+01	-1.615377e+01
8.090102e+01	-1.620223e+01
8.136830e+01	-1.625139e+01
8.183828e+01	-1.629944e+01
8.231097e+01	-1.634941e+01
8.278640e+01	-1.639768e+01
8.326457e+01	-1.644571e+01
8.374550e+01	-1.649603e+01
8.422921e+01	-1.654416e+01
8.471572e+01	-1.659361e+01
8.520503e+01	-1.664266e+01
8.569717e+01	-1.669091e+01
8.619215e+01	-1.674043e+01
8.669000e+01	-1.678951e+01
8.719071e+01	-1.683865e+01
8.769432e+01	-1.688796e+01
8.820084e+01	-1.693707e+01
8.871029e+01	-1.698579e+01
8.922267e+01	-1.703351e+01
8.973802e+01	-1.708297e+01
9.025634e+01	-1.713266e+01
9.077766e+01	-1.718186e+01
9.130199e+01	-1.722976e+01
9.182935e+01	-1.728062e+01
9.235975e+01	-1.732910e+01
9.289321e+01	-1.737814e+01
9.342976e+01	-1.742797e+01
9.396941e+01	-1.747541e+01
9.451217e+01	-1.752632e+01
9.505807e+01	-1.757423e+01
9.560712e+01	-1.762265e+01
9.615934e+01	-1.767278e+01
9.671476e+01	-1.772161e+01
9.727338e+01	-1.777147e+01
9.783522e+01	-1.781992e+01
9.840032e+01	-1.787005e+01
9.896867e+01	-1.791838e+01
9.954031e+01	-1.796779e+01
1.001153e+02	-1.801822e+01
1.006935e+02	-1.806666e+01
1.012751e+02	-1.811577e+01
1.018601e+02	-1.816538e+01
1.024484e+02	-1.821427e+01
1.030402e+02	-1.826221e+01
1.036353e+02	-1.831362e+01
1.042339e+02	-1.836372e+01
1.048360e+02	-1.841151e+01
1.054415e+02	-1.846161e+01
1.060505e+02	-1.851115e+01
1.066631e+02	-1.855966e+01
1.072791e+02	-1.860907e+01
1.078988e+02	-1.865645e+01
1.085220e+02	-1.870774e+01
1.091488e+02	-1.875699e+01
1.097793e+02	-1.880676e+01
1.104133e+02	-1.885558e+01
1.110511e+02	-1.890520e+01
1.116925e+02	-1.895313e+01
1.123376e+02	-1.900386e+01
1.129865e+02	-1.905302e+01
1.136391e+02	-1.910268e+01
1.142955e+02	-1.915130e+01
1.149556e+02	-1.920272e+01
1.156196e+02	-1.925099e+01
1.162874e+02	-1.930112e+01
1.169591e+02	-1.934913e+01
1.176347e+02	-1.939988e+01
1.183141e+02	-1.944837e+01
1.189975e+02	-1.949761e+01
1.196848e+02	-1.954835e+01
1.203761e+02	-1.959578e+01
1.210714e+02	-1.964628e+01
1.217707e+02	-1.969609e+01
1.224740e+02	-1.974542e+01
1.231814e+02	-1.979607e+01
1.238929e+02	-1.984429e+01
1.246085e+02	-1.989403e+01
1.253283e+02	-1.994382e+01
1.260522e+02	-1.999427e+01
1.267802e+02	-2.004377e+01
1.275125e+02	-2.009327e+01
1.282490e+02	-2.014140e+01
1.289898e+02	-2.019183e+01
1.297348e+02	-2.024183e+01
1.304842e+02	-2.029139e+01
1.312378e+02	-2.034187e+01
1.319959e+02	-2.038944e+01
1.327583e+02	-2.043936e+01
1.335251e+02	-2.048809e+01
1.342963e+02	-2.053819e+01
1.350720e+02	-2.058791e+01
1.358522e+02	-2.063745e+01
1.366368e+02	-2.068646e+01
1.374260e+02	-2.073576e+01
1.382198e+02	-2.078655e+01
1.390182e+02	-2.083675e+01
1.398211e+02	-2.088700e+01
1.406287e+02	-2.093617e+01
1.414410e+02	-2.098387e+01
1.422579e+02	-2.103522e+01
1.430796e+02	-2.108324e+01
1.439060e+02	-2.113395e+01
1.447372e+02	-2.118244e+01
1.455732e+02	-2.123316e+01
1.464141e+02	-2.128384e+01
1.472597e+02	-2.133173e+01
1.481103e+02	-2.138199e+01
1.489658e+02	-2.143158e+01
1.498262e+02	-2.148162e+01
1.506916e+02	-2.153086e+01
1.515620e+02	-2.158131e+01
1.524374e+02	-2.162978e+01
1.533179e+02	-2.167885e+01
1.542034e+02	-2.172936e+01
1.550941e+02	-2.177926e+01
1.559899e+02	-2.182989e+01
1.568909e+02	-2.187975e+01
1.577971e+02	-2.193059e+01
1.587085e+02	-2.197881e+01
1.596252e+02	-2.202973e+01
1.605472e+02	-2.207828e+01
1.614745e+02	-2.212877e+01
1.624072e+02	-2.217835e+01
1.633453e+02	-2.222902e+01
1.642887e+02	-2.227642e+01
1.652377e+02	-2.232640e+01
1.661921e+02	-2.237904e+01
1.671520e+02	-2.242780e+01
1.681175e+02	-2.247487e+01
1.690885e+02	-2.252667e+01
1.700651e+02	-2.257585e+01
1.710474e+02	-2.262624e+01
1.720354e+02	-2.267476e+01
1.730291e+02	-2.272663e+01
1.740285e+02	-2.277558e+01
1.750337e+02	-2.282395e+01
1.760446e+02	-2.287539e+01
1.770615e+02	-2.292584e+01
1.780842e+02	-2.297668e+01
1.791128e+02	-2.302412e+01
1.801473e+02	-2.307383e+01
1.811878e+02	-2.312222e+01
1.822344e+02	-2.317517e+01
1.832870e+02	-2.322257e+01
1.843456e+02	-2.327433e+01
1.854104e+02	-2.332356e+01
1.864813e+02	-2.337131e+01
1.875584e+02	-2.342090e+01
1.886418e+02	-2.347244e+01
1.897313e+02	-2.352194e+01
1.908272e+02	-2.357313e+01
1.919294e+02	-2.362390e+01
1.930380e+02	-2.367187e+01
1.941530e+02	-2.372043e+01
1.952744e+02	-2.377240e+01
1.964023e+02	-2.382350e+01
1.975367e+02	-2.387123e+01
1.986777e+02	-2.391903e+01
1.998252e+02	-2.397135e+01
2.009794e+02	-2.401878e+01
2.021403e+02	-2.407362e+01
2.033078e+02	-2.412020e+01
2.044821e+02	-2.417181e+01
2.056632e+02	-2.421960e+01
2.068511e+02	-2.427036e+01
2.080459e+02	-2.431973e+01
2.092475e+02	-2.437124e+01
2.104561e+02	-2.442185e+01
2.116717e+02	-2.447075e+01
2.128943e+02	-2.451845e+01
2.141240e+02	-2.457108e+01
2.153608e+02	-2.461900e+01
2.166047e+02	-2.466860e+01
2.178558e+02	-2.471952e+01
2.191141e+02	-2.476876e+01
2.203797e+02	-2.481789e+01
2.216526e+02	-2.486849e+01
2.229329e+02	-2.491689e+01
2.242205e+02	-2.496879e+01
2.255156e+02	-2.501877e+01
2.268182e+02	-2.506851e+01
2.281283e+02	-2.511811e+01
2.294459e+02	-2.516715e+01
2.307712e+02	-2.521826e+01
2.321041e+02	-2.526749e+01
2.334447e+02	-2.531648e+01
2.347931e+02	-2.536790e+01
2.361493e+02	-2.541443e+01
2.375133e+02	-2.546561e+01
2.388851e+02	-2.551565e+01
2.402649e+02	-2.556531e+01
2.416527e+02	-2.561838e+01
2.430484e+02	-2.566855e+01
2.444523e+02	-2.571788e+01
2.458642e+02	-2.576548e+01
2.472843e+02	-2.581449e+01
2.487126e+02	-2.586513e+01
2.501492e+02	-2.591738e+01
2.515940e+02	-2.596697e+01
2.530472e+02	-2.601593e+01
2.545088e+02	-2.606562e+01
2.559789e+02	-2.611770e+01
2.574574e+02	-2.616741e+01
2.589444e+02	-2.621754e+01
2.604401e+02	-2.626431e+01
2.619444e+02	-2.631829e+01
2.634574e+02	-2.636388e+01
2.649791e+02	-2.642147e+01
2.665096e+02	-2.646899e+01
2.680489e+02	-2.651584e+01
2.695972e+02	-2.656299e+01
2.711544e+02	-2.661439e+01
2.727205e+02	-2.666514e+01
2.742958e+02	-2.671473e+01
2.758801e+02	-2.676678e+01
2.774736e+02	-2.681590e+01
2.790762e+02	-2.686806e+01
2.806882e+02	-2.691515e+01
2.823094e+02	-2.696590e+01
2.839400e+02	-2.701700e+01
2.855800e+02	-2.706595e+01
2.872295e+02	-2.711434e+01
2.888886e+02	-2.716137e+01
2.905572e+02	-2.721839e+01
2.922354e+02	-2.726795e+01
2.939234e+02	-2.731367e+01
2.956211e+02	-2.736285e+01
2.973286e+02	-2.741536e+01
2.990459e+02	-2.746810e+01
3.007732e+02	-2.751540e+01
3.025104e+02	-2.756374e+01
3.042577e+02	-2.761674e+01
3.060151e+02	-2.766945e+01
3.077826e+02	-2.771856e+01
3.095604e+02	-2.776665e+01
3.113484e+02	-2.781422e+01
3.131467e+02	-2.786312e+01
3.149554e+02	-2.791543e+01
3.167746e+02	-2.796399e+01
3.186043e+02	-2.801685e+01
3.204445e+02	-2.806495e+01
3.222954e+02	-2.811656e+01
3.241570e+02	-2.816507e+01
3.260293e+02	-2.821863e+01
3.279124e+02	-2.826835e+01
3.298064e+02	-2.831283e+01
3.317114e+02	-2.836485e+01
3.336273e+02	-2.841929e+01
3.355544e+02	-2.846912e+01
3.374925e+02	-2.851649e+01
3.394418e+02	-2.856379e+01
3.414024e+02	-2.861514e+01
3.433744e+02	-2.867122e+01
3.453577e+02	-2.871683e+01
3.473525e+02	-2.877024e+01
3.493588e+02	-2.881980e+01
3.513766e+02	-2.886498e+01
3.534062e+02	-2.891717e+01
3.554474e+02	-2.896533e+01
3.575005e+02	-2.901569e+01
3.595654e+02	-2.906824e+01
3.616422e+02	-2.911996e+01
3.637311e+02	-2.916628e+01
3.658320e+02	-2.921321e+01
3.679450e+02	-2.927023e+01
3.700702e+02	-2.932051e+01
3.722077e+02	-2.936775e+01
3.743576e+02	-2.941356e+01
3.765199e+02	-2.947081e+01
3.786946e+02	-2.951560e+01
3.808820e+02	-2.956813e+01
3.830819e+02	-2.961779e+01
3.852946e+02	-2.967058e+01
3.875200e+02	-2.971963e+01
3.897583e+02	-2.976615e+01
3.920096e+02	-2.981464e+01
3.942738e+02	-2.987105e+01
3.965511e+02	-2.992019e+01
3.988416e+02	-2.997045e+01
4.011452e+02	-3.001782e+01
4.034622e+02	-3.006984e+01
4.057926e+02	-3.011982e+01
4.081365e+02	-3.017064e+01
4.104938e+02	-3.022257e+01
4.128648e+02	-3.026822e+01
4.152495e+02	-3.031853e+01
4.176480e+02	-3.037483e+01
4.200603e+02	-3.041753e+01
4.224866e+02	-3.047067e+01
4.249268e+02	-3.051533e+01
4.273812e+02	-3.056968e+01
4.298497e+02	-3.061768e+01
4.323325e+02	-3.066528e+01
4.348297e+02	-3.072123e+01
4.373412e+02	-3.077202e+01
4.398673e+02	-3.082369e+01
4.424079e+02	-3.086895e+01
4.449633e+02	-3.092114e+01
4.475334e+02	-3.097025e+01
4.501183e+02	-3.101932e+01
4.527182e+02	-3.107302e+01
4.553330e+02	-3.112388e+01
4.579630e+02	-3.117381e+01
4.606082e+02	-3.122105e+01
4.632687e+02	-3.127195e+01
4.659445e+02	-3.132611e+01
4.686358e+02	-3.137030e+01
4.713426e+02	-3.142397e+01
4.740650e+02	-3.147287e+01
4.768032e+02	-3.152292e+01
4.795572e+02	-3.158049e+01
4.823271e+02	-3.162131e+01
4.851130e+02	-3.166780e+01
4.879150e+02	-3.172490e+01
4.907332e+02	-3.177836e+01
4.935676e+02	-3.182651e+01
4.964185e+02	-3.187365e+01
4.992858e+02	-3.192304e+01
5.021696e+02	-3.197988e+01
5.050701e+02	-3.202656e+01
5.079874e+02	-3.207383e+01
5.109215e+02	-3.212662e+01
5.138726e+02	-3.217094e+01
5.168407e+02	-3.222146e+01
5.198259e+02	-3.227201e+01
5.228284e+02	-3.232579e+01
5.258482e+02	-3.237451e+01
5.288855e+02	-3.242246e+01
5.319403e+02	-3.247941e+01
5.350128e+02	-3.252423e+01
5.381030e+02	-3.257450e+01
5.412111e+02	-3.262445e+01
5.443371e+02	-3.268092e+01
5.474812e+02	-3.272623e+01
5.506434e+02	-3.277833e+01
5.538239e+02	-3.283098e+01
5.570228e+02	-3.288355e+01
5.602401e+02	-3.292958e+01
5.634760e+02	-3.297746e+01
5.667306e+02	-3.302934e+01
5.700040e+02	-3.308795e+01
5.732964e+02	-3.313004e+01
5.766077e+02	-3.317665e+01
5.799382e+02	-3.322426e+01
5.832879e+02	-3.328263e+01
5.866569e+02	-3.332646e+01
5.900454e+02	-3.338417e+01
5.934535e+02	-3.343712e+01
5.968813e+02	-3.347496e+01
6.003288e+02	-3.353041e+01
6.037963e+02	-3.357591e+01
6.072838e+02	-3.363387e+01
6.107914e+02	-3.367452e+01
6.143194e+02	-3.373229e+01
6.178676e+02	-3.378114e+01
6.214364e+02	-3.383491e+01
6.250258e+02	-3.388356e+01
6.286359e+02	-3.393173e+01
6.322669e+02	-3.398226e+01
6.359189e+02	-3.403557e+01
6.395919e+02	-3.408796e+01
6.432862e+02	-3.413162e+01
6.470017e+02	-3.418134e+01
6.507388e+02	-3.424089e+01
6.544974e+02	-3.427937e+01
6.582778e+02	-3.434433e+01
6.620800e+02	-3.439078e+01
6.659041e+02	-3.444123e+01
6.697504e+02	-3.448683e+01
6.736188e+02	-3.454058e+01
6.775096e+02	-3.459213e+01
6.814229e+02	-3.463421e+01
6.853587e+02	-3.469193e+01
6.893173e+02	-3.474119e+01
6.932988e+02	-3.478824e+01
6.973033e+02	-3.484340e+01
7.013309e+02	-3.489291e+01
