Frequency(Hz)	Magnitude(dB)
1.000000e+01	-1.636962e-05
1.005776e+01	-1.655927e-05
1.011585e+01	-1.675111e-05
1.017428e+01	-1.694518e-05
1.023305e+01	-1.714149e-05
1.029215e+01	-1.734008e-05
1.035160e+01	-1.754097e-05
1.041139e+01	-1.774419e-05
1.047153e+01	-1.794976e-05
1.053201e+01	-1.815771e-05
1.059284e+01	-1.836807e-05
1.065403e+01	-1.858087e-05
1.071556e+01	-1.879614e-05
1.077746e+01	-1.901390e-05
1.083971e+01	-1.923418e-05
1.090232e+01	-1.945701e-05
1.096529e+01	-1.968242e-05
1.102862e+01	-1.991045e-05
1.109232e+01	-2.014112e-05
1.115639e+01	-2.037446e-05
1.122083e+01	-2.061050e-05
1.128564e+01	-2.084928e-05
1.135083e+01	-2.109082e-05
1.141639e+01	-2.133516e-05
1.148233e+01	-2.158234e-05
1.154865e+01	-2.183237e-05
1.161536e+01	-2.208531e-05
1.168245e+01	-2.234117e-05
1.174992e+01	-2.260000e-05
1.181779e+01	-2.286183e-05
1.188605e+01	-2.312669e-05
1.195470e+01	-2.339462e-05
1.202375e+01	-2.366565e-05
1.209320e+01	-2.393982e-05
1.216305e+01	-2.421717e-05
1.223330e+01	-2.449773e-05
1.230396e+01	-2.478154e-05
1.237503e+01	-2.506864e-05
1.244651e+01	-2.535907e-05
1.251840e+01	-2.565286e-05
1.259070e+01	-2.595006e-05
1.266343e+01	-2.625069e-05
1.273657e+01	-2.655481e-05
1.281014e+01	-2.686246e-05
1.288413e+01	-2.717367e-05
1.295855e+01	-2.748848e-05
1.303339e+01	-2.780694e-05
1.310867e+01	-2.812909e-05
1.318439e+01	-2.845497e-05
1.326054e+01	-2.878463e-05
1.333713e+01	-2.911811e-05
1.341417e+01	-2.945545e-05
1.349165e+01	-2.979670e-05
1.356958e+01	-3.014190e-05
1.364795e+01	-3.049110e-05
1.372678e+01	-3.084435e-05
1.380607e+01	-3.120169e-05
1.388581e+01	-3.156316e-05
1.396602e+01	-3.192883e-05
1.404668e+01	-3.229873e-05
1.412782e+01	-3.267292e-05
1.420942e+01	-3.305145e-05
1.429149e+01	-3.343435e-05
1.437404e+01	-3.382170e-05
1.445706e+01	-3.421353e-05
1.454057e+01	-3.460990e-05
1.462455e+01	-3.501087e-05
1.470902e+01	-3.541648e-05
1.479398e+01	-3.582678e-05
1.487943e+01	-3.624185e-05
1.496537e+01	-3.666172e-05
1.505181e+01	-3.708645e-05
1.513875e+01	-3.751611e-05
1.522619e+01	-3.795074e-05
1.531414e+01	-3.839041e-05
1.540259e+01	-3.883517e-05
1.549156e+01	-3.928508e-05
1.558103e+01	-3.974021e-05
1.567103e+01	-4.020061e-05
1.576155e+01	-4.066634e-05
1.585258e+01	-4.113747e-05
1.594415e+01	-4.161406e-05
1.603624e+01	-4.209616e-05
1.612886e+01	-4.258386e-05
1.622202e+01	-4.307720e-05
1.631572e+01	-4.357626e-05
1.640996e+01	-4.408110e-05
1.650474e+01	-4.459179e-05
1.660008e+01	-4.510840e-05
1.669596e+01	-4.563099e-05
1.679239e+01	-4.615963e-05
1.688938e+01	-4.669440e-05
1.698694e+01	-4.723537e-05
1.708505e+01	-4.778260e-05
1.718373e+01	-4.833617e-05
1.728299e+01	-4.889615e-05
1.738281e+01	-4.946263e-05
1.748322e+01	-5.003566e-05
1.758420e+01	-5.061534e-05
1.768576e+01	-5.120173e-05
1.778792e+01	-5.179491e-05
1.789066e+01	-5.239496e-05
1.799399e+01	-5.300197e-05
1.809793e+01	-5.361601e-05
1.820246e+01	-5.423716e-05
1.830760e+01	-5.486551e-05
1.841334e+01	-5.550114e-05
1.851969e+01	-5.614413e-05
1.862666e+01	-5.679457e-05
1.873425e+01	-5.745255e-05
1.884246e+01	-5.811815e-05
1.895129e+01	-5.879146e-05
1.906075e+01	-5.947257e-05
1.917085e+01	-6.016157e-05
1.928158e+01	-6.085855e-05
1.939295e+01	-6.156361e-05
1.950496e+01	-6.227684e-05
1.961762e+01	-6.299833e-05
1.973093e+01	-6.372818e-05
1.984490e+01	-6.446648e-05
1.995952e+01	-6.521334e-05
2.007480e+01	-6.596884e-05
2.019076e+01	-6.673311e-05
2.030738e+01	-6.750622e-05
2.042467e+01	-6.828829e-05
2.054264e+01	-6.907943e-05
2.066130e+01	-6.987973e-05
2.078064e+01	-7.068929e-05
2.090066e+01	-7.150824e-05
2.102139e+01	-7.233668e-05
2.114280e+01	-7.317471e-05
2.126492e+01	-7.402246e-05
2.138775e+01	-7.488002e-05
2.151128e+01	-7.574752e-05
2.163553e+01	-7.662507e-05
2.176050e+01	-7.751278e-05
2.188619e+01	-7.841078e-05
2.201260e+01	-7.931918e-05
2.213974e+01	-8.023811e-05
2.226762e+01	-8.116768e-05
2.239624e+01	-8.210802e-05
2.252560e+01	-8.305926e-05
2.265571e+01	-8.402151e-05
2.278656e+01	-8.499492e-05
2.291818e+01	-8.597960e-05
2.305055e+01	-8.697568e-05
2.318369e+01	-8.798331e-05
2.331760e+01	-8.900261e-05
2.345228e+01	-9.003372e-05
2.358774e+01	-9.107678e-05
2.372398e+01	-9.213192e-05
2.386101e+01	-9.319928e-05
2.399883e+01	-9.427901e-05
2.413745e+01	-9.537124e-05
2.427686e+01	-9.647613e-05
2.441709e+01	-9.759382e-05
2.455812e+01	-9.872446e-05
2.469997e+01	-9.986820e-05
2.484263e+01	-1.010252e-04
2.498612e+01	-1.021956e-04
2.513044e+01	-1.033795e-04
2.527559e+01	-1.045772e-04
2.542158e+01	-1.057887e-04
2.556842e+01	-1.070143e-04
2.571610e+01	-1.082541e-04
2.586463e+01	-1.095082e-04
2.601403e+01	-1.107769e-04
2.616428e+01	-1.120603e-04
2.631541e+01	-1.133585e-04
2.646740e+01	-1.146718e-04
2.662028e+01	-1.160002e-04
2.677404e+01	-1.173441e-04
2.692868e+01	-1.187036e-04
2.708422e+01	-1.200788e-04
2.724066e+01	-1.214699e-04
2.739800e+01	-1.228771e-04
2.755625e+01	-1.243007e-04
2.771541e+01	-1.257407e-04
2.787550e+01	-1.271974e-04
2.803650e+01	-1.286710e-04
2.819844e+01	-1.301617e-04
2.836131e+01	-1.316696e-04
2.852513e+01	-1.331950e-04
2.868989e+01	-1.347381e-04
2.885560e+01	-1.362991e-04
2.902227e+01	-1.378781e-04
2.918990e+01	-1.394754e-04
2.935850e+01	-1.410913e-04
2.952807e+01	-1.427258e-04
2.969863e+01	-1.443793e-04
2.987016e+01	-1.460520e-04
3.004269e+01	-1.477440e-04
3.021622e+01	-1.494556e-04
3.039075e+01	-1.511871e-04
3.056628e+01	-1.529386e-04
3.074283e+01	-1.547104e-04
3.092040e+01	-1.565027e-04
3.109900e+01	-1.583158e-04
3.127862e+01	-1.601499e-04
3.145929e+01	-1.620053e-04
3.164099e+01	-1.638821e-04
3.182375e+01	-1.657807e-04
3.200756e+01	-1.677013e-04
3.219244e+01	-1.696441e-04
3.237838e+01	-1.716094e-04
3.256540e+01	-1.735975e-04
3.275349e+01	-1.756087e-04
3.294268e+01	-1.776431e-04
3.313295e+01	-1.797011e-04
3.332433e+01	-1.817830e-04
3.351681e+01	-1.838889e-04
3.371040e+01	-1.860193e-04
3.390511e+01	-1.881743e-04
3.410094e+01	-1.903543e-04
3.429791e+01	-1.925596e-04
3.449601e+01	-1.947904e-04
3.469526e+01	-1.970470e-04
3.489566e+01	-1.993298e-04
3.509721e+01	-2.016391e-04
3.529993e+01	-2.039751e-04
3.550382e+01	-2.063381e-04
3.570889e+01	-2.087285e-04
3.591515e+01	-2.111467e-04
3.612259e+01	-2.135928e-04
3.633123e+01	-2.160673e-04
3.654108e+01	-2.185704e-04
3.675214e+01	-2.211025e-04
3.696442e+01	-2.236640e-04
3.717792e+01	-2.262551e-04
3.739266e+01	-2.288763e-04
3.760864e+01	-2.315278e-04
3.782587e+01	-2.342101e-04
3.804435e+01	-2.369234e-04
3.826409e+01	-2.396681e-04
3.848510e+01	-2.424447e-04
3.870739e+01	-2.452534e-04
3.893096e+01	-2.480946e-04
3.915583e+01	-2.509688e-04
3.938199e+01	-2.538762e-04
3.960946e+01	-2.568174e-04
3.983824e+01	-2.597926e-04
4.006834e+01	-2.628023e-04
4.029978e+01	-2.658468e-04
4.053255e+01	-2.689266e-04
4.076666e+01	-2.720421e-04
4.100213e+01	-2.751937e-04
4.123896e+01	-2.783818e-04
4.147715e+01	-2.816068e-04
4.171672e+01	-2.848692e-04
4.195767e+01	-2.881694e-04
4.220002e+01	-2.915078e-04
4.244377e+01	-2.948849e-04
4.268892e+01	-2.983011e-04
4.293549e+01	-3.017569e-04
4.318348e+01	-3.052527e-04
4.343291e+01	-3.087890e-04
4.368377e+01	-3.123663e-04
4.393609e+01	-3.159850e-04
4.418986e+01	-3.196456e-04
4.444510e+01	-3.233487e-04
4.470182e+01	-3.270946e-04
4.496001e+01	-3.308840e-04
4.521970e+01	-3.347172e-04
4.548089e+01	-3.385948e-04
4.574358e+01	-3.425174e-04
4.600779e+01	-3.464854e-04
4.627353e+01	-3.504994e-04
4.654081e+01	-3.545598e-04
4.680963e+01	-3.586673e-04
4.708000e+01	-3.628224e-04
4.735193e+01	-3.670257e-04
4.762543e+01	-3.712776e-04
4.790051e+01	-3.755787e-04
4.817719e+01	-3.799297e-04
4.845545e+01	-3.843311e-04
4.873533e+01	-3.887835e-04
4.901682e+01	-3.932875e-04
4.929994e+01	-3.978436e-04
4.958470e+01	-4.024525e-04
4.987110e+01	-4.071148e-04
5.015915e+01	-4.118311e-04
5.044887e+01	-4.166021e-04
5.074026e+01	-4.214283e-04
5.103333e+01	-4.263104e-04
5.132810e+01	-4.312491e-04
5.162457e+01	-4.362450e-04
5.192275e+01	-4.412988e-04
5.222265e+01	-4.464111e-04
5.252429e+01	-4.515826e-04
5.282767e+01	-4.568140e-04
5.313280e+01	-4.621061e-04
5.343969e+01	-4.674594e-04
5.374836e+01	-4.728747e-04
5.405880e+01	-4.783528e-04
5.437105e+01	-4.838944e-04
5.468509e+01	-4.895001e-04
5.500095e+01	-4.951708e-04
5.531863e+01	-5.009071e-04
5.563815e+01	-5.067099e-04
5.595951e+01	-5.125800e-04
5.628273e+01	-5.185180e-04
5.660782e+01	-5.245248e-04
5.693479e+01	-5.306012e-04
5.726364e+01	-5.367480e-04
5.759439e+01	-5.429660e-04
5.792705e+01	-5.492560e-04
5.826164e+01	-5.556189e-04
5.859815e+01	-5.620554e-04
5.893662e+01	-5.685666e-04
5.927703e+01	-5.751531e-04
5.961941e+01	-5.818160e-04
5.996377e+01	-5.885560e-04
6.031012e+01	-5.953742e-04
6.065847e+01	-6.022713e-04
6.100883e+01	-6.092482e-04
6.136121e+01	-6.163061e-04
6.171563e+01	-6.234456e-04
6.207210e+01	-6.306679e-04
6.243063e+01	-6.379738e-04
6.279122e+01	-6.453644e-04
6.315390e+01	-6.528405e-04
6.351868e+01	-6.604033e-04
6.388556e+01	-6.680536e-04
6.425456e+01	-6.757926e-04
6.462569e+01	-6.836213e-04
6.499897e+01	-6.915406e-04
6.537440e+01	-6.995516e-04
6.575200e+01	-7.076554e-04
6.613178e+01	-7.158531e-04
6.651375e+01	-7.241458e-04
6.689793e+01	-7.325345e-04
6.728433e+01	-7.410204e-04
6.767297e+01	-7.496046e-04
6.806384e+01	-7.582882e-04
6.845698e+01	-7.670724e-04
6.885238e+01	-7.759584e-04
6.925007e+01	-7.849473e-04
6.965005e+01	-7.940402e-04
7.005235e+01	-8.032386e-04
7.045697e+01	-8.125434e-04
7.086393e+01	-8.219561e-04
7.127323e+01	-8.314778e-04
7.168490e+01	-8.411097e-04
7.209895e+01	-8.508533e-04
7.251539e+01	-8.607096e-04
7.293424e+01	-8.706802e-04
7.335551e+01	-8.807663e-04
7.377920e+01	-8.909691e-04
7.420535e+01	-9.012902e-04
7.463396e+01	-9.117308e-04
7.506504e+01	-9.222923e-04
7.549861e+01	-9.329762e-04
7.593469e+01	-9.437838e-04
7.637328e+01	-9.547166e-04
7.681441e+01	-9.657760e-04
7.725809e+01	-9.769635e-04
7.770433e+01	-9.882806e-04
7.815315e+01	-9.997288e-04
7.860456e+01	-1.011310e-03
7.905857e+01	-1.023024e-03
7.951521e+01	-1.034875e-03
7.997449e+01	-1.046863e-03
8.043642e+01	-1.058990e-03
8.090102e+01	-1.071257e-03
8.136830e+01	-1.083666e-03
8.183828e+01	-1.096219e-03
8.231097e+01	-1.108917e-03
8.278640e+01	-1.121763e-03
8.326457e+01	-1.134757e-03
8.374550e+01	-1.147902e-03
8.422921e+01	-1.161199e-03
8.471572e+01	-1.174650e-03
8.520503e+01	-1.188257e-03
8.569717e+01	-1.202021e-03
8.619215e+01	-1.215945e-03
8.669000e+01	-1.230030e-03
8.719071e+01	-1.244278e-03
8.769432e+01	-1.258691e-03
8.820084e+01	-1.273271e-03
8.871029e+01	-1.288020e-03
8.922267e+01	-1.302940e-03
8.973802e+01	-1.318033e-03
9.025634e+01	-1.333300e-03
9.077766e+01	-1.348744e-03
9.130199e+01	-1.364368e-03
9.182935e+01	-1.380172e-03
9.235975e+01	-1.396159e-03
9.289321e+01	-1.412331e-03
9.342976e+01	-1.428690e-03
9.396941e+01	-1.445239e-03
9.451217e+01	-1.461980e-03
9.505807e+01	-1.478915e-03
9.560712e+01	-1.496045e-03
9.615934e+01	-1.513374e-03
9.671476e+01	-1.530904e-03
9.727338e+01	-1.548637e-03
9.783522e+01	-1.566575e-03
9.840032e+01	-1.584721e-03
9.896867e+01	-1.603077e-03
9.954031e+01	-1.621646e-03
1.001153e+02	-1.640429e-03
1.006935e+02	-1.659430e-03
1.012751e+02	-1.678652e-03
1.018601e+02	-1.698096e-03
1.024484e+02	-1.717764e-03
1.030402e+02	-1.737661e-03
1.036353e+02	-1.757788e-03
1.042339e+02	-1.778149e-03
1.048360e+02	-1.798745e-03
1.054415e+02	-1.819579e-03
1.060505e+02	-1.840655e-03
1.066631e+02	-1.861975e-03
1.072791e+02	-1.883542e-03
1.078988e+02	-1.905358e-03
1.085220e+02	-1.927428e-03
1.091488e+02	-1.949752e-03
1.097793e+02	-1.972336e-03
1.104133e+02	-1.995180e-03
1.110511e+02	-2.018290e-03
1.116925e+02	-2.041667e-03
1.123376e+02	-2.065314e-03
1.129865e+02	-2.089236e-03
1.136391e+02	-2.113434e-03
1.142955e+02	-2.137913e-03
1.149556e+02	-2.162675e-03
1.156196e+02	-2.187724e-03
1.162874e+02	-2.213063e-03
1.169591e+02	-2.238695e-03
1.176347e+02	-2.264624e-03
1.183141e+02	-2.290854e-03
1.189975e+02	-2.317387e-03
1.196848e+02	-2.344227e-03
1.203761e+02	-2.371378e-03
1.210714e+02	-2.398843e-03
1.217707e+02	-2.426627e-03
1.224740e+02	-2.454732e-03
1.231814e+02	-2.483163e-03
1.238929e+02	-2.511922e-03
1.246085e+02	-2.541015e-03
1.253283e+02	-2.570445e-03
1.260522e+02	-2.600215e-03
1.267802e+02	-2.630330e-03
1.275125e+02	-2.660794e-03
1.282490e+02	-2.691610e-03
1.289898e+02	-2.722783e-03
1.297348e+02	-2.754318e-03
1.304842e+02	-2.786217e-03
1.312378e+02	-2.818485e-03
1.319959e+02	-2.851128e-03
1.327583e+02	-2.884148e-03
1.335251e+02	-2.917550e-03
1.342963e+02	-2.951339e-03
1.350720e+02	-2.985519e-03
1.358522e+02	-3.020095e-03
1.366368e+02	-3.055072e-03
1.374260e+02	-3.090453e-03
1.382198e+02	-3.126244e-03
1.390182e+02	-3.162449e-03
1.398211e+02	-3.199073e-03
1.406287e+02	-3.236121e-03
1.414410e+02	-3.273598e-03
1.422579e+02	-3.311509e-03
1.430796e+02	-3.349859e-03
1.439060e+02	-3.388653e-03
1.447372e+02	-3.427896e-03
1.455732e+02	-3.467593e-03
1.464141e+02	-3.507750e-03
1.472597e+02	-3.548372e-03
1.481103e+02	-3.589463e-03
1.489658e+02	-3.631031e-03
1.498262e+02	-3.673079e-03
1.506916e+02	-3.715615e-03
1.515620e+02	-3.758642e-03
1.524374e+02	-3.802168e-03
1.533179e+02	-3.846198e-03
1.542034e+02	-3.890737e-03
1.550941e+02	-3.935792e-03
1.559899e+02	-3.981368e-03
1.568909e+02	-4.027472e-03
1.577971e+02	-4.074109e-03
1.587085e+02	-4.121286e-03
1.596252e+02	-4.169009e-03
1.605472e+02	-4.217285e-03
1.614745e+02	-4.266119e-03
1.624072e+02	-4.315519e-03
1.633453e+02	-4.365490e-03
1.642887e+02	-4.416040e-03
1.652377e+02	-4.467174e-03
1.661921e+02	-4.518900e-03
1.671520e+02	-4.571225e-03
1.681175e+02	-4.624156e-03
1.690885e+02	-4.677699e-03
1.700651e+02	-4.731862e-03
1.710474e+02	-4.786651e-03
1.720354e+02	-4.842075e-03
1.730291e+02	-4.898140e-03
1.740285e+02	-4.954854e-03
1.750337e+02	-5.012224e-03
1.760446e+02	-5.070258e-03
1.770615e+02	-5.128963e-03
1.780842e+02	-5.188348e-03
1.791128e+02	-5.248420e-03
1.801473e+02	-5.309187e-03
1.811878e+02	-5.370657e-03
1.822344e+02	-5.432839e-03
1.832870e+02	-5.495740e-03
1.843456e+02	-5.559368e-03
1.854104e+02	-5.623733e-03
1.864813e+02	-5.688843e-03
1.875584e+02	-5.754706e-03
1.886418e+02	-5.821331e-03
1.897313e+02	-5.888726e-03
1.908272e+02	-5.956902e-03
1.919294e+02	-6.025866e-03
1.930380e+02	-6.095628e-03
1.941530e+02	-6.166197e-03
1.952744e+02	-6.237583e-03
1.964023e+02	-6.309794e-03
1.975367e+02	-6.382841e-03
1.986777e+02	-6.456733e-03
1.998252e+02	-6.531479e-03
2.009794e+02	-6.607090e-03
2.021403e+02	-6.683576e-03
2.033078e+02	-6.760946e-03
2.044821e+02	-6.839212e-03
2.056632e+02	-6.918383e-03
2.068511e+02	-6.998469e-03
2.080459e+02	-7.079482e-03
2.092475e+02	-7.161431e-03
2.104561e+02	-7.244329e-03
2.116717e+02	-7.328185e-03
2.128943e+02	-7.413012e-03
2.141240e+02	-7.498819e-03
2.153608e+02	-7.585619e-03
2.166047e+02	-7.673422e-03
2.178558e+02	-7.762241e-03
2.191141e+02	-7.852087e-03
2.203797e+02	-7.942972e-03
2.216526e+02	-8.034908e-03
2.229329e+02	-8.127907e-03
2.242205e+02	-8.221981e-03
2.255156e+02	-8.317143e-03
2.268182e+02	-8.413406e-03
2.281283e+02	-8.510782e-03
2.294459e+02	-8.609283e-03
2.307712e+02	-8.708924e-03
2.321041e+02	-8.809716e-03
2.334447e+02	-8.911674e-03
2.347931e+02	-9.014810e-03
2.361493e+02	-9.119139e-03
2.375133e+02	-9.224674e-03
2.388851e+02	-9.331429e-03
2.402649e+02	-9.439418e-03
2.416527e+02	-9.548655e-03
2.430484e+02	-9.659156e-03
2.444523e+02	-9.770933e-03
2.458642e+02	-9.884003e-03
2.472843e+02	-9.998379e-03
2.487126e+02	-1.011408e-02
2.501492e+02	-1.023111e-02
2.515940e+02	-1.034950e-02
2.530472e+02	-1.046926e-02
2.545088e+02	-1.059040e-02
2.559789e+02	-1.071294e-02
2.574574e+02	-1.083690e-02
2.589444e+02	-1.096228e-02
2.604401e+02	-1.108912e-02
2.619444e+02	-1.121743e-02
2.634574e+02	-1.134721e-02
2.649791e+02	-1.147850e-02
2.665096e+02	-1.161130e-02
2.680489e+02	-1.174564e-02
2.695972e+02	-1.188153e-02
2.711544e+02	-1.201899e-02
2.727205e+02	-1.215804e-02
2.742958e+02	-1.229869e-02
2.758801e+02	-1.244097e-02
2.774736e+02	-1.258489e-02
2.790762e+02	-1.273047e-02
2.806882e+02	-1.287774e-02
2.823094e+02	-1.302671e-02
2.839400e+02	-1.317740e-02
2.855800e+02	-1.332982e-02
2.872295e+02	-1.348401e-02
2.888886e+02	-1.363998e-02
2.905572e+02	-1.379775e-02
2.922354e+02	-1.395735e-02
2.939234e+02	-1.411878e-02
2.956211e+02	-1.428208e-02
2.973286e+02	-1.444727e-02
2.990459e+02	-1.461436e-02
3.007732e+02	-1.478338e-02
3.025104e+02	-1.495435e-02
3.042577e+02	-1.512730e-02
3.060151e+02	-1.530225e-02
3.077826e+02	-1.547921e-02
3.095604e+02	-1.565821e-02
3.113484e+02	-1.583929e-02
3.131467e+02	-1.602245e-02
3.149554e+02	-1.620773e-02
3.167746e+02	-1.639514e-02
3.186043e+02	-1.658472e-02
3.204445e+02	-1.677648e-02
3.222954e+02	-1.697046e-02
3.241570e+02	-1.716668e-02
3.260293e+02	-1.736516e-02
3.279124e+02	-1.756593e-02
3.298064e+02	-1.776902e-02
3.317114e+02	-1.797445e-02
3.336273e+02	-1.818225e-02
3.355544e+02	-1.839245e-02
3.374925e+02	-1.860507e-02
3.394418e+02	-1.882015e-02
3.414024e+02	-1.903771e-02
3.433744e+02	-1.925777e-02
3.453577e+02	-1.948038e-02
3.473525e+02	-1.970555e-02
3.493588e+02	-1.993331e-02
3.513766e+02	-2.016371e-02
3.534062e+02	-2.039676e-02
3.554474e+02	-2.063250e-02
3.575005e+02	-2.087095e-02
3.595654e+02	-2.111216e-02
3.616422e+02	-2.135615e-02
3.637311e+02	-2.160294e-02
3.658320e+02	-2.185259e-02
3.679450e+02	-2.210511e-02
3.700702e+02	-2.236054e-02
3.722077e+02	-2.261892e-02
3.743576e+02	-2.288027e-02
3.765199e+02	-2.314463e-02
3.786946e+02	-2.341205e-02
3.808820e+02	-2.368254e-02
3.830819e+02	-2.395615e-02
3.852946e+02	-2.423291e-02
3.875200e+02	-2.451286e-02
3.897583e+02	-2.479603e-02
3.920096e+02	-2.508247e-02
3.942738e+02	-2.537220e-02
3.965511e+02	-2.566527e-02
3.988416e+02	-2.596172e-02
4.011452e+02	-2.626158e-02
4.034622e+02	-2.656489e-02
4.057926e+02	-2.687170e-02
4.081365e+02	-2.718204e-02
4.104938e+02	-2.749595e-02
4.128648e+02	-2.781347e-02
4.152495e+02	-2.813465e-02
4.176480e+02	-2.845953e-02
4.200603e+02	-2.878814e-02
4.224866e+02	-2.912054e-02
4.249268e+02	-2.945676e-02
4.273812e+02	-2.979685e-02
4.298497e+02	-3.014085e-02
4.323325e+02	-3.048881e-02
4.348297e+02	-3.084077e-02
4.373412e+02	-3.119678e-02
4.398673e+02	-3.155689e-02
4.424079e+02	-3.192113e-02
4.449633e+02	-3.228957e-02
4.475334e+02	-3.266224e-02
4.501183e+02	-3.303920e-02
4.527182e+02	-3.342049e-02
4.553330e+02	-3.380616e-02
4.579630e+02	-3.419627e-02
4.606082e+02	-3.459086e-02
4.632687e+02	-3.498998e-02
4.659445e+02	-3.539369e-02
4.686358e+02	-3.580204e-02
4.713426e+02	-3.621508e-02
4.740650e+02	-3.663287e-02
4.768032e+02	-3.705545e-02
4.795572e+02	-3.748289e-02
4.823271e+02	-3.791524e-02
4.851130e+02	-3.835255e-02
4.879150e+02	-3.879489e-02
4.907332e+02	-3.924230e-02
4.935676e+02	-3.969485e-02
4.964185e+02	-4.015259e-02
4.992858e+02	-4.061559e-02
5.021696e+02	-4.108390e-02
5.050701e+02	-4.155758e-02
5.079874e+02	-4.203670e-02
5.109215e+02	-4.252132e-02
5.138726e+02	-4.301149e-02
5.168407e+02	-4.350729e-02
5.198259e+02	-4.400877e-02
5.228284e+02	-4.451601e-02
5.258482e+02	-4.502905e-02
5.288855e+02	-4.554799e-02
5.319403e+02	-4.607287e-02
5.350128e+02	-4.660376e-02
5.381030e+02	-4.714074e-02
5.412111e+02	-4.768387e-02
5.443371e+02	-4.823323e-02
5.474812e+02	-4.878888e-02
5.506434e+02	-4.935089e-02
5.538239e+02	-4.991934e-02
5.570228e+02	-5.049430e-02
5.602401e+02	-5.107584e-02
5.634760e+02	-5.166404e-02
5.667306e+02	-5.225897e-02
5.700040e+02	-5.286072e-02
5.732964e+02	-5.346934e-02
5.766077e+02	-5.408494e-02
5.799382e+02	-5.470757e-02
5.832879e+02	-5.533733e-02
5.866569e+02	-5.597429e-02
5.900454e+02	-5.661853e-02
5.934535e+02	-5.727014e-02
5.968813e+02	-5.792919e-02
6.003288e+02	-5.859578e-02
6.037963e+02	-5.926999e-02
6.072838e+02	-5.995190e-02
6.107914e+02	-6.064161e-02
6.143194e+02	-6.133919e-02
6.178676e+02	-6.204474e-02
6.214364e+02	-6.275834e-02
6.250258e+02	-6.348009e-02
6.286359e+02	-6.421008e-02
6.322669e+02	-6.494840e-02
6.359189e+02	-6.569515e-02
6.395919e+02	-6.645042e-02
6.432862e+02	-6.721430e-02
6.470017e+02	-6.798690e-02
6.507388e+02	-6.876830e-02
6.544974e+02	-6.955861e-02
6.582778e+02	-7.035794e-02
6.620800e+02	-7.116637e-02
6.659041e+02	-7.198401e-02
6.697504e+02	-7.281097e-02
6.736188e+02	-7.364735e-02
6.775096e+02	-7.449325e-02
6.814229e+02	-7.534879e-02
6.853587e+02	-7.621406e-02
6.893173e+02	-7.708918e-02
6.932988e+02	-7.797426e-02
6.973033e+02	-7.886941e-02
7.013309e+02	-7.977474e-02
