Frequency(Hz)	Magnitude(dB)
1.000000e+01	-2.122887e+00
1.005776e+01	-2.142372e+00
1.011585e+01	-2.161971e+00
1.017428e+01	-2.181427e+00
1.023305e+01	-2.201175e+00
1.029215e+01	-2.221308e+00
1.035160e+01	-2.241337e+00
1.041139e+01	-2.261674e+00
1.047153e+01	-2.281987e+00
1.053201e+01	-2.302743e+00
1.059284e+01	-2.323247e+00
1.065403e+01	-2.344169e+00
1.071556e+01	-2.365028e+00
1.077746e+01	-2.385884e+00
1.083971e+01	-2.407205e+00
1.090232e+01	-2.428715e+00
1.096529e+01	-2.450275e+00
1.102862e+01	-2.471681e+00
1.109232e+01	-2.493404e+00
1.115639e+01	-2.515419e+00
1.122083e+01	-2.537529e+00
1.128564e+01	-2.559889e+00
1.135083e+01	-2.582187e+00
1.141639e+01	-2.604567e+00
1.148233e+01	-2.627178e+00
1.154865e+01	-2.650082e+00
1.161536e+01	-2.672798e+00
1.168245e+01	-2.695903e+00
1.174992e+01	-2.718956e+00
1.181779e+01	-2.742607e+00
1.188605e+01	-2.766131e+00
1.195470e+01	-2.789819e+00
1.202375e+01	-2.813556e+00
1.209320e+01	-2.837317e+00
1.216305e+01	-2.861542e+00
1.223330e+01	-2.885601e+00
1.230396e+01	-2.909806e+00
1.237503e+01	-2.934508e+00
1.244651e+01	-2.959238e+00
1.251840e+01	-2.983861e+00
1.259070e+01	-3.008904e+00
1.266343e+01	-3.033827e+00
1.273657e+01	-3.059274e+00
1.281014e+01	-3.084589e+00
1.288413e+01	-3.109896e+00
1.295855e+01	-3.135740e+00
1.303339e+01	-3.161460e+00
1.310867e+01	-3.187372e+00
1.318439e+01	-3.213521e+00
1.326054e+01	-3.239670e+00
1.333713e+01	-3.266349e+00
1.341417e+01	-3.292799e+00
1.349165e+01	-3.319073e+00
1.356958e+01	-3.346078e+00
1.364795e+01	-3.373075e+00
1.372678e+01	-3.400536e+00
1.380607e+01	-3.427377e+00
1.388581e+01	-3.454938e+00
1.396602e+01	-3.482308e+00
1.404668e+01	-3.509765e+00
1.412782e+01	-3.537587e+00
1.420942e+01	-3.565882e+00
1.429149e+01	-3.593711e+00
1.437404e+01	-3.622318e+00
1.445706e+01	-3.650261e+00
1.454057e+01	-3.679121e+00
1.462455e+01	-3.707668e+00
1.470902e+01	-3.736208e+00
1.479398e+01	-3.765212e+00
1.487943e+01	-3.794368e+00
1.496537e+01	-3.823494e+00
1.505181e+01	-3.852957e+00
1.513875e+01	-3.882381e+00
1.522619e+01	-3.912015e+00
1.531414e+01	-3.941618e+00
1.540259e+01	-3.971470e+00
1.549156e+01	-4.001979e+00
1.558103e+01	-4.032045e+00
1.567103e+01	-4.062358e+00
1.576155e+01	-4.092746e+00
1.585258e+01	-4.123291e+00
1.594415e+01	-4.154061e+00
1.603624e+01	-4.184687e+00
1.612886e+01	-4.215937e+00
1.622202e+01	-4.247196e+00
1.631572e+01	-4.278386e+00
1.640996e+01	-4.309934e+00
1.650474e+01	-4.341240e+00
1.660008e+01	-4.372953e+00
1.669596e+01	-4.404799e+00
1.679239e+01	-4.436723e+00
1.688938e+01	-4.468802e+00
1.698694e+01	-4.501140e+00
1.708505e+01	-4.533251e+00
1.718373e+01	-4.566068e+00
1.728299e+01	-4.598376e+00
1.738281e+01	-4.631302e+00
1.748322e+01	-4.664287e+00
1.758420e+01	-4.697052e+00
1.768576e+01	-4.729959e+00
1.778792e+01	-4.763583e+00
1.789066e+01	-4.797004e+00
1.799399e+01	-4.830363e+00
1.809793e+01	-4.863867e+00
1.820246e+01	-4.897621e+00
1.830760e+01	-4.931861e+00
1.841334e+01	-4.965468e+00
1.851969e+01	-4.999797e+00
1.862666e+01	-5.034138e+00
1.873425e+01	-5.068639e+00
1.884246e+01	-5.103068e+00
1.895129e+01	-5.137539e+00
1.906075e+01	-5.172468e+00
1.917085e+01	-5.207155e+00
1.928158e+01	-5.242476e+00
1.939295e+01	-5.277477e+00
1.950496e+01	-5.312264e+00
1.961762e+01	-5.348071e+00
1.973093e+01	-5.383545e+00
1.984490e+01	-5.419091e+00
1.995952e+01	-5.454782e+00
2.007480e+01	-5.490499e+00
2.019076e+01	-5.526763e+00
2.030738e+01	-5.562856e+00
2.042467e+01	-5.599118e+00
2.054264e+01	-5.635367e+00
2.066130e+01	-5.671566e+00
2.078064e+01	-5.707990e+00
2.090066e+01	-5.744765e+00
2.102139e+01	-5.781773e+00
2.114280e+01	-5.818542e+00
2.126492e+01	-5.855447e+00
2.138775e+01	-5.892986e+00
2.151128e+01	-5.929662e+00
2.163553e+01	-5.966892e+00
2.176050e+01	-6.004342e+00
2.188619e+01	-6.041634e+00
2.201260e+01	-6.079469e+00
2.213974e+01	-6.117422e+00
2.226762e+01	-6.155222e+00
2.239624e+01	-6.193244e+00
2.252560e+01	-6.231260e+00
2.265571e+01	-6.269271e+00
2.278656e+01	-6.307673e+00
2.291818e+01	-6.345760e+00
2.305055e+01	-6.384477e+00
2.318369e+01	-6.423006e+00
2.331760e+01	-6.461719e+00
2.345228e+01	-6.500500e+00
2.358774e+01	-6.539157e+00
2.372398e+01	-6.578476e+00
2.386101e+01	-6.617350e+00
2.399883e+01	-6.656670e+00
2.413745e+01	-6.695832e+00
2.427686e+01	-6.735234e+00
2.441709e+01	-6.774664e+00
2.455812e+01	-6.814463e+00
2.469997e+01	-6.853689e+00
2.484263e+01	-6.893880e+00
2.498612e+01	-6.933620e+00
2.513044e+01	-6.973166e+00
2.527559e+01	-7.013437e+00
2.542158e+01	-7.053310e+00
2.556842e+01	-7.093804e+00
2.571610e+01	-7.134443e+00
2.586463e+01	-7.174127e+00
2.601403e+01	-7.215259e+00
2.616428e+01	-7.255201e+00
2.631541e+01	-7.296123e+00
2.646740e+01	-7.337220e+00
2.662028e+01	-7.377763e+00
2.677404e+01	-7.418638e+00
2.692868e+01	-7.459669e+00
2.708422e+01	-7.500525e+00
2.724066e+01	-7.541777e+00
2.739800e+01	-7.583385e+00
2.755625e+01	-7.624596e+00
2.771541e+01	-7.665893e+00
2.787550e+01	-7.707629e+00
2.803650e+01	-7.749136e+00
2.819844e+01	-7.790432e+00
2.836131e+01	-7.832379e+00
2.852513e+01	-7.874105e+00
2.868989e+01	-7.916468e+00
2.885560e+01	-7.958531e+00
2.902227e+01	-8.000477e+00
2.918990e+01	-8.042564e+00
2.935850e+01	-8.084507e+00
2.952807e+01	-8.126708e+00
2.969863e+01	-8.169236e+00
2.987016e+01	-8.211594e+00
3.004269e+01	-8.254217e+00
3.021622e+01	-8.296528e+00
3.039075e+01	-8.339044e+00
3.056628e+01	-8.382304e+00
3.074283e+01	-8.424773e+00
3.092040e+01	-8.467913e+00
3.109900e+01	-8.510682e+00
3.127862e+01	-8.553459e+00
3.145929e+01	-8.596580e+00
3.164099e+01	-8.639925e+00
3.182375e+01	-8.683194e+00
3.200756e+01	-8.726156e+00
3.219244e+01	-8.769727e+00
3.237838e+01	-8.813433e+00
3.256540e+01	-8.857137e+00
3.275349e+01	-8.900877e+00
3.294268e+01	-8.943902e+00
3.313295e+01	-8.987667e+00
3.332433e+01	-9.031550e+00
3.351681e+01	-9.075175e+00
3.371040e+01	-9.118936e+00
3.390511e+01	-9.162680e+00
3.410094e+01	-9.206750e+00
3.429791e+01	-9.250966e+00
3.449601e+01	-9.295207e+00
3.469526e+01	-9.339384e+00
3.489566e+01	-9.383746e+00
3.509721e+01	-9.427319e+00
3.529993e+01	-9.472402e+00
3.550382e+01	-9.516265e+00
3.570889e+01	-9.561266e+00
3.591515e+01	-9.605421e+00
3.612259e+01	-9.649846e+00
3.633123e+01	-9.694572e+00
3.654108e+01	-9.739417e+00
3.675214e+01	-9.784344e+00
3.696442e+01	-9.828612e+00
3.717792e+01	-9.873484e+00
3.739266e+01	-9.918146e+00
3.760864e+01	-9.963666e+00
3.782587e+01	-1.000810e+01
3.804435e+01	-1.005348e+01
3.826409e+01	-1.009869e+01
3.848510e+01	-1.014399e+01
3.870739e+01	-1.018906e+01
3.893096e+01	-1.023403e+01
3.915583e+01	-1.028002e+01
3.938199e+01	-1.032527e+01
3.960946e+01	-1.037091e+01
3.983824e+01	-1.041592e+01
4.006834e+01	-1.046105e+01
4.029978e+01	-1.050718e+01
4.053255e+01	-1.055245e+01
4.076666e+01	-1.059813e+01
4.100213e+01	-1.064395e+01
4.123896e+01	-1.069001e+01
4.147715e+01	-1.073585e+01
4.171672e+01	-1.078119e+01
4.195767e+01	-1.082708e+01
4.220002e+01	-1.087295e+01
4.244377e+01	-1.091876e+01
4.268892e+01	-1.096504e+01
4.293549e+01	-1.101086e+01
4.318348e+01	-1.105773e+01
4.343291e+01	-1.110300e+01
4.368377e+01	-1.114925e+01
4.393609e+01	-1.119608e+01
4.418986e+01	-1.124149e+01
4.444510e+01	-1.128808e+01
4.470182e+01	-1.133476e+01
4.496001e+01	-1.138060e+01
4.521970e+01	-1.142746e+01
4.548089e+01	-1.147348e+01
4.574358e+01	-1.152073e+01
4.600779e+01	-1.156668e+01
4.627353e+01	-1.161392e+01
4.654081e+01	-1.166052e+01
4.680963e+01	-1.170683e+01
4.708000e+01	-1.175415e+01
4.735193e+01	-1.179945e+01
4.762543e+01	-1.184684e+01
4.790051e+01	-1.189320e+01
4.817719e+01	-1.194017e+01
4.845545e+01	-1.198686e+01
4.873533e+01	-1.203395e+01
4.901682e+01	-1.208113e+01
4.929994e+01	-1.212826e+01
4.958470e+01	-1.217415e+01
4.987110e+01	-1.222156e+01
5.015915e+01	-1.226913e+01
5.044887e+01	-1.231512e+01
5.074026e+01	-1.236346e+01
5.103333e+01	-1.241001e+01
5.132810e+01	-1.245759e+01
5.162457e+01	-1.250495e+01
5.192275e+01	-1.255173e+01
5.222265e+01	-1.259938e+01
5.252429e+01	-1.264631e+01
5.282767e+01	-1.269386e+01
5.313280e+01	-1.274037e+01
5.343969e+01	-1.278872e+01
5.374836e+01	-1.283565e+01
5.405880e+01	-1.288302e+01
5.437105e+01	-1.293102e+01
5.468509e+01	-1.297813e+01
5.500095e+01	-1.302536e+01
5.531863e+01	-1.307340e+01
5.563815e+01	-1.312083e+01
5.595951e+01	-1.316875e+01
5.628273e+01	-1.321496e+01
5.660782e+01	-1.326352e+01
5.693479e+01	-1.331177e+01
5.726364e+01	-1.335918e+01
5.759439e+01	-1.340657e+01
5.792705e+01	-1.345480e+01
5.826164e+01	-1.350214e+01
5.859815e+01	-1.355016e+01
5.893662e+01	-1.359792e+01
5.927703e+01	-1.364612e+01
5.961941e+01	-1.369386e+01
5.996377e+01	-1.374192e+01
6.031012e+01	-1.378916e+01
6.065847e+01	-1.383832e+01
6.100883e+01	-1.388548e+01
6.136121e+01	-1.393339e+01
6.171563e+01	-1.398111e+01
6.207210e+01	-1.402940e+01
6.243063e+01	-1.407665e+01
6.279122e+01	-1.412609e+01
6.315390e+01	-1.417403e+01
6.351868e+01	-1.422200e+01
6.388556e+01	-1.426993e+01
6.425456e+01	-1.431809e+01
6.462569e+01	-1.436587e+01
6.499897e+01	-1.441494e+01
6.537440e+01	-1.446238e+01
6.575200e+01	-1.451063e+01
6.613178e+01	-1.455939e+01
6.651375e+01	-1.460742e+01
6.689793e+01	-1.465513e+01
6.728433e+01	-1.470407e+01
6.767297e+01	-1.475153e+01
6.806384e+01	-1.480151e+01
6.845698e+01	-1.484945e+01
6.885238e+01	-1.489747e+01
6.925007e+01	-1.494697e+01
6.965005e+01	-1.499470e+01
7.005235e+01	-1.504350e+01
7.045697e+01	-1.509179e+01
7.086393e+01	-1.513936e+01
7.127323e+01	-1.518876e+01
7.168490e+01	-1.523679e+01
7.209895e+01	-1.528565e+01
7.251539e+01	-1.533452e+01
7.293424e+01	-1.538164e+01
7.335551e+01	-1.543128e+01
7.377920e+01	-1.548086e+01
7.420535e+01	-1.552900e+01
7.463396e+01	-1.557717e+01
7.506504e+01	-1.562550e+01
7.549861e+01	-1.567403e+01
7.593469e+01	-1.572307e+01
7.637328e+01	-1.577252e+01
7.681441e+01	-1.582064e+01
7.725809e+01	-1.586890e+01
7.770433e+01	-1.591777e+01
7.815315e+01	-1.596650e+01
7.860456e+01	-1.601571e+01
7.905857e+01	-1.606407e+01
7.951521e+01	-1.611360e+01
7.997449e+01	-1.616234e+01
8.043642e+01	-1.621176e+01
8.090102e+01	-1.625981e+01
8.136830e+01	-1.630903e+01
8.183828e+01	-1.635895e+01
8.231097e+01	-1.640568e+01
8.278640e+01	-1.645499e+01
8.326457e+01	-1.650324e+01
8.374550e+01	-1.655348e+01
8.422921e+01	-1.660099e+01
8.471572e+01	-1.665064e+01
8.520503e+01	-1.670004e+01
8.569717e+01	-1.674943e+01
8.619215e+01	-1.679753e+01
8.669000e+01	-1.684616e+01
8.719071e+01	-1.689493e+01
8.769432e+01	-1.694497e+01
8.820084e+01	-1.699349e+01
8.871029e+01	-1.704368e+01
8.922267e+01	-1.709296e+01
8.973802e+01	-1.714126e+01
9.025634e+01	-1.718980e+01
9.077766e+01	-1.723914e+01
9.130199e+01	-1.728880e+01
9.182935e+01	-1.733677e+01
9.235975e+01	-1.738602e+01
9.289321e+01	-1.743490e+01
9.342976e+01	-1.748388e+01
9.396941e+01	-1.753412e+01
9.451217e+01	-1.758206e+01
9.505807e+01	-1.763239e+01
9.560712e+01	-1.768103e+01
9.615934e+01	-1.773226e+01
9.671476e+01	-1.777977e+01
9.727338e+01	-1.782983e+01
9.783522e+01	-1.787827e+01
9.840032e+01	-1.792645e+01
9.896867e+01	-1.797657e+01
9.954031e+01	-1.802665e+01
1.001153e+02	-1.807503e+01
1.006935e+02	-1.812667e+01
1.012751e+02	-1.817370e+01
1.018601e+02	-1.822350e+01
1.024484e+02	-1.827184e+01
1.030402e+02	-1.832235e+01
1.036353e+02	-1.836991e+01
1.042339e+02	-1.842052e+01
1.048360e+02	-1.846927e+01
1.054415e+02	-1.851797e+01
1.060505e+02	-1.856801e+01
1.066631e+02	-1.861816e+01
1.072791e+02	-1.866685e+01
1.078988e+02	-1.871737e+01
1.085220e+02	-1.876592e+01
1.091488e+02	-1.881571e+01
1.097793e+02	-1.886402e+01
1.104133e+02	-1.891356e+01
1.110511e+02	-1.896423e+01
1.116925e+02	-1.901348e+01
1.123376e+02	-1.906074e+01
1.129865e+02	-1.911089e+01
1.136391e+02	-1.916150e+01
1.142955e+02	-1.921038e+01
1.149556e+02	-1.925907e+01
1.156196e+02	-1.930809e+01
1.162874e+02	-1.935900e+01
1.169591e+02	-1.940753e+01
1.176347e+02	-1.945740e+01
1.183141e+02	-1.950677e+01
1.189975e+02	-1.955603e+01
1.196848e+02	-1.960530e+01
1.203761e+02	-1.965660e+01
1.210714e+02	-1.970509e+01
1.217707e+02	-1.975409e+01
1.224740e+02	-1.980432e+01
1.231814e+02	-1.985350e+01
1.238929e+02	-1.990266e+01
1.246085e+02	-1.995288e+01
1.253283e+02	-2.000202e+01
1.260522e+02	-2.005177e+01
1.267802e+02	-2.010173e+01
1.275125e+02	-2.015063e+01
1.282490e+02	-2.019848e+01
1.289898e+02	-2.024938e+01
1.297348e+02	-2.029947e+01
1.304842e+02	-2.034980e+01
1.312378e+02	-2.039810e+01
1.319959e+02	-2.044768e+01
1.327583e+02	-2.049749e+01
1.335251e+02	-2.054771e+01
1.342963e+02	-2.059558e+01
1.350720e+02	-2.064572e+01
1.358522e+02	-2.069773e+01
1.366368e+02	-2.074433e+01
1.374260e+02	-2.079530e+01
1.382198e+02	-2.084485e+01
1.390182e+02	-2.089187e+01
1.398211e+02	-2.094418e+01
1.406287e+02	-2.099314e+01
1.414410e+02	-2.104330e+01
1.422579e+02	-2.109345e+01
1.430796e+02	-2.114375e+01
1.439060e+02	-2.119076e+01
1.447372e+02	-2.124134e+01
1.455732e+02	-2.129194e+01
1.464141e+02	-2.134035e+01
1.472597e+02	-2.138961e+01
1.481103e+02	-2.144093e+01
1.489658e+02	-2.148961e+01
1.498262e+02	-2.154072e+01
1.506916e+02	-2.158882e+01
1.515620e+02	-2.164036e+01
1.524374e+02	-2.168950e+01
1.533179e+02	-2.173711e+01
1.542034e+02	-2.178852e+01
1.550941e+02	-2.183651e+01
1.559899e+02	-2.188626e+01
1.568909e+02	-2.193740e+01
1.577971e+02	-2.198680e+01
1.587085e+02	-2.203770e+01
1.596252e+02	-2.208799e+01
1.605472e+02	-2.213599e+01
1.614745e+02	-2.218581e+01
1.624072e+02	-2.223541e+01
1.633453e+02	-2.228398e+01
1.642887e+02	-2.233511e+01
1.652377e+02	-2.238520e+01
1.661921e+02	-2.243234e+01
1.671520e+02	-2.248571e+01
1.681175e+02	-2.253161e+01
1.690885e+02	-2.258534e+01
1.700651e+02	-2.263218e+01
1.710474e+02	-2.268510e+01
1.720354e+02	-2.273473e+01
1.730291e+02	-2.278547e+01
1.740285e+02	-2.283276e+01
1.750337e+02	-2.288259e+01
1.760446e+02	-2.293392e+01
1.770615e+02	-2.298182e+01
1.780842e+02	-2.303242e+01
1.791128e+02	-2.308326e+01
1.801473e+02	-2.313080e+01
1.811878e+02	-2.318135e+01
1.822344e+02	-2.323026e+01
1.832870e+02	-2.328217e+01
1.843456e+02	-2.333038e+01
1.854104e+02	-2.338194e+01
1.864813e+02	-2.343191e+01
1.875584e+02	-2.347965e+01
1.886418e+02	-2.353173e+01
1.897313e+02	-2.358021e+01
1.908272e+02	-2.363282e+01
1.919294e+02	-2.368053e+01
1.930380e+02	-2.372776e+01
1.941530e+02	-2.377878e+01
1.952744e+02	-2.382999e+01
1.964023e+02	-2.388076e+01
1.975367e+02	-2.392848e+01
1.986777e+02	-2.397954e+01
1.998252e+02	-2.402834e+01
2.009794e+02	-2.408013e+01
2.021403e+02	-2.412846e+01
2.033078e+02	-2.417958e+01
2.044821e+02	-2.422986e+01
2.056632e+02	-2.427576e+01
2.068511e+02	-2.432832e+01
2.080459e+02	-2.437960e+01
2.092475e+02	-2.442634e+01
2.104561e+02	-2.447821e+01
2.116717e+02	-2.452747e+01
2.128943e+02	-2.457738e+01
2.141240e+02	-2.462570e+01
2.153608e+02	-2.467739e+01
2.166047e+02	-2.472700e+01
2.178558e+02	-2.477881e+01
2.191141e+02	-2.482673e+01
2.203797e+02	-2.487971e+01
2.216526e+02	-2.492677e+01
2.229329e+02	-2.497680e+01
2.242205e+02	-2.502645e+01
2.255156e+02	-2.507830e+01
2.268182e+02	-2.512521e+01
2.281283e+02	-2.517629e+01
2.294459e+02	-2.522666e+01
2.307712e+02	-2.527682e+01
2.321041e+02	-2.532553e+01
2.334447e+02	-2.537824e+01
2.347931e+02	-2.542723e+01
2.361493e+02	-2.547629e+01
2.375133e+02	-2.552166e+01
2.388851e+02	-2.557604e+01
2.402649e+02	-2.562672e+01
2.416527e+02	-2.567548e+01
2.430484e+02	-2.572478e+01
2.444523e+02	-2.577386e+01
2.458642e+02	-2.582660e+01
2.472843e+02	-2.587571e+01
2.487126e+02	-2.592671e+01
2.501492e+02	-2.597563e+01
2.515940e+02	-2.602758e+01
2.530472e+02	-2.607689e+01
2.545088e+02	-2.612376e+01
2.559789e+02	-2.617488e+01
2.574574e+02	-2.622348e+01
2.589444e+02	-2.627195e+01
2.604401e+02	-2.632502e+01
2.619444e+02	-2.637485e+01
2.634574e+02	-2.642353e+01
2.649791e+02	-2.647507e+01
2.665096e+02	-2.652245e+01
2.680489e+02	-2.657297e+01
2.695972e+02	-2.662619e+01
2.711544e+02	-2.667772e+01
2.727205e+02	-2.672386e+01
2.742958e+02	-2.677585e+01
2.758801e+02	-2.682602e+01
2.774736e+02	-2.687353e+01
2.790762e+02	-2.692343e+01
2.806882e+02	-2.697517e+01
2.823094e+02	-2.702422e+01
2.839400e+02	-2.707493e+01
2.855800e+02	-2.712400e+01
2.872295e+02	-2.717482e+01
2.888886e+02	-2.722132e+01
2.905572e+02	-2.727529e+01
2.922354e+02	-2.732522e+01
2.939234e+02	-2.737224e+01
2.956211e+02	-2.742020e+01
2.973286e+02	-2.747557e+01
2.990459e+02	-2.752667e+01
3.007732e+02	-2.757692e+01
3.025104e+02	-2.762278e+01
3.042577e+02	-2.767544e+01
3.060151e+02	-2.772637e+01
3.077826e+02	-2.777071e+01
3.095604e+02	-2.782724e+01
3.113484e+02	-2.787466e+01
3.131467e+02	-2.792131e+01
3.149554e+02	-2.797263e+01
3.167746e+02	-2.802330e+01
3.186043e+02	-2.807355e+01
3.204445e+02	-2.812593e+01
3.222954e+02	-2.817243e+01
3.241570e+02	-2.822495e+01
3.260293e+02	-2.827291e+01
3.279124e+02	-2.832748e+01
3.298064e+02	-2.837466e+01
3.317114e+02	-2.842528e+01
3.336273e+02	-2.847517e+01
3.355544e+02	-2.852271e+01
3.374925e+02	-2.857116e+01
3.394418e+02	-2.862548e+01
3.414024e+02	-2.867384e+01
3.433744e+02	-2.872356e+01
3.453577e+02	-2.877266e+01
3.473525e+02	-2.883031e+01
3.493588e+02	-2.887602e+01
3.513766e+02	-2.892337e+01
3.534062e+02	-2.897542e+01
3.554474e+02	-2.902799e+01
3.575005e+02	-2.907288e+01
3.595654e+02	-2.912272e+01
3.616422e+02	-2.917591e+01
3.637311e+02	-2.922571e+01
3.658320e+02	-2.927287e+01
3.679450e+02	-2.932105e+01
3.700702e+02	-2.937660e+01
3.722077e+02	-2.942814e+01
3.743576e+02	-2.947608e+01
3.765199e+02	-2.952499e+01
3.786946e+02	-2.957075e+01
3.808820e+02	-2.962180e+01
3.830819e+02	-2.967547e+01
3.852946e+02	-2.972923e+01
3.875200e+02	-2.977277e+01
3.897583e+02	-2.982660e+01
3.920096e+02	-2.987365e+01
3.942738e+02	-2.992788e+01
3.965511e+02	-2.998004e+01
3.988416e+02	-3.002806e+01
4.011452e+02	-3.007892e+01
4.034622e+02	-3.012273e+01
4.057926e+02	-3.017302e+01
4.081365e+02	-3.022689e+01
4.104938e+02	-3.027239e+01
4.128648e+02	-3.032592e+01
4.152495e+02	-3.038136e+01
4.176480e+02	-3.043111e+01
4.200603e+02	-3.047935e+01
4.224866e+02	-3.052221e+01
4.249268e+02	-3.057726e+01
4.273812e+02	-3.062567e+01
4.298497e+02	-3.067797e+01
4.323325e+02	-3.072673e+01
4.348297e+02	-3.077287e+01
4.373412e+02	-3.083124e+01
4.398673e+02	-3.088243e+01
4.424079e+02	-3.092929e+01
4.449633e+02	-3.098101e+01
4.475334e+02	-3.102735e+01
4.501183e+02	-3.108256e+01
4.527182e+02	-3.112655e+01
4.553330e+02	-3.117553e+01
4.579630e+02	-3.122757e+01
4.606082e+02	-3.128169e+01
4.632687e+02	-3.133300e+01
4.659445e+02	-3.137946e+01
4.686358e+02	-3.142626e+01
4.713426e+02	-3.148036e+01
4.740650e+02	-3.153119e+01
4.768032e+02	-3.157811e+01
4.795572e+02	-3.162850e+01
4.823271e+02	-3.168447e+01
4.851130e+02	-3.173154e+01
4.879150e+02	-3.178572e+01
4.907332e+02	-3.182894e+01
4.935676e+02	-3.188278e+01
4.964185e+02	-3.193238e+01
4.992858e+02	-3.198482e+01
5.021696e+02	-3.203301e+01
5.050701e+02	-3.208693e+01
5.079874e+02	-3.213742e+01
5.109215e+02	-3.218017e+01
5.138726e+02	-3.223583e+01
5.168407e+02	-3.228172e+01
5.198259e+02	-3.233302e+01
5.228284e+02	-3.238031e+01
5.258482e+02	-3.243181e+01
5.288855e+02	-3.247604e+01
5.319403e+02	-3.253240e+01
5.350128e+02	-3.258031e+01
5.381030e+02	-3.263477e+01
5.412111e+02	-3.268516e+01
5.443371e+02	-3.273783e+01
5.474812e+02	-3.278420e+01
5.506434e+02	-3.283902e+01
5.538239e+02	-3.288026e+01
5.570228e+02	-3.294000e+01
5.602401e+02	-3.298721e+01
5.634760e+02	-3.303736e+01
5.667306e+02	-3.309080e+01
5.700040e+02	-3.313623e+01
5.732964e+02	-3.318175e+01
5.766077e+02	-3.322945e+01
5.799382e+02	-3.328960e+01
5.832879e+02	-3.333749e+01
5.866569e+02	-3.338585e+01
5.900454e+02	-3.343512e+01
5.934535e+02	-3.348930e+01
5.968813e+02	-3.354127e+01
6.003288e+02	-3.359907e+01
6.037963e+02	-3.362563e+01
6.072838e+02	-3.369328e+01
6.107914e+02	-3.373948e+01
6.143194e+02	-3.379379e+01
6.178676e+02	-3.383695e+01
6.214364e+02	-3.388713e+01
6.250258e+02	-3.394296e+01
6.286359e+02	-3.399161e+01
6.322669e+02	-3.403467e+01
6.359189e+02	-3.408697e+01
6.395919e+02	-3.414760e+01
6.432862e+02	-3.419544e+01
6.470017e+02	-3.423963e+01
6.507388e+02	-3.428927e+01
6.544974e+02	-3.434373e+01
6.582778e+02	-3.439140e+01
6.620800e+02	-3.444206e+01
6.659041e+02	-3.449791e+01
6.697504e+02	-3.455392e+01
6.736188e+02	-3.459045e+01
6.775096e+02	-3.464689e+01
6.814229e+02	-3.470097e+01
6.853587e+02	-3.474600e+01
6.893173e+02	-3.480982e+01
6.932988e+02	-3.484283e+01
6.973033e+02	-3.490146e+01
7.013309e+02	-3.494923e+01
