Frequency(Hz)	Magnitude(dB)
1.000000e+01	-2.323897e+00
1.005776e+01	-2.344635e+00
1.011585e+01	-2.365565e+00
1.017428e+01	-2.387029e+00
1.023305e+01	-2.408059e+00
1.029215e+01	-2.429313e+00
1.035160e+01	-2.450976e+00
1.041139e+01	-2.472465e+00
1.047153e+01	-2.494355e+00
1.053201e+01	-2.516453e+00
1.059284e+01	-2.538127e+00
1.065403e+01	-2.560454e+00
1.071556e+01	-2.582814e+00
1.077746e+01	-2.605318e+00
1.083971e+01	-2.627952e+00
1.090232e+01	-2.650709e+00
1.096529e+01	-2.673705e+00
1.102862e+01	-2.696871e+00
1.109232e+01	-2.719875e+00
1.115639e+01	-2.743269e+00
1.122083e+01	-2.766879e+00
1.128564e+01	-2.790491e+00
1.135083e+01	-2.814243e+00
1.141639e+01	-2.838414e+00
1.148233e+01	-2.862494e+00
1.154865e+01	-2.886416e+00
1.161536e+01	-2.910507e+00
1.168245e+01	-2.935171e+00
1.174992e+01	-2.960075e+00
1.181779e+01	-2.984673e+00
1.188605e+01	-3.009960e+00
1.195470e+01	-3.034609e+00
1.202375e+01	-3.060036e+00
1.209320e+01	-3.085480e+00
1.216305e+01	-3.111054e+00
1.223330e+01	-3.136651e+00
1.230396e+01	-3.162206e+00
1.237503e+01	-3.188312e+00
1.244651e+01	-3.214320e+00
1.251840e+01	-3.240865e+00
1.259070e+01	-3.267070e+00
1.266343e+01	-3.293348e+00
1.273657e+01	-3.320146e+00
1.281014e+01	-3.347144e+00
1.288413e+01	-3.373871e+00
1.295855e+01	-3.400843e+00
1.303339e+01	-3.428341e+00
1.310867e+01	-3.455514e+00
1.318439e+01	-3.483458e+00
1.326054e+01	-3.510983e+00
1.333713e+01	-3.538673e+00
1.341417e+01	-3.566677e+00
1.349165e+01	-3.594761e+00
1.356958e+01	-3.623103e+00
1.364795e+01	-3.651145e+00
1.372678e+01	-3.679751e+00
1.380607e+01	-3.708499e+00
1.388581e+01	-3.737247e+00
1.396602e+01	-3.766221e+00
1.404668e+01	-3.795146e+00
1.412782e+01	-3.824613e+00
1.420942e+01	-3.854017e+00
1.429149e+01	-3.883469e+00
1.437404e+01	-3.913154e+00
1.445706e+01	-3.942907e+00
1.454057e+01	-3.972453e+00
1.462455e+01	-4.002682e+00
1.470902e+01	-4.032745e+00
1.479398e+01	-4.063245e+00
1.487943e+01	-4.093633e+00
1.496537e+01	-4.124178e+00
1.505181e+01	-4.155111e+00
1.513875e+01	-4.186018e+00
1.522619e+01	-4.216915e+00
1.531414e+01	-4.248421e+00
1.540259e+01	-4.279229e+00
1.549156e+01	-4.310762e+00
1.558103e+01	-4.342532e+00
1.567103e+01	-4.373895e+00
1.576155e+01	-4.405922e+00
1.585258e+01	-4.438078e+00
1.594415e+01	-4.469851e+00
1.603624e+01	-4.502122e+00
1.612886e+01	-4.534519e+00
1.622202e+01	-4.567048e+00
1.631572e+01	-4.599577e+00
1.640996e+01	-4.632354e+00
1.650474e+01	-4.665413e+00
1.660008e+01	-4.698060e+00
1.669596e+01	-4.731425e+00
1.679239e+01	-4.764432e+00
1.688938e+01	-4.797853e+00
1.698694e+01	-4.831539e+00
1.708505e+01	-4.865245e+00
1.718373e+01	-4.899104e+00
1.728299e+01	-4.932845e+00
1.738281e+01	-4.966773e+00
1.748322e+01	-5.001152e+00
1.758420e+01	-5.035397e+00
1.768576e+01	-5.069601e+00
1.778792e+01	-5.103976e+00
1.789066e+01	-5.138477e+00
1.799399e+01	-5.173493e+00
1.809793e+01	-5.208257e+00
1.820246e+01	-5.243524e+00
1.830760e+01	-5.278669e+00
1.841334e+01	-5.313827e+00
1.851969e+01	-5.349460e+00
1.862666e+01	-5.384538e+00
1.873425e+01	-5.420340e+00
1.884246e+01	-5.455820e+00
1.895129e+01	-5.491877e+00
1.906075e+01	-5.528019e+00
1.917085e+01	-5.563649e+00
1.928158e+01	-5.600017e+00
1.939295e+01	-5.636421e+00
1.950496e+01	-5.672809e+00
1.961762e+01	-5.709197e+00
1.973093e+01	-5.746052e+00
1.984490e+01	-5.782569e+00
1.995952e+01	-5.819638e+00
2.007480e+01	-5.856780e+00
2.019076e+01	-5.893460e+00
2.030738e+01	-5.930715e+00
2.042467e+01	-5.967804e+00
2.054264e+01	-6.005457e+00
2.066130e+01	-6.043201e+00
2.078064e+01	-6.080948e+00
2.090066e+01	-6.118646e+00
2.102139e+01	-6.156334e+00
2.114280e+01	-6.194613e+00
2.126492e+01	-6.232217e+00
2.138775e+01	-6.270862e+00
2.151128e+01	-6.308772e+00
2.163553e+01	-6.347408e+00
2.176050e+01	-6.385530e+00
2.188619e+01	-6.424427e+00
2.201260e+01	-6.462806e+00
2.213974e+01	-6.501868e+00
2.226762e+01	-6.540732e+00
2.239624e+01	-6.579484e+00
2.252560e+01	-6.618979e+00
2.265571e+01	-6.657632e+00
2.278656e+01	-6.696885e+00
2.291818e+01	-6.736438e+00
2.305055e+01	-6.775944e+00
2.318369e+01	-6.815612e+00
2.331760e+01	-6.855188e+00
2.345228e+01	-6.894586e+00
2.358774e+01	-6.935059e+00
2.372398e+01	-6.974721e+00
2.386101e+01	-7.014744e+00
2.399883e+01	-7.055035e+00
2.413745e+01	-7.095061e+00
2.427686e+01	-7.135601e+00
2.441709e+01	-7.176113e+00
2.455812e+01	-7.216174e+00
2.469997e+01	-7.256752e+00
2.484263e+01	-7.297405e+00
2.498612e+01	-7.338654e+00
2.513044e+01	-7.379099e+00
2.527559e+01	-7.419942e+00
2.542158e+01	-7.461073e+00
2.556842e+01	-7.502118e+00
2.571610e+01	-7.543124e+00
2.586463e+01	-7.584535e+00
2.601403e+01	-7.625960e+00
2.616428e+01	-7.667302e+00
2.631541e+01	-7.708641e+00
2.646740e+01	-7.750484e+00
2.662028e+01	-7.791876e+00
2.677404e+01	-7.833996e+00
2.692868e+01	-7.875560e+00
2.708422e+01	-7.916903e+00
2.724066e+01	-7.959648e+00
2.739800e+01	-8.001563e+00
2.755625e+01	-8.043888e+00
2.771541e+01	-8.085955e+00
2.787550e+01	-8.128367e+00
2.803650e+01	-8.170728e+00
2.819844e+01	-8.213203e+00
2.836131e+01	-8.255475e+00
2.852513e+01	-8.298331e+00
2.868989e+01	-8.340595e+00
2.885560e+01	-8.383579e+00
2.902227e+01	-8.426207e+00
2.918990e+01	-8.469325e+00
2.935850e+01	-8.512279e+00
2.952807e+01	-8.555154e+00
2.969863e+01	-8.598102e+00
2.987016e+01	-8.641440e+00
3.004269e+01	-8.684653e+00
3.021622e+01	-8.727907e+00
3.039075e+01	-8.771814e+00
3.056628e+01	-8.815059e+00
3.074283e+01	-8.858318e+00
3.092040e+01	-8.901788e+00
3.109900e+01	-8.945326e+00
3.127862e+01	-8.989496e+00
3.145929e+01	-9.033072e+00
3.164099e+01	-9.076518e+00
3.182375e+01	-9.120831e+00
3.200756e+01	-9.164503e+00
3.219244e+01	-9.208431e+00
3.237838e+01	-9.252200e+00
3.256540e+01	-9.296091e+00
3.275349e+01	-9.340730e+00
3.294268e+01	-9.384810e+00
3.313295e+01	-9.429260e+00
3.332433e+01	-9.473339e+00
3.351681e+01	-9.518089e+00
3.371040e+01	-9.562746e+00
3.390511e+01	-9.607377e+00
3.410094e+01	-9.651719e+00
3.429791e+01	-9.696200e+00
3.449601e+01	-9.740658e+00
3.469526e+01	-9.785590e+00
3.489566e+01	-9.830409e+00
3.509721e+01	-9.875013e+00
3.529993e+01	-9.919844e+00
3.550382e+01	-9.965109e+00
3.570889e+01	-1.001033e+01
3.591515e+01	-1.005533e+01
3.612259e+01	-1.010013e+01
3.633123e+01	-1.014541e+01
3.654108e+01	-1.019108e+01
3.675214e+01	-1.023644e+01
3.696442e+01	-1.028077e+01
3.717792e+01	-1.032642e+01
3.739266e+01	-1.037169e+01
3.760864e+01	-1.041784e+01
3.782587e+01	-1.046315e+01
3.804435e+01	-1.050788e+01
3.826409e+01	-1.055409e+01
3.848510e+01	-1.059962e+01
3.870739e+01	-1.064592e+01
3.893096e+01	-1.069099e+01
3.915583e+01	-1.073681e+01
3.938199e+01	-1.078308e+01
3.960946e+01	-1.082878e+01
3.983824e+01	-1.087441e+01
4.006834e+01	-1.092147e+01
4.029978e+01	-1.096642e+01
4.053255e+01	-1.101298e+01
4.076666e+01	-1.105909e+01
4.100213e+01	-1.110517e+01
4.123896e+01	-1.115125e+01
4.147715e+01	-1.119755e+01
4.171672e+01	-1.124347e+01
4.195767e+01	-1.128967e+01
4.220002e+01	-1.133527e+01
4.244377e+01	-1.138302e+01
4.268892e+01	-1.142856e+01
4.293549e+01	-1.147540e+01
4.318348e+01	-1.152215e+01
4.343291e+01	-1.156856e+01
4.368377e+01	-1.161466e+01
4.393609e+01	-1.166139e+01
4.418986e+01	-1.170797e+01
4.444510e+01	-1.175500e+01
4.470182e+01	-1.180167e+01
4.496001e+01	-1.184793e+01
4.521970e+01	-1.189541e+01
4.548089e+01	-1.194139e+01
4.574358e+01	-1.198836e+01
4.600779e+01	-1.203520e+01
4.627353e+01	-1.208315e+01
4.654081e+01	-1.212918e+01
4.680963e+01	-1.217618e+01
4.708000e+01	-1.222325e+01
4.735193e+01	-1.227054e+01
4.762543e+01	-1.231709e+01
4.790051e+01	-1.236456e+01
4.817719e+01	-1.241206e+01
4.845545e+01	-1.245883e+01
4.873533e+01	-1.250611e+01
4.901682e+01	-1.255411e+01
4.929994e+01	-1.259979e+01
4.958470e+01	-1.264817e+01
4.987110e+01	-1.269546e+01
5.015915e+01	-1.274236e+01
5.044887e+01	-1.278982e+01
5.074026e+01	-1.283688e+01
5.103333e+01	-1.288483e+01
5.132810e+01	-1.293188e+01
5.162457e+01	-1.297964e+01
5.192275e+01	-1.302752e+01
5.222265e+01	-1.307457e+01
5.252429e+01	-1.312296e+01
5.282767e+01	-1.317049e+01
5.313280e+01	-1.321744e+01
5.343969e+01	-1.326588e+01
5.374836e+01	-1.331287e+01
5.405880e+01	-1.336073e+01
5.437105e+01	-1.340845e+01
5.468509e+01	-1.345647e+01
5.500095e+01	-1.350381e+01
5.531863e+01	-1.355096e+01
5.563815e+01	-1.359910e+01
5.595951e+01	-1.364767e+01
5.628273e+01	-1.369466e+01
5.660782e+01	-1.374393e+01
5.693479e+01	-1.379053e+01
5.726364e+01	-1.383906e+01
5.759439e+01	-1.388691e+01
5.792705e+01	-1.393488e+01
5.826164e+01	-1.398303e+01
5.859815e+01	-1.403068e+01
5.893662e+01	-1.407980e+01
5.927703e+01	-1.412738e+01
5.961941e+01	-1.417548e+01
5.996377e+01	-1.422364e+01
6.031012e+01	-1.427090e+01
6.065847e+01	-1.432050e+01
6.100883e+01	-1.436790e+01
6.136121e+01	-1.441626e+01
6.171563e+01	-1.446452e+01
6.207210e+01	-1.451241e+01
6.243063e+01	-1.456091e+01
6.279122e+01	-1.460870e+01
6.315390e+01	-1.465671e+01
6.351868e+01	-1.470517e+01
6.388556e+01	-1.475430e+01
6.425456e+01	-1.480292e+01
6.462569e+01	-1.485110e+01
6.499897e+01	-1.489957e+01
6.537440e+01	-1.494878e+01
6.575200e+01	-1.499607e+01
6.613178e+01	-1.504455e+01
6.651375e+01	-1.509318e+01
6.689793e+01	-1.514213e+01
6.728433e+01	-1.518965e+01
6.767297e+01	-1.523899e+01
6.806384e+01	-1.528745e+01
6.845698e+01	-1.533610e+01
6.885238e+01	-1.538495e+01
6.925007e+01	-1.543384e+01
6.965005e+01	-1.548194e+01
7.005235e+01	-1.553031e+01
7.045697e+01	-1.557876e+01
7.086393e+01	-1.562771e+01
7.127323e+01	-1.567609e+01
7.168490e+01	-1.572540e+01
7.209895e+01	-1.577303e+01
7.251539e+01	-1.582258e+01
7.293424e+01	-1.587156e+01
7.335551e+01	-1.591880e+01
7.377920e+01	-1.596851e+01
7.420535e+01	-1.601756e+01
7.463396e+01	-1.606533e+01
7.506504e+01	-1.611476e+01
7.549861e+01	-1.616359e+01
7.593469e+01	-1.621141e+01
7.637328e+01	-1.626217e+01
7.681441e+01	-1.631019e+01
7.725809e+01	-1.635933e+01
7.770433e+01	-1.640845e+01
7.815315e+01	-1.645609e+01
7.860456e+01	-1.650636e+01
7.905857e+01	-1.655514e+01
7.951521e+01	-1.660444e+01
7.997449e+01	-1.665213e+01
8.043642e+01	-1.669953e+01
8.090102e+01	-1.675187e+01
8.136830e+01	-1.680013e+01
8.183828e+01	-1.684787e+01
8.231097e+01	-1.689780e+01
8.278640e+01	-1.694691e+01
8.326457e+01	-1.699495e+01
8.374550e+01	-1.704320e+01
8.422921e+01	-1.709445e+01
8.471572e+01	-1.714218e+01
8.520503e+01	-1.719051e+01
8.569717e+01	-1.724079e+01
8.619215e+01	-1.728853e+01
8.669000e+01	-1.733853e+01
8.719071e+01	-1.738890e+01
8.769432e+01	-1.743715e+01
8.820084e+01	-1.748583e+01
8.871029e+01	-1.753562e+01
8.922267e+01	-1.758355e+01
8.973802e+01	-1.763341e+01
9.025634e+01	-1.768220e+01
9.077766e+01	-1.773082e+01
9.130199e+01	-1.777927e+01
9.182935e+01	-1.783020e+01
9.235975e+01	-1.788074e+01
9.289321e+01	-1.792752e+01
9.342976e+01	-1.797894e+01
9.396941e+01	-1.802706e+01
9.451217e+01	-1.807634e+01
9.505807e+01	-1.812564e+01
9.560712e+01	-1.817486e+01
9.615934e+01	-1.822563e+01
9.671476e+01	-1.827416e+01
9.727338e+01	-1.832112e+01
9.783522e+01	-1.837265e+01
9.840032e+01	-1.842059e+01
9.896867e+01	-1.847118e+01
9.954031e+01	-1.852082e+01
1.001153e+02	-1.856950e+01
1.006935e+02	-1.861990e+01
1.012751e+02	-1.866815e+01
1.018601e+02	-1.871806e+01
1.024484e+02	-1.876737e+01
1.030402e+02	-1.881612e+01
1.036353e+02	-1.886484e+01
1.042339e+02	-1.891494e+01
1.048360e+02	-1.896442e+01
1.054415e+02	-1.901325e+01
1.060505e+02	-1.906330e+01
1.066631e+02	-1.911297e+01
1.072791e+02	-1.916209e+01
1.078988e+02	-1.921093e+01
1.085220e+02	-1.926070e+01
1.091488e+02	-1.931078e+01
1.097793e+02	-1.935999e+01
1.104133e+02	-1.940952e+01
1.110511e+02	-1.945840e+01
1.116925e+02	-1.950723e+01
1.123376e+02	-1.955818e+01
1.129865e+02	-1.960696e+01
1.136391e+02	-1.965725e+01
1.142955e+02	-1.970601e+01
1.149556e+02	-1.975535e+01
1.156196e+02	-1.980468e+01
1.162874e+02	-1.985563e+01
1.169591e+02	-1.990472e+01
1.176347e+02	-1.995390e+01
1.183141e+02	-2.000380e+01
1.189975e+02	-2.005375e+01
1.196848e+02	-2.010204e+01
1.203761e+02	-2.015291e+01
1.210714e+02	-2.020092e+01
1.217707e+02	-2.025091e+01
1.224740e+02	-2.030295e+01
1.231814e+02	-2.035160e+01
1.238929e+02	-2.040020e+01
1.246085e+02	-2.045041e+01
1.253283e+02	-2.049960e+01
1.260522e+02	-2.054797e+01
1.267802e+02	-2.059636e+01
1.275125e+02	-2.064815e+01
1.282490e+02	-2.069758e+01
1.289898e+02	-2.074697e+01
1.297348e+02	-2.079600e+01
1.304842e+02	-2.084530e+01
1.312378e+02	-2.089511e+01
1.319959e+02	-2.094311e+01
1.327583e+02	-2.099586e+01
1.335251e+02	-2.104422e+01
1.342963e+02	-2.109549e+01
1.350720e+02	-2.114489e+01
1.358522e+02	-2.119256e+01
1.366368e+02	-2.124415e+01
1.374260e+02	-2.129270e+01
1.382198e+02	-2.134346e+01
1.390182e+02	-2.139241e+01
1.398211e+02	-2.144197e+01
1.406287e+02	-2.149477e+01
1.414410e+02	-2.154336e+01
1.422579e+02	-2.159161e+01
1.430796e+02	-2.164242e+01
1.439060e+02	-2.168789e+01
1.447372e+02	-2.174005e+01
1.455732e+02	-2.178948e+01
1.464141e+02	-2.183853e+01
1.472597e+02	-2.188997e+01
1.481103e+02	-2.193819e+01
1.489658e+02	-2.198895e+01
1.498262e+02	-2.203987e+01
1.506916e+02	-2.208778e+01
1.515620e+02	-2.213841e+01
1.524374e+02	-2.218997e+01
1.533179e+02	-2.223824e+01
1.542034e+02	-2.228772e+01
1.550941e+02	-2.233669e+01
1.559899e+02	-2.238572e+01
1.568909e+02	-2.243481e+01
1.577971e+02	-2.248653e+01
1.587085e+02	-2.253787e+01
1.596252e+02	-2.258494e+01
1.605472e+02	-2.263650e+01
1.614745e+02	-2.268727e+01
1.624072e+02	-2.273574e+01
1.633453e+02	-2.278368e+01
1.642887e+02	-2.283453e+01
1.652377e+02	-2.288428e+01
1.661921e+02	-2.293414e+01
1.671520e+02	-2.298434e+01
1.681175e+02	-2.303511e+01
1.690885e+02	-2.308189e+01
1.700651e+02	-2.313401e+01
1.710474e+02	-2.318138e+01
1.720354e+02	-2.323013e+01
1.730291e+02	-2.328551e+01
1.740285e+02	-2.333569e+01
1.750337e+02	-2.338238e+01
1.760446e+02	-2.343198e+01
1.770615e+02	-2.348021e+01
1.780842e+02	-2.353111e+01
1.791128e+02	-2.358311e+01
1.801473e+02	-2.363123e+01
1.811878e+02	-2.368118e+01
1.822344e+02	-2.373376e+01
1.832870e+02	-2.378195e+01
1.843456e+02	-2.383002e+01
1.854104e+02	-2.388025e+01
1.864813e+02	-2.393068e+01
1.875584e+02	-2.397959e+01
1.886418e+02	-2.403185e+01
1.897313e+02	-2.408087e+01
1.908272e+02	-2.412790e+01
1.919294e+02	-2.417937e+01
1.930380e+02	-2.422805e+01
1.941530e+02	-2.428160e+01
1.952744e+02	-2.432880e+01
1.964023e+02	-2.437854e+01
1.975367e+02	-2.442982e+01
1.986777e+02	-2.447831e+01
1.998252e+02	-2.452852e+01
2.009794e+02	-2.457889e+01
2.021403e+02	-2.462931e+01
2.033078e+02	-2.467886e+01
2.044821e+02	-2.472944e+01
2.056632e+02	-2.477746e+01
2.068511e+02	-2.483208e+01
2.080459e+02	-2.487790e+01
2.092475e+02	-2.492828e+01
2.104561e+02	-2.497645e+01
2.116717e+02	-2.503028e+01
2.128943e+02	-2.507907e+01
2.141240e+02	-2.512746e+01
2.153608e+02	-2.517581e+01
2.166047e+02	-2.522647e+01
2.178558e+02	-2.527812e+01
2.191141e+02	-2.532852e+01
2.203797e+02	-2.537848e+01
2.216526e+02	-2.542850e+01
2.229329e+02	-2.547823e+01
2.242205e+02	-2.552732e+01
2.255156e+02	-2.557389e+01
2.268182e+02	-2.562558e+01
2.281283e+02	-2.567566e+01
2.294459e+02	-2.572393e+01
2.307712e+02	-2.577292e+01
2.321041e+02	-2.582806e+01
2.334447e+02	-2.587416e+01
2.347931e+02	-2.592526e+01
2.361493e+02	-2.597610e+01
2.375133e+02	-2.602501e+01
2.388851e+02	-2.607505e+01
2.402649e+02	-2.612683e+01
2.416527e+02	-2.617801e+01
2.430484e+02	-2.622709e+01
2.444523e+02	-2.627664e+01
2.458642e+02	-2.632625e+01
2.472843e+02	-2.637591e+01
2.487126e+02	-2.642559e+01
2.501492e+02	-2.647396e+01
2.515940e+02	-2.652639e+01
2.530472e+02	-2.657960e+01
2.545088e+02	-2.662661e+01
2.559789e+02	-2.667312e+01
2.574574e+02	-2.672293e+01
2.589444e+02	-2.677963e+01
2.604401e+02	-2.682644e+01
2.619444e+02	-2.687638e+01
2.634574e+02	-2.692730e+01
2.649791e+02	-2.697524e+01
2.665096e+02	-2.702749e+01
2.680489e+02	-2.707475e+01
2.695972e+02	-2.712218e+01
2.711544e+02	-2.717738e+01
2.727205e+02	-2.722374e+01
2.742958e+02	-2.727367e+01
2.758801e+02	-2.732955e+01
2.774736e+02	-2.737274e+01
2.790762e+02	-2.742717e+01
2.806882e+02	-2.747641e+01
2.823094e+02	-2.752633e+01
2.839400e+02	-2.757410e+01
2.855800e+02	-2.762784e+01
2.872295e+02	-2.767356e+01
2.888886e+02	-2.772408e+01
2.905572e+02	-2.777705e+01
2.922354e+02	-2.782689e+01
2.939234e+02	-2.787148e+01
2.956211e+02	-2.792679e+01
2.973286e+02	-2.797550e+01
2.990459e+02	-2.802704e+01
3.007732e+02	-2.808010e+01
3.025104e+02	-2.812297e+01
3.042577e+02	-2.817602e+01
3.060151e+02	-2.822742e+01
3.077826e+02	-2.828030e+01
3.095604e+02	-2.832713e+01
3.113484e+02	-2.837212e+01
3.131467e+02	-2.842514e+01
3.149554e+02	-2.847422e+01
3.167746e+02	-2.852581e+01
3.186043e+02	-2.857601e+01
3.204445e+02	-2.862367e+01
3.222954e+02	-2.867592e+01
3.241570e+02	-2.872326e+01
3.260293e+02	-2.877557e+01
3.279124e+02	-2.882408e+01
3.298064e+02	-2.887765e+01
3.317114e+02	-2.892480e+01
3.336273e+02	-2.897653e+01
3.355544e+02	-2.902630e+01
3.374925e+02	-2.907456e+01
3.394418e+02	-2.912285e+01
3.414024e+02	-2.917630e+01
3.433744e+02	-2.922816e+01
3.453577e+02	-2.927507e+01
3.473525e+02	-2.932581e+01
3.493588e+02	-2.937991e+01
3.513766e+02	-2.942659e+01
3.534062e+02	-2.947749e+01
3.554474e+02	-2.952466e+01
3.575005e+02	-2.957398e+01
3.595654e+02	-2.962609e+01
3.616422e+02	-2.967573e+01
3.637311e+02	-2.972631e+01
3.658320e+02	-2.978168e+01
3.679450e+02	-2.983136e+01
3.700702e+02	-2.987732e+01
3.722077e+02	-2.992995e+01
3.743576e+02	-2.997756e+01
3.765199e+02	-3.002658e+01
3.786946e+02	-3.007438e+01
3.808820e+02	-3.012846e+01
3.830819e+02	-3.017501e+01
3.852946e+02	-3.022713e+01
3.875200e+02	-3.027849e+01
3.897583e+02	-3.033326e+01
3.920096e+02	-3.037879e+01
3.942738e+02	-3.042771e+01
3.965511e+02	-3.048289e+01
3.988416e+02	-3.052660e+01
4.011452e+02	-3.058074e+01
4.034622e+02	-3.062862e+01
4.057926e+02	-3.067943e+01
4.081365e+02	-3.072447e+01
4.104938e+02	-3.077632e+01
4.128648e+02	-3.082436e+01
4.152495e+02	-3.088203e+01
4.176480e+02	-3.092959e+01
4.200603e+02	-3.097456e+01
4.224866e+02	-3.102858e+01
4.249268e+02	-3.107935e+01
4.273812e+02	-3.112567e+01
4.298497e+02	-3.118140e+01
4.323325e+02	-3.123616e+01
4.348297e+02	-3.127452e+01
4.373412e+02	-3.133243e+01
4.398673e+02	-3.138754e+01
4.424079e+02	-3.142924e+01
4.449633e+02	-3.148491e+01
4.475334e+02	-3.153356e+01
4.501183e+02	-3.158085e+01
4.527182e+02	-3.163283e+01
4.553330e+02	-3.168170e+01
4.579630e+02	-3.172996e+01
4.606082e+02	-3.177943e+01
4.632687e+02	-3.182576e+01
4.659445e+02	-3.187955e+01
4.686358e+02	-3.193063e+01
4.713426e+02	-3.197885e+01
4.740650e+02	-3.203389e+01
4.768032e+02	-3.208339e+01
4.795572e+02	-3.213957e+01
4.823271e+02	-3.217941e+01
4.851130e+02	-3.223300e+01
4.879150e+02	-3.227923e+01
4.907332e+02	-3.233754e+01
4.935676e+02	-3.238630e+01
4.964185e+02	-3.243286e+01
4.992858e+02	-3.248504e+01
5.021696e+02	-3.253749e+01
5.050701e+02	-3.258643e+01
5.079874e+02	-3.263377e+01
5.109215e+02	-3.268453e+01
5.138726e+02	-3.273471e+01
5.168407e+02	-3.278443e+01
5.198259e+02	-3.283242e+01
5.228284e+02	-3.289082e+01
5.258482e+02	-3.293954e+01
5.288855e+02	-3.298190e+01
5.319403e+02	-3.304009e+01
5.350128e+02	-3.308322e+01
5.381030e+02	-3.313174e+01
5.412111e+02	-3.318311e+01
5.443371e+02	-3.324122e+01
5.474812e+02	-3.328073e+01
5.506434e+02	-3.334183e+01
5.538239e+02	-3.338915e+01
5.570228e+02	-3.343617e+01
5.602401e+02	-3.348865e+01
5.634760e+02	-3.353531e+01
5.667306e+02	-3.358891e+01
5.700040e+02	-3.364455e+01
5.732964e+02	-3.369113e+01
5.766077e+02	-3.374390e+01
5.799382e+02	-3.378430e+01
5.832879e+02	-3.383207e+01
5.866569e+02	-3.388717e+01
5.900454e+02	-3.394669e+01
5.934535e+02	-3.399894e+01
5.968813e+02	-3.404200e+01
6.003288e+02	-3.408827e+01
6.037963e+02	-3.414025e+01
6.072838e+02	-3.419608e+01
6.107914e+02	-3.424251e+01
6.143194e+02	-3.429120e+01
6.178676e+02	-3.434680e+01
6.214364e+02	-3.439813e+01
6.250258e+02	-3.445109e+01
6.286359e+02	-3.449316e+01
6.322669e+02	-3.454045e+01
6.359189e+02	-3.459424e+01
6.395919e+02	-3.465461e+01
6.432862e+02	-3.469896e+01
6.470017e+02	-3.474168e+01
6.507388e+02	-3.480271e+01
6.544974e+02	-3.485117e+01
6.582778e+02	-3.489941e+01
6.620800e+02	-3.495293e+01
6.659041e+02	-3.499073e+01
6.697504e+02	-3.505421e+01
6.736188e+02	-3.509506e+01
6.775096e+02	-3.514194e+01
6.814229e+02	-3.520241e+01
6.853587e+02	-3.525041e+01
6.893173e+02	-3.529794e+01
6.932988e+02	-3.534681e+01
6.973033e+02	-3.540201e+01
7.013309e+02	-3.545161e+01
