Frequency(Hz)	Magnitude(dB)
1.000000e+01	-2.258837e+00
1.005776e+01	-2.279170e+00
1.011585e+01	-2.299735e+00
1.017428e+01	-2.320430e+00
1.023305e+01	-2.340887e+00
1.029215e+01	-2.361912e+00
1.035160e+01	-2.383189e+00
1.041139e+01	-2.404392e+00
1.047153e+01	-2.425774e+00
1.053201e+01	-2.447148e+00
1.059284e+01	-2.468785e+00
1.065403e+01	-2.490475e+00
1.071556e+01	-2.512156e+00
1.077746e+01	-2.534458e+00
1.083971e+01	-2.556808e+00
1.090232e+01	-2.578767e+00
1.096529e+01	-2.601372e+00
1.102862e+01	-2.623864e+00
1.109232e+01	-2.646834e+00
1.115639e+01	-2.669654e+00
1.122083e+01	-2.692778e+00
1.128564e+01	-2.715970e+00
1.135083e+01	-2.739171e+00
1.141639e+01	-2.762734e+00
1.148233e+01	-2.786432e+00
1.154865e+01	-2.810155e+00
1.161536e+01	-2.834105e+00
1.168245e+01	-2.857952e+00
1.174992e+01	-2.882243e+00
1.181779e+01	-2.906504e+00
1.188605e+01	-2.931059e+00
1.195470e+01	-2.955616e+00
1.202375e+01	-2.980486e+00
1.209320e+01	-3.005203e+00
1.216305e+01	-3.030431e+00
1.223330e+01	-3.055740e+00
1.230396e+01	-3.080968e+00
1.237503e+01	-3.106243e+00
1.244651e+01	-3.132004e+00
1.251840e+01	-3.157686e+00
1.259070e+01	-3.183878e+00
1.266343e+01	-3.209774e+00
1.273657e+01	-3.236214e+00
1.281014e+01	-3.262314e+00
1.288413e+01	-3.288832e+00
1.295855e+01	-3.315543e+00
1.303339e+01	-3.342373e+00
1.310867e+01	-3.369208e+00
1.318439e+01	-3.396675e+00
1.326054e+01	-3.423420e+00
1.333713e+01	-3.450875e+00
1.341417e+01	-3.478075e+00
1.349165e+01	-3.506078e+00
1.356958e+01	-3.533898e+00
1.364795e+01	-3.561719e+00
1.372678e+01	-3.589638e+00
1.380607e+01	-3.618054e+00
1.388581e+01	-3.646417e+00
1.396602e+01	-3.674712e+00
1.404668e+01	-3.703444e+00
1.412782e+01	-3.732209e+00
1.420942e+01	-3.761208e+00
1.429149e+01	-3.790270e+00
1.437404e+01	-3.819333e+00
1.445706e+01	-3.848727e+00
1.454057e+01	-3.878155e+00
1.462455e+01	-3.907743e+00
1.470902e+01	-3.937540e+00
1.479398e+01	-3.967669e+00
1.487943e+01	-3.997479e+00
1.496537e+01	-4.027468e+00
1.505181e+01	-4.057950e+00
1.513875e+01	-4.088487e+00
1.522619e+01	-4.118895e+00
1.531414e+01	-4.149710e+00
1.540259e+01	-4.180630e+00
1.549156e+01	-4.211336e+00
1.558103e+01	-4.242895e+00
1.567103e+01	-4.273850e+00
1.576155e+01	-4.305197e+00
1.585258e+01	-4.336829e+00
1.594415e+01	-4.368633e+00
1.603624e+01	-4.400261e+00
1.612886e+01	-4.432216e+00
1.622202e+01	-4.464376e+00
1.631572e+01	-4.496214e+00
1.640996e+01	-4.528785e+00
1.650474e+01	-4.561355e+00
1.660008e+01	-4.593940e+00
1.669596e+01	-4.626496e+00
1.679239e+01	-4.659329e+00
1.688938e+01	-4.692477e+00
1.698694e+01	-4.725780e+00
1.708505e+01	-4.758854e+00
1.718373e+01	-4.792128e+00
1.728299e+01	-4.825416e+00
1.738281e+01	-4.859430e+00
1.748322e+01	-4.893260e+00
1.758420e+01	-4.926903e+00
1.768576e+01	-4.960716e+00
1.778792e+01	-4.994953e+00
1.789066e+01	-5.029234e+00
1.799399e+01	-5.063771e+00
1.809793e+01	-5.098072e+00
1.820246e+01	-5.132477e+00
1.830760e+01	-5.167455e+00
1.841334e+01	-5.202443e+00
1.851969e+01	-5.237190e+00
1.862666e+01	-5.272280e+00
1.873425e+01	-5.307445e+00
1.884246e+01	-5.343215e+00
1.895129e+01	-5.378663e+00
1.906075e+01	-5.413891e+00
1.917085e+01	-5.449758e+00
1.928158e+01	-5.485551e+00
1.939295e+01	-5.521428e+00
1.950496e+01	-5.557570e+00
1.961762e+01	-5.593745e+00
1.973093e+01	-5.630263e+00
1.984490e+01	-5.666442e+00
1.995952e+01	-5.702676e+00
2.007480e+01	-5.739522e+00
2.019076e+01	-5.776321e+00
2.030738e+01	-5.812771e+00
2.042467e+01	-5.850035e+00
2.054264e+01	-5.887274e+00
2.066130e+01	-5.924643e+00
2.078064e+01	-5.961611e+00
2.090066e+01	-5.999008e+00
2.102139e+01	-6.036708e+00
2.114280e+01	-6.073993e+00
2.126492e+01	-6.112083e+00
2.138775e+01	-6.149838e+00
2.151128e+01	-6.187493e+00
2.163553e+01	-6.225476e+00
2.176050e+01	-6.263785e+00
2.188619e+01	-6.302408e+00
2.201260e+01	-6.340346e+00
2.213974e+01	-6.379008e+00
2.226762e+01	-6.417433e+00
2.239624e+01	-6.456174e+00
2.252560e+01	-6.495049e+00
2.265571e+01	-6.534012e+00
2.278656e+01	-6.572896e+00
2.291818e+01	-6.611890e+00
2.305055e+01	-6.651217e+00
2.318369e+01	-6.689927e+00
2.331760e+01	-6.729457e+00
2.345228e+01	-6.768815e+00
2.358774e+01	-6.808480e+00
2.372398e+01	-6.848107e+00
2.386101e+01	-6.888185e+00
2.399883e+01	-6.927733e+00
2.413745e+01	-6.967726e+00
2.427686e+01	-7.007572e+00
2.441709e+01	-7.047704e+00
2.455812e+01	-7.088243e+00
2.469997e+01	-7.128530e+00
2.484263e+01	-7.169021e+00
2.498612e+01	-7.208975e+00
2.513044e+01	-7.249636e+00
2.527559e+01	-7.290670e+00
2.542158e+01	-7.331000e+00
2.556842e+01	-7.371925e+00
2.571610e+01	-7.412826e+00
2.586463e+01	-7.453783e+00
2.601403e+01	-7.495257e+00
2.616428e+01	-7.536232e+00
2.631541e+01	-7.577648e+00
2.646740e+01	-7.618282e+00
2.662028e+01	-7.660014e+00
2.677404e+01	-7.701628e+00
2.692868e+01	-7.743413e+00
2.708422e+01	-7.784655e+00
2.724066e+01	-7.826737e+00
2.739800e+01	-7.868713e+00
2.755625e+01	-7.910045e+00
2.771541e+01	-7.952350e+00
2.787550e+01	-7.994176e+00
2.803650e+01	-8.036564e+00
2.819844e+01	-8.078380e+00
2.836131e+01	-8.121003e+00
2.852513e+01	-8.163266e+00
2.868989e+01	-8.205514e+00
2.885560e+01	-8.248241e+00
2.902227e+01	-8.290657e+00
2.918990e+01	-8.333533e+00
2.935850e+01	-8.376109e+00
2.952807e+01	-8.418767e+00
2.969863e+01	-8.461516e+00
2.987016e+01	-8.504725e+00
3.004269e+01	-8.548200e+00
3.021622e+01	-8.591030e+00
3.039075e+01	-8.633789e+00
3.056628e+01	-8.677081e+00
3.074283e+01	-8.720355e+00
3.092040e+01	-8.763603e+00
3.109900e+01	-8.806918e+00
3.127862e+01	-8.850434e+00
3.145929e+01	-8.893848e+00
3.164099e+01	-8.937791e+00
3.182375e+01	-8.981358e+00
3.200756e+01	-9.025059e+00
3.219244e+01	-9.068800e+00
3.237838e+01	-9.112792e+00
3.256540e+01	-9.156860e+00
3.275349e+01	-9.200715e+00
3.294268e+01	-9.243846e+00
3.313295e+01	-9.288691e+00
3.332433e+01	-9.332872e+00
3.351681e+01	-9.377338e+00
3.371040e+01	-9.421462e+00
3.390511e+01	-9.465750e+00
3.410094e+01	-9.509935e+00
3.429791e+01	-9.554400e+00
3.449601e+01	-9.599471e+00
3.469526e+01	-9.643552e+00
3.489566e+01	-9.688435e+00
3.509721e+01	-9.733209e+00
3.529993e+01	-9.777700e+00
3.550382e+01	-9.823341e+00
3.570889e+01	-9.867616e+00
3.591515e+01	-9.912073e+00
3.612259e+01	-9.957117e+00
3.633123e+01	-1.000217e+01
3.654108e+01	-1.004705e+01
3.675214e+01	-1.009229e+01
3.696442e+01	-1.013794e+01
3.717792e+01	-1.018303e+01
3.739266e+01	-1.022854e+01
3.760864e+01	-1.027352e+01
3.782587e+01	-1.031864e+01
3.804435e+01	-1.036407e+01
3.826409e+01	-1.040935e+01
3.848510e+01	-1.045509e+01
3.870739e+01	-1.050018e+01
3.893096e+01	-1.054585e+01
3.915583e+01	-1.059176e+01
3.938199e+01	-1.063742e+01
3.960946e+01	-1.068255e+01
3.983824e+01	-1.072871e+01
4.006834e+01	-1.077469e+01
4.029978e+01	-1.082110e+01
4.053255e+01	-1.086629e+01
4.076666e+01	-1.091277e+01
4.100213e+01	-1.095859e+01
4.123896e+01	-1.100444e+01
4.147715e+01	-1.105105e+01
4.171672e+01	-1.109692e+01
4.195767e+01	-1.114333e+01
4.220002e+01	-1.118933e+01
4.244377e+01	-1.123545e+01
4.268892e+01	-1.128150e+01
4.293549e+01	-1.132807e+01
4.318348e+01	-1.137403e+01
4.343291e+01	-1.142067e+01
4.368377e+01	-1.146720e+01
4.393609e+01	-1.151346e+01
4.418986e+01	-1.155949e+01
4.444510e+01	-1.160643e+01
4.470182e+01	-1.165366e+01
4.496001e+01	-1.170050e+01
4.521970e+01	-1.174691e+01
4.548089e+01	-1.179376e+01
4.574358e+01	-1.183970e+01
4.600779e+01	-1.188736e+01
4.627353e+01	-1.193332e+01
4.654081e+01	-1.198062e+01
4.680963e+01	-1.202732e+01
4.708000e+01	-1.207424e+01
4.735193e+01	-1.212052e+01
4.762543e+01	-1.216842e+01
4.790051e+01	-1.221524e+01
4.817719e+01	-1.226195e+01
4.845545e+01	-1.230961e+01
4.873533e+01	-1.235672e+01
4.901682e+01	-1.240310e+01
4.929994e+01	-1.245025e+01
4.958470e+01	-1.249818e+01
4.987110e+01	-1.254549e+01
5.015915e+01	-1.259286e+01
5.044887e+01	-1.263958e+01
5.074026e+01	-1.268678e+01
5.103333e+01	-1.273378e+01
5.132810e+01	-1.278111e+01
5.162457e+01	-1.282893e+01
5.192275e+01	-1.287657e+01
5.222265e+01	-1.292352e+01
5.252429e+01	-1.297176e+01
5.282767e+01	-1.301883e+01
5.313280e+01	-1.306671e+01
5.343969e+01	-1.311466e+01
5.374836e+01	-1.316248e+01
5.405880e+01	-1.321028e+01
5.437105e+01	-1.325686e+01
5.468509e+01	-1.330445e+01
5.500095e+01	-1.335236e+01
5.531863e+01	-1.339966e+01
5.563815e+01	-1.344757e+01
5.595951e+01	-1.349601e+01
5.628273e+01	-1.354362e+01
5.660782e+01	-1.359077e+01
5.693479e+01	-1.363922e+01
5.726364e+01	-1.368733e+01
5.759439e+01	-1.373485e+01
5.792705e+01	-1.378289e+01
5.826164e+01	-1.382997e+01
5.859815e+01	-1.387887e+01
5.893662e+01	-1.392605e+01
5.927703e+01	-1.397541e+01
5.961941e+01	-1.402321e+01
5.996377e+01	-1.407078e+01
6.031012e+01	-1.411937e+01
6.065847e+01	-1.416642e+01
6.100883e+01	-1.421484e+01
6.136121e+01	-1.426310e+01
6.171563e+01	-1.431136e+01
6.207210e+01	-1.435964e+01
6.243063e+01	-1.440796e+01
6.279122e+01	-1.445581e+01
6.315390e+01	-1.450534e+01
6.351868e+01	-1.455318e+01
6.388556e+01	-1.460058e+01
6.425456e+01	-1.464907e+01
6.462569e+01	-1.469697e+01
6.499897e+01	-1.474629e+01
6.537440e+01	-1.479432e+01
6.575200e+01	-1.484226e+01
6.613178e+01	-1.489134e+01
6.651375e+01	-1.493978e+01
6.689793e+01	-1.498789e+01
6.728433e+01	-1.503687e+01
6.767297e+01	-1.508526e+01
6.806384e+01	-1.513273e+01
6.845698e+01	-1.518181e+01
6.885238e+01	-1.523068e+01
6.925007e+01	-1.527889e+01
6.965005e+01	-1.532740e+01
7.005235e+01	-1.537567e+01
7.045697e+01	-1.542452e+01
7.086393e+01	-1.547289e+01
7.127323e+01	-1.552189e+01
7.168490e+01	-1.557090e+01
7.209895e+01	-1.562011e+01
7.251539e+01	-1.566757e+01
7.293424e+01	-1.571730e+01
7.335551e+01	-1.576476e+01
7.377920e+01	-1.581479e+01
7.420535e+01	-1.586243e+01
7.463396e+01	-1.591124e+01
7.506504e+01	-1.595967e+01
7.549861e+01	-1.600867e+01
7.593469e+01	-1.605667e+01
7.637328e+01	-1.610653e+01
7.681441e+01	-1.615473e+01
7.725809e+01	-1.620403e+01
7.770433e+01	-1.625311e+01
7.815315e+01	-1.630259e+01
7.860456e+01	-1.634953e+01
7.905857e+01	-1.639972e+01
7.951521e+01	-1.644830e+01
7.997449e+01	-1.649720e+01
8.043642e+01	-1.654623e+01
8.090102e+01	-1.659489e+01
8.136830e+01	-1.664355e+01
8.183828e+01	-1.669289e+01
8.231097e+01	-1.674137e+01
8.278640e+01	-1.679052e+01
8.326457e+01	-1.683921e+01
8.374550e+01	-1.688979e+01
8.422921e+01	-1.693754e+01
8.471572e+01	-1.698588e+01
8.520503e+01	-1.703490e+01
8.569717e+01	-1.708563e+01
8.619215e+01	-1.713390e+01
8.669000e+01	-1.718297e+01
8.719071e+01	-1.723214e+01
8.769432e+01	-1.728099e+01
8.820084e+01	-1.733106e+01
8.871029e+01	-1.737904e+01
8.922267e+01	-1.742849e+01
8.973802e+01	-1.747794e+01
9.025634e+01	-1.752754e+01
9.077766e+01	-1.757626e+01
9.130199e+01	-1.762519e+01
9.182935e+01	-1.767523e+01
9.235975e+01	-1.772356e+01
9.289321e+01	-1.777247e+01
9.342976e+01	-1.782220e+01
9.396941e+01	-1.786958e+01
9.451217e+01	-1.792052e+01
9.505807e+01	-1.797069e+01
9.560712e+01	-1.802027e+01
9.615934e+01	-1.806748e+01
9.671476e+01	-1.811751e+01
9.727338e+01	-1.816751e+01
9.783522e+01	-1.821508e+01
9.840032e+01	-1.826573e+01
9.896867e+01	-1.831216e+01
9.954031e+01	-1.836446e+01
1.001153e+02	-1.841308e+01
1.006935e+02	-1.846266e+01
1.012751e+02	-1.851060e+01
1.018601e+02	-1.856111e+01
1.024484e+02	-1.861049e+01
1.030402e+02	-1.865954e+01
1.036353e+02	-1.871010e+01
1.042339e+02	-1.875945e+01
1.048360e+02	-1.880876e+01
1.054415e+02	-1.885760e+01
1.060505e+02	-1.890648e+01
1.066631e+02	-1.895634e+01
1.072791e+02	-1.900504e+01
1.078988e+02	-1.905559e+01
1.085220e+02	-1.910389e+01
1.091488e+02	-1.915277e+01
1.097793e+02	-1.920345e+01
1.104133e+02	-1.925209e+01
1.110511e+02	-1.930205e+01
1.116925e+02	-1.935151e+01
1.123376e+02	-1.940055e+01
1.129865e+02	-1.945082e+01
1.136391e+02	-1.949964e+01
1.142955e+02	-1.954976e+01
1.149556e+02	-1.959915e+01
1.156196e+02	-1.964770e+01
1.162874e+02	-1.969811e+01
1.169591e+02	-1.974663e+01
1.176347e+02	-1.979633e+01
1.183141e+02	-1.984552e+01
1.189975e+02	-1.989615e+01
1.196848e+02	-1.994528e+01
1.203761e+02	-1.999485e+01
1.210714e+02	-2.004512e+01
1.217707e+02	-2.009312e+01
1.224740e+02	-2.014352e+01
1.231814e+02	-2.019225e+01
1.238929e+02	-2.024154e+01
1.246085e+02	-2.029091e+01
1.253283e+02	-2.034164e+01
1.260522e+02	-2.039130e+01
1.267802e+02	-2.044095e+01
1.275125e+02	-2.049154e+01
1.282490e+02	-2.054065e+01
1.289898e+02	-2.058931e+01
1.297348e+02	-2.064016e+01
1.304842e+02	-2.068841e+01
1.312378e+02	-2.073763e+01
1.319959e+02	-2.078787e+01
1.327583e+02	-2.083680e+01
1.335251e+02	-2.088658e+01
1.342963e+02	-2.093783e+01
1.350720e+02	-2.098660e+01
1.358522e+02	-2.103512e+01
1.366368e+02	-2.108587e+01
1.374260e+02	-2.113678e+01
1.382198e+02	-2.118660e+01
1.390182e+02	-2.123540e+01
1.398211e+02	-2.128425e+01
1.406287e+02	-2.133326e+01
1.414410e+02	-2.138394e+01
1.422579e+02	-2.143343e+01
1.430796e+02	-2.148335e+01
1.439060e+02	-2.153224e+01
1.447372e+02	-2.158326e+01
1.455732e+02	-2.163262e+01
1.464141e+02	-2.168086e+01
1.472597e+02	-2.173354e+01
1.481103e+02	-2.178066e+01
1.489658e+02	-2.183020e+01
1.498262e+02	-2.188198e+01
1.506916e+02	-2.193070e+01
1.515620e+02	-2.198028e+01
1.524374e+02	-2.202912e+01
1.533179e+02	-2.207972e+01
1.542034e+02	-2.212922e+01
1.550941e+02	-2.217750e+01
1.559899e+02	-2.222721e+01
1.568909e+02	-2.227973e+01
1.577971e+02	-2.233046e+01
1.587085e+02	-2.237727e+01
1.596252e+02	-2.242808e+01
1.605472e+02	-2.247677e+01
1.614745e+02	-2.252795e+01
1.624072e+02	-2.257729e+01
1.633453e+02	-2.262700e+01
1.642887e+02	-2.267760e+01
1.652377e+02	-2.272633e+01
1.661921e+02	-2.277932e+01
1.671520e+02	-2.282694e+01
1.681175e+02	-2.287682e+01
1.690885e+02	-2.292530e+01
1.700651e+02	-2.297501e+01
1.710474e+02	-2.302548e+01
1.720354e+02	-2.307394e+01
1.730291e+02	-2.312496e+01
1.740285e+02	-2.317347e+01
1.750337e+02	-2.322454e+01
1.760446e+02	-2.327421e+01
1.770615e+02	-2.332259e+01
1.780842e+02	-2.337509e+01
1.791128e+02	-2.342463e+01
1.801473e+02	-2.347363e+01
1.811878e+02	-2.352575e+01
1.822344e+02	-2.357489e+01
1.832870e+02	-2.362185e+01
1.843456e+02	-2.367274e+01
1.854104e+02	-2.372418e+01
1.864813e+02	-2.377122e+01
1.875584e+02	-2.382450e+01
1.886418e+02	-2.387097e+01
1.897313e+02	-2.392348e+01
1.908272e+02	-2.397206e+01
1.919294e+02	-2.402052e+01
1.930380e+02	-2.407179e+01
1.941530e+02	-2.412261e+01
1.952744e+02	-2.417056e+01
1.964023e+02	-2.422053e+01
1.975367e+02	-2.426981e+01
1.986777e+02	-2.431894e+01
1.998252e+02	-2.437244e+01
2.009794e+02	-2.442026e+01
2.021403e+02	-2.447220e+01
2.033078e+02	-2.451971e+01
2.044821e+02	-2.456913e+01
2.056632e+02	-2.462102e+01
2.068511e+02	-2.467103e+01
2.080459e+02	-2.471894e+01
2.092475e+02	-2.476998e+01
2.104561e+02	-2.481882e+01
2.116717e+02	-2.486925e+01
2.128943e+02	-2.491993e+01
2.141240e+02	-2.497029e+01
2.153608e+02	-2.501916e+01
2.166047e+02	-2.507074e+01
2.178558e+02	-2.511986e+01
2.191141e+02	-2.517033e+01
2.203797e+02	-2.522006e+01
2.216526e+02	-2.526965e+01
2.229329e+02	-2.531919e+01
2.242205e+02	-2.536992e+01
2.255156e+02	-2.541877e+01
2.268182e+02	-2.547232e+01
2.281283e+02	-2.551846e+01
2.294459e+02	-2.557035e+01
2.307712e+02	-2.562399e+01
2.321041e+02	-2.566802e+01
2.334447e+02	-2.571928e+01
2.347931e+02	-2.576982e+01
2.361493e+02	-2.581808e+01
2.375133e+02	-2.586868e+01
2.388851e+02	-2.591643e+01
2.402649e+02	-2.596622e+01
2.416527e+02	-2.601826e+01
2.430484e+02	-2.607062e+01
2.444523e+02	-2.611537e+01
2.458642e+02	-2.617118e+01
2.472843e+02	-2.622076e+01
2.487126e+02	-2.626664e+01
2.501492e+02	-2.632096e+01
2.515940e+02	-2.636829e+01
2.530472e+02	-2.641656e+01
2.545088e+02	-2.646582e+01
2.559789e+02	-2.651900e+01
2.574574e+02	-2.656607e+01
2.589444e+02	-2.661859e+01
2.604401e+02	-2.666948e+01
2.619444e+02	-2.671932e+01
2.634574e+02	-2.676774e+01
2.649791e+02	-2.681819e+01
2.665096e+02	-2.686715e+01
2.680489e+02	-2.691773e+01
2.695972e+02	-2.696670e+01
2.711544e+02	-2.701907e+01
2.727205e+02	-2.706982e+01
2.742958e+02	-2.711658e+01
2.758801e+02	-2.716574e+01
2.774736e+02	-2.721686e+01
2.790762e+02	-2.726704e+01
2.806882e+02	-2.731791e+01
2.823094e+02	-2.736805e+01
2.839400e+02	-2.741612e+01
2.855800e+02	-2.746615e+01
2.872295e+02	-2.751746e+01
2.888886e+02	-2.756665e+01
2.905572e+02	-2.761793e+01
2.922354e+02	-2.767146e+01
2.939234e+02	-2.771911e+01
2.956211e+02	-2.776852e+01
2.973286e+02	-2.781688e+01
2.990459e+02	-2.787003e+01
3.007732e+02	-2.792007e+01
3.025104e+02	-2.797243e+01
3.042577e+02	-2.801705e+01
3.060151e+02	-2.807033e+01
3.077826e+02	-2.811840e+01
3.095604e+02	-2.816127e+01
3.113484e+02	-2.821439e+01
3.131467e+02	-2.826866e+01
3.149554e+02	-2.832172e+01
3.167746e+02	-2.836295e+01
3.186043e+02	-2.841740e+01
3.204445e+02	-2.846750e+01
3.222954e+02	-2.851726e+01
3.241570e+02	-2.856635e+01
3.260293e+02	-2.862212e+01
3.279124e+02	-2.867052e+01
3.298064e+02	-2.872178e+01
3.317114e+02	-2.876838e+01
3.336273e+02	-2.881592e+01
3.355544e+02	-2.886871e+01
3.374925e+02	-2.891978e+01
3.394418e+02	-2.896541e+01
3.414024e+02	-2.902110e+01
3.433744e+02	-2.906953e+01
3.453577e+02	-2.911103e+01
3.473525e+02	-2.917195e+01
3.493588e+02	-2.922294e+01
3.513766e+02	-2.926791e+01
3.534062e+02	-2.931939e+01
3.554474e+02	-2.936703e+01
3.575005e+02	-2.941526e+01
3.595654e+02	-2.946908e+01
3.616422e+02	-2.951899e+01
3.637311e+02	-2.956719e+01
3.658320e+02	-2.962058e+01
3.679450e+02	-2.966674e+01
3.700702e+02	-2.972049e+01
3.722077e+02	-2.977080e+01
3.743576e+02	-2.981873e+01
3.765199e+02	-2.986499e+01
3.786946e+02	-2.992615e+01
3.808820e+02	-2.996999e+01
3.830819e+02	-3.002231e+01
3.852946e+02	-3.007287e+01
3.875200e+02	-3.011874e+01
3.897583e+02	-3.016873e+01
3.920096e+02	-3.022301e+01
3.942738e+02	-3.026891e+01
3.965511e+02	-3.031752e+01
3.988416e+02	-3.037128e+01
4.011452e+02	-3.042644e+01
4.034622e+02	-3.046896e+01
4.057926e+02	-3.051587e+01
4.081365e+02	-3.057251e+01
4.104938e+02	-3.061859e+01
4.128648e+02	-3.066848e+01
4.152495e+02	-3.072112e+01
4.176480e+02	-3.077489e+01
4.200603e+02	-3.082043e+01
4.224866e+02	-3.087338e+01
4.249268e+02	-3.092206e+01
4.273812e+02	-3.096828e+01
4.298497e+02	-3.102188e+01
4.323325e+02	-3.107264e+01
4.348297e+02	-3.111674e+01
4.373412e+02	-3.116931e+01
4.398673e+02	-3.122264e+01
4.424079e+02	-3.127401e+01
4.449633e+02	-3.132008e+01
4.475334e+02	-3.137122e+01
4.501183e+02	-3.142640e+01
4.527182e+02	-3.147596e+01
4.553330e+02	-3.152311e+01
4.579630e+02	-3.157303e+01
4.606082e+02	-3.162264e+01
4.632687e+02	-3.166913e+01
4.659445e+02	-3.172700e+01
4.686358e+02	-3.178057e+01
4.713426e+02	-3.182822e+01
4.740650e+02	-3.187659e+01
4.768032e+02	-3.192708e+01
4.795572e+02	-3.197671e+01
4.823271e+02	-3.202677e+01
4.851130e+02	-3.207013e+01
4.879150e+02	-3.212497e+01
4.907332e+02	-3.217696e+01
4.935676e+02	-3.222486e+01
4.964185e+02	-3.227566e+01
4.992858e+02	-3.232684e+01
5.021696e+02	-3.237314e+01
5.050701e+02	-3.242243e+01
5.079874e+02	-3.247443e+01
5.109215e+02	-3.252187e+01
5.138726e+02	-3.257740e+01
5.168407e+02	-3.262771e+01
5.198259e+02	-3.267835e+01
5.228284e+02	-3.272717e+01
5.258482e+02	-3.277856e+01
5.288855e+02	-3.282412e+01
5.319403e+02	-3.288087e+01
5.350128e+02	-3.292756e+01
5.381030e+02	-3.298299e+01
5.412111e+02	-3.302886e+01
5.443371e+02	-3.307712e+01
5.474812e+02	-3.313441e+01
5.506434e+02	-3.317804e+01
5.538239e+02	-3.322807e+01
5.570228e+02	-3.327587e+01
5.602401e+02	-3.333914e+01
5.634760e+02	-3.338398e+01
5.667306e+02	-3.342858e+01
5.700040e+02	-3.347761e+01
5.732964e+02	-3.353231e+01
5.766077e+02	-3.357339e+01
5.799382e+02	-3.362863e+01
5.832879e+02	-3.368182e+01
5.866569e+02	-3.373277e+01
5.900454e+02	-3.377809e+01
5.934535e+02	-3.383583e+01
5.968813e+02	-3.388531e+01
6.003288e+02	-3.392437e+01
6.037963e+02	-3.398123e+01
6.072838e+02	-3.404322e+01
6.107914e+02	-3.408091e+01
6.143194e+02	-3.413904e+01
6.178676e+02	-3.419049e+01
6.214364e+02	-3.422584e+01
6.250258e+02	-3.428652e+01
6.286359e+02	-3.433873e+01
6.322669e+02	-3.438198e+01
6.359189e+02	-3.444375e+01
6.395919e+02	-3.448834e+01
6.432862e+02	-3.454204e+01
6.470017e+02	-3.458855e+01
6.507388e+02	-3.463727e+01
6.544974e+02	-3.469207e+01
6.582778e+02	-3.473600e+01
6.620800e+02	-3.478604e+01
6.659041e+02	-3.483668e+01
6.697504e+02	-3.489308e+01
6.736188e+02	-3.493559e+01
6.775096e+02	-3.498823e+01
6.814229e+02	-3.504284e+01
6.853587e+02	-3.508719e+01
6.893173e+02	-3.515309e+01
6.932988e+02	-3.519610e+01
6.973033e+02	-3.524950e+01
7.013309e+02	-3.529494e+01
