Frequency(Hz)	Magnitude(dB)
1.000000e+01	-1.648107e-05
1.005776e+01	-1.667201e-05
1.011585e+01	-1.686516e-05
1.017428e+01	-1.706055e-05
1.023305e+01	-1.725820e-05
1.029215e+01	-1.745814e-05
1.035160e+01	-1.766039e-05
1.041139e+01	-1.786499e-05
1.047153e+01	-1.807197e-05
1.053201e+01	-1.828133e-05
1.059284e+01	-1.849313e-05
1.065403e+01	-1.870738e-05
1.071556e+01	-1.892411e-05
1.077746e+01	-1.914335e-05
1.083971e+01	-1.936513e-05
1.090232e+01	-1.958948e-05
1.096529e+01	-1.981643e-05
1.102862e+01	-2.004600e-05
1.109232e+01	-2.027824e-05
1.115639e+01	-2.051317e-05
1.122083e+01	-2.075082e-05
1.128564e+01	-2.099122e-05
1.135083e+01	-2.123441e-05
1.141639e+01	-2.148042e-05
1.148233e+01	-2.172927e-05
1.154865e+01	-2.198101e-05
1.161536e+01	-2.223567e-05
1.168245e+01	-2.249328e-05
1.174992e+01	-2.275387e-05
1.181779e+01	-2.301747e-05
1.188605e+01	-2.328414e-05
1.195470e+01	-2.355389e-05
1.202375e+01	-2.382677e-05
1.209320e+01	-2.410281e-05
1.216305e+01	-2.438204e-05
1.223330e+01	-2.466452e-05
1.230396e+01	-2.495026e-05
1.237503e+01	-2.523932e-05
1.244651e+01	-2.553172e-05
1.251840e+01	-2.582751e-05
1.259070e+01	-2.612673e-05
1.266343e+01	-2.642941e-05
1.273657e+01	-2.673560e-05
1.281014e+01	-2.704534e-05
1.288413e+01	-2.735867e-05
1.295855e+01	-2.767563e-05
1.303339e+01	-2.799625e-05
1.310867e+01	-2.832060e-05
1.318439e+01	-2.864870e-05
1.326054e+01	-2.898060e-05
1.333713e+01	-2.931635e-05
1.341417e+01	-2.965599e-05
1.349165e+01	-2.999956e-05
1.356958e+01	-3.034711e-05
1.364795e+01	-3.069869e-05
1.372678e+01	-3.105434e-05
1.380607e+01	-3.141411e-05
1.388581e+01	-3.177805e-05
1.396602e+01	-3.214621e-05
1.404668e+01	-3.251863e-05
1.412782e+01	-3.289537e-05
1.420942e+01	-3.327647e-05
1.429149e+01	-3.366198e-05
1.437404e+01	-3.405196e-05
1.445706e+01	-3.444646e-05
1.454057e+01	-3.484553e-05
1.462455e+01	-3.524923e-05
1.470902e+01	-3.565760e-05
1.479398e+01	-3.607070e-05
1.487943e+01	-3.648859e-05
1.496537e+01	-3.691132e-05
1.505181e+01	-3.733894e-05
1.513875e+01	-3.777152e-05
1.522619e+01	-3.820911e-05
1.531414e+01	-3.865177e-05
1.540259e+01	-3.909956e-05
1.549156e+01	-3.955254e-05
1.558103e+01	-4.001077e-05
1.567103e+01	-4.047430e-05
1.576155e+01	-4.094320e-05
1.585258e+01	-4.141754e-05
1.594415e+01	-4.189737e-05
1.603624e+01	-4.238276e-05
1.612886e+01	-4.287378e-05
1.622202e+01	-4.337048e-05
1.631572e+01	-4.387294e-05
1.640996e+01	-4.438121e-05
1.650474e+01	-4.489538e-05
1.660008e+01	-4.541550e-05
1.669596e+01	-4.594165e-05
1.679239e+01	-4.647389e-05
1.688938e+01	-4.701230e-05
1.698694e+01	-4.755695e-05
1.708505e+01	-4.810791e-05
1.718373e+01	-4.866525e-05
1.728299e+01	-4.922905e-05
1.738281e+01	-4.979938e-05
1.748322e+01	-5.037631e-05
1.758420e+01	-5.095993e-05
1.768576e+01	-5.155031e-05
1.778792e+01	-5.214754e-05
1.789066e+01	-5.275168e-05
1.799399e+01	-5.336282e-05
1.809793e+01	-5.398103e-05
1.820246e+01	-5.460642e-05
1.830760e+01	-5.523904e-05
1.841334e+01	-5.587900e-05
1.851969e+01	-5.652637e-05
1.862666e+01	-5.718124e-05
1.873425e+01	-5.784369e-05
1.884246e+01	-5.851382e-05
1.895129e+01	-5.919172e-05
1.906075e+01	-5.987747e-05
1.917085e+01	-6.057116e-05
1.928158e+01	-6.127289e-05
1.939295e+01	-6.198275e-05
1.950496e+01	-6.270083e-05
1.961762e+01	-6.342723e-05
1.973093e+01	-6.416205e-05
1.984490e+01	-6.490538e-05
1.995952e+01	-6.565732e-05
2.007480e+01	-6.641797e-05
2.019076e+01	-6.718744e-05
2.030738e+01	-6.796581e-05
2.042467e+01	-6.875321e-05
2.054264e+01	-6.954973e-05
2.066130e+01	-7.035548e-05
2.078064e+01	-7.117056e-05
2.090066e+01	-7.199508e-05
2.102139e+01	-7.282916e-05
2.114280e+01	-7.367290e-05
2.126492e+01	-7.452641e-05
2.138775e+01	-7.538981e-05
2.151128e+01	-7.626322e-05
2.163553e+01	-7.714674e-05
2.176050e+01	-7.804050e-05
2.188619e+01	-7.894461e-05
2.201260e+01	-7.985920e-05
2.213974e+01	-8.078438e-05
2.226762e+01	-8.172028e-05
2.239624e+01	-8.266702e-05
2.252560e+01	-8.362474e-05
2.265571e+01	-8.459354e-05
2.278656e+01	-8.557357e-05
2.291818e+01	-8.656496e-05
2.305055e+01	-8.756783e-05
2.318369e+01	-8.858231e-05
2.331760e+01	-8.960855e-05
2.345228e+01	-9.064668e-05
2.358774e+01	-9.169684e-05
2.372398e+01	-9.275916e-05
2.386101e+01	-9.383379e-05
2.399883e+01	-9.492087e-05
2.413745e+01	-9.602054e-05
2.427686e+01	-9.713295e-05
2.441709e+01	-9.825825e-05
2.455812e+01	-9.939659e-05
2.469997e+01	-1.005481e-04
2.484263e+01	-1.017130e-04
2.498612e+01	-1.028913e-04
2.513044e+01	-1.040833e-04
2.527559e+01	-1.052892e-04
2.542158e+01	-1.065090e-04
2.556842e+01	-1.077429e-04
2.571610e+01	-1.089911e-04
2.586463e+01	-1.102538e-04
2.601403e+01	-1.115311e-04
2.616428e+01	-1.128232e-04
2.631541e+01	-1.141302e-04
2.646740e+01	-1.154525e-04
2.662028e+01	-1.167900e-04
2.677404e+01	-1.181430e-04
2.692868e+01	-1.195117e-04
2.708422e+01	-1.208963e-04
2.724066e+01	-1.222969e-04
2.739800e+01	-1.237137e-04
2.755625e+01	-1.251469e-04
2.771541e+01	-1.265968e-04
2.787550e+01	-1.280634e-04
2.803650e+01	-1.295470e-04
2.819844e+01	-1.310479e-04
2.836131e+01	-1.325661e-04
2.852513e+01	-1.341019e-04
2.868989e+01	-1.356554e-04
2.885560e+01	-1.372270e-04
2.902227e+01	-1.388168e-04
2.918990e+01	-1.404250e-04
2.935850e+01	-1.420518e-04
2.952807e+01	-1.436975e-04
2.969863e+01	-1.453623e-04
2.987016e+01	-1.470463e-04
3.004269e+01	-1.487499e-04
3.021622e+01	-1.504731e-04
3.039075e+01	-1.522164e-04
3.056628e+01	-1.539798e-04
3.074283e+01	-1.557637e-04
3.092040e+01	-1.575682e-04
3.109900e+01	-1.593937e-04
3.127862e+01	-1.612402e-04
3.145929e+01	-1.631082e-04
3.164099e+01	-1.649978e-04
3.182375e+01	-1.669093e-04
3.200756e+01	-1.688430e-04
3.219244e+01	-1.707991e-04
3.237838e+01	-1.727778e-04
3.256540e+01	-1.747794e-04
3.275349e+01	-1.768042e-04
3.294268e+01	-1.788525e-04
3.313295e+01	-1.809245e-04
3.332433e+01	-1.830205e-04
3.351681e+01	-1.851408e-04
3.371040e+01	-1.872857e-04
3.390511e+01	-1.894554e-04
3.410094e+01	-1.916503e-04
3.429791e+01	-1.938705e-04
3.449601e+01	-1.961165e-04
3.469526e+01	-1.983885e-04
3.489566e+01	-2.006869e-04
3.509721e+01	-2.030118e-04
3.529993e+01	-2.053637e-04
3.550382e+01	-2.077429e-04
3.570889e+01	-2.101496e-04
3.591515e+01	-2.125841e-04
3.612259e+01	-2.150469e-04
3.633123e+01	-2.175382e-04
3.654108e+01	-2.200584e-04
3.675214e+01	-2.226078e-04
3.696442e+01	-2.251867e-04
3.717792e+01	-2.277955e-04
3.739266e+01	-2.304345e-04
3.760864e+01	-2.331041e-04
3.782587e+01	-2.358046e-04
3.804435e+01	-2.385364e-04
3.826409e+01	-2.412998e-04
3.848510e+01	-2.440952e-04
3.870739e+01	-2.469231e-04
3.893096e+01	-2.497837e-04
3.915583e+01	-2.526774e-04
3.938199e+01	-2.556046e-04
3.960946e+01	-2.585658e-04
3.983824e+01	-2.615613e-04
4.006834e+01	-2.645914e-04
4.029978e+01	-2.676567e-04
4.053255e+01	-2.707575e-04
4.076666e+01	-2.738942e-04
4.100213e+01	-2.770672e-04
4.123896e+01	-2.802770e-04
4.147715e+01	-2.835240e-04
4.171672e+01	-2.868086e-04
4.195767e+01	-2.901312e-04
4.220002e+01	-2.934924e-04
4.244377e+01	-2.968925e-04
4.268892e+01	-3.003319e-04
4.293549e+01	-3.038112e-04
4.318348e+01	-3.073308e-04
4.343291e+01	-3.108912e-04
4.368377e+01	-3.144929e-04
4.393609e+01	-3.181362e-04
4.418986e+01	-3.218218e-04
4.444510e+01	-3.255500e-04
4.470182e+01	-3.293215e-04
4.496001e+01	-3.331366e-04
4.521970e+01	-3.369959e-04
4.548089e+01	-3.409000e-04
4.574358e+01	-3.448492e-04
4.600779e+01	-3.488443e-04
4.627353e+01	-3.528855e-04
4.654081e+01	-3.569737e-04
4.680963e+01	-3.611091e-04
4.708000e+01	-3.652925e-04
4.735193e+01	-3.695243e-04
4.762543e+01	-3.738052e-04
4.790051e+01	-3.781356e-04
4.817719e+01	-3.825162e-04
4.845545e+01	-3.869476e-04
4.873533e+01	-3.914303e-04
4.901682e+01	-3.959649e-04
4.929994e+01	-4.005521e-04
4.958470e+01	-4.051924e-04
4.987110e+01	-4.098864e-04
5.015915e+01	-4.146348e-04
5.044887e+01	-4.194383e-04
5.074026e+01	-4.242973e-04
5.103333e+01	-4.292127e-04
5.132810e+01	-4.341850e-04
5.162457e+01	-4.392149e-04
5.192275e+01	-4.443030e-04
5.222265e+01	-4.494502e-04
5.252429e+01	-4.546569e-04
5.282767e+01	-4.599239e-04
5.313280e+01	-4.652520e-04
5.343969e+01	-4.706418e-04
5.374836e+01	-4.760940e-04
5.405880e+01	-4.816094e-04
5.437105e+01	-4.871886e-04
5.468509e+01	-4.928325e-04
5.500095e+01	-4.985418e-04
5.531863e+01	-5.043172e-04
5.563815e+01	-5.101595e-04
5.595951e+01	-5.160695e-04
5.628273e+01	-5.220480e-04
5.660782e+01	-5.280957e-04
5.693479e+01	-5.342134e-04
5.726364e+01	-5.404020e-04
5.759439e+01	-5.466624e-04
5.792705e+01	-5.529952e-04
5.826164e+01	-5.594014e-04
5.859815e+01	-5.658818e-04
5.893662e+01	-5.724372e-04
5.927703e+01	-5.790686e-04
5.961941e+01	-5.857769e-04
5.996377e+01	-5.925628e-04
6.031012e+01	-5.994273e-04
6.065847e+01	-6.063714e-04
6.100883e+01	-6.133958e-04
6.136121e+01	-6.205017e-04
6.171563e+01	-6.276898e-04
6.207210e+01	-6.349613e-04
6.243063e+01	-6.423169e-04
6.279122e+01	-6.497578e-04
6.315390e+01	-6.572848e-04
6.351868e+01	-6.648991e-04
6.388556e+01	-6.726015e-04
6.425456e+01	-6.803932e-04
6.462569e+01	-6.882751e-04
6.499897e+01	-6.962483e-04
6.537440e+01	-7.043139e-04
6.575200e+01	-7.124729e-04
6.613178e+01	-7.207264e-04
6.651375e+01	-7.290755e-04
6.689793e+01	-7.375213e-04
6.728433e+01	-7.460650e-04
6.767297e+01	-7.547076e-04
6.806384e+01	-7.634503e-04
6.845698e+01	-7.722943e-04
6.885238e+01	-7.812408e-04
6.925007e+01	-7.902908e-04
6.965005e+01	-7.994457e-04
7.005235e+01	-8.087067e-04
7.045697e+01	-8.180749e-04
7.086393e+01	-8.275516e-04
7.127323e+01	-8.371381e-04
7.168490e+01	-8.468356e-04
7.209895e+01	-8.566455e-04
7.251539e+01	-8.665689e-04
7.293424e+01	-8.766074e-04
7.335551e+01	-8.867621e-04
7.377920e+01	-8.970344e-04
7.420535e+01	-9.074257e-04
7.463396e+01	-9.179374e-04
7.506504e+01	-9.285708e-04
7.549861e+01	-9.393274e-04
7.593469e+01	-9.502085e-04
7.637328e+01	-9.612157e-04
7.681441e+01	-9.723504e-04
7.725809e+01	-9.836141e-04
7.770433e+01	-9.950082e-04
7.815315e+01	-1.006534e-03
7.860456e+01	-1.018194e-03
7.905857e+01	-1.029989e-03
7.951521e+01	-1.041920e-03
7.997449e+01	-1.053989e-03
8.043642e+01	-1.066199e-03
8.090102e+01	-1.078549e-03
8.136830e+01	-1.091043e-03
8.183828e+01	-1.103681e-03
8.231097e+01	-1.116466e-03
8.278640e+01	-1.129399e-03
8.326457e+01	-1.142482e-03
8.374550e+01	-1.155716e-03
8.422921e+01	-1.169103e-03
8.471572e+01	-1.182646e-03
8.520503e+01	-1.196345e-03
8.569717e+01	-1.210203e-03
8.619215e+01	-1.224222e-03
8.669000e+01	-1.238403e-03
8.719071e+01	-1.252748e-03
8.769432e+01	-1.267259e-03
8.820084e+01	-1.281939e-03
8.871029e+01	-1.296788e-03
8.922267e+01	-1.311809e-03
8.973802e+01	-1.327005e-03
9.025634e+01	-1.342376e-03
9.077766e+01	-1.357926e-03
9.130199e+01	-1.373655e-03
9.182935e+01	-1.389567e-03
9.235975e+01	-1.405662e-03
9.289321e+01	-1.421945e-03
9.342976e+01	-1.438416e-03
9.396941e+01	-1.455077e-03
9.451217e+01	-1.471932e-03
9.505807e+01	-1.488982e-03
9.560712e+01	-1.506229e-03
9.615934e+01	-1.523676e-03
9.671476e+01	-1.541325e-03
9.727338e+01	-1.559178e-03
9.783522e+01	-1.577239e-03
9.840032e+01	-1.595508e-03
9.896867e+01	-1.613989e-03
9.954031e+01	-1.632684e-03
1.001153e+02	-1.651596e-03
1.006935e+02	-1.670726e-03
1.012751e+02	-1.690078e-03
1.018601e+02	-1.709654e-03
1.024484e+02	-1.729457e-03
1.030402e+02	-1.749489e-03
1.036353e+02	-1.769753e-03
1.042339e+02	-1.790252e-03
1.048360e+02	-1.810988e-03
1.054415e+02	-1.831965e-03
1.060505e+02	-1.853184e-03
1.066631e+02	-1.874649e-03
1.072791e+02	-1.896363e-03
1.078988e+02	-1.918328e-03
1.085220e+02	-1.940547e-03
1.091488e+02	-1.963024e-03
1.097793e+02	-1.985761e-03
1.104133e+02	-2.008761e-03
1.110511e+02	-2.032027e-03
1.116925e+02	-2.055563e-03
1.123376e+02	-2.079372e-03
1.129865e+02	-2.103456e-03
1.136391e+02	-2.127819e-03
1.142955e+02	-2.152465e-03
1.149556e+02	-2.177395e-03
1.156196e+02	-2.202615e-03
1.162874e+02	-2.228126e-03
1.169591e+02	-2.253933e-03
1.176347e+02	-2.280038e-03
1.183141e+02	-2.306446e-03
1.189975e+02	-2.333160e-03
1.196848e+02	-2.360182e-03
1.203761e+02	-2.387518e-03
1.210714e+02	-2.415171e-03
1.217707e+02	-2.443143e-03
1.224740e+02	-2.471440e-03
1.231814e+02	-2.500064e-03
1.238929e+02	-2.529019e-03
1.246085e+02	-2.558310e-03
1.253283e+02	-2.587940e-03
1.260522e+02	-2.617912e-03
1.267802e+02	-2.648232e-03
1.275125e+02	-2.678903e-03
1.282490e+02	-2.709930e-03
1.289898e+02	-2.741315e-03
1.297348e+02	-2.773064e-03
1.304842e+02	-2.805180e-03
1.312378e+02	-2.837668e-03
1.319959e+02	-2.870532e-03
1.327583e+02	-2.903777e-03
1.335251e+02	-2.937407e-03
1.342963e+02	-2.971425e-03
1.350720e+02	-3.005838e-03
1.358522e+02	-3.040650e-03
1.366368e+02	-3.075864e-03
1.374260e+02	-3.111486e-03
1.382198e+02	-3.147520e-03
1.390182e+02	-3.183971e-03
1.398211e+02	-3.220845e-03
1.406287e+02	-3.258145e-03
1.414410e+02	-3.295877e-03
1.422579e+02	-3.334046e-03
1.430796e+02	-3.372657e-03
1.439060e+02	-3.411715e-03
1.447372e+02	-3.451225e-03
1.455732e+02	-3.491192e-03
1.464141e+02	-3.531622e-03
1.472597e+02	-3.572520e-03
1.481103e+02	-3.613891e-03
1.489658e+02	-3.655741e-03
1.498262e+02	-3.698076e-03
1.506916e+02	-3.740900e-03
1.515620e+02	-3.784221e-03
1.524374e+02	-3.828043e-03
1.533179e+02	-3.872372e-03
1.542034e+02	-3.917214e-03
1.550941e+02	-3.962575e-03
1.559899e+02	-4.008461e-03
1.568909e+02	-4.054879e-03
1.577971e+02	-4.101833e-03
1.587085e+02	-4.149331e-03
1.596252e+02	-4.197379e-03
1.605472e+02	-4.245983e-03
1.614745e+02	-4.295149e-03
1.624072e+02	-4.344885e-03
1.633453e+02	-4.395196e-03
1.642887e+02	-4.446089e-03
1.652377e+02	-4.497572e-03
1.661921e+02	-4.549650e-03
1.671520e+02	-4.602331e-03
1.681175e+02	-4.655621e-03
1.690885e+02	-4.709529e-03
1.700651e+02	-4.764060e-03
1.710474e+02	-4.819222e-03
1.720354e+02	-4.875022e-03
1.730291e+02	-4.931469e-03
1.740285e+02	-4.988568e-03
1.750337e+02	-5.046328e-03
1.760446e+02	-5.104757e-03
1.770615e+02	-5.163861e-03
1.780842e+02	-5.223650e-03
1.791128e+02	-5.284130e-03
1.801473e+02	-5.345311e-03
1.811878e+02	-5.407199e-03
1.822344e+02	-5.469803e-03
1.832870e+02	-5.533132e-03
1.843456e+02	-5.597193e-03
1.854104e+02	-5.661996e-03
1.864813e+02	-5.727548e-03
1.875584e+02	-5.793859e-03
1.886418e+02	-5.860936e-03
1.897313e+02	-5.928790e-03
1.908272e+02	-5.997429e-03
1.919294e+02	-6.066863e-03
1.930380e+02	-6.137099e-03
1.941530e+02	-6.208148e-03
1.952744e+02	-6.280019e-03
1.964023e+02	-6.352721e-03
1.975367e+02	-6.426264e-03
1.986777e+02	-6.500658e-03
1.998252e+02	-6.575913e-03
2.009794e+02	-6.652038e-03
2.021403e+02	-6.729044e-03
2.033078e+02	-6.806940e-03
2.044821e+02	-6.885737e-03
2.056632e+02	-6.965446e-03
2.068511e+02	-7.046077e-03
2.080459e+02	-7.127641e-03
2.092475e+02	-7.210147e-03
2.104561e+02	-7.293608e-03
2.116717e+02	-7.378035e-03
2.128943e+02	-7.463437e-03
2.141240e+02	-7.549828e-03
2.153608e+02	-7.637217e-03
2.166047e+02	-7.725617e-03
2.178558e+02	-7.815040e-03
2.191141e+02	-7.905496e-03
2.203797e+02	-7.996999e-03
2.216526e+02	-8.089560e-03
2.229329e+02	-8.183191e-03
2.242205e+02	-8.277905e-03
2.255156e+02	-8.373713e-03
2.268182e+02	-8.470630e-03
2.281283e+02	-8.568667e-03
2.294459e+02	-8.667838e-03
2.307712e+02	-8.768156e-03
2.321041e+02	-8.869633e-03
2.334447e+02	-8.972283e-03
2.347931e+02	-9.076120e-03
2.361493e+02	-9.181158e-03
2.375133e+02	-9.287410e-03
2.388851e+02	-9.394890e-03
2.402649e+02	-9.503613e-03
2.416527e+02	-9.613592e-03
2.430484e+02	-9.724843e-03
2.444523e+02	-9.837380e-03
2.458642e+02	-9.951217e-03
2.472843e+02	-1.006637e-02
2.487126e+02	-1.018285e-02
2.501492e+02	-1.030069e-02
2.515940e+02	-1.041988e-02
2.530472e+02	-1.054045e-02
2.545088e+02	-1.066241e-02
2.559789e+02	-1.078578e-02
2.574574e+02	-1.091058e-02
2.589444e+02	-1.103682e-02
2.604401e+02	-1.116452e-02
2.619444e+02	-1.129370e-02
2.634574e+02	-1.142437e-02
2.649791e+02	-1.155654e-02
2.665096e+02	-1.169025e-02
2.680489e+02	-1.182550e-02
2.695972e+02	-1.196231e-02
2.711544e+02	-1.210070e-02
2.727205e+02	-1.224069e-02
2.742958e+02	-1.238230e-02
2.758801e+02	-1.252555e-02
2.774736e+02	-1.267044e-02
2.790762e+02	-1.281702e-02
2.806882e+02	-1.296528e-02
2.823094e+02	-1.311526e-02
2.839400e+02	-1.326697e-02
2.855800e+02	-1.342044e-02
2.872295e+02	-1.357567e-02
2.888886e+02	-1.373270e-02
2.905572e+02	-1.389154e-02
2.922354e+02	-1.405222e-02
2.939234e+02	-1.421475e-02
2.956211e+02	-1.437915e-02
2.973286e+02	-1.454546e-02
2.990459e+02	-1.471369e-02
3.007732e+02	-1.488386e-02
3.025104e+02	-1.505599e-02
3.042577e+02	-1.523011e-02
3.060151e+02	-1.540624e-02
3.077826e+02	-1.558440e-02
3.095604e+02	-1.576462e-02
3.113484e+02	-1.594692e-02
3.131467e+02	-1.613133e-02
3.149554e+02	-1.631786e-02
3.167746e+02	-1.650655e-02
3.186043e+02	-1.669741e-02
3.204445e+02	-1.689048e-02
3.222954e+02	-1.708577e-02
3.241570e+02	-1.728332e-02
3.260293e+02	-1.748315e-02
3.279124e+02	-1.768528e-02
3.298064e+02	-1.788974e-02
3.317114e+02	-1.809657e-02
3.336273e+02	-1.830578e-02
3.355544e+02	-1.851740e-02
3.374925e+02	-1.873147e-02
3.394418e+02	-1.894800e-02
3.414024e+02	-1.916703e-02
3.433744e+02	-1.938859e-02
3.453577e+02	-1.961270e-02
3.473525e+02	-1.983940e-02
3.493588e+02	-2.006871e-02
3.513766e+02	-2.030067e-02
3.534062e+02	-2.053530e-02
3.554474e+02	-2.077263e-02
3.575005e+02	-2.101270e-02
3.595654e+02	-2.125554e-02
3.616422e+02	-2.150118e-02
3.637311e+02	-2.174965e-02
3.658320e+02	-2.200099e-02
3.679450e+02	-2.225522e-02
3.700702e+02	-2.251238e-02
3.722077e+02	-2.277251e-02
3.743576e+02	-2.303563e-02
3.765199e+02	-2.330178e-02
3.786946e+02	-2.357101e-02
3.808820e+02	-2.384333e-02
3.830819e+02	-2.411879e-02
3.852946e+02	-2.439742e-02
3.875200e+02	-2.467927e-02
3.897583e+02	-2.496436e-02
3.920096e+02	-2.525273e-02
3.942738e+02	-2.554443e-02
3.965511e+02	-2.583949e-02
3.988416e+02	-2.613794e-02
4.011452e+02	-2.643983e-02
4.034622e+02	-2.674519e-02
4.057926e+02	-2.705408e-02
4.081365e+02	-2.736651e-02
4.104938e+02	-2.768255e-02
4.128648e+02	-2.800222e-02
4.152495e+02	-2.832557e-02
4.176480e+02	-2.865264e-02
4.200603e+02	-2.898348e-02
4.224866e+02	-2.931812e-02
4.249268e+02	-2.965662e-02
4.273812e+02	-2.999901e-02
4.298497e+02	-3.034533e-02
4.323325e+02	-3.069565e-02
4.348297e+02	-3.104999e-02
4.373412e+02	-3.140840e-02
4.398673e+02	-3.177094e-02
4.424079e+02	-3.213765e-02
4.449633e+02	-3.250858e-02
4.475334e+02	-3.288377e-02
4.501183e+02	-3.326327e-02
4.527182e+02	-3.364714e-02
4.553330e+02	-3.403541e-02
4.579630e+02	-3.442816e-02
4.606082e+02	-3.482541e-02
4.632687e+02	-3.522723e-02
4.659445e+02	-3.563367e-02
4.686358e+02	-3.604477e-02
4.713426e+02	-3.646060e-02
4.740650e+02	-3.688121e-02
4.768032e+02	-3.730665e-02
4.795572e+02	-3.773697e-02
4.823271e+02	-3.817224e-02
4.851130e+02	-3.861250e-02
4.879150e+02	-3.905782e-02
4.907332e+02	-3.950825e-02
4.935676e+02	-3.996385e-02
4.964185e+02	-4.042468e-02
4.992858e+02	-4.089080e-02
5.021696e+02	-4.136227e-02
5.050701e+02	-4.183915e-02
5.079874e+02	-4.232150e-02
5.109215e+02	-4.280938e-02
5.138726e+02	-4.330286e-02
5.168407e+02	-4.380200e-02
5.198259e+02	-4.430686e-02
5.228284e+02	-4.481751e-02
5.258482e+02	-4.533402e-02
5.288855e+02	-4.585645e-02
5.319403e+02	-4.638486e-02
5.350128e+02	-4.691933e-02
5.381030e+02	-4.745993e-02
5.412111e+02	-4.800672e-02
5.443371e+02	-4.855977e-02
5.474812e+02	-4.911916e-02
5.506434e+02	-4.968496e-02
5.538239e+02	-5.025723e-02
5.570228e+02	-5.083606e-02
5.602401e+02	-5.142151e-02
5.634760e+02	-5.201367e-02
5.667306e+02	-5.261261e-02
5.700040e+02	-5.321840e-02
5.732964e+02	-5.383112e-02
5.766077e+02	-5.445085e-02
5.799382e+02	-5.507767e-02
5.832879e+02	-5.571166e-02
5.866569e+02	-5.635290e-02
5.900454e+02	-5.700147e-02
5.934535e+02	-5.765745e-02
5.968813e+02	-5.832094e-02
6.003288e+02	-5.899200e-02
6.037963e+02	-5.967074e-02
6.072838e+02	-6.035723e-02
6.107914e+02	-6.105156e-02
6.143194e+02	-6.175383e-02
6.178676e+02	-6.246411e-02
6.214364e+02	-6.318250e-02
6.250258e+02	-6.390909e-02
6.286359e+02	-6.464398e-02
6.322669e+02	-6.538726e-02
6.359189e+02	-6.613901e-02
6.395919e+02	-6.689934e-02
6.432862e+02	-6.766834e-02
6.470017e+02	-6.844612e-02
6.507388e+02	-6.923276e-02
6.544974e+02	-7.002836e-02
6.582778e+02	-7.083304e-02
6.620800e+02	-7.164689e-02
6.659041e+02	-7.247001e-02
6.697504e+02	-7.330250e-02
6.736188e+02	-7.414448e-02
6.775096e+02	-7.499604e-02
6.814229e+02	-7.585730e-02
6.853587e+02	-7.672836e-02
6.893173e+02	-7.760933e-02
6.932988e+02	-7.850033e-02
6.973033e+02	-7.940146e-02
7.013309e+02	-8.031285e-02
