Frequency(Hz)	Magnitude(dB)
1.000000e+01	-1.770767e-05
1.005776e+01	-1.791282e-05
1.011585e+01	-1.812034e-05
1.017428e+01	-1.833027e-05
1.023305e+01	-1.854263e-05
1.029215e+01	-1.875745e-05
1.035160e+01	-1.897476e-05
1.041139e+01	-1.919459e-05
1.047153e+01	-1.941696e-05
1.053201e+01	-1.964191e-05
1.059284e+01	-1.986947e-05
1.065403e+01	-2.009966e-05
1.071556e+01	-2.033252e-05
1.077746e+01	-2.056808e-05
1.083971e+01	-2.080637e-05
1.090232e+01	-2.104741e-05
1.096529e+01	-2.129125e-05
1.102862e+01	-2.153792e-05
1.109232e+01	-2.178744e-05
1.115639e+01	-2.203985e-05
1.122083e+01	-2.229519e-05
1.128564e+01	-2.255349e-05
1.135083e+01	-2.281477e-05
1.141639e+01	-2.307909e-05
1.148233e+01	-2.334647e-05
1.154865e+01	-2.361694e-05
1.161536e+01	-2.389055e-05
1.168245e+01	-2.416733e-05
1.174992e+01	-2.444731e-05
1.181779e+01	-2.473054e-05
1.188605e+01	-2.501705e-05
1.195470e+01	-2.530688e-05
1.202375e+01	-2.560006e-05
1.209320e+01	-2.589665e-05
1.216305e+01	-2.619667e-05
1.223330e+01	-2.650016e-05
1.230396e+01	-2.680717e-05
1.237503e+01	-2.711774e-05
1.244651e+01	-2.743190e-05
1.251840e+01	-2.774971e-05
1.259070e+01	-2.807120e-05
1.266343e+01	-2.839641e-05
1.273657e+01	-2.872539e-05
1.281014e+01	-2.905818e-05
1.288413e+01	-2.939482e-05
1.295855e+01	-2.973537e-05
1.303339e+01	-3.007986e-05
1.310867e+01	-3.042834e-05
1.318439e+01	-3.078086e-05
1.326054e+01	-3.113747e-05
1.333713e+01	-3.149820e-05
1.341417e+01	-3.186312e-05
1.349165e+01	-3.223226e-05
1.356958e+01	-3.260568e-05
1.364795e+01	-3.298342e-05
1.372678e+01	-3.336554e-05
1.380607e+01	-3.375209e-05
1.388581e+01	-3.414312e-05
1.396602e+01	-3.453867e-05
1.404668e+01	-3.493881e-05
1.412782e+01	-3.534358e-05
1.420942e+01	-3.575305e-05
1.429149e+01	-3.616726e-05
1.437404e+01	-3.658626e-05
1.445706e+01	-3.701012e-05
1.454057e+01	-3.743889e-05
1.462455e+01	-3.787263e-05
1.470902e+01	-3.831139e-05
1.479398e+01	-3.875524e-05
1.487943e+01	-3.920423e-05
1.496537e+01	-3.965842e-05
1.505181e+01	-4.011787e-05
1.513875e+01	-4.058264e-05
1.522619e+01	-4.105280e-05
1.531414e+01	-4.152841e-05
1.540259e+01	-4.200953e-05
1.549156e+01	-4.249622e-05
1.558103e+01	-4.298854e-05
1.567103e+01	-4.348658e-05
1.576155e+01	-4.399038e-05
1.585258e+01	-4.450002e-05
1.594415e+01	-4.501556e-05
1.603624e+01	-4.553707e-05
1.612886e+01	-4.606463e-05
1.622202e+01	-4.659830e-05
1.631572e+01	-4.713815e-05
1.640996e+01	-4.768426e-05
1.650474e+01	-4.823669e-05
1.660008e+01	-4.879552e-05
1.669596e+01	-4.936083e-05
1.679239e+01	-4.993268e-05
1.688938e+01	-5.051116e-05
1.698694e+01	-5.109635e-05
1.708505e+01	-5.168831e-05
1.718373e+01	-5.228713e-05
1.728299e+01	-5.289289e-05
1.738281e+01	-5.350566e-05
1.748322e+01	-5.412553e-05
1.758420e+01	-5.475259e-05
1.768576e+01	-5.538691e-05
1.778792e+01	-5.602858e-05
1.789066e+01	-5.667768e-05
1.799399e+01	-5.733430e-05
1.809793e+01	-5.799853e-05
1.820246e+01	-5.867046e-05
1.830760e+01	-5.935017e-05
1.841334e+01	-6.003775e-05
1.851969e+01	-6.073330e-05
1.862666e+01	-6.143691e-05
1.873425e+01	-6.214867e-05
1.884246e+01	-6.286867e-05
1.895129e+01	-6.359702e-05
1.906075e+01	-6.433380e-05
1.917085e+01	-6.507912e-05
1.928158e+01	-6.583307e-05
1.939295e+01	-6.659576e-05
1.950496e+01	-6.736729e-05
1.961762e+01	-6.814775e-05
1.973093e+01	-6.893725e-05
1.984490e+01	-6.973590e-05
1.995952e+01	-7.054381e-05
2.007480e+01	-7.136107e-05
2.019076e+01	-7.218780e-05
2.030738e+01	-7.302411e-05
2.042467e+01	-7.387011e-05
2.054264e+01	-7.472591e-05
2.066130e+01	-7.559162e-05
2.078064e+01	-7.646736e-05
2.090066e+01	-7.735325e-05
2.102139e+01	-7.824940e-05
2.114280e+01	-7.915593e-05
2.126492e+01	-8.007297e-05
2.138775e+01	-8.100063e-05
2.151128e+01	-8.193903e-05
2.163553e+01	-8.288831e-05
2.176050e+01	-8.384859e-05
2.188619e+01	-8.481999e-05
2.201260e+01	-8.580264e-05
2.213974e+01	-8.679668e-05
2.226762e+01	-8.780223e-05
2.239624e+01	-8.881944e-05
2.252560e+01	-8.984842e-05
2.265571e+01	-9.088933e-05
2.278656e+01	-9.194230e-05
2.291818e+01	-9.300746e-05
2.305055e+01	-9.408497e-05
2.318369e+01	-9.517496e-05
2.331760e+01	-9.627757e-05
2.345228e+01	-9.739296e-05
2.358774e+01	-9.852128e-05
2.372398e+01	-9.966266e-05
2.386101e+01	-1.008173e-04
2.399883e+01	-1.019852e-04
2.413745e+01	-1.031668e-04
2.427686e+01	-1.043620e-04
2.441709e+01	-1.055710e-04
2.455812e+01	-1.067941e-04
2.469997e+01	-1.080313e-04
2.484263e+01	-1.092828e-04
2.498612e+01	-1.105489e-04
2.513044e+01	-1.118296e-04
2.527559e+01	-1.131252e-04
2.542158e+01	-1.144358e-04
2.556842e+01	-1.157615e-04
2.571610e+01	-1.171026e-04
2.586463e+01	-1.184593e-04
2.601403e+01	-1.198316e-04
2.616428e+01	-1.212199e-04
2.631541e+01	-1.226242e-04
2.646740e+01	-1.240449e-04
2.662028e+01	-1.254819e-04
2.677404e+01	-1.269357e-04
2.692868e+01	-1.284062e-04
2.708422e+01	-1.298938e-04
2.724066e+01	-1.313987e-04
2.739800e+01	-1.329209e-04
2.755625e+01	-1.344608e-04
2.771541e+01	-1.360186e-04
2.787550e+01	-1.375944e-04
2.803650e+01	-1.391884e-04
2.819844e+01	-1.408009e-04
2.836131e+01	-1.424321e-04
2.852513e+01	-1.440822e-04
2.868989e+01	-1.457514e-04
2.885560e+01	-1.474399e-04
2.902227e+01	-1.491480e-04
2.918990e+01	-1.508759e-04
2.935850e+01	-1.526238e-04
2.952807e+01	-1.543920e-04
2.969863e+01	-1.561806e-04
2.987016e+01	-1.579900e-04
3.004269e+01	-1.598203e-04
3.021622e+01	-1.616719e-04
3.039075e+01	-1.635448e-04
3.056628e+01	-1.654395e-04
3.074283e+01	-1.673561e-04
3.092040e+01	-1.692950e-04
3.109900e+01	-1.712563e-04
3.127862e+01	-1.732403e-04
3.145929e+01	-1.752473e-04
3.164099e+01	-1.772775e-04
3.182375e+01	-1.793313e-04
3.200756e+01	-1.814088e-04
3.219244e+01	-1.835105e-04
3.237838e+01	-1.856364e-04
3.256540e+01	-1.877870e-04
3.275349e+01	-1.899626e-04
3.294268e+01	-1.921633e-04
3.313295e+01	-1.943895e-04
3.332433e+01	-1.966415e-04
3.351681e+01	-1.989196e-04
3.371040e+01	-2.012241e-04
3.390511e+01	-2.035553e-04
3.410094e+01	-2.059134e-04
3.429791e+01	-2.082990e-04
3.449601e+01	-2.107121e-04
3.469526e+01	-2.131532e-04
3.489566e+01	-2.156226e-04
3.509721e+01	-2.181206e-04
3.529993e+01	-2.206475e-04
3.550382e+01	-2.232037e-04
3.570889e+01	-2.257895e-04
3.591515e+01	-2.284053e-04
3.612259e+01	-2.310513e-04
3.633123e+01	-2.337280e-04
3.654108e+01	-2.364358e-04
3.675214e+01	-2.391749e-04
3.696442e+01	-2.419457e-04
3.717792e+01	-2.447486e-04
3.739266e+01	-2.475840e-04
3.760864e+01	-2.504523e-04
3.782587e+01	-2.533538e-04
3.804435e+01	-2.562888e-04
3.826409e+01	-2.592579e-04
3.848510e+01	-2.622614e-04
3.870739e+01	-2.652997e-04
3.893096e+01	-2.683732e-04
3.915583e+01	-2.714823e-04
3.938199e+01	-2.746273e-04
3.960946e+01	-2.778089e-04
3.983824e+01	-2.810273e-04
4.006834e+01	-2.842829e-04
4.029978e+01	-2.875763e-04
4.053255e+01	-2.909079e-04
4.076666e+01	-2.942780e-04
4.100213e+01	-2.976872e-04
4.123896e+01	-3.011359e-04
4.147715e+01	-3.046245e-04
4.171672e+01	-3.081535e-04
4.195767e+01	-3.117234e-04
4.220002e+01	-3.153347e-04
4.244377e+01	-3.189878e-04
4.268892e+01	-3.226832e-04
4.293549e+01	-3.264215e-04
4.318348e+01	-3.302030e-04
4.343291e+01	-3.340283e-04
4.368377e+01	-3.378980e-04
4.393609e+01	-3.418125e-04
4.418986e+01	-3.457723e-04
4.444510e+01	-3.497780e-04
4.470182e+01	-3.538301e-04
4.496001e+01	-3.579292e-04
4.521970e+01	-3.620757e-04
4.548089e+01	-3.662703e-04
4.574358e+01	-3.705135e-04
4.600779e+01	-3.748058e-04
4.627353e+01	-3.791478e-04
4.654081e+01	-3.835402e-04
4.680963e+01	-3.879834e-04
4.708000e+01	-3.924781e-04
4.735193e+01	-3.970248e-04
4.762543e+01	-4.016243e-04
4.790051e+01	-4.062770e-04
4.817719e+01	-4.109836e-04
4.845545e+01	-4.157447e-04
4.873533e+01	-4.205610e-04
4.901682e+01	-4.254331e-04
4.929994e+01	-4.303616e-04
4.958470e+01	-4.353472e-04
4.987110e+01	-4.403906e-04
5.015915e+01	-4.454923e-04
5.044887e+01	-4.506532e-04
5.074026e+01	-4.558739e-04
5.103333e+01	-4.611550e-04
5.132810e+01	-4.664974e-04
5.162457e+01	-4.719016e-04
5.192275e+01	-4.773684e-04
5.222265e+01	-4.828985e-04
5.252429e+01	-4.884927e-04
5.282767e+01	-4.941517e-04
5.313280e+01	-4.998763e-04
5.343969e+01	-5.056671e-04
5.374836e+01	-5.115251e-04
5.405880e+01	-5.174509e-04
5.437105e+01	-5.234453e-04
5.468509e+01	-5.295092e-04
5.500095e+01	-5.356434e-04
5.531863e+01	-5.418486e-04
5.563815e+01	-5.481256e-04
5.595951e+01	-5.544754e-04
5.628273e+01	-5.608987e-04
5.660782e+01	-5.673965e-04
5.693479e+01	-5.739695e-04
5.726364e+01	-5.806186e-04
5.759439e+01	-5.873448e-04
5.792705e+01	-5.941489e-04
5.826164e+01	-6.010318e-04
5.859815e+01	-6.079944e-04
5.893662e+01	-6.150377e-04
5.927703e+01	-6.221626e-04
5.961941e+01	-6.293700e-04
5.996377e+01	-6.366609e-04
6.031012e+01	-6.440362e-04
6.065847e+01	-6.514970e-04
6.100883e+01	-6.590442e-04
6.136121e+01	-6.666788e-04
6.171563e+01	-6.744019e-04
6.207210e+01	-6.822144e-04
6.243063e+01	-6.901174e-04
6.279122e+01	-6.981120e-04
6.315390e+01	-7.061991e-04
6.351868e+01	-7.143800e-04
6.388556e+01	-7.226556e-04
6.425456e+01	-7.310270e-04
6.462569e+01	-7.394955e-04
6.499897e+01	-7.480620e-04
6.537440e+01	-7.567277e-04
6.575200e+01	-7.654939e-04
6.613178e+01	-7.743615e-04
6.651375e+01	-7.833319e-04
6.689793e+01	-7.924062e-04
6.728433e+01	-8.015856e-04
6.767297e+01	-8.108713e-04
6.806384e+01	-8.202646e-04
6.845698e+01	-8.297667e-04
6.885238e+01	-8.393788e-04
6.925007e+01	-8.491023e-04
6.965005e+01	-8.589384e-04
7.005235e+01	-8.688885e-04
7.045697e+01	-8.789537e-04
7.086393e+01	-8.891356e-04
7.127323e+01	-8.994354e-04
7.168490e+01	-9.098546e-04
7.209895e+01	-9.203944e-04
7.251539e+01	-9.310562e-04
7.293424e+01	-9.418416e-04
7.335551e+01	-9.527519e-04
7.377920e+01	-9.637886e-04
7.420535e+01	-9.749531e-04
7.463396e+01	-9.862469e-04
7.506504e+01	-9.976715e-04
7.549861e+01	-1.009228e-03
7.593469e+01	-1.020919e-03
7.637328e+01	-1.032745e-03
7.681441e+01	-1.044709e-03
7.725809e+01	-1.056810e-03
7.770433e+01	-1.069052e-03
7.815315e+01	-1.081436e-03
7.860456e+01	-1.093963e-03
7.905857e+01	-1.106636e-03
7.951521e+01	-1.119455e-03
7.997449e+01	-1.132422e-03
8.043642e+01	-1.145540e-03
8.090102e+01	-1.158809e-03
8.136830e+01	-1.172233e-03
8.183828e+01	-1.185811e-03
8.231097e+01	-1.199547e-03
8.278640e+01	-1.213443e-03
8.326457e+01	-1.227499e-03
8.374550e+01	-1.241718e-03
8.422921e+01	-1.256101e-03
8.471572e+01	-1.270651e-03
8.520503e+01	-1.285370e-03
8.569717e+01	-1.300259e-03
8.619215e+01	-1.315321e-03
8.669000e+01	-1.330557e-03
8.719071e+01	-1.345969e-03
8.769432e+01	-1.361560e-03
8.820084e+01	-1.377332e-03
8.871029e+01	-1.393286e-03
8.922267e+01	-1.409425e-03
8.973802e+01	-1.425751e-03
9.025634e+01	-1.442266e-03
9.077766e+01	-1.458972e-03
9.130199e+01	-1.475872e-03
9.182935e+01	-1.492967e-03
9.235975e+01	-1.510260e-03
9.289321e+01	-1.527754e-03
9.342976e+01	-1.545450e-03
9.396941e+01	-1.563352e-03
9.451217e+01	-1.581460e-03
9.505807e+01	-1.599778e-03
9.560712e+01	-1.618309e-03
9.615934e+01	-1.637054e-03
9.671476e+01	-1.656016e-03
9.727338e+01	-1.675198e-03
9.783522e+01	-1.694601e-03
9.840032e+01	-1.714230e-03
9.896867e+01	-1.734086e-03
9.954031e+01	-1.754172e-03
1.001153e+02	-1.774490e-03
1.006935e+02	-1.795044e-03
1.012751e+02	-1.815835e-03
1.018601e+02	-1.836868e-03
1.024484e+02	-1.858144e-03
1.030402e+02	-1.879666e-03
1.036353e+02	-1.901438e-03
1.042339e+02	-1.923462e-03
1.048360e+02	-1.945741e-03
1.054415e+02	-1.968278e-03
1.060505e+02	-1.991075e-03
1.066631e+02	-2.014137e-03
1.072791e+02	-2.037466e-03
1.078988e+02	-2.061065e-03
1.085220e+02	-2.084937e-03
1.091488e+02	-2.109086e-03
1.097793e+02	-2.133514e-03
1.104133e+02	-2.158225e-03
1.110511e+02	-2.183223e-03
1.116925e+02	-2.208509e-03
1.123376e+02	-2.234089e-03
1.129865e+02	-2.259965e-03
1.136391e+02	-2.286140e-03
1.142955e+02	-2.312619e-03
1.149556e+02	-2.339404e-03
1.156196e+02	-2.366499e-03
1.162874e+02	-2.393908e-03
1.169591e+02	-2.421634e-03
1.176347e+02	-2.449682e-03
1.183141e+02	-2.478054e-03
1.189975e+02	-2.506754e-03
1.196848e+02	-2.535787e-03
1.203761e+02	-2.565156e-03
1.210714e+02	-2.594865e-03
1.217707e+02	-2.624919e-03
1.224740e+02	-2.655320e-03
1.231814e+02	-2.686073e-03
1.238929e+02	-2.717182e-03
1.246085e+02	-2.748651e-03
1.253283e+02	-2.780485e-03
1.260522e+02	-2.812687e-03
1.267802e+02	-2.845262e-03
1.275125e+02	-2.878214e-03
1.282490e+02	-2.911548e-03
1.289898e+02	-2.945267e-03
1.297348e+02	-2.979377e-03
1.304842e+02	-3.013882e-03
1.312378e+02	-3.048787e-03
1.319959e+02	-3.084095e-03
1.327583e+02	-3.119812e-03
1.335251e+02	-3.155943e-03
1.342963e+02	-3.192492e-03
1.350720e+02	-3.229464e-03
1.358522e+02	-3.266864e-03
1.366368e+02	-3.304697e-03
1.374260e+02	-3.342968e-03
1.382198e+02	-3.381682e-03
1.390182e+02	-3.420845e-03
1.398211e+02	-3.460460e-03
1.406287e+02	-3.500534e-03
1.414410e+02	-3.541072e-03
1.422579e+02	-3.582080e-03
1.430796e+02	-3.623562e-03
1.439060e+02	-3.665524e-03
1.447372e+02	-3.707972e-03
1.455732e+02	-3.750911e-03
1.464141e+02	-3.794347e-03
1.472597e+02	-3.838286e-03
1.481103e+02	-3.882734e-03
1.489658e+02	-3.927696e-03
1.498262e+02	-3.973179e-03
1.506916e+02	-4.019187e-03
1.515620e+02	-4.065729e-03
1.524374e+02	-4.112809e-03
1.533179e+02	-4.160434e-03
1.542034e+02	-4.208611e-03
1.550941e+02	-4.257344e-03
1.559899e+02	-4.306642e-03
1.568909e+02	-4.356511e-03
1.577971e+02	-4.406957e-03
1.587085e+02	-4.457986e-03
1.596252e+02	-4.509606e-03
1.605472e+02	-4.561824e-03
1.614745e+02	-4.614645e-03
1.624072e+02	-4.668078e-03
1.633453e+02	-4.722130e-03
1.642887e+02	-4.776807e-03
1.652377e+02	-4.832117e-03
1.661921e+02	-4.888066e-03
1.671520e+02	-4.944663e-03
1.681175e+02	-5.001916e-03
1.690885e+02	-5.059830e-03
1.700651e+02	-5.118415e-03
1.710474e+02	-5.177678e-03
1.720354e+02	-5.237626e-03
1.730291e+02	-5.298269e-03
1.740285e+02	-5.359612e-03
1.750337e+02	-5.421666e-03
1.760446e+02	-5.484438e-03
1.770615e+02	-5.547936e-03
1.780842e+02	-5.612168e-03
1.791128e+02	-5.677144e-03
1.801473e+02	-5.742872e-03
1.811878e+02	-5.809360e-03
1.822344e+02	-5.876617e-03
1.832870e+02	-5.944652e-03
1.843456e+02	-6.013475e-03
1.854104e+02	-6.083094e-03
1.864813e+02	-6.153518e-03
1.875584e+02	-6.224757e-03
1.886418e+02	-6.296820e-03
1.897313e+02	-6.369716e-03
1.908272e+02	-6.443456e-03
1.919294e+02	-6.518049e-03
1.930380e+02	-6.593505e-03
1.941530e+02	-6.669834e-03
1.952744e+02	-6.747045e-03
1.964023e+02	-6.825150e-03
1.975367e+02	-6.904158e-03
1.986777e+02	-6.984080e-03
1.998252e+02	-7.064926e-03
2.009794e+02	-7.146708e-03
2.021403e+02	-7.229435e-03
2.033078e+02	-7.313119e-03
2.044821e+02	-7.397771e-03
2.056632e+02	-7.483402e-03
2.068511e+02	-7.570024e-03
2.080459e+02	-7.657647e-03
2.092475e+02	-7.746283e-03
2.104561e+02	-7.835945e-03
2.116717e+02	-7.926643e-03
2.128943e+02	-8.018390e-03
2.141240e+02	-8.111198e-03
2.153608e+02	-8.205080e-03
2.166047e+02	-8.300047e-03
2.178558e+02	-8.396111e-03
2.191141e+02	-8.493287e-03
2.203797e+02	-8.591586e-03
2.216526e+02	-8.691022e-03
2.229329e+02	-8.791608e-03
2.242205e+02	-8.893356e-03
2.255156e+02	-8.996281e-03
2.268182e+02	-9.100396e-03
2.281283e+02	-9.205714e-03
2.294459e+02	-9.312250e-03
2.307712e+02	-9.420017e-03
2.321041e+02	-9.529031e-03
2.334447e+02	-9.639304e-03
2.347931e+02	-9.750852e-03
2.361493e+02	-9.863689e-03
2.375133e+02	-9.977831e-03
2.388851e+02	-1.009329e-02
2.402649e+02	-1.021009e-02
2.416527e+02	-1.032823e-02
2.430484e+02	-1.044774e-02
2.444523e+02	-1.056864e-02
2.458642e+02	-1.069093e-02
2.472843e+02	-1.081463e-02
2.487126e+02	-1.093976e-02
2.501492e+02	-1.106634e-02
2.515940e+02	-1.119438e-02
2.530472e+02	-1.132390e-02
2.545088e+02	-1.145491e-02
2.559789e+02	-1.158745e-02
2.574574e+02	-1.172151e-02
2.589444e+02	-1.185712e-02
2.604401e+02	-1.199430e-02
2.619444e+02	-1.213306e-02
2.634574e+02	-1.227342e-02
2.649791e+02	-1.241541e-02
2.665096e+02	-1.255904e-02
2.680489e+02	-1.270432e-02
2.695972e+02	-1.285129e-02
2.711544e+02	-1.299995e-02
2.727205e+02	-1.315033e-02
2.742958e+02	-1.330244e-02
2.758801e+02	-1.345632e-02
2.774736e+02	-1.361197e-02
2.790762e+02	-1.376941e-02
2.806882e+02	-1.392868e-02
2.823094e+02	-1.408978e-02
2.839400e+02	-1.425275e-02
2.855800e+02	-1.441760e-02
2.872295e+02	-1.458435e-02
2.888886e+02	-1.475302e-02
2.905572e+02	-1.492364e-02
2.922354e+02	-1.509624e-02
2.939234e+02	-1.527082e-02
2.956211e+02	-1.544742e-02
2.973286e+02	-1.562606e-02
2.990459e+02	-1.580676e-02
3.007732e+02	-1.598955e-02
3.025104e+02	-1.617445e-02
3.042577e+02	-1.636148e-02
3.060151e+02	-1.655067e-02
3.077826e+02	-1.674204e-02
3.095604e+02	-1.693562e-02
3.113484e+02	-1.713144e-02
3.131467e+02	-1.732951e-02
3.149554e+02	-1.752987e-02
3.167746e+02	-1.773254e-02
3.186043e+02	-1.793755e-02
3.204445e+02	-1.814493e-02
3.222954e+02	-1.835470e-02
3.241570e+02	-1.856689e-02
3.260293e+02	-1.878152e-02
3.279124e+02	-1.899863e-02
3.298064e+02	-1.921825e-02
3.317114e+02	-1.944040e-02
3.336273e+02	-1.966511e-02
3.355544e+02	-1.989241e-02
3.374925e+02	-2.012233e-02
3.394418e+02	-2.035491e-02
3.414024e+02	-2.059016e-02
3.433744e+02	-2.082813e-02
3.453577e+02	-2.106884e-02
3.473525e+02	-2.131233e-02
3.493588e+02	-2.155862e-02
3.513766e+02	-2.180776e-02
3.534062e+02	-2.205976e-02
3.554474e+02	-2.231467e-02
3.575005e+02	-2.257252e-02
3.595654e+02	-2.283334e-02
3.616422e+02	-2.309716e-02
3.637311e+02	-2.336403e-02
3.658320e+02	-2.363396e-02
3.679450e+02	-2.390701e-02
3.700702e+02	-2.418321e-02
3.722077e+02	-2.446259e-02
3.743576e+02	-2.474518e-02
3.765199e+02	-2.503103e-02
3.786946e+02	-2.532018e-02
3.808820e+02	-2.561265e-02
3.830819e+02	-2.590849e-02
3.852946e+02	-2.620774e-02
3.875200e+02	-2.651043e-02
3.897583e+02	-2.681661e-02
3.920096e+02	-2.712632e-02
3.942738e+02	-2.743959e-02
3.965511e+02	-2.775646e-02
3.988416e+02	-2.807698e-02
4.011452e+02	-2.840120e-02
4.034622e+02	-2.872914e-02
4.057926e+02	-2.906086e-02
4.081365e+02	-2.939639e-02
4.104938e+02	-2.973579e-02
4.128648e+02	-3.007909e-02
4.152495e+02	-3.042634e-02
4.176480e+02	-3.077758e-02
4.200603e+02	-3.113287e-02
4.224866e+02	-3.149224e-02
4.249268e+02	-3.185574e-02
4.273812e+02	-3.222343e-02
4.298497e+02	-3.259534e-02
4.323325e+02	-3.297153e-02
4.348297e+02	-3.335204e-02
4.373412e+02	-3.373693e-02
4.398673e+02	-3.412624e-02
4.424079e+02	-3.452002e-02
4.449633e+02	-3.491834e-02
4.475334e+02	-3.532122e-02
4.501183e+02	-3.572874e-02
4.527182e+02	-3.614094e-02
4.553330e+02	-3.655788e-02
4.579630e+02	-3.697960e-02
4.606082e+02	-3.740617e-02
4.632687e+02	-3.783764e-02
4.659445e+02	-3.827406e-02
4.686358e+02	-3.871550e-02
4.713426e+02	-3.916200e-02
4.740650e+02	-3.961363e-02
4.768032e+02	-4.007044e-02
4.795572e+02	-4.053249e-02
4.823271e+02	-4.099985e-02
4.851130e+02	-4.147257e-02
4.879150e+02	-4.195072e-02
4.907332e+02	-4.243435e-02
4.935676e+02	-4.292353e-02
4.964185e+02	-4.341832e-02
4.992858e+02	-4.391878e-02
5.021696e+02	-4.442498e-02
5.050701e+02	-4.493699e-02
5.079874e+02	-4.545487e-02
5.109215e+02	-4.597868e-02
5.138726e+02	-4.650850e-02
5.168407e+02	-4.704439e-02
5.198259e+02	-4.758642e-02
5.228284e+02	-4.813466e-02
5.258482e+02	-4.868918e-02
5.288855e+02	-4.925005e-02
5.319403e+02	-4.981735e-02
5.350128e+02	-5.039114e-02
5.381030e+02	-5.097151e-02
5.412111e+02	-5.155851e-02
5.443371e+02	-5.215224e-02
5.474812e+02	-5.275276e-02
5.506434e+02	-5.336016e-02
5.538239e+02	-5.397450e-02
5.570228e+02	-5.459588e-02
5.602401e+02	-5.522436e-02
5.634760e+02	-5.586003e-02
5.667306e+02	-5.650296e-02
5.700040e+02	-5.715325e-02
5.732964e+02	-5.781098e-02
5.766077e+02	-5.847622e-02
5.799382e+02	-5.914906e-02
5.832879e+02	-5.982960e-02
5.866569e+02	-6.051790e-02
5.900454e+02	-6.121408e-02
5.934535e+02	-6.191820e-02
5.968813e+02	-6.263036e-02
6.003288e+02	-6.335065e-02
6.037963e+02	-6.407917e-02
6.072838e+02	-6.481600e-02
6.107914e+02	-6.556124e-02
6.143194e+02	-6.631498e-02
6.178676e+02	-6.707732e-02
6.214364e+02	-6.784836e-02
6.250258e+02	-6.862819e-02
6.286359e+02	-6.941691e-02
6.322669e+02	-7.021462e-02
6.359189e+02	-7.102142e-02
6.395919e+02	-7.183742e-02
6.432862e+02	-7.266271e-02
6.470017e+02	-7.349740e-02
6.507388e+02	-7.434160e-02
6.544974e+02	-7.519542e-02
6.582778e+02	-7.605895e-02
6.620800e+02	-7.693231e-02
6.659041e+02	-7.781561e-02
6.697504e+02	-7.870896e-02
6.736188e+02	-7.961247e-02
6.775096e+02	-8.052625e-02
6.814229e+02	-8.145043e-02
6.853587e+02	-8.238511e-02
6.893173e+02	-8.333041e-02
6.932988e+02	-8.428646e-02
6.973033e+02	-8.525336e-02
7.013309e+02	-8.623125e-02
