Frequency(Hz)	Magnitude(dB)
1.000000e+01	-1.992715e+00
1.005776e+01	-2.011093e+00
1.011585e+01	-2.029663e+00
1.017428e+01	-2.048521e+00
1.023305e+01	-2.067405e+00
1.029215e+01	-2.086391e+00
1.035160e+01	-2.105364e+00
1.041139e+01	-2.124653e+00
1.047153e+01	-2.144114e+00
1.053201e+01	-2.163664e+00
1.059284e+01	-2.183433e+00
1.065403e+01	-2.203408e+00
1.071556e+01	-2.223342e+00
1.077746e+01	-2.243691e+00
1.083971e+01	-2.263499e+00
1.090232e+01	-2.284120e+00
1.096529e+01	-2.304647e+00
1.102862e+01	-2.325220e+00
1.109232e+01	-2.346185e+00
1.115639e+01	-2.367076e+00
1.122083e+01	-2.388072e+00
1.128564e+01	-2.409310e+00
1.135083e+01	-2.430690e+00
1.141639e+01	-2.452262e+00
1.148233e+01	-2.473861e+00
1.154865e+01	-2.495479e+00
1.161536e+01	-2.517390e+00
1.168245e+01	-2.539711e+00
1.174992e+01	-2.562148e+00
1.181779e+01	-2.584171e+00
1.188605e+01	-2.606781e+00
1.195470e+01	-2.629448e+00
1.202375e+01	-2.652124e+00
1.209320e+01	-2.675283e+00
1.216305e+01	-2.698632e+00
1.223330e+01	-2.721613e+00
1.230396e+01	-2.744800e+00
1.237503e+01	-2.768426e+00
1.244651e+01	-2.791944e+00
1.251840e+01	-2.815835e+00
1.259070e+01	-2.839850e+00
1.266343e+01	-2.863932e+00
1.273657e+01	-2.887849e+00
1.281014e+01	-2.912246e+00
1.288413e+01	-2.936885e+00
1.295855e+01	-2.961532e+00
1.303339e+01	-2.986123e+00
1.310867e+01	-3.011190e+00
1.318439e+01	-3.036468e+00
1.326054e+01	-3.061626e+00
1.333713e+01	-3.087080e+00
1.341417e+01	-3.112485e+00
1.349165e+01	-3.138326e+00
1.356958e+01	-3.163933e+00
1.364795e+01	-3.189846e+00
1.372678e+01	-3.216173e+00
1.380607e+01	-3.242237e+00
1.388581e+01	-3.268633e+00
1.396602e+01	-3.295217e+00
1.404668e+01	-3.322048e+00
1.412782e+01	-3.348762e+00
1.420942e+01	-3.375541e+00
1.429149e+01	-3.402681e+00
1.437404e+01	-3.430160e+00
1.445706e+01	-3.457488e+00
1.454057e+01	-3.484997e+00
1.462455e+01	-3.512892e+00
1.470902e+01	-3.540306e+00
1.479398e+01	-3.568571e+00
1.487943e+01	-3.596480e+00
1.496537e+01	-3.624631e+00
1.505181e+01	-3.653140e+00
1.513875e+01	-3.681526e+00
1.522619e+01	-3.710276e+00
1.531414e+01	-3.739285e+00
1.540259e+01	-3.768117e+00
1.549156e+01	-3.797045e+00
1.558103e+01	-3.826323e+00
1.567103e+01	-3.855642e+00
1.576155e+01	-3.885427e+00
1.585258e+01	-3.914913e+00
1.594415e+01	-3.944809e+00
1.603624e+01	-3.974725e+00
1.612886e+01	-4.004835e+00
1.622202e+01	-4.034759e+00
1.631572e+01	-4.065398e+00
1.640996e+01	-4.095534e+00
1.650474e+01	-4.126387e+00
1.660008e+01	-4.156965e+00
1.669596e+01	-4.187859e+00
1.679239e+01	-4.218985e+00
1.688938e+01	-4.250144e+00
1.698694e+01	-4.281322e+00
1.708505e+01	-4.312906e+00
1.718373e+01	-4.344389e+00
1.728299e+01	-4.375949e+00
1.738281e+01	-4.407735e+00
1.748322e+01	-4.439692e+00
1.758420e+01	-4.472055e+00
1.768576e+01	-4.503936e+00
1.778792e+01	-4.536521e+00
1.789066e+01	-4.569044e+00
1.799399e+01	-4.601469e+00
1.809793e+01	-4.634423e+00
1.820246e+01	-4.667308e+00
1.830760e+01	-4.700457e+00
1.841334e+01	-4.733377e+00
1.851969e+01	-4.766570e+00
1.862666e+01	-4.800260e+00
1.873425e+01	-4.833379e+00
1.884246e+01	-4.867311e+00
1.895129e+01	-4.901008e+00
1.906075e+01	-4.934824e+00
1.917085e+01	-4.968960e+00
1.928158e+01	-5.003233e+00
1.939295e+01	-5.037447e+00
1.950496e+01	-5.071572e+00
1.961762e+01	-5.106428e+00
1.973093e+01	-5.141131e+00
1.984490e+01	-5.175512e+00
1.995952e+01	-5.210849e+00
2.007480e+01	-5.245783e+00
2.019076e+01	-5.280879e+00
2.030738e+01	-5.316149e+00
2.042467e+01	-5.351532e+00
2.054264e+01	-5.386689e+00
2.066130e+01	-5.422698e+00
2.078064e+01	-5.458221e+00
2.090066e+01	-5.494071e+00
2.102139e+01	-5.530109e+00
2.114280e+01	-5.566097e+00
2.126492e+01	-5.602453e+00
2.138775e+01	-5.638709e+00
2.151128e+01	-5.675292e+00
2.163553e+01	-5.711579e+00
2.176050e+01	-5.748329e+00
2.188619e+01	-5.785252e+00
2.201260e+01	-5.822076e+00
2.213974e+01	-5.859143e+00
2.226762e+01	-5.896397e+00
2.239624e+01	-5.933205e+00
2.252560e+01	-5.970543e+00
2.265571e+01	-6.008173e+00
2.278656e+01	-6.045247e+00
2.291818e+01	-6.083313e+00
2.305055e+01	-6.121009e+00
2.318369e+01	-6.158775e+00
2.331760e+01	-6.196828e+00
2.345228e+01	-6.234629e+00
2.358774e+01	-6.272513e+00
2.372398e+01	-6.311155e+00
2.386101e+01	-6.349468e+00
2.399883e+01	-6.387817e+00
2.413745e+01	-6.426865e+00
2.427686e+01	-6.465139e+00
2.441709e+01	-6.504254e+00
2.455812e+01	-6.543209e+00
2.469997e+01	-6.582005e+00
2.484263e+01	-6.621440e+00
2.498612e+01	-6.660463e+00
2.513044e+01	-6.699709e+00
2.527559e+01	-6.738826e+00
2.542158e+01	-6.778531e+00
2.556842e+01	-6.817787e+00
2.571610e+01	-6.857824e+00
2.586463e+01	-6.897355e+00
2.601403e+01	-6.937032e+00
2.616428e+01	-6.977359e+00
2.631541e+01	-7.017307e+00
2.646740e+01	-7.057467e+00
2.662028e+01	-7.097780e+00
2.677404e+01	-7.137845e+00
2.692868e+01	-7.178340e+00
2.708422e+01	-7.218906e+00
2.724066e+01	-7.259464e+00
2.739800e+01	-7.300097e+00
2.755625e+01	-7.340609e+00
2.771541e+01	-7.381866e+00
2.787550e+01	-7.422695e+00
2.803650e+01	-7.463424e+00
2.819844e+01	-7.505051e+00
2.836131e+01	-7.545759e+00
2.852513e+01	-7.587231e+00
2.868989e+01	-7.628799e+00
2.885560e+01	-7.669872e+00
2.902227e+01	-7.711080e+00
2.918990e+01	-7.753159e+00
2.935850e+01	-7.794799e+00
2.952807e+01	-7.836409e+00
2.969863e+01	-7.878439e+00
2.987016e+01	-7.919973e+00
3.004269e+01	-7.962161e+00
3.021622e+01	-8.004343e+00
3.039075e+01	-8.046249e+00
3.056628e+01	-8.089065e+00
3.074283e+01	-8.131054e+00
3.092040e+01	-8.173232e+00
3.109900e+01	-8.215944e+00
3.127862e+01	-8.258600e+00
3.145929e+01	-8.300808e+00
3.164099e+01	-8.343479e+00
3.182375e+01	-8.386171e+00
3.200756e+01	-8.429458e+00
3.219244e+01	-8.471845e+00
3.237838e+01	-8.514644e+00
3.256540e+01	-8.557652e+00
3.275349e+01	-8.600865e+00
3.294268e+01	-8.644405e+00
3.313295e+01	-8.687163e+00
3.332433e+01	-8.730706e+00
3.351681e+01	-8.773594e+00
3.371040e+01	-8.817524e+00
3.390511e+01	-8.860674e+00
3.410094e+01	-8.904013e+00
3.429791e+01	-8.948281e+00
3.449601e+01	-8.991923e+00
3.469526e+01	-9.035394e+00
3.489566e+01	-9.079182e+00
3.509721e+01	-9.123007e+00
3.529993e+01	-9.167140e+00
3.550382e+01	-9.211200e+00
3.570889e+01	-9.255163e+00
3.591515e+01	-9.299777e+00
3.612259e+01	-9.343499e+00
3.633123e+01	-9.387871e+00
3.654108e+01	-9.432236e+00
3.675214e+01	-9.476499e+00
3.696442e+01	-9.520855e+00
3.717792e+01	-9.565339e+00
3.739266e+01	-9.609679e+00
3.760864e+01	-9.654544e+00
3.782587e+01	-9.699034e+00
3.804435e+01	-9.743822e+00
3.826409e+01	-9.788505e+00
3.848510e+01	-9.833288e+00
3.870739e+01	-9.878010e+00
3.893096e+01	-9.922909e+00
3.915583e+01	-9.968219e+00
3.938199e+01	-1.001346e+01
3.960946e+01	-1.005845e+01
3.983824e+01	-1.010337e+01
4.006834e+01	-1.014836e+01
4.029978e+01	-1.019397e+01
4.053255e+01	-1.023894e+01
4.076666e+01	-1.028390e+01
4.100213e+01	-1.032973e+01
4.123896e+01	-1.037538e+01
4.147715e+01	-1.042030e+01
4.171672e+01	-1.046597e+01
4.195767e+01	-1.051144e+01
4.220002e+01	-1.055694e+01
4.244377e+01	-1.060266e+01
4.268892e+01	-1.064840e+01
4.293549e+01	-1.069424e+01
4.318348e+01	-1.073987e+01
4.343291e+01	-1.078602e+01
4.368377e+01	-1.083166e+01
4.393609e+01	-1.087768e+01
4.418986e+01	-1.092330e+01
4.444510e+01	-1.096951e+01
4.470182e+01	-1.101557e+01
4.496001e+01	-1.106189e+01
4.521970e+01	-1.110839e+01
4.548089e+01	-1.115422e+01
4.574358e+01	-1.120035e+01
4.600779e+01	-1.124640e+01
4.627353e+01	-1.129277e+01
4.654081e+01	-1.133969e+01
4.680963e+01	-1.138539e+01
4.708000e+01	-1.143163e+01
4.735193e+01	-1.147859e+01
4.762543e+01	-1.152492e+01
4.790051e+01	-1.157123e+01
4.817719e+01	-1.161870e+01
4.845545e+01	-1.166448e+01
4.873533e+01	-1.171073e+01
4.901682e+01	-1.175743e+01
4.929994e+01	-1.180384e+01
4.958470e+01	-1.185184e+01
4.987110e+01	-1.189780e+01
5.015915e+01	-1.194496e+01
5.044887e+01	-1.199180e+01
5.074026e+01	-1.203881e+01
5.103333e+01	-1.208577e+01
5.132810e+01	-1.213242e+01
5.162457e+01	-1.217966e+01
5.192275e+01	-1.222641e+01
5.222265e+01	-1.227328e+01
5.252429e+01	-1.232042e+01
5.282767e+01	-1.236742e+01
5.313280e+01	-1.241416e+01
5.343969e+01	-1.246192e+01
5.374836e+01	-1.250894e+01
5.405880e+01	-1.255623e+01
5.437105e+01	-1.260331e+01
5.468509e+01	-1.265074e+01
5.500095e+01	-1.269801e+01
5.531863e+01	-1.274560e+01
5.563815e+01	-1.279247e+01
5.595951e+01	-1.284020e+01
5.628273e+01	-1.288779e+01
5.660782e+01	-1.293511e+01
5.693479e+01	-1.298268e+01
5.726364e+01	-1.303018e+01
5.759439e+01	-1.307801e+01
5.792705e+01	-1.312548e+01
5.826164e+01	-1.317309e+01
5.859815e+01	-1.322093e+01
5.893662e+01	-1.326823e+01
5.927703e+01	-1.331672e+01
5.961941e+01	-1.336332e+01
5.996377e+01	-1.341110e+01
6.031012e+01	-1.345978e+01
6.065847e+01	-1.350709e+01
6.100883e+01	-1.355475e+01
6.136121e+01	-1.360315e+01
6.171563e+01	-1.365063e+01
6.207210e+01	-1.369806e+01
6.243063e+01	-1.374578e+01
6.279122e+01	-1.379391e+01
6.315390e+01	-1.384200e+01
6.351868e+01	-1.389023e+01
6.388556e+01	-1.393805e+01
6.425456e+01	-1.398587e+01
6.462569e+01	-1.403433e+01
6.499897e+01	-1.408210e+01
6.537440e+01	-1.413030e+01
6.575200e+01	-1.417761e+01
6.613178e+01	-1.422717e+01
6.651375e+01	-1.427478e+01
6.689793e+01	-1.432186e+01
6.728433e+01	-1.437209e+01
6.767297e+01	-1.441959e+01
6.806384e+01	-1.446676e+01
6.845698e+01	-1.451538e+01
6.885238e+01	-1.456484e+01
6.925007e+01	-1.461157e+01
6.965005e+01	-1.466012e+01
7.005235e+01	-1.470909e+01
7.045697e+01	-1.475706e+01
7.086393e+01	-1.480587e+01
7.127323e+01	-1.485429e+01
7.168490e+01	-1.490267e+01
7.209895e+01	-1.495103e+01
7.251539e+01	-1.499880e+01
7.293424e+01	-1.504827e+01
7.335551e+01	-1.509578e+01
7.377920e+01	-1.514438e+01
7.420535e+01	-1.519330e+01
7.463396e+01	-1.524273e+01
7.506504e+01	-1.529028e+01
7.549861e+01	-1.533849e+01
7.593469e+01	-1.538758e+01
7.637328e+01	-1.543647e+01
7.681441e+01	-1.548420e+01
7.725809e+01	-1.553211e+01
7.770433e+01	-1.558207e+01
7.815315e+01	-1.562913e+01
7.860456e+01	-1.567944e+01
7.905857e+01	-1.572803e+01
7.951521e+01	-1.577675e+01
7.997449e+01	-1.582533e+01
8.043642e+01	-1.587329e+01
8.090102e+01	-1.592396e+01
8.136830e+01	-1.597163e+01
8.183828e+01	-1.601991e+01
8.231097e+01	-1.606972e+01
8.278640e+01	-1.611800e+01
8.326457e+01	-1.616730e+01
8.374550e+01	-1.621674e+01
8.422921e+01	-1.626415e+01
8.471572e+01	-1.631342e+01
8.520503e+01	-1.636150e+01
8.569717e+01	-1.641039e+01
8.619215e+01	-1.645976e+01
8.669000e+01	-1.650889e+01
8.719071e+01	-1.655664e+01
8.769432e+01	-1.660592e+01
8.820084e+01	-1.665590e+01
8.871029e+01	-1.670490e+01
8.922267e+01	-1.675456e+01
8.973802e+01	-1.680186e+01
9.025634e+01	-1.685165e+01
9.077766e+01	-1.689998e+01
9.130199e+01	-1.695021e+01
9.182935e+01	-1.699844e+01
9.235975e+01	-1.704701e+01
9.289321e+01	-1.709658e+01
9.342976e+01	-1.714647e+01
9.396941e+01	-1.719518e+01
9.451217e+01	-1.724462e+01
9.505807e+01	-1.729268e+01
9.560712e+01	-1.734159e+01
9.615934e+01	-1.739112e+01
9.671476e+01	-1.743953e+01
9.727338e+01	-1.748961e+01
9.783522e+01	-1.753892e+01
9.840032e+01	-1.758716e+01
9.896867e+01	-1.763573e+01
9.954031e+01	-1.768746e+01
1.001153e+02	-1.773562e+01
1.006935e+02	-1.778408e+01
1.012751e+02	-1.783373e+01
1.018601e+02	-1.788299e+01
1.024484e+02	-1.793132e+01
1.030402e+02	-1.798221e+01
1.036353e+02	-1.803054e+01
1.042339e+02	-1.807865e+01
1.048360e+02	-1.812850e+01
1.054415e+02	-1.817942e+01
1.060505e+02	-1.822734e+01
1.066631e+02	-1.827704e+01
1.072791e+02	-1.832587e+01
1.078988e+02	-1.837451e+01
1.085220e+02	-1.842467e+01
1.091488e+02	-1.847508e+01
1.097793e+02	-1.852347e+01
1.104133e+02	-1.857272e+01
1.110511e+02	-1.862308e+01
1.116925e+02	-1.867180e+01
1.123376e+02	-1.871961e+01
1.129865e+02	-1.877099e+01
1.136391e+02	-1.881871e+01
1.142955e+02	-1.886729e+01
1.149556e+02	-1.891831e+01
1.156196e+02	-1.896788e+01
1.162874e+02	-1.901719e+01
1.169591e+02	-1.906567e+01
1.176347e+02	-1.911547e+01
1.183141e+02	-1.916486e+01
1.189975e+02	-1.921479e+01
1.196848e+02	-1.926394e+01
1.203761e+02	-1.931345e+01
1.210714e+02	-1.936325e+01
1.217707e+02	-1.941267e+01
1.224740e+02	-1.946264e+01
1.231814e+02	-1.951219e+01
1.238929e+02	-1.956068e+01
1.246085e+02	-1.961141e+01
1.253283e+02	-1.965940e+01
1.260522e+02	-1.970913e+01
1.267802e+02	-1.976144e+01
1.275125e+02	-1.980933e+01
1.282490e+02	-1.985773e+01
1.289898e+02	-1.990851e+01
1.297348e+02	-1.995739e+01
1.304842e+02	-2.000827e+01
1.312378e+02	-2.005559e+01
1.319959e+02	-2.010513e+01
1.327583e+02	-2.015507e+01
1.335251e+02	-2.020517e+01
1.342963e+02	-2.025456e+01
1.350720e+02	-2.030497e+01
1.358522e+02	-2.035330e+01
1.366368e+02	-2.040344e+01
1.374260e+02	-2.045345e+01
1.382198e+02	-2.050081e+01
1.390182e+02	-2.055075e+01
1.398211e+02	-2.060254e+01
1.406287e+02	-2.065003e+01
1.414410e+02	-2.070074e+01
1.422579e+02	-2.075006e+01
1.430796e+02	-2.080069e+01
1.439060e+02	-2.084838e+01
1.447372e+02	-2.089981e+01
1.455732e+02	-2.094965e+01
1.464141e+02	-2.099904e+01
1.472597e+02	-2.104887e+01
1.481103e+02	-2.109678e+01
1.489658e+02	-2.114695e+01
1.498262e+02	-2.119639e+01
1.506916e+02	-2.124594e+01
1.515620e+02	-2.129602e+01
1.524374e+02	-2.134519e+01
1.533179e+02	-2.139636e+01
1.542034e+02	-2.144377e+01
1.550941e+02	-2.149381e+01
1.559899e+02	-2.154509e+01
1.568909e+02	-2.159349e+01
1.577971e+02	-2.164427e+01
1.587085e+02	-2.169640e+01
1.596252e+02	-2.174438e+01
1.605472e+02	-2.179475e+01
1.614745e+02	-2.184338e+01
1.624072e+02	-2.189175e+01
1.633453e+02	-2.194361e+01
1.642887e+02	-2.199200e+01
1.652377e+02	-2.204143e+01
1.661921e+02	-2.209173e+01
1.671520e+02	-2.214262e+01
1.681175e+02	-2.219168e+01
1.690885e+02	-2.224247e+01
1.700651e+02	-2.229036e+01
1.710474e+02	-2.233915e+01
1.720354e+02	-2.239129e+01
1.730291e+02	-2.243898e+01
1.740285e+02	-2.249227e+01
1.750337e+02	-2.253856e+01
1.760446e+02	-2.259081e+01
1.770615e+02	-2.263925e+01
1.780842e+02	-2.268689e+01
1.791128e+02	-2.274021e+01
1.801473e+02	-2.279047e+01
1.811878e+02	-2.283715e+01
1.822344e+02	-2.288711e+01
1.832870e+02	-2.293845e+01
1.843456e+02	-2.298448e+01
1.854104e+02	-2.303948e+01
1.864813e+02	-2.308692e+01
1.875584e+02	-2.313778e+01
1.886418e+02	-2.318625e+01
1.897313e+02	-2.323693e+01
1.908272e+02	-2.328507e+01
1.919294e+02	-2.333516e+01
1.930380e+02	-2.338743e+01
1.941530e+02	-2.343594e+01
1.952744e+02	-2.348570e+01
1.964023e+02	-2.353441e+01
1.975367e+02	-2.358479e+01
1.986777e+02	-2.363501e+01
1.998252e+02	-2.368257e+01
2.009794e+02	-2.373469e+01
2.021403e+02	-2.378500e+01
2.033078e+02	-2.383611e+01
2.044821e+02	-2.388763e+01
2.056632e+02	-2.393386e+01
2.068511e+02	-2.398412e+01
2.080459e+02	-2.403203e+01
2.092475e+02	-2.408419e+01
2.104561e+02	-2.413244e+01
2.116717e+02	-2.418231e+01
2.128943e+02	-2.423189e+01
2.141240e+02	-2.428332e+01
2.153608e+02	-2.433177e+01
2.166047e+02	-2.438135e+01
2.178558e+02	-2.443345e+01
2.191141e+02	-2.448240e+01
2.203797e+02	-2.453367e+01
2.216526e+02	-2.458407e+01
2.229329e+02	-2.463060e+01
2.242205e+02	-2.468067e+01
2.255156e+02	-2.473151e+01
2.268182e+02	-2.478183e+01
2.281283e+02	-2.483147e+01
2.294459e+02	-2.488136e+01
2.307712e+02	-2.493121e+01
2.321041e+02	-2.498024e+01
2.334447e+02	-2.503035e+01
2.347931e+02	-2.508265e+01
2.361493e+02	-2.512962e+01
2.375133e+02	-2.518326e+01
2.388851e+02	-2.523070e+01
2.402649e+02	-2.527897e+01
2.416527e+02	-2.533129e+01
2.430484e+02	-2.538018e+01
2.444523e+02	-2.542885e+01
2.458642e+02	-2.547580e+01
2.472843e+02	-2.553097e+01
2.487126e+02	-2.558203e+01
2.501492e+02	-2.563052e+01
2.515940e+02	-2.568007e+01
2.530472e+02	-2.573083e+01
2.545088e+02	-2.578090e+01
2.559789e+02	-2.583137e+01
2.574574e+02	-2.587983e+01
2.589444e+02	-2.593010e+01
2.604401e+02	-2.598126e+01
2.619444e+02	-2.603039e+01
2.634574e+02	-2.608030e+01
2.649791e+02	-2.612631e+01
2.665096e+02	-2.617817e+01
2.680489e+02	-2.622885e+01
2.695972e+02	-2.628175e+01
2.711544e+02	-2.632859e+01
2.727205e+02	-2.637628e+01
2.742958e+02	-2.642723e+01
2.758801e+02	-2.647928e+01
2.774736e+02	-2.653353e+01
2.790762e+02	-2.658219e+01
2.806882e+02	-2.663300e+01
2.823094e+02	-2.668131e+01
2.839400e+02	-2.672999e+01
2.855800e+02	-2.678042e+01
2.872295e+02	-2.682931e+01
2.888886e+02	-2.687782e+01
2.905572e+02	-2.693226e+01
2.922354e+02	-2.697996e+01
2.939234e+02	-2.703153e+01
2.956211e+02	-2.708158e+01
2.973286e+02	-2.713183e+01
2.990459e+02	-2.718124e+01
3.007732e+02	-2.722910e+01
3.025104e+02	-2.727801e+01
3.042577e+02	-2.732962e+01
3.060151e+02	-2.737950e+01
3.077826e+02	-2.743052e+01
3.095604e+02	-2.748091e+01
3.113484e+02	-2.752922e+01
3.131467e+02	-2.758127e+01
3.149554e+02	-2.763119e+01
3.167746e+02	-2.767782e+01
3.186043e+02	-2.773018e+01
3.204445e+02	-2.778309e+01
3.222954e+02	-2.783022e+01
3.241570e+02	-2.788076e+01
3.260293e+02	-2.793237e+01
3.279124e+02	-2.797847e+01
3.298064e+02	-2.803084e+01
3.317114e+02	-2.807720e+01
3.336273e+02	-2.812637e+01
3.355544e+02	-2.818098e+01
3.374925e+02	-2.823197e+01
3.394418e+02	-2.827725e+01
3.414024e+02	-2.833106e+01
3.433744e+02	-2.838023e+01
3.453577e+02	-2.843215e+01
3.473525e+02	-2.848007e+01
3.493588e+02	-2.852898e+01
3.513766e+02	-2.857936e+01
3.534062e+02	-2.863519e+01
3.554474e+02	-2.868141e+01
3.575005e+02	-2.873259e+01
3.595654e+02	-2.877762e+01
3.616422e+02	-2.883450e+01
3.637311e+02	-2.887801e+01
3.658320e+02	-2.893080e+01
3.679450e+02	-2.897873e+01
3.700702e+02	-2.902723e+01
3.722077e+02	-2.908718e+01
3.743576e+02	-2.912854e+01
3.765199e+02	-2.917623e+01
3.786946e+02	-2.922900e+01
3.808820e+02	-2.928287e+01
3.830819e+02	-2.933291e+01
3.852946e+02	-2.938358e+01
3.875200e+02	-2.943555e+01
3.897583e+02	-2.947724e+01
3.920096e+02	-2.953209e+01
3.942738e+02	-2.958697e+01
3.965511e+02	-2.963274e+01
3.988416e+02	-2.968385e+01
4.011452e+02	-2.972794e+01
4.034622e+02	-2.978649e+01
4.057926e+02	-2.983430e+01
4.081365e+02	-2.988196e+01
4.104938e+02	-2.993160e+01
4.128648e+02	-2.998041e+01
4.152495e+02	-3.002753e+01
4.176480e+02	-3.008096e+01
4.200603e+02	-3.013270e+01
4.224866e+02	-3.018661e+01
4.249268e+02	-3.023027e+01
4.273812e+02	-3.028018e+01
4.298497e+02	-3.033177e+01
4.323325e+02	-3.038393e+01
4.348297e+02	-3.043793e+01
4.373412e+02	-3.048388e+01
4.398673e+02	-3.053161e+01
4.424079e+02	-3.058626e+01
4.449633e+02	-3.063183e+01
4.475334e+02	-3.068107e+01
4.501183e+02	-3.073769e+01
4.527182e+02	-3.078460e+01
4.553330e+02	-3.083340e+01
4.579630e+02	-3.087855e+01
4.606082e+02	-3.093405e+01
4.632687e+02	-3.098269e+01
4.659445e+02	-3.103551e+01
4.686358e+02	-3.108688e+01
4.713426e+02	-3.113507e+01
4.740650e+02	-3.118331e+01
4.768032e+02	-3.123616e+01
4.795572e+02	-3.128930e+01
4.823271e+02	-3.133336e+01
4.851130e+02	-3.138856e+01
4.879150e+02	-3.143625e+01
4.907332e+02	-3.149126e+01
4.935676e+02	-3.153177e+01
4.964185e+02	-3.158577e+01
4.992858e+02	-3.163501e+01
5.021696e+02	-3.168634e+01
5.050701e+02	-3.173522e+01
5.079874e+02	-3.178826e+01
5.109215e+02	-3.184028e+01
5.138726e+02	-3.189046e+01
5.168407e+02	-3.194341e+01
5.198259e+02	-3.199551e+01
5.228284e+02	-3.204710e+01
5.258482e+02	-3.208798e+01
5.288855e+02	-3.214051e+01
5.319403e+02	-3.219463e+01
5.350128e+02	-3.223666e+01
5.381030e+02	-3.228150e+01
5.412111e+02	-3.233906e+01
5.443371e+02	-3.238677e+01
5.474812e+02	-3.243844e+01
5.506434e+02	-3.249105e+01
5.538239e+02	-3.253734e+01
5.570228e+02	-3.258250e+01
5.602401e+02	-3.263865e+01
5.634760e+02	-3.268744e+01
5.667306e+02	-3.274089e+01
5.700040e+02	-3.279662e+01
5.732964e+02	-3.284505e+01
5.766077e+02	-3.288670e+01
5.799382e+02	-3.294109e+01
5.832879e+02	-3.298822e+01
5.866569e+02	-3.304537e+01
5.900454e+02	-3.309642e+01
5.934535e+02	-3.314931e+01
5.968813e+02	-3.319006e+01
6.003288e+02	-3.324508e+01
6.037963e+02	-3.330029e+01
6.072838e+02	-3.334480e+01
6.107914e+02	-3.339702e+01
6.143194e+02	-3.344690e+01
6.178676e+02	-3.350019e+01
6.214364e+02	-3.355563e+01
6.250258e+02	-3.358882e+01
6.286359e+02	-3.365454e+01
6.322669e+02	-3.370289e+01
6.359189e+02	-3.373249e+01
6.395919e+02	-3.380264e+01
6.432862e+02	-3.384420e+01
6.470017e+02	-3.389566e+01
6.507388e+02	-3.394078e+01
6.544974e+02	-3.399709e+01
6.582778e+02	-3.404825e+01
6.620800e+02	-3.409309e+01
6.659041e+02	-3.415074e+01
6.697504e+02	-3.420680e+01
6.736188e+02	-3.424424e+01
6.775096e+02	-3.431090e+01
6.814229e+02	-3.435007e+01
6.853587e+02	-3.440634e+01
6.893173e+02	-3.445352e+01
6.932988e+02	-3.450824e+01
6.973033e+02	-3.454639e+01
7.013309e+02	-3.460517e+01
