Frequency(Hz)	Magnitude(dB)
1.000000e+01	-2.289706e+00
1.005776e+01	-2.310067e+00
1.011585e+01	-2.330763e+00
1.017428e+01	-2.351854e+00
1.023305e+01	-2.373018e+00
1.029215e+01	-2.394130e+00
1.035160e+01	-2.415082e+00
1.041139e+01	-2.436754e+00
1.047153e+01	-2.458308e+00
1.053201e+01	-2.479980e+00
1.059284e+01	-2.501536e+00
1.065403e+01	-2.523702e+00
1.071556e+01	-2.545716e+00
1.077746e+01	-2.568059e+00
1.083971e+01	-2.590369e+00
1.090232e+01	-2.613021e+00
1.096529e+01	-2.635913e+00
1.102862e+01	-2.658602e+00
1.109232e+01	-2.681527e+00
1.115639e+01	-2.704703e+00
1.122083e+01	-2.728022e+00
1.128564e+01	-2.751263e+00
1.135083e+01	-2.774905e+00
1.141639e+01	-2.798594e+00
1.148233e+01	-2.822526e+00
1.154865e+01	-2.846504e+00
1.161536e+01	-2.870605e+00
1.168245e+01	-2.894767e+00
1.174992e+01	-2.919064e+00
1.181779e+01	-2.943718e+00
1.188605e+01	-2.968331e+00
1.195470e+01	-2.993087e+00
1.202375e+01	-3.018252e+00
1.209320e+01	-3.043451e+00
1.216305e+01	-3.068652e+00
1.223330e+01	-3.094217e+00
1.230396e+01	-3.119559e+00
1.237503e+01	-3.145362e+00
1.244651e+01	-3.171330e+00
1.251840e+01	-3.197159e+00
1.259070e+01	-3.223625e+00
1.266343e+01	-3.249361e+00
1.273657e+01	-3.275894e+00
1.281014e+01	-3.302600e+00
1.288413e+01	-3.329089e+00
1.295855e+01	-3.356094e+00
1.303339e+01	-3.383252e+00
1.310867e+01	-3.410083e+00
1.318439e+01	-3.437391e+00
1.326054e+01	-3.464942e+00
1.333713e+01	-3.492397e+00
1.341417e+01	-3.520221e+00
1.349165e+01	-3.547860e+00
1.356958e+01	-3.576006e+00
1.364795e+01	-3.604404e+00
1.372678e+01	-3.632339e+00
1.380607e+01	-3.661143e+00
1.388581e+01	-3.689257e+00
1.396602e+01	-3.718038e+00
1.404668e+01	-3.747147e+00
1.412782e+01	-3.776139e+00
1.420942e+01	-3.805212e+00
1.429149e+01	-3.834605e+00
1.437404e+01	-3.864042e+00
1.445706e+01	-3.893415e+00
1.454057e+01	-3.923088e+00
1.462455e+01	-3.952863e+00
1.470902e+01	-3.982873e+00
1.479398e+01	-4.013117e+00
1.487943e+01	-4.043289e+00
1.496537e+01	-4.073780e+00
1.505181e+01	-4.104045e+00
1.513875e+01	-4.134795e+00
1.522619e+01	-4.165659e+00
1.531414e+01	-4.196412e+00
1.540259e+01	-4.227556e+00
1.549156e+01	-4.258537e+00
1.558103e+01	-4.290004e+00
1.567103e+01	-4.321253e+00
1.576155e+01	-4.353097e+00
1.585258e+01	-4.384930e+00
1.594415e+01	-4.416636e+00
1.603624e+01	-4.448993e+00
1.612886e+01	-4.480999e+00
1.622202e+01	-4.513133e+00
1.631572e+01	-4.545654e+00
1.640996e+01	-4.577842e+00
1.650474e+01	-4.610764e+00
1.660008e+01	-4.643587e+00
1.669596e+01	-4.676315e+00
1.679239e+01	-4.709519e+00
1.688938e+01	-4.742515e+00
1.698694e+01	-4.775977e+00
1.708505e+01	-4.809253e+00
1.718373e+01	-4.843023e+00
1.728299e+01	-4.876540e+00
1.738281e+01	-4.910407e+00
1.748322e+01	-4.944355e+00
1.758420e+01	-4.978344e+00
1.768576e+01	-5.012609e+00
1.778792e+01	-5.047121e+00
1.789066e+01	-5.081599e+00
1.799399e+01	-5.115841e+00
1.809793e+01	-5.150685e+00
1.820246e+01	-5.185332e+00
1.830760e+01	-5.220295e+00
1.841334e+01	-5.255476e+00
1.851969e+01	-5.290636e+00
1.862666e+01	-5.325830e+00
1.873425e+01	-5.361448e+00
1.884246e+01	-5.396821e+00
1.895129e+01	-5.432704e+00
1.906075e+01	-5.468287e+00
1.917085e+01	-5.504225e+00
1.928158e+01	-5.540000e+00
1.939295e+01	-5.575933e+00
1.950496e+01	-5.612709e+00
1.961762e+01	-5.648836e+00
1.973093e+01	-5.685064e+00
1.984490e+01	-5.721648e+00
1.995952e+01	-5.758348e+00
2.007480e+01	-5.795642e+00
2.019076e+01	-5.832255e+00
2.030738e+01	-5.868960e+00
2.042467e+01	-5.906207e+00
2.054264e+01	-5.943513e+00
2.066130e+01	-5.981011e+00
2.078064e+01	-6.018597e+00
2.090066e+01	-6.055922e+00
2.102139e+01	-6.093553e+00
2.114280e+01	-6.131368e+00
2.126492e+01	-6.169323e+00
2.138775e+01	-6.207404e+00
2.151128e+01	-6.245358e+00
2.163553e+01	-6.283574e+00
2.176050e+01	-6.321775e+00
2.188619e+01	-6.360211e+00
2.201260e+01	-6.399201e+00
2.213974e+01	-6.437484e+00
2.226762e+01	-6.476074e+00
2.239624e+01	-6.515113e+00
2.252560e+01	-6.554008e+00
2.265571e+01	-6.592697e+00
2.278656e+01	-6.631708e+00
2.291818e+01	-6.671228e+00
2.305055e+01	-6.710031e+00
2.318369e+01	-6.749976e+00
2.331760e+01	-6.789460e+00
2.345228e+01	-6.829217e+00
2.358774e+01	-6.868886e+00
2.372398e+01	-6.908121e+00
2.386101e+01	-6.948338e+00
2.399883e+01	-6.988238e+00
2.413745e+01	-7.028181e+00
2.427686e+01	-7.068983e+00
2.441709e+01	-7.108527e+00
2.455812e+01	-7.149131e+00
2.469997e+01	-7.189678e+00
2.484263e+01	-7.230007e+00
2.498612e+01	-7.270437e+00
2.513044e+01	-7.311362e+00
2.527559e+01	-7.352086e+00
2.542158e+01	-7.393144e+00
2.556842e+01	-7.433804e+00
2.571610e+01	-7.475264e+00
2.586463e+01	-7.516260e+00
2.601403e+01	-7.556966e+00
2.616428e+01	-7.598784e+00
2.631541e+01	-7.640004e+00
2.646740e+01	-7.681401e+00
2.662028e+01	-7.722854e+00
2.677404e+01	-7.764448e+00
2.692868e+01	-7.806260e+00
2.708422e+01	-7.848043e+00
2.724066e+01	-7.889920e+00
2.739800e+01	-7.931393e+00
2.755625e+01	-7.974063e+00
2.771541e+01	-8.016294e+00
2.787550e+01	-8.057723e+00
2.803650e+01	-8.100588e+00
2.819844e+01	-8.142687e+00
2.836131e+01	-8.184694e+00
2.852513e+01	-8.227177e+00
2.868989e+01	-8.269610e+00
2.885560e+01	-8.312418e+00
2.902227e+01	-8.354986e+00
2.918990e+01	-8.397918e+00
2.935850e+01	-8.440685e+00
2.952807e+01	-8.483707e+00
2.969863e+01	-8.526588e+00
2.987016e+01	-8.570071e+00
3.004269e+01	-8.612404e+00
3.021622e+01	-8.655747e+00
3.039075e+01	-8.699716e+00
3.056628e+01	-8.742726e+00
3.074283e+01	-8.785605e+00
3.092040e+01	-8.829343e+00
3.109900e+01	-8.872781e+00
3.127862e+01	-8.916282e+00
3.145929e+01	-8.960227e+00
3.164099e+01	-9.003917e+00
3.182375e+01	-9.047777e+00
3.200756e+01	-9.091287e+00
3.219244e+01	-9.135697e+00
3.237838e+01	-9.179050e+00
3.256540e+01	-9.223409e+00
3.275349e+01	-9.267438e+00
3.294268e+01	-9.311580e+00
3.313295e+01	-9.355761e+00
3.332433e+01	-9.399956e+00
3.351681e+01	-9.444381e+00
3.371040e+01	-9.488447e+00
3.390511e+01	-9.532887e+00
3.410094e+01	-9.577809e+00
3.429791e+01	-9.622085e+00
3.449601e+01	-9.667037e+00
3.469526e+01	-9.711929e+00
3.489566e+01	-9.756332e+00
3.509721e+01	-9.800477e+00
3.529993e+01	-9.845809e+00
3.550382e+01	-9.891434e+00
3.570889e+01	-9.935798e+00
3.591515e+01	-9.980235e+00
3.612259e+01	-1.002528e+01
3.633123e+01	-1.007060e+01
3.654108e+01	-1.011583e+01
3.675214e+01	-1.016102e+01
3.696442e+01	-1.020585e+01
3.717792e+01	-1.025121e+01
3.739266e+01	-1.029652e+01
3.760864e+01	-1.034274e+01
3.782587e+01	-1.038788e+01
3.804435e+01	-1.043323e+01
3.826409e+01	-1.047845e+01
3.848510e+01	-1.052374e+01
3.870739e+01	-1.056961e+01
3.893096e+01	-1.061542e+01
3.915583e+01	-1.066088e+01
3.938199e+01	-1.070610e+01
3.960946e+01	-1.075223e+01
3.983824e+01	-1.079873e+01
4.006834e+01	-1.084456e+01
4.029978e+01	-1.089046e+01
4.053255e+01	-1.093570e+01
4.076666e+01	-1.098218e+01
4.100213e+01	-1.102832e+01
4.123896e+01	-1.107456e+01
4.147715e+01	-1.112027e+01
4.171672e+01	-1.116705e+01
4.195767e+01	-1.121291e+01
4.220002e+01	-1.125920e+01
4.244377e+01	-1.130480e+01
4.268892e+01	-1.135159e+01
4.293549e+01	-1.139867e+01
4.318348e+01	-1.144500e+01
4.343291e+01	-1.149063e+01
4.368377e+01	-1.153746e+01
4.393609e+01	-1.158415e+01
4.418986e+01	-1.163037e+01
4.444510e+01	-1.167682e+01
4.470182e+01	-1.172418e+01
4.496001e+01	-1.177079e+01
4.521970e+01	-1.181752e+01
4.548089e+01	-1.186406e+01
4.574358e+01	-1.191087e+01
4.600779e+01	-1.195761e+01
4.627353e+01	-1.200408e+01
4.654081e+01	-1.205126e+01
4.680963e+01	-1.209863e+01
4.708000e+01	-1.214537e+01
4.735193e+01	-1.219260e+01
4.762543e+01	-1.223928e+01
4.790051e+01	-1.228679e+01
4.817719e+01	-1.233411e+01
4.845545e+01	-1.238042e+01
4.873533e+01	-1.242787e+01
4.901682e+01	-1.247526e+01
4.929994e+01	-1.252231e+01
4.958470e+01	-1.256890e+01
4.987110e+01	-1.261701e+01
5.015915e+01	-1.266350e+01
5.044887e+01	-1.271165e+01
5.074026e+01	-1.275944e+01
5.103333e+01	-1.280554e+01
5.132810e+01	-1.285393e+01
5.162457e+01	-1.290148e+01
5.192275e+01	-1.294861e+01
5.222265e+01	-1.299642e+01
5.252429e+01	-1.304393e+01
5.282767e+01	-1.309040e+01
5.313280e+01	-1.313865e+01
5.343969e+01	-1.318612e+01
5.374836e+01	-1.323421e+01
5.405880e+01	-1.328076e+01
5.437105e+01	-1.332958e+01
5.468509e+01	-1.337631e+01
5.500095e+01	-1.342449e+01
5.531863e+01	-1.347253e+01
5.563815e+01	-1.352103e+01
5.595951e+01	-1.356927e+01
5.628273e+01	-1.361529e+01
5.660782e+01	-1.366393e+01
5.693479e+01	-1.371178e+01
5.726364e+01	-1.375858e+01
5.759439e+01	-1.380794e+01
5.792705e+01	-1.385495e+01
5.826164e+01	-1.390356e+01
5.859815e+01	-1.395158e+01
5.893662e+01	-1.399915e+01
5.927703e+01	-1.404809e+01
5.961941e+01	-1.409589e+01
5.996377e+01	-1.414375e+01
6.031012e+01	-1.419154e+01
6.065847e+01	-1.424002e+01
6.100883e+01	-1.428808e+01
6.136121e+01	-1.433640e+01
6.171563e+01	-1.438411e+01
6.207210e+01	-1.443248e+01
6.243063e+01	-1.448124e+01
6.279122e+01	-1.452821e+01
6.315390e+01	-1.457628e+01
6.351868e+01	-1.462584e+01
6.388556e+01	-1.467378e+01
6.425456e+01	-1.472185e+01
6.462569e+01	-1.477028e+01
6.499897e+01	-1.481980e+01
6.537440e+01	-1.486754e+01
6.575200e+01	-1.491576e+01
6.613178e+01	-1.496451e+01
6.651375e+01	-1.501271e+01
6.689793e+01	-1.506170e+01
6.728433e+01	-1.510948e+01
6.767297e+01	-1.515833e+01
6.806384e+01	-1.520685e+01
6.845698e+01	-1.525448e+01
6.885238e+01	-1.530353e+01
6.925007e+01	-1.535234e+01
6.965005e+01	-1.540081e+01
7.005235e+01	-1.544889e+01
7.045697e+01	-1.549803e+01
7.086393e+01	-1.554651e+01
7.127323e+01	-1.559472e+01
7.168490e+01	-1.564311e+01
7.209895e+01	-1.569301e+01
7.251539e+01	-1.574083e+01
7.293424e+01	-1.579064e+01
7.335551e+01	-1.583790e+01
7.377920e+01	-1.588804e+01
7.420535e+01	-1.593611e+01
7.463396e+01	-1.598528e+01
7.506504e+01	-1.603399e+01
7.549861e+01	-1.608238e+01
7.593469e+01	-1.613127e+01
7.637328e+01	-1.618063e+01
7.681441e+01	-1.622901e+01
7.725809e+01	-1.627860e+01
7.770433e+01	-1.632696e+01
7.815315e+01	-1.637584e+01
7.860456e+01	-1.642404e+01
7.905857e+01	-1.647352e+01
7.951521e+01	-1.652247e+01
7.997449e+01	-1.657202e+01
8.043642e+01	-1.662051e+01
8.090102e+01	-1.666875e+01
8.136830e+01	-1.671880e+01
8.183828e+01	-1.676663e+01
8.231097e+01	-1.681599e+01
8.278640e+01	-1.686529e+01
8.326457e+01	-1.691364e+01
8.374550e+01	-1.696355e+01
8.422921e+01	-1.701153e+01
8.471572e+01	-1.706011e+01
8.520503e+01	-1.711052e+01
8.569717e+01	-1.716000e+01
8.619215e+01	-1.720886e+01
8.669000e+01	-1.725709e+01
8.719071e+01	-1.730652e+01
8.769432e+01	-1.735589e+01
8.820084e+01	-1.740418e+01
8.871029e+01	-1.745395e+01
8.922267e+01	-1.750243e+01
8.973802e+01	-1.755306e+01
9.025634e+01	-1.760068e+01
9.077766e+01	-1.765061e+01
9.130199e+01	-1.769893e+01
9.182935e+01	-1.774804e+01
9.235975e+01	-1.779802e+01
9.289321e+01	-1.784710e+01
9.342976e+01	-1.789640e+01
9.396941e+01	-1.794501e+01
9.451217e+01	-1.799526e+01
9.505807e+01	-1.804436e+01
9.560712e+01	-1.809377e+01
9.615934e+01	-1.814210e+01
9.671476e+01	-1.819270e+01
9.727338e+01	-1.824105e+01
9.783522e+01	-1.828978e+01
9.840032e+01	-1.833928e+01
9.896867e+01	-1.838917e+01
9.954031e+01	-1.843789e+01
1.001153e+02	-1.848861e+01
1.006935e+02	-1.853641e+01
1.012751e+02	-1.858607e+01
1.018601e+02	-1.863618e+01
1.024484e+02	-1.868432e+01
1.030402e+02	-1.873465e+01
1.036353e+02	-1.878294e+01
1.042339e+02	-1.883399e+01
1.048360e+02	-1.888260e+01
1.054415e+02	-1.893184e+01
1.060505e+02	-1.898084e+01
1.066631e+02	-1.903157e+01
1.072791e+02	-1.908008e+01
1.078988e+02	-1.913043e+01
1.085220e+02	-1.917943e+01
1.091488e+02	-1.922757e+01
1.097793e+02	-1.927836e+01
1.104133e+02	-1.932800e+01
1.110511e+02	-1.937635e+01
1.116925e+02	-1.942768e+01
1.123376e+02	-1.947581e+01
1.129865e+02	-1.952379e+01
1.136391e+02	-1.957407e+01
1.142955e+02	-1.962384e+01
1.149556e+02	-1.967481e+01
1.156196e+02	-1.972390e+01
1.162874e+02	-1.977235e+01
1.169591e+02	-1.982287e+01
1.176347e+02	-1.987178e+01
1.183141e+02	-1.992125e+01
1.189975e+02	-1.996886e+01
1.196848e+02	-2.002071e+01
1.203761e+02	-2.006991e+01
1.210714e+02	-2.011741e+01
1.217707e+02	-2.016909e+01
1.224740e+02	-2.021714e+01
1.231814e+02	-2.026809e+01
1.238929e+02	-2.031575e+01
1.246085e+02	-2.036830e+01
1.253283e+02	-2.041544e+01
1.260522e+02	-2.046532e+01
1.267802e+02	-2.051634e+01
1.275125e+02	-2.056563e+01
1.282490e+02	-2.061517e+01
1.289898e+02	-2.066391e+01
1.297348e+02	-2.071400e+01
1.304842e+02	-2.076301e+01
1.312378e+02	-2.081507e+01
1.319959e+02	-2.086463e+01
1.327583e+02	-2.091251e+01
1.335251e+02	-2.096093e+01
1.342963e+02	-2.101282e+01
1.350720e+02	-2.106138e+01
1.358522e+02	-2.111269e+01
1.366368e+02	-2.116153e+01
1.374260e+02	-2.121138e+01
1.382198e+02	-2.125897e+01
1.390182e+02	-2.131014e+01
1.398211e+02	-2.135975e+01
1.406287e+02	-2.140943e+01
1.414410e+02	-2.145828e+01
1.422579e+02	-2.150724e+01
1.430796e+02	-2.155915e+01
1.439060e+02	-2.160498e+01
1.447372e+02	-2.165624e+01
1.455732e+02	-2.170744e+01
1.464141e+02	-2.175678e+01
1.472597e+02	-2.180860e+01
1.481103e+02	-2.185625e+01
1.489658e+02	-2.190574e+01
1.498262e+02	-2.195536e+01
1.506916e+02	-2.200450e+01
1.515620e+02	-2.205650e+01
1.524374e+02	-2.210472e+01
1.533179e+02	-2.215493e+01
1.542034e+02	-2.220683e+01
1.550941e+02	-2.225455e+01
1.559899e+02	-2.230730e+01
1.568909e+02	-2.235386e+01
1.577971e+02	-2.240476e+01
1.587085e+02	-2.245249e+01
1.596252e+02	-2.250553e+01
1.605472e+02	-2.255379e+01
1.614745e+02	-2.260300e+01
1.624072e+02	-2.265312e+01
1.633453e+02	-2.270404e+01
1.642887e+02	-2.275189e+01
1.652377e+02	-2.280313e+01
1.661921e+02	-2.285080e+01
1.671520e+02	-2.290250e+01
1.681175e+02	-2.295261e+01
1.690885e+02	-2.300105e+01
1.700651e+02	-2.305103e+01
1.710474e+02	-2.309942e+01
1.720354e+02	-2.315025e+01
1.730291e+02	-2.320213e+01
1.740285e+02	-2.325269e+01
1.750337e+02	-2.330143e+01
1.760446e+02	-2.334890e+01
1.770615e+02	-2.340053e+01
1.780842e+02	-2.344912e+01
1.791128e+02	-2.349907e+01
1.801473e+02	-2.355062e+01
1.811878e+02	-2.359943e+01
1.822344e+02	-2.364946e+01
1.832870e+02	-2.369647e+01
1.843456e+02	-2.374944e+01
1.854104e+02	-2.379764e+01
1.864813e+02	-2.384835e+01
1.875584e+02	-2.389627e+01
1.886418e+02	-2.394576e+01
1.897313e+02	-2.399852e+01
1.908272e+02	-2.404626e+01
1.919294e+02	-2.409948e+01
1.930380e+02	-2.414709e+01
1.941530e+02	-2.419428e+01
1.952744e+02	-2.424491e+01
1.964023e+02	-2.429576e+01
1.975367e+02	-2.434943e+01
1.986777e+02	-2.439763e+01
1.998252e+02	-2.444758e+01
2.009794e+02	-2.449392e+01
2.021403e+02	-2.454488e+01
2.033078e+02	-2.459644e+01
2.044821e+02	-2.464856e+01
2.056632e+02	-2.469439e+01
2.068511e+02	-2.474504e+01
2.080459e+02	-2.479414e+01
2.092475e+02	-2.484186e+01
2.104561e+02	-2.489638e+01
2.116717e+02	-2.494611e+01
2.128943e+02	-2.499638e+01
2.141240e+02	-2.504372e+01
2.153608e+02	-2.509670e+01
2.166047e+02	-2.514109e+01
2.178558e+02	-2.519344e+01
2.191141e+02	-2.524542e+01
2.203797e+02	-2.529296e+01
2.216526e+02	-2.534767e+01
2.229329e+02	-2.539512e+01
2.242205e+02	-2.544627e+01
2.255156e+02	-2.549470e+01
2.268182e+02	-2.554236e+01
2.281283e+02	-2.559280e+01
2.294459e+02	-2.564287e+01
2.307712e+02	-2.569329e+01
2.321041e+02	-2.574651e+01
2.334447e+02	-2.579388e+01
2.347931e+02	-2.584348e+01
2.361493e+02	-2.589244e+01
2.375133e+02	-2.594208e+01
2.388851e+02	-2.599237e+01
2.402649e+02	-2.604119e+01
2.416527e+02	-2.609631e+01
2.430484e+02	-2.614593e+01
2.444523e+02	-2.619075e+01
2.458642e+02	-2.624736e+01
2.472843e+02	-2.629217e+01
2.487126e+02	-2.634028e+01
2.501492e+02	-2.639328e+01
2.515940e+02	-2.644573e+01
2.530472e+02	-2.649097e+01
2.545088e+02	-2.653802e+01
2.559789e+02	-2.659440e+01
2.574574e+02	-2.663963e+01
2.589444e+02	-2.669574e+01
2.604401e+02	-2.674374e+01
2.619444e+02	-2.679161e+01
2.634574e+02	-2.684155e+01
2.649791e+02	-2.689617e+01
2.665096e+02	-2.694359e+01
2.680489e+02	-2.699361e+01
2.695972e+02	-2.704326e+01
2.711544e+02	-2.709026e+01
2.727205e+02	-2.714259e+01
2.742958e+02	-2.719279e+01
2.758801e+02	-2.724096e+01
2.774736e+02	-2.729345e+01
2.790762e+02	-2.734452e+01
2.806882e+02	-2.739126e+01
2.823094e+02	-2.744440e+01
2.839400e+02	-2.749475e+01
2.855800e+02	-2.754555e+01
2.872295e+02	-2.759047e+01
2.888886e+02	-2.764260e+01
2.905572e+02	-2.769522e+01
2.922354e+02	-2.774211e+01
2.939234e+02	-2.779324e+01
2.956211e+02	-2.784233e+01
2.973286e+02	-2.789623e+01
2.990459e+02	-2.794345e+01
3.007732e+02	-2.799464e+01
3.025104e+02	-2.804552e+01
3.042577e+02	-2.809179e+01
3.060151e+02	-2.814421e+01
3.077826e+02	-2.819426e+01
3.095604e+02	-2.824281e+01
3.113484e+02	-2.829501e+01
3.131467e+02	-2.834191e+01
3.149554e+02	-2.839143e+01
3.167746e+02	-2.844287e+01
3.186043e+02	-2.849415e+01
3.204445e+02	-2.854505e+01
3.222954e+02	-2.859170e+01
3.241570e+02	-2.864457e+01
3.260293e+02	-2.869508e+01
3.279124e+02	-2.874666e+01
3.298064e+02	-2.879292e+01
3.317114e+02	-2.884242e+01
3.336273e+02	-2.889162e+01
3.355544e+02	-2.894008e+01
3.374925e+02	-2.899703e+01
3.394418e+02	-2.904709e+01
3.414024e+02	-2.909034e+01
3.433744e+02	-2.914282e+01
3.453577e+02	-2.919273e+01
3.473525e+02	-2.924694e+01
3.493588e+02	-2.929475e+01
3.513766e+02	-2.934723e+01
3.534062e+02	-2.939926e+01
3.554474e+02	-2.944450e+01
3.575005e+02	-2.949712e+01
3.595654e+02	-2.954733e+01
3.616422e+02	-2.959553e+01
3.637311e+02	-2.964698e+01
3.658320e+02	-2.969335e+01
3.679450e+02	-2.974358e+01
3.700702e+02	-2.979599e+01
3.722077e+02	-2.983903e+01
3.743576e+02	-2.989756e+01
3.765199e+02	-2.994299e+01
3.786946e+02	-2.999683e+01
3.808820e+02	-3.004881e+01
3.830819e+02	-3.009582e+01
3.852946e+02	-3.014053e+01
3.875200e+02	-3.019875e+01
3.897583e+02	-3.024402e+01
3.920096e+02	-3.029578e+01
3.942738e+02	-3.034612e+01
3.965511e+02	-3.039272e+01
3.988416e+02	-3.044409e+01
4.011452e+02	-3.049630e+01
4.034622e+02	-3.054671e+01
4.057926e+02	-3.059501e+01
4.081365e+02	-3.064436e+01
4.104938e+02	-3.070185e+01
4.128648e+02	-3.074468e+01
4.152495e+02	-3.079197e+01
4.176480e+02	-3.084568e+01
4.200603e+02	-3.089321e+01
4.224866e+02	-3.094704e+01
4.249268e+02	-3.099724e+01
4.273812e+02	-3.105270e+01
4.298497e+02	-3.109611e+01
4.323325e+02	-3.114796e+01
4.348297e+02	-3.119279e+01
4.373412e+02	-3.124456e+01
4.398673e+02	-3.130160e+01
4.424079e+02	-3.134226e+01
4.449633e+02	-3.139834e+01
4.475334e+02	-3.145375e+01
4.501183e+02	-3.150359e+01
4.527182e+02	-3.155482e+01
4.553330e+02	-3.159920e+01
4.579630e+02	-3.164667e+01
4.606082e+02	-3.169956e+01
4.632687e+02	-3.175045e+01
4.659445e+02	-3.179935e+01
4.686358e+02	-3.185495e+01
4.713426e+02	-3.190516e+01
4.740650e+02	-3.194371e+01
4.768032e+02	-3.199769e+01
4.795572e+02	-3.205450e+01
4.823271e+02	-3.210213e+01
4.851130e+02	-3.215888e+01
4.879150e+02	-3.219716e+01
4.907332e+02	-3.225122e+01
4.935676e+02	-3.230629e+01
4.964185e+02	-3.235162e+01
4.992858e+02	-3.240202e+01
5.021696e+02	-3.244667e+01
5.050701e+02	-3.250543e+01
5.079874e+02	-3.254876e+01
5.109215e+02	-3.259996e+01
5.138726e+02	-3.265354e+01
5.168407e+02	-3.270376e+01
5.198259e+02	-3.275974e+01
5.228284e+02	-3.280425e+01
5.258482e+02	-3.285872e+01
5.288855e+02	-3.289951e+01
5.319403e+02	-3.295213e+01
5.350128e+02	-3.299884e+01
5.381030e+02	-3.305446e+01
5.412111e+02	-3.310798e+01
5.443371e+02	-3.315266e+01
5.474812e+02	-3.319787e+01
5.506434e+02	-3.325019e+01
5.538239e+02	-3.330435e+01
5.570228e+02	-3.335551e+01
5.602401e+02	-3.339899e+01
5.634760e+02	-3.345692e+01
5.667306e+02	-3.349683e+01
5.700040e+02	-3.356556e+01
5.732964e+02	-3.360275e+01
5.766077e+02	-3.365963e+01
5.799382e+02	-3.370062e+01
5.832879e+02	-3.375607e+01
5.866569e+02	-3.380198e+01
5.900454e+02	-3.385460e+01
5.934535e+02	-3.390440e+01
5.968813e+02	-3.396200e+01
6.003288e+02	-3.400389e+01
6.037963e+02	-3.405469e+01
6.072838e+02	-3.411745e+01
6.107914e+02	-3.415932e+01
6.143194e+02	-3.420919e+01
6.178676e+02	-3.426152e+01
6.214364e+02	-3.431379e+01
6.250258e+02	-3.436643e+01
6.286359e+02	-3.441041e+01
6.322669e+02	-3.446017e+01
6.359189e+02	-3.451610e+01
6.395919e+02	-3.456088e+01
6.432862e+02	-3.460932e+01
6.470017e+02	-3.466650e+01
6.507388e+02	-3.471096e+01
6.544974e+02	-3.476210e+01
6.582778e+02	-3.481327e+01
6.620800e+02	-3.486068e+01
6.659041e+02	-3.491264e+01
6.697504e+02	-3.495802e+01
6.736188e+02	-3.501645e+01
6.775096e+02	-3.507701e+01
6.814229e+02	-3.511796e+01
6.853587e+02	-3.516394e+01
6.893173e+02	-3.521325e+01
6.932988e+02	-3.525895e+01
6.973033e+02	-3.531713e+01
7.013309e+02	-3.536221e+01
