Frequency(Hz)	Magnitude(dB)
1.000000e+01	-2.193824e+00
1.005776e+01	-2.213689e+00
1.011585e+01	-2.234029e+00
1.017428e+01	-2.254146e+00
1.023305e+01	-2.274178e+00
1.029215e+01	-2.294870e+00
1.035160e+01	-2.315455e+00
1.041139e+01	-2.336119e+00
1.047153e+01	-2.357059e+00
1.053201e+01	-2.377991e+00
1.059284e+01	-2.399228e+00
1.065403e+01	-2.420432e+00
1.071556e+01	-2.441940e+00
1.077746e+01	-2.463667e+00
1.083971e+01	-2.485405e+00
1.090232e+01	-2.507212e+00
1.096529e+01	-2.529272e+00
1.102862e+01	-2.551493e+00
1.109232e+01	-2.573623e+00
1.115639e+01	-2.595898e+00
1.122083e+01	-2.618777e+00
1.128564e+01	-2.641378e+00
1.135083e+01	-2.664382e+00
1.141639e+01	-2.687361e+00
1.148233e+01	-2.710393e+00
1.154865e+01	-2.733870e+00
1.161536e+01	-2.757034e+00
1.168245e+01	-2.780595e+00
1.174992e+01	-2.804506e+00
1.181779e+01	-2.828245e+00
1.188605e+01	-2.852407e+00
1.195470e+01	-2.876530e+00
1.202375e+01	-2.900868e+00
1.209320e+01	-2.925242e+00
1.216305e+01	-2.949815e+00
1.223330e+01	-2.974753e+00
1.230396e+01	-2.999375e+00
1.237503e+01	-3.024626e+00
1.244651e+01	-3.049665e+00
1.251840e+01	-3.074990e+00
1.259070e+01	-3.100474e+00
1.266343e+01	-3.126063e+00
1.273657e+01	-3.151755e+00
1.281014e+01	-3.177616e+00
1.288413e+01	-3.203606e+00
1.295855e+01	-3.229831e+00
1.303339e+01	-3.256094e+00
1.310867e+01	-3.282580e+00
1.318439e+01	-3.309269e+00
1.326054e+01	-3.335963e+00
1.333713e+01	-3.362747e+00
1.341417e+01	-3.389921e+00
1.349165e+01	-3.417205e+00
1.356958e+01	-3.444574e+00
1.364795e+01	-3.472136e+00
1.372678e+01	-3.499291e+00
1.380607e+01	-3.527030e+00
1.388581e+01	-3.555074e+00
1.396602e+01	-3.583213e+00
1.404668e+01	-3.611232e+00
1.412782e+01	-3.639747e+00
1.420942e+01	-3.668019e+00
1.429149e+01	-3.696772e+00
1.437404e+01	-3.725425e+00
1.445706e+01	-3.754066e+00
1.454057e+01	-3.783291e+00
1.462455e+01	-3.812529e+00
1.470902e+01	-3.841904e+00
1.479398e+01	-3.871181e+00
1.487943e+01	-3.900628e+00
1.496537e+01	-3.930332e+00
1.505181e+01	-3.960445e+00
1.513875e+01	-3.990123e+00
1.522619e+01	-4.020637e+00
1.531414e+01	-4.050641e+00
1.540259e+01	-4.081141e+00
1.549156e+01	-4.111576e+00
1.558103e+01	-4.142282e+00
1.567103e+01	-4.173199e+00
1.576155e+01	-4.204260e+00
1.585258e+01	-4.235088e+00
1.594415e+01	-4.266560e+00
1.603624e+01	-4.297809e+00
1.612886e+01	-4.329545e+00
1.622202e+01	-4.361078e+00
1.631572e+01	-4.392801e+00
1.640996e+01	-4.424543e+00
1.650474e+01	-4.456626e+00
1.660008e+01	-4.488873e+00
1.669596e+01	-4.521405e+00
1.679239e+01	-4.553318e+00
1.688938e+01	-4.586118e+00
1.698694e+01	-4.618905e+00
1.708505e+01	-4.651529e+00
1.718373e+01	-4.684760e+00
1.728299e+01	-4.717583e+00
1.738281e+01	-4.750920e+00
1.748322e+01	-4.783832e+00
1.758420e+01	-4.817825e+00
1.768576e+01	-4.851235e+00
1.778792e+01	-4.885043e+00
1.789066e+01	-4.918803e+00
1.799399e+01	-4.952738e+00
1.809793e+01	-4.987141e+00
1.820246e+01	-5.021100e+00
1.830760e+01	-5.055171e+00
1.841334e+01	-5.089975e+00
1.851969e+01	-5.124737e+00
1.862666e+01	-5.159434e+00
1.873425e+01	-5.194015e+00
1.884246e+01	-5.229107e+00
1.895129e+01	-5.264255e+00
1.906075e+01	-5.299354e+00
1.917085e+01	-5.334508e+00
1.928158e+01	-5.370207e+00
1.939295e+01	-5.405871e+00
1.950496e+01	-5.441567e+00
1.961762e+01	-5.477354e+00
1.973093e+01	-5.512943e+00
1.984490e+01	-5.549104e+00
1.995952e+01	-5.584935e+00
2.007480e+01	-5.621484e+00
2.019076e+01	-5.657449e+00
2.030738e+01	-5.694424e+00
2.042467e+01	-5.730961e+00
2.054264e+01	-5.767737e+00
2.066130e+01	-5.804387e+00
2.078064e+01	-5.841084e+00
2.090066e+01	-5.878343e+00
2.102139e+01	-5.915469e+00
2.114280e+01	-5.952929e+00
2.126492e+01	-5.990140e+00
2.138775e+01	-6.027692e+00
2.151128e+01	-6.065307e+00
2.163553e+01	-6.103034e+00
2.176050e+01	-6.140955e+00
2.188619e+01	-6.178563e+00
2.201260e+01	-6.216548e+00
2.213974e+01	-6.254719e+00
2.226762e+01	-6.293081e+00
2.239624e+01	-6.331282e+00
2.252560e+01	-6.369973e+00
2.265571e+01	-6.408143e+00
2.278656e+01	-6.447116e+00
2.291818e+01	-6.485718e+00
2.305055e+01	-6.524564e+00
2.318369e+01	-6.563491e+00
2.331760e+01	-6.602670e+00
2.345228e+01	-6.641819e+00
2.358774e+01	-6.680639e+00
2.372398e+01	-6.720503e+00
2.386101e+01	-6.759408e+00
2.399883e+01	-6.799075e+00
2.413745e+01	-6.838973e+00
2.427686e+01	-6.878530e+00
2.441709e+01	-6.918386e+00
2.455812e+01	-6.958283e+00
2.469997e+01	-6.998127e+00
2.484263e+01	-7.038286e+00
2.498612e+01	-7.078744e+00
2.513044e+01	-7.118915e+00
2.527559e+01	-7.158990e+00
2.542158e+01	-7.199541e+00
2.556842e+01	-7.240040e+00
2.571610e+01	-7.281128e+00
2.586463e+01	-7.321476e+00
2.601403e+01	-7.362171e+00
2.616428e+01	-7.402731e+00
2.631541e+01	-7.444130e+00
2.646740e+01	-7.485149e+00
2.662028e+01	-7.526727e+00
2.677404e+01	-7.567495e+00
2.692868e+01	-7.608519e+00
2.708422e+01	-7.650461e+00
2.724066e+01	-7.691940e+00
2.739800e+01	-7.733079e+00
2.755625e+01	-7.774916e+00
2.771541e+01	-7.816436e+00
2.787550e+01	-7.858604e+00
2.803650e+01	-7.900269e+00
2.819844e+01	-7.942252e+00
2.836131e+01	-7.984510e+00
2.852513e+01	-8.026476e+00
2.868989e+01	-8.068742e+00
2.885560e+01	-8.110702e+00
2.902227e+01	-8.153073e+00
2.918990e+01	-8.195461e+00
2.935850e+01	-8.237758e+00
2.952807e+01	-8.280465e+00
2.969863e+01	-8.323524e+00
2.987016e+01	-8.366106e+00
3.004269e+01	-8.408927e+00
3.021622e+01	-8.452082e+00
3.039075e+01	-8.494855e+00
3.056628e+01	-8.537630e+00
3.074283e+01	-8.580774e+00
3.092040e+01	-8.623850e+00
3.109900e+01	-8.666604e+00
3.127862e+01	-8.710421e+00
3.145929e+01	-8.753646e+00
3.164099e+01	-8.797590e+00
3.182375e+01	-8.840348e+00
3.200756e+01	-8.883674e+00
3.219244e+01	-8.927048e+00
3.237838e+01	-8.971093e+00
3.256540e+01	-9.014840e+00
3.275349e+01	-9.058707e+00
3.294268e+01	-9.102772e+00
3.313295e+01	-9.146276e+00
3.332433e+01	-9.189951e+00
3.351681e+01	-9.234482e+00
3.371040e+01	-9.277904e+00
3.390511e+01	-9.322729e+00
3.410094e+01	-9.366515e+00
3.429791e+01	-9.411206e+00
3.449601e+01	-9.455459e+00
3.469526e+01	-9.499869e+00
3.489566e+01	-9.544463e+00
3.509721e+01	-9.589097e+00
3.529993e+01	-9.633020e+00
3.550382e+01	-9.677272e+00
3.570889e+01	-9.722644e+00
3.591515e+01	-9.767526e+00
3.612259e+01	-9.811791e+00
3.633123e+01	-9.857085e+00
3.654108e+01	-9.901290e+00
3.675214e+01	-9.946973e+00
3.696442e+01	-9.991661e+00
3.717792e+01	-1.003604e+01
3.739266e+01	-1.008134e+01
3.760864e+01	-1.012719e+01
3.782587e+01	-1.017219e+01
3.804435e+01	-1.021724e+01
3.826409e+01	-1.026284e+01
3.848510e+01	-1.030774e+01
3.870739e+01	-1.035363e+01
3.893096e+01	-1.039881e+01
3.915583e+01	-1.044450e+01
3.938199e+01	-1.048962e+01
3.960946e+01	-1.053553e+01
3.983824e+01	-1.058112e+01
4.006834e+01	-1.062683e+01
4.029978e+01	-1.067250e+01
4.053255e+01	-1.071826e+01
4.076666e+01	-1.076367e+01
4.100213e+01	-1.080986e+01
4.123896e+01	-1.085603e+01
4.147715e+01	-1.090155e+01
4.171672e+01	-1.094731e+01
4.195767e+01	-1.099362e+01
4.220002e+01	-1.103990e+01
4.244377e+01	-1.108563e+01
4.268892e+01	-1.113217e+01
4.293549e+01	-1.117815e+01
4.318348e+01	-1.122496e+01
4.343291e+01	-1.127111e+01
4.368377e+01	-1.131681e+01
4.393609e+01	-1.136322e+01
4.418986e+01	-1.140976e+01
4.444510e+01	-1.145640e+01
4.470182e+01	-1.150233e+01
4.496001e+01	-1.154869e+01
4.521970e+01	-1.159590e+01
4.548089e+01	-1.164239e+01
4.574358e+01	-1.168902e+01
4.600779e+01	-1.173598e+01
4.627353e+01	-1.178202e+01
4.654081e+01	-1.182879e+01
4.680963e+01	-1.187558e+01
4.708000e+01	-1.192255e+01
4.735193e+01	-1.196944e+01
4.762543e+01	-1.201636e+01
4.790051e+01	-1.206308e+01
4.817719e+01	-1.211028e+01
4.845545e+01	-1.215700e+01
4.873533e+01	-1.220405e+01
4.901682e+01	-1.225059e+01
4.929994e+01	-1.229763e+01
4.958470e+01	-1.234526e+01
4.987110e+01	-1.239217e+01
5.015915e+01	-1.243948e+01
5.044887e+01	-1.248711e+01
5.074026e+01	-1.253381e+01
5.103333e+01	-1.258135e+01
5.132810e+01	-1.262845e+01
5.162457e+01	-1.267578e+01
5.192275e+01	-1.272316e+01
5.222265e+01	-1.276993e+01
5.252429e+01	-1.281717e+01
5.282767e+01	-1.286498e+01
5.313280e+01	-1.291322e+01
5.343969e+01	-1.296055e+01
5.374836e+01	-1.300760e+01
5.405880e+01	-1.305558e+01
5.437105e+01	-1.310258e+01
5.468509e+01	-1.315092e+01
5.500095e+01	-1.319894e+01
5.531863e+01	-1.324487e+01
5.563815e+01	-1.329394e+01
5.595951e+01	-1.334107e+01
5.628273e+01	-1.338910e+01
5.660782e+01	-1.343723e+01
5.693479e+01	-1.348480e+01
5.726364e+01	-1.353215e+01
5.759439e+01	-1.358031e+01
5.792705e+01	-1.362748e+01
5.826164e+01	-1.367572e+01
5.859815e+01	-1.372335e+01
5.893662e+01	-1.377181e+01
5.927703e+01	-1.381991e+01
5.961941e+01	-1.386804e+01
5.996377e+01	-1.391530e+01
6.031012e+01	-1.396257e+01
6.065847e+01	-1.401173e+01
6.100883e+01	-1.405920e+01
6.136121e+01	-1.410805e+01
6.171563e+01	-1.415613e+01
6.207210e+01	-1.420429e+01
6.243063e+01	-1.425163e+01
6.279122e+01	-1.430005e+01
6.315390e+01	-1.434743e+01
6.351868e+01	-1.439613e+01
6.388556e+01	-1.444395e+01
6.425456e+01	-1.449260e+01
6.462569e+01	-1.454077e+01
6.499897e+01	-1.459021e+01
6.537440e+01	-1.463774e+01
6.575200e+01	-1.468621e+01
6.613178e+01	-1.473477e+01
6.651375e+01	-1.478231e+01
6.689793e+01	-1.483116e+01
6.728433e+01	-1.487898e+01
6.767297e+01	-1.492774e+01
6.806384e+01	-1.497617e+01
6.845698e+01	-1.502447e+01
6.885238e+01	-1.507295e+01
6.925007e+01	-1.512285e+01
6.965005e+01	-1.517076e+01
7.005235e+01	-1.521862e+01
7.045697e+01	-1.526736e+01
7.086393e+01	-1.531628e+01
7.127323e+01	-1.536439e+01
7.168490e+01	-1.541264e+01
7.209895e+01	-1.546231e+01
7.251539e+01	-1.550975e+01
7.293424e+01	-1.555944e+01
7.335551e+01	-1.560623e+01
7.377920e+01	-1.565577e+01
7.420535e+01	-1.570533e+01
7.463396e+01	-1.575388e+01
7.506504e+01	-1.580306e+01
7.549861e+01	-1.585168e+01
7.593469e+01	-1.589991e+01
7.637328e+01	-1.594832e+01
7.681441e+01	-1.599701e+01
7.725809e+01	-1.604598e+01
7.770433e+01	-1.609435e+01
7.815315e+01	-1.614295e+01
7.860456e+01	-1.619261e+01
7.905857e+01	-1.624199e+01
7.951521e+01	-1.629047e+01
7.997449e+01	-1.633934e+01
8.043642e+01	-1.638700e+01
8.090102e+01	-1.643664e+01
8.136830e+01	-1.648502e+01
8.183828e+01	-1.653556e+01
8.231097e+01	-1.658453e+01
8.278640e+01	-1.663217e+01
8.326457e+01	-1.668072e+01
8.374550e+01	-1.673059e+01
8.422921e+01	-1.677901e+01
8.471572e+01	-1.682816e+01
8.520503e+01	-1.687768e+01
8.569717e+01	-1.692604e+01
8.619215e+01	-1.697602e+01
8.669000e+01	-1.702361e+01
8.719071e+01	-1.707401e+01
8.769432e+01	-1.712282e+01
8.820084e+01	-1.717181e+01
8.871029e+01	-1.721983e+01
8.922267e+01	-1.726924e+01
8.973802e+01	-1.731930e+01
9.025634e+01	-1.736821e+01
9.077766e+01	-1.741727e+01
9.130199e+01	-1.746663e+01
9.182935e+01	-1.751555e+01
9.235975e+01	-1.756387e+01
9.289321e+01	-1.761359e+01
9.342976e+01	-1.766215e+01
9.396941e+01	-1.771254e+01
9.451217e+01	-1.776050e+01
9.505807e+01	-1.781071e+01
9.560712e+01	-1.785959e+01
9.615934e+01	-1.790828e+01
9.671476e+01	-1.795875e+01
9.727338e+01	-1.800722e+01
9.783522e+01	-1.805735e+01
9.840032e+01	-1.810556e+01
9.896867e+01	-1.815579e+01
9.954031e+01	-1.820494e+01
1.001153e+02	-1.825401e+01
1.006935e+02	-1.830323e+01
1.012751e+02	-1.835240e+01
1.018601e+02	-1.840094e+01
1.024484e+02	-1.845078e+01
1.030402e+02	-1.849947e+01
1.036353e+02	-1.854899e+01
1.042339e+02	-1.859888e+01
1.048360e+02	-1.864933e+01
1.054415e+02	-1.869752e+01
1.060505e+02	-1.874602e+01
1.066631e+02	-1.879830e+01
1.072791e+02	-1.884655e+01
1.078988e+02	-1.889432e+01
1.085220e+02	-1.894437e+01
1.091488e+02	-1.899445e+01
1.097793e+02	-1.904309e+01
1.104133e+02	-1.909279e+01
1.110511e+02	-1.914168e+01
1.116925e+02	-1.919062e+01
1.123376e+02	-1.923931e+01
1.129865e+02	-1.929127e+01
1.136391e+02	-1.934071e+01
1.142955e+02	-1.939009e+01
1.149556e+02	-1.943851e+01
1.156196e+02	-1.948729e+01
1.162874e+02	-1.953704e+01
1.169591e+02	-1.958949e+01
1.176347e+02	-1.963671e+01
1.183141e+02	-1.968662e+01
1.189975e+02	-1.973624e+01
1.196848e+02	-1.978314e+01
1.203761e+02	-1.983540e+01
1.210714e+02	-1.988275e+01
1.217707e+02	-1.993284e+01
1.224740e+02	-1.998262e+01
1.231814e+02	-2.003275e+01
1.238929e+02	-2.008259e+01
1.246085e+02	-2.013105e+01
1.253283e+02	-2.018105e+01
1.260522e+02	-2.023163e+01
1.267802e+02	-2.028067e+01
1.275125e+02	-2.033070e+01
1.282490e+02	-2.038032e+01
1.289898e+02	-2.043005e+01
1.297348e+02	-2.047870e+01
1.304842e+02	-2.052723e+01
1.312378e+02	-2.057800e+01
1.319959e+02	-2.062872e+01
1.327583e+02	-2.067698e+01
1.335251e+02	-2.072671e+01
1.342963e+02	-2.077569e+01
1.350720e+02	-2.082611e+01
1.358522e+02	-2.087489e+01
1.366368e+02	-2.092509e+01
1.374260e+02	-2.097651e+01
1.382198e+02	-2.102579e+01
1.390182e+02	-2.107373e+01
1.398211e+02	-2.112395e+01
1.406287e+02	-2.117548e+01
1.414410e+02	-2.122381e+01
1.422579e+02	-2.127299e+01
1.430796e+02	-2.132161e+01
1.439060e+02	-2.137188e+01
1.447372e+02	-2.142258e+01
1.455732e+02	-2.147100e+01
1.464141e+02	-2.152050e+01
1.472597e+02	-2.157110e+01
1.481103e+02	-2.162272e+01
1.489658e+02	-2.166823e+01
1.498262e+02	-2.172119e+01
1.506916e+02	-2.177123e+01
1.515620e+02	-2.182114e+01
1.524374e+02	-2.186958e+01
1.533179e+02	-2.191884e+01
1.542034e+02	-2.196850e+01
1.550941e+02	-2.202051e+01
1.559899e+02	-2.206974e+01
1.568909e+02	-2.211818e+01
1.577971e+02	-2.216804e+01
1.587085e+02	-2.221820e+01
1.596252e+02	-2.226597e+01
1.605472e+02	-2.231737e+01
1.614745e+02	-2.236483e+01
1.624072e+02	-2.241765e+01
1.633453e+02	-2.246576e+01
1.642887e+02	-2.251463e+01
1.652377e+02	-2.256638e+01
1.661921e+02	-2.261614e+01
1.671520e+02	-2.266359e+01
1.681175e+02	-2.271467e+01
1.690885e+02	-2.276544e+01
1.700651e+02	-2.281420e+01
1.710474e+02	-2.286608e+01
1.720354e+02	-2.291434e+01
1.730291e+02	-2.296466e+01
1.740285e+02	-2.301276e+01
1.750337e+02	-2.306272e+01
1.760446e+02	-2.311353e+01
1.770615e+02	-2.316134e+01
1.780842e+02	-2.321560e+01
1.791128e+02	-2.326456e+01
1.801473e+02	-2.331267e+01
1.811878e+02	-2.336371e+01
1.822344e+02	-2.341033e+01
1.832870e+02	-2.346308e+01
1.843456e+02	-2.351169e+01
1.854104e+02	-2.356131e+01
1.864813e+02	-2.360884e+01
1.875584e+02	-2.366291e+01
1.886418e+02	-2.371171e+01
1.897313e+02	-2.376022e+01
1.908272e+02	-2.381104e+01
1.919294e+02	-2.386044e+01
1.930380e+02	-2.391176e+01
1.941530e+02	-2.396223e+01
1.952744e+02	-2.401157e+01
1.964023e+02	-2.406143e+01
1.975367e+02	-2.411033e+01
1.986777e+02	-2.415972e+01
1.998252e+02	-2.421004e+01
2.009794e+02	-2.426096e+01
2.021403e+02	-2.431042e+01
2.033078e+02	-2.435938e+01
2.044821e+02	-2.440569e+01
2.056632e+02	-2.445704e+01
2.068511e+02	-2.450882e+01
2.080459e+02	-2.455911e+01
2.092475e+02	-2.460879e+01
2.104561e+02	-2.465874e+01
2.116717e+02	-2.471012e+01
2.128943e+02	-2.475525e+01
2.141240e+02	-2.480586e+01
2.153608e+02	-2.485678e+01
2.166047e+02	-2.490809e+01
2.178558e+02	-2.495829e+01
2.191141e+02	-2.500760e+01
2.203797e+02	-2.505745e+01
2.216526e+02	-2.510551e+01
2.229329e+02	-2.515623e+01
2.242205e+02	-2.520947e+01
2.255156e+02	-2.525799e+01
2.268182e+02	-2.530791e+01
2.281283e+02	-2.535830e+01
2.294459e+02	-2.540809e+01
2.307712e+02	-2.545624e+01
2.321041e+02	-2.550865e+01
2.334447e+02	-2.555619e+01
2.347931e+02	-2.560929e+01
2.361493e+02	-2.565685e+01
2.375133e+02	-2.570475e+01
2.388851e+02	-2.575695e+01
2.402649e+02	-2.580701e+01
2.416527e+02	-2.585978e+01
2.430484e+02	-2.590459e+01
2.444523e+02	-2.596045e+01
2.458642e+02	-2.600540e+01
2.472843e+02	-2.605780e+01
2.487126e+02	-2.610509e+01
2.501492e+02	-2.615733e+01
2.515940e+02	-2.620481e+01
2.530472e+02	-2.625612e+01
2.545088e+02	-2.630576e+01
2.559789e+02	-2.635512e+01
2.574574e+02	-2.640500e+01
2.589444e+02	-2.645488e+01
2.604401e+02	-2.650576e+01
2.619444e+02	-2.655729e+01
2.634574e+02	-2.660439e+01
2.649791e+02	-2.665565e+01
2.665096e+02	-2.670664e+01
2.680489e+02	-2.675671e+01
2.695972e+02	-2.680822e+01
2.711544e+02	-2.685441e+01
2.727205e+02	-2.690471e+01
2.742958e+02	-2.695412e+01
2.758801e+02	-2.700045e+01
2.774736e+02	-2.705909e+01
2.790762e+02	-2.710518e+01
2.806882e+02	-2.715537e+01
2.823094e+02	-2.720536e+01
2.839400e+02	-2.725582e+01
2.855800e+02	-2.730356e+01
2.872295e+02	-2.735344e+01
2.888886e+02	-2.740417e+01
2.905572e+02	-2.745831e+01
2.922354e+02	-2.750341e+01
2.939234e+02	-2.755399e+01
2.956211e+02	-2.760830e+01
2.973286e+02	-2.765550e+01
2.990459e+02	-2.770684e+01
3.007732e+02	-2.775747e+01
3.025104e+02	-2.780654e+01
3.042577e+02	-2.785920e+01
3.060151e+02	-2.790853e+01
3.077826e+02	-2.795632e+01
3.095604e+02	-2.800103e+01
3.113484e+02	-2.806196e+01
3.131467e+02	-2.810243e+01
3.149554e+02	-2.815578e+01
3.167746e+02	-2.820418e+01
3.186043e+02	-2.825356e+01
3.204445e+02	-2.830800e+01
3.222954e+02	-2.835304e+01
3.241570e+02	-2.840975e+01
3.260293e+02	-2.845705e+01
3.279124e+02	-2.850234e+01
3.298064e+02	-2.855634e+01
3.317114e+02	-2.860685e+01
3.336273e+02	-2.865605e+01
3.355544e+02	-2.870384e+01
3.374925e+02	-2.875748e+01
3.394418e+02	-2.880673e+01
3.414024e+02	-2.885448e+01
3.433744e+02	-2.890762e+01
3.453577e+02	-2.896320e+01
3.473525e+02	-2.900896e+01
3.493588e+02	-2.905474e+01
3.513766e+02	-2.910685e+01
3.534062e+02	-2.915710e+01
3.554474e+02	-2.920557e+01
3.575005e+02	-2.925804e+01
3.595654e+02	-2.931060e+01
3.616422e+02	-2.935708e+01
3.637311e+02	-2.940938e+01
3.658320e+02	-2.946015e+01
3.679450e+02	-2.950847e+01
3.700702e+02	-2.955686e+01
3.722077e+02	-2.960768e+01
3.743576e+02	-2.965785e+01
3.765199e+02	-2.970206e+01
3.786946e+02	-2.975947e+01
3.808820e+02	-2.980928e+01
3.830819e+02	-2.985452e+01
3.852946e+02	-2.990481e+01
3.875200e+02	-2.995614e+01
3.897583e+02	-3.000903e+01
3.920096e+02	-3.005760e+01
3.942738e+02	-3.010866e+01
3.965511e+02	-3.015972e+01
3.988416e+02	-3.021051e+01
4.011452e+02	-3.026023e+01
4.034622e+02	-3.030933e+01
4.057926e+02	-3.035633e+01
4.081365e+02	-3.040784e+01
4.104938e+02	-3.045810e+01
4.128648e+02	-3.050607e+01
4.152495e+02	-3.056057e+01
4.176480e+02	-3.061600e+01
4.200603e+02	-3.065886e+01
4.224866e+02	-3.071020e+01
4.249268e+02	-3.076188e+01
4.273812e+02	-3.081449e+01
4.298497e+02	-3.086664e+01
4.323325e+02	-3.091661e+01
4.348297e+02	-3.096702e+01
4.373412e+02	-3.101212e+01
4.398673e+02	-3.105918e+01
4.424079e+02	-3.111120e+01
4.449633e+02	-3.115295e+01
4.475334e+02	-3.121212e+01
4.501183e+02	-3.125962e+01
4.527182e+02	-3.131145e+01
4.553330e+02	-3.136122e+01
4.579630e+02	-3.141312e+01
4.606082e+02	-3.145899e+01
4.632687e+02	-3.151085e+01
4.659445e+02	-3.156044e+01
4.686358e+02	-3.161089e+01
4.713426e+02	-3.167061e+01
4.740650e+02	-3.170945e+01
4.768032e+02	-3.176767e+01
4.795572e+02	-3.181472e+01
4.823271e+02	-3.186688e+01
4.851130e+02	-3.191413e+01
4.879150e+02	-3.196385e+01
4.907332e+02	-3.201214e+01
4.935676e+02	-3.206907e+01
4.964185e+02	-3.211919e+01
4.992858e+02	-3.217051e+01
5.021696e+02	-3.221256e+01
5.050701e+02	-3.226463e+01
5.079874e+02	-3.231952e+01
5.109215e+02	-3.236414e+01
5.138726e+02	-3.241702e+01
5.168407e+02	-3.246635e+01
5.198259e+02	-3.251961e+01
5.228284e+02	-3.256203e+01
5.258482e+02	-3.261604e+01
5.288855e+02	-3.267175e+01
5.319403e+02	-3.272456e+01
5.350128e+02	-3.276899e+01
5.381030e+02	-3.281872e+01
5.412111e+02	-3.286579e+01
5.443371e+02	-3.291212e+01
5.474812e+02	-3.296886e+01
5.506434e+02	-3.301216e+01
5.538239e+02	-3.306634e+01
5.570228e+02	-3.312337e+01
5.602401e+02	-3.316724e+01
5.634760e+02	-3.322668e+01
5.667306e+02	-3.326642e+01
5.700040e+02	-3.332468e+01
5.732964e+02	-3.336816e+01
5.766077e+02	-3.342435e+01
5.799382e+02	-3.346884e+01
5.832879e+02	-3.351051e+01
5.866569e+02	-3.357122e+01
5.900454e+02	-3.361938e+01
5.934535e+02	-3.367934e+01
5.968813e+02	-3.372188e+01
6.003288e+02	-3.378015e+01
6.037963e+02	-3.381596e+01
6.072838e+02	-3.386695e+01
6.107914e+02	-3.392123e+01
6.143194e+02	-3.397872e+01
6.178676e+02	-3.402713e+01
6.214364e+02	-3.407802e+01
6.250258e+02	-3.412240e+01
6.286359e+02	-3.417368e+01
6.322669e+02	-3.422995e+01
6.359189e+02	-3.427173e+01
6.395919e+02	-3.433073e+01
6.432862e+02	-3.437839e+01
6.470017e+02	-3.442407e+01
6.507388e+02	-3.447728e+01
6.544974e+02	-3.453045e+01
6.582778e+02	-3.456784e+01
6.620800e+02	-3.463260e+01
6.659041e+02	-3.467682e+01
6.697504e+02	-3.472883e+01
6.736188e+02	-3.477653e+01
6.775096e+02	-3.483274e+01
6.814229e+02	-3.488412e+01
6.853587e+02	-3.492758e+01
6.893173e+02	-3.498559e+01
6.932988e+02	-3.503323e+01
6.973033e+02	-3.508305e+01
7.013309e+02	-3.513591e+01
