Frequency(Hz)	Magnitude(dB)
1.000000e+01	-2.190379e+00
1.005776e+01	-2.210275e+00
1.011585e+01	-2.230362e+00
1.017428e+01	-2.250549e+00
1.023305e+01	-2.270753e+00
1.029215e+01	-2.291216e+00
1.035160e+01	-2.311788e+00
1.041139e+01	-2.332701e+00
1.047153e+01	-2.353468e+00
1.053201e+01	-2.374296e+00
1.059284e+01	-2.395437e+00
1.065403e+01	-2.416801e+00
1.071556e+01	-2.438111e+00
1.077746e+01	-2.459709e+00
1.083971e+01	-2.481443e+00
1.090232e+01	-2.503273e+00
1.096529e+01	-2.525393e+00
1.102862e+01	-2.547403e+00
1.109232e+01	-2.569798e+00
1.115639e+01	-2.592297e+00
1.122083e+01	-2.614603e+00
1.128564e+01	-2.637482e+00
1.135083e+01	-2.660194e+00
1.141639e+01	-2.683030e+00
1.148233e+01	-2.706232e+00
1.154865e+01	-2.729747e+00
1.161536e+01	-2.752886e+00
1.168245e+01	-2.776599e+00
1.174992e+01	-2.800229e+00
1.181779e+01	-2.824267e+00
1.188605e+01	-2.848315e+00
1.195470e+01	-2.872336e+00
1.202375e+01	-2.896629e+00
1.209320e+01	-2.921051e+00
1.216305e+01	-2.945562e+00
1.223330e+01	-2.970233e+00
1.230396e+01	-2.995134e+00
1.237503e+01	-3.019863e+00
1.244651e+01	-3.045037e+00
1.251840e+01	-3.070590e+00
1.259070e+01	-3.095844e+00
1.266343e+01	-3.121608e+00
1.273657e+01	-3.147043e+00
1.281014e+01	-3.173116e+00
1.288413e+01	-3.199257e+00
1.295855e+01	-3.225272e+00
1.303339e+01	-3.251384e+00
1.310867e+01	-3.278164e+00
1.318439e+01	-3.304259e+00
1.326054e+01	-3.331130e+00
1.333713e+01	-3.357930e+00
1.341417e+01	-3.385181e+00
1.349165e+01	-3.412135e+00
1.356958e+01	-3.439705e+00
1.364795e+01	-3.467018e+00
1.372678e+01	-3.494585e+00
1.380607e+01	-3.522196e+00
1.388581e+01	-3.550114e+00
1.396602e+01	-3.578095e+00
1.404668e+01	-3.606431e+00
1.412782e+01	-3.634635e+00
1.420942e+01	-3.662961e+00
1.429149e+01	-3.691502e+00
1.437404e+01	-3.720237e+00
1.445706e+01	-3.748976e+00
1.454057e+01	-3.778183e+00
1.462455e+01	-3.807398e+00
1.470902e+01	-3.836534e+00
1.479398e+01	-3.866215e+00
1.487943e+01	-3.895573e+00
1.496537e+01	-3.925425e+00
1.505181e+01	-3.955073e+00
1.513875e+01	-3.985203e+00
1.522619e+01	-4.015288e+00
1.531414e+01	-4.045527e+00
1.540259e+01	-4.075681e+00
1.549156e+01	-4.106166e+00
1.558103e+01	-4.137135e+00
1.567103e+01	-4.167958e+00
1.576155e+01	-4.198816e+00
1.585258e+01	-4.229850e+00
1.594415e+01	-4.260890e+00
1.603624e+01	-4.292452e+00
1.612886e+01	-4.324076e+00
1.622202e+01	-4.355415e+00
1.631572e+01	-4.387124e+00
1.640996e+01	-4.419031e+00
1.650474e+01	-4.451162e+00
1.660008e+01	-4.483178e+00
1.669596e+01	-4.515266e+00
1.679239e+01	-4.547713e+00
1.688938e+01	-4.580435e+00
1.698694e+01	-4.613034e+00
1.708505e+01	-4.645828e+00
1.718373e+01	-4.678966e+00
1.728299e+01	-4.712022e+00
1.738281e+01	-4.745162e+00
1.748322e+01	-4.778451e+00
1.758420e+01	-4.811993e+00
1.768576e+01	-4.845306e+00
1.778792e+01	-4.879159e+00
1.789066e+01	-4.912937e+00
1.799399e+01	-4.946778e+00
1.809793e+01	-4.981147e+00
1.820246e+01	-5.014704e+00
1.830760e+01	-5.049336e+00
1.841334e+01	-5.084141e+00
1.851969e+01	-5.118426e+00
1.862666e+01	-5.152997e+00
1.873425e+01	-5.188181e+00
1.884246e+01	-5.223122e+00
1.895129e+01	-5.257895e+00
1.906075e+01	-5.293204e+00
1.917085e+01	-5.328664e+00
1.928158e+01	-5.363770e+00
1.939295e+01	-5.399271e+00
1.950496e+01	-5.434988e+00
1.961762e+01	-5.470788e+00
1.973093e+01	-5.506824e+00
1.984490e+01	-5.542670e+00
1.995952e+01	-5.578825e+00
2.007480e+01	-5.614923e+00
2.019076e+01	-5.651461e+00
2.030738e+01	-5.687950e+00
2.042467e+01	-5.724583e+00
2.054264e+01	-5.761159e+00
2.066130e+01	-5.797574e+00
2.078064e+01	-5.835173e+00
2.090066e+01	-5.872262e+00
2.102139e+01	-5.908851e+00
2.114280e+01	-5.946284e+00
2.126492e+01	-5.983632e+00
2.138775e+01	-6.021171e+00
2.151128e+01	-6.058471e+00
2.163553e+01	-6.096097e+00
2.176050e+01	-6.134079e+00
2.188619e+01	-6.172377e+00
2.201260e+01	-6.210289e+00
2.213974e+01	-6.248234e+00
2.226762e+01	-6.286108e+00
2.239624e+01	-6.324579e+00
2.252560e+01	-6.362791e+00
2.265571e+01	-6.401822e+00
2.278656e+01	-6.439856e+00
2.291818e+01	-6.479123e+00
2.305055e+01	-6.517766e+00
2.318369e+01	-6.556561e+00
2.331760e+01	-6.595634e+00
2.345228e+01	-6.635020e+00
2.358774e+01	-6.673949e+00
2.372398e+01	-6.713412e+00
2.386101e+01	-6.752591e+00
2.399883e+01	-6.792074e+00
2.413745e+01	-6.831651e+00
2.427686e+01	-6.871320e+00
2.441709e+01	-6.911293e+00
2.455812e+01	-6.951339e+00
2.469997e+01	-6.991415e+00
2.484263e+01	-7.031543e+00
2.498612e+01	-7.071464e+00
2.513044e+01	-7.111586e+00
2.527559e+01	-7.152173e+00
2.542158e+01	-7.192725e+00
2.556842e+01	-7.232871e+00
2.571610e+01	-7.273440e+00
2.586463e+01	-7.314205e+00
2.601403e+01	-7.355174e+00
2.616428e+01	-7.396340e+00
2.631541e+01	-7.437218e+00
2.646740e+01	-7.478125e+00
2.662028e+01	-7.518716e+00
2.677404e+01	-7.560471e+00
2.692868e+01	-7.601556e+00
2.708422e+01	-7.643212e+00
2.724066e+01	-7.684472e+00
2.739800e+01	-7.726041e+00
2.755625e+01	-7.767527e+00
2.771541e+01	-7.808883e+00
2.787550e+01	-7.850823e+00
2.803650e+01	-7.892893e+00
2.819844e+01	-7.935043e+00
2.836131e+01	-7.977221e+00
2.852513e+01	-8.018911e+00
2.868989e+01	-8.061172e+00
2.885560e+01	-8.103484e+00
2.902227e+01	-8.145711e+00
2.918990e+01	-8.188402e+00
2.935850e+01	-8.230657e+00
2.952807e+01	-8.273059e+00
2.969863e+01	-8.315582e+00
2.987016e+01	-8.358672e+00
3.004269e+01	-8.401258e+00
3.021622e+01	-8.444016e+00
3.039075e+01	-8.487218e+00
3.056628e+01	-8.529655e+00
3.074283e+01	-8.572986e+00
3.092040e+01	-8.616023e+00
3.109900e+01	-8.659534e+00
3.127862e+01	-8.702592e+00
3.145929e+01	-8.746343e+00
3.164099e+01	-8.789106e+00
3.182375e+01	-8.832730e+00
3.200756e+01	-8.876286e+00
3.219244e+01	-8.919739e+00
3.237838e+01	-8.963123e+00
3.256540e+01	-9.007459e+00
3.275349e+01	-9.050484e+00
3.294268e+01	-9.094204e+00
3.313295e+01	-9.139017e+00
3.332433e+01	-9.182621e+00
3.351681e+01	-9.226609e+00
3.371040e+01	-9.271094e+00
3.390511e+01	-9.315011e+00
3.410094e+01	-9.358912e+00
3.429791e+01	-9.403226e+00
3.449601e+01	-9.447610e+00
3.469526e+01	-9.491593e+00
3.489566e+01	-9.536604e+00
3.509721e+01	-9.580889e+00
3.529993e+01	-9.625314e+00
3.550382e+01	-9.670475e+00
3.570889e+01	-9.714756e+00
3.591515e+01	-9.759478e+00
3.612259e+01	-9.803718e+00
3.633123e+01	-9.848796e+00
3.654108e+01	-9.893959e+00
3.675214e+01	-9.938878e+00
3.696442e+01	-9.983981e+00
3.717792e+01	-1.002885e+01
3.739266e+01	-1.007407e+01
3.760864e+01	-1.011921e+01
3.782587e+01	-1.016418e+01
3.804435e+01	-1.020957e+01
3.826409e+01	-1.025515e+01
3.848510e+01	-1.029957e+01
3.870739e+01	-1.034569e+01
3.893096e+01	-1.039125e+01
3.915583e+01	-1.043609e+01
3.938199e+01	-1.048165e+01
3.960946e+01	-1.052755e+01
3.983824e+01	-1.057298e+01
4.006834e+01	-1.061860e+01
4.029978e+01	-1.066476e+01
4.053255e+01	-1.071043e+01
4.076666e+01	-1.075607e+01
4.100213e+01	-1.080188e+01
4.123896e+01	-1.084786e+01
4.147715e+01	-1.089353e+01
4.171672e+01	-1.093927e+01
4.195767e+01	-1.098577e+01
4.220002e+01	-1.103198e+01
4.244377e+01	-1.107816e+01
4.268892e+01	-1.112441e+01
4.293549e+01	-1.117016e+01
4.318348e+01	-1.121642e+01
4.343291e+01	-1.126249e+01
4.368377e+01	-1.130893e+01
4.393609e+01	-1.135559e+01
4.418986e+01	-1.140127e+01
4.444510e+01	-1.144820e+01
4.470182e+01	-1.149498e+01
4.496001e+01	-1.154096e+01
4.521970e+01	-1.158733e+01
4.548089e+01	-1.163392e+01
4.574358e+01	-1.168102e+01
4.600779e+01	-1.172765e+01
4.627353e+01	-1.177382e+01
4.654081e+01	-1.182088e+01
4.680963e+01	-1.186778e+01
4.708000e+01	-1.191507e+01
4.735193e+01	-1.196177e+01
4.762543e+01	-1.200813e+01
4.790051e+01	-1.205499e+01
4.817719e+01	-1.210179e+01
4.845545e+01	-1.214896e+01
4.873533e+01	-1.219582e+01
4.901682e+01	-1.224278e+01
4.929994e+01	-1.229043e+01
4.958470e+01	-1.233717e+01
4.987110e+01	-1.238415e+01
5.015915e+01	-1.243148e+01
5.044887e+01	-1.247861e+01
5.074026e+01	-1.252537e+01
5.103333e+01	-1.257306e+01
5.132810e+01	-1.262021e+01
5.162457e+01	-1.266721e+01
5.192275e+01	-1.271504e+01
5.222265e+01	-1.276254e+01
5.252429e+01	-1.281004e+01
5.282767e+01	-1.285694e+01
5.313280e+01	-1.290443e+01
5.343969e+01	-1.295183e+01
5.374836e+01	-1.300036e+01
5.405880e+01	-1.304698e+01
5.437105e+01	-1.309408e+01
5.468509e+01	-1.314226e+01
5.500095e+01	-1.318952e+01
5.531863e+01	-1.323714e+01
5.563815e+01	-1.328535e+01
5.595951e+01	-1.333333e+01
5.628273e+01	-1.337934e+01
5.660782e+01	-1.342810e+01
5.693479e+01	-1.347605e+01
5.726364e+01	-1.352365e+01
5.759439e+01	-1.357127e+01
5.792705e+01	-1.361964e+01
5.826164e+01	-1.366713e+01
5.859815e+01	-1.371499e+01
5.893662e+01	-1.376346e+01
5.927703e+01	-1.381156e+01
5.961941e+01	-1.385880e+01
5.996377e+01	-1.390640e+01
6.031012e+01	-1.395542e+01
6.065847e+01	-1.400256e+01
6.100883e+01	-1.405131e+01
6.136121e+01	-1.409936e+01
6.171563e+01	-1.414669e+01
6.207210e+01	-1.419567e+01
6.243063e+01	-1.424359e+01
6.279122e+01	-1.429123e+01
6.315390e+01	-1.433916e+01
6.351868e+01	-1.438784e+01
6.388556e+01	-1.443542e+01
6.425456e+01	-1.448432e+01
6.462569e+01	-1.453234e+01
6.499897e+01	-1.458070e+01
6.537440e+01	-1.462965e+01
6.575200e+01	-1.467775e+01
6.613178e+01	-1.472686e+01
6.651375e+01	-1.477396e+01
6.689793e+01	-1.482261e+01
6.728433e+01	-1.487101e+01
6.767297e+01	-1.491930e+01
6.806384e+01	-1.496768e+01
6.845698e+01	-1.501671e+01
6.885238e+01	-1.506531e+01
6.925007e+01	-1.511346e+01
6.965005e+01	-1.516259e+01
7.005235e+01	-1.520980e+01
7.045697e+01	-1.525978e+01
7.086393e+01	-1.530705e+01
7.127323e+01	-1.535629e+01
7.168490e+01	-1.540465e+01
7.209895e+01	-1.545267e+01
7.251539e+01	-1.550190e+01
7.293424e+01	-1.555052e+01
7.335551e+01	-1.559942e+01
7.377920e+01	-1.564823e+01
7.420535e+01	-1.569685e+01
7.463396e+01	-1.574501e+01
7.506504e+01	-1.579395e+01
7.549861e+01	-1.584215e+01
7.593469e+01	-1.589106e+01
7.637328e+01	-1.594006e+01
7.681441e+01	-1.598894e+01
7.725809e+01	-1.603730e+01
7.770433e+01	-1.608698e+01
7.815315e+01	-1.613493e+01
7.860456e+01	-1.618347e+01
7.905857e+01	-1.623287e+01
7.951521e+01	-1.628149e+01
7.997449e+01	-1.632963e+01
8.043642e+01	-1.637854e+01
8.090102e+01	-1.642860e+01
8.136830e+01	-1.647746e+01
8.183828e+01	-1.652679e+01
8.231097e+01	-1.657519e+01
8.278640e+01	-1.662312e+01
8.326457e+01	-1.667274e+01
8.374550e+01	-1.672254e+01
8.422921e+01	-1.677113e+01
8.471572e+01	-1.681952e+01
8.520503e+01	-1.686885e+01
8.569717e+01	-1.691910e+01
8.619215e+01	-1.696620e+01
8.669000e+01	-1.701640e+01
8.719071e+01	-1.706511e+01
8.769432e+01	-1.711318e+01
8.820084e+01	-1.716377e+01
8.871029e+01	-1.721236e+01
8.922267e+01	-1.726081e+01
8.973802e+01	-1.731036e+01
9.025634e+01	-1.735882e+01
9.077766e+01	-1.740841e+01
9.130199e+01	-1.745739e+01
9.182935e+01	-1.750628e+01
9.235975e+01	-1.755586e+01
9.289321e+01	-1.760561e+01
9.342976e+01	-1.765367e+01
9.396941e+01	-1.770298e+01
9.451217e+01	-1.775176e+01
9.505807e+01	-1.780207e+01
9.560712e+01	-1.784989e+01
9.615934e+01	-1.790024e+01
9.671476e+01	-1.794766e+01
9.727338e+01	-1.799833e+01
9.783522e+01	-1.804797e+01
9.840032e+01	-1.809733e+01
9.896867e+01	-1.814618e+01
9.954031e+01	-1.819546e+01
1.001153e+02	-1.824463e+01
1.006935e+02	-1.829362e+01
1.012751e+02	-1.834291e+01
1.018601e+02	-1.839299e+01
1.024484e+02	-1.844169e+01
1.030402e+02	-1.849022e+01
1.036353e+02	-1.853923e+01
1.042339e+02	-1.859068e+01
1.048360e+02	-1.863956e+01
1.054415e+02	-1.868845e+01
1.060505e+02	-1.873839e+01
1.066631e+02	-1.878676e+01
1.072791e+02	-1.883711e+01
1.078988e+02	-1.888622e+01
1.085220e+02	-1.893559e+01
1.091488e+02	-1.898497e+01
1.097793e+02	-1.903299e+01
1.104133e+02	-1.908380e+01
1.110511e+02	-1.913313e+01
1.116925e+02	-1.918376e+01
1.123376e+02	-1.923153e+01
1.129865e+02	-1.928238e+01
1.136391e+02	-1.933002e+01
1.142955e+02	-1.937968e+01
1.149556e+02	-1.943012e+01
1.156196e+02	-1.947909e+01
1.162874e+02	-1.953016e+01
1.169591e+02	-1.957661e+01
1.176347e+02	-1.962695e+01
1.183141e+02	-1.967808e+01
1.189975e+02	-1.972498e+01
1.196848e+02	-1.977644e+01
1.203761e+02	-1.982532e+01
1.210714e+02	-1.987642e+01
1.217707e+02	-1.992598e+01
1.224740e+02	-1.997526e+01
1.231814e+02	-2.002401e+01
1.238929e+02	-2.007444e+01
1.246085e+02	-2.012340e+01
1.253283e+02	-2.017239e+01
1.260522e+02	-2.022281e+01
1.267802e+02	-2.027251e+01
1.275125e+02	-2.032262e+01
1.282490e+02	-2.036989e+01
1.289898e+02	-2.041816e+01
1.297348e+02	-2.047065e+01
1.304842e+02	-2.051894e+01
1.312378e+02	-2.056911e+01
1.319959e+02	-2.061949e+01
1.327583e+02	-2.066955e+01
1.335251e+02	-2.071948e+01
1.342963e+02	-2.076921e+01
1.350720e+02	-2.081672e+01
1.358522e+02	-2.086592e+01
1.366368e+02	-2.091810e+01
1.374260e+02	-2.096447e+01
1.382198e+02	-2.101403e+01
1.390182e+02	-2.106566e+01
1.398211e+02	-2.111539e+01
1.406287e+02	-2.116459e+01
1.414410e+02	-2.121404e+01
1.422579e+02	-2.126451e+01
1.430796e+02	-2.131425e+01
1.439060e+02	-2.136303e+01
1.447372e+02	-2.141505e+01
1.455732e+02	-2.146229e+01
1.464141e+02	-2.151402e+01
1.472597e+02	-2.156265e+01
1.481103e+02	-2.161190e+01
1.489658e+02	-2.166129e+01
1.498262e+02	-2.171144e+01
1.506916e+02	-2.176072e+01
1.515620e+02	-2.181091e+01
1.524374e+02	-2.185942e+01
1.533179e+02	-2.190855e+01
1.542034e+02	-2.196096e+01
1.550941e+02	-2.200829e+01
1.559899e+02	-2.205907e+01
1.568909e+02	-2.210683e+01
1.577971e+02	-2.215787e+01
1.587085e+02	-2.220810e+01
1.596252e+02	-2.225951e+01
1.605472e+02	-2.230672e+01
1.614745e+02	-2.235744e+01
1.624072e+02	-2.240804e+01
1.633453e+02	-2.245667e+01
1.642887e+02	-2.250807e+01
1.652377e+02	-2.255867e+01
1.661921e+02	-2.260726e+01
1.671520e+02	-2.265699e+01
1.681175e+02	-2.270777e+01
1.690885e+02	-2.275643e+01
1.700651e+02	-2.280309e+01
1.710474e+02	-2.285658e+01
1.720354e+02	-2.290439e+01
1.730291e+02	-2.295597e+01
1.740285e+02	-2.300439e+01
1.750337e+02	-2.305504e+01
1.760446e+02	-2.310344e+01
1.770615e+02	-2.315470e+01
1.780842e+02	-2.320536e+01
1.791128e+02	-2.325356e+01
1.801473e+02	-2.330491e+01
1.811878e+02	-2.335169e+01
1.822344e+02	-2.340191e+01
1.832870e+02	-2.345305e+01
1.843456e+02	-2.350364e+01
1.854104e+02	-2.355377e+01
1.864813e+02	-2.360460e+01
1.875584e+02	-2.365217e+01
1.886418e+02	-2.370127e+01
1.897313e+02	-2.375309e+01
1.908272e+02	-2.380179e+01
1.919294e+02	-2.385223e+01
1.930380e+02	-2.390320e+01
1.941530e+02	-2.395063e+01
1.952744e+02	-2.400265e+01
1.964023e+02	-2.405022e+01
1.975367e+02	-2.410040e+01
1.986777e+02	-2.415182e+01
1.998252e+02	-2.420161e+01
2.009794e+02	-2.425143e+01
2.021403e+02	-2.430247e+01
2.033078e+02	-2.435079e+01
2.044821e+02	-2.439880e+01
2.056632e+02	-2.445420e+01
2.068511e+02	-2.450086e+01
2.080459e+02	-2.454985e+01
2.092475e+02	-2.460058e+01
2.104561e+02	-2.465119e+01
2.116717e+02	-2.469661e+01
2.128943e+02	-2.474812e+01
2.141240e+02	-2.479946e+01
2.153608e+02	-2.484767e+01
2.166047e+02	-2.489851e+01
2.178558e+02	-2.494936e+01
2.191141e+02	-2.500241e+01
2.203797e+02	-2.505279e+01
2.216526e+02	-2.509923e+01
2.229329e+02	-2.514960e+01
2.242205e+02	-2.519767e+01
2.255156e+02	-2.524755e+01
2.268182e+02	-2.529782e+01
2.281283e+02	-2.534994e+01
2.294459e+02	-2.539855e+01
2.307712e+02	-2.544911e+01
2.321041e+02	-2.549807e+01
2.334447e+02	-2.554859e+01
2.347931e+02	-2.560091e+01
2.361493e+02	-2.564815e+01
2.375133e+02	-2.569686e+01
2.388851e+02	-2.574928e+01
2.402649e+02	-2.579981e+01
2.416527e+02	-2.584722e+01
2.430484e+02	-2.590131e+01
2.444523e+02	-2.594634e+01
2.458642e+02	-2.599638e+01
2.472843e+02	-2.604812e+01
2.487126e+02	-2.609867e+01
2.501492e+02	-2.614926e+01
2.515940e+02	-2.619634e+01
2.530472e+02	-2.624809e+01
2.545088e+02	-2.629954e+01
2.559789e+02	-2.634720e+01
2.574574e+02	-2.639971e+01
2.589444e+02	-2.644562e+01
2.604401e+02	-2.649395e+01
2.619444e+02	-2.654781e+01
2.634574e+02	-2.659880e+01
2.649791e+02	-2.664490e+01
2.665096e+02	-2.669490e+01
2.680489e+02	-2.674453e+01
2.695972e+02	-2.679877e+01
2.711544e+02	-2.684729e+01
2.727205e+02	-2.689607e+01
2.742958e+02	-2.694840e+01
2.758801e+02	-2.699783e+01
2.774736e+02	-2.704699e+01
2.790762e+02	-2.709821e+01
2.806882e+02	-2.714544e+01
2.823094e+02	-2.720038e+01
2.839400e+02	-2.724739e+01
2.855800e+02	-2.729948e+01
2.872295e+02	-2.734624e+01
2.888886e+02	-2.739676e+01
2.905572e+02	-2.744897e+01
2.922354e+02	-2.749397e+01
2.939234e+02	-2.754635e+01
2.956211e+02	-2.759246e+01
2.973286e+02	-2.764871e+01
2.990459e+02	-2.769782e+01
3.007732e+02	-2.774700e+01
3.025104e+02	-2.779951e+01
3.042577e+02	-2.784794e+01
3.060151e+02	-2.789665e+01
3.077826e+02	-2.794710e+01
3.095604e+02	-2.799695e+01
3.113484e+02	-2.804587e+01
3.131467e+02	-2.809534e+01
3.149554e+02	-2.814966e+01
3.167746e+02	-2.819701e+01
3.186043e+02	-2.824382e+01
3.204445e+02	-2.829486e+01
3.222954e+02	-2.834781e+01
3.241570e+02	-2.839689e+01
3.260293e+02	-2.845250e+01
3.279124e+02	-2.849642e+01
3.298064e+02	-2.855128e+01
3.317114e+02	-2.859814e+01
3.336273e+02	-2.865092e+01
3.355544e+02	-2.869699e+01
3.374925e+02	-2.874251e+01
3.394418e+02	-2.880308e+01
3.414024e+02	-2.884809e+01
3.433744e+02	-2.889655e+01
3.453577e+02	-2.894681e+01
3.473525e+02	-2.899997e+01
3.493588e+02	-2.904705e+01
3.513766e+02	-2.909647e+01
3.534062e+02	-2.914939e+01
3.554474e+02	-2.920210e+01
3.575005e+02	-2.924920e+01
3.595654e+02	-2.930220e+01
3.616422e+02	-2.934572e+01
3.637311e+02	-2.939730e+01
3.658320e+02	-2.945426e+01
3.679450e+02	-2.949862e+01
3.700702e+02	-2.954539e+01
3.722077e+02	-2.959984e+01
3.743576e+02	-2.964961e+01
3.765199e+02	-2.969262e+01
3.786946e+02	-2.975011e+01
3.808820e+02	-2.980076e+01
3.830819e+02	-2.985052e+01
3.852946e+02	-2.989959e+01
3.875200e+02	-2.995199e+01
3.897583e+02	-3.000041e+01
3.920096e+02	-3.004968e+01
3.942738e+02	-3.010039e+01
3.965511e+02	-3.014923e+01
3.988416e+02	-3.020042e+01
4.011452e+02	-3.024474e+01
4.034622e+02	-3.029639e+01
4.057926e+02	-3.034928e+01
4.081365e+02	-3.039954e+01
4.104938e+02	-3.045111e+01
4.128648e+02	-3.050456e+01
4.152495e+02	-3.054871e+01
4.176480e+02	-3.060266e+01
4.200603e+02	-3.064342e+01
4.224866e+02	-3.070336e+01
4.249268e+02	-3.075042e+01
4.273812e+02	-3.080217e+01
4.298497e+02	-3.085025e+01
4.323325e+02	-3.090673e+01
4.348297e+02	-3.095153e+01
4.373412e+02	-3.099762e+01
4.398673e+02	-3.105373e+01
4.424079e+02	-3.110270e+01
4.449633e+02	-3.115152e+01
4.475334e+02	-3.120090e+01
4.501183e+02	-3.125019e+01
4.527182e+02	-3.130332e+01
4.553330e+02	-3.135320e+01
4.579630e+02	-3.140159e+01
4.606082e+02	-3.146195e+01
4.632687e+02	-3.150557e+01
4.659445e+02	-3.155356e+01
4.686358e+02	-3.160283e+01
4.713426e+02	-3.165461e+01
4.740650e+02	-3.170314e+01
4.768032e+02	-3.175444e+01
4.795572e+02	-3.180999e+01
4.823271e+02	-3.185520e+01
4.851130e+02	-3.190817e+01
4.879150e+02	-3.195318e+01
4.907332e+02	-3.200267e+01
4.935676e+02	-3.205664e+01
4.964185e+02	-3.210766e+01
4.992858e+02	-3.215978e+01
5.021696e+02	-3.220908e+01
5.050701e+02	-3.225622e+01
5.079874e+02	-3.230592e+01
5.109215e+02	-3.235677e+01
5.138726e+02	-3.240018e+01
5.168407e+02	-3.246619e+01
5.198259e+02	-3.250401e+01
5.228284e+02	-3.255481e+01
5.258482e+02	-3.261205e+01
5.288855e+02	-3.267178e+01
5.319403e+02	-3.270701e+01
5.350128e+02	-3.276055e+01
5.381030e+02	-3.280871e+01
5.412111e+02	-3.285375e+01
5.443371e+02	-3.290958e+01
5.474812e+02	-3.295551e+01
5.506434e+02	-3.301324e+01
5.538239e+02	-3.305987e+01
5.570228e+02	-3.310701e+01
5.602401e+02	-3.315302e+01
5.634760e+02	-3.320799e+01
5.667306e+02	-3.326345e+01
5.700040e+02	-3.331000e+01
5.732964e+02	-3.335823e+01
5.766077e+02	-3.341213e+01
5.799382e+02	-3.345753e+01
5.832879e+02	-3.351103e+01
5.866569e+02	-3.356363e+01
5.900454e+02	-3.361438e+01
5.934535e+02	-3.366444e+01
5.968813e+02	-3.371222e+01
6.003288e+02	-3.376202e+01
6.037963e+02	-3.381066e+01
6.072838e+02	-3.385518e+01
6.107914e+02	-3.391872e+01
6.143194e+02	-3.396670e+01
6.178676e+02	-3.401637e+01
6.214364e+02	-3.405431e+01
6.250258e+02	-3.411698e+01
6.286359e+02	-3.416967e+01
6.322669e+02	-3.421946e+01
6.359189e+02	-3.426881e+01
6.395919e+02	-3.431651e+01
6.432862e+02	-3.436860e+01
6.470017e+02	-3.442566e+01
6.507388e+02	-3.446431e+01
6.544974e+02	-3.451380e+01
6.582778e+02	-3.455994e+01
6.620800e+02	-3.461684e+01
6.659041e+02	-3.466471e+01
6.697504e+02	-3.472890e+01
6.736188e+02	-3.477130e+01
6.775096e+02	-3.482098e+01
6.814229e+02	-3.487351e+01
6.853587e+02	-3.492352e+01
6.893173e+02	-3.497357e+01
6.932988e+02	-3.502633e+01
6.973033e+02	-3.507611e+01
7.013309e+02	-3.511938e+01
