Frequency(Hz)	Magnitude(dB)
1.000000e+01	-2.150162e+00
1.005776e+01	-2.169626e+00
1.011585e+01	-2.189425e+00
1.017428e+01	-2.209334e+00
1.023305e+01	-2.229266e+00
1.029215e+01	-2.249549e+00
1.035160e+01	-2.269642e+00
1.041139e+01	-2.290224e+00
1.047153e+01	-2.310697e+00
1.053201e+01	-2.331556e+00
1.059284e+01	-2.352352e+00
1.065403e+01	-2.373360e+00
1.071556e+01	-2.394601e+00
1.077746e+01	-2.415890e+00
1.083971e+01	-2.437116e+00
1.090232e+01	-2.458514e+00
1.096529e+01	-2.480379e+00
1.102862e+01	-2.502143e+00
1.109232e+01	-2.524159e+00
1.115639e+01	-2.546368e+00
1.122083e+01	-2.568714e+00
1.128564e+01	-2.590902e+00
1.135083e+01	-2.613711e+00
1.141639e+01	-2.636292e+00
1.148233e+01	-2.659060e+00
1.154865e+01	-2.682105e+00
1.161536e+01	-2.705251e+00
1.168245e+01	-2.728461e+00
1.174992e+01	-2.751782e+00
1.181779e+01	-2.775526e+00
1.188605e+01	-2.799210e+00
1.195470e+01	-2.822905e+00
1.202375e+01	-2.846957e+00
1.209320e+01	-2.871036e+00
1.216305e+01	-2.895436e+00
1.223330e+01	-2.919686e+00
1.230396e+01	-2.944441e+00
1.237503e+01	-2.969009e+00
1.244651e+01	-2.993754e+00
1.251840e+01	-3.018906e+00
1.259070e+01	-3.044134e+00
1.266343e+01	-3.069478e+00
1.273657e+01	-3.094577e+00
1.281014e+01	-3.120216e+00
1.288413e+01	-3.145816e+00
1.295855e+01	-3.172029e+00
1.303339e+01	-3.197940e+00
1.310867e+01	-3.223733e+00
1.318439e+01	-3.250347e+00
1.326054e+01	-3.276502e+00
1.333713e+01	-3.303244e+00
1.341417e+01	-3.329993e+00
1.349165e+01	-3.356788e+00
1.356958e+01	-3.383815e+00
1.364795e+01	-3.410919e+00
1.372678e+01	-3.438149e+00
1.380607e+01	-3.465558e+00
1.388581e+01	-3.493182e+00
1.396602e+01	-3.521088e+00
1.404668e+01	-3.548814e+00
1.412782e+01	-3.576726e+00
1.420942e+01	-3.604971e+00
1.429149e+01	-3.633360e+00
1.437404e+01	-3.661551e+00
1.445706e+01	-3.690381e+00
1.454057e+01	-3.718952e+00
1.462455e+01	-3.747858e+00
1.470902e+01	-3.776771e+00
1.479398e+01	-3.805969e+00
1.487943e+01	-3.835145e+00
1.496537e+01	-3.864480e+00
1.505181e+01	-3.894250e+00
1.513875e+01	-3.923890e+00
1.522619e+01	-3.953693e+00
1.531414e+01	-3.983501e+00
1.540259e+01	-4.013850e+00
1.549156e+01	-4.043859e+00
1.558103e+01	-4.074354e+00
1.567103e+01	-4.104747e+00
1.576155e+01	-4.135521e+00
1.585258e+01	-4.166198e+00
1.594415e+01	-4.197461e+00
1.603624e+01	-4.227999e+00
1.612886e+01	-4.259565e+00
1.622202e+01	-4.290815e+00
1.631572e+01	-4.322374e+00
1.640996e+01	-4.353998e+00
1.650474e+01	-4.385730e+00
1.660008e+01	-4.417535e+00
1.669596e+01	-4.449282e+00
1.679239e+01	-4.481479e+00
1.688938e+01	-4.514180e+00
1.698694e+01	-4.546293e+00
1.708505e+01	-4.578839e+00
1.718373e+01	-4.611246e+00
1.728299e+01	-4.644402e+00
1.738281e+01	-4.677061e+00
1.748322e+01	-4.710327e+00
1.758420e+01	-4.743496e+00
1.768576e+01	-4.776618e+00
1.778792e+01	-4.809904e+00
1.789066e+01	-4.843489e+00
1.799399e+01	-4.877574e+00
1.809793e+01	-4.911086e+00
1.820246e+01	-4.945006e+00
1.830760e+01	-4.979432e+00
1.841334e+01	-5.013236e+00
1.851969e+01	-5.047840e+00
1.862666e+01	-5.082334e+00
1.873425e+01	-5.117153e+00
1.884246e+01	-5.151421e+00
1.895129e+01	-5.186516e+00
1.906075e+01	-5.221200e+00
1.917085e+01	-5.256347e+00
1.928158e+01	-5.291373e+00
1.939295e+01	-5.326512e+00
1.950496e+01	-5.362120e+00
1.961762e+01	-5.397628e+00
1.973093e+01	-5.433466e+00
1.984490e+01	-5.469211e+00
1.995952e+01	-5.504918e+00
2.007480e+01	-5.540781e+00
2.019076e+01	-5.577465e+00
2.030738e+01	-5.613448e+00
2.042467e+01	-5.649950e+00
2.054264e+01	-5.686121e+00
2.066130e+01	-5.722672e+00
2.078064e+01	-5.759659e+00
2.090066e+01	-5.796091e+00
2.102139e+01	-5.832972e+00
2.114280e+01	-5.870052e+00
2.126492e+01	-5.907148e+00
2.138775e+01	-5.944558e+00
2.151128e+01	-5.981876e+00
2.163553e+01	-6.019518e+00
2.176050e+01	-6.056817e+00
2.188619e+01	-6.094763e+00
2.201260e+01	-6.131860e+00
2.213974e+01	-6.170441e+00
2.226762e+01	-6.208247e+00
2.239624e+01	-6.246257e+00
2.252560e+01	-6.284578e+00
2.265571e+01	-6.322909e+00
2.278656e+01	-6.361478e+00
2.291818e+01	-6.399832e+00
2.305055e+01	-6.438234e+00
2.318369e+01	-6.477195e+00
2.331760e+01	-6.515947e+00
2.345228e+01	-6.554929e+00
2.358774e+01	-6.593701e+00
2.372398e+01	-6.632872e+00
2.386101e+01	-6.672246e+00
2.399883e+01	-6.711091e+00
2.413745e+01	-6.750744e+00
2.427686e+01	-6.790196e+00
2.441709e+01	-6.829782e+00
2.455812e+01	-6.869733e+00
2.469997e+01	-6.909578e+00
2.484263e+01	-6.949173e+00
2.498612e+01	-6.989296e+00
2.513044e+01	-7.029516e+00
2.527559e+01	-7.069202e+00
2.542158e+01	-7.109753e+00
2.556842e+01	-7.149896e+00
2.571610e+01	-7.190573e+00
2.586463e+01	-7.230818e+00
2.601403e+01	-7.271769e+00
2.616428e+01	-7.312324e+00
2.631541e+01	-7.353207e+00
2.646740e+01	-7.394158e+00
2.662028e+01	-7.435072e+00
2.677404e+01	-7.475843e+00
2.692868e+01	-7.517231e+00
2.708422e+01	-7.558127e+00
2.724066e+01	-7.599932e+00
2.739800e+01	-7.640985e+00
2.755625e+01	-7.682353e+00
2.771541e+01	-7.723880e+00
2.787550e+01	-7.765732e+00
2.803650e+01	-7.807547e+00
2.819844e+01	-7.849228e+00
2.836131e+01	-7.890430e+00
2.852513e+01	-7.932943e+00
2.868989e+01	-7.974952e+00
2.885560e+01	-8.017137e+00
2.902227e+01	-8.059125e+00
2.918990e+01	-8.101295e+00
2.935850e+01	-8.143790e+00
2.952807e+01	-8.186067e+00
2.969863e+01	-8.228745e+00
2.987016e+01	-8.271157e+00
3.004269e+01	-8.313589e+00
3.021622e+01	-8.356611e+00
3.039075e+01	-8.399129e+00
3.056628e+01	-8.441990e+00
3.074283e+01	-8.484959e+00
3.092040e+01	-8.528018e+00
3.109900e+01	-8.571183e+00
3.127862e+01	-8.613870e+00
3.145929e+01	-8.657131e+00
3.164099e+01	-8.700702e+00
3.182375e+01	-8.743594e+00
3.200756e+01	-8.787039e+00
3.219244e+01	-8.830609e+00
3.237838e+01	-8.874056e+00
3.256540e+01	-8.917875e+00
3.275349e+01	-8.961277e+00
3.294268e+01	-9.005056e+00
3.313295e+01	-9.048926e+00
3.332433e+01	-9.092493e+00
3.351681e+01	-9.136412e+00
3.371040e+01	-9.180226e+00
3.390511e+01	-9.224067e+00
3.410094e+01	-9.268549e+00
3.429791e+01	-9.312597e+00
3.449601e+01	-9.356971e+00
3.469526e+01	-9.401483e+00
3.489566e+01	-9.445368e+00
3.509721e+01	-9.490058e+00
3.529993e+01	-9.534596e+00
3.550382e+01	-9.578885e+00
3.570889e+01	-9.623424e+00
3.591515e+01	-9.667905e+00
3.612259e+01	-9.712797e+00
3.633123e+01	-9.756774e+00
3.654108e+01	-9.801748e+00
3.675214e+01	-9.846398e+00
3.696442e+01	-9.891776e+00
3.717792e+01	-9.936301e+00
3.739266e+01	-9.981349e+00
3.760864e+01	-1.002672e+01
3.782587e+01	-1.007154e+01
3.804435e+01	-1.011709e+01
3.826409e+01	-1.016196e+01
3.848510e+01	-1.020726e+01
3.870739e+01	-1.025241e+01
3.893096e+01	-1.029789e+01
3.915583e+01	-1.034293e+01
3.938199e+01	-1.038839e+01
3.960946e+01	-1.043408e+01
3.983824e+01	-1.047957e+01
4.006834e+01	-1.052531e+01
4.029978e+01	-1.057137e+01
4.053255e+01	-1.061645e+01
4.076666e+01	-1.066209e+01
4.100213e+01	-1.070854e+01
4.123896e+01	-1.075418e+01
4.147715e+01	-1.079971e+01
4.171672e+01	-1.084570e+01
4.195767e+01	-1.089133e+01
4.220002e+01	-1.093704e+01
4.244377e+01	-1.098308e+01
4.268892e+01	-1.102927e+01
4.293549e+01	-1.107544e+01
4.318348e+01	-1.112177e+01
4.343291e+01	-1.116824e+01
4.368377e+01	-1.121408e+01
4.393609e+01	-1.126030e+01
4.418986e+01	-1.130657e+01
4.444510e+01	-1.135348e+01
4.470182e+01	-1.139878e+01
4.496001e+01	-1.144570e+01
4.521970e+01	-1.149203e+01
4.548089e+01	-1.153914e+01
4.574358e+01	-1.158540e+01
4.600779e+01	-1.163165e+01
4.627353e+01	-1.167861e+01
4.654081e+01	-1.172544e+01
4.680963e+01	-1.177188e+01
4.708000e+01	-1.181867e+01
4.735193e+01	-1.186533e+01
4.762543e+01	-1.191261e+01
4.790051e+01	-1.195972e+01
4.817719e+01	-1.200606e+01
4.845545e+01	-1.205325e+01
4.873533e+01	-1.209945e+01
4.901682e+01	-1.214693e+01
4.929994e+01	-1.219352e+01
4.958470e+01	-1.224033e+01
4.987110e+01	-1.228804e+01
5.015915e+01	-1.233491e+01
5.044887e+01	-1.238193e+01
5.074026e+01	-1.242844e+01
5.103333e+01	-1.247637e+01
5.132810e+01	-1.252323e+01
5.162457e+01	-1.257040e+01
5.192275e+01	-1.261742e+01
5.222265e+01	-1.266512e+01
5.252429e+01	-1.271174e+01
5.282767e+01	-1.275986e+01
5.313280e+01	-1.280685e+01
5.343969e+01	-1.285440e+01
5.374836e+01	-1.290254e+01
5.405880e+01	-1.294974e+01
5.437105e+01	-1.299768e+01
5.468509e+01	-1.304485e+01
5.500095e+01	-1.309236e+01
5.531863e+01	-1.313957e+01
5.563815e+01	-1.318726e+01
5.595951e+01	-1.323538e+01
5.628273e+01	-1.328271e+01
5.660782e+01	-1.332997e+01
5.693479e+01	-1.337865e+01
5.726364e+01	-1.342531e+01
5.759439e+01	-1.347444e+01
5.792705e+01	-1.352136e+01
5.826164e+01	-1.356895e+01
5.859815e+01	-1.361699e+01
5.893662e+01	-1.366525e+01
5.927703e+01	-1.371271e+01
5.961941e+01	-1.376087e+01
5.996377e+01	-1.380782e+01
6.031012e+01	-1.385672e+01
6.065847e+01	-1.390460e+01
6.100883e+01	-1.395240e+01
6.136121e+01	-1.400163e+01
6.171563e+01	-1.404818e+01
6.207210e+01	-1.409656e+01
6.243063e+01	-1.414508e+01
6.279122e+01	-1.419317e+01
6.315390e+01	-1.424123e+01
6.351868e+01	-1.428936e+01
6.388556e+01	-1.433677e+01
6.425456e+01	-1.438591e+01
6.462569e+01	-1.443392e+01
6.499897e+01	-1.448174e+01
6.537440e+01	-1.453040e+01
6.575200e+01	-1.457778e+01
6.613178e+01	-1.462637e+01
6.651375e+01	-1.467527e+01
6.689793e+01	-1.472328e+01
6.728433e+01	-1.477201e+01
6.767297e+01	-1.482004e+01
6.806384e+01	-1.486874e+01
6.845698e+01	-1.491696e+01
6.885238e+01	-1.496554e+01
6.925007e+01	-1.501401e+01
6.965005e+01	-1.506302e+01
7.005235e+01	-1.511114e+01
7.045697e+01	-1.515988e+01
7.086393e+01	-1.520795e+01
7.127323e+01	-1.525654e+01
7.168490e+01	-1.530540e+01
7.209895e+01	-1.535338e+01
7.251539e+01	-1.540255e+01
7.293424e+01	-1.545153e+01
7.335551e+01	-1.549986e+01
7.377920e+01	-1.554840e+01
7.420535e+01	-1.559536e+01
7.463396e+01	-1.564636e+01
7.506504e+01	-1.569393e+01
7.549861e+01	-1.574317e+01
7.593469e+01	-1.579224e+01
7.637328e+01	-1.583975e+01
7.681441e+01	-1.588907e+01
7.725809e+01	-1.593712e+01
7.770433e+01	-1.598648e+01
7.815315e+01	-1.603517e+01
7.860456e+01	-1.608377e+01
7.905857e+01	-1.613292e+01
7.951521e+01	-1.618112e+01
7.997449e+01	-1.623041e+01
8.043642e+01	-1.627927e+01
8.090102e+01	-1.632787e+01
8.136830e+01	-1.637701e+01
8.183828e+01	-1.642581e+01
8.231097e+01	-1.647515e+01
8.278640e+01	-1.652339e+01
8.326457e+01	-1.657267e+01
8.374550e+01	-1.662075e+01
8.422921e+01	-1.667019e+01
8.471572e+01	-1.672034e+01
8.520503e+01	-1.676954e+01
8.569717e+01	-1.681635e+01
8.619215e+01	-1.686579e+01
8.669000e+01	-1.691519e+01
8.719071e+01	-1.696459e+01
8.769432e+01	-1.701369e+01
8.820084e+01	-1.706216e+01
8.871029e+01	-1.711137e+01
8.922267e+01	-1.715946e+01
8.973802e+01	-1.721021e+01
9.025634e+01	-1.725713e+01
9.077766e+01	-1.730772e+01
9.130199e+01	-1.735651e+01
9.182935e+01	-1.740687e+01
9.235975e+01	-1.745495e+01
9.289321e+01	-1.750458e+01
9.342976e+01	-1.755490e+01
9.396941e+01	-1.760129e+01
9.451217e+01	-1.765137e+01
9.505807e+01	-1.770179e+01
9.560712e+01	-1.775024e+01
9.615934e+01	-1.779939e+01
9.671476e+01	-1.784817e+01
9.727338e+01	-1.789800e+01
9.783522e+01	-1.794607e+01
9.840032e+01	-1.799683e+01
9.896867e+01	-1.804500e+01
9.954031e+01	-1.809466e+01
1.001153e+02	-1.814366e+01
1.006935e+02	-1.819379e+01
1.012751e+02	-1.824179e+01
1.018601e+02	-1.829207e+01
1.024484e+02	-1.834074e+01
1.030402e+02	-1.839033e+01
1.036353e+02	-1.844006e+01
1.042339e+02	-1.848961e+01
1.048360e+02	-1.853889e+01
1.054415e+02	-1.858725e+01
1.060505e+02	-1.863721e+01
1.066631e+02	-1.868647e+01
1.072791e+02	-1.873550e+01
1.078988e+02	-1.878453e+01
1.085220e+02	-1.883448e+01
1.091488e+02	-1.888361e+01
1.097793e+02	-1.893322e+01
1.104133e+02	-1.898262e+01
1.110511e+02	-1.903189e+01
1.116925e+02	-1.908134e+01
1.123376e+02	-1.913070e+01
1.129865e+02	-1.917996e+01
1.136391e+02	-1.922860e+01
1.142955e+02	-1.928052e+01
1.149556e+02	-1.932803e+01
1.156196e+02	-1.937780e+01
1.162874e+02	-1.942661e+01
1.169591e+02	-1.947755e+01
1.176347e+02	-1.952714e+01
1.183141e+02	-1.957506e+01
1.189975e+02	-1.962404e+01
1.196848e+02	-1.967511e+01
1.203761e+02	-1.972395e+01
1.210714e+02	-1.977452e+01
1.217707e+02	-1.982340e+01
1.224740e+02	-1.987381e+01
1.231814e+02	-1.992380e+01
1.238929e+02	-1.997079e+01
1.246085e+02	-2.002123e+01
1.253283e+02	-2.007244e+01
1.260522e+02	-2.012136e+01
1.267802e+02	-2.016912e+01
1.275125e+02	-2.022064e+01
1.282490e+02	-2.026774e+01
1.289898e+02	-2.031786e+01
1.297348e+02	-2.036714e+01
1.304842e+02	-2.041841e+01
1.312378e+02	-2.046679e+01
1.319959e+02	-2.051803e+01
1.327583e+02	-2.056788e+01
1.335251e+02	-2.061595e+01
1.342963e+02	-2.066536e+01
1.350720e+02	-2.071553e+01
1.358522e+02	-2.076670e+01
1.366368e+02	-2.081587e+01
1.374260e+02	-2.086596e+01
1.382198e+02	-2.091410e+01
1.390182e+02	-2.096232e+01
1.398211e+02	-2.101424e+01
1.406287e+02	-2.106394e+01
1.414410e+02	-2.111257e+01
1.422579e+02	-2.116333e+01
1.430796e+02	-2.121081e+01
1.439060e+02	-2.126278e+01
1.447372e+02	-2.131312e+01
1.455732e+02	-2.136008e+01
1.464141e+02	-2.141076e+01
1.472597e+02	-2.146064e+01
1.481103e+02	-2.150989e+01
1.489658e+02	-2.155946e+01
1.498262e+02	-2.160934e+01
1.506916e+02	-2.165968e+01
1.515620e+02	-2.170889e+01
1.524374e+02	-2.175734e+01
1.533179e+02	-2.180960e+01
1.542034e+02	-2.185716e+01
1.550941e+02	-2.190620e+01
1.559899e+02	-2.195769e+01
1.568909e+02	-2.200681e+01
1.577971e+02	-2.205825e+01
1.587085e+02	-2.210699e+01
1.596252e+02	-2.215783e+01
1.605472e+02	-2.220546e+01
1.614745e+02	-2.225720e+01
1.624072e+02	-2.230755e+01
1.633453e+02	-2.235760e+01
1.642887e+02	-2.240478e+01
1.652377e+02	-2.245371e+01
1.661921e+02	-2.250453e+01
1.671520e+02	-2.255562e+01
1.681175e+02	-2.260372e+01
1.690885e+02	-2.265520e+01
1.700651e+02	-2.270345e+01
1.710474e+02	-2.275396e+01
1.720354e+02	-2.280231e+01
1.730291e+02	-2.285331e+01
1.740285e+02	-2.290318e+01
1.750337e+02	-2.295317e+01
1.760446e+02	-2.300193e+01
1.770615e+02	-2.305232e+01
1.780842e+02	-2.310220e+01
1.791128e+02	-2.315079e+01
1.801473e+02	-2.320208e+01
1.811878e+02	-2.325030e+01
1.822344e+02	-2.330164e+01
1.832870e+02	-2.335054e+01
1.843456e+02	-2.340081e+01
1.854104e+02	-2.345268e+01
1.864813e+02	-2.350240e+01
1.875584e+02	-2.354941e+01
1.886418e+02	-2.360063e+01
1.897313e+02	-2.365056e+01
1.908272e+02	-2.370016e+01
1.919294e+02	-2.375061e+01
1.930380e+02	-2.380043e+01
1.941530e+02	-2.385228e+01
1.952744e+02	-2.389798e+01
1.964023e+02	-2.394932e+01
1.975367e+02	-2.399995e+01
1.986777e+02	-2.404913e+01
1.998252e+02	-2.409658e+01
2.009794e+02	-2.415048e+01
2.021403e+02	-2.419687e+01
2.033078e+02	-2.424706e+01
2.044821e+02	-2.429768e+01
2.056632e+02	-2.435084e+01
2.068511e+02	-2.439746e+01
2.080459e+02	-2.444604e+01
2.092475e+02	-2.449755e+01
2.104561e+02	-2.454917e+01
2.116717e+02	-2.459592e+01
2.128943e+02	-2.465065e+01
2.141240e+02	-2.469681e+01
2.153608e+02	-2.474794e+01
2.166047e+02	-2.479852e+01
2.178558e+02	-2.484606e+01
2.191141e+02	-2.489883e+01
2.203797e+02	-2.494726e+01
2.216526e+02	-2.499748e+01
2.229329e+02	-2.504618e+01
2.242205e+02	-2.509521e+01
2.255156e+02	-2.514984e+01
2.268182e+02	-2.519934e+01
2.281283e+02	-2.524601e+01
2.294459e+02	-2.529918e+01
2.307712e+02	-2.534465e+01
2.321041e+02	-2.539717e+01
2.334447e+02	-2.544297e+01
2.347931e+02	-2.549712e+01
2.361493e+02	-2.554609e+01
2.375133e+02	-2.559351e+01
2.388851e+02	-2.564033e+01
2.402649e+02	-2.569320e+01
2.416527e+02	-2.574522e+01
2.430484e+02	-2.579561e+01
2.444523e+02	-2.584658e+01
2.458642e+02	-2.589561e+01
2.472843e+02	-2.594772e+01
2.487126e+02	-2.599470e+01
2.501492e+02	-2.604354e+01
2.515940e+02	-2.609667e+01
2.530472e+02	-2.614528e+01
2.545088e+02	-2.619428e+01
2.559789e+02	-2.624324e+01
2.574574e+02	-2.629167e+01
2.589444e+02	-2.634496e+01
2.604401e+02	-2.639512e+01
2.619444e+02	-2.644367e+01
2.634574e+02	-2.649660e+01
2.649791e+02	-2.654372e+01
2.665096e+02	-2.659639e+01
2.680489e+02	-2.664420e+01
2.695972e+02	-2.670097e+01
2.711544e+02	-2.674516e+01
2.727205e+02	-2.679608e+01
2.742958e+02	-2.684067e+01
2.758801e+02	-2.689677e+01
2.774736e+02	-2.694308e+01
2.790762e+02	-2.699136e+01
2.806882e+02	-2.704657e+01
2.823094e+02	-2.709262e+01
2.839400e+02	-2.714123e+01
2.855800e+02	-2.719323e+01
2.872295e+02	-2.724678e+01
2.888886e+02	-2.729326e+01
2.905572e+02	-2.734419e+01
2.922354e+02	-2.739623e+01
2.939234e+02	-2.745093e+01
2.956211e+02	-2.749358e+01
2.973286e+02	-2.754643e+01
2.990459e+02	-2.759227e+01
3.007732e+02	-2.764558e+01
3.025104e+02	-2.769667e+01
3.042577e+02	-2.774128e+01
3.060151e+02	-2.779823e+01
3.077826e+02	-2.784512e+01
3.095604e+02	-2.789581e+01
3.113484e+02	-2.794642e+01
3.131467e+02	-2.799708e+01
3.149554e+02	-2.804462e+01
3.167746e+02	-2.809417e+01
3.186043e+02	-2.814863e+01
3.204445e+02	-2.819436e+01
3.222954e+02	-2.824531e+01
3.241570e+02	-2.829399e+01
3.260293e+02	-2.834490e+01
3.279124e+02	-2.839507e+01
3.298064e+02	-2.844452e+01
3.317114e+02	-2.849350e+01
3.336273e+02	-2.854421e+01
3.355544e+02	-2.859675e+01
3.374925e+02	-2.863802e+01
3.394418e+02	-2.869567e+01
3.414024e+02	-2.874364e+01
3.433744e+02	-2.879894e+01
3.453577e+02	-2.884909e+01
3.473525e+02	-2.889593e+01
3.493588e+02	-2.894719e+01
3.513766e+02	-2.899670e+01
3.534062e+02	-2.904748e+01
3.554474e+02	-2.909402e+01
3.575005e+02	-2.914632e+01
3.595654e+02	-2.919804e+01
3.616422e+02	-2.924439e+01
3.637311e+02	-2.929764e+01
3.658320e+02	-2.934695e+01
3.679450e+02	-2.939673e+01
3.700702e+02	-2.944664e+01
3.722077e+02	-2.949659e+01
3.743576e+02	-2.954879e+01
3.765199e+02	-2.959640e+01
3.786946e+02	-2.965043e+01
3.808820e+02	-2.969593e+01
3.830819e+02	-2.974514e+01
3.852946e+02	-2.979775e+01
3.875200e+02	-2.984518e+01
3.897583e+02	-2.989732e+01
3.920096e+02	-2.994465e+01
3.942738e+02	-3.000058e+01
3.965511e+02	-3.004933e+01
3.988416e+02	-3.009557e+01
4.011452e+02	-3.014849e+01
4.034622e+02	-3.019543e+01
4.057926e+02	-3.024351e+01
4.081365e+02	-3.030097e+01
4.104938e+02	-3.034745e+01
4.128648e+02	-3.039799e+01
4.152495e+02	-3.044560e+01
4.176480e+02	-3.049205e+01
4.200603e+02	-3.055504e+01
4.224866e+02	-3.060306e+01
4.249268e+02	-3.064857e+01
4.273812e+02	-3.070333e+01
4.298497e+02	-3.074523e+01
4.323325e+02	-3.080140e+01
4.348297e+02	-3.085132e+01
4.373412e+02	-3.089978e+01
4.398673e+02	-3.094735e+01
4.424079e+02	-3.100202e+01
4.449633e+02	-3.105085e+01
4.475334e+02	-3.109619e+01
4.501183e+02	-3.114898e+01
4.527182e+02	-3.120237e+01
4.553330e+02	-3.125110e+01
4.579630e+02	-3.129993e+01
4.606082e+02	-3.135555e+01
4.632687e+02	-3.139800e+01
4.659445e+02	-3.145206e+01
4.686358e+02	-3.150400e+01
4.713426e+02	-3.155280e+01
4.740650e+02	-3.160785e+01
4.768032e+02	-3.165221e+01
4.795572e+02	-3.170432e+01
4.823271e+02	-3.175793e+01
4.851130e+02	-3.180247e+01
4.879150e+02	-3.185097e+01
4.907332e+02	-3.190148e+01
4.935676e+02	-3.194897e+01
4.964185e+02	-3.200022e+01
4.992858e+02	-3.205779e+01
5.021696e+02	-3.210026e+01
5.050701e+02	-3.215398e+01
5.079874e+02	-3.220429e+01
5.109215e+02	-3.225493e+01
5.138726e+02	-3.230744e+01
5.168407e+02	-3.235046e+01
5.198259e+02	-3.240639e+01
5.228284e+02	-3.245153e+01
5.258482e+02	-3.250096e+01
5.288855e+02	-3.255024e+01
5.319403e+02	-3.260096e+01
5.350128e+02	-3.265999e+01
5.381030e+02	-3.270722e+01
5.412111e+02	-3.276176e+01
5.443371e+02	-3.280437e+01
5.474812e+02	-3.285849e+01
5.506434e+02	-3.290491e+01
5.538239e+02	-3.296141e+01
5.570228e+02	-3.300473e+01
5.602401e+02	-3.305312e+01
5.634760e+02	-3.310415e+01
5.667306e+02	-3.316264e+01
5.700040e+02	-3.321071e+01
5.732964e+02	-3.326146e+01
5.766077e+02	-3.330535e+01
5.799382e+02	-3.335829e+01
5.832879e+02	-3.340749e+01
5.866569e+02	-3.346119e+01
5.900454e+02	-3.350231e+01
5.934535e+02	-3.356514e+01
5.968813e+02	-3.361567e+01
6.003288e+02	-3.366636e+01
6.037963e+02	-3.371862e+01
6.072838e+02	-3.376248e+01
6.107914e+02	-3.380330e+01
6.143194e+02	-3.386750e+01
6.178676e+02	-3.390831e+01
6.214364e+02	-3.395886e+01
6.250258e+02	-3.401157e+01
6.286359e+02	-3.407462e+01
6.322669e+02	-3.411652e+01
6.359189e+02	-3.416241e+01
6.395919e+02	-3.421793e+01
6.432862e+02	-3.426423e+01
6.470017e+02	-3.431350e+01
6.507388e+02	-3.436233e+01
6.544974e+02	-3.441431e+01
6.582778e+02	-3.446399e+01
6.620800e+02	-3.452650e+01
6.659041e+02	-3.456251e+01
6.697504e+02	-3.462649e+01
6.736188e+02	-3.467145e+01
6.775096e+02	-3.471822e+01
6.814229e+02	-3.476727e+01
6.853587e+02	-3.482599e+01
6.893173e+02	-3.487277e+01
6.932988e+02	-3.491581e+01
6.973033e+02	-3.497157e+01
7.013309e+02	-3.502816e+01
