Frequency(Hz)	Magnitude(dB)
1.000000e+01	-1.783303e-05
1.005776e+01	-1.803963e-05
1.011585e+01	-1.824862e-05
1.017428e+01	-1.846003e-05
1.023305e+01	-1.867390e-05
1.029215e+01	-1.889024e-05
1.035160e+01	-1.910909e-05
1.041139e+01	-1.933047e-05
1.047153e+01	-1.955442e-05
1.053201e+01	-1.978096e-05
1.059284e+01	-2.001013e-05
1.065403e+01	-2.024195e-05
1.071556e+01	-2.047646e-05
1.077746e+01	-2.071369e-05
1.083971e+01	-2.095366e-05
1.090232e+01	-2.119641e-05
1.096529e+01	-2.144198e-05
1.102862e+01	-2.169039e-05
1.109232e+01	-2.194168e-05
1.115639e+01	-2.219588e-05
1.122083e+01	-2.245302e-05
1.128564e+01	-2.271315e-05
1.135083e+01	-2.297628e-05
1.141639e+01	-2.324247e-05
1.148233e+01	-2.351174e-05
1.154865e+01	-2.378413e-05
1.161536e+01	-2.405967e-05
1.168245e+01	-2.433841e-05
1.174992e+01	-2.462038e-05
1.181779e+01	-2.490561e-05
1.188605e+01	-2.519415e-05
1.195470e+01	-2.548603e-05
1.202375e+01	-2.578129e-05
1.209320e+01	-2.607997e-05
1.216305e+01	-2.638212e-05
1.223330e+01	-2.668776e-05
1.230396e+01	-2.699694e-05
1.237503e+01	-2.730971e-05
1.244651e+01	-2.762610e-05
1.251840e+01	-2.794616e-05
1.259070e+01	-2.826992e-05
1.266343e+01	-2.859743e-05
1.273657e+01	-2.892874e-05
1.281014e+01	-2.926389e-05
1.288413e+01	-2.960292e-05
1.295855e+01	-2.994587e-05
1.303339e+01	-3.029280e-05
1.310867e+01	-3.064375e-05
1.318439e+01	-3.099877e-05
1.326054e+01	-3.135790e-05
1.333713e+01	-3.172118e-05
1.341417e+01	-3.208868e-05
1.349165e+01	-3.246044e-05
1.356958e+01	-3.283650e-05
1.364795e+01	-3.321692e-05
1.372678e+01	-3.360174e-05
1.380607e+01	-3.399103e-05
1.388581e+01	-3.438482e-05
1.396602e+01	-3.478318e-05
1.404668e+01	-3.518615e-05
1.412782e+01	-3.559379e-05
1.420942e+01	-3.600615e-05
1.429149e+01	-3.642329e-05
1.437404e+01	-3.684526e-05
1.445706e+01	-3.727212e-05
1.454057e+01	-3.770393e-05
1.462455e+01	-3.814074e-05
1.470902e+01	-3.858261e-05
1.479398e+01	-3.902960e-05
1.487943e+01	-3.948176e-05
1.496537e+01	-3.993917e-05
1.505181e+01	-4.040187e-05
1.513875e+01	-4.086994e-05
1.522619e+01	-4.134342e-05
1.531414e+01	-4.182240e-05
1.540259e+01	-4.230692e-05
1.549156e+01	-4.279705e-05
1.558103e+01	-4.329287e-05
1.567103e+01	-4.379442e-05
1.576155e+01	-4.430179e-05
1.585258e+01	-4.481504e-05
1.594415e+01	-4.533423e-05
1.603624e+01	-4.585944e-05
1.612886e+01	-4.639073e-05
1.622202e+01	-4.692818e-05
1.631572e+01	-4.747185e-05
1.640996e+01	-4.802182e-05
1.650474e+01	-4.857816e-05
1.660008e+01	-4.914095e-05
1.669596e+01	-4.971026e-05
1.679239e+01	-5.028616e-05
1.688938e+01	-5.086874e-05
1.698694e+01	-5.145807e-05
1.708505e+01	-5.205422e-05
1.718373e+01	-5.265728e-05
1.728299e+01	-5.326732e-05
1.738281e+01	-5.388444e-05
1.748322e+01	-5.450870e-05
1.758420e+01	-5.514019e-05
1.768576e+01	-5.577900e-05
1.778792e+01	-5.642521e-05
1.789066e+01	-5.707891e-05
1.799399e+01	-5.774018e-05
1.809793e+01	-5.840911e-05
1.820246e+01	-5.908580e-05
1.830760e+01	-5.977032e-05
1.841334e+01	-6.046277e-05
1.851969e+01	-6.116324e-05
1.862666e+01	-6.187183e-05
1.873425e+01	-6.258863e-05
1.884246e+01	-6.331373e-05
1.895129e+01	-6.404723e-05
1.906075e+01	-6.478923e-05
1.917085e+01	-6.553982e-05
1.928158e+01	-6.629912e-05
1.939295e+01	-6.706720e-05
1.950496e+01	-6.784419e-05
1.961762e+01	-6.863018e-05
1.973093e+01	-6.942527e-05
1.984490e+01	-7.022958e-05
1.995952e+01	-7.104320e-05
2.007480e+01	-7.186625e-05
2.019076e+01	-7.269883e-05
2.030738e+01	-7.354106e-05
2.042467e+01	-7.439305e-05
2.054264e+01	-7.525490e-05
2.066130e+01	-7.612674e-05
2.078064e+01	-7.700869e-05
2.090066e+01	-7.790085e-05
2.102139e+01	-7.880334e-05
2.114280e+01	-7.971629e-05
2.126492e+01	-8.063982e-05
2.138775e+01	-8.157404e-05
2.151128e+01	-8.251909e-05
2.163553e+01	-8.347509e-05
2.176050e+01	-8.444216e-05
2.188619e+01	-8.542044e-05
2.201260e+01	-8.641005e-05
2.213974e+01	-8.741112e-05
2.226762e+01	-8.842380e-05
2.239624e+01	-8.944820e-05
2.252560e+01	-9.048447e-05
2.265571e+01	-9.153275e-05
2.278656e+01	-9.259317e-05
2.291818e+01	-9.366588e-05
2.305055e+01	-9.475101e-05
2.318369e+01	-9.584871e-05
2.331760e+01	-9.695914e-05
2.345228e+01	-9.808242e-05
2.358774e+01	-9.921872e-05
2.372398e+01	-1.003682e-04
2.386101e+01	-1.015310e-04
2.399883e+01	-1.027072e-04
2.413745e+01	-1.038971e-04
2.427686e+01	-1.051008e-04
2.441709e+01	-1.063184e-04
2.455812e+01	-1.075501e-04
2.469997e+01	-1.087961e-04
2.484263e+01	-1.100565e-04
2.498612e+01	-1.113315e-04
2.513044e+01	-1.126213e-04
2.527559e+01	-1.139260e-04
2.542158e+01	-1.152459e-04
2.556842e+01	-1.165810e-04
2.571610e+01	-1.179316e-04
2.586463e+01	-1.192979e-04
2.601403e+01	-1.206799e-04
2.616428e+01	-1.220780e-04
2.631541e+01	-1.234923e-04
2.646740e+01	-1.249230e-04
2.662028e+01	-1.263702e-04
2.677404e+01	-1.278342e-04
2.692868e+01	-1.293152e-04
2.708422e+01	-1.308133e-04
2.724066e+01	-1.323288e-04
2.739800e+01	-1.338619e-04
2.755625e+01	-1.354127e-04
2.771541e+01	-1.369815e-04
2.787550e+01	-1.385684e-04
2.803650e+01	-1.401737e-04
2.819844e+01	-1.417976e-04
2.836131e+01	-1.434404e-04
2.852513e+01	-1.451022e-04
2.868989e+01	-1.467832e-04
2.885560e+01	-1.484837e-04
2.902227e+01	-1.502039e-04
2.918990e+01	-1.519440e-04
2.935850e+01	-1.537043e-04
2.952807e+01	-1.554849e-04
2.969863e+01	-1.572862e-04
2.987016e+01	-1.591084e-04
3.004269e+01	-1.609517e-04
3.021622e+01	-1.628163e-04
3.039075e+01	-1.647026e-04
3.056628e+01	-1.666107e-04
3.074283e+01	-1.685409e-04
3.092040e+01	-1.704934e-04
3.109900e+01	-1.724686e-04
3.127862e+01	-1.744666e-04
3.145929e+01	-1.764878e-04
3.164099e+01	-1.785325e-04
3.182375e+01	-1.806008e-04
3.200756e+01	-1.826930e-04
3.219244e+01	-1.848095e-04
3.237838e+01	-1.869506e-04
3.256540e+01	-1.891164e-04
3.275349e+01	-1.913073e-04
3.294268e+01	-1.935236e-04
3.313295e+01	-1.957656e-04
3.332433e+01	-1.980335e-04
3.351681e+01	-2.003278e-04
3.371040e+01	-2.026486e-04
3.390511e+01	-2.049962e-04
3.410094e+01	-2.073711e-04
3.429791e+01	-2.097735e-04
3.449601e+01	-2.122037e-04
3.469526e+01	-2.146621e-04
3.489566e+01	-2.171490e-04
3.509721e+01	-2.196646e-04
3.529993e+01	-2.222095e-04
3.550382e+01	-2.247837e-04
3.570889e+01	-2.273879e-04
3.591515e+01	-2.300221e-04
3.612259e+01	-2.326869e-04
3.633123e+01	-2.353826e-04
3.654108e+01	-2.381095e-04
3.675214e+01	-2.408680e-04
3.696442e+01	-2.436584e-04
3.717792e+01	-2.464812e-04
3.739266e+01	-2.493367e-04
3.760864e+01	-2.522252e-04
3.782587e+01	-2.551472e-04
3.804435e+01	-2.581031e-04
3.826409e+01	-2.610932e-04
3.848510e+01	-2.641180e-04
3.870739e+01	-2.671777e-04
3.893096e+01	-2.702730e-04
3.915583e+01	-2.734041e-04
3.938199e+01	-2.765714e-04
3.960946e+01	-2.797755e-04
3.983824e+01	-2.830167e-04
4.006834e+01	-2.862954e-04
4.029978e+01	-2.896121e-04
4.053255e+01	-2.929672e-04
4.076666e+01	-2.963612e-04
4.100213e+01	-2.997945e-04
4.123896e+01	-3.032676e-04
4.147715e+01	-3.067809e-04
4.171672e+01	-3.103349e-04
4.195767e+01	-3.139301e-04
4.220002e+01	-3.175669e-04
4.244377e+01	-3.212459e-04
4.268892e+01	-3.249675e-04
4.293549e+01	-3.287322e-04
4.318348e+01	-3.325405e-04
4.343291e+01	-3.363929e-04
4.368377e+01	-3.402900e-04
4.393609e+01	-3.442322e-04
4.418986e+01	-3.482200e-04
4.444510e+01	-3.522541e-04
4.470182e+01	-3.563349e-04
4.496001e+01	-3.604629e-04
4.521970e+01	-3.646388e-04
4.548089e+01	-3.688631e-04
4.574358e+01	-3.731363e-04
4.600779e+01	-3.774590e-04
4.627353e+01	-3.818318e-04
4.654081e+01	-3.862552e-04
4.680963e+01	-3.907299e-04
4.708000e+01	-3.952564e-04
4.735193e+01	-3.998353e-04
4.762543e+01	-4.044673e-04
4.790051e+01	-4.091530e-04
4.817719e+01	-4.138929e-04
4.845545e+01	-4.186877e-04
4.873533e+01	-4.235381e-04
4.901682e+01	-4.284447e-04
4.929994e+01	-4.334081e-04
4.958470e+01	-4.384290e-04
4.987110e+01	-4.435080e-04
5.015915e+01	-4.486459e-04
5.044887e+01	-4.538433e-04
5.074026e+01	-4.591010e-04
5.103333e+01	-4.644195e-04
5.132810e+01	-4.697996e-04
5.162457e+01	-4.752421e-04
5.192275e+01	-4.807476e-04
5.222265e+01	-4.863169e-04
5.252429e+01	-4.919507e-04
5.282767e+01	-4.976497e-04
5.313280e+01	-5.034148e-04
5.343969e+01	-5.092467e-04
5.374836e+01	-5.151461e-04
5.405880e+01	-5.211138e-04
5.437105e+01	-5.271507e-04
5.468509e+01	-5.332575e-04
5.500095e+01	-5.394351e-04
5.531863e+01	-5.456842e-04
5.563815e+01	-5.520057e-04
5.595951e+01	-5.584004e-04
5.628273e+01	-5.648692e-04
5.660782e+01	-5.714129e-04
5.693479e+01	-5.780325e-04
5.726364e+01	-5.847287e-04
5.759439e+01	-5.915025e-04
5.792705e+01	-5.983547e-04
5.826164e+01	-6.052863e-04
5.859815e+01	-6.122983e-04
5.893662e+01	-6.193914e-04
5.927703e+01	-6.265667e-04
5.961941e+01	-6.338251e-04
5.996377e+01	-6.411676e-04
6.031012e+01	-6.485952e-04
6.065847e+01	-6.561087e-04
6.100883e+01	-6.637094e-04
6.136121e+01	-6.713980e-04
6.171563e+01	-6.791757e-04
6.207210e+01	-6.870436e-04
6.243063e+01	-6.950025e-04
6.279122e+01	-7.030537e-04
6.315390e+01	-7.111981e-04
6.351868e+01	-7.194368e-04
6.388556e+01	-7.277710e-04
6.425456e+01	-7.362017e-04
6.462569e+01	-7.447301e-04
6.499897e+01	-7.533572e-04
6.537440e+01	-7.620843e-04
6.575200e+01	-7.709125e-04
6.613178e+01	-7.798429e-04
6.651375e+01	-7.888768e-04
6.689793e+01	-7.980153e-04
6.728433e+01	-8.072596e-04
6.767297e+01	-8.166111e-04
6.806384e+01	-8.260709e-04
6.845698e+01	-8.356402e-04
6.885238e+01	-8.453204e-04
6.925007e+01	-8.551127e-04
6.965005e+01	-8.650184e-04
7.005235e+01	-8.750389e-04
7.045697e+01	-8.851754e-04
7.086393e+01	-8.954293e-04
7.127323e+01	-9.058021e-04
7.168490e+01	-9.162949e-04
7.209895e+01	-9.269093e-04
7.251539e+01	-9.376466e-04
7.293424e+01	-9.485083e-04
7.335551e+01	-9.594959e-04
7.377920e+01	-9.706106e-04
7.420535e+01	-9.818542e-04
7.463396e+01	-9.932279e-04
7.506504e+01	-1.004733e-03
7.549861e+01	-1.016372e-03
7.593469e+01	-1.028146e-03
7.637328e+01	-1.040056e-03
7.681441e+01	-1.052103e-03
7.725809e+01	-1.064291e-03
7.770433e+01	-1.076619e-03
7.815315e+01	-1.089091e-03
7.860456e+01	-1.101707e-03
7.905857e+01	-1.114469e-03
7.951521e+01	-1.127378e-03
7.997449e+01	-1.140438e-03
8.043642e+01	-1.153648e-03
8.090102e+01	-1.167012e-03
8.136830e+01	-1.180530e-03
8.183828e+01	-1.194205e-03
8.231097e+01	-1.208038e-03
8.278640e+01	-1.222032e-03
8.326457e+01	-1.236187e-03
8.374550e+01	-1.250507e-03
8.422921e+01	-1.264992e-03
8.471572e+01	-1.279645e-03
8.520503e+01	-1.294468e-03
8.569717e+01	-1.309462e-03
8.619215e+01	-1.324631e-03
8.669000e+01	-1.339974e-03
8.719071e+01	-1.355496e-03
8.769432e+01	-1.371197e-03
8.820084e+01	-1.387080e-03
8.871029e+01	-1.403148e-03
8.922267e+01	-1.419401e-03
8.973802e+01	-1.435842e-03
9.025634e+01	-1.452474e-03
9.077766e+01	-1.469298e-03
9.130199e+01	-1.486318e-03
9.182935e+01	-1.503534e-03
9.235975e+01	-1.520950e-03
9.289321e+01	-1.538567e-03
9.342976e+01	-1.556389e-03
9.396941e+01	-1.574417e-03
9.451217e+01	-1.592654e-03
9.505807e+01	-1.611101e-03
9.560712e+01	-1.629763e-03
9.615934e+01	-1.648641e-03
9.671476e+01	-1.667737e-03
9.727338e+01	-1.687054e-03
9.783522e+01	-1.706595e-03
9.840032e+01	-1.726363e-03
9.896867e+01	-1.746359e-03
9.954031e+01	-1.766587e-03
1.001153e+02	-1.787049e-03
1.006935e+02	-1.807749e-03
1.012751e+02	-1.828687e-03
1.018601e+02	-1.849869e-03
1.024484e+02	-1.871295e-03
1.030402e+02	-1.892970e-03
1.036353e+02	-1.914896e-03
1.042339e+02	-1.937075e-03
1.048360e+02	-1.959512e-03
1.054415e+02	-1.982208e-03
1.060505e+02	-2.005167e-03
1.066631e+02	-2.028392e-03
1.072791e+02	-2.051886e-03
1.078988e+02	-2.075652e-03
1.085220e+02	-2.099693e-03
1.091488e+02	-2.124013e-03
1.097793e+02	-2.148614e-03
1.104133e+02	-2.173500e-03
1.110511e+02	-2.198674e-03
1.116925e+02	-2.224140e-03
1.123376e+02	-2.249900e-03
1.129865e+02	-2.275959e-03
1.136391e+02	-2.302320e-03
1.142955e+02	-2.328986e-03
1.149556e+02	-2.355960e-03
1.156196e+02	-2.383247e-03
1.162874e+02	-2.410850e-03
1.169591e+02	-2.438773e-03
1.176347e+02	-2.467018e-03
1.183141e+02	-2.495591e-03
1.189975e+02	-2.524495e-03
1.196848e+02	-2.553733e-03
1.203761e+02	-2.583310e-03
1.210714e+02	-2.613229e-03
1.217707e+02	-2.643495e-03
1.224740e+02	-2.674111e-03
1.231814e+02	-2.705082e-03
1.238929e+02	-2.736411e-03
1.246085e+02	-2.768103e-03
1.253283e+02	-2.800162e-03
1.260522e+02	-2.832592e-03
1.267802e+02	-2.865397e-03
1.275125e+02	-2.898583e-03
1.282490e+02	-2.932152e-03
1.289898e+02	-2.966110e-03
1.297348e+02	-3.000462e-03
1.304842e+02	-3.035211e-03
1.312378e+02	-3.070362e-03
1.319959e+02	-3.105920e-03
1.327583e+02	-3.141890e-03
1.335251e+02	-3.178276e-03
1.342963e+02	-3.215084e-03
1.350720e+02	-3.252317e-03
1.358522e+02	-3.289982e-03
1.366368e+02	-3.328083e-03
1.374260e+02	-3.366624e-03
1.382198e+02	-3.405612e-03
1.390182e+02	-3.445052e-03
1.398211e+02	-3.484947e-03
1.406287e+02	-3.525305e-03
1.414410e+02	-3.566130e-03
1.422579e+02	-3.607427e-03
1.430796e+02	-3.649203e-03
1.439060e+02	-3.691462e-03
1.447372e+02	-3.734210e-03
1.455732e+02	-3.777453e-03
1.464141e+02	-3.821196e-03
1.472597e+02	-3.865446e-03
1.481103e+02	-3.910208e-03
1.489658e+02	-3.955488e-03
1.498262e+02	-4.001292e-03
1.506916e+02	-4.047627e-03
1.515620e+02	-4.094497e-03
1.524374e+02	-4.141910e-03
1.533179e+02	-4.189872e-03
1.542034e+02	-4.238389e-03
1.550941e+02	-4.287468e-03
1.559899e+02	-4.337115e-03
1.568909e+02	-4.387336e-03
1.577971e+02	-4.438138e-03
1.587085e+02	-4.489528e-03
1.596252e+02	-4.541514e-03
1.605472e+02	-4.594100e-03
1.614745e+02	-4.647296e-03
1.624072e+02	-4.701106e-03
1.633453e+02	-4.755540e-03
1.642887e+02	-4.810604e-03
1.652377e+02	-4.866305e-03
1.661921e+02	-4.922650e-03
1.671520e+02	-4.979647e-03
1.681175e+02	-5.037304e-03
1.690885e+02	-5.095628e-03
1.700651e+02	-5.154628e-03
1.710474e+02	-5.214309e-03
1.720354e+02	-5.274682e-03
1.730291e+02	-5.335753e-03
1.740285e+02	-5.397530e-03
1.750337e+02	-5.460022e-03
1.760446e+02	-5.523238e-03
1.770615e+02	-5.587185e-03
1.780842e+02	-5.651872e-03
1.791128e+02	-5.717307e-03
1.801473e+02	-5.783499e-03
1.811878e+02	-5.850457e-03
1.822344e+02	-5.918190e-03
1.832870e+02	-5.986706e-03
1.843456e+02	-6.056015e-03
1.854104e+02	-6.126126e-03
1.864813e+02	-6.197048e-03
1.875584e+02	-6.268791e-03
1.886418e+02	-6.341363e-03
1.897313e+02	-6.414775e-03
1.908272e+02	-6.489036e-03
1.919294e+02	-6.564156e-03
1.930380e+02	-6.640145e-03
1.941530e+02	-6.717014e-03
1.952744e+02	-6.794771e-03
1.964023e+02	-6.873428e-03
1.975367e+02	-6.952994e-03
1.986777e+02	-7.033481e-03
1.998252e+02	-7.114899e-03
2.009794e+02	-7.197258e-03
2.021403e+02	-7.280570e-03
2.033078e+02	-7.364846e-03
2.044821e+02	-7.450096e-03
2.056632e+02	-7.536332e-03
2.068511e+02	-7.623565e-03
2.080459e+02	-7.711808e-03
2.092475e+02	-7.801071e-03
2.104561e+02	-7.891366e-03
2.116717e+02	-7.982705e-03
2.128943e+02	-8.075100e-03
2.141240e+02	-8.168564e-03
2.153608e+02	-8.263109e-03
2.166047e+02	-8.358747e-03
2.178558e+02	-8.455490e-03
2.191141e+02	-8.553353e-03
2.203797e+02	-8.652346e-03
2.216526e+02	-8.752485e-03
2.229329e+02	-8.853781e-03
2.242205e+02	-8.956248e-03
2.255156e+02	-9.059900e-03
2.268182e+02	-9.164750e-03
2.281283e+02	-9.270812e-03
2.294459e+02	-9.378101e-03
2.307712e+02	-9.486629e-03
2.321041e+02	-9.596413e-03
2.334447e+02	-9.707465e-03
2.347931e+02	-9.819801e-03
2.361493e+02	-9.933435e-03
2.375133e+02	-1.004838e-02
2.388851e+02	-1.016466e-02
2.402649e+02	-1.028228e-02
2.416527e+02	-1.040126e-02
2.430484e+02	-1.052161e-02
2.444523e+02	-1.064336e-02
2.458642e+02	-1.076651e-02
2.472843e+02	-1.089109e-02
2.487126e+02	-1.101710e-02
2.501492e+02	-1.114458e-02
2.515940e+02	-1.127352e-02
2.530472e+02	-1.140395e-02
2.545088e+02	-1.153590e-02
2.559789e+02	-1.166936e-02
2.574574e+02	-1.180437e-02
2.589444e+02	-1.194094e-02
2.604401e+02	-1.207908e-02
2.619444e+02	-1.221883e-02
2.634574e+02	-1.236018e-02
2.649791e+02	-1.250317e-02
2.665096e+02	-1.264781e-02
2.680489e+02	-1.279412e-02
2.695972e+02	-1.294213e-02
2.711544e+02	-1.309184e-02
2.727205e+02	-1.324328e-02
2.742958e+02	-1.339647e-02
2.758801e+02	-1.355142e-02
2.774736e+02	-1.370817e-02
2.790762e+02	-1.386673e-02
2.806882e+02	-1.402712e-02
2.823094e+02	-1.418936e-02
2.839400e+02	-1.435348e-02
2.855800e+02	-1.451949e-02
2.872295e+02	-1.468741e-02
2.888886e+02	-1.485728e-02
2.905572e+02	-1.502910e-02
2.922354e+02	-1.520291e-02
2.939234e+02	-1.537873e-02
2.956211e+02	-1.555658e-02
2.973286e+02	-1.573648e-02
2.990459e+02	-1.591845e-02
3.007732e+02	-1.610253e-02
3.025104e+02	-1.628873e-02
3.042577e+02	-1.647708e-02
3.060151e+02	-1.666760e-02
3.077826e+02	-1.686033e-02
3.095604e+02	-1.705527e-02
3.113484e+02	-1.725247e-02
3.131467e+02	-1.745194e-02
3.149554e+02	-1.765371e-02
3.167746e+02	-1.785781e-02
3.186043e+02	-1.806427e-02
3.204445e+02	-1.827311e-02
3.222954e+02	-1.848435e-02
3.241570e+02	-1.869804e-02
3.260293e+02	-1.891418e-02
3.279124e+02	-1.913283e-02
3.298064e+02	-1.935399e-02
3.317114e+02	-1.957770e-02
3.336273e+02	-1.980400e-02
3.355544e+02	-2.003290e-02
3.374925e+02	-2.026444e-02
3.394418e+02	-2.049866e-02
3.414024e+02	-2.073557e-02
3.433744e+02	-2.097521e-02
3.453577e+02	-2.121762e-02
3.473525e+02	-2.146282e-02
3.493588e+02	-2.171085e-02
3.513766e+02	-2.196174e-02
3.534062e+02	-2.221552e-02
3.554474e+02	-2.247222e-02
3.575005e+02	-2.273189e-02
3.595654e+02	-2.299454e-02
3.616422e+02	-2.326022e-02
3.637311e+02	-2.352897e-02
3.658320e+02	-2.380081e-02
3.679450e+02	-2.407578e-02
3.700702e+02	-2.435392e-02
3.722077e+02	-2.463526e-02
3.743576e+02	-2.491985e-02
3.765199e+02	-2.520771e-02
3.786946e+02	-2.549889e-02
3.808820e+02	-2.579342e-02
3.830819e+02	-2.609134e-02
3.852946e+02	-2.639269e-02
3.875200e+02	-2.669752e-02
3.897583e+02	-2.700585e-02
3.920096e+02	-2.731773e-02
3.942738e+02	-2.763321e-02
3.965511e+02	-2.795231e-02
3.988416e+02	-2.827509e-02
4.011452e+02	-2.860158e-02
4.034622e+02	-2.893183e-02
4.057926e+02	-2.926588e-02
4.081365e+02	-2.960377e-02
4.104938e+02	-2.994555e-02
4.128648e+02	-3.029127e-02
4.152495e+02	-3.064096e-02
4.176480e+02	-3.099467e-02
4.200603e+02	-3.135245e-02
4.224866e+02	-3.171435e-02
4.249268e+02	-3.208041e-02
4.273812e+02	-3.245067e-02
4.298497e+02	-3.282520e-02
4.323325e+02	-3.320403e-02
4.348297e+02	-3.358722e-02
4.373412e+02	-3.397481e-02
4.398673e+02	-3.436685e-02
4.424079e+02	-3.476340e-02
4.449633e+02	-3.516451e-02
4.475334e+02	-3.557023e-02
4.501183e+02	-3.598061e-02
4.527182e+02	-3.639570e-02
4.553330e+02	-3.681556e-02
4.579630e+02	-3.724025e-02
4.606082e+02	-3.766981e-02
4.632687e+02	-3.810430e-02
4.659445e+02	-3.854379e-02
4.686358e+02	-3.898832e-02
4.713426e+02	-3.943795e-02
4.740650e+02	-3.989275e-02
4.768032e+02	-4.035276e-02
4.795572e+02	-4.081806e-02
4.823271e+02	-4.128869e-02
4.851130e+02	-4.176473e-02
4.879150e+02	-4.224622e-02
4.907332e+02	-4.273325e-02
4.935676e+02	-4.322585e-02
4.964185e+02	-4.372411e-02
4.992858e+02	-4.422808e-02
5.021696e+02	-4.473783e-02
5.050701e+02	-4.525342e-02
5.079874e+02	-4.577493e-02
5.109215e+02	-4.630241e-02
5.138726e+02	-4.683593e-02
5.168407e+02	-4.737558e-02
5.198259e+02	-4.792140e-02
5.228284e+02	-4.847348e-02
5.258482e+02	-4.903188e-02
5.288855e+02	-4.959668e-02
5.319403e+02	-5.016794e-02
5.350128e+02	-5.074575e-02
5.381030e+02	-5.133018e-02
5.412111e+02	-5.192129e-02
5.443371e+02	-5.251917e-02
5.474812e+02	-5.312389e-02
5.506434e+02	-5.373553e-02
5.538239e+02	-5.435417e-02
5.570228e+02	-5.497988e-02
5.602401e+02	-5.561276e-02
5.634760e+02	-5.625287e-02
5.667306e+02	-5.690030e-02
5.700040e+02	-5.755513e-02
5.732964e+02	-5.821745e-02
5.766077e+02	-5.888733e-02
5.799382e+02	-5.956487e-02
5.832879e+02	-6.025016e-02
5.866569e+02	-6.094327e-02
5.900454e+02	-6.164430e-02
5.934535e+02	-6.235333e-02
5.968813e+02	-6.307046e-02
6.003288e+02	-6.379578e-02
6.037963e+02	-6.452937e-02
6.072838e+02	-6.527134e-02
6.107914e+02	-6.602178e-02
6.143194e+02	-6.678077e-02
6.178676e+02	-6.754843e-02
6.214364e+02	-6.832483e-02
6.250258e+02	-6.911009e-02
6.286359e+02	-6.990431e-02
6.322669e+02	-7.070757e-02
6.359189e+02	-7.151999e-02
6.395919e+02	-7.234167e-02
6.432862e+02	-7.317270e-02
6.470017e+02	-7.401321e-02
6.507388e+02	-7.486328e-02
6.544974e+02	-7.572303e-02
6.582778e+02	-7.659257e-02
6.620800e+02	-7.747200e-02
6.659041e+02	-7.836144e-02
6.697504e+02	-7.926099e-02
6.736188e+02	-8.017078e-02
6.775096e+02	-8.109091e-02
6.814229e+02	-8.202151e-02
6.853587e+02	-8.296268e-02
6.893173e+02	-8.391454e-02
6.932988e+02	-8.487722e-02
6.973033e+02	-8.585084e-02
7.013309e+02	-8.683551e-02
