Frequency(Hz)	Magnitude(dB)
1.000000e+01	-1.772275e-05
1.005776e+01	-1.792807e-05
1.011585e+01	-1.813577e-05
1.017428e+01	-1.834588e-05
1.023305e+01	-1.855842e-05
1.029215e+01	-1.877343e-05
1.035160e+01	-1.899092e-05
1.041139e+01	-1.921094e-05
1.047153e+01	-1.943350e-05
1.053201e+01	-1.965864e-05
1.059284e+01	-1.988639e-05
1.065403e+01	-2.011678e-05
1.071556e+01	-2.034984e-05
1.077746e+01	-2.058560e-05
1.083971e+01	-2.082409e-05
1.090232e+01	-2.106534e-05
1.096529e+01	-2.130939e-05
1.102862e+01	-2.155626e-05
1.109232e+01	-2.180599e-05
1.115639e+01	-2.205862e-05
1.122083e+01	-2.231418e-05
1.128564e+01	-2.257269e-05
1.135083e+01	-2.283420e-05
1.141639e+01	-2.309874e-05
1.148233e+01	-2.336635e-05
1.154865e+01	-2.363705e-05
1.161536e+01	-2.391089e-05
1.168245e+01	-2.418791e-05
1.174992e+01	-2.446813e-05
1.181779e+01	-2.475160e-05
1.188605e+01	-2.503835e-05
1.195470e+01	-2.532843e-05
1.202375e+01	-2.562186e-05
1.209320e+01	-2.591870e-05
1.216305e+01	-2.621897e-05
1.223330e+01	-2.652273e-05
1.230396e+01	-2.683000e-05
1.237503e+01	-2.714083e-05
1.244651e+01	-2.745526e-05
1.251840e+01	-2.777334e-05
1.259070e+01	-2.809510e-05
1.266343e+01	-2.842059e-05
1.273657e+01	-2.874985e-05
1.281014e+01	-2.908292e-05
1.288413e+01	-2.941986e-05
1.295855e+01	-2.976069e-05
1.303339e+01	-3.010548e-05
1.310867e+01	-3.045426e-05
1.318439e+01	-3.080708e-05
1.326054e+01	-3.116398e-05
1.333713e+01	-3.152503e-05
1.341417e+01	-3.189025e-05
1.349165e+01	-3.225971e-05
1.356958e+01	-3.263344e-05
1.364795e+01	-3.301151e-05
1.372678e+01	-3.339396e-05
1.380607e+01	-3.378083e-05
1.388581e+01	-3.417219e-05
1.396602e+01	-3.456808e-05
1.404668e+01	-3.496856e-05
1.412782e+01	-3.537368e-05
1.420942e+01	-3.578349e-05
1.429149e+01	-3.619805e-05
1.437404e+01	-3.661742e-05
1.445706e+01	-3.704164e-05
1.454057e+01	-3.747077e-05
1.462455e+01	-3.790488e-05
1.470902e+01	-3.834402e-05
1.479398e+01	-3.878824e-05
1.487943e+01	-3.923761e-05
1.496537e+01	-3.969219e-05
1.505181e+01	-4.015203e-05
1.513875e+01	-4.061720e-05
1.522619e+01	-4.108776e-05
1.531414e+01	-4.156377e-05
1.540259e+01	-4.204530e-05
1.549156e+01	-4.253240e-05
1.558103e+01	-4.302515e-05
1.567103e+01	-4.352361e-05
1.576155e+01	-4.402784e-05
1.585258e+01	-4.453791e-05
1.594415e+01	-4.505389e-05
1.603624e+01	-4.557585e-05
1.612886e+01	-4.610386e-05
1.622202e+01	-4.663798e-05
1.631572e+01	-4.717829e-05
1.640996e+01	-4.772486e-05
1.650474e+01	-4.827776e-05
1.660008e+01	-4.883707e-05
1.669596e+01	-4.940286e-05
1.679239e+01	-4.997520e-05
1.688938e+01	-5.055418e-05
1.698694e+01	-5.113986e-05
1.708505e+01	-5.173232e-05
1.718373e+01	-5.233165e-05
1.728299e+01	-5.293793e-05
1.738281e+01	-5.355122e-05
1.748322e+01	-5.417163e-05
1.758420e+01	-5.479921e-05
1.768576e+01	-5.543407e-05
1.778792e+01	-5.607629e-05
1.789066e+01	-5.672595e-05
1.799399e+01	-5.738313e-05
1.809793e+01	-5.804792e-05
1.820246e+01	-5.872042e-05
1.830760e+01	-5.940071e-05
1.841334e+01	-6.008888e-05
1.851969e+01	-6.078502e-05
1.862666e+01	-6.148922e-05
1.873425e+01	-6.220159e-05
1.884246e+01	-6.292221e-05
1.895129e+01	-6.365117e-05
1.906075e+01	-6.438858e-05
1.917085e+01	-6.513454e-05
1.928158e+01	-6.588913e-05
1.939295e+01	-6.665247e-05
1.950496e+01	-6.742465e-05
1.961762e+01	-6.820578e-05
1.973093e+01	-6.899596e-05
1.984490e+01	-6.979529e-05
1.995952e+01	-7.060388e-05
2.007480e+01	-7.142184e-05
2.019076e+01	-7.224927e-05
2.030738e+01	-7.308629e-05
2.042467e+01	-7.393301e-05
2.054264e+01	-7.478954e-05
2.066130e+01	-7.565599e-05
2.078064e+01	-7.653248e-05
2.090066e+01	-7.741912e-05
2.102139e+01	-7.831603e-05
2.114280e+01	-7.922334e-05
2.126492e+01	-8.014116e-05
2.138775e+01	-8.106960e-05
2.151128e+01	-8.200881e-05
2.163553e+01	-8.295890e-05
2.176050e+01	-8.391999e-05
2.188619e+01	-8.489222e-05
2.201260e+01	-8.587571e-05
2.213974e+01	-8.687059e-05
2.226762e+01	-8.787700e-05
2.239624e+01	-8.889507e-05
2.252560e+01	-8.992493e-05
2.265571e+01	-9.096673e-05
2.278656e+01	-9.202059e-05
2.291818e+01	-9.308666e-05
2.305055e+01	-9.416509e-05
2.318369e+01	-9.525600e-05
2.331760e+01	-9.635956e-05
2.345228e+01	-9.747590e-05
2.358774e+01	-9.860517e-05
2.372398e+01	-9.974753e-05
2.386101e+01	-1.009031e-04
2.399883e+01	-1.020721e-04
2.413745e+01	-1.032546e-04
2.427686e+01	-1.044508e-04
2.441709e+01	-1.056609e-04
2.455812e+01	-1.068850e-04
2.469997e+01	-1.081233e-04
2.484263e+01	-1.093759e-04
2.498612e+01	-1.106430e-04
2.513044e+01	-1.119249e-04
2.527559e+01	-1.132215e-04
2.542158e+01	-1.145332e-04
2.556842e+01	-1.158601e-04
2.571610e+01	-1.172023e-04
2.586463e+01	-1.185601e-04
2.601403e+01	-1.199337e-04
2.616428e+01	-1.213231e-04
2.631541e+01	-1.227287e-04
2.646740e+01	-1.241505e-04
2.662028e+01	-1.255888e-04
2.677404e+01	-1.270437e-04
2.692868e+01	-1.285156e-04
2.708422e+01	-1.300044e-04
2.724066e+01	-1.315105e-04
2.739800e+01	-1.330341e-04
2.755625e+01	-1.345753e-04
2.771541e+01	-1.361344e-04
2.787550e+01	-1.377115e-04
2.803650e+01	-1.393069e-04
2.819844e+01	-1.409208e-04
2.836131e+01	-1.425534e-04
2.852513e+01	-1.442049e-04
2.868989e+01	-1.458755e-04
2.885560e+01	-1.475655e-04
2.902227e+01	-1.492750e-04
2.918990e+01	-1.510044e-04
2.935850e+01	-1.527538e-04
2.952807e+01	-1.545235e-04
2.969863e+01	-1.563136e-04
2.987016e+01	-1.581245e-04
3.004269e+01	-1.599564e-04
3.021622e+01	-1.618095e-04
3.039075e+01	-1.636841e-04
3.056628e+01	-1.655804e-04
3.074283e+01	-1.674986e-04
3.092040e+01	-1.694391e-04
3.109900e+01	-1.714021e-04
3.127862e+01	-1.733878e-04
3.145929e+01	-1.753965e-04
3.164099e+01	-1.774285e-04
3.182375e+01	-1.794840e-04
3.200756e+01	-1.815633e-04
3.219244e+01	-1.836667e-04
3.237838e+01	-1.857945e-04
3.256540e+01	-1.879469e-04
3.275349e+01	-1.901243e-04
3.294268e+01	-1.923269e-04
3.313295e+01	-1.945550e-04
3.332433e+01	-1.968089e-04
3.351681e+01	-1.990890e-04
3.371040e+01	-2.013954e-04
3.390511e+01	-2.037286e-04
3.410094e+01	-2.060888e-04
3.429791e+01	-2.084763e-04
3.449601e+01	-2.108915e-04
3.469526e+01	-2.133347e-04
3.489566e+01	-2.158062e-04
3.509721e+01	-2.183063e-04
3.529993e+01	-2.208354e-04
3.550382e+01	-2.233937e-04
3.570889e+01	-2.259818e-04
3.591515e+01	-2.285997e-04
3.612259e+01	-2.312481e-04
3.633123e+01	-2.339271e-04
3.654108e+01	-2.366371e-04
3.675214e+01	-2.393785e-04
3.696442e+01	-2.421517e-04
3.717792e+01	-2.449570e-04
3.739266e+01	-2.477949e-04
3.760864e+01	-2.506655e-04
3.782587e+01	-2.535695e-04
3.804435e+01	-2.565071e-04
3.826409e+01	-2.594787e-04
3.848510e+01	-2.624847e-04
3.870739e+01	-2.655256e-04
3.893096e+01	-2.686017e-04
3.915583e+01	-2.717134e-04
3.938199e+01	-2.748612e-04
3.960946e+01	-2.780454e-04
3.983824e+01	-2.812666e-04
4.006834e+01	-2.845250e-04
4.029978e+01	-2.878212e-04
4.053255e+01	-2.911556e-04
4.076666e+01	-2.945286e-04
4.100213e+01	-2.979407e-04
4.123896e+01	-3.013923e-04
4.147715e+01	-3.048839e-04
4.171672e+01	-3.084159e-04
4.195767e+01	-3.119889e-04
4.220002e+01	-3.156032e-04
4.244377e+01	-3.192594e-04
4.268892e+01	-3.229580e-04
4.293549e+01	-3.266994e-04
4.318348e+01	-3.304842e-04
4.343291e+01	-3.343128e-04
4.368377e+01	-3.381857e-04
4.393609e+01	-3.421036e-04
4.418986e+01	-3.460668e-04
4.444510e+01	-3.500759e-04
4.470182e+01	-3.541314e-04
4.496001e+01	-3.582340e-04
4.521970e+01	-3.623840e-04
4.548089e+01	-3.665822e-04
4.574358e+01	-3.708290e-04
4.600779e+01	-3.751249e-04
4.627353e+01	-3.794707e-04
4.654081e+01	-3.838667e-04
4.680963e+01	-3.883138e-04
4.708000e+01	-3.928123e-04
4.735193e+01	-3.973629e-04
4.762543e+01	-4.019662e-04
4.790051e+01	-4.066229e-04
4.817719e+01	-4.113335e-04
4.845545e+01	-4.160987e-04
4.873533e+01	-4.209191e-04
4.901682e+01	-4.257953e-04
4.929994e+01	-4.307280e-04
4.958470e+01	-4.357179e-04
4.987110e+01	-4.407656e-04
5.015915e+01	-4.458717e-04
5.044887e+01	-4.510370e-04
5.074026e+01	-4.562621e-04
5.103333e+01	-4.615477e-04
5.132810e+01	-4.668946e-04
5.162457e+01	-4.723034e-04
5.192275e+01	-4.777749e-04
5.222265e+01	-4.833097e-04
5.252429e+01	-4.889087e-04
5.282767e+01	-4.945725e-04
5.313280e+01	-5.003019e-04
5.343969e+01	-5.060977e-04
5.374836e+01	-5.119606e-04
5.405880e+01	-5.178915e-04
5.437105e+01	-5.238911e-04
5.468509e+01	-5.299601e-04
5.500095e+01	-5.360995e-04
5.531863e+01	-5.423099e-04
5.563815e+01	-5.485923e-04
5.595951e+01	-5.549475e-04
5.628273e+01	-5.613763e-04
5.660782e+01	-5.678796e-04
5.693479e+01	-5.744582e-04
5.726364e+01	-5.811130e-04
5.759439e+01	-5.878449e-04
5.792705e+01	-5.946548e-04
5.826164e+01	-6.015436e-04
5.859815e+01	-6.085121e-04
5.893662e+01	-6.155614e-04
5.927703e+01	-6.226924e-04
5.961941e+01	-6.299059e-04
5.996377e+01	-6.372030e-04
6.031012e+01	-6.445846e-04
6.065847e+01	-6.520517e-04
6.100883e+01	-6.596054e-04
6.136121e+01	-6.672465e-04
6.171563e+01	-6.749761e-04
6.207210e+01	-6.827953e-04
6.243063e+01	-6.907050e-04
6.279122e+01	-6.987064e-04
6.315390e+01	-7.068004e-04
6.351868e+01	-7.149882e-04
6.388556e+01	-7.232709e-04
6.425456e+01	-7.316495e-04
6.462569e+01	-7.401251e-04
6.499897e+01	-7.486989e-04
6.537440e+01	-7.573721e-04
6.575200e+01	-7.661456e-04
6.613178e+01	-7.750209e-04
6.651375e+01	-7.839989e-04
6.689793e+01	-7.930809e-04
6.728433e+01	-8.022681e-04
6.767297e+01	-8.115617e-04
6.806384e+01	-8.209630e-04
6.845698e+01	-8.304732e-04
6.885238e+01	-8.400935e-04
6.925007e+01	-8.498253e-04
6.965005e+01	-8.596698e-04
7.005235e+01	-8.696283e-04
7.045697e+01	-8.797021e-04
7.086393e+01	-8.898927e-04
7.127323e+01	-9.002013e-04
7.168490e+01	-9.106292e-04
7.209895e+01	-9.211780e-04
7.251539e+01	-9.318490e-04
7.293424e+01	-9.426435e-04
7.335551e+01	-9.535631e-04
7.377920e+01	-9.646092e-04
7.420535e+01	-9.757832e-04
7.463396e+01	-9.870866e-04
7.506504e+01	-9.985209e-04
7.549861e+01	-1.010088e-03
7.593469e+01	-1.021788e-03
7.637328e+01	-1.033625e-03
7.681441e+01	-1.045598e-03
7.725809e+01	-1.057710e-03
7.770433e+01	-1.069963e-03
7.815315e+01	-1.082357e-03
7.860456e+01	-1.094895e-03
7.905857e+01	-1.107578e-03
7.951521e+01	-1.120408e-03
7.997449e+01	-1.133386e-03
8.043642e+01	-1.146515e-03
8.090102e+01	-1.159796e-03
8.136830e+01	-1.173231e-03
8.183828e+01	-1.186821e-03
8.231097e+01	-1.200569e-03
8.278640e+01	-1.214476e-03
8.326457e+01	-1.228544e-03
8.374550e+01	-1.242775e-03
8.422921e+01	-1.257171e-03
8.471572e+01	-1.271733e-03
8.520503e+01	-1.286464e-03
8.569717e+01	-1.301366e-03
8.619215e+01	-1.316440e-03
8.669000e+01	-1.331689e-03
8.719071e+01	-1.347115e-03
8.769432e+01	-1.362719e-03
8.820084e+01	-1.378504e-03
8.871029e+01	-1.394472e-03
8.922267e+01	-1.410625e-03
8.973802e+01	-1.426964e-03
9.025634e+01	-1.443494e-03
9.077766e+01	-1.460214e-03
9.130199e+01	-1.477128e-03
9.182935e+01	-1.494238e-03
9.235975e+01	-1.511546e-03
9.289321e+01	-1.529055e-03
9.342976e+01	-1.546766e-03
9.396941e+01	-1.564683e-03
9.451217e+01	-1.582807e-03
9.505807e+01	-1.601140e-03
9.560712e+01	-1.619687e-03
9.615934e+01	-1.638448e-03
9.671476e+01	-1.657426e-03
9.727338e+01	-1.676624e-03
9.783522e+01	-1.696044e-03
9.840032e+01	-1.715689e-03
9.896867e+01	-1.735562e-03
9.954031e+01	-1.755665e-03
1.001153e+02	-1.776001e-03
1.006935e+02	-1.796572e-03
1.012751e+02	-1.817381e-03
1.018601e+02	-1.838432e-03
1.024484e+02	-1.859726e-03
1.030402e+02	-1.881267e-03
1.036353e+02	-1.903057e-03
1.042339e+02	-1.925099e-03
1.048360e+02	-1.947397e-03
1.054415e+02	-1.969953e-03
1.060505e+02	-1.992770e-03
1.066631e+02	-2.015852e-03
1.072791e+02	-2.039200e-03
1.078988e+02	-2.062819e-03
1.085220e+02	-2.086712e-03
1.091488e+02	-2.110881e-03
1.097793e+02	-2.135330e-03
1.104133e+02	-2.160063e-03
1.110511e+02	-2.185081e-03
1.116925e+02	-2.210389e-03
1.123376e+02	-2.235991e-03
1.129865e+02	-2.261889e-03
1.136391e+02	-2.288086e-03
1.142955e+02	-2.314587e-03
1.149556e+02	-2.341395e-03
1.156196e+02	-2.368513e-03
1.162874e+02	-2.395946e-03
1.169591e+02	-2.423696e-03
1.176347e+02	-2.451767e-03
1.183141e+02	-2.480163e-03
1.189975e+02	-2.508888e-03
1.196848e+02	-2.537946e-03
1.203761e+02	-2.567340e-03
1.210714e+02	-2.597074e-03
1.217707e+02	-2.627153e-03
1.224740e+02	-2.657580e-03
1.231814e+02	-2.688359e-03
1.238929e+02	-2.719495e-03
1.246085e+02	-2.750991e-03
1.253283e+02	-2.782851e-03
1.260522e+02	-2.815081e-03
1.267802e+02	-2.847684e-03
1.275125e+02	-2.880664e-03
1.282490e+02	-2.914026e-03
1.289898e+02	-2.947774e-03
1.297348e+02	-2.981913e-03
1.304842e+02	-3.016448e-03
1.312378e+02	-3.051382e-03
1.319959e+02	-3.086720e-03
1.327583e+02	-3.122468e-03
1.335251e+02	-3.158629e-03
1.342963e+02	-3.195209e-03
1.350720e+02	-3.232213e-03
1.358522e+02	-3.269645e-03
1.366368e+02	-3.307510e-03
1.374260e+02	-3.345813e-03
1.382198e+02	-3.384560e-03
1.390182e+02	-3.423756e-03
1.398211e+02	-3.463405e-03
1.406287e+02	-3.503514e-03
1.414410e+02	-3.544086e-03
1.422579e+02	-3.585128e-03
1.430796e+02	-3.626645e-03
1.439060e+02	-3.668643e-03
1.447372e+02	-3.711127e-03
1.455732e+02	-3.754103e-03
1.464141e+02	-3.797576e-03
1.472597e+02	-3.841553e-03
1.481103e+02	-3.886038e-03
1.489658e+02	-3.931039e-03
1.498262e+02	-3.976560e-03
1.506916e+02	-4.022608e-03
1.515620e+02	-4.069189e-03
1.524374e+02	-4.116309e-03
1.533179e+02	-4.163975e-03
1.542034e+02	-4.212192e-03
1.550941e+02	-4.260967e-03
1.559899e+02	-4.310307e-03
1.568909e+02	-4.360218e-03
1.577971e+02	-4.410707e-03
1.587085e+02	-4.461780e-03
1.596252e+02	-4.513444e-03
1.605472e+02	-4.565705e-03
1.614745e+02	-4.618572e-03
1.624072e+02	-4.672051e-03
1.633453e+02	-4.726148e-03
1.642887e+02	-4.780871e-03
1.652377e+02	-4.836228e-03
1.661921e+02	-4.892225e-03
1.671520e+02	-4.948871e-03
1.681175e+02	-5.006172e-03
1.690885e+02	-5.064136e-03
1.700651e+02	-5.122770e-03
1.710474e+02	-5.182083e-03
1.720354e+02	-5.242083e-03
1.730291e+02	-5.302776e-03
1.740285e+02	-5.364172e-03
1.750337e+02	-5.426279e-03
1.760446e+02	-5.489104e-03
1.770615e+02	-5.552656e-03
1.780842e+02	-5.616943e-03
1.791128e+02	-5.681974e-03
1.801473e+02	-5.747758e-03
1.811878e+02	-5.814302e-03
1.822344e+02	-5.881617e-03
1.832870e+02	-5.949710e-03
1.843456e+02	-6.018591e-03
1.854104e+02	-6.088269e-03
1.864813e+02	-6.158753e-03
1.875584e+02	-6.230052e-03
1.886418e+02	-6.302176e-03
1.897313e+02	-6.375135e-03
1.908272e+02	-6.448938e-03
1.919294e+02	-6.523594e-03
1.930380e+02	-6.599114e-03
1.941530e+02	-6.675507e-03
1.952744e+02	-6.752784e-03
1.964023e+02	-6.830956e-03
1.975367e+02	-6.910031e-03
1.986777e+02	-6.990021e-03
1.998252e+02	-7.070936e-03
2.009794e+02	-7.152787e-03
2.021403e+02	-7.235584e-03
2.033078e+02	-7.319340e-03
2.044821e+02	-7.404063e-03
2.056632e+02	-7.489767e-03
2.068511e+02	-7.576462e-03
2.080459e+02	-7.664160e-03
2.092475e+02	-7.752871e-03
2.104561e+02	-7.842609e-03
2.116717e+02	-7.933385e-03
2.128943e+02	-8.025210e-03
2.141240e+02	-8.118097e-03
2.153608e+02	-8.212058e-03
2.166047e+02	-8.307105e-03
2.178558e+02	-8.403252e-03
2.191141e+02	-8.500510e-03
2.203797e+02	-8.598893e-03
2.216526e+02	-8.698413e-03
2.229329e+02	-8.799084e-03
2.242205e+02	-8.900919e-03
2.255156e+02	-9.003931e-03
2.268182e+02	-9.108134e-03
2.281283e+02	-9.213542e-03
2.294459e+02	-9.320168e-03
2.307712e+02	-9.428027e-03
2.321041e+02	-9.537133e-03
2.334447e+02	-9.647500e-03
2.347931e+02	-9.759142e-03
2.361493e+02	-9.872076e-03
2.375133e+02	-9.986314e-03
2.388851e+02	-1.010187e-02
2.402649e+02	-1.021877e-02
2.416527e+02	-1.033701e-02
2.430484e+02	-1.045663e-02
2.444523e+02	-1.057762e-02
2.458642e+02	-1.070001e-02
2.472843e+02	-1.082382e-02
2.487126e+02	-1.094906e-02
2.501492e+02	-1.107574e-02
2.515940e+02	-1.120389e-02
2.530472e+02	-1.133352e-02
2.545088e+02	-1.146465e-02
2.559789e+02	-1.159729e-02
2.574574e+02	-1.173147e-02
2.589444e+02	-1.186720e-02
2.604401e+02	-1.200449e-02
2.619444e+02	-1.214337e-02
2.634574e+02	-1.228385e-02
2.649791e+02	-1.242596e-02
2.665096e+02	-1.256971e-02
2.680489e+02	-1.271512e-02
2.695972e+02	-1.286221e-02
2.711544e+02	-1.301100e-02
2.727205e+02	-1.316150e-02
2.742958e+02	-1.331375e-02
2.758801e+02	-1.346775e-02
2.774736e+02	-1.362353e-02
2.790762e+02	-1.378111e-02
2.806882e+02	-1.394051e-02
2.823094e+02	-1.410175e-02
2.839400e+02	-1.426486e-02
2.855800e+02	-1.442984e-02
2.872295e+02	-1.459674e-02
2.888886e+02	-1.476555e-02
2.905572e+02	-1.493632e-02
2.922354e+02	-1.510906e-02
2.939234e+02	-1.528379e-02
2.956211e+02	-1.546054e-02
2.973286e+02	-1.563933e-02
2.990459e+02	-1.582019e-02
3.007732e+02	-1.600313e-02
3.025104e+02	-1.618818e-02
3.042577e+02	-1.637537e-02
3.060151e+02	-1.656472e-02
3.077826e+02	-1.675626e-02
3.095604e+02	-1.695000e-02
3.113484e+02	-1.714599e-02
3.131467e+02	-1.734423e-02
3.149554e+02	-1.754476e-02
3.167746e+02	-1.774760e-02
3.186043e+02	-1.795279e-02
3.204445e+02	-1.816034e-02
3.222954e+02	-1.837028e-02
3.241570e+02	-1.858265e-02
3.260293e+02	-1.879747e-02
3.279124e+02	-1.901476e-02
3.298064e+02	-1.923456e-02
3.317114e+02	-1.945690e-02
3.336273e+02	-1.968180e-02
3.355544e+02	-1.990929e-02
3.374925e+02	-2.013941e-02
3.394418e+02	-2.037218e-02
3.414024e+02	-2.060764e-02
3.433744e+02	-2.084581e-02
3.453577e+02	-2.108672e-02
3.473525e+02	-2.133042e-02
3.493588e+02	-2.157692e-02
3.513766e+02	-2.182626e-02
3.534062e+02	-2.207848e-02
3.554474e+02	-2.233360e-02
3.575005e+02	-2.259167e-02
3.595654e+02	-2.285271e-02
3.616422e+02	-2.311676e-02
3.637311e+02	-2.338385e-02
3.658320e+02	-2.365401e-02
3.679450e+02	-2.392729e-02
3.700702e+02	-2.420372e-02
3.722077e+02	-2.448334e-02
3.743576e+02	-2.476617e-02
3.765199e+02	-2.505226e-02
3.786946e+02	-2.534165e-02
3.808820e+02	-2.563437e-02
3.830819e+02	-2.593046e-02
3.852946e+02	-2.622996e-02
3.875200e+02	-2.653291e-02
3.897583e+02	-2.683935e-02
3.920096e+02	-2.714931e-02
3.942738e+02	-2.746285e-02
3.965511e+02	-2.777999e-02
3.988416e+02	-2.810079e-02
4.011452e+02	-2.842527e-02
4.034622e+02	-2.875349e-02
4.057926e+02	-2.908549e-02
4.081365e+02	-2.942131e-02
4.104938e+02	-2.976099e-02
4.128648e+02	-3.010458e-02
4.152495e+02	-3.045212e-02
4.176480e+02	-3.080366e-02
4.200603e+02	-3.115925e-02
4.224866e+02	-3.151892e-02
4.249268e+02	-3.188273e-02
4.273812e+02	-3.225072e-02
4.298497e+02	-3.262295e-02
4.323325e+02	-3.299945e-02
4.348297e+02	-3.338029e-02
4.373412e+02	-3.376550e-02
4.398673e+02	-3.415514e-02
4.424079e+02	-3.454926e-02
4.449633e+02	-3.494790e-02
4.475334e+02	-3.535113e-02
4.501183e+02	-3.575899e-02
4.527182e+02	-3.617154e-02
4.553330e+02	-3.658883e-02
4.579630e+02	-3.701091e-02
4.606082e+02	-3.743783e-02
4.632687e+02	-3.786966e-02
4.659445e+02	-3.830645e-02
4.686358e+02	-3.874826e-02
4.713426e+02	-3.919514e-02
4.740650e+02	-3.964714e-02
4.768032e+02	-4.010434e-02
4.795572e+02	-4.056678e-02
4.823271e+02	-4.103454e-02
4.851130e+02	-4.150765e-02
4.879150e+02	-4.198620e-02
4.907332e+02	-4.247024e-02
4.935676e+02	-4.295983e-02
4.964185e+02	-4.345503e-02
4.992858e+02	-4.395592e-02
5.021696e+02	-4.446254e-02
5.050701e+02	-4.497498e-02
5.079874e+02	-4.549329e-02
5.109215e+02	-4.601754e-02
5.138726e+02	-4.654781e-02
5.168407e+02	-4.708415e-02
5.198259e+02	-4.762663e-02
5.228284e+02	-4.817533e-02
5.258482e+02	-4.873032e-02
5.288855e+02	-4.929166e-02
5.319403e+02	-4.985943e-02
5.350128e+02	-5.043371e-02
5.381030e+02	-5.101456e-02
5.412111e+02	-5.160206e-02
5.443371e+02	-5.219628e-02
5.474812e+02	-5.279731e-02
5.506434e+02	-5.340521e-02
5.538239e+02	-5.402007e-02
5.570228e+02	-5.464196e-02
5.602401e+02	-5.527097e-02
5.634760e+02	-5.590717e-02
5.667306e+02	-5.655064e-02
5.700040e+02	-5.720148e-02
5.732964e+02	-5.785975e-02
5.766077e+02	-5.852555e-02
5.799382e+02	-5.919896e-02
5.832879e+02	-5.988006e-02
5.866569e+02	-6.056894e-02
5.900454e+02	-6.126569e-02
5.934535e+02	-6.197040e-02
5.968813e+02	-6.268316e-02
6.003288e+02	-6.340405e-02
6.037963e+02	-6.413318e-02
6.072838e+02	-6.487062e-02
6.107914e+02	-6.561648e-02
6.143194e+02	-6.637085e-02
6.178676e+02	-6.713383e-02
6.214364e+02	-6.790551e-02
6.250258e+02	-6.868599e-02
6.286359e+02	-6.947536e-02
6.322669e+02	-7.027374e-02
6.359189e+02	-7.108121e-02
6.395919e+02	-7.189789e-02
6.432862e+02	-7.272387e-02
6.470017e+02	-7.355925e-02
6.507388e+02	-7.440416e-02
6.544974e+02	-7.525868e-02
6.582778e+02	-7.612293e-02
6.620800e+02	-7.699701e-02
6.659041e+02	-7.788105e-02
6.697504e+02	-7.877514e-02
6.736188e+02	-7.967940e-02
6.775096e+02	-8.059394e-02
6.814229e+02	-8.151888e-02
6.853587e+02	-8.245434e-02
6.893173e+02	-8.340042e-02
6.932988e+02	-8.435726e-02
6.973033e+02	-8.532497e-02
7.013309e+02	-8.630366e-02
