Frequency(Hz)	Magnitude(dB)
1.000000e+01	-2.082527e+00
1.005776e+01	-2.101522e+00
1.011585e+01	-2.120869e+00
1.017428e+01	-2.140286e+00
1.023305e+01	-2.159863e+00
1.029215e+01	-2.179436e+00
1.035160e+01	-2.199460e+00
1.041139e+01	-2.219153e+00
1.047153e+01	-2.239305e+00
1.053201e+01	-2.259678e+00
1.059284e+01	-2.280196e+00
1.065403e+01	-2.300496e+00
1.071556e+01	-2.321316e+00
1.077746e+01	-2.341900e+00
1.083971e+01	-2.362877e+00
1.090232e+01	-2.383765e+00
1.096529e+01	-2.404958e+00
1.102862e+01	-2.426615e+00
1.109232e+01	-2.447924e+00
1.115639e+01	-2.469480e+00
1.122083e+01	-2.491579e+00
1.128564e+01	-2.513257e+00
1.135083e+01	-2.535268e+00
1.141639e+01	-2.557452e+00
1.148233e+01	-2.579672e+00
1.154865e+01	-2.602341e+00
1.161536e+01	-2.624995e+00
1.168245e+01	-2.647392e+00
1.174992e+01	-2.670535e+00
1.181779e+01	-2.693644e+00
1.188605e+01	-2.716952e+00
1.195470e+01	-2.740175e+00
1.202375e+01	-2.763733e+00
1.209320e+01	-2.787061e+00
1.216305e+01	-2.811096e+00
1.223330e+01	-2.834901e+00
1.230396e+01	-2.858791e+00
1.237503e+01	-2.882996e+00
1.244651e+01	-2.907340e+00
1.251840e+01	-2.931941e+00
1.259070e+01	-2.956662e+00
1.266343e+01	-2.981501e+00
1.273657e+01	-3.006576e+00
1.281014e+01	-3.031419e+00
1.288413e+01	-3.056427e+00
1.295855e+01	-3.081943e+00
1.303339e+01	-3.107395e+00
1.310867e+01	-3.133097e+00
1.318439e+01	-3.158715e+00
1.326054e+01	-3.184816e+00
1.333713e+01	-3.210786e+00
1.341417e+01	-3.237019e+00
1.349165e+01	-3.263213e+00
1.356958e+01	-3.290041e+00
1.364795e+01	-3.316527e+00
1.372678e+01	-3.343266e+00
1.380607e+01	-3.370206e+00
1.388581e+01	-3.397262e+00
1.396602e+01	-3.424742e+00
1.404668e+01	-3.451806e+00
1.412782e+01	-3.479514e+00
1.420942e+01	-3.507253e+00
1.429149e+01	-3.534902e+00
1.437404e+01	-3.562729e+00
1.445706e+01	-3.590958e+00
1.454057e+01	-3.619119e+00
1.462455e+01	-3.647650e+00
1.470902e+01	-3.676108e+00
1.479398e+01	-3.704547e+00
1.487943e+01	-3.733386e+00
1.496537e+01	-3.762242e+00
1.505181e+01	-3.791356e+00
1.513875e+01	-3.820436e+00
1.522619e+01	-3.849674e+00
1.531414e+01	-3.879292e+00
1.540259e+01	-3.908932e+00
1.549156e+01	-3.938910e+00
1.558103e+01	-3.968627e+00
1.567103e+01	-3.998639e+00
1.576155e+01	-4.028721e+00
1.585258e+01	-4.059183e+00
1.594415e+01	-4.089471e+00
1.603624e+01	-4.119934e+00
1.612886e+01	-4.150839e+00
1.622202e+01	-4.181574e+00
1.631572e+01	-4.212720e+00
1.640996e+01	-4.243901e+00
1.650474e+01	-4.275301e+00
1.660008e+01	-4.306359e+00
1.669596e+01	-4.338210e+00
1.679239e+01	-4.369632e+00
1.688938e+01	-4.401562e+00
1.698694e+01	-4.433438e+00
1.708505e+01	-4.465412e+00
1.718373e+01	-4.497582e+00
1.728299e+01	-4.530079e+00
1.738281e+01	-4.562400e+00
1.748322e+01	-4.595227e+00
1.758420e+01	-4.627984e+00
1.768576e+01	-4.660835e+00
1.778792e+01	-4.693633e+00
1.789066e+01	-4.726771e+00
1.799399e+01	-4.759896e+00
1.809793e+01	-4.793271e+00
1.820246e+01	-4.826702e+00
1.830760e+01	-4.860373e+00
1.841334e+01	-4.894172e+00
1.851969e+01	-4.928135e+00
1.862666e+01	-4.962086e+00
1.873425e+01	-4.996398e+00
1.884246e+01	-5.030691e+00
1.895129e+01	-5.064949e+00
1.906075e+01	-5.099239e+00
1.917085e+01	-5.134071e+00
1.928158e+01	-5.168622e+00
1.939295e+01	-5.203757e+00
1.950496e+01	-5.238546e+00
1.961762e+01	-5.273536e+00
1.973093e+01	-5.308948e+00
1.984490e+01	-5.344474e+00
1.995952e+01	-5.380039e+00
2.007480e+01	-5.415665e+00
2.019076e+01	-5.451060e+00
2.030738e+01	-5.487213e+00
2.042467e+01	-5.522790e+00
2.054264e+01	-5.558671e+00
2.066130e+01	-5.595155e+00
2.078064e+01	-5.631382e+00
2.090066e+01	-5.667907e+00
2.102139e+01	-5.704624e+00
2.114280e+01	-5.740916e+00
2.126492e+01	-5.777593e+00
2.138775e+01	-5.814582e+00
2.151128e+01	-5.851690e+00
2.163553e+01	-5.888418e+00
2.176050e+01	-5.925704e+00
2.188619e+01	-5.962885e+00
2.201260e+01	-6.000845e+00
2.213974e+01	-6.037976e+00
2.226762e+01	-6.075529e+00
2.239624e+01	-6.113233e+00
2.252560e+01	-6.151615e+00
2.265571e+01	-6.189412e+00
2.278656e+01	-6.227471e+00
2.291818e+01	-6.265606e+00
2.305055e+01	-6.303262e+00
2.318369e+01	-6.342183e+00
2.331760e+01	-6.380489e+00
2.345228e+01	-6.418982e+00
2.358774e+01	-6.457870e+00
2.372398e+01	-6.496694e+00
2.386101e+01	-6.535320e+00
2.399883e+01	-6.574344e+00
2.413745e+01	-6.613143e+00
2.427686e+01	-6.652702e+00
2.441709e+01	-6.691580e+00
2.455812e+01	-6.731083e+00
2.469997e+01	-6.770677e+00
2.484263e+01	-6.810189e+00
2.498612e+01	-6.849967e+00
2.513044e+01	-6.889429e+00
2.527559e+01	-6.929248e+00
2.542158e+01	-6.969482e+00
2.556842e+01	-7.009389e+00
2.571610e+01	-7.049257e+00
2.586463e+01	-7.089316e+00
2.601403e+01	-7.129587e+00
2.616428e+01	-7.169913e+00
2.631541e+01	-7.210566e+00
2.646740e+01	-7.251168e+00
2.662028e+01	-7.291872e+00
2.677404e+01	-7.332831e+00
2.692868e+01	-7.373472e+00
2.708422e+01	-7.414905e+00
2.724066e+01	-7.455244e+00
2.739800e+01	-7.496385e+00
2.755625e+01	-7.537494e+00
2.771541e+01	-7.578827e+00
2.787550e+01	-7.620045e+00
2.803650e+01	-7.661760e+00
2.819844e+01	-7.703129e+00
2.836131e+01	-7.744709e+00
2.852513e+01	-7.786404e+00
2.868989e+01	-7.828093e+00
2.885560e+01	-7.870246e+00
2.902227e+01	-7.912003e+00
2.918990e+01	-7.953916e+00
2.935850e+01	-7.996083e+00
2.952807e+01	-8.037978e+00
2.969863e+01	-8.080287e+00
2.987016e+01	-8.122354e+00
3.004269e+01	-8.164983e+00
3.021622e+01	-8.206863e+00
3.039075e+01	-8.249468e+00
3.056628e+01	-8.292319e+00
3.074283e+01	-8.335125e+00
3.092040e+01	-8.377407e+00
3.109900e+01	-8.420260e+00
3.127862e+01	-8.463489e+00
3.145929e+01	-8.506441e+00
3.164099e+01	-8.549537e+00
3.182375e+01	-8.592464e+00
3.200756e+01	-8.635231e+00
3.219244e+01	-8.678841e+00
3.237838e+01	-8.722162e+00
3.256540e+01	-8.765300e+00
3.275349e+01	-8.808344e+00
3.294268e+01	-8.852227e+00
3.313295e+01	-8.895799e+00
3.332433e+01	-8.939525e+00
3.351681e+01	-8.983640e+00
3.371040e+01	-9.026738e+00
3.390511e+01	-9.070254e+00
3.410094e+01	-9.114320e+00
3.429791e+01	-9.158338e+00
3.449601e+01	-9.202502e+00
3.469526e+01	-9.246350e+00
3.489566e+01	-9.290480e+00
3.509721e+01	-9.334756e+00
3.529993e+01	-9.379080e+00
3.550382e+01	-9.423266e+00
3.570889e+01	-9.467784e+00
3.591515e+01	-9.511934e+00
3.612259e+01	-9.556553e+00
3.633123e+01	-9.600687e+00
3.654108e+01	-9.645631e+00
3.675214e+01	-9.689938e+00
3.696442e+01	-9.734942e+00
3.717792e+01	-9.780034e+00
3.739266e+01	-9.824300e+00
3.760864e+01	-9.869231e+00
3.782587e+01	-9.914594e+00
3.804435e+01	-9.958732e+00
3.826409e+01	-1.000409e+01
3.848510e+01	-1.004892e+01
3.870739e+01	-1.009429e+01
3.893096e+01	-1.013953e+01
3.915583e+01	-1.018458e+01
3.938199e+01	-1.022993e+01
3.960946e+01	-1.027538e+01
3.983824e+01	-1.032050e+01
4.006834e+01	-1.036601e+01
4.029978e+01	-1.041138e+01
4.053255e+01	-1.045678e+01
4.076666e+01	-1.050293e+01
4.100213e+01	-1.054791e+01
4.123896e+01	-1.059365e+01
4.147715e+01	-1.063984e+01
4.171672e+01	-1.068542e+01
4.195767e+01	-1.073043e+01
4.220002e+01	-1.077699e+01
4.244377e+01	-1.082240e+01
4.268892e+01	-1.086835e+01
4.293549e+01	-1.091465e+01
4.318348e+01	-1.096030e+01
4.343291e+01	-1.100733e+01
4.368377e+01	-1.105243e+01
4.393609e+01	-1.109881e+01
4.418986e+01	-1.114446e+01
4.444510e+01	-1.119085e+01
4.470182e+01	-1.123720e+01
4.496001e+01	-1.128326e+01
4.521970e+01	-1.132973e+01
4.548089e+01	-1.137665e+01
4.574358e+01	-1.142259e+01
4.600779e+01	-1.146898e+01
4.627353e+01	-1.151571e+01
4.654081e+01	-1.156197e+01
4.680963e+01	-1.160873e+01
4.708000e+01	-1.165523e+01
4.735193e+01	-1.170154e+01
4.762543e+01	-1.174814e+01
4.790051e+01	-1.179481e+01
4.817719e+01	-1.184190e+01
4.845545e+01	-1.188899e+01
4.873533e+01	-1.193496e+01
4.901682e+01	-1.198281e+01
4.929994e+01	-1.202871e+01
4.958470e+01	-1.207623e+01
4.987110e+01	-1.212289e+01
5.015915e+01	-1.216938e+01
5.044887e+01	-1.221717e+01
5.074026e+01	-1.226405e+01
5.103333e+01	-1.231122e+01
5.132810e+01	-1.235770e+01
5.162457e+01	-1.240543e+01
5.192275e+01	-1.245276e+01
5.222265e+01	-1.249907e+01
5.252429e+01	-1.254614e+01
5.282767e+01	-1.259435e+01
5.313280e+01	-1.264214e+01
5.343969e+01	-1.268953e+01
5.374836e+01	-1.273577e+01
5.405880e+01	-1.278290e+01
5.437105e+01	-1.283101e+01
5.468509e+01	-1.287788e+01
5.500095e+01	-1.292549e+01
5.531863e+01	-1.297388e+01
5.563815e+01	-1.302078e+01
5.595951e+01	-1.306788e+01
5.628273e+01	-1.311612e+01
5.660782e+01	-1.316294e+01
5.693479e+01	-1.321121e+01
5.726364e+01	-1.325849e+01
5.759439e+01	-1.330680e+01
5.792705e+01	-1.335385e+01
5.826164e+01	-1.340190e+01
5.859815e+01	-1.344995e+01
5.893662e+01	-1.349709e+01
5.927703e+01	-1.354503e+01
5.961941e+01	-1.359380e+01
5.996377e+01	-1.364127e+01
6.031012e+01	-1.368880e+01
6.065847e+01	-1.373628e+01
6.100883e+01	-1.378388e+01
6.136121e+01	-1.383246e+01
6.171563e+01	-1.388065e+01
6.207210e+01	-1.392820e+01
6.243063e+01	-1.397687e+01
6.279122e+01	-1.402496e+01
6.315390e+01	-1.407236e+01
6.351868e+01	-1.412069e+01
6.388556e+01	-1.416903e+01
6.425456e+01	-1.421642e+01
6.462569e+01	-1.426541e+01
6.499897e+01	-1.431387e+01
6.537440e+01	-1.436114e+01
6.575200e+01	-1.440927e+01
6.613178e+01	-1.445821e+01
6.651375e+01	-1.450615e+01
6.689793e+01	-1.455421e+01
6.728433e+01	-1.460244e+01
6.767297e+01	-1.465139e+01
6.806384e+01	-1.469917e+01
6.845698e+01	-1.474702e+01
6.885238e+01	-1.479526e+01
6.925007e+01	-1.484454e+01
6.965005e+01	-1.489351e+01
7.005235e+01	-1.494040e+01
7.045697e+01	-1.498851e+01
7.086393e+01	-1.503729e+01
7.127323e+01	-1.508683e+01
7.168490e+01	-1.513584e+01
7.209895e+01	-1.518343e+01
7.251539e+01	-1.523212e+01
7.293424e+01	-1.528063e+01
7.335551e+01	-1.533050e+01
7.377920e+01	-1.537764e+01
7.420535e+01	-1.542608e+01
7.463396e+01	-1.547443e+01
7.506504e+01	-1.552433e+01
7.549861e+01	-1.557250e+01
7.593469e+01	-1.562108e+01
7.637328e+01	-1.566937e+01
7.681441e+01	-1.571813e+01
7.725809e+01	-1.576584e+01
7.770433e+01	-1.581676e+01
7.815315e+01	-1.586407e+01
7.860456e+01	-1.591294e+01
7.905857e+01	-1.596211e+01
7.951521e+01	-1.601009e+01
7.997449e+01	-1.605942e+01
8.043642e+01	-1.610838e+01
8.090102e+01	-1.615722e+01
8.136830e+01	-1.620550e+01
8.183828e+01	-1.625468e+01
8.231097e+01	-1.630325e+01
8.278640e+01	-1.635196e+01
8.326457e+01	-1.640060e+01
8.374550e+01	-1.644963e+01
8.422921e+01	-1.650050e+01
8.471572e+01	-1.654826e+01
8.520503e+01	-1.659674e+01
8.569717e+01	-1.664397e+01
8.619215e+01	-1.669523e+01
8.669000e+01	-1.674248e+01
8.719071e+01	-1.679318e+01
8.769432e+01	-1.684180e+01
8.820084e+01	-1.689143e+01
8.871029e+01	-1.693979e+01
8.922267e+01	-1.698918e+01
8.973802e+01	-1.703699e+01
9.025634e+01	-1.708671e+01
9.077766e+01	-1.713638e+01
9.130199e+01	-1.718542e+01
9.182935e+01	-1.723400e+01
9.235975e+01	-1.728302e+01
9.289321e+01	-1.733216e+01
9.342976e+01	-1.738243e+01
9.396941e+01	-1.743112e+01
9.451217e+01	-1.747992e+01
9.505807e+01	-1.752839e+01
9.560712e+01	-1.757879e+01
9.615934e+01	-1.762662e+01
9.671476e+01	-1.767671e+01
9.727338e+01	-1.772518e+01
9.783522e+01	-1.777369e+01
9.840032e+01	-1.782415e+01
9.896867e+01	-1.787272e+01
9.954031e+01	-1.792327e+01
1.001153e+02	-1.797139e+01
1.006935e+02	-1.801934e+01
1.012751e+02	-1.806994e+01
1.018601e+02	-1.811803e+01
1.024484e+02	-1.816882e+01
1.030402e+02	-1.821715e+01
1.036353e+02	-1.826657e+01
1.042339e+02	-1.831569e+01
1.048360e+02	-1.836614e+01
1.054415e+02	-1.841512e+01
1.060505e+02	-1.846449e+01
1.066631e+02	-1.851370e+01
1.072791e+02	-1.856528e+01
1.078988e+02	-1.861456e+01
1.085220e+02	-1.866271e+01
1.091488e+02	-1.871155e+01
1.097793e+02	-1.876011e+01
1.104133e+02	-1.880995e+01
1.110511e+02	-1.886056e+01
1.116925e+02	-1.890877e+01
1.123376e+02	-1.895842e+01
1.129865e+02	-1.900857e+01
1.136391e+02	-1.905775e+01
1.142955e+02	-1.910740e+01
1.149556e+02	-1.915607e+01
1.156196e+02	-1.920508e+01
1.162874e+02	-1.925634e+01
1.169591e+02	-1.930374e+01
1.176347e+02	-1.935396e+01
1.183141e+02	-1.940345e+01
1.189975e+02	-1.945200e+01
1.196848e+02	-1.950208e+01
1.203761e+02	-1.955109e+01
1.210714e+02	-1.960098e+01
1.217707e+02	-1.965071e+01
1.224740e+02	-1.969997e+01
1.231814e+02	-1.975099e+01
1.238929e+02	-1.979797e+01
1.246085e+02	-1.984759e+01
1.253283e+02	-1.989846e+01
1.260522e+02	-1.994730e+01
1.267802e+02	-1.999669e+01
1.275125e+02	-2.004634e+01
1.282490e+02	-2.009665e+01
1.289898e+02	-2.014571e+01
1.297348e+02	-2.019398e+01
1.304842e+02	-2.024569e+01
1.312378e+02	-2.029451e+01
1.319959e+02	-2.034359e+01
1.327583e+02	-2.039376e+01
1.335251e+02	-2.044241e+01
1.342963e+02	-2.049133e+01
1.350720e+02	-2.054235e+01
1.358522e+02	-2.059353e+01
1.366368e+02	-2.064349e+01
1.374260e+02	-2.068973e+01
1.382198e+02	-2.073866e+01
1.390182e+02	-2.079195e+01
1.398211e+02	-2.083950e+01
1.406287e+02	-2.089079e+01
1.414410e+02	-2.093852e+01
1.422579e+02	-2.098821e+01
1.430796e+02	-2.103867e+01
1.439060e+02	-2.108955e+01
1.447372e+02	-2.113663e+01
1.455732e+02	-2.118806e+01
1.464141e+02	-2.123704e+01
1.472597e+02	-2.128504e+01
1.481103e+02	-2.133757e+01
1.489658e+02	-2.138656e+01
1.498262e+02	-2.143545e+01
1.506916e+02	-2.148608e+01
1.515620e+02	-2.153477e+01
1.524374e+02	-2.158373e+01
1.533179e+02	-2.163287e+01
1.542034e+02	-2.168374e+01
1.550941e+02	-2.173346e+01
1.559899e+02	-2.178500e+01
1.568909e+02	-2.183499e+01
1.577971e+02	-2.188197e+01
1.587085e+02	-2.193351e+01
1.596252e+02	-2.198184e+01
1.605472e+02	-2.203050e+01
1.614745e+02	-2.208264e+01
1.624072e+02	-2.212907e+01
1.633453e+02	-2.218074e+01
1.642887e+02	-2.223082e+01
1.652377e+02	-2.228115e+01
1.661921e+02	-2.232995e+01
1.671520e+02	-2.238285e+01
1.681175e+02	-2.242919e+01
1.690885e+02	-2.247989e+01
1.700651e+02	-2.252917e+01
1.710474e+02	-2.257848e+01
1.720354e+02	-2.262796e+01
1.730291e+02	-2.267894e+01
1.740285e+02	-2.272899e+01
1.750337e+02	-2.277737e+01
1.760446e+02	-2.282879e+01
1.770615e+02	-2.287835e+01
1.780842e+02	-2.292909e+01
1.791128e+02	-2.297995e+01
1.801473e+02	-2.302630e+01
1.811878e+02	-2.307738e+01
1.822344e+02	-2.312754e+01
1.832870e+02	-2.317649e+01
1.843456e+02	-2.322700e+01
1.854104e+02	-2.327854e+01
1.864813e+02	-2.332573e+01
1.875584e+02	-2.337709e+01
1.886418e+02	-2.342812e+01
1.897313e+02	-2.347584e+01
1.908272e+02	-2.352489e+01
1.919294e+02	-2.357603e+01
1.930380e+02	-2.362515e+01
1.941530e+02	-2.367345e+01
1.952744e+02	-2.372294e+01
1.964023e+02	-2.377404e+01
1.975367e+02	-2.382740e+01
1.986777e+02	-2.387484e+01
1.998252e+02	-2.392269e+01
2.009794e+02	-2.397387e+01
2.021403e+02	-2.402475e+01
2.033078e+02	-2.407308e+01
2.044821e+02	-2.412504e+01
2.056632e+02	-2.417335e+01
2.068511e+02	-2.422452e+01
2.080459e+02	-2.427428e+01
2.092475e+02	-2.432298e+01
2.104561e+02	-2.437243e+01
2.116717e+02	-2.442263e+01
2.128943e+02	-2.447164e+01
2.141240e+02	-2.452208e+01
2.153608e+02	-2.457185e+01
2.166047e+02	-2.462293e+01
2.178558e+02	-2.467009e+01
2.191141e+02	-2.472115e+01
2.203797e+02	-2.477100e+01
2.216526e+02	-2.482277e+01
2.229329e+02	-2.486977e+01
2.242205e+02	-2.492248e+01
2.255156e+02	-2.497354e+01
2.268182e+02	-2.502025e+01
2.281283e+02	-2.507094e+01
2.294459e+02	-2.512055e+01
2.307712e+02	-2.517023e+01
2.321041e+02	-2.522319e+01
2.334447e+02	-2.527150e+01
2.347931e+02	-2.532112e+01
2.361493e+02	-2.537193e+01
2.375133e+02	-2.542063e+01
2.388851e+02	-2.547234e+01
2.402649e+02	-2.552265e+01
2.416527e+02	-2.557098e+01
2.430484e+02	-2.561806e+01
2.444523e+02	-2.567000e+01
2.458642e+02	-2.571894e+01
2.472843e+02	-2.576999e+01
2.487126e+02	-2.582125e+01
2.501492e+02	-2.586887e+01
2.515940e+02	-2.592402e+01
2.530472e+02	-2.597234e+01
2.545088e+02	-2.602234e+01
2.559789e+02	-2.607397e+01
2.574574e+02	-2.611787e+01
2.589444e+02	-2.616975e+01
2.604401e+02	-2.621964e+01
2.619444e+02	-2.627051e+01
2.634574e+02	-2.632022e+01
2.649791e+02	-2.637162e+01
2.665096e+02	-2.641942e+01
2.680489e+02	-2.647521e+01
2.695972e+02	-2.651821e+01
2.711544e+02	-2.656849e+01
2.727205e+02	-2.662047e+01
2.742958e+02	-2.667007e+01
2.758801e+02	-2.671702e+01
2.774736e+02	-2.676890e+01
2.790762e+02	-2.682060e+01
2.806882e+02	-2.686949e+01
2.823094e+02	-2.691925e+01
2.839400e+02	-2.696691e+01
2.855800e+02	-2.702097e+01
2.872295e+02	-2.706902e+01
2.888886e+02	-2.712250e+01
2.905572e+02	-2.717074e+01
2.922354e+02	-2.721988e+01
2.939234e+02	-2.726934e+01
2.956211e+02	-2.731909e+01
2.973286e+02	-2.736976e+01
2.990459e+02	-2.741697e+01
3.007732e+02	-2.746984e+01
3.025104e+02	-2.751990e+01
3.042577e+02	-2.756990e+01
3.060151e+02	-2.761876e+01
3.077826e+02	-2.767066e+01
3.095604e+02	-2.771974e+01
3.113484e+02	-2.777255e+01
3.131467e+02	-2.781634e+01
3.149554e+02	-2.787052e+01
3.167746e+02	-2.791777e+01
3.186043e+02	-2.797158e+01
3.204445e+02	-2.801637e+01
3.222954e+02	-2.807038e+01
3.241570e+02	-2.812432e+01
3.260293e+02	-2.816983e+01
3.279124e+02	-2.822321e+01
3.298064e+02	-2.826890e+01
3.317114e+02	-2.832140e+01
3.336273e+02	-2.837216e+01
3.355544e+02	-2.841627e+01
3.374925e+02	-2.847201e+01
3.394418e+02	-2.852062e+01
3.414024e+02	-2.857043e+01
3.433744e+02	-2.862097e+01
3.453577e+02	-2.867313e+01
3.473525e+02	-2.871782e+01
3.493588e+02	-2.877135e+01
3.513766e+02	-2.882318e+01
3.534062e+02	-2.887234e+01
3.554474e+02	-2.892088e+01
3.575005e+02	-2.896786e+01
3.595654e+02	-2.902228e+01
3.616422e+02	-2.907549e+01
3.637311e+02	-2.912203e+01
3.658320e+02	-2.917191e+01
3.679450e+02	-2.922112e+01
3.700702e+02	-2.927457e+01
3.722077e+02	-2.931589e+01
3.743576e+02	-2.937115e+01
3.765199e+02	-2.942224e+01
3.786946e+02	-2.947271e+01
3.808820e+02	-2.952061e+01
3.830819e+02	-2.957349e+01
3.852946e+02	-2.962601e+01
3.875200e+02	-2.967226e+01
3.897583e+02	-2.971834e+01
3.920096e+02	-2.976743e+01
3.942738e+02	-2.982075e+01
3.965511e+02	-2.987613e+01
3.988416e+02	-2.992339e+01
4.011452e+02	-2.997161e+01
4.034622e+02	-3.002380e+01
4.057926e+02	-3.007160e+01
4.081365e+02	-3.012250e+01
4.104938e+02	-3.017292e+01
4.128648e+02	-3.022786e+01
4.152495e+02	-3.027284e+01
4.176480e+02	-3.032345e+01
4.200603e+02	-3.037594e+01
4.224866e+02	-3.042526e+01
4.249268e+02	-3.047398e+01
4.273812e+02	-3.052409e+01
4.298497e+02	-3.057305e+01
4.323325e+02	-3.062819e+01
4.348297e+02	-3.067098e+01
4.373412e+02	-3.072665e+01
4.398673e+02	-3.077689e+01
4.424079e+02	-3.082887e+01
4.449633e+02	-3.087239e+01
4.475334e+02	-3.092845e+01
4.501183e+02	-3.097744e+01
4.527182e+02	-3.102078e+01
4.553330e+02	-3.107889e+01
4.579630e+02	-3.112380e+01
4.606082e+02	-3.117895e+01
4.632687e+02	-3.122836e+01
4.659445e+02	-3.128284e+01
4.686358e+02	-3.132412e+01
4.713426e+02	-3.137864e+01
4.740650e+02	-3.141972e+01
4.768032e+02	-3.147431e+01
4.795572e+02	-3.152473e+01
4.823271e+02	-3.157906e+01
4.851130e+02	-3.162529e+01
4.879150e+02	-3.167899e+01
4.907332e+02	-3.172562e+01
4.935676e+02	-3.177343e+01
4.964185e+02	-3.182452e+01
4.992858e+02	-3.187515e+01
5.021696e+02	-3.192604e+01
5.050701e+02	-3.197975e+01
5.079874e+02	-3.202680e+01
5.109215e+02	-3.207926e+01
5.138726e+02	-3.213191e+01
5.168407e+02	-3.217979e+01
5.198259e+02	-3.222394e+01
5.228284e+02	-3.228459e+01
5.258482e+02	-3.232475e+01
5.288855e+02	-3.238056e+01
5.319403e+02	-3.243363e+01
5.350128e+02	-3.247797e+01
5.381030e+02	-3.253048e+01
5.412111e+02	-3.257976e+01
5.443371e+02	-3.263599e+01
5.474812e+02	-3.267718e+01
5.506434e+02	-3.272848e+01
5.538239e+02	-3.277913e+01
5.570228e+02	-3.282282e+01
5.602401e+02	-3.287818e+01
5.634760e+02	-3.293351e+01
5.667306e+02	-3.298558e+01
5.700040e+02	-3.302756e+01
5.732964e+02	-3.307868e+01
5.766077e+02	-3.313291e+01
5.799382e+02	-3.318531e+01
5.832879e+02	-3.323952e+01
5.866569e+02	-3.328009e+01
5.900454e+02	-3.333035e+01
5.934535e+02	-3.338516e+01
5.968813e+02	-3.343349e+01
6.003288e+02	-3.348394e+01
6.037963e+02	-3.353446e+01
6.072838e+02	-3.358811e+01
6.107914e+02	-3.363519e+01
6.143194e+02	-3.368935e+01
6.178676e+02	-3.374176e+01
6.214364e+02	-3.378968e+01
6.250258e+02	-3.383639e+01
6.286359e+02	-3.389410e+01
6.322669e+02	-3.392862e+01
6.359189e+02	-3.398679e+01
6.395919e+02	-3.403674e+01
6.432862e+02	-3.408676e+01
6.470017e+02	-3.413490e+01
6.507388e+02	-3.419359e+01
6.544974e+02	-3.424610e+01
6.582778e+02	-3.429214e+01
6.620800e+02	-3.433783e+01
6.659041e+02	-3.439185e+01
6.697504e+02	-3.443940e+01
6.736188e+02	-3.448407e+01
6.775096e+02	-3.453895e+01
6.814229e+02	-3.459597e+01
6.853587e+02	-3.464362e+01
6.893173e+02	-3.470045e+01
6.932988e+02	-3.474246e+01
6.973033e+02	-3.480089e+01
7.013309e+02	-3.484134e+01
