Frequency(Hz)	Magnitude(dB)
1.000000e+01	-2.048648e+00
1.005776e+01	-2.067341e+00
1.011585e+01	-2.086602e+00
1.017428e+01	-2.105577e+00
1.023305e+01	-2.124751e+00
1.029215e+01	-2.144287e+00
1.035160e+01	-2.164048e+00
1.041139e+01	-2.183760e+00
1.047153e+01	-2.203354e+00
1.053201e+01	-2.223327e+00
1.059284e+01	-2.243534e+00
1.065403e+01	-2.263707e+00
1.071556e+01	-2.284258e+00
1.077746e+01	-2.304639e+00
1.083971e+01	-2.325359e+00
1.090232e+01	-2.346322e+00
1.096529e+01	-2.367209e+00
1.102862e+01	-2.388138e+00
1.109232e+01	-2.409310e+00
1.115639e+01	-2.430793e+00
1.122083e+01	-2.452357e+00
1.128564e+01	-2.474006e+00
1.135083e+01	-2.495818e+00
1.141639e+01	-2.517761e+00
1.148233e+01	-2.539525e+00
1.154865e+01	-2.562043e+00
1.161536e+01	-2.584508e+00
1.168245e+01	-2.606994e+00
1.174992e+01	-2.629483e+00
1.181779e+01	-2.652230e+00
1.188605e+01	-2.675436e+00
1.195470e+01	-2.698212e+00
1.202375e+01	-2.721716e+00
1.209320e+01	-2.744843e+00
1.216305e+01	-2.768585e+00
1.223330e+01	-2.791858e+00
1.230396e+01	-2.815808e+00
1.237503e+01	-2.840086e+00
1.244651e+01	-2.864073e+00
1.251840e+01	-2.888099e+00
1.259070e+01	-2.912688e+00
1.266343e+01	-2.937024e+00
1.273657e+01	-2.961553e+00
1.281014e+01	-2.986301e+00
1.288413e+01	-3.011477e+00
1.295855e+01	-3.036577e+00
1.303339e+01	-3.061720e+00
1.310867e+01	-3.086932e+00
1.318439e+01	-3.112687e+00
1.326054e+01	-3.138378e+00
1.333713e+01	-3.164052e+00
1.341417e+01	-3.190139e+00
1.349165e+01	-3.216182e+00
1.356958e+01	-3.242528e+00
1.364795e+01	-3.268867e+00
1.372678e+01	-3.295223e+00
1.380607e+01	-3.321845e+00
1.388581e+01	-3.348801e+00
1.396602e+01	-3.375714e+00
1.404668e+01	-3.402936e+00
1.412782e+01	-3.430244e+00
1.420942e+01	-3.457476e+00
1.429149e+01	-3.485072e+00
1.437404e+01	-3.512719e+00
1.445706e+01	-3.540493e+00
1.454057e+01	-3.568441e+00
1.462455e+01	-3.596271e+00
1.470902e+01	-3.624643e+00
1.479398e+01	-3.653260e+00
1.487943e+01	-3.681807e+00
1.496537e+01	-3.710395e+00
1.505181e+01	-3.739325e+00
1.513875e+01	-3.768314e+00
1.522619e+01	-3.797222e+00
1.531414e+01	-3.826258e+00
1.540259e+01	-3.855827e+00
1.549156e+01	-3.885370e+00
1.558103e+01	-3.915146e+00
1.567103e+01	-3.944854e+00
1.576155e+01	-3.974941e+00
1.585258e+01	-4.004597e+00
1.594415e+01	-4.034859e+00
1.603624e+01	-4.065190e+00
1.612886e+01	-4.095794e+00
1.622202e+01	-4.126496e+00
1.631572e+01	-4.157088e+00
1.640996e+01	-4.187885e+00
1.650474e+01	-4.219198e+00
1.660008e+01	-4.250118e+00
1.669596e+01	-4.281407e+00
1.679239e+01	-4.312565e+00
1.688938e+01	-4.344269e+00
1.698694e+01	-4.376047e+00
1.708505e+01	-4.408096e+00
1.718373e+01	-4.439962e+00
1.728299e+01	-4.471986e+00
1.738281e+01	-4.504285e+00
1.748322e+01	-4.536679e+00
1.758420e+01	-4.569016e+00
1.768576e+01	-4.601770e+00
1.778792e+01	-4.634566e+00
1.789066e+01	-4.667433e+00
1.799399e+01	-4.700471e+00
1.809793e+01	-4.733314e+00
1.820246e+01	-4.766781e+00
1.830760e+01	-4.800153e+00
1.841334e+01	-4.834096e+00
1.851969e+01	-4.867463e+00
1.862666e+01	-4.901420e+00
1.873425e+01	-4.935331e+00
1.884246e+01	-4.969154e+00
1.895129e+01	-5.003519e+00
1.906075e+01	-5.037497e+00
1.917085e+01	-5.071692e+00
1.928158e+01	-5.106475e+00
1.939295e+01	-5.141489e+00
1.950496e+01	-5.176006e+00
1.961762e+01	-5.210967e+00
1.973093e+01	-5.245755e+00
1.984490e+01	-5.280670e+00
1.995952e+01	-5.316286e+00
2.007480e+01	-5.351564e+00
2.019076e+01	-5.386715e+00
2.030738e+01	-5.422849e+00
2.042467e+01	-5.458303e+00
2.054264e+01	-5.494565e+00
2.066130e+01	-5.530454e+00
2.078064e+01	-5.566345e+00
2.090066e+01	-5.602447e+00
2.102139e+01	-5.638933e+00
2.114280e+01	-5.675470e+00
2.126492e+01	-5.711626e+00
2.138775e+01	-5.748288e+00
2.151128e+01	-5.785535e+00
2.163553e+01	-5.822419e+00
2.176050e+01	-5.858932e+00
2.188619e+01	-5.896232e+00
2.201260e+01	-5.933298e+00
2.213974e+01	-5.970756e+00
2.226762e+01	-6.008125e+00
2.239624e+01	-6.045451e+00
2.252560e+01	-6.083344e+00
2.265571e+01	-6.121092e+00
2.278656e+01	-6.158872e+00
2.291818e+01	-6.196733e+00
2.305055e+01	-6.235243e+00
2.318369e+01	-6.273547e+00
2.331760e+01	-6.311459e+00
2.345228e+01	-6.349731e+00
2.358774e+01	-6.388394e+00
2.372398e+01	-6.426659e+00
2.386101e+01	-6.465706e+00
2.399883e+01	-6.504379e+00
2.413745e+01	-6.542829e+00
2.427686e+01	-6.582608e+00
2.441709e+01	-6.621609e+00
2.455812e+01	-6.660533e+00
2.469997e+01	-6.699633e+00
2.484263e+01	-6.738929e+00
2.498612e+01	-6.778662e+00
2.513044e+01	-6.818210e+00
2.527559e+01	-6.857960e+00
2.542158e+01	-6.897545e+00
2.556842e+01	-6.938021e+00
2.571610e+01	-6.977470e+00
2.586463e+01	-7.017781e+00
2.601403e+01	-7.057659e+00
2.616428e+01	-7.097823e+00
2.631541e+01	-7.138176e+00
2.646740e+01	-7.178621e+00
2.662028e+01	-7.219126e+00
2.677404e+01	-7.260182e+00
2.692868e+01	-7.299959e+00
2.708422e+01	-7.341157e+00
2.724066e+01	-7.381640e+00
2.739800e+01	-7.422672e+00
2.755625e+01	-7.463792e+00
2.771541e+01	-7.505211e+00
2.787550e+01	-7.546263e+00
2.803650e+01	-7.587027e+00
2.819844e+01	-7.628619e+00
2.836131e+01	-7.670129e+00
2.852513e+01	-7.711579e+00
2.868989e+01	-7.753444e+00
2.885560e+01	-7.794419e+00
2.902227e+01	-7.836389e+00
2.918990e+01	-7.878395e+00
2.935850e+01	-7.920524e+00
2.952807e+01	-7.962121e+00
2.969863e+01	-8.004221e+00
2.987016e+01	-8.046540e+00
3.004269e+01	-8.088754e+00
3.021622e+01	-8.131280e+00
3.039075e+01	-8.173106e+00
3.056628e+01	-8.216225e+00
3.074283e+01	-8.258834e+00
3.092040e+01	-8.301555e+00
3.109900e+01	-8.343562e+00
3.127862e+01	-8.386682e+00
3.145929e+01	-8.429466e+00
3.164099e+01	-8.472603e+00
3.182375e+01	-8.515070e+00
3.200756e+01	-8.558027e+00
3.219244e+01	-8.601230e+00
3.237838e+01	-8.644363e+00
3.256540e+01	-8.687133e+00
3.275349e+01	-8.730908e+00
3.294268e+01	-8.773986e+00
3.313295e+01	-8.817368e+00
3.332433e+01	-8.861160e+00
3.351681e+01	-8.905207e+00
3.371040e+01	-8.947981e+00
3.390511e+01	-8.992206e+00
3.410094e+01	-9.035740e+00
3.429791e+01	-9.079356e+00
3.449601e+01	-9.123457e+00
3.469526e+01	-9.167241e+00
3.489566e+01	-9.211999e+00
3.509721e+01	-9.256082e+00
3.529993e+01	-9.299444e+00
3.550382e+01	-9.344100e+00
3.570889e+01	-9.388225e+00
3.591515e+01	-9.432383e+00
3.612259e+01	-9.476489e+00
3.633123e+01	-9.520721e+00
3.654108e+01	-9.565872e+00
3.675214e+01	-9.609826e+00
3.696442e+01	-9.654662e+00
3.717792e+01	-9.699630e+00
3.739266e+01	-9.743778e+00
3.760864e+01	-9.789161e+00
3.782587e+01	-9.833990e+00
3.804435e+01	-9.878505e+00
3.826409e+01	-9.923347e+00
3.848510e+01	-9.967483e+00
3.870739e+01	-1.001291e+01
3.893096e+01	-1.005835e+01
3.915583e+01	-1.010329e+01
3.938199e+01	-1.014876e+01
3.960946e+01	-1.019359e+01
3.983824e+01	-1.023860e+01
4.006834e+01	-1.028405e+01
4.029978e+01	-1.032965e+01
4.053255e+01	-1.037501e+01
4.076666e+01	-1.042034e+01
4.100213e+01	-1.046581e+01
4.123896e+01	-1.051136e+01
4.147715e+01	-1.055807e+01
4.171672e+01	-1.060322e+01
4.195767e+01	-1.064791e+01
4.220002e+01	-1.069445e+01
4.244377e+01	-1.074021e+01
4.268892e+01	-1.078571e+01
4.293549e+01	-1.083158e+01
4.318348e+01	-1.087777e+01
4.343291e+01	-1.092353e+01
4.368377e+01	-1.096974e+01
4.393609e+01	-1.101576e+01
4.418986e+01	-1.106163e+01
4.444510e+01	-1.110813e+01
4.470182e+01	-1.115408e+01
4.496001e+01	-1.120106e+01
4.521970e+01	-1.124668e+01
4.548089e+01	-1.129283e+01
4.574358e+01	-1.133977e+01
4.600779e+01	-1.138565e+01
4.627353e+01	-1.143201e+01
4.654081e+01	-1.147852e+01
4.680963e+01	-1.152543e+01
4.708000e+01	-1.157169e+01
4.735193e+01	-1.161772e+01
4.762543e+01	-1.166438e+01
4.790051e+01	-1.171121e+01
4.817719e+01	-1.175772e+01
4.845545e+01	-1.180484e+01
4.873533e+01	-1.185169e+01
4.901682e+01	-1.189791e+01
4.929994e+01	-1.194559e+01
4.958470e+01	-1.199187e+01
4.987110e+01	-1.203857e+01
5.015915e+01	-1.208562e+01
5.044887e+01	-1.213271e+01
5.074026e+01	-1.217941e+01
5.103333e+01	-1.222728e+01
5.132810e+01	-1.227390e+01
5.162457e+01	-1.231998e+01
5.192275e+01	-1.236747e+01
5.222265e+01	-1.241470e+01
5.252429e+01	-1.246204e+01
5.282767e+01	-1.250937e+01
5.313280e+01	-1.255732e+01
5.343969e+01	-1.260366e+01
5.374836e+01	-1.265169e+01
5.405880e+01	-1.269840e+01
5.437105e+01	-1.274610e+01
5.468509e+01	-1.279346e+01
5.500095e+01	-1.284105e+01
5.531863e+01	-1.288746e+01
5.563815e+01	-1.293571e+01
5.595951e+01	-1.298339e+01
5.628273e+01	-1.303066e+01
5.660782e+01	-1.307763e+01
5.693479e+01	-1.312569e+01
5.726364e+01	-1.317389e+01
5.759439e+01	-1.322083e+01
5.792705e+01	-1.326783e+01
5.826164e+01	-1.331643e+01
5.859815e+01	-1.336363e+01
5.893662e+01	-1.341138e+01
5.927703e+01	-1.345960e+01
5.961941e+01	-1.350701e+01
5.996377e+01	-1.355523e+01
6.031012e+01	-1.360278e+01
6.065847e+01	-1.365095e+01
6.100883e+01	-1.369909e+01
6.136121e+01	-1.374648e+01
6.171563e+01	-1.379470e+01
6.207210e+01	-1.384213e+01
6.243063e+01	-1.389068e+01
6.279122e+01	-1.393877e+01
6.315390e+01	-1.398590e+01
6.351868e+01	-1.403420e+01
6.388556e+01	-1.408265e+01
6.425456e+01	-1.412958e+01
6.462569e+01	-1.417839e+01
6.499897e+01	-1.422740e+01
6.537440e+01	-1.427533e+01
6.575200e+01	-1.432306e+01
6.613178e+01	-1.437134e+01
6.651375e+01	-1.441953e+01
6.689793e+01	-1.446862e+01
6.728433e+01	-1.451624e+01
6.767297e+01	-1.456427e+01
6.806384e+01	-1.461278e+01
6.845698e+01	-1.466198e+01
6.885238e+01	-1.470908e+01
6.925007e+01	-1.475592e+01
6.965005e+01	-1.480571e+01
7.005235e+01	-1.485480e+01
7.045697e+01	-1.490304e+01
7.086393e+01	-1.495078e+01
7.127323e+01	-1.500069e+01
7.168490e+01	-1.504850e+01
7.209895e+01	-1.509615e+01
7.251539e+01	-1.514515e+01
7.293424e+01	-1.519374e+01
7.335551e+01	-1.524249e+01
7.377920e+01	-1.529022e+01
7.420535e+01	-1.533949e+01
7.463396e+01	-1.538761e+01
7.506504e+01	-1.543565e+01
7.549861e+01	-1.548426e+01
7.593469e+01	-1.553387e+01
7.637328e+01	-1.558190e+01
7.681441e+01	-1.563151e+01
7.725809e+01	-1.567871e+01
7.770433e+01	-1.572862e+01
7.815315e+01	-1.577694e+01
7.860456e+01	-1.582544e+01
7.905857e+01	-1.587490e+01
7.951521e+01	-1.592178e+01
7.997449e+01	-1.597166e+01
8.043642e+01	-1.602047e+01
8.090102e+01	-1.606955e+01
8.136830e+01	-1.611816e+01
8.183828e+01	-1.616724e+01
8.231097e+01	-1.621547e+01
8.278640e+01	-1.626471e+01
8.326457e+01	-1.631407e+01
8.374550e+01	-1.636257e+01
8.422921e+01	-1.641115e+01
8.471572e+01	-1.646026e+01
8.520503e+01	-1.650997e+01
8.569717e+01	-1.655732e+01
8.619215e+01	-1.660781e+01
8.669000e+01	-1.665617e+01
8.719071e+01	-1.670468e+01
8.769432e+01	-1.675293e+01
8.820084e+01	-1.680271e+01
8.871029e+01	-1.685241e+01
8.922267e+01	-1.690055e+01
8.973802e+01	-1.694871e+01
9.025634e+01	-1.699793e+01
9.077766e+01	-1.704861e+01
9.130199e+01	-1.709658e+01
9.182935e+01	-1.714558e+01
9.235975e+01	-1.719469e+01
9.289321e+01	-1.724359e+01
9.342976e+01	-1.729196e+01
9.396941e+01	-1.734291e+01
9.451217e+01	-1.739166e+01
9.505807e+01	-1.744065e+01
9.560712e+01	-1.748846e+01
9.615934e+01	-1.753950e+01
9.671476e+01	-1.758769e+01
9.727338e+01	-1.763774e+01
9.783522e+01	-1.768597e+01
9.840032e+01	-1.773614e+01
9.896867e+01	-1.778374e+01
9.954031e+01	-1.783336e+01
1.001153e+02	-1.788207e+01
1.006935e+02	-1.793258e+01
1.012751e+02	-1.798282e+01
1.018601e+02	-1.803066e+01
1.024484e+02	-1.807903e+01
1.030402e+02	-1.813003e+01
1.036353e+02	-1.817717e+01
1.042339e+02	-1.822855e+01
1.048360e+02	-1.827668e+01
1.054415e+02	-1.832747e+01
1.060505e+02	-1.837578e+01
1.066631e+02	-1.842569e+01
1.072791e+02	-1.847519e+01
1.078988e+02	-1.852335e+01
1.085220e+02	-1.857365e+01
1.091488e+02	-1.862157e+01
1.097793e+02	-1.867270e+01
1.104133e+02	-1.872261e+01
1.110511e+02	-1.876982e+01
1.116925e+02	-1.881942e+01
1.123376e+02	-1.887007e+01
1.129865e+02	-1.891820e+01
1.136391e+02	-1.896792e+01
1.142955e+02	-1.901834e+01
1.149556e+02	-1.906717e+01
1.156196e+02	-1.911575e+01
1.162874e+02	-1.916705e+01
1.169591e+02	-1.921447e+01
1.176347e+02	-1.926450e+01
1.183141e+02	-1.931243e+01
1.189975e+02	-1.936477e+01
1.196848e+02	-1.941174e+01
1.203761e+02	-1.946122e+01
1.210714e+02	-1.951130e+01
1.217707e+02	-1.956089e+01
1.224740e+02	-1.961192e+01
1.231814e+02	-1.965976e+01
1.238929e+02	-1.971225e+01
1.246085e+02	-1.975896e+01
1.253283e+02	-1.980780e+01
1.260522e+02	-1.985733e+01
1.267802e+02	-1.990999e+01
1.275125e+02	-1.995840e+01
1.282490e+02	-2.000854e+01
1.289898e+02	-2.005745e+01
1.297348e+02	-2.010518e+01
1.304842e+02	-2.015578e+01
1.312378e+02	-2.020500e+01
1.319959e+02	-2.025551e+01
1.327583e+02	-2.030425e+01
1.335251e+02	-2.035465e+01
1.342963e+02	-2.040401e+01
1.350720e+02	-2.045320e+01
1.358522e+02	-2.050245e+01
1.366368e+02	-2.055326e+01
1.374260e+02	-2.060214e+01
1.382198e+02	-2.065229e+01
1.390182e+02	-2.069892e+01
1.398211e+02	-2.075123e+01
1.406287e+02	-2.080064e+01
1.414410e+02	-2.084984e+01
1.422579e+02	-2.089901e+01
1.430796e+02	-2.094860e+01
1.439060e+02	-2.099953e+01
1.447372e+02	-2.104974e+01
1.455732e+02	-2.109929e+01
1.464141e+02	-2.114827e+01
1.472597e+02	-2.119721e+01
1.481103e+02	-2.124567e+01
1.489658e+02	-2.129849e+01
1.498262e+02	-2.134531e+01
1.506916e+02	-2.139711e+01
1.515620e+02	-2.144765e+01
1.524374e+02	-2.149604e+01
1.533179e+02	-2.154567e+01
1.542034e+02	-2.159310e+01
1.550941e+02	-2.164328e+01
1.559899e+02	-2.169404e+01
1.568909e+02	-2.174529e+01
1.577971e+02	-2.179520e+01
1.587085e+02	-2.184469e+01
1.596252e+02	-2.189266e+01
1.605472e+02	-2.194172e+01
1.614745e+02	-2.199288e+01
1.624072e+02	-2.204246e+01
1.633453e+02	-2.209347e+01
1.642887e+02	-2.214287e+01
1.652377e+02	-2.219095e+01
1.661921e+02	-2.224358e+01
1.671520e+02	-2.229152e+01
1.681175e+02	-2.234230e+01
1.690885e+02	-2.238982e+01
1.700651e+02	-2.244123e+01
1.710474e+02	-2.249014e+01
1.720354e+02	-2.254032e+01
1.730291e+02	-2.259079e+01
1.740285e+02	-2.263967e+01
1.750337e+02	-2.269107e+01
1.760446e+02	-2.273987e+01
1.770615e+02	-2.279093e+01
1.780842e+02	-2.284029e+01
1.791128e+02	-2.288925e+01
1.801473e+02	-2.293631e+01
1.811878e+02	-2.299032e+01
1.822344e+02	-2.303734e+01
1.832870e+02	-2.308687e+01
1.843456e+02	-2.313635e+01
1.854104e+02	-2.318864e+01
1.864813e+02	-2.323656e+01
1.875584e+02	-2.328650e+01
1.886418e+02	-2.333949e+01
1.897313e+02	-2.338622e+01
1.908272e+02	-2.343637e+01
1.919294e+02	-2.348759e+01
1.930380e+02	-2.353590e+01
1.941530e+02	-2.358580e+01
1.952744e+02	-2.363693e+01
1.964023e+02	-2.368410e+01
1.975367e+02	-2.373622e+01
1.986777e+02	-2.378305e+01
1.998252e+02	-2.383564e+01
2.009794e+02	-2.388438e+01
2.021403e+02	-2.393417e+01
2.033078e+02	-2.398521e+01
2.044821e+02	-2.403380e+01
2.056632e+02	-2.408724e+01
2.068511e+02	-2.413580e+01
2.080459e+02	-2.418444e+01
2.092475e+02	-2.423316e+01
2.104561e+02	-2.428412e+01
2.116717e+02	-2.433255e+01
2.128943e+02	-2.438344e+01
2.141240e+02	-2.443270e+01
2.153608e+02	-2.448296e+01
2.166047e+02	-2.453496e+01
2.178558e+02	-2.458568e+01
2.191141e+02	-2.463589e+01
2.203797e+02	-2.468437e+01
2.216526e+02	-2.473152e+01
2.229329e+02	-2.478311e+01
2.242205e+02	-2.483501e+01
2.255156e+02	-2.488464e+01
2.268182e+02	-2.493048e+01
2.281283e+02	-2.498217e+01
2.294459e+02	-2.503235e+01
2.307712e+02	-2.508187e+01
2.321041e+02	-2.513310e+01
2.334447e+02	-2.518285e+01
2.347931e+02	-2.523084e+01
2.361493e+02	-2.528271e+01
2.375133e+02	-2.532944e+01
2.388851e+02	-2.537977e+01
2.402649e+02	-2.543176e+01
2.416527e+02	-2.547962e+01
2.430484e+02	-2.553257e+01
2.444523e+02	-2.557983e+01
2.458642e+02	-2.562806e+01
2.472843e+02	-2.568250e+01
2.487126e+02	-2.573388e+01
2.501492e+02	-2.577858e+01
2.515940e+02	-2.583357e+01
2.530472e+02	-2.588208e+01
2.545088e+02	-2.593472e+01
2.559789e+02	-2.598387e+01
2.574574e+02	-2.603312e+01
2.589444e+02	-2.608507e+01
2.604401e+02	-2.613239e+01
2.619444e+02	-2.618307e+01
2.634574e+02	-2.622915e+01
2.649791e+02	-2.627940e+01
2.665096e+02	-2.632931e+01
2.680489e+02	-2.638255e+01
2.695972e+02	-2.643239e+01
2.711544e+02	-2.647870e+01
2.727205e+02	-2.653314e+01
2.742958e+02	-2.658219e+01
2.758801e+02	-2.662849e+01
2.774736e+02	-2.667885e+01
2.790762e+02	-2.673063e+01
2.806882e+02	-2.677860e+01
2.823094e+02	-2.683313e+01
2.839400e+02	-2.688294e+01
2.855800e+02	-2.693068e+01
2.872295e+02	-2.698136e+01
2.888886e+02	-2.703219e+01
2.905572e+02	-2.707981e+01
2.922354e+02	-2.713057e+01
2.939234e+02	-2.718240e+01
2.956211e+02	-2.723277e+01
2.973286e+02	-2.728087e+01
2.990459e+02	-2.733288e+01
3.007732e+02	-2.738256e+01
3.025104e+02	-2.743239e+01
3.042577e+02	-2.748028e+01
3.060151e+02	-2.752921e+01
3.077826e+02	-2.758477e+01
3.095604e+02	-2.763284e+01
3.113484e+02	-2.768092e+01
3.131467e+02	-2.773483e+01
3.149554e+02	-2.777915e+01
3.167746e+02	-2.782940e+01
3.186043e+02	-2.787945e+01
3.204445e+02	-2.793297e+01
3.222954e+02	-2.798066e+01
3.241570e+02	-2.803304e+01
3.260293e+02	-2.808549e+01
3.279124e+02	-2.813074e+01
3.298064e+02	-2.817869e+01
3.317114e+02	-2.823168e+01
3.336273e+02	-2.827697e+01
3.355544e+02	-2.833243e+01
3.374925e+02	-2.838011e+01
3.394418e+02	-2.843161e+01
3.414024e+02	-2.848403e+01
3.433744e+02	-2.853006e+01
3.453577e+02	-2.857688e+01
3.473525e+02	-2.863250e+01
3.493588e+02	-2.868365e+01
3.513766e+02	-2.872904e+01
3.534062e+02	-2.878020e+01
3.554474e+02	-2.883229e+01
3.575005e+02	-2.888399e+01
3.595654e+02	-2.893263e+01
3.616422e+02	-2.898212e+01
3.637311e+02	-2.903664e+01
3.658320e+02	-2.907820e+01
3.679450e+02	-2.913075e+01
3.700702e+02	-2.918399e+01
3.722077e+02	-2.923197e+01
3.743576e+02	-2.927957e+01
3.765199e+02	-2.933208e+01
3.786946e+02	-2.938851e+01
3.808820e+02	-2.943699e+01
3.830819e+02	-2.948459e+01
3.852946e+02	-2.953539e+01
3.875200e+02	-2.958469e+01
3.897583e+02	-2.963143e+01
3.920096e+02	-2.968076e+01
3.942738e+02	-2.973319e+01
3.965511e+02	-2.977741e+01
3.988416e+02	-2.983418e+01
4.011452e+02	-2.988000e+01
4.034622e+02	-2.993724e+01
4.057926e+02	-2.998632e+01
4.081365e+02	-3.003015e+01
4.104938e+02	-3.008603e+01
4.128648e+02	-3.013841e+01
4.152495e+02	-3.018461e+01
4.176480e+02	-3.023676e+01
4.200603e+02	-3.028348e+01
4.224866e+02	-3.033383e+01
4.249268e+02	-3.037940e+01
4.273812e+02	-3.044020e+01
4.298497e+02	-3.048536e+01
4.323325e+02	-3.053553e+01
4.348297e+02	-3.058294e+01
4.373412e+02	-3.063379e+01
4.398673e+02	-3.068628e+01
4.424079e+02	-3.073679e+01
4.449633e+02	-3.078108e+01
4.475334e+02	-3.083660e+01
4.501183e+02	-3.088868e+01
4.527182e+02	-3.093615e+01
4.553330e+02	-3.098702e+01
4.579630e+02	-3.103081e+01
4.606082e+02	-3.108561e+01
4.632687e+02	-3.114044e+01
4.659445e+02	-3.118457e+01
4.686358e+02	-3.123057e+01
4.713426e+02	-3.128948e+01
4.740650e+02	-3.134021e+01
4.768032e+02	-3.138448e+01
4.795572e+02	-3.143660e+01
4.823271e+02	-3.148891e+01
4.851130e+02	-3.153642e+01
4.879150e+02	-3.159291e+01
4.907332e+02	-3.163944e+01
4.935676e+02	-3.168837e+01
4.964185e+02	-3.173201e+01
4.992858e+02	-3.178992e+01
5.021696e+02	-3.184057e+01
5.050701e+02	-3.188754e+01
5.079874e+02	-3.194301e+01
5.109215e+02	-3.198856e+01
5.138726e+02	-3.204113e+01
5.168407e+02	-3.208597e+01
5.198259e+02	-3.214257e+01
5.228284e+02	-3.219753e+01
5.258482e+02	-3.224160e+01
5.288855e+02	-3.229183e+01
5.319403e+02	-3.234394e+01
5.350128e+02	-3.239297e+01
5.381030e+02	-3.244210e+01
5.412111e+02	-3.249581e+01
5.443371e+02	-3.254040e+01
5.474812e+02	-3.259247e+01
5.506434e+02	-3.264052e+01
5.538239e+02	-3.269456e+01
5.570228e+02	-3.274894e+01
5.602401e+02	-3.279393e+01
5.634760e+02	-3.284774e+01
5.667306e+02	-3.290381e+01
5.700040e+02	-3.293749e+01
5.732964e+02	-3.299405e+01
5.766077e+02	-3.304624e+01
5.799382e+02	-3.309566e+01
5.832879e+02	-3.315036e+01
5.866569e+02	-3.319041e+01
5.900454e+02	-3.324192e+01
5.934535e+02	-3.330282e+01
5.968813e+02	-3.334713e+01
6.003288e+02	-3.339955e+01
6.037963e+02	-3.345029e+01
6.072838e+02	-3.349505e+01
6.107914e+02	-3.355388e+01
6.143194e+02	-3.360511e+01
6.178676e+02	-3.365535e+01
6.214364e+02	-3.370341e+01
6.250258e+02	-3.374909e+01
6.286359e+02	-3.380172e+01
6.322669e+02	-3.385446e+01
6.359189e+02	-3.389656e+01
6.395919e+02	-3.394959e+01
6.432862e+02	-3.399911e+01
6.470017e+02	-3.404526e+01
6.507388e+02	-3.410329e+01
6.544974e+02	-3.414749e+01
6.582778e+02	-3.420187e+01
6.620800e+02	-3.425290e+01
6.659041e+02	-3.430095e+01
6.697504e+02	-3.435302e+01
6.736188e+02	-3.439731e+01
6.775096e+02	-3.445625e+01
6.814229e+02	-3.450442e+01
6.853587e+02	-3.457103e+01
6.893173e+02	-3.460544e+01
6.932988e+02	-3.465780e+01
6.973033e+02	-3.470266e+01
7.013309e+02	-3.474990e+01
