Frequency(Hz)	Magnitude(dB)
1.000000e+01	-1.853119e-05
1.005776e+01	-1.874588e-05
1.011585e+01	-1.896305e-05
1.017428e+01	-1.918274e-05
1.023305e+01	-1.940498e-05
1.029215e+01	-1.962979e-05
1.035160e+01	-1.985721e-05
1.041139e+01	-2.008726e-05
1.047153e+01	-2.031998e-05
1.053201e+01	-2.055539e-05
1.059284e+01	-2.079353e-05
1.065403e+01	-2.103443e-05
1.071556e+01	-2.127811e-05
1.077746e+01	-2.152463e-05
1.083971e+01	-2.177400e-05
1.090232e+01	-2.202625e-05
1.096529e+01	-2.228143e-05
1.102862e+01	-2.253957e-05
1.109232e+01	-2.280069e-05
1.115639e+01	-2.306485e-05
1.122083e+01	-2.333206e-05
1.128564e+01	-2.360237e-05
1.135083e+01	-2.387580e-05
1.141639e+01	-2.415241e-05
1.148233e+01	-2.443222e-05
1.154865e+01	-2.471528e-05
1.161536e+01	-2.500161e-05
1.168245e+01	-2.529126e-05
1.174992e+01	-2.558427e-05
1.181779e+01	-2.588066e-05
1.188605e+01	-2.618050e-05
1.195470e+01	-2.648381e-05
1.202375e+01	-2.679063e-05
1.209320e+01	-2.710100e-05
1.216305e+01	-2.741498e-05
1.223330e+01	-2.773258e-05
1.230396e+01	-2.805387e-05
1.237503e+01	-2.837888e-05
1.244651e+01	-2.870766e-05
1.251840e+01	-2.904025e-05
1.259070e+01	-2.937668e-05
1.266343e+01	-2.971702e-05
1.273657e+01	-3.006130e-05
1.281014e+01	-3.040957e-05
1.288413e+01	-3.076187e-05
1.295855e+01	-3.111825e-05
1.303339e+01	-3.147876e-05
1.310867e+01	-3.184345e-05
1.318439e+01	-3.221237e-05
1.326054e+01	-3.258555e-05
1.333713e+01	-3.296307e-05
1.341417e+01	-3.334495e-05
1.349165e+01	-3.373126e-05
1.356958e+01	-3.412204e-05
1.364795e+01	-3.451736e-05
1.372678e+01	-3.491725e-05
1.380607e+01	-3.532177e-05
1.388581e+01	-3.573098e-05
1.396602e+01	-3.614494e-05
1.404668e+01	-3.656368e-05
1.412782e+01	-3.698728e-05
1.420942e+01	-3.741579e-05
1.429149e+01	-3.784926e-05
1.437404e+01	-3.828775e-05
1.445706e+01	-3.873132e-05
1.454057e+01	-3.918003e-05
1.462455e+01	-3.963394e-05
1.470902e+01	-4.009311e-05
1.479398e+01	-4.055760e-05
1.487943e+01	-4.102747e-05
1.496537e+01	-4.150278e-05
1.505181e+01	-4.198360e-05
1.513875e+01	-4.246999e-05
1.522619e+01	-4.296201e-05
1.531414e+01	-4.345974e-05
1.540259e+01	-4.396323e-05
1.549156e+01	-4.447255e-05
1.558103e+01	-4.498778e-05
1.567103e+01	-4.550897e-05
1.576155e+01	-4.603620e-05
1.585258e+01	-4.656954e-05
1.594415e+01	-4.710906e-05
1.603624e+01	-4.765483e-05
1.612886e+01	-4.820692e-05
1.622202e+01	-4.876541e-05
1.631572e+01	-4.933036e-05
1.640996e+01	-4.990187e-05
1.650474e+01	-5.047999e-05
1.660008e+01	-5.106481e-05
1.669596e+01	-5.165641e-05
1.679239e+01	-5.225486e-05
1.688938e+01	-5.286024e-05
1.698694e+01	-5.347264e-05
1.708505e+01	-5.409213e-05
1.718373e+01	-5.471880e-05
1.728299e+01	-5.535273e-05
1.738281e+01	-5.599400e-05
1.748322e+01	-5.664270e-05
1.758420e+01	-5.729892e-05
1.768576e+01	-5.796274e-05
1.778792e+01	-5.863425e-05
1.789066e+01	-5.931354e-05
1.799399e+01	-6.000070e-05
1.809793e+01	-6.069582e-05
1.820246e+01	-6.139899e-05
1.830760e+01	-6.211031e-05
1.841334e+01	-6.282987e-05
1.851969e+01	-6.355777e-05
1.862666e+01	-6.429410e-05
1.873425e+01	-6.503896e-05
1.884246e+01	-6.579244e-05
1.895129e+01	-6.655466e-05
1.906075e+01	-6.732571e-05
1.917085e+01	-6.810569e-05
1.928158e+01	-6.889471e-05
1.939295e+01	-6.969287e-05
1.950496e+01	-7.050027e-05
1.961762e+01	-7.131703e-05
1.973093e+01	-7.214325e-05
1.984490e+01	-7.297904e-05
1.995952e+01	-7.382452e-05
2.007480e+01	-7.467979e-05
2.019076e+01	-7.554497e-05
2.030738e+01	-7.642017e-05
2.042467e+01	-7.730551e-05
2.054264e+01	-7.820111e-05
2.066130e+01	-7.910708e-05
2.078064e+01	-8.002355e-05
2.090066e+01	-8.095064e-05
2.102139e+01	-8.188847e-05
2.114280e+01	-8.283716e-05
2.126492e+01	-8.379684e-05
2.138775e+01	-8.476764e-05
2.151128e+01	-8.574969e-05
2.163553e+01	-8.674311e-05
2.176050e+01	-8.774805e-05
2.188619e+01	-8.876462e-05
2.201260e+01	-8.979297e-05
2.213974e+01	-9.083324e-05
2.226762e+01	-9.188556e-05
2.239624e+01	-9.295006e-05
2.252560e+01	-9.402691e-05
2.265571e+01	-9.511622e-05
2.278656e+01	-9.621816e-05
2.291818e+01	-9.733286e-05
2.305055e+01	-9.846047e-05
2.318369e+01	-9.960115e-05
2.331760e+01	-1.007550e-04
2.345228e+01	-1.019223e-04
2.358774e+01	-1.031031e-04
2.372398e+01	-1.042976e-04
2.386101e+01	-1.055059e-04
2.399883e+01	-1.067282e-04
2.413745e+01	-1.079646e-04
2.427686e+01	-1.092154e-04
2.441709e+01	-1.104807e-04
2.455812e+01	-1.117606e-04
2.469997e+01	-1.130554e-04
2.484263e+01	-1.143651e-04
2.498612e+01	-1.156901e-04
2.513044e+01	-1.170304e-04
2.527559e+01	-1.183862e-04
2.542158e+01	-1.197577e-04
2.556842e+01	-1.211451e-04
2.571610e+01	-1.225486e-04
2.586463e+01	-1.239683e-04
2.601403e+01	-1.254045e-04
2.616428e+01	-1.268573e-04
2.631541e+01	-1.283270e-04
2.646740e+01	-1.298137e-04
2.662028e+01	-1.313176e-04
2.677404e+01	-1.328389e-04
2.692868e+01	-1.343778e-04
2.708422e+01	-1.359346e-04
2.724066e+01	-1.375094e-04
2.739800e+01	-1.391025e-04
2.755625e+01	-1.407140e-04
2.771541e+01	-1.423442e-04
2.787550e+01	-1.439933e-04
2.803650e+01	-1.456614e-04
2.819844e+01	-1.473489e-04
2.836131e+01	-1.490560e-04
2.852513e+01	-1.507828e-04
2.868989e+01	-1.525296e-04
2.885560e+01	-1.542967e-04
2.902227e+01	-1.560842e-04
2.918990e+01	-1.578925e-04
2.935850e+01	-1.597217e-04
2.952807e+01	-1.615721e-04
2.969863e+01	-1.634439e-04
2.987016e+01	-1.653374e-04
3.004269e+01	-1.672528e-04
3.021622e+01	-1.691905e-04
3.039075e+01	-1.711506e-04
3.056628e+01	-1.731333e-04
3.074283e+01	-1.751391e-04
3.092040e+01	-1.771681e-04
3.109900e+01	-1.792206e-04
3.127862e+01	-1.812969e-04
3.145929e+01	-1.833972e-04
3.164099e+01	-1.855219e-04
3.182375e+01	-1.876711e-04
3.200756e+01	-1.898453e-04
3.219244e+01	-1.920447e-04
3.237838e+01	-1.942695e-04
3.256540e+01	-1.965201e-04
3.275349e+01	-1.987968e-04
3.294268e+01	-2.010999e-04
3.313295e+01	-2.034296e-04
3.332433e+01	-2.057864e-04
3.351681e+01	-2.081704e-04
3.371040e+01	-2.105821e-04
3.390511e+01	-2.130217e-04
3.410094e+01	-2.154895e-04
3.429791e+01	-2.179859e-04
3.449601e+01	-2.205113e-04
3.469526e+01	-2.230659e-04
3.489566e+01	-2.256501e-04
3.509721e+01	-2.282643e-04
3.529993e+01	-2.309087e-04
3.550382e+01	-2.335838e-04
3.570889e+01	-2.362899e-04
3.591515e+01	-2.390273e-04
3.612259e+01	-2.417964e-04
3.633123e+01	-2.445976e-04
3.654108e+01	-2.474312e-04
3.675214e+01	-2.502977e-04
3.696442e+01	-2.531974e-04
3.717792e+01	-2.561307e-04
3.739266e+01	-2.590979e-04
3.760864e+01	-2.620996e-04
3.782587e+01	-2.651360e-04
3.804435e+01	-2.682075e-04
3.826409e+01	-2.713147e-04
3.848510e+01	-2.744579e-04
3.870739e+01	-2.776374e-04
3.893096e+01	-2.808538e-04
3.915583e+01	-2.841075e-04
3.938199e+01	-2.873989e-04
3.960946e+01	-2.907283e-04
3.983824e+01	-2.940964e-04
4.006834e+01	-2.975035e-04
4.029978e+01	-3.009500e-04
4.053255e+01	-3.044365e-04
4.076666e+01	-3.079633e-04
4.100213e+01	-3.115310e-04
4.123896e+01	-3.151401e-04
4.147715e+01	-3.187909e-04
4.171672e+01	-3.224841e-04
4.195767e+01	-3.262200e-04
4.220002e+01	-3.299992e-04
4.244377e+01	-3.338222e-04
4.268892e+01	-3.376895e-04
4.293549e+01	-3.416015e-04
4.318348e+01	-3.455589e-04
4.343291e+01	-3.495622e-04
4.368377e+01	-3.536118e-04
4.393609e+01	-3.577083e-04
4.418986e+01	-3.618523e-04
4.444510e+01	-3.660443e-04
4.470182e+01	-3.702848e-04
4.496001e+01	-3.745745e-04
4.521970e+01	-3.789138e-04
4.548089e+01	-3.833035e-04
4.574358e+01	-3.877439e-04
4.600779e+01	-3.922359e-04
4.627353e+01	-3.967798e-04
4.654081e+01	-4.013764e-04
4.680963e+01	-4.060262e-04
4.708000e+01	-4.107299e-04
4.735193e+01	-4.154881e-04
4.762543e+01	-4.203015e-04
4.790051e+01	-4.251705e-04
4.817719e+01	-4.300960e-04
4.845545e+01	-4.350785e-04
4.873533e+01	-4.401188e-04
4.901682e+01	-4.452174e-04
4.929994e+01	-4.503751e-04
4.958470e+01	-4.555926e-04
4.987110e+01	-4.608704e-04
5.015915e+01	-4.662095e-04
5.044887e+01	-4.716103e-04
5.074026e+01	-4.770738e-04
5.103333e+01	-4.826005e-04
5.132810e+01	-4.881913e-04
5.162457e+01	-4.938468e-04
5.192275e+01	-4.995678e-04
5.222265e+01	-5.053551e-04
5.252429e+01	-5.112094e-04
5.282767e+01	-5.171316e-04
5.313280e+01	-5.231223e-04
5.343969e+01	-5.291825e-04
5.374836e+01	-5.353128e-04
5.405880e+01	-5.415142e-04
5.437105e+01	-5.477874e-04
5.468509e+01	-5.541332e-04
5.500095e+01	-5.605526e-04
5.531863e+01	-5.670463e-04
5.563815e+01	-5.736153e-04
5.595951e+01	-5.802603e-04
5.628273e+01	-5.869824e-04
5.660782e+01	-5.937822e-04
5.693479e+01	-6.006609e-04
5.726364e+01	-6.076192e-04
5.759439e+01	-6.146582e-04
5.792705e+01	-6.217786e-04
5.826164e+01	-6.289816e-04
5.859815e+01	-6.362680e-04
5.893662e+01	-6.436388e-04
5.927703e+01	-6.510950e-04
5.961941e+01	-6.586375e-04
5.996377e+01	-6.662674e-04
6.031012e+01	-6.739857e-04
6.065847e+01	-6.817934e-04
6.100883e+01	-6.896915e-04
6.136121e+01	-6.976812e-04
6.171563e+01	-7.057633e-04
6.207210e+01	-7.139391e-04
6.243063e+01	-7.222096e-04
6.279122e+01	-7.305759e-04
6.315390e+01	-7.390391e-04
6.351868e+01	-7.476003e-04
6.388556e+01	-7.562607e-04
6.425456e+01	-7.650215e-04
6.462569e+01	-7.738836e-04
6.499897e+01	-7.828485e-04
6.537440e+01	-7.919172e-04
6.575200e+01	-8.010909e-04
6.613178e+01	-8.103709e-04
6.651375e+01	-8.197584e-04
6.689793e+01	-8.292546e-04
6.728433e+01	-8.388608e-04
6.767297e+01	-8.485783e-04
6.806384e+01	-8.584083e-04
6.845698e+01	-8.683522e-04
6.885238e+01	-8.784113e-04
6.925007e+01	-8.885869e-04
6.965005e+01	-8.988804e-04
7.005235e+01	-9.092931e-04
7.045697e+01	-9.198264e-04
7.086393e+01	-9.304816e-04
7.127323e+01	-9.412604e-04
7.168490e+01	-9.521639e-04
7.209895e+01	-9.631938e-04
7.251539e+01	-9.743514e-04
7.293424e+01	-9.856382e-04
7.335551e+01	-9.970558e-04
7.377920e+01	-1.008606e-03
7.420535e+01	-1.020289e-03
7.463396e+01	-1.032108e-03
7.506504e+01	-1.044064e-03
7.549861e+01	-1.056158e-03
7.593469e+01	-1.068393e-03
7.637328e+01	-1.080769e-03
7.681441e+01	-1.093288e-03
7.725809e+01	-1.105953e-03
7.770433e+01	-1.118764e-03
7.815315e+01	-1.131723e-03
7.860456e+01	-1.144833e-03
7.905857e+01	-1.158094e-03
7.951521e+01	-1.171509e-03
7.997449e+01	-1.185080e-03
8.043642e+01	-1.198807e-03
8.090102e+01	-1.212694e-03
8.136830e+01	-1.226741e-03
8.183828e+01	-1.240951e-03
8.231097e+01	-1.255326e-03
8.278640e+01	-1.269867e-03
8.326457e+01	-1.284577e-03
8.374550e+01	-1.299457e-03
8.422921e+01	-1.314509e-03
8.471572e+01	-1.329736e-03
8.520503e+01	-1.345138e-03
8.569717e+01	-1.360720e-03
8.619215e+01	-1.376482e-03
8.669000e+01	-1.392426e-03
8.719071e+01	-1.408555e-03
8.769432e+01	-1.424871e-03
8.820084e+01	-1.441376e-03
8.871029e+01	-1.458071e-03
8.922267e+01	-1.474961e-03
8.973802e+01	-1.492046e-03
9.025634e+01	-1.509328e-03
9.077766e+01	-1.526811e-03
9.130199e+01	-1.544497e-03
9.182935e+01	-1.562387e-03
9.235975e+01	-1.580484e-03
9.289321e+01	-1.598791e-03
9.342976e+01	-1.617310e-03
9.396941e+01	-1.636044e-03
9.451217e+01	-1.654994e-03
9.505807e+01	-1.674164e-03
9.560712e+01	-1.693556e-03
9.615934e+01	-1.713172e-03
9.671476e+01	-1.733016e-03
9.727338e+01	-1.753089e-03
9.783522e+01	-1.773395e-03
9.840032e+01	-1.793936e-03
9.896867e+01	-1.814715e-03
9.954031e+01	-1.835734e-03
1.001153e+02	-1.856997e-03
1.006935e+02	-1.878506e-03
1.012751e+02	-1.900265e-03
1.018601e+02	-1.922275e-03
1.024484e+02	-1.944540e-03
1.030402e+02	-1.967063e-03
1.036353e+02	-1.989847e-03
1.042339e+02	-2.012894e-03
1.048360e+02	-2.036209e-03
1.054415e+02	-2.059793e-03
1.060505e+02	-2.083651e-03
1.066631e+02	-2.107784e-03
1.072791e+02	-2.132198e-03
1.078988e+02	-2.156894e-03
1.085220e+02	-2.181875e-03
1.091488e+02	-2.207147e-03
1.097793e+02	-2.232710e-03
1.104133e+02	-2.258570e-03
1.110511e+02	-2.284729e-03
1.116925e+02	-2.311192e-03
1.123376e+02	-2.337960e-03
1.129865e+02	-2.365039e-03
1.136391e+02	-2.392431e-03
1.142955e+02	-2.420140e-03
1.149556e+02	-2.448170e-03
1.156196e+02	-2.476525e-03
1.162874e+02	-2.505207e-03
1.169591e+02	-2.534222e-03
1.176347e+02	-2.563573e-03
1.183141e+02	-2.593264e-03
1.189975e+02	-2.623299e-03
1.196848e+02	-2.653681e-03
1.203761e+02	-2.684415e-03
1.210714e+02	-2.715505e-03
1.217707e+02	-2.746955e-03
1.224740e+02	-2.778769e-03
1.231814e+02	-2.810951e-03
1.238929e+02	-2.843506e-03
1.246085e+02	-2.876438e-03
1.253283e+02	-2.909751e-03
1.260522e+02	-2.943450e-03
1.267802e+02	-2.977539e-03
1.275125e+02	-3.012023e-03
1.282490e+02	-3.046905e-03
1.289898e+02	-3.082192e-03
1.297348e+02	-3.117887e-03
1.304842e+02	-3.153996e-03
1.312378e+02	-3.190522e-03
1.319959e+02	-3.227471e-03
1.327583e+02	-3.264848e-03
1.335251e+02	-3.302658e-03
1.342963e+02	-3.340905e-03
1.350720e+02	-3.379596e-03
1.358522e+02	-3.418734e-03
1.366368e+02	-3.458325e-03
1.374260e+02	-3.498374e-03
1.382198e+02	-3.538887e-03
1.390182e+02	-3.579869e-03
1.398211e+02	-3.621326e-03
1.406287e+02	-3.663262e-03
1.414410e+02	-3.705684e-03
1.422579e+02	-3.748596e-03
1.430796e+02	-3.792006e-03
1.439060e+02	-3.835918e-03
1.447372e+02	-3.880338e-03
1.455732e+02	-3.925272e-03
1.464141e+02	-3.970727e-03
1.472597e+02	-4.016707e-03
1.481103e+02	-4.063220e-03
1.489658e+02	-4.110271e-03
1.498262e+02	-4.157867e-03
1.506916e+02	-4.206014e-03
1.515620e+02	-4.254718e-03
1.524374e+02	-4.303985e-03
1.533179e+02	-4.353823e-03
1.542034e+02	-4.404237e-03
1.550941e+02	-4.455235e-03
1.559899e+02	-4.506824e-03
1.568909e+02	-4.559009e-03
1.577971e+02	-4.611798e-03
1.587085e+02	-4.665198e-03
1.596252e+02	-4.719216e-03
1.605472e+02	-4.773859e-03
1.614745e+02	-4.829135e-03
1.624072e+02	-4.885050e-03
1.633453e+02	-4.941612e-03
1.642887e+02	-4.998829e-03
1.652377e+02	-5.056708e-03
1.661921e+02	-5.115257e-03
1.671520e+02	-5.174483e-03
1.681175e+02	-5.234395e-03
1.690885e+02	-5.294999e-03
1.700651e+02	-5.356305e-03
1.710474e+02	-5.418321e-03
1.720354e+02	-5.481054e-03
1.730291e+02	-5.544512e-03
1.740285e+02	-5.608705e-03
1.750337e+02	-5.673641e-03
1.760446e+02	-5.739328e-03
1.770615e+02	-5.805775e-03
1.780842e+02	-5.872991e-03
1.791128e+02	-5.940985e-03
1.801473e+02	-6.009765e-03
1.811878e+02	-6.079340e-03
1.822344e+02	-6.149721e-03
1.832870e+02	-6.220916e-03
1.843456e+02	-6.292935e-03
1.854104e+02	-6.365786e-03
1.864813e+02	-6.439481e-03
1.875584e+02	-6.514028e-03
1.886418e+02	-6.589437e-03
1.897313e+02	-6.665718e-03
1.908272e+02	-6.742882e-03
1.919294e+02	-6.820939e-03
1.930380e+02	-6.899898e-03
1.941530e+02	-6.979771e-03
1.952744e+02	-7.060567e-03
1.964023e+02	-7.142298e-03
1.975367e+02	-7.224975e-03
1.986777e+02	-7.308607e-03
1.998252e+02	-7.393207e-03
2.009794e+02	-7.478785e-03
2.021403e+02	-7.565353e-03
2.033078e+02	-7.652922e-03
2.044821e+02	-7.741504e-03
2.056632e+02	-7.831110e-03
2.068511e+02	-7.921753e-03
2.080459e+02	-8.013443e-03
2.092475e+02	-8.106194e-03
2.104561e+02	-8.200018e-03
2.116717e+02	-8.294926e-03
2.128943e+02	-8.390931e-03
2.141240e+02	-8.488047e-03
2.153608e+02	-8.586286e-03
2.166047e+02	-8.685660e-03
2.178558e+02	-8.786184e-03
2.191141e+02	-8.887870e-03
2.203797e+02	-8.990731e-03
2.216526e+02	-9.094781e-03
2.229329e+02	-9.200035e-03
2.242205e+02	-9.306505e-03
2.255156e+02	-9.414206e-03
2.268182e+02	-9.523152e-03
2.281283e+02	-9.633357e-03
2.294459e+02	-9.744836e-03
2.307712e+02	-9.857604e-03
2.321041e+02	-9.971676e-03
2.334447e+02	-1.008707e-02
2.347931e+02	-1.020379e-02
2.361493e+02	-1.032186e-02
2.375133e+02	-1.044130e-02
2.388851e+02	-1.056212e-02
2.402649e+02	-1.068433e-02
2.416527e+02	-1.080796e-02
2.430484e+02	-1.093301e-02
2.444523e+02	-1.105951e-02
2.458642e+02	-1.118747e-02
2.472843e+02	-1.131691e-02
2.487126e+02	-1.144785e-02
2.501492e+02	-1.158030e-02
2.515940e+02	-1.171428e-02
2.530472e+02	-1.184980e-02
2.545088e+02	-1.198690e-02
2.559789e+02	-1.212557e-02
2.574574e+02	-1.226585e-02
2.589444e+02	-1.240775e-02
2.604401e+02	-1.255129e-02
2.619444e+02	-1.269649e-02
2.634574e+02	-1.284336e-02
2.649791e+02	-1.299193e-02
2.665096e+02	-1.314222e-02
2.680489e+02	-1.329424e-02
2.695972e+02	-1.344802e-02
2.711544e+02	-1.360357e-02
2.727205e+02	-1.376092e-02
2.742958e+02	-1.392009e-02
2.758801e+02	-1.408109e-02
2.774736e+02	-1.424396e-02
2.790762e+02	-1.440870e-02
2.806882e+02	-1.457535e-02
2.823094e+02	-1.474392e-02
2.839400e+02	-1.491444e-02
2.855800e+02	-1.508693e-02
2.872295e+02	-1.526140e-02
2.888886e+02	-1.543789e-02
2.905572e+02	-1.561642e-02
2.922354e+02	-1.579701e-02
2.939234e+02	-1.597969e-02
2.956211e+02	-1.616447e-02
2.973286e+02	-1.635139e-02
2.990459e+02	-1.654046e-02
3.007732e+02	-1.673171e-02
3.025104e+02	-1.692518e-02
3.042577e+02	-1.712087e-02
3.060151e+02	-1.731882e-02
3.077826e+02	-1.751906e-02
3.095604e+02	-1.772161e-02
3.113484e+02	-1.792649e-02
3.131467e+02	-1.813374e-02
3.149554e+02	-1.834338e-02
3.167746e+02	-1.855544e-02
3.186043e+02	-1.876994e-02
3.204445e+02	-1.898692e-02
3.222954e+02	-1.920640e-02
3.241570e+02	-1.942841e-02
3.260293e+02	-1.965298e-02
3.279124e+02	-1.988014e-02
3.298064e+02	-2.010992e-02
3.317114e+02	-2.034235e-02
3.336273e+02	-2.057746e-02
3.355544e+02	-2.081529e-02
3.374925e+02	-2.105585e-02
3.394418e+02	-2.129919e-02
3.414024e+02	-2.154533e-02
3.433744e+02	-2.179431e-02
3.453577e+02	-2.204616e-02
3.473525e+02	-2.230091e-02
3.493588e+02	-2.255860e-02
3.513766e+02	-2.281926e-02
3.534062e+02	-2.308292e-02
3.554474e+02	-2.334962e-02
3.575005e+02	-2.361939e-02
3.595654e+02	-2.389227e-02
3.616422e+02	-2.416830e-02
3.637311e+02	-2.444750e-02
3.658320e+02	-2.472993e-02
3.679450e+02	-2.501560e-02
3.700702e+02	-2.530456e-02
3.722077e+02	-2.559686e-02
3.743576e+02	-2.589252e-02
3.765199e+02	-2.619158e-02
3.786946e+02	-2.649409e-02
3.808820e+02	-2.680008e-02
3.830819e+02	-2.710959e-02
3.852946e+02	-2.742267e-02
3.875200e+02	-2.773935e-02
3.897583e+02	-2.805967e-02
3.920096e+02	-2.838369e-02
3.942738e+02	-2.871143e-02
3.965511e+02	-2.904294e-02
3.988416e+02	-2.937827e-02
4.011452e+02	-2.971746e-02
4.034622e+02	-3.006055e-02
4.057926e+02	-3.040758e-02
4.081365e+02	-3.075861e-02
4.104938e+02	-3.111368e-02
4.128648e+02	-3.147283e-02
4.152495e+02	-3.183611e-02
4.176480e+02	-3.220356e-02
4.200603e+02	-3.257525e-02
4.224866e+02	-3.295120e-02
4.249268e+02	-3.333148e-02
4.273812e+02	-3.371613e-02
4.298497e+02	-3.410520e-02
4.323325e+02	-3.449875e-02
4.348297e+02	-3.489681e-02
4.373412e+02	-3.529945e-02
4.398673e+02	-3.570672e-02
4.424079e+02	-3.611867e-02
4.449633e+02	-3.653535e-02
4.475334e+02	-3.695681e-02
4.501183e+02	-3.738312e-02
4.527182e+02	-3.781432e-02
4.553330e+02	-3.825048e-02
4.579630e+02	-3.869164e-02
4.606082e+02	-3.913786e-02
4.632687e+02	-3.958921e-02
4.659445e+02	-4.004575e-02
4.686358e+02	-4.050752e-02
4.713426e+02	-4.097459e-02
4.740650e+02	-4.144702e-02
4.768032e+02	-4.192487e-02
4.795572e+02	-4.240820e-02
4.823271e+02	-4.289708e-02
4.851130e+02	-4.339156e-02
4.879150e+02	-4.389172e-02
4.907332e+02	-4.439761e-02
4.935676e+02	-4.490930e-02
4.964185e+02	-4.542686e-02
4.992858e+02	-4.595035e-02
5.021696e+02	-4.647985e-02
5.050701e+02	-4.701540e-02
5.079874e+02	-4.755710e-02
5.109215e+02	-4.810501e-02
5.138726e+02	-4.865919e-02
5.168407e+02	-4.921971e-02
5.198259e+02	-4.978666e-02
5.228284e+02	-5.036010e-02
5.258482e+02	-5.094011e-02
5.288855e+02	-5.152676e-02
5.319403e+02	-5.212012e-02
5.350128e+02	-5.272027e-02
5.381030e+02	-5.332729e-02
5.412111e+02	-5.394126e-02
5.443371e+02	-5.456225e-02
5.474812e+02	-5.519035e-02
5.506434e+02	-5.582562e-02
5.538239e+02	-5.646817e-02
5.570228e+02	-5.711806e-02
5.602401e+02	-5.777538e-02
5.634760e+02	-5.844021e-02
5.667306e+02	-5.911264e-02
5.700040e+02	-5.979276e-02
5.732964e+02	-6.048064e-02
5.766077e+02	-6.117638e-02
5.799382e+02	-6.188007e-02
5.832879e+02	-6.259180e-02
5.866569e+02	-6.331165e-02
5.900454e+02	-6.403972e-02
5.934535e+02	-6.477610e-02
5.968813e+02	-6.552088e-02
6.003288e+02	-6.627416e-02
6.037963e+02	-6.703603e-02
6.072838e+02	-6.780659e-02
6.107914e+02	-6.858594e-02
6.143194e+02	-6.937418e-02
6.178676e+02	-7.017140e-02
6.214364e+02	-7.097771e-02
6.250258e+02	-7.179320e-02
6.286359e+02	-7.261799e-02
6.322669e+02	-7.345217e-02
6.359189e+02	-7.429585e-02
6.395919e+02	-7.514914e-02
6.432862e+02	-7.601214e-02
6.470017e+02	-7.688497e-02
6.507388e+02	-7.776772e-02
6.544974e+02	-7.866052e-02
6.582778e+02	-7.956348e-02
6.620800e+02	-8.047670e-02
6.659041e+02	-8.140031e-02
6.697504e+02	-8.233442e-02
6.736188e+02	-8.327914e-02
6.775096e+02	-8.423460e-02
6.814229e+02	-8.520091e-02
6.853587e+02	-8.617820e-02
6.893173e+02	-8.716659e-02
6.932988e+02	-8.816619e-02
6.973033e+02	-8.917714e-02
7.013309e+02	-9.019956e-02
