Frequency(Hz)	Magnitude(dB)
1.000000e+01	-1.399819e-05
1.005776e+01	-1.416037e-05
1.011585e+01	-1.432442e-05
1.017428e+01	-1.449037e-05
1.023305e+01	-1.465824e-05
1.029215e+01	-1.482806e-05
1.035160e+01	-1.499985e-05
1.041139e+01	-1.517363e-05
1.047153e+01	-1.534942e-05
1.053201e+01	-1.552725e-05
1.059284e+01	-1.570713e-05
1.065403e+01	-1.588910e-05
1.071556e+01	-1.607318e-05
1.077746e+01	-1.625939e-05
1.083971e+01	-1.644776e-05
1.090232e+01	-1.663832e-05
1.096529e+01	-1.683107e-05
1.102862e+01	-1.702607e-05
1.109232e+01	-1.722332e-05
1.115639e+01	-1.742286e-05
1.122083e+01	-1.762470e-05
1.128564e+01	-1.782889e-05
1.135083e+01	-1.803544e-05
1.141639e+01	-1.824439e-05
1.148233e+01	-1.845575e-05
1.154865e+01	-1.866957e-05
1.161536e+01	-1.888586e-05
1.168245e+01	-1.910466e-05
1.174992e+01	-1.932599e-05
1.181779e+01	-1.954989e-05
1.188605e+01	-1.977638e-05
1.195470e+01	-2.000549e-05
1.202375e+01	-2.023726e-05
1.209320e+01	-2.047171e-05
1.216305e+01	-2.070888e-05
1.223330e+01	-2.094880e-05
1.230396e+01	-2.119150e-05
1.237503e+01	-2.143701e-05
1.244651e+01	-2.168536e-05
1.251840e+01	-2.193659e-05
1.259070e+01	-2.219073e-05
1.266343e+01	-2.244782e-05
1.273657e+01	-2.270788e-05
1.281014e+01	-2.297096e-05
1.288413e+01	-2.323708e-05
1.295855e+01	-2.350629e-05
1.303339e+01	-2.377861e-05
1.310867e+01	-2.405410e-05
1.318439e+01	-2.433277e-05
1.326054e+01	-2.461467e-05
1.333713e+01	-2.489984e-05
1.341417e+01	-2.518831e-05
1.349165e+01	-2.548012e-05
1.356958e+01	-2.577531e-05
1.364795e+01	-2.607393e-05
1.372678e+01	-2.637600e-05
1.380607e+01	-2.668157e-05
1.388581e+01	-2.699068e-05
1.396602e+01	-2.730338e-05
1.404668e+01	-2.761969e-05
1.412782e+01	-2.793967e-05
1.420942e+01	-2.826336e-05
1.429149e+01	-2.859080e-05
1.437404e+01	-2.892203e-05
1.445706e+01	-2.925710e-05
1.454057e+01	-2.959605e-05
1.462455e+01	-2.993893e-05
1.470902e+01	-3.028578e-05
1.479398e+01	-3.063665e-05
1.487943e+01	-3.099158e-05
1.496537e+01	-3.135062e-05
1.505181e+01	-3.171383e-05
1.513875e+01	-3.208124e-05
1.522619e+01	-3.245291e-05
1.531414e+01	-3.282888e-05
1.540259e+01	-3.320921e-05
1.549156e+01	-3.359395e-05
1.558103e+01	-3.398314e-05
1.567103e+01	-3.437685e-05
1.576155e+01	-3.477511e-05
1.585258e+01	-3.517799e-05
1.594415e+01	-3.558553e-05
1.603624e+01	-3.599780e-05
1.612886e+01	-3.641484e-05
1.622202e+01	-3.683672e-05
1.631572e+01	-3.726348e-05
1.640996e+01	-3.769519e-05
1.650474e+01	-3.813189e-05
1.660008e+01	-3.857366e-05
1.669596e+01	-3.902054e-05
1.679239e+01	-3.947261e-05
1.688938e+01	-3.992991e-05
1.698694e+01	-4.039250e-05
1.708505e+01	-4.086046e-05
1.718373e+01	-4.133384e-05
1.728299e+01	-4.181270e-05
1.738281e+01	-4.229711e-05
1.748322e+01	-4.278713e-05
1.758420e+01	-4.328283e-05
1.768576e+01	-4.378427e-05
1.778792e+01	-4.429152e-05
1.789066e+01	-4.480465e-05
1.799399e+01	-4.532372e-05
1.809793e+01	-4.584880e-05
1.820246e+01	-4.637997e-05
1.830760e+01	-4.691729e-05
1.841334e+01	-4.746084e-05
1.851969e+01	-4.801068e-05
1.862666e+01	-4.856690e-05
1.873425e+01	-4.912956e-05
1.884246e+01	-4.969873e-05
1.895129e+01	-5.027450e-05
1.906075e+01	-5.085694e-05
1.917085e+01	-5.144613e-05
1.928158e+01	-5.204215e-05
1.939295e+01	-5.264507e-05
1.950496e+01	-5.325497e-05
1.961762e+01	-5.387194e-05
1.973093e+01	-5.449606e-05
1.984490e+01	-5.512741e-05
1.995952e+01	-5.576607e-05
2.007480e+01	-5.641213e-05
2.019076e+01	-5.706568e-05
2.030738e+01	-5.772679e-05
2.042467e+01	-5.839557e-05
2.054264e+01	-5.907209e-05
2.066130e+01	-5.975646e-05
2.078064e+01	-6.044875e-05
2.090066e+01	-6.114906e-05
2.102139e+01	-6.185748e-05
2.114280e+01	-6.257411e-05
2.126492e+01	-6.329904e-05
2.138775e+01	-6.403238e-05
2.151128e+01	-6.477420e-05
2.163553e+01	-6.552463e-05
2.176050e+01	-6.628374e-05
2.188619e+01	-6.705165e-05
2.201260e+01	-6.782846e-05
2.213974e+01	-6.861426e-05
2.226762e+01	-6.940917e-05
2.239624e+01	-7.021329e-05
2.252560e+01	-7.102672e-05
2.265571e+01	-7.184958e-05
2.278656e+01	-7.268197e-05
2.291818e+01	-7.352401e-05
2.305055e+01	-7.437579e-05
2.318369e+01	-7.523745e-05
2.331760e+01	-7.610909e-05
2.345228e+01	-7.699083e-05
2.358774e+01	-7.788278e-05
2.372398e+01	-7.878507e-05
2.386101e+01	-7.969780e-05
2.399883e+01	-8.062112e-05
2.413745e+01	-8.155513e-05
2.427686e+01	-8.249996e-05
2.441709e+01	-8.345573e-05
2.455812e+01	-8.442258e-05
2.469997e+01	-8.540063e-05
2.484263e+01	-8.639001e-05
2.498612e+01	-8.739085e-05
2.513044e+01	-8.840329e-05
2.527559e+01	-8.942746e-05
2.542158e+01	-9.046349e-05
2.556842e+01	-9.151152e-05
2.571610e+01	-9.257170e-05
2.586463e+01	-9.364415e-05
2.601403e+01	-9.472904e-05
2.616428e+01	-9.582649e-05
2.631541e+01	-9.693665e-05
2.646740e+01	-9.805968e-05
2.662028e+01	-9.919571e-05
2.677404e+01	-1.003449e-04
2.692868e+01	-1.015074e-04
2.708422e+01	-1.026834e-04
2.724066e+01	-1.038730e-04
2.739800e+01	-1.050764e-04
2.755625e+01	-1.062937e-04
2.771541e+01	-1.075251e-04
2.787550e+01	-1.087708e-04
2.803650e+01	-1.100310e-04
2.819844e+01	-1.113057e-04
2.836131e+01	-1.125952e-04
2.852513e+01	-1.138996e-04
2.868989e+01	-1.152191e-04
2.885560e+01	-1.165540e-04
2.902227e+01	-1.179043e-04
2.918990e+01	-1.192702e-04
2.935850e+01	-1.206519e-04
2.952807e+01	-1.220497e-04
2.969863e+01	-1.234637e-04
2.987016e+01	-1.248940e-04
3.004269e+01	-1.263409e-04
3.021622e+01	-1.278046e-04
3.039075e+01	-1.292852e-04
3.056628e+01	-1.307830e-04
3.074283e+01	-1.322981e-04
3.092040e+01	-1.338308e-04
3.109900e+01	-1.353813e-04
3.127862e+01	-1.369497e-04
3.145929e+01	-1.385363e-04
3.164099e+01	-1.401412e-04
3.182375e+01	-1.417648e-04
3.200756e+01	-1.434071e-04
3.219244e+01	-1.450685e-04
3.237838e+01	-1.467491e-04
3.256540e+01	-1.484492e-04
3.275349e+01	-1.501690e-04
3.294268e+01	-1.519088e-04
3.313295e+01	-1.536686e-04
3.332433e+01	-1.554489e-04
3.351681e+01	-1.572498e-04
3.371040e+01	-1.590715e-04
3.390511e+01	-1.609144e-04
3.410094e+01	-1.627786e-04
3.429791e+01	-1.646644e-04
3.449601e+01	-1.665720e-04
3.469526e+01	-1.685018e-04
3.489566e+01	-1.704539e-04
3.509721e+01	-1.724286e-04
3.529993e+01	-1.744262e-04
3.550382e+01	-1.764469e-04
3.570889e+01	-1.784911e-04
3.591515e+01	-1.805589e-04
3.612259e+01	-1.826507e-04
3.633123e+01	-1.847667e-04
3.654108e+01	-1.869072e-04
3.675214e+01	-1.890725e-04
3.696442e+01	-1.912629e-04
3.717792e+01	-1.934787e-04
3.739266e+01	-1.957202e-04
3.760864e+01	-1.979876e-04
3.782587e+01	-2.002813e-04
3.804435e+01	-2.026016e-04
3.826409e+01	-2.049487e-04
3.848510e+01	-2.073230e-04
3.870739e+01	-2.097249e-04
3.893096e+01	-2.121545e-04
3.915583e+01	-2.146123e-04
3.938199e+01	-2.170986e-04
3.960946e+01	-2.196137e-04
3.983824e+01	-2.221579e-04
4.006834e+01	-2.247316e-04
4.029978e+01	-2.273351e-04
4.053255e+01	-2.299688e-04
4.076666e+01	-2.326330e-04
4.100213e+01	-2.353280e-04
4.123896e+01	-2.380543e-04
4.147715e+01	-2.408121e-04
4.171672e+01	-2.436019e-04
4.195767e+01	-2.464241e-04
4.220002e+01	-2.492789e-04
4.244377e+01	-2.521667e-04
4.268892e+01	-2.550881e-04
4.293549e+01	-2.580433e-04
4.318348e+01	-2.610327e-04
4.343291e+01	-2.640567e-04
4.368377e+01	-2.671158e-04
4.393609e+01	-2.702103e-04
4.418986e+01	-2.733407e-04
4.444510e+01	-2.765073e-04
4.470182e+01	-2.797106e-04
4.496001e+01	-2.829510e-04
4.521970e+01	-2.862290e-04
4.548089e+01	-2.895449e-04
4.574358e+01	-2.928993e-04
4.600779e+01	-2.962925e-04
4.627353e+01	-2.997250e-04
4.654081e+01	-3.031973e-04
4.680963e+01	-3.067098e-04
4.708000e+01	-3.102629e-04
4.735193e+01	-3.138573e-04
4.762543e+01	-3.174933e-04
4.790051e+01	-3.211714e-04
4.817719e+01	-3.248921e-04
4.845545e+01	-3.286559e-04
4.873533e+01	-3.324634e-04
4.901682e+01	-3.363149e-04
4.929994e+01	-3.402110e-04
4.958470e+01	-3.441523e-04
4.987110e+01	-3.481393e-04
5.015915e+01	-3.521724e-04
5.044887e+01	-3.562522e-04
5.074026e+01	-3.603794e-04
5.103333e+01	-3.645543e-04
5.132810e+01	-3.687776e-04
5.162457e+01	-3.730498e-04
5.192275e+01	-3.773715e-04
5.222265e+01	-3.817432e-04
5.252429e+01	-3.861656e-04
5.282767e+01	-3.906393e-04
5.313280e+01	-3.951647e-04
5.343969e+01	-3.997426e-04
5.374836e+01	-4.043735e-04
5.405880e+01	-4.090581e-04
5.437105e+01	-4.137969e-04
5.468509e+01	-4.185906e-04
5.500095e+01	-4.234399e-04
5.531863e+01	-4.283453e-04
5.563815e+01	-4.333075e-04
5.595951e+01	-4.383273e-04
5.628273e+01	-4.434052e-04
5.660782e+01	-4.485419e-04
5.693479e+01	-4.537381e-04
5.726364e+01	-4.589945e-04
5.759439e+01	-4.643118e-04
5.792705e+01	-4.696907e-04
5.826164e+01	-4.751319e-04
5.859815e+01	-4.806361e-04
5.893662e+01	-4.862041e-04
5.927703e+01	-4.918366e-04
5.961941e+01	-4.975343e-04
5.996377e+01	-5.032980e-04
6.031012e+01	-5.091286e-04
6.065847e+01	-5.150266e-04
6.100883e+01	-5.209930e-04
6.136121e+01	-5.270284e-04
6.171563e+01	-5.331338e-04
6.207210e+01	-5.393100e-04
6.243063e+01	-5.455576e-04
6.279122e+01	-5.518777e-04
6.315390e+01	-5.582709e-04
6.351868e+01	-5.647382e-04
6.388556e+01	-5.712804e-04
6.425456e+01	-5.778984e-04
6.462569e+01	-5.845931e-04
6.499897e+01	-5.913653e-04
6.537440e+01	-5.982159e-04
6.575200e+01	-6.051460e-04
6.613178e+01	-6.121563e-04
6.651375e+01	-6.192477e-04
6.689793e+01	-6.264214e-04
6.728433e+01	-6.336781e-04
6.767297e+01	-6.410189e-04
6.806384e+01	-6.484447e-04
6.845698e+01	-6.559566e-04
6.885238e+01	-6.635554e-04
6.925007e+01	-6.712423e-04
6.965005e+01	-6.790182e-04
7.005235e+01	-6.868842e-04
7.045697e+01	-6.948413e-04
7.086393e+01	-7.028906e-04
7.127323e+01	-7.110331e-04
7.168490e+01	-7.192700e-04
7.209895e+01	-7.276022e-04
7.251539e+01	-7.360309e-04
7.293424e+01	-7.445573e-04
7.335551e+01	-7.531825e-04
7.377920e+01	-7.619076e-04
7.420535e+01	-7.707337e-04
7.463396e+01	-7.796620e-04
7.506504e+01	-7.886938e-04
7.549861e+01	-7.978302e-04
7.593469e+01	-8.070724e-04
7.637328e+01	-8.164217e-04
7.681441e+01	-8.258793e-04
7.725809e+01	-8.354464e-04
7.770433e+01	-8.451243e-04
7.815315e+01	-8.549144e-04
7.860456e+01	-8.648178e-04
7.905857e+01	-8.748359e-04
7.951521e+01	-8.849701e-04
7.997449e+01	-8.952217e-04
8.043642e+01	-9.055920e-04
8.090102e+01	-9.160824e-04
8.136830e+01	-9.266943e-04
8.183828e+01	-9.374292e-04
8.231097e+01	-9.482884e-04
8.278640e+01	-9.592733e-04
8.326457e+01	-9.703855e-04
8.374550e+01	-9.816264e-04
8.422921e+01	-9.929976e-04
8.471572e+01	-1.004500e-03
8.520503e+01	-1.016136e-03
8.569717e+01	-1.027907e-03
8.619215e+01	-1.039814e-03
8.669000e+01	-1.051859e-03
8.719071e+01	-1.064044e-03
8.769432e+01	-1.076370e-03
8.820084e+01	-1.088838e-03
8.871029e+01	-1.101451e-03
8.922267e+01	-1.114210e-03
8.973802e+01	-1.127117e-03
9.025634e+01	-1.140173e-03
9.077766e+01	-1.153381e-03
9.130199e+01	-1.166741e-03
9.182935e+01	-1.180256e-03
9.235975e+01	-1.193928e-03
9.289321e+01	-1.207758e-03
9.342976e+01	-1.221748e-03
9.396941e+01	-1.235900e-03
9.451217e+01	-1.250217e-03
9.505807e+01	-1.264699e-03
9.560712e+01	-1.279348e-03
9.615934e+01	-1.294168e-03
9.671476e+01	-1.309159e-03
9.727338e+01	-1.324323e-03
9.783522e+01	-1.339664e-03
9.840032e+01	-1.355182e-03
9.896867e+01	-1.370879e-03
9.954031e+01	-1.386759e-03
1.001153e+02	-1.402822e-03
1.006935e+02	-1.419072e-03
1.012751e+02	-1.435509e-03
1.018601e+02	-1.452137e-03
1.024484e+02	-1.468958e-03
1.030402e+02	-1.485973e-03
1.036353e+02	-1.503185e-03
1.042339e+02	-1.520597e-03
1.048360e+02	-1.538211e-03
1.054415e+02	-1.556028e-03
1.060505e+02	-1.574052e-03
1.066631e+02	-1.592284e-03
1.072791e+02	-1.610728e-03
1.078988e+02	-1.629385e-03
1.085220e+02	-1.648258e-03
1.091488e+02	-1.667350e-03
1.097793e+02	-1.686663e-03
1.104133e+02	-1.706200e-03
1.110511e+02	-1.725963e-03
1.116925e+02	-1.745954e-03
1.123376e+02	-1.766177e-03
1.129865e+02	-1.786635e-03
1.136391e+02	-1.807329e-03
1.142955e+02	-1.828263e-03
1.149556e+02	-1.849440e-03
1.156196e+02	-1.870861e-03
1.162874e+02	-1.892531e-03
1.169591e+02	-1.914452e-03
1.176347e+02	-1.936626e-03
1.183141e+02	-1.959057e-03
1.189975e+02	-1.981748e-03
1.196848e+02	-2.004702e-03
1.203761e+02	-2.027922e-03
1.210714e+02	-2.051410e-03
1.217707e+02	-2.075171e-03
1.224740e+02	-2.099206e-03
1.231814e+02	-2.123520e-03
1.238929e+02	-2.148116e-03
1.246085e+02	-2.172996e-03
1.253283e+02	-2.198164e-03
1.260522e+02	-2.223624e-03
1.267802e+02	-2.249379e-03
1.275125e+02	-2.275431e-03
1.282490e+02	-2.301786e-03
1.289898e+02	-2.328445e-03
1.297348e+02	-2.355414e-03
1.304842e+02	-2.382694e-03
1.312378e+02	-2.410291e-03
1.319959e+02	-2.438207e-03
1.327583e+02	-2.466446e-03
1.335251e+02	-2.495012e-03
1.342963e+02	-2.523909e-03
1.350720e+02	-2.553141e-03
1.358522e+02	-2.582711e-03
1.366368e+02	-2.612623e-03
1.374260e+02	-2.642882e-03
1.382198e+02	-2.673491e-03
1.390182e+02	-2.704454e-03
1.398211e+02	-2.735776e-03
1.406287e+02	-2.767461e-03
1.414410e+02	-2.799512e-03
1.422579e+02	-2.831935e-03
1.430796e+02	-2.864733e-03
1.439060e+02	-2.897910e-03
1.447372e+02	-2.931472e-03
1.455732e+02	-2.965422e-03
1.464141e+02	-2.999766e-03
1.472597e+02	-3.034507e-03
1.481103e+02	-3.069650e-03
1.489658e+02	-3.105200e-03
1.498262e+02	-3.141161e-03
1.506916e+02	-3.177539e-03
1.515620e+02	-3.214338e-03
1.524374e+02	-3.251563e-03
1.533179e+02	-3.289219e-03
1.542034e+02	-3.327311e-03
1.550941e+02	-3.365843e-03
1.559899e+02	-3.404822e-03
1.568909e+02	-3.444252e-03
1.577971e+02	-3.484139e-03
1.587085e+02	-3.524487e-03
1.596252e+02	-3.565302e-03
1.605472e+02	-3.606590e-03
1.614745e+02	-3.648356e-03
1.624072e+02	-3.690605e-03
1.633453e+02	-3.733343e-03
1.642887e+02	-3.776576e-03
1.652377e+02	-3.820310e-03
1.661921e+02	-3.864549e-03
1.671520e+02	-3.909301e-03
1.681175e+02	-3.954570e-03
1.690885e+02	-4.000364e-03
1.700651e+02	-4.046688e-03
1.710474e+02	-4.093547e-03
1.720354e+02	-4.140949e-03
1.730291e+02	-4.188900e-03
1.740285e+02	-4.237406e-03
1.750337e+02	-4.286473e-03
1.760446e+02	-4.336108e-03
1.770615e+02	-4.386318e-03
1.780842e+02	-4.437108e-03
1.791128e+02	-4.488487e-03
1.801473e+02	-4.540460e-03
1.811878e+02	-4.593034e-03
1.822344e+02	-4.646217e-03
1.832870e+02	-4.700016e-03
1.843456e+02	-4.754437e-03
1.854104e+02	-4.809488e-03
1.864813e+02	-4.865175e-03
1.875584e+02	-4.921508e-03
1.886418e+02	-4.978492e-03
1.897313e+02	-5.036135e-03
1.908272e+02	-5.094446e-03
1.919294e+02	-5.153431e-03
1.930380e+02	-5.213099e-03
1.941530e+02	-5.273458e-03
1.952744e+02	-5.334514e-03
1.964023e+02	-5.396278e-03
1.975367e+02	-5.458756e-03
1.986777e+02	-5.521956e-03
1.998252e+02	-5.585888e-03
2.009794e+02	-5.650560e-03
2.021403e+02	-5.715980e-03
2.033078e+02	-5.782157e-03
2.044821e+02	-5.849099e-03
2.056632e+02	-5.916817e-03
2.068511e+02	-5.985317e-03
2.080459e+02	-6.054610e-03
2.092475e+02	-6.124705e-03
2.104561e+02	-6.195610e-03
2.116717e+02	-6.267336e-03
2.128943e+02	-6.339891e-03
2.141240e+02	-6.413286e-03
2.153608e+02	-6.487530e-03
2.166047e+02	-6.562633e-03
2.178558e+02	-6.638604e-03
2.191141e+02	-6.715455e-03
2.203797e+02	-6.793194e-03
2.216526e+02	-6.871832e-03
2.229329e+02	-6.951380e-03
2.242205e+02	-7.031848e-03
2.255156e+02	-7.113247e-03
2.268182e+02	-7.195588e-03
2.281283e+02	-7.278880e-03
2.294459e+02	-7.363136e-03
2.307712e+02	-7.448367e-03
2.321041e+02	-7.534583e-03
2.334447e+02	-7.621796e-03
2.347931e+02	-7.710018e-03
2.361493e+02	-7.799260e-03
2.375133e+02	-7.889534e-03
2.388851e+02	-7.980852e-03
2.402649e+02	-8.073226e-03
2.416527e+02	-8.166668e-03
2.430484e+02	-8.261191e-03
2.444523e+02	-8.356806e-03
2.458642e+02	-8.453528e-03
2.472843e+02	-8.551367e-03
2.487126e+02	-8.650338e-03
2.501492e+02	-8.750453e-03
2.515940e+02	-8.851725e-03
2.530472e+02	-8.954169e-03
2.545088e+02	-9.057797e-03
2.559789e+02	-9.162622e-03
2.574574e+02	-9.268660e-03
2.589444e+02	-9.375924e-03
2.604401e+02	-9.484427e-03
2.619444e+02	-9.594185e-03
2.634574e+02	-9.705211e-03
2.649791e+02	-9.817521e-03
2.665096e+02	-9.931129e-03
2.680489e+02	-1.004605e-02
2.695972e+02	-1.016230e-02
2.711544e+02	-1.027989e-02
2.727205e+02	-1.039884e-02
2.742958e+02	-1.051917e-02
2.758801e+02	-1.064089e-02
2.774736e+02	-1.076401e-02
2.790762e+02	-1.088856e-02
2.806882e+02	-1.101455e-02
2.823094e+02	-1.114199e-02
2.839400e+02	-1.127090e-02
2.855800e+02	-1.140131e-02
2.872295e+02	-1.153322e-02
2.888886e+02	-1.166665e-02
2.905572e+02	-1.180163e-02
2.922354e+02	-1.193817e-02
2.939234e+02	-1.207628e-02
2.956211e+02	-1.221599e-02
2.973286e+02	-1.235731e-02
2.990459e+02	-1.250027e-02
3.007732e+02	-1.264488e-02
3.025104e+02	-1.279115e-02
3.042577e+02	-1.293912e-02
3.060151e+02	-1.308880e-02
3.077826e+02	-1.324020e-02
3.095604e+02	-1.339335e-02
3.113484e+02	-1.354828e-02
3.131467e+02	-1.370499e-02
3.149554e+02	-1.386351e-02
3.167746e+02	-1.402386e-02
3.186043e+02	-1.418607e-02
3.204445e+02	-1.435014e-02
3.222954e+02	-1.451611e-02
3.241570e+02	-1.468400e-02
3.260293e+02	-1.485383e-02
3.279124e+02	-1.502561e-02
3.298064e+02	-1.519938e-02
3.317114e+02	-1.537516e-02
3.336273e+02	-1.555296e-02
3.355544e+02	-1.573282e-02
3.374925e+02	-1.591475e-02
3.394418e+02	-1.609879e-02
3.414024e+02	-1.628495e-02
3.433744e+02	-1.647325e-02
3.453577e+02	-1.666373e-02
3.473525e+02	-1.685641e-02
3.493588e+02	-1.705131e-02
3.513766e+02	-1.724846e-02
3.534062e+02	-1.744788e-02
3.554474e+02	-1.764961e-02
3.575005e+02	-1.785366e-02
3.595654e+02	-1.806007e-02
3.616422e+02	-1.826886e-02
3.637311e+02	-1.848006e-02
3.658320e+02	-1.869369e-02
3.679450e+02	-1.890979e-02
3.700702e+02	-1.912838e-02
3.722077e+02	-1.934949e-02
3.743576e+02	-1.957315e-02
3.765199e+02	-1.979939e-02
3.786946e+02	-2.002824e-02
3.808820e+02	-2.025973e-02
3.830819e+02	-2.049389e-02
3.852946e+02	-2.073075e-02
3.875200e+02	-2.097034e-02
3.897583e+02	-2.121269e-02
3.920096e+02	-2.145783e-02
3.942738e+02	-2.170581e-02
3.965511e+02	-2.195663e-02
3.988416e+02	-2.221035e-02
4.011452e+02	-2.246700e-02
4.034622e+02	-2.272660e-02
4.057926e+02	-2.298920e-02
4.081365e+02	-2.325482e-02
4.104938e+02	-2.352350e-02
4.128648e+02	-2.379527e-02
4.152495e+02	-2.407018e-02
4.176480e+02	-2.434825e-02
4.200603e+02	-2.462953e-02
4.224866e+02	-2.491405e-02
4.249268e+02	-2.520185e-02
4.273812e+02	-2.549296e-02
4.298497e+02	-2.578742e-02
4.323325e+02	-2.608527e-02
4.348297e+02	-2.638655e-02
4.373412e+02	-2.669131e-02
4.398673e+02	-2.699957e-02
4.424079e+02	-2.731138e-02
4.449633e+02	-2.762678e-02
4.475334e+02	-2.794581e-02
4.501183e+02	-2.826851e-02
4.527182e+02	-2.859493e-02
4.553330e+02	-2.892510e-02
4.579630e+02	-2.925907e-02
4.606082e+02	-2.959688e-02
4.632687e+02	-2.993859e-02
4.659445e+02	-3.028422e-02
4.686358e+02	-3.063383e-02
4.713426e+02	-3.098746e-02
4.740650e+02	-3.134516e-02
4.768032e+02	-3.170697e-02
4.795572e+02	-3.207294e-02
4.823271e+02	-3.244312e-02
4.851130e+02	-3.281756e-02
4.879150e+02	-3.319630e-02
4.907332e+02	-3.357940e-02
4.935676e+02	-3.396690e-02
4.964185e+02	-3.435885e-02
4.992858e+02	-3.475531e-02
5.021696e+02	-3.515632e-02
5.050701e+02	-3.556195e-02
5.079874e+02	-3.597223e-02
5.109215e+02	-3.638722e-02
5.138726e+02	-3.680699e-02
5.168407e+02	-3.723157e-02
5.198259e+02	-3.766103e-02
5.228284e+02	-3.809543e-02
5.258482e+02	-3.853481e-02
5.288855e+02	-3.897924e-02
5.319403e+02	-3.942876e-02
5.350128e+02	-3.988345e-02
5.381030e+02	-4.034336e-02
5.412111e+02	-4.080855e-02
5.443371e+02	-4.127907e-02
5.474812e+02	-4.175500e-02
5.506434e+02	-4.223638e-02
5.538239e+02	-4.272329e-02
5.570228e+02	-4.321578e-02
5.602401e+02	-4.371392e-02
5.634760e+02	-4.421777e-02
5.667306e+02	-4.472740e-02
5.700040e+02	-4.524287e-02
5.732964e+02	-4.576425e-02
5.766077e+02	-4.629161e-02
5.799382e+02	-4.682501e-02
5.832879e+02	-4.736453e-02
5.866569e+02	-4.791023e-02
5.900454e+02	-4.846217e-02
5.934535e+02	-4.902045e-02
5.968813e+02	-4.958511e-02
6.003288e+02	-5.015624e-02
6.037963e+02	-5.073392e-02
6.072838e+02	-5.131820e-02
6.107914e+02	-5.190918e-02
6.143194e+02	-5.250691e-02
6.178676e+02	-5.311149e-02
6.214364e+02	-5.372299e-02
6.250258e+02	-5.434148e-02
6.286359e+02	-5.496705e-02
6.322669e+02	-5.559978e-02
6.359189e+02	-5.623974e-02
6.395919e+02	-5.688701e-02
6.432862e+02	-5.754169e-02
6.470017e+02	-5.820385e-02
6.507388e+02	-5.887358e-02
6.544974e+02	-5.955097e-02
6.582778e+02	-6.023609e-02
6.620800e+02	-6.092904e-02
6.659041e+02	-6.162990e-02
6.697504e+02	-6.233877e-02
6.736188e+02	-6.305573e-02
6.775096e+02	-6.378087e-02
6.814229e+02	-6.451430e-02
6.853587e+02	-6.525609e-02
6.893173e+02	-6.600635e-02
6.932988e+02	-6.676517e-02
6.973033e+02	-6.753264e-02
7.013309e+02	-6.830886e-02
