Frequency(Hz)	Magnitude(dB)
1.000000e+01	-1.608439e-05
1.005776e+01	-1.627073e-05
1.011585e+01	-1.645923e-05
1.017428e+01	-1.664992e-05
1.023305e+01	-1.684281e-05
1.029215e+01	-1.703794e-05
1.035160e+01	-1.723533e-05
1.041139e+01	-1.743501e-05
1.047153e+01	-1.763699e-05
1.053201e+01	-1.784132e-05
1.059284e+01	-1.804802e-05
1.065403e+01	-1.825711e-05
1.071556e+01	-1.846862e-05
1.077746e+01	-1.868259e-05
1.083971e+01	-1.889903e-05
1.090232e+01	-1.911798e-05
1.096529e+01	-1.933947e-05
1.102862e+01	-1.956352e-05
1.109232e+01	-1.979017e-05
1.115639e+01	-2.001944e-05
1.122083e+01	-2.025137e-05
1.128564e+01	-2.048599e-05
1.135083e+01	-2.072333e-05
1.141639e+01	-2.096341e-05
1.148233e+01	-2.120628e-05
1.154865e+01	-2.145196e-05
1.161536e+01	-2.170048e-05
1.168245e+01	-2.195189e-05
1.174992e+01	-2.220621e-05
1.181779e+01	-2.246347e-05
1.188605e+01	-2.272372e-05
1.195470e+01	-2.298698e-05
1.202375e+01	-2.325329e-05
1.209320e+01	-2.352268e-05
1.216305e+01	-2.379520e-05
1.223330e+01	-2.407087e-05
1.230396e+01	-2.434974e-05
1.237503e+01	-2.463184e-05
1.244651e+01	-2.491720e-05
1.251840e+01	-2.520587e-05
1.259070e+01	-2.549789e-05
1.266343e+01	-2.579329e-05
1.273657e+01	-2.609211e-05
1.281014e+01	-2.639439e-05
1.288413e+01	-2.670018e-05
1.295855e+01	-2.700951e-05
1.303339e+01	-2.732242e-05
1.310867e+01	-2.763896e-05
1.318439e+01	-2.795916e-05
1.326054e+01	-2.828307e-05
1.333713e+01	-2.861074e-05
1.341417e+01	-2.894220e-05
1.349165e+01	-2.927750e-05
1.356958e+01	-2.961669e-05
1.364795e+01	-2.995981e-05
1.372678e+01	-3.030690e-05
1.380607e+01	-3.065801e-05
1.388581e+01	-3.101319e-05
1.396602e+01	-3.137249e-05
1.404668e+01	-3.173595e-05
1.412782e+01	-3.210361e-05
1.420942e+01	-3.247554e-05
1.429149e+01	-3.285178e-05
1.437404e+01	-3.323237e-05
1.445706e+01	-3.361738e-05
1.454057e+01	-3.400684e-05
1.462455e+01	-3.440082e-05
1.470902e+01	-3.479936e-05
1.479398e+01	-3.520252e-05
1.487943e+01	-3.561035e-05
1.496537e+01	-3.602291e-05
1.505181e+01	-3.644024e-05
1.513875e+01	-3.686241e-05
1.522619e+01	-3.728947e-05
1.531414e+01	-3.772147e-05
1.540259e+01	-3.815849e-05
1.549156e+01	-3.860056e-05
1.558103e+01	-3.904776e-05
1.567103e+01	-3.950013e-05
1.576155e+01	-3.995775e-05
1.585258e+01	-4.042067e-05
1.594415e+01	-4.088895e-05
1.603624e+01	-4.136266e-05
1.612886e+01	-4.184186e-05
1.622202e+01	-4.232661e-05
1.631572e+01	-4.281697e-05
1.640996e+01	-4.331301e-05
1.650474e+01	-4.381480e-05
1.660008e+01	-4.432241e-05
1.669596e+01	-4.483589e-05
1.679239e+01	-4.535533e-05
1.688938e+01	-4.588078e-05
1.698694e+01	-4.641232e-05
1.708505e+01	-4.695001e-05
1.718373e+01	-4.749394e-05
1.728299e+01	-4.804417e-05
1.738281e+01	-4.860077e-05
1.748322e+01	-4.916382e-05
1.758420e+01	-4.973339e-05
1.768576e+01	-5.030956e-05
1.778792e+01	-5.089241e-05
1.789066e+01	-5.148201e-05
1.799399e+01	-5.207844e-05
1.809793e+01	-5.268178e-05
1.820246e+01	-5.329211e-05
1.830760e+01	-5.390951e-05
1.841334e+01	-5.453406e-05
1.851969e+01	-5.516585e-05
1.862666e+01	-5.580496e-05
1.873425e+01	-5.645147e-05
1.884246e+01	-5.710547e-05
1.895129e+01	-5.776705e-05
1.906075e+01	-5.843629e-05
1.917085e+01	-5.911329e-05
1.928158e+01	-5.979813e-05
1.939295e+01	-6.049090e-05
1.950496e+01	-6.119170e-05
1.961762e+01	-6.190062e-05
1.973093e+01	-6.261775e-05
1.984490e+01	-6.334319e-05
1.995952e+01	-6.407703e-05
2.007480e+01	-6.481938e-05
2.019076e+01	-6.557032e-05
2.030738e+01	-6.632997e-05
2.042467e+01	-6.709841e-05
2.054264e+01	-6.787576e-05
2.066130e+01	-6.866211e-05
2.078064e+01	-6.945758e-05
2.090066e+01	-7.026226e-05
2.102139e+01	-7.107626e-05
2.114280e+01	-7.189969e-05
2.126492e+01	-7.273266e-05
2.138775e+01	-7.357528e-05
2.151128e+01	-7.442766e-05
2.163553e+01	-7.528992e-05
2.176050e+01	-7.616217e-05
2.188619e+01	-7.704452e-05
2.201260e+01	-7.793710e-05
2.213974e+01	-7.884001e-05
2.226762e+01	-7.975339e-05
2.239624e+01	-8.067734e-05
2.252560e+01	-8.161200e-05
2.265571e+01	-8.255749e-05
2.278656e+01	-8.351393e-05
2.291818e+01	-8.448146e-05
2.305055e+01	-8.546019e-05
2.318369e+01	-8.645026e-05
2.331760e+01	-8.745180e-05
2.345228e+01	-8.846494e-05
2.358774e+01	-8.948982e-05
2.372398e+01	-9.052658e-05
2.386101e+01	-9.157534e-05
2.399883e+01	-9.263626e-05
2.413745e+01	-9.370946e-05
2.427686e+01	-9.479510e-05
2.441709e+01	-9.589332e-05
2.455812e+01	-9.700425e-05
2.469997e+01	-9.812806e-05
2.484263e+01	-9.926489e-05
2.498612e+01	-1.004149e-04
2.513044e+01	-1.015782e-04
2.527559e+01	-1.027550e-04
2.542158e+01	-1.039454e-04
2.556842e+01	-1.051497e-04
2.571610e+01	-1.063678e-04
2.586463e+01	-1.076001e-04
2.601403e+01	-1.088467e-04
2.616428e+01	-1.101077e-04
2.631541e+01	-1.113833e-04
2.646740e+01	-1.126737e-04
2.662028e+01	-1.139790e-04
2.677404e+01	-1.152995e-04
2.692868e+01	-1.166352e-04
2.708422e+01	-1.179865e-04
2.724066e+01	-1.193534e-04
2.739800e+01	-1.207361e-04
2.755625e+01	-1.221348e-04
2.771541e+01	-1.235498e-04
2.787550e+01	-1.249811e-04
2.803650e+01	-1.264290e-04
2.819844e+01	-1.278937e-04
2.836131e+01	-1.293754e-04
2.852513e+01	-1.308742e-04
2.868989e+01	-1.323904e-04
2.885560e+01	-1.339242e-04
2.902227e+01	-1.354757e-04
2.918990e+01	-1.370452e-04
2.935850e+01	-1.386329e-04
2.952807e+01	-1.402389e-04
2.969863e+01	-1.418636e-04
2.987016e+01	-1.435071e-04
3.004269e+01	-1.451697e-04
3.021622e+01	-1.468515e-04
3.039075e+01	-1.485528e-04
3.056628e+01	-1.502738e-04
3.074283e+01	-1.520147e-04
3.092040e+01	-1.537758e-04
3.109900e+01	-1.555573e-04
3.127862e+01	-1.573594e-04
3.145929e+01	-1.591825e-04
3.164099e+01	-1.610266e-04
3.182375e+01	-1.628921e-04
3.200756e+01	-1.647792e-04
3.219244e+01	-1.666882e-04
3.237838e+01	-1.686193e-04
3.256540e+01	-1.705727e-04
3.275349e+01	-1.725488e-04
3.294268e+01	-1.745478e-04
3.313295e+01	-1.765700e-04
3.332433e+01	-1.786155e-04
3.351681e+01	-1.806848e-04
3.371040e+01	-1.827780e-04
3.390511e+01	-1.848955e-04
3.410094e+01	-1.870376e-04
3.429791e+01	-1.892044e-04
3.449601e+01	-1.913963e-04
3.469526e+01	-1.936137e-04
3.489566e+01	-1.958567e-04
3.509721e+01	-1.981257e-04
3.529993e+01	-2.004210e-04
3.550382e+01	-2.027428e-04
3.570889e+01	-2.050916e-04
3.591515e+01	-2.074676e-04
3.612259e+01	-2.098711e-04
3.633123e+01	-2.123025e-04
3.654108e+01	-2.147620e-04
3.675214e+01	-2.172500e-04
3.696442e+01	-2.197669e-04
3.717792e+01	-2.223129e-04
3.739266e+01	-2.248883e-04
3.760864e+01	-2.274937e-04
3.782587e+01	-2.301292e-04
3.804435e+01	-2.327952e-04
3.826409e+01	-2.354921e-04
3.848510e+01	-2.382203e-04
3.870739e+01	-2.409801e-04
3.893096e+01	-2.437718e-04
3.915583e+01	-2.465959e-04
3.938199e+01	-2.494527e-04
3.960946e+01	-2.523426e-04
3.983824e+01	-2.552660e-04
4.006834e+01	-2.582232e-04
4.029978e+01	-2.612147e-04
4.053255e+01	-2.642409e-04
4.076666e+01	-2.673021e-04
4.100213e+01	-2.703987e-04
4.123896e+01	-2.735313e-04
4.147715e+01	-2.767001e-04
4.171672e+01	-2.799057e-04
4.195767e+01	-2.831484e-04
4.220002e+01	-2.864286e-04
4.244377e+01	-2.897468e-04
4.268892e+01	-2.931035e-04
4.293549e+01	-2.964991e-04
4.318348e+01	-2.999340e-04
4.343291e+01	-3.034087e-04
4.368377e+01	-3.069236e-04
4.393609e+01	-3.104793e-04
4.418986e+01	-3.140762e-04
4.444510e+01	-3.177147e-04
4.470182e+01	-3.213954e-04
4.496001e+01	-3.251187e-04
4.521970e+01	-3.288851e-04
4.548089e+01	-3.326952e-04
4.574358e+01	-3.365494e-04
4.600779e+01	-3.404483e-04
4.627353e+01	-3.443923e-04
4.654081e+01	-3.483821e-04
4.680963e+01	-3.524180e-04
4.708000e+01	-3.565007e-04
4.735193e+01	-3.606307e-04
4.762543e+01	-3.648085e-04
4.790051e+01	-3.690347e-04
4.817719e+01	-3.733099e-04
4.845545e+01	-3.776346e-04
4.873533e+01	-3.820094e-04
4.901682e+01	-3.864349e-04
4.929994e+01	-3.909117e-04
4.958470e+01	-3.954403e-04
4.987110e+01	-4.000214e-04
5.015915e+01	-4.046555e-04
5.044887e+01	-4.093433e-04
5.074026e+01	-4.140855e-04
5.103333e+01	-4.188825e-04
5.132810e+01	-4.237352e-04
5.162457e+01	-4.286440e-04
5.192275e+01	-4.336097e-04
5.222265e+01	-4.386330e-04
5.252429e+01	-4.437144e-04
5.282767e+01	-4.488547e-04
5.313280e+01	-4.540545e-04
5.343969e+01	-4.593146e-04
5.374836e+01	-4.646356e-04
5.405880e+01	-4.700182e-04
5.437105e+01	-4.754632e-04
5.468509e+01	-4.809713e-04
5.500095e+01	-4.865432e-04
5.531863e+01	-4.921796e-04
5.563815e+01	-4.978813e-04
5.595951e+01	-5.036490e-04
5.628273e+01	-5.094836e-04
5.660782e+01	-5.153858e-04
5.693479e+01	-5.213563e-04
5.726364e+01	-5.273960e-04
5.759439e+01	-5.335056e-04
5.792705e+01	-5.396861e-04
5.826164e+01	-5.459381e-04
5.859815e+01	-5.522625e-04
5.893662e+01	-5.586602e-04
5.927703e+01	-5.651320e-04
5.961941e+01	-5.716788e-04
5.996377e+01	-5.783014e-04
6.031012e+01	-5.850008e-04
6.065847e+01	-5.917777e-04
6.100883e+01	-5.986331e-04
6.136121e+01	-6.055680e-04
6.171563e+01	-6.125832e-04
6.207210e+01	-6.196796e-04
6.243063e+01	-6.268582e-04
6.279122e+01	-6.341200e-04
6.315390e+01	-6.414660e-04
6.351868e+01	-6.488970e-04
6.388556e+01	-6.564140e-04
6.425456e+01	-6.640182e-04
6.462569e+01	-6.717104e-04
6.499897e+01	-6.794918e-04
6.537440e+01	-6.873632e-04
6.575200e+01	-6.953259e-04
6.613178e+01	-7.033808e-04
6.651375e+01	-7.115290e-04
6.689793e+01	-7.197716e-04
6.728433e+01	-7.281096e-04
6.767297e+01	-7.365442e-04
6.806384e+01	-7.450766e-04
6.845698e+01	-7.537078e-04
6.885238e+01	-7.624389e-04
6.925007e+01	-7.712712e-04
6.965005e+01	-7.802058e-04
7.005235e+01	-7.892438e-04
7.045697e+01	-7.983866e-04
7.086393e+01	-8.076353e-04
7.127323e+01	-8.169911e-04
7.168490e+01	-8.264552e-04
7.209895e+01	-8.360290e-04
7.251539e+01	-8.457137e-04
7.293424e+01	-8.555106e-04
7.335551e+01	-8.654209e-04
7.377920e+01	-8.754460e-04
7.420535e+01	-8.855873e-04
7.463396e+01	-8.958460e-04
7.506504e+01	-9.062235e-04
7.549861e+01	-9.167213e-04
7.593469e+01	-9.273406e-04
7.637328e+01	-9.380829e-04
7.681441e+01	-9.489497e-04
7.725809e+01	-9.599423e-04
7.770433e+01	-9.710623e-04
7.815315e+01	-9.823110e-04
7.860456e+01	-9.936901e-04
7.905857e+01	-1.005201e-03
7.951521e+01	-1.016845e-03
7.997449e+01	-1.028624e-03
8.043642e+01	-1.040540e-03
8.090102e+01	-1.052593e-03
8.136830e+01	-1.064786e-03
8.183828e+01	-1.077120e-03
8.231097e+01	-1.089598e-03
8.278640e+01	-1.102219e-03
8.326457e+01	-1.114987e-03
8.374550e+01	-1.127903e-03
8.422921e+01	-1.140968e-03
8.471572e+01	-1.154185e-03
8.520503e+01	-1.167555e-03
8.569717e+01	-1.181079e-03
8.619215e+01	-1.194760e-03
8.669000e+01	-1.208600e-03
8.719071e+01	-1.222600e-03
8.769432e+01	-1.236762e-03
8.820084e+01	-1.251088e-03
8.871029e+01	-1.265581e-03
8.922267e+01	-1.280241e-03
8.973802e+01	-1.295070e-03
9.025634e+01	-1.310072e-03
9.077766e+01	-1.325247e-03
9.130199e+01	-1.340598e-03
9.182935e+01	-1.356127e-03
9.235975e+01	-1.371835e-03
9.289321e+01	-1.387726e-03
9.342976e+01	-1.403800e-03
9.396941e+01	-1.420061e-03
9.451217e+01	-1.436510e-03
9.505807e+01	-1.453150e-03
9.560712e+01	-1.469982e-03
9.615934e+01	-1.487009e-03
9.671476e+01	-1.504234e-03
9.727338e+01	-1.521658e-03
9.783522e+01	-1.539283e-03
9.840032e+01	-1.557113e-03
9.896867e+01	-1.575149e-03
9.954031e+01	-1.593395e-03
1.001153e+02	-1.611851e-03
1.006935e+02	-1.630521e-03
1.012751e+02	-1.649408e-03
1.018601e+02	-1.668513e-03
1.024484e+02	-1.687839e-03
1.030402e+02	-1.707390e-03
1.036353e+02	-1.727166e-03
1.042339e+02	-1.747172e-03
1.048360e+02	-1.767409e-03
1.054415e+02	-1.787881e-03
1.060505e+02	-1.808590e-03
1.066631e+02	-1.829538e-03
1.072791e+02	-1.850729e-03
1.078988e+02	-1.872166e-03
1.085220e+02	-1.893851e-03
1.091488e+02	-1.915787e-03
1.097793e+02	-1.937977e-03
1.104133e+02	-1.960424e-03
1.110511e+02	-1.983130e-03
1.116925e+02	-2.006100e-03
1.123376e+02	-2.029336e-03
1.129865e+02	-2.052841e-03
1.136391e+02	-2.076618e-03
1.142955e+02	-2.100670e-03
1.149556e+02	-2.125001e-03
1.156196e+02	-2.149614e-03
1.162874e+02	-2.174511e-03
1.169591e+02	-2.199697e-03
1.176347e+02	-2.225175e-03
1.183141e+02	-2.250947e-03
1.189975e+02	-2.277018e-03
1.196848e+02	-2.303391e-03
1.203761e+02	-2.330069e-03
1.210714e+02	-2.357056e-03
1.217707e+02	-2.384356e-03
1.224740e+02	-2.411972e-03
1.231814e+02	-2.439907e-03
1.238929e+02	-2.468166e-03
1.246085e+02	-2.496752e-03
1.253283e+02	-2.525669e-03
1.260522e+02	-2.554921e-03
1.267802e+02	-2.584512e-03
1.275125e+02	-2.614445e-03
1.282490e+02	-2.644725e-03
1.289898e+02	-2.675355e-03
1.297348e+02	-2.706340e-03
1.304842e+02	-2.737684e-03
1.312378e+02	-2.769391e-03
1.319959e+02	-2.801465e-03
1.327583e+02	-2.833910e-03
1.335251e+02	-2.866731e-03
1.342963e+02	-2.899931e-03
1.350720e+02	-2.933516e-03
1.358522e+02	-2.967490e-03
1.366368e+02	-3.001858e-03
1.374260e+02	-3.036623e-03
1.382198e+02	-3.071790e-03
1.390182e+02	-3.107365e-03
1.398211e+02	-3.143352e-03
1.406287e+02	-3.179755e-03
1.414410e+02	-3.216579e-03
1.422579e+02	-3.253830e-03
1.430796e+02	-3.291513e-03
1.439060e+02	-3.329631e-03
1.447372e+02	-3.368191e-03
1.455732e+02	-3.407197e-03
1.464141e+02	-3.446654e-03
1.472597e+02	-3.486569e-03
1.481103e+02	-3.526945e-03
1.489658e+02	-3.567789e-03
1.498262e+02	-3.609105e-03
1.506916e+02	-3.650900e-03
1.515620e+02	-3.693179e-03
1.524374e+02	-3.735947e-03
1.533179e+02	-3.779210e-03
1.542034e+02	-3.822974e-03
1.550941e+02	-3.867244e-03
1.559899e+02	-3.912027e-03
1.568909e+02	-3.957328e-03
1.577971e+02	-4.003154e-03
1.587085e+02	-4.049510e-03
1.596252e+02	-4.096402e-03
1.605472e+02	-4.143837e-03
1.614745e+02	-4.191821e-03
1.624072e+02	-4.240361e-03
1.633453e+02	-4.289462e-03
1.642887e+02	-4.339132e-03
1.652377e+02	-4.389377e-03
1.661921e+02	-4.440203e-03
1.671520e+02	-4.491617e-03
1.681175e+02	-4.543626e-03
1.690885e+02	-4.596237e-03
1.700651e+02	-4.649457e-03
1.710474e+02	-4.703293e-03
1.720354e+02	-4.757752e-03
1.730291e+02	-4.812841e-03
1.740285e+02	-4.868568e-03
1.750337e+02	-4.924940e-03
1.760446e+02	-4.981964e-03
1.770615e+02	-5.039647e-03
1.780842e+02	-5.097999e-03
1.791128e+02	-5.157025e-03
1.801473e+02	-5.216735e-03
1.811878e+02	-5.277135e-03
1.822344e+02	-5.338234e-03
1.832870e+02	-5.400041e-03
1.843456e+02	-5.462562e-03
1.854104e+02	-5.525807e-03
1.864813e+02	-5.589784e-03
1.875584e+02	-5.654500e-03
1.886418e+02	-5.719966e-03
1.897313e+02	-5.786189e-03
1.908272e+02	-5.853178e-03
1.919294e+02	-5.920943e-03
1.930380e+02	-5.989491e-03
1.941530e+02	-6.058832e-03
1.952744e+02	-6.128976e-03
1.964023e+02	-6.199930e-03
1.975367e+02	-6.271706e-03
1.986777e+02	-6.344312e-03
1.998252e+02	-6.417758e-03
2.009794e+02	-6.492054e-03
2.021403e+02	-6.567209e-03
2.033078e+02	-6.643234e-03
2.044821e+02	-6.720138e-03
2.056632e+02	-6.797931e-03
2.068511e+02	-6.876624e-03
2.080459e+02	-6.956228e-03
2.092475e+02	-7.036752e-03
2.104561e+02	-7.118208e-03
2.116717e+02	-7.200605e-03
2.128943e+02	-7.283956e-03
2.141240e+02	-7.368271e-03
2.153608e+02	-7.453561e-03
2.166047e+02	-7.539837e-03
2.178558e+02	-7.627111e-03
2.191141e+02	-7.715394e-03
2.203797e+02	-7.804698e-03
2.216526e+02	-7.895036e-03
2.229329e+02	-7.986417e-03
2.242205e+02	-8.078856e-03
2.255156e+02	-8.172363e-03
2.268182e+02	-8.266951e-03
2.281283e+02	-8.362634e-03
2.294459e+02	-8.459422e-03
2.307712e+02	-8.557330e-03
2.321041e+02	-8.656370e-03
2.334447e+02	-8.756555e-03
2.347931e+02	-8.857898e-03
2.361493e+02	-8.960413e-03
2.375133e+02	-9.064113e-03
2.388851e+02	-9.169012e-03
2.402649e+02	-9.275123e-03
2.416527e+02	-9.382461e-03
2.430484e+02	-9.491041e-03
2.444523e+02	-9.600875e-03
2.458642e+02	-9.711979e-03
2.472843e+02	-9.824367e-03
2.487126e+02	-9.938054e-03
2.501492e+02	-1.005306e-02
2.515940e+02	-1.016939e-02
2.530472e+02	-1.028706e-02
2.545088e+02	-1.040610e-02
2.559789e+02	-1.052651e-02
2.574574e+02	-1.064831e-02
2.589444e+02	-1.077152e-02
2.604401e+02	-1.089615e-02
2.619444e+02	-1.102223e-02
2.634574e+02	-1.114976e-02
2.649791e+02	-1.127876e-02
2.665096e+02	-1.140926e-02
2.680489e+02	-1.154126e-02
2.695972e+02	-1.167479e-02
2.711544e+02	-1.180986e-02
2.727205e+02	-1.194649e-02
2.742958e+02	-1.208470e-02
2.758801e+02	-1.222451e-02
2.774736e+02	-1.236593e-02
2.790762e+02	-1.250898e-02
2.806882e+02	-1.265369e-02
2.823094e+02	-1.280007e-02
2.839400e+02	-1.294814e-02
2.855800e+02	-1.309792e-02
2.872295e+02	-1.324943e-02
2.888886e+02	-1.340269e-02
2.905572e+02	-1.355772e-02
2.922354e+02	-1.371454e-02
2.939234e+02	-1.387318e-02
2.956211e+02	-1.403364e-02
2.973286e+02	-1.419596e-02
2.990459e+02	-1.436015e-02
3.007732e+02	-1.452624e-02
3.025104e+02	-1.469424e-02
3.042577e+02	-1.486418e-02
3.060151e+02	-1.503609e-02
3.077826e+02	-1.520998e-02
3.095604e+02	-1.538588e-02
3.113484e+02	-1.556381e-02
3.131467e+02	-1.574379e-02
3.149554e+02	-1.592585e-02
3.167746e+02	-1.611001e-02
3.186043e+02	-1.629630e-02
3.204445e+02	-1.648474e-02
3.222954e+02	-1.667535e-02
3.241570e+02	-1.686816e-02
3.260293e+02	-1.706320e-02
3.279124e+02	-1.726049e-02
3.298064e+02	-1.746005e-02
3.317114e+02	-1.766192e-02
3.336273e+02	-1.786611e-02
3.355544e+02	-1.807266e-02
3.374925e+02	-1.828160e-02
3.394418e+02	-1.849294e-02
3.414024e+02	-1.870672e-02
3.433744e+02	-1.892297e-02
3.453577e+02	-1.914172e-02
3.473525e+02	-1.936298e-02
3.493588e+02	-1.958680e-02
3.513766e+02	-1.981320e-02
3.534062e+02	-2.004221e-02
3.554474e+02	-2.027386e-02
3.575005e+02	-2.050818e-02
3.595654e+02	-2.074520e-02
3.616422e+02	-2.098496e-02
3.637311e+02	-2.122748e-02
3.658320e+02	-2.147279e-02
3.679450e+02	-2.172094e-02
3.700702e+02	-2.197194e-02
3.722077e+02	-2.222584e-02
3.743576e+02	-2.248266e-02
3.765199e+02	-2.274245e-02
3.786946e+02	-2.300522e-02
3.808820e+02	-2.327103e-02
3.830819e+02	-2.353990e-02
3.852946e+02	-2.381186e-02
3.875200e+02	-2.408696e-02
3.897583e+02	-2.436523e-02
3.920096e+02	-2.464670e-02
3.942738e+02	-2.493142e-02
3.965511e+02	-2.521942e-02
3.988416e+02	-2.551073e-02
4.011452e+02	-2.580540e-02
4.034622e+02	-2.610346e-02
4.057926e+02	-2.640495e-02
4.081365e+02	-2.670991e-02
4.104938e+02	-2.701839e-02
4.128648e+02	-2.733042e-02
4.152495e+02	-2.764604e-02
4.176480e+02	-2.796529e-02
4.200603e+02	-2.828822e-02
4.224866e+02	-2.861486e-02
4.249268e+02	-2.894526e-02
4.273812e+02	-2.927947e-02
4.298497e+02	-2.961752e-02
4.323325e+02	-2.995946e-02
4.348297e+02	-3.030533e-02
4.373412e+02	-3.065518e-02
4.398673e+02	-3.100906e-02
4.424079e+02	-3.136701e-02
4.449633e+02	-3.172907e-02
4.475334e+02	-3.209530e-02
4.501183e+02	-3.246574e-02
4.527182e+02	-3.284044e-02
4.553330e+02	-3.321944e-02
4.579630e+02	-3.360280e-02
4.606082e+02	-3.399057e-02
4.632687e+02	-3.438280e-02
4.659445e+02	-3.477954e-02
4.686358e+02	-3.518083e-02
4.713426e+02	-3.558673e-02
4.740650e+02	-3.599730e-02
4.768032e+02	-3.641259e-02
4.795572e+02	-3.683264e-02
4.823271e+02	-3.725753e-02
4.851130e+02	-3.768729e-02
4.879150e+02	-3.812198e-02
4.907332e+02	-3.856167e-02
4.935676e+02	-3.900641e-02
4.964185e+02	-3.945625e-02
4.992858e+02	-3.991125e-02
5.021696e+02	-4.037148e-02
5.050701e+02	-4.083699e-02
5.079874e+02	-4.130784e-02
5.109215e+02	-4.178410e-02
5.138726e+02	-4.226582e-02
5.168407e+02	-4.275306e-02
5.198259e+02	-4.324590e-02
5.228284e+02	-4.374439e-02
5.258482e+02	-4.424859e-02
5.288855e+02	-4.475857e-02
5.319403e+02	-4.527441e-02
5.350128e+02	-4.579615e-02
5.381030e+02	-4.632388e-02
5.412111e+02	-4.685765e-02
5.443371e+02	-4.739754e-02
5.474812e+02	-4.794362e-02
5.506434e+02	-4.849595e-02
5.538239e+02	-4.905461e-02
5.570228e+02	-4.961967e-02
5.602401e+02	-5.019120e-02
5.634760e+02	-5.076927e-02
5.667306e+02	-5.135397e-02
5.700040e+02	-5.194535e-02
5.732964e+02	-5.254351e-02
5.766077e+02	-5.314851e-02
5.799382e+02	-5.376043e-02
5.832879e+02	-5.437935e-02
5.866569e+02	-5.500536e-02
5.900454e+02	-5.563852e-02
5.934535e+02	-5.627893e-02
5.968813e+02	-5.692666e-02
6.003288e+02	-5.758179e-02
6.037963e+02	-5.824441e-02
6.072838e+02	-5.891461e-02
6.107914e+02	-5.959246e-02
6.143194e+02	-6.027806e-02
6.178676e+02	-6.097149e-02
6.214364e+02	-6.167285e-02
6.250258e+02	-6.238221e-02
6.286359e+02	-6.309967e-02
6.322669e+02	-6.382532e-02
6.359189e+02	-6.455925e-02
6.395919e+02	-6.530156e-02
6.432862e+02	-6.605234e-02
6.470017e+02	-6.681169e-02
6.507388e+02	-6.757969e-02
6.544974e+02	-6.835646e-02
6.582778e+02	-6.914208e-02
6.620800e+02	-6.993666e-02
6.659041e+02	-7.074030e-02
6.697504e+02	-7.155309e-02
6.736188e+02	-7.237514e-02
6.775096e+02	-7.320656e-02
6.814229e+02	-7.404745e-02
6.853587e+02	-7.489791e-02
6.893173e+02	-7.575806e-02
6.932988e+02	-7.662800e-02
6.973033e+02	-7.750783e-02
7.013309e+02	-7.839768e-02
