Frequency(Hz)	Magnitude(dB)
1.000000e+01	-2.013918e+00
1.005776e+01	-2.032676e+00
1.011585e+01	-2.051411e+00
1.017428e+01	-2.070173e+00
1.023305e+01	-2.089334e+00
1.029215e+01	-2.108463e+00
1.035160e+01	-2.127803e+00
1.041139e+01	-2.147093e+00
1.047153e+01	-2.166839e+00
1.053201e+01	-2.186736e+00
1.059284e+01	-2.206252e+00
1.065403e+01	-2.226399e+00
1.071556e+01	-2.246682e+00
1.077746e+01	-2.266737e+00
1.083971e+01	-2.287113e+00
1.090232e+01	-2.307768e+00
1.096529e+01	-2.328291e+00
1.102862e+01	-2.349285e+00
1.109232e+01	-2.370088e+00
1.115639e+01	-2.391390e+00
1.122083e+01	-2.412494e+00
1.128564e+01	-2.434105e+00
1.135083e+01	-2.455406e+00
1.141639e+01	-2.477103e+00
1.148233e+01	-2.498913e+00
1.154865e+01	-2.520941e+00
1.161536e+01	-2.543139e+00
1.168245e+01	-2.565278e+00
1.174992e+01	-2.587683e+00
1.181779e+01	-2.610035e+00
1.188605e+01	-2.632792e+00
1.195470e+01	-2.655772e+00
1.202375e+01	-2.678602e+00
1.209320e+01	-2.701846e+00
1.216305e+01	-2.725121e+00
1.223330e+01	-2.748329e+00
1.230396e+01	-2.771835e+00
1.237503e+01	-2.795741e+00
1.244651e+01	-2.819412e+00
1.251840e+01	-2.843472e+00
1.259070e+01	-2.867701e+00
1.266343e+01	-2.891695e+00
1.273657e+01	-2.916073e+00
1.281014e+01	-2.940611e+00
1.288413e+01	-2.965322e+00
1.295855e+01	-2.989985e+00
1.303339e+01	-3.015053e+00
1.310867e+01	-3.040205e+00
1.318439e+01	-3.065456e+00
1.326054e+01	-3.090737e+00
1.333713e+01	-3.116372e+00
1.341417e+01	-3.142112e+00
1.349165e+01	-3.167817e+00
1.356958e+01	-3.194110e+00
1.364795e+01	-3.219956e+00
1.372678e+01	-3.246446e+00
1.380607e+01	-3.272866e+00
1.388581e+01	-3.299329e+00
1.396602e+01	-3.326192e+00
1.404668e+01	-3.352620e+00
1.412782e+01	-3.379659e+00
1.420942e+01	-3.407175e+00
1.429149e+01	-3.434122e+00
1.437404e+01	-3.461756e+00
1.445706e+01	-3.489057e+00
1.454057e+01	-3.516720e+00
1.462455e+01	-3.544723e+00
1.470902e+01	-3.572549e+00
1.479398e+01	-3.600880e+00
1.487943e+01	-3.629280e+00
1.496537e+01	-3.657236e+00
1.505181e+01	-3.685810e+00
1.513875e+01	-3.714783e+00
1.522619e+01	-3.743446e+00
1.531414e+01	-3.772538e+00
1.540259e+01	-3.801826e+00
1.549156e+01	-3.830690e+00
1.558103e+01	-3.860258e+00
1.567103e+01	-3.890016e+00
1.576155e+01	-3.919507e+00
1.585258e+01	-3.949004e+00
1.594415e+01	-3.979034e+00
1.603624e+01	-4.009398e+00
1.612886e+01	-4.039611e+00
1.622202e+01	-4.069779e+00
1.631572e+01	-4.100625e+00
1.640996e+01	-4.131003e+00
1.650474e+01	-4.161735e+00
1.660008e+01	-4.192601e+00
1.669596e+01	-4.223759e+00
1.679239e+01	-4.254718e+00
1.688938e+01	-4.286204e+00
1.698694e+01	-4.317626e+00
1.708505e+01	-4.349147e+00
1.718373e+01	-4.380883e+00
1.728299e+01	-4.412954e+00
1.738281e+01	-4.444562e+00
1.748322e+01	-4.476635e+00
1.758420e+01	-4.509175e+00
1.768576e+01	-4.541629e+00
1.778792e+01	-4.574059e+00
1.789066e+01	-4.606628e+00
1.799399e+01	-4.639403e+00
1.809793e+01	-4.672290e+00
1.820246e+01	-4.705265e+00
1.830760e+01	-4.738565e+00
1.841334e+01	-4.771942e+00
1.851969e+01	-4.805231e+00
1.862666e+01	-4.838680e+00
1.873425e+01	-4.872655e+00
1.884246e+01	-4.906437e+00
1.895129e+01	-4.940190e+00
1.906075e+01	-4.974254e+00
1.917085e+01	-5.008245e+00
1.928158e+01	-5.042645e+00
1.939295e+01	-5.077118e+00
1.950496e+01	-5.111545e+00
1.961762e+01	-5.146317e+00
1.973093e+01	-5.180728e+00
1.984490e+01	-5.216060e+00
1.995952e+01	-5.250908e+00
2.007480e+01	-5.286340e+00
2.019076e+01	-5.321405e+00
2.030738e+01	-5.356899e+00
2.042467e+01	-5.392536e+00
2.054264e+01	-5.428045e+00
2.066130e+01	-5.463922e+00
2.078064e+01	-5.499454e+00
2.090066e+01	-5.535875e+00
2.102139e+01	-5.571657e+00
2.114280e+01	-5.607841e+00
2.126492e+01	-5.643956e+00
2.138775e+01	-5.680706e+00
2.151128e+01	-5.717268e+00
2.163553e+01	-5.753861e+00
2.176050e+01	-5.790668e+00
2.188619e+01	-5.828008e+00
2.201260e+01	-5.864833e+00
2.213974e+01	-5.901623e+00
2.226762e+01	-5.938921e+00
2.239624e+01	-5.976230e+00
2.252560e+01	-6.013601e+00
2.265571e+01	-6.050979e+00
2.278656e+01	-6.089163e+00
2.291818e+01	-6.126570e+00
2.305055e+01	-6.164297e+00
2.318369e+01	-6.202639e+00
2.331760e+01	-6.240670e+00
2.345228e+01	-6.278627e+00
2.358774e+01	-6.317386e+00
2.372398e+01	-6.355252e+00
2.386101e+01	-6.394147e+00
2.399883e+01	-6.432476e+00
2.413745e+01	-6.471338e+00
2.427686e+01	-6.510037e+00
2.441709e+01	-6.549255e+00
2.455812e+01	-6.588151e+00
2.469997e+01	-6.627507e+00
2.484263e+01	-6.666133e+00
2.498612e+01	-6.705714e+00
2.513044e+01	-6.745010e+00
2.527559e+01	-6.784269e+00
2.542158e+01	-6.823953e+00
2.556842e+01	-6.863998e+00
2.571610e+01	-6.903585e+00
2.586463e+01	-6.943484e+00
2.601403e+01	-6.983501e+00
2.616428e+01	-7.023390e+00
2.631541e+01	-7.063694e+00
2.646740e+01	-7.103911e+00
2.662028e+01	-7.144002e+00
2.677404e+01	-7.184578e+00
2.692868e+01	-7.225483e+00
2.708422e+01	-7.265080e+00
2.724066e+01	-7.306068e+00
2.739800e+01	-7.347276e+00
2.755625e+01	-7.388166e+00
2.771541e+01	-7.428981e+00
2.787550e+01	-7.469165e+00
2.803650e+01	-7.511197e+00
2.819844e+01	-7.552269e+00
2.836131e+01	-7.593668e+00
2.852513e+01	-7.635064e+00
2.868989e+01	-7.676413e+00
2.885560e+01	-7.717840e+00
2.902227e+01	-7.759233e+00
2.918990e+01	-7.801083e+00
2.935850e+01	-7.843073e+00
2.952807e+01	-7.884840e+00
2.969863e+01	-7.926781e+00
2.987016e+01	-7.968733e+00
3.004269e+01	-8.010974e+00
3.021622e+01	-8.053011e+00
3.039075e+01	-8.094751e+00
3.056628e+01	-8.137339e+00
3.074283e+01	-8.179616e+00
3.092040e+01	-8.222234e+00
3.109900e+01	-8.264872e+00
3.127862e+01	-8.307187e+00
3.145929e+01	-8.349993e+00
3.164099e+01	-8.392943e+00
3.182375e+01	-8.436031e+00
3.200756e+01	-8.478440e+00
3.219244e+01	-8.521639e+00
3.237838e+01	-8.564236e+00
3.256540e+01	-8.607346e+00
3.275349e+01	-8.650431e+00
3.294268e+01	-8.694147e+00
3.313295e+01	-8.736786e+00
3.332433e+01	-8.780888e+00
3.351681e+01	-8.823982e+00
3.371040e+01	-8.867387e+00
3.390511e+01	-8.911032e+00
3.410094e+01	-8.954867e+00
3.429791e+01	-8.998425e+00
3.449601e+01	-9.042469e+00
3.469526e+01	-9.086107e+00
3.489566e+01	-9.129661e+00
3.509721e+01	-9.173742e+00
3.529993e+01	-9.217704e+00
3.550382e+01	-9.262274e+00
3.570889e+01	-9.305837e+00
3.591515e+01	-9.350367e+00
3.612259e+01	-9.394789e+00
3.633123e+01	-9.438542e+00
3.654108e+01	-9.483043e+00
3.675214e+01	-9.527769e+00
3.696442e+01	-9.571820e+00
3.717792e+01	-9.616708e+00
3.739266e+01	-9.661591e+00
3.760864e+01	-9.706307e+00
3.782587e+01	-9.750379e+00
3.804435e+01	-9.795010e+00
3.826409e+01	-9.839962e+00
3.848510e+01	-9.884661e+00
3.870739e+01	-9.929818e+00
3.893096e+01	-9.974951e+00
3.915583e+01	-1.001972e+01
3.938199e+01	-1.006477e+01
3.960946e+01	-1.011010e+01
3.983824e+01	-1.015545e+01
4.006834e+01	-1.020019e+01
4.029978e+01	-1.024562e+01
4.053255e+01	-1.029145e+01
4.076666e+01	-1.033635e+01
4.100213e+01	-1.038175e+01
4.123896e+01	-1.042715e+01
4.147715e+01	-1.047270e+01
4.171672e+01	-1.051813e+01
4.195767e+01	-1.056416e+01
4.220002e+01	-1.061009e+01
4.244377e+01	-1.065514e+01
4.268892e+01	-1.070119e+01
4.293549e+01	-1.074717e+01
4.318348e+01	-1.079309e+01
4.343291e+01	-1.083871e+01
4.368377e+01	-1.088445e+01
4.393609e+01	-1.093047e+01
4.418986e+01	-1.097639e+01
4.444510e+01	-1.102225e+01
4.470182e+01	-1.106870e+01
4.496001e+01	-1.111431e+01
4.521970e+01	-1.116037e+01
4.548089e+01	-1.120657e+01
4.574358e+01	-1.125434e+01
4.600779e+01	-1.129973e+01
4.627353e+01	-1.134636e+01
4.654081e+01	-1.139262e+01
4.680963e+01	-1.143868e+01
4.708000e+01	-1.148539e+01
4.735193e+01	-1.153147e+01
4.762543e+01	-1.157793e+01
4.790051e+01	-1.162457e+01
4.817719e+01	-1.167136e+01
4.845545e+01	-1.171789e+01
4.873533e+01	-1.176468e+01
4.901682e+01	-1.181204e+01
4.929994e+01	-1.185833e+01
4.958470e+01	-1.190500e+01
4.987110e+01	-1.195177e+01
5.015915e+01	-1.199892e+01
5.044887e+01	-1.204564e+01
5.074026e+01	-1.209296e+01
5.103333e+01	-1.213998e+01
5.132810e+01	-1.218630e+01
5.162457e+01	-1.223327e+01
5.192275e+01	-1.228067e+01
5.222265e+01	-1.232744e+01
5.252429e+01	-1.237545e+01
5.282767e+01	-1.242280e+01
5.313280e+01	-1.246933e+01
5.343969e+01	-1.251625e+01
5.374836e+01	-1.256424e+01
5.405880e+01	-1.261096e+01
5.437105e+01	-1.265838e+01
5.468509e+01	-1.270585e+01
5.500095e+01	-1.275285e+01
5.531863e+01	-1.280012e+01
5.563815e+01	-1.284786e+01
5.595951e+01	-1.289519e+01
5.628273e+01	-1.294278e+01
5.660782e+01	-1.299042e+01
5.693479e+01	-1.303800e+01
5.726364e+01	-1.308500e+01
5.759439e+01	-1.313377e+01
5.792705e+01	-1.318069e+01
5.826164e+01	-1.322819e+01
5.859815e+01	-1.327574e+01
5.893662e+01	-1.332291e+01
5.927703e+01	-1.337067e+01
5.961941e+01	-1.341911e+01
5.996377e+01	-1.346616e+01
6.031012e+01	-1.351451e+01
6.065847e+01	-1.356220e+01
6.100883e+01	-1.361017e+01
6.136121e+01	-1.365777e+01
6.171563e+01	-1.370487e+01
6.207210e+01	-1.375412e+01
6.243063e+01	-1.380149e+01
6.279122e+01	-1.384976e+01
6.315390e+01	-1.389697e+01
6.351868e+01	-1.394501e+01
6.388556e+01	-1.399441e+01
6.425456e+01	-1.404135e+01
6.462569e+01	-1.408984e+01
6.499897e+01	-1.413723e+01
6.537440e+01	-1.418570e+01
6.575200e+01	-1.423418e+01
6.613178e+01	-1.428270e+01
6.651375e+01	-1.433113e+01
6.689793e+01	-1.437852e+01
6.728433e+01	-1.442690e+01
6.767297e+01	-1.447535e+01
6.806384e+01	-1.452237e+01
6.845698e+01	-1.457070e+01
6.885238e+01	-1.461889e+01
6.925007e+01	-1.466709e+01
6.965005e+01	-1.471611e+01
7.005235e+01	-1.476407e+01
7.045697e+01	-1.481304e+01
7.086393e+01	-1.486099e+01
7.127323e+01	-1.491005e+01
7.168490e+01	-1.495819e+01
7.209895e+01	-1.500661e+01
7.251539e+01	-1.505570e+01
7.293424e+01	-1.510393e+01
7.335551e+01	-1.515158e+01
7.377920e+01	-1.520012e+01
7.420535e+01	-1.524866e+01
7.463396e+01	-1.529765e+01
7.506504e+01	-1.534689e+01
7.549861e+01	-1.539519e+01
7.593469e+01	-1.544329e+01
7.637328e+01	-1.549251e+01
7.681441e+01	-1.554103e+01
7.725809e+01	-1.558982e+01
7.770433e+01	-1.563817e+01
7.815315e+01	-1.568714e+01
7.860456e+01	-1.573423e+01
7.905857e+01	-1.578408e+01
7.951521e+01	-1.583270e+01
7.997449e+01	-1.588189e+01
8.043642e+01	-1.593016e+01
8.090102e+01	-1.597909e+01
8.136830e+01	-1.602702e+01
8.183828e+01	-1.607630e+01
8.231097e+01	-1.612512e+01
8.278640e+01	-1.617408e+01
8.326457e+01	-1.622344e+01
8.374550e+01	-1.627237e+01
8.422921e+01	-1.632075e+01
8.471572e+01	-1.636973e+01
8.520503e+01	-1.641911e+01
8.569717e+01	-1.646779e+01
8.619215e+01	-1.651584e+01
8.669000e+01	-1.656470e+01
8.719071e+01	-1.661424e+01
8.769432e+01	-1.666302e+01
8.820084e+01	-1.671252e+01
8.871029e+01	-1.676106e+01
8.922267e+01	-1.681016e+01
8.973802e+01	-1.685954e+01
9.025634e+01	-1.690752e+01
9.077766e+01	-1.695716e+01
9.130199e+01	-1.700530e+01
9.182935e+01	-1.705541e+01
9.235975e+01	-1.710384e+01
9.289321e+01	-1.715348e+01
9.342976e+01	-1.720265e+01
9.396941e+01	-1.725029e+01
9.451217e+01	-1.730109e+01
9.505807e+01	-1.735084e+01
9.560712e+01	-1.739941e+01
9.615934e+01	-1.744788e+01
9.671476e+01	-1.749737e+01
9.727338e+01	-1.754725e+01
9.783522e+01	-1.759442e+01
9.840032e+01	-1.764439e+01
9.896867e+01	-1.769260e+01
9.954031e+01	-1.774266e+01
1.001153e+02	-1.779148e+01
1.006935e+02	-1.784114e+01
1.012751e+02	-1.789087e+01
1.018601e+02	-1.794008e+01
1.024484e+02	-1.798920e+01
1.030402e+02	-1.803802e+01
1.036353e+02	-1.808795e+01
1.042339e+02	-1.813469e+01
1.048360e+02	-1.818589e+01
1.054415e+02	-1.823509e+01
1.060505e+02	-1.828445e+01
1.066631e+02	-1.833400e+01
1.072791e+02	-1.838286e+01
1.078988e+02	-1.843296e+01
1.085220e+02	-1.848229e+01
1.091488e+02	-1.853100e+01
1.097793e+02	-1.858167e+01
1.104133e+02	-1.862937e+01
1.110511e+02	-1.867891e+01
1.116925e+02	-1.872956e+01
1.123376e+02	-1.877893e+01
1.129865e+02	-1.882771e+01
1.136391e+02	-1.887573e+01
1.142955e+02	-1.892672e+01
1.149556e+02	-1.897534e+01
1.156196e+02	-1.902487e+01
1.162874e+02	-1.907343e+01
1.169591e+02	-1.912448e+01
1.176347e+02	-1.917252e+01
1.183141e+02	-1.922266e+01
1.189975e+02	-1.927250e+01
1.196848e+02	-1.932088e+01
1.203761e+02	-1.937077e+01
1.210714e+02	-1.942039e+01
1.217707e+02	-1.947017e+01
1.224740e+02	-1.951982e+01
1.231814e+02	-1.956907e+01
1.238929e+02	-1.961837e+01
1.246085e+02	-1.966745e+01
1.253283e+02	-1.971691e+01
1.260522e+02	-1.976679e+01
1.267802e+02	-1.981835e+01
1.275125e+02	-1.986449e+01
1.282490e+02	-1.991465e+01
1.289898e+02	-1.996488e+01
1.297348e+02	-2.001449e+01
1.304842e+02	-2.006303e+01
1.312378e+02	-2.011089e+01
1.319959e+02	-2.016532e+01
1.327583e+02	-2.021386e+01
1.335251e+02	-2.026199e+01
1.342963e+02	-2.031101e+01
1.350720e+02	-2.036060e+01
1.358522e+02	-2.041104e+01
1.366368e+02	-2.046099e+01
1.374260e+02	-2.051088e+01
1.382198e+02	-2.056024e+01
1.390182e+02	-2.060969e+01
1.398211e+02	-2.065862e+01
1.406287e+02	-2.070651e+01
1.414410e+02	-2.075833e+01
1.422579e+02	-2.080819e+01
1.430796e+02	-2.085628e+01
1.439060e+02	-2.090557e+01
1.447372e+02	-2.095693e+01
1.455732e+02	-2.100662e+01
1.464141e+02	-2.105706e+01
1.472597e+02	-2.110485e+01
1.481103e+02	-2.115443e+01
1.489658e+02	-2.120411e+01
1.498262e+02	-2.125593e+01
1.506916e+02	-2.130447e+01
1.515620e+02	-2.135306e+01
1.524374e+02	-2.140301e+01
1.533179e+02	-2.145299e+01
1.542034e+02	-2.150263e+01
1.550941e+02	-2.155379e+01
1.559899e+02	-2.160147e+01
1.568909e+02	-2.165142e+01
1.577971e+02	-2.170263e+01
1.587085e+02	-2.175135e+01
1.596252e+02	-2.179983e+01
1.605472e+02	-2.185045e+01
1.614745e+02	-2.190154e+01
1.624072e+02	-2.194915e+01
1.633453e+02	-2.199974e+01
1.642887e+02	-2.205141e+01
1.652377e+02	-2.210002e+01
1.661921e+02	-2.214922e+01
1.671520e+02	-2.219857e+01
1.681175e+02	-2.224704e+01
1.690885e+02	-2.229893e+01
1.700651e+02	-2.234805e+01
1.710474e+02	-2.239836e+01
1.720354e+02	-2.244703e+01
1.730291e+02	-2.249723e+01
1.740285e+02	-2.254784e+01
1.750337e+02	-2.259598e+01
1.760446e+02	-2.264708e+01
1.770615e+02	-2.269627e+01
1.780842e+02	-2.274563e+01
1.791128e+02	-2.279588e+01
1.801473e+02	-2.284520e+01
1.811878e+02	-2.289549e+01
1.822344e+02	-2.294658e+01
1.832870e+02	-2.299623e+01
1.843456e+02	-2.304603e+01
1.854104e+02	-2.309364e+01
1.864813e+02	-2.314386e+01
1.875584e+02	-2.319671e+01
1.886418e+02	-2.324455e+01
1.897313e+02	-2.329304e+01
1.908272e+02	-2.334217e+01
1.919294e+02	-2.339238e+01
1.930380e+02	-2.344431e+01
1.941530e+02	-2.349363e+01
1.952744e+02	-2.354305e+01
1.964023e+02	-2.359238e+01
1.975367e+02	-2.364160e+01
1.986777e+02	-2.369202e+01
1.998252e+02	-2.374274e+01
2.009794e+02	-2.379236e+01
2.021403e+02	-2.384263e+01
2.033078e+02	-2.389316e+01
2.044821e+02	-2.394283e+01
2.056632e+02	-2.399020e+01
2.068511e+02	-2.404087e+01
2.080459e+02	-2.408937e+01
2.092475e+02	-2.414059e+01
2.104561e+02	-2.419176e+01
2.116717e+02	-2.424137e+01
2.128943e+02	-2.428872e+01
2.141240e+02	-2.434084e+01
2.153608e+02	-2.439209e+01
2.166047e+02	-2.444042e+01
2.178558e+02	-2.449042e+01
2.191141e+02	-2.454060e+01
2.203797e+02	-2.458968e+01
2.216526e+02	-2.464209e+01
2.229329e+02	-2.468870e+01
2.242205e+02	-2.473873e+01
2.255156e+02	-2.479092e+01
2.268182e+02	-2.483772e+01
2.281283e+02	-2.488926e+01
2.294459e+02	-2.493954e+01
2.307712e+02	-2.499409e+01
2.321041e+02	-2.503840e+01
2.334447e+02	-2.508957e+01
2.347931e+02	-2.514081e+01
2.361493e+02	-2.518821e+01
2.375133e+02	-2.523982e+01
2.388851e+02	-2.529026e+01
2.402649e+02	-2.533664e+01
2.416527e+02	-2.539144e+01
2.430484e+02	-2.544051e+01
2.444523e+02	-2.549230e+01
2.458642e+02	-2.553772e+01
2.472843e+02	-2.558969e+01
2.487126e+02	-2.563775e+01
2.501492e+02	-2.568796e+01
2.515940e+02	-2.573817e+01
2.530472e+02	-2.578473e+01
2.545088e+02	-2.583866e+01
2.559789e+02	-2.589017e+01
2.574574e+02	-2.593805e+01
2.589444e+02	-2.598821e+01
2.604401e+02	-2.603985e+01
2.619444e+02	-2.608719e+01
2.634574e+02	-2.613696e+01
2.649791e+02	-2.618764e+01
2.665096e+02	-2.623951e+01
2.680489e+02	-2.628725e+01
2.695972e+02	-2.633565e+01
2.711544e+02	-2.638894e+01
2.727205e+02	-2.644083e+01
2.742958e+02	-2.648799e+01
2.758801e+02	-2.653850e+01
2.774736e+02	-2.658727e+01
2.790762e+02	-2.663712e+01
2.806882e+02	-2.668862e+01
2.823094e+02	-2.673900e+01
2.839400e+02	-2.678983e+01
2.855800e+02	-2.683779e+01
2.872295e+02	-2.688670e+01
2.888886e+02	-2.693695e+01
2.905572e+02	-2.699018e+01
2.922354e+02	-2.704040e+01
2.939234e+02	-2.708703e+01
2.956211e+02	-2.713695e+01
2.973286e+02	-2.718589e+01
2.990459e+02	-2.723439e+01
3.007732e+02	-2.728776e+01
3.025104e+02	-2.733610e+01
3.042577e+02	-2.738960e+01
3.060151e+02	-2.743613e+01
3.077826e+02	-2.748610e+01
3.095604e+02	-2.753877e+01
3.113484e+02	-2.758973e+01
3.131467e+02	-2.763799e+01
3.149554e+02	-2.768600e+01
3.167746e+02	-2.773755e+01
3.186043e+02	-2.778854e+01
3.204445e+02	-2.783953e+01
3.222954e+02	-2.788730e+01
3.241570e+02	-2.794103e+01
3.260293e+02	-2.798759e+01
3.279124e+02	-2.803861e+01
3.298064e+02	-2.808782e+01
3.317114e+02	-2.813467e+01
3.336273e+02	-2.818855e+01
3.355544e+02	-2.823823e+01
3.374925e+02	-2.829096e+01
3.394418e+02	-2.833657e+01
3.414024e+02	-2.838844e+01
3.433744e+02	-2.843865e+01
3.453577e+02	-2.848864e+01
3.473525e+02	-2.853812e+01
3.493588e+02	-2.858551e+01
3.513766e+02	-2.864023e+01
3.534062e+02	-2.869173e+01
3.554474e+02	-2.873824e+01
3.575005e+02	-2.878751e+01
3.595654e+02	-2.883781e+01
3.616422e+02	-2.888848e+01
3.637311e+02	-2.894178e+01
3.658320e+02	-2.898933e+01
3.679450e+02	-2.904014e+01
3.700702e+02	-2.908958e+01
3.722077e+02	-2.914018e+01
3.743576e+02	-2.918800e+01
3.765199e+02	-2.923410e+01
3.786946e+02	-2.928774e+01
3.808820e+02	-2.934022e+01
3.830819e+02	-2.939246e+01
3.852946e+02	-2.943825e+01
3.875200e+02	-2.948723e+01
3.897583e+02	-2.953863e+01
3.920096e+02	-2.959157e+01
3.942738e+02	-2.964025e+01
3.965511e+02	-2.968878e+01
3.988416e+02	-2.974610e+01
4.011452e+02	-2.979223e+01
4.034622e+02	-2.984065e+01
4.057926e+02	-2.989101e+01
4.081365e+02	-2.993673e+01
4.104938e+02	-2.998732e+01
4.128648e+02	-3.004217e+01
4.152495e+02	-3.008910e+01
4.176480e+02	-3.013941e+01
4.200603e+02	-3.018454e+01
4.224866e+02	-3.024368e+01
4.249268e+02	-3.028952e+01
4.273812e+02	-3.034036e+01
4.298497e+02	-3.039203e+01
4.323325e+02	-3.044706e+01
4.348297e+02	-3.048885e+01
4.373412e+02	-3.054274e+01
4.398673e+02	-3.059270e+01
4.424079e+02	-3.063725e+01
4.449633e+02	-3.069857e+01
4.475334e+02	-3.074637e+01
4.501183e+02	-3.079356e+01
4.527182e+02	-3.084328e+01
4.553330e+02	-3.088554e+01
4.579630e+02	-3.094184e+01
4.606082e+02	-3.098977e+01
4.632687e+02	-3.103777e+01
4.659445e+02	-3.109204e+01
4.686358e+02	-3.114115e+01
4.713426e+02	-3.119309e+01
4.740650e+02	-3.124022e+01
4.768032e+02	-3.129730e+01
4.795572e+02	-3.134435e+01
4.823271e+02	-3.139882e+01
4.851130e+02	-3.144449e+01
4.879150e+02	-3.149302e+01
4.907332e+02	-3.154808e+01
4.935676e+02	-3.159786e+01
4.964185e+02	-3.164446e+01
4.992858e+02	-3.169426e+01
5.021696e+02	-3.174938e+01
5.050701e+02	-3.179734e+01
5.079874e+02	-3.184517e+01
5.109215e+02	-3.189809e+01
5.138726e+02	-3.194603e+01
5.168407e+02	-3.199780e+01
5.198259e+02	-3.204401e+01
5.228284e+02	-3.209789e+01
5.258482e+02	-3.214693e+01
5.288855e+02	-3.220052e+01
5.319403e+02	-3.225283e+01
5.350128e+02	-3.230048e+01
5.381030e+02	-3.235171e+01
5.412111e+02	-3.240874e+01
5.443371e+02	-3.244833e+01
5.474812e+02	-3.250229e+01
5.506434e+02	-3.254874e+01
5.538239e+02	-3.259565e+01
5.570228e+02	-3.264812e+01
5.602401e+02	-3.269971e+01
5.634760e+02	-3.274819e+01
5.667306e+02	-3.279819e+01
5.700040e+02	-3.285199e+01
5.732964e+02	-3.289667e+01
5.766077e+02	-3.295026e+01
5.799382e+02	-3.300792e+01
5.832879e+02	-3.305859e+01
5.866569e+02	-3.309929e+01
5.900454e+02	-3.314809e+01
5.934535e+02	-3.320036e+01
5.968813e+02	-3.325545e+01
6.003288e+02	-3.330445e+01
6.037963e+02	-3.334930e+01
6.072838e+02	-3.340217e+01
6.107914e+02	-3.345672e+01
6.143194e+02	-3.350929e+01
6.178676e+02	-3.355947e+01
6.214364e+02	-3.360950e+01
6.250258e+02	-3.365707e+01
6.286359e+02	-3.370254e+01
6.322669e+02	-3.376076e+01
6.359189e+02	-3.380895e+01
6.395919e+02	-3.385992e+01
6.432862e+02	-3.391292e+01
6.470017e+02	-3.395710e+01
6.507388e+02	-3.400932e+01
6.544974e+02	-3.406156e+01
6.582778e+02	-3.410334e+01
6.620800e+02	-3.415153e+01
6.659041e+02	-3.420021e+01
6.697504e+02	-3.425778e+01
6.736188e+02	-3.431081e+01
6.775096e+02	-3.435864e+01
6.814229e+02	-3.441928e+01
6.853587e+02	-3.445668e+01
6.893173e+02	-3.451315e+01
6.932988e+02	-3.456521e+01
6.973033e+02	-3.461887e+01
7.013309e+02	-3.465913e+01
