Frequency(Hz)	Magnitude(dB)
1.000000e+01	-1.956935e-05
1.005776e+01	-1.979607e-05
1.011585e+01	-2.002541e-05
1.017428e+01	-2.025741e-05
1.023305e+01	-2.049209e-05
1.029215e+01	-2.072950e-05
1.035160e+01	-2.096966e-05
1.041139e+01	-2.121260e-05
1.047153e+01	-2.145835e-05
1.053201e+01	-2.170695e-05
1.059284e+01	-2.195843e-05
1.065403e+01	-2.221282e-05
1.071556e+01	-2.247016e-05
1.077746e+01	-2.273049e-05
1.083971e+01	-2.299383e-05
1.090232e+01	-2.326021e-05
1.096529e+01	-2.352969e-05
1.102862e+01	-2.380229e-05
1.109232e+01	-2.407804e-05
1.115639e+01	-2.435699e-05
1.122083e+01	-2.463917e-05
1.128564e+01	-2.492463e-05
1.135083e+01	-2.521338e-05
1.141639e+01	-2.550549e-05
1.148233e+01	-2.580097e-05
1.154865e+01	-2.609989e-05
1.161536e+01	-2.640226e-05
1.168245e+01	-2.670814e-05
1.174992e+01	-2.701756e-05
1.181779e+01	-2.733056e-05
1.188605e+01	-2.764719e-05
1.195470e+01	-2.796749e-05
1.202375e+01	-2.829150e-05
1.209320e+01	-2.861927e-05
1.216305e+01	-2.895083e-05
1.223330e+01	-2.928623e-05
1.230396e+01	-2.962552e-05
1.237503e+01	-2.996874e-05
1.244651e+01	-3.031593e-05
1.251840e+01	-3.066715e-05
1.259070e+01	-3.102243e-05
1.266343e+01	-3.138184e-05
1.273657e+01	-3.174540e-05
1.281014e+01	-3.211318e-05
1.288413e+01	-3.248522e-05
1.295855e+01	-3.286157e-05
1.303339e+01	-3.324228e-05
1.310867e+01	-3.362740e-05
1.318439e+01	-3.401698e-05
1.326054e+01	-3.441107e-05
1.333713e+01	-3.480973e-05
1.341417e+01	-3.521301e-05
1.349165e+01	-3.562096e-05
1.356958e+01	-3.603364e-05
1.364795e+01	-3.645110e-05
1.372678e+01	-3.687339e-05
1.380607e+01	-3.730058e-05
1.388581e+01	-3.773271e-05
1.396602e+01	-3.816986e-05
1.404668e+01	-3.861206e-05
1.412782e+01	-3.905939e-05
1.420942e+01	-3.951190e-05
1.429149e+01	-3.996966e-05
1.437404e+01	-4.043272e-05
1.445706e+01	-4.090114e-05
1.454057e+01	-4.137499e-05
1.462455e+01	-4.185433e-05
1.470902e+01	-4.233922e-05
1.479398e+01	-4.282973e-05
1.487943e+01	-4.332592e-05
1.496537e+01	-4.382786e-05
1.505181e+01	-4.433561e-05
1.513875e+01	-4.484925e-05
1.522619e+01	-4.536884e-05
1.531414e+01	-4.589445e-05
1.540259e+01	-4.642615e-05
1.549156e+01	-4.696400e-05
1.558103e+01	-4.750809e-05
1.567103e+01	-4.805848e-05
1.576155e+01	-4.861525e-05
1.585258e+01	-4.917847e-05
1.594415e+01	-4.974821e-05
1.603624e+01	-5.032456e-05
1.612886e+01	-5.090758e-05
1.622202e+01	-5.149735e-05
1.631572e+01	-5.209396e-05
1.640996e+01	-5.269748e-05
1.650474e+01	-5.330799e-05
1.660008e+01	-5.392557e-05
1.669596e+01	-5.455031e-05
1.679239e+01	-5.518229e-05
1.688938e+01	-5.582159e-05
1.698694e+01	-5.646829e-05
1.708505e+01	-5.712249e-05
1.718373e+01	-5.778426e-05
1.728299e+01	-5.845371e-05
1.738281e+01	-5.913090e-05
1.748322e+01	-5.981595e-05
1.758420e+01	-6.050893e-05
1.768576e+01	-6.120994e-05
1.778792e+01	-6.191906e-05
1.789066e+01	-6.263641e-05
1.799399e+01	-6.336206e-05
1.809793e+01	-6.409613e-05
1.820246e+01	-6.483869e-05
1.830760e+01	-6.558986e-05
1.841334e+01	-6.634973e-05
1.851969e+01	-6.711841e-05
1.862666e+01	-6.789599e-05
1.873425e+01	-6.868257e-05
1.884246e+01	-6.947827e-05
1.895129e+01	-7.028319e-05
1.906075e+01	-7.109744e-05
1.917085e+01	-7.192111e-05
1.928158e+01	-7.275433e-05
1.939295e+01	-7.359720e-05
1.950496e+01	-7.444984e-05
1.961762e+01	-7.531236e-05
1.973093e+01	-7.618486e-05
1.984490e+01	-7.706748e-05
1.995952e+01	-7.796032e-05
2.007480e+01	-7.886350e-05
2.019076e+01	-7.977715e-05
2.030738e+01	-8.070138e-05
2.042467e+01	-8.163632e-05
2.054264e+01	-8.258209e-05
2.066130e+01	-8.353882e-05
2.078064e+01	-8.450663e-05
2.090066e+01	-8.548565e-05
2.102139e+01	-8.647602e-05
2.114280e+01	-8.747786e-05
2.126492e+01	-8.849130e-05
2.138775e+01	-8.951649e-05
2.151128e+01	-9.055355e-05
2.163553e+01	-9.160263e-05
2.176050e+01	-9.266386e-05
2.188619e+01	-9.373738e-05
2.201260e+01	-9.482335e-05
2.213974e+01	-9.592189e-05
2.226762e+01	-9.703316e-05
2.239624e+01	-9.815730e-05
2.252560e+01	-9.929447e-05
2.265571e+01	-1.004448e-04
2.278656e+01	-1.016085e-04
2.291818e+01	-1.027856e-04
2.305055e+01	-1.039764e-04
2.318369e+01	-1.051810e-04
2.331760e+01	-1.063995e-04
2.345228e+01	-1.076322e-04
2.358774e+01	-1.088791e-04
2.372398e+01	-1.101405e-04
2.386101e+01	-1.114165e-04
2.399883e+01	-1.127073e-04
2.413745e+01	-1.140130e-04
2.427686e+01	-1.153338e-04
2.441709e+01	-1.166700e-04
2.455812e+01	-1.180216e-04
2.469997e+01	-1.193889e-04
2.484263e+01	-1.207721e-04
2.498612e+01	-1.221712e-04
2.513044e+01	-1.235866e-04
2.527559e+01	-1.250184e-04
2.542158e+01	-1.264667e-04
2.556842e+01	-1.279318e-04
2.571610e+01	-1.294139e-04
2.586463e+01	-1.309132e-04
2.601403e+01	-1.324299e-04
2.616428e+01	-1.339641e-04
2.631541e+01	-1.355161e-04
2.646740e+01	-1.370860e-04
2.662028e+01	-1.386742e-04
2.677404e+01	-1.402807e-04
2.692868e+01	-1.419059e-04
2.708422e+01	-1.435499e-04
2.724066e+01	-1.452129e-04
2.739800e+01	-1.468952e-04
2.755625e+01	-1.485970e-04
2.771541e+01	-1.503185e-04
2.787550e+01	-1.520600e-04
2.803650e+01	-1.538216e-04
2.819844e+01	-1.556036e-04
2.836131e+01	-1.574063e-04
2.852513e+01	-1.592299e-04
2.868989e+01	-1.610746e-04
2.885560e+01	-1.629406e-04
2.902227e+01	-1.648283e-04
2.918990e+01	-1.667379e-04
2.935850e+01	-1.686695e-04
2.952807e+01	-1.706236e-04
2.969863e+01	-1.726003e-04
2.987016e+01	-1.745998e-04
3.004269e+01	-1.766226e-04
3.021622e+01	-1.786688e-04
3.039075e+01	-1.807386e-04
3.056628e+01	-1.828325e-04
3.074283e+01	-1.849506e-04
3.092040e+01	-1.870933e-04
3.109900e+01	-1.892608e-04
3.127862e+01	-1.914534e-04
3.145929e+01	-1.936714e-04
3.164099e+01	-1.959150e-04
3.182375e+01	-1.981847e-04
3.200756e+01	-2.004807e-04
3.219244e+01	-2.028033e-04
3.237838e+01	-2.051527e-04
3.256540e+01	-2.075294e-04
3.275349e+01	-2.099337e-04
3.294268e+01	-2.123657e-04
3.313295e+01	-2.148260e-04
3.332433e+01	-2.173148e-04
3.351681e+01	-2.198323e-04
3.371040e+01	-2.223791e-04
3.390511e+01	-2.249554e-04
3.410094e+01	-2.275615e-04
3.429791e+01	-2.301977e-04
3.449601e+01	-2.328646e-04
3.469526e+01	-2.355623e-04
3.489566e+01	-2.382913e-04
3.509721e+01	-2.410519e-04
3.529993e+01	-2.438445e-04
3.550382e+01	-2.466694e-04
3.570889e+01	-2.495270e-04
3.591515e+01	-2.524178e-04
3.612259e+01	-2.553420e-04
3.633123e+01	-2.583002e-04
3.654108e+01	-2.612925e-04
3.675214e+01	-2.643196e-04
3.696442e+01	-2.673817e-04
3.717792e+01	-2.704793e-04
3.739266e+01	-2.736128e-04
3.760864e+01	-2.767826e-04
3.782587e+01	-2.799891e-04
3.804435e+01	-2.832327e-04
3.826409e+01	-2.865139e-04
3.848510e+01	-2.898332e-04
3.870739e+01	-2.931909e-04
3.893096e+01	-2.965874e-04
3.915583e+01	-3.000234e-04
3.938199e+01	-3.034991e-04
3.960946e+01	-3.070151e-04
3.983824e+01	-3.105718e-04
4.006834e+01	-3.141698e-04
4.029978e+01	-3.178094e-04
4.053255e+01	-3.214911e-04
4.076666e+01	-3.252156e-04
4.100213e+01	-3.289831e-04
4.123896e+01	-3.327944e-04
4.147715e+01	-3.366497e-04
4.171672e+01	-3.405498e-04
4.195767e+01	-3.444950e-04
4.220002e+01	-3.484859e-04
4.244377e+01	-3.525230e-04
4.268892e+01	-3.566069e-04
4.293549e+01	-3.607381e-04
4.318348e+01	-3.649172e-04
4.343291e+01	-3.691447e-04
4.368377e+01	-3.734212e-04
4.393609e+01	-3.777472e-04
4.418986e+01	-3.821233e-04
4.444510e+01	-3.865501e-04
4.470182e+01	-3.910282e-04
4.496001e+01	-3.955581e-04
4.521970e+01	-4.001406e-04
4.548089e+01	-4.047761e-04
4.574358e+01	-4.094653e-04
4.600779e+01	-4.142089e-04
4.627353e+01	-4.190074e-04
4.654081e+01	-4.238614e-04
4.680963e+01	-4.287717e-04
4.708000e+01	-4.337389e-04
4.735193e+01	-4.387637e-04
4.762543e+01	-4.438466e-04
4.790051e+01	-4.489884e-04
4.817719e+01	-4.541898e-04
4.845545e+01	-4.594514e-04
4.873533e+01	-4.647740e-04
4.901682e+01	-4.701583e-04
4.929994e+01	-4.756049e-04
4.958470e+01	-4.811146e-04
4.987110e+01	-4.866881e-04
5.015915e+01	-4.923262e-04
5.044887e+01	-4.980296e-04
5.074026e+01	-5.037991e-04
5.103333e+01	-5.096354e-04
5.132810e+01	-5.155393e-04
5.162457e+01	-5.215117e-04
5.192275e+01	-5.275531e-04
5.222265e+01	-5.336646e-04
5.252429e+01	-5.398469e-04
5.282767e+01	-5.461008e-04
5.313280e+01	-5.524271e-04
5.343969e+01	-5.588267e-04
5.374836e+01	-5.653004e-04
5.405880e+01	-5.718492e-04
5.437105e+01	-5.784738e-04
5.468509e+01	-5.851751e-04
5.500095e+01	-5.919540e-04
5.531863e+01	-5.988115e-04
5.563815e+01	-6.057484e-04
5.595951e+01	-6.127657e-04
5.628273e+01	-6.198643e-04
5.660782e+01	-6.270450e-04
5.693479e+01	-6.343090e-04
5.726364e+01	-6.416571e-04
5.759439e+01	-6.490903e-04
5.792705e+01	-6.566096e-04
5.826164e+01	-6.642161e-04
5.859815e+01	-6.719106e-04
5.893662e+01	-6.796943e-04
5.927703e+01	-6.875681e-04
5.961941e+01	-6.955331e-04
5.996377e+01	-7.035904e-04
6.031012e+01	-7.117410e-04
6.065847e+01	-7.199860e-04
6.100883e+01	-7.283266e-04
6.136121e+01	-7.367637e-04
6.171563e+01	-7.452986e-04
6.207210e+01	-7.539323e-04
6.243063e+01	-7.626661e-04
6.279122e+01	-7.715010e-04
6.315390e+01	-7.804383e-04
6.351868e+01	-7.894790e-04
6.388556e+01	-7.986245e-04
6.425456e+01	-8.078759e-04
6.462569e+01	-8.172345e-04
6.499897e+01	-8.267015e-04
6.537440e+01	-8.362781e-04
6.575200e+01	-8.459657e-04
6.613178e+01	-8.557655e-04
6.651375e+01	-8.656788e-04
6.689793e+01	-8.757069e-04
6.728433e+01	-8.858512e-04
6.767297e+01	-8.961129e-04
6.806384e+01	-9.064936e-04
6.845698e+01	-9.169944e-04
6.885238e+01	-9.276169e-04
6.925007e+01	-9.383625e-04
6.965005e+01	-9.492325e-04
7.005235e+01	-9.602284e-04
7.045697e+01	-9.713516e-04
7.086393e+01	-9.826037e-04
7.127323e+01	-9.939862e-04
7.168490e+01	-1.005500e-03
7.209895e+01	-1.017148e-03
7.251539e+01	-1.028931e-03
7.293424e+01	-1.040850e-03
7.335551e+01	-1.052907e-03
7.377920e+01	-1.065103e-03
7.420535e+01	-1.077441e-03
7.463396e+01	-1.089922e-03
7.506504e+01	-1.102548e-03
7.549861e+01	-1.115319e-03
7.593469e+01	-1.128239e-03
7.637328e+01	-1.141308e-03
7.681441e+01	-1.154529e-03
7.725809e+01	-1.167903e-03
7.770433e+01	-1.181431e-03
7.815315e+01	-1.195117e-03
7.860456e+01	-1.208960e-03
7.905857e+01	-1.222965e-03
7.951521e+01	-1.237131e-03
7.997449e+01	-1.251461e-03
8.043642e+01	-1.265958e-03
8.090102e+01	-1.280622e-03
8.136830e+01	-1.295456e-03
8.183828e+01	-1.310462e-03
8.231097e+01	-1.325642e-03
8.278640e+01	-1.340997e-03
8.326457e+01	-1.356531e-03
8.374550e+01	-1.372244e-03
8.422921e+01	-1.388139e-03
8.471572e+01	-1.404219e-03
8.520503e+01	-1.420484e-03
8.569717e+01	-1.436938e-03
8.619215e+01	-1.453583e-03
8.669000e+01	-1.470420e-03
8.719071e+01	-1.487452e-03
8.769432e+01	-1.504682e-03
8.820084e+01	-1.522111e-03
8.871029e+01	-1.539742e-03
8.922267e+01	-1.557577e-03
8.973802e+01	-1.575619e-03
9.025634e+01	-1.593869e-03
9.077766e+01	-1.612331e-03
9.130199e+01	-1.631007e-03
9.182935e+01	-1.649899e-03
9.235975e+01	-1.669010e-03
9.289321e+01	-1.688342e-03
9.342976e+01	-1.707898e-03
9.396941e+01	-1.727681e-03
9.451217e+01	-1.747692e-03
9.505807e+01	-1.767936e-03
9.560712e+01	-1.788414e-03
9.615934e+01	-1.809129e-03
9.671476e+01	-1.830083e-03
9.727338e+01	-1.851281e-03
9.783522e+01	-1.872724e-03
9.840032e+01	-1.894415e-03
9.896867e+01	-1.916358e-03
9.954031e+01	-1.938554e-03
1.001153e+02	-1.961008e-03
1.006935e+02	-1.983721e-03
1.012751e+02	-2.006698e-03
1.018601e+02	-2.029941e-03
1.024484e+02	-2.053453e-03
1.030402e+02	-2.077237e-03
1.036353e+02	-2.101296e-03
1.042339e+02	-2.125634e-03
1.048360e+02	-2.150254e-03
1.054415e+02	-2.175159e-03
1.060505e+02	-2.200353e-03
1.066631e+02	-2.225838e-03
1.072791e+02	-2.251618e-03
1.078988e+02	-2.277697e-03
1.085220e+02	-2.304077e-03
1.091488e+02	-2.330764e-03
1.097793e+02	-2.357759e-03
1.104133e+02	-2.385067e-03
1.110511e+02	-2.412691e-03
1.116925e+02	-2.440634e-03
1.123376e+02	-2.468902e-03
1.129865e+02	-2.497496e-03
1.136391e+02	-2.526422e-03
1.142955e+02	-2.555683e-03
1.149556e+02	-2.585282e-03
1.156196e+02	-2.615224e-03
1.162874e+02	-2.645513e-03
1.169591e+02	-2.676153e-03
1.176347e+02	-2.707147e-03
1.183141e+02	-2.738500e-03
1.189975e+02	-2.770216e-03
1.196848e+02	-2.802300e-03
1.203761e+02	-2.834754e-03
1.210714e+02	-2.867585e-03
1.217707e+02	-2.900795e-03
1.224740e+02	-2.934391e-03
1.231814e+02	-2.968375e-03
1.238929e+02	-3.002752e-03
1.246085e+02	-3.037528e-03
1.253283e+02	-3.072706e-03
1.260522e+02	-3.108291e-03
1.267802e+02	-3.144288e-03
1.275125e+02	-3.180702e-03
1.282490e+02	-3.217538e-03
1.289898e+02	-3.254800e-03
1.297348e+02	-3.292494e-03
1.304842e+02	-3.330623e-03
1.312378e+02	-3.369194e-03
1.319959e+02	-3.408212e-03
1.327583e+02	-3.447681e-03
1.335251e+02	-3.487608e-03
1.342963e+02	-3.527996e-03
1.350720e+02	-3.568852e-03
1.358522e+02	-3.610181e-03
1.366368e+02	-3.651988e-03
1.374260e+02	-3.694279e-03
1.382198e+02	-3.737060e-03
1.390182e+02	-3.780336e-03
1.398211e+02	-3.824113e-03
1.406287e+02	-3.868397e-03
1.414410e+02	-3.913193e-03
1.422579e+02	-3.958507e-03
1.430796e+02	-4.004347e-03
1.439060e+02	-4.050716e-03
1.447372e+02	-4.097623e-03
1.455732e+02	-4.145072e-03
1.464141e+02	-4.193071e-03
1.472597e+02	-4.241625e-03
1.481103e+02	-4.290741e-03
1.489658e+02	-4.340425e-03
1.498262e+02	-4.390685e-03
1.506916e+02	-4.441526e-03
1.515620e+02	-4.492955e-03
1.524374e+02	-4.544980e-03
1.533179e+02	-4.597607e-03
1.542034e+02	-4.650843e-03
1.550941e+02	-4.704695e-03
1.559899e+02	-4.759170e-03
1.568909e+02	-4.814276e-03
1.577971e+02	-4.870019e-03
1.587085e+02	-4.926408e-03
1.596252e+02	-4.983448e-03
1.605472e+02	-5.041149e-03
1.614745e+02	-5.099518e-03
1.624072e+02	-5.158562e-03
1.633453e+02	-5.218289e-03
1.642887e+02	-5.278708e-03
1.652377e+02	-5.339825e-03
1.661921e+02	-5.401650e-03
1.671520e+02	-5.464190e-03
1.681175e+02	-5.527454e-03
1.690885e+02	-5.591450e-03
1.700651e+02	-5.656186e-03
1.710474e+02	-5.721671e-03
1.720354e+02	-5.787914e-03
1.730291e+02	-5.854923e-03
1.740285e+02	-5.922707e-03
1.750337e+02	-5.991276e-03
1.760446e+02	-6.060638e-03
1.770615e+02	-6.130802e-03
1.780842e+02	-6.201778e-03
1.791128e+02	-6.273576e-03
1.801473e+02	-6.346203e-03
1.811878e+02	-6.419671e-03
1.822344e+02	-6.493989e-03
1.832870e+02	-6.569167e-03
1.843456e+02	-6.645214e-03
1.854104e+02	-6.722141e-03
1.864813e+02	-6.799957e-03
1.875584e+02	-6.878674e-03
1.886418e+02	-6.958301e-03
1.897313e+02	-7.038849e-03
1.908272e+02	-7.120329e-03
1.919294e+02	-7.202751e-03
1.930380e+02	-7.286127e-03
1.941530e+02	-7.370467e-03
1.952744e+02	-7.455782e-03
1.964023e+02	-7.542084e-03
1.975367e+02	-7.629384e-03
1.986777e+02	-7.717694e-03
1.998252e+02	-7.807025e-03
2.009794e+02	-7.897389e-03
2.021403e+02	-7.988798e-03
2.033078e+02	-8.081264e-03
2.044821e+02	-8.174799e-03
2.056632e+02	-8.269416e-03
2.068511e+02	-8.365126e-03
2.080459e+02	-8.461944e-03
2.092475e+02	-8.559881e-03
2.104561e+02	-8.658950e-03
2.116717e+02	-8.759165e-03
2.128943e+02	-8.860538e-03
2.141240e+02	-8.963084e-03
2.153608e+02	-9.066815e-03
2.166047e+02	-9.171745e-03
2.178558e+02	-9.277888e-03
2.191141e+02	-9.385258e-03
2.203797e+02	-9.493870e-03
2.216526e+02	-9.603737e-03
2.229329e+02	-9.714874e-03
2.242205e+02	-9.827295e-03
2.255156e+02	-9.941016e-03
2.268182e+02	-1.005605e-02
2.281283e+02	-1.017242e-02
2.294459e+02	-1.029013e-02
2.307712e+02	-1.040920e-02
2.321041e+02	-1.052964e-02
2.334447e+02	-1.065148e-02
2.347931e+02	-1.077473e-02
2.361493e+02	-1.089940e-02
2.375133e+02	-1.102551e-02
2.388851e+02	-1.115308e-02
2.402649e+02	-1.128212e-02
2.416527e+02	-1.141266e-02
2.430484e+02	-1.154470e-02
2.444523e+02	-1.167827e-02
2.458642e+02	-1.181338e-02
2.472843e+02	-1.195005e-02
2.487126e+02	-1.208830e-02
2.501492e+02	-1.222815e-02
2.515940e+02	-1.236962e-02
2.530472e+02	-1.251271e-02
2.545088e+02	-1.265746e-02
2.559789e+02	-1.280389e-02
2.574574e+02	-1.295200e-02
2.589444e+02	-1.310183e-02
2.604401e+02	-1.325338e-02
2.619444e+02	-1.340669e-02
2.634574e+02	-1.356177e-02
2.649791e+02	-1.371863e-02
2.665096e+02	-1.387731e-02
2.680489e+02	-1.403782e-02
2.695972e+02	-1.420019e-02
2.711544e+02	-1.436443e-02
2.727205e+02	-1.453057e-02
2.742958e+02	-1.469862e-02
2.758801e+02	-1.486862e-02
2.774736e+02	-1.504057e-02
2.790762e+02	-1.521452e-02
2.806882e+02	-1.539047e-02
2.823094e+02	-1.556845e-02
2.839400e+02	-1.574849e-02
2.855800e+02	-1.593060e-02
2.872295e+02	-1.611482e-02
2.888886e+02	-1.630116e-02
2.905572e+02	-1.648965e-02
2.922354e+02	-1.668032e-02
2.939234e+02	-1.687319e-02
2.956211e+02	-1.706829e-02
2.973286e+02	-1.726563e-02
2.990459e+02	-1.746526e-02
3.007732e+02	-1.766718e-02
3.025104e+02	-1.787144e-02
3.042577e+02	-1.807805e-02
3.060151e+02	-1.828705e-02
3.077826e+02	-1.849846e-02
3.095604e+02	-1.871230e-02
3.113484e+02	-1.892862e-02
3.131467e+02	-1.914742e-02
3.149554e+02	-1.936876e-02
3.167746e+02	-1.959264e-02
3.186043e+02	-1.981911e-02
3.204445e+02	-2.004818e-02
3.222954e+02	-2.027990e-02
3.241570e+02	-2.051429e-02
3.260293e+02	-2.075139e-02
3.279124e+02	-2.099122e-02
3.298064e+02	-2.123381e-02
3.317114e+02	-2.147920e-02
3.336273e+02	-2.172742e-02
3.355544e+02	-2.197849e-02
3.374925e+02	-2.223247e-02
3.394418e+02	-2.248937e-02
3.414024e+02	-2.274923e-02
3.433744e+02	-2.301208e-02
3.453577e+02	-2.327797e-02
3.473525e+02	-2.354692e-02
3.493588e+02	-2.381896e-02
3.513766e+02	-2.409414e-02
3.534062e+02	-2.437250e-02
3.554474e+02	-2.465405e-02
3.575005e+02	-2.493886e-02
3.595654e+02	-2.522694e-02
3.616422e+02	-2.551834e-02
3.637311e+02	-2.581309e-02
3.658320e+02	-2.611124e-02
3.679450e+02	-2.641283e-02
3.700702e+02	-2.671788e-02
3.722077e+02	-2.702645e-02
3.743576e+02	-2.733857e-02
3.765199e+02	-2.765428e-02
3.786946e+02	-2.797363e-02
3.808820e+02	-2.829665e-02
3.830819e+02	-2.862340e-02
3.852946e+02	-2.895390e-02
3.875200e+02	-2.928820e-02
3.897583e+02	-2.962635e-02
3.920096e+02	-2.996839e-02
3.942738e+02	-3.031437e-02
3.965511e+02	-3.066433e-02
3.988416e+02	-3.101831e-02
4.011452e+02	-3.137636e-02
4.034622e+02	-3.173854e-02
4.057926e+02	-3.210487e-02
4.081365e+02	-3.247542e-02
4.104938e+02	-3.285023e-02
4.128648e+02	-3.322935e-02
4.152495e+02	-3.361283e-02
4.176480e+02	-3.400071e-02
4.200603e+02	-3.439306e-02
4.224866e+02	-3.478991e-02
4.249268e+02	-3.519133e-02
4.273812e+02	-3.559735e-02
4.298497e+02	-3.600804e-02
4.323325e+02	-3.642345e-02
4.348297e+02	-3.684363e-02
4.373412e+02	-3.726864e-02
4.398673e+02	-3.769853e-02
4.424079e+02	-3.813336e-02
4.449633e+02	-3.857318e-02
4.475334e+02	-3.901805e-02
4.501183e+02	-3.946802e-02
4.527182e+02	-3.992316e-02
4.553330e+02	-4.038353e-02
4.579630e+02	-4.084918e-02
4.606082e+02	-4.132017e-02
4.632687e+02	-4.179657e-02
4.659445e+02	-4.227843e-02
4.686358e+02	-4.276582e-02
4.713426e+02	-4.325881e-02
4.740650e+02	-4.375744e-02
4.768032e+02	-4.426180e-02
4.795572e+02	-4.477193e-02
4.823271e+02	-4.528792e-02
4.851130e+02	-4.580982e-02
4.879150e+02	-4.633770e-02
4.907332e+02	-4.687164e-02
4.935676e+02	-4.741169e-02
4.964185e+02	-4.795793e-02
4.992858e+02	-4.851043e-02
5.021696e+02	-4.906925e-02
5.050701e+02	-4.963448e-02
5.079874e+02	-5.020618e-02
5.109215e+02	-5.078443e-02
5.138726e+02	-5.136930e-02
5.168407e+02	-5.196086e-02
5.198259e+02	-5.255919e-02
5.228284e+02	-5.316437e-02
5.258482e+02	-5.377648e-02
5.288855e+02	-5.439559e-02
5.319403e+02	-5.502178e-02
5.350128e+02	-5.565514e-02
5.381030e+02	-5.629573e-02
5.412111e+02	-5.694366e-02
5.443371e+02	-5.759899e-02
5.474812e+02	-5.826181e-02
5.506434e+02	-5.893220e-02
5.538239e+02	-5.961026e-02
5.570228e+02	-6.029606e-02
5.602401e+02	-6.098970e-02
5.634760e+02	-6.169126e-02
5.667306e+02	-6.240084e-02
5.700040e+02	-6.311851e-02
5.732964e+02	-6.384438e-02
5.766077e+02	-6.457853e-02
5.799382e+02	-6.532107e-02
5.832879e+02	-6.607207e-02
5.866569e+02	-6.683164e-02
5.900454e+02	-6.759988e-02
5.934535e+02	-6.837688e-02
5.968813e+02	-6.916274e-02
6.003288e+02	-6.995755e-02
6.037963e+02	-7.076143e-02
6.072838e+02	-7.157447e-02
6.107914e+02	-7.239677e-02
6.143194e+02	-7.322843e-02
6.178676e+02	-7.406957e-02
6.214364e+02	-7.492029e-02
6.250258e+02	-7.578070e-02
6.286359e+02	-7.665089e-02
6.322669e+02	-7.753099e-02
6.359189e+02	-7.842111e-02
6.395919e+02	-7.932135e-02
6.432862e+02	-8.023183e-02
6.470017e+02	-8.115266e-02
6.507388e+02	-8.208396e-02
6.544974e+02	-8.302584e-02
6.582778e+02	-8.397843e-02
6.620800e+02	-8.494184e-02
6.659041e+02	-8.591619e-02
6.697504e+02	-8.690161e-02
6.736188e+02	-8.789822e-02
6.775096e+02	-8.890614e-02
6.814229e+02	-8.992549e-02
6.853587e+02	-9.095641e-02
6.893173e+02	-9.199903e-02
6.932988e+02	-9.305346e-02
6.973033e+02	-9.411985e-02
7.013309e+02	-9.519833e-02
