Frequency(Hz)	Magnitude(dB)
1.000000e+01	-1.981011e+00
1.005776e+01	-1.999583e+00
1.011585e+01	-2.017865e+00
1.017428e+01	-2.036586e+00
1.023305e+01	-2.055283e+00
1.029215e+01	-2.074370e+00
1.035160e+01	-2.093246e+00
1.041139e+01	-2.112539e+00
1.047153e+01	-2.131663e+00
1.053201e+01	-2.151444e+00
1.059284e+01	-2.170922e+00
1.065403e+01	-2.190821e+00
1.071556e+01	-2.210661e+00
1.077746e+01	-2.230521e+00
1.083971e+01	-2.250866e+00
1.090232e+01	-2.271128e+00
1.096529e+01	-2.291460e+00
1.102862e+01	-2.311949e+00
1.109232e+01	-2.332641e+00
1.115639e+01	-2.353681e+00
1.122083e+01	-2.374687e+00
1.128564e+01	-2.395724e+00
1.135083e+01	-2.416922e+00
1.141639e+01	-2.438612e+00
1.148233e+01	-2.460114e+00
1.154865e+01	-2.481787e+00
1.161536e+01	-2.503755e+00
1.168245e+01	-2.525581e+00
1.174992e+01	-2.547600e+00
1.181779e+01	-2.570109e+00
1.188605e+01	-2.592450e+00
1.195470e+01	-2.614978e+00
1.202375e+01	-2.637458e+00
1.209320e+01	-2.660551e+00
1.216305e+01	-2.683575e+00
1.223330e+01	-2.706581e+00
1.230396e+01	-2.730098e+00
1.237503e+01	-2.753323e+00
1.244651e+01	-2.776845e+00
1.251840e+01	-2.800639e+00
1.259070e+01	-2.824464e+00
1.266343e+01	-2.848351e+00
1.273657e+01	-2.872485e+00
1.281014e+01	-2.896934e+00
1.288413e+01	-2.921390e+00
1.295855e+01	-2.945802e+00
1.303339e+01	-2.970682e+00
1.310867e+01	-2.995272e+00
1.318439e+01	-3.020313e+00
1.326054e+01	-3.045770e+00
1.333713e+01	-3.070883e+00
1.341417e+01	-3.096089e+00
1.349165e+01	-3.121885e+00
1.356958e+01	-3.147588e+00
1.364795e+01	-3.173338e+00
1.372678e+01	-3.199358e+00
1.380607e+01	-3.225667e+00
1.388581e+01	-3.252042e+00
1.396602e+01	-3.278301e+00
1.404668e+01	-3.305175e+00
1.412782e+01	-3.331609e+00
1.420942e+01	-3.358555e+00
1.429149e+01	-3.385731e+00
1.437404e+01	-3.412618e+00
1.445706e+01	-3.440012e+00
1.454057e+01	-3.467413e+00
1.462455e+01	-3.495091e+00
1.470902e+01	-3.522535e+00
1.479398e+01	-3.550650e+00
1.487943e+01	-3.578791e+00
1.496537e+01	-3.606723e+00
1.505181e+01	-3.635168e+00
1.513875e+01	-3.663577e+00
1.522619e+01	-3.692074e+00
1.531414e+01	-3.720890e+00
1.540259e+01	-3.749410e+00
1.549156e+01	-3.778835e+00
1.558103e+01	-3.807696e+00
1.567103e+01	-3.837163e+00
1.576155e+01	-3.866474e+00
1.585258e+01	-3.895904e+00
1.594415e+01	-3.925748e+00
1.603624e+01	-3.955667e+00
1.612886e+01	-3.985706e+00
1.622202e+01	-4.015637e+00
1.631572e+01	-4.045779e+00
1.640996e+01	-4.076199e+00
1.650474e+01	-4.106633e+00
1.660008e+01	-4.137519e+00
1.669596e+01	-4.168002e+00
1.679239e+01	-4.199344e+00
1.688938e+01	-4.230231e+00
1.698694e+01	-4.261501e+00
1.708505e+01	-4.292406e+00
1.718373e+01	-4.324619e+00
1.728299e+01	-4.355926e+00
1.738281e+01	-4.387549e+00
1.748322e+01	-4.419493e+00
1.758420e+01	-4.451439e+00
1.768576e+01	-4.483927e+00
1.778792e+01	-4.516035e+00
1.789066e+01	-4.548533e+00
1.799399e+01	-4.580719e+00
1.809793e+01	-4.613245e+00
1.820246e+01	-4.646206e+00
1.830760e+01	-4.679328e+00
1.841334e+01	-4.712473e+00
1.851969e+01	-4.745822e+00
1.862666e+01	-4.778940e+00
1.873425e+01	-4.812256e+00
1.884246e+01	-4.845944e+00
1.895129e+01	-4.879559e+00
1.906075e+01	-4.913254e+00
1.917085e+01	-4.947172e+00
1.928158e+01	-4.981443e+00
1.939295e+01	-5.015332e+00
1.950496e+01	-5.050025e+00
1.961762e+01	-5.084196e+00
1.973093e+01	-5.118777e+00
1.984490e+01	-5.153654e+00
1.995952e+01	-5.188497e+00
2.007480e+01	-5.223194e+00
2.019076e+01	-5.258809e+00
2.030738e+01	-5.293661e+00
2.042467e+01	-5.329028e+00
2.054264e+01	-5.364363e+00
2.066130e+01	-5.400047e+00
2.078064e+01	-5.435374e+00
2.090066e+01	-5.471276e+00
2.102139e+01	-5.507080e+00
2.114280e+01	-5.543215e+00
2.126492e+01	-5.579307e+00
2.138775e+01	-5.615338e+00
2.151128e+01	-5.652044e+00
2.163553e+01	-5.688374e+00
2.176050e+01	-5.725049e+00
2.188619e+01	-5.761979e+00
2.201260e+01	-5.798700e+00
2.213974e+01	-5.835537e+00
2.226762e+01	-5.872115e+00
2.239624e+01	-5.909811e+00
2.252560e+01	-5.946960e+00
2.265571e+01	-5.984355e+00
2.278656e+01	-6.021328e+00
2.291818e+01	-6.059433e+00
2.305055e+01	-6.096974e+00
2.318369e+01	-6.134643e+00
2.331760e+01	-6.172739e+00
2.345228e+01	-6.210576e+00
2.358774e+01	-6.248281e+00
2.372398e+01	-6.286746e+00
2.386101e+01	-6.325189e+00
2.399883e+01	-6.363643e+00
2.413745e+01	-6.402030e+00
2.427686e+01	-6.440711e+00
2.441709e+01	-6.479644e+00
2.455812e+01	-6.518648e+00
2.469997e+01	-6.557193e+00
2.484263e+01	-6.596463e+00
2.498612e+01	-6.635178e+00
2.513044e+01	-6.674685e+00
2.527559e+01	-6.714176e+00
2.542158e+01	-6.753621e+00
2.556842e+01	-6.792708e+00
2.571610e+01	-6.832194e+00
2.586463e+01	-6.872346e+00
2.601403e+01	-6.911991e+00
2.616428e+01	-6.951496e+00
2.631541e+01	-6.991657e+00
2.646740e+01	-7.031849e+00
2.662028e+01	-7.072140e+00
2.677404e+01	-7.111931e+00
2.692868e+01	-7.153065e+00
2.708422e+01	-7.193164e+00
2.724066e+01	-7.233276e+00
2.739800e+01	-7.274110e+00
2.755625e+01	-7.314500e+00
2.771541e+01	-7.355521e+00
2.787550e+01	-7.396574e+00
2.803650e+01	-7.437543e+00
2.819844e+01	-7.478617e+00
2.836131e+01	-7.519882e+00
2.852513e+01	-7.560816e+00
2.868989e+01	-7.602383e+00
2.885560e+01	-7.643936e+00
2.902227e+01	-7.685083e+00
2.918990e+01	-7.726393e+00
2.935850e+01	-7.768123e+00
2.952807e+01	-7.809442e+00
2.969863e+01	-7.851804e+00
2.987016e+01	-7.893490e+00
3.004269e+01	-7.935758e+00
3.021622e+01	-7.977631e+00
3.039075e+01	-8.019968e+00
3.056628e+01	-8.062119e+00
3.074283e+01	-8.104384e+00
3.092040e+01	-8.146371e+00
3.109900e+01	-8.188676e+00
3.127862e+01	-8.231111e+00
3.145929e+01	-8.273693e+00
3.164099e+01	-8.316073e+00
3.182375e+01	-8.359045e+00
3.200756e+01	-8.401867e+00
3.219244e+01	-8.444627e+00
3.237838e+01	-8.487641e+00
3.256540e+01	-8.530126e+00
3.275349e+01	-8.573345e+00
3.294268e+01	-8.616799e+00
3.313295e+01	-8.659696e+00
3.332433e+01	-8.703274e+00
3.351681e+01	-8.746309e+00
3.371040e+01	-8.789885e+00
3.390511e+01	-8.833293e+00
3.410094e+01	-8.876609e+00
3.429791e+01	-8.920538e+00
3.449601e+01	-8.964022e+00
3.469526e+01	-9.007894e+00
3.489566e+01	-9.051762e+00
3.509721e+01	-9.095110e+00
3.529993e+01	-9.139424e+00
3.550382e+01	-9.183193e+00
3.570889e+01	-9.227072e+00
3.591515e+01	-9.271028e+00
3.612259e+01	-9.315469e+00
3.633123e+01	-9.359772e+00
3.654108e+01	-9.403408e+00
3.675214e+01	-9.448368e+00
3.696442e+01	-9.492686e+00
3.717792e+01	-9.536955e+00
3.739266e+01	-9.581347e+00
3.760864e+01	-9.625650e+00
3.782587e+01	-9.670458e+00
3.804435e+01	-9.715429e+00
3.826409e+01	-9.759799e+00
3.848510e+01	-9.804774e+00
3.870739e+01	-9.849568e+00
3.893096e+01	-9.894442e+00
3.915583e+01	-9.939282e+00
3.938199e+01	-9.984207e+00
3.960946e+01	-1.002936e+01
3.983824e+01	-1.007453e+01
4.006834e+01	-1.011965e+01
4.029978e+01	-1.016496e+01
4.053255e+01	-1.021014e+01
4.076666e+01	-1.025527e+01
4.100213e+01	-1.030080e+01
4.123896e+01	-1.034604e+01
4.147715e+01	-1.039121e+01
4.171672e+01	-1.043705e+01
4.195767e+01	-1.048249e+01
4.220002e+01	-1.052764e+01
4.244377e+01	-1.057385e+01
4.268892e+01	-1.061893e+01
4.293549e+01	-1.066545e+01
4.318348e+01	-1.071126e+01
4.343291e+01	-1.075590e+01
4.368377e+01	-1.080219e+01
4.393609e+01	-1.084835e+01
4.418986e+01	-1.089345e+01
4.444510e+01	-1.094015e+01
4.470182e+01	-1.098602e+01
4.496001e+01	-1.103261e+01
4.521970e+01	-1.107875e+01
4.548089e+01	-1.112452e+01
4.574358e+01	-1.117099e+01
4.600779e+01	-1.121639e+01
4.627353e+01	-1.126321e+01
4.654081e+01	-1.130976e+01
4.680963e+01	-1.135571e+01
4.708000e+01	-1.140197e+01
4.735193e+01	-1.144880e+01
4.762543e+01	-1.149531e+01
4.790051e+01	-1.154164e+01
4.817719e+01	-1.158714e+01
4.845545e+01	-1.163533e+01
4.873533e+01	-1.168080e+01
4.901682e+01	-1.172802e+01
4.929994e+01	-1.177487e+01
4.958470e+01	-1.182206e+01
4.987110e+01	-1.186798e+01
5.015915e+01	-1.191510e+01
5.044887e+01	-1.196232e+01
5.074026e+01	-1.200844e+01
5.103333e+01	-1.205496e+01
5.132810e+01	-1.210207e+01
5.162457e+01	-1.214897e+01
5.192275e+01	-1.219633e+01
5.222265e+01	-1.224327e+01
5.252429e+01	-1.229122e+01
5.282767e+01	-1.233746e+01
5.313280e+01	-1.238501e+01
5.343969e+01	-1.243216e+01
5.374836e+01	-1.247913e+01
5.405880e+01	-1.252630e+01
5.437105e+01	-1.257344e+01
5.468509e+01	-1.262072e+01
5.500095e+01	-1.266872e+01
5.531863e+01	-1.271553e+01
5.563815e+01	-1.276281e+01
5.595951e+01	-1.281002e+01
5.628273e+01	-1.285787e+01
5.660782e+01	-1.290467e+01
5.693479e+01	-1.295195e+01
5.726364e+01	-1.299969e+01
5.759439e+01	-1.304754e+01
5.792705e+01	-1.309533e+01
5.826164e+01	-1.314259e+01
5.859815e+01	-1.319025e+01
5.893662e+01	-1.323863e+01
5.927703e+01	-1.328596e+01
5.961941e+01	-1.333436e+01
5.996377e+01	-1.338129e+01
6.031012e+01	-1.342845e+01
6.065847e+01	-1.347635e+01
6.100883e+01	-1.352427e+01
6.136121e+01	-1.357217e+01
6.171563e+01	-1.362037e+01
6.207210e+01	-1.366810e+01
6.243063e+01	-1.371598e+01
6.279122e+01	-1.376307e+01
6.315390e+01	-1.381260e+01
6.351868e+01	-1.385955e+01
6.388556e+01	-1.390682e+01
6.425456e+01	-1.395494e+01
6.462569e+01	-1.400299e+01
6.499897e+01	-1.405235e+01
6.537440e+01	-1.409960e+01
6.575200e+01	-1.414802e+01
6.613178e+01	-1.419611e+01
6.651375e+01	-1.424473e+01
6.689793e+01	-1.429175e+01
6.728433e+01	-1.434080e+01
6.767297e+01	-1.438868e+01
6.806384e+01	-1.443711e+01
6.845698e+01	-1.448479e+01
6.885238e+01	-1.453284e+01
6.925007e+01	-1.458206e+01
6.965005e+01	-1.463019e+01
7.005235e+01	-1.467805e+01
7.045697e+01	-1.472702e+01
7.086393e+01	-1.477513e+01
7.127323e+01	-1.482354e+01
7.168490e+01	-1.487180e+01
7.209895e+01	-1.491931e+01
7.251539e+01	-1.496880e+01
7.293424e+01	-1.501746e+01
7.335551e+01	-1.506504e+01
7.377920e+01	-1.511383e+01
7.420535e+01	-1.516245e+01
7.463396e+01	-1.521055e+01
7.506504e+01	-1.525945e+01
7.549861e+01	-1.530756e+01
7.593469e+01	-1.535671e+01
7.637328e+01	-1.540577e+01
7.681441e+01	-1.545388e+01
7.725809e+01	-1.550271e+01
7.770433e+01	-1.555161e+01
7.815315e+01	-1.559922e+01
7.860456e+01	-1.564810e+01
7.905857e+01	-1.569727e+01
7.951521e+01	-1.574586e+01
7.997449e+01	-1.579426e+01
8.043642e+01	-1.584315e+01
8.090102e+01	-1.589214e+01
8.136830e+01	-1.594114e+01
8.183828e+01	-1.598915e+01
8.231097e+01	-1.603835e+01
8.278640e+01	-1.608747e+01
8.326457e+01	-1.613574e+01
8.374550e+01	-1.618386e+01
8.422921e+01	-1.623357e+01
8.471572e+01	-1.628252e+01
8.520503e+01	-1.633102e+01
8.569717e+01	-1.637986e+01
8.619215e+01	-1.642850e+01
8.669000e+01	-1.647798e+01
8.719071e+01	-1.652654e+01
8.769432e+01	-1.657567e+01
8.820084e+01	-1.662418e+01
8.871029e+01	-1.667405e+01
8.922267e+01	-1.672081e+01
8.973802e+01	-1.677189e+01
9.025634e+01	-1.682059e+01
9.077766e+01	-1.686891e+01
9.130199e+01	-1.691911e+01
9.182935e+01	-1.696740e+01
9.235975e+01	-1.701609e+01
9.289321e+01	-1.706604e+01
9.342976e+01	-1.711362e+01
9.396941e+01	-1.716390e+01
9.451217e+01	-1.721243e+01
9.505807e+01	-1.726069e+01
9.560712e+01	-1.731142e+01
9.615934e+01	-1.735955e+01
9.671476e+01	-1.740760e+01
9.727338e+01	-1.745761e+01
9.783522e+01	-1.750657e+01
9.840032e+01	-1.755749e+01
9.896867e+01	-1.760576e+01
9.954031e+01	-1.765466e+01
1.001153e+02	-1.770559e+01
1.006935e+02	-1.775298e+01
1.012751e+02	-1.780283e+01
1.018601e+02	-1.785171e+01
1.024484e+02	-1.790108e+01
1.030402e+02	-1.795021e+01
1.036353e+02	-1.800007e+01
1.042339e+02	-1.804883e+01
1.048360e+02	-1.809814e+01
1.054415e+02	-1.814771e+01
1.060505e+02	-1.819526e+01
1.066631e+02	-1.824638e+01
1.072791e+02	-1.829508e+01
1.078988e+02	-1.834402e+01
1.085220e+02	-1.839346e+01
1.091488e+02	-1.844329e+01
1.097793e+02	-1.849294e+01
1.104133e+02	-1.854134e+01
1.110511e+02	-1.858937e+01
1.116925e+02	-1.863996e+01
1.123376e+02	-1.869004e+01
1.129865e+02	-1.873774e+01
1.136391e+02	-1.878834e+01
1.142955e+02	-1.883795e+01
1.149556e+02	-1.888751e+01
1.156196e+02	-1.893661e+01
1.162874e+02	-1.898467e+01
1.169591e+02	-1.903538e+01
1.176347e+02	-1.908671e+01
1.183141e+02	-1.913360e+01
1.189975e+02	-1.918246e+01
1.196848e+02	-1.923097e+01
1.203761e+02	-1.928296e+01
1.210714e+02	-1.933200e+01
1.217707e+02	-1.938052e+01
1.224740e+02	-1.943123e+01
1.231814e+02	-1.948114e+01
1.238929e+02	-1.952990e+01
1.246085e+02	-1.957929e+01
1.253283e+02	-1.962723e+01
1.260522e+02	-1.967697e+01
1.267802e+02	-1.972744e+01
1.275125e+02	-1.977701e+01
1.282490e+02	-1.982597e+01
1.289898e+02	-1.987638e+01
1.297348e+02	-1.992447e+01
1.304842e+02	-1.997432e+01
1.312378e+02	-2.002596e+01
1.319959e+02	-2.007507e+01
1.327583e+02	-2.012240e+01
1.335251e+02	-2.017260e+01
1.342963e+02	-2.022336e+01
1.350720e+02	-2.027364e+01
1.358522e+02	-2.032100e+01
1.366368e+02	-2.037148e+01
1.374260e+02	-2.042132e+01
1.382198e+02	-2.047194e+01
1.390182e+02	-2.052140e+01
1.398211e+02	-2.057099e+01
1.406287e+02	-2.062113e+01
1.414410e+02	-2.066999e+01
1.422579e+02	-2.072004e+01
1.430796e+02	-2.076917e+01
1.439060e+02	-2.081745e+01
1.447372e+02	-2.086821e+01
1.455732e+02	-2.091821e+01
1.464141e+02	-2.096875e+01
1.472597e+02	-2.101721e+01
1.481103e+02	-2.106568e+01
1.489658e+02	-2.111564e+01
1.498262e+02	-2.116469e+01
1.506916e+02	-2.121524e+01
1.515620e+02	-2.126504e+01
1.524374e+02	-2.131484e+01
1.533179e+02	-2.136544e+01
1.542034e+02	-2.141311e+01
1.550941e+02	-2.146150e+01
1.559899e+02	-2.151338e+01
1.568909e+02	-2.156252e+01
1.577971e+02	-2.161231e+01
1.587085e+02	-2.166279e+01
1.596252e+02	-2.171326e+01
1.605472e+02	-2.176237e+01
1.614745e+02	-2.181155e+01
1.624072e+02	-2.186046e+01
1.633453e+02	-2.191133e+01
1.642887e+02	-2.195964e+01
1.652377e+02	-2.200994e+01
1.661921e+02	-2.206045e+01
1.671520e+02	-2.211001e+01
1.681175e+02	-2.215816e+01
1.690885e+02	-2.220900e+01
1.700651e+02	-2.225790e+01
1.710474e+02	-2.230852e+01
1.720354e+02	-2.236035e+01
1.730291e+02	-2.240868e+01
1.740285e+02	-2.245904e+01
1.750337e+02	-2.250809e+01
1.760446e+02	-2.255677e+01
1.770615e+02	-2.260739e+01
1.780842e+02	-2.265612e+01
1.791128e+02	-2.270696e+01
1.801473e+02	-2.275833e+01
1.811878e+02	-2.280557e+01
1.822344e+02	-2.285555e+01
1.832870e+02	-2.290575e+01
1.843456e+02	-2.295597e+01
1.854104e+02	-2.300524e+01
1.864813e+02	-2.305451e+01
1.875584e+02	-2.310314e+01
1.886418e+02	-2.315332e+01
1.897313e+02	-2.320581e+01
1.908272e+02	-2.325454e+01
1.919294e+02	-2.330767e+01
1.930380e+02	-2.335540e+01
1.941530e+02	-2.340398e+01
1.952744e+02	-2.345387e+01
1.964023e+02	-2.350427e+01
1.975367e+02	-2.355488e+01
1.986777e+02	-2.360340e+01
1.998252e+02	-2.365109e+01
2.009794e+02	-2.370360e+01
2.021403e+02	-2.375330e+01
2.033078e+02	-2.380301e+01
2.044821e+02	-2.385227e+01
2.056632e+02	-2.390285e+01
2.068511e+02	-2.395210e+01
2.080459e+02	-2.400081e+01
2.092475e+02	-2.405310e+01
2.104561e+02	-2.409965e+01
2.116717e+02	-2.415312e+01
2.128943e+02	-2.420216e+01
2.141240e+02	-2.425077e+01
2.153608e+02	-2.430279e+01
2.166047e+02	-2.435128e+01
2.178558e+02	-2.440068e+01
2.191141e+02	-2.445164e+01
2.203797e+02	-2.450162e+01
2.216526e+02	-2.454744e+01
2.229329e+02	-2.459970e+01
2.242205e+02	-2.465160e+01
2.255156e+02	-2.469952e+01
2.268182e+02	-2.474746e+01
2.281283e+02	-2.479962e+01
2.294459e+02	-2.485028e+01
2.307712e+02	-2.489825e+01
2.321041e+02	-2.495150e+01
2.334447e+02	-2.500141e+01
2.347931e+02	-2.504825e+01
2.361493e+02	-2.510125e+01
2.375133e+02	-2.514928e+01
2.388851e+02	-2.520270e+01
2.402649e+02	-2.524713e+01
2.416527e+02	-2.529705e+01
2.430484e+02	-2.534886e+01
2.444523e+02	-2.539864e+01
2.458642e+02	-2.544674e+01
2.472843e+02	-2.549886e+01
2.487126e+02	-2.555038e+01
2.501492e+02	-2.560080e+01
2.515940e+02	-2.565001e+01
2.530472e+02	-2.569950e+01
2.545088e+02	-2.574504e+01
2.559789e+02	-2.579947e+01
2.574574e+02	-2.585272e+01
2.589444e+02	-2.589949e+01
2.604401e+02	-2.594646e+01
2.619444e+02	-2.599603e+01
2.634574e+02	-2.604938e+01
2.649791e+02	-2.610027e+01
2.665096e+02	-2.614664e+01
2.680489e+02	-2.620008e+01
2.695972e+02	-2.624784e+01
2.711544e+02	-2.629725e+01
2.727205e+02	-2.634841e+01
2.742958e+02	-2.639936e+01
2.758801e+02	-2.644937e+01
2.774736e+02	-2.650015e+01
2.790762e+02	-2.654722e+01
2.806882e+02	-2.659554e+01
2.823094e+02	-2.664484e+01
2.839400e+02	-2.669745e+01
2.855800e+02	-2.674660e+01
2.872295e+02	-2.679602e+01
2.888886e+02	-2.684842e+01
2.905572e+02	-2.689898e+01
2.922354e+02	-2.694775e+01
2.939234e+02	-2.699815e+01
2.956211e+02	-2.704816e+01
2.973286e+02	-2.709734e+01
2.990459e+02	-2.714529e+01
3.007732e+02	-2.719803e+01
3.025104e+02	-2.724740e+01
3.042577e+02	-2.729497e+01
3.060151e+02	-2.734855e+01
3.077826e+02	-2.739991e+01
3.095604e+02	-2.744747e+01
3.113484e+02	-2.750001e+01
3.131467e+02	-2.754866e+01
3.149554e+02	-2.759525e+01
3.167746e+02	-2.765071e+01
3.186043e+02	-2.770033e+01
3.204445e+02	-2.774811e+01
3.222954e+02	-2.779537e+01
3.241570e+02	-2.784511e+01
3.260293e+02	-2.789655e+01
3.279124e+02	-2.794735e+01
3.298064e+02	-2.799959e+01
3.317114e+02	-2.804613e+01
3.336273e+02	-2.810055e+01
3.355544e+02	-2.815046e+01
3.374925e+02	-2.819788e+01
3.394418e+02	-2.824679e+01
3.414024e+02	-2.829658e+01
3.433744e+02	-2.834935e+01
3.453577e+02	-2.839575e+01
3.473525e+02	-2.844464e+01
3.493588e+02	-2.849839e+01
3.513766e+02	-2.854874e+01
3.534062e+02	-2.859864e+01
3.554474e+02	-2.864715e+01
3.575005e+02	-2.869757e+01
3.595654e+02	-2.874725e+01
3.616422e+02	-2.880048e+01
3.637311e+02	-2.884922e+01
3.658320e+02	-2.890052e+01
3.679450e+02	-2.894753e+01
3.700702e+02	-2.899885e+01
3.722077e+02	-2.904349e+01
3.743576e+02	-2.910016e+01
3.765199e+02	-2.915466e+01
3.786946e+02	-2.920459e+01
3.808820e+02	-2.925331e+01
3.830819e+02	-2.930700e+01
3.852946e+02	-2.934981e+01
3.875200e+02	-2.940032e+01
3.897583e+02	-2.945427e+01
3.920096e+02	-2.950165e+01
3.942738e+02	-2.954950e+01
3.965511e+02	-2.959761e+01
3.988416e+02	-2.965056e+01
4.011452e+02	-2.969799e+01
4.034622e+02	-2.974939e+01
4.057926e+02	-2.980227e+01
4.081365e+02	-2.985129e+01
4.104938e+02	-2.989792e+01
4.128648e+02	-2.994666e+01
4.152495e+02	-2.999848e+01
4.176480e+02	-3.005059e+01
4.200603e+02	-3.010393e+01
4.224866e+02	-3.015261e+01
4.249268e+02	-3.020011e+01
4.273812e+02	-3.025599e+01
4.298497e+02	-3.030092e+01
4.323325e+02	-3.035288e+01
4.348297e+02	-3.040212e+01
4.373412e+02	-3.045039e+01
4.398673e+02	-3.050110e+01
4.424079e+02	-3.055131e+01
4.449633e+02	-3.060368e+01
4.475334e+02	-3.064903e+01
4.501183e+02	-3.069945e+01
4.527182e+02	-3.075141e+01
4.553330e+02	-3.080049e+01
4.579630e+02	-3.085251e+01
4.606082e+02	-3.090170e+01
4.632687e+02	-3.095612e+01
4.659445e+02	-3.100327e+01
4.686358e+02	-3.105036e+01
4.713426e+02	-3.110456e+01
4.740650e+02	-3.115473e+01
4.768032e+02	-3.120741e+01
4.795572e+02	-3.125066e+01
4.823271e+02	-3.130370e+01
4.851130e+02	-3.135270e+01
4.879150e+02	-3.140486e+01
4.907332e+02	-3.145356e+01
4.935676e+02	-3.150767e+01
4.964185e+02	-3.155912e+01
4.992858e+02	-3.160726e+01
5.021696e+02	-3.165654e+01
5.050701e+02	-3.170725e+01
5.079874e+02	-3.175955e+01
5.109215e+02	-3.180390e+01
5.138726e+02	-3.185861e+01
5.168407e+02	-3.190633e+01
5.198259e+02	-3.195597e+01
5.228284e+02	-3.200582e+01
5.258482e+02	-3.205098e+01
5.288855e+02	-3.211123e+01
5.319403e+02	-3.215646e+01
5.350128e+02	-3.220192e+01
5.381030e+02	-3.225715e+01
5.412111e+02	-3.231141e+01
5.443371e+02	-3.235949e+01
5.474812e+02	-3.241146e+01
5.506434e+02	-3.245087e+01
5.538239e+02	-3.251323e+01
5.570228e+02	-3.256143e+01
5.602401e+02	-3.261122e+01
5.634760e+02	-3.266417e+01
5.667306e+02	-3.271135e+01
5.700040e+02	-3.276370e+01
5.732964e+02	-3.281328e+01
5.766077e+02	-3.286155e+01
5.799382e+02	-3.291247e+01
5.832879e+02	-3.296487e+01
5.866569e+02	-3.301286e+01
5.900454e+02	-3.306575e+01
5.934535e+02	-3.310983e+01
5.968813e+02	-3.316368e+01
6.003288e+02	-3.321510e+01
6.037963e+02	-3.325861e+01
6.072838e+02	-3.330781e+01
6.107914e+02	-3.335976e+01
6.143194e+02	-3.341793e+01
6.178676e+02	-3.345966e+01
6.214364e+02	-3.351249e+01
6.250258e+02	-3.357081e+01
6.286359e+02	-3.361170e+01
6.322669e+02	-3.366979e+01
6.359189e+02	-3.371190e+01
6.395919e+02	-3.376878e+01
6.432862e+02	-3.381399e+01
6.470017e+02	-3.387124e+01
6.507388e+02	-3.391839e+01
6.544974e+02	-3.397164e+01
6.582778e+02	-3.401869e+01
6.620800e+02	-3.407342e+01
6.659041e+02	-3.412380e+01
6.697504e+02	-3.416058e+01
6.736188e+02	-3.422107e+01
6.775096e+02	-3.427279e+01
6.814229e+02	-3.432154e+01
6.853587e+02	-3.436110e+01
6.893173e+02	-3.442821e+01
6.932988e+02	-3.446869e+01
6.973033e+02	-3.451800e+01
7.013309e+02	-3.457192e+01
