Frequency(Hz)	Magnitude(dB)
1.000000e+01	-2.234622e+00
1.005776e+01	-2.254739e+00
1.011585e+01	-2.275193e+00
1.017428e+01	-2.295476e+00
1.023305e+01	-2.316148e+00
1.029215e+01	-2.337010e+00
1.035160e+01	-2.357787e+00
1.041139e+01	-2.379055e+00
1.047153e+01	-2.399970e+00
1.053201e+01	-2.421367e+00
1.059284e+01	-2.442603e+00
1.065403e+01	-2.464487e+00
1.071556e+01	-2.485922e+00
1.077746e+01	-2.507860e+00
1.083971e+01	-2.530125e+00
1.090232e+01	-2.552029e+00
1.096529e+01	-2.574384e+00
1.102862e+01	-2.596743e+00
1.109232e+01	-2.619593e+00
1.115639e+01	-2.642204e+00
1.122083e+01	-2.664985e+00
1.128564e+01	-2.688067e+00
1.135083e+01	-2.711360e+00
1.141639e+01	-2.734440e+00
1.148233e+01	-2.757909e+00
1.154865e+01	-2.781473e+00
1.161536e+01	-2.805472e+00
1.168245e+01	-2.829276e+00
1.174992e+01	-2.853166e+00
1.181779e+01	-2.877319e+00
1.188605e+01	-2.901713e+00
1.195470e+01	-2.926164e+00
1.202375e+01	-2.950793e+00
1.209320e+01	-2.975675e+00
1.216305e+01	-3.000144e+00
1.223330e+01	-3.025253e+00
1.230396e+01	-3.050549e+00
1.237503e+01	-3.075826e+00
1.244651e+01	-3.101423e+00
1.251840e+01	-3.127219e+00
1.259070e+01	-3.152918e+00
1.266343e+01	-3.178511e+00
1.273657e+01	-3.204566e+00
1.281014e+01	-3.230856e+00
1.288413e+01	-3.257108e+00
1.295855e+01	-3.283537e+00
1.303339e+01	-3.310278e+00
1.310867e+01	-3.336935e+00
1.318439e+01	-3.363739e+00
1.326054e+01	-3.390787e+00
1.333713e+01	-3.418002e+00
1.341417e+01	-3.445314e+00
1.349165e+01	-3.472972e+00
1.356958e+01	-3.500481e+00
1.364795e+01	-3.528211e+00
1.372678e+01	-3.555849e+00
1.380607e+01	-3.584087e+00
1.388581e+01	-3.612434e+00
1.396602e+01	-3.640538e+00
1.404668e+01	-3.669094e+00
1.412782e+01	-3.697605e+00
1.420942e+01	-3.726677e+00
1.429149e+01	-3.755100e+00
1.437404e+01	-3.784439e+00
1.445706e+01	-3.813618e+00
1.454057e+01	-3.842665e+00
1.462455e+01	-3.872339e+00
1.470902e+01	-3.901929e+00
1.479398e+01	-3.931588e+00
1.487943e+01	-3.961460e+00
1.496537e+01	-3.991462e+00
1.505181e+01	-4.021570e+00
1.513875e+01	-4.051675e+00
1.522619e+01	-4.082385e+00
1.531414e+01	-4.112890e+00
1.540259e+01	-4.143627e+00
1.549156e+01	-4.174341e+00
1.558103e+01	-4.204959e+00
1.567103e+01	-4.236434e+00
1.576155e+01	-4.267356e+00
1.585258e+01	-4.298727e+00
1.594415e+01	-4.330753e+00
1.603624e+01	-4.362109e+00
1.612886e+01	-4.393768e+00
1.622202e+01	-4.425788e+00
1.631572e+01	-4.457782e+00
1.640996e+01	-4.489893e+00
1.650474e+01	-4.522617e+00
1.660008e+01	-4.554909e+00
1.669596e+01	-4.587144e+00
1.679239e+01	-4.619780e+00
1.688938e+01	-4.652967e+00
1.698694e+01	-4.686185e+00
1.708505e+01	-4.718780e+00
1.718373e+01	-4.752401e+00
1.728299e+01	-4.785554e+00
1.738281e+01	-4.819025e+00
1.748322e+01	-4.852473e+00
1.758420e+01	-4.886191e+00
1.768576e+01	-4.919949e+00
1.778792e+01	-4.953948e+00
1.789066e+01	-4.988345e+00
1.799399e+01	-5.022251e+00
1.809793e+01	-5.056749e+00
1.820246e+01	-5.091163e+00
1.830760e+01	-5.125453e+00
1.841334e+01	-5.160329e+00
1.851969e+01	-5.195373e+00
1.862666e+01	-5.230263e+00
1.873425e+01	-5.265629e+00
1.884246e+01	-5.300587e+00
1.895129e+01	-5.335826e+00
1.906075e+01	-5.371210e+00
1.917085e+01	-5.407074e+00
1.928158e+01	-5.442230e+00
1.939295e+01	-5.478357e+00
1.950496e+01	-5.514250e+00
1.961762e+01	-5.550411e+00
1.973093e+01	-5.586166e+00
1.984490e+01	-5.622667e+00
1.995952e+01	-5.659094e+00
2.007480e+01	-5.695712e+00
2.019076e+01	-5.732510e+00
2.030738e+01	-5.768618e+00
2.042467e+01	-5.805421e+00
2.054264e+01	-5.842649e+00
2.066130e+01	-5.879734e+00
2.078064e+01	-5.916881e+00
2.090066e+01	-5.954347e+00
2.102139e+01	-5.991538e+00
2.114280e+01	-6.028990e+00
2.126492e+01	-6.066656e+00
2.138775e+01	-6.104531e+00
2.151128e+01	-6.141966e+00
2.163553e+01	-6.180281e+00
2.176050e+01	-6.218191e+00
2.188619e+01	-6.256194e+00
2.201260e+01	-6.294384e+00
2.213974e+01	-6.333018e+00
2.226762e+01	-6.371352e+00
2.239624e+01	-6.409592e+00
2.252560e+01	-6.448228e+00
2.265571e+01	-6.487166e+00
2.278656e+01	-6.525684e+00
2.291818e+01	-6.564612e+00
2.305055e+01	-6.604058e+00
2.318369e+01	-6.643276e+00
2.331760e+01	-6.682403e+00
2.345228e+01	-6.721332e+00
2.358774e+01	-6.761238e+00
2.372398e+01	-6.800543e+00
2.386101e+01	-6.840488e+00
2.399883e+01	-6.880115e+00
2.413745e+01	-6.919504e+00
2.427686e+01	-6.959725e+00
2.441709e+01	-7.000023e+00
2.455812e+01	-7.039899e+00
2.469997e+01	-7.079635e+00
2.484263e+01	-7.120241e+00
2.498612e+01	-7.161011e+00
2.513044e+01	-7.201002e+00
2.527559e+01	-7.241916e+00
2.542158e+01	-7.282219e+00
2.556842e+01	-7.323169e+00
2.571610e+01	-7.363711e+00
2.586463e+01	-7.404837e+00
2.601403e+01	-7.445892e+00
2.616428e+01	-7.486746e+00
2.631541e+01	-7.527631e+00
2.646740e+01	-7.569103e+00
2.662028e+01	-7.610078e+00
2.677404e+01	-7.651823e+00
2.692868e+01	-7.693276e+00
2.708422e+01	-7.734736e+00
2.724066e+01	-7.776456e+00
2.739800e+01	-7.817983e+00
2.755625e+01	-7.860186e+00
2.771541e+01	-7.902015e+00
2.787550e+01	-7.943948e+00
2.803650e+01	-7.985915e+00
2.819844e+01	-8.027932e+00
2.836131e+01	-8.070284e+00
2.852513e+01	-8.112449e+00
2.868989e+01	-8.154995e+00
2.885560e+01	-8.197416e+00
2.902227e+01	-8.239214e+00
2.918990e+01	-8.281864e+00
2.935850e+01	-8.324755e+00
2.952807e+01	-8.367489e+00
2.969863e+01	-8.409923e+00
2.987016e+01	-8.453243e+00
3.004269e+01	-8.496199e+00
3.021622e+01	-8.538957e+00
3.039075e+01	-8.581899e+00
3.056628e+01	-8.625183e+00
3.074283e+01	-8.668117e+00
3.092040e+01	-8.711728e+00
3.109900e+01	-8.754845e+00
3.127862e+01	-8.798118e+00
3.145929e+01	-8.841959e+00
3.164099e+01	-8.885537e+00
3.182375e+01	-8.929047e+00
3.200756e+01	-8.972632e+00
3.219244e+01	-9.016383e+00
3.237838e+01	-9.060188e+00
3.256540e+01	-9.103517e+00
3.275349e+01	-9.147448e+00
3.294268e+01	-9.191517e+00
3.313295e+01	-9.235676e+00
3.332433e+01	-9.280373e+00
3.351681e+01	-9.324057e+00
3.371040e+01	-9.368370e+00
3.390511e+01	-9.412684e+00
3.410094e+01	-9.457102e+00
3.429791e+01	-9.501164e+00
3.449601e+01	-9.545828e+00
3.469526e+01	-9.590211e+00
3.489566e+01	-9.634921e+00
3.509721e+01	-9.679204e+00
3.529993e+01	-9.724119e+00
3.550382e+01	-9.768783e+00
3.570889e+01	-9.813333e+00
3.591515e+01	-9.858444e+00
3.612259e+01	-9.903892e+00
3.633123e+01	-9.948698e+00
3.654108e+01	-9.993331e+00
3.675214e+01	-1.003820e+01
3.696442e+01	-1.008356e+01
3.717792e+01	-1.012891e+01
3.739266e+01	-1.017358e+01
3.760864e+01	-1.021901e+01
3.782587e+01	-1.026423e+01
3.804435e+01	-1.030911e+01
3.826409e+01	-1.035476e+01
3.848510e+01	-1.040074e+01
3.870739e+01	-1.044609e+01
3.893096e+01	-1.049162e+01
3.915583e+01	-1.053739e+01
3.938199e+01	-1.058288e+01
3.960946e+01	-1.062815e+01
3.983824e+01	-1.067374e+01
4.006834e+01	-1.071945e+01
4.029978e+01	-1.076611e+01
4.053255e+01	-1.081129e+01
4.076666e+01	-1.085747e+01
4.100213e+01	-1.090327e+01
4.123896e+01	-1.094872e+01
4.147715e+01	-1.099576e+01
4.171672e+01	-1.104158e+01
4.195767e+01	-1.108729e+01
4.220002e+01	-1.113399e+01
4.244377e+01	-1.117981e+01
4.268892e+01	-1.122625e+01
4.293549e+01	-1.127200e+01
4.318348e+01	-1.131871e+01
4.343291e+01	-1.136489e+01
4.368377e+01	-1.141165e+01
4.393609e+01	-1.145782e+01
4.418986e+01	-1.150467e+01
4.444510e+01	-1.155077e+01
4.470182e+01	-1.159708e+01
4.496001e+01	-1.164425e+01
4.521970e+01	-1.169054e+01
4.548089e+01	-1.173739e+01
4.574358e+01	-1.178339e+01
4.600779e+01	-1.183071e+01
4.627353e+01	-1.187751e+01
4.654081e+01	-1.192390e+01
4.680963e+01	-1.197113e+01
4.708000e+01	-1.201802e+01
4.735193e+01	-1.206430e+01
4.762543e+01	-1.211183e+01
4.790051e+01	-1.215892e+01
4.817719e+01	-1.220561e+01
4.845545e+01	-1.225269e+01
4.873533e+01	-1.229931e+01
4.901682e+01	-1.234700e+01
4.929994e+01	-1.239394e+01
4.958470e+01	-1.244077e+01
4.987110e+01	-1.248845e+01
5.015915e+01	-1.253537e+01
5.044887e+01	-1.258342e+01
5.074026e+01	-1.263009e+01
5.103333e+01	-1.267709e+01
5.132810e+01	-1.272479e+01
5.162457e+01	-1.277217e+01
5.192275e+01	-1.281965e+01
5.222265e+01	-1.286730e+01
5.252429e+01	-1.291423e+01
5.282767e+01	-1.296215e+01
5.313280e+01	-1.300930e+01
5.343969e+01	-1.305696e+01
5.374836e+01	-1.310449e+01
5.405880e+01	-1.315260e+01
5.437105e+01	-1.319964e+01
5.468509e+01	-1.324655e+01
5.500095e+01	-1.329513e+01
5.531863e+01	-1.334309e+01
5.563815e+01	-1.339038e+01
5.595951e+01	-1.343855e+01
5.628273e+01	-1.348652e+01
5.660782e+01	-1.353347e+01
5.693479e+01	-1.358123e+01
5.726364e+01	-1.363000e+01
5.759439e+01	-1.367726e+01
5.792705e+01	-1.372558e+01
5.826164e+01	-1.377271e+01
5.859815e+01	-1.382160e+01
5.893662e+01	-1.386883e+01
5.927703e+01	-1.391692e+01
5.961941e+01	-1.396491e+01
5.996377e+01	-1.401356e+01
6.031012e+01	-1.406043e+01
6.065847e+01	-1.410842e+01
6.100883e+01	-1.415720e+01
6.136121e+01	-1.420548e+01
6.171563e+01	-1.425340e+01
6.207210e+01	-1.430182e+01
6.243063e+01	-1.435029e+01
6.279122e+01	-1.439818e+01
6.315390e+01	-1.444501e+01
6.351868e+01	-1.449485e+01
6.388556e+01	-1.454197e+01
6.425456e+01	-1.459104e+01
6.462569e+01	-1.463949e+01
6.499897e+01	-1.468668e+01
6.537440e+01	-1.473557e+01
6.575200e+01	-1.478410e+01
6.613178e+01	-1.483292e+01
6.651375e+01	-1.488097e+01
6.689793e+01	-1.492991e+01
6.728433e+01	-1.497803e+01
6.767297e+01	-1.502645e+01
6.806384e+01	-1.507582e+01
6.845698e+01	-1.512381e+01
6.885238e+01	-1.517195e+01
6.925007e+01	-1.522043e+01
6.965005e+01	-1.526888e+01
7.005235e+01	-1.531806e+01
7.045697e+01	-1.536583e+01
7.086393e+01	-1.541429e+01
7.127323e+01	-1.546281e+01
7.168490e+01	-1.551130e+01
7.209895e+01	-1.555978e+01
7.251539e+01	-1.560889e+01
7.293424e+01	-1.565688e+01
7.335551e+01	-1.570700e+01
7.377920e+01	-1.575497e+01
7.420535e+01	-1.580407e+01
7.463396e+01	-1.585227e+01
7.506504e+01	-1.590151e+01
7.549861e+01	-1.595036e+01
7.593469e+01	-1.599933e+01
7.637328e+01	-1.604623e+01
7.681441e+01	-1.609739e+01
7.725809e+01	-1.614439e+01
7.770433e+01	-1.619371e+01
7.815315e+01	-1.624290e+01
7.860456e+01	-1.629177e+01
7.905857e+01	-1.633978e+01
7.951521e+01	-1.638913e+01
7.997449e+01	-1.643776e+01
8.043642e+01	-1.648705e+01
8.090102e+01	-1.653547e+01
8.136830e+01	-1.658485e+01
8.183828e+01	-1.663375e+01
8.231097e+01	-1.668246e+01
8.278640e+01	-1.673178e+01
8.326457e+01	-1.678135e+01
8.374550e+01	-1.682984e+01
8.422921e+01	-1.687908e+01
8.471572e+01	-1.692876e+01
8.520503e+01	-1.697646e+01
8.569717e+01	-1.702541e+01
8.619215e+01	-1.707543e+01
8.669000e+01	-1.712382e+01
8.719071e+01	-1.717317e+01
8.769432e+01	-1.722325e+01
8.820084e+01	-1.727127e+01
8.871029e+01	-1.732068e+01
8.922267e+01	-1.737013e+01
8.973802e+01	-1.741759e+01
9.025634e+01	-1.746832e+01
9.077766e+01	-1.751661e+01
9.130199e+01	-1.756606e+01
9.182935e+01	-1.761617e+01
9.235975e+01	-1.766562e+01
9.289321e+01	-1.771319e+01
9.342976e+01	-1.776232e+01
9.396941e+01	-1.781193e+01
9.451217e+01	-1.786123e+01
9.505807e+01	-1.790969e+01
9.560712e+01	-1.796017e+01
9.615934e+01	-1.800778e+01
9.671476e+01	-1.805808e+01
9.727338e+01	-1.810839e+01
9.783522e+01	-1.815609e+01
9.840032e+01	-1.820694e+01
9.896867e+01	-1.825429e+01
9.954031e+01	-1.830415e+01
1.001153e+02	-1.835252e+01
1.006935e+02	-1.840258e+01
1.012751e+02	-1.845291e+01
1.018601e+02	-1.850262e+01
1.024484e+02	-1.855018e+01
1.030402e+02	-1.860038e+01
1.036353e+02	-1.865045e+01
1.042339e+02	-1.869954e+01
1.048360e+02	-1.874972e+01
1.054415e+02	-1.879667e+01
1.060505e+02	-1.884650e+01
1.066631e+02	-1.889609e+01
1.072791e+02	-1.894636e+01
1.078988e+02	-1.899598e+01
1.085220e+02	-1.904514e+01
1.091488e+02	-1.909378e+01
1.097793e+02	-1.914228e+01
1.104133e+02	-1.919371e+01
1.110511e+02	-1.924310e+01
1.116925e+02	-1.929210e+01
1.123376e+02	-1.934140e+01
1.129865e+02	-1.939273e+01
1.136391e+02	-1.944160e+01
1.142955e+02	-1.949057e+01
1.149556e+02	-1.953937e+01
1.156196e+02	-1.958944e+01
1.162874e+02	-1.963908e+01
1.169591e+02	-1.968633e+01
1.176347e+02	-1.973823e+01
1.183141e+02	-1.978604e+01
1.189975e+02	-1.983757e+01
1.196848e+02	-1.988533e+01
1.203761e+02	-1.993404e+01
1.210714e+02	-1.998684e+01
1.217707e+02	-2.003393e+01
1.224740e+02	-2.008368e+01
1.231814e+02	-2.013379e+01
1.238929e+02	-2.018224e+01
1.246085e+02	-2.023232e+01
1.253283e+02	-2.028167e+01
1.260522e+02	-2.033167e+01
1.267802e+02	-2.037922e+01
1.275125e+02	-2.043175e+01
1.282490e+02	-2.048027e+01
1.289898e+02	-2.052993e+01
1.297348e+02	-2.057963e+01
1.304842e+02	-2.062934e+01
1.312378e+02	-2.068059e+01
1.319959e+02	-2.072823e+01
1.327583e+02	-2.077931e+01
1.335251e+02	-2.082558e+01
1.342963e+02	-2.087612e+01
1.350720e+02	-2.092742e+01
1.358522e+02	-2.097652e+01
1.366368e+02	-2.102607e+01
1.374260e+02	-2.107675e+01
1.382198e+02	-2.112687e+01
1.390182e+02	-2.117667e+01
1.398211e+02	-2.122482e+01
1.406287e+02	-2.127482e+01
1.414410e+02	-2.132326e+01
1.422579e+02	-2.137507e+01
1.430796e+02	-2.142320e+01
1.439060e+02	-2.147362e+01
1.447372e+02	-2.152189e+01
1.455732e+02	-2.157420e+01
1.464141e+02	-2.162202e+01
1.472597e+02	-2.167164e+01
1.481103e+02	-2.172175e+01
1.489658e+02	-2.177055e+01
1.498262e+02	-2.182058e+01
1.506916e+02	-2.187103e+01
1.515620e+02	-2.192096e+01
1.524374e+02	-2.197008e+01
1.533179e+02	-2.201754e+01
1.542034e+02	-2.207035e+01
1.550941e+02	-2.212141e+01
1.559899e+02	-2.217088e+01
1.568909e+02	-2.222073e+01
1.577971e+02	-2.226954e+01
1.587085e+02	-2.231857e+01
1.596252e+02	-2.236641e+01
1.605472e+02	-2.241729e+01
1.614745e+02	-2.246894e+01
1.624072e+02	-2.251827e+01
1.633453e+02	-2.256775e+01
1.642887e+02	-2.261604e+01
1.652377e+02	-2.266823e+01
1.661921e+02	-2.271572e+01
1.671520e+02	-2.276430e+01
1.681175e+02	-2.281585e+01
1.690885e+02	-2.286496e+01
1.700651e+02	-2.291450e+01
1.710474e+02	-2.296700e+01
1.720354e+02	-2.301599e+01
1.730291e+02	-2.306473e+01
1.740285e+02	-2.311404e+01
1.750337e+02	-2.316376e+01
1.760446e+02	-2.321397e+01
1.770615e+02	-2.326389e+01
1.780842e+02	-2.331244e+01
1.791128e+02	-2.336197e+01
1.801473e+02	-2.341231e+01
1.811878e+02	-2.346362e+01
1.822344e+02	-2.351291e+01
1.832870e+02	-2.356384e+01
1.843456e+02	-2.361239e+01
1.854104e+02	-2.366172e+01
1.864813e+02	-2.371238e+01
1.875584e+02	-2.376552e+01
1.886418e+02	-2.381051e+01
1.897313e+02	-2.386335e+01
1.908272e+02	-2.391097e+01
1.919294e+02	-2.396042e+01
1.930380e+02	-2.401657e+01
1.941530e+02	-2.406054e+01
1.952744e+02	-2.411098e+01
1.964023e+02	-2.416238e+01
1.975367e+02	-2.421287e+01
1.986777e+02	-2.426078e+01
1.998252e+02	-2.430969e+01
2.009794e+02	-2.436049e+01
2.021403e+02	-2.441068e+01
2.033078e+02	-2.446231e+01
2.044821e+02	-2.451381e+01
2.056632e+02	-2.456005e+01
2.068511e+02	-2.461024e+01
2.080459e+02	-2.465847e+01
2.092475e+02	-2.471264e+01
2.104561e+02	-2.475890e+01
2.116717e+02	-2.480974e+01
2.128943e+02	-2.486048e+01
2.141240e+02	-2.490921e+01
2.153608e+02	-2.495878e+01
2.166047e+02	-2.501033e+01
2.178558e+02	-2.506205e+01
2.191141e+02	-2.510754e+01
2.203797e+02	-2.515956e+01
2.216526e+02	-2.520751e+01
2.229329e+02	-2.525879e+01
2.242205e+02	-2.530808e+01
2.255156e+02	-2.536043e+01
2.268182e+02	-2.540742e+01
2.281283e+02	-2.546103e+01
2.294459e+02	-2.550546e+01
2.307712e+02	-2.555731e+01
2.321041e+02	-2.560847e+01
2.334447e+02	-2.565909e+01
2.347931e+02	-2.570776e+01
2.361493e+02	-2.575518e+01
2.375133e+02	-2.581049e+01
2.388851e+02	-2.585653e+01
2.402649e+02	-2.590885e+01
2.416527e+02	-2.595838e+01
2.430484e+02	-2.600879e+01
2.444523e+02	-2.605830e+01
2.458642e+02	-2.610667e+01
2.472843e+02	-2.615774e+01
2.487126e+02	-2.620665e+01
2.501492e+02	-2.625990e+01
2.515940e+02	-2.631138e+01
2.530472e+02	-2.635970e+01
2.545088e+02	-2.640690e+01
2.559789e+02	-2.645569e+01
2.574574e+02	-2.650552e+01
2.589444e+02	-2.655639e+01
2.604401e+02	-2.660957e+01
2.619444e+02	-2.665734e+01
2.634574e+02	-2.670554e+01
2.649791e+02	-2.675799e+01
2.665096e+02	-2.680999e+01
2.680489e+02	-2.685844e+01
2.695972e+02	-2.690782e+01
2.711544e+02	-2.695688e+01
2.727205e+02	-2.700917e+01
2.742958e+02	-2.705863e+01
2.758801e+02	-2.710683e+01
2.774736e+02	-2.715798e+01
2.790762e+02	-2.720548e+01
2.806882e+02	-2.725933e+01
2.823094e+02	-2.730643e+01
2.839400e+02	-2.735683e+01
2.855800e+02	-2.740920e+01
2.872295e+02	-2.745782e+01
2.888886e+02	-2.750467e+01
2.905572e+02	-2.755598e+01
2.922354e+02	-2.760721e+01
2.939234e+02	-2.765863e+01
2.956211e+02	-2.770589e+01
2.973286e+02	-2.776029e+01
2.990459e+02	-2.780470e+01
3.007732e+02	-2.785924e+01
3.025104e+02	-2.791073e+01
3.042577e+02	-2.795784e+01
3.060151e+02	-2.800806e+01
3.077826e+02	-2.805896e+01
3.095604e+02	-2.811074e+01
3.113484e+02	-2.815994e+01
3.131467e+02	-2.820891e+01
3.149554e+02	-2.825799e+01
3.167746e+02	-2.830591e+01
3.186043e+02	-2.835899e+01
3.204445e+02	-2.840652e+01
3.222954e+02	-2.846081e+01
3.241570e+02	-2.850894e+01
3.260293e+02	-2.855642e+01
3.279124e+02	-2.860884e+01
3.298064e+02	-2.865943e+01
3.317114e+02	-2.870673e+01
3.336273e+02	-2.875390e+01
3.355544e+02	-2.881022e+01
3.374925e+02	-2.885838e+01
3.394418e+02	-2.890876e+01
3.414024e+02	-2.895988e+01
3.433744e+02	-2.900746e+01
3.453577e+02	-2.905777e+01
3.473525e+02	-2.911016e+01
3.493588e+02	-2.915646e+01
3.513766e+02	-2.921041e+01
3.534062e+02	-2.925329e+01
3.554474e+02	-2.930666e+01
3.575005e+02	-2.935605e+01
3.595654e+02	-2.940902e+01
3.616422e+02	-2.946034e+01
3.637311e+02	-2.951133e+01
3.658320e+02	-2.956174e+01
3.679450e+02	-2.960742e+01
3.700702e+02	-2.965863e+01
3.722077e+02	-2.970847e+01
3.743576e+02	-2.975753e+01
3.765199e+02	-2.981272e+01
3.786946e+02	-2.986178e+01
3.808820e+02	-2.990871e+01
3.830819e+02	-2.996131e+01
3.852946e+02	-3.000551e+01
3.875200e+02	-3.006247e+01
3.897583e+02	-3.011133e+01
3.920096e+02	-3.015814e+01
3.942738e+02	-3.020739e+01
3.965511e+02	-3.026069e+01
3.988416e+02	-3.031046e+01
4.011452e+02	-3.035735e+01
4.034622e+02	-3.041517e+01
4.057926e+02	-3.045635e+01
4.081365e+02	-3.051254e+01
4.104938e+02	-3.056103e+01
4.128648e+02	-3.060797e+01
4.152495e+02	-3.066161e+01
4.176480e+02	-3.071190e+01
4.200603e+02	-3.075674e+01
4.224866e+02	-3.080940e+01
4.249268e+02	-3.086395e+01
4.273812e+02	-3.090664e+01
4.298497e+02	-3.096106e+01
4.323325e+02	-3.101053e+01
4.348297e+02	-3.106622e+01
4.373412e+02	-3.111195e+01
4.398673e+02	-3.116262e+01
4.424079e+02	-3.121485e+01
4.449633e+02	-3.126639e+01
4.475334e+02	-3.131912e+01
4.501183e+02	-3.136511e+01
4.527182e+02	-3.141087e+01
4.553330e+02	-3.146215e+01
4.579630e+02	-3.150978e+01
4.606082e+02	-3.156609e+01
4.632687e+02	-3.161381e+01
4.659445e+02	-3.166549e+01
4.686358e+02	-3.172076e+01
4.713426e+02	-3.176445e+01
4.740650e+02	-3.180713e+01
4.768032e+02	-3.186112e+01
4.795572e+02	-3.190911e+01
4.823271e+02	-3.195814e+01
4.851130e+02	-3.201438e+01
4.879150e+02	-3.206538e+01
4.907332e+02	-3.211739e+01
4.935676e+02	-3.216504e+01
4.964185e+02	-3.222105e+01
4.992858e+02	-3.225723e+01
5.021696e+02	-3.231486e+01
5.050701e+02	-3.236420e+01
5.079874e+02	-3.241612e+01
5.109215e+02	-3.245862e+01
5.138726e+02	-3.252557e+01
5.168407e+02	-3.257206e+01
5.198259e+02	-3.261461e+01
5.228284e+02	-3.267211e+01
5.258482e+02	-3.271435e+01
5.288855e+02	-3.277197e+01
5.319403e+02	-3.281873e+01
5.350128e+02	-3.286740e+01
5.381030e+02	-3.291669e+01
5.412111e+02	-3.297529e+01
5.443371e+02	-3.302238e+01
5.474812e+02	-3.307443e+01
5.506434e+02	-3.311655e+01
5.538239e+02	-3.316873e+01
5.570228e+02	-3.322714e+01
5.602401e+02	-3.327543e+01
5.634760e+02	-3.332147e+01
5.667306e+02	-3.336998e+01
5.700040e+02	-3.342733e+01
5.732964e+02	-3.347251e+01
5.766077e+02	-3.352310e+01
5.799382e+02	-3.356371e+01
5.832879e+02	-3.361811e+01
5.866569e+02	-3.367340e+01
5.900454e+02	-3.372161e+01
5.934535e+02	-3.377412e+01
5.968813e+02	-3.382615e+01
6.003288e+02	-3.388131e+01
6.037963e+02	-3.391805e+01
6.072838e+02	-3.397296e+01
6.107914e+02	-3.402060e+01
6.143194e+02	-3.407601e+01
6.178676e+02	-3.413253e+01
6.214364e+02	-3.417625e+01
6.250258e+02	-3.422435e+01
6.286359e+02	-3.428325e+01
6.322669e+02	-3.432205e+01
6.359189e+02	-3.438392e+01
6.395919e+02	-3.442579e+01
6.432862e+02	-3.447363e+01
6.470017e+02	-3.453085e+01
6.507388e+02	-3.457618e+01
6.544974e+02	-3.462342e+01
6.582778e+02	-3.468857e+01
6.620800e+02	-3.472981e+01
6.659041e+02	-3.477854e+01
6.697504e+02	-3.483167e+01
6.736188e+02	-3.487840e+01
6.775096e+02	-3.493001e+01
6.814229e+02	-3.498043e+01
6.853587e+02	-3.503061e+01
6.893173e+02	-3.507796e+01
6.932988e+02	-3.512990e+01
6.973033e+02	-3.518456e+01
7.013309e+02	-3.524306e+01
