Frequency(Hz)	Magnitude(dB)
1.000000e+01	-2.099735e+00
1.005776e+01	-2.118969e+00
1.011585e+01	-2.138224e+00
1.017428e+01	-2.157869e+00
1.023305e+01	-2.177517e+00
1.029215e+01	-2.197406e+00
1.035160e+01	-2.217387e+00
1.041139e+01	-2.237223e+00
1.047153e+01	-2.257318e+00
1.053201e+01	-2.277894e+00
1.059284e+01	-2.298337e+00
1.065403e+01	-2.318837e+00
1.071556e+01	-2.339849e+00
1.077746e+01	-2.360717e+00
1.083971e+01	-2.381688e+00
1.090232e+01	-2.403066e+00
1.096529e+01	-2.424210e+00
1.102862e+01	-2.445863e+00
1.109232e+01	-2.467433e+00
1.115639e+01	-2.489241e+00
1.122083e+01	-2.511095e+00
1.128564e+01	-2.533124e+00
1.135083e+01	-2.555266e+00
1.141639e+01	-2.577495e+00
1.148233e+01	-2.600195e+00
1.154865e+01	-2.622534e+00
1.161536e+01	-2.645345e+00
1.168245e+01	-2.668241e+00
1.174992e+01	-2.691435e+00
1.181779e+01	-2.714453e+00
1.188605e+01	-2.737553e+00
1.195470e+01	-2.761068e+00
1.202375e+01	-2.784787e+00
1.209320e+01	-2.808622e+00
1.216305e+01	-2.832419e+00
1.223330e+01	-2.856525e+00
1.230396e+01	-2.880889e+00
1.237503e+01	-2.904800e+00
1.244651e+01	-2.929468e+00
1.251840e+01	-2.953969e+00
1.259070e+01	-2.978925e+00
1.266343e+01	-3.003811e+00
1.273657e+01	-3.028762e+00
1.281014e+01	-3.053784e+00
1.288413e+01	-3.079409e+00
1.295855e+01	-3.104788e+00
1.303339e+01	-3.130453e+00
1.310867e+01	-3.156287e+00
1.318439e+01	-3.182105e+00
1.326054e+01	-3.208158e+00
1.333713e+01	-3.234310e+00
1.341417e+01	-3.260643e+00
1.349165e+01	-3.286971e+00
1.356958e+01	-3.313710e+00
1.364795e+01	-3.340642e+00
1.372678e+01	-3.367515e+00
1.380607e+01	-3.394697e+00
1.388581e+01	-3.421620e+00
1.396602e+01	-3.448941e+00
1.404668e+01	-3.476483e+00
1.412782e+01	-3.504172e+00
1.420942e+01	-3.532007e+00
1.429149e+01	-3.559879e+00
1.437404e+01	-3.587876e+00
1.445706e+01	-3.616319e+00
1.454057e+01	-3.644568e+00
1.462455e+01	-3.673007e+00
1.470902e+01	-3.701553e+00
1.479398e+01	-3.730493e+00
1.487943e+01	-3.759220e+00
1.496537e+01	-3.788392e+00
1.505181e+01	-3.817359e+00
1.513875e+01	-3.846669e+00
1.522619e+01	-3.876278e+00
1.531414e+01	-3.905896e+00
1.540259e+01	-3.935709e+00
1.549156e+01	-3.965520e+00
1.558103e+01	-3.995318e+00
1.567103e+01	-4.025764e+00
1.576155e+01	-4.056005e+00
1.585258e+01	-4.086307e+00
1.594415e+01	-4.117164e+00
1.603624e+01	-4.147809e+00
1.612886e+01	-4.178495e+00
1.622202e+01	-4.209478e+00
1.631572e+01	-4.240581e+00
1.640996e+01	-4.271928e+00
1.650474e+01	-4.303330e+00
1.660008e+01	-4.334913e+00
1.669596e+01	-4.366443e+00
1.679239e+01	-4.398113e+00
1.688938e+01	-4.429863e+00
1.698694e+01	-4.461987e+00
1.708505e+01	-4.494314e+00
1.718373e+01	-4.526799e+00
1.728299e+01	-4.559251e+00
1.738281e+01	-4.592061e+00
1.748322e+01	-4.624407e+00
1.758420e+01	-4.657353e+00
1.768576e+01	-4.690216e+00
1.778792e+01	-4.723294e+00
1.789066e+01	-4.756847e+00
1.799399e+01	-4.789950e+00
1.809793e+01	-4.823541e+00
1.820246e+01	-4.857009e+00
1.830760e+01	-4.890872e+00
1.841334e+01	-4.924601e+00
1.851969e+01	-4.958670e+00
1.862666e+01	-4.992876e+00
1.873425e+01	-5.027136e+00
1.884246e+01	-5.061554e+00
1.895129e+01	-5.095867e+00
1.906075e+01	-5.130543e+00
1.917085e+01	-5.165128e+00
1.928158e+01	-5.199945e+00
1.939295e+01	-5.235245e+00
1.950496e+01	-5.270172e+00
1.961762e+01	-5.305293e+00
1.973093e+01	-5.340723e+00
1.984490e+01	-5.376328e+00
1.995952e+01	-5.411845e+00
2.007480e+01	-5.447747e+00
2.019076e+01	-5.483055e+00
2.030738e+01	-5.519089e+00
2.042467e+01	-5.555300e+00
2.054264e+01	-5.591509e+00
2.066130e+01	-5.627315e+00
2.078064e+01	-5.664249e+00
2.090066e+01	-5.700694e+00
2.102139e+01	-5.737433e+00
2.114280e+01	-5.773806e+00
2.126492e+01	-5.810943e+00
2.138775e+01	-5.847741e+00
2.151128e+01	-5.884788e+00
2.163553e+01	-5.922075e+00
2.176050e+01	-5.959476e+00
2.188619e+01	-5.996643e+00
2.201260e+01	-6.034303e+00
2.213974e+01	-6.071964e+00
2.226762e+01	-6.109392e+00
2.239624e+01	-6.147552e+00
2.252560e+01	-6.185160e+00
2.265571e+01	-6.223305e+00
2.278656e+01	-6.261678e+00
2.291818e+01	-6.299569e+00
2.305055e+01	-6.338142e+00
2.318369e+01	-6.376039e+00
2.331760e+01	-6.414936e+00
2.345228e+01	-6.454192e+00
2.358774e+01	-6.492359e+00
2.372398e+01	-6.531164e+00
2.386101e+01	-6.570680e+00
2.399883e+01	-6.609567e+00
2.413745e+01	-6.648195e+00
2.427686e+01	-6.687458e+00
2.441709e+01	-6.727090e+00
2.455812e+01	-6.766449e+00
2.469997e+01	-6.806141e+00
2.484263e+01	-6.845749e+00
2.498612e+01	-6.885312e+00
2.513044e+01	-6.925381e+00
2.527559e+01	-6.964856e+00
2.542158e+01	-7.005511e+00
2.556842e+01	-7.045282e+00
2.571610e+01	-7.085567e+00
2.586463e+01	-7.125672e+00
2.601403e+01	-7.166244e+00
2.616428e+01	-7.206783e+00
2.631541e+01	-7.246890e+00
2.646740e+01	-7.288007e+00
2.662028e+01	-7.328427e+00
2.677404e+01	-7.369464e+00
2.692868e+01	-7.409702e+00
2.708422e+01	-7.450963e+00
2.724066e+01	-7.492153e+00
2.739800e+01	-7.533452e+00
2.755625e+01	-7.574538e+00
2.771541e+01	-7.615772e+00
2.787550e+01	-7.657373e+00
2.803650e+01	-7.698772e+00
2.819844e+01	-7.740640e+00
2.836131e+01	-7.781997e+00
2.852513e+01	-7.824139e+00
2.868989e+01	-7.865655e+00
2.885560e+01	-7.907779e+00
2.902227e+01	-7.949116e+00
2.918990e+01	-7.991443e+00
2.935850e+01	-8.033411e+00
2.952807e+01	-8.076282e+00
2.969863e+01	-8.118422e+00
2.987016e+01	-8.160326e+00
3.004269e+01	-8.203095e+00
3.021622e+01	-8.245503e+00
3.039075e+01	-8.288123e+00
3.056628e+01	-8.330388e+00
3.074283e+01	-8.373329e+00
3.092040e+01	-8.416037e+00
3.109900e+01	-8.458662e+00
3.127862e+01	-8.501784e+00
3.145929e+01	-8.544622e+00
3.164099e+01	-8.587638e+00
3.182375e+01	-8.631005e+00
3.200756e+01	-8.674389e+00
3.219244e+01	-8.717842e+00
3.237838e+01	-8.761159e+00
3.256540e+01	-8.804556e+00
3.275349e+01	-8.848114e+00
3.294268e+01	-8.891706e+00
3.313295e+01	-8.934732e+00
3.332433e+01	-8.978822e+00
3.351681e+01	-9.022532e+00
3.371040e+01	-9.066092e+00
3.390511e+01	-9.109879e+00
3.410094e+01	-9.154338e+00
3.429791e+01	-9.197601e+00
3.449601e+01	-9.242456e+00
3.469526e+01	-9.285718e+00
3.489566e+01	-9.330272e+00
3.509721e+01	-9.374158e+00
3.529993e+01	-9.418513e+00
3.550382e+01	-9.462623e+00
3.570889e+01	-9.507826e+00
3.591515e+01	-9.551643e+00
3.612259e+01	-9.596663e+00
3.633123e+01	-9.640949e+00
3.654108e+01	-9.685485e+00
3.675214e+01	-9.729926e+00
3.696442e+01	-9.775403e+00
3.717792e+01	-9.819468e+00
3.739266e+01	-9.864110e+00
3.760864e+01	-9.909046e+00
3.782587e+01	-9.954666e+00
3.804435e+01	-9.999670e+00
3.826409e+01	-1.004425e+01
3.848510e+01	-1.008976e+01
3.870739e+01	-1.013463e+01
3.893096e+01	-1.017975e+01
3.915583e+01	-1.022523e+01
3.938199e+01	-1.027036e+01
3.960946e+01	-1.031543e+01
3.983824e+01	-1.036117e+01
4.006834e+01	-1.040667e+01
4.029978e+01	-1.045217e+01
4.053255e+01	-1.049771e+01
4.076666e+01	-1.054304e+01
4.100213e+01	-1.058895e+01
4.123896e+01	-1.063477e+01
4.147715e+01	-1.068009e+01
4.171672e+01	-1.072582e+01
4.195767e+01	-1.077168e+01
4.220002e+01	-1.081777e+01
4.244377e+01	-1.086402e+01
4.268892e+01	-1.090976e+01
4.293549e+01	-1.095555e+01
4.318348e+01	-1.100183e+01
4.343291e+01	-1.104803e+01
4.368377e+01	-1.109431e+01
4.393609e+01	-1.113999e+01
4.418986e+01	-1.118614e+01
4.444510e+01	-1.123270e+01
4.470182e+01	-1.127818e+01
4.496001e+01	-1.132525e+01
4.521970e+01	-1.137083e+01
4.548089e+01	-1.141734e+01
4.574358e+01	-1.146407e+01
4.600779e+01	-1.151004e+01
4.627353e+01	-1.155626e+01
4.654081e+01	-1.160352e+01
4.680963e+01	-1.165056e+01
4.708000e+01	-1.169690e+01
4.735193e+01	-1.174349e+01
4.762543e+01	-1.179033e+01
4.790051e+01	-1.183711e+01
4.817719e+01	-1.188366e+01
4.845545e+01	-1.193047e+01
4.873533e+01	-1.197708e+01
4.901682e+01	-1.202370e+01
4.929994e+01	-1.207085e+01
4.958470e+01	-1.211815e+01
4.987110e+01	-1.216528e+01
5.015915e+01	-1.221249e+01
5.044887e+01	-1.225937e+01
5.074026e+01	-1.230593e+01
5.103333e+01	-1.235294e+01
5.132810e+01	-1.240024e+01
5.162457e+01	-1.244703e+01
5.192275e+01	-1.249505e+01
5.222265e+01	-1.254207e+01
5.252429e+01	-1.258952e+01
5.282767e+01	-1.263597e+01
5.313280e+01	-1.268396e+01
5.343969e+01	-1.273175e+01
5.374836e+01	-1.277828e+01
5.405880e+01	-1.282646e+01
5.437105e+01	-1.287317e+01
5.468509e+01	-1.292166e+01
5.500095e+01	-1.296861e+01
5.531863e+01	-1.301552e+01
5.563815e+01	-1.306351e+01
5.595951e+01	-1.311161e+01
5.628273e+01	-1.315934e+01
5.660782e+01	-1.320573e+01
5.693479e+01	-1.325390e+01
5.726364e+01	-1.330082e+01
5.759439e+01	-1.334946e+01
5.792705e+01	-1.339785e+01
5.826164e+01	-1.344467e+01
5.859815e+01	-1.349288e+01
5.893662e+01	-1.354067e+01
5.927703e+01	-1.358746e+01
5.961941e+01	-1.363626e+01
5.996377e+01	-1.368429e+01
6.031012e+01	-1.373189e+01
6.065847e+01	-1.378025e+01
6.100883e+01	-1.382681e+01
6.136121e+01	-1.387577e+01
6.171563e+01	-1.392322e+01
6.207210e+01	-1.397106e+01
6.243063e+01	-1.401985e+01
6.279122e+01	-1.406815e+01
6.315390e+01	-1.411570e+01
6.351868e+01	-1.416397e+01
6.388556e+01	-1.421180e+01
6.425456e+01	-1.426058e+01
6.462569e+01	-1.430864e+01
6.499897e+01	-1.435694e+01
6.537440e+01	-1.440533e+01
6.575200e+01	-1.445315e+01
6.613178e+01	-1.450055e+01
6.651375e+01	-1.454904e+01
6.689793e+01	-1.459784e+01
6.728433e+01	-1.464580e+01
6.767297e+01	-1.469409e+01
6.806384e+01	-1.474294e+01
6.845698e+01	-1.479087e+01
6.885238e+01	-1.483895e+01
6.925007e+01	-1.488803e+01
6.965005e+01	-1.493606e+01
7.005235e+01	-1.498428e+01
7.045697e+01	-1.503289e+01
7.086393e+01	-1.508184e+01
7.127323e+01	-1.513064e+01
7.168490e+01	-1.517858e+01
7.209895e+01	-1.522772e+01
7.251539e+01	-1.527557e+01
7.293424e+01	-1.532370e+01
7.335551e+01	-1.537278e+01
7.377920e+01	-1.542131e+01
7.420535e+01	-1.546967e+01
7.463396e+01	-1.551992e+01
7.506504e+01	-1.556780e+01
7.549861e+01	-1.561581e+01
7.593469e+01	-1.566486e+01
7.637328e+01	-1.571335e+01
7.681441e+01	-1.576132e+01
7.725809e+01	-1.581040e+01
7.770433e+01	-1.585855e+01
7.815315e+01	-1.590869e+01
7.860456e+01	-1.595634e+01
7.905857e+01	-1.600587e+01
7.951521e+01	-1.605411e+01
7.997449e+01	-1.610254e+01
8.043642e+01	-1.615163e+01
8.090102e+01	-1.620091e+01
8.136830e+01	-1.624939e+01
8.183828e+01	-1.629842e+01
8.231097e+01	-1.634683e+01
8.278640e+01	-1.639564e+01
8.326457e+01	-1.644536e+01
8.374550e+01	-1.649395e+01
8.422921e+01	-1.654308e+01
8.471572e+01	-1.659284e+01
8.520503e+01	-1.664104e+01
8.569717e+01	-1.668912e+01
8.619215e+01	-1.673822e+01
8.669000e+01	-1.678744e+01
8.719071e+01	-1.683701e+01
8.769432e+01	-1.688605e+01
8.820084e+01	-1.693386e+01
8.871029e+01	-1.698297e+01
8.922267e+01	-1.703368e+01
8.973802e+01	-1.708183e+01
9.025634e+01	-1.713104e+01
9.077766e+01	-1.717912e+01
9.130199e+01	-1.722939e+01
9.182935e+01	-1.727705e+01
9.235975e+01	-1.732711e+01
9.289321e+01	-1.737656e+01
9.342976e+01	-1.742570e+01
9.396941e+01	-1.747458e+01
9.451217e+01	-1.752322e+01
9.505807e+01	-1.757248e+01
9.560712e+01	-1.762081e+01
9.615934e+01	-1.767124e+01
9.671476e+01	-1.771981e+01
9.727338e+01	-1.776960e+01
9.783522e+01	-1.781844e+01
9.840032e+01	-1.786847e+01
9.896867e+01	-1.791700e+01
9.954031e+01	-1.796635e+01
1.001153e+02	-1.801558e+01
1.006935e+02	-1.806385e+01
1.012751e+02	-1.811354e+01
1.018601e+02	-1.816355e+01
1.024484e+02	-1.821185e+01
1.030402e+02	-1.826154e+01
1.036353e+02	-1.831207e+01
1.042339e+02	-1.836203e+01
1.048360e+02	-1.840950e+01
1.054415e+02	-1.845989e+01
1.060505e+02	-1.850848e+01
1.066631e+02	-1.855827e+01
1.072791e+02	-1.860753e+01
1.078988e+02	-1.865540e+01
1.085220e+02	-1.870591e+01
1.091488e+02	-1.875591e+01
1.097793e+02	-1.880437e+01
1.104133e+02	-1.885380e+01
1.110511e+02	-1.890383e+01
1.116925e+02	-1.895226e+01
1.123376e+02	-1.900374e+01
1.129865e+02	-1.905141e+01
1.136391e+02	-1.909925e+01
1.142955e+02	-1.915027e+01
1.149556e+02	-1.920023e+01
1.156196e+02	-1.924924e+01
1.162874e+02	-1.929833e+01
1.169591e+02	-1.934788e+01
1.176347e+02	-1.939743e+01
1.183141e+02	-1.944893e+01
1.189975e+02	-1.949707e+01
1.196848e+02	-1.954727e+01
1.203761e+02	-1.959620e+01
1.210714e+02	-1.964580e+01
1.217707e+02	-1.969392e+01
1.224740e+02	-1.974514e+01
1.231814e+02	-1.979273e+01
1.238929e+02	-1.984325e+01
1.246085e+02	-1.989300e+01
1.253283e+02	-1.994203e+01
1.260522e+02	-1.999202e+01
1.267802e+02	-2.004156e+01
1.275125e+02	-2.009146e+01
1.282490e+02	-2.014107e+01
1.289898e+02	-2.019073e+01
1.297348e+02	-2.023856e+01
1.304842e+02	-2.029008e+01
1.312378e+02	-2.033868e+01
1.319959e+02	-2.038689e+01
1.327583e+02	-2.043753e+01
1.335251e+02	-2.048788e+01
1.342963e+02	-2.053798e+01
1.350720e+02	-2.058725e+01
1.358522e+02	-2.063754e+01
1.366368e+02	-2.068664e+01
1.374260e+02	-2.073377e+01
1.382198e+02	-2.078367e+01
1.390182e+02	-2.083566e+01
1.398211e+02	-2.088392e+01
1.406287e+02	-2.093371e+01
1.414410e+02	-2.098376e+01
1.422579e+02	-2.103085e+01
1.430796e+02	-2.108238e+01
1.439060e+02	-2.113396e+01
1.447372e+02	-2.118113e+01
1.455732e+02	-2.123290e+01
1.464141e+02	-2.128132e+01
1.472597e+02	-2.133147e+01
1.481103e+02	-2.138028e+01
1.489658e+02	-2.143160e+01
1.498262e+02	-2.148017e+01
1.506916e+02	-2.152905e+01
1.515620e+02	-2.157967e+01
1.524374e+02	-2.162981e+01
1.533179e+02	-2.167802e+01
1.542034e+02	-2.172767e+01
1.550941e+02	-2.177793e+01
1.559899e+02	-2.182848e+01
1.568909e+02	-2.187657e+01
1.577971e+02	-2.192814e+01
1.587085e+02	-2.197795e+01
1.596252e+02	-2.202655e+01
1.605472e+02	-2.207679e+01
1.614745e+02	-2.212689e+01
1.624072e+02	-2.217564e+01
1.633453e+02	-2.222640e+01
1.642887e+02	-2.227548e+01
1.652377e+02	-2.232757e+01
1.661921e+02	-2.237438e+01
1.671520e+02	-2.242528e+01
1.681175e+02	-2.247492e+01
1.690885e+02	-2.252424e+01
1.700651e+02	-2.257500e+01
1.710474e+02	-2.262489e+01
1.720354e+02	-2.267309e+01
1.730291e+02	-2.272526e+01
1.740285e+02	-2.277408e+01
1.750337e+02	-2.282414e+01
1.760446e+02	-2.287176e+01
1.770615e+02	-2.292271e+01
1.780842e+02	-2.297484e+01
1.791128e+02	-2.302433e+01
1.801473e+02	-2.307405e+01
1.811878e+02	-2.312052e+01
1.822344e+02	-2.317336e+01
1.832870e+02	-2.322077e+01
1.843456e+02	-2.327356e+01
1.854104e+02	-2.331976e+01
1.864813e+02	-2.337179e+01
1.875584e+02	-2.342021e+01
1.886418e+02	-2.347247e+01
1.897313e+02	-2.352021e+01
1.908272e+02	-2.357131e+01
1.919294e+02	-2.361966e+01
1.930380e+02	-2.366688e+01
1.941530e+02	-2.371805e+01
1.952744e+02	-2.376795e+01
1.964023e+02	-2.381821e+01
1.975367e+02	-2.386928e+01
1.986777e+02	-2.391936e+01
1.998252e+02	-2.396950e+01
2.009794e+02	-2.401883e+01
2.021403e+02	-2.406965e+01
2.033078e+02	-2.411900e+01
2.044821e+02	-2.416774e+01
2.056632e+02	-2.421898e+01
2.068511e+02	-2.427275e+01
2.080459e+02	-2.431916e+01
2.092475e+02	-2.436851e+01
2.104561e+02	-2.441724e+01
2.116717e+02	-2.446743e+01
2.128943e+02	-2.451605e+01
2.141240e+02	-2.456744e+01
2.153608e+02	-2.461751e+01
2.166047e+02	-2.466758e+01
2.178558e+02	-2.471596e+01
2.191141e+02	-2.476684e+01
2.203797e+02	-2.481391e+01
2.216526e+02	-2.486682e+01
2.229329e+02	-2.491686e+01
2.242205e+02	-2.496706e+01
2.255156e+02	-2.501780e+01
2.268182e+02	-2.506659e+01
2.281283e+02	-2.511758e+01
2.294459e+02	-2.516645e+01
2.307712e+02	-2.521612e+01
2.321041e+02	-2.526517e+01
2.334447e+02	-2.531375e+01
2.347931e+02	-2.536637e+01
2.361493e+02	-2.541841e+01
2.375133e+02	-2.546536e+01
2.388851e+02	-2.551673e+01
2.402649e+02	-2.556128e+01
2.416527e+02	-2.561104e+01
2.430484e+02	-2.566609e+01
2.444523e+02	-2.571490e+01
2.458642e+02	-2.576367e+01
2.472843e+02	-2.581631e+01
2.487126e+02	-2.586501e+01
2.501492e+02	-2.591578e+01
2.515940e+02	-2.596493e+01
2.530472e+02	-2.601314e+01
2.545088e+02	-2.606389e+01
2.559789e+02	-2.611533e+01
2.574574e+02	-2.616328e+01
2.589444e+02	-2.621363e+01
2.604401e+02	-2.626595e+01
2.619444e+02	-2.631131e+01
2.634574e+02	-2.636556e+01
2.649791e+02	-2.641594e+01
2.665096e+02	-2.646311e+01
2.680489e+02	-2.651717e+01
2.695972e+02	-2.656566e+01
2.711544e+02	-2.661768e+01
2.727205e+02	-2.666707e+01
2.742958e+02	-2.671647e+01
2.758801e+02	-2.676600e+01
2.774736e+02	-2.681700e+01
2.790762e+02	-2.686469e+01
2.806882e+02	-2.691585e+01
2.823094e+02	-2.696600e+01
2.839400e+02	-2.701497e+01
2.855800e+02	-2.706250e+01
2.872295e+02	-2.711468e+01
2.888886e+02	-2.716675e+01
2.905572e+02	-2.721549e+01
2.922354e+02	-2.726770e+01
2.939234e+02	-2.731329e+01
2.956211e+02	-2.736816e+01
2.973286e+02	-2.741207e+01
2.990459e+02	-2.746494e+01
3.007732e+02	-2.751287e+01
3.025104e+02	-2.756749e+01
3.042577e+02	-2.761686e+01
3.060151e+02	-2.766756e+01
3.077826e+02	-2.771273e+01
3.095604e+02	-2.776801e+01
3.113484e+02	-2.781415e+01
3.131467e+02	-2.786442e+01
3.149554e+02	-2.791458e+01
3.167746e+02	-2.796180e+01
3.186043e+02	-2.801427e+01
3.204445e+02	-2.806596e+01
3.222954e+02	-2.811269e+01
3.241570e+02	-2.816228e+01
3.260293e+02	-2.820910e+01
3.279124e+02	-2.826776e+01
3.298064e+02	-2.831459e+01
3.317114e+02	-2.836409e+01
3.336273e+02	-2.841588e+01
3.355544e+02	-2.846743e+01
3.374925e+02	-2.851464e+01
3.394418e+02	-2.856581e+01
3.414024e+02	-2.861820e+01
3.433744e+02	-2.866442e+01
3.453577e+02	-2.871952e+01
3.473525e+02	-2.876508e+01
3.493588e+02	-2.881136e+01
3.513766e+02	-2.885923e+01
3.534062e+02	-2.891483e+01
3.554474e+02	-2.896264e+01
3.575005e+02	-2.901825e+01
3.595654e+02	-2.906610e+01
3.616422e+02	-2.911702e+01
3.637311e+02	-2.916214e+01
3.658320e+02	-2.921391e+01
3.679450e+02	-2.926103e+01
3.700702e+02	-2.931683e+01
3.722077e+02	-2.936704e+01
3.743576e+02	-2.941813e+01
3.765199e+02	-2.947169e+01
3.786946e+02	-2.951554e+01
3.808820e+02	-2.957402e+01
3.830819e+02	-2.961453e+01
3.852946e+02	-2.966289e+01
3.875200e+02	-2.971454e+01
3.897583e+02	-2.976718e+01
3.920096e+02	-2.981866e+01
3.942738e+02	-2.986573e+01
3.965511e+02	-2.991610e+01
3.988416e+02	-2.996690e+01
4.011452e+02	-3.001434e+01
4.034622e+02	-3.006809e+01
4.057926e+02	-3.011745e+01
4.081365e+02	-3.016879e+01
4.104938e+02	-3.021789e+01
4.128648e+02	-3.026546e+01
4.152495e+02	-3.032072e+01
4.176480e+02	-3.037061e+01
4.200603e+02	-3.041685e+01
4.224866e+02	-3.046725e+01
4.249268e+02	-3.052059e+01
4.273812e+02	-3.057102e+01
4.298497e+02	-3.062347e+01
4.323325e+02	-3.066851e+01
4.348297e+02	-3.071798e+01
4.373412e+02	-3.076578e+01
4.398673e+02	-3.082382e+01
4.424079e+02	-3.086458e+01
4.449633e+02	-3.091556e+01
4.475334e+02	-3.097048e+01
4.501183e+02	-3.102457e+01
4.527182e+02	-3.106555e+01
4.553330e+02	-3.111473e+01
4.579630e+02	-3.117689e+01
4.606082e+02	-3.122320e+01
4.632687e+02	-3.126830e+01
4.659445e+02	-3.132306e+01
4.686358e+02	-3.136861e+01
4.713426e+02	-3.141631e+01
4.740650e+02	-3.147394e+01
4.768032e+02	-3.152895e+01
4.795572e+02	-3.157632e+01
4.823271e+02	-3.162279e+01
4.851130e+02	-3.167695e+01
4.879150e+02	-3.172923e+01
4.907332e+02	-3.177331e+01
4.935676e+02	-3.181711e+01
4.964185e+02	-3.187135e+01
4.992858e+02	-3.191701e+01
5.021696e+02	-3.197437e+01
5.050701e+02	-3.202792e+01
5.079874e+02	-3.207641e+01
5.109215e+02	-3.212445e+01
5.138726e+02	-3.218006e+01
5.168407e+02	-3.222222e+01
5.198259e+02	-3.227695e+01
5.228284e+02	-3.232520e+01
5.258482e+02	-3.237193e+01
5.288855e+02	-3.242525e+01
5.319403e+02	-3.248011e+01
5.350128e+02	-3.251968e+01
5.381030e+02	-3.257293e+01
5.412111e+02	-3.263130e+01
5.443371e+02	-3.267209e+01
5.474812e+02	-3.273313e+01
5.506434e+02	-3.277818e+01
5.538239e+02	-3.283009e+01
5.570228e+02	-3.287972e+01
5.602401e+02	-3.292836e+01
5.634760e+02	-3.298321e+01
5.667306e+02	-3.302630e+01
5.700040e+02	-3.307897e+01
5.732964e+02	-3.313236e+01
5.766077e+02	-3.317919e+01
5.799382e+02	-3.322807e+01
5.832879e+02	-3.328075e+01
5.866569e+02	-3.332662e+01
5.900454e+02	-3.338766e+01
5.934535e+02	-3.343222e+01
5.968813e+02	-3.348705e+01
6.003288e+02	-3.353270e+01
6.037963e+02	-3.358013e+01
6.072838e+02	-3.362871e+01
6.107914e+02	-3.367414e+01
6.143194e+02	-3.373651e+01
6.178676e+02	-3.377603e+01
6.214364e+02	-3.383637e+01
6.250258e+02	-3.388052e+01
6.286359e+02	-3.393513e+01
6.322669e+02	-3.398642e+01
6.359189e+02	-3.403464e+01
6.395919e+02	-3.408328e+01
6.432862e+02	-3.413087e+01
6.470017e+02	-3.418200e+01
6.507388e+02	-3.422572e+01
6.544974e+02	-3.428413e+01
6.582778e+02	-3.434425e+01
6.620800e+02	-3.437498e+01
6.659041e+02	-3.443385e+01
6.697504e+02	-3.448947e+01
6.736188e+02	-3.453232e+01
6.775096e+02	-3.457882e+01
6.814229e+02	-3.464031e+01
6.853587e+02	-3.468143e+01
6.893173e+02	-3.474149e+01
6.932988e+02	-3.479478e+01
6.973033e+02	-3.484647e+01
7.013309e+02	-3.488726e+01
