Frequency(Hz)	Magnitude(dB)
1.000000e+01	-1.750139e-05
1.005776e+01	-1.770415e-05
1.011585e+01	-1.790925e-05
1.017428e+01	-1.811674e-05
1.023305e+01	-1.832662e-05
1.029215e+01	-1.853894e-05
1.035160e+01	-1.875372e-05
1.041139e+01	-1.897099e-05
1.047153e+01	-1.919077e-05
1.053201e+01	-1.941310e-05
1.059284e+01	-1.963801e-05
1.065403e+01	-1.986552e-05
1.071556e+01	-2.009566e-05
1.077746e+01	-2.032848e-05
1.083971e+01	-2.056399e-05
1.090232e+01	-2.080223e-05
1.096529e+01	-2.104323e-05
1.102862e+01	-2.128702e-05
1.109232e+01	-2.153363e-05
1.115639e+01	-2.178310e-05
1.122083e+01	-2.203547e-05
1.128564e+01	-2.229075e-05
1.135083e+01	-2.254900e-05
1.141639e+01	-2.281023e-05
1.148233e+01	-2.307450e-05
1.154865e+01	-2.334182e-05
1.161536e+01	-2.361224e-05
1.168245e+01	-2.388579e-05
1.174992e+01	-2.416252e-05
1.181779e+01	-2.444245e-05
1.188605e+01	-2.472562e-05
1.195470e+01	-2.501207e-05
1.202375e+01	-2.530184e-05
1.209320e+01	-2.559497e-05
1.216305e+01	-2.589149e-05
1.223330e+01	-2.619145e-05
1.230396e+01	-2.649489e-05
1.237503e+01	-2.680184e-05
1.244651e+01	-2.711234e-05
1.251840e+01	-2.742645e-05
1.259070e+01	-2.774419e-05
1.266343e+01	-2.806561e-05
1.273657e+01	-2.839076e-05
1.281014e+01	-2.871967e-05
1.288413e+01	-2.905240e-05
1.295855e+01	-2.938897e-05
1.303339e+01	-2.972945e-05
1.310867e+01	-3.007388e-05
1.318439e+01	-3.042229e-05
1.326054e+01	-3.077474e-05
1.333713e+01	-3.113127e-05
1.341417e+01	-3.149193e-05
1.349165e+01	-3.185678e-05
1.356958e+01	-3.222584e-05
1.364795e+01	-3.259919e-05
1.372678e+01	-3.297686e-05
1.380607e+01	-3.335890e-05
1.388581e+01	-3.374537e-05
1.396602e+01	-3.413632e-05
1.404668e+01	-3.453180e-05
1.412782e+01	-3.493186e-05
1.420942e+01	-3.533655e-05
1.429149e+01	-3.574593e-05
1.437404e+01	-3.616006e-05
1.445706e+01	-3.657898e-05
1.454057e+01	-3.700276e-05
1.462455e+01	-3.743144e-05
1.470902e+01	-3.786509e-05
1.479398e+01	-3.830377e-05
1.487943e+01	-3.874753e-05
1.496537e+01	-3.919643e-05
1.505181e+01	-3.965053e-05
1.513875e+01	-4.010989e-05
1.522619e+01	-4.057457e-05
1.531414e+01	-4.104463e-05
1.540259e+01	-4.152014e-05
1.549156e+01	-4.200117e-05
1.558103e+01	-4.248776e-05
1.567103e+01	-4.297999e-05
1.576155e+01	-4.347792e-05
1.585258e+01	-4.398162e-05
1.594415e+01	-4.449116e-05
1.603624e+01	-4.500660e-05
1.612886e+01	-4.552801e-05
1.622202e+01	-4.605546e-05
1.631572e+01	-4.658902e-05
1.640996e+01	-4.712877e-05
1.650474e+01	-4.767477e-05
1.660008e+01	-4.822709e-05
1.669596e+01	-4.878581e-05
1.679239e+01	-4.935100e-05
1.688938e+01	-4.992274e-05
1.698694e+01	-5.050111e-05
1.708505e+01	-5.108618e-05
1.718373e+01	-5.167802e-05
1.728299e+01	-5.227672e-05
1.738281e+01	-5.288236e-05
1.748322e+01	-5.349501e-05
1.758420e+01	-5.411476e-05
1.768576e+01	-5.474169e-05
1.778792e+01	-5.537589e-05
1.789066e+01	-5.601743e-05
1.799399e+01	-5.666640e-05
1.809793e+01	-5.732289e-05
1.820246e+01	-5.798699e-05
1.830760e+01	-5.865878e-05
1.841334e+01	-5.933836e-05
1.851969e+01	-6.002580e-05
1.862666e+01	-6.072121e-05
1.873425e+01	-6.142468e-05
1.884246e+01	-6.213630e-05
1.895129e+01	-6.285616e-05
1.906075e+01	-6.358436e-05
1.917085e+01	-6.432100e-05
1.928158e+01	-6.506617e-05
1.939295e+01	-6.581997e-05
1.950496e+01	-6.658251e-05
1.961762e+01	-6.735388e-05
1.973093e+01	-6.813419e-05
1.984490e+01	-6.892353e-05
1.995952e+01	-6.972203e-05
2.007480e+01	-7.052977e-05
2.019076e+01	-7.134687e-05
2.030738e+01	-7.217344e-05
2.042467e+01	-7.300958e-05
2.054264e+01	-7.385541e-05
2.066130e+01	-7.471103e-05
2.078064e+01	-7.557658e-05
2.090066e+01	-7.645214e-05
2.102139e+01	-7.733786e-05
2.114280e+01	-7.823383e-05
2.126492e+01	-7.914018e-05
2.138775e+01	-8.005703e-05
2.151128e+01	-8.098451e-05
2.163553e+01	-8.192273e-05
2.176050e+01	-8.287182e-05
2.188619e+01	-8.383190e-05
2.201260e+01	-8.480311e-05
2.213974e+01	-8.578556e-05
2.226762e+01	-8.677940e-05
2.239624e+01	-8.778476e-05
2.252560e+01	-8.880176e-05
2.265571e+01	-8.983054e-05
2.278656e+01	-9.087124e-05
2.291818e+01	-9.192400e-05
2.305055e+01	-9.298895e-05
2.318369e+01	-9.406624e-05
2.331760e+01	-9.515602e-05
2.345228e+01	-9.625841e-05
2.358774e+01	-9.737358e-05
2.372398e+01	-9.850167e-05
2.386101e+01	-9.964282e-05
2.399883e+01	-1.007972e-04
2.413745e+01	-1.019650e-04
2.427686e+01	-1.031462e-04
2.441709e+01	-1.043412e-04
2.455812e+01	-1.055500e-04
2.469997e+01	-1.067728e-04
2.484263e+01	-1.080098e-04
2.498612e+01	-1.092611e-04
2.513044e+01	-1.105269e-04
2.527559e+01	-1.118074e-04
2.542158e+01	-1.131027e-04
2.556842e+01	-1.144130e-04
2.571610e+01	-1.157385e-04
2.586463e+01	-1.170793e-04
2.601403e+01	-1.184357e-04
2.616428e+01	-1.198078e-04
2.631541e+01	-1.211958e-04
2.646740e+01	-1.225998e-04
2.662028e+01	-1.240202e-04
2.677404e+01	-1.254570e-04
2.692868e+01	-1.269104e-04
2.708422e+01	-1.283807e-04
2.724066e+01	-1.298680e-04
2.739800e+01	-1.313725e-04
2.755625e+01	-1.328945e-04
2.771541e+01	-1.344341e-04
2.787550e+01	-1.359915e-04
2.803650e+01	-1.375670e-04
2.819844e+01	-1.391607e-04
2.836131e+01	-1.407729e-04
2.852513e+01	-1.424037e-04
2.868989e+01	-1.440535e-04
2.885560e+01	-1.457224e-04
2.902227e+01	-1.474106e-04
2.918990e+01	-1.491183e-04
2.935850e+01	-1.508459e-04
2.952807e+01	-1.525935e-04
2.969863e+01	-1.543613e-04
2.987016e+01	-1.561496e-04
3.004269e+01	-1.579586e-04
3.021622e+01	-1.597885e-04
3.039075e+01	-1.616397e-04
3.056628e+01	-1.635123e-04
3.074283e+01	-1.654066e-04
3.092040e+01	-1.673228e-04
3.109900e+01	-1.692613e-04
3.127862e+01	-1.712222e-04
3.145929e+01	-1.732058e-04
3.164099e+01	-1.752124e-04
3.182375e+01	-1.772422e-04
3.200756e+01	-1.792956e-04
3.219244e+01	-1.813727e-04
3.237838e+01	-1.834739e-04
3.256540e+01	-1.855995e-04
3.275349e+01	-1.877497e-04
3.294268e+01	-1.899247e-04
3.313295e+01	-1.921250e-04
3.332433e+01	-1.943508e-04
3.351681e+01	-1.966024e-04
3.371040e+01	-1.988800e-04
3.390511e+01	-2.011840e-04
3.410094e+01	-2.035147e-04
3.429791e+01	-2.058725e-04
3.449601e+01	-2.082575e-04
3.469526e+01	-2.106702e-04
3.489566e+01	-2.131108e-04
3.509721e+01	-2.155797e-04
3.529993e+01	-2.180771e-04
3.550382e+01	-2.206036e-04
3.570889e+01	-2.231593e-04
3.591515e+01	-2.257446e-04
3.612259e+01	-2.283598e-04
3.633123e+01	-2.310053e-04
3.654108e+01	-2.336815e-04
3.675214e+01	-2.363887e-04
3.696442e+01	-2.391273e-04
3.717792e+01	-2.418976e-04
3.739266e+01	-2.446999e-04
3.760864e+01	-2.475348e-04
3.782587e+01	-2.504024e-04
3.804435e+01	-2.533033e-04
3.826409e+01	-2.562378e-04
3.848510e+01	-2.592063e-04
3.870739e+01	-2.622092e-04
3.893096e+01	-2.652469e-04
3.915583e+01	-2.683198e-04
3.938199e+01	-2.714282e-04
3.960946e+01	-2.745727e-04
3.983824e+01	-2.777536e-04
4.006834e+01	-2.809713e-04
4.029978e+01	-2.842264e-04
4.053255e+01	-2.875191e-04
4.076666e+01	-2.908500e-04
4.100213e+01	-2.942194e-04
4.123896e+01	-2.976279e-04
4.147715e+01	-3.010759e-04
4.171672e+01	-3.045638e-04
4.195767e+01	-3.080922e-04
4.220002e+01	-3.116614e-04
4.244377e+01	-3.152719e-04
4.268892e+01	-3.189243e-04
4.293549e+01	-3.226190e-04
4.318348e+01	-3.263565e-04
4.343291e+01	-3.301373e-04
4.368377e+01	-3.339619e-04
4.393609e+01	-3.378308e-04
4.418986e+01	-3.417445e-04
4.444510e+01	-3.457035e-04
4.470182e+01	-3.497084e-04
4.496001e+01	-3.537597e-04
4.521970e+01	-3.578580e-04
4.548089e+01	-3.620037e-04
4.574358e+01	-3.661974e-04
4.600779e+01	-3.704397e-04
4.627353e+01	-3.747312e-04
4.654081e+01	-3.790724e-04
4.680963e+01	-3.834638e-04
4.708000e+01	-3.879062e-04
4.735193e+01	-3.924000e-04
4.762543e+01	-3.969458e-04
4.790051e+01	-4.015443e-04
4.817719e+01	-4.061961e-04
4.845545e+01	-4.109018e-04
4.873533e+01	-4.156620e-04
4.901682e+01	-4.204773e-04
4.929994e+01	-4.253484e-04
4.958470e+01	-4.302759e-04
4.987110e+01	-4.352606e-04
5.015915e+01	-4.403029e-04
5.044887e+01	-4.454037e-04
5.074026e+01	-4.505635e-04
5.103333e+01	-4.557832e-04
5.132810e+01	-4.610633e-04
5.162457e+01	-4.664045e-04
5.192275e+01	-4.718077e-04
5.222265e+01	-4.772734e-04
5.252429e+01	-4.828024e-04
5.282767e+01	-4.883955e-04
5.313280e+01	-4.940534e-04
5.343969e+01	-4.997768e-04
5.374836e+01	-5.055665e-04
5.405880e+01	-5.114233e-04
5.437105e+01	-5.173479e-04
5.468509e+01	-5.233412e-04
5.500095e+01	-5.294039e-04
5.531863e+01	-5.355368e-04
5.563815e+01	-5.417407e-04
5.595951e+01	-5.480165e-04
5.628273e+01	-5.543651e-04
5.660782e+01	-5.607871e-04
5.693479e+01	-5.672836e-04
5.726364e+01	-5.738553e-04
5.759439e+01	-5.805031e-04
5.792705e+01	-5.872279e-04
5.826164e+01	-5.940307e-04
5.859815e+01	-6.009122e-04
5.893662e+01	-6.078734e-04
5.927703e+01	-6.149153e-04
5.961941e+01	-6.220388e-04
5.996377e+01	-6.292447e-04
6.031012e+01	-6.365342e-04
6.065847e+01	-6.439081e-04
6.100883e+01	-6.513673e-04
6.136121e+01	-6.589130e-04
6.171563e+01	-6.665461e-04
6.207210e+01	-6.742677e-04
6.243063e+01	-6.820786e-04
6.279122e+01	-6.899801e-04
6.315390e+01	-6.979730e-04
6.351868e+01	-7.060586e-04
6.388556e+01	-7.142378e-04
6.425456e+01	-7.225118e-04
6.462569e+01	-7.308815e-04
6.499897e+01	-7.393483e-04
6.537440e+01	-7.479131e-04
6.575200e+01	-7.565771e-04
6.613178e+01	-7.653415e-04
6.651375e+01	-7.742074e-04
6.689793e+01	-7.831760e-04
6.728433e+01	-7.922485e-04
6.767297e+01	-8.014261e-04
6.806384e+01	-8.107099e-04
6.845698e+01	-8.201013e-04
6.885238e+01	-8.296015e-04
6.925007e+01	-8.392118e-04
6.965005e+01	-8.489333e-04
7.005235e+01	-8.587675e-04
7.045697e+01	-8.687155e-04
7.086393e+01	-8.787788e-04
7.127323e+01	-8.889587e-04
7.168490e+01	-8.992564e-04
7.209895e+01	-9.096735e-04
7.251539e+01	-9.202112e-04
7.293424e+01	-9.308709e-04
7.335551e+01	-9.416541e-04
7.377920e+01	-9.525623e-04
7.420535e+01	-9.635967e-04
7.463396e+01	-9.747590e-04
7.506504e+01	-9.860506e-04
7.549861e+01	-9.974729e-04
7.593469e+01	-1.009028e-03
7.637328e+01	-1.020716e-03
7.681441e+01	-1.032540e-03
7.725809e+01	-1.044501e-03
7.770433e+01	-1.056600e-03
7.815315e+01	-1.068840e-03
7.860456e+01	-1.081221e-03
7.905857e+01	-1.093746e-03
7.951521e+01	-1.106415e-03
7.997449e+01	-1.119232e-03
8.043642e+01	-1.132197e-03
8.090102e+01	-1.145312e-03
8.136830e+01	-1.158579e-03
8.183828e+01	-1.171999e-03
8.231097e+01	-1.185575e-03
8.278640e+01	-1.199309e-03
8.326457e+01	-1.213201e-03
8.374550e+01	-1.227254e-03
8.422921e+01	-1.241470e-03
8.471572e+01	-1.255851e-03
8.520503e+01	-1.270398e-03
8.569717e+01	-1.285114e-03
8.619215e+01	-1.300000e-03
8.669000e+01	-1.315059e-03
8.719071e+01	-1.330292e-03
8.769432e+01	-1.345701e-03
8.820084e+01	-1.361289e-03
8.871029e+01	-1.377057e-03
8.922267e+01	-1.393008e-03
8.973802e+01	-1.409144e-03
9.025634e+01	-1.425467e-03
9.077766e+01	-1.441979e-03
9.130199e+01	-1.458681e-03
9.182935e+01	-1.475578e-03
9.235975e+01	-1.492670e-03
9.289321e+01	-1.509960e-03
9.342976e+01	-1.527450e-03
9.396941e+01	-1.545143e-03
9.451217e+01	-1.563040e-03
9.505807e+01	-1.581145e-03
9.560712e+01	-1.599460e-03
9.615934e+01	-1.617987e-03
9.671476e+01	-1.636728e-03
9.727338e+01	-1.655686e-03
9.783522e+01	-1.674864e-03
9.840032e+01	-1.694264e-03
9.896867e+01	-1.713889e-03
9.954031e+01	-1.733741e-03
1.001153e+02	-1.753823e-03
1.006935e+02	-1.774137e-03
1.012751e+02	-1.794686e-03
1.018601e+02	-1.815474e-03
1.024484e+02	-1.836502e-03
1.030402e+02	-1.857774e-03
1.036353e+02	-1.879292e-03
1.042339e+02	-1.901060e-03
1.048360e+02	-1.923079e-03
1.054415e+02	-1.945353e-03
1.060505e+02	-1.967886e-03
1.066631e+02	-1.990679e-03
1.072791e+02	-2.013736e-03
1.078988e+02	-2.037060e-03
1.085220e+02	-2.060655e-03
1.091488e+02	-2.084522e-03
1.097793e+02	-2.108666e-03
1.104133e+02	-2.133090e-03
1.110511e+02	-2.157796e-03
1.116925e+02	-2.182788e-03
1.123376e+02	-2.208070e-03
1.129865e+02	-2.233644e-03
1.136391e+02	-2.259515e-03
1.142955e+02	-2.285685e-03
1.149556e+02	-2.312158e-03
1.156196e+02	-2.338938e-03
1.162874e+02	-2.366028e-03
1.169591e+02	-2.393431e-03
1.176347e+02	-2.421152e-03
1.183141e+02	-2.449194e-03
1.189975e+02	-2.477561e-03
1.196848e+02	-2.506255e-03
1.203761e+02	-2.535283e-03
1.210714e+02	-2.564646e-03
1.217707e+02	-2.594349e-03
1.224740e+02	-2.624396e-03
1.231814e+02	-2.654791e-03
1.238929e+02	-2.685538e-03
1.246085e+02	-2.716641e-03
1.253283e+02	-2.748104e-03
1.260522e+02	-2.779931e-03
1.267802e+02	-2.812127e-03
1.275125e+02	-2.844696e-03
1.282490e+02	-2.877641e-03
1.289898e+02	-2.910968e-03
1.297348e+02	-2.944681e-03
1.304842e+02	-2.978784e-03
1.312378e+02	-3.013282e-03
1.319959e+02	-3.048180e-03
1.327583e+02	-3.083481e-03
1.335251e+02	-3.119191e-03
1.342963e+02	-3.155315e-03
1.350720e+02	-3.191857e-03
1.358522e+02	-3.228821e-03
1.366368e+02	-3.266214e-03
1.374260e+02	-3.304039e-03
1.382198e+02	-3.342303e-03
1.390182e+02	-3.381009e-03
1.398211e+02	-3.420164e-03
1.406287e+02	-3.459771e-03
1.414410e+02	-3.499838e-03
1.422579e+02	-3.540368e-03
1.430796e+02	-3.581367e-03
1.439060e+02	-3.622840e-03
1.447372e+02	-3.664794e-03
1.455732e+02	-3.707234e-03
1.464141e+02	-3.750164e-03
1.472597e+02	-3.793592e-03
1.481103e+02	-3.837522e-03
1.489658e+02	-3.881961e-03
1.498262e+02	-3.926914e-03
1.506916e+02	-3.972388e-03
1.515620e+02	-4.018388e-03
1.524374e+02	-4.064920e-03
1.533179e+02	-4.111991e-03
1.542034e+02	-4.159606e-03
1.550941e+02	-4.207773e-03
1.559899e+02	-4.256497e-03
1.568909e+02	-4.305785e-03
1.577971e+02	-4.355644e-03
1.587085e+02	-4.406079e-03
1.596252e+02	-4.457099e-03
1.605472e+02	-4.508709e-03
1.614745e+02	-4.560916e-03
1.624072e+02	-4.613727e-03
1.633453e+02	-4.667149e-03
1.642887e+02	-4.721190e-03
1.652377e+02	-4.775856e-03
1.661921e+02	-4.831155e-03
1.671520e+02	-4.887093e-03
1.681175e+02	-4.943679e-03
1.690885e+02	-5.000920e-03
1.700651e+02	-5.058823e-03
1.710474e+02	-5.117396e-03
1.720354e+02	-5.176647e-03
1.730291e+02	-5.236584e-03
1.740285e+02	-5.297214e-03
1.750337e+02	-5.358546e-03
1.760446e+02	-5.420587e-03
1.770615e+02	-5.483346e-03
1.780842e+02	-5.546831e-03
1.791128e+02	-5.611051e-03
1.801473e+02	-5.676014e-03
1.811878e+02	-5.741729e-03
1.822344e+02	-5.808203e-03
1.832870e+02	-5.875447e-03
1.843456e+02	-5.943469e-03
1.854104e+02	-6.012278e-03
1.864813e+02	-6.081883e-03
1.875584e+02	-6.152293e-03
1.886418e+02	-6.223518e-03
1.897313e+02	-6.295566e-03
1.908272e+02	-6.368449e-03
1.919294e+02	-6.442174e-03
1.930380e+02	-6.516752e-03
1.941530e+02	-6.592193e-03
1.952744e+02	-6.668506e-03
1.964023e+02	-6.745702e-03
1.975367e+02	-6.823791e-03
1.986777e+02	-6.902784e-03
1.998252e+02	-6.982690e-03
2.009794e+02	-7.063520e-03
2.021403e+02	-7.145285e-03
2.033078e+02	-7.227996e-03
2.044821e+02	-7.311664e-03
2.056632e+02	-7.396299e-03
2.068511e+02	-7.481913e-03
2.080459e+02	-7.568517e-03
2.092475e+02	-7.656123e-03
2.104561e+02	-7.744741e-03
2.116717e+02	-7.834385e-03
2.128943e+02	-7.925065e-03
2.141240e+02	-8.016794e-03
2.153608e+02	-8.109584e-03
2.166047e+02	-8.203447e-03
2.178558e+02	-8.298394e-03
2.191141e+02	-8.394440e-03
2.203797e+02	-8.491597e-03
2.216526e+02	-8.589876e-03
2.229329e+02	-8.689292e-03
2.242205e+02	-8.789858e-03
2.255156e+02	-8.891586e-03
2.268182e+02	-8.994490e-03
2.281283e+02	-9.098584e-03
2.294459e+02	-9.203882e-03
2.307712e+02	-9.310396e-03
2.321041e+02	-9.418142e-03
2.334447e+02	-9.527134e-03
2.347931e+02	-9.637385e-03
2.361493e+02	-9.748911e-03
2.375133e+02	-9.861726e-03
2.388851e+02	-9.975845e-03
2.402649e+02	-1.009128e-02
2.416527e+02	-1.020806e-02
2.430484e+02	-1.032618e-02
2.444523e+02	-1.044566e-02
2.458642e+02	-1.056653e-02
2.472843e+02	-1.068880e-02
2.487126e+02	-1.081247e-02
2.501492e+02	-1.093758e-02
2.515940e+02	-1.106413e-02
2.530472e+02	-1.119215e-02
2.545088e+02	-1.132164e-02
2.559789e+02	-1.145263e-02
2.574574e+02	-1.158514e-02
2.589444e+02	-1.171917e-02
2.604401e+02	-1.185476e-02
2.619444e+02	-1.199191e-02
2.634574e+02	-1.213064e-02
2.649791e+02	-1.227098e-02
2.665096e+02	-1.241294e-02
2.680489e+02	-1.255654e-02
2.695972e+02	-1.270179e-02
2.711544e+02	-1.284873e-02
2.727205e+02	-1.299736e-02
2.742958e+02	-1.314771e-02
2.758801e+02	-1.329980e-02
2.774736e+02	-1.345364e-02
2.790762e+02	-1.360926e-02
2.806882e+02	-1.376667e-02
2.823094e+02	-1.392591e-02
2.839400e+02	-1.408698e-02
2.855800e+02	-1.424991e-02
2.872295e+02	-1.441473e-02
2.888886e+02	-1.458144e-02
2.905572e+02	-1.475008e-02
2.922354e+02	-1.492067e-02
2.939234e+02	-1.509323e-02
2.956211e+02	-1.526778e-02
2.973286e+02	-1.544435e-02
2.990459e+02	-1.562295e-02
3.007732e+02	-1.580362e-02
3.025104e+02	-1.598637e-02
3.042577e+02	-1.617123e-02
3.060151e+02	-1.635822e-02
3.077826e+02	-1.654737e-02
3.095604e+02	-1.673871e-02
3.113484e+02	-1.693225e-02
3.131467e+02	-1.712803e-02
3.149554e+02	-1.732606e-02
3.167746e+02	-1.752638e-02
3.186043e+02	-1.772901e-02
3.204445e+02	-1.793398e-02
3.222954e+02	-1.814132e-02
3.241570e+02	-1.835104e-02
3.260293e+02	-1.856319e-02
3.279124e+02	-1.877778e-02
3.298064e+02	-1.899485e-02
3.317114e+02	-1.921442e-02
3.336273e+02	-1.943653e-02
3.355544e+02	-1.966119e-02
3.374925e+02	-1.988845e-02
3.394418e+02	-2.011833e-02
3.414024e+02	-2.035085e-02
3.433744e+02	-2.058606e-02
3.453577e+02	-2.082398e-02
3.473525e+02	-2.106465e-02
3.493588e+02	-2.130809e-02
3.513766e+02	-2.155433e-02
3.534062e+02	-2.180341e-02
3.554474e+02	-2.205537e-02
3.575005e+02	-2.231023e-02
3.595654e+02	-2.256802e-02
3.616422e+02	-2.282879e-02
3.637311e+02	-2.309256e-02
3.658320e+02	-2.335937e-02
3.679450e+02	-2.362926e-02
3.700702e+02	-2.390225e-02
3.722077e+02	-2.417840e-02
3.743576e+02	-2.445772e-02
3.765199e+02	-2.474026e-02
3.786946e+02	-2.502605e-02
3.808820e+02	-2.531513e-02
3.830819e+02	-2.560755e-02
3.852946e+02	-2.590333e-02
3.875200e+02	-2.620252e-02
3.897583e+02	-2.650515e-02
3.920096e+02	-2.681127e-02
3.942738e+02	-2.712091e-02
3.965511e+02	-2.743412e-02
3.988416e+02	-2.775093e-02
4.011452e+02	-2.807139e-02
4.034622e+02	-2.839554e-02
4.057926e+02	-2.872342e-02
4.081365e+02	-2.905507e-02
4.104938e+02	-2.939054e-02
4.128648e+02	-2.972987e-02
4.152495e+02	-3.007310e-02
4.176480e+02	-3.042028e-02
4.200603e+02	-3.077145e-02
4.224866e+02	-3.112667e-02
4.249268e+02	-3.148597e-02
4.273812e+02	-3.184940e-02
4.298497e+02	-3.221701e-02
4.323325e+02	-3.258885e-02
4.348297e+02	-3.296496e-02
4.373412e+02	-3.334540e-02
4.398673e+02	-3.373021e-02
4.424079e+02	-3.411944e-02
4.449633e+02	-3.451315e-02
4.475334e+02	-3.491138e-02
4.501183e+02	-3.531419e-02
4.527182e+02	-3.572163e-02
4.553330e+02	-3.613375e-02
4.579630e+02	-3.655060e-02
4.606082e+02	-3.697224e-02
4.632687e+02	-3.739872e-02
4.659445e+02	-3.783010e-02
4.686358e+02	-3.826644e-02
4.713426e+02	-3.870779e-02
4.740650e+02	-3.915420e-02
4.768032e+02	-3.960574e-02
4.795572e+02	-4.006246e-02
4.823271e+02	-4.052442e-02
4.851130e+02	-4.099169e-02
4.879150e+02	-4.146431e-02
4.907332e+02	-4.194236e-02
4.935676e+02	-4.242590e-02
4.964185e+02	-4.291498e-02
4.992858e+02	-4.340967e-02
5.021696e+02	-4.391003e-02
5.050701e+02	-4.441614e-02
5.079874e+02	-4.492804e-02
5.109215e+02	-4.544581e-02
5.138726e+02	-4.596952e-02
5.168407e+02	-4.649924e-02
5.198259e+02	-4.703502e-02
5.228284e+02	-4.757694e-02
5.258482e+02	-4.812507e-02
5.288855e+02	-4.867948e-02
5.319403e+02	-4.924024e-02
5.350128e+02	-4.980743e-02
5.381030e+02	-5.038111e-02
5.412111e+02	-5.096135e-02
5.443371e+02	-5.154825e-02
5.474812e+02	-5.214185e-02
5.506434e+02	-5.274226e-02
5.538239e+02	-5.334953e-02
5.570228e+02	-5.396375e-02
5.602401e+02	-5.458500e-02
5.634760e+02	-5.521336e-02
5.667306e+02	-5.584890e-02
5.700040e+02	-5.649171e-02
5.732964e+02	-5.714187e-02
5.766077e+02	-5.779946e-02
5.799382e+02	-5.846457e-02
5.832879e+02	-5.913728e-02
5.866569e+02	-5.981768e-02
5.900454e+02	-6.050585e-02
5.934535e+02	-6.120188e-02
5.968813e+02	-6.190586e-02
6.003288e+02	-6.261788e-02
6.037963e+02	-6.333803e-02
6.072838e+02	-6.406640e-02
6.107914e+02	-6.480309e-02
6.143194e+02	-6.554818e-02
6.178676e+02	-6.630177e-02
6.214364e+02	-6.706396e-02
6.250258e+02	-6.783484e-02
6.286359e+02	-6.861452e-02
6.322669e+02	-6.940308e-02
6.359189e+02	-7.020063e-02
6.395919e+02	-7.100727e-02
6.432862e+02	-7.182311e-02
6.470017e+02	-7.264823e-02
6.507388e+02	-7.348276e-02
6.544974e+02	-7.432679e-02
6.582778e+02	-7.518044e-02
6.620800e+02	-7.604380e-02
6.659041e+02	-7.691698e-02
6.697504e+02	-7.780010e-02
6.736188e+02	-7.869328e-02
6.775096e+02	-7.959661e-02
6.814229e+02	-8.051021e-02
6.853587e+02	-8.143420e-02
6.893173e+02	-8.236869e-02
6.932988e+02	-8.331381e-02
6.973033e+02	-8.426966e-02
7.013309e+02	-8.523637e-02
