Frequency(Hz)	Magnitude(dB)
1.000000e+01	-1.761780e-05
1.005776e+01	-1.782191e-05
1.011585e+01	-1.802838e-05
1.017428e+01	-1.823724e-05
1.023305e+01	-1.844852e-05
1.029215e+01	-1.866225e-05
1.035160e+01	-1.887846e-05
1.041139e+01	-1.909717e-05
1.047153e+01	-1.931842e-05
1.053201e+01	-1.954223e-05
1.059284e+01	-1.976863e-05
1.065403e+01	-1.999765e-05
1.071556e+01	-2.022933e-05
1.077746e+01	-2.046369e-05
1.083971e+01	-2.070077e-05
1.090232e+01	-2.094059e-05
1.096529e+01	-2.118320e-05
1.102862e+01	-2.142861e-05
1.109232e+01	-2.167687e-05
1.115639e+01	-2.192800e-05
1.122083e+01	-2.218204e-05
1.128564e+01	-2.243902e-05
1.135083e+01	-2.269898e-05
1.141639e+01	-2.296196e-05
1.148233e+01	-2.322798e-05
1.154865e+01	-2.349708e-05
1.161536e+01	-2.376930e-05
1.168245e+01	-2.404467e-05
1.174992e+01	-2.432324e-05
1.181779e+01	-2.460503e-05
1.188605e+01	-2.489008e-05
1.195470e+01	-2.517844e-05
1.202375e+01	-2.547014e-05
1.209320e+01	-2.576522e-05
1.216305e+01	-2.606371e-05
1.223330e+01	-2.636567e-05
1.230396e+01	-2.667112e-05
1.237503e+01	-2.698011e-05
1.244651e+01	-2.729268e-05
1.251840e+01	-2.760887e-05
1.259070e+01	-2.792873e-05
1.266343e+01	-2.825229e-05
1.273657e+01	-2.857960e-05
1.281014e+01	-2.891070e-05
1.288413e+01	-2.924564e-05
1.295855e+01	-2.958446e-05
1.303339e+01	-2.992720e-05
1.310867e+01	-3.027391e-05
1.318439e+01	-3.062465e-05
1.326054e+01	-3.097944e-05
1.333713e+01	-3.133834e-05
1.341417e+01	-3.170141e-05
1.349165e+01	-3.206867e-05
1.356958e+01	-3.244020e-05
1.364795e+01	-3.281602e-05
1.372678e+01	-3.319621e-05
1.380607e+01	-3.358079e-05
1.388581e+01	-3.396983e-05
1.396602e+01	-3.436338e-05
1.404668e+01	-3.476149e-05
1.412782e+01	-3.516421e-05
1.420942e+01	-3.557159e-05
1.429149e+01	-3.598370e-05
1.437404e+01	-3.640058e-05
1.445706e+01	-3.682229e-05
1.454057e+01	-3.724888e-05
1.462455e+01	-3.768042e-05
1.470902e+01	-3.811696e-05
1.479398e+01	-3.855855e-05
1.487943e+01	-3.900526e-05
1.496537e+01	-3.945714e-05
1.505181e+01	-3.991426e-05
1.513875e+01	-4.037668e-05
1.522619e+01	-4.084445e-05
1.531414e+01	-4.131765e-05
1.540259e+01	-4.179632e-05
1.549156e+01	-4.228054e-05
1.558103e+01	-4.277037e-05
1.567103e+01	-4.326587e-05
1.576155e+01	-4.376712e-05
1.585258e+01	-4.427417e-05
1.594415e+01	-4.478710e-05
1.603624e+01	-4.530596e-05
1.612886e+01	-4.583084e-05
1.622202e+01	-4.636180e-05
1.631572e+01	-4.689891e-05
1.640996e+01	-4.744225e-05
1.650474e+01	-4.799188e-05
1.660008e+01	-4.854787e-05
1.669596e+01	-4.911031e-05
1.679239e+01	-4.967926e-05
1.688938e+01	-5.025481e-05
1.698694e+01	-5.083702e-05
1.708505e+01	-5.142598e-05
1.718373e+01	-5.202176e-05
1.728299e+01	-5.262444e-05
1.738281e+01	-5.323411e-05
1.748322e+01	-5.385084e-05
1.758420e+01	-5.447471e-05
1.768576e+01	-5.510581e-05
1.778792e+01	-5.574422e-05
1.789066e+01	-5.639003e-05
1.799399e+01	-5.704332e-05
1.809793e+01	-5.770418e-05
1.820246e+01	-5.837269e-05
1.830760e+01	-5.904895e-05
1.841334e+01	-5.973305e-05
1.851969e+01	-6.042507e-05
1.862666e+01	-6.112510e-05
1.873425e+01	-6.183325e-05
1.884246e+01	-6.254960e-05
1.895129e+01	-6.327425e-05
1.906075e+01	-6.400729e-05
1.917085e+01	-6.474883e-05
1.928158e+01	-6.549896e-05
1.939295e+01	-6.625778e-05
1.950496e+01	-6.702539e-05
1.961762e+01	-6.780189e-05
1.973093e+01	-6.858739e-05
1.984490e+01	-6.938198e-05
1.995952e+01	-7.018579e-05
2.007480e+01	-7.099890e-05
2.019076e+01	-7.182144e-05
2.030738e+01	-7.265350e-05
2.042467e+01	-7.349520e-05
2.054264e+01	-7.434666e-05
2.066130e+01	-7.520798e-05
2.078064e+01	-7.607928e-05
2.090066e+01	-7.696067e-05
2.102139e+01	-7.785227e-05
2.114280e+01	-7.875420e-05
2.126492e+01	-7.966659e-05
2.138775e+01	-8.058954e-05
2.151128e+01	-8.152318e-05
2.163553e+01	-8.246764e-05
2.176050e+01	-8.342304e-05
2.188619e+01	-8.438951e-05
2.201260e+01	-8.536718e-05
2.213974e+01	-8.635617e-05
2.226762e+01	-8.735662e-05
2.239624e+01	-8.836866e-05
2.252560e+01	-8.939243e-05
2.265571e+01	-9.042805e-05
2.278656e+01	-9.147568e-05
2.291818e+01	-9.253544e-05
2.305055e+01	-9.360747e-05
2.318369e+01	-9.469193e-05
2.331760e+01	-9.578895e-05
2.345228e+01	-9.689868e-05
2.358774e+01	-9.802126e-05
2.372398e+01	-9.915686e-05
2.386101e+01	-1.003056e-04
2.399883e+01	-1.014677e-04
2.413745e+01	-1.026432e-04
2.427686e+01	-1.038323e-04
2.441709e+01	-1.050352e-04
2.455812e+01	-1.062521e-04
2.469997e+01	-1.074830e-04
2.484263e+01	-1.087282e-04
2.498612e+01	-1.099879e-04
2.513044e+01	-1.112621e-04
2.527559e+01	-1.125511e-04
2.542158e+01	-1.138550e-04
2.556842e+01	-1.151740e-04
2.571610e+01	-1.165083e-04
2.586463e+01	-1.178581e-04
2.601403e+01	-1.192235e-04
2.616428e+01	-1.206047e-04
2.631541e+01	-1.220019e-04
2.646740e+01	-1.234153e-04
2.662028e+01	-1.248451e-04
2.677404e+01	-1.262914e-04
2.692868e+01	-1.277545e-04
2.708422e+01	-1.292346e-04
2.724066e+01	-1.307318e-04
2.739800e+01	-1.322463e-04
2.755625e+01	-1.337784e-04
2.771541e+01	-1.353282e-04
2.787550e+01	-1.368960e-04
2.803650e+01	-1.384820e-04
2.819844e+01	-1.400863e-04
2.836131e+01	-1.417092e-04
2.852513e+01	-1.433509e-04
2.868989e+01	-1.450117e-04
2.885560e+01	-1.466917e-04
2.902227e+01	-1.483911e-04
2.918990e+01	-1.501102e-04
2.935850e+01	-1.518492e-04
2.952807e+01	-1.536084e-04
2.969863e+01	-1.553880e-04
2.987016e+01	-1.571882e-04
3.004269e+01	-1.590092e-04
3.021622e+01	-1.608513e-04
3.039075e+01	-1.627148e-04
3.056628e+01	-1.645999e-04
3.074283e+01	-1.665068e-04
3.092040e+01	-1.684358e-04
3.109900e+01	-1.703871e-04
3.127862e+01	-1.723610e-04
3.145929e+01	-1.743579e-04
3.164099e+01	-1.763778e-04
3.182375e+01	-1.784211e-04
3.200756e+01	-1.804882e-04
3.219244e+01	-1.825791e-04
3.237838e+01	-1.846943e-04
3.256540e+01	-1.868340e-04
3.275349e+01	-1.889985e-04
3.294268e+01	-1.911880e-04
3.313295e+01	-1.934029e-04
3.332433e+01	-1.956435e-04
3.351681e+01	-1.979101e-04
3.371040e+01	-2.002028e-04
3.390511e+01	-2.025222e-04
3.410094e+01	-2.048684e-04
3.429791e+01	-2.072418e-04
3.449601e+01	-2.096427e-04
3.469526e+01	-2.120714e-04
3.489566e+01	-2.145283e-04
3.509721e+01	-2.170136e-04
3.529993e+01	-2.195277e-04
3.550382e+01	-2.220709e-04
3.570889e+01	-2.246436e-04
3.591515e+01	-2.272461e-04
3.612259e+01	-2.298787e-04
3.633123e+01	-2.325419e-04
3.654108e+01	-2.352358e-04
3.675214e+01	-2.379610e-04
3.696442e+01	-2.407178e-04
3.717792e+01	-2.435065e-04
3.739266e+01	-2.463275e-04
3.760864e+01	-2.491812e-04
3.782587e+01	-2.520680e-04
3.804435e+01	-2.549882e-04
3.826409e+01	-2.579422e-04
3.848510e+01	-2.609304e-04
3.870739e+01	-2.639533e-04
3.893096e+01	-2.670112e-04
3.915583e+01	-2.701045e-04
3.938199e+01	-2.732336e-04
3.960946e+01	-2.763990e-04
3.983824e+01	-2.796010e-04
4.006834e+01	-2.828402e-04
4.029978e+01	-2.861169e-04
4.053255e+01	-2.894315e-04
4.076666e+01	-2.927845e-04
4.100213e+01	-2.961764e-04
4.123896e+01	-2.996076e-04
4.147715e+01	-3.030785e-04
4.171672e+01	-3.065896e-04
4.195767e+01	-3.101414e-04
4.220002e+01	-3.137344e-04
4.244377e+01	-3.173689e-04
4.268892e+01	-3.210456e-04
4.293549e+01	-3.247649e-04
4.318348e+01	-3.285272e-04
4.343291e+01	-3.323331e-04
4.368377e+01	-3.361832e-04
4.393609e+01	-3.400778e-04
4.418986e+01	-3.440175e-04
4.444510e+01	-3.480029e-04
4.470182e+01	-3.520345e-04
4.496001e+01	-3.561127e-04
4.521970e+01	-3.602382e-04
4.548089e+01	-3.644115e-04
4.574358e+01	-3.686331e-04
4.600779e+01	-3.729036e-04
4.627353e+01	-3.772236e-04
4.654081e+01	-3.815937e-04
4.680963e+01	-3.860144e-04
4.708000e+01	-3.904862e-04
4.735193e+01	-3.950099e-04
4.762543e+01	-3.995860e-04
4.790051e+01	-4.042151e-04
4.817719e+01	-4.088978e-04
4.845545e+01	-4.136348e-04
4.873533e+01	-4.184267e-04
4.901682e+01	-4.232740e-04
4.929994e+01	-4.281775e-04
4.958470e+01	-4.331378e-04
4.987110e+01	-4.381556e-04
5.015915e+01	-4.432315e-04
5.044887e+01	-4.483662e-04
5.074026e+01	-4.535604e-04
5.103333e+01	-4.588147e-04
5.132810e+01	-4.641299e-04
5.162457e+01	-4.695067e-04
5.192275e+01	-4.749458e-04
5.222265e+01	-4.804478e-04
5.252429e+01	-4.860136e-04
5.282767e+01	-4.916439e-04
5.313280e+01	-4.973394e-04
5.343969e+01	-5.031009e-04
5.374836e+01	-5.089291e-04
5.405880e+01	-5.148249e-04
5.437105e+01	-5.207889e-04
5.468509e+01	-5.268220e-04
5.500095e+01	-5.329250e-04
5.531863e+01	-5.390987e-04
5.563815e+01	-5.453439e-04
5.595951e+01	-5.516615e-04
5.628273e+01	-5.580522e-04
5.660782e+01	-5.645170e-04
5.693479e+01	-5.710567e-04
5.726364e+01	-5.776721e-04
5.759439e+01	-5.843641e-04
5.792705e+01	-5.911337e-04
5.826164e+01	-5.979816e-04
5.859815e+01	-6.049089e-04
5.893662e+01	-6.119165e-04
5.927703e+01	-6.190052e-04
5.961941e+01	-6.261760e-04
5.996377e+01	-6.334299e-04
6.031012e+01	-6.407678e-04
6.065847e+01	-6.481908e-04
6.100883e+01	-6.556997e-04
6.136121e+01	-6.632955e-04
6.171563e+01	-6.709794e-04
6.207210e+01	-6.787523e-04
6.243063e+01	-6.866152e-04
6.279122e+01	-6.945692e-04
6.315390e+01	-7.026153e-04
6.351868e+01	-7.107546e-04
6.388556e+01	-7.189882e-04
6.425456e+01	-7.273172e-04
6.462569e+01	-7.357427e-04
6.499897e+01	-7.442657e-04
6.537440e+01	-7.528875e-04
6.575200e+01	-7.616091e-04
6.613178e+01	-7.704318e-04
6.651375e+01	-7.793567e-04
6.689793e+01	-7.883849e-04
6.728433e+01	-7.975177e-04
6.767297e+01	-8.067563e-04
6.806384e+01	-8.161020e-04
6.845698e+01	-8.255558e-04
6.885238e+01	-8.351192e-04
6.925007e+01	-8.447933e-04
6.965005e+01	-8.545795e-04
7.005235e+01	-8.644791e-04
7.045697e+01	-8.744933e-04
7.086393e+01	-8.846235e-04
7.127323e+01	-8.948711e-04
7.168490e+01	-9.052373e-04
7.209895e+01	-9.157236e-04
7.251539e+01	-9.263314e-04
7.293424e+01	-9.370620e-04
7.335551e+01	-9.479170e-04
7.377920e+01	-9.588976e-04
7.420535e+01	-9.700055e-04
7.463396e+01	-9.812420e-04
7.506504e+01	-9.926087e-04
7.549861e+01	-1.004107e-03
7.593469e+01	-1.015738e-03
7.637328e+01	-1.027505e-03
7.681441e+01	-1.039407e-03
7.725809e+01	-1.051448e-03
7.770433e+01	-1.063627e-03
7.815315e+01	-1.075948e-03
7.860456e+01	-1.088412e-03
7.905857e+01	-1.101020e-03
7.951521e+01	-1.113774e-03
7.997449e+01	-1.126675e-03
8.043642e+01	-1.139727e-03
8.090102e+01	-1.152929e-03
8.136830e+01	-1.166284e-03
8.183828e+01	-1.179794e-03
8.231097e+01	-1.193460e-03
8.278640e+01	-1.207285e-03
8.326457e+01	-1.221270e-03
8.374550e+01	-1.235416e-03
8.422921e+01	-1.249727e-03
8.471572e+01	-1.264203e-03
8.520503e+01	-1.278847e-03
8.569717e+01	-1.293661e-03
8.619215e+01	-1.308646e-03
8.669000e+01	-1.323805e-03
8.719071e+01	-1.339139e-03
8.769432e+01	-1.354651e-03
8.820084e+01	-1.370342e-03
8.871029e+01	-1.386216e-03
8.922267e+01	-1.402273e-03
8.973802e+01	-1.418516e-03
9.025634e+01	-1.434947e-03
9.077766e+01	-1.451568e-03
9.130199e+01	-1.468382e-03
9.182935e+01	-1.485391e-03
9.235975e+01	-1.502597e-03
9.289321e+01	-1.520002e-03
9.342976e+01	-1.537608e-03
9.396941e+01	-1.555419e-03
9.451217e+01	-1.573435e-03
9.505807e+01	-1.591661e-03
9.560712e+01	-1.610097e-03
9.615934e+01	-1.628747e-03
9.671476e+01	-1.647613e-03
9.727338e+01	-1.666697e-03
9.783522e+01	-1.686003e-03
9.840032e+01	-1.705532e-03
9.896867e+01	-1.725287e-03
9.954031e+01	-1.745271e-03
1.001153e+02	-1.765486e-03
1.006935e+02	-1.785935e-03
1.012751e+02	-1.806622e-03
1.018601e+02	-1.827547e-03
1.024484e+02	-1.848715e-03
1.030402e+02	-1.870129e-03
1.036353e+02	-1.891790e-03
1.042339e+02	-1.913702e-03
1.048360e+02	-1.935868e-03
1.054415e+02	-1.958290e-03
1.060505e+02	-1.980972e-03
1.066631e+02	-2.003917e-03
1.072791e+02	-2.027128e-03
1.078988e+02	-2.050607e-03
1.085220e+02	-2.074358e-03
1.091488e+02	-2.098384e-03
1.097793e+02	-2.122689e-03
1.104133e+02	-2.147274e-03
1.110511e+02	-2.172145e-03
1.116925e+02	-2.197304e-03
1.123376e+02	-2.222753e-03
1.129865e+02	-2.248498e-03
1.136391e+02	-2.274540e-03
1.142955e+02	-2.300885e-03
1.149556e+02	-2.327534e-03
1.156196e+02	-2.354492e-03
1.162874e+02	-2.381762e-03
1.169591e+02	-2.409347e-03
1.176347e+02	-2.437252e-03
1.183141e+02	-2.465481e-03
1.189975e+02	-2.494036e-03
1.196848e+02	-2.522921e-03
1.203761e+02	-2.552141e-03
1.210714e+02	-2.581700e-03
1.217707e+02	-2.611600e-03
1.224740e+02	-2.641847e-03
1.231814e+02	-2.672444e-03
1.238929e+02	-2.703396e-03
1.246085e+02	-2.734705e-03
1.253283e+02	-2.766378e-03
1.260522e+02	-2.798416e-03
1.267802e+02	-2.830826e-03
1.275125e+02	-2.863611e-03
1.282490e+02	-2.896776e-03
1.289898e+02	-2.930324e-03
1.297348e+02	-2.964261e-03
1.304842e+02	-2.998591e-03
1.312378e+02	-3.033319e-03
1.319959e+02	-3.068448e-03
1.327583e+02	-3.103984e-03
1.335251e+02	-3.139931e-03
1.342963e+02	-3.176295e-03
1.350720e+02	-3.213080e-03
1.358522e+02	-3.250290e-03
1.366368e+02	-3.287931e-03
1.374260e+02	-3.326008e-03
1.382198e+02	-3.364526e-03
1.390182e+02	-3.403490e-03
1.398211e+02	-3.442904e-03
1.406287e+02	-3.482775e-03
1.414410e+02	-3.523108e-03
1.422579e+02	-3.563907e-03
1.430796e+02	-3.605179e-03
1.439060e+02	-3.646928e-03
1.447372e+02	-3.689161e-03
1.455732e+02	-3.731882e-03
1.464141e+02	-3.775098e-03
1.472597e+02	-3.818814e-03
1.481103e+02	-3.863037e-03
1.489658e+02	-3.907771e-03
1.498262e+02	-3.953023e-03
1.506916e+02	-3.998798e-03
1.515620e+02	-4.045104e-03
1.524374e+02	-4.091945e-03
1.533179e+02	-4.139329e-03
1.542034e+02	-4.187261e-03
1.550941e+02	-4.235748e-03
1.559899e+02	-4.284796e-03
1.568909e+02	-4.334411e-03
1.577971e+02	-4.384601e-03
1.587085e+02	-4.435372e-03
1.596252e+02	-4.486730e-03
1.605472e+02	-4.538683e-03
1.614745e+02	-4.591237e-03
1.624072e+02	-4.644399e-03
1.633453e+02	-4.698177e-03
1.642887e+02	-4.752576e-03
1.652377e+02	-4.807606e-03
1.661921e+02	-4.863272e-03
1.671520e+02	-4.919582e-03
1.681175e+02	-4.976544e-03
1.690885e+02	-5.034165e-03
1.700651e+02	-5.092453e-03
1.710474e+02	-5.151415e-03
1.720354e+02	-5.211060e-03
1.730291e+02	-5.271394e-03
1.740285e+02	-5.332427e-03
1.750337e+02	-5.394166e-03
1.760446e+02	-5.456620e-03
1.770615e+02	-5.519796e-03
1.780842e+02	-5.583703e-03
1.791128e+02	-5.648349e-03
1.801473e+02	-5.713744e-03
1.811878e+02	-5.779895e-03
1.822344e+02	-5.846811e-03
1.832870e+02	-5.914502e-03
1.843456e+02	-5.982975e-03
1.854104e+02	-6.052241e-03
1.864813e+02	-6.122309e-03
1.875584e+02	-6.193186e-03
1.886418e+02	-6.264884e-03
1.897313e+02	-6.337411e-03
1.908272e+02	-6.410778e-03
1.919294e+02	-6.484992e-03
1.930380e+02	-6.560066e-03
1.941530e+02	-6.636008e-03
1.952744e+02	-6.712828e-03
1.964023e+02	-6.790537e-03
1.975367e+02	-6.869145e-03
1.986777e+02	-6.948662e-03
1.998252e+02	-7.029098e-03
2.009794e+02	-7.110465e-03
2.021403e+02	-7.192773e-03
2.033078e+02	-7.276034e-03
2.044821e+02	-7.360257e-03
2.056632e+02	-7.445454e-03
2.068511e+02	-7.531636e-03
2.080459e+02	-7.618815e-03
2.092475e+02	-7.707003e-03
2.104561e+02	-7.796210e-03
2.116717e+02	-7.886449e-03
2.128943e+02	-7.977731e-03
2.141240e+02	-8.070069e-03
2.153608e+02	-8.163475e-03
2.166047e+02	-8.257961e-03
2.178558e+02	-8.353539e-03
2.191141e+02	-8.450222e-03
2.203797e+02	-8.548024e-03
2.216526e+02	-8.646956e-03
2.229329e+02	-8.747032e-03
2.242205e+02	-8.848265e-03
2.255156e+02	-8.950668e-03
2.268182e+02	-9.054256e-03
2.281283e+02	-9.159040e-03
2.294459e+02	-9.265037e-03
2.307712e+02	-9.372258e-03
2.321041e+02	-9.480719e-03
2.334447e+02	-9.590434e-03
2.347931e+02	-9.701417e-03
2.361493e+02	-9.813683e-03
2.375133e+02	-9.927247e-03
2.388851e+02	-1.004212e-02
2.402649e+02	-1.015833e-02
2.416527e+02	-1.027587e-02
2.430484e+02	-1.039478e-02
2.444523e+02	-1.051506e-02
2.458642e+02	-1.063673e-02
2.472843e+02	-1.075981e-02
2.487126e+02	-1.088430e-02
2.501492e+02	-1.101024e-02
2.515940e+02	-1.113763e-02
2.530472e+02	-1.126650e-02
2.545088e+02	-1.139685e-02
2.559789e+02	-1.152871e-02
2.574574e+02	-1.166209e-02
2.589444e+02	-1.179702e-02
2.604401e+02	-1.193350e-02
2.619444e+02	-1.207156e-02
2.634574e+02	-1.221122e-02
2.649791e+02	-1.235248e-02
2.665096e+02	-1.249538e-02
2.680489e+02	-1.263994e-02
2.695972e+02	-1.278616e-02
2.711544e+02	-1.293407e-02
2.727205e+02	-1.308368e-02
2.742958e+02	-1.323503e-02
2.758801e+02	-1.338812e-02
2.774736e+02	-1.354299e-02
2.790762e+02	-1.369964e-02
2.806882e+02	-1.385810e-02
2.823094e+02	-1.401839e-02
2.839400e+02	-1.418053e-02
2.855800e+02	-1.434454e-02
2.872295e+02	-1.451045e-02
2.888886e+02	-1.467827e-02
2.905572e+02	-1.484803e-02
2.922354e+02	-1.501975e-02
2.939234e+02	-1.519345e-02
2.956211e+02	-1.536916e-02
2.973286e+02	-1.554689e-02
2.990459e+02	-1.572668e-02
3.007732e+02	-1.590854e-02
3.025104e+02	-1.609250e-02
3.042577e+02	-1.627859e-02
3.060151e+02	-1.646682e-02
3.077826e+02	-1.665723e-02
3.095604e+02	-1.684983e-02
3.113484e+02	-1.704466e-02
3.131467e+02	-1.724173e-02
3.149554e+02	-1.744108e-02
3.167746e+02	-1.764272e-02
3.186043e+02	-1.784670e-02
3.204445e+02	-1.805302e-02
3.222954e+02	-1.826173e-02
3.241570e+02	-1.847285e-02
3.260293e+02	-1.868640e-02
3.279124e+02	-1.890241e-02
3.298064e+02	-1.912092e-02
3.317114e+02	-1.934194e-02
3.336273e+02	-1.956552e-02
3.355544e+02	-1.979167e-02
3.374925e+02	-2.002043e-02
3.394418e+02	-2.025183e-02
3.414024e+02	-2.048590e-02
3.433744e+02	-2.072267e-02
3.453577e+02	-2.096216e-02
3.473525e+02	-2.120442e-02
3.493588e+02	-2.144947e-02
3.513766e+02	-2.169734e-02
3.534062e+02	-2.194807e-02
3.554474e+02	-2.220170e-02
3.575005e+02	-2.245824e-02
3.595654e+02	-2.271774e-02
3.616422e+02	-2.298024e-02
3.637311e+02	-2.324575e-02
3.658320e+02	-2.351433e-02
3.679450e+02	-2.378600e-02
3.700702e+02	-2.406080e-02
3.722077e+02	-2.433877e-02
3.743576e+02	-2.461994e-02
3.765199e+02	-2.490434e-02
3.786946e+02	-2.519203e-02
3.808820e+02	-2.548303e-02
3.830819e+02	-2.577737e-02
3.852946e+02	-2.607511e-02
3.875200e+02	-2.637628e-02
3.897583e+02	-2.668091e-02
3.920096e+02	-2.698905e-02
3.942738e+02	-2.730074e-02
3.965511e+02	-2.761602e-02
3.988416e+02	-2.793493e-02
4.011452e+02	-2.825750e-02
4.034622e+02	-2.858379e-02
4.057926e+02	-2.891384e-02
4.081365e+02	-2.924768e-02
4.104938e+02	-2.958537e-02
4.128648e+02	-2.992694e-02
4.152495e+02	-3.027243e-02
4.176480e+02	-3.062191e-02
4.200603e+02	-3.097540e-02
4.224866e+02	-3.133296e-02
4.249268e+02	-3.169463e-02
4.273812e+02	-3.206047e-02
4.298497e+02	-3.243050e-02
4.323325e+02	-3.280480e-02
4.348297e+02	-3.318339e-02
4.373412e+02	-3.356634e-02
4.398673e+02	-3.395369e-02
4.424079e+02	-3.434549e-02
4.449633e+02	-3.474180e-02
4.475334e+02	-3.514266e-02
4.501183e+02	-3.554812e-02
4.527182e+02	-3.595825e-02
4.553330e+02	-3.637308e-02
4.579630e+02	-3.679269e-02
4.606082e+02	-3.721711e-02
4.632687e+02	-3.764640e-02
4.659445e+02	-3.808063e-02
4.686358e+02	-3.851984e-02
4.713426e+02	-3.896410e-02
4.740650e+02	-3.941345e-02
4.768032e+02	-3.986797e-02
4.795572e+02	-4.032770e-02
4.823271e+02	-4.079271e-02
4.851130e+02	-4.126305e-02
4.879150e+02	-4.173879e-02
4.907332e+02	-4.221999e-02
4.935676e+02	-4.270671e-02
4.964185e+02	-4.319901e-02
4.992858e+02	-4.369696e-02
5.021696e+02	-4.420062e-02
5.050701e+02	-4.471005e-02
5.079874e+02	-4.522533e-02
5.109215e+02	-4.574651e-02
5.138726e+02	-4.627366e-02
5.168407e+02	-4.680686e-02
5.198259e+02	-4.734617e-02
5.228284e+02	-4.789166e-02
5.258482e+02	-4.844339e-02
5.288855e+02	-4.900145e-02
5.319403e+02	-4.956590e-02
5.350128e+02	-5.013681e-02
5.381030e+02	-5.071426e-02
5.412111e+02	-5.129832e-02
5.443371e+02	-5.188907e-02
5.474812e+02	-5.248658e-02
5.506434e+02	-5.309093e-02
5.538239e+02	-5.370219e-02
5.570228e+02	-5.432045e-02
5.602401e+02	-5.494578e-02
5.634760e+02	-5.557826e-02
5.667306e+02	-5.621798e-02
5.700040e+02	-5.686501e-02
5.732964e+02	-5.751944e-02
5.766077e+02	-5.818135e-02
5.799382e+02	-5.885082e-02
5.832879e+02	-5.952794e-02
5.866569e+02	-6.021280e-02
5.900454e+02	-6.090549e-02
5.934535e+02	-6.160608e-02
5.968813e+02	-6.231468e-02
6.003288e+02	-6.303137e-02
6.037963e+02	-6.375624e-02
6.072838e+02	-6.448938e-02
6.107914e+02	-6.523090e-02
6.143194e+02	-6.598087e-02
6.178676e+02	-6.673940e-02
6.214364e+02	-6.750658e-02
6.250258e+02	-6.828251e-02
6.286359e+02	-6.906728e-02
6.322669e+02	-6.986101e-02
6.359189e+02	-7.066378e-02
6.395919e+02	-7.147570e-02
6.432862e+02	-7.229687e-02
6.470017e+02	-7.312739e-02
6.507388e+02	-7.396738e-02
6.544974e+02	-7.481693e-02
6.582778e+02	-7.567615e-02
6.620800e+02	-7.654515e-02
6.659041e+02	-7.742405e-02
6.697504e+02	-7.831294e-02
6.736188e+02	-7.921194e-02
6.775096e+02	-8.012117e-02
6.814229e+02	-8.104074e-02
6.853587e+02	-8.197076e-02
6.893173e+02	-8.291135e-02
6.932988e+02	-8.386263e-02
6.973033e+02	-8.482472e-02
7.013309e+02	-8.579774e-02
