Frequency(Hz)	Magnitude(dB)
1.000000e+01	-1.760067e-05
1.005776e+01	-1.780458e-05
1.011585e+01	-1.801085e-05
1.017428e+01	-1.821951e-05
1.023305e+01	-1.843059e-05
1.029215e+01	-1.864411e-05
1.035160e+01	-1.886010e-05
1.041139e+01	-1.907860e-05
1.047153e+01	-1.929963e-05
1.053201e+01	-1.952323e-05
1.059284e+01	-1.974941e-05
1.065403e+01	-1.997821e-05
1.071556e+01	-2.020966e-05
1.077746e+01	-2.044380e-05
1.083971e+01	-2.068064e-05
1.090232e+01	-2.092023e-05
1.096529e+01	-2.116260e-05
1.102862e+01	-2.140777e-05
1.109232e+01	-2.165579e-05
1.115639e+01	-2.190667e-05
1.122083e+01	-2.216047e-05
1.128564e+01	-2.241720e-05
1.135083e+01	-2.267691e-05
1.141639e+01	-2.293963e-05
1.148233e+01	-2.320539e-05
1.154865e+01	-2.347423e-05
1.161536e+01	-2.374619e-05
1.168245e+01	-2.402129e-05
1.174992e+01	-2.429958e-05
1.181779e+01	-2.458110e-05
1.188605e+01	-2.486588e-05
1.195470e+01	-2.515396e-05
1.202375e+01	-2.544537e-05
1.209320e+01	-2.574016e-05
1.216305e+01	-2.603837e-05
1.223330e+01	-2.634003e-05
1.230396e+01	-2.664519e-05
1.237503e+01	-2.695388e-05
1.244651e+01	-2.726614e-05
1.251840e+01	-2.758203e-05
1.259070e+01	-2.790157e-05
1.266343e+01	-2.822482e-05
1.273657e+01	-2.855181e-05
1.281014e+01	-2.888259e-05
1.288413e+01	-2.921720e-05
1.295855e+01	-2.955569e-05
1.303339e+01	-2.989810e-05
1.310867e+01	-3.024448e-05
1.318439e+01	-3.059487e-05
1.326054e+01	-3.094932e-05
1.333713e+01	-3.130787e-05
1.341417e+01	-3.167058e-05
1.349165e+01	-3.203749e-05
1.356958e+01	-3.240865e-05
1.364795e+01	-3.278411e-05
1.372678e+01	-3.316393e-05
1.380607e+01	-3.354814e-05
1.388581e+01	-3.393680e-05
1.396602e+01	-3.432997e-05
1.404668e+01	-3.472769e-05
1.412782e+01	-3.513002e-05
1.420942e+01	-3.553701e-05
1.429149e+01	-3.594871e-05
1.437404e+01	-3.636518e-05
1.445706e+01	-3.678648e-05
1.454057e+01	-3.721266e-05
1.462455e+01	-3.764378e-05
1.470902e+01	-3.807989e-05
1.479398e+01	-3.852106e-05
1.487943e+01	-3.896733e-05
1.496537e+01	-3.941878e-05
1.505181e+01	-3.987545e-05
1.513875e+01	-4.033742e-05
1.522619e+01	-4.080474e-05
1.531414e+01	-4.127747e-05
1.540259e+01	-4.175568e-05
1.549156e+01	-4.223943e-05
1.558103e+01	-4.272878e-05
1.567103e+01	-4.322380e-05
1.576155e+01	-4.372456e-05
1.585258e+01	-4.423112e-05
1.594415e+01	-4.474355e-05
1.603624e+01	-4.526191e-05
1.612886e+01	-4.578628e-05
1.622202e+01	-4.631672e-05
1.631572e+01	-4.685331e-05
1.640996e+01	-4.739612e-05
1.650474e+01	-4.794521e-05
1.660008e+01	-4.850067e-05
1.669596e+01	-4.906256e-05
1.679239e+01	-4.963096e-05
1.688938e+01	-5.020594e-05
1.698694e+01	-5.078759e-05
1.708505e+01	-5.137597e-05
1.718373e+01	-5.197118e-05
1.728299e+01	-5.257327e-05
1.738281e+01	-5.318235e-05
1.748322e+01	-5.379847e-05
1.758420e+01	-5.442174e-05
1.768576e+01	-5.505223e-05
1.778792e+01	-5.569002e-05
1.789066e+01	-5.633520e-05
1.799399e+01	-5.698785e-05
1.809793e+01	-5.764807e-05
1.820246e+01	-5.831593e-05
1.830760e+01	-5.899154e-05
1.841334e+01	-5.967496e-05
1.851969e+01	-6.036631e-05
1.862666e+01	-6.106567e-05
1.873425e+01	-6.177312e-05
1.884246e+01	-6.248878e-05
1.895129e+01	-6.321272e-05
1.906075e+01	-6.394506e-05
1.917085e+01	-6.468587e-05
1.928158e+01	-6.543527e-05
1.939295e+01	-6.619335e-05
1.950496e+01	-6.696021e-05
1.961762e+01	-6.773596e-05
1.973093e+01	-6.852069e-05
1.984490e+01	-6.931452e-05
1.995952e+01	-7.011754e-05
2.007480e+01	-7.092986e-05
2.019076e+01	-7.175160e-05
2.030738e+01	-7.258286e-05
2.042467e+01	-7.342374e-05
2.054264e+01	-7.427437e-05
2.066130e+01	-7.513485e-05
2.078064e+01	-7.600530e-05
2.090066e+01	-7.688584e-05
2.102139e+01	-7.777657e-05
2.114280e+01	-7.867763e-05
2.126492e+01	-7.958912e-05
2.138775e+01	-8.051117e-05
2.151128e+01	-8.144391e-05
2.163553e+01	-8.238745e-05
2.176050e+01	-8.334192e-05
2.188619e+01	-8.430745e-05
2.201260e+01	-8.528417e-05
2.213974e+01	-8.627220e-05
2.226762e+01	-8.727168e-05
2.239624e+01	-8.828273e-05
2.252560e+01	-8.930550e-05
2.265571e+01	-9.034012e-05
2.278656e+01	-9.138673e-05
2.291818e+01	-9.244546e-05
2.305055e+01	-9.351645e-05
2.318369e+01	-9.459985e-05
2.331760e+01	-9.569581e-05
2.345228e+01	-9.680446e-05
2.358774e+01	-9.792595e-05
2.372398e+01	-9.906044e-05
2.386101e+01	-1.002081e-04
2.399883e+01	-1.013690e-04
2.413745e+01	-1.025434e-04
2.427686e+01	-1.037313e-04
2.441709e+01	-1.049331e-04
2.455812e+01	-1.061488e-04
2.469997e+01	-1.073785e-04
2.484263e+01	-1.086225e-04
2.498612e+01	-1.098809e-04
2.513044e+01	-1.111539e-04
2.527559e+01	-1.124416e-04
2.542158e+01	-1.137443e-04
2.556842e+01	-1.150620e-04
2.571610e+01	-1.163950e-04
2.586463e+01	-1.177435e-04
2.601403e+01	-1.191075e-04
2.616428e+01	-1.204874e-04
2.631541e+01	-1.218833e-04
2.646740e+01	-1.232953e-04
2.662028e+01	-1.247237e-04
2.677404e+01	-1.261686e-04
2.692868e+01	-1.276303e-04
2.708422e+01	-1.291089e-04
2.724066e+01	-1.306047e-04
2.739800e+01	-1.321177e-04
2.755625e+01	-1.336483e-04
2.771541e+01	-1.351967e-04
2.787550e+01	-1.367629e-04
2.803650e+01	-1.383473e-04
2.819844e+01	-1.399501e-04
2.836131e+01	-1.415714e-04
2.852513e+01	-1.432116e-04
2.868989e+01	-1.448707e-04
2.885560e+01	-1.465490e-04
2.902227e+01	-1.482468e-04
2.918990e+01	-1.499642e-04
2.935850e+01	-1.517016e-04
2.952807e+01	-1.534591e-04
2.969863e+01	-1.552369e-04
2.987016e+01	-1.570353e-04
3.004269e+01	-1.588546e-04
3.021622e+01	-1.606949e-04
3.039075e+01	-1.625566e-04
3.056628e+01	-1.644398e-04
3.074283e+01	-1.663449e-04
3.092040e+01	-1.682720e-04
3.109900e+01	-1.702214e-04
3.127862e+01	-1.721935e-04
3.145929e+01	-1.741883e-04
3.164099e+01	-1.762063e-04
3.182375e+01	-1.782477e-04
3.200756e+01	-1.803127e-04
3.219244e+01	-1.824016e-04
3.237838e+01	-1.845147e-04
3.256540e+01	-1.866523e-04
3.275349e+01	-1.888147e-04
3.294268e+01	-1.910021e-04
3.313295e+01	-1.932149e-04
3.332433e+01	-1.954533e-04
3.351681e+01	-1.977176e-04
3.371040e+01	-2.000082e-04
3.390511e+01	-2.023253e-04
3.410094e+01	-2.046692e-04
3.429791e+01	-2.070403e-04
3.449601e+01	-2.094389e-04
3.469526e+01	-2.118652e-04
3.489566e+01	-2.143197e-04
3.509721e+01	-2.168026e-04
3.529993e+01	-2.193142e-04
3.550382e+01	-2.218550e-04
3.570889e+01	-2.244252e-04
3.591515e+01	-2.270251e-04
3.612259e+01	-2.296552e-04
3.633123e+01	-2.323157e-04
3.654108e+01	-2.350071e-04
3.675214e+01	-2.377297e-04
3.696442e+01	-2.404837e-04
3.717792e+01	-2.432697e-04
3.739266e+01	-2.460880e-04
3.760864e+01	-2.489389e-04
3.782587e+01	-2.518229e-04
3.804435e+01	-2.547402e-04
3.826409e+01	-2.576914e-04
3.848510e+01	-2.606767e-04
3.870739e+01	-2.636966e-04
3.893096e+01	-2.667515e-04
3.915583e+01	-2.698418e-04
3.938199e+01	-2.729679e-04
3.960946e+01	-2.761302e-04
3.983824e+01	-2.793292e-04
4.006834e+01	-2.825652e-04
4.029978e+01	-2.858387e-04
4.053255e+01	-2.891501e-04
4.076666e+01	-2.924998e-04
4.100213e+01	-2.958884e-04
4.123896e+01	-2.993163e-04
4.147715e+01	-3.027838e-04
4.171672e+01	-3.062915e-04
4.195767e+01	-3.098398e-04
4.220002e+01	-3.134293e-04
4.244377e+01	-3.170603e-04
4.268892e+01	-3.207334e-04
4.293549e+01	-3.244491e-04
4.318348e+01	-3.282078e-04
4.343291e+01	-3.320100e-04
4.368377e+01	-3.358563e-04
4.393609e+01	-3.397471e-04
4.418986e+01	-3.436830e-04
4.444510e+01	-3.476645e-04
4.470182e+01	-3.516922e-04
4.496001e+01	-3.557664e-04
4.521970e+01	-3.598879e-04
4.548089e+01	-3.640571e-04
4.574358e+01	-3.682747e-04
4.600779e+01	-3.725411e-04
4.627353e+01	-3.768569e-04
4.654081e+01	-3.812227e-04
4.680963e+01	-3.856390e-04
4.708000e+01	-3.901066e-04
4.735193e+01	-3.946259e-04
4.762543e+01	-3.991975e-04
4.790051e+01	-4.038221e-04
4.817719e+01	-4.085003e-04
4.845545e+01	-4.132326e-04
4.873533e+01	-4.180198e-04
4.901682e+01	-4.228625e-04
4.929994e+01	-4.277612e-04
4.958470e+01	-4.327167e-04
4.987110e+01	-4.377296e-04
5.015915e+01	-4.428005e-04
5.044887e+01	-4.479302e-04
5.074026e+01	-4.531193e-04
5.103333e+01	-4.583686e-04
5.132810e+01	-4.636786e-04
5.162457e+01	-4.690502e-04
5.192275e+01	-4.744840e-04
5.222265e+01	-4.799807e-04
5.252429e+01	-4.855411e-04
5.282767e+01	-4.911659e-04
5.313280e+01	-4.968559e-04
5.343969e+01	-5.026117e-04
5.374836e+01	-5.084343e-04
5.405880e+01	-5.143243e-04
5.437105e+01	-5.202825e-04
5.468509e+01	-5.263098e-04
5.500095e+01	-5.324069e-04
5.531863e+01	-5.385746e-04
5.563815e+01	-5.448137e-04
5.595951e+01	-5.511251e-04
5.628273e+01	-5.575096e-04
5.660782e+01	-5.639681e-04
5.693479e+01	-5.705014e-04
5.726364e+01	-5.771104e-04
5.759439e+01	-5.837959e-04
5.792705e+01	-5.905589e-04
5.826164e+01	-5.974002e-04
5.859815e+01	-6.043208e-04
5.893662e+01	-6.113215e-04
5.927703e+01	-6.184033e-04
5.961941e+01	-6.255672e-04
5.996377e+01	-6.328140e-04
6.031012e+01	-6.401448e-04
6.065847e+01	-6.475605e-04
6.100883e+01	-6.550621e-04
6.136121e+01	-6.626506e-04
6.171563e+01	-6.703270e-04
6.207210e+01	-6.780923e-04
6.243063e+01	-6.859476e-04
6.279122e+01	-6.938939e-04
6.315390e+01	-7.019322e-04
6.351868e+01	-7.100636e-04
6.388556e+01	-7.182892e-04
6.425456e+01	-7.266101e-04
6.462569e+01	-7.350273e-04
6.499897e+01	-7.435421e-04
6.537440e+01	-7.521555e-04
6.575200e+01	-7.608686e-04
6.613178e+01	-7.696827e-04
6.651375e+01	-7.785989e-04
6.689793e+01	-7.876184e-04
6.728433e+01	-7.967423e-04
6.767297e+01	-8.059719e-04
6.806384e+01	-8.153085e-04
6.845698e+01	-8.247532e-04
6.885238e+01	-8.343072e-04
6.925007e+01	-8.439720e-04
6.965005e+01	-8.537486e-04
7.005235e+01	-8.636386e-04
7.045697e+01	-8.736431e-04
7.086393e+01	-8.837634e-04
7.127323e+01	-8.940010e-04
7.168490e+01	-9.043572e-04
7.209895e+01	-9.148333e-04
7.251539e+01	-9.254308e-04
7.293424e+01	-9.361510e-04
7.335551e+01	-9.469954e-04
7.377920e+01	-9.579654e-04
7.420535e+01	-9.690624e-04
7.463396e+01	-9.802880e-04
7.506504e+01	-9.916436e-04
7.549861e+01	-1.003131e-03
7.593469e+01	-1.014751e-03
7.637328e+01	-1.026506e-03
7.681441e+01	-1.038397e-03
7.725809e+01	-1.050425e-03
7.770433e+01	-1.062593e-03
7.815315e+01	-1.074902e-03
7.860456e+01	-1.087354e-03
7.905857e+01	-1.099949e-03
7.951521e+01	-1.112691e-03
7.997449e+01	-1.125580e-03
8.043642e+01	-1.138618e-03
8.090102e+01	-1.151808e-03
8.136830e+01	-1.165150e-03
8.183828e+01	-1.178647e-03
8.231097e+01	-1.192300e-03
8.278640e+01	-1.206111e-03
8.326457e+01	-1.220082e-03
8.374550e+01	-1.234215e-03
8.422921e+01	-1.248512e-03
8.471572e+01	-1.262974e-03
8.520503e+01	-1.277604e-03
8.569717e+01	-1.292403e-03
8.619215e+01	-1.307374e-03
8.669000e+01	-1.322518e-03
8.719071e+01	-1.337837e-03
8.769432e+01	-1.353334e-03
8.820084e+01	-1.369010e-03
8.871029e+01	-1.384868e-03
8.922267e+01	-1.400909e-03
8.973802e+01	-1.417137e-03
9.025634e+01	-1.433552e-03
9.077766e+01	-1.450157e-03
9.130199e+01	-1.466955e-03
9.182935e+01	-1.483947e-03
9.235975e+01	-1.501136e-03
9.289321e+01	-1.518524e-03
9.342976e+01	-1.536113e-03
9.396941e+01	-1.553906e-03
9.451217e+01	-1.571906e-03
9.505807e+01	-1.590113e-03
9.560712e+01	-1.608532e-03
9.615934e+01	-1.627164e-03
9.671476e+01	-1.646011e-03
9.727338e+01	-1.665077e-03
9.783522e+01	-1.684364e-03
9.840032e+01	-1.703874e-03
9.896867e+01	-1.723609e-03
9.954031e+01	-1.743574e-03
1.001153e+02	-1.763770e-03
1.006935e+02	-1.784199e-03
1.012751e+02	-1.804865e-03
1.018601e+02	-1.825771e-03
1.024484e+02	-1.846918e-03
1.030402e+02	-1.868311e-03
1.036353e+02	-1.889951e-03
1.042339e+02	-1.911842e-03
1.048360e+02	-1.933986e-03
1.054415e+02	-1.956387e-03
1.060505e+02	-1.979047e-03
1.066631e+02	-2.001969e-03
1.072791e+02	-2.025157e-03
1.078988e+02	-2.048614e-03
1.085220e+02	-2.072342e-03
1.091488e+02	-2.096344e-03
1.097793e+02	-2.120625e-03
1.104133e+02	-2.145187e-03
1.110511e+02	-2.170033e-03
1.116925e+02	-2.195168e-03
1.123376e+02	-2.220593e-03
1.129865e+02	-2.246312e-03
1.136391e+02	-2.272329e-03
1.142955e+02	-2.298648e-03
1.149556e+02	-2.325271e-03
1.156196e+02	-2.352203e-03
1.162874e+02	-2.379446e-03
1.169591e+02	-2.407005e-03
1.176347e+02	-2.434883e-03
1.183141e+02	-2.463084e-03
1.189975e+02	-2.491611e-03
1.196848e+02	-2.520469e-03
1.203761e+02	-2.549661e-03
1.210714e+02	-2.579190e-03
1.217707e+02	-2.609062e-03
1.224740e+02	-2.639279e-03
1.231814e+02	-2.669847e-03
1.238929e+02	-2.700768e-03
1.246085e+02	-2.732047e-03
1.253283e+02	-2.763689e-03
1.260522e+02	-2.795696e-03
1.267802e+02	-2.828075e-03
1.275125e+02	-2.860828e-03
1.282490e+02	-2.893960e-03
1.289898e+02	-2.927476e-03
1.297348e+02	-2.961380e-03
1.304842e+02	-2.995677e-03
1.312378e+02	-3.030370e-03
1.319959e+02	-3.065466e-03
1.327583e+02	-3.100967e-03
1.335251e+02	-3.136880e-03
1.342963e+02	-3.173208e-03
1.350720e+02	-3.209957e-03
1.358522e+02	-3.247131e-03
1.366368e+02	-3.284736e-03
1.374260e+02	-3.322776e-03
1.382198e+02	-3.361256e-03
1.390182e+02	-3.400182e-03
1.398211e+02	-3.439558e-03
1.406287e+02	-3.479390e-03
1.414410e+02	-3.519683e-03
1.422579e+02	-3.560443e-03
1.430796e+02	-3.601675e-03
1.439060e+02	-3.643384e-03
1.447372e+02	-3.685575e-03
1.455732e+02	-3.728255e-03
1.464141e+02	-3.771429e-03
1.472597e+02	-3.815103e-03
1.481103e+02	-3.859282e-03
1.489658e+02	-3.903973e-03
1.498262e+02	-3.949181e-03
1.506916e+02	-3.994912e-03
1.515620e+02	-4.041173e-03
1.524374e+02	-4.087968e-03
1.533179e+02	-4.135306e-03
1.542034e+02	-4.183192e-03
1.550941e+02	-4.231631e-03
1.559899e+02	-4.280632e-03
1.568909e+02	-4.330199e-03
1.577971e+02	-4.380340e-03
1.587085e+02	-4.431062e-03
1.596252e+02	-4.482370e-03
1.605472e+02	-4.534272e-03
1.614745e+02	-4.586775e-03
1.624072e+02	-4.639886e-03
1.633453e+02	-4.693611e-03
1.642887e+02	-4.747958e-03
1.652377e+02	-4.802934e-03
1.661921e+02	-4.858546e-03
1.671520e+02	-4.914801e-03
1.681175e+02	-4.971708e-03
1.690885e+02	-5.029273e-03
1.700651e+02	-5.087504e-03
1.710474e+02	-5.146409e-03
1.720354e+02	-5.205996e-03
1.730291e+02	-5.266272e-03
1.740285e+02	-5.327246e-03
1.750337e+02	-5.388925e-03
1.760446e+02	-5.451318e-03
1.770615e+02	-5.514432e-03
1.780842e+02	-5.578277e-03
1.791128e+02	-5.642861e-03
1.801473e+02	-5.708192e-03
1.811878e+02	-5.774279e-03
1.822344e+02	-5.841130e-03
1.832870e+02	-5.908755e-03
1.843456e+02	-5.977162e-03
1.854104e+02	-6.046361e-03
1.864813e+02	-6.116360e-03
1.875584e+02	-6.187169e-03
1.886418e+02	-6.258797e-03
1.897313e+02	-6.331254e-03
1.908272e+02	-6.404549e-03
1.919294e+02	-6.478692e-03
1.930380e+02	-6.553693e-03
1.941530e+02	-6.629561e-03
1.952744e+02	-6.706306e-03
1.964023e+02	-6.783940e-03
1.975367e+02	-6.862471e-03
1.986777e+02	-6.941911e-03
1.998252e+02	-7.022270e-03
2.009794e+02	-7.103558e-03
2.021403e+02	-7.185786e-03
2.033078e+02	-7.268965e-03
2.044821e+02	-7.353107e-03
2.056632e+02	-7.438221e-03
2.068511e+02	-7.524320e-03
2.080459e+02	-7.611415e-03
2.092475e+02	-7.699516e-03
2.104561e+02	-7.788637e-03
2.116717e+02	-7.878788e-03
2.128943e+02	-7.969982e-03
2.141240e+02	-8.062230e-03
2.153608e+02	-8.155545e-03
2.166047e+02	-8.249940e-03
2.178558e+02	-8.345425e-03
2.191141e+02	-8.442015e-03
2.203797e+02	-8.539721e-03
2.216526e+02	-8.638557e-03
2.229329e+02	-8.738536e-03
2.242205e+02	-8.839671e-03
2.255156e+02	-8.941975e-03
2.268182e+02	-9.045462e-03
2.281283e+02	-9.150145e-03
2.294459e+02	-9.256039e-03
2.307712e+02	-9.363156e-03
2.321041e+02	-9.471512e-03
2.334447e+02	-9.581121e-03
2.347931e+02	-9.691996e-03
2.361493e+02	-9.804153e-03
2.375133e+02	-9.917607e-03
2.388851e+02	-1.003237e-02
2.402649e+02	-1.014846e-02
2.416527e+02	-1.026590e-02
2.430484e+02	-1.038469e-02
2.444523e+02	-1.050485e-02
2.458642e+02	-1.062640e-02
2.472843e+02	-1.074936e-02
2.487126e+02	-1.087374e-02
2.501492e+02	-1.099955e-02
2.515940e+02	-1.112682e-02
2.530472e+02	-1.125556e-02
2.545088e+02	-1.138579e-02
2.559789e+02	-1.151752e-02
2.574574e+02	-1.165077e-02
2.589444e+02	-1.178557e-02
2.604401e+02	-1.192192e-02
2.619444e+02	-1.205984e-02
2.634574e+02	-1.219936e-02
2.649791e+02	-1.234049e-02
2.665096e+02	-1.248325e-02
2.680489e+02	-1.262767e-02
2.695972e+02	-1.277374e-02
2.711544e+02	-1.292151e-02
2.727205e+02	-1.307098e-02
2.742958e+02	-1.322218e-02
2.758801e+02	-1.337513e-02
2.774736e+02	-1.352984e-02
2.790762e+02	-1.368634e-02
2.806882e+02	-1.384465e-02
2.823094e+02	-1.400478e-02
2.839400e+02	-1.416676e-02
2.855800e+02	-1.433062e-02
2.872295e+02	-1.449636e-02
2.888886e+02	-1.466402e-02
2.905572e+02	-1.483362e-02
2.922354e+02	-1.500517e-02
2.939234e+02	-1.517871e-02
2.956211e+02	-1.535424e-02
2.973286e+02	-1.553181e-02
2.990459e+02	-1.571142e-02
3.007732e+02	-1.589311e-02
3.025104e+02	-1.607689e-02
3.042577e+02	-1.626280e-02
3.060151e+02	-1.645085e-02
3.077826e+02	-1.664107e-02
3.095604e+02	-1.683348e-02
3.113484e+02	-1.702812e-02
3.131467e+02	-1.722500e-02
3.149554e+02	-1.742416e-02
3.167746e+02	-1.762561e-02
3.186043e+02	-1.782939e-02
3.204445e+02	-1.803551e-02
3.222954e+02	-1.824402e-02
3.241570e+02	-1.845493e-02
3.260293e+02	-1.866827e-02
3.279124e+02	-1.888408e-02
3.298064e+02	-1.910237e-02
3.317114e+02	-1.932318e-02
3.336273e+02	-1.954654e-02
3.355544e+02	-1.977248e-02
3.374925e+02	-2.000102e-02
3.394418e+02	-2.023219e-02
3.414024e+02	-2.046603e-02
3.433744e+02	-2.070257e-02
3.453577e+02	-2.094184e-02
3.473525e+02	-2.118386e-02
3.493588e+02	-2.142867e-02
3.513766e+02	-2.167631e-02
3.534062e+02	-2.192680e-02
3.554474e+02	-2.218017e-02
3.575005e+02	-2.243647e-02
3.595654e+02	-2.269572e-02
3.616422e+02	-2.295796e-02
3.637311e+02	-2.322322e-02
3.658320e+02	-2.349154e-02
3.679450e+02	-2.376294e-02
3.700702e+02	-2.403748e-02
3.722077e+02	-2.431518e-02
3.743576e+02	-2.459608e-02
3.765199e+02	-2.488021e-02
3.786946e+02	-2.516761e-02
3.808820e+02	-2.545833e-02
3.830819e+02	-2.575240e-02
3.852946e+02	-2.604985e-02
3.875200e+02	-2.635072e-02
3.897583e+02	-2.665506e-02
3.920096e+02	-2.696291e-02
3.942738e+02	-2.727429e-02
3.965511e+02	-2.758927e-02
3.988416e+02	-2.790787e-02
4.011452e+02	-2.823013e-02
4.034622e+02	-2.855611e-02
4.057926e+02	-2.888583e-02
4.081365e+02	-2.921935e-02
4.104938e+02	-2.955671e-02
4.128648e+02	-2.989795e-02
4.152495e+02	-3.024312e-02
4.176480e+02	-3.059225e-02
4.200603e+02	-3.094541e-02
4.224866e+02	-3.130262e-02
4.249268e+02	-3.166395e-02
4.273812e+02	-3.202942e-02
4.298497e+02	-3.239911e-02
4.323325e+02	-3.277304e-02
4.348297e+02	-3.315127e-02
4.373412e+02	-3.353385e-02
4.398673e+02	-3.392082e-02
4.424079e+02	-3.431225e-02
4.449633e+02	-3.470817e-02
4.475334e+02	-3.510865e-02
4.501183e+02	-3.551372e-02
4.527182e+02	-3.592345e-02
4.553330e+02	-3.633789e-02
4.579630e+02	-3.675709e-02
4.606082e+02	-3.718110e-02
4.632687e+02	-3.760998e-02
4.659445e+02	-3.804379e-02
4.686358e+02	-3.848258e-02
4.713426e+02	-3.892641e-02
4.740650e+02	-3.937533e-02
4.768032e+02	-3.982941e-02
4.795572e+02	-4.028870e-02
4.823271e+02	-4.075326e-02
4.851130e+02	-4.122315e-02
4.879150e+02	-4.169843e-02
4.907332e+02	-4.217917e-02
4.935676e+02	-4.266542e-02
4.964185e+02	-4.315725e-02
4.992858e+02	-4.365472e-02
5.021696e+02	-4.415789e-02
5.050701e+02	-4.466684e-02
5.079874e+02	-4.518162e-02
5.109215e+02	-4.570230e-02
5.138726e+02	-4.622895e-02
5.168407e+02	-4.676163e-02
5.198259e+02	-4.730042e-02
5.228284e+02	-4.784539e-02
5.258482e+02	-4.839659e-02
5.288855e+02	-4.895411e-02
5.319403e+02	-4.951802e-02
5.350128e+02	-5.008839e-02
5.381030e+02	-5.066528e-02
5.412111e+02	-5.124879e-02
5.443371e+02	-5.183897e-02
5.474812e+02	-5.243590e-02
5.506434e+02	-5.303967e-02
5.538239e+02	-5.365035e-02
5.570228e+02	-5.426801e-02
5.602401e+02	-5.489275e-02
5.634760e+02	-5.552462e-02
5.667306e+02	-5.616372e-02
5.700040e+02	-5.681013e-02
5.732964e+02	-5.746394e-02
5.766077e+02	-5.812521e-02
5.799382e+02	-5.879404e-02
5.832879e+02	-5.947052e-02
5.866569e+02	-6.015472e-02
5.900454e+02	-6.084675e-02
5.934535e+02	-6.154667e-02
5.968813e+02	-6.225459e-02
6.003288e+02	-6.297060e-02
6.037963e+02	-6.369477e-02
6.072838e+02	-6.442722e-02
6.107914e+02	-6.516802e-02
6.143194e+02	-6.591727e-02
6.178676e+02	-6.667508e-02
6.214364e+02	-6.744153e-02
6.250258e+02	-6.821672e-02
6.286359e+02	-6.900074e-02
6.322669e+02	-6.979371e-02
6.359189e+02	-7.059572e-02
6.395919e+02	-7.140686e-02
6.432862e+02	-7.222725e-02
6.470017e+02	-7.305698e-02
6.507388e+02	-7.389616e-02
6.544974e+02	-7.474490e-02
6.582778e+02	-7.560331e-02
6.620800e+02	-7.647148e-02
6.659041e+02	-7.734954e-02
6.697504e+02	-7.823758e-02
6.736188e+02	-7.913573e-02
6.775096e+02	-8.004409e-02
6.814229e+02	-8.096279e-02
6.853587e+02	-8.189192e-02
6.893173e+02	-8.283162e-02
6.932988e+02	-8.378200e-02
6.973033e+02	-8.474317e-02
7.013309e+02	-8.571527e-02
