Frequency(Hz)	Magnitude(dB)
1.000000e+01	-1.605334e-05
1.005776e+01	-1.623932e-05
1.011585e+01	-1.642745e-05
1.017428e+01	-1.661777e-05
1.023305e+01	-1.681029e-05
1.029215e+01	-1.700504e-05
1.035160e+01	-1.720205e-05
1.041139e+01	-1.740134e-05
1.047153e+01	-1.760294e-05
1.053201e+01	-1.780687e-05
1.059284e+01	-1.801317e-05
1.065403e+01	-1.822186e-05
1.071556e+01	-1.843296e-05
1.077746e+01	-1.864651e-05
1.083971e+01	-1.886254e-05
1.090232e+01	-1.908107e-05
1.096529e+01	-1.930213e-05
1.102862e+01	-1.952575e-05
1.109232e+01	-1.975196e-05
1.115639e+01	-1.998079e-05
1.122083e+01	-2.021227e-05
1.128564e+01	-2.044643e-05
1.135083e+01	-2.068331e-05
1.141639e+01	-2.092293e-05
1.148233e+01	-2.116533e-05
1.154865e+01	-2.141054e-05
1.161536e+01	-2.165858e-05
1.168245e+01	-2.190950e-05
1.174992e+01	-2.216333e-05
1.181779e+01	-2.242010e-05
1.188605e+01	-2.267984e-05
1.195470e+01	-2.294259e-05
1.202375e+01	-2.320839e-05
1.209320e+01	-2.347726e-05
1.216305e+01	-2.374925e-05
1.223330e+01	-2.402439e-05
1.230396e+01	-2.430272e-05
1.237503e+01	-2.458427e-05
1.244651e+01	-2.486909e-05
1.251840e+01	-2.515720e-05
1.259070e+01	-2.544866e-05
1.266343e+01	-2.574348e-05
1.273657e+01	-2.604173e-05
1.281014e+01	-2.634343e-05
1.288413e+01	-2.664862e-05
1.295855e+01	-2.695735e-05
1.303339e+01	-2.726966e-05
1.310867e+01	-2.758559e-05
1.318439e+01	-2.790517e-05
1.326054e+01	-2.822846e-05
1.333713e+01	-2.855550e-05
1.341417e+01	-2.888632e-05
1.349165e+01	-2.922097e-05
1.356958e+01	-2.955950e-05
1.364795e+01	-2.990196e-05
1.372678e+01	-3.024838e-05
1.380607e+01	-3.059881e-05
1.388581e+01	-3.095331e-05
1.396602e+01	-3.131191e-05
1.404668e+01	-3.167467e-05
1.412782e+01	-3.204163e-05
1.420942e+01	-3.241284e-05
1.429149e+01	-3.278835e-05
1.437404e+01	-3.316821e-05
1.445706e+01	-3.355247e-05
1.454057e+01	-3.394118e-05
1.462455e+01	-3.433440e-05
1.470902e+01	-3.473217e-05
1.479398e+01	-3.513455e-05
1.487943e+01	-3.554159e-05
1.496537e+01	-3.595335e-05
1.505181e+01	-3.636988e-05
1.513875e+01	-3.679123e-05
1.522619e+01	-3.721747e-05
1.531414e+01	-3.764864e-05
1.540259e+01	-3.808481e-05
1.549156e+01	-3.852603e-05
1.558103e+01	-3.897236e-05
1.567103e+01	-3.942386e-05
1.576155e+01	-3.988060e-05
1.585258e+01	-4.034262e-05
1.594415e+01	-4.081000e-05
1.603624e+01	-4.128280e-05
1.612886e+01	-4.176107e-05
1.622202e+01	-4.224488e-05
1.631572e+01	-4.273429e-05
1.640996e+01	-4.322938e-05
1.650474e+01	-4.373020e-05
1.660008e+01	-4.423683e-05
1.669596e+01	-4.474932e-05
1.679239e+01	-4.526775e-05
1.688938e+01	-4.579219e-05
1.698694e+01	-4.632270e-05
1.708505e+01	-4.685936e-05
1.718373e+01	-4.740223e-05
1.728299e+01	-4.795140e-05
1.738281e+01	-4.850693e-05
1.748322e+01	-4.906889e-05
1.758420e+01	-4.963736e-05
1.768576e+01	-5.021242e-05
1.778792e+01	-5.079414e-05
1.789066e+01	-5.138260e-05
1.799399e+01	-5.197788e-05
1.809793e+01	-5.258006e-05
1.820246e+01	-5.318921e-05
1.830760e+01	-5.380542e-05
1.841334e+01	-5.442876e-05
1.851969e+01	-5.505933e-05
1.862666e+01	-5.569721e-05
1.873425e+01	-5.634247e-05
1.884246e+01	-5.699521e-05
1.895129e+01	-5.765551e-05
1.906075e+01	-5.832346e-05
1.917085e+01	-5.899915e-05
1.928158e+01	-5.968267e-05
1.939295e+01	-6.037410e-05
1.950496e+01	-6.107355e-05
1.961762e+01	-6.178110e-05
1.973093e+01	-6.249684e-05
1.984490e+01	-6.322088e-05
1.995952e+01	-6.395331e-05
2.007480e+01	-6.469422e-05
2.019076e+01	-6.544371e-05
2.030738e+01	-6.620189e-05
2.042467e+01	-6.696885e-05
2.054264e+01	-6.774470e-05
2.066130e+01	-6.852954e-05
2.078064e+01	-6.932346e-05
2.090066e+01	-7.012659e-05
2.102139e+01	-7.093902e-05
2.114280e+01	-7.176086e-05
2.126492e+01	-7.259222e-05
2.138775e+01	-7.343322e-05
2.151128e+01	-7.428395e-05
2.163553e+01	-7.514455e-05
2.176050e+01	-7.601511e-05
2.188619e+01	-7.689576e-05
2.201260e+01	-7.778661e-05
2.213974e+01	-7.868778e-05
2.226762e+01	-7.959939e-05
2.239624e+01	-8.052156e-05
2.252560e+01	-8.145442e-05
2.265571e+01	-8.239808e-05
2.278656e+01	-8.335268e-05
2.291818e+01	-8.431833e-05
2.305055e+01	-8.529518e-05
2.318369e+01	-8.628333e-05
2.331760e+01	-8.728294e-05
2.345228e+01	-8.829413e-05
2.358774e+01	-8.931703e-05
2.372398e+01	-9.035178e-05
2.386101e+01	-9.139852e-05
2.399883e+01	-9.245739e-05
2.413745e+01	-9.352852e-05
2.427686e+01	-9.461206e-05
2.441709e+01	-9.570816e-05
2.455812e+01	-9.681695e-05
2.469997e+01	-9.793859e-05
2.484263e+01	-9.907322e-05
2.498612e+01	-1.002210e-04
2.513044e+01	-1.013821e-04
2.527559e+01	-1.025566e-04
2.542158e+01	-1.037447e-04
2.556842e+01	-1.049466e-04
2.571610e+01	-1.061625e-04
2.586463e+01	-1.073924e-04
2.601403e+01	-1.086365e-04
2.616428e+01	-1.098951e-04
2.631541e+01	-1.111682e-04
2.646740e+01	-1.124561e-04
2.662028e+01	-1.137589e-04
2.677404e+01	-1.150769e-04
2.692868e+01	-1.164100e-04
2.708422e+01	-1.177587e-04
2.724066e+01	-1.191229e-04
2.739800e+01	-1.205030e-04
2.755625e+01	-1.218990e-04
2.771541e+01	-1.233112e-04
2.787550e+01	-1.247398e-04
2.803650e+01	-1.261849e-04
2.819844e+01	-1.276468e-04
2.836131e+01	-1.291256e-04
2.852513e+01	-1.306215e-04
2.868989e+01	-1.321348e-04
2.885560e+01	-1.336656e-04
2.902227e+01	-1.352141e-04
2.918990e+01	-1.367806e-04
2.935850e+01	-1.383652e-04
2.952807e+01	-1.399682e-04
2.969863e+01	-1.415897e-04
2.987016e+01	-1.432300e-04
3.004269e+01	-1.448894e-04
3.021622e+01	-1.465679e-04
3.039075e+01	-1.482659e-04
3.056628e+01	-1.499836e-04
3.074283e+01	-1.517212e-04
3.092040e+01	-1.534789e-04
3.109900e+01	-1.552569e-04
3.127862e+01	-1.570556e-04
3.145929e+01	-1.588751e-04
3.164099e+01	-1.607157e-04
3.182375e+01	-1.625776e-04
3.200756e+01	-1.644610e-04
3.219244e+01	-1.663663e-04
3.237838e+01	-1.682937e-04
3.256540e+01	-1.702434e-04
3.275349e+01	-1.722157e-04
3.294268e+01	-1.742108e-04
3.313295e+01	-1.762290e-04
3.332433e+01	-1.782707e-04
3.351681e+01	-1.803359e-04
3.371040e+01	-1.824251e-04
3.390511e+01	-1.845385e-04
3.410094e+01	-1.866764e-04
3.429791e+01	-1.888391e-04
3.449601e+01	-1.910268e-04
3.469526e+01	-1.932398e-04
3.489566e+01	-1.954785e-04
3.509721e+01	-1.977431e-04
3.529993e+01	-2.000340e-04
3.550382e+01	-2.023514e-04
3.570889e+01	-2.046956e-04
3.591515e+01	-2.070670e-04
3.612259e+01	-2.094659e-04
3.633123e+01	-2.118926e-04
3.654108e+01	-2.143473e-04
3.675214e+01	-2.168305e-04
3.696442e+01	-2.193425e-04
3.717792e+01	-2.218836e-04
3.739266e+01	-2.244541e-04
3.760864e+01	-2.270544e-04
3.782587e+01	-2.296848e-04
3.804435e+01	-2.323457e-04
3.826409e+01	-2.350374e-04
3.848510e+01	-2.377603e-04
3.870739e+01	-2.405148e-04
3.893096e+01	-2.433011e-04
3.915583e+01	-2.461198e-04
3.938199e+01	-2.489710e-04
3.960946e+01	-2.518554e-04
3.983824e+01	-2.547731e-04
4.006834e+01	-2.577246e-04
4.029978e+01	-2.607103e-04
4.053255e+01	-2.637307e-04
4.076666e+01	-2.667860e-04
4.100213e+01	-2.698766e-04
4.123896e+01	-2.730031e-04
4.147715e+01	-2.761659e-04
4.171672e+01	-2.793652e-04
4.195767e+01	-2.826016e-04
4.220002e+01	-2.858755e-04
4.244377e+01	-2.891874e-04
4.268892e+01	-2.925376e-04
4.293549e+01	-2.959266e-04
4.318348e+01	-2.993549e-04
4.343291e+01	-3.028229e-04
4.368377e+01	-3.063310e-04
4.393609e+01	-3.098798e-04
4.418986e+01	-3.134697e-04
4.444510e+01	-3.171012e-04
4.470182e+01	-3.207748e-04
4.496001e+01	-3.244909e-04
4.521970e+01	-3.282501e-04
4.548089e+01	-3.320528e-04
4.574358e+01	-3.358996e-04
4.600779e+01	-3.397910e-04
4.627353e+01	-3.437274e-04
4.654081e+01	-3.477094e-04
4.680963e+01	-3.517375e-04
4.708000e+01	-3.558123e-04
4.735193e+01	-3.599344e-04
4.762543e+01	-3.641041e-04
4.790051e+01	-3.683222e-04
4.817719e+01	-3.725891e-04
4.845545e+01	-3.769055e-04
4.873533e+01	-3.812718e-04
4.901682e+01	-3.856888e-04
4.929994e+01	-3.901569e-04
4.958470e+01	-3.946768e-04
4.987110e+01	-3.992490e-04
5.015915e+01	-4.038742e-04
5.044887e+01	-4.085530e-04
5.074026e+01	-4.132859e-04
5.103333e+01	-4.180737e-04
5.132810e+01	-4.229170e-04
5.162457e+01	-4.278164e-04
5.192275e+01	-4.327725e-04
5.222265e+01	-4.377860e-04
5.252429e+01	-4.428577e-04
5.282767e+01	-4.479880e-04
5.313280e+01	-4.531778e-04
5.343969e+01	-4.584277e-04
5.374836e+01	-4.637385e-04
5.405880e+01	-4.691107e-04
5.437105e+01	-4.745452e-04
5.468509e+01	-4.800426e-04
5.500095e+01	-4.856037e-04
5.531863e+01	-4.912293e-04
5.563815e+01	-4.969200e-04
5.595951e+01	-5.026766e-04
5.628273e+01	-5.084999e-04
5.660782e+01	-5.143907e-04
5.693479e+01	-5.203497e-04
5.726364e+01	-5.263777e-04
5.759439e+01	-5.324755e-04
5.792705e+01	-5.386440e-04
5.826164e+01	-5.448840e-04
5.859815e+01	-5.511962e-04
5.893662e+01	-5.575816e-04
5.927703e+01	-5.640409e-04
5.961941e+01	-5.705750e-04
5.996377e+01	-5.771849e-04
6.031012e+01	-5.838712e-04
6.065847e+01	-5.906351e-04
6.100883e+01	-5.974773e-04
6.136121e+01	-6.043988e-04
6.171563e+01	-6.114004e-04
6.207210e+01	-6.184831e-04
6.243063e+01	-6.256479e-04
6.279122e+01	-6.328957e-04
6.315390e+01	-6.402274e-04
6.351868e+01	-6.476441e-04
6.388556e+01	-6.551466e-04
6.425456e+01	-6.627361e-04
6.462569e+01	-6.704135e-04
6.499897e+01	-6.781798e-04
6.537440e+01	-6.860361e-04
6.575200e+01	-6.939834e-04
6.613178e+01	-7.020227e-04
6.651375e+01	-7.101552e-04
6.689793e+01	-7.183818e-04
6.728433e+01	-7.267038e-04
6.767297e+01	-7.351221e-04
6.806384e+01	-7.436380e-04
6.845698e+01	-7.522525e-04
6.885238e+01	-7.609668e-04
6.925007e+01	-7.697820e-04
6.965005e+01	-7.786994e-04
7.005235e+01	-7.877200e-04
7.045697e+01	-7.968451e-04
7.086393e+01	-8.060759e-04
7.127323e+01	-8.154136e-04
7.168490e+01	-8.248595e-04
7.209895e+01	-8.344148e-04
7.251539e+01	-8.440808e-04
7.293424e+01	-8.538588e-04
7.335551e+01	-8.637500e-04
7.377920e+01	-8.737558e-04
7.420535e+01	-8.838774e-04
7.463396e+01	-8.941163e-04
7.506504e+01	-9.044738e-04
7.549861e+01	-9.149513e-04
7.593469e+01	-9.255501e-04
7.637328e+01	-9.362717e-04
7.681441e+01	-9.471175e-04
7.725809e+01	-9.580889e-04
7.770433e+01	-9.691874e-04
7.815315e+01	-9.804144e-04
7.860456e+01	-9.917715e-04
7.905857e+01	-1.003260e-03
7.951521e+01	-1.014882e-03
7.997449e+01	-1.026638e-03
8.043642e+01	-1.038531e-03
8.090102e+01	-1.050561e-03
8.136830e+01	-1.062730e-03
8.183828e+01	-1.075041e-03
8.231097e+01	-1.087494e-03
8.278640e+01	-1.100091e-03
8.326457e+01	-1.112834e-03
8.374550e+01	-1.125725e-03
8.422921e+01	-1.138765e-03
8.471572e+01	-1.151957e-03
8.520503e+01	-1.165300e-03
8.569717e+01	-1.178799e-03
8.619215e+01	-1.192454e-03
8.669000e+01	-1.206267e-03
8.719071e+01	-1.220240e-03
8.769432e+01	-1.234375e-03
8.820084e+01	-1.248673e-03
8.871029e+01	-1.263137e-03
8.922267e+01	-1.277769e-03
8.973802e+01	-1.292570e-03
9.025634e+01	-1.307542e-03
9.077766e+01	-1.322688e-03
9.130199e+01	-1.338010e-03
9.182935e+01	-1.353508e-03
9.235975e+01	-1.369187e-03
9.289321e+01	-1.385047e-03
9.342976e+01	-1.401090e-03
9.396941e+01	-1.417319e-03
9.451217e+01	-1.433737e-03
9.505807e+01	-1.450344e-03
9.560712e+01	-1.467144e-03
9.615934e+01	-1.484138e-03
9.671476e+01	-1.501330e-03
9.727338e+01	-1.518720e-03
9.783522e+01	-1.536311e-03
9.840032e+01	-1.554107e-03
9.896867e+01	-1.572108e-03
9.954031e+01	-1.590318e-03
1.001153e+02	-1.608739e-03
1.006935e+02	-1.627373e-03
1.012751e+02	-1.646223e-03
1.018601e+02	-1.665292e-03
1.024484e+02	-1.684581e-03
1.030402e+02	-1.704093e-03
1.036353e+02	-1.723832e-03
1.042339e+02	-1.743799e-03
1.048360e+02	-1.763997e-03
1.054415e+02	-1.784429e-03
1.060505e+02	-1.805098e-03
1.066631e+02	-1.826006e-03
1.072791e+02	-1.847156e-03
1.078988e+02	-1.868552e-03
1.085220e+02	-1.890194e-03
1.091488e+02	-1.912088e-03
1.097793e+02	-1.934235e-03
1.104133e+02	-1.956639e-03
1.110511e+02	-1.979302e-03
1.116925e+02	-2.002227e-03
1.123376e+02	-2.025418e-03
1.129865e+02	-2.048878e-03
1.136391e+02	-2.072609e-03
1.142955e+02	-2.096615e-03
1.149556e+02	-2.120899e-03
1.156196e+02	-2.145464e-03
1.162874e+02	-2.170313e-03
1.169591e+02	-2.195450e-03
1.176347e+02	-2.220879e-03
1.183141e+02	-2.246602e-03
1.189975e+02	-2.272622e-03
1.196848e+02	-2.298944e-03
1.203761e+02	-2.325571e-03
1.210714e+02	-2.352506e-03
1.217707e+02	-2.379753e-03
1.224740e+02	-2.407315e-03
1.231814e+02	-2.435197e-03
1.238929e+02	-2.463401e-03
1.246085e+02	-2.491932e-03
1.253283e+02	-2.520794e-03
1.260522e+02	-2.549989e-03
1.267802e+02	-2.579523e-03
1.275125e+02	-2.609398e-03
1.282490e+02	-2.639619e-03
1.289898e+02	-2.670191e-03
1.297348e+02	-2.701116e-03
1.304842e+02	-2.732399e-03
1.312378e+02	-2.764045e-03
1.319959e+02	-2.796057e-03
1.327583e+02	-2.828439e-03
1.335251e+02	-2.861196e-03
1.342963e+02	-2.894333e-03
1.350720e+02	-2.927853e-03
1.358522e+02	-2.961762e-03
1.366368e+02	-2.996063e-03
1.374260e+02	-3.030761e-03
1.382198e+02	-3.065860e-03
1.390182e+02	-3.101367e-03
1.398211e+02	-3.137284e-03
1.406287e+02	-3.173617e-03
1.414410e+02	-3.210370e-03
1.422579e+02	-3.247549e-03
1.430796e+02	-3.285159e-03
1.439060e+02	-3.323204e-03
1.447372e+02	-3.361689e-03
1.455732e+02	-3.400620e-03
1.464141e+02	-3.440001e-03
1.472597e+02	-3.479838e-03
1.481103e+02	-3.520137e-03
1.489658e+02	-3.560902e-03
1.498262e+02	-3.602139e-03
1.506916e+02	-3.643853e-03
1.515620e+02	-3.686050e-03
1.524374e+02	-3.728735e-03
1.533179e+02	-3.771915e-03
1.542034e+02	-3.815594e-03
1.550941e+02	-3.859779e-03
1.559899e+02	-3.904476e-03
1.568909e+02	-3.949689e-03
1.577971e+02	-3.995426e-03
1.587085e+02	-4.041693e-03
1.596252e+02	-4.088495e-03
1.605472e+02	-4.135839e-03
1.614745e+02	-4.183730e-03
1.624072e+02	-4.232176e-03
1.633453e+02	-4.281183e-03
1.642887e+02	-4.330757e-03
1.652377e+02	-4.380904e-03
1.661921e+02	-4.431632e-03
1.671520e+02	-4.482947e-03
1.681175e+02	-4.534856e-03
1.690885e+02	-4.587366e-03
1.700651e+02	-4.640483e-03
1.710474e+02	-4.694215e-03
1.720354e+02	-4.748569e-03
1.730291e+02	-4.803552e-03
1.740285e+02	-4.859171e-03
1.750337e+02	-4.915434e-03
1.760446e+02	-4.972348e-03
1.770615e+02	-5.029920e-03
1.780842e+02	-5.088159e-03
1.791128e+02	-5.147072e-03
1.801473e+02	-5.206666e-03
1.811878e+02	-5.266950e-03
1.822344e+02	-5.327931e-03
1.832870e+02	-5.389618e-03
1.843456e+02	-5.452019e-03
1.854104e+02	-5.515142e-03
1.864813e+02	-5.578995e-03
1.875584e+02	-5.643587e-03
1.886418e+02	-5.708927e-03
1.897313e+02	-5.775022e-03
1.908272e+02	-5.841882e-03
1.919294e+02	-5.909515e-03
1.930380e+02	-5.977931e-03
1.941530e+02	-6.047139e-03
1.952744e+02	-6.117147e-03
1.964023e+02	-6.187965e-03
1.975367e+02	-6.259602e-03
1.986777e+02	-6.332069e-03
1.998252e+02	-6.405373e-03
2.009794e+02	-6.479525e-03
2.021403e+02	-6.554535e-03
2.033078e+02	-6.630413e-03
2.044821e+02	-6.707169e-03
2.056632e+02	-6.784812e-03
2.068511e+02	-6.863354e-03
2.080459e+02	-6.942804e-03
2.092475e+02	-7.023173e-03
2.104561e+02	-7.104471e-03
2.116717e+02	-7.186710e-03
2.128943e+02	-7.269900e-03
2.141240e+02	-7.354052e-03
2.153608e+02	-7.439177e-03
2.166047e+02	-7.525287e-03
2.178558e+02	-7.612393e-03
2.191141e+02	-7.700506e-03
2.203797e+02	-7.789638e-03
2.216526e+02	-7.879801e-03
2.229329e+02	-7.971006e-03
2.242205e+02	-8.063266e-03
2.255156e+02	-8.156593e-03
2.268182e+02	-8.251000e-03
2.281283e+02	-8.346497e-03
2.294459e+02	-8.443099e-03
2.307712e+02	-8.540818e-03
2.321041e+02	-8.639667e-03
2.334447e+02	-8.739659e-03
2.347931e+02	-8.840807e-03
2.361493e+02	-8.943124e-03
2.375133e+02	-9.046624e-03
2.388851e+02	-9.151320e-03
2.402649e+02	-9.257227e-03
2.416527e+02	-9.364359e-03
2.430484e+02	-9.472729e-03
2.444523e+02	-9.582351e-03
2.458642e+02	-9.693241e-03
2.472843e+02	-9.805412e-03
2.487126e+02	-9.918880e-03
2.501492e+02	-1.003366e-02
2.515940e+02	-1.014977e-02
2.530472e+02	-1.026721e-02
2.545088e+02	-1.038602e-02
2.559789e+02	-1.050620e-02
2.574574e+02	-1.062777e-02
2.589444e+02	-1.075074e-02
2.604401e+02	-1.087513e-02
2.619444e+02	-1.100096e-02
2.634574e+02	-1.112825e-02
2.649791e+02	-1.125700e-02
2.665096e+02	-1.138725e-02
2.680489e+02	-1.151900e-02
2.695972e+02	-1.165227e-02
2.711544e+02	-1.178708e-02
2.727205e+02	-1.192345e-02
2.742958e+02	-1.206139e-02
2.758801e+02	-1.220093e-02
2.774736e+02	-1.234208e-02
2.790762e+02	-1.248486e-02
2.806882e+02	-1.262928e-02
2.823094e+02	-1.277538e-02
2.839400e+02	-1.292317e-02
2.855800e+02	-1.307266e-02
2.872295e+02	-1.322388e-02
2.888886e+02	-1.337684e-02
2.905572e+02	-1.353157e-02
2.922354e+02	-1.368809e-02
2.939234e+02	-1.384642e-02
2.956211e+02	-1.400657e-02
2.973286e+02	-1.416858e-02
2.990459e+02	-1.433245e-02
3.007732e+02	-1.449822e-02
3.025104e+02	-1.466590e-02
3.042577e+02	-1.483552e-02
3.060151e+02	-1.500709e-02
3.077826e+02	-1.518065e-02
3.095604e+02	-1.535621e-02
3.113484e+02	-1.553379e-02
3.131467e+02	-1.571343e-02
3.149554e+02	-1.589514e-02
3.167746e+02	-1.607895e-02
3.186043e+02	-1.626488e-02
3.204445e+02	-1.645295e-02
3.222954e+02	-1.664320e-02
3.241570e+02	-1.683564e-02
3.260293e+02	-1.703030e-02
3.279124e+02	-1.722720e-02
3.298064e+02	-1.742638e-02
3.317114e+02	-1.762786e-02
3.336273e+02	-1.783166e-02
3.355544e+02	-1.803782e-02
3.374925e+02	-1.824635e-02
3.394418e+02	-1.845729e-02
3.414024e+02	-1.867066e-02
3.433744e+02	-1.888649e-02
3.453577e+02	-1.910481e-02
3.473525e+02	-1.932565e-02
3.493588e+02	-1.954904e-02
3.513766e+02	-1.977500e-02
3.534062e+02	-2.000357e-02
3.554474e+02	-2.023478e-02
3.575005e+02	-2.046865e-02
3.595654e+02	-2.070521e-02
3.616422e+02	-2.094451e-02
3.637311e+02	-2.118656e-02
3.658320e+02	-2.143141e-02
3.679450e+02	-2.167907e-02
3.700702e+02	-2.192959e-02
3.722077e+02	-2.218300e-02
3.743576e+02	-2.243933e-02
3.765199e+02	-2.269861e-02
3.786946e+02	-2.296089e-02
3.808820e+02	-2.322618e-02
3.830819e+02	-2.349453e-02
3.852946e+02	-2.376597e-02
3.875200e+02	-2.404054e-02
3.897583e+02	-2.431828e-02
3.920096e+02	-2.459921e-02
3.942738e+02	-2.488338e-02
3.965511e+02	-2.517082e-02
3.988416e+02	-2.546157e-02
4.011452e+02	-2.575567e-02
4.034622e+02	-2.605316e-02
4.057926e+02	-2.635407e-02
4.081365e+02	-2.665845e-02
4.104938e+02	-2.696634e-02
4.128648e+02	-2.727776e-02
4.152495e+02	-2.759278e-02
4.176480e+02	-2.791141e-02
4.200603e+02	-2.823372e-02
4.224866e+02	-2.855974e-02
4.249268e+02	-2.888950e-02
4.273812e+02	-2.922307e-02
4.298497e+02	-2.956047e-02
4.323325e+02	-2.990175e-02
4.348297e+02	-3.024696e-02
4.373412e+02	-3.059614e-02
4.398673e+02	-3.094934e-02
4.424079e+02	-3.130660e-02
4.449633e+02	-3.166796e-02
4.475334e+02	-3.203349e-02
4.501183e+02	-3.240322e-02
4.527182e+02	-3.277719e-02
4.553330e+02	-3.315547e-02
4.579630e+02	-3.353810e-02
4.606082e+02	-3.392512e-02
4.632687e+02	-3.431660e-02
4.659445e+02	-3.471257e-02
4.686358e+02	-3.511309e-02
4.713426e+02	-3.551822e-02
4.740650e+02	-3.592800e-02
4.768032e+02	-3.634249e-02
4.795572e+02	-3.676174e-02
4.823271e+02	-3.718580e-02
4.851130e+02	-3.761474e-02
4.879150e+02	-3.804860e-02
4.907332e+02	-3.848745e-02
4.935676e+02	-3.893133e-02
4.964185e+02	-3.938031e-02
4.992858e+02	-3.983444e-02
5.021696e+02	-4.029379e-02
5.050701e+02	-4.075840e-02
5.079874e+02	-4.122835e-02
5.109215e+02	-4.170369e-02
5.138726e+02	-4.218449e-02
5.168407e+02	-4.267080e-02
5.198259e+02	-4.316269e-02
5.228284e+02	-4.366022e-02
5.258482e+02	-4.416346e-02
5.288855e+02	-4.467246e-02
5.319403e+02	-4.518731e-02
5.350128e+02	-4.570805e-02
5.381030e+02	-4.623477e-02
5.412111e+02	-4.676752e-02
5.443371e+02	-4.730637e-02
5.474812e+02	-4.785140e-02
5.506434e+02	-4.840268e-02
5.538239e+02	-4.896027e-02
5.570228e+02	-4.952425e-02
5.602401e+02	-5.009468e-02
5.634760e+02	-5.067165e-02
5.667306e+02	-5.125522e-02
5.700040e+02	-5.184548e-02
5.732964e+02	-5.244248e-02
5.766077e+02	-5.304633e-02
5.799382e+02	-5.365708e-02
5.832879e+02	-5.427482e-02
5.866569e+02	-5.489963e-02
5.900454e+02	-5.553158e-02
5.934535e+02	-5.617076e-02
5.968813e+02	-5.681725e-02
6.003288e+02	-5.747113e-02
6.037963e+02	-5.813248e-02
6.072838e+02	-5.880140e-02
6.107914e+02	-5.947795e-02
6.143194e+02	-6.016224e-02
6.178676e+02	-6.085435e-02
6.214364e+02	-6.155436e-02
6.250258e+02	-6.226236e-02
6.286359e+02	-6.297845e-02
6.322669e+02	-6.370272e-02
6.359189e+02	-6.443525e-02
6.395919e+02	-6.517614e-02
6.432862e+02	-6.592549e-02
6.470017e+02	-6.668338e-02
6.507388e+02	-6.744992e-02
6.544974e+02	-6.822520e-02
6.582778e+02	-6.900933e-02
6.620800e+02	-6.980239e-02
6.659041e+02	-7.060449e-02
6.697504e+02	-7.141573e-02
6.736188e+02	-7.223622e-02
6.775096e+02	-7.306605e-02
6.814229e+02	-7.390533e-02
6.853587e+02	-7.475417e-02
6.893173e+02	-7.561268e-02
6.932988e+02	-7.648096e-02
6.973033e+02	-7.735911e-02
7.013309e+02	-7.824727e-02
