Frequency(Hz)	Magnitude(dB)
1.000000e+01	-1.885796e+00
1.005776e+01	-1.903415e+00
1.011585e+01	-1.921158e+00
1.017428e+01	-1.939205e+00
1.023305e+01	-1.957275e+00
1.029215e+01	-1.975402e+00
1.035160e+01	-1.993965e+00
1.041139e+01	-2.012436e+00
1.047153e+01	-2.030884e+00
1.053201e+01	-2.049817e+00
1.059284e+01	-2.068601e+00
1.065403e+01	-2.087753e+00
1.071556e+01	-2.106650e+00
1.077746e+01	-2.125888e+00
1.083971e+01	-2.145620e+00
1.090232e+01	-2.165162e+00
1.096529e+01	-2.184675e+00
1.102862e+01	-2.204542e+00
1.109232e+01	-2.224815e+00
1.115639e+01	-2.244801e+00
1.122083e+01	-2.264943e+00
1.128564e+01	-2.285524e+00
1.135083e+01	-2.305991e+00
1.141639e+01	-2.326709e+00
1.148233e+01	-2.347490e+00
1.154865e+01	-2.368230e+00
1.161536e+01	-2.389478e+00
1.168245e+01	-2.410805e+00
1.174992e+01	-2.432145e+00
1.181779e+01	-2.453708e+00
1.188605e+01	-2.475091e+00
1.195470e+01	-2.497096e+00
1.202375e+01	-2.519028e+00
1.209320e+01	-2.541240e+00
1.216305e+01	-2.563570e+00
1.223330e+01	-2.585868e+00
1.230396e+01	-2.608292e+00
1.237503e+01	-2.630865e+00
1.244651e+01	-2.653758e+00
1.251840e+01	-2.676587e+00
1.259070e+01	-2.699764e+00
1.266343e+01	-2.723130e+00
1.273657e+01	-2.746368e+00
1.281014e+01	-2.769978e+00
1.288413e+01	-2.793575e+00
1.295855e+01	-2.817183e+00
1.303339e+01	-2.841324e+00
1.310867e+01	-2.865401e+00
1.318439e+01	-2.889475e+00
1.326054e+01	-2.913838e+00
1.333713e+01	-2.938641e+00
1.341417e+01	-2.963111e+00
1.349165e+01	-2.987854e+00
1.356958e+01	-3.013082e+00
1.364795e+01	-3.037856e+00
1.372678e+01	-3.063368e+00
1.380607e+01	-3.088744e+00
1.388581e+01	-3.114065e+00
1.396602e+01	-3.140188e+00
1.404668e+01	-3.165535e+00
1.412782e+01	-3.191465e+00
1.420942e+01	-3.217853e+00
1.429149e+01	-3.244117e+00
1.437404e+01	-3.270446e+00
1.445706e+01	-3.297108e+00
1.454057e+01	-3.323552e+00
1.462455e+01	-3.350508e+00
1.470902e+01	-3.377501e+00
1.479398e+01	-3.404584e+00
1.487943e+01	-3.431734e+00
1.496537e+01	-3.459123e+00
1.505181e+01	-3.486770e+00
1.513875e+01	-3.514243e+00
1.522619e+01	-3.542088e+00
1.531414e+01	-3.570495e+00
1.540259e+01	-3.598172e+00
1.549156e+01	-3.626917e+00
1.558103e+01	-3.655002e+00
1.567103e+01	-3.683660e+00
1.576155e+01	-3.712325e+00
1.585258e+01	-3.741172e+00
1.594415e+01	-3.769696e+00
1.603624e+01	-3.799137e+00
1.612886e+01	-3.828221e+00
1.622202e+01	-3.857526e+00
1.631572e+01	-3.887205e+00
1.640996e+01	-3.916980e+00
1.650474e+01	-3.946898e+00
1.660008e+01	-3.976569e+00
1.669596e+01	-4.006475e+00
1.679239e+01	-4.036840e+00
1.688938e+01	-4.067337e+00
1.698694e+01	-4.097557e+00
1.708505e+01	-4.128591e+00
1.718373e+01	-4.158980e+00
1.728299e+01	-4.190078e+00
1.738281e+01	-4.220934e+00
1.748322e+01	-4.252148e+00
1.758420e+01	-4.283481e+00
1.768576e+01	-4.314837e+00
1.778792e+01	-4.346427e+00
1.789066e+01	-4.378257e+00
1.799399e+01	-4.410116e+00
1.809793e+01	-4.441841e+00
1.820246e+01	-4.474189e+00
1.830760e+01	-4.506552e+00
1.841334e+01	-4.538673e+00
1.851969e+01	-4.571247e+00
1.862666e+01	-4.603617e+00
1.873425e+01	-4.636419e+00
1.884246e+01	-4.669641e+00
1.895129e+01	-4.702521e+00
1.906075e+01	-4.735611e+00
1.917085e+01	-4.769072e+00
1.928158e+01	-4.802436e+00
1.939295e+01	-4.835692e+00
1.950496e+01	-4.869431e+00
1.961762e+01	-4.903123e+00
1.973093e+01	-4.937319e+00
1.984490e+01	-4.971471e+00
1.995952e+01	-5.005211e+00
2.007480e+01	-5.039418e+00
2.019076e+01	-5.073807e+00
2.030738e+01	-5.108766e+00
2.042467e+01	-5.143196e+00
2.054264e+01	-5.178042e+00
2.066130e+01	-5.213111e+00
2.078064e+01	-5.248130e+00
2.090066e+01	-5.283149e+00
2.102139e+01	-5.318553e+00
2.114280e+01	-5.353707e+00
2.126492e+01	-5.389295e+00
2.138775e+01	-5.424653e+00
2.151128e+01	-5.460699e+00
2.163553e+01	-5.496494e+00
2.176050e+01	-5.532418e+00
2.188619e+01	-5.568904e+00
2.201260e+01	-5.605068e+00
2.213974e+01	-5.641132e+00
2.226762e+01	-5.677557e+00
2.239624e+01	-5.714120e+00
2.252560e+01	-5.750730e+00
2.265571e+01	-5.787486e+00
2.278656e+01	-5.824373e+00
2.291818e+01	-5.861101e+00
2.305055e+01	-5.898504e+00
2.318369e+01	-5.935595e+00
2.331760e+01	-5.973038e+00
2.345228e+01	-6.010103e+00
2.358774e+01	-6.048341e+00
2.372398e+01	-6.085593e+00
2.386101e+01	-6.123528e+00
2.399883e+01	-6.161429e+00
2.413745e+01	-6.199093e+00
2.427686e+01	-6.237547e+00
2.441709e+01	-6.275625e+00
2.455812e+01	-6.313838e+00
2.469997e+01	-6.352020e+00
2.484263e+01	-6.390663e+00
2.498612e+01	-6.429305e+00
2.513044e+01	-6.468188e+00
2.527559e+01	-6.506952e+00
2.542158e+01	-6.545934e+00
2.556842e+01	-6.584688e+00
2.571610e+01	-6.623990e+00
2.586463e+01	-6.663395e+00
2.601403e+01	-6.702528e+00
2.616428e+01	-6.741576e+00
2.631541e+01	-6.781287e+00
2.646740e+01	-6.820749e+00
2.662028e+01	-6.860408e+00
2.677404e+01	-6.900153e+00
2.692868e+01	-6.939849e+00
2.708422e+01	-6.979791e+00
2.724066e+01	-7.020043e+00
2.739800e+01	-7.059830e+00
2.755625e+01	-7.100764e+00
2.771541e+01	-7.140839e+00
2.787550e+01	-7.181140e+00
2.803650e+01	-7.221552e+00
2.819844e+01	-7.262279e+00
2.836131e+01	-7.302635e+00
2.852513e+01	-7.343556e+00
2.868989e+01	-7.384577e+00
2.885560e+01	-7.425169e+00
2.902227e+01	-7.466219e+00
2.918990e+01	-7.507565e+00
2.935850e+01	-7.548589e+00
2.952807e+01	-7.589831e+00
2.969863e+01	-7.631438e+00
2.987016e+01	-7.672351e+00
3.004269e+01	-7.714061e+00
3.021622e+01	-7.755972e+00
3.039075e+01	-7.797262e+00
3.056628e+01	-7.839129e+00
3.074283e+01	-7.881095e+00
3.092040e+01	-7.923405e+00
3.109900e+01	-7.964573e+00
3.127862e+01	-8.007546e+00
3.145929e+01	-8.049178e+00
3.164099e+01	-8.091109e+00
3.182375e+01	-8.133876e+00
3.200756e+01	-8.176117e+00
3.219244e+01	-8.218024e+00
3.237838e+01	-8.260999e+00
3.256540e+01	-8.303711e+00
3.275349e+01	-8.346578e+00
3.294268e+01	-8.389016e+00
3.313295e+01	-8.432022e+00
3.332433e+01	-8.474691e+00
3.351681e+01	-8.517901e+00
3.371040e+01	-8.560703e+00
3.390511e+01	-8.603715e+00
3.410094e+01	-8.647030e+00
3.429791e+01	-8.690240e+00
3.449601e+01	-8.733878e+00
3.469526e+01	-8.777014e+00
3.489566e+01	-8.820347e+00
3.509721e+01	-8.863471e+00
3.529993e+01	-8.907349e+00
3.550382e+01	-8.950613e+00
3.570889e+01	-8.994503e+00
3.591515e+01	-9.038121e+00
3.612259e+01	-9.082779e+00
3.633123e+01	-9.126102e+00
3.654108e+01	-9.170090e+00
3.675214e+01	-9.214359e+00
3.696442e+01	-9.258065e+00
3.717792e+01	-9.302588e+00
3.739266e+01	-9.346494e+00
3.760864e+01	-9.390528e+00
3.782587e+01	-9.434831e+00
3.804435e+01	-9.479653e+00
3.826409e+01	-9.523961e+00
3.848510e+01	-9.568282e+00
3.870739e+01	-9.612321e+00
3.893096e+01	-9.657497e+00
3.915583e+01	-9.701842e+00
3.938199e+01	-9.746275e+00
3.960946e+01	-9.791917e+00
3.983824e+01	-9.836255e+00
4.006834e+01	-9.880822e+00
4.029978e+01	-9.925934e+00
4.053255e+01	-9.971086e+00
4.076666e+01	-1.001561e+01
4.100213e+01	-1.006105e+01
4.123896e+01	-1.010625e+01
4.147715e+01	-1.015169e+01
4.171672e+01	-1.019688e+01
4.195767e+01	-1.024173e+01
4.220002e+01	-1.028736e+01
4.244377e+01	-1.033235e+01
4.268892e+01	-1.037756e+01
4.293549e+01	-1.042372e+01
4.318348e+01	-1.046871e+01
4.343291e+01	-1.051480e+01
4.368377e+01	-1.056023e+01
4.393609e+01	-1.060551e+01
4.418986e+01	-1.065199e+01
4.444510e+01	-1.069706e+01
4.470182e+01	-1.074324e+01
4.496001e+01	-1.078834e+01
4.521970e+01	-1.083516e+01
4.548089e+01	-1.088073e+01
4.574358e+01	-1.092682e+01
4.600779e+01	-1.097176e+01
4.627353e+01	-1.101894e+01
4.654081e+01	-1.106474e+01
4.680963e+01	-1.111073e+01
4.708000e+01	-1.115709e+01
4.735193e+01	-1.120314e+01
4.762543e+01	-1.124914e+01
4.790051e+01	-1.129594e+01
4.817719e+01	-1.134251e+01
4.845545e+01	-1.138863e+01
4.873533e+01	-1.143491e+01
4.901682e+01	-1.148112e+01
4.929994e+01	-1.152784e+01
4.958470e+01	-1.157488e+01
4.987110e+01	-1.162120e+01
5.015915e+01	-1.166756e+01
5.044887e+01	-1.171482e+01
5.074026e+01	-1.176078e+01
5.103333e+01	-1.180686e+01
5.132810e+01	-1.185420e+01
5.162457e+01	-1.190148e+01
5.192275e+01	-1.194738e+01
5.222265e+01	-1.199483e+01
5.252429e+01	-1.204168e+01
5.282767e+01	-1.208857e+01
5.313280e+01	-1.213501e+01
5.343969e+01	-1.218280e+01
5.374836e+01	-1.222967e+01
5.405880e+01	-1.227655e+01
5.437105e+01	-1.232366e+01
5.468509e+01	-1.237081e+01
5.500095e+01	-1.241762e+01
5.531863e+01	-1.246547e+01
5.563815e+01	-1.251237e+01
5.595951e+01	-1.255910e+01
5.628273e+01	-1.260668e+01
5.660782e+01	-1.265429e+01
5.693479e+01	-1.270170e+01
5.726364e+01	-1.274885e+01
5.759439e+01	-1.279548e+01
5.792705e+01	-1.284328e+01
5.826164e+01	-1.289058e+01
5.859815e+01	-1.293872e+01
5.893662e+01	-1.298621e+01
5.927703e+01	-1.303303e+01
5.961941e+01	-1.308108e+01
5.996377e+01	-1.312822e+01
6.031012e+01	-1.317632e+01
6.065847e+01	-1.322421e+01
6.100883e+01	-1.327158e+01
6.136121e+01	-1.332003e+01
6.171563e+01	-1.336751e+01
6.207210e+01	-1.341495e+01
6.243063e+01	-1.346226e+01
6.279122e+01	-1.351065e+01
6.315390e+01	-1.355802e+01
6.351868e+01	-1.360544e+01
6.388556e+01	-1.365326e+01
6.425456e+01	-1.370186e+01
6.462569e+01	-1.374947e+01
6.499897e+01	-1.379722e+01
6.537440e+01	-1.384533e+01
6.575200e+01	-1.389377e+01
6.613178e+01	-1.394133e+01
6.651375e+01	-1.398848e+01
6.689793e+01	-1.403701e+01
6.728433e+01	-1.408510e+01
6.767297e+01	-1.413420e+01
6.806384e+01	-1.418158e+01
6.845698e+01	-1.423052e+01
6.885238e+01	-1.427896e+01
6.925007e+01	-1.432601e+01
6.965005e+01	-1.437446e+01
7.005235e+01	-1.442272e+01
7.045697e+01	-1.447113e+01
7.086393e+01	-1.451889e+01
7.127323e+01	-1.456771e+01
7.168490e+01	-1.461624e+01
7.209895e+01	-1.466280e+01
7.251539e+01	-1.471294e+01
7.293424e+01	-1.476018e+01
7.335551e+01	-1.480897e+01
7.377920e+01	-1.485610e+01
7.420535e+01	-1.490561e+01
7.463396e+01	-1.495472e+01
7.506504e+01	-1.500270e+01
7.549861e+01	-1.505073e+01
7.593469e+01	-1.509965e+01
7.637328e+01	-1.514807e+01
7.681441e+01	-1.519665e+01
7.725809e+01	-1.524509e+01
7.770433e+01	-1.529240e+01
7.815315e+01	-1.534160e+01
7.860456e+01	-1.539019e+01
7.905857e+01	-1.543999e+01
7.951521e+01	-1.548816e+01
7.997449e+01	-1.553617e+01
8.043642e+01	-1.558550e+01
8.090102e+01	-1.563329e+01
8.136830e+01	-1.568284e+01
8.183828e+01	-1.573151e+01
8.231097e+01	-1.577948e+01
8.278640e+01	-1.582788e+01
8.326457e+01	-1.587669e+01
8.374550e+01	-1.592624e+01
8.422921e+01	-1.597500e+01
8.471572e+01	-1.602419e+01
8.520503e+01	-1.607264e+01
8.569717e+01	-1.612128e+01
8.619215e+01	-1.617005e+01
8.669000e+01	-1.621922e+01
8.719071e+01	-1.626849e+01
8.769432e+01	-1.631643e+01
8.820084e+01	-1.636478e+01
8.871029e+01	-1.641416e+01
8.922267e+01	-1.646351e+01
8.973802e+01	-1.651170e+01
9.025634e+01	-1.656086e+01
9.077766e+01	-1.660911e+01
9.130199e+01	-1.665828e+01
9.182935e+01	-1.670759e+01
9.235975e+01	-1.675618e+01
9.289321e+01	-1.680569e+01
9.342976e+01	-1.685498e+01
9.396941e+01	-1.690486e+01
9.451217e+01	-1.695282e+01
9.505807e+01	-1.700187e+01
9.560712e+01	-1.705069e+01
9.615934e+01	-1.709972e+01
9.671476e+01	-1.714857e+01
9.727338e+01	-1.719829e+01
9.783522e+01	-1.724710e+01
9.840032e+01	-1.729562e+01
9.896867e+01	-1.734489e+01
9.954031e+01	-1.739545e+01
1.001153e+02	-1.744459e+01
1.006935e+02	-1.749298e+01
1.012751e+02	-1.754160e+01
1.018601e+02	-1.759112e+01
1.024484e+02	-1.763996e+01
1.030402e+02	-1.768912e+01
1.036353e+02	-1.773878e+01
1.042339e+02	-1.778769e+01
1.048360e+02	-1.783697e+01
1.054415e+02	-1.788601e+01
1.060505e+02	-1.793520e+01
1.066631e+02	-1.798442e+01
1.072791e+02	-1.803359e+01
1.078988e+02	-1.808267e+01
1.085220e+02	-1.813272e+01
1.091488e+02	-1.818210e+01
1.097793e+02	-1.822980e+01
1.104133e+02	-1.827976e+01
1.110511e+02	-1.832893e+01
1.116925e+02	-1.837815e+01
1.123376e+02	-1.842884e+01
1.129865e+02	-1.847703e+01
1.136391e+02	-1.852662e+01
1.142955e+02	-1.857427e+01
1.149556e+02	-1.862575e+01
1.156196e+02	-1.867425e+01
1.162874e+02	-1.872402e+01
1.169591e+02	-1.877285e+01
1.176347e+02	-1.882266e+01
1.183141e+02	-1.887277e+01
1.189975e+02	-1.892187e+01
1.196848e+02	-1.897136e+01
1.203761e+02	-1.902000e+01
1.210714e+02	-1.906970e+01
1.217707e+02	-1.912053e+01
1.224740e+02	-1.916848e+01
1.231814e+02	-1.921826e+01
1.238929e+02	-1.926918e+01
1.246085e+02	-1.931562e+01
1.253283e+02	-1.936672e+01
1.260522e+02	-1.941702e+01
1.267802e+02	-1.946450e+01
1.275125e+02	-1.951602e+01
1.282490e+02	-1.956456e+01
1.289898e+02	-1.961306e+01
1.297348e+02	-1.966427e+01
1.304842e+02	-1.971251e+01
1.312378e+02	-1.976143e+01
1.319959e+02	-1.981347e+01
1.327583e+02	-1.986320e+01
1.335251e+02	-1.991086e+01
1.342963e+02	-1.995897e+01
1.350720e+02	-2.001020e+01
1.358522e+02	-2.005975e+01
1.366368e+02	-2.010931e+01
1.374260e+02	-2.016035e+01
1.382198e+02	-2.020756e+01
1.390182e+02	-2.025819e+01
1.398211e+02	-2.030865e+01
1.406287e+02	-2.035839e+01
1.414410e+02	-2.040596e+01
1.422579e+02	-2.045727e+01
1.430796e+02	-2.050656e+01
1.439060e+02	-2.055636e+01
1.447372e+02	-2.060325e+01
1.455732e+02	-2.065520e+01
1.464141e+02	-2.070410e+01
1.472597e+02	-2.075346e+01
1.481103e+02	-2.080276e+01
1.489658e+02	-2.085143e+01
1.498262e+02	-2.090433e+01
1.506916e+02	-2.095327e+01
1.515620e+02	-2.100142e+01
1.524374e+02	-2.105095e+01
1.533179e+02	-2.109950e+01
1.542034e+02	-2.115159e+01
1.550941e+02	-2.120202e+01
1.559899e+02	-2.125182e+01
1.568909e+02	-2.129976e+01
1.577971e+02	-2.134830e+01
1.587085e+02	-2.139798e+01
1.596252e+02	-2.144839e+01
1.605472e+02	-2.149885e+01
1.614745e+02	-2.155113e+01
1.624072e+02	-2.159914e+01
1.633453e+02	-2.164692e+01
1.642887e+02	-2.169766e+01
1.652377e+02	-2.174627e+01
1.661921e+02	-2.179727e+01
1.671520e+02	-2.184725e+01
1.681175e+02	-2.189715e+01
1.690885e+02	-2.194640e+01
1.700651e+02	-2.199666e+01
1.710474e+02	-2.204653e+01
1.720354e+02	-2.209544e+01
1.730291e+02	-2.214378e+01
1.740285e+02	-2.219271e+01
1.750337e+02	-2.224346e+01
1.760446e+02	-2.229455e+01
1.770615e+02	-2.234222e+01
1.780842e+02	-2.239411e+01
1.791128e+02	-2.244383e+01
1.801473e+02	-2.249216e+01
1.811878e+02	-2.254327e+01
1.822344e+02	-2.259165e+01
1.832870e+02	-2.264578e+01
1.843456e+02	-2.269336e+01
1.854104e+02	-2.274025e+01
1.864813e+02	-2.279338e+01
1.875584e+02	-2.284052e+01
1.886418e+02	-2.289086e+01
1.897313e+02	-2.294349e+01
1.908272e+02	-2.299278e+01
1.919294e+02	-2.304299e+01
1.930380e+02	-2.308999e+01
1.941530e+02	-2.314161e+01
1.952744e+02	-2.319001e+01
1.964023e+02	-2.324026e+01
1.975367e+02	-2.328866e+01
1.986777e+02	-2.334148e+01
1.998252e+02	-2.338896e+01
2.009794e+02	-2.344105e+01
2.021403e+02	-2.348948e+01
2.033078e+02	-2.353854e+01
2.044821e+02	-2.358882e+01
2.056632e+02	-2.363710e+01
2.068511e+02	-2.368855e+01
2.080459e+02	-2.373534e+01
2.092475e+02	-2.378803e+01
2.104561e+02	-2.383715e+01
2.116717e+02	-2.388789e+01
2.128943e+02	-2.393757e+01
2.141240e+02	-2.399062e+01
2.153608e+02	-2.403471e+01
2.166047e+02	-2.408774e+01
2.178558e+02	-2.413554e+01
2.191141e+02	-2.418593e+01
2.203797e+02	-2.423763e+01
2.216526e+02	-2.428557e+01
2.229329e+02	-2.433719e+01
2.242205e+02	-2.438630e+01
2.255156e+02	-2.443400e+01
2.268182e+02	-2.448770e+01
2.281283e+02	-2.453473e+01
2.294459e+02	-2.458460e+01
2.307712e+02	-2.463634e+01
2.321041e+02	-2.468682e+01
2.334447e+02	-2.473483e+01
2.347931e+02	-2.478435e+01
2.361493e+02	-2.483380e+01
2.375133e+02	-2.488502e+01
2.388851e+02	-2.493338e+01
2.402649e+02	-2.498620e+01
2.416527e+02	-2.503536e+01
2.430484e+02	-2.508426e+01
2.444523e+02	-2.513245e+01
2.458642e+02	-2.518690e+01
2.472843e+02	-2.523647e+01
2.487126e+02	-2.528392e+01
2.501492e+02	-2.533440e+01
2.515940e+02	-2.538615e+01
2.530472e+02	-2.543624e+01
2.545088e+02	-2.548485e+01
2.559789e+02	-2.553415e+01
2.574574e+02	-2.558531e+01
2.589444e+02	-2.563326e+01
2.604401e+02	-2.568322e+01
2.619444e+02	-2.573362e+01
2.634574e+02	-2.578281e+01
2.649791e+02	-2.583395e+01
2.665096e+02	-2.588302e+01
2.680489e+02	-2.593639e+01
2.695972e+02	-2.598455e+01
2.711544e+02	-2.603498e+01
2.727205e+02	-2.608162e+01
2.742958e+02	-2.613475e+01
2.758801e+02	-2.618608e+01
2.774736e+02	-2.623489e+01
2.790762e+02	-2.628489e+01
2.806882e+02	-2.633646e+01
2.823094e+02	-2.638219e+01
2.839400e+02	-2.643510e+01
2.855800e+02	-2.648397e+01
2.872295e+02	-2.653176e+01
2.888886e+02	-2.658468e+01
2.905572e+02	-2.663691e+01
2.922354e+02	-2.668260e+01
2.939234e+02	-2.673570e+01
2.956211e+02	-2.678374e+01
2.973286e+02	-2.683124e+01
2.990459e+02	-2.688397e+01
3.007732e+02	-2.693276e+01
3.025104e+02	-2.698156e+01
3.042577e+02	-2.703315e+01
3.060151e+02	-2.708501e+01
3.077826e+02	-2.713133e+01
3.095604e+02	-2.718431e+01
3.113484e+02	-2.723317e+01
3.131467e+02	-2.728499e+01
3.149554e+02	-2.733299e+01
3.167746e+02	-2.738340e+01
3.186043e+02	-2.743768e+01
3.204445e+02	-2.748573e+01
3.222954e+02	-2.753374e+01
3.241570e+02	-2.758693e+01
3.260293e+02	-2.763959e+01
3.279124e+02	-2.768542e+01
3.298064e+02	-2.773248e+01
3.317114e+02	-2.777927e+01
3.336273e+02	-2.783278e+01
3.355544e+02	-2.788334e+01
3.374925e+02	-2.793201e+01
3.394418e+02	-2.798579e+01
3.414024e+02	-2.803347e+01
3.433744e+02	-2.808614e+01
3.453577e+02	-2.813552e+01
3.473525e+02	-2.818466e+01
3.493588e+02	-2.823183e+01
3.513766e+02	-2.828307e+01
3.534062e+02	-2.834008e+01
3.554474e+02	-2.838602e+01
3.575005e+02	-2.843772e+01
3.595654e+02	-2.848255e+01
3.616422e+02	-2.853262e+01
3.637311e+02	-2.858807e+01
3.658320e+02	-2.863483e+01
3.679450e+02	-2.868559e+01
3.700702e+02	-2.873366e+01
3.722077e+02	-2.878295e+01
3.743576e+02	-2.883405e+01
3.765199e+02	-2.888386e+01
3.786946e+02	-2.893284e+01
3.808820e+02	-2.898511e+01
3.830819e+02	-2.903337e+01
3.852946e+02	-2.908659e+01
3.875200e+02	-2.913598e+01
3.897583e+02	-2.918539e+01
3.920096e+02	-2.923660e+01
3.942738e+02	-2.928487e+01
3.965511e+02	-2.934009e+01
3.988416e+02	-2.938415e+01
4.011452e+02	-2.943353e+01
4.034622e+02	-2.948581e+01
4.057926e+02	-2.953218e+01
4.081365e+02	-2.958552e+01
4.104938e+02	-2.963568e+01
4.128648e+02	-2.968554e+01
4.152495e+02	-2.973372e+01
4.176480e+02	-2.978845e+01
4.200603e+02	-2.983855e+01
4.224866e+02	-2.988638e+01
4.249268e+02	-2.993308e+01
4.273812e+02	-2.998586e+01
4.298497e+02	-3.003312e+01
4.323325e+02	-3.008584e+01
4.348297e+02	-3.013380e+01
4.373412e+02	-3.018867e+01
4.398673e+02	-3.023806e+01
4.424079e+02	-3.028516e+01
4.449633e+02	-3.033682e+01
4.475334e+02	-3.038495e+01
4.501183e+02	-3.043370e+01
4.527182e+02	-3.049156e+01
4.553330e+02	-3.054015e+01
4.579630e+02	-3.059089e+01
4.606082e+02	-3.063690e+01
4.632687e+02	-3.068888e+01
4.659445e+02	-3.073141e+01
4.686358e+02	-3.078537e+01
4.713426e+02	-3.083320e+01
4.740650e+02	-3.088712e+01
4.768032e+02	-3.094123e+01
4.795572e+02	-3.098707e+01
4.823271e+02	-3.104242e+01
4.851130e+02	-3.108982e+01
4.879150e+02	-3.114485e+01
4.907332e+02	-3.119208e+01
4.935676e+02	-3.124005e+01
4.964185e+02	-3.128511e+01
4.992858e+02	-3.133612e+01
5.021696e+02	-3.139036e+01
5.050701e+02	-3.143906e+01
5.079874e+02	-3.148826e+01
5.109215e+02	-3.154701e+01
5.138726e+02	-3.159108e+01
5.168407e+02	-3.163973e+01
5.198259e+02	-3.169296e+01
5.228284e+02	-3.174077e+01
5.258482e+02	-3.179374e+01
5.288855e+02	-3.183970e+01
5.319403e+02	-3.189328e+01
5.350128e+02	-3.194046e+01
5.381030e+02	-3.199889e+01
5.412111e+02	-3.204012e+01
5.443371e+02	-3.209611e+01
5.474812e+02	-3.214492e+01
5.506434e+02	-3.219888e+01
5.538239e+02	-3.224589e+01
5.570228e+02	-3.229688e+01
5.602401e+02	-3.234942e+01
5.634760e+02	-3.239826e+01
5.667306e+02	-3.244941e+01
5.700040e+02	-3.249909e+01
5.732964e+02	-3.254686e+01
5.766077e+02	-3.259628e+01
5.799382e+02	-3.264712e+01
5.832879e+02	-3.269453e+01
5.866569e+02	-3.274755e+01
5.900454e+02	-3.279415e+01
5.934535e+02	-3.285227e+01
5.968813e+02	-3.289782e+01
6.003288e+02	-3.295450e+01
6.037963e+02	-3.299217e+01
6.072838e+02	-3.304826e+01
6.107914e+02	-3.309191e+01
6.143194e+02	-3.315477e+01
6.178676e+02	-3.320328e+01
6.214364e+02	-3.324757e+01
6.250258e+02	-3.330621e+01
6.286359e+02	-3.334894e+01
6.322669e+02	-3.339878e+01
6.359189e+02	-3.345156e+01
6.395919e+02	-3.349581e+01
6.432862e+02	-3.355527e+01
6.470017e+02	-3.359551e+01
6.507388e+02	-3.365455e+01
6.544974e+02	-3.370227e+01
6.582778e+02	-3.374560e+01
6.620800e+02	-3.380989e+01
6.659041e+02	-3.385861e+01
6.697504e+02	-3.390074e+01
6.736188e+02	-3.396107e+01
6.775096e+02	-3.400906e+01
6.814229e+02	-3.405799e+01
6.853587e+02	-3.410699e+01
6.893173e+02	-3.415620e+01
6.932988e+02	-3.421110e+01
6.973033e+02	-3.424436e+01
7.013309e+02	-3.430806e+01
