Frequency(Hz)	Magnitude(dB)
1.000000e+01	-2.207851e+00
1.005776e+01	-2.228036e+00
1.011585e+01	-2.248230e+00
1.017428e+01	-2.268260e+00
1.023305e+01	-2.288794e+00
1.029215e+01	-2.309233e+00
1.035160e+01	-2.330274e+00
1.041139e+01	-2.350907e+00
1.047153e+01	-2.371949e+00
1.053201e+01	-2.393027e+00
1.059284e+01	-2.414252e+00
1.065403e+01	-2.435687e+00
1.071556e+01	-2.457376e+00
1.077746e+01	-2.479027e+00
1.083971e+01	-2.500659e+00
1.090232e+01	-2.522678e+00
1.096529e+01	-2.544668e+00
1.102862e+01	-2.566971e+00
1.109232e+01	-2.589390e+00
1.115639e+01	-2.611941e+00
1.122083e+01	-2.634575e+00
1.128564e+01	-2.657542e+00
1.135083e+01	-2.680582e+00
1.141639e+01	-2.703566e+00
1.148233e+01	-2.726736e+00
1.154865e+01	-2.750241e+00
1.161536e+01	-2.773813e+00
1.168245e+01	-2.797594e+00
1.174992e+01	-2.821517e+00
1.181779e+01	-2.845411e+00
1.188605e+01	-2.869241e+00
1.195470e+01	-2.893744e+00
1.202375e+01	-2.918296e+00
1.209320e+01	-2.942682e+00
1.216305e+01	-2.967333e+00
1.223330e+01	-2.992166e+00
1.230396e+01	-3.017230e+00
1.237503e+01	-3.042349e+00
1.244651e+01	-3.067723e+00
1.251840e+01	-3.092885e+00
1.259070e+01	-3.118552e+00
1.266343e+01	-3.144168e+00
1.273657e+01	-3.169901e+00
1.281014e+01	-3.195895e+00
1.288413e+01	-3.222100e+00
1.295855e+01	-3.248384e+00
1.303339e+01	-3.274896e+00
1.310867e+01	-3.301492e+00
1.318439e+01	-3.328342e+00
1.326054e+01	-3.354832e+00
1.333713e+01	-3.381952e+00
1.341417e+01	-3.409376e+00
1.349165e+01	-3.436385e+00
1.356958e+01	-3.463798e+00
1.364795e+01	-3.491196e+00
1.372678e+01	-3.519080e+00
1.380607e+01	-3.546956e+00
1.388581e+01	-3.574959e+00
1.396602e+01	-3.602953e+00
1.404668e+01	-3.631361e+00
1.412782e+01	-3.659595e+00
1.420942e+01	-3.688509e+00
1.429149e+01	-3.717103e+00
1.437404e+01	-3.745940e+00
1.445706e+01	-3.774836e+00
1.454057e+01	-3.803959e+00
1.462455e+01	-3.833040e+00
1.470902e+01	-3.862560e+00
1.479398e+01	-3.892279e+00
1.487943e+01	-3.921886e+00
1.496537e+01	-3.951493e+00
1.505181e+01	-3.981428e+00
1.513875e+01	-4.011642e+00
1.522619e+01	-4.042138e+00
1.531414e+01	-4.072182e+00
1.540259e+01	-4.102760e+00
1.549156e+01	-4.133479e+00
1.558103e+01	-4.164023e+00
1.567103e+01	-4.195344e+00
1.576155e+01	-4.226132e+00
1.585258e+01	-4.257419e+00
1.594415e+01	-4.288647e+00
1.603624e+01	-4.320065e+00
1.612886e+01	-4.351660e+00
1.622202e+01	-4.383510e+00
1.631572e+01	-4.415432e+00
1.640996e+01	-4.447210e+00
1.650474e+01	-4.479214e+00
1.660008e+01	-4.511761e+00
1.669596e+01	-4.544156e+00
1.679239e+01	-4.576672e+00
1.688938e+01	-4.609091e+00
1.698694e+01	-4.642077e+00
1.708505e+01	-4.674819e+00
1.718373e+01	-4.707892e+00
1.728299e+01	-4.741109e+00
1.738281e+01	-4.774032e+00
1.748322e+01	-4.808027e+00
1.758420e+01	-4.841512e+00
1.768576e+01	-4.875252e+00
1.778792e+01	-4.908926e+00
1.789066e+01	-4.942985e+00
1.799399e+01	-4.976766e+00
1.809793e+01	-5.011415e+00
1.820246e+01	-5.045706e+00
1.830760e+01	-5.079914e+00
1.841334e+01	-5.113985e+00
1.851969e+01	-5.149304e+00
1.862666e+01	-5.184054e+00
1.873425e+01	-5.218763e+00
1.884246e+01	-5.253707e+00
1.895129e+01	-5.289290e+00
1.906075e+01	-5.324378e+00
1.917085e+01	-5.359497e+00
1.928158e+01	-5.395235e+00
1.939295e+01	-5.430809e+00
1.950496e+01	-5.466867e+00
1.961762e+01	-5.502636e+00
1.973093e+01	-5.538651e+00
1.984490e+01	-5.574576e+00
1.995952e+01	-5.611084e+00
2.007480e+01	-5.647124e+00
2.019076e+01	-5.683464e+00
2.030738e+01	-5.720073e+00
2.042467e+01	-5.757010e+00
2.054264e+01	-5.793608e+00
2.066130e+01	-5.830403e+00
2.078064e+01	-5.867661e+00
2.090066e+01	-5.904797e+00
2.102139e+01	-5.942159e+00
2.114280e+01	-5.979299e+00
2.126492e+01	-6.016779e+00
2.138775e+01	-6.054419e+00
2.151128e+01	-6.092372e+00
2.163553e+01	-6.129811e+00
2.176050e+01	-6.167681e+00
2.188619e+01	-6.205482e+00
2.201260e+01	-6.243734e+00
2.213974e+01	-6.282132e+00
2.226762e+01	-6.320004e+00
2.239624e+01	-6.358636e+00
2.252560e+01	-6.397071e+00
2.265571e+01	-6.435685e+00
2.278656e+01	-6.474354e+00
2.291818e+01	-6.513188e+00
2.305055e+01	-6.552253e+00
2.318369e+01	-6.591169e+00
2.331760e+01	-6.629975e+00
2.345228e+01	-6.669567e+00
2.358774e+01	-6.708996e+00
2.372398e+01	-6.748143e+00
2.386101e+01	-6.787805e+00
2.399883e+01	-6.827377e+00
2.413745e+01	-6.867131e+00
2.427686e+01	-6.906579e+00
2.441709e+01	-6.946621e+00
2.455812e+01	-6.986367e+00
2.469997e+01	-7.026528e+00
2.484263e+01	-7.066801e+00
2.498612e+01	-7.106972e+00
2.513044e+01	-7.147277e+00
2.527559e+01	-7.187413e+00
2.542158e+01	-7.228219e+00
2.556842e+01	-7.269032e+00
2.571610e+01	-7.309669e+00
2.586463e+01	-7.350322e+00
2.601403e+01	-7.391656e+00
2.616428e+01	-7.432178e+00
2.631541e+01	-7.473275e+00
2.646740e+01	-7.514036e+00
2.662028e+01	-7.555606e+00
2.677404e+01	-7.596443e+00
2.692868e+01	-7.637926e+00
2.708422e+01	-7.679544e+00
2.724066e+01	-7.721435e+00
2.739800e+01	-7.762046e+00
2.755625e+01	-7.804534e+00
2.771541e+01	-7.846431e+00
2.787550e+01	-7.888199e+00
2.803650e+01	-7.929982e+00
2.819844e+01	-7.972249e+00
2.836131e+01	-8.013938e+00
2.852513e+01	-8.056198e+00
2.868989e+01	-8.098129e+00
2.885560e+01	-8.140498e+00
2.902227e+01	-8.183315e+00
2.918990e+01	-8.225193e+00
2.935850e+01	-8.268519e+00
2.952807e+01	-8.310788e+00
2.969863e+01	-8.353187e+00
2.987016e+01	-8.396102e+00
3.004269e+01	-8.439024e+00
3.021622e+01	-8.482243e+00
3.039075e+01	-8.524584e+00
3.056628e+01	-8.567927e+00
3.074283e+01	-8.610599e+00
3.092040e+01	-8.654118e+00
3.109900e+01	-8.697257e+00
3.127862e+01	-8.741076e+00
3.145929e+01	-8.784065e+00
3.164099e+01	-8.827512e+00
3.182375e+01	-8.871105e+00
3.200756e+01	-8.914314e+00
3.219244e+01	-8.958762e+00
3.237838e+01	-9.001938e+00
3.256540e+01	-9.045751e+00
3.275349e+01	-9.089690e+00
3.294268e+01	-9.133672e+00
3.313295e+01	-9.177395e+00
3.332433e+01	-9.221622e+00
3.351681e+01	-9.265276e+00
3.371040e+01	-9.309764e+00
3.390511e+01	-9.354162e+00
3.410094e+01	-9.398213e+00
3.429791e+01	-9.442667e+00
3.449601e+01	-9.486987e+00
3.469526e+01	-9.531535e+00
3.489566e+01	-9.576111e+00
3.509721e+01	-9.619898e+00
3.529993e+01	-9.665045e+00
3.550382e+01	-9.709609e+00
3.570889e+01	-9.753888e+00
3.591515e+01	-9.798622e+00
3.612259e+01	-9.843393e+00
3.633123e+01	-9.888446e+00
3.654108e+01	-9.933201e+00
3.675214e+01	-9.978317e+00
3.696442e+01	-1.002352e+01
3.717792e+01	-1.006862e+01
3.739266e+01	-1.011346e+01
3.760864e+01	-1.015865e+01
3.782587e+01	-1.020460e+01
3.804435e+01	-1.024945e+01
3.826409e+01	-1.029530e+01
3.848510e+01	-1.033956e+01
3.870739e+01	-1.038554e+01
3.893096e+01	-1.043092e+01
3.915583e+01	-1.047705e+01
3.938199e+01	-1.052206e+01
3.960946e+01	-1.056769e+01
3.983824e+01	-1.061315e+01
4.006834e+01	-1.065917e+01
4.029978e+01	-1.070486e+01
4.053255e+01	-1.075069e+01
4.076666e+01	-1.079663e+01
4.100213e+01	-1.084271e+01
4.123896e+01	-1.088783e+01
4.147715e+01	-1.093441e+01
4.171672e+01	-1.098031e+01
4.195767e+01	-1.102569e+01
4.220002e+01	-1.107292e+01
4.244377e+01	-1.111791e+01
4.268892e+01	-1.116553e+01
4.293549e+01	-1.121054e+01
4.318348e+01	-1.125731e+01
4.343291e+01	-1.130361e+01
4.368377e+01	-1.134985e+01
4.393609e+01	-1.139598e+01
4.418986e+01	-1.144293e+01
4.444510e+01	-1.148880e+01
4.470182e+01	-1.153565e+01
4.496001e+01	-1.158200e+01
4.521970e+01	-1.162932e+01
4.548089e+01	-1.167558e+01
4.574358e+01	-1.172169e+01
4.600779e+01	-1.176930e+01
4.627353e+01	-1.181493e+01
4.654081e+01	-1.186233e+01
4.680963e+01	-1.190905e+01
4.708000e+01	-1.195500e+01
4.735193e+01	-1.200252e+01
4.762543e+01	-1.204930e+01
4.790051e+01	-1.209604e+01
4.817719e+01	-1.214372e+01
4.845545e+01	-1.219014e+01
4.873533e+01	-1.223735e+01
4.901682e+01	-1.228466e+01
4.929994e+01	-1.233170e+01
4.958470e+01	-1.237832e+01
4.987110e+01	-1.242549e+01
5.015915e+01	-1.247326e+01
5.044887e+01	-1.252030e+01
5.074026e+01	-1.256796e+01
5.103333e+01	-1.261436e+01
5.132810e+01	-1.266246e+01
5.162457e+01	-1.270969e+01
5.192275e+01	-1.275632e+01
5.222265e+01	-1.280448e+01
5.252429e+01	-1.285107e+01
5.282767e+01	-1.289934e+01
5.313280e+01	-1.294693e+01
5.343969e+01	-1.299395e+01
5.374836e+01	-1.304184e+01
5.405880e+01	-1.308927e+01
5.437105e+01	-1.313736e+01
5.468509e+01	-1.318378e+01
5.500095e+01	-1.323223e+01
5.531863e+01	-1.327943e+01
5.563815e+01	-1.332687e+01
5.595951e+01	-1.337515e+01
5.628273e+01	-1.342289e+01
5.660782e+01	-1.347056e+01
5.693479e+01	-1.351799e+01
5.726364e+01	-1.356524e+01
5.759439e+01	-1.361341e+01
5.792705e+01	-1.366140e+01
5.826164e+01	-1.371042e+01
5.859815e+01	-1.375804e+01
5.893662e+01	-1.380546e+01
5.927703e+01	-1.385299e+01
5.961941e+01	-1.390136e+01
5.996377e+01	-1.394927e+01
6.031012e+01	-1.399687e+01
6.065847e+01	-1.404487e+01
6.100883e+01	-1.409310e+01
6.136121e+01	-1.414193e+01
6.171563e+01	-1.418945e+01
6.207210e+01	-1.423837e+01
6.243063e+01	-1.428638e+01
6.279122e+01	-1.433418e+01
6.315390e+01	-1.438242e+01
6.351868e+01	-1.443001e+01
6.388556e+01	-1.447938e+01
6.425456e+01	-1.452661e+01
6.462569e+01	-1.457538e+01
6.499897e+01	-1.462327e+01
6.537440e+01	-1.467161e+01
6.575200e+01	-1.471986e+01
6.613178e+01	-1.476836e+01
6.651375e+01	-1.481761e+01
6.689793e+01	-1.486520e+01
6.728433e+01	-1.491281e+01
6.767297e+01	-1.496183e+01
6.806384e+01	-1.500975e+01
6.845698e+01	-1.505859e+01
6.885238e+01	-1.510757e+01
6.925007e+01	-1.515630e+01
6.965005e+01	-1.520565e+01
7.005235e+01	-1.525260e+01
7.045697e+01	-1.530100e+01
7.086393e+01	-1.535106e+01
7.127323e+01	-1.539906e+01
7.168490e+01	-1.544717e+01
7.209895e+01	-1.549675e+01
7.251539e+01	-1.554414e+01
7.293424e+01	-1.559220e+01
7.335551e+01	-1.564184e+01
7.377920e+01	-1.569023e+01
7.420535e+01	-1.573895e+01
7.463396e+01	-1.578927e+01
7.506504e+01	-1.583582e+01
7.549861e+01	-1.588550e+01
7.593469e+01	-1.593381e+01
7.637328e+01	-1.598251e+01
7.681441e+01	-1.603163e+01
7.725809e+01	-1.608084e+01
7.770433e+01	-1.612917e+01
7.815315e+01	-1.617763e+01
7.860456e+01	-1.622755e+01
7.905857e+01	-1.627603e+01
7.951521e+01	-1.632530e+01
7.997449e+01	-1.637251e+01
8.043642e+01	-1.642166e+01
8.090102e+01	-1.647232e+01
8.136830e+01	-1.652024e+01
8.183828e+01	-1.656819e+01
8.231097e+01	-1.661829e+01
8.278640e+01	-1.666541e+01
8.326457e+01	-1.671706e+01
8.374550e+01	-1.676519e+01
8.422921e+01	-1.681466e+01
8.471572e+01	-1.686265e+01
8.520503e+01	-1.691077e+01
8.569717e+01	-1.696035e+01
8.619215e+01	-1.700922e+01
8.669000e+01	-1.705977e+01
8.719071e+01	-1.710910e+01
8.769432e+01	-1.715726e+01
8.820084e+01	-1.720671e+01
8.871029e+01	-1.725483e+01
8.922267e+01	-1.730464e+01
8.973802e+01	-1.735417e+01
9.025634e+01	-1.740376e+01
9.077766e+01	-1.745236e+01
9.130199e+01	-1.749992e+01
9.182935e+01	-1.755111e+01
9.235975e+01	-1.760010e+01
9.289321e+01	-1.764672e+01
9.342976e+01	-1.769655e+01
9.396941e+01	-1.774507e+01
9.451217e+01	-1.779563e+01
9.505807e+01	-1.784515e+01
9.560712e+01	-1.789500e+01
9.615934e+01	-1.794381e+01
9.671476e+01	-1.799258e+01
9.727338e+01	-1.804165e+01
9.783522e+01	-1.809055e+01
9.840032e+01	-1.813995e+01
9.896867e+01	-1.819049e+01
9.954031e+01	-1.823884e+01
1.001153e+02	-1.828847e+01
1.006935e+02	-1.833828e+01
1.012751e+02	-1.838754e+01
1.018601e+02	-1.843625e+01
1.024484e+02	-1.848561e+01
1.030402e+02	-1.853582e+01
1.036353e+02	-1.858400e+01
1.042339e+02	-1.863299e+01
1.048360e+02	-1.868187e+01
1.054415e+02	-1.873359e+01
1.060505e+02	-1.878204e+01
1.066631e+02	-1.883092e+01
1.072791e+02	-1.887959e+01
1.078988e+02	-1.892945e+01
1.085220e+02	-1.897937e+01
1.091488e+02	-1.902957e+01
1.097793e+02	-1.907895e+01
1.104133e+02	-1.912715e+01
1.110511e+02	-1.917658e+01
1.116925e+02	-1.922643e+01
1.123376e+02	-1.927636e+01
1.129865e+02	-1.932577e+01
1.136391e+02	-1.937423e+01
1.142955e+02	-1.942397e+01
1.149556e+02	-1.947306e+01
1.156196e+02	-1.952259e+01
1.162874e+02	-1.957283e+01
1.169591e+02	-1.962297e+01
1.176347e+02	-1.967211e+01
1.183141e+02	-1.972087e+01
1.189975e+02	-1.977159e+01
1.196848e+02	-1.982062e+01
1.203761e+02	-1.986893e+01
1.210714e+02	-1.991915e+01
1.217707e+02	-1.996950e+01
1.224740e+02	-2.001737e+01
1.231814e+02	-2.006824e+01
1.238929e+02	-2.011716e+01
1.246085e+02	-2.016699e+01
1.253283e+02	-2.021612e+01
1.260522e+02	-2.026596e+01
1.267802e+02	-2.031532e+01
1.275125e+02	-2.036569e+01
1.282490e+02	-2.041305e+01
1.289898e+02	-2.046418e+01
1.297348e+02	-2.051449e+01
1.304842e+02	-2.056372e+01
1.312378e+02	-2.061373e+01
1.319959e+02	-2.066376e+01
1.327583e+02	-2.071263e+01
1.335251e+02	-2.076158e+01
1.342963e+02	-2.081035e+01
1.350720e+02	-2.086107e+01
1.358522e+02	-2.091102e+01
1.366368e+02	-2.096106e+01
1.374260e+02	-2.101064e+01
1.382198e+02	-2.106028e+01
1.390182e+02	-2.111119e+01
1.398211e+02	-2.115815e+01
1.406287e+02	-2.121046e+01
1.414410e+02	-2.125877e+01
1.422579e+02	-2.130780e+01
1.430796e+02	-2.135802e+01
1.439060e+02	-2.140629e+01
1.447372e+02	-2.145720e+01
1.455732e+02	-2.150734e+01
1.464141e+02	-2.155687e+01
1.472597e+02	-2.160642e+01
1.481103e+02	-2.165570e+01
1.489658e+02	-2.170515e+01
1.498262e+02	-2.175641e+01
1.506916e+02	-2.180335e+01
1.515620e+02	-2.185552e+01
1.524374e+02	-2.190332e+01
1.533179e+02	-2.195242e+01
1.542034e+02	-2.200267e+01
1.550941e+02	-2.205364e+01
1.559899e+02	-2.210270e+01
1.568909e+02	-2.215303e+01
1.577971e+02	-2.220053e+01
1.587085e+02	-2.225345e+01
1.596252e+02	-2.230157e+01
1.605472e+02	-2.235152e+01
1.614745e+02	-2.240126e+01
1.624072e+02	-2.245212e+01
1.633453e+02	-2.250244e+01
1.642887e+02	-2.254974e+01
1.652377e+02	-2.259828e+01
1.661921e+02	-2.265076e+01
1.671520e+02	-2.269852e+01
1.681175e+02	-2.274989e+01
1.690885e+02	-2.280081e+01
1.700651e+02	-2.284858e+01
1.710474e+02	-2.289944e+01
1.720354e+02	-2.294886e+01
1.730291e+02	-2.299868e+01
1.740285e+02	-2.304939e+01
1.750337e+02	-2.309720e+01
1.760446e+02	-2.314890e+01
1.770615e+02	-2.319643e+01
1.780842e+02	-2.324808e+01
1.791128e+02	-2.329805e+01
1.801473e+02	-2.334877e+01
1.811878e+02	-2.339620e+01
1.822344e+02	-2.344657e+01
1.832870e+02	-2.349819e+01
1.843456e+02	-2.354820e+01
1.854104e+02	-2.359662e+01
1.864813e+02	-2.364679e+01
1.875584e+02	-2.369867e+01
1.886418e+02	-2.374714e+01
1.897313e+02	-2.379707e+01
1.908272e+02	-2.384612e+01
1.919294e+02	-2.389699e+01
1.930380e+02	-2.394534e+01
1.941530e+02	-2.399472e+01
1.952744e+02	-2.404520e+01
1.964023e+02	-2.409437e+01
1.975367e+02	-2.414548e+01
1.986777e+02	-2.419265e+01
1.998252e+02	-2.424404e+01
2.009794e+02	-2.429361e+01
2.021403e+02	-2.434336e+01
2.033078e+02	-2.439271e+01
2.044821e+02	-2.444623e+01
2.056632e+02	-2.449227e+01
2.068511e+02	-2.454244e+01
2.080459e+02	-2.459652e+01
2.092475e+02	-2.464514e+01
2.104561e+02	-2.469525e+01
2.116717e+02	-2.474226e+01
2.128943e+02	-2.479283e+01
2.141240e+02	-2.484454e+01
2.153608e+02	-2.489375e+01
2.166047e+02	-2.494207e+01
2.178558e+02	-2.499364e+01
2.191141e+02	-2.504267e+01
2.203797e+02	-2.509213e+01
2.216526e+02	-2.514319e+01
2.229329e+02	-2.519572e+01
2.242205e+02	-2.524436e+01
2.255156e+02	-2.528983e+01
2.268182e+02	-2.534305e+01
2.281283e+02	-2.539071e+01
2.294459e+02	-2.544574e+01
2.307712e+02	-2.549408e+01
2.321041e+02	-2.554516e+01
2.334447e+02	-2.559055e+01
2.347931e+02	-2.564383e+01
2.361493e+02	-2.569357e+01
2.375133e+02	-2.574039e+01
2.388851e+02	-2.579081e+01
2.402649e+02	-2.584169e+01
2.416527e+02	-2.589369e+01
2.430484e+02	-2.594244e+01
2.444523e+02	-2.599296e+01
2.458642e+02	-2.604265e+01
2.472843e+02	-2.609245e+01
2.487126e+02	-2.614031e+01
2.501492e+02	-2.619015e+01
2.515940e+02	-2.624037e+01
2.530472e+02	-2.628985e+01
2.545088e+02	-2.634309e+01
2.559789e+02	-2.639092e+01
2.574574e+02	-2.644355e+01
2.589444e+02	-2.649086e+01
2.604401e+02	-2.654311e+01
2.619444e+02	-2.659425e+01
2.634574e+02	-2.664128e+01
2.649791e+02	-2.668752e+01
2.665096e+02	-2.674242e+01
2.680489e+02	-2.679351e+01
2.695972e+02	-2.684174e+01
2.711544e+02	-2.689065e+01
2.727205e+02	-2.693720e+01
2.742958e+02	-2.698993e+01
2.758801e+02	-2.704476e+01
2.774736e+02	-2.708995e+01
2.790762e+02	-2.714408e+01
2.806882e+02	-2.719115e+01
2.823094e+02	-2.724052e+01
2.839400e+02	-2.728925e+01
2.855800e+02	-2.734171e+01
2.872295e+02	-2.739175e+01
2.888886e+02	-2.743951e+01
2.905572e+02	-2.749050e+01
2.922354e+02	-2.754099e+01
2.939234e+02	-2.759310e+01
2.956211e+02	-2.764187e+01
2.973286e+02	-2.769376e+01
2.990459e+02	-2.774251e+01
3.007732e+02	-2.779164e+01
3.025104e+02	-2.784071e+01
3.042577e+02	-2.789186e+01
3.060151e+02	-2.793959e+01
3.077826e+02	-2.798822e+01
3.095604e+02	-2.804179e+01
3.113484e+02	-2.809475e+01
3.131467e+02	-2.814755e+01
3.149554e+02	-2.819309e+01
3.167746e+02	-2.824126e+01
3.186043e+02	-2.829496e+01
3.204445e+02	-2.834106e+01
3.222954e+02	-2.838892e+01
3.241570e+02	-2.844500e+01
3.260293e+02	-2.849134e+01
3.279124e+02	-2.854182e+01
3.298064e+02	-2.859375e+01
3.317114e+02	-2.863896e+01
3.336273e+02	-2.868932e+01
3.355544e+02	-2.874535e+01
3.374925e+02	-2.879396e+01
3.394418e+02	-2.884358e+01
3.414024e+02	-2.889355e+01
3.433744e+02	-2.893956e+01
3.453577e+02	-2.899020e+01
3.473525e+02	-2.904287e+01
3.493588e+02	-2.909491e+01
3.513766e+02	-2.913823e+01
3.534062e+02	-2.919380e+01
3.554474e+02	-2.924291e+01
3.575005e+02	-2.929568e+01
3.595654e+02	-2.934062e+01
3.616422e+02	-2.939369e+01
3.637311e+02	-2.944139e+01
3.658320e+02	-2.949436e+01
3.679450e+02	-2.954510e+01
3.700702e+02	-2.958968e+01
3.722077e+02	-2.964008e+01
3.743576e+02	-2.969510e+01
3.765199e+02	-2.974647e+01
3.786946e+02	-2.979298e+01
3.808820e+02	-2.984002e+01
3.830819e+02	-2.989415e+01
3.852946e+02	-2.994348e+01
3.875200e+02	-2.999407e+01
3.897583e+02	-3.004416e+01
3.920096e+02	-3.009260e+01
3.942738e+02	-3.014136e+01
3.965511e+02	-3.019355e+01
3.988416e+02	-3.024290e+01
4.011452e+02	-3.029568e+01
4.034622e+02	-3.034908e+01
4.057926e+02	-3.039774e+01
4.081365e+02	-3.043971e+01
4.104938e+02	-3.049940e+01
4.128648e+02	-3.055056e+01
4.152495e+02	-3.059427e+01
4.176480e+02	-3.064463e+01
4.200603e+02	-3.069766e+01
4.224866e+02	-3.074769e+01
4.249268e+02	-3.079351e+01
4.273812e+02	-3.084487e+01
4.298497e+02	-3.089494e+01
4.323325e+02	-3.094637e+01
4.348297e+02	-3.099975e+01
4.373412e+02	-3.104604e+01
4.398673e+02	-3.110096e+01
4.424079e+02	-3.114534e+01
4.449633e+02	-3.119209e+01
4.475334e+02	-3.125085e+01
4.501183e+02	-3.129677e+01
4.527182e+02	-3.134954e+01
4.553330e+02	-3.140331e+01
4.579630e+02	-3.144971e+01
4.606082e+02	-3.150552e+01
4.632687e+02	-3.155109e+01
4.659445e+02	-3.160222e+01
4.686358e+02	-3.165312e+01
4.713426e+02	-3.170107e+01
4.740650e+02	-3.174818e+01
4.768032e+02	-3.180482e+01
4.795572e+02	-3.185048e+01
4.823271e+02	-3.189589e+01
4.851130e+02	-3.195017e+01
4.879150e+02	-3.200437e+01
4.907332e+02	-3.204612e+01
4.935676e+02	-3.209301e+01
4.964185e+02	-3.214792e+01
4.992858e+02	-3.220068e+01
5.021696e+02	-3.225791e+01
5.050701e+02	-3.229750e+01
5.079874e+02	-3.235100e+01
5.109215e+02	-3.240120e+01
5.138726e+02	-3.245825e+01
5.168407e+02	-3.250490e+01
5.198259e+02	-3.254890e+01
5.228284e+02	-3.259571e+01
5.258482e+02	-3.265511e+01
5.288855e+02	-3.270653e+01
5.319403e+02	-3.275674e+01
5.350128e+02	-3.279903e+01
5.381030e+02	-3.285663e+01
5.412111e+02	-3.290248e+01
5.443371e+02	-3.295496e+01
5.474812e+02	-3.299922e+01
5.506434e+02	-3.305875e+01
5.538239e+02	-3.310166e+01
5.570228e+02	-3.315257e+01
5.602401e+02	-3.320440e+01
5.634760e+02	-3.325633e+01
5.667306e+02	-3.329444e+01
5.700040e+02	-3.335767e+01
5.732964e+02	-3.340629e+01
5.766077e+02	-3.345204e+01
5.799382e+02	-3.351239e+01
5.832879e+02	-3.355732e+01
5.866569e+02	-3.360680e+01
5.900454e+02	-3.366312e+01
5.934535e+02	-3.370938e+01
5.968813e+02	-3.376260e+01
6.003288e+02	-3.381215e+01
6.037963e+02	-3.386145e+01
6.072838e+02	-3.391098e+01
6.107914e+02	-3.395928e+01
6.143194e+02	-3.400895e+01
6.178676e+02	-3.405922e+01
6.214364e+02	-3.410928e+01
6.250258e+02	-3.416124e+01
6.286359e+02	-3.421794e+01
6.322669e+02	-3.426368e+01
6.359189e+02	-3.431648e+01
6.395919e+02	-3.436002e+01
6.432862e+02	-3.441144e+01
6.470017e+02	-3.445586e+01
6.507388e+02	-3.451419e+01
6.544974e+02	-3.456218e+01
6.582778e+02	-3.460719e+01
6.620800e+02	-3.466315e+01
6.659041e+02	-3.471086e+01
6.697504e+02	-3.476684e+01
6.736188e+02	-3.481857e+01
6.775096e+02	-3.486168e+01
6.814229e+02	-3.491811e+01
6.853587e+02	-3.495979e+01
6.893173e+02	-3.501532e+01
6.932988e+02	-3.505989e+01
6.973033e+02	-3.512162e+01
7.013309e+02	-3.517313e+01
