Frequency(Hz)	Magnitude(dB)
1.000000e+01	-2.180627e+00
1.005776e+01	-2.200440e+00
1.011585e+01	-2.220207e+00
1.017428e+01	-2.240372e+00
1.023305e+01	-2.260669e+00
1.029215e+01	-2.280961e+00
1.035160e+01	-2.301641e+00
1.041139e+01	-2.322026e+00
1.047153e+01	-2.342930e+00
1.053201e+01	-2.363881e+00
1.059284e+01	-2.385088e+00
1.065403e+01	-2.406316e+00
1.071556e+01	-2.427532e+00
1.077746e+01	-2.449204e+00
1.083971e+01	-2.470631e+00
1.090232e+01	-2.492356e+00
1.096529e+01	-2.514403e+00
1.102862e+01	-2.536427e+00
1.109232e+01	-2.558794e+00
1.115639e+01	-2.581081e+00
1.122083e+01	-2.603554e+00
1.128564e+01	-2.626233e+00
1.135083e+01	-2.648812e+00
1.141639e+01	-2.671903e+00
1.148233e+01	-2.694940e+00
1.154865e+01	-2.717947e+00
1.161536e+01	-2.741278e+00
1.168245e+01	-2.764983e+00
1.174992e+01	-2.788511e+00
1.181779e+01	-2.812424e+00
1.188605e+01	-2.836427e+00
1.195470e+01	-2.860383e+00
1.202375e+01	-2.884317e+00
1.209320e+01	-2.909002e+00
1.216305e+01	-2.933321e+00
1.223330e+01	-2.957812e+00
1.230396e+01	-2.982570e+00
1.237503e+01	-3.007404e+00
1.244651e+01	-3.032857e+00
1.251840e+01	-3.057926e+00
1.259070e+01	-3.083190e+00
1.266343e+01	-3.108861e+00
1.273657e+01	-3.134390e+00
1.281014e+01	-3.160245e+00
1.288413e+01	-3.185985e+00
1.295855e+01	-3.212452e+00
1.303339e+01	-3.238504e+00
1.310867e+01	-3.264769e+00
1.318439e+01	-3.291480e+00
1.326054e+01	-3.317857e+00
1.333713e+01	-3.345073e+00
1.341417e+01	-3.371640e+00
1.349165e+01	-3.399073e+00
1.356958e+01	-3.426127e+00
1.364795e+01	-3.453403e+00
1.372678e+01	-3.480746e+00
1.380607e+01	-3.508627e+00
1.388581e+01	-3.536434e+00
1.396602e+01	-3.564432e+00
1.404668e+01	-3.592348e+00
1.412782e+01	-3.620278e+00
1.420942e+01	-3.649033e+00
1.429149e+01	-3.677506e+00
1.437404e+01	-3.706034e+00
1.445706e+01	-3.734975e+00
1.454057e+01	-3.763783e+00
1.462455e+01	-3.793230e+00
1.470902e+01	-3.822075e+00
1.479398e+01	-3.851584e+00
1.487943e+01	-3.880830e+00
1.496537e+01	-3.910689e+00
1.505181e+01	-3.940239e+00
1.513875e+01	-3.970139e+00
1.522619e+01	-4.000195e+00
1.531414e+01	-4.030579e+00
1.540259e+01	-4.060650e+00
1.549156e+01	-4.091211e+00
1.558103e+01	-4.121998e+00
1.567103e+01	-4.152430e+00
1.576155e+01	-4.183305e+00
1.585258e+01	-4.214380e+00
1.594415e+01	-4.245500e+00
1.603624e+01	-4.276700e+00
1.612886e+01	-4.308167e+00
1.622202e+01	-4.339766e+00
1.631572e+01	-4.371474e+00
1.640996e+01	-4.403448e+00
1.650474e+01	-4.435226e+00
1.660008e+01	-4.467352e+00
1.669596e+01	-4.499562e+00
1.679239e+01	-4.531620e+00
1.688938e+01	-4.564339e+00
1.698694e+01	-4.596969e+00
1.708505e+01	-4.629783e+00
1.718373e+01	-4.662432e+00
1.728299e+01	-4.695497e+00
1.738281e+01	-4.728575e+00
1.748322e+01	-4.761948e+00
1.758420e+01	-4.795399e+00
1.768576e+01	-4.828707e+00
1.778792e+01	-4.862278e+00
1.789066e+01	-4.896040e+00
1.799399e+01	-4.930064e+00
1.809793e+01	-4.963937e+00
1.820246e+01	-4.998056e+00
1.830760e+01	-5.032325e+00
1.841334e+01	-5.066611e+00
1.851969e+01	-5.101468e+00
1.862666e+01	-5.136080e+00
1.873425e+01	-5.170563e+00
1.884246e+01	-5.205648e+00
1.895129e+01	-5.240470e+00
1.906075e+01	-5.275708e+00
1.917085e+01	-5.311072e+00
1.928158e+01	-5.346520e+00
1.939295e+01	-5.381919e+00
1.950496e+01	-5.417328e+00
1.961762e+01	-5.453111e+00
1.973093e+01	-5.488710e+00
1.984490e+01	-5.525117e+00
1.995952e+01	-5.560808e+00
2.007480e+01	-5.597238e+00
2.019076e+01	-5.633706e+00
2.030738e+01	-5.670128e+00
2.042467e+01	-5.706497e+00
2.054264e+01	-5.742883e+00
2.066130e+01	-5.779639e+00
2.078064e+01	-5.816799e+00
2.090066e+01	-5.853528e+00
2.102139e+01	-5.890690e+00
2.114280e+01	-5.927818e+00
2.126492e+01	-5.964938e+00
2.138775e+01	-6.002439e+00
2.151128e+01	-6.039918e+00
2.163553e+01	-6.077298e+00
2.176050e+01	-6.115337e+00
2.188619e+01	-6.153099e+00
2.201260e+01	-6.190865e+00
2.213974e+01	-6.229383e+00
2.226762e+01	-6.267279e+00
2.239624e+01	-6.305685e+00
2.252560e+01	-6.344264e+00
2.265571e+01	-6.382446e+00
2.278656e+01	-6.421175e+00
2.291818e+01	-6.459475e+00
2.305055e+01	-6.498472e+00
2.318369e+01	-6.537336e+00
2.331760e+01	-6.576529e+00
2.345228e+01	-6.615060e+00
2.358774e+01	-6.655026e+00
2.372398e+01	-6.693566e+00
2.386101e+01	-6.733202e+00
2.399883e+01	-6.773125e+00
2.413745e+01	-6.812228e+00
2.427686e+01	-6.851954e+00
2.441709e+01	-6.891899e+00
2.455812e+01	-6.931432e+00
2.469997e+01	-6.971458e+00
2.484263e+01	-7.011413e+00
2.498612e+01	-7.051780e+00
2.513044e+01	-7.091487e+00
2.527559e+01	-7.132223e+00
2.542158e+01	-7.172858e+00
2.556842e+01	-7.213109e+00
2.571610e+01	-7.253506e+00
2.586463e+01	-7.294128e+00
2.601403e+01	-7.335078e+00
2.616428e+01	-7.375837e+00
2.631541e+01	-7.416623e+00
2.646740e+01	-7.457365e+00
2.662028e+01	-7.498891e+00
2.677404e+01	-7.539953e+00
2.692868e+01	-7.581040e+00
2.708422e+01	-7.622651e+00
2.724066e+01	-7.664032e+00
2.739800e+01	-7.705618e+00
2.755625e+01	-7.747115e+00
2.771541e+01	-7.788254e+00
2.787550e+01	-7.830408e+00
2.803650e+01	-7.872454e+00
2.819844e+01	-7.914240e+00
2.836131e+01	-7.955920e+00
2.852513e+01	-7.998200e+00
2.868989e+01	-8.040638e+00
2.885560e+01	-8.082781e+00
2.902227e+01	-8.124747e+00
2.918990e+01	-8.167241e+00
2.935850e+01	-8.209629e+00
2.952807e+01	-8.251985e+00
2.969863e+01	-8.294461e+00
2.987016e+01	-8.337378e+00
3.004269e+01	-8.380349e+00
3.021622e+01	-8.422897e+00
3.039075e+01	-8.465706e+00
3.056628e+01	-8.508027e+00
3.074283e+01	-8.552109e+00
3.092040e+01	-8.594819e+00
3.109900e+01	-8.637841e+00
3.127862e+01	-8.680993e+00
3.145929e+01	-8.724420e+00
3.164099e+01	-8.768062e+00
3.182375e+01	-8.811339e+00
3.200756e+01	-8.854909e+00
3.219244e+01	-8.898476e+00
3.237838e+01	-8.941740e+00
3.256540e+01	-8.985556e+00
3.275349e+01	-9.029419e+00
3.294268e+01	-9.072841e+00
3.313295e+01	-9.116881e+00
3.332433e+01	-9.161002e+00
3.351681e+01	-9.204685e+00
3.371040e+01	-9.249329e+00
3.390511e+01	-9.292756e+00
3.410094e+01	-9.337133e+00
3.429791e+01	-9.381560e+00
3.449601e+01	-9.425766e+00
3.469526e+01	-9.469956e+00
3.489566e+01	-9.513877e+00
3.509721e+01	-9.558618e+00
3.529993e+01	-9.603173e+00
3.550382e+01	-9.647958e+00
3.570889e+01	-9.692502e+00
3.591515e+01	-9.736972e+00
3.612259e+01	-9.781399e+00
3.633123e+01	-9.826904e+00
3.654108e+01	-9.871643e+00
3.675214e+01	-9.916063e+00
3.696442e+01	-9.961334e+00
3.717792e+01	-1.000617e+01
3.739266e+01	-1.005194e+01
3.760864e+01	-1.009686e+01
3.782587e+01	-1.014204e+01
3.804435e+01	-1.018722e+01
3.826409e+01	-1.023253e+01
3.848510e+01	-1.027718e+01
3.870739e+01	-1.032291e+01
3.893096e+01	-1.036850e+01
3.915583e+01	-1.041323e+01
3.938199e+01	-1.045970e+01
3.960946e+01	-1.050540e+01
3.983824e+01	-1.055063e+01
4.006834e+01	-1.059620e+01
4.029978e+01	-1.064181e+01
4.053255e+01	-1.068803e+01
4.076666e+01	-1.073402e+01
4.100213e+01	-1.077893e+01
4.123896e+01	-1.082514e+01
4.147715e+01	-1.087054e+01
4.171672e+01	-1.091685e+01
4.195767e+01	-1.096315e+01
4.220002e+01	-1.100908e+01
4.244377e+01	-1.105502e+01
4.268892e+01	-1.110123e+01
4.293549e+01	-1.114751e+01
4.318348e+01	-1.119343e+01
4.343291e+01	-1.123951e+01
4.368377e+01	-1.128652e+01
4.393609e+01	-1.133221e+01
4.418986e+01	-1.137882e+01
4.444510e+01	-1.142534e+01
4.470182e+01	-1.147058e+01
4.496001e+01	-1.151816e+01
4.521970e+01	-1.156428e+01
4.548089e+01	-1.161105e+01
4.574358e+01	-1.165746e+01
4.600779e+01	-1.170502e+01
4.627353e+01	-1.175106e+01
4.654081e+01	-1.179739e+01
4.680963e+01	-1.184417e+01
4.708000e+01	-1.189107e+01
4.735193e+01	-1.193829e+01
4.762543e+01	-1.198514e+01
4.790051e+01	-1.203175e+01
4.817719e+01	-1.207820e+01
4.845545e+01	-1.212562e+01
4.873533e+01	-1.217241e+01
4.901682e+01	-1.221867e+01
4.929994e+01	-1.226616e+01
4.958470e+01	-1.231300e+01
4.987110e+01	-1.236081e+01
5.015915e+01	-1.240788e+01
5.044887e+01	-1.245507e+01
5.074026e+01	-1.250195e+01
5.103333e+01	-1.254950e+01
5.132810e+01	-1.259632e+01
5.162457e+01	-1.264423e+01
5.192275e+01	-1.269078e+01
5.222265e+01	-1.273854e+01
5.252429e+01	-1.278570e+01
5.282767e+01	-1.283320e+01
5.313280e+01	-1.288100e+01
5.343969e+01	-1.292862e+01
5.374836e+01	-1.297588e+01
5.405880e+01	-1.302334e+01
5.437105e+01	-1.307110e+01
5.468509e+01	-1.311890e+01
5.500095e+01	-1.316640e+01
5.531863e+01	-1.321365e+01
5.563815e+01	-1.326155e+01
5.595951e+01	-1.330855e+01
5.628273e+01	-1.335708e+01
5.660782e+01	-1.340449e+01
5.693479e+01	-1.345246e+01
5.726364e+01	-1.350070e+01
5.759439e+01	-1.354795e+01
5.792705e+01	-1.359559e+01
5.826164e+01	-1.364352e+01
5.859815e+01	-1.369144e+01
5.893662e+01	-1.373960e+01
5.927703e+01	-1.378685e+01
5.961941e+01	-1.383565e+01
5.996377e+01	-1.388311e+01
6.031012e+01	-1.393099e+01
6.065847e+01	-1.397911e+01
6.100883e+01	-1.402673e+01
6.136121e+01	-1.407567e+01
6.171563e+01	-1.412376e+01
6.207210e+01	-1.417102e+01
6.243063e+01	-1.421933e+01
6.279122e+01	-1.426750e+01
6.315390e+01	-1.431600e+01
6.351868e+01	-1.436385e+01
6.388556e+01	-1.441152e+01
6.425456e+01	-1.446022e+01
6.462569e+01	-1.450806e+01
6.499897e+01	-1.455695e+01
6.537440e+01	-1.460521e+01
6.575200e+01	-1.465392e+01
6.613178e+01	-1.470283e+01
6.651375e+01	-1.475095e+01
6.689793e+01	-1.479860e+01
6.728433e+01	-1.484682e+01
6.767297e+01	-1.489566e+01
6.806384e+01	-1.494421e+01
6.845698e+01	-1.499239e+01
6.885238e+01	-1.504081e+01
6.925007e+01	-1.508846e+01
6.965005e+01	-1.513728e+01
7.005235e+01	-1.518612e+01
7.045697e+01	-1.523433e+01
7.086393e+01	-1.528322e+01
7.127323e+01	-1.533164e+01
7.168490e+01	-1.537969e+01
7.209895e+01	-1.542915e+01
7.251539e+01	-1.547825e+01
7.293424e+01	-1.552611e+01
7.335551e+01	-1.557376e+01
7.377920e+01	-1.562321e+01
7.420535e+01	-1.567078e+01
7.463396e+01	-1.572107e+01
7.506504e+01	-1.576951e+01
7.549861e+01	-1.581794e+01
7.593469e+01	-1.586737e+01
7.637328e+01	-1.591502e+01
7.681441e+01	-1.596404e+01
7.725809e+01	-1.601359e+01
7.770433e+01	-1.606121e+01
7.815315e+01	-1.611009e+01
7.860456e+01	-1.615945e+01
7.905857e+01	-1.620846e+01
7.951521e+01	-1.625737e+01
7.997449e+01	-1.630629e+01
8.043642e+01	-1.635524e+01
8.090102e+01	-1.640415e+01
8.136830e+01	-1.645317e+01
8.183828e+01	-1.650139e+01
8.231097e+01	-1.655036e+01
8.278640e+01	-1.659994e+01
8.326457e+01	-1.664910e+01
8.374550e+01	-1.669626e+01
8.422921e+01	-1.674594e+01
8.471572e+01	-1.679595e+01
8.520503e+01	-1.684455e+01
8.569717e+01	-1.689260e+01
8.619215e+01	-1.694196e+01
8.669000e+01	-1.699104e+01
8.719071e+01	-1.703999e+01
8.769432e+01	-1.708975e+01
8.820084e+01	-1.713850e+01
8.871029e+01	-1.718772e+01
8.922267e+01	-1.723628e+01
8.973802e+01	-1.728573e+01
9.025634e+01	-1.733520e+01
9.077766e+01	-1.738382e+01
9.130199e+01	-1.743301e+01
9.182935e+01	-1.748220e+01
9.235975e+01	-1.753110e+01
9.289321e+01	-1.758079e+01
9.342976e+01	-1.762901e+01
9.396941e+01	-1.767911e+01
9.451217e+01	-1.772815e+01
9.505807e+01	-1.777763e+01
9.560712e+01	-1.782601e+01
9.615934e+01	-1.787553e+01
9.671476e+01	-1.792509e+01
9.727338e+01	-1.797519e+01
9.783522e+01	-1.802333e+01
9.840032e+01	-1.806970e+01
9.896867e+01	-1.812210e+01
9.954031e+01	-1.817156e+01
1.001153e+02	-1.822043e+01
1.006935e+02	-1.827080e+01
1.012751e+02	-1.831870e+01
1.018601e+02	-1.836934e+01
1.024484e+02	-1.841783e+01
1.030402e+02	-1.846790e+01
1.036353e+02	-1.851571e+01
1.042339e+02	-1.856563e+01
1.048360e+02	-1.861567e+01
1.054415e+02	-1.866375e+01
1.060505e+02	-1.871318e+01
1.066631e+02	-1.876247e+01
1.072791e+02	-1.881312e+01
1.078988e+02	-1.886211e+01
1.085220e+02	-1.891252e+01
1.091488e+02	-1.896065e+01
1.097793e+02	-1.901064e+01
1.104133e+02	-1.905853e+01
1.110511e+02	-1.910824e+01
1.116925e+02	-1.915819e+01
1.123376e+02	-1.920672e+01
1.129865e+02	-1.925714e+01
1.136391e+02	-1.930762e+01
1.142955e+02	-1.935708e+01
1.149556e+02	-1.940582e+01
1.156196e+02	-1.945336e+01
1.162874e+02	-1.950408e+01
1.169591e+02	-1.955434e+01
1.176347e+02	-1.960289e+01
1.183141e+02	-1.965374e+01
1.189975e+02	-1.970264e+01
1.196848e+02	-1.975090e+01
1.203761e+02	-1.980053e+01
1.210714e+02	-1.985083e+01
1.217707e+02	-1.989967e+01
1.224740e+02	-1.995146e+01
1.231814e+02	-1.999990e+01
1.238929e+02	-2.005060e+01
1.246085e+02	-2.009817e+01
1.253283e+02	-2.014870e+01
1.260522e+02	-2.019796e+01
1.267802e+02	-2.024764e+01
1.275125e+02	-2.029546e+01
1.282490e+02	-2.034469e+01
1.289898e+02	-2.039710e+01
1.297348e+02	-2.044472e+01
1.304842e+02	-2.049479e+01
1.312378e+02	-2.054619e+01
1.319959e+02	-2.059468e+01
1.327583e+02	-2.064435e+01
1.335251e+02	-2.069294e+01
1.342963e+02	-2.074133e+01
1.350720e+02	-2.079197e+01
1.358522e+02	-2.084490e+01
1.366368e+02	-2.089129e+01
1.374260e+02	-2.094103e+01
1.382198e+02	-2.098981e+01
1.390182e+02	-2.103875e+01
1.398211e+02	-2.109005e+01
1.406287e+02	-2.113955e+01
1.414410e+02	-2.118926e+01
1.422579e+02	-2.124008e+01
1.430796e+02	-2.128817e+01
1.439060e+02	-2.133949e+01
1.447372e+02	-2.138921e+01
1.455732e+02	-2.143859e+01
1.464141e+02	-2.148913e+01
1.472597e+02	-2.153917e+01
1.481103e+02	-2.158858e+01
1.489658e+02	-2.163952e+01
1.498262e+02	-2.168751e+01
1.506916e+02	-2.173688e+01
1.515620e+02	-2.178482e+01
1.524374e+02	-2.183555e+01
1.533179e+02	-2.188523e+01
1.542034e+02	-2.193603e+01
1.550941e+02	-2.198657e+01
1.559899e+02	-2.203403e+01
1.568909e+02	-2.208213e+01
1.577971e+02	-2.213310e+01
1.587085e+02	-2.218103e+01
1.596252e+02	-2.223410e+01
1.605472e+02	-2.228302e+01
1.614745e+02	-2.233252e+01
1.624072e+02	-2.238392e+01
1.633453e+02	-2.243272e+01
1.642887e+02	-2.248310e+01
1.652377e+02	-2.253146e+01
1.661921e+02	-2.258354e+01
1.671520e+02	-2.263073e+01
1.681175e+02	-2.268279e+01
1.690885e+02	-2.273273e+01
1.700651e+02	-2.277938e+01
1.710474e+02	-2.283283e+01
1.720354e+02	-2.288028e+01
1.730291e+02	-2.293110e+01
1.740285e+02	-2.298049e+01
1.750337e+02	-2.302916e+01
1.760446e+02	-2.308046e+01
1.770615e+02	-2.312995e+01
1.780842e+02	-2.317685e+01
1.791128e+02	-2.323068e+01
1.801473e+02	-2.327994e+01
1.811878e+02	-2.332935e+01
1.822344e+02	-2.337835e+01
1.832870e+02	-2.342707e+01
1.843456e+02	-2.347738e+01
1.854104e+02	-2.352633e+01
1.864813e+02	-2.357840e+01
1.875584e+02	-2.362797e+01
1.886418e+02	-2.367663e+01
1.897313e+02	-2.372705e+01
1.908272e+02	-2.377714e+01
1.919294e+02	-2.382936e+01
1.930380e+02	-2.387495e+01
1.941530e+02	-2.392637e+01
1.952744e+02	-2.397700e+01
1.964023e+02	-2.402665e+01
1.975367e+02	-2.407505e+01
1.986777e+02	-2.412540e+01
1.998252e+02	-2.417388e+01
2.009794e+02	-2.422671e+01
2.021403e+02	-2.427516e+01
2.033078e+02	-2.432533e+01
2.044821e+02	-2.437209e+01
2.056632e+02	-2.442616e+01
2.068511e+02	-2.447848e+01
2.080459e+02	-2.452500e+01
2.092475e+02	-2.457407e+01
2.104561e+02	-2.462478e+01
2.116717e+02	-2.467742e+01
2.128943e+02	-2.472341e+01
2.141240e+02	-2.477621e+01
2.153608e+02	-2.482543e+01
2.166047e+02	-2.487430e+01
2.178558e+02	-2.492521e+01
2.191141e+02	-2.497504e+01
2.203797e+02	-2.502401e+01
2.216526e+02	-2.507392e+01
2.229329e+02	-2.512154e+01
2.242205e+02	-2.517505e+01
2.255156e+02	-2.522443e+01
2.268182e+02	-2.527058e+01
2.281283e+02	-2.532369e+01
2.294459e+02	-2.537153e+01
2.307712e+02	-2.542164e+01
2.321041e+02	-2.547672e+01
2.334447e+02	-2.552162e+01
2.347931e+02	-2.557703e+01
2.361493e+02	-2.562108e+01
2.375133e+02	-2.567076e+01
2.388851e+02	-2.572471e+01
2.402649e+02	-2.577721e+01
2.416527e+02	-2.582597e+01
2.430484e+02	-2.587022e+01
2.444523e+02	-2.592302e+01
2.458642e+02	-2.597435e+01
2.472843e+02	-2.602452e+01
2.487126e+02	-2.607172e+01
2.501492e+02	-2.612170e+01
2.515940e+02	-2.617340e+01
2.530472e+02	-2.622558e+01
2.545088e+02	-2.627698e+01
2.559789e+02	-2.632059e+01
2.574574e+02	-2.637228e+01
2.589444e+02	-2.642395e+01
2.604401e+02	-2.647685e+01
2.619444e+02	-2.652554e+01
2.634574e+02	-2.657155e+01
2.649791e+02	-2.662262e+01
2.665096e+02	-2.667115e+01
2.680489e+02	-2.672089e+01
2.695972e+02	-2.677049e+01
2.711544e+02	-2.681994e+01
2.727205e+02	-2.687597e+01
2.742958e+02	-2.692182e+01
2.758801e+02	-2.697166e+01
2.774736e+02	-2.702238e+01
2.790762e+02	-2.707437e+01
2.806882e+02	-2.712105e+01
2.823094e+02	-2.717290e+01
2.839400e+02	-2.721981e+01
2.855800e+02	-2.727165e+01
2.872295e+02	-2.732317e+01
2.888886e+02	-2.736604e+01
2.905572e+02	-2.742222e+01
2.922354e+02	-2.747649e+01
2.939234e+02	-2.752508e+01
2.956211e+02	-2.757003e+01
2.973286e+02	-2.762236e+01
2.990459e+02	-2.767273e+01
3.007732e+02	-2.772169e+01
3.025104e+02	-2.777456e+01
3.042577e+02	-2.782449e+01
3.060151e+02	-2.787417e+01
3.077826e+02	-2.792542e+01
3.095604e+02	-2.797286e+01
3.113484e+02	-2.802080e+01
3.131467e+02	-2.807097e+01
3.149554e+02	-2.812397e+01
3.167746e+02	-2.817270e+01
3.186043e+02	-2.822045e+01
3.204445e+02	-2.827255e+01
3.222954e+02	-2.832202e+01
3.241570e+02	-2.837208e+01
3.260293e+02	-2.842191e+01
3.279124e+02	-2.847443e+01
3.298064e+02	-2.852554e+01
3.317114e+02	-2.857219e+01
3.336273e+02	-2.862516e+01
3.355544e+02	-2.867216e+01
3.374925e+02	-2.872457e+01
3.394418e+02	-2.877548e+01
3.414024e+02	-2.882661e+01
3.433744e+02	-2.887370e+01
3.453577e+02	-2.892159e+01
3.473525e+02	-2.896765e+01
3.493588e+02	-2.902309e+01
3.513766e+02	-2.907641e+01
3.534062e+02	-2.912535e+01
3.554474e+02	-2.917375e+01
3.575005e+02	-2.922353e+01
3.595654e+02	-2.926614e+01
3.616422e+02	-2.932286e+01
3.637311e+02	-2.937199e+01
3.658320e+02	-2.942358e+01
3.679450e+02	-2.947493e+01
3.700702e+02	-2.952271e+01
3.722077e+02	-2.957449e+01
3.743576e+02	-2.962449e+01
3.765199e+02	-2.967452e+01
3.786946e+02	-2.972344e+01
3.808820e+02	-2.977446e+01
3.830819e+02	-2.982252e+01
3.852946e+02	-2.987740e+01
3.875200e+02	-2.992065e+01
3.897583e+02	-2.997673e+01
3.920096e+02	-3.002587e+01
3.942738e+02	-3.007248e+01
3.965511e+02	-3.012451e+01
3.988416e+02	-3.017363e+01
4.011452e+02	-3.021802e+01
4.034622e+02	-3.026943e+01
4.057926e+02	-3.032911e+01
4.081365e+02	-3.037876e+01
4.104938e+02	-3.042565e+01
4.128648e+02	-3.047609e+01
4.152495e+02	-3.052883e+01
4.176480e+02	-3.057152e+01
4.200603e+02	-3.062560e+01
4.224866e+02	-3.067834e+01
4.249268e+02	-3.072651e+01
4.273812e+02	-3.077766e+01
4.298497e+02	-3.082381e+01
4.323325e+02	-3.087652e+01
4.348297e+02	-3.092967e+01
4.373412e+02	-3.097789e+01
4.398673e+02	-3.103242e+01
4.424079e+02	-3.107724e+01
4.449633e+02	-3.112380e+01
4.475334e+02	-3.117898e+01
4.501183e+02	-3.123026e+01
4.527182e+02	-3.128210e+01
4.553330e+02	-3.132330e+01
4.579630e+02	-3.137932e+01
4.606082e+02	-3.143089e+01
4.632687e+02	-3.147852e+01
4.659445e+02	-3.152893e+01
4.686358e+02	-3.158009e+01
4.713426e+02	-3.162949e+01
4.740650e+02	-3.168917e+01
4.768032e+02	-3.173067e+01
4.795572e+02	-3.177625e+01
4.823271e+02	-3.182796e+01
4.851130e+02	-3.187909e+01
4.879150e+02	-3.193416e+01
4.907332e+02	-3.198020e+01
4.935676e+02	-3.202900e+01
4.964185e+02	-3.208753e+01
4.992858e+02	-3.213827e+01
5.021696e+02	-3.218056e+01
5.050701e+02	-3.223485e+01
5.079874e+02	-3.228195e+01
5.109215e+02	-3.232995e+01
5.138726e+02	-3.238242e+01
5.168407e+02	-3.243560e+01
5.198259e+02	-3.248054e+01
5.228284e+02	-3.252798e+01
5.258482e+02	-3.258139e+01
5.288855e+02	-3.263246e+01
5.319403e+02	-3.268418e+01
5.350128e+02	-3.273173e+01
5.381030e+02	-3.278627e+01
5.412111e+02	-3.283417e+01
5.443371e+02	-3.288520e+01
5.474812e+02	-3.293178e+01
5.506434e+02	-3.298550e+01
5.538239e+02	-3.303581e+01
5.570228e+02	-3.308713e+01
5.602401e+02	-3.313000e+01
5.634760e+02	-3.318868e+01
5.667306e+02	-3.323526e+01
5.700040e+02	-3.328985e+01
5.732964e+02	-3.333093e+01
5.766077e+02	-3.338546e+01
5.799382e+02	-3.344025e+01
5.832879e+02	-3.348043e+01
5.866569e+02	-3.354048e+01
5.900454e+02	-3.358608e+01
5.934535e+02	-3.363824e+01
5.968813e+02	-3.369192e+01
6.003288e+02	-3.373444e+01
6.037963e+02	-3.378888e+01
6.072838e+02	-3.383834e+01
6.107914e+02	-3.389285e+01
6.143194e+02	-3.393946e+01
6.178676e+02	-3.399517e+01
6.214364e+02	-3.404069e+01
6.250258e+02	-3.409001e+01
6.286359e+02	-3.413651e+01
6.322669e+02	-3.419113e+01
6.359189e+02	-3.424546e+01
6.395919e+02	-3.429463e+01
6.432862e+02	-3.434628e+01
6.470017e+02	-3.439886e+01
6.507388e+02	-3.444913e+01
6.544974e+02	-3.449787e+01
6.582778e+02	-3.454482e+01
6.620800e+02	-3.459996e+01
6.659041e+02	-3.464138e+01
6.697504e+02	-3.469936e+01
6.736188e+02	-3.474916e+01
6.775096e+02	-3.478832e+01
6.814229e+02	-3.484263e+01
6.853587e+02	-3.490431e+01
6.893173e+02	-3.495043e+01
6.932988e+02	-3.498960e+01
6.973033e+02	-3.505235e+01
7.013309e+02	-3.510248e+01
