Frequency(Hz)	Magnitude(dB)
1.000000e+01	-1.446757e-05
1.005776e+01	-1.463518e-05
1.011585e+01	-1.480473e-05
1.017428e+01	-1.497625e-05
1.023305e+01	-1.514975e-05
1.029215e+01	-1.532527e-05
1.035160e+01	-1.550282e-05
1.041139e+01	-1.568242e-05
1.047153e+01	-1.586410e-05
1.053201e+01	-1.604789e-05
1.059284e+01	-1.623381e-05
1.065403e+01	-1.642189e-05
1.071556e+01	-1.661214e-05
1.077746e+01	-1.680459e-05
1.083971e+01	-1.699928e-05
1.090232e+01	-1.719622e-05
1.096529e+01	-1.739544e-05
1.102862e+01	-1.759697e-05
1.109232e+01	-1.780084e-05
1.115639e+01	-1.800707e-05
1.122083e+01	-1.821568e-05
1.128564e+01	-1.842672e-05
1.135083e+01	-1.864019e-05
1.141639e+01	-1.885615e-05
1.148233e+01	-1.907460e-05
1.154865e+01	-1.929558e-05
1.161536e+01	-1.951913e-05
1.168245e+01	-1.974526e-05
1.174992e+01	-1.997402e-05
1.181779e+01	-2.020542e-05
1.188605e+01	-2.043950e-05
1.195470e+01	-2.067630e-05
1.202375e+01	-2.091584e-05
1.209320e+01	-2.115816e-05
1.216305e+01	-2.140328e-05
1.223330e+01	-2.165124e-05
1.230396e+01	-2.190208e-05
1.237503e+01	-2.215582e-05
1.244651e+01	-2.241250e-05
1.251840e+01	-2.267215e-05
1.259070e+01	-2.293482e-05
1.266343e+01	-2.320052e-05
1.273657e+01	-2.346930e-05
1.281014e+01	-2.374120e-05
1.288413e+01	-2.401625e-05
1.295855e+01	-2.429448e-05
1.303339e+01	-2.457594e-05
1.310867e+01	-2.486066e-05
1.318439e+01	-2.514868e-05
1.326054e+01	-2.544003e-05
1.333713e+01	-2.573476e-05
1.341417e+01	-2.603290e-05
1.349165e+01	-2.633450e-05
1.356958e+01	-2.663959e-05
1.364795e+01	-2.694822e-05
1.372678e+01	-2.726042e-05
1.380607e+01	-2.757624e-05
1.388581e+01	-2.789572e-05
1.396602e+01	-2.821889e-05
1.404668e+01	-2.854582e-05
1.412782e+01	-2.887653e-05
1.420942e+01	-2.921107e-05
1.429149e+01	-2.954949e-05
1.437404e+01	-2.989182e-05
1.445706e+01	-3.023813e-05
1.454057e+01	-3.058844e-05
1.462455e+01	-3.094282e-05
1.470902e+01	-3.130130e-05
1.479398e+01	-3.166393e-05
1.487943e+01	-3.203077e-05
1.496537e+01	-3.240185e-05
1.505181e+01	-3.277723e-05
1.513875e+01	-3.315696e-05
1.522619e+01	-3.354110e-05
1.531414e+01	-3.392968e-05
1.540259e+01	-3.432276e-05
1.549156e+01	-3.472040e-05
1.558103e+01	-3.512264e-05
1.567103e+01	-3.552955e-05
1.576155e+01	-3.594116e-05
1.585258e+01	-3.635755e-05
1.594415e+01	-3.677876e-05
1.603624e+01	-3.720485e-05
1.612886e+01	-3.763588e-05
1.622202e+01	-3.807190e-05
1.631572e+01	-3.851297e-05
1.640996e+01	-3.895915e-05
1.650474e+01	-3.941050e-05
1.660008e+01	-3.986708e-05
1.669596e+01	-4.032895e-05
1.679239e+01	-4.079617e-05
1.688938e+01	-4.126880e-05
1.698694e+01	-4.174691e-05
1.708505e+01	-4.223056e-05
1.718373e+01	-4.271981e-05
1.728299e+01	-4.321473e-05
1.738281e+01	-4.371538e-05
1.748322e+01	-4.422183e-05
1.758420e+01	-4.473415e-05
1.768576e+01	-4.525241e-05
1.778792e+01	-4.577667e-05
1.789066e+01	-4.630700e-05
1.799399e+01	-4.684348e-05
1.809793e+01	-4.738617e-05
1.820246e+01	-4.793515e-05
1.830760e+01	-4.849049e-05
1.841334e+01	-4.905226e-05
1.851969e+01	-4.962054e-05
1.862666e+01	-5.019540e-05
1.873425e+01	-5.077693e-05
1.884246e+01	-5.136519e-05
1.895129e+01	-5.196027e-05
1.906075e+01	-5.256224e-05
1.917085e+01	-5.317118e-05
1.928158e+01	-5.378718e-05
1.939295e+01	-5.441032e-05
1.950496e+01	-5.504067e-05
1.961762e+01	-5.567833e-05
1.973093e+01	-5.632337e-05
1.984490e+01	-5.697589e-05
1.995952e+01	-5.763597e-05
2.007480e+01	-5.830369e-05
2.019076e+01	-5.897915e-05
2.030738e+01	-5.966244e-05
2.042467e+01	-6.035364e-05
2.054264e+01	-6.105285e-05
2.066130e+01	-6.176016e-05
2.078064e+01	-6.247566e-05
2.090066e+01	-6.319945e-05
2.102139e+01	-6.393163e-05
2.114280e+01	-6.467229e-05
2.126492e+01	-6.542153e-05
2.138775e+01	-6.617945e-05
2.151128e+01	-6.694616e-05
2.163553e+01	-6.772174e-05
2.176050e+01	-6.850631e-05
2.188619e+01	-6.929997e-05
2.201260e+01	-7.010282e-05
2.213974e+01	-7.091497e-05
2.226762e+01	-7.173654e-05
2.239624e+01	-7.256762e-05
2.252560e+01	-7.340833e-05
2.265571e+01	-7.425878e-05
2.278656e+01	-7.511908e-05
2.291818e+01	-7.598935e-05
2.305055e+01	-7.686970e-05
2.318369e+01	-7.776024e-05
2.331760e+01	-7.866111e-05
2.345228e+01	-7.957241e-05
2.358774e+01	-8.049427e-05
2.372398e+01	-8.142681e-05
2.386101e+01	-8.237016e-05
2.399883e+01	-8.332443e-05
2.413745e+01	-8.428976e-05
2.427686e+01	-8.526627e-05
2.441709e+01	-8.625409e-05
2.455812e+01	-8.725336e-05
2.469997e+01	-8.826420e-05
2.484263e+01	-8.928676e-05
2.498612e+01	-9.032116e-05
2.513044e+01	-9.136754e-05
2.527559e+01	-9.242605e-05
2.542158e+01	-9.349682e-05
2.556842e+01	-9.458000e-05
2.571610e+01	-9.567572e-05
2.586463e+01	-9.678414e-05
2.601403e+01	-9.790540e-05
2.616428e+01	-9.903965e-05
2.631541e+01	-1.001870e-04
2.646740e+01	-1.013477e-04
2.662028e+01	-1.025218e-04
2.677404e+01	-1.037096e-04
2.692868e+01	-1.049111e-04
2.708422e+01	-1.061265e-04
2.724066e+01	-1.073560e-04
2.739800e+01	-1.085997e-04
2.755625e+01	-1.098578e-04
2.771541e+01	-1.111306e-04
2.787550e+01	-1.124180e-04
2.803650e+01	-1.137204e-04
2.819844e+01	-1.150379e-04
2.836131e+01	-1.163706e-04
2.852513e+01	-1.177188e-04
2.868989e+01	-1.190825e-04
2.885560e+01	-1.204621e-04
2.902227e+01	-1.218577e-04
2.918990e+01	-1.232694e-04
2.935850e+01	-1.246975e-04
2.952807e+01	-1.261422e-04
2.969863e+01	-1.276035e-04
2.987016e+01	-1.290818e-04
3.004269e+01	-1.305773e-04
3.021622e+01	-1.320900e-04
3.039075e+01	-1.336203e-04
3.056628e+01	-1.351683e-04
3.074283e+01	-1.367342e-04
3.092040e+01	-1.383183e-04
3.109900e+01	-1.399207e-04
3.127862e+01	-1.415417e-04
3.145929e+01	-1.431815e-04
3.164099e+01	-1.448403e-04
3.182375e+01	-1.465183e-04
3.200756e+01	-1.482157e-04
3.219244e+01	-1.499328e-04
3.237838e+01	-1.516698e-04
3.256540e+01	-1.534269e-04
3.275349e+01	-1.552043e-04
3.294268e+01	-1.570024e-04
3.313295e+01	-1.588213e-04
3.332433e+01	-1.606612e-04
3.351681e+01	-1.625225e-04
3.371040e+01	-1.644053e-04
3.390511e+01	-1.663100e-04
3.410094e+01	-1.682367e-04
3.429791e+01	-1.701857e-04
3.449601e+01	-1.721573e-04
3.469526e+01	-1.741518e-04
3.489566e+01	-1.761693e-04
3.509721e+01	-1.782102e-04
3.529993e+01	-1.802748e-04
3.550382e+01	-1.823633e-04
3.570889e+01	-1.844760e-04
3.591515e+01	-1.866131e-04
3.612259e+01	-1.887751e-04
3.633123e+01	-1.909620e-04
3.654108e+01	-1.931743e-04
3.675214e+01	-1.954123e-04
3.696442e+01	-1.976761e-04
3.717792e+01	-1.999662e-04
3.739266e+01	-2.022828e-04
3.760864e+01	-2.046262e-04
3.782587e+01	-2.069968e-04
3.804435e+01	-2.093949e-04
3.826409e+01	-2.118207e-04
3.848510e+01	-2.142747e-04
3.870739e+01	-2.167571e-04
3.893096e+01	-2.192682e-04
3.915583e+01	-2.218084e-04
3.938199e+01	-2.243780e-04
3.960946e+01	-2.269775e-04
3.983824e+01	-2.296070e-04
4.006834e+01	-2.322670e-04
4.029978e+01	-2.349578e-04
4.053255e+01	-2.376798e-04
4.076666e+01	-2.404333e-04
4.100213e+01	-2.432187e-04
4.123896e+01	-2.460364e-04
4.147715e+01	-2.488867e-04
4.171672e+01	-2.517700e-04
4.195767e+01	-2.546868e-04
4.220002e+01	-2.576373e-04
4.244377e+01	-2.606220e-04
4.268892e+01	-2.636413e-04
4.293549e+01	-2.666955e-04
4.318348e+01	-2.697852e-04
4.343291e+01	-2.729106e-04
4.368377e+01	-2.760723e-04
4.393609e+01	-2.792705e-04
4.418986e+01	-2.825059e-04
4.444510e+01	-2.857787e-04
4.470182e+01	-2.890894e-04
4.496001e+01	-2.924384e-04
4.521970e+01	-2.958263e-04
4.548089e+01	-2.992534e-04
4.574358e+01	-3.027202e-04
4.600779e+01	-3.062272e-04
4.627353e+01	-3.097748e-04
4.654081e+01	-3.133635e-04
4.680963e+01	-3.169938e-04
4.708000e+01	-3.206661e-04
4.735193e+01	-3.243810e-04
4.762543e+01	-3.281389e-04
4.790051e+01	-3.319403e-04
4.817719e+01	-3.357858e-04
4.845545e+01	-3.396758e-04
4.873533e+01	-3.436109e-04
4.901682e+01	-3.475916e-04
4.929994e+01	-3.516183e-04
4.958470e+01	-3.556918e-04
4.987110e+01	-3.598124e-04
5.015915e+01	-3.639807e-04
5.044887e+01	-3.681974e-04
5.074026e+01	-3.724629e-04
5.103333e+01	-3.767778e-04
5.132810e+01	-3.811426e-04
5.162457e+01	-3.855581e-04
5.192275e+01	-3.900247e-04
5.222265e+01	-3.945430e-04
5.252429e+01	-3.991137e-04
5.282767e+01	-4.037373e-04
5.313280e+01	-4.084145e-04
5.343969e+01	-4.131459e-04
5.374836e+01	-4.179321e-04
5.405880e+01	-4.227737e-04
5.437105e+01	-4.276714e-04
5.468509e+01	-4.326258e-04
5.500095e+01	-4.376377e-04
5.531863e+01	-4.427076e-04
5.563815e+01	-4.478362e-04
5.595951e+01	-4.530242e-04
5.628273e+01	-4.582724e-04
5.660782e+01	-4.635813e-04
5.693479e+01	-4.689517e-04
5.726364e+01	-4.743844e-04
5.759439e+01	-4.798799e-04
5.792705e+01	-4.854392e-04
5.826164e+01	-4.910628e-04
5.859815e+01	-4.967516e-04
5.893662e+01	-5.025062e-04
5.927703e+01	-5.083276e-04
5.961941e+01	-5.142163e-04
5.996377e+01	-5.201733e-04
6.031012e+01	-5.261993e-04
6.065847e+01	-5.322951e-04
6.100883e+01	-5.384615e-04
6.136121e+01	-5.446993e-04
6.171563e+01	-5.510094e-04
6.207210e+01	-5.573926e-04
6.243063e+01	-5.638498e-04
6.279122e+01	-5.703817e-04
6.315390e+01	-5.769893e-04
6.351868e+01	-5.836734e-04
6.388556e+01	-5.904350e-04
6.425456e+01	-5.972748e-04
6.462569e+01	-6.041940e-04
6.499897e+01	-6.111932e-04
6.537440e+01	-6.182736e-04
6.575200e+01	-6.254359e-04
6.613178e+01	-6.326812e-04
6.651375e+01	-6.400105e-04
6.689793e+01	-6.474246e-04
6.728433e+01	-6.549246e-04
6.767297e+01	-6.625115e-04
6.806384e+01	-6.701863e-04
6.845698e+01	-6.779500e-04
6.885238e+01	-6.858036e-04
6.925007e+01	-6.937482e-04
6.965005e+01	-7.017848e-04
7.005235e+01	-7.099145e-04
7.045697e+01	-7.181384e-04
7.086393e+01	-7.264576e-04
7.127323e+01	-7.348731e-04
7.168490e+01	-7.433860e-04
7.209895e+01	-7.519976e-04
7.251539e+01	-7.607090e-04
7.293424e+01	-7.695212e-04
7.335551e+01	-7.784355e-04
7.377920e+01	-7.874531e-04
7.420535e+01	-7.965751e-04
7.463396e+01	-8.058028e-04
7.506504e+01	-8.151374e-04
7.549861e+01	-8.245801e-04
7.593469e+01	-8.341321e-04
7.637328e+01	-8.437948e-04
7.681441e+01	-8.535695e-04
7.725809e+01	-8.634573e-04
7.770433e+01	-8.734597e-04
7.815315e+01	-8.835779e-04
7.860456e+01	-8.938134e-04
7.905857e+01	-9.041674e-04
7.951521e+01	-9.146413e-04
7.997449e+01	-9.252365e-04
8.043642e+01	-9.359545e-04
8.090102e+01	-9.467966e-04
8.136830e+01	-9.577643e-04
8.183828e+01	-9.688590e-04
8.231097e+01	-9.800823e-04
8.278640e+01	-9.914355e-04
8.326457e+01	-1.002920e-03
8.374550e+01	-1.014538e-03
8.422921e+01	-1.026290e-03
8.471572e+01	-1.038179e-03
8.520503e+01	-1.050205e-03
8.569717e+01	-1.062370e-03
8.619215e+01	-1.074677e-03
8.669000e+01	-1.087125e-03
8.719071e+01	-1.099718e-03
8.769432e+01	-1.112457e-03
8.820084e+01	-1.125344e-03
8.871029e+01	-1.138380e-03
8.922267e+01	-1.151566e-03
8.973802e+01	-1.164906e-03
9.025634e+01	-1.178400e-03
9.077766e+01	-1.192050e-03
9.130199e+01	-1.205858e-03
9.182935e+01	-1.219826e-03
9.235975e+01	-1.233956e-03
9.289321e+01	-1.248250e-03
9.342976e+01	-1.262709e-03
9.396941e+01	-1.277336e-03
9.451217e+01	-1.292132e-03
9.505807e+01	-1.307099e-03
9.560712e+01	-1.322240e-03
9.615934e+01	-1.337556e-03
9.671476e+01	-1.353050e-03
9.727338e+01	-1.368723e-03
9.783522e+01	-1.384577e-03
9.840032e+01	-1.400615e-03
9.896867e+01	-1.416839e-03
9.954031e+01	-1.433251e-03
1.001153e+02	-1.449853e-03
1.006935e+02	-1.466647e-03
1.012751e+02	-1.483636e-03
1.018601e+02	-1.500821e-03
1.024484e+02	-1.518205e-03
1.030402e+02	-1.535791e-03
1.036353e+02	-1.553580e-03
1.042339e+02	-1.571576e-03
1.048360e+02	-1.589780e-03
1.054415e+02	-1.608194e-03
1.060505e+02	-1.626822e-03
1.066631e+02	-1.645666e-03
1.072791e+02	-1.664728e-03
1.078988e+02	-1.684010e-03
1.085220e+02	-1.703516e-03
1.091488e+02	-1.723248e-03
1.097793e+02	-1.743208e-03
1.104133e+02	-1.763399e-03
1.110511e+02	-1.783825e-03
1.116925e+02	-1.804487e-03
1.123376e+02	-1.825388e-03
1.129865e+02	-1.846531e-03
1.136391e+02	-1.867919e-03
1.142955e+02	-1.889554e-03
1.149556e+02	-1.911440e-03
1.156196e+02	-1.933580e-03
1.162874e+02	-1.955976e-03
1.169591e+02	-1.978631e-03
1.176347e+02	-2.001549e-03
1.183141e+02	-2.024732e-03
1.189975e+02	-2.048184e-03
1.196848e+02	-2.071907e-03
1.203761e+02	-2.095905e-03
1.210714e+02	-2.120180e-03
1.217707e+02	-2.144737e-03
1.224740e+02	-2.169578e-03
1.231814e+02	-2.194707e-03
1.238929e+02	-2.220127e-03
1.246085e+02	-2.245841e-03
1.253283e+02	-2.271853e-03
1.260522e+02	-2.298166e-03
1.267802e+02	-2.324783e-03
1.275125e+02	-2.351709e-03
1.282490e+02	-2.378947e-03
1.289898e+02	-2.406500e-03
1.297348e+02	-2.434372e-03
1.304842e+02	-2.462567e-03
1.312378e+02	-2.491088e-03
1.319959e+02	-2.519940e-03
1.327583e+02	-2.549126e-03
1.335251e+02	-2.578649e-03
1.342963e+02	-2.608514e-03
1.350720e+02	-2.638726e-03
1.358522e+02	-2.669287e-03
1.366368e+02	-2.700201e-03
1.374260e+02	-2.731474e-03
1.382198e+02	-2.763109e-03
1.390182e+02	-2.795110e-03
1.398211e+02	-2.827481e-03
1.406287e+02	-2.860228e-03
1.414410e+02	-2.893353e-03
1.422579e+02	-2.926862e-03
1.430796e+02	-2.960759e-03
1.439060e+02	-2.995048e-03
1.447372e+02	-3.029735e-03
1.455732e+02	-3.064822e-03
1.464141e+02	-3.100317e-03
1.472597e+02	-3.136222e-03
1.481103e+02	-3.172542e-03
1.489658e+02	-3.209283e-03
1.498262e+02	-3.246450e-03
1.506916e+02	-3.284047e-03
1.515620e+02	-3.322079e-03
1.524374e+02	-3.360551e-03
1.533179e+02	-3.399468e-03
1.542034e+02	-3.438837e-03
1.550941e+02	-3.478660e-03
1.559899e+02	-3.518945e-03
1.568909e+02	-3.559696e-03
1.577971e+02	-3.600919e-03
1.587085e+02	-3.642619e-03
1.596252e+02	-3.684802e-03
1.605472e+02	-3.727473e-03
1.614745e+02	-3.770638e-03
1.624072e+02	-3.814303e-03
1.633453e+02	-3.858473e-03
1.642887e+02	-3.903154e-03
1.652377e+02	-3.948353e-03
1.661921e+02	-3.994074e-03
1.671520e+02	-4.040325e-03
1.681175e+02	-4.087111e-03
1.690885e+02	-4.134439e-03
1.700651e+02	-4.182314e-03
1.710474e+02	-4.230744e-03
1.720354e+02	-4.279734e-03
1.730291e+02	-4.329291e-03
1.740285e+02	-4.379422e-03
1.750337e+02	-4.430132e-03
1.760446e+02	-4.481430e-03
1.770615e+02	-4.533322e-03
1.780842e+02	-4.585813e-03
1.791128e+02	-4.638913e-03
1.801473e+02	-4.692627e-03
1.811878e+02	-4.746962e-03
1.822344e+02	-4.801927e-03
1.832870e+02	-4.857527e-03
1.843456e+02	-4.913771e-03
1.854104e+02	-4.970666e-03
1.864813e+02	-5.028219e-03
1.875584e+02	-5.086438e-03
1.886418e+02	-5.145330e-03
1.897313e+02	-5.204904e-03
1.908272e+02	-5.265168e-03
1.919294e+02	-5.326129e-03
1.930380e+02	-5.387795e-03
1.941530e+02	-5.450175e-03
1.952744e+02	-5.513276e-03
1.964023e+02	-5.577108e-03
1.975367e+02	-5.641678e-03
1.986777e+02	-5.706995e-03
1.998252e+02	-5.773068e-03
2.009794e+02	-5.839906e-03
2.021403e+02	-5.907517e-03
2.033078e+02	-5.975909e-03
2.044821e+02	-6.045094e-03
2.056632e+02	-6.115078e-03
2.068511e+02	-6.185872e-03
2.080459e+02	-6.257485e-03
2.092475e+02	-6.329927e-03
2.104561e+02	-6.403207e-03
2.116717e+02	-6.477334e-03
2.128943e+02	-6.552319e-03
2.141240e+02	-6.628171e-03
2.153608e+02	-6.704901e-03
2.166047e+02	-6.782518e-03
2.178558e+02	-6.861033e-03
2.191141e+02	-6.940456e-03
2.203797e+02	-7.020798e-03
2.216526e+02	-7.102069e-03
2.229329e+02	-7.184280e-03
2.242205e+02	-7.267442e-03
2.255156e+02	-7.351566e-03
2.268182e+02	-7.436662e-03
2.281283e+02	-7.522743e-03
2.294459e+02	-7.609820e-03
2.307712e+02	-7.697903e-03
2.321041e+02	-7.787005e-03
2.334447e+02	-7.877137e-03
2.347931e+02	-7.968312e-03
2.361493e+02	-8.060541e-03
2.375133e+02	-8.153837e-03
2.388851e+02	-8.248211e-03
2.402649e+02	-8.343677e-03
2.416527e+02	-8.440246e-03
2.430484e+02	-8.537932e-03
2.444523e+02	-8.636748e-03
2.458642e+02	-8.736706e-03
2.472843e+02	-8.837819e-03
2.487126e+02	-8.940102e-03
2.501492e+02	-9.043567e-03
2.515940e+02	-9.148229e-03
2.530472e+02	-9.254100e-03
2.545088e+02	-9.361195e-03
2.559789e+02	-9.469528e-03
2.574574e+02	-9.579114e-03
2.589444e+02	-9.689966e-03
2.604401e+02	-9.802100e-03
2.619444e+02	-9.915530e-03
2.634574e+02	-1.003027e-02
2.649791e+02	-1.014634e-02
2.665096e+02	-1.026375e-02
2.680489e+02	-1.038251e-02
2.695972e+02	-1.050265e-02
2.711544e+02	-1.062418e-02
2.727205e+02	-1.074711e-02
2.742958e+02	-1.087146e-02
2.758801e+02	-1.099725e-02
2.774736e+02	-1.112449e-02
2.790762e+02	-1.125320e-02
2.806882e+02	-1.138340e-02
2.823094e+02	-1.151511e-02
2.839400e+02	-1.164833e-02
2.855800e+02	-1.178310e-02
2.872295e+02	-1.191942e-02
2.888886e+02	-1.205732e-02
2.905572e+02	-1.219681e-02
2.922354e+02	-1.233791e-02
2.939234e+02	-1.248064e-02
2.956211e+02	-1.262502e-02
2.973286e+02	-1.277107e-02
2.990459e+02	-1.291881e-02
3.007732e+02	-1.306825e-02
3.025104e+02	-1.321942e-02
3.042577e+02	-1.337233e-02
3.060151e+02	-1.352701e-02
3.077826e+02	-1.368348e-02
3.095604e+02	-1.384175e-02
3.113484e+02	-1.400185e-02
3.131467e+02	-1.416380e-02
3.149554e+02	-1.432762e-02
3.167746e+02	-1.449333e-02
3.186043e+02	-1.466095e-02
3.204445e+02	-1.483051e-02
3.222954e+02	-1.500203e-02
3.241570e+02	-1.517553e-02
3.260293e+02	-1.535103e-02
3.279124e+02	-1.552856e-02
3.298064e+02	-1.570813e-02
3.317114e+02	-1.588978e-02
3.336273e+02	-1.607353e-02
3.355544e+02	-1.625939e-02
3.374925e+02	-1.644741e-02
3.394418e+02	-1.663759e-02
3.414024e+02	-1.682996e-02
3.433744e+02	-1.702456e-02
3.453577e+02	-1.722140e-02
3.473525e+02	-1.742051e-02
3.493588e+02	-1.762192e-02
3.513766e+02	-1.782566e-02
3.534062e+02	-1.803174e-02
3.554474e+02	-1.824020e-02
3.575005e+02	-1.845107e-02
3.595654e+02	-1.866437e-02
3.616422e+02	-1.888013e-02
3.637311e+02	-1.909838e-02
3.658320e+02	-1.931915e-02
3.679450e+02	-1.954246e-02
3.700702e+02	-1.976835e-02
3.722077e+02	-1.999684e-02
3.743576e+02	-2.022797e-02
3.765199e+02	-2.046176e-02
3.786946e+02	-2.069825e-02
3.808820e+02	-2.093746e-02
3.830819e+02	-2.117943e-02
3.852946e+02	-2.142420e-02
3.875200e+02	-2.167178e-02
3.897583e+02	-2.192222e-02
3.920096e+02	-2.217554e-02
3.942738e+02	-2.243178e-02
3.965511e+02	-2.269098e-02
3.988416e+02	-2.295317e-02
4.011452e+02	-2.321837e-02
4.034622e+02	-2.348663e-02
4.057926e+02	-2.375798e-02
4.081365e+02	-2.403246e-02
4.104938e+02	-2.431010e-02
4.128648e+02	-2.459094e-02
4.152495e+02	-2.487502e-02
4.176480e+02	-2.516236e-02
4.200603e+02	-2.545302e-02
4.224866e+02	-2.574702e-02
4.249268e+02	-2.604441e-02
4.273812e+02	-2.634522e-02
4.298497e+02	-2.664950e-02
4.323325e+02	-2.695728e-02
4.348297e+02	-2.726860e-02
4.373412e+02	-2.758351e-02
4.398673e+02	-2.790204e-02
4.424079e+02	-2.822424e-02
4.449633e+02	-2.855015e-02
4.475334e+02	-2.887981e-02
4.501183e+02	-2.921326e-02
4.527182e+02	-2.955055e-02
4.553330e+02	-2.989172e-02
4.579630e+02	-3.023681e-02
4.606082e+02	-3.058588e-02
4.632687e+02	-3.093896e-02
4.659445e+02	-3.129610e-02
4.686358e+02	-3.165735e-02
4.713426e+02	-3.202275e-02
4.740650e+02	-3.239235e-02
4.768032e+02	-3.276621e-02
4.795572e+02	-3.314436e-02
4.823271e+02	-3.352686e-02
4.851130e+02	-3.391376e-02
4.879150e+02	-3.430510e-02
4.907332e+02	-3.470094e-02
4.935676e+02	-3.510134e-02
4.964185e+02	-3.550633e-02
4.992858e+02	-3.591597e-02
5.021696e+02	-3.633032e-02
5.050701e+02	-3.674944e-02
5.079874e+02	-3.717336e-02
5.109215e+02	-3.760215e-02
5.138726e+02	-3.803587e-02
5.168407e+02	-3.847457e-02
5.198259e+02	-3.891831e-02
5.228284e+02	-3.936714e-02
5.258482e+02	-3.982112e-02
5.288855e+02	-4.028032e-02
5.319403e+02	-4.074478e-02
5.350128e+02	-4.121458e-02
5.381030e+02	-4.168976e-02
5.412111e+02	-4.217040e-02
5.443371e+02	-4.265655e-02
5.474812e+02	-4.314828e-02
5.506434e+02	-4.364564e-02
5.538239e+02	-4.414872e-02
5.570228e+02	-4.465756e-02
5.602401e+02	-4.517223e-02
5.634760e+02	-4.569280e-02
5.667306e+02	-4.621934e-02
5.700040e+02	-4.675192e-02
5.732964e+02	-4.729060e-02
5.766077e+02	-4.783545e-02
5.799382e+02	-4.838655e-02
5.832879e+02	-4.894395e-02
5.866569e+02	-4.950774e-02
5.900454e+02	-5.007799e-02
5.934535e+02	-5.065477e-02
5.968813e+02	-5.123815e-02
6.003288e+02	-5.182821e-02
6.037963e+02	-5.242503e-02
6.072838e+02	-5.302867e-02
6.107914e+02	-5.363923e-02
6.143194e+02	-5.425676e-02
6.178676e+02	-5.488137e-02
6.214364e+02	-5.551311e-02
6.250258e+02	-5.615209e-02
6.286359e+02	-5.679836e-02
6.322669e+02	-5.745203e-02
6.359189e+02	-5.811317e-02
6.395919e+02	-5.878187e-02
6.432862e+02	-5.945821e-02
6.470017e+02	-6.014227e-02
6.507388e+02	-6.083415e-02
6.544974e+02	-6.153394e-02
6.582778e+02	-6.224171e-02
6.620800e+02	-6.295757e-02
6.659041e+02	-6.368160e-02
6.697504e+02	-6.441389e-02
6.736188e+02	-6.515454e-02
6.775096e+02	-6.590365e-02
6.814229e+02	-6.666130e-02
6.853587e+02	-6.742759e-02
6.893173e+02	-6.820262e-02
6.932988e+02	-6.898649e-02
6.973033e+02	-6.977929e-02
7.013309e+02	-7.058114e-02
