Frequency(Hz)	Magnitude(dB)
1.000000e+01	-1.965752e+00
1.005776e+01	-1.983952e+00
1.011585e+01	-2.002427e+00
1.017428e+01	-2.021118e+00
1.023305e+01	-2.039859e+00
1.029215e+01	-2.058504e+00
1.035160e+01	-2.077643e+00
1.041139e+01	-2.096769e+00
1.047153e+01	-2.115907e+00
1.053201e+01	-2.135129e+00
1.059284e+01	-2.154695e+00
1.065403e+01	-2.174399e+00
1.071556e+01	-2.194157e+00
1.077746e+01	-2.214048e+00
1.083971e+01	-2.234076e+00
1.090232e+01	-2.254067e+00
1.096529e+01	-2.274445e+00
1.102862e+01	-2.295141e+00
1.109232e+01	-2.315566e+00
1.115639e+01	-2.336428e+00
1.122083e+01	-2.357334e+00
1.128564e+01	-2.378309e+00
1.135083e+01	-2.399409e+00
1.141639e+01	-2.420714e+00
1.148233e+01	-2.442153e+00
1.154865e+01	-2.463886e+00
1.161536e+01	-2.485498e+00
1.168245e+01	-2.507323e+00
1.174992e+01	-2.529429e+00
1.181779e+01	-2.551505e+00
1.188605e+01	-2.573829e+00
1.195470e+01	-2.596558e+00
1.202375e+01	-2.619091e+00
1.209320e+01	-2.641668e+00
1.216305e+01	-2.664448e+00
1.223330e+01	-2.687512e+00
1.230396e+01	-2.710724e+00
1.237503e+01	-2.733978e+00
1.244651e+01	-2.757346e+00
1.251840e+01	-2.781074e+00
1.259070e+01	-2.804633e+00
1.266343e+01	-2.828491e+00
1.273657e+01	-2.852618e+00
1.281014e+01	-2.876662e+00
1.288413e+01	-2.901101e+00
1.295855e+01	-2.925571e+00
1.303339e+01	-2.949941e+00
1.310867e+01	-2.974872e+00
1.318439e+01	-2.999946e+00
1.326054e+01	-3.024670e+00
1.333713e+01	-3.049742e+00
1.341417e+01	-3.075155e+00
1.349165e+01	-3.100724e+00
1.356958e+01	-3.126208e+00
1.364795e+01	-3.151894e+00
1.372678e+01	-3.177835e+00
1.380607e+01	-3.204126e+00
1.388581e+01	-3.230165e+00
1.396602e+01	-3.256362e+00
1.404668e+01	-3.282802e+00
1.412782e+01	-3.309456e+00
1.420942e+01	-3.336315e+00
1.429149e+01	-3.363197e+00
1.437404e+01	-3.390200e+00
1.445706e+01	-3.417456e+00
1.454057e+01	-3.444792e+00
1.462455e+01	-3.472225e+00
1.470902e+01	-3.499848e+00
1.479398e+01	-3.527480e+00
1.487943e+01	-3.555249e+00
1.496537e+01	-3.583449e+00
1.505181e+01	-3.611841e+00
1.513875e+01	-3.639988e+00
1.522619e+01	-3.668179e+00
1.531414e+01	-3.696998e+00
1.540259e+01	-3.725757e+00
1.549156e+01	-3.754495e+00
1.558103e+01	-3.783830e+00
1.567103e+01	-3.812653e+00
1.576155e+01	-3.841953e+00
1.585258e+01	-3.871420e+00
1.594415e+01	-3.901057e+00
1.603624e+01	-3.930684e+00
1.612886e+01	-3.960699e+00
1.622202e+01	-3.990505e+00
1.631572e+01	-4.020715e+00
1.640996e+01	-4.051155e+00
1.650474e+01	-4.081326e+00
1.660008e+01	-4.112094e+00
1.669596e+01	-4.142698e+00
1.679239e+01	-4.173517e+00
1.688938e+01	-4.204560e+00
1.698694e+01	-4.235541e+00
1.708505e+01	-4.266899e+00
1.718373e+01	-4.298114e+00
1.728299e+01	-4.329787e+00
1.738281e+01	-4.361362e+00
1.748322e+01	-4.393232e+00
1.758420e+01	-4.424894e+00
1.768576e+01	-4.457175e+00
1.778792e+01	-4.489337e+00
1.789066e+01	-4.521595e+00
1.799399e+01	-4.554086e+00
1.809793e+01	-4.586388e+00
1.820246e+01	-4.618954e+00
1.830760e+01	-4.651841e+00
1.841334e+01	-4.684830e+00
1.851969e+01	-4.717946e+00
1.862666e+01	-4.751320e+00
1.873425e+01	-4.784422e+00
1.884246e+01	-4.818101e+00
1.895129e+01	-4.851504e+00
1.906075e+01	-4.885159e+00
1.917085e+01	-4.919052e+00
1.928158e+01	-4.953280e+00
1.939295e+01	-4.987251e+00
1.950496e+01	-5.021702e+00
1.961762e+01	-5.055840e+00
1.973093e+01	-5.090218e+00
1.984490e+01	-5.124819e+00
1.995952e+01	-5.159761e+00
2.007480e+01	-5.194420e+00
2.019076e+01	-5.229579e+00
2.030738e+01	-5.264619e+00
2.042467e+01	-5.299924e+00
2.054264e+01	-5.335217e+00
2.066130e+01	-5.370388e+00
2.078064e+01	-5.405935e+00
2.090066e+01	-5.441514e+00
2.102139e+01	-5.477519e+00
2.114280e+01	-5.513399e+00
2.126492e+01	-5.549660e+00
2.138775e+01	-5.585770e+00
2.151128e+01	-5.621818e+00
2.163553e+01	-5.658599e+00
2.176050e+01	-5.694914e+00
2.188619e+01	-5.731412e+00
2.201260e+01	-5.768023e+00
2.213974e+01	-5.804968e+00
2.226762e+01	-5.841755e+00
2.239624e+01	-5.878721e+00
2.252560e+01	-5.916053e+00
2.265571e+01	-5.953365e+00
2.278656e+01	-5.990589e+00
2.291818e+01	-6.028246e+00
2.305055e+01	-6.065855e+00
2.318369e+01	-6.103364e+00
2.331760e+01	-6.140906e+00
2.345228e+01	-6.179249e+00
2.358774e+01	-6.216962e+00
2.372398e+01	-6.255583e+00
2.386101e+01	-6.293396e+00
2.399883e+01	-6.331795e+00
2.413745e+01	-6.370099e+00
2.427686e+01	-6.409333e+00
2.441709e+01	-6.447147e+00
2.455812e+01	-6.486291e+00
2.469997e+01	-6.524943e+00
2.484263e+01	-6.564092e+00
2.498612e+01	-6.602913e+00
2.513044e+01	-6.641925e+00
2.527559e+01	-6.681332e+00
2.542158e+01	-6.720450e+00
2.556842e+01	-6.759921e+00
2.571610e+01	-6.799657e+00
2.586463e+01	-6.839453e+00
2.601403e+01	-6.878847e+00
2.616428e+01	-6.919050e+00
2.631541e+01	-6.958895e+00
2.646740e+01	-6.998619e+00
2.662028e+01	-7.038715e+00
2.677404e+01	-7.078886e+00
2.692868e+01	-7.119088e+00
2.708422e+01	-7.159809e+00
2.724066e+01	-7.200198e+00
2.739800e+01	-7.240982e+00
2.755625e+01	-7.281080e+00
2.771541e+01	-7.321797e+00
2.787550e+01	-7.362668e+00
2.803650e+01	-7.403571e+00
2.819844e+01	-7.444619e+00
2.836131e+01	-7.485603e+00
2.852513e+01	-7.526841e+00
2.868989e+01	-7.567835e+00
2.885560e+01	-7.609260e+00
2.902227e+01	-7.650697e+00
2.918990e+01	-7.691857e+00
2.935850e+01	-7.734058e+00
2.952807e+01	-7.775055e+00
2.969863e+01	-7.817331e+00
2.987016e+01	-7.858853e+00
3.004269e+01	-7.900767e+00
3.021622e+01	-7.942643e+00
3.039075e+01	-7.984891e+00
3.056628e+01	-8.026535e+00
3.074283e+01	-8.069545e+00
3.092040e+01	-8.111175e+00
3.109900e+01	-8.153756e+00
3.127862e+01	-8.196063e+00
3.145929e+01	-8.238628e+00
3.164099e+01	-8.281129e+00
3.182375e+01	-8.323743e+00
3.200756e+01	-8.366259e+00
3.219244e+01	-8.409314e+00
3.237838e+01	-8.452191e+00
3.256540e+01	-8.495129e+00
3.275349e+01	-8.538234e+00
3.294268e+01	-8.581141e+00
3.313295e+01	-8.624763e+00
3.332433e+01	-8.667085e+00
3.351681e+01	-8.710814e+00
3.371040e+01	-8.754421e+00
3.390511e+01	-8.796868e+00
3.410094e+01	-8.840755e+00
3.429791e+01	-8.884340e+00
3.449601e+01	-8.927544e+00
3.469526e+01	-8.971572e+00
3.489566e+01	-9.014992e+00
3.509721e+01	-9.059084e+00
3.529993e+01	-9.102964e+00
3.550382e+01	-9.146897e+00
3.570889e+01	-9.190877e+00
3.591515e+01	-9.234427e+00
3.612259e+01	-9.278975e+00
3.633123e+01	-9.323334e+00
3.654108e+01	-9.367546e+00
3.675214e+01	-9.411595e+00
3.696442e+01	-9.456095e+00
3.717792e+01	-9.500197e+00
3.739266e+01	-9.544683e+00
3.760864e+01	-9.588957e+00
3.782587e+01	-9.634049e+00
3.804435e+01	-9.678280e+00
3.826409e+01	-9.722423e+00
3.848510e+01	-9.767693e+00
3.870739e+01	-9.812800e+00
3.893096e+01	-9.857072e+00
3.915583e+01	-9.902590e+00
3.938199e+01	-9.947301e+00
3.960946e+01	-9.992205e+00
3.983824e+01	-1.003717e+01
4.006834e+01	-1.008194e+01
4.029978e+01	-1.012723e+01
4.053255e+01	-1.017271e+01
4.076666e+01	-1.021756e+01
4.100213e+01	-1.026275e+01
4.123896e+01	-1.030830e+01
4.147715e+01	-1.035367e+01
4.171672e+01	-1.039961e+01
4.195767e+01	-1.044439e+01
4.220002e+01	-1.049055e+01
4.244377e+01	-1.053617e+01
4.268892e+01	-1.058216e+01
4.293549e+01	-1.062714e+01
4.318348e+01	-1.067281e+01
4.343291e+01	-1.071925e+01
4.368377e+01	-1.076450e+01
4.393609e+01	-1.081093e+01
4.418986e+01	-1.085604e+01
4.444510e+01	-1.090176e+01
4.470182e+01	-1.094802e+01
4.496001e+01	-1.099336e+01
4.521970e+01	-1.104005e+01
4.548089e+01	-1.108628e+01
4.574358e+01	-1.113245e+01
4.600779e+01	-1.117892e+01
4.627353e+01	-1.122506e+01
4.654081e+01	-1.127165e+01
4.680963e+01	-1.131736e+01
4.708000e+01	-1.136446e+01
4.735193e+01	-1.141027e+01
4.762543e+01	-1.145675e+01
4.790051e+01	-1.150251e+01
4.817719e+01	-1.154948e+01
4.845545e+01	-1.159627e+01
4.873533e+01	-1.164303e+01
4.901682e+01	-1.168916e+01
4.929994e+01	-1.173525e+01
4.958470e+01	-1.178321e+01
4.987110e+01	-1.182899e+01
5.015915e+01	-1.187602e+01
5.044887e+01	-1.192360e+01
5.074026e+01	-1.196889e+01
5.103333e+01	-1.201685e+01
5.132810e+01	-1.206390e+01
5.162457e+01	-1.211116e+01
5.192275e+01	-1.215681e+01
5.222265e+01	-1.220513e+01
5.252429e+01	-1.225150e+01
5.282767e+01	-1.229896e+01
5.313280e+01	-1.234563e+01
5.343969e+01	-1.239233e+01
5.374836e+01	-1.244094e+01
5.405880e+01	-1.248800e+01
5.437105e+01	-1.253474e+01
5.468509e+01	-1.258143e+01
5.500095e+01	-1.262943e+01
5.531863e+01	-1.267609e+01
5.563815e+01	-1.272340e+01
5.595951e+01	-1.277137e+01
5.628273e+01	-1.281843e+01
5.660782e+01	-1.286628e+01
5.693479e+01	-1.291307e+01
5.726364e+01	-1.296083e+01
5.759439e+01	-1.300844e+01
5.792705e+01	-1.305659e+01
5.826164e+01	-1.310277e+01
5.859815e+01	-1.315059e+01
5.893662e+01	-1.319792e+01
5.927703e+01	-1.324622e+01
5.961941e+01	-1.329382e+01
5.996377e+01	-1.334151e+01
6.031012e+01	-1.338937e+01
6.065847e+01	-1.343664e+01
6.100883e+01	-1.348458e+01
6.136121e+01	-1.353197e+01
6.171563e+01	-1.358066e+01
6.207210e+01	-1.362864e+01
6.243063e+01	-1.367602e+01
6.279122e+01	-1.372415e+01
6.315390e+01	-1.377203e+01
6.351868e+01	-1.381934e+01
6.388556e+01	-1.386722e+01
6.425456e+01	-1.391540e+01
6.462569e+01	-1.396371e+01
6.499897e+01	-1.401102e+01
6.537440e+01	-1.405969e+01
6.575200e+01	-1.410770e+01
6.613178e+01	-1.415585e+01
6.651375e+01	-1.420470e+01
6.689793e+01	-1.425161e+01
6.728433e+01	-1.430013e+01
6.767297e+01	-1.434829e+01
6.806384e+01	-1.439740e+01
6.845698e+01	-1.444522e+01
6.885238e+01	-1.449385e+01
6.925007e+01	-1.454174e+01
6.965005e+01	-1.458974e+01
7.005235e+01	-1.463834e+01
7.045697e+01	-1.468694e+01
7.086393e+01	-1.473454e+01
7.127323e+01	-1.478282e+01
7.168490e+01	-1.483146e+01
7.209895e+01	-1.488060e+01
7.251539e+01	-1.492937e+01
7.293424e+01	-1.497696e+01
7.335551e+01	-1.502679e+01
7.377920e+01	-1.507366e+01
7.420535e+01	-1.512251e+01
7.463396e+01	-1.517024e+01
7.506504e+01	-1.521948e+01
7.549861e+01	-1.526913e+01
7.593469e+01	-1.531610e+01
7.637328e+01	-1.536454e+01
7.681441e+01	-1.541259e+01
7.725809e+01	-1.546233e+01
7.770433e+01	-1.551069e+01
7.815315e+01	-1.555922e+01
7.860456e+01	-1.560833e+01
7.905857e+01	-1.565686e+01
7.951521e+01	-1.570524e+01
7.997449e+01	-1.575446e+01
8.043642e+01	-1.580319e+01
8.090102e+01	-1.585132e+01
8.136830e+01	-1.590017e+01
8.183828e+01	-1.594840e+01
8.231097e+01	-1.599696e+01
8.278640e+01	-1.604628e+01
8.326457e+01	-1.609469e+01
8.374550e+01	-1.614463e+01
8.422921e+01	-1.619328e+01
8.471572e+01	-1.624256e+01
8.520503e+01	-1.629055e+01
8.569717e+01	-1.633964e+01
8.619215e+01	-1.638881e+01
8.669000e+01	-1.643769e+01
8.719071e+01	-1.648602e+01
8.769432e+01	-1.653409e+01
8.820084e+01	-1.658392e+01
8.871029e+01	-1.663288e+01
8.922267e+01	-1.668164e+01
8.973802e+01	-1.673191e+01
9.025634e+01	-1.677990e+01
9.077766e+01	-1.682908e+01
9.130199e+01	-1.687833e+01
9.182935e+01	-1.692723e+01
9.235975e+01	-1.697589e+01
9.289321e+01	-1.702554e+01
9.342976e+01	-1.707370e+01
9.396941e+01	-1.712258e+01
9.451217e+01	-1.717210e+01
9.505807e+01	-1.722175e+01
9.560712e+01	-1.727096e+01
9.615934e+01	-1.731871e+01
9.671476e+01	-1.736827e+01
9.727338e+01	-1.741750e+01
9.783522e+01	-1.746790e+01
9.840032e+01	-1.751557e+01
9.896867e+01	-1.756508e+01
9.954031e+01	-1.761439e+01
1.001153e+02	-1.766387e+01
1.006935e+02	-1.771133e+01
1.012751e+02	-1.776213e+01
1.018601e+02	-1.781026e+01
1.024484e+02	-1.785928e+01
1.030402e+02	-1.790938e+01
1.036353e+02	-1.795879e+01
1.042339e+02	-1.800707e+01
1.048360e+02	-1.805711e+01
1.054415e+02	-1.810681e+01
1.060505e+02	-1.815451e+01
1.066631e+02	-1.820442e+01
1.072791e+02	-1.825465e+01
1.078988e+02	-1.830333e+01
1.085220e+02	-1.835216e+01
1.091488e+02	-1.840207e+01
1.097793e+02	-1.845121e+01
1.104133e+02	-1.850138e+01
1.110511e+02	-1.855075e+01
1.116925e+02	-1.859734e+01
1.123376e+02	-1.864853e+01
1.129865e+02	-1.869778e+01
1.136391e+02	-1.874585e+01
1.142955e+02	-1.879744e+01
1.149556e+02	-1.884561e+01
1.156196e+02	-1.889698e+01
1.162874e+02	-1.894521e+01
1.169591e+02	-1.899330e+01
1.176347e+02	-1.904334e+01
1.183141e+02	-1.909439e+01
1.189975e+02	-1.914428e+01
1.196848e+02	-1.919183e+01
1.203761e+02	-1.924126e+01
1.210714e+02	-1.928971e+01
1.217707e+02	-1.933986e+01
1.224740e+02	-1.938914e+01
1.231814e+02	-1.943899e+01
1.238929e+02	-1.948979e+01
1.246085e+02	-1.953689e+01
1.253283e+02	-1.958921e+01
1.260522e+02	-1.963755e+01
1.267802e+02	-1.968687e+01
1.275125e+02	-1.973647e+01
1.282490e+02	-1.978588e+01
1.289898e+02	-1.983610e+01
1.297348e+02	-1.988363e+01
1.304842e+02	-1.993357e+01
1.312378e+02	-1.998333e+01
1.319959e+02	-2.003234e+01
1.327583e+02	-2.008396e+01
1.335251e+02	-2.013375e+01
1.342963e+02	-2.018073e+01
1.350720e+02	-2.023237e+01
1.358522e+02	-2.028067e+01
1.366368e+02	-2.033046e+01
1.374260e+02	-2.038204e+01
1.382198e+02	-2.042881e+01
1.390182e+02	-2.048087e+01
1.398211e+02	-2.052882e+01
1.406287e+02	-2.057869e+01
1.414410e+02	-2.062764e+01
1.422579e+02	-2.067821e+01
1.430796e+02	-2.072755e+01
1.439060e+02	-2.077728e+01
1.447372e+02	-2.082596e+01
1.455732e+02	-2.087618e+01
1.464141e+02	-2.092407e+01
1.472597e+02	-2.097684e+01
1.481103e+02	-2.102464e+01
1.489658e+02	-2.107458e+01
1.498262e+02	-2.112282e+01
1.506916e+02	-2.117391e+01
1.515620e+02	-2.122423e+01
1.524374e+02	-2.127398e+01
1.533179e+02	-2.132231e+01
1.542034e+02	-2.137381e+01
1.550941e+02	-2.142274e+01
1.559899e+02	-2.147296e+01
1.568909e+02	-2.152229e+01
1.577971e+02	-2.157059e+01
1.587085e+02	-2.162100e+01
1.596252e+02	-2.167105e+01
1.605472e+02	-2.171972e+01
1.614745e+02	-2.177125e+01
1.624072e+02	-2.182032e+01
1.633453e+02	-2.186984e+01
1.642887e+02	-2.191994e+01
1.652377e+02	-2.196992e+01
1.661921e+02	-2.201942e+01
1.671520e+02	-2.206991e+01
1.681175e+02	-2.211886e+01
1.690885e+02	-2.216770e+01
1.700651e+02	-2.221851e+01
1.710474e+02	-2.226803e+01
1.720354e+02	-2.231632e+01
1.730291e+02	-2.236683e+01
1.740285e+02	-2.241596e+01
1.750337e+02	-2.246762e+01
1.760446e+02	-2.251593e+01
1.770615e+02	-2.256648e+01
1.780842e+02	-2.261603e+01
1.791128e+02	-2.266629e+01
1.801473e+02	-2.271472e+01
1.811878e+02	-2.276310e+01
1.822344e+02	-2.281589e+01
1.832870e+02	-2.286568e+01
1.843456e+02	-2.291398e+01
1.854104e+02	-2.296534e+01
1.864813e+02	-2.301220e+01
1.875584e+02	-2.306558e+01
1.886418e+02	-2.311392e+01
1.897313e+02	-2.316269e+01
1.908272e+02	-2.321391e+01
1.919294e+02	-2.326407e+01
1.930380e+02	-2.331349e+01
1.941530e+02	-2.336235e+01
1.952744e+02	-2.341175e+01
1.964023e+02	-2.346276e+01
1.975367e+02	-2.351070e+01
1.986777e+02	-2.356311e+01
1.998252e+02	-2.360996e+01
2.009794e+02	-2.366228e+01
2.021403e+02	-2.371089e+01
2.033078e+02	-2.376373e+01
2.044821e+02	-2.381218e+01
2.056632e+02	-2.386309e+01
2.068511e+02	-2.391053e+01
2.080459e+02	-2.396041e+01
2.092475e+02	-2.400951e+01
2.104561e+02	-2.406257e+01
2.116717e+02	-2.411003e+01
2.128943e+02	-2.416116e+01
2.141240e+02	-2.421447e+01
2.153608e+02	-2.426050e+01
2.166047e+02	-2.431055e+01
2.178558e+02	-2.436315e+01
2.191141e+02	-2.441303e+01
2.203797e+02	-2.445978e+01
2.216526e+02	-2.450875e+01
2.229329e+02	-2.455815e+01
2.242205e+02	-2.460677e+01
2.255156e+02	-2.466032e+01
2.268182e+02	-2.470842e+01
2.281283e+02	-2.475844e+01
2.294459e+02	-2.480942e+01
2.307712e+02	-2.485888e+01
2.321041e+02	-2.491057e+01
2.334447e+02	-2.496051e+01
2.347931e+02	-2.500927e+01
2.361493e+02	-2.506089e+01
2.375133e+02	-2.511058e+01
2.388851e+02	-2.515711e+01
2.402649e+02	-2.520742e+01
2.416527e+02	-2.526128e+01
2.430484e+02	-2.530918e+01
2.444523e+02	-2.535801e+01
2.458642e+02	-2.540918e+01
2.472843e+02	-2.545386e+01
2.487126e+02	-2.551045e+01
2.501492e+02	-2.555771e+01
2.515940e+02	-2.560691e+01
2.530472e+02	-2.565923e+01
2.545088e+02	-2.570880e+01
2.559789e+02	-2.575525e+01
2.574574e+02	-2.580614e+01
2.589444e+02	-2.585738e+01
2.604401e+02	-2.590947e+01
2.619444e+02	-2.595686e+01
2.634574e+02	-2.600546e+01
2.649791e+02	-2.605944e+01
2.665096e+02	-2.610542e+01
2.680489e+02	-2.615717e+01
2.695972e+02	-2.620516e+01
2.711544e+02	-2.625258e+01
2.727205e+02	-2.630303e+01
2.742958e+02	-2.635626e+01
2.758801e+02	-2.640710e+01
2.774736e+02	-2.645613e+01
2.790762e+02	-2.650481e+01
2.806882e+02	-2.655707e+01
2.823094e+02	-2.660712e+01
2.839400e+02	-2.665421e+01
2.855800e+02	-2.670728e+01
2.872295e+02	-2.675632e+01
2.888886e+02	-2.680520e+01
2.905572e+02	-2.685921e+01
2.922354e+02	-2.690943e+01
2.939234e+02	-2.695321e+01
2.956211e+02	-2.700667e+01
2.973286e+02	-2.705700e+01
2.990459e+02	-2.710795e+01
3.007732e+02	-2.715598e+01
3.025104e+02	-2.720580e+01
3.042577e+02	-2.725659e+01
3.060151e+02	-2.730658e+01
3.077826e+02	-2.736424e+01
3.095604e+02	-2.740871e+01
3.113484e+02	-2.745842e+01
3.131467e+02	-2.750632e+01
3.149554e+02	-2.755664e+01
3.167746e+02	-2.760696e+01
3.186043e+02	-2.765631e+01
3.204445e+02	-2.770426e+01
3.222954e+02	-2.775546e+01
3.241570e+02	-2.780737e+01
3.260293e+02	-2.785810e+01
3.279124e+02	-2.790589e+01
3.298064e+02	-2.795820e+01
3.317114e+02	-2.800770e+01
3.336273e+02	-2.805687e+01
3.355544e+02	-2.810825e+01
3.374925e+02	-2.815657e+01
3.394418e+02	-2.820744e+01
3.414024e+02	-2.825526e+01
3.433744e+02	-2.830736e+01
3.453577e+02	-2.836145e+01
3.473525e+02	-2.840797e+01
3.493588e+02	-2.845795e+01
3.513766e+02	-2.850546e+01
3.534062e+02	-2.855883e+01
3.554474e+02	-2.860739e+01
3.575005e+02	-2.865783e+01
3.595654e+02	-2.870591e+01
3.616422e+02	-2.875653e+01
3.637311e+02	-2.880856e+01
3.658320e+02	-2.885952e+01
3.679450e+02	-2.890549e+01
3.700702e+02	-2.895642e+01
3.722077e+02	-2.900981e+01
3.743576e+02	-2.905880e+01
3.765199e+02	-2.910731e+01
3.786946e+02	-2.915918e+01
3.808820e+02	-2.921113e+01
3.830819e+02	-2.926047e+01
3.852946e+02	-2.930672e+01
3.875200e+02	-2.936098e+01
3.897583e+02	-2.940973e+01
3.920096e+02	-2.945235e+01
3.942738e+02	-2.951196e+01
3.965511e+02	-2.955212e+01
3.988416e+02	-2.960768e+01
4.011452e+02	-2.965972e+01
4.034622e+02	-2.970987e+01
4.057926e+02	-2.976064e+01
4.081365e+02	-2.980783e+01
4.104938e+02	-2.985779e+01
4.128648e+02	-2.990456e+01
4.152495e+02	-2.995793e+01
4.176480e+02	-3.000744e+01
4.200603e+02	-3.006011e+01
4.224866e+02	-3.010888e+01
4.249268e+02	-3.016035e+01
4.273812e+02	-3.021047e+01
4.298497e+02	-3.026140e+01
4.323325e+02	-3.031145e+01
4.348297e+02	-3.035820e+01
4.373412e+02	-3.040741e+01
4.398673e+02	-3.045704e+01
4.424079e+02	-3.051566e+01
4.449633e+02	-3.056222e+01
4.475334e+02	-3.060228e+01
4.501183e+02	-3.066470e+01
4.527182e+02	-3.071012e+01
4.553330e+02	-3.075752e+01
4.579630e+02	-3.081261e+01
4.606082e+02	-3.086091e+01
4.632687e+02	-3.091672e+01
4.659445e+02	-3.095773e+01
4.686358e+02	-3.101453e+01
4.713426e+02	-3.106308e+01
4.740650e+02	-3.111887e+01
4.768032e+02	-3.115703e+01
4.795572e+02	-3.121223e+01
4.823271e+02	-3.126205e+01
4.851130e+02	-3.131098e+01
4.879150e+02	-3.135673e+01
4.907332e+02	-3.141431e+01
4.935676e+02	-3.146194e+01
4.964185e+02	-3.151763e+01
4.992858e+02	-3.156466e+01
5.021696e+02	-3.161547e+01
5.050701e+02	-3.166092e+01
5.079874e+02	-3.171663e+01
5.109215e+02	-3.176343e+01
5.138726e+02	-3.181544e+01
5.168407e+02	-3.186241e+01
5.198259e+02	-3.191398e+01
5.228284e+02	-3.196287e+01
5.258482e+02	-3.201875e+01
5.288855e+02	-3.206369e+01
5.319403e+02	-3.211957e+01
5.350128e+02	-3.216203e+01
5.381030e+02	-3.221716e+01
5.412111e+02	-3.226678e+01
5.443371e+02	-3.231556e+01
5.474812e+02	-3.237114e+01
5.506434e+02	-3.241622e+01
5.538239e+02	-3.247096e+01
5.570228e+02	-3.251914e+01
5.602401e+02	-3.256465e+01
5.634760e+02	-3.261689e+01
5.667306e+02	-3.266791e+01
5.700040e+02	-3.271502e+01
5.732964e+02	-3.276409e+01
5.766077e+02	-3.281754e+01
5.799382e+02	-3.287159e+01
5.832879e+02	-3.292455e+01
5.866569e+02	-3.296433e+01
5.900454e+02	-3.301646e+01
5.934535e+02	-3.306648e+01
5.968813e+02	-3.312231e+01
6.003288e+02	-3.317251e+01
6.037963e+02	-3.322209e+01
6.072838e+02	-3.326959e+01
6.107914e+02	-3.331976e+01
6.143194e+02	-3.337192e+01
6.178676e+02	-3.342426e+01
6.214364e+02	-3.347495e+01
6.250258e+02	-3.352504e+01
6.286359e+02	-3.356837e+01
6.322669e+02	-3.362034e+01
6.359189e+02	-3.367010e+01
6.395919e+02	-3.372442e+01
6.432862e+02	-3.377791e+01
6.470017e+02	-3.382936e+01
6.507388e+02	-3.386752e+01
6.544974e+02	-3.392623e+01
6.582778e+02	-3.398475e+01
6.620800e+02	-3.402168e+01
6.659041e+02	-3.408069e+01
6.697504e+02	-3.412075e+01
6.736188e+02	-3.416524e+01
6.775096e+02	-3.422584e+01
6.814229e+02	-3.427377e+01
6.853587e+02	-3.433117e+01
6.893173e+02	-3.438056e+01
6.932988e+02	-3.442010e+01
6.973033e+02	-3.447907e+01
7.013309e+02	-3.452339e+01
