Frequency(Hz)	Magnitude(dB)
1.000000e+01	-2.218594e+00
1.005776e+01	-2.238584e+00
1.011585e+01	-2.258894e+00
1.017428e+01	-2.279008e+00
1.023305e+01	-2.299645e+00
1.029215e+01	-2.320442e+00
1.035160e+01	-2.341039e+00
1.041139e+01	-2.361913e+00
1.047153e+01	-2.383034e+00
1.053201e+01	-2.404089e+00
1.059284e+01	-2.425508e+00
1.065403e+01	-2.446919e+00
1.071556e+01	-2.468698e+00
1.077746e+01	-2.490477e+00
1.083971e+01	-2.512306e+00
1.090232e+01	-2.534331e+00
1.096529e+01	-2.556430e+00
1.102862e+01	-2.578656e+00
1.109232e+01	-2.601307e+00
1.115639e+01	-2.624030e+00
1.122083e+01	-2.646653e+00
1.128564e+01	-2.669746e+00
1.135083e+01	-2.692759e+00
1.141639e+01	-2.715882e+00
1.148233e+01	-2.739255e+00
1.154865e+01	-2.762514e+00
1.161536e+01	-2.785945e+00
1.168245e+01	-2.810148e+00
1.174992e+01	-2.833850e+00
1.181779e+01	-2.857738e+00
1.188605e+01	-2.882085e+00
1.195470e+01	-2.906581e+00
1.202375e+01	-2.930898e+00
1.209320e+01	-2.955495e+00
1.216305e+01	-2.980457e+00
1.223330e+01	-3.005283e+00
1.230396e+01	-3.030158e+00
1.237503e+01	-3.055381e+00
1.244651e+01	-3.080638e+00
1.251840e+01	-3.106156e+00
1.259070e+01	-3.131848e+00
1.266343e+01	-3.157788e+00
1.273657e+01	-3.183665e+00
1.281014e+01	-3.209712e+00
1.288413e+01	-3.235951e+00
1.295855e+01	-3.262323e+00
1.303339e+01	-3.288682e+00
1.310867e+01	-3.315239e+00
1.318439e+01	-3.342136e+00
1.326054e+01	-3.369211e+00
1.333713e+01	-3.396030e+00
1.341417e+01	-3.423278e+00
1.349165e+01	-3.450720e+00
1.356958e+01	-3.478365e+00
1.364795e+01	-3.505793e+00
1.372678e+01	-3.533563e+00
1.380607e+01	-3.561662e+00
1.388581e+01	-3.589614e+00
1.396602e+01	-3.617972e+00
1.404668e+01	-3.646326e+00
1.412782e+01	-3.674643e+00
1.420942e+01	-3.703231e+00
1.429149e+01	-3.732096e+00
1.437404e+01	-3.760766e+00
1.445706e+01	-3.790156e+00
1.454057e+01	-3.819148e+00
1.462455e+01	-3.848648e+00
1.470902e+01	-3.878105e+00
1.479398e+01	-3.907482e+00
1.487943e+01	-3.937532e+00
1.496537e+01	-3.967316e+00
1.505181e+01	-3.997411e+00
1.513875e+01	-4.027631e+00
1.522619e+01	-4.057531e+00
1.531414e+01	-4.088236e+00
1.540259e+01	-4.118990e+00
1.549156e+01	-4.149684e+00
1.558103e+01	-4.180640e+00
1.567103e+01	-4.211326e+00
1.576155e+01	-4.242296e+00
1.585258e+01	-4.273914e+00
1.594415e+01	-4.305179e+00
1.603624e+01	-4.336731e+00
1.612886e+01	-4.368311e+00
1.622202e+01	-4.400042e+00
1.631572e+01	-4.432180e+00
1.640996e+01	-4.464319e+00
1.650474e+01	-4.496271e+00
1.660008e+01	-4.528692e+00
1.669596e+01	-4.560879e+00
1.679239e+01	-4.593937e+00
1.688938e+01	-4.626309e+00
1.698694e+01	-4.659260e+00
1.708505e+01	-4.692381e+00
1.718373e+01	-4.725274e+00
1.728299e+01	-4.758328e+00
1.738281e+01	-4.791992e+00
1.748322e+01	-4.825574e+00
1.758420e+01	-4.859077e+00
1.768576e+01	-4.892700e+00
1.778792e+01	-4.926833e+00
1.789066e+01	-4.960734e+00
1.799399e+01	-4.994944e+00
1.809793e+01	-5.029235e+00
1.820246e+01	-5.063461e+00
1.830760e+01	-5.097979e+00
1.841334e+01	-5.132426e+00
1.851969e+01	-5.167213e+00
1.862666e+01	-5.202148e+00
1.873425e+01	-5.237211e+00
1.884246e+01	-5.272090e+00
1.895129e+01	-5.307497e+00
1.906075e+01	-5.342805e+00
1.917085e+01	-5.378356e+00
1.928158e+01	-5.413941e+00
1.939295e+01	-5.449662e+00
1.950496e+01	-5.485505e+00
1.961762e+01	-5.521322e+00
1.973093e+01	-5.557416e+00
1.984490e+01	-5.593631e+00
1.995952e+01	-5.629768e+00
2.007480e+01	-5.666154e+00
2.019076e+01	-5.702611e+00
2.030738e+01	-5.739585e+00
2.042467e+01	-5.776047e+00
2.054264e+01	-5.813151e+00
2.066130e+01	-5.849743e+00
2.078064e+01	-5.887062e+00
2.090066e+01	-5.924112e+00
2.102139e+01	-5.961607e+00
2.114280e+01	-5.999085e+00
2.126492e+01	-6.036628e+00
2.138775e+01	-6.074280e+00
2.151128e+01	-6.111897e+00
2.163553e+01	-6.149577e+00
2.176050e+01	-6.187712e+00
2.188619e+01	-6.225355e+00
2.201260e+01	-6.264056e+00
2.213974e+01	-6.301934e+00
2.226762e+01	-6.340088e+00
2.239624e+01	-6.378610e+00
2.252560e+01	-6.417093e+00
2.265571e+01	-6.456217e+00
2.278656e+01	-6.494592e+00
2.291818e+01	-6.533564e+00
2.305055e+01	-6.572107e+00
2.318369e+01	-6.611585e+00
2.331760e+01	-6.650786e+00
2.345228e+01	-6.690004e+00
2.358774e+01	-6.729572e+00
2.372398e+01	-6.769191e+00
2.386101e+01	-6.808316e+00
2.399883e+01	-6.848066e+00
2.413745e+01	-6.888052e+00
2.427686e+01	-6.927839e+00
2.441709e+01	-6.967547e+00
2.455812e+01	-7.007412e+00
2.469997e+01	-7.047473e+00
2.484263e+01	-7.087712e+00
2.498612e+01	-7.127823e+00
2.513044e+01	-7.168505e+00
2.527559e+01	-7.208955e+00
2.542158e+01	-7.249770e+00
2.556842e+01	-7.290146e+00
2.571610e+01	-7.330876e+00
2.586463e+01	-7.371679e+00
2.601403e+01	-7.412644e+00
2.616428e+01	-7.453672e+00
2.631541e+01	-7.494935e+00
2.646740e+01	-7.536471e+00
2.662028e+01	-7.577288e+00
2.677404e+01	-7.618622e+00
2.692868e+01	-7.659709e+00
2.708422e+01	-7.701238e+00
2.724066e+01	-7.743547e+00
2.739800e+01	-7.784565e+00
2.755625e+01	-7.826383e+00
2.771541e+01	-7.868290e+00
2.787550e+01	-7.910365e+00
2.803650e+01	-7.952039e+00
2.819844e+01	-7.994216e+00
2.836131e+01	-8.036175e+00
2.852513e+01	-8.078432e+00
2.868989e+01	-8.120555e+00
2.885560e+01	-8.163037e+00
2.902227e+01	-8.205220e+00
2.918990e+01	-8.248162e+00
2.935850e+01	-8.290278e+00
2.952807e+01	-8.333465e+00
2.969863e+01	-8.375954e+00
2.987016e+01	-8.418575e+00
3.004269e+01	-8.461582e+00
3.021622e+01	-8.504691e+00
3.039075e+01	-8.547789e+00
3.056628e+01	-8.590481e+00
3.074283e+01	-8.633614e+00
3.092040e+01	-8.676823e+00
3.109900e+01	-8.720387e+00
3.127862e+01	-8.763749e+00
3.145929e+01	-8.806517e+00
3.164099e+01	-8.850304e+00
3.182375e+01	-8.894002e+00
3.200756e+01	-8.937898e+00
3.219244e+01	-8.981575e+00
3.237838e+01	-9.025247e+00
3.256540e+01	-9.068572e+00
3.275349e+01	-9.112245e+00
3.294268e+01	-9.156671e+00
3.313295e+01	-9.200339e+00
3.332433e+01	-9.244632e+00
3.351681e+01	-9.288746e+00
3.371040e+01	-9.332819e+00
3.390511e+01	-9.376647e+00
3.410094e+01	-9.421152e+00
3.429791e+01	-9.465244e+00
3.449601e+01	-9.509994e+00
3.469526e+01	-9.554646e+00
3.489566e+01	-9.599071e+00
3.509721e+01	-9.644200e+00
3.529993e+01	-9.688215e+00
3.550382e+01	-9.732853e+00
3.570889e+01	-9.777702e+00
3.591515e+01	-9.822457e+00
3.612259e+01	-9.866979e+00
3.633123e+01	-9.911763e+00
3.654108e+01	-9.957097e+00
3.675214e+01	-1.000192e+01
3.696442e+01	-1.004684e+01
3.717792e+01	-1.009226e+01
3.739266e+01	-1.013781e+01
3.760864e+01	-1.018252e+01
3.782587e+01	-1.022764e+01
3.804435e+01	-1.027328e+01
3.826409e+01	-1.031806e+01
3.848510e+01	-1.036411e+01
3.870739e+01	-1.040919e+01
3.893096e+01	-1.045561e+01
3.915583e+01	-1.050031e+01
3.938199e+01	-1.054568e+01
3.960946e+01	-1.059133e+01
3.983824e+01	-1.063702e+01
4.006834e+01	-1.068262e+01
4.029978e+01	-1.072848e+01
4.053255e+01	-1.077441e+01
4.076666e+01	-1.082041e+01
4.100213e+01	-1.086642e+01
4.123896e+01	-1.091200e+01
4.147715e+01	-1.095880e+01
4.171672e+01	-1.100447e+01
4.195767e+01	-1.105000e+01
4.220002e+01	-1.109629e+01
4.244377e+01	-1.114254e+01
4.268892e+01	-1.118858e+01
4.293549e+01	-1.123520e+01
4.318348e+01	-1.128127e+01
4.343291e+01	-1.132753e+01
4.368377e+01	-1.137460e+01
4.393609e+01	-1.142055e+01
4.418986e+01	-1.146603e+01
4.444510e+01	-1.151362e+01
4.470182e+01	-1.155981e+01
4.496001e+01	-1.160661e+01
4.521970e+01	-1.165320e+01
4.548089e+01	-1.170036e+01
4.574358e+01	-1.174597e+01
4.600779e+01	-1.179298e+01
4.627353e+01	-1.183996e+01
4.654081e+01	-1.188676e+01
4.680963e+01	-1.193332e+01
4.708000e+01	-1.198030e+01
4.735193e+01	-1.202724e+01
4.762543e+01	-1.207438e+01
4.790051e+01	-1.212139e+01
4.817719e+01	-1.216772e+01
4.845545e+01	-1.221518e+01
4.873533e+01	-1.226168e+01
4.901682e+01	-1.230887e+01
4.929994e+01	-1.235610e+01
4.958470e+01	-1.240399e+01
4.987110e+01	-1.245038e+01
5.015915e+01	-1.249788e+01
5.044887e+01	-1.254423e+01
5.074026e+01	-1.259166e+01
5.103333e+01	-1.264008e+01
5.132810e+01	-1.268695e+01
5.162457e+01	-1.273438e+01
5.192275e+01	-1.278139e+01
5.222265e+01	-1.282898e+01
5.252429e+01	-1.287638e+01
5.282767e+01	-1.292399e+01
5.313280e+01	-1.297070e+01
5.343969e+01	-1.301872e+01
5.374836e+01	-1.306644e+01
5.405880e+01	-1.311409e+01
5.437105e+01	-1.316176e+01
5.468509e+01	-1.320862e+01
5.500095e+01	-1.325658e+01
5.531863e+01	-1.330425e+01
5.563815e+01	-1.335101e+01
5.595951e+01	-1.339964e+01
5.628273e+01	-1.344808e+01
5.660782e+01	-1.349551e+01
5.693479e+01	-1.354296e+01
5.726364e+01	-1.359215e+01
5.759439e+01	-1.363958e+01
5.792705e+01	-1.368630e+01
5.826164e+01	-1.373456e+01
5.859815e+01	-1.378223e+01
5.893662e+01	-1.383041e+01
5.927703e+01	-1.387898e+01
5.961941e+01	-1.392692e+01
5.996377e+01	-1.397463e+01
6.031012e+01	-1.402280e+01
6.065847e+01	-1.407093e+01
6.100883e+01	-1.411861e+01
6.136121e+01	-1.416724e+01
6.171563e+01	-1.421488e+01
6.207210e+01	-1.426256e+01
6.243063e+01	-1.431211e+01
6.279122e+01	-1.435892e+01
6.315390e+01	-1.440759e+01
6.351868e+01	-1.445597e+01
6.388556e+01	-1.450403e+01
6.425456e+01	-1.455219e+01
6.462569e+01	-1.460042e+01
6.499897e+01	-1.464965e+01
6.537440e+01	-1.469672e+01
6.575200e+01	-1.474608e+01
6.613178e+01	-1.479385e+01
6.651375e+01	-1.484274e+01
6.689793e+01	-1.489071e+01
6.728433e+01	-1.493862e+01
6.767297e+01	-1.498718e+01
6.806384e+01	-1.503623e+01
6.845698e+01	-1.508430e+01
6.885238e+01	-1.513284e+01
6.925007e+01	-1.518163e+01
6.965005e+01	-1.523001e+01
7.005235e+01	-1.527868e+01
7.045697e+01	-1.532739e+01
7.086393e+01	-1.537600e+01
7.127323e+01	-1.542422e+01
7.168490e+01	-1.547320e+01
7.209895e+01	-1.552116e+01
7.251539e+01	-1.556959e+01
7.293424e+01	-1.561938e+01
7.335551e+01	-1.566769e+01
7.377920e+01	-1.571607e+01
7.420535e+01	-1.576482e+01
7.463396e+01	-1.581340e+01
7.506504e+01	-1.586281e+01
7.549861e+01	-1.591115e+01
7.593469e+01	-1.595959e+01
7.637328e+01	-1.600837e+01
7.681441e+01	-1.605716e+01
7.725809e+01	-1.610613e+01
7.770433e+01	-1.615584e+01
7.815315e+01	-1.620441e+01
7.860456e+01	-1.625222e+01
7.905857e+01	-1.630193e+01
7.951521e+01	-1.635145e+01
7.997449e+01	-1.639948e+01
8.043642e+01	-1.644692e+01
8.090102e+01	-1.649569e+01
8.136830e+01	-1.654621e+01
8.183828e+01	-1.659458e+01
8.231097e+01	-1.664274e+01
8.278640e+01	-1.669301e+01
8.326457e+01	-1.674044e+01
8.374550e+01	-1.679015e+01
8.422921e+01	-1.684019e+01
8.471572e+01	-1.688718e+01
8.520503e+01	-1.693729e+01
8.569717e+01	-1.698683e+01
8.619215e+01	-1.703646e+01
8.669000e+01	-1.708479e+01
8.719071e+01	-1.713428e+01
8.769432e+01	-1.718346e+01
8.820084e+01	-1.723094e+01
8.871029e+01	-1.728101e+01
8.922267e+01	-1.733052e+01
8.973802e+01	-1.737878e+01
9.025634e+01	-1.742722e+01
9.077766e+01	-1.747760e+01
9.130199e+01	-1.752674e+01
9.182935e+01	-1.757613e+01
9.235975e+01	-1.762613e+01
9.289321e+01	-1.767411e+01
9.342976e+01	-1.772440e+01
9.396941e+01	-1.777256e+01
9.451217e+01	-1.782208e+01
9.505807e+01	-1.787046e+01
9.560712e+01	-1.792103e+01
9.615934e+01	-1.796948e+01
9.671476e+01	-1.801770e+01
9.727338e+01	-1.806845e+01
9.783522e+01	-1.811704e+01
9.840032e+01	-1.816555e+01
9.896867e+01	-1.821552e+01
9.954031e+01	-1.826505e+01
1.001153e+02	-1.831431e+01
1.006935e+02	-1.836367e+01
1.012751e+02	-1.841235e+01
1.018601e+02	-1.846242e+01
1.024484e+02	-1.851024e+01
1.030402e+02	-1.856013e+01
1.036353e+02	-1.861126e+01
1.042339e+02	-1.866023e+01
1.048360e+02	-1.870954e+01
1.054415e+02	-1.875931e+01
1.060505e+02	-1.880650e+01
1.066631e+02	-1.885712e+01
1.072791e+02	-1.890812e+01
1.078988e+02	-1.895492e+01
1.085220e+02	-1.900591e+01
1.091488e+02	-1.905401e+01
1.097793e+02	-1.910502e+01
1.104133e+02	-1.915430e+01
1.110511e+02	-1.920307e+01
1.116925e+02	-1.925260e+01
1.123376e+02	-1.930217e+01
1.129865e+02	-1.935136e+01
1.136391e+02	-1.940021e+01
1.142955e+02	-1.945157e+01
1.149556e+02	-1.950078e+01
1.156196e+02	-1.954922e+01
1.162874e+02	-1.959740e+01
1.169591e+02	-1.964795e+01
1.176347e+02	-1.969730e+01
1.183141e+02	-1.974580e+01
1.189975e+02	-1.979636e+01
1.196848e+02	-1.984662e+01
1.203761e+02	-1.989476e+01
1.210714e+02	-1.994539e+01
1.217707e+02	-1.999538e+01
1.224740e+02	-2.004316e+01
1.231814e+02	-2.009362e+01
1.238929e+02	-2.014331e+01
1.246085e+02	-2.019195e+01
1.253283e+02	-2.024159e+01
1.260522e+02	-2.029047e+01
1.267802e+02	-2.034207e+01
1.275125e+02	-2.039258e+01
1.282490e+02	-2.044030e+01
1.289898e+02	-2.049012e+01
1.297348e+02	-2.054123e+01
1.304842e+02	-2.058884e+01
1.312378e+02	-2.063977e+01
1.319959e+02	-2.068822e+01
1.327583e+02	-2.073747e+01
1.335251e+02	-2.078682e+01
1.342963e+02	-2.083671e+01
1.350720e+02	-2.088745e+01
1.358522e+02	-2.093750e+01
1.366368e+02	-2.098552e+01
1.374260e+02	-2.103628e+01
1.382198e+02	-2.108621e+01
1.390182e+02	-2.113474e+01
1.398211e+02	-2.118575e+01
1.406287e+02	-2.123316e+01
1.414410e+02	-2.128454e+01
1.422579e+02	-2.133355e+01
1.430796e+02	-2.138202e+01
1.439060e+02	-2.143289e+01
1.447372e+02	-2.148252e+01
1.455732e+02	-2.153350e+01
1.464141e+02	-2.158225e+01
1.472597e+02	-2.163279e+01
1.481103e+02	-2.168329e+01
1.489658e+02	-2.173092e+01
1.498262e+02	-2.178215e+01
1.506916e+02	-2.183136e+01
1.515620e+02	-2.187970e+01
1.524374e+02	-2.193083e+01
1.533179e+02	-2.198140e+01
1.542034e+02	-2.203028e+01
1.550941e+02	-2.207968e+01
1.559899e+02	-2.212847e+01
1.568909e+02	-2.217813e+01
1.577971e+02	-2.223019e+01
1.587085e+02	-2.227851e+01
1.596252e+02	-2.232717e+01
1.605472e+02	-2.238029e+01
1.614745e+02	-2.242866e+01
1.624072e+02	-2.247760e+01
1.633453e+02	-2.252686e+01
1.642887e+02	-2.257955e+01
1.652377e+02	-2.262675e+01
1.661921e+02	-2.267656e+01
1.671520e+02	-2.272675e+01
1.681175e+02	-2.277615e+01
1.690885e+02	-2.282670e+01
1.700651e+02	-2.287603e+01
1.710474e+02	-2.292387e+01
1.720354e+02	-2.297311e+01
1.730291e+02	-2.302685e+01
1.740285e+02	-2.307529e+01
1.750337e+02	-2.312567e+01
1.760446e+02	-2.317630e+01
1.770615e+02	-2.322324e+01
1.780842e+02	-2.327271e+01
1.791128e+02	-2.332167e+01
1.801473e+02	-2.337239e+01
1.811878e+02	-2.342309e+01
1.822344e+02	-2.347351e+01
1.832870e+02	-2.352597e+01
1.843456e+02	-2.357446e+01
1.854104e+02	-2.361974e+01
1.864813e+02	-2.367248e+01
1.875584e+02	-2.372012e+01
1.886418e+02	-2.376978e+01
1.897313e+02	-2.382097e+01
1.908272e+02	-2.387191e+01
1.919294e+02	-2.392215e+01
1.930380e+02	-2.397184e+01
1.941530e+02	-2.402107e+01
1.952744e+02	-2.407296e+01
1.964023e+02	-2.411999e+01
1.975367e+02	-2.416994e+01
1.986777e+02	-2.422414e+01
1.998252e+02	-2.426999e+01
2.009794e+02	-2.432027e+01
2.021403e+02	-2.437014e+01
2.033078e+02	-2.442054e+01
2.044821e+02	-2.447047e+01
2.056632e+02	-2.451946e+01
2.068511e+02	-2.457367e+01
2.080459e+02	-2.462026e+01
2.092475e+02	-2.467181e+01
2.104561e+02	-2.471902e+01
2.116717e+02	-2.476820e+01
2.128943e+02	-2.481715e+01
2.141240e+02	-2.487346e+01
2.153608e+02	-2.491907e+01
2.166047e+02	-2.496805e+01
2.178558e+02	-2.501768e+01
2.191141e+02	-2.506866e+01
2.203797e+02	-2.511810e+01
2.216526e+02	-2.516903e+01
2.229329e+02	-2.521857e+01
2.242205e+02	-2.527002e+01
2.255156e+02	-2.531728e+01
2.268182e+02	-2.537178e+01
2.281283e+02	-2.541842e+01
2.294459e+02	-2.547121e+01
2.307712e+02	-2.551957e+01
2.321041e+02	-2.556268e+01
2.334447e+02	-2.561743e+01
2.347931e+02	-2.566956e+01
2.361493e+02	-2.571950e+01
2.375133e+02	-2.576700e+01
2.388851e+02	-2.581944e+01
2.402649e+02	-2.586864e+01
2.416527e+02	-2.591843e+01
2.430484e+02	-2.596831e+01
2.444523e+02	-2.602027e+01
2.458642e+02	-2.606770e+01
2.472843e+02	-2.611337e+01
2.487126e+02	-2.616731e+01
2.501492e+02	-2.621370e+01
2.515940e+02	-2.627034e+01
2.530472e+02	-2.631937e+01
2.545088e+02	-2.636672e+01
2.559789e+02	-2.641880e+01
2.574574e+02	-2.646717e+01
2.589444e+02	-2.651648e+01
2.604401e+02	-2.656974e+01
2.619444e+02	-2.662034e+01
2.634574e+02	-2.666647e+01
2.649791e+02	-2.672251e+01
2.665096e+02	-2.677119e+01
2.680489e+02	-2.681779e+01
2.695972e+02	-2.686702e+01
2.711544e+02	-2.691584e+01
2.727205e+02	-2.696651e+01
2.742958e+02	-2.701567e+01
2.758801e+02	-2.706796e+01
2.774736e+02	-2.711723e+01
2.790762e+02	-2.716565e+01
2.806882e+02	-2.721849e+01
2.823094e+02	-2.726796e+01
2.839400e+02	-2.731771e+01
2.855800e+02	-2.736652e+01
2.872295e+02	-2.741673e+01
2.888886e+02	-2.746705e+01
2.905572e+02	-2.751716e+01
2.922354e+02	-2.756557e+01
2.939234e+02	-2.761765e+01
2.956211e+02	-2.767210e+01
2.973286e+02	-2.772026e+01
2.990459e+02	-2.776974e+01
3.007732e+02	-2.781690e+01
3.025104e+02	-2.786560e+01
3.042577e+02	-2.791491e+01
3.060151e+02	-2.796435e+01
3.077826e+02	-2.801635e+01
3.095604e+02	-2.806766e+01
3.113484e+02	-2.811541e+01
3.131467e+02	-2.816879e+01
3.149554e+02	-2.821852e+01
3.167746e+02	-2.826605e+01
3.186043e+02	-2.831420e+01
3.204445e+02	-2.836639e+01
3.222954e+02	-2.841846e+01
3.241570e+02	-2.847099e+01
3.260293e+02	-2.851554e+01
3.279124e+02	-2.856859e+01
3.298064e+02	-2.861922e+01
3.317114e+02	-2.866545e+01
3.336273e+02	-2.871821e+01
3.355544e+02	-2.876890e+01
3.374925e+02	-2.882448e+01
3.394418e+02	-2.886788e+01
3.414024e+02	-2.892020e+01
3.433744e+02	-2.896806e+01
3.453577e+02	-2.901832e+01
3.473525e+02	-2.906806e+01
3.493588e+02	-2.911881e+01
3.513766e+02	-2.916781e+01
3.534062e+02	-2.922150e+01
3.554474e+02	-2.926544e+01
3.575005e+02	-2.931803e+01
3.595654e+02	-2.936803e+01
3.616422e+02	-2.942213e+01
3.637311e+02	-2.946125e+01
3.658320e+02	-2.952057e+01
3.679450e+02	-2.955975e+01
3.700702e+02	-2.961816e+01
3.722077e+02	-2.966648e+01
3.743576e+02	-2.972578e+01
3.765199e+02	-2.976916e+01
3.786946e+02	-2.982179e+01
3.808820e+02	-2.986845e+01
3.830819e+02	-2.991851e+01
3.852946e+02	-2.997064e+01
3.875200e+02	-3.001807e+01
3.897583e+02	-3.007236e+01
3.920096e+02	-3.011948e+01
3.942738e+02	-3.017369e+01
3.965511e+02	-3.021498e+01
3.988416e+02	-3.027226e+01
4.011452e+02	-3.032078e+01
4.034622e+02	-3.036572e+01
4.057926e+02	-3.041306e+01
4.081365e+02	-3.046874e+01
4.104938e+02	-3.052497e+01
4.128648e+02	-3.057381e+01
4.152495e+02	-3.061932e+01
4.176480e+02	-3.066893e+01
4.200603e+02	-3.072360e+01
4.224866e+02	-3.077569e+01
4.249268e+02	-3.081660e+01
4.273812e+02	-3.086962e+01
4.298497e+02	-3.092288e+01
4.323325e+02	-3.097687e+01
4.348297e+02	-3.102177e+01
4.373412e+02	-3.106837e+01
4.398673e+02	-3.111734e+01
4.424079e+02	-3.117273e+01
4.449633e+02	-3.122259e+01
4.475334e+02	-3.127286e+01
4.501183e+02	-3.132330e+01
4.527182e+02	-3.137273e+01
4.553330e+02	-3.142664e+01
4.579630e+02	-3.147377e+01
4.606082e+02	-3.152936e+01
4.632687e+02	-3.157212e+01
4.659445e+02	-3.162699e+01
4.686358e+02	-3.167321e+01
4.713426e+02	-3.171648e+01
4.740650e+02	-3.177979e+01
4.768032e+02	-3.182485e+01
4.795572e+02	-3.187988e+01
4.823271e+02	-3.192135e+01
4.851130e+02	-3.197704e+01
4.879150e+02	-3.202785e+01
4.907332e+02	-3.207364e+01
4.935676e+02	-3.213256e+01
4.964185e+02	-3.217779e+01
4.992858e+02	-3.222966e+01
5.021696e+02	-3.227737e+01
5.050701e+02	-3.232694e+01
5.079874e+02	-3.238162e+01
5.109215e+02	-3.242998e+01
5.138726e+02	-3.248143e+01
5.168407e+02	-3.252503e+01
5.198259e+02	-3.257840e+01
5.228284e+02	-3.262733e+01
5.258482e+02	-3.267862e+01
5.288855e+02	-3.273141e+01
5.319403e+02	-3.277524e+01
5.350128e+02	-3.282861e+01
5.381030e+02	-3.287551e+01
5.412111e+02	-3.294008e+01
5.443371e+02	-3.298362e+01
5.474812e+02	-3.302532e+01
5.506434e+02	-3.308114e+01
5.538239e+02	-3.312856e+01
5.570228e+02	-3.317329e+01
5.602401e+02	-3.323127e+01
5.634760e+02	-3.327825e+01
5.667306e+02	-3.332849e+01
5.700040e+02	-3.338314e+01
5.732964e+02	-3.343221e+01
5.766077e+02	-3.348607e+01
5.799382e+02	-3.353053e+01
5.832879e+02	-3.358136e+01
5.866569e+02	-3.363703e+01
5.900454e+02	-3.368246e+01
5.934535e+02	-3.373169e+01
5.968813e+02	-3.377672e+01
6.003288e+02	-3.383077e+01
6.037963e+02	-3.388549e+01
6.072838e+02	-3.393228e+01
6.107914e+02	-3.399115e+01
6.143194e+02	-3.403688e+01
6.178676e+02	-3.408428e+01
6.214364e+02	-3.413436e+01
6.250258e+02	-3.418378e+01
6.286359e+02	-3.424295e+01
6.322669e+02	-3.429388e+01
6.359189e+02	-3.434177e+01
6.395919e+02	-3.438376e+01
6.432862e+02	-3.444100e+01
6.470017e+02	-3.448814e+01
6.507388e+02	-3.453685e+01
6.544974e+02	-3.459502e+01
6.582778e+02	-3.464289e+01
6.620800e+02	-3.468593e+01
6.659041e+02	-3.474374e+01
6.697504e+02	-3.478975e+01
6.736188e+02	-3.484940e+01
6.775096e+02	-3.489678e+01
6.814229e+02	-3.493865e+01
6.853587e+02	-3.500166e+01
6.893173e+02	-3.504725e+01
6.932988e+02	-3.509514e+01
6.973033e+02	-3.514169e+01
7.013309e+02	-3.519383e+01
