Frequency(Hz)	Magnitude(dB)
1.000000e+01	-2.081484e+00
1.005776e+01	-2.100549e+00
1.011585e+01	-2.119701e+00
1.017428e+01	-2.139207e+00
1.023305e+01	-2.158589e+00
1.029215e+01	-2.178242e+00
1.035160e+01	-2.198353e+00
1.041139e+01	-2.218212e+00
1.047153e+01	-2.238257e+00
1.053201e+01	-2.258426e+00
1.059284e+01	-2.278588e+00
1.065403e+01	-2.299194e+00
1.071556e+01	-2.319926e+00
1.077746e+01	-2.340615e+00
1.083971e+01	-2.361546e+00
1.090232e+01	-2.382725e+00
1.096529e+01	-2.403687e+00
1.102862e+01	-2.425231e+00
1.109232e+01	-2.446709e+00
1.115639e+01	-2.468119e+00
1.122083e+01	-2.489923e+00
1.128564e+01	-2.511908e+00
1.135083e+01	-2.533747e+00
1.141639e+01	-2.556041e+00
1.148233e+01	-2.578437e+00
1.154865e+01	-2.600995e+00
1.161536e+01	-2.623428e+00
1.168245e+01	-2.646459e+00
1.174992e+01	-2.669202e+00
1.181779e+01	-2.692130e+00
1.188605e+01	-2.715430e+00
1.195470e+01	-2.738859e+00
1.202375e+01	-2.762283e+00
1.209320e+01	-2.785612e+00
1.216305e+01	-2.809758e+00
1.223330e+01	-2.833693e+00
1.230396e+01	-2.857472e+00
1.237503e+01	-2.881673e+00
1.244651e+01	-2.906182e+00
1.251840e+01	-2.930567e+00
1.259070e+01	-2.955156e+00
1.266343e+01	-2.979895e+00
1.273657e+01	-3.004728e+00
1.281014e+01	-3.029820e+00
1.288413e+01	-3.055195e+00
1.295855e+01	-3.080519e+00
1.303339e+01	-3.105970e+00
1.310867e+01	-3.131608e+00
1.318439e+01	-3.157117e+00
1.326054e+01	-3.183217e+00
1.333713e+01	-3.209301e+00
1.341417e+01	-3.235668e+00
1.349165e+01	-3.261673e+00
1.356958e+01	-3.288463e+00
1.364795e+01	-3.315021e+00
1.372678e+01	-3.341767e+00
1.380607e+01	-3.368562e+00
1.388581e+01	-3.395788e+00
1.396602e+01	-3.422974e+00
1.404668e+01	-3.450348e+00
1.412782e+01	-3.477795e+00
1.420942e+01	-3.505371e+00
1.429149e+01	-3.533260e+00
1.437404e+01	-3.561248e+00
1.445706e+01	-3.589486e+00
1.454057e+01	-3.617282e+00
1.462455e+01	-3.645711e+00
1.470902e+01	-3.674369e+00
1.479398e+01	-3.702832e+00
1.487943e+01	-3.731677e+00
1.496537e+01	-3.760604e+00
1.505181e+01	-3.789578e+00
1.513875e+01	-3.818717e+00
1.522619e+01	-3.847907e+00
1.531414e+01	-3.877557e+00
1.540259e+01	-3.907104e+00
1.549156e+01	-3.936800e+00
1.558103e+01	-3.966931e+00
1.567103e+01	-3.997004e+00
1.576155e+01	-4.027027e+00
1.585258e+01	-4.057333e+00
1.594415e+01	-4.087698e+00
1.603624e+01	-4.118145e+00
1.612886e+01	-4.149109e+00
1.622202e+01	-4.179675e+00
1.631572e+01	-4.210944e+00
1.640996e+01	-4.242241e+00
1.650474e+01	-4.273301e+00
1.660008e+01	-4.304719e+00
1.669596e+01	-4.336038e+00
1.679239e+01	-4.367720e+00
1.688938e+01	-4.399808e+00
1.698694e+01	-4.431243e+00
1.708505e+01	-4.463682e+00
1.718373e+01	-4.495907e+00
1.728299e+01	-4.527819e+00
1.738281e+01	-4.560374e+00
1.748322e+01	-4.593340e+00
1.758420e+01	-4.625989e+00
1.768576e+01	-4.659109e+00
1.778792e+01	-4.691721e+00
1.789066e+01	-4.725118e+00
1.799399e+01	-4.758154e+00
1.809793e+01	-4.791251e+00
1.820246e+01	-4.825065e+00
1.830760e+01	-4.858846e+00
1.841334e+01	-4.892373e+00
1.851969e+01	-4.925754e+00
1.862666e+01	-4.960151e+00
1.873425e+01	-4.994243e+00
1.884246e+01	-5.028682e+00
1.895129e+01	-5.062784e+00
1.906075e+01	-5.097446e+00
1.917085e+01	-5.132082e+00
1.928158e+01	-5.166844e+00
1.939295e+01	-5.201435e+00
1.950496e+01	-5.236913e+00
1.961762e+01	-5.272157e+00
1.973093e+01	-5.307100e+00
1.984490e+01	-5.342331e+00
1.995952e+01	-5.378013e+00
2.007480e+01	-5.413262e+00
2.019076e+01	-5.448940e+00
2.030738e+01	-5.484656e+00
2.042467e+01	-5.521259e+00
2.054264e+01	-5.556967e+00
2.066130e+01	-5.593054e+00
2.078064e+01	-5.629331e+00
2.090066e+01	-5.665657e+00
2.102139e+01	-5.702336e+00
2.114280e+01	-5.738833e+00
2.126492e+01	-5.775795e+00
2.138775e+01	-5.812636e+00
2.151128e+01	-5.849377e+00
2.163553e+01	-5.886719e+00
2.176050e+01	-5.923549e+00
2.188619e+01	-5.961068e+00
2.201260e+01	-5.998257e+00
2.213974e+01	-6.035787e+00
2.226762e+01	-6.073450e+00
2.239624e+01	-6.111147e+00
2.252560e+01	-6.148849e+00
2.265571e+01	-6.186771e+00
2.278656e+01	-6.225323e+00
2.291818e+01	-6.263051e+00
2.305055e+01	-6.301332e+00
2.318369e+01	-6.339837e+00
2.331760e+01	-6.378164e+00
2.345228e+01	-6.416873e+00
2.358774e+01	-6.455249e+00
2.372398e+01	-6.493884e+00
2.386101e+01	-6.533249e+00
2.399883e+01	-6.572122e+00
2.413745e+01	-6.611143e+00
2.427686e+01	-6.650152e+00
2.441709e+01	-6.689529e+00
2.455812e+01	-6.728412e+00
2.469997e+01	-6.767937e+00
2.484263e+01	-6.807911e+00
2.498612e+01	-6.847450e+00
2.513044e+01	-6.887382e+00
2.527559e+01	-6.927234e+00
2.542158e+01	-6.966933e+00
2.556842e+01	-7.006728e+00
2.571610e+01	-7.046789e+00
2.586463e+01	-7.087122e+00
2.601403e+01	-7.127727e+00
2.616428e+01	-7.168038e+00
2.631541e+01	-7.208376e+00
2.646740e+01	-7.249087e+00
2.662028e+01	-7.289167e+00
2.677404e+01	-7.330303e+00
2.692868e+01	-7.370841e+00
2.708422e+01	-7.411994e+00
2.724066e+01	-7.453039e+00
2.739800e+01	-7.494144e+00
2.755625e+01	-7.535285e+00
2.771541e+01	-7.576667e+00
2.787550e+01	-7.617884e+00
2.803650e+01	-7.659462e+00
2.819844e+01	-7.700632e+00
2.836131e+01	-7.742375e+00
2.852513e+01	-7.784190e+00
2.868989e+01	-7.825669e+00
2.885560e+01	-7.867648e+00
2.902227e+01	-7.909273e+00
2.918990e+01	-7.951377e+00
2.935850e+01	-7.993765e+00
2.952807e+01	-8.035588e+00
2.969863e+01	-8.077742e+00
2.987016e+01	-8.120403e+00
3.004269e+01	-8.161904e+00
3.021622e+01	-8.204656e+00
3.039075e+01	-8.247426e+00
3.056628e+01	-8.289354e+00
3.074283e+01	-8.332600e+00
3.092040e+01	-8.374927e+00
3.109900e+01	-8.417731e+00
3.127862e+01	-8.460680e+00
3.145929e+01	-8.503851e+00
3.164099e+01	-8.546977e+00
3.182375e+01	-8.589913e+00
3.200756e+01	-8.632814e+00
3.219244e+01	-8.675927e+00
3.237838e+01	-8.719294e+00
3.256540e+01	-8.762613e+00
3.275349e+01	-8.806487e+00
3.294268e+01	-8.849830e+00
3.313295e+01	-8.893157e+00
3.332433e+01	-8.936901e+00
3.351681e+01	-8.980729e+00
3.371040e+01	-9.024436e+00
3.390511e+01	-9.067815e+00
3.410094e+01	-9.111834e+00
3.429791e+01	-9.155779e+00
3.449601e+01	-9.199973e+00
3.469526e+01	-9.244266e+00
3.489566e+01	-9.287778e+00
3.509721e+01	-9.332064e+00
3.529993e+01	-9.376055e+00
3.550382e+01	-9.420768e+00
3.570889e+01	-9.465203e+00
3.591515e+01	-9.509389e+00
3.612259e+01	-9.553555e+00
3.633123e+01	-9.597860e+00
3.654108e+01	-9.642716e+00
3.675214e+01	-9.686835e+00
3.696442e+01	-9.732208e+00
3.717792e+01	-9.776575e+00
3.739266e+01	-9.821792e+00
3.760864e+01	-9.866546e+00
3.782587e+01	-9.911335e+00
3.804435e+01	-9.956584e+00
3.826409e+01	-1.000163e+01
3.848510e+01	-1.004678e+01
3.870739e+01	-1.009123e+01
3.893096e+01	-1.013682e+01
3.915583e+01	-1.018237e+01
3.938199e+01	-1.022662e+01
3.960946e+01	-1.027216e+01
3.983824e+01	-1.031813e+01
4.006834e+01	-1.036343e+01
4.029978e+01	-1.040871e+01
4.053255e+01	-1.045436e+01
4.076666e+01	-1.049967e+01
4.100213e+01	-1.054487e+01
4.123896e+01	-1.059100e+01
4.147715e+01	-1.063657e+01
4.171672e+01	-1.068235e+01
4.195767e+01	-1.072768e+01
4.220002e+01	-1.077367e+01
4.244377e+01	-1.081965e+01
4.268892e+01	-1.086578e+01
4.293549e+01	-1.091148e+01
4.318348e+01	-1.095785e+01
4.343291e+01	-1.100322e+01
4.368377e+01	-1.104971e+01
4.393609e+01	-1.109635e+01
4.418986e+01	-1.114196e+01
4.444510e+01	-1.118866e+01
4.470182e+01	-1.123427e+01
4.496001e+01	-1.128084e+01
4.521970e+01	-1.132728e+01
4.548089e+01	-1.137377e+01
4.574358e+01	-1.142021e+01
4.600779e+01	-1.146609e+01
4.627353e+01	-1.151236e+01
4.654081e+01	-1.155896e+01
4.680963e+01	-1.160566e+01
4.708000e+01	-1.165213e+01
4.735193e+01	-1.169944e+01
4.762543e+01	-1.174536e+01
4.790051e+01	-1.179255e+01
4.817719e+01	-1.183888e+01
4.845545e+01	-1.188681e+01
4.873533e+01	-1.193273e+01
4.901682e+01	-1.197960e+01
4.929994e+01	-1.202666e+01
4.958470e+01	-1.207360e+01
4.987110e+01	-1.211976e+01
5.015915e+01	-1.216711e+01
5.044887e+01	-1.221415e+01
5.074026e+01	-1.226121e+01
5.103333e+01	-1.230810e+01
5.132810e+01	-1.235524e+01
5.162457e+01	-1.240234e+01
5.192275e+01	-1.244913e+01
5.222265e+01	-1.249705e+01
5.252429e+01	-1.254445e+01
5.282767e+01	-1.259177e+01
5.313280e+01	-1.263945e+01
5.343969e+01	-1.268612e+01
5.374836e+01	-1.273334e+01
5.405880e+01	-1.278052e+01
5.437105e+01	-1.282859e+01
5.468509e+01	-1.287520e+01
5.500095e+01	-1.292326e+01
5.531863e+01	-1.297064e+01
5.563815e+01	-1.301812e+01
5.595951e+01	-1.306597e+01
5.628273e+01	-1.311363e+01
5.660782e+01	-1.316036e+01
5.693479e+01	-1.320793e+01
5.726364e+01	-1.325633e+01
5.759439e+01	-1.330342e+01
5.792705e+01	-1.335095e+01
5.826164e+01	-1.339875e+01
5.859815e+01	-1.344648e+01
5.893662e+01	-1.349461e+01
5.927703e+01	-1.354208e+01
5.961941e+01	-1.358974e+01
5.996377e+01	-1.363827e+01
6.031012e+01	-1.368581e+01
6.065847e+01	-1.373414e+01
6.100883e+01	-1.378115e+01
6.136121e+01	-1.383013e+01
6.171563e+01	-1.387783e+01
6.207210e+01	-1.392545e+01
6.243063e+01	-1.397403e+01
6.279122e+01	-1.402161e+01
6.315390e+01	-1.406991e+01
6.351868e+01	-1.411808e+01
6.388556e+01	-1.416590e+01
6.425456e+01	-1.421367e+01
6.462569e+01	-1.426226e+01
6.499897e+01	-1.431023e+01
6.537440e+01	-1.435852e+01
6.575200e+01	-1.440666e+01
6.613178e+01	-1.445503e+01
6.651375e+01	-1.450235e+01
6.689793e+01	-1.455110e+01
6.728433e+01	-1.460029e+01
6.767297e+01	-1.464914e+01
6.806384e+01	-1.469615e+01
6.845698e+01	-1.474395e+01
6.885238e+01	-1.479345e+01
6.925007e+01	-1.484191e+01
6.965005e+01	-1.489064e+01
7.005235e+01	-1.493883e+01
7.045697e+01	-1.498701e+01
7.086393e+01	-1.503516e+01
7.127323e+01	-1.508363e+01
7.168490e+01	-1.513261e+01
7.209895e+01	-1.518056e+01
7.251539e+01	-1.522909e+01
7.293424e+01	-1.527728e+01
7.335551e+01	-1.532645e+01
7.377920e+01	-1.537538e+01
7.420535e+01	-1.542375e+01
7.463396e+01	-1.547151e+01
7.506504e+01	-1.552026e+01
7.549861e+01	-1.556893e+01
7.593469e+01	-1.561882e+01
7.637328e+01	-1.566660e+01
7.681441e+01	-1.571513e+01
7.725809e+01	-1.576322e+01
7.770433e+01	-1.581305e+01
7.815315e+01	-1.586168e+01
7.860456e+01	-1.591033e+01
7.905857e+01	-1.595856e+01
7.951521e+01	-1.600722e+01
7.997449e+01	-1.605644e+01
8.043642e+01	-1.610497e+01
8.090102e+01	-1.615412e+01
8.136830e+01	-1.620282e+01
8.183828e+01	-1.625157e+01
8.231097e+01	-1.629964e+01
8.278640e+01	-1.634949e+01
8.326457e+01	-1.639817e+01
8.374550e+01	-1.644750e+01
8.422921e+01	-1.649651e+01
8.471572e+01	-1.654597e+01
8.520503e+01	-1.659414e+01
8.569717e+01	-1.664343e+01
8.619215e+01	-1.669303e+01
8.669000e+01	-1.674112e+01
8.719071e+01	-1.679037e+01
8.769432e+01	-1.683871e+01
8.820084e+01	-1.688787e+01
8.871029e+01	-1.693647e+01
8.922267e+01	-1.698698e+01
8.973802e+01	-1.703438e+01
9.025634e+01	-1.708346e+01
9.077766e+01	-1.713282e+01
9.130199e+01	-1.718225e+01
9.182935e+01	-1.723105e+01
9.235975e+01	-1.728172e+01
9.289321e+01	-1.732903e+01
9.342976e+01	-1.737880e+01
9.396941e+01	-1.742741e+01
9.451217e+01	-1.747705e+01
9.505807e+01	-1.752578e+01
9.560712e+01	-1.757574e+01
9.615934e+01	-1.762361e+01
9.671476e+01	-1.767396e+01
9.727338e+01	-1.772218e+01
9.783522e+01	-1.777064e+01
9.840032e+01	-1.781973e+01
9.896867e+01	-1.787039e+01
9.954031e+01	-1.792030e+01
1.001153e+02	-1.796708e+01
1.006935e+02	-1.801761e+01
1.012751e+02	-1.806716e+01
1.018601e+02	-1.811574e+01
1.024484e+02	-1.816588e+01
1.030402e+02	-1.821484e+01
1.036353e+02	-1.826306e+01
1.042339e+02	-1.831316e+01
1.048360e+02	-1.836233e+01
1.054415e+02	-1.841223e+01
1.060505e+02	-1.846115e+01
1.066631e+02	-1.850959e+01
1.072791e+02	-1.856055e+01
1.078988e+02	-1.861027e+01
1.085220e+02	-1.865837e+01
1.091488e+02	-1.870864e+01
1.097793e+02	-1.875627e+01
1.104133e+02	-1.880628e+01
1.110511e+02	-1.885701e+01
1.116925e+02	-1.890702e+01
1.123376e+02	-1.895502e+01
1.129865e+02	-1.900558e+01
1.136391e+02	-1.905300e+01
1.142955e+02	-1.910260e+01
1.149556e+02	-1.915364e+01
1.156196e+02	-1.920346e+01
1.162874e+02	-1.925205e+01
1.169591e+02	-1.930169e+01
1.176347e+02	-1.935161e+01
1.183141e+02	-1.939978e+01
1.189975e+02	-1.944886e+01
1.196848e+02	-1.949955e+01
1.203761e+02	-1.954742e+01
1.210714e+02	-1.959735e+01
1.217707e+02	-1.964776e+01
1.224740e+02	-1.969719e+01
1.231814e+02	-1.974551e+01
1.238929e+02	-1.979587e+01
1.246085e+02	-1.984455e+01
1.253283e+02	-1.989477e+01
1.260522e+02	-1.994319e+01
1.267802e+02	-1.999418e+01
1.275125e+02	-2.004416e+01
1.282490e+02	-2.009418e+01
1.289898e+02	-2.014162e+01
1.297348e+02	-2.019192e+01
1.304842e+02	-2.024310e+01
1.312378e+02	-2.029358e+01
1.319959e+02	-2.034199e+01
1.327583e+02	-2.038977e+01
1.335251e+02	-2.043951e+01
1.342963e+02	-2.048931e+01
1.350720e+02	-2.053969e+01
1.358522e+02	-2.058854e+01
1.366368e+02	-2.063886e+01
1.374260e+02	-2.068844e+01
1.382198e+02	-2.073793e+01
1.390182e+02	-2.078656e+01
1.398211e+02	-2.083672e+01
1.406287e+02	-2.088455e+01
1.414410e+02	-2.093612e+01
1.422579e+02	-2.098583e+01
1.430796e+02	-2.103428e+01
1.439060e+02	-2.108584e+01
1.447372e+02	-2.113458e+01
1.455732e+02	-2.118529e+01
1.464141e+02	-2.123248e+01
1.472597e+02	-2.128341e+01
1.481103e+02	-2.133432e+01
1.489658e+02	-2.138122e+01
1.498262e+02	-2.143249e+01
1.506916e+02	-2.148104e+01
1.515620e+02	-2.153428e+01
1.524374e+02	-2.158404e+01
1.533179e+02	-2.163096e+01
1.542034e+02	-2.168105e+01
1.550941e+02	-2.173093e+01
1.559899e+02	-2.178170e+01
1.568909e+02	-2.183184e+01
1.577971e+02	-2.188039e+01
1.587085e+02	-2.192938e+01
1.596252e+02	-2.197994e+01
1.605472e+02	-2.202963e+01
1.614745e+02	-2.207792e+01
1.624072e+02	-2.212821e+01
1.633453e+02	-2.217782e+01
1.642887e+02	-2.222720e+01
1.652377e+02	-2.227985e+01
1.661921e+02	-2.232897e+01
1.671520e+02	-2.237680e+01
1.681175e+02	-2.242838e+01
1.690885e+02	-2.247781e+01
1.700651e+02	-2.252469e+01
1.710474e+02	-2.258032e+01
1.720354e+02	-2.262777e+01
1.730291e+02	-2.267616e+01
1.740285e+02	-2.272754e+01
1.750337e+02	-2.277376e+01
1.760446e+02	-2.282592e+01
1.770615e+02	-2.287366e+01
1.780842e+02	-2.292499e+01
1.791128e+02	-2.297582e+01
1.801473e+02	-2.302405e+01
1.811878e+02	-2.307284e+01
1.822344e+02	-2.312483e+01
1.832870e+02	-2.317117e+01
1.843456e+02	-2.322519e+01
1.854104e+02	-2.327260e+01
1.864813e+02	-2.332387e+01
1.875584e+02	-2.337359e+01
1.886418e+02	-2.342350e+01
1.897313e+02	-2.347245e+01
1.908272e+02	-2.352356e+01
1.919294e+02	-2.357728e+01
1.930380e+02	-2.362297e+01
1.941530e+02	-2.367201e+01
1.952744e+02	-2.372265e+01
1.964023e+02	-2.377176e+01
1.975367e+02	-2.382141e+01
1.986777e+02	-2.387224e+01
1.998252e+02	-2.392130e+01
2.009794e+02	-2.396913e+01
2.021403e+02	-2.402171e+01
2.033078e+02	-2.407313e+01
2.044821e+02	-2.412159e+01
2.056632e+02	-2.417271e+01
2.068511e+02	-2.422096e+01
2.080459e+02	-2.426800e+01
2.092475e+02	-2.432000e+01
2.104561e+02	-2.437169e+01
2.116717e+02	-2.441727e+01
2.128943e+02	-2.447260e+01
2.141240e+02	-2.452056e+01
2.153608e+02	-2.456872e+01
2.166047e+02	-2.462219e+01
2.178558e+02	-2.466955e+01
2.191141e+02	-2.471826e+01
2.203797e+02	-2.477103e+01
2.216526e+02	-2.481572e+01
2.229329e+02	-2.486832e+01
2.242205e+02	-2.491715e+01
2.255156e+02	-2.497163e+01
2.268182e+02	-2.501861e+01
2.281283e+02	-2.506842e+01
2.294459e+02	-2.511656e+01
2.307712e+02	-2.516953e+01
2.321041e+02	-2.521937e+01
2.334447e+02	-2.527150e+01
2.347931e+02	-2.531628e+01
2.361493e+02	-2.537178e+01
2.375133e+02	-2.542320e+01
2.388851e+02	-2.546959e+01
2.402649e+02	-2.551640e+01
2.416527e+02	-2.556700e+01
2.430484e+02	-2.561810e+01
2.444523e+02	-2.566715e+01
2.458642e+02	-2.571722e+01
2.472843e+02	-2.576714e+01
2.487126e+02	-2.581769e+01
2.501492e+02	-2.586941e+01
2.515940e+02	-2.591749e+01
2.530472e+02	-2.596705e+01
2.545088e+02	-2.601998e+01
2.559789e+02	-2.606651e+01
2.574574e+02	-2.611781e+01
2.589444e+02	-2.617114e+01
2.604401e+02	-2.621777e+01
2.619444e+02	-2.626583e+01
2.634574e+02	-2.631788e+01
2.649791e+02	-2.637255e+01
2.665096e+02	-2.641396e+01
2.680489e+02	-2.646785e+01
2.695972e+02	-2.651609e+01
2.711544e+02	-2.656674e+01
2.727205e+02	-2.661826e+01
2.742958e+02	-2.666530e+01
2.758801e+02	-2.671837e+01
2.774736e+02	-2.676882e+01
2.790762e+02	-2.681424e+01
2.806882e+02	-2.686371e+01
2.823094e+02	-2.691747e+01
2.839400e+02	-2.696709e+01
2.855800e+02	-2.701730e+01
2.872295e+02	-2.706548e+01
2.888886e+02	-2.711515e+01
2.905572e+02	-2.716970e+01
2.922354e+02	-2.721805e+01
2.939234e+02	-2.726736e+01
2.956211e+02	-2.731882e+01
2.973286e+02	-2.736666e+01
2.990459e+02	-2.741616e+01
3.007732e+02	-2.746635e+01
3.025104e+02	-2.751759e+01
3.042577e+02	-2.756370e+01
3.060151e+02	-2.761795e+01
3.077826e+02	-2.766679e+01
3.095604e+02	-2.771567e+01
3.113484e+02	-2.776594e+01
3.131467e+02	-2.781764e+01
3.149554e+02	-2.786635e+01
3.167746e+02	-2.791754e+01
3.186043e+02	-2.796174e+01
3.204445e+02	-2.801895e+01
3.222954e+02	-2.806891e+01
3.241570e+02	-2.812002e+01
3.260293e+02	-2.817067e+01
3.279124e+02	-2.821329e+01
3.298064e+02	-2.826726e+01
3.317114e+02	-2.831704e+01
3.336273e+02	-2.836654e+01
3.355544e+02	-2.842207e+01
3.374925e+02	-2.847026e+01
3.394418e+02	-2.851701e+01
3.414024e+02	-2.856428e+01
3.433744e+02	-2.861970e+01
3.453577e+02	-2.866779e+01
3.473525e+02	-2.871677e+01
3.493588e+02	-2.877024e+01
3.513766e+02	-2.881675e+01
3.534062e+02	-2.886330e+01
3.554474e+02	-2.891508e+01
3.575005e+02	-2.896979e+01
3.595654e+02	-2.901832e+01
3.616422e+02	-2.906970e+01
3.637311e+02	-2.911735e+01
3.658320e+02	-2.917055e+01
3.679450e+02	-2.921997e+01
3.700702e+02	-2.926687e+01
3.722077e+02	-2.931628e+01
3.743576e+02	-2.936789e+01
3.765199e+02	-2.941335e+01
3.786946e+02	-2.946929e+01
3.808820e+02	-2.952036e+01
3.830819e+02	-2.957107e+01
3.852946e+02	-2.962097e+01
3.875200e+02	-2.966873e+01
3.897583e+02	-2.971767e+01
3.920096e+02	-2.976763e+01
3.942738e+02	-2.982054e+01
3.965511e+02	-2.986610e+01
3.988416e+02	-2.991893e+01
4.011452e+02	-2.996745e+01
4.034622e+02	-3.002124e+01
4.057926e+02	-3.007036e+01
4.081365e+02	-3.011845e+01
4.104938e+02	-3.017008e+01
4.128648e+02	-3.022170e+01
4.152495e+02	-3.026997e+01
4.176480e+02	-3.032203e+01
4.200603e+02	-3.037355e+01
4.224866e+02	-3.041921e+01
4.249268e+02	-3.047079e+01
4.273812e+02	-3.051687e+01
4.298497e+02	-3.056882e+01
4.323325e+02	-3.062278e+01
4.348297e+02	-3.067549e+01
4.373412e+02	-3.072080e+01
4.398673e+02	-3.077262e+01
4.424079e+02	-3.081942e+01
4.449633e+02	-3.087545e+01
4.475334e+02	-3.091978e+01
4.501183e+02	-3.097427e+01
4.527182e+02	-3.101887e+01
4.553330e+02	-3.107441e+01
4.579630e+02	-3.112712e+01
4.606082e+02	-3.117246e+01
4.632687e+02	-3.122752e+01
4.659445e+02	-3.127726e+01
4.686358e+02	-3.132320e+01
4.713426e+02	-3.137785e+01
4.740650e+02	-3.142477e+01
4.768032e+02	-3.147342e+01
4.795572e+02	-3.152306e+01
4.823271e+02	-3.157825e+01
4.851130e+02	-3.162534e+01
4.879150e+02	-3.167611e+01
4.907332e+02	-3.172365e+01
4.935676e+02	-3.177717e+01
4.964185e+02	-3.182490e+01
4.992858e+02	-3.187192e+01
5.021696e+02	-3.192706e+01
5.050701e+02	-3.198034e+01
5.079874e+02	-3.202232e+01
5.109215e+02	-3.207205e+01
5.138726e+02	-3.212720e+01
5.168407e+02	-3.217316e+01
5.198259e+02	-3.222794e+01
5.228284e+02	-3.228509e+01
5.258482e+02	-3.233132e+01
5.288855e+02	-3.237109e+01
5.319403e+02	-3.242576e+01
5.350128e+02	-3.248349e+01
5.381030e+02	-3.253204e+01
5.412111e+02	-3.257326e+01
5.443371e+02	-3.263213e+01
5.474812e+02	-3.268078e+01
5.506434e+02	-3.273390e+01
5.538239e+02	-3.278209e+01
5.570228e+02	-3.283182e+01
5.602401e+02	-3.287601e+01
5.634760e+02	-3.293323e+01
5.667306e+02	-3.298301e+01
5.700040e+02	-3.302773e+01
5.732964e+02	-3.307970e+01
5.766077e+02	-3.313467e+01
5.799382e+02	-3.317552e+01
5.832879e+02	-3.322913e+01
5.866569e+02	-3.328464e+01
5.900454e+02	-3.333317e+01
5.934535e+02	-3.338420e+01
5.968813e+02	-3.343029e+01
6.003288e+02	-3.348322e+01
6.037963e+02	-3.353647e+01
6.072838e+02	-3.358829e+01
6.107914e+02	-3.363097e+01
6.143194e+02	-3.369164e+01
6.178676e+02	-3.373977e+01
6.214364e+02	-3.377987e+01
6.250258e+02	-3.383958e+01
6.286359e+02	-3.388426e+01
6.322669e+02	-3.394024e+01
6.359189e+02	-3.398820e+01
6.395919e+02	-3.403917e+01
6.432862e+02	-3.409219e+01
6.470017e+02	-3.413644e+01
6.507388e+02	-3.418865e+01
6.544974e+02	-3.424388e+01
6.582778e+02	-3.429198e+01
6.620800e+02	-3.433932e+01
6.659041e+02	-3.439441e+01
6.697504e+02	-3.443208e+01
6.736188e+02	-3.448750e+01
6.775096e+02	-3.453712e+01
6.814229e+02	-3.459527e+01
6.853587e+02	-3.464838e+01
6.893173e+02	-3.470122e+01
6.932988e+02	-3.475145e+01
6.973033e+02	-3.478619e+01
7.013309e+02	-3.484368e+01
