Frequency(Hz)	Magnitude(dB)
1.000000e+01	-1.625776e-05
1.005776e+01	-1.644611e-05
1.011585e+01	-1.663664e-05
1.017428e+01	-1.682938e-05
1.023305e+01	-1.702435e-05
1.029215e+01	-1.722158e-05
1.035160e+01	-1.742110e-05
1.041139e+01	-1.762293e-05
1.047153e+01	-1.782709e-05
1.053201e+01	-1.803362e-05
1.059284e+01	-1.824255e-05
1.065403e+01	-1.845389e-05
1.071556e+01	-1.866769e-05
1.077746e+01	-1.888396e-05
1.083971e+01	-1.910273e-05
1.090232e+01	-1.932404e-05
1.096529e+01	-1.954792e-05
1.102862e+01	-1.977438e-05
1.109232e+01	-2.000347e-05
1.115639e+01	-2.023522e-05
1.122083e+01	-2.046965e-05
1.128564e+01	-2.070680e-05
1.135083e+01	-2.094669e-05
1.141639e+01	-2.118936e-05
1.148233e+01	-2.143485e-05
1.154865e+01	-2.168317e-05
1.161536e+01	-2.193438e-05
1.168245e+01	-2.218849e-05
1.174992e+01	-2.244555e-05
1.181779e+01	-2.270559e-05
1.188605e+01	-2.296864e-05
1.195470e+01	-2.323474e-05
1.202375e+01	-2.350392e-05
1.209320e+01	-2.377622e-05
1.216305e+01	-2.405167e-05
1.223330e+01	-2.433032e-05
1.230396e+01	-2.461219e-05
1.237503e+01	-2.489733e-05
1.244651e+01	-2.518577e-05
1.251840e+01	-2.547755e-05
1.259070e+01	-2.577272e-05
1.266343e+01	-2.607130e-05
1.273657e+01	-2.637334e-05
1.281014e+01	-2.667888e-05
1.288413e+01	-2.698796e-05
1.295855e+01	-2.730063e-05
1.303339e+01	-2.761691e-05
1.310867e+01	-2.793686e-05
1.318439e+01	-2.826051e-05
1.326054e+01	-2.858792e-05
1.333713e+01	-2.891912e-05
1.341417e+01	-2.925415e-05
1.349165e+01	-2.959307e-05
1.356958e+01	-2.993591e-05
1.364795e+01	-3.028273e-05
1.372678e+01	-3.063356e-05
1.380607e+01	-3.098846e-05
1.388581e+01	-3.134746e-05
1.396602e+01	-3.171063e-05
1.404668e+01	-3.207801e-05
1.412782e+01	-3.244964e-05
1.420942e+01	-3.282558e-05
1.429149e+01	-3.320587e-05
1.437404e+01	-3.359057e-05
1.445706e+01	-3.397972e-05
1.454057e+01	-3.437338e-05
1.462455e+01	-3.477161e-05
1.470902e+01	-3.517444e-05
1.479398e+01	-3.558195e-05
1.487943e+01	-3.599417e-05
1.496537e+01	-3.641117e-05
1.505181e+01	-3.683301e-05
1.513875e+01	-3.725972e-05
1.522619e+01	-3.769139e-05
1.531414e+01	-3.812805e-05
1.540259e+01	-3.856977e-05
1.549156e+01	-3.901661e-05
1.558103e+01	-3.946863e-05
1.567103e+01	-3.992588e-05
1.576155e+01	-4.038843e-05
1.585258e+01	-4.085634e-05
1.594415e+01	-4.132967e-05
1.603624e+01	-4.180848e-05
1.612886e+01	-4.229284e-05
1.622202e+01	-4.278282e-05
1.631572e+01	-4.327847e-05
1.640996e+01	-4.377986e-05
1.650474e+01	-4.428705e-05
1.660008e+01	-4.480013e-05
1.669596e+01	-4.531915e-05
1.679239e+01	-4.584418e-05
1.688938e+01	-4.637530e-05
1.698694e+01	-4.691256e-05
1.708505e+01	-4.745606e-05
1.718373e+01	-4.800585e-05
1.728299e+01	-4.856200e-05
1.738281e+01	-4.912460e-05
1.748322e+01	-4.969372e-05
1.758420e+01	-5.026944e-05
1.768576e+01	-5.085182e-05
1.778792e+01	-5.144095e-05
1.789066e+01	-5.203690e-05
1.799399e+01	-5.263976e-05
1.809793e+01	-5.324960e-05
1.820246e+01	-5.386651e-05
1.830760e+01	-5.449057e-05
1.841334e+01	-5.512185e-05
1.851969e+01	-5.576045e-05
1.862666e+01	-5.640644e-05
1.873425e+01	-5.705992e-05
1.884246e+01	-5.772097e-05
1.895129e+01	-5.838968e-05
1.906075e+01	-5.906614e-05
1.917085e+01	-5.975043e-05
1.928158e+01	-6.044265e-05
1.939295e+01	-6.114289e-05
1.950496e+01	-6.185125e-05
1.961762e+01	-6.256781e-05
1.973093e+01	-6.329267e-05
1.984490e+01	-6.402592e-05
1.995952e+01	-6.476768e-05
2.007480e+01	-6.551802e-05
2.019076e+01	-6.627706e-05
2.030738e+01	-6.704489e-05
2.042467e+01	-6.782162e-05
2.054264e+01	-6.860735e-05
2.066130e+01	-6.940218e-05
2.078064e+01	-7.020621e-05
2.090066e+01	-7.101957e-05
2.102139e+01	-7.184234e-05
2.114280e+01	-7.267465e-05
2.126492e+01	-7.351660e-05
2.138775e+01	-7.436830e-05
2.151128e+01	-7.522987e-05
2.163553e+01	-7.610142e-05
2.176050e+01	-7.698307e-05
2.188619e+01	-7.787493e-05
2.201260e+01	-7.877713e-05
2.213974e+01	-7.968977e-05
2.226762e+01	-8.061299e-05
2.239624e+01	-8.154691e-05
2.252560e+01	-8.249164e-05
2.265571e+01	-8.344732e-05
2.278656e+01	-8.441407e-05
2.291818e+01	-8.539202e-05
2.305055e+01	-8.638130e-05
2.318369e+01	-8.738205e-05
2.331760e+01	-8.839438e-05
2.345228e+01	-8.941844e-05
2.358774e+01	-9.045437e-05
2.372398e+01	-9.150230e-05
2.386101e+01	-9.256237e-05
2.399883e+01	-9.363472e-05
2.413745e+01	-9.471949e-05
2.427686e+01	-9.581683e-05
2.441709e+01	-9.692688e-05
2.455812e+01	-9.804979e-05
2.469997e+01	-9.918572e-05
2.484263e+01	-1.003348e-04
2.498612e+01	-1.014972e-04
2.513044e+01	-1.026730e-04
2.527559e+01	-1.038625e-04
2.542158e+01	-1.050658e-04
2.556842e+01	-1.062830e-04
2.571610e+01	-1.075143e-04
2.586463e+01	-1.087599e-04
2.601403e+01	-1.100199e-04
2.616428e+01	-1.112945e-04
2.631541e+01	-1.125838e-04
2.646740e+01	-1.138881e-04
2.662028e+01	-1.152075e-04
2.677404e+01	-1.165422e-04
2.692868e+01	-1.178924e-04
2.708422e+01	-1.192582e-04
2.724066e+01	-1.206398e-04
2.739800e+01	-1.220374e-04
2.755625e+01	-1.234512e-04
2.771541e+01	-1.248814e-04
2.787550e+01	-1.263282e-04
2.803650e+01	-1.277917e-04
2.819844e+01	-1.292722e-04
2.836131e+01	-1.307698e-04
2.852513e+01	-1.322848e-04
2.868989e+01	-1.338173e-04
2.885560e+01	-1.353676e-04
2.902227e+01	-1.369359e-04
2.918990e+01	-1.385223e-04
2.935850e+01	-1.401271e-04
2.952807e+01	-1.417505e-04
2.969863e+01	-1.433927e-04
2.987016e+01	-1.450539e-04
3.004269e+01	-1.467343e-04
3.021622e+01	-1.484343e-04
3.039075e+01	-1.501539e-04
3.056628e+01	-1.518934e-04
3.074283e+01	-1.536531e-04
3.092040e+01	-1.554332e-04
3.109900e+01	-1.572339e-04
3.127862e+01	-1.590555e-04
3.145929e+01	-1.608982e-04
3.164099e+01	-1.627622e-04
3.182375e+01	-1.646478e-04
3.200756e+01	-1.665552e-04
3.219244e+01	-1.684848e-04
3.237838e+01	-1.704367e-04
3.256540e+01	-1.724112e-04
3.275349e+01	-1.744086e-04
3.294268e+01	-1.764291e-04
3.313295e+01	-1.784731e-04
3.332433e+01	-1.805407e-04
3.351681e+01	-1.826323e-04
3.371040e+01	-1.847481e-04
3.390511e+01	-1.868884e-04
3.410094e+01	-1.890535e-04
3.429791e+01	-1.912437e-04
3.449601e+01	-1.934592e-04
3.469526e+01	-1.957005e-04
3.489566e+01	-1.979677e-04
3.509721e+01	-2.002611e-04
3.529993e+01	-2.025811e-04
3.550382e+01	-2.049280e-04
3.570889e+01	-2.073021e-04
3.591515e+01	-2.097037e-04
3.612259e+01	-2.121331e-04
3.633123e+01	-2.145907e-04
3.654108e+01	-2.170767e-04
3.675214e+01	-2.195916e-04
3.696442e+01	-2.221355e-04
3.717792e+01	-2.247090e-04
3.739266e+01	-2.273122e-04
3.760864e+01	-2.299456e-04
3.782587e+01	-2.326095e-04
3.804435e+01	-2.353043e-04
3.826409e+01	-2.380303e-04
3.848510e+01	-2.407879e-04
3.870739e+01	-2.435774e-04
3.893096e+01	-2.463992e-04
3.915583e+01	-2.492537e-04
3.938199e+01	-2.521413e-04
3.960946e+01	-2.550624e-04
3.983824e+01	-2.580173e-04
4.006834e+01	-2.610064e-04
4.029978e+01	-2.640301e-04
4.053255e+01	-2.670889e-04
4.076666e+01	-2.701831e-04
4.100213e+01	-2.733131e-04
4.123896e+01	-2.764794e-04
4.147715e+01	-2.796824e-04
4.171672e+01	-2.829225e-04
4.195767e+01	-2.862001e-04
4.220002e+01	-2.895157e-04
4.244377e+01	-2.928697e-04
4.268892e+01	-2.962626e-04
4.293549e+01	-2.996948e-04
4.318348e+01	-3.031667e-04
4.343291e+01	-3.066788e-04
4.368377e+01	-3.102317e-04
4.393609e+01	-3.138257e-04
4.418986e+01	-3.174613e-04
4.444510e+01	-3.211390e-04
4.470182e+01	-3.248594e-04
4.496001e+01	-3.286228e-04
4.521970e+01	-3.324299e-04
4.548089e+01	-3.362810e-04
4.574358e+01	-3.401768e-04
4.600779e+01	-3.441176e-04
4.627353e+01	-3.481042e-04
4.654081e+01	-3.521369e-04
4.680963e+01	-3.562163e-04
4.708000e+01	-3.603430e-04
4.735193e+01	-3.645175e-04
4.762543e+01	-3.687404e-04
4.790051e+01	-3.730122e-04
4.817719e+01	-3.773334e-04
4.845545e+01	-3.817048e-04
4.873533e+01	-3.861267e-04
4.901682e+01	-3.905999e-04
4.929994e+01	-3.951249e-04
4.958470e+01	-3.997023e-04
4.987110e+01	-4.043328e-04
5.015915e+01	-4.090168e-04
5.044887e+01	-4.137552e-04
5.074026e+01	-4.185484e-04
5.103333e+01	-4.233972e-04
5.132810e+01	-4.283021e-04
5.162457e+01	-4.332639e-04
5.192275e+01	-4.382831e-04
5.222265e+01	-4.433605e-04
5.252429e+01	-4.484967e-04
5.282767e+01	-4.536924e-04
5.313280e+01	-4.589482e-04
5.343969e+01	-4.642650e-04
5.374836e+01	-4.696433e-04
5.405880e+01	-4.750840e-04
5.437105e+01	-4.805877e-04
5.468509e+01	-4.861551e-04
5.500095e+01	-4.917870e-04
5.531863e+01	-4.974842e-04
5.563815e+01	-5.032473e-04
5.595951e+01	-5.090773e-04
5.628273e+01	-5.149747e-04
5.660782e+01	-5.209405e-04
5.693479e+01	-5.269753e-04
5.726364e+01	-5.330801e-04
5.759439e+01	-5.392556e-04
5.792705e+01	-5.455027e-04
5.826164e+01	-5.518220e-04
5.859815e+01	-5.582146e-04
5.893662e+01	-5.646813e-04
5.927703e+01	-5.712229e-04
5.961941e+01	-5.778402e-04
5.996377e+01	-5.845342e-04
6.031012e+01	-5.913057e-04
6.065847e+01	-5.981557e-04
6.100883e+01	-6.050850e-04
6.136121e+01	-6.120946e-04
6.171563e+01	-6.191854e-04
6.207210e+01	-6.263583e-04
6.243063e+01	-6.336143e-04
6.279122e+01	-6.409543e-04
6.315390e+01	-6.483794e-04
6.351868e+01	-6.558905e-04
6.388556e+01	-6.634886e-04
6.425456e+01	-6.711747e-04
6.462569e+01	-6.789498e-04
6.499897e+01	-6.868150e-04
6.537440e+01	-6.947713e-04
6.575200e+01	-7.028198e-04
6.613178e+01	-7.109615e-04
6.651375e+01	-7.191975e-04
6.689793e+01	-7.275289e-04
6.728433e+01	-7.359568e-04
6.767297e+01	-7.444823e-04
6.806384e+01	-7.531066e-04
6.845698e+01	-7.618308e-04
6.885238e+01	-7.706560e-04
6.925007e+01	-7.795835e-04
6.965005e+01	-7.886144e-04
7.005235e+01	-7.977498e-04
7.045697e+01	-8.069911e-04
7.086393e+01	-8.163395e-04
7.127323e+01	-8.257961e-04
7.168490e+01	-8.353622e-04
7.209895e+01	-8.450392e-04
7.251539e+01	-8.548282e-04
7.293424e+01	-8.647307e-04
7.335551e+01	-8.747478e-04
7.377920e+01	-8.848810e-04
7.420535e+01	-8.951315e-04
7.463396e+01	-9.055008e-04
7.506504e+01	-9.159901e-04
7.549861e+01	-9.266010e-04
7.593469e+01	-9.373347e-04
7.637328e+01	-9.481928e-04
7.681441e+01	-9.591767e-04
7.725809e+01	-9.702878e-04
7.770433e+01	-9.815276e-04
7.815315e+01	-9.928975e-04
7.860456e+01	-1.004399e-03
7.905857e+01	-1.016034e-03
7.951521e+01	-1.027804e-03
7.997449e+01	-1.039710e-03
8.043642e+01	-1.051754e-03
8.090102e+01	-1.063937e-03
8.136830e+01	-1.076261e-03
8.183828e+01	-1.088729e-03
8.231097e+01	-1.101340e-03
8.278640e+01	-1.114098e-03
8.326457e+01	-1.127003e-03
8.374550e+01	-1.140058e-03
8.422921e+01	-1.153264e-03
8.471572e+01	-1.166623e-03
8.520503e+01	-1.180137e-03
8.569717e+01	-1.193808e-03
8.619215e+01	-1.207636e-03
8.669000e+01	-1.221625e-03
8.719071e+01	-1.235776e-03
8.769432e+01	-1.250091e-03
8.820084e+01	-1.264571e-03
8.871029e+01	-1.279219e-03
8.922267e+01	-1.294037e-03
8.973802e+01	-1.309027e-03
9.025634e+01	-1.324190e-03
9.077766e+01	-1.339529e-03
9.130199e+01	-1.355045e-03
9.182935e+01	-1.370741e-03
9.235975e+01	-1.386619e-03
9.289321e+01	-1.402681e-03
9.342976e+01	-1.418929e-03
9.396941e+01	-1.435365e-03
9.451217e+01	-1.451991e-03
9.505807e+01	-1.468810e-03
9.560712e+01	-1.485823e-03
9.615934e+01	-1.503034e-03
9.671476e+01	-1.520444e-03
9.727338e+01	-1.538056e-03
9.783522e+01	-1.555871e-03
9.840032e+01	-1.573893e-03
9.896867e+01	-1.592124e-03
9.954031e+01	-1.610566e-03
1.001153e+02	-1.629221e-03
1.006935e+02	-1.648092e-03
1.012751e+02	-1.667182e-03
1.018601e+02	-1.686493e-03
1.024484e+02	-1.706028e-03
1.030402e+02	-1.725789e-03
1.036353e+02	-1.745778e-03
1.042339e+02	-1.766000e-03
1.048360e+02	-1.786455e-03
1.054415e+02	-1.807147e-03
1.060505e+02	-1.828079e-03
1.066631e+02	-1.849253e-03
1.072791e+02	-1.870673e-03
1.078988e+02	-1.892340e-03
1.085220e+02	-1.914259e-03
1.091488e+02	-1.936431e-03
1.097793e+02	-1.958860e-03
1.104133e+02	-1.981549e-03
1.110511e+02	-2.004500e-03
1.116925e+02	-2.027718e-03
1.123376e+02	-2.051204e-03
1.129865e+02	-2.074962e-03
1.136391e+02	-2.098995e-03
1.142955e+02	-2.123306e-03
1.149556e+02	-2.147899e-03
1.156196e+02	-2.172777e-03
1.162874e+02	-2.197943e-03
1.169591e+02	-2.223400e-03
1.176347e+02	-2.249152e-03
1.183141e+02	-2.275202e-03
1.189975e+02	-2.301554e-03
1.196848e+02	-2.328211e-03
1.203761e+02	-2.355177e-03
1.210714e+02	-2.382455e-03
1.217707e+02	-2.410048e-03
1.224740e+02	-2.437962e-03
1.231814e+02	-2.466198e-03
1.238929e+02	-2.494761e-03
1.246085e+02	-2.523655e-03
1.253283e+02	-2.552884e-03
1.260522e+02	-2.582451e-03
1.267802e+02	-2.612360e-03
1.275125e+02	-2.642616e-03
1.282490e+02	-2.673222e-03
1.289898e+02	-2.704182e-03
1.297348e+02	-2.735501e-03
1.304842e+02	-2.767182e-03
1.312378e+02	-2.799231e-03
1.319959e+02	-2.831650e-03
1.327583e+02	-2.864444e-03
1.335251e+02	-2.897619e-03
1.342963e+02	-2.931177e-03
1.350720e+02	-2.965124e-03
1.358522e+02	-2.999464e-03
1.366368e+02	-3.034201e-03
1.374260e+02	-3.069341e-03
1.382198e+02	-3.104887e-03
1.390182e+02	-3.140845e-03
1.398211e+02	-3.177219e-03
1.406287e+02	-3.214015e-03
1.414410e+02	-3.251236e-03
1.422579e+02	-3.288888e-03
1.430796e+02	-3.326976e-03
1.439060e+02	-3.365505e-03
1.447372e+02	-3.404480e-03
1.455732e+02	-3.443906e-03
1.464141e+02	-3.483788e-03
1.472597e+02	-3.524133e-03
1.481103e+02	-3.564944e-03
1.489658e+02	-3.606228e-03
1.498262e+02	-3.647989e-03
1.506916e+02	-3.690234e-03
1.515620e+02	-3.732968e-03
1.524374e+02	-3.776196e-03
1.533179e+02	-3.819925e-03
1.542034e+02	-3.864160e-03
1.550941e+02	-3.908908e-03
1.559899e+02	-3.954173e-03
1.568909e+02	-3.999962e-03
1.577971e+02	-4.046281e-03
1.587085e+02	-4.093136e-03
1.596252e+02	-4.140533e-03
1.605472e+02	-4.188479e-03
1.614745e+02	-4.236980e-03
1.624072e+02	-4.286042e-03
1.633453e+02	-4.335672e-03
1.642887e+02	-4.385877e-03
1.652377e+02	-4.436662e-03
1.661921e+02	-4.488036e-03
1.671520e+02	-4.540003e-03
1.681175e+02	-4.592573e-03
1.690885e+02	-4.645750e-03
1.700651e+02	-4.699543e-03
1.710474e+02	-4.753959e-03
1.720354e+02	-4.809004e-03
1.730291e+02	-4.864686e-03
1.740285e+02	-4.921013e-03
1.750337e+02	-4.977992e-03
1.760446e+02	-5.035629e-03
1.770615e+02	-5.093934e-03
1.780842e+02	-5.152914e-03
1.791128e+02	-5.212575e-03
1.801473e+02	-5.272928e-03
1.811878e+02	-5.333978e-03
1.822344e+02	-5.395735e-03
1.832870e+02	-5.458207e-03
1.843456e+02	-5.521401e-03
1.854104e+02	-5.585327e-03
1.864813e+02	-5.649992e-03
1.875584e+02	-5.715406e-03
1.886418e+02	-5.781576e-03
1.897313e+02	-5.848512e-03
1.908272e+02	-5.916222e-03
1.919294e+02	-5.984716e-03
1.930380e+02	-6.054002e-03
1.941530e+02	-6.124089e-03
1.952744e+02	-6.194988e-03
1.964023e+02	-6.266706e-03
1.975367e+02	-6.339255e-03
1.986777e+02	-6.412642e-03
1.998252e+02	-6.486879e-03
2.009794e+02	-6.561974e-03
2.021403e+02	-6.637938e-03
2.033078e+02	-6.714780e-03
2.044821e+02	-6.792512e-03
2.056632e+02	-6.871142e-03
2.068511e+02	-6.950683e-03
2.080459e+02	-7.031143e-03
2.092475e+02	-7.112533e-03
2.104561e+02	-7.194865e-03
2.116717e+02	-7.278150e-03
2.128943e+02	-7.362397e-03
2.141240e+02	-7.447619e-03
2.153608e+02	-7.533827e-03
2.166047e+02	-7.621031e-03
2.178558e+02	-7.709244e-03
2.191141e+02	-7.798477e-03
2.203797e+02	-7.888742e-03
2.216526e+02	-7.980051e-03
2.229329e+02	-8.072416e-03
2.242205e+02	-8.165849e-03
2.255156e+02	-8.260362e-03
2.268182e+02	-8.355968e-03
2.281283e+02	-8.452680e-03
2.294459e+02	-8.550509e-03
2.307712e+02	-8.649470e-03
2.321041e+02	-8.749575e-03
2.334447e+02	-8.850838e-03
2.347931e+02	-8.953271e-03
2.361493e+02	-9.056888e-03
2.375133e+02	-9.161704e-03
2.388851e+02	-9.267731e-03
2.402649e+02	-9.374984e-03
2.416527e+02	-9.483476e-03
2.430484e+02	-9.593223e-03
2.444523e+02	-9.704238e-03
2.458642e+02	-9.816537e-03
2.472843e+02	-9.930134e-03
2.487126e+02	-1.004504e-02
2.501492e+02	-1.016128e-02
2.515940e+02	-1.027886e-02
2.530472e+02	-1.039780e-02
2.545088e+02	-1.051812e-02
2.559789e+02	-1.063982e-02
2.574574e+02	-1.076293e-02
2.589444e+02	-1.088747e-02
2.604401e+02	-1.101344e-02
2.619444e+02	-1.114087e-02
2.634574e+02	-1.126977e-02
2.649791e+02	-1.140017e-02
2.665096e+02	-1.153206e-02
2.680489e+02	-1.166548e-02
2.695972e+02	-1.180045e-02
2.711544e+02	-1.193697e-02
2.727205e+02	-1.207507e-02
2.742958e+02	-1.221477e-02
2.758801e+02	-1.235608e-02
2.774736e+02	-1.249902e-02
2.790762e+02	-1.264361e-02
2.806882e+02	-1.278987e-02
2.823094e+02	-1.293783e-02
2.839400e+02	-1.308749e-02
2.855800e+02	-1.323888e-02
2.872295e+02	-1.339202e-02
2.888886e+02	-1.354692e-02
2.905572e+02	-1.370362e-02
2.922354e+02	-1.386212e-02
2.939234e+02	-1.402246e-02
2.956211e+02	-1.418465e-02
2.973286e+02	-1.434871e-02
2.990459e+02	-1.451466e-02
3.007732e+02	-1.468253e-02
3.025104e+02	-1.485234e-02
3.042577e+02	-1.502411e-02
3.060151e+02	-1.519786e-02
3.077826e+02	-1.537362e-02
3.095604e+02	-1.555141e-02
3.113484e+02	-1.573125e-02
3.131467e+02	-1.591317e-02
3.149554e+02	-1.609718e-02
3.167746e+02	-1.628332e-02
3.186043e+02	-1.647161e-02
3.204445e+02	-1.666207e-02
3.222954e+02	-1.685473e-02
3.241570e+02	-1.704961e-02
3.260293e+02	-1.724674e-02
3.279124e+02	-1.744614e-02
3.298064e+02	-1.764785e-02
3.317114e+02	-1.785188e-02
3.336273e+02	-1.805827e-02
3.355544e+02	-1.826704e-02
3.374925e+02	-1.847821e-02
3.394418e+02	-1.869183e-02
3.414024e+02	-1.890790e-02
3.433744e+02	-1.912647e-02
3.453577e+02	-1.934756e-02
3.473525e+02	-1.957120e-02
3.493588e+02	-1.979742e-02
3.513766e+02	-2.002625e-02
3.534062e+02	-2.025771e-02
3.554474e+02	-2.049185e-02
3.575005e+02	-2.072868e-02
3.595654e+02	-2.096825e-02
3.616422e+02	-2.121058e-02
3.637311e+02	-2.145570e-02
3.658320e+02	-2.170364e-02
3.679450e+02	-2.195445e-02
3.700702e+02	-2.220814e-02
3.722077e+02	-2.246476e-02
3.743576e+02	-2.272434e-02
3.765199e+02	-2.298691e-02
3.786946e+02	-2.325250e-02
3.808820e+02	-2.352116e-02
3.830819e+02	-2.379291e-02
3.852946e+02	-2.406779e-02
3.875200e+02	-2.434583e-02
3.897583e+02	-2.462709e-02
3.920096e+02	-2.491158e-02
3.942738e+02	-2.519934e-02
3.965511e+02	-2.549042e-02
3.988416e+02	-2.578486e-02
4.011452e+02	-2.608268e-02
4.034622e+02	-2.638394e-02
4.057926e+02	-2.668866e-02
4.081365e+02	-2.699689e-02
4.104938e+02	-2.730867e-02
4.128648e+02	-2.762404e-02
4.152495e+02	-2.794304e-02
4.176480e+02	-2.826571e-02
4.200603e+02	-2.859209e-02
4.224866e+02	-2.892223e-02
4.249268e+02	-2.925617e-02
4.273812e+02	-2.959395e-02
4.298497e+02	-2.993562e-02
4.323325e+02	-3.028122e-02
4.348297e+02	-3.063079e-02
4.373412e+02	-3.098439e-02
4.398673e+02	-3.134205e-02
4.424079e+02	-3.170383e-02
4.449633e+02	-3.206977e-02
4.475334e+02	-3.243991e-02
4.501183e+02	-3.281431e-02
4.527182e+02	-3.319302e-02
4.553330e+02	-3.357608e-02
4.579630e+02	-3.396354e-02
4.606082e+02	-3.435545e-02
4.632687e+02	-3.475187e-02
4.659445e+02	-3.515285e-02
4.686358e+02	-3.555843e-02
4.713426e+02	-3.596868e-02
4.740650e+02	-3.638363e-02
4.768032e+02	-3.680336e-02
4.795572e+02	-3.722790e-02
4.823271e+02	-3.765732e-02
4.851130e+02	-3.809167e-02
4.879150e+02	-3.853101e-02
4.907332e+02	-3.897539e-02
4.935676e+02	-3.942488e-02
4.964185e+02	-3.987953e-02
4.992858e+02	-4.033939e-02
5.021696e+02	-4.080453e-02
5.050701e+02	-4.127501e-02
5.079874e+02	-4.175089e-02
5.109215e+02	-4.223223e-02
5.138726e+02	-4.271908e-02
5.168407e+02	-4.321153e-02
5.198259e+02	-4.370962e-02
5.228284e+02	-4.421343e-02
5.258482e+02	-4.472301e-02
5.288855e+02	-4.523843e-02
5.319403e+02	-4.575976e-02
5.350128e+02	-4.628707e-02
5.381030e+02	-4.682042e-02
5.412111e+02	-4.735988e-02
5.443371e+02	-4.790553e-02
5.474812e+02	-4.845742e-02
5.506434e+02	-4.901564e-02
5.538239e+02	-4.958025e-02
5.570228e+02	-5.015133e-02
5.602401e+02	-5.072895e-02
5.634760e+02	-5.131318e-02
5.667306e+02	-5.190410e-02
5.700040e+02	-5.250178e-02
5.732964e+02	-5.310630e-02
5.766077e+02	-5.371774e-02
5.799382e+02	-5.433618e-02
5.832879e+02	-5.496169e-02
5.866569e+02	-5.559435e-02
5.900454e+02	-5.623425e-02
5.934535e+02	-5.688147e-02
5.968813e+02	-5.753608e-02
6.003288e+02	-5.819818e-02
6.037963e+02	-5.886785e-02
6.072838e+02	-5.954517e-02
6.107914e+02	-6.023022e-02
6.143194e+02	-6.092311e-02
6.178676e+02	-6.162391e-02
6.214364e+02	-6.233271e-02
6.250258e+02	-6.304960e-02
6.286359e+02	-6.377468e-02
6.322669e+02	-6.450803e-02
6.359189e+02	-6.524976e-02
6.395919e+02	-6.599995e-02
6.432862e+02	-6.675869e-02
6.470017e+02	-6.752609e-02
6.507388e+02	-6.830225e-02
6.544974e+02	-6.908725e-02
6.582778e+02	-6.988120e-02
6.620800e+02	-7.068420e-02
6.659041e+02	-7.149636e-02
6.697504e+02	-7.231776e-02
6.736188e+02	-7.314852e-02
6.775096e+02	-7.398875e-02
6.814229e+02	-7.483854e-02
6.853587e+02	-7.569801e-02
6.893173e+02	-7.656726e-02
6.932988e+02	-7.744641e-02
6.973033e+02	-7.833555e-02
7.013309e+02	-7.923482e-02
