Frequency(Hz)	Magnitude(dB)
1.000000e+01	-2.052631e+00
1.005776e+01	-2.071526e+00
1.011585e+01	-2.090600e+00
1.017428e+01	-2.109677e+00
1.023305e+01	-2.129152e+00
1.029215e+01	-2.148464e+00
1.035160e+01	-2.168136e+00
1.041139e+01	-2.188168e+00
1.047153e+01	-2.207640e+00
1.053201e+01	-2.227780e+00
1.059284e+01	-2.247945e+00
1.065403e+01	-2.268173e+00
1.071556e+01	-2.288618e+00
1.077746e+01	-2.309082e+00
1.083971e+01	-2.330006e+00
1.090232e+01	-2.350632e+00
1.096529e+01	-2.371756e+00
1.102862e+01	-2.392763e+00
1.109232e+01	-2.414114e+00
1.115639e+01	-2.435473e+00
1.122083e+01	-2.456994e+00
1.128564e+01	-2.478652e+00
1.135083e+01	-2.500635e+00
1.141639e+01	-2.522577e+00
1.148233e+01	-2.544699e+00
1.154865e+01	-2.566799e+00
1.161536e+01	-2.589220e+00
1.168245e+01	-2.611791e+00
1.174992e+01	-2.634687e+00
1.181779e+01	-2.657235e+00
1.188605e+01	-2.680198e+00
1.195470e+01	-2.703616e+00
1.202375e+01	-2.726583e+00
1.209320e+01	-2.749986e+00
1.216305e+01	-2.773721e+00
1.223330e+01	-2.797081e+00
1.230396e+01	-2.820974e+00
1.237503e+01	-2.844984e+00
1.244651e+01	-2.868879e+00
1.251840e+01	-2.893165e+00
1.259070e+01	-2.917923e+00
1.266343e+01	-2.942274e+00
1.273657e+01	-2.967065e+00
1.281014e+01	-2.991845e+00
1.288413e+01	-3.017011e+00
1.295855e+01	-3.041928e+00
1.303339e+01	-3.067428e+00
1.310867e+01	-3.092706e+00
1.318439e+01	-3.118310e+00
1.326054e+01	-3.143990e+00
1.333713e+01	-3.169689e+00
1.341417e+01	-3.195763e+00
1.349165e+01	-3.221717e+00
1.356958e+01	-3.247958e+00
1.364795e+01	-3.274591e+00
1.372678e+01	-3.301022e+00
1.380607e+01	-3.327736e+00
1.388581e+01	-3.354680e+00
1.396602e+01	-3.381854e+00
1.404668e+01	-3.408643e+00
1.412782e+01	-3.436009e+00
1.420942e+01	-3.463308e+00
1.429149e+01	-3.490978e+00
1.437404e+01	-3.518838e+00
1.445706e+01	-3.546722e+00
1.454057e+01	-3.574355e+00
1.462455e+01	-3.602714e+00
1.470902e+01	-3.630963e+00
1.479398e+01	-3.659183e+00
1.487943e+01	-3.687857e+00
1.496537e+01	-3.716551e+00
1.505181e+01	-3.745595e+00
1.513875e+01	-3.774481e+00
1.522619e+01	-3.803567e+00
1.531414e+01	-3.833228e+00
1.540259e+01	-3.862180e+00
1.549156e+01	-3.891441e+00
1.558103e+01	-3.921563e+00
1.567103e+01	-3.951223e+00
1.576155e+01	-3.981229e+00
1.585258e+01	-4.011087e+00
1.594415e+01	-4.041301e+00
1.603624e+01	-4.071631e+00
1.612886e+01	-4.102206e+00
1.622202e+01	-4.132921e+00
1.631572e+01	-4.163623e+00
1.640996e+01	-4.194737e+00
1.650474e+01	-4.225935e+00
1.660008e+01	-4.256611e+00
1.669596e+01	-4.288159e+00
1.679239e+01	-4.319561e+00
1.688938e+01	-4.351255e+00
1.698694e+01	-4.383059e+00
1.708505e+01	-4.415156e+00
1.718373e+01	-4.446859e+00
1.728299e+01	-4.479074e+00
1.738281e+01	-4.511258e+00
1.748322e+01	-4.543487e+00
1.758420e+01	-4.576299e+00
1.768576e+01	-4.608976e+00
1.778792e+01	-4.641719e+00
1.789066e+01	-4.674533e+00
1.799399e+01	-4.707600e+00
1.809793e+01	-4.740575e+00
1.820246e+01	-4.773798e+00
1.830760e+01	-4.807744e+00
1.841334e+01	-4.841143e+00
1.851969e+01	-4.874647e+00
1.862666e+01	-4.908366e+00
1.873425e+01	-4.942674e+00
1.884246e+01	-4.976325e+00
1.895129e+01	-5.010814e+00
1.906075e+01	-5.044755e+00
1.917085e+01	-5.079276e+00
1.928158e+01	-5.113942e+00
1.939295e+01	-5.148582e+00
1.950496e+01	-5.183227e+00
1.961762e+01	-5.218277e+00
1.973093e+01	-5.253495e+00
1.984490e+01	-5.288322e+00
1.995952e+01	-5.323855e+00
2.007480e+01	-5.359335e+00
2.019076e+01	-5.394557e+00
2.030738e+01	-5.430491e+00
2.042467e+01	-5.466049e+00
2.054264e+01	-5.502109e+00
2.066130e+01	-5.537903e+00
2.078064e+01	-5.574001e+00
2.090066e+01	-5.610529e+00
2.102139e+01	-5.646661e+00
2.114280e+01	-5.683247e+00
2.126492e+01	-5.720034e+00
2.138775e+01	-5.756709e+00
2.151128e+01	-5.792988e+00
2.163553e+01	-5.830143e+00
2.176050e+01	-5.867133e+00
2.188619e+01	-5.904302e+00
2.201260e+01	-5.941406e+00
2.213974e+01	-5.978602e+00
2.226762e+01	-6.016417e+00
2.239624e+01	-6.053734e+00
2.252560e+01	-6.091386e+00
2.265571e+01	-6.129110e+00
2.278656e+01	-6.167215e+00
2.291818e+01	-6.205081e+00
2.305055e+01	-6.243680e+00
2.318369e+01	-6.281253e+00
2.331760e+01	-6.319755e+00
2.345228e+01	-6.357949e+00
2.358774e+01	-6.396384e+00
2.372398e+01	-6.435265e+00
2.386101e+01	-6.473975e+00
2.399883e+01	-6.512635e+00
2.413745e+01	-6.551530e+00
2.427686e+01	-6.590672e+00
2.441709e+01	-6.629829e+00
2.455812e+01	-6.669065e+00
2.469997e+01	-6.708220e+00
2.484263e+01	-6.747569e+00
2.498612e+01	-6.786702e+00
2.513044e+01	-6.826835e+00
2.527559e+01	-6.866723e+00
2.542158e+01	-6.905963e+00
2.556842e+01	-6.945976e+00
2.571610e+01	-6.986056e+00
2.586463e+01	-7.026373e+00
2.601403e+01	-7.066589e+00
2.616428e+01	-7.106635e+00
2.631541e+01	-7.147075e+00
2.646740e+01	-7.187301e+00
2.662028e+01	-7.227779e+00
2.677404e+01	-7.268419e+00
2.692868e+01	-7.308990e+00
2.708422e+01	-7.349630e+00
2.724066e+01	-7.390682e+00
2.739800e+01	-7.432194e+00
2.755625e+01	-7.472475e+00
2.771541e+01	-7.514015e+00
2.787550e+01	-7.555202e+00
2.803650e+01	-7.596276e+00
2.819844e+01	-7.637477e+00
2.836131e+01	-7.678875e+00
2.852513e+01	-7.720878e+00
2.868989e+01	-7.762227e+00
2.885560e+01	-7.803674e+00
2.902227e+01	-7.845445e+00
2.918990e+01	-7.887684e+00
2.935850e+01	-7.929623e+00
2.952807e+01	-7.971079e+00
2.969863e+01	-8.013556e+00
2.987016e+01	-8.055406e+00
3.004269e+01	-8.097980e+00
3.021622e+01	-8.139953e+00
3.039075e+01	-8.182354e+00
3.056628e+01	-8.225315e+00
3.074283e+01	-8.267845e+00
3.092040e+01	-8.310501e+00
3.109900e+01	-8.352854e+00
3.127862e+01	-8.395756e+00
3.145929e+01	-8.438680e+00
3.164099e+01	-8.481500e+00
3.182375e+01	-8.524250e+00
3.200756e+01	-8.567149e+00
3.219244e+01	-8.610415e+00
3.237838e+01	-8.653306e+00
3.256540e+01	-8.697076e+00
3.275349e+01	-8.740250e+00
3.294268e+01	-8.783692e+00
3.313295e+01	-8.827381e+00
3.332433e+01	-8.870511e+00
3.351681e+01	-8.914272e+00
3.371040e+01	-8.958038e+00
3.390511e+01	-9.001393e+00
3.410094e+01	-9.045186e+00
3.429791e+01	-9.089565e+00
3.449601e+01	-9.132929e+00
3.469526e+01	-9.176704e+00
3.489566e+01	-9.220545e+00
3.509721e+01	-9.264855e+00
3.529993e+01	-9.308972e+00
3.550382e+01	-9.352926e+00
3.570889e+01	-9.397528e+00
3.591515e+01	-9.441871e+00
3.612259e+01	-9.486024e+00
3.633123e+01	-9.530418e+00
3.654108e+01	-9.575004e+00
3.675214e+01	-9.619085e+00
3.696442e+01	-9.664154e+00
3.717792e+01	-9.709052e+00
3.739266e+01	-9.753533e+00
3.760864e+01	-9.798140e+00
3.782587e+01	-9.842992e+00
3.804435e+01	-9.887182e+00
3.826409e+01	-9.932822e+00
3.848510e+01	-9.977730e+00
3.870739e+01	-1.002305e+01
3.893096e+01	-1.006717e+01
3.915583e+01	-1.011327e+01
3.938199e+01	-1.015800e+01
3.960946e+01	-1.020357e+01
3.983824e+01	-1.024895e+01
4.006834e+01	-1.029419e+01
4.029978e+01	-1.033907e+01
4.053255e+01	-1.038475e+01
4.076666e+01	-1.043048e+01
4.100213e+01	-1.047574e+01
4.123896e+01	-1.052157e+01
4.147715e+01	-1.056753e+01
4.171672e+01	-1.061284e+01
4.195767e+01	-1.065813e+01
4.220002e+01	-1.070432e+01
4.244377e+01	-1.074967e+01
4.268892e+01	-1.079590e+01
4.293549e+01	-1.084167e+01
4.318348e+01	-1.088743e+01
4.343291e+01	-1.093327e+01
4.368377e+01	-1.097985e+01
4.393609e+01	-1.102558e+01
4.418986e+01	-1.107202e+01
4.444510e+01	-1.111789e+01
4.470182e+01	-1.116393e+01
4.496001e+01	-1.121005e+01
4.521970e+01	-1.125628e+01
4.548089e+01	-1.130332e+01
4.574358e+01	-1.134969e+01
4.600779e+01	-1.139588e+01
4.627353e+01	-1.144211e+01
4.654081e+01	-1.148890e+01
4.680963e+01	-1.153461e+01
4.708000e+01	-1.158154e+01
4.735193e+01	-1.162780e+01
4.762543e+01	-1.167490e+01
4.790051e+01	-1.172181e+01
4.817719e+01	-1.176818e+01
4.845545e+01	-1.181422e+01
4.873533e+01	-1.186231e+01
4.901682e+01	-1.190805e+01
4.929994e+01	-1.195527e+01
4.958470e+01	-1.200181e+01
4.987110e+01	-1.204898e+01
5.015915e+01	-1.209546e+01
5.044887e+01	-1.214325e+01
5.074026e+01	-1.218971e+01
5.103333e+01	-1.223691e+01
5.132810e+01	-1.228365e+01
5.162457e+01	-1.233107e+01
5.192275e+01	-1.237782e+01
5.222265e+01	-1.242464e+01
5.252429e+01	-1.247163e+01
5.282767e+01	-1.251930e+01
5.313280e+01	-1.256663e+01
5.343969e+01	-1.261369e+01
5.374836e+01	-1.266178e+01
5.405880e+01	-1.270919e+01
5.437105e+01	-1.275580e+01
5.468509e+01	-1.280338e+01
5.500095e+01	-1.285106e+01
5.531863e+01	-1.289808e+01
5.563815e+01	-1.294567e+01
5.595951e+01	-1.299280e+01
5.628273e+01	-1.304083e+01
5.660782e+01	-1.308862e+01
5.693479e+01	-1.313595e+01
5.726364e+01	-1.318383e+01
5.759439e+01	-1.323098e+01
5.792705e+01	-1.327889e+01
5.826164e+01	-1.332646e+01
5.859815e+01	-1.337492e+01
5.893662e+01	-1.342148e+01
5.927703e+01	-1.346966e+01
5.961941e+01	-1.351729e+01
5.996377e+01	-1.356554e+01
6.031012e+01	-1.361327e+01
6.065847e+01	-1.366117e+01
6.100883e+01	-1.370925e+01
6.136121e+01	-1.375635e+01
6.171563e+01	-1.380537e+01
6.207210e+01	-1.385350e+01
6.243063e+01	-1.390137e+01
6.279122e+01	-1.394848e+01
6.315390e+01	-1.399673e+01
6.351868e+01	-1.404441e+01
6.388556e+01	-1.409221e+01
6.425456e+01	-1.414033e+01
6.462569e+01	-1.418866e+01
6.499897e+01	-1.423716e+01
6.537440e+01	-1.428628e+01
6.575200e+01	-1.433332e+01
6.613178e+01	-1.438098e+01
6.651375e+01	-1.443016e+01
6.689793e+01	-1.447859e+01
6.728433e+01	-1.452633e+01
6.767297e+01	-1.457394e+01
6.806384e+01	-1.462279e+01
6.845698e+01	-1.467150e+01
6.885238e+01	-1.471993e+01
6.925007e+01	-1.476786e+01
6.965005e+01	-1.481656e+01
7.005235e+01	-1.486357e+01
7.045697e+01	-1.491313e+01
7.086393e+01	-1.496163e+01
7.127323e+01	-1.501016e+01
7.168490e+01	-1.505952e+01
7.209895e+01	-1.510588e+01
7.251539e+01	-1.515649e+01
7.293424e+01	-1.520459e+01
7.335551e+01	-1.525306e+01
7.377920e+01	-1.530065e+01
7.420535e+01	-1.534892e+01
7.463396e+01	-1.539798e+01
7.506504e+01	-1.544631e+01
7.549861e+01	-1.549535e+01
7.593469e+01	-1.554446e+01
7.637328e+01	-1.559299e+01
7.681441e+01	-1.564157e+01
7.725809e+01	-1.569021e+01
7.770433e+01	-1.573894e+01
7.815315e+01	-1.578780e+01
7.860456e+01	-1.583645e+01
7.905857e+01	-1.588518e+01
7.951521e+01	-1.593289e+01
7.997449e+01	-1.598252e+01
8.043642e+01	-1.603106e+01
8.090102e+01	-1.607999e+01
8.136830e+01	-1.612844e+01
8.183828e+01	-1.617757e+01
8.231097e+01	-1.622616e+01
8.278640e+01	-1.627483e+01
8.326457e+01	-1.632527e+01
8.374550e+01	-1.637216e+01
8.422921e+01	-1.642188e+01
8.471572e+01	-1.647109e+01
8.520503e+01	-1.651948e+01
8.569717e+01	-1.656911e+01
8.619215e+01	-1.661791e+01
8.669000e+01	-1.666705e+01
8.719071e+01	-1.671542e+01
8.769432e+01	-1.676411e+01
8.820084e+01	-1.681321e+01
8.871029e+01	-1.686228e+01
8.922267e+01	-1.691163e+01
8.973802e+01	-1.696031e+01
9.025634e+01	-1.701007e+01
9.077766e+01	-1.705768e+01
9.130199e+01	-1.710780e+01
9.182935e+01	-1.715649e+01
9.235975e+01	-1.720547e+01
9.289321e+01	-1.725353e+01
9.342976e+01	-1.730399e+01
9.396941e+01	-1.735317e+01
9.451217e+01	-1.740255e+01
9.505807e+01	-1.745051e+01
9.560712e+01	-1.750027e+01
9.615934e+01	-1.754798e+01
9.671476e+01	-1.759901e+01
9.727338e+01	-1.764842e+01
9.783522e+01	-1.769644e+01
9.840032e+01	-1.774388e+01
9.896867e+01	-1.779469e+01
9.954031e+01	-1.784400e+01
1.001153e+02	-1.789298e+01
1.006935e+02	-1.794303e+01
1.012751e+02	-1.799268e+01
1.018601e+02	-1.804198e+01
1.024484e+02	-1.809010e+01
1.030402e+02	-1.814006e+01
1.036353e+02	-1.819013e+01
1.042339e+02	-1.823838e+01
1.048360e+02	-1.828787e+01
1.054415e+02	-1.833707e+01
1.060505e+02	-1.838531e+01
1.066631e+02	-1.843545e+01
1.072791e+02	-1.848557e+01
1.078988e+02	-1.853347e+01
1.085220e+02	-1.858254e+01
1.091488e+02	-1.863277e+01
1.097793e+02	-1.868235e+01
1.104133e+02	-1.873160e+01
1.110511e+02	-1.878105e+01
1.116925e+02	-1.883096e+01
1.123376e+02	-1.887956e+01
1.129865e+02	-1.893035e+01
1.136391e+02	-1.897876e+01
1.142955e+02	-1.902819e+01
1.149556e+02	-1.907607e+01
1.156196e+02	-1.912702e+01
1.162874e+02	-1.917530e+01
1.169591e+02	-1.922689e+01
1.176347e+02	-1.927534e+01
1.183141e+02	-1.932352e+01
1.189975e+02	-1.937469e+01
1.196848e+02	-1.942109e+01
1.203761e+02	-1.947314e+01
1.210714e+02	-1.952323e+01
1.217707e+02	-1.957190e+01
1.224740e+02	-1.962102e+01
1.231814e+02	-1.967124e+01
1.238929e+02	-1.972026e+01
1.246085e+02	-1.977069e+01
1.253283e+02	-1.981953e+01
1.260522e+02	-1.986873e+01
1.267802e+02	-1.992000e+01
1.275125e+02	-1.996745e+01
1.282490e+02	-2.001593e+01
1.289898e+02	-2.006932e+01
1.297348e+02	-2.011653e+01
1.304842e+02	-2.016475e+01
1.312378e+02	-2.021698e+01
1.319959e+02	-2.026481e+01
1.327583e+02	-2.031574e+01
1.335251e+02	-2.036435e+01
1.342963e+02	-2.041509e+01
1.350720e+02	-2.046464e+01
1.358522e+02	-2.051366e+01
1.366368e+02	-2.056268e+01
1.374260e+02	-2.061116e+01
1.382198e+02	-2.066040e+01
1.390182e+02	-2.071162e+01
1.398211e+02	-2.076065e+01
1.406287e+02	-2.081232e+01
1.414410e+02	-2.085924e+01
1.422579e+02	-2.090977e+01
1.430796e+02	-2.096054e+01
1.439060e+02	-2.100878e+01
1.447372e+02	-2.105753e+01
1.455732e+02	-2.110864e+01
1.464141e+02	-2.115905e+01
1.472597e+02	-2.120831e+01
1.481103e+02	-2.125847e+01
1.489658e+02	-2.130732e+01
1.498262e+02	-2.135630e+01
1.506916e+02	-2.140590e+01
1.515620e+02	-2.145514e+01
1.524374e+02	-2.150848e+01
1.533179e+02	-2.155322e+01
1.542034e+02	-2.160484e+01
1.550941e+02	-2.165420e+01
1.559899e+02	-2.170349e+01
1.568909e+02	-2.175602e+01
1.577971e+02	-2.180303e+01
1.587085e+02	-2.185499e+01
1.596252e+02	-2.190349e+01
1.605472e+02	-2.195446e+01
1.614745e+02	-2.200248e+01
1.624072e+02	-2.205386e+01
1.633453e+02	-2.210212e+01
1.642887e+02	-2.215251e+01
1.652377e+02	-2.220224e+01
1.661921e+02	-2.225177e+01
1.671520e+02	-2.230144e+01
1.681175e+02	-2.235078e+01
1.690885e+02	-2.239927e+01
1.700651e+02	-2.245104e+01
1.710474e+02	-2.250093e+01
1.720354e+02	-2.255151e+01
1.730291e+02	-2.259891e+01
1.740285e+02	-2.265080e+01
1.750337e+02	-2.270077e+01
1.760446e+02	-2.275043e+01
1.770615e+02	-2.279803e+01
1.780842e+02	-2.284969e+01
1.791128e+02	-2.289759e+01
1.801473e+02	-2.294869e+01
1.811878e+02	-2.299757e+01
1.822344e+02	-2.304591e+01
1.832870e+02	-2.309975e+01
1.843456e+02	-2.314590e+01
1.854104e+02	-2.319785e+01
1.864813e+02	-2.324614e+01
1.875584e+02	-2.329683e+01
1.886418e+02	-2.334944e+01
1.897313e+02	-2.339760e+01
1.908272e+02	-2.344633e+01
1.919294e+02	-2.349896e+01
1.930380e+02	-2.354837e+01
1.941530e+02	-2.359699e+01
1.952744e+02	-2.364445e+01
1.964023e+02	-2.369560e+01
1.975367e+02	-2.374560e+01
1.986777e+02	-2.379742e+01
1.998252e+02	-2.384422e+01
2.009794e+02	-2.389616e+01
2.021403e+02	-2.394623e+01
2.033078e+02	-2.399513e+01
2.044821e+02	-2.404498e+01
2.056632e+02	-2.409509e+01
2.068511e+02	-2.414564e+01
2.080459e+02	-2.419453e+01
2.092475e+02	-2.424387e+01
2.104561e+02	-2.429291e+01
2.116717e+02	-2.434367e+01
2.128943e+02	-2.439559e+01
2.141240e+02	-2.444247e+01
2.153608e+02	-2.449720e+01
2.166047e+02	-2.454309e+01
2.178558e+02	-2.459399e+01
2.191141e+02	-2.464481e+01
2.203797e+02	-2.469256e+01
2.216526e+02	-2.474208e+01
2.229329e+02	-2.479191e+01
2.242205e+02	-2.484527e+01
2.255156e+02	-2.489383e+01
2.268182e+02	-2.494365e+01
2.281283e+02	-2.499307e+01
2.294459e+02	-2.504378e+01
2.307712e+02	-2.508928e+01
2.321041e+02	-2.514154e+01
2.334447e+02	-2.519107e+01
2.347931e+02	-2.524401e+01
2.361493e+02	-2.529016e+01
2.375133e+02	-2.534182e+01
2.388851e+02	-2.539226e+01
2.402649e+02	-2.544129e+01
2.416527e+02	-2.549260e+01
2.430484e+02	-2.554158e+01
2.444523e+02	-2.558871e+01
2.458642e+02	-2.564226e+01
2.472843e+02	-2.569243e+01
2.487126e+02	-2.574274e+01
2.501492e+02	-2.579171e+01
2.515940e+02	-2.584154e+01
2.530472e+02	-2.589384e+01
2.545088e+02	-2.594072e+01
2.559789e+02	-2.599040e+01
2.574574e+02	-2.603603e+01
2.589444e+02	-2.609177e+01
2.604401e+02	-2.613931e+01
2.619444e+02	-2.619249e+01
2.634574e+02	-2.624083e+01
2.649791e+02	-2.628933e+01
2.665096e+02	-2.634495e+01
2.680489e+02	-2.639087e+01
2.695972e+02	-2.643856e+01
2.711544e+02	-2.649050e+01
2.727205e+02	-2.653894e+01
2.742958e+02	-2.659123e+01
2.758801e+02	-2.664299e+01
2.774736e+02	-2.668899e+01
2.790762e+02	-2.673927e+01
2.806882e+02	-2.679291e+01
2.823094e+02	-2.684445e+01
2.839400e+02	-2.688934e+01
2.855800e+02	-2.694154e+01
2.872295e+02	-2.699264e+01
2.888886e+02	-2.704115e+01
2.905572e+02	-2.709049e+01
2.922354e+02	-2.714195e+01
2.939234e+02	-2.718893e+01
2.956211e+02	-2.724432e+01
2.973286e+02	-2.729124e+01
2.990459e+02	-2.734164e+01
3.007732e+02	-2.738989e+01
3.025104e+02	-2.743904e+01
3.042577e+02	-2.748904e+01
3.060151e+02	-2.754437e+01
3.077826e+02	-2.759031e+01
3.095604e+02	-2.764182e+01
3.113484e+02	-2.769320e+01
3.131467e+02	-2.774060e+01
3.149554e+02	-2.779064e+01
3.167746e+02	-2.784176e+01
3.186043e+02	-2.789470e+01
3.204445e+02	-2.794111e+01
3.222954e+02	-2.798999e+01
3.241570e+02	-2.803674e+01
3.260293e+02	-2.809029e+01
3.279124e+02	-2.813905e+01
3.298064e+02	-2.819339e+01
3.317114e+02	-2.824264e+01
3.336273e+02	-2.829187e+01
3.355544e+02	-2.834197e+01
3.374925e+02	-2.839061e+01
3.394418e+02	-2.844161e+01
3.414024e+02	-2.849142e+01
3.433744e+02	-2.854015e+01
3.453577e+02	-2.859612e+01
3.473525e+02	-2.864363e+01
3.493588e+02	-2.868980e+01
3.513766e+02	-2.873924e+01
3.534062e+02	-2.878921e+01
3.554474e+02	-2.883725e+01
3.575005e+02	-2.889356e+01
3.595654e+02	-2.894537e+01
3.616422e+02	-2.898453e+01
3.637311e+02	-2.904314e+01
3.658320e+02	-2.909172e+01
3.679450e+02	-2.914151e+01
3.700702e+02	-2.919350e+01
3.722077e+02	-2.924527e+01
3.743576e+02	-2.928861e+01
3.765199e+02	-2.934617e+01
3.786946e+02	-2.939080e+01
3.808820e+02	-2.944625e+01
3.830819e+02	-2.949530e+01
3.852946e+02	-2.954118e+01
3.875200e+02	-2.959466e+01
3.897583e+02	-2.964404e+01
3.920096e+02	-2.969053e+01
3.942738e+02	-2.974750e+01
3.965511e+02	-2.979978e+01
3.988416e+02	-2.984617e+01
4.011452e+02	-2.989098e+01
4.034622e+02	-2.994381e+01
4.057926e+02	-2.999377e+01
4.081365e+02	-3.004484e+01
4.104938e+02	-3.009517e+01
4.128648e+02	-3.014220e+01
4.152495e+02	-3.019331e+01
4.176480e+02	-3.024577e+01
4.200603e+02	-3.029250e+01
4.224866e+02	-3.034539e+01
4.249268e+02	-3.039491e+01
4.273812e+02	-3.044297e+01
4.298497e+02	-3.050079e+01
4.323325e+02	-3.054086e+01
4.348297e+02	-3.059504e+01
4.373412e+02	-3.064394e+01
4.398673e+02	-3.069661e+01
4.424079e+02	-3.074851e+01
4.449633e+02	-3.079675e+01
4.475334e+02	-3.084685e+01
4.501183e+02	-3.089489e+01
4.527182e+02	-3.094575e+01
4.553330e+02	-3.099723e+01
4.579630e+02	-3.104374e+01
4.606082e+02	-3.109102e+01
4.632687e+02	-3.114641e+01
4.659445e+02	-3.119875e+01
4.686358e+02	-3.124921e+01
4.713426e+02	-3.129565e+01
4.740650e+02	-3.134129e+01
4.768032e+02	-3.139894e+01
4.795572e+02	-3.145152e+01
4.823271e+02	-3.149500e+01
4.851130e+02	-3.154513e+01
4.879150e+02	-3.159563e+01
4.907332e+02	-3.164795e+01
4.935676e+02	-3.169682e+01
4.964185e+02	-3.174355e+01
4.992858e+02	-3.179894e+01
5.021696e+02	-3.185043e+01
5.050701e+02	-3.189604e+01
5.079874e+02	-3.194629e+01
5.109215e+02	-3.200235e+01
5.138726e+02	-3.205081e+01
5.168407e+02	-3.210283e+01
5.198259e+02	-3.215155e+01
5.228284e+02	-3.219269e+01
5.258482e+02	-3.225196e+01
5.288855e+02	-3.230191e+01
5.319403e+02	-3.234727e+01
5.350128e+02	-3.240134e+01
5.381030e+02	-3.244298e+01
5.412111e+02	-3.250428e+01
5.443371e+02	-3.254992e+01
5.474812e+02	-3.260206e+01
5.506434e+02	-3.264763e+01
5.538239e+02	-3.269814e+01
5.570228e+02	-3.275171e+01
5.602401e+02	-3.280390e+01
5.634760e+02	-3.285525e+01
5.667306e+02	-3.290021e+01
5.700040e+02	-3.295288e+01
5.732964e+02	-3.300723e+01
5.766077e+02	-3.305585e+01
5.799382e+02	-3.309939e+01
5.832879e+02	-3.315778e+01
5.866569e+02	-3.321159e+01
5.900454e+02	-3.326115e+01
5.934535e+02	-3.330732e+01
5.968813e+02	-3.335827e+01
6.003288e+02	-3.341312e+01
6.037963e+02	-3.345478e+01
6.072838e+02	-3.349712e+01
6.107914e+02	-3.356071e+01
6.143194e+02	-3.359973e+01
6.178676e+02	-3.365826e+01
6.214364e+02	-3.370463e+01
6.250258e+02	-3.375667e+01
6.286359e+02	-3.381192e+01
6.322669e+02	-3.386015e+01
6.359189e+02	-3.390715e+01
6.395919e+02	-3.396458e+01
6.432862e+02	-3.401147e+01
6.470017e+02	-3.405784e+01
6.507388e+02	-3.410795e+01
6.544974e+02	-3.416413e+01
6.582778e+02	-3.421061e+01
6.620800e+02	-3.426015e+01
6.659041e+02	-3.430502e+01
6.697504e+02	-3.435283e+01
6.736188e+02	-3.440924e+01
6.775096e+02	-3.446538e+01
6.814229e+02	-3.450988e+01
6.853587e+02	-3.456945e+01
6.893173e+02	-3.460999e+01
6.932988e+02	-3.466056e+01
6.973033e+02	-3.470968e+01
7.013309e+02	-3.476410e+01
