Frequency(Hz)	Magnitude(dB)
1.000000e+01	-2.047832e+00
1.005776e+01	-2.066351e+00
1.011585e+01	-2.085758e+00
1.017428e+01	-2.104672e+00
1.023305e+01	-2.123983e+00
1.029215e+01	-2.143439e+00
1.035160e+01	-2.162946e+00
1.041139e+01	-2.182702e+00
1.047153e+01	-2.202339e+00
1.053201e+01	-2.222346e+00
1.059284e+01	-2.242571e+00
1.065403e+01	-2.262713e+00
1.071556e+01	-2.283286e+00
1.077746e+01	-2.303880e+00
1.083971e+01	-2.324370e+00
1.090232e+01	-2.345329e+00
1.096529e+01	-2.365904e+00
1.102862e+01	-2.387193e+00
1.109232e+01	-2.408463e+00
1.115639e+01	-2.429982e+00
1.122083e+01	-2.451297e+00
1.128564e+01	-2.472783e+00
1.135083e+01	-2.494707e+00
1.141639e+01	-2.516664e+00
1.148233e+01	-2.538859e+00
1.154865e+01	-2.561043e+00
1.161536e+01	-2.583310e+00
1.168245e+01	-2.605793e+00
1.174992e+01	-2.628319e+00
1.181779e+01	-2.651381e+00
1.188605e+01	-2.674306e+00
1.195470e+01	-2.697129e+00
1.202375e+01	-2.720321e+00
1.209320e+01	-2.743878e+00
1.216305e+01	-2.767339e+00
1.223330e+01	-2.790991e+00
1.230396e+01	-2.814798e+00
1.237503e+01	-2.838720e+00
1.244651e+01	-2.862948e+00
1.251840e+01	-2.887022e+00
1.259070e+01	-2.911446e+00
1.266343e+01	-2.935722e+00
1.273657e+01	-2.960686e+00
1.281014e+01	-2.985115e+00
1.288413e+01	-3.010295e+00
1.295855e+01	-3.035495e+00
1.303339e+01	-3.060739e+00
1.310867e+01	-3.086232e+00
1.318439e+01	-3.111578e+00
1.326054e+01	-3.136841e+00
1.333713e+01	-3.162693e+00
1.341417e+01	-3.188742e+00
1.349165e+01	-3.215070e+00
1.356958e+01	-3.241252e+00
1.364795e+01	-3.267660e+00
1.372678e+01	-3.294231e+00
1.380607e+01	-3.320729e+00
1.388581e+01	-3.347507e+00
1.396602e+01	-3.374478e+00
1.404668e+01	-3.401481e+00
1.412782e+01	-3.429008e+00
1.420942e+01	-3.456186e+00
1.429149e+01	-3.483850e+00
1.437404e+01	-3.511569e+00
1.445706e+01	-3.539176e+00
1.454057e+01	-3.567049e+00
1.462455e+01	-3.595437e+00
1.470902e+01	-3.623632e+00
1.479398e+01	-3.652012e+00
1.487943e+01	-3.680600e+00
1.496537e+01	-3.709186e+00
1.505181e+01	-3.738177e+00
1.513875e+01	-3.766709e+00
1.522619e+01	-3.796193e+00
1.531414e+01	-3.825029e+00
1.540259e+01	-3.854511e+00
1.549156e+01	-3.884270e+00
1.558103e+01	-3.913764e+00
1.567103e+01	-3.943458e+00
1.576155e+01	-3.973250e+00
1.585258e+01	-4.003482e+00
1.594415e+01	-4.033836e+00
1.603624e+01	-4.063840e+00
1.612886e+01	-4.094128e+00
1.622202e+01	-4.124949e+00
1.631572e+01	-4.155775e+00
1.640996e+01	-4.186670e+00
1.650474e+01	-4.217698e+00
1.660008e+01	-4.248930e+00
1.669596e+01	-4.279908e+00
1.679239e+01	-4.311561e+00
1.688938e+01	-4.343047e+00
1.698694e+01	-4.374789e+00
1.708505e+01	-4.406560e+00
1.718373e+01	-4.438413e+00
1.728299e+01	-4.470553e+00
1.738281e+01	-4.502699e+00
1.748322e+01	-4.535438e+00
1.758420e+01	-4.567885e+00
1.768576e+01	-4.600227e+00
1.778792e+01	-4.633038e+00
1.789066e+01	-4.665716e+00
1.799399e+01	-4.699171e+00
1.809793e+01	-4.732095e+00
1.820246e+01	-4.765277e+00
1.830760e+01	-4.798477e+00
1.841334e+01	-4.832214e+00
1.851969e+01	-4.865843e+00
1.862666e+01	-4.899591e+00
1.873425e+01	-4.933862e+00
1.884246e+01	-4.967439e+00
1.895129e+01	-5.001859e+00
1.906075e+01	-5.036133e+00
1.917085e+01	-5.070178e+00
1.928158e+01	-5.105140e+00
1.939295e+01	-5.139446e+00
1.950496e+01	-5.174439e+00
1.961762e+01	-5.209030e+00
1.973093e+01	-5.244234e+00
1.984490e+01	-5.279433e+00
1.995952e+01	-5.314618e+00
2.007480e+01	-5.350032e+00
2.019076e+01	-5.385309e+00
2.030738e+01	-5.420983e+00
2.042467e+01	-5.456615e+00
2.054264e+01	-5.492685e+00
2.066130e+01	-5.528431e+00
2.078064e+01	-5.564655e+00
2.090066e+01	-5.600439e+00
2.102139e+01	-5.636998e+00
2.114280e+01	-5.673382e+00
2.126492e+01	-5.710223e+00
2.138775e+01	-5.746790e+00
2.151128e+01	-5.783526e+00
2.163553e+01	-5.820541e+00
2.176050e+01	-5.857222e+00
2.188619e+01	-5.894534e+00
2.201260e+01	-5.931543e+00
2.213974e+01	-5.969276e+00
2.226762e+01	-6.006462e+00
2.239624e+01	-6.043783e+00
2.252560e+01	-6.081460e+00
2.265571e+01	-6.119146e+00
2.278656e+01	-6.157471e+00
2.291818e+01	-6.195268e+00
2.305055e+01	-6.233214e+00
2.318369e+01	-6.271360e+00
2.331760e+01	-6.309419e+00
2.345228e+01	-6.347588e+00
2.358774e+01	-6.386681e+00
2.372398e+01	-6.425002e+00
2.386101e+01	-6.463930e+00
2.399883e+01	-6.502351e+00
2.413745e+01	-6.541693e+00
2.427686e+01	-6.580586e+00
2.441709e+01	-6.619245e+00
2.455812e+01	-6.658882e+00
2.469997e+01	-6.697981e+00
2.484263e+01	-6.737342e+00
2.498612e+01	-6.776912e+00
2.513044e+01	-6.816301e+00
2.527559e+01	-6.856459e+00
2.542158e+01	-6.895782e+00
2.556842e+01	-6.935506e+00
2.571610e+01	-6.975468e+00
2.586463e+01	-7.015883e+00
2.601403e+01	-7.055879e+00
2.616428e+01	-7.095838e+00
2.631541e+01	-7.136267e+00
2.646740e+01	-7.176627e+00
2.662028e+01	-7.217305e+00
2.677404e+01	-7.257733e+00
2.692868e+01	-7.298569e+00
2.708422e+01	-7.339475e+00
2.724066e+01	-7.380113e+00
2.739800e+01	-7.420777e+00
2.755625e+01	-7.462013e+00
2.771541e+01	-7.503055e+00
2.787550e+01	-7.544105e+00
2.803650e+01	-7.585235e+00
2.819844e+01	-7.626807e+00
2.836131e+01	-7.668053e+00
2.852513e+01	-7.709543e+00
2.868989e+01	-7.751426e+00
2.885560e+01	-7.793197e+00
2.902227e+01	-7.834851e+00
2.918990e+01	-7.876849e+00
2.935850e+01	-7.918639e+00
2.952807e+01	-7.960318e+00
2.969863e+01	-8.002647e+00
2.987016e+01	-8.044654e+00
3.004269e+01	-8.087127e+00
3.021622e+01	-8.129016e+00
3.039075e+01	-8.171066e+00
3.056628e+01	-8.214133e+00
3.074283e+01	-8.256563e+00
3.092040e+01	-8.298973e+00
3.109900e+01	-8.341820e+00
3.127862e+01	-8.384548e+00
3.145929e+01	-8.427295e+00
3.164099e+01	-8.470069e+00
3.182375e+01	-8.512919e+00
3.200756e+01	-8.555687e+00
3.219244e+01	-8.599452e+00
3.237838e+01	-8.642203e+00
3.256540e+01	-8.685351e+00
3.275349e+01	-8.728607e+00
3.294268e+01	-8.771969e+00
3.313295e+01	-8.815363e+00
3.332433e+01	-8.859159e+00
3.351681e+01	-8.902910e+00
3.371040e+01	-8.946681e+00
3.390511e+01	-8.990211e+00
3.410094e+01	-9.033424e+00
3.429791e+01	-9.077410e+00
3.449601e+01	-9.121418e+00
3.469526e+01	-9.165091e+00
3.489566e+01	-9.209367e+00
3.509721e+01	-9.254028e+00
3.529993e+01	-9.297461e+00
3.550382e+01	-9.341140e+00
3.570889e+01	-9.385851e+00
3.591515e+01	-9.430125e+00
3.612259e+01	-9.474874e+00
3.633123e+01	-9.519205e+00
3.654108e+01	-9.563489e+00
3.675214e+01	-9.607949e+00
3.696442e+01	-9.652373e+00
3.717792e+01	-9.696969e+00
3.739266e+01	-9.741992e+00
3.760864e+01	-9.786424e+00
3.782587e+01	-9.831609e+00
3.804435e+01	-9.875968e+00
3.826409e+01	-9.921311e+00
3.848510e+01	-9.965872e+00
3.870739e+01	-1.001069e+01
3.893096e+01	-1.005624e+01
3.915583e+01	-1.010135e+01
3.938199e+01	-1.014615e+01
3.960946e+01	-1.019163e+01
3.983824e+01	-1.023710e+01
4.006834e+01	-1.028185e+01
4.029978e+01	-1.032813e+01
4.053255e+01	-1.037323e+01
4.076666e+01	-1.041879e+01
4.100213e+01	-1.046390e+01
4.123896e+01	-1.050947e+01
4.147715e+01	-1.055481e+01
4.171672e+01	-1.060069e+01
4.195767e+01	-1.064644e+01
4.220002e+01	-1.069179e+01
4.244377e+01	-1.073801e+01
4.268892e+01	-1.078371e+01
4.293549e+01	-1.082993e+01
4.318348e+01	-1.087630e+01
4.343291e+01	-1.092181e+01
4.368377e+01	-1.096752e+01
4.393609e+01	-1.101329e+01
4.418986e+01	-1.105965e+01
4.444510e+01	-1.110543e+01
4.470182e+01	-1.115173e+01
4.496001e+01	-1.119799e+01
4.521970e+01	-1.124492e+01
4.548089e+01	-1.129062e+01
4.574358e+01	-1.133715e+01
4.600779e+01	-1.138345e+01
4.627353e+01	-1.142970e+01
4.654081e+01	-1.147644e+01
4.680963e+01	-1.152279e+01
4.708000e+01	-1.156863e+01
4.735193e+01	-1.161640e+01
4.762543e+01	-1.166282e+01
4.790051e+01	-1.170926e+01
4.817719e+01	-1.175563e+01
4.845545e+01	-1.180202e+01
4.873533e+01	-1.184906e+01
4.901682e+01	-1.189666e+01
4.929994e+01	-1.194307e+01
4.958470e+01	-1.198990e+01
4.987110e+01	-1.203692e+01
5.015915e+01	-1.208350e+01
5.044887e+01	-1.213089e+01
5.074026e+01	-1.217734e+01
5.103333e+01	-1.222455e+01
5.132810e+01	-1.227208e+01
5.162457e+01	-1.231868e+01
5.192275e+01	-1.236575e+01
5.222265e+01	-1.241189e+01
5.252429e+01	-1.246032e+01
5.282767e+01	-1.250696e+01
5.313280e+01	-1.255420e+01
5.343969e+01	-1.260185e+01
5.374836e+01	-1.264873e+01
5.405880e+01	-1.269603e+01
5.437105e+01	-1.274281e+01
5.468509e+01	-1.279087e+01
5.500095e+01	-1.283814e+01
5.531863e+01	-1.288593e+01
5.563815e+01	-1.293403e+01
5.595951e+01	-1.298053e+01
5.628273e+01	-1.302779e+01
5.660782e+01	-1.307643e+01
5.693479e+01	-1.312349e+01
5.726364e+01	-1.317145e+01
5.759439e+01	-1.321844e+01
5.792705e+01	-1.326684e+01
5.826164e+01	-1.331372e+01
5.859815e+01	-1.336155e+01
5.893662e+01	-1.340983e+01
5.927703e+01	-1.345757e+01
5.961941e+01	-1.350518e+01
5.996377e+01	-1.355237e+01
6.031012e+01	-1.360169e+01
6.065847e+01	-1.364798e+01
6.100883e+01	-1.369700e+01
6.136121e+01	-1.374404e+01
6.171563e+01	-1.379151e+01
6.207210e+01	-1.384025e+01
6.243063e+01	-1.388802e+01
6.279122e+01	-1.393601e+01
6.315390e+01	-1.398395e+01
6.351868e+01	-1.403183e+01
6.388556e+01	-1.407966e+01
6.425456e+01	-1.412823e+01
6.462569e+01	-1.417625e+01
6.499897e+01	-1.422477e+01
6.537440e+01	-1.427258e+01
6.575200e+01	-1.432103e+01
6.613178e+01	-1.436876e+01
6.651375e+01	-1.441750e+01
6.689793e+01	-1.446532e+01
6.728433e+01	-1.451381e+01
6.767297e+01	-1.456173e+01
6.806384e+01	-1.461088e+01
6.845698e+01	-1.465790e+01
6.885238e+01	-1.470670e+01
6.925007e+01	-1.475486e+01
6.965005e+01	-1.480310e+01
7.005235e+01	-1.485221e+01
7.045697e+01	-1.490012e+01
7.086393e+01	-1.494802e+01
7.127323e+01	-1.499800e+01
7.168490e+01	-1.504552e+01
7.209895e+01	-1.509475e+01
7.251539e+01	-1.514256e+01
7.293424e+01	-1.519203e+01
7.335551e+01	-1.523987e+01
7.377920e+01	-1.528866e+01
7.420535e+01	-1.533665e+01
7.463396e+01	-1.538525e+01
7.506504e+01	-1.543451e+01
7.549861e+01	-1.548242e+01
7.593469e+01	-1.553156e+01
7.637328e+01	-1.557954e+01
7.681441e+01	-1.562815e+01
7.725809e+01	-1.567734e+01
7.770433e+01	-1.572587e+01
7.815315e+01	-1.577424e+01
7.860456e+01	-1.582368e+01
7.905857e+01	-1.587144e+01
7.951521e+01	-1.592037e+01
7.997449e+01	-1.596981e+01
8.043642e+01	-1.601861e+01
8.090102e+01	-1.606650e+01
8.136830e+01	-1.611461e+01
8.183828e+01	-1.616388e+01
8.231097e+01	-1.621429e+01
8.278640e+01	-1.626279e+01
8.326457e+01	-1.631142e+01
8.374550e+01	-1.635949e+01
8.422921e+01	-1.640888e+01
8.471572e+01	-1.645806e+01
8.520503e+01	-1.650768e+01
8.569717e+01	-1.655614e+01
8.619215e+01	-1.660381e+01
8.669000e+01	-1.665394e+01
8.719071e+01	-1.670243e+01
8.769432e+01	-1.675192e+01
8.820084e+01	-1.680065e+01
8.871029e+01	-1.684983e+01
8.922267e+01	-1.689930e+01
8.973802e+01	-1.694804e+01
9.025634e+01	-1.699710e+01
9.077766e+01	-1.704566e+01
9.130199e+01	-1.709511e+01
9.182935e+01	-1.714290e+01
9.235975e+01	-1.719215e+01
9.289321e+01	-1.724178e+01
9.342976e+01	-1.729106e+01
9.396941e+01	-1.734129e+01
9.451217e+01	-1.738898e+01
9.505807e+01	-1.743859e+01
9.560712e+01	-1.748729e+01
9.615934e+01	-1.753600e+01
9.671476e+01	-1.758518e+01
9.727338e+01	-1.763508e+01
9.783522e+01	-1.768462e+01
9.840032e+01	-1.773404e+01
9.896867e+01	-1.778208e+01
9.954031e+01	-1.783129e+01
1.001153e+02	-1.788191e+01
1.006935e+02	-1.792979e+01
1.012751e+02	-1.797854e+01
1.018601e+02	-1.802866e+01
1.024484e+02	-1.807901e+01
1.030402e+02	-1.812640e+01
1.036353e+02	-1.817777e+01
1.042339e+02	-1.822524e+01
1.048360e+02	-1.827472e+01
1.054415e+02	-1.832300e+01
1.060505e+02	-1.837332e+01
1.066631e+02	-1.842406e+01
1.072791e+02	-1.847032e+01
1.078988e+02	-1.852133e+01
1.085220e+02	-1.857025e+01
1.091488e+02	-1.862085e+01
1.097793e+02	-1.866980e+01
1.104133e+02	-1.871842e+01
1.110511e+02	-1.876965e+01
1.116925e+02	-1.881859e+01
1.123376e+02	-1.886666e+01
1.129865e+02	-1.891713e+01
1.136391e+02	-1.896671e+01
1.142955e+02	-1.901575e+01
1.149556e+02	-1.906385e+01
1.156196e+02	-1.911441e+01
1.162874e+02	-1.916234e+01
1.169591e+02	-1.921280e+01
1.176347e+02	-1.926285e+01
1.183141e+02	-1.931218e+01
1.189975e+02	-1.935959e+01
1.196848e+02	-1.941021e+01
1.203761e+02	-1.945946e+01
1.210714e+02	-1.951024e+01
1.217707e+02	-1.955818e+01
1.224740e+02	-1.960818e+01
1.231814e+02	-1.965814e+01
1.238929e+02	-1.970906e+01
1.246085e+02	-1.975635e+01
1.253283e+02	-1.980757e+01
1.260522e+02	-1.985489e+01
1.267802e+02	-1.990427e+01
1.275125e+02	-1.995429e+01
1.282490e+02	-2.000518e+01
1.289898e+02	-2.005528e+01
1.297348e+02	-2.010416e+01
1.304842e+02	-2.015441e+01
1.312378e+02	-2.019935e+01
1.319959e+02	-2.025200e+01
1.327583e+02	-2.030317e+01
1.335251e+02	-2.035258e+01
1.342963e+02	-2.040132e+01
1.350720e+02	-2.045151e+01
1.358522e+02	-2.050077e+01
1.366368e+02	-2.054982e+01
1.374260e+02	-2.059934e+01
1.382198e+02	-2.064787e+01
1.390182e+02	-2.069866e+01
1.398211e+02	-2.074923e+01
1.406287e+02	-2.079807e+01
1.414410e+02	-2.084851e+01
1.422579e+02	-2.089704e+01
1.430796e+02	-2.094564e+01
1.439060e+02	-2.099436e+01
1.447372e+02	-2.104577e+01
1.455732e+02	-2.109742e+01
1.464141e+02	-2.114418e+01
1.472597e+02	-2.119504e+01
1.481103e+02	-2.124527e+01
1.489658e+02	-2.129473e+01
1.498262e+02	-2.134468e+01
1.506916e+02	-2.139325e+01
1.515620e+02	-2.144181e+01
1.524374e+02	-2.149292e+01
1.533179e+02	-2.154330e+01
1.542034e+02	-2.159373e+01
1.550941e+02	-2.164325e+01
1.559899e+02	-2.169322e+01
1.568909e+02	-2.174036e+01
1.577971e+02	-2.179226e+01
1.587085e+02	-2.183891e+01
1.596252e+02	-2.189183e+01
1.605472e+02	-2.194101e+01
1.614745e+02	-2.198942e+01
1.624072e+02	-2.204093e+01
1.633453e+02	-2.209062e+01
1.642887e+02	-2.213897e+01
1.652377e+02	-2.218811e+01
1.661921e+02	-2.223753e+01
1.671520e+02	-2.228866e+01
1.681175e+02	-2.233827e+01
1.690885e+02	-2.239064e+01
1.700651e+02	-2.243778e+01
1.710474e+02	-2.248813e+01
1.720354e+02	-2.253978e+01
1.730291e+02	-2.258823e+01
1.740285e+02	-2.263533e+01
1.750337e+02	-2.268520e+01
1.760446e+02	-2.273710e+01
1.770615e+02	-2.278751e+01
1.780842e+02	-2.283725e+01
1.791128e+02	-2.288555e+01
1.801473e+02	-2.293714e+01
1.811878e+02	-2.298380e+01
1.822344e+02	-2.303557e+01
1.832870e+02	-2.308444e+01
1.843456e+02	-2.313661e+01
1.854104e+02	-2.318426e+01
1.864813e+02	-2.323639e+01
1.875584e+02	-2.328465e+01
1.886418e+02	-2.333367e+01
1.897313e+02	-2.338409e+01
1.908272e+02	-2.343386e+01
1.919294e+02	-2.348241e+01
1.930380e+02	-2.353197e+01
1.941530e+02	-2.358121e+01
1.952744e+02	-2.363394e+01
1.964023e+02	-2.368147e+01
1.975367e+02	-2.373152e+01
1.986777e+02	-2.378290e+01
1.998252e+02	-2.383257e+01
2.009794e+02	-2.388188e+01
2.021403e+02	-2.393164e+01
2.033078e+02	-2.398169e+01
2.044821e+02	-2.402911e+01
2.056632e+02	-2.407876e+01
2.068511e+02	-2.413286e+01
2.080459e+02	-2.418249e+01
2.092475e+02	-2.423140e+01
2.104561e+02	-2.428367e+01
2.116717e+02	-2.433027e+01
2.128943e+02	-2.438074e+01
2.141240e+02	-2.443189e+01
2.153608e+02	-2.448069e+01
2.166047e+02	-2.452965e+01
2.178558e+02	-2.457903e+01
2.191141e+02	-2.463071e+01
2.203797e+02	-2.468268e+01
2.216526e+02	-2.473064e+01
2.229329e+02	-2.478355e+01
2.242205e+02	-2.483052e+01
2.255156e+02	-2.487903e+01
2.268182e+02	-2.492820e+01
2.281283e+02	-2.498029e+01
2.294459e+02	-2.502858e+01
2.307712e+02	-2.507771e+01
2.321041e+02	-2.513300e+01
2.334447e+02	-2.518006e+01
2.347931e+02	-2.523067e+01
2.361493e+02	-2.527985e+01
2.375133e+02	-2.533025e+01
2.388851e+02	-2.537902e+01
2.402649e+02	-2.542939e+01
2.416527e+02	-2.547986e+01
2.430484e+02	-2.552715e+01
2.444523e+02	-2.558002e+01
2.458642e+02	-2.563221e+01
2.472843e+02	-2.567861e+01
2.487126e+02	-2.572779e+01
2.501492e+02	-2.577726e+01
2.515940e+02	-2.582752e+01
2.530472e+02	-2.587978e+01
2.545088e+02	-2.592857e+01
2.559789e+02	-2.598016e+01
2.574574e+02	-2.603081e+01
2.589444e+02	-2.607836e+01
2.604401e+02	-2.612856e+01
2.619444e+02	-2.617877e+01
2.634574e+02	-2.623033e+01
2.649791e+02	-2.627978e+01
2.665096e+02	-2.632846e+01
2.680489e+02	-2.637817e+01
2.695972e+02	-2.643075e+01
2.711544e+02	-2.647910e+01
2.727205e+02	-2.653030e+01
2.742958e+02	-2.657683e+01
2.758801e+02	-2.662924e+01
2.774736e+02	-2.667898e+01
2.790762e+02	-2.672487e+01
2.806882e+02	-2.677911e+01
2.823094e+02	-2.683096e+01
2.839400e+02	-2.688075e+01
2.855800e+02	-2.692583e+01
2.872295e+02	-2.697871e+01
2.888886e+02	-2.702655e+01
2.905572e+02	-2.707891e+01
2.922354e+02	-2.712682e+01
2.939234e+02	-2.717887e+01
2.956211e+02	-2.722500e+01
2.973286e+02	-2.727539e+01
2.990459e+02	-2.732893e+01
3.007732e+02	-2.737681e+01
3.025104e+02	-2.742657e+01
3.042577e+02	-2.747610e+01
3.060151e+02	-2.752652e+01
3.077826e+02	-2.757334e+01
3.095604e+02	-2.762318e+01
3.113484e+02	-2.767858e+01
3.131467e+02	-2.772812e+01
3.149554e+02	-2.777916e+01
3.167746e+02	-2.782953e+01
3.186043e+02	-2.787752e+01
3.204445e+02	-2.792841e+01
3.222954e+02	-2.797813e+01
3.241570e+02	-2.802737e+01
3.260293e+02	-2.807787e+01
3.279124e+02	-2.812742e+01
3.298064e+02	-2.817342e+01
3.317114e+02	-2.822844e+01
3.336273e+02	-2.827495e+01
3.355544e+02	-2.833310e+01
3.374925e+02	-2.837802e+01
3.394418e+02	-2.843000e+01
3.414024e+02	-2.847910e+01
3.433744e+02	-2.852611e+01
3.453577e+02	-2.857631e+01
3.473525e+02	-2.863086e+01
3.493588e+02	-2.868038e+01
3.513766e+02	-2.873045e+01
3.534062e+02	-2.877588e+01
3.554474e+02	-2.883063e+01
3.575005e+02	-2.887542e+01
3.595654e+02	-2.892772e+01
3.616422e+02	-2.897442e+01
3.637311e+02	-2.902305e+01
3.658320e+02	-2.908008e+01
3.679450e+02	-2.912812e+01
3.700702e+02	-2.918196e+01
3.722077e+02	-2.922860e+01
3.743576e+02	-2.928077e+01
3.765199e+02	-2.932863e+01
3.786946e+02	-2.937419e+01
3.808820e+02	-2.943283e+01
3.830819e+02	-2.948060e+01
3.852946e+02	-2.953181e+01
3.875200e+02	-2.957796e+01
3.897583e+02	-2.962771e+01
3.920096e+02	-2.967824e+01
3.942738e+02	-2.972785e+01
3.965511e+02	-2.978140e+01
3.988416e+02	-2.983685e+01
4.011452e+02	-2.988118e+01
4.034622e+02	-2.992869e+01
4.057926e+02	-2.998038e+01
4.081365e+02	-3.003042e+01
4.104938e+02	-3.008474e+01
4.128648e+02	-3.013028e+01
4.152495e+02	-3.018144e+01
4.176480e+02	-3.023019e+01
4.200603e+02	-3.027876e+01
4.224866e+02	-3.033176e+01
4.249268e+02	-3.037685e+01
4.273812e+02	-3.043215e+01
4.298497e+02	-3.047952e+01
4.323325e+02	-3.052972e+01
4.348297e+02	-3.058778e+01
4.373412e+02	-3.062810e+01
4.398673e+02	-3.068462e+01
4.424079e+02	-3.073113e+01
4.449633e+02	-3.077977e+01
4.475334e+02	-3.083554e+01
4.501183e+02	-3.088297e+01
4.527182e+02	-3.093290e+01
4.553330e+02	-3.097864e+01
4.579630e+02	-3.103096e+01
4.606082e+02	-3.109082e+01
4.632687e+02	-3.113615e+01
4.659445e+02	-3.117858e+01
4.686358e+02	-3.123672e+01
4.713426e+02	-3.128203e+01
4.740650e+02	-3.133426e+01
4.768032e+02	-3.138497e+01
4.795572e+02	-3.143644e+01
4.823271e+02	-3.148048e+01
4.851130e+02	-3.153752e+01
4.879150e+02	-3.158216e+01
4.907332e+02	-3.163222e+01
4.935676e+02	-3.168411e+01
4.964185e+02	-3.173773e+01
4.992858e+02	-3.178397e+01
5.021696e+02	-3.183377e+01
5.050701e+02	-3.188587e+01
5.079874e+02	-3.193425e+01
5.109215e+02	-3.198382e+01
5.138726e+02	-3.204235e+01
5.168407e+02	-3.208489e+01
5.198259e+02	-3.213566e+01
5.228284e+02	-3.219222e+01
5.258482e+02	-3.224234e+01
5.288855e+02	-3.228979e+01
5.319403e+02	-3.233666e+01
5.350128e+02	-3.238915e+01
5.381030e+02	-3.243709e+01
5.412111e+02	-3.248728e+01
5.443371e+02	-3.254091e+01
5.474812e+02	-3.259292e+01
5.506434e+02	-3.263841e+01
5.538239e+02	-3.268612e+01
5.570228e+02	-3.274035e+01
5.602401e+02	-3.279069e+01
5.634760e+02	-3.284180e+01
5.667306e+02	-3.289264e+01
5.700040e+02	-3.294269e+01
5.732964e+02	-3.298873e+01
5.766077e+02	-3.304126e+01
5.799382e+02	-3.309273e+01
5.832879e+02	-3.314282e+01
5.866569e+02	-3.318761e+01
5.900454e+02	-3.323917e+01
5.934535e+02	-3.328711e+01
5.968813e+02	-3.334207e+01
6.003288e+02	-3.338906e+01
6.037963e+02	-3.344994e+01
6.072838e+02	-3.349167e+01
6.107914e+02	-3.353895e+01
6.143194e+02	-3.359591e+01
6.178676e+02	-3.364690e+01
6.214364e+02	-3.369616e+01
6.250258e+02	-3.373942e+01
6.286359e+02	-3.379595e+01
6.322669e+02	-3.384105e+01
6.359189e+02	-3.389789e+01
6.395919e+02	-3.395123e+01
6.432862e+02	-3.399330e+01
6.470017e+02	-3.405212e+01
6.507388e+02	-3.410512e+01
6.544974e+02	-3.415012e+01
6.582778e+02	-3.419970e+01
6.620800e+02	-3.425299e+01
6.659041e+02	-3.430310e+01
6.697504e+02	-3.434802e+01
6.736188e+02	-3.439826e+01
6.775096e+02	-3.445140e+01
6.814229e+02	-3.450226e+01
6.853587e+02	-3.455261e+01
6.893173e+02	-3.459583e+01
6.932988e+02	-3.464678e+01
6.973033e+02	-3.470859e+01
7.013309e+02	-3.475378e+01
