Frequency(Hz)	Magnitude(dB)
1.000000e+01	-2.228499e+00
1.005776e+01	-2.248492e+00
1.011585e+01	-2.268922e+00
1.017428e+01	-2.289076e+00
1.023305e+01	-2.309889e+00
1.029215e+01	-2.330504e+00
1.035160e+01	-2.351250e+00
1.041139e+01	-2.372260e+00
1.047153e+01	-2.393405e+00
1.053201e+01	-2.414785e+00
1.059284e+01	-2.436050e+00
1.065403e+01	-2.457445e+00
1.071556e+01	-2.479137e+00
1.077746e+01	-2.501233e+00
1.083971e+01	-2.523041e+00
1.090232e+01	-2.545509e+00
1.096529e+01	-2.567630e+00
1.102862e+01	-2.589976e+00
1.109232e+01	-2.612512e+00
1.115639e+01	-2.635044e+00
1.122083e+01	-2.657916e+00
1.128564e+01	-2.680997e+00
1.135083e+01	-2.704164e+00
1.141639e+01	-2.727320e+00
1.148233e+01	-2.750817e+00
1.154865e+01	-2.774188e+00
1.161536e+01	-2.797982e+00
1.168245e+01	-2.821769e+00
1.174992e+01	-2.845640e+00
1.181779e+01	-2.869878e+00
1.188605e+01	-2.894082e+00
1.195470e+01	-2.918505e+00
1.202375e+01	-2.943239e+00
1.209320e+01	-2.967704e+00
1.216305e+01	-2.992643e+00
1.223330e+01	-3.017512e+00
1.230396e+01	-3.042913e+00
1.237503e+01	-3.068235e+00
1.244651e+01	-3.093505e+00
1.251840e+01	-3.118928e+00
1.259070e+01	-3.144735e+00
1.266343e+01	-3.170419e+00
1.273657e+01	-3.196368e+00
1.281014e+01	-3.222634e+00
1.288413e+01	-3.249068e+00
1.295855e+01	-3.275402e+00
1.303339e+01	-3.301944e+00
1.310867e+01	-3.328630e+00
1.318439e+01	-3.355457e+00
1.326054e+01	-3.382326e+00
1.333713e+01	-3.409713e+00
1.341417e+01	-3.436857e+00
1.349165e+01	-3.464526e+00
1.356958e+01	-3.491860e+00
1.364795e+01	-3.519709e+00
1.372678e+01	-3.547479e+00
1.380607e+01	-3.575340e+00
1.388581e+01	-3.603414e+00
1.396602e+01	-3.631738e+00
1.404668e+01	-3.660148e+00
1.412782e+01	-3.688822e+00
1.420942e+01	-3.717325e+00
1.429149e+01	-3.746544e+00
1.437404e+01	-3.775312e+00
1.445706e+01	-3.804424e+00
1.454057e+01	-3.833664e+00
1.462455e+01	-3.862871e+00
1.470902e+01	-3.892556e+00
1.479398e+01	-3.922426e+00
1.487943e+01	-3.952040e+00
1.496537e+01	-3.982127e+00
1.505181e+01	-4.012028e+00
1.513875e+01	-4.042455e+00
1.522619e+01	-4.073073e+00
1.531414e+01	-4.103351e+00
1.540259e+01	-4.134272e+00
1.549156e+01	-4.164657e+00
1.558103e+01	-4.195537e+00
1.567103e+01	-4.226847e+00
1.576155e+01	-4.257804e+00
1.585258e+01	-4.289586e+00
1.594415e+01	-4.320807e+00
1.603624e+01	-4.351968e+00
1.612886e+01	-4.384008e+00
1.622202e+01	-4.415774e+00
1.631572e+01	-4.447563e+00
1.640996e+01	-4.479885e+00
1.650474e+01	-4.512182e+00
1.660008e+01	-4.544992e+00
1.669596e+01	-4.577070e+00
1.679239e+01	-4.609945e+00
1.688938e+01	-4.643000e+00
1.698694e+01	-4.675634e+00
1.708505e+01	-4.708758e+00
1.718373e+01	-4.741710e+00
1.728299e+01	-4.775252e+00
1.738281e+01	-4.808805e+00
1.748322e+01	-4.842078e+00
1.758420e+01	-4.875729e+00
1.768576e+01	-4.909518e+00
1.778792e+01	-4.943378e+00
1.789066e+01	-4.977374e+00
1.799399e+01	-5.011751e+00
1.809793e+01	-5.046279e+00
1.820246e+01	-5.080696e+00
1.830760e+01	-5.114823e+00
1.841334e+01	-5.149578e+00
1.851969e+01	-5.184470e+00
1.862666e+01	-5.219459e+00
1.873425e+01	-5.254465e+00
1.884246e+01	-5.289670e+00
1.895129e+01	-5.324926e+00
1.906075e+01	-5.360395e+00
1.917085e+01	-5.395887e+00
1.928158e+01	-5.431560e+00
1.939295e+01	-5.467443e+00
1.950496e+01	-5.503350e+00
1.961762e+01	-5.539438e+00
1.973093e+01	-5.575285e+00
1.984490e+01	-5.611776e+00
1.995952e+01	-5.647936e+00
2.007480e+01	-5.684069e+00
2.019076e+01	-5.721160e+00
2.030738e+01	-5.757439e+00
2.042467e+01	-5.794589e+00
2.054264e+01	-5.831148e+00
2.066130e+01	-5.868159e+00
2.078064e+01	-5.905600e+00
2.090066e+01	-5.942755e+00
2.102139e+01	-5.979883e+00
2.114280e+01	-6.017336e+00
2.126492e+01	-6.055073e+00
2.138775e+01	-6.092778e+00
2.151128e+01	-6.130319e+00
2.163553e+01	-6.168207e+00
2.176050e+01	-6.206452e+00
2.188619e+01	-6.244325e+00
2.201260e+01	-6.282810e+00
2.213974e+01	-6.320784e+00
2.226762e+01	-6.359381e+00
2.239624e+01	-6.397709e+00
2.252560e+01	-6.436360e+00
2.265571e+01	-6.474868e+00
2.278656e+01	-6.513873e+00
2.291818e+01	-6.552976e+00
2.305055e+01	-6.591811e+00
2.318369e+01	-6.631195e+00
2.331760e+01	-6.669993e+00
2.345228e+01	-6.709682e+00
2.358774e+01	-6.748418e+00
2.372398e+01	-6.788316e+00
2.386101e+01	-6.827894e+00
2.399883e+01	-6.867443e+00
2.413745e+01	-6.907237e+00
2.427686e+01	-6.947385e+00
2.441709e+01	-6.987392e+00
2.455812e+01	-7.027280e+00
2.469997e+01	-7.067126e+00
2.484263e+01	-7.107802e+00
2.498612e+01	-7.147984e+00
2.513044e+01	-7.188227e+00
2.527559e+01	-7.229269e+00
2.542158e+01	-7.269625e+00
2.556842e+01	-7.310131e+00
2.571610e+01	-7.350978e+00
2.586463e+01	-7.391530e+00
2.601403e+01	-7.433131e+00
2.616428e+01	-7.473978e+00
2.631541e+01	-7.514998e+00
2.646740e+01	-7.556346e+00
2.662028e+01	-7.597621e+00
2.677404e+01	-7.638784e+00
2.692868e+01	-7.680512e+00
2.708422e+01	-7.721964e+00
2.724066e+01	-7.763200e+00
2.739800e+01	-7.804979e+00
2.755625e+01	-7.846961e+00
2.771541e+01	-7.888847e+00
2.787550e+01	-7.930990e+00
2.803650e+01	-7.972858e+00
2.819844e+01	-8.014550e+00
2.836131e+01	-8.056855e+00
2.852513e+01	-8.099632e+00
2.868989e+01	-8.141736e+00
2.885560e+01	-8.184049e+00
2.902227e+01	-8.226262e+00
2.918990e+01	-8.269116e+00
2.935850e+01	-8.311934e+00
2.952807e+01	-8.354023e+00
2.969863e+01	-8.397048e+00
2.987016e+01	-8.440164e+00
3.004269e+01	-8.482907e+00
3.021622e+01	-8.525665e+00
3.039075e+01	-8.568771e+00
3.056628e+01	-8.612000e+00
3.074283e+01	-8.655353e+00
3.092040e+01	-8.698576e+00
3.109900e+01	-8.741583e+00
3.127862e+01	-8.784412e+00
3.145929e+01	-8.828474e+00
3.164099e+01	-8.872045e+00
3.182375e+01	-8.915379e+00
3.200756e+01	-8.958721e+00
3.219244e+01	-9.003144e+00
3.237838e+01	-9.046899e+00
3.256540e+01	-9.090513e+00
3.275349e+01	-9.134138e+00
3.294268e+01	-9.178393e+00
3.313295e+01	-9.222258e+00
3.332433e+01	-9.265767e+00
3.351681e+01	-9.310595e+00
3.371040e+01	-9.354697e+00
3.390511e+01	-9.398963e+00
3.410094e+01	-9.443352e+00
3.429791e+01	-9.487719e+00
3.449601e+01	-9.531961e+00
3.469526e+01	-9.576030e+00
3.489566e+01	-9.620827e+00
3.509721e+01	-9.665936e+00
3.529993e+01	-9.710205e+00
3.550382e+01	-9.755224e+00
3.570889e+01	-9.799665e+00
3.591515e+01	-9.844832e+00
3.612259e+01	-9.889189e+00
3.633123e+01	-9.934303e+00
3.654108e+01	-9.979361e+00
3.675214e+01	-1.002407e+01
3.696442e+01	-1.006983e+01
3.717792e+01	-1.011455e+01
3.739266e+01	-1.016010e+01
3.760864e+01	-1.020526e+01
3.782587e+01	-1.025025e+01
3.804435e+01	-1.029500e+01
3.826409e+01	-1.034109e+01
3.848510e+01	-1.038681e+01
3.870739e+01	-1.043198e+01
3.893096e+01	-1.047725e+01
3.915583e+01	-1.052274e+01
3.938199e+01	-1.056877e+01
3.960946e+01	-1.061413e+01
3.983824e+01	-1.066016e+01
4.006834e+01	-1.070548e+01
4.029978e+01	-1.075157e+01
4.053255e+01	-1.079718e+01
4.076666e+01	-1.084327e+01
4.100213e+01	-1.088893e+01
4.123896e+01	-1.093536e+01
4.147715e+01	-1.098137e+01
4.171672e+01	-1.102700e+01
4.195767e+01	-1.107334e+01
4.220002e+01	-1.111977e+01
4.244377e+01	-1.116587e+01
4.268892e+01	-1.121212e+01
4.293549e+01	-1.125801e+01
4.318348e+01	-1.130419e+01
4.343291e+01	-1.135055e+01
4.368377e+01	-1.139729e+01
4.393609e+01	-1.144350e+01
4.418986e+01	-1.149017e+01
4.444510e+01	-1.153628e+01
4.470182e+01	-1.158304e+01
4.496001e+01	-1.162893e+01
4.521970e+01	-1.167658e+01
4.548089e+01	-1.172219e+01
4.574358e+01	-1.176941e+01
4.600779e+01	-1.181596e+01
4.627353e+01	-1.186353e+01
4.654081e+01	-1.191001e+01
4.680963e+01	-1.195616e+01
4.708000e+01	-1.200300e+01
4.735193e+01	-1.205049e+01
4.762543e+01	-1.209692e+01
4.790051e+01	-1.214438e+01
4.817719e+01	-1.219093e+01
4.845545e+01	-1.223822e+01
4.873533e+01	-1.228521e+01
4.901682e+01	-1.233258e+01
4.929994e+01	-1.237879e+01
4.958470e+01	-1.242656e+01
4.987110e+01	-1.247326e+01
5.015915e+01	-1.252082e+01
5.044887e+01	-1.256830e+01
5.074026e+01	-1.261537e+01
5.103333e+01	-1.266254e+01
5.132810e+01	-1.270989e+01
5.162457e+01	-1.275773e+01
5.192275e+01	-1.280494e+01
5.222265e+01	-1.285223e+01
5.252429e+01	-1.289959e+01
5.282767e+01	-1.294652e+01
5.313280e+01	-1.299430e+01
5.343969e+01	-1.304230e+01
5.374836e+01	-1.308953e+01
5.405880e+01	-1.313767e+01
5.437105e+01	-1.318466e+01
5.468509e+01	-1.323243e+01
5.500095e+01	-1.328064e+01
5.531863e+01	-1.332763e+01
5.563815e+01	-1.337507e+01
5.595951e+01	-1.342288e+01
5.628273e+01	-1.347176e+01
5.660782e+01	-1.351946e+01
5.693479e+01	-1.356652e+01
5.726364e+01	-1.361471e+01
5.759439e+01	-1.366262e+01
5.792705e+01	-1.371099e+01
5.826164e+01	-1.375788e+01
5.859815e+01	-1.380623e+01
5.893662e+01	-1.385441e+01
5.927703e+01	-1.390214e+01
5.961941e+01	-1.394971e+01
5.996377e+01	-1.399838e+01
6.031012e+01	-1.404652e+01
6.065847e+01	-1.409446e+01
6.100883e+01	-1.414194e+01
6.136121e+01	-1.419118e+01
6.171563e+01	-1.423877e+01
6.207210e+01	-1.428652e+01
6.243063e+01	-1.433535e+01
6.279122e+01	-1.438319e+01
6.315390e+01	-1.443136e+01
6.351868e+01	-1.447939e+01
6.388556e+01	-1.452812e+01
6.425456e+01	-1.457622e+01
6.462569e+01	-1.462484e+01
6.499897e+01	-1.467235e+01
6.537440e+01	-1.472147e+01
6.575200e+01	-1.477003e+01
6.613178e+01	-1.481789e+01
6.651375e+01	-1.486574e+01
6.689793e+01	-1.491509e+01
6.728433e+01	-1.496240e+01
6.767297e+01	-1.501039e+01
6.806384e+01	-1.506037e+01
6.845698e+01	-1.510818e+01
6.885238e+01	-1.515770e+01
6.925007e+01	-1.520504e+01
6.965005e+01	-1.525398e+01
7.005235e+01	-1.530293e+01
7.045697e+01	-1.535101e+01
7.086393e+01	-1.540046e+01
7.127323e+01	-1.544761e+01
7.168490e+01	-1.549699e+01
7.209895e+01	-1.554590e+01
7.251539e+01	-1.559419e+01
7.293424e+01	-1.564270e+01
7.335551e+01	-1.569135e+01
7.377920e+01	-1.573953e+01
7.420535e+01	-1.578897e+01
7.463396e+01	-1.583753e+01
7.506504e+01	-1.588620e+01
7.549861e+01	-1.593483e+01
7.593469e+01	-1.598318e+01
7.637328e+01	-1.603224e+01
7.681441e+01	-1.608171e+01
7.725809e+01	-1.613082e+01
7.770433e+01	-1.617819e+01
7.815315e+01	-1.622777e+01
7.860456e+01	-1.627681e+01
7.905857e+01	-1.632608e+01
7.951521e+01	-1.637486e+01
7.997449e+01	-1.642343e+01
8.043642e+01	-1.647238e+01
8.090102e+01	-1.652083e+01
8.136830e+01	-1.656986e+01
8.183828e+01	-1.661930e+01
8.231097e+01	-1.666779e+01
8.278640e+01	-1.671745e+01
8.326457e+01	-1.676666e+01
8.374550e+01	-1.681508e+01
8.422921e+01	-1.686411e+01
8.471572e+01	-1.691246e+01
8.520503e+01	-1.696329e+01
8.569717e+01	-1.701136e+01
8.619215e+01	-1.705941e+01
8.669000e+01	-1.710911e+01
8.719071e+01	-1.715789e+01
8.769432e+01	-1.720687e+01
8.820084e+01	-1.725566e+01
8.871029e+01	-1.730465e+01
8.922267e+01	-1.735347e+01
8.973802e+01	-1.740295e+01
9.025634e+01	-1.745201e+01
9.077766e+01	-1.750094e+01
9.130199e+01	-1.755125e+01
9.182935e+01	-1.759920e+01
9.235975e+01	-1.765011e+01
9.289321e+01	-1.769886e+01
9.342976e+01	-1.774888e+01
9.396941e+01	-1.779712e+01
9.451217e+01	-1.784548e+01
9.505807e+01	-1.789540e+01
9.560712e+01	-1.794430e+01
9.615934e+01	-1.799175e+01
9.671476e+01	-1.804237e+01
9.727338e+01	-1.809113e+01
9.783522e+01	-1.814217e+01
9.840032e+01	-1.819057e+01
9.896867e+01	-1.823976e+01
9.954031e+01	-1.829028e+01
1.001153e+02	-1.833844e+01
1.006935e+02	-1.838945e+01
1.012751e+02	-1.843680e+01
1.018601e+02	-1.848647e+01
1.024484e+02	-1.853497e+01
1.030402e+02	-1.858655e+01
1.036353e+02	-1.863335e+01
1.042339e+02	-1.868299e+01
1.048360e+02	-1.873312e+01
1.054415e+02	-1.878169e+01
1.060505e+02	-1.883358e+01
1.066631e+02	-1.888131e+01
1.072791e+02	-1.893078e+01
1.078988e+02	-1.898088e+01
1.085220e+02	-1.902912e+01
1.091488e+02	-1.907778e+01
1.097793e+02	-1.912707e+01
1.104133e+02	-1.917727e+01
1.110511e+02	-1.922800e+01
1.116925e+02	-1.927663e+01
1.123376e+02	-1.932493e+01
1.129865e+02	-1.937549e+01
1.136391e+02	-1.942427e+01
1.142955e+02	-1.947635e+01
1.149556e+02	-1.952424e+01
1.156196e+02	-1.957279e+01
1.162874e+02	-1.962202e+01
1.169591e+02	-1.967206e+01
1.176347e+02	-1.972285e+01
1.183141e+02	-1.977285e+01
1.189975e+02	-1.982273e+01
1.196848e+02	-1.986963e+01
1.203761e+02	-1.991937e+01
1.210714e+02	-1.996939e+01
1.217707e+02	-2.001877e+01
1.224740e+02	-2.006961e+01
1.231814e+02	-2.011911e+01
1.238929e+02	-2.016856e+01
1.246085e+02	-2.021669e+01
1.253283e+02	-2.026589e+01
1.260522e+02	-2.031707e+01
1.267802e+02	-2.036539e+01
1.275125e+02	-2.041707e+01
1.282490e+02	-2.046545e+01
1.289898e+02	-2.051295e+01
1.297348e+02	-2.056476e+01
1.304842e+02	-2.061356e+01
1.312378e+02	-2.066434e+01
1.319959e+02	-2.071350e+01
1.327583e+02	-2.076358e+01
1.335251e+02	-2.081314e+01
1.342963e+02	-2.086130e+01
1.350720e+02	-2.091167e+01
1.358522e+02	-2.096041e+01
1.366368e+02	-2.101154e+01
1.374260e+02	-2.105909e+01
1.382198e+02	-2.111012e+01
1.390182e+02	-2.116109e+01
1.398211e+02	-2.120763e+01
1.406287e+02	-2.125685e+01
1.414410e+02	-2.130915e+01
1.422579e+02	-2.135788e+01
1.430796e+02	-2.140668e+01
1.439060e+02	-2.145772e+01
1.447372e+02	-2.150726e+01
1.455732e+02	-2.155658e+01
1.464141e+02	-2.160825e+01
1.472597e+02	-2.165692e+01
1.481103e+02	-2.170679e+01
1.489658e+02	-2.175680e+01
1.498262e+02	-2.180554e+01
1.506916e+02	-2.185630e+01
1.515620e+02	-2.190492e+01
1.524374e+02	-2.195185e+01
1.533179e+02	-2.200606e+01
1.542034e+02	-2.205490e+01
1.550941e+02	-2.210462e+01
1.559899e+02	-2.215375e+01
1.568909e+02	-2.220299e+01
1.577971e+02	-2.225350e+01
1.587085e+02	-2.230326e+01
1.596252e+02	-2.235262e+01
1.605472e+02	-2.240280e+01
1.614745e+02	-2.245278e+01
1.624072e+02	-2.250088e+01
1.633453e+02	-2.255304e+01
1.642887e+02	-2.259907e+01
1.652377e+02	-2.265162e+01
1.661921e+02	-2.270352e+01
1.671520e+02	-2.275098e+01
1.681175e+02	-2.280044e+01
1.690885e+02	-2.284830e+01
1.700651e+02	-2.289985e+01
1.710474e+02	-2.295041e+01
1.720354e+02	-2.300112e+01
1.730291e+02	-2.305022e+01
1.740285e+02	-2.309976e+01
1.750337e+02	-2.314936e+01
1.760446e+02	-2.319980e+01
1.770615e+02	-2.325001e+01
1.780842e+02	-2.330015e+01
1.791128e+02	-2.334866e+01
1.801473e+02	-2.339767e+01
1.811878e+02	-2.344940e+01
1.822344e+02	-2.349767e+01
1.832870e+02	-2.354752e+01
1.843456e+02	-2.359580e+01
1.854104e+02	-2.364730e+01
1.864813e+02	-2.369686e+01
1.875584e+02	-2.374831e+01
1.886418e+02	-2.379905e+01
1.897313e+02	-2.384581e+01
1.908272e+02	-2.389694e+01
1.919294e+02	-2.394481e+01
1.930380e+02	-2.399500e+01
1.941530e+02	-2.404478e+01
1.952744e+02	-2.409899e+01
1.964023e+02	-2.414608e+01
1.975367e+02	-2.419554e+01
1.986777e+02	-2.424461e+01
1.998252e+02	-2.429623e+01
2.009794e+02	-2.434800e+01
2.021403e+02	-2.439356e+01
2.033078e+02	-2.444241e+01
2.044821e+02	-2.449394e+01
2.056632e+02	-2.454434e+01
2.068511e+02	-2.459115e+01
2.080459e+02	-2.464504e+01
2.092475e+02	-2.469451e+01
2.104561e+02	-2.474614e+01
2.116717e+02	-2.479607e+01
2.128943e+02	-2.484361e+01
2.141240e+02	-2.489185e+01
2.153608e+02	-2.494437e+01
2.166047e+02	-2.499255e+01
2.178558e+02	-2.504220e+01
2.191141e+02	-2.509601e+01
2.203797e+02	-2.514399e+01
2.216526e+02	-2.519551e+01
2.229329e+02	-2.524589e+01
2.242205e+02	-2.529373e+01
2.255156e+02	-2.534425e+01
2.268182e+02	-2.539099e+01
2.281283e+02	-2.544442e+01
2.294459e+02	-2.549261e+01
2.307712e+02	-2.554347e+01
2.321041e+02	-2.559579e+01
2.334447e+02	-2.564360e+01
2.347931e+02	-2.569059e+01
2.361493e+02	-2.574080e+01
2.375133e+02	-2.579386e+01
2.388851e+02	-2.584283e+01
2.402649e+02	-2.589137e+01
2.416527e+02	-2.594078e+01
2.430484e+02	-2.598898e+01
2.444523e+02	-2.604327e+01
2.458642e+02	-2.609616e+01
2.472843e+02	-2.614755e+01
2.487126e+02	-2.618846e+01
2.501492e+02	-2.624041e+01
2.515940e+02	-2.629042e+01
2.530472e+02	-2.634201e+01
2.545088e+02	-2.639114e+01
2.559789e+02	-2.644596e+01
2.574574e+02	-2.649020e+01
2.589444e+02	-2.654312e+01
2.604401e+02	-2.659044e+01
2.619444e+02	-2.664192e+01
2.634574e+02	-2.669161e+01
2.649791e+02	-2.674457e+01
2.665096e+02	-2.679259e+01
2.680489e+02	-2.684108e+01
2.695972e+02	-2.689135e+01
2.711544e+02	-2.694154e+01
2.727205e+02	-2.698913e+01
2.742958e+02	-2.703995e+01
2.758801e+02	-2.709157e+01
2.774736e+02	-2.714337e+01
2.790762e+02	-2.719582e+01
2.806882e+02	-2.723858e+01
2.823094e+02	-2.728782e+01
2.839400e+02	-2.734016e+01
2.855800e+02	-2.739319e+01
2.872295e+02	-2.744255e+01
2.888886e+02	-2.749303e+01
2.905572e+02	-2.754162e+01
2.922354e+02	-2.759163e+01
2.939234e+02	-2.764134e+01
2.956211e+02	-2.769091e+01
2.973286e+02	-2.774433e+01
2.990459e+02	-2.779452e+01
3.007732e+02	-2.783946e+01
3.025104e+02	-2.789388e+01
3.042577e+02	-2.794169e+01
3.060151e+02	-2.799319e+01
3.077826e+02	-2.804376e+01
3.095604e+02	-2.808626e+01
3.113484e+02	-2.814142e+01
3.131467e+02	-2.819051e+01
3.149554e+02	-2.824088e+01
3.167746e+02	-2.829289e+01
3.186043e+02	-2.834194e+01
3.204445e+02	-2.839119e+01
3.222954e+02	-2.844096e+01
3.241570e+02	-2.849653e+01
3.260293e+02	-2.854147e+01
3.279124e+02	-2.859613e+01
3.298064e+02	-2.864234e+01
3.317114e+02	-2.869201e+01
3.336273e+02	-2.873991e+01
3.355544e+02	-2.879049e+01
3.374925e+02	-2.883941e+01
3.394418e+02	-2.888871e+01
3.414024e+02	-2.894425e+01
3.433744e+02	-2.899258e+01
3.453577e+02	-2.904370e+01
3.473525e+02	-2.909183e+01
3.493588e+02	-2.914169e+01
3.513766e+02	-2.919207e+01
3.534062e+02	-2.924234e+01
3.554474e+02	-2.929369e+01
3.575005e+02	-2.934329e+01
3.595654e+02	-2.939162e+01
3.616422e+02	-2.944638e+01
3.637311e+02	-2.949576e+01
3.658320e+02	-2.954689e+01
3.679450e+02	-2.959703e+01
3.700702e+02	-2.964238e+01
3.722077e+02	-2.969643e+01
3.743576e+02	-2.974546e+01
3.765199e+02	-2.979448e+01
3.786946e+02	-2.984192e+01
3.808820e+02	-2.989575e+01
3.830819e+02	-2.994480e+01
3.852946e+02	-2.999803e+01
3.875200e+02	-3.004994e+01
3.897583e+02	-3.009800e+01
3.920096e+02	-3.014459e+01
3.942738e+02	-3.019646e+01
3.965511e+02	-3.024117e+01
3.988416e+02	-3.029227e+01
4.011452e+02	-3.034270e+01
4.034622e+02	-3.039303e+01
4.057926e+02	-3.044477e+01
4.081365e+02	-3.049796e+01
4.104938e+02	-3.054723e+01
4.128648e+02	-3.059440e+01
4.152495e+02	-3.064806e+01
4.176480e+02	-3.069258e+01
4.200603e+02	-3.074318e+01
4.224866e+02	-3.079708e+01
4.249268e+02	-3.084200e+01
4.273812e+02	-3.089670e+01
4.298497e+02	-3.094707e+01
4.323325e+02	-3.099702e+01
4.348297e+02	-3.104256e+01
4.373412e+02	-3.109550e+01
4.398673e+02	-3.115127e+01
4.424079e+02	-3.119996e+01
4.449633e+02	-3.124735e+01
4.475334e+02	-3.129540e+01
4.501183e+02	-3.135097e+01
4.527182e+02	-3.139154e+01
4.553330e+02	-3.144405e+01
4.579630e+02	-3.150118e+01
4.606082e+02	-3.155373e+01
4.632687e+02	-3.159525e+01
4.659445e+02	-3.164383e+01
4.686358e+02	-3.170002e+01
4.713426e+02	-3.174237e+01
4.740650e+02	-3.179621e+01
4.768032e+02	-3.184708e+01
4.795572e+02	-3.189382e+01
4.823271e+02	-3.194843e+01
4.851130e+02	-3.199937e+01
4.879150e+02	-3.205061e+01
4.907332e+02	-3.210229e+01
4.935676e+02	-3.214982e+01
4.964185e+02	-3.220658e+01
4.992858e+02	-3.225159e+01
5.021696e+02	-3.230311e+01
5.050701e+02	-3.235580e+01
5.079874e+02	-3.240486e+01
5.109215e+02	-3.244690e+01
5.138726e+02	-3.249360e+01
5.168407e+02	-3.255370e+01
5.198259e+02	-3.260724e+01
5.228284e+02	-3.264987e+01
5.258482e+02	-3.270326e+01
5.288855e+02	-3.275329e+01
5.319403e+02	-3.280425e+01
5.350128e+02	-3.284636e+01
5.381030e+02	-3.290604e+01
5.412111e+02	-3.294992e+01
5.443371e+02	-3.300605e+01
5.474812e+02	-3.305070e+01
5.506434e+02	-3.310236e+01
5.538239e+02	-3.315640e+01
5.570228e+02	-3.320790e+01
5.602401e+02	-3.325000e+01
5.634760e+02	-3.330116e+01
5.667306e+02	-3.335173e+01
5.700040e+02	-3.341008e+01
5.732964e+02	-3.345395e+01
5.766077e+02	-3.350393e+01
5.799382e+02	-3.356534e+01
5.832879e+02	-3.360734e+01
5.866569e+02	-3.366367e+01
5.900454e+02	-3.370520e+01
5.934535e+02	-3.375270e+01
5.968813e+02	-3.380228e+01
6.003288e+02	-3.385543e+01
6.037963e+02	-3.390800e+01
6.072838e+02	-3.395516e+01
6.107914e+02	-3.401167e+01
6.143194e+02	-3.405928e+01
6.178676e+02	-3.411401e+01
6.214364e+02	-3.416336e+01
6.250258e+02	-3.420900e+01
6.286359e+02	-3.425691e+01
6.322669e+02	-3.431268e+01
6.359189e+02	-3.436389e+01
6.395919e+02	-3.441154e+01
6.432862e+02	-3.446386e+01
6.470017e+02	-3.451189e+01
6.507388e+02	-3.456656e+01
6.544974e+02	-3.461782e+01
6.582778e+02	-3.466560e+01
6.620800e+02	-3.472142e+01
6.659041e+02	-3.476413e+01
6.697504e+02	-3.482347e+01
6.736188e+02	-3.486698e+01
6.775096e+02	-3.492200e+01
6.814229e+02	-3.496456e+01
6.853587e+02	-3.501292e+01
6.893173e+02	-3.506833e+01
6.932988e+02	-3.511708e+01
6.973033e+02	-3.516423e+01
7.013309e+02	-3.521472e+01
