Frequency(Hz)	Magnitude(dB)
1.000000e+01	-2.133394e+00
1.005776e+01	-2.152954e+00
1.011585e+01	-2.172609e+00
1.017428e+01	-2.192380e+00
1.023305e+01	-2.212349e+00
1.029215e+01	-2.232358e+00
1.035160e+01	-2.252478e+00
1.041139e+01	-2.272912e+00
1.047153e+01	-2.293384e+00
1.053201e+01	-2.313756e+00
1.059284e+01	-2.334606e+00
1.065403e+01	-2.355505e+00
1.071556e+01	-2.376606e+00
1.077746e+01	-2.397635e+00
1.083971e+01	-2.418985e+00
1.090232e+01	-2.440424e+00
1.096529e+01	-2.462059e+00
1.102862e+01	-2.483397e+00
1.109232e+01	-2.505337e+00
1.115639e+01	-2.527724e+00
1.122083e+01	-2.549741e+00
1.128564e+01	-2.571935e+00
1.135083e+01	-2.594295e+00
1.141639e+01	-2.616987e+00
1.148233e+01	-2.639521e+00
1.154865e+01	-2.662589e+00
1.161536e+01	-2.685431e+00
1.168245e+01	-2.708588e+00
1.174992e+01	-2.731957e+00
1.181779e+01	-2.755498e+00
1.188605e+01	-2.778882e+00
1.195470e+01	-2.802599e+00
1.202375e+01	-2.826457e+00
1.209320e+01	-2.850376e+00
1.216305e+01	-2.874690e+00
1.223330e+01	-2.899046e+00
1.230396e+01	-2.923439e+00
1.237503e+01	-2.947996e+00
1.244651e+01	-2.972895e+00
1.251840e+01	-2.997704e+00
1.259070e+01	-3.022682e+00
1.266343e+01	-3.047701e+00
1.273657e+01	-3.073030e+00
1.281014e+01	-3.098528e+00
1.288413e+01	-3.124085e+00
1.295855e+01	-3.149657e+00
1.303339e+01	-3.175779e+00
1.310867e+01	-3.201579e+00
1.318439e+01	-3.228008e+00
1.326054e+01	-3.254326e+00
1.333713e+01	-3.280601e+00
1.341417e+01	-3.307431e+00
1.349165e+01	-3.334043e+00
1.356958e+01	-3.360642e+00
1.364795e+01	-3.388106e+00
1.372678e+01	-3.415160e+00
1.380607e+01	-3.442350e+00
1.388581e+01	-3.469758e+00
1.396602e+01	-3.497482e+00
1.404668e+01	-3.525008e+00
1.412782e+01	-3.552935e+00
1.420942e+01	-3.580933e+00
1.429149e+01	-3.609105e+00
1.437404e+01	-3.637550e+00
1.445706e+01	-3.665848e+00
1.454057e+01	-3.694592e+00
1.462455e+01	-3.722871e+00
1.470902e+01	-3.752091e+00
1.479398e+01	-3.781317e+00
1.487943e+01	-3.810247e+00
1.496537e+01	-3.839283e+00
1.505181e+01	-3.868821e+00
1.513875e+01	-3.898627e+00
1.522619e+01	-3.928511e+00
1.531414e+01	-3.958011e+00
1.540259e+01	-3.987956e+00
1.549156e+01	-4.018346e+00
1.558103e+01	-4.048546e+00
1.567103e+01	-4.079134e+00
1.576155e+01	-4.109423e+00
1.585258e+01	-4.140059e+00
1.594415e+01	-4.170589e+00
1.603624e+01	-4.201948e+00
1.612886e+01	-4.232901e+00
1.622202e+01	-4.264435e+00
1.631572e+01	-4.295530e+00
1.640996e+01	-4.326901e+00
1.650474e+01	-4.358510e+00
1.660008e+01	-4.390523e+00
1.669596e+01	-4.422110e+00
1.679239e+01	-4.454195e+00
1.688938e+01	-4.486542e+00
1.698694e+01	-4.518775e+00
1.708505e+01	-4.551109e+00
1.718373e+01	-4.583618e+00
1.728299e+01	-4.616354e+00
1.738281e+01	-4.649130e+00
1.748322e+01	-4.682046e+00
1.758420e+01	-4.715293e+00
1.768576e+01	-4.748466e+00
1.778792e+01	-4.781775e+00
1.789066e+01	-4.815186e+00
1.799399e+01	-4.848810e+00
1.809793e+01	-4.882297e+00
1.820246e+01	-4.916223e+00
1.830760e+01	-4.950167e+00
1.841334e+01	-4.984129e+00
1.851969e+01	-5.018409e+00
1.862666e+01	-5.052824e+00
1.873425e+01	-5.087208e+00
1.884246e+01	-5.121754e+00
1.895129e+01	-5.156748e+00
1.906075e+01	-5.191592e+00
1.917085e+01	-5.226188e+00
1.928158e+01	-5.261801e+00
1.939295e+01	-5.296583e+00
1.950496e+01	-5.332160e+00
1.961762e+01	-5.367439e+00
1.973093e+01	-5.402802e+00
1.984490e+01	-5.438480e+00
1.995952e+01	-5.474385e+00
2.007480e+01	-5.509869e+00
2.019076e+01	-5.546408e+00
2.030738e+01	-5.582616e+00
2.042467e+01	-5.618472e+00
2.054264e+01	-5.655399e+00
2.066130e+01	-5.691547e+00
2.078064e+01	-5.727841e+00
2.090066e+01	-5.764742e+00
2.102139e+01	-5.801382e+00
2.114280e+01	-5.838442e+00
2.126492e+01	-5.875661e+00
2.138775e+01	-5.912923e+00
2.151128e+01	-5.950090e+00
2.163553e+01	-5.987600e+00
2.176050e+01	-6.024954e+00
2.188619e+01	-6.062470e+00
2.201260e+01	-6.100269e+00
2.213974e+01	-6.138119e+00
2.226762e+01	-6.175859e+00
2.239624e+01	-6.214011e+00
2.252560e+01	-6.251922e+00
2.265571e+01	-6.290020e+00
2.278656e+01	-6.328690e+00
2.291818e+01	-6.367257e+00
2.305055e+01	-6.405556e+00
2.318369e+01	-6.444098e+00
2.331760e+01	-6.482861e+00
2.345228e+01	-6.521637e+00
2.358774e+01	-6.560590e+00
2.372398e+01	-6.599633e+00
2.386101e+01	-6.638919e+00
2.399883e+01	-6.678285e+00
2.413745e+01	-6.717386e+00
2.427686e+01	-6.756604e+00
2.441709e+01	-6.796465e+00
2.455812e+01	-6.835563e+00
2.469997e+01	-6.875425e+00
2.484263e+01	-6.915346e+00
2.498612e+01	-6.955252e+00
2.513044e+01	-6.994781e+00
2.527559e+01	-7.035391e+00
2.542158e+01	-7.075403e+00
2.556842e+01	-7.115356e+00
2.571610e+01	-7.156265e+00
2.586463e+01	-7.196234e+00
2.601403e+01	-7.237178e+00
2.616428e+01	-7.277715e+00
2.631541e+01	-7.318596e+00
2.646740e+01	-7.359039e+00
2.662028e+01	-7.400262e+00
2.677404e+01	-7.441378e+00
2.692868e+01	-7.482425e+00
2.708422e+01	-7.523039e+00
2.724066e+01	-7.564113e+00
2.739800e+01	-7.605405e+00
2.755625e+01	-7.647161e+00
2.771541e+01	-7.688841e+00
2.787550e+01	-7.729886e+00
2.803650e+01	-7.771906e+00
2.819844e+01	-7.813026e+00
2.836131e+01	-7.855030e+00
2.852513e+01	-7.896808e+00
2.868989e+01	-7.939105e+00
2.885560e+01	-7.981106e+00
2.902227e+01	-8.023546e+00
2.918990e+01	-8.065127e+00
2.935850e+01	-8.107291e+00
2.952807e+01	-8.149988e+00
2.969863e+01	-8.192123e+00
2.987016e+01	-8.234973e+00
3.004269e+01	-8.277455e+00
3.021622e+01	-8.319894e+00
3.039075e+01	-8.362572e+00
3.056628e+01	-8.405575e+00
3.074283e+01	-8.448083e+00
3.092040e+01	-8.490938e+00
3.109900e+01	-8.534579e+00
3.127862e+01	-8.577534e+00
3.145929e+01	-8.620415e+00
3.164099e+01	-8.663211e+00
3.182375e+01	-8.706608e+00
3.200756e+01	-8.750100e+00
3.219244e+01	-8.793847e+00
3.237838e+01	-8.837166e+00
3.256540e+01	-8.880632e+00
3.275349e+01	-8.924447e+00
3.294268e+01	-8.967667e+00
3.313295e+01	-9.012040e+00
3.332433e+01	-9.055049e+00
3.351681e+01	-9.099277e+00
3.371040e+01	-9.143182e+00
3.390511e+01	-9.186988e+00
3.410094e+01	-9.230795e+00
3.429791e+01	-9.275204e+00
3.449601e+01	-9.319112e+00
3.469526e+01	-9.363869e+00
3.489566e+01	-9.407553e+00
3.509721e+01	-9.451807e+00
3.529993e+01	-9.496564e+00
3.550382e+01	-9.540647e+00
3.570889e+01	-9.585641e+00
3.591515e+01	-9.630224e+00
3.612259e+01	-9.674103e+00
3.633123e+01	-9.719208e+00
3.654108e+01	-9.764280e+00
3.675214e+01	-9.808719e+00
3.696442e+01	-9.853512e+00
3.717792e+01	-9.898911e+00
3.739266e+01	-9.943392e+00
3.760864e+01	-9.988641e+00
3.782587e+01	-1.003297e+01
3.804435e+01	-1.007868e+01
3.826409e+01	-1.012339e+01
3.848510e+01	-1.016848e+01
3.870739e+01	-1.021401e+01
3.893096e+01	-1.025922e+01
3.915583e+01	-1.030453e+01
3.938199e+01	-1.034987e+01
3.960946e+01	-1.039524e+01
3.983824e+01	-1.044111e+01
4.006834e+01	-1.048645e+01
4.029978e+01	-1.053220e+01
4.053255e+01	-1.057762e+01
4.076666e+01	-1.062359e+01
4.100213e+01	-1.066903e+01
4.123896e+01	-1.071425e+01
4.147715e+01	-1.076037e+01
4.171672e+01	-1.080634e+01
4.195767e+01	-1.085215e+01
4.220002e+01	-1.089834e+01
4.244377e+01	-1.094439e+01
4.268892e+01	-1.099074e+01
4.293549e+01	-1.103596e+01
4.318348e+01	-1.108199e+01
4.343291e+01	-1.112864e+01
4.368377e+01	-1.117471e+01
4.393609e+01	-1.122121e+01
4.418986e+01	-1.126713e+01
4.444510e+01	-1.131408e+01
4.470182e+01	-1.135981e+01
4.496001e+01	-1.140657e+01
4.521970e+01	-1.145304e+01
4.548089e+01	-1.149980e+01
4.574358e+01	-1.154508e+01
4.600779e+01	-1.159230e+01
4.627353e+01	-1.163939e+01
4.654081e+01	-1.168554e+01
4.680963e+01	-1.173191e+01
4.708000e+01	-1.177857e+01
4.735193e+01	-1.182572e+01
4.762543e+01	-1.187250e+01
4.790051e+01	-1.191898e+01
4.817719e+01	-1.196540e+01
4.845545e+01	-1.201244e+01
4.873533e+01	-1.206001e+01
4.901682e+01	-1.210662e+01
4.929994e+01	-1.215398e+01
4.958470e+01	-1.220052e+01
4.987110e+01	-1.224768e+01
5.015915e+01	-1.229505e+01
5.044887e+01	-1.234223e+01
5.074026e+01	-1.238826e+01
5.103333e+01	-1.243564e+01
5.132810e+01	-1.248293e+01
5.162457e+01	-1.253026e+01
5.192275e+01	-1.257710e+01
5.222265e+01	-1.262454e+01
5.252429e+01	-1.267177e+01
5.282767e+01	-1.272013e+01
5.313280e+01	-1.276676e+01
5.343969e+01	-1.281458e+01
5.374836e+01	-1.286179e+01
5.405880e+01	-1.290840e+01
5.437105e+01	-1.295606e+01
5.468509e+01	-1.300392e+01
5.500095e+01	-1.305140e+01
5.531863e+01	-1.309914e+01
5.563815e+01	-1.314656e+01
5.595951e+01	-1.319495e+01
5.628273e+01	-1.324179e+01
5.660782e+01	-1.329061e+01
5.693479e+01	-1.333795e+01
5.726364e+01	-1.338529e+01
5.759439e+01	-1.343312e+01
5.792705e+01	-1.348072e+01
5.826164e+01	-1.352903e+01
5.859815e+01	-1.357652e+01
5.893662e+01	-1.362368e+01
5.927703e+01	-1.367232e+01
5.961941e+01	-1.372009e+01
5.996377e+01	-1.376807e+01
6.031012e+01	-1.381617e+01
6.065847e+01	-1.386448e+01
6.100883e+01	-1.391149e+01
6.136121e+01	-1.395977e+01
6.171563e+01	-1.400753e+01
6.207210e+01	-1.405611e+01
6.243063e+01	-1.410384e+01
6.279122e+01	-1.415153e+01
6.315390e+01	-1.419972e+01
6.351868e+01	-1.424820e+01
6.388556e+01	-1.429652e+01
6.425456e+01	-1.434449e+01
6.462569e+01	-1.439263e+01
6.499897e+01	-1.444123e+01
6.537440e+01	-1.448915e+01
6.575200e+01	-1.453761e+01
6.613178e+01	-1.458628e+01
6.651375e+01	-1.463368e+01
6.689793e+01	-1.468220e+01
6.728433e+01	-1.473078e+01
6.767297e+01	-1.477967e+01
6.806384e+01	-1.482755e+01
6.845698e+01	-1.487561e+01
6.885238e+01	-1.492444e+01
6.925007e+01	-1.497379e+01
6.965005e+01	-1.502099e+01
7.005235e+01	-1.506973e+01
7.045697e+01	-1.511797e+01
7.086393e+01	-1.516635e+01
7.127323e+01	-1.521475e+01
7.168490e+01	-1.526338e+01
7.209895e+01	-1.531255e+01
7.251539e+01	-1.536055e+01
7.293424e+01	-1.540941e+01
7.335551e+01	-1.545821e+01
7.377920e+01	-1.550703e+01
7.420535e+01	-1.555535e+01
7.463396e+01	-1.560351e+01
7.506504e+01	-1.565118e+01
7.549861e+01	-1.570115e+01
7.593469e+01	-1.575070e+01
7.637328e+01	-1.579853e+01
7.681441e+01	-1.584735e+01
7.725809e+01	-1.589696e+01
7.770433e+01	-1.594479e+01
7.815315e+01	-1.599310e+01
7.860456e+01	-1.604293e+01
7.905857e+01	-1.609116e+01
7.951521e+01	-1.613937e+01
7.997449e+01	-1.618942e+01
8.043642e+01	-1.623758e+01
8.090102e+01	-1.628609e+01
8.136830e+01	-1.633465e+01
8.183828e+01	-1.638449e+01
8.231097e+01	-1.643285e+01
8.278640e+01	-1.648238e+01
8.326457e+01	-1.653083e+01
8.374550e+01	-1.657991e+01
8.422921e+01	-1.662942e+01
8.471572e+01	-1.667800e+01
8.520503e+01	-1.672705e+01
8.569717e+01	-1.677598e+01
8.619215e+01	-1.682466e+01
8.669000e+01	-1.687306e+01
8.719071e+01	-1.692300e+01
8.769432e+01	-1.697111e+01
8.820084e+01	-1.702045e+01
8.871029e+01	-1.706953e+01
8.922267e+01	-1.711767e+01
8.973802e+01	-1.716740e+01
9.025634e+01	-1.721719e+01
9.077766e+01	-1.726588e+01
9.130199e+01	-1.731573e+01
9.182935e+01	-1.736416e+01
9.235975e+01	-1.741351e+01
9.289321e+01	-1.746261e+01
9.342976e+01	-1.751207e+01
9.396941e+01	-1.756169e+01
9.451217e+01	-1.760965e+01
9.505807e+01	-1.765852e+01
9.560712e+01	-1.770839e+01
9.615934e+01	-1.775833e+01
9.671476e+01	-1.780671e+01
9.727338e+01	-1.785582e+01
9.783522e+01	-1.790601e+01
9.840032e+01	-1.795428e+01
9.896867e+01	-1.800340e+01
9.954031e+01	-1.805278e+01
1.001153e+02	-1.810273e+01
1.006935e+02	-1.815306e+01
1.012751e+02	-1.820019e+01
1.018601e+02	-1.825028e+01
1.024484e+02	-1.829994e+01
1.030402e+02	-1.834827e+01
1.036353e+02	-1.839856e+01
1.042339e+02	-1.844731e+01
1.048360e+02	-1.849658e+01
1.054415e+02	-1.854602e+01
1.060505e+02	-1.859435e+01
1.066631e+02	-1.864443e+01
1.072791e+02	-1.869375e+01
1.078988e+02	-1.874364e+01
1.085220e+02	-1.879187e+01
1.091488e+02	-1.884047e+01
1.097793e+02	-1.889120e+01
1.104133e+02	-1.894030e+01
1.110511e+02	-1.898910e+01
1.116925e+02	-1.903984e+01
1.123376e+02	-1.908957e+01
1.129865e+02	-1.913856e+01
1.136391e+02	-1.918833e+01
1.142955e+02	-1.923653e+01
1.149556e+02	-1.928619e+01
1.156196e+02	-1.933639e+01
1.162874e+02	-1.938542e+01
1.169591e+02	-1.943582e+01
1.176347e+02	-1.948515e+01
1.183141e+02	-1.953461e+01
1.189975e+02	-1.958448e+01
1.196848e+02	-1.963247e+01
1.203761e+02	-1.968314e+01
1.210714e+02	-1.973257e+01
1.217707e+02	-1.978085e+01
1.224740e+02	-1.983234e+01
1.231814e+02	-1.988142e+01
1.238929e+02	-1.993049e+01
1.246085e+02	-1.997847e+01
1.253283e+02	-2.002921e+01
1.260522e+02	-2.007899e+01
1.267802e+02	-2.012707e+01
1.275125e+02	-2.017781e+01
1.282490e+02	-2.022705e+01
1.289898e+02	-2.027635e+01
1.297348e+02	-2.032619e+01
1.304842e+02	-2.037664e+01
1.312378e+02	-2.042597e+01
1.319959e+02	-2.047538e+01
1.327583e+02	-2.052490e+01
1.335251e+02	-2.057403e+01
1.342963e+02	-2.062522e+01
1.350720e+02	-2.067464e+01
1.358522e+02	-2.072419e+01
1.366368e+02	-2.077355e+01
1.374260e+02	-2.082381e+01
1.382198e+02	-2.087092e+01
1.390182e+02	-2.092147e+01
1.398211e+02	-2.097205e+01
1.406287e+02	-2.102125e+01
1.414410e+02	-2.107137e+01
1.422579e+02	-2.111955e+01
1.430796e+02	-2.116917e+01
1.439060e+02	-2.122040e+01
1.447372e+02	-2.126953e+01
1.455732e+02	-2.131736e+01
1.464141e+02	-2.136889e+01
1.472597e+02	-2.141697e+01
1.481103e+02	-2.146802e+01
1.489658e+02	-2.151674e+01
1.498262e+02	-2.156650e+01
1.506916e+02	-2.161587e+01
1.515620e+02	-2.166580e+01
1.524374e+02	-2.171565e+01
1.533179e+02	-2.176759e+01
1.542034e+02	-2.181553e+01
1.550941e+02	-2.186591e+01
1.559899e+02	-2.191542e+01
1.568909e+02	-2.196543e+01
1.577971e+02	-2.201450e+01
1.587085e+02	-2.206389e+01
1.596252e+02	-2.211383e+01
1.605472e+02	-2.216575e+01
1.614745e+02	-2.221388e+01
1.624072e+02	-2.226361e+01
1.633453e+02	-2.231310e+01
1.642887e+02	-2.236166e+01
1.652377e+02	-2.241247e+01
1.661921e+02	-2.246136e+01
1.671520e+02	-2.251445e+01
1.681175e+02	-2.256323e+01
1.690885e+02	-2.261145e+01
1.700651e+02	-2.266138e+01
1.710474e+02	-2.271289e+01
1.720354e+02	-2.276170e+01
1.730291e+02	-2.281119e+01
1.740285e+02	-2.286206e+01
1.750337e+02	-2.290807e+01
1.760446e+02	-2.295955e+01
1.770615e+02	-2.300968e+01
1.780842e+02	-2.305983e+01
1.791128e+02	-2.311136e+01
1.801473e+02	-2.316014e+01
1.811878e+02	-2.321019e+01
1.822344e+02	-2.325877e+01
1.832870e+02	-2.330853e+01
1.843456e+02	-2.336025e+01
1.854104e+02	-2.340950e+01
1.864813e+02	-2.345930e+01
1.875584e+02	-2.350716e+01
1.886418e+02	-2.355798e+01
1.897313e+02	-2.360891e+01
1.908272e+02	-2.365893e+01
1.919294e+02	-2.370817e+01
1.930380e+02	-2.375803e+01
1.941530e+02	-2.380853e+01
1.952744e+02	-2.385590e+01
1.964023e+02	-2.390845e+01
1.975367e+02	-2.395419e+01
1.986777e+02	-2.400807e+01
1.998252e+02	-2.405461e+01
2.009794e+02	-2.410592e+01
2.021403e+02	-2.415930e+01
2.033078e+02	-2.420518e+01
2.044821e+02	-2.425812e+01
2.056632e+02	-2.430502e+01
2.068511e+02	-2.435784e+01
2.080459e+02	-2.440561e+01
2.092475e+02	-2.445808e+01
2.104561e+02	-2.450363e+01
2.116717e+02	-2.455751e+01
2.128943e+02	-2.460459e+01
2.141240e+02	-2.465370e+01
2.153608e+02	-2.470757e+01
2.166047e+02	-2.475458e+01
2.178558e+02	-2.480359e+01
2.191141e+02	-2.485432e+01
2.203797e+02	-2.490562e+01
2.216526e+02	-2.495654e+01
2.229329e+02	-2.500672e+01
2.242205e+02	-2.505304e+01
2.255156e+02	-2.510646e+01
2.268182e+02	-2.515552e+01
2.281283e+02	-2.520549e+01
2.294459e+02	-2.525568e+01
2.307712e+02	-2.530433e+01
2.321041e+02	-2.535581e+01
2.334447e+02	-2.540600e+01
2.347931e+02	-2.545540e+01
2.361493e+02	-2.550317e+01
2.375133e+02	-2.555702e+01
2.388851e+02	-2.560631e+01
2.402649e+02	-2.565536e+01
2.416527e+02	-2.570365e+01
2.430484e+02	-2.575607e+01
2.444523e+02	-2.580432e+01
2.458642e+02	-2.585302e+01
2.472843e+02	-2.590252e+01
2.487126e+02	-2.595389e+01
2.501492e+02	-2.600487e+01
2.515940e+02	-2.605479e+01
2.530472e+02	-2.610168e+01
2.545088e+02	-2.615433e+01
2.559789e+02	-2.620308e+01
2.574574e+02	-2.625430e+01
2.589444e+02	-2.630326e+01
2.604401e+02	-2.635239e+01
2.619444e+02	-2.640115e+01
2.634574e+02	-2.645070e+01
2.649791e+02	-2.650384e+01
2.665096e+02	-2.655369e+01
2.680489e+02	-2.660183e+01
2.695972e+02	-2.665260e+01
2.711544e+02	-2.670398e+01
2.727205e+02	-2.675423e+01
2.742958e+02	-2.680181e+01
2.758801e+02	-2.685107e+01
2.774736e+02	-2.690097e+01
2.790762e+02	-2.695109e+01
2.806882e+02	-2.699997e+01
2.823094e+02	-2.705295e+01
2.839400e+02	-2.710250e+01
2.855800e+02	-2.715144e+01
2.872295e+02	-2.720322e+01
2.888886e+02	-2.725282e+01
2.905572e+02	-2.730549e+01
2.922354e+02	-2.735499e+01
2.939234e+02	-2.740214e+01
2.956211e+02	-2.745285e+01
2.973286e+02	-2.750679e+01
2.990459e+02	-2.755862e+01
3.007732e+02	-2.760019e+01
3.025104e+02	-2.765366e+01
3.042577e+02	-2.770510e+01
3.060151e+02	-2.775722e+01
3.077826e+02	-2.780205e+01
3.095604e+02	-2.785427e+01
3.113484e+02	-2.790230e+01
3.131467e+02	-2.795421e+01
3.149554e+02	-2.799974e+01
3.167746e+02	-2.805390e+01
3.186043e+02	-2.810379e+01
3.204445e+02	-2.815231e+01
3.222954e+02	-2.820156e+01
3.241570e+02	-2.825578e+01
3.260293e+02	-2.830514e+01
3.279124e+02	-2.835520e+01
3.298064e+02	-2.840430e+01
3.317114e+02	-2.845240e+01
3.336273e+02	-2.850344e+01
3.355544e+02	-2.855190e+01
3.374925e+02	-2.860576e+01
3.394418e+02	-2.865260e+01
3.414024e+02	-2.870153e+01
3.433744e+02	-2.875393e+01
3.453577e+02	-2.880114e+01
3.473525e+02	-2.885221e+01
3.493588e+02	-2.890360e+01
3.513766e+02	-2.895151e+01
3.534062e+02	-2.900015e+01
3.554474e+02	-2.905787e+01
3.575005e+02	-2.909724e+01
3.595654e+02	-2.915778e+01
3.616422e+02	-2.920550e+01
3.637311e+02	-2.925921e+01
3.658320e+02	-2.930463e+01
3.679450e+02	-2.935736e+01
3.700702e+02	-2.940180e+01
3.722077e+02	-2.945807e+01
3.743576e+02	-2.949796e+01
3.765199e+02	-2.956228e+01
3.786946e+02	-2.960408e+01
3.808820e+02	-2.965017e+01
3.830819e+02	-2.970084e+01
3.852946e+02	-2.975802e+01
3.875200e+02	-2.980342e+01
3.897583e+02	-2.985481e+01
3.920096e+02	-2.990356e+01
3.942738e+02	-2.995637e+01
3.965511e+02	-3.000071e+01
3.988416e+02	-3.005899e+01
4.011452e+02	-3.009886e+01
4.034622e+02	-3.016167e+01
4.057926e+02	-3.020678e+01
4.081365e+02	-3.025702e+01
4.104938e+02	-3.030247e+01
4.128648e+02	-3.035362e+01
4.152495e+02	-3.040656e+01
4.176480e+02	-3.045336e+01
4.200603e+02	-3.050679e+01
4.224866e+02	-3.055517e+01
4.249268e+02	-3.060134e+01
4.273812e+02	-3.066080e+01
4.298497e+02	-3.070378e+01
4.323325e+02	-3.076191e+01
4.348297e+02	-3.080922e+01
4.373412e+02	-3.085676e+01
4.398673e+02	-3.090306e+01
4.424079e+02	-3.094924e+01
4.449633e+02	-3.100568e+01
4.475334e+02	-3.105940e+01
4.501183e+02	-3.110593e+01
4.527182e+02	-3.115568e+01
4.553330e+02	-3.120532e+01
4.579630e+02	-3.125913e+01
4.606082e+02	-3.130707e+01
4.632687e+02	-3.136343e+01
4.659445e+02	-3.141062e+01
4.686358e+02	-3.146258e+01
4.713426e+02	-3.150915e+01
4.740650e+02	-3.156176e+01
4.768032e+02	-3.161455e+01
4.795572e+02	-3.165617e+01
4.823271e+02	-3.170951e+01
4.851130e+02	-3.176254e+01
4.879150e+02	-3.180938e+01
4.907332e+02	-3.186068e+01
4.935676e+02	-3.192136e+01
4.964185e+02	-3.196702e+01
4.992858e+02	-3.200722e+01
5.021696e+02	-3.206005e+01
5.050701e+02	-3.211596e+01
5.079874e+02	-3.216678e+01
5.109215e+02	-3.221526e+01
5.138726e+02	-3.226077e+01
5.168407e+02	-3.230903e+01
5.198259e+02	-3.236467e+01
5.228284e+02	-3.241391e+01
5.258482e+02	-3.246292e+01
5.288855e+02	-3.250717e+01
5.319403e+02	-3.257248e+01
5.350128e+02	-3.261977e+01
5.381030e+02	-3.266244e+01
5.412111e+02	-3.271546e+01
5.443371e+02	-3.276558e+01
5.474812e+02	-3.281655e+01
5.506434e+02	-3.285987e+01
5.538239e+02	-3.292235e+01
5.570228e+02	-3.296021e+01
5.602401e+02	-3.301951e+01
5.634760e+02	-3.306320e+01
5.667306e+02	-3.311710e+01
5.700040e+02	-3.317095e+01
5.732964e+02	-3.322288e+01
5.766077e+02	-3.326734e+01
5.799382e+02	-3.332425e+01
5.832879e+02	-3.336979e+01
5.866569e+02	-3.342784e+01
5.900454e+02	-3.346810e+01
5.934535e+02	-3.352159e+01
5.968813e+02	-3.356976e+01
6.003288e+02	-3.361861e+01
6.037963e+02	-3.366372e+01
6.072838e+02	-3.372767e+01
6.107914e+02	-3.377116e+01
6.143194e+02	-3.382372e+01
6.178676e+02	-3.387902e+01
6.214364e+02	-3.391775e+01
6.250258e+02	-3.397896e+01
6.286359e+02	-3.402823e+01
6.322669e+02	-3.407390e+01
6.359189e+02	-3.412078e+01
6.395919e+02	-3.416866e+01
6.432862e+02	-3.422844e+01
6.470017e+02	-3.427987e+01
6.507388e+02	-3.432776e+01
6.544974e+02	-3.438131e+01
6.582778e+02	-3.443056e+01
6.620800e+02	-3.447881e+01
6.659041e+02	-3.452589e+01
6.697504e+02	-3.458271e+01
6.736188e+02	-3.463105e+01
6.775096e+02	-3.468068e+01
6.814229e+02	-3.472621e+01
6.853587e+02	-3.477167e+01
6.893173e+02	-3.483644e+01
6.932988e+02	-3.488050e+01
6.973033e+02	-3.493297e+01
7.013309e+02	-3.498057e+01
