Frequency(Hz)	Magnitude(dB)
1.000000e+01	-2.258878e+00
1.005776e+01	-2.278793e+00
1.011585e+01	-2.299510e+00
1.017428e+01	-2.320261e+00
1.023305e+01	-2.340849e+00
1.029215e+01	-2.361644e+00
1.035160e+01	-2.382826e+00
1.041139e+01	-2.404255e+00
1.047153e+01	-2.425231e+00
1.053201e+01	-2.446754e+00
1.059284e+01	-2.468508e+00
1.065403e+01	-2.490138e+00
1.071556e+01	-2.511959e+00
1.077746e+01	-2.534077e+00
1.083971e+01	-2.556305e+00
1.090232e+01	-2.578571e+00
1.096529e+01	-2.601405e+00
1.102862e+01	-2.623665e+00
1.109232e+01	-2.646606e+00
1.115639e+01	-2.669372e+00
1.122083e+01	-2.692528e+00
1.128564e+01	-2.715640e+00
1.135083e+01	-2.739027e+00
1.141639e+01	-2.762368e+00
1.148233e+01	-2.786062e+00
1.154865e+01	-2.809603e+00
1.161536e+01	-2.833651e+00
1.168245e+01	-2.857751e+00
1.174992e+01	-2.881840e+00
1.181779e+01	-2.906276e+00
1.188605e+01	-2.930781e+00
1.195470e+01	-2.955496e+00
1.202375e+01	-2.979967e+00
1.209320e+01	-3.005154e+00
1.216305e+01	-3.030078e+00
1.223330e+01	-3.055464e+00
1.230396e+01	-3.080587e+00
1.237503e+01	-3.106253e+00
1.244651e+01	-3.131474e+00
1.251840e+01	-3.157629e+00
1.259070e+01	-3.183582e+00
1.266343e+01	-3.209490e+00
1.273657e+01	-3.235721e+00
1.281014e+01	-3.261983e+00
1.288413e+01	-3.288525e+00
1.295855e+01	-3.314989e+00
1.303339e+01	-3.342012e+00
1.310867e+01	-3.368895e+00
1.318439e+01	-3.395875e+00
1.326054e+01	-3.423259e+00
1.333713e+01	-3.450679e+00
1.341417e+01	-3.477937e+00
1.349165e+01	-3.505773e+00
1.356958e+01	-3.533359e+00
1.364795e+01	-3.561382e+00
1.372678e+01	-3.589469e+00
1.380607e+01	-3.617523e+00
1.388581e+01	-3.646199e+00
1.396602e+01	-3.674366e+00
1.404668e+01	-3.703150e+00
1.412782e+01	-3.731874e+00
1.420942e+01	-3.760671e+00
1.429149e+01	-3.789867e+00
1.437404e+01	-3.818915e+00
1.445706e+01	-3.848460e+00
1.454057e+01	-3.877841e+00
1.462455e+01	-3.907675e+00
1.470902e+01	-3.937217e+00
1.479398e+01	-3.967102e+00
1.487943e+01	-3.997111e+00
1.496537e+01	-4.027172e+00
1.505181e+01	-4.057445e+00
1.513875e+01	-4.088004e+00
1.522619e+01	-4.118796e+00
1.531414e+01	-4.149380e+00
1.540259e+01	-4.180341e+00
1.549156e+01	-4.211103e+00
1.558103e+01	-4.242386e+00
1.567103e+01	-4.273514e+00
1.576155e+01	-4.304671e+00
1.585258e+01	-4.336388e+00
1.594415e+01	-4.368335e+00
1.603624e+01	-4.400022e+00
1.612886e+01	-4.431667e+00
1.622202e+01	-4.463967e+00
1.631572e+01	-4.496234e+00
1.640996e+01	-4.528361e+00
1.650474e+01	-4.560761e+00
1.660008e+01	-4.593527e+00
1.669596e+01	-4.626325e+00
1.679239e+01	-4.658743e+00
1.688938e+01	-4.692060e+00
1.698694e+01	-4.725183e+00
1.708505e+01	-4.758418e+00
1.718373e+01	-4.791828e+00
1.728299e+01	-4.825315e+00
1.738281e+01	-4.858782e+00
1.748322e+01	-4.892533e+00
1.758420e+01	-4.926445e+00
1.768576e+01	-4.960513e+00
1.778792e+01	-4.994539e+00
1.789066e+01	-5.028960e+00
1.799399e+01	-5.063230e+00
1.809793e+01	-5.097709e+00
1.820246e+01	-5.132252e+00
1.830760e+01	-5.166976e+00
1.841334e+01	-5.201859e+00
1.851969e+01	-5.236749e+00
1.862666e+01	-5.271967e+00
1.873425e+01	-5.307119e+00
1.884246e+01	-5.342279e+00
1.895129e+01	-5.377947e+00
1.906075e+01	-5.413669e+00
1.917085e+01	-5.449534e+00
1.928158e+01	-5.485088e+00
1.939295e+01	-5.521163e+00
1.950496e+01	-5.557206e+00
1.961762e+01	-5.593379e+00
1.973093e+01	-5.629501e+00
1.984490e+01	-5.665976e+00
1.995952e+01	-5.702530e+00
2.007480e+01	-5.739010e+00
2.019076e+01	-5.775749e+00
2.030738e+01	-5.812856e+00
2.042467e+01	-5.849648e+00
2.054264e+01	-5.886901e+00
2.066130e+01	-5.924266e+00
2.078064e+01	-5.961073e+00
2.090066e+01	-5.998490e+00
2.102139e+01	-6.036173e+00
2.114280e+01	-6.073807e+00
2.126492e+01	-6.111490e+00
2.138775e+01	-6.149250e+00
2.151128e+01	-6.187066e+00
2.163553e+01	-6.225562e+00
2.176050e+01	-6.263428e+00
2.188619e+01	-6.301463e+00
2.201260e+01	-6.339549e+00
2.213974e+01	-6.378318e+00
2.226762e+01	-6.417295e+00
2.239624e+01	-6.455737e+00
2.252560e+01	-6.494516e+00
2.265571e+01	-6.533352e+00
2.278656e+01	-6.572572e+00
2.291818e+01	-6.611348e+00
2.305055e+01	-6.650137e+00
2.318369e+01	-6.689787e+00
2.331760e+01	-6.729160e+00
2.345228e+01	-6.768551e+00
2.358774e+01	-6.808339e+00
2.372398e+01	-6.847724e+00
2.386101e+01	-6.887296e+00
2.399883e+01	-6.927085e+00
2.413745e+01	-6.967677e+00
2.427686e+01	-7.007163e+00
2.441709e+01	-7.047516e+00
2.455812e+01	-7.087595e+00
2.469997e+01	-7.127816e+00
2.484263e+01	-7.168174e+00
2.498612e+01	-7.208919e+00
2.513044e+01	-7.249162e+00
2.527559e+01	-7.289798e+00
2.542158e+01	-7.330464e+00
2.556842e+01	-7.371511e+00
2.571610e+01	-7.412444e+00
2.586463e+01	-7.453226e+00
2.601403e+01	-7.494635e+00
2.616428e+01	-7.535406e+00
2.631541e+01	-7.577028e+00
2.646740e+01	-7.618296e+00
2.662028e+01	-7.659744e+00
2.677404e+01	-7.701076e+00
2.692868e+01	-7.742812e+00
2.708422e+01	-7.784479e+00
2.724066e+01	-7.825659e+00
2.739800e+01	-7.867790e+00
2.755625e+01	-7.909889e+00
2.771541e+01	-7.951354e+00
2.787550e+01	-7.993539e+00
2.803650e+01	-8.035551e+00
2.819844e+01	-8.078115e+00
2.836131e+01	-8.120315e+00
2.852513e+01	-8.162729e+00
2.868989e+01	-8.205342e+00
2.885560e+01	-8.247795e+00
2.902227e+01	-8.290512e+00
2.918990e+01	-8.332824e+00
2.935850e+01	-8.375753e+00
2.952807e+01	-8.418272e+00
2.969863e+01	-8.461092e+00
2.987016e+01	-8.504154e+00
3.004269e+01	-8.547440e+00
3.021622e+01	-8.590031e+00
3.039075e+01	-8.632950e+00
3.056628e+01	-8.676458e+00
3.074283e+01	-8.719762e+00
3.092040e+01	-8.763293e+00
3.109900e+01	-8.806612e+00
3.127862e+01	-8.850105e+00
3.145929e+01	-8.893788e+00
3.164099e+01	-8.937179e+00
3.182375e+01	-8.980784e+00
3.200756e+01	-9.024780e+00
3.219244e+01	-9.068327e+00
3.237838e+01	-9.111876e+00
3.256540e+01	-9.156021e+00
3.275349e+01	-9.199954e+00
3.294268e+01	-9.244088e+00
3.313295e+01	-9.288298e+00
3.332433e+01	-9.332375e+00
3.351681e+01	-9.376546e+00
3.371040e+01	-9.420870e+00
3.390511e+01	-9.465434e+00
3.410094e+01	-9.509808e+00
3.429791e+01	-9.553783e+00
3.449601e+01	-9.598762e+00
3.469526e+01	-9.643114e+00
3.489566e+01	-9.688217e+00
3.509721e+01	-9.732228e+00
3.529993e+01	-9.776796e+00
3.550382e+01	-9.821939e+00
3.570889e+01	-9.866913e+00
3.591515e+01	-9.912127e+00
3.612259e+01	-9.956837e+00
3.633123e+01	-1.000158e+01
3.654108e+01	-1.004696e+01
3.675214e+01	-1.009171e+01
3.696442e+01	-1.013714e+01
3.717792e+01	-1.018231e+01
3.739266e+01	-1.022741e+01
3.760864e+01	-1.027277e+01
3.782587e+01	-1.031841e+01
3.804435e+01	-1.036356e+01
3.826409e+01	-1.040929e+01
3.848510e+01	-1.045453e+01
3.870739e+01	-1.049983e+01
3.893096e+01	-1.054585e+01
3.915583e+01	-1.059128e+01
3.938199e+01	-1.063714e+01
3.960946e+01	-1.068279e+01
3.983824e+01	-1.072847e+01
4.006834e+01	-1.077460e+01
4.029978e+01	-1.082029e+01
4.053255e+01	-1.086695e+01
4.076666e+01	-1.091198e+01
4.100213e+01	-1.095818e+01
4.123896e+01	-1.100369e+01
4.147715e+01	-1.105026e+01
4.171672e+01	-1.109588e+01
4.195767e+01	-1.114239e+01
4.220002e+01	-1.118866e+01
4.244377e+01	-1.123464e+01
4.268892e+01	-1.128137e+01
4.293549e+01	-1.132691e+01
4.318348e+01	-1.137422e+01
4.343291e+01	-1.141973e+01
4.368377e+01	-1.146630e+01
4.393609e+01	-1.151289e+01
4.418986e+01	-1.156002e+01
4.444510e+01	-1.160613e+01
4.470182e+01	-1.165238e+01
4.496001e+01	-1.170013e+01
4.521970e+01	-1.174569e+01
4.548089e+01	-1.179271e+01
4.574358e+01	-1.183905e+01
4.600779e+01	-1.188649e+01
4.627353e+01	-1.193332e+01
4.654081e+01	-1.197970e+01
4.680963e+01	-1.202665e+01
4.708000e+01	-1.207395e+01
4.735193e+01	-1.212049e+01
4.762543e+01	-1.216782e+01
4.790051e+01	-1.221404e+01
4.817719e+01	-1.226122e+01
4.845545e+01	-1.230915e+01
4.873533e+01	-1.235538e+01
4.901682e+01	-1.240297e+01
4.929994e+01	-1.245011e+01
4.958470e+01	-1.249696e+01
4.987110e+01	-1.254419e+01
5.015915e+01	-1.259170e+01
5.044887e+01	-1.263940e+01
5.074026e+01	-1.268681e+01
5.103333e+01	-1.273394e+01
5.132810e+01	-1.278171e+01
5.162457e+01	-1.282881e+01
5.192275e+01	-1.287576e+01
5.222265e+01	-1.292370e+01
5.252429e+01	-1.297078e+01
5.282767e+01	-1.301789e+01
5.313280e+01	-1.306611e+01
5.343969e+01	-1.311353e+01
5.374836e+01	-1.316100e+01
5.405880e+01	-1.320895e+01
5.437105e+01	-1.325620e+01
5.468509e+01	-1.330447e+01
5.500095e+01	-1.335084e+01
5.531863e+01	-1.339897e+01
5.563815e+01	-1.344786e+01
5.595951e+01	-1.349474e+01
5.628273e+01	-1.354280e+01
5.660782e+01	-1.359019e+01
5.693479e+01	-1.363881e+01
5.726364e+01	-1.368650e+01
5.759439e+01	-1.373406e+01
5.792705e+01	-1.378218e+01
5.826164e+01	-1.383066e+01
5.859815e+01	-1.387784e+01
5.893662e+01	-1.392578e+01
5.927703e+01	-1.397418e+01
5.961941e+01	-1.402231e+01
5.996377e+01	-1.407040e+01
6.031012e+01	-1.411785e+01
6.065847e+01	-1.416644e+01
6.100883e+01	-1.421494e+01
6.136121e+01	-1.426321e+01
6.171563e+01	-1.431041e+01
6.207210e+01	-1.435928e+01
6.243063e+01	-1.440715e+01
6.279122e+01	-1.445616e+01
6.315390e+01	-1.450404e+01
6.351868e+01	-1.455203e+01
6.388556e+01	-1.459984e+01
6.425456e+01	-1.464835e+01
6.462569e+01	-1.469609e+01
6.499897e+01	-1.474535e+01
6.537440e+01	-1.479355e+01
6.575200e+01	-1.484170e+01
6.613178e+01	-1.489004e+01
6.651375e+01	-1.493900e+01
6.689793e+01	-1.498737e+01
6.728433e+01	-1.503550e+01
6.767297e+01	-1.508443e+01
6.806384e+01	-1.513252e+01
6.845698e+01	-1.518162e+01
6.885238e+01	-1.523020e+01
6.925007e+01	-1.527816e+01
6.965005e+01	-1.532622e+01
7.005235e+01	-1.537539e+01
7.045697e+01	-1.542408e+01
7.086393e+01	-1.547265e+01
7.127323e+01	-1.552028e+01
7.168490e+01	-1.556969e+01
7.209895e+01	-1.561847e+01
7.251539e+01	-1.566778e+01
7.293424e+01	-1.571576e+01
7.335551e+01	-1.576405e+01
7.377920e+01	-1.581333e+01
7.420535e+01	-1.586227e+01
7.463396e+01	-1.591071e+01
7.506504e+01	-1.595875e+01
7.549861e+01	-1.600785e+01
7.593469e+01	-1.605729e+01
7.637328e+01	-1.610651e+01
7.681441e+01	-1.615487e+01
7.725809e+01	-1.620315e+01
7.770433e+01	-1.625221e+01
7.815315e+01	-1.630094e+01
7.860456e+01	-1.634930e+01
7.905857e+01	-1.639891e+01
7.951521e+01	-1.644766e+01
7.997449e+01	-1.649739e+01
8.043642e+01	-1.654526e+01
8.090102e+01	-1.659424e+01
8.136830e+01	-1.664403e+01
8.183828e+01	-1.669265e+01
8.231097e+01	-1.674178e+01
8.278640e+01	-1.679073e+01
8.326457e+01	-1.684053e+01
8.374550e+01	-1.688911e+01
8.422921e+01	-1.693650e+01
8.471572e+01	-1.698740e+01
8.520503e+01	-1.703530e+01
8.569717e+01	-1.708451e+01
8.619215e+01	-1.713299e+01
8.669000e+01	-1.718271e+01
8.719071e+01	-1.723168e+01
8.769432e+01	-1.728091e+01
8.820084e+01	-1.733072e+01
8.871029e+01	-1.737817e+01
8.922267e+01	-1.742811e+01
8.973802e+01	-1.747637e+01
9.025634e+01	-1.752503e+01
9.077766e+01	-1.757465e+01
9.130199e+01	-1.762521e+01
9.182935e+01	-1.767354e+01
9.235975e+01	-1.772329e+01
9.289321e+01	-1.777190e+01
9.342976e+01	-1.781990e+01
9.396941e+01	-1.787048e+01
9.451217e+01	-1.791889e+01
9.505807e+01	-1.796906e+01
9.560712e+01	-1.801901e+01
9.615934e+01	-1.806734e+01
9.671476e+01	-1.811713e+01
9.727338e+01	-1.816624e+01
9.783522e+01	-1.821514e+01
9.840032e+01	-1.826402e+01
9.896867e+01	-1.831521e+01
9.954031e+01	-1.836376e+01
1.001153e+02	-1.841265e+01
1.006935e+02	-1.846156e+01
1.012751e+02	-1.851154e+01
1.018601e+02	-1.856035e+01
1.024484e+02	-1.860993e+01
1.030402e+02	-1.865879e+01
1.036353e+02	-1.870938e+01
1.042339e+02	-1.875842e+01
1.048360e+02	-1.880660e+01
1.054415e+02	-1.885712e+01
1.060505e+02	-1.890592e+01
1.066631e+02	-1.895570e+01
1.072791e+02	-1.900408e+01
1.078988e+02	-1.905467e+01
1.085220e+02	-1.910469e+01
1.091488e+02	-1.915319e+01
1.097793e+02	-1.920379e+01
1.104133e+02	-1.925241e+01
1.110511e+02	-1.930068e+01
1.116925e+02	-1.935056e+01
1.123376e+02	-1.940019e+01
1.129865e+02	-1.944927e+01
1.136391e+02	-1.949893e+01
1.142955e+02	-1.954864e+01
1.149556e+02	-1.959846e+01
1.156196e+02	-1.964786e+01
1.162874e+02	-1.969724e+01
1.169591e+02	-1.974562e+01
1.176347e+02	-1.979718e+01
1.183141e+02	-1.984471e+01
1.189975e+02	-1.989470e+01
1.196848e+02	-1.994499e+01
1.203761e+02	-1.999399e+01
1.210714e+02	-2.004250e+01
1.217707e+02	-2.009423e+01
1.224740e+02	-2.014293e+01
1.231814e+02	-2.019409e+01
1.238929e+02	-2.024396e+01
1.246085e+02	-2.029150e+01
1.253283e+02	-2.034113e+01
1.260522e+02	-2.039003e+01
1.267802e+02	-2.044038e+01
1.275125e+02	-2.048835e+01
1.282490e+02	-2.054087e+01
1.289898e+02	-2.058889e+01
1.297348e+02	-2.063946e+01
1.304842e+02	-2.068899e+01
1.312378e+02	-2.073766e+01
1.319959e+02	-2.078727e+01
1.327583e+02	-2.083720e+01
1.335251e+02	-2.088818e+01
1.342963e+02	-2.093819e+01
1.350720e+02	-2.098684e+01
1.358522e+02	-2.103683e+01
1.366368e+02	-2.108468e+01
1.374260e+02	-2.113602e+01
1.382198e+02	-2.118595e+01
1.390182e+02	-2.123363e+01
1.398211e+02	-2.128472e+01
1.406287e+02	-2.133365e+01
1.414410e+02	-2.138267e+01
1.422579e+02	-2.143217e+01
1.430796e+02	-2.148247e+01
1.439060e+02	-2.153223e+01
1.447372e+02	-2.158114e+01
1.455732e+02	-2.163251e+01
1.464141e+02	-2.168147e+01
1.472597e+02	-2.173028e+01
1.481103e+02	-2.178057e+01
1.489658e+02	-2.182971e+01
1.498262e+02	-2.188090e+01
1.506916e+02	-2.193050e+01
1.515620e+02	-2.198236e+01
1.524374e+02	-2.202916e+01
1.533179e+02	-2.207851e+01
1.542034e+02	-2.212898e+01
1.550941e+02	-2.217634e+01
1.559899e+02	-2.222745e+01
1.568909e+02	-2.227818e+01
1.577971e+02	-2.232858e+01
1.587085e+02	-2.237660e+01
1.596252e+02	-2.242809e+01
1.605472e+02	-2.247763e+01
1.614745e+02	-2.252894e+01
1.624072e+02	-2.257766e+01
1.633453e+02	-2.262679e+01
1.642887e+02	-2.267604e+01
1.652377e+02	-2.272540e+01
1.661921e+02	-2.277560e+01
1.671520e+02	-2.282717e+01
1.681175e+02	-2.287413e+01
1.690885e+02	-2.292561e+01
1.700651e+02	-2.297424e+01
1.710474e+02	-2.302586e+01
1.720354e+02	-2.307607e+01
1.730291e+02	-2.312489e+01
1.740285e+02	-2.317494e+01
1.750337e+02	-2.322535e+01
1.760446e+02	-2.327498e+01
1.770615e+02	-2.332313e+01
1.780842e+02	-2.337153e+01
1.791128e+02	-2.342087e+01
1.801473e+02	-2.347369e+01
1.811878e+02	-2.352450e+01
1.822344e+02	-2.357515e+01
1.832870e+02	-2.362359e+01
1.843456e+02	-2.367259e+01
1.854104e+02	-2.372084e+01
1.864813e+02	-2.377107e+01
1.875584e+02	-2.382149e+01
1.886418e+02	-2.387059e+01
1.897313e+02	-2.392313e+01
1.908272e+02	-2.397150e+01
1.919294e+02	-2.401967e+01
1.930380e+02	-2.407050e+01
1.941530e+02	-2.412128e+01
1.952744e+02	-2.417063e+01
1.964023e+02	-2.422089e+01
1.975367e+02	-2.427117e+01
1.986777e+02	-2.431992e+01
1.998252e+02	-2.437129e+01
2.009794e+02	-2.442052e+01
2.021403e+02	-2.447337e+01
2.033078e+02	-2.452084e+01
2.044821e+02	-2.456958e+01
2.056632e+02	-2.461970e+01
2.068511e+02	-2.466980e+01
2.080459e+02	-2.472307e+01
2.092475e+02	-2.476928e+01
2.104561e+02	-2.482135e+01
2.116717e+02	-2.487101e+01
2.128943e+02	-2.491897e+01
2.141240e+02	-2.497068e+01
2.153608e+02	-2.501718e+01
2.166047e+02	-2.507070e+01
2.178558e+02	-2.511719e+01
2.191141e+02	-2.517075e+01
2.203797e+02	-2.521806e+01
2.216526e+02	-2.526855e+01
2.229329e+02	-2.531767e+01
2.242205e+02	-2.536925e+01
2.255156e+02	-2.541798e+01
2.268182e+02	-2.546817e+01
2.281283e+02	-2.551788e+01
2.294459e+02	-2.556772e+01
2.307712e+02	-2.561739e+01
2.321041e+02	-2.566721e+01
2.334447e+02	-2.571825e+01
2.347931e+02	-2.576844e+01
2.361493e+02	-2.581703e+01
2.375133e+02	-2.586759e+01
2.388851e+02	-2.591862e+01
2.402649e+02	-2.596781e+01
2.416527e+02	-2.601870e+01
2.430484e+02	-2.606855e+01
2.444523e+02	-2.611595e+01
2.458642e+02	-2.616779e+01
2.472843e+02	-2.621765e+01
2.487126e+02	-2.627170e+01
2.501492e+02	-2.631832e+01
2.515940e+02	-2.636782e+01
2.530472e+02	-2.641937e+01
2.545088e+02	-2.646685e+01
2.559789e+02	-2.651743e+01
2.574574e+02	-2.656884e+01
2.589444e+02	-2.661789e+01
2.604401e+02	-2.666409e+01
2.619444e+02	-2.671929e+01
2.634574e+02	-2.676899e+01
2.649791e+02	-2.681970e+01
2.665096e+02	-2.686962e+01
2.680489e+02	-2.691977e+01
2.695972e+02	-2.696467e+01
2.711544e+02	-2.701824e+01
2.727205e+02	-2.706547e+01
2.742958e+02	-2.711667e+01
2.758801e+02	-2.716871e+01
2.774736e+02	-2.721885e+01
2.790762e+02	-2.726837e+01
2.806882e+02	-2.731616e+01
2.823094e+02	-2.736867e+01
2.839400e+02	-2.741879e+01
2.855800e+02	-2.746458e+01
2.872295e+02	-2.751637e+01
2.888886e+02	-2.757000e+01
2.905572e+02	-2.761815e+01
2.922354e+02	-2.766855e+01
2.939234e+02	-2.772115e+01
2.956211e+02	-2.776574e+01
2.973286e+02	-2.781573e+01
2.990459e+02	-2.786895e+01
3.007732e+02	-2.791818e+01
3.025104e+02	-2.796897e+01
3.042577e+02	-2.801805e+01
3.060151e+02	-2.806525e+01
3.077826e+02	-2.811349e+01
3.095604e+02	-2.816774e+01
3.113484e+02	-2.821684e+01
3.131467e+02	-2.827074e+01
3.149554e+02	-2.831670e+01
3.167746e+02	-2.836885e+01
3.186043e+02	-2.842078e+01
3.204445e+02	-2.847045e+01
3.222954e+02	-2.851980e+01
3.241570e+02	-2.856841e+01
3.260293e+02	-2.862100e+01
3.279124e+02	-2.867232e+01
3.298064e+02	-2.872305e+01
3.317114e+02	-2.876827e+01
3.336273e+02	-2.881789e+01
3.355544e+02	-2.886632e+01
3.374925e+02	-2.891525e+01
3.394418e+02	-2.896751e+01
3.414024e+02	-2.902294e+01
3.433744e+02	-2.906865e+01
3.453577e+02	-2.912188e+01
3.473525e+02	-2.917137e+01
3.493588e+02	-2.922163e+01
3.513766e+02	-2.926888e+01
3.534062e+02	-2.932350e+01
3.554474e+02	-2.936717e+01
3.575005e+02	-2.941956e+01
3.595654e+02	-2.947119e+01
3.616422e+02	-2.952118e+01
3.637311e+02	-2.956981e+01
3.658320e+02	-2.961892e+01
3.679450e+02	-2.966599e+01
3.700702e+02	-2.971989e+01
3.722077e+02	-2.976841e+01
3.743576e+02	-2.981629e+01
3.765199e+02	-2.986881e+01
3.786946e+02	-2.991942e+01
3.808820e+02	-2.997132e+01
3.830819e+02	-3.002088e+01
3.852946e+02	-3.006961e+01
3.875200e+02	-3.012285e+01
3.897583e+02	-3.017194e+01
3.920096e+02	-3.021732e+01
3.942738e+02	-3.027077e+01
3.965511e+02	-3.031755e+01
3.988416e+02	-3.037240e+01
4.011452e+02	-3.042516e+01
4.034622e+02	-3.047252e+01
4.057926e+02	-3.052237e+01
4.081365e+02	-3.057265e+01
4.104938e+02	-3.062128e+01
4.128648e+02	-3.067424e+01
4.152495e+02	-3.072471e+01
4.176480e+02	-3.077190e+01
4.200603e+02	-3.082033e+01
4.224866e+02	-3.087664e+01
4.249268e+02	-3.092003e+01
4.273812e+02	-3.097055e+01
4.298497e+02	-3.102530e+01
4.323325e+02	-3.107356e+01
4.348297e+02	-3.112515e+01
4.373412e+02	-3.117778e+01
4.398673e+02	-3.122230e+01
4.424079e+02	-3.127394e+01
4.449633e+02	-3.132575e+01
4.475334e+02	-3.137760e+01
4.501183e+02	-3.142617e+01
4.527182e+02	-3.147338e+01
4.553330e+02	-3.152579e+01
4.579630e+02	-3.157404e+01
4.606082e+02	-3.162381e+01
4.632687e+02	-3.167421e+01
4.659445e+02	-3.172609e+01
4.686358e+02	-3.177747e+01
4.713426e+02	-3.182493e+01
4.740650e+02	-3.187157e+01
4.768032e+02	-3.193268e+01
4.795572e+02	-3.197891e+01
4.823271e+02	-3.202420e+01
4.851130e+02	-3.208060e+01
4.879150e+02	-3.213206e+01
4.907332e+02	-3.217809e+01
4.935676e+02	-3.223063e+01
4.964185e+02	-3.227642e+01
4.992858e+02	-3.232823e+01
5.021696e+02	-3.237827e+01
5.050701e+02	-3.243304e+01
5.079874e+02	-3.247560e+01
5.109215e+02	-3.253128e+01
5.138726e+02	-3.257954e+01
5.168407e+02	-3.263266e+01
5.198259e+02	-3.268239e+01
5.228284e+02	-3.273470e+01
5.258482e+02	-3.278240e+01
5.288855e+02	-3.283016e+01
5.319403e+02	-3.288018e+01
5.350128e+02	-3.292821e+01
5.381030e+02	-3.298501e+01
5.412111e+02	-3.302922e+01
5.443371e+02	-3.308638e+01
5.474812e+02	-3.313380e+01
5.506434e+02	-3.317537e+01
5.538239e+02	-3.323319e+01
5.570228e+02	-3.328094e+01
5.602401e+02	-3.333574e+01
5.634760e+02	-3.339037e+01
5.667306e+02	-3.343720e+01
5.700040e+02	-3.348332e+01
5.732964e+02	-3.353542e+01
5.766077e+02	-3.358568e+01
5.799382e+02	-3.363837e+01
5.832879e+02	-3.368500e+01
5.866569e+02	-3.373272e+01
5.900454e+02	-3.378486e+01
5.934535e+02	-3.384052e+01
5.968813e+02	-3.387985e+01
6.003288e+02	-3.394775e+01
6.037963e+02	-3.398697e+01
6.072838e+02	-3.404197e+01
6.107914e+02	-3.408411e+01
6.143194e+02	-3.413956e+01
6.178676e+02	-3.419239e+01
6.214364e+02	-3.424570e+01
6.250258e+02	-3.429079e+01
6.286359e+02	-3.434776e+01
6.322669e+02	-3.439018e+01
6.359189e+02	-3.443600e+01
6.395919e+02	-3.448843e+01
6.432862e+02	-3.454116e+01
6.470017e+02	-3.459787e+01
6.507388e+02	-3.464742e+01
6.544974e+02	-3.469343e+01
6.582778e+02	-3.474283e+01
6.620800e+02	-3.478856e+01
6.659041e+02	-3.484407e+01
6.697504e+02	-3.489675e+01
6.736188e+02	-3.494591e+01
6.775096e+02	-3.499864e+01
6.814229e+02	-3.505618e+01
6.853587e+02	-3.509391e+01
6.893173e+02	-3.514955e+01
6.932988e+02	-3.519379e+01
6.973033e+02	-3.525743e+01
7.013309e+02	-3.529822e+01
