Frequency(Hz)	Magnitude(dB)
1.000000e+01	-1.641893e-05
1.005776e+01	-1.660915e-05
1.011585e+01	-1.680157e-05
1.017428e+01	-1.699622e-05
1.023305e+01	-1.719312e-05
1.029215e+01	-1.739231e-05
1.035160e+01	-1.759380e-05
1.041139e+01	-1.779763e-05
1.047153e+01	-1.800382e-05
1.053201e+01	-1.821240e-05
1.059284e+01	-1.842340e-05
1.065403e+01	-1.863684e-05
1.071556e+01	-1.885275e-05
1.077746e+01	-1.907116e-05
1.083971e+01	-1.929211e-05
1.090232e+01	-1.951561e-05
1.096529e+01	-1.974171e-05
1.102862e+01	-1.997042e-05
1.109232e+01	-2.020178e-05
1.115639e+01	-2.043582e-05
1.122083e+01	-2.067258e-05
1.128564e+01	-2.091207e-05
1.135083e+01	-2.115435e-05
1.141639e+01	-2.139942e-05
1.148233e+01	-2.164734e-05
1.154865e+01	-2.189813e-05
1.161536e+01	-2.215183e-05
1.168245e+01	-2.240846e-05
1.174992e+01	-2.266807e-05
1.181779e+01	-2.293068e-05
1.188605e+01	-2.319634e-05
1.195470e+01	-2.346508e-05
1.202375e+01	-2.373693e-05
1.209320e+01	-2.401192e-05
1.216305e+01	-2.429011e-05
1.223330e+01	-2.457152e-05
1.230396e+01	-2.485618e-05
1.237503e+01	-2.514415e-05
1.244651e+01	-2.543545e-05
1.251840e+01	-2.573012e-05
1.259070e+01	-2.602821e-05
1.266343e+01	-2.632976e-05
1.273657e+01	-2.663479e-05
1.281014e+01	-2.694337e-05
1.288413e+01	-2.725551e-05
1.295855e+01	-2.757127e-05
1.303339e+01	-2.789069e-05
1.310867e+01	-2.821381e-05
1.318439e+01	-2.854068e-05
1.326054e+01	-2.887133e-05
1.333713e+01	-2.920581e-05
1.341417e+01	-2.954416e-05
1.349165e+01	-2.988644e-05
1.356958e+01	-3.023268e-05
1.364795e+01	-3.058294e-05
1.372678e+01	-3.093725e-05
1.380607e+01	-3.129566e-05
1.388581e+01	-3.165823e-05
1.396602e+01	-3.202500e-05
1.404668e+01	-3.239601e-05
1.412782e+01	-3.277133e-05
1.420942e+01	-3.315099e-05
1.429149e+01	-3.353506e-05
1.437404e+01	-3.392357e-05
1.445706e+01	-3.431658e-05
1.454057e+01	-3.471415e-05
1.462455e+01	-3.511632e-05
1.470902e+01	-3.552315e-05
1.479398e+01	-3.593469e-05
1.487943e+01	-3.635100e-05
1.496537e+01	-3.677214e-05
1.505181e+01	-3.719815e-05
1.513875e+01	-3.762910e-05
1.522619e+01	-3.806504e-05
1.531414e+01	-3.850603e-05
1.540259e+01	-3.895214e-05
1.549156e+01	-3.940341e-05
1.558103e+01	-3.985990e-05
1.567103e+01	-4.032169e-05
1.576155e+01	-4.078882e-05
1.585258e+01	-4.126137e-05
1.594415e+01	-4.173939e-05
1.603624e+01	-4.222295e-05
1.612886e+01	-4.271212e-05
1.622202e+01	-4.320695e-05
1.631572e+01	-4.370751e-05
1.640996e+01	-4.421387e-05
1.650474e+01	-4.472610e-05
1.660008e+01	-4.524426e-05
1.669596e+01	-4.576842e-05
1.679239e+01	-4.629866e-05
1.688938e+01	-4.683504e-05
1.698694e+01	-4.737763e-05
1.708505e+01	-4.792651e-05
1.718373e+01	-4.848175e-05
1.728299e+01	-4.904342e-05
1.738281e+01	-4.961160e-05
1.748322e+01	-5.018636e-05
1.758420e+01	-5.076778e-05
1.768576e+01	-5.135594e-05
1.778792e+01	-5.195091e-05
1.789066e+01	-5.255277e-05
1.799399e+01	-5.316161e-05
1.809793e+01	-5.377749e-05
1.820246e+01	-5.440052e-05
1.830760e+01	-5.503076e-05
1.841334e+01	-5.566830e-05
1.851969e+01	-5.631323e-05
1.862666e+01	-5.696563e-05
1.873425e+01	-5.762559e-05
1.884246e+01	-5.829319e-05
1.895129e+01	-5.896853e-05
1.906075e+01	-5.965169e-05
1.917085e+01	-6.034277e-05
1.928158e+01	-6.104185e-05
1.939295e+01	-6.174904e-05
1.950496e+01	-6.246441e-05
1.961762e+01	-6.318807e-05
1.973093e+01	-6.392012e-05
1.984490e+01	-6.466065e-05
1.995952e+01	-6.540975e-05
2.007480e+01	-6.616754e-05
2.019076e+01	-6.693410e-05
2.030738e+01	-6.770954e-05
2.042467e+01	-6.849397e-05
2.054264e+01	-6.928749e-05
2.066130e+01	-7.009020e-05
2.078064e+01	-7.090220e-05
2.090066e+01	-7.172362e-05
2.102139e+01	-7.255455e-05
2.114280e+01	-7.339511e-05
2.126492e+01	-7.424540e-05
2.138775e+01	-7.510555e-05
2.151128e+01	-7.597566e-05
2.163553e+01	-7.685585e-05
2.176050e+01	-7.774624e-05
2.188619e+01	-7.864694e-05
2.201260e+01	-7.955808e-05
2.213974e+01	-8.047978e-05
2.226762e+01	-8.141215e-05
2.239624e+01	-8.235532e-05
2.252560e+01	-8.330942e-05
2.265571e+01	-8.427458e-05
2.278656e+01	-8.525091e-05
2.291818e+01	-8.623856e-05
2.305055e+01	-8.723764e-05
2.318369e+01	-8.824831e-05
2.331760e+01	-8.927068e-05
2.345228e+01	-9.030489e-05
2.358774e+01	-9.135109e-05
2.372398e+01	-9.240941e-05
2.386101e+01	-9.347998e-05
2.399883e+01	-9.456296e-05
2.413745e+01	-9.565849e-05
2.427686e+01	-9.676671e-05
2.441709e+01	-9.788776e-05
2.455812e+01	-9.902181e-05
2.469997e+01	-1.001690e-04
2.484263e+01	-1.013295e-04
2.498612e+01	-1.025034e-04
2.513044e+01	-1.036909e-04
2.527559e+01	-1.048922e-04
2.542158e+01	-1.061074e-04
2.556842e+01	-1.073366e-04
2.571610e+01	-1.085801e-04
2.586463e+01	-1.098381e-04
2.601403e+01	-1.111105e-04
2.616428e+01	-1.123978e-04
2.631541e+01	-1.136999e-04
2.646740e+01	-1.150171e-04
2.662028e+01	-1.163496e-04
2.677404e+01	-1.176976e-04
2.692868e+01	-1.190611e-04
2.708422e+01	-1.204404e-04
2.724066e+01	-1.218357e-04
2.739800e+01	-1.232472e-04
2.755625e+01	-1.246751e-04
2.771541e+01	-1.261194e-04
2.787550e+01	-1.275805e-04
2.803650e+01	-1.290586e-04
2.819844e+01	-1.305537e-04
2.836131e+01	-1.320662e-04
2.852513e+01	-1.335962e-04
2.868989e+01	-1.351439e-04
2.885560e+01	-1.367096e-04
2.902227e+01	-1.382934e-04
2.918990e+01	-1.398955e-04
2.935850e+01	-1.415162e-04
2.952807e+01	-1.431557e-04
2.969863e+01	-1.448142e-04
2.987016e+01	-1.464919e-04
3.004269e+01	-1.481890e-04
3.021622e+01	-1.499058e-04
3.039075e+01	-1.516424e-04
3.056628e+01	-1.533992e-04
3.074283e+01	-1.551764e-04
3.092040e+01	-1.569741e-04
3.109900e+01	-1.587926e-04
3.127862e+01	-1.606323e-04
3.145929e+01	-1.624932e-04
3.164099e+01	-1.643757e-04
3.182375e+01	-1.662800e-04
3.200756e+01	-1.682064e-04
3.219244e+01	-1.701550e-04
3.237838e+01	-1.721263e-04
3.256540e+01	-1.741204e-04
3.275349e+01	-1.761376e-04
3.294268e+01	-1.781781e-04
3.313295e+01	-1.802423e-04
3.332433e+01	-1.823305e-04
3.351681e+01	-1.844428e-04
3.371040e+01	-1.865795e-04
3.390511e+01	-1.887411e-04
3.410094e+01	-1.909276e-04
3.429791e+01	-1.931395e-04
3.449601e+01	-1.953771e-04
3.469526e+01	-1.976405e-04
3.489566e+01	-1.999302e-04
3.509721e+01	-2.022464e-04
3.529993e+01	-2.045894e-04
3.550382e+01	-2.069596e-04
3.570889e+01	-2.093572e-04
3.591515e+01	-2.117826e-04
3.612259e+01	-2.142361e-04
3.633123e+01	-2.167180e-04
3.654108e+01	-2.192287e-04
3.675214e+01	-2.217685e-04
3.696442e+01	-2.243376e-04
3.717792e+01	-2.269366e-04
3.739266e+01	-2.295656e-04
3.760864e+01	-2.322251e-04
3.782587e+01	-2.349155e-04
3.804435e+01	-2.376370e-04
3.826409e+01	-2.403900e-04
3.848510e+01	-2.431749e-04
3.870739e+01	-2.459920e-04
3.893096e+01	-2.488418e-04
3.915583e+01	-2.517247e-04
3.938199e+01	-2.546409e-04
3.960946e+01	-2.575909e-04
3.983824e+01	-2.605750e-04
4.006834e+01	-2.635938e-04
4.029978e+01	-2.666475e-04
4.053255e+01	-2.697366e-04
4.076666e+01	-2.728615e-04
4.100213e+01	-2.760225e-04
4.123896e+01	-2.792202e-04
4.147715e+01	-2.824550e-04
4.171672e+01	-2.857272e-04
4.195767e+01	-2.890373e-04
4.220002e+01	-2.923858e-04
4.244377e+01	-2.957730e-04
4.268892e+01	-2.991995e-04
4.293549e+01	-3.026657e-04
4.318348e+01	-3.061721e-04
4.343291e+01	-3.097190e-04
4.368377e+01	-3.133071e-04
4.393609e+01	-3.169367e-04
4.418986e+01	-3.206084e-04
4.444510e+01	-3.243226e-04
4.470182e+01	-3.280798e-04
4.496001e+01	-3.318805e-04
4.521970e+01	-3.357253e-04
4.548089e+01	-3.396146e-04
4.574358e+01	-3.435490e-04
4.600779e+01	-3.475289e-04
4.627353e+01	-3.515550e-04
4.654081e+01	-3.556277e-04
4.680963e+01	-3.597476e-04
4.708000e+01	-3.639152e-04
4.735193e+01	-3.681311e-04
4.762543e+01	-3.723958e-04
4.790051e+01	-3.767099e-04
4.817719e+01	-3.810740e-04
4.845545e+01	-3.854886e-04
4.873533e+01	-3.899544e-04
4.901682e+01	-3.944720e-04
4.929994e+01	-3.990418e-04
4.958470e+01	-4.036646e-04
4.987110e+01	-4.083410e-04
5.015915e+01	-4.130715e-04
5.044887e+01	-4.178568e-04
5.074026e+01	-4.226975e-04
5.103333e+01	-4.275944e-04
5.132810e+01	-4.325479e-04
5.162457e+01	-4.375589e-04
5.192275e+01	-4.426278e-04
5.222265e+01	-4.477555e-04
5.252429e+01	-4.529426e-04
5.282767e+01	-4.581898e-04
5.313280e+01	-4.634978e-04
5.343969e+01	-4.688673e-04
5.374836e+01	-4.742989e-04
5.405880e+01	-4.797935e-04
5.437105e+01	-4.853517e-04
5.468509e+01	-4.909744e-04
5.500095e+01	-4.966621e-04
5.531863e+01	-5.024157e-04
5.563815e+01	-5.082360e-04
5.595951e+01	-5.141237e-04
5.628273e+01	-5.200796e-04
5.660782e+01	-5.261045e-04
5.693479e+01	-5.321992e-04
5.726364e+01	-5.383645e-04
5.759439e+01	-5.446012e-04
5.792705e+01	-5.509102e-04
5.826164e+01	-5.572922e-04
5.859815e+01	-5.637482e-04
5.893662e+01	-5.702789e-04
5.927703e+01	-5.768853e-04
5.961941e+01	-5.835683e-04
5.996377e+01	-5.903286e-04
6.031012e+01	-5.971673e-04
6.065847e+01	-6.040851e-04
6.100883e+01	-6.110831e-04
6.136121e+01	-6.181622e-04
6.171563e+01	-6.253232e-04
6.207210e+01	-6.325673e-04
6.243063e+01	-6.398952e-04
6.279122e+01	-6.473080e-04
6.315390e+01	-6.548067e-04
6.351868e+01	-6.623922e-04
6.388556e+01	-6.700656e-04
6.425456e+01	-6.778279e-04
6.462569e+01	-6.856801e-04
6.499897e+01	-6.936233e-04
6.537440e+01	-7.016584e-04
6.575200e+01	-7.097867e-04
6.613178e+01	-7.180091e-04
6.651375e+01	-7.263267e-04
6.689793e+01	-7.347407e-04
6.728433e+01	-7.432521e-04
6.767297e+01	-7.518622e-04
6.806384e+01	-7.605719e-04
6.845698e+01	-7.693826e-04
6.885238e+01	-7.782953e-04
6.925007e+01	-7.873112e-04
6.965005e+01	-7.964316e-04
7.005235e+01	-8.056576e-04
7.045697e+01	-8.149905e-04
7.086393e+01	-8.244315e-04
7.127323e+01	-8.339819e-04
7.168490e+01	-8.436428e-04
7.209895e+01	-8.534157e-04
7.251539e+01	-8.633018e-04
7.293424e+01	-8.733024e-04
7.335551e+01	-8.834188e-04
7.377920e+01	-8.936524e-04
7.420535e+01	-9.040045e-04
7.463396e+01	-9.144765e-04
7.506504e+01	-9.250699e-04
7.549861e+01	-9.357859e-04
7.593469e+01	-9.466261e-04
7.637328e+01	-9.575918e-04
7.681441e+01	-9.686845e-04
7.725809e+01	-9.799057e-04
7.770433e+01	-9.912569e-04
7.815315e+01	-1.002740e-03
7.860456e+01	-1.014355e-03
7.905857e+01	-1.026105e-03
7.951521e+01	-1.037992e-03
7.997449e+01	-1.050016e-03
8.043642e+01	-1.062179e-03
8.090102e+01	-1.074483e-03
8.136830e+01	-1.086930e-03
8.183828e+01	-1.099520e-03
8.231097e+01	-1.112257e-03
8.278640e+01	-1.125141e-03
8.326457e+01	-1.138174e-03
8.374550e+01	-1.151359e-03
8.422921e+01	-1.164696e-03
8.471572e+01	-1.178187e-03
8.520503e+01	-1.191835e-03
8.569717e+01	-1.205641e-03
8.619215e+01	-1.219607e-03
8.669000e+01	-1.233734e-03
8.719071e+01	-1.248025e-03
8.769432e+01	-1.262482e-03
8.820084e+01	-1.277106e-03
8.871029e+01	-1.291899e-03
8.922267e+01	-1.306864e-03
8.973802e+01	-1.322002e-03
9.025634e+01	-1.337315e-03
9.077766e+01	-1.352806e-03
9.130199e+01	-1.368476e-03
9.182935e+01	-1.384328e-03
9.235975e+01	-1.400363e-03
9.289321e+01	-1.416584e-03
9.342976e+01	-1.432993e-03
9.396941e+01	-1.449592e-03
9.451217e+01	-1.466383e-03
9.505807e+01	-1.483368e-03
9.560712e+01	-1.500551e-03
9.615934e+01	-1.517932e-03
9.671476e+01	-1.535514e-03
9.727338e+01	-1.553301e-03
9.783522e+01	-1.571293e-03
9.840032e+01	-1.589493e-03
9.896867e+01	-1.607904e-03
9.954031e+01	-1.626529e-03
1.001153e+02	-1.645369e-03
1.006935e+02	-1.664428e-03
1.012751e+02	-1.683707e-03
1.018601e+02	-1.703209e-03
1.024484e+02	-1.722937e-03
1.030402e+02	-1.742894e-03
1.036353e+02	-1.763082e-03
1.042339e+02	-1.783503e-03
1.048360e+02	-1.804161e-03
1.054415e+02	-1.825059e-03
1.060505e+02	-1.846198e-03
1.066631e+02	-1.867582e-03
1.072791e+02	-1.889214e-03
1.078988e+02	-1.911096e-03
1.085220e+02	-1.933232e-03
1.091488e+02	-1.955624e-03
1.097793e+02	-1.978275e-03
1.104133e+02	-2.001188e-03
1.110511e+02	-2.024367e-03
1.116925e+02	-2.047815e-03
1.123376e+02	-2.071533e-03
1.129865e+02	-2.095527e-03
1.136391e+02	-2.119798e-03
1.142955e+02	-2.144351e-03
1.149556e+02	-2.169187e-03
1.156196e+02	-2.194311e-03
1.162874e+02	-2.219727e-03
1.169591e+02	-2.245436e-03
1.176347e+02	-2.271443e-03
1.183141e+02	-2.297752e-03
1.189975e+02	-2.324365e-03
1.196848e+02	-2.351286e-03
1.203761e+02	-2.378518e-03
1.210714e+02	-2.406067e-03
1.217707e+02	-2.433934e-03
1.224740e+02	-2.462123e-03
1.231814e+02	-2.490640e-03
1.238929e+02	-2.519486e-03
1.246085e+02	-2.548666e-03
1.253283e+02	-2.578184e-03
1.260522e+02	-2.608044e-03
1.267802e+02	-2.638250e-03
1.275125e+02	-2.668805e-03
1.282490e+02	-2.699715e-03
1.289898e+02	-2.730982e-03
1.297348e+02	-2.762611e-03
1.304842e+02	-2.794606e-03
1.312378e+02	-2.826972e-03
1.319959e+02	-2.859712e-03
1.327583e+02	-2.892832e-03
1.335251e+02	-2.926335e-03
1.342963e+02	-2.960225e-03
1.350720e+02	-2.994508e-03
1.358522e+02	-3.029189e-03
1.366368e+02	-3.064270e-03
1.374260e+02	-3.099758e-03
1.382198e+02	-3.135656e-03
1.390182e+02	-3.171970e-03
1.398211e+02	-3.208705e-03
1.406287e+02	-3.245865e-03
1.414410e+02	-3.283455e-03
1.422579e+02	-3.321480e-03
1.430796e+02	-3.359945e-03
1.439060e+02	-3.398856e-03
1.447372e+02	-3.438217e-03
1.455732e+02	-3.478033e-03
1.464141e+02	-3.518311e-03
1.472597e+02	-3.559055e-03
1.481103e+02	-3.600270e-03
1.489658e+02	-3.641963e-03
1.498262e+02	-3.684138e-03
1.506916e+02	-3.726801e-03
1.515620e+02	-3.769958e-03
1.524374e+02	-3.813615e-03
1.533179e+02	-3.857777e-03
1.542034e+02	-3.902450e-03
1.550941e+02	-3.947641e-03
1.559899e+02	-3.993354e-03
1.568909e+02	-4.039597e-03
1.577971e+02	-4.086374e-03
1.587085e+02	-4.133693e-03
1.596252e+02	-4.181560e-03
1.605472e+02	-4.229981e-03
1.614745e+02	-4.278962e-03
1.624072e+02	-4.328510e-03
1.633453e+02	-4.378632e-03
1.642887e+02	-4.429334e-03
1.652377e+02	-4.480622e-03
1.661921e+02	-4.532504e-03
1.671520e+02	-4.584987e-03
1.681175e+02	-4.638076e-03
1.690885e+02	-4.691781e-03
1.700651e+02	-4.746106e-03
1.710474e+02	-4.801061e-03
1.720354e+02	-4.856651e-03
1.730291e+02	-4.912885e-03
1.740285e+02	-4.969769e-03
1.750337e+02	-5.027312e-03
1.760446e+02	-5.085520e-03
1.770615e+02	-5.144402e-03
1.780842e+02	-5.203966e-03
1.791128e+02	-5.264218e-03
1.801473e+02	-5.325168e-03
1.811878e+02	-5.386823e-03
1.822344e+02	-5.449192e-03
1.832870e+02	-5.512282e-03
1.843456e+02	-5.576102e-03
1.854104e+02	-5.640661e-03
1.864813e+02	-5.705966e-03
1.875584e+02	-5.772027e-03
1.886418e+02	-5.838852e-03
1.897313e+02	-5.906451e-03
1.908272e+02	-5.974831e-03
1.919294e+02	-6.044003e-03
1.930380e+02	-6.113975e-03
1.941530e+02	-6.184756e-03
1.952744e+02	-6.256357e-03
1.964023e+02	-6.328785e-03
1.975367e+02	-6.402051e-03
1.986777e+02	-6.476165e-03
1.998252e+02	-6.551137e-03
2.009794e+02	-6.626975e-03
2.021403e+02	-6.703691e-03
2.033078e+02	-6.781294e-03
2.044821e+02	-6.859795e-03
2.056632e+02	-6.939204e-03
2.068511e+02	-7.019531e-03
2.080459e+02	-7.100787e-03
2.092475e+02	-7.182984e-03
2.104561e+02	-7.266131e-03
2.116717e+02	-7.350239e-03
2.128943e+02	-7.435320e-03
2.141240e+02	-7.521386e-03
2.153608e+02	-7.608446e-03
2.166047e+02	-7.696514e-03
2.178558e+02	-7.785600e-03
2.191141e+02	-7.875716e-03
2.203797e+02	-7.966874e-03
2.216526e+02	-8.059086e-03
2.229329e+02	-8.152365e-03
2.242205e+02	-8.246722e-03
2.255156e+02	-8.342170e-03
2.268182e+02	-8.438722e-03
2.281283e+02	-8.536391e-03
2.294459e+02	-8.635188e-03
2.307712e+02	-8.735128e-03
2.321041e+02	-8.836224e-03
2.334447e+02	-8.938488e-03
2.347931e+02	-9.041934e-03
2.361493e+02	-9.146577e-03
2.375133e+02	-9.252429e-03
2.388851e+02	-9.359505e-03
2.402649e+02	-9.467818e-03
2.416527e+02	-9.577384e-03
2.430484e+02	-9.688216e-03
2.444523e+02	-9.800330e-03
2.458642e+02	-9.913739e-03
2.472843e+02	-1.002846e-02
2.487126e+02	-1.014451e-02
2.501492e+02	-1.026189e-02
2.515940e+02	-1.038064e-02
2.530472e+02	-1.050075e-02
2.545088e+02	-1.062226e-02
2.559789e+02	-1.074517e-02
2.574574e+02	-1.086950e-02
2.589444e+02	-1.099526e-02
2.604401e+02	-1.112248e-02
2.619444e+02	-1.125117e-02
2.634574e+02	-1.138135e-02
2.649791e+02	-1.151303e-02
2.665096e+02	-1.164623e-02
2.680489e+02	-1.178097e-02
2.695972e+02	-1.191727e-02
2.711544e+02	-1.205514e-02
2.727205e+02	-1.219460e-02
2.742958e+02	-1.233568e-02
2.758801e+02	-1.247839e-02
2.774736e+02	-1.262274e-02
2.790762e+02	-1.276876e-02
2.806882e+02	-1.291647e-02
2.823094e+02	-1.306589e-02
2.839400e+02	-1.321703e-02
2.855800e+02	-1.336991e-02
2.872295e+02	-1.352456e-02
2.888886e+02	-1.368100e-02
2.905572e+02	-1.383925e-02
2.922354e+02	-1.399932e-02
2.939234e+02	-1.416124e-02
2.956211e+02	-1.432503e-02
2.973286e+02	-1.449071e-02
2.990459e+02	-1.465830e-02
3.007732e+02	-1.482783e-02
3.025104e+02	-1.499932e-02
3.042577e+02	-1.517279e-02
3.060151e+02	-1.534825e-02
3.077826e+02	-1.552575e-02
3.095604e+02	-1.570529e-02
3.113484e+02	-1.588691e-02
3.131467e+02	-1.607062e-02
3.149554e+02	-1.625645e-02
3.167746e+02	-1.644443e-02
3.186043e+02	-1.663458e-02
3.204445e+02	-1.682692e-02
3.222954e+02	-1.702148e-02
3.241570e+02	-1.721828e-02
3.260293e+02	-1.741736e-02
3.279124e+02	-1.761873e-02
3.298064e+02	-1.782243e-02
3.317114e+02	-1.802848e-02
3.336273e+02	-1.823690e-02
3.355544e+02	-1.844773e-02
3.374925e+02	-1.866099e-02
3.394418e+02	-1.887671e-02
3.414024e+02	-1.909492e-02
3.433744e+02	-1.931565e-02
3.453577e+02	-1.953892e-02
3.473525e+02	-1.976477e-02
3.493588e+02	-1.999322e-02
3.513766e+02	-2.022430e-02
3.534062e+02	-2.045805e-02
3.554474e+02	-2.069450e-02
3.575005e+02	-2.093367e-02
3.595654e+02	-2.117560e-02
3.616422e+02	-2.142031e-02
3.637311e+02	-2.166785e-02
3.658320e+02	-2.191824e-02
3.679450e+02	-2.217152e-02
3.700702e+02	-2.242772e-02
3.722077e+02	-2.268687e-02
3.743576e+02	-2.294900e-02
3.765199e+02	-2.321416e-02
3.786946e+02	-2.348237e-02
3.808820e+02	-2.375368e-02
3.830819e+02	-2.402810e-02
3.852946e+02	-2.430569e-02
3.875200e+02	-2.458648e-02
3.897583e+02	-2.487050e-02
3.920096e+02	-2.515780e-02
3.942738e+02	-2.544840e-02
3.965511e+02	-2.574235e-02
3.988416e+02	-2.603968e-02
4.011452e+02	-2.634044e-02
4.034622e+02	-2.664466e-02
4.057926e+02	-2.695239e-02
4.081365e+02	-2.726366e-02
4.104938e+02	-2.757851e-02
4.128648e+02	-2.789698e-02
4.152495e+02	-2.821912e-02
4.176480e+02	-2.854497e-02
4.200603e+02	-2.887457e-02
4.224866e+02	-2.920796e-02
4.249268e+02	-2.954518e-02
4.273812e+02	-2.988629e-02
4.298497e+02	-3.023132e-02
4.323325e+02	-3.058032e-02
4.348297e+02	-3.093334e-02
4.373412e+02	-3.129041e-02
4.398673e+02	-3.165159e-02
4.424079e+02	-3.201693e-02
4.449633e+02	-3.238647e-02
4.475334e+02	-3.276025e-02
4.501183e+02	-3.313834e-02
4.527182e+02	-3.352077e-02
4.553330e+02	-3.390759e-02
4.579630e+02	-3.429886e-02
4.606082e+02	-3.469463e-02
4.632687e+02	-3.509495e-02
4.659445e+02	-3.549987e-02
4.686358e+02	-3.590944e-02
4.713426e+02	-3.632371e-02
4.740650e+02	-3.674275e-02
4.768032e+02	-3.716660e-02
4.795572e+02	-3.759531e-02
4.823271e+02	-3.802895e-02
4.851130e+02	-3.846757e-02
4.879150e+02	-3.891122e-02
4.907332e+02	-3.935997e-02
4.935676e+02	-3.981387e-02
4.964185e+02	-4.027298e-02
4.992858e+02	-4.073736e-02
5.021696e+02	-4.120707e-02
5.050701e+02	-4.168216e-02
5.079874e+02	-4.216271e-02
5.109215e+02	-4.264877e-02
5.138726e+02	-4.314041e-02
5.168407e+02	-4.363769e-02
5.198259e+02	-4.414066e-02
5.228284e+02	-4.464941e-02
5.258482e+02	-4.516399e-02
5.288855e+02	-4.568447e-02
5.319403e+02	-4.621091e-02
5.350128e+02	-4.674339e-02
5.381030e+02	-4.728197e-02
5.412111e+02	-4.782672e-02
5.443371e+02	-4.837771e-02
5.474812e+02	-4.893502e-02
5.506434e+02	-4.949870e-02
5.538239e+02	-5.006885e-02
5.570228e+02	-5.064552e-02
5.602401e+02	-5.122879e-02
5.634760e+02	-5.181874e-02
5.667306e+02	-5.241545e-02
5.700040e+02	-5.301898e-02
5.732964e+02	-5.362942e-02
5.766077e+02	-5.424684e-02
5.799382e+02	-5.487133e-02
5.832879e+02	-5.550296e-02
5.866569e+02	-5.614181e-02
5.900454e+02	-5.678797e-02
5.934535e+02	-5.744152e-02
5.968813e+02	-5.810253e-02
6.003288e+02	-5.877111e-02
6.037963e+02	-5.944732e-02
6.072838e+02	-6.013126e-02
6.107914e+02	-6.082301e-02
6.143194e+02	-6.152266e-02
6.178676e+02	-6.223030e-02
6.214364e+02	-6.294603e-02
6.250258e+02	-6.366992e-02
6.286359e+02	-6.440208e-02
6.322669e+02	-6.514259e-02
6.359189e+02	-6.589156e-02
6.395919e+02	-6.664906e-02
6.432862e+02	-6.741521e-02
6.470017e+02	-6.819010e-02
6.507388e+02	-6.897382e-02
6.544974e+02	-6.976648e-02
6.582778e+02	-7.056817e-02
6.620800e+02	-7.137900e-02
6.659041e+02	-7.219907e-02
6.697504e+02	-7.302847e-02
6.736188e+02	-7.386733e-02
6.775096e+02	-7.471574e-02
6.814229e+02	-7.557381e-02
6.853587e+02	-7.644164e-02
6.893173e+02	-7.731936e-02
6.932988e+02	-7.820705e-02
6.973033e+02	-7.910485e-02
7.013309e+02	-8.001286e-02
