Frequency(Hz)	Magnitude(dB)
1.000000e+01	-1.827649e-05
1.005776e+01	-1.848822e-05
1.011585e+01	-1.870241e-05
1.017428e+01	-1.891909e-05
1.023305e+01	-1.913827e-05
1.029215e+01	-1.935999e-05
1.035160e+01	-1.958428e-05
1.041139e+01	-1.981117e-05
1.047153e+01	-2.004069e-05
1.053201e+01	-2.027286e-05
1.059284e+01	-2.050773e-05
1.065403e+01	-2.074532e-05
1.071556e+01	-2.098566e-05
1.077746e+01	-2.122878e-05
1.083971e+01	-2.147472e-05
1.090232e+01	-2.172351e-05
1.096529e+01	-2.197518e-05
1.102862e+01	-2.222977e-05
1.109232e+01	-2.248731e-05
1.115639e+01	-2.274783e-05
1.122083e+01	-2.301137e-05
1.128564e+01	-2.327796e-05
1.135083e+01	-2.354764e-05
1.141639e+01	-2.382045e-05
1.148233e+01	-2.409641e-05
1.154865e+01	-2.437558e-05
1.161536e+01	-2.465797e-05
1.168245e+01	-2.494364e-05
1.174992e+01	-2.523262e-05
1.181779e+01	-2.552495e-05
1.188605e+01	-2.582066e-05
1.195470e+01	-2.611980e-05
1.202375e+01	-2.642240e-05
1.209320e+01	-2.672851e-05
1.216305e+01	-2.703817e-05
1.223330e+01	-2.735141e-05
1.230396e+01	-2.766829e-05
1.237503e+01	-2.798883e-05
1.244651e+01	-2.831309e-05
1.251840e+01	-2.864110e-05
1.259070e+01	-2.897292e-05
1.266343e+01	-2.930857e-05
1.273657e+01	-2.964812e-05
1.281014e+01	-2.999160e-05
1.288413e+01	-3.033906e-05
1.295855e+01	-3.069055e-05
1.303339e+01	-3.104610e-05
1.310867e+01	-3.140578e-05
1.318439e+01	-3.176962e-05
1.326054e+01	-3.213768e-05
1.333713e+01	-3.251000e-05
1.341417e+01	-3.288664e-05
1.349165e+01	-3.326764e-05
1.356958e+01	-3.365305e-05
1.364795e+01	-3.404293e-05
1.372678e+01	-3.443733e-05
1.380607e+01	-3.483629e-05
1.388581e+01	-3.523988e-05
1.396602e+01	-3.564814e-05
1.404668e+01	-3.606113e-05
1.412782e+01	-3.647891e-05
1.420942e+01	-3.690153e-05
1.429149e+01	-3.732904e-05
1.437404e+01	-3.776150e-05
1.445706e+01	-3.819898e-05
1.454057e+01	-3.864152e-05
1.462455e+01	-3.908920e-05
1.470902e+01	-3.954205e-05
1.479398e+01	-4.000016e-05
1.487943e+01	-4.046357e-05
1.496537e+01	-4.093235e-05
1.505181e+01	-4.140656e-05
1.513875e+01	-4.188626e-05
1.522619e+01	-4.237152e-05
1.531414e+01	-4.286241e-05
1.540259e+01	-4.335898e-05
1.549156e+01	-4.386130e-05
1.558103e+01	-4.436944e-05
1.567103e+01	-4.488347e-05
1.576155e+01	-4.540346e-05
1.585258e+01	-4.592947e-05
1.594415e+01	-4.646157e-05
1.603624e+01	-4.699984e-05
1.612886e+01	-4.754434e-05
1.622202e+01	-4.809515e-05
1.631572e+01	-4.865234e-05
1.640996e+01	-4.921599e-05
1.650474e+01	-4.978617e-05
1.660008e+01	-5.036295e-05
1.669596e+01	-5.094642e-05
1.679239e+01	-5.153664e-05
1.688938e+01	-5.213371e-05
1.698694e+01	-5.273769e-05
1.708505e+01	-5.334866e-05
1.718373e+01	-5.396672e-05
1.728299e+01	-5.459193e-05
1.738281e+01	-5.522439e-05
1.748322e+01	-5.586418e-05
1.758420e+01	-5.651138e-05
1.768576e+01	-5.716607e-05
1.778792e+01	-5.782835e-05
1.789066e+01	-5.849831e-05
1.799399e+01	-5.917602e-05
1.809793e+01	-5.986159e-05
1.820246e+01	-6.055510e-05
1.830760e+01	-6.125664e-05
1.841334e+01	-6.196631e-05
1.851969e+01	-6.268420e-05
1.862666e+01	-6.341041e-05
1.873425e+01	-6.414503e-05
1.884246e+01	-6.488816e-05
1.895129e+01	-6.563991e-05
1.906075e+01	-6.640036e-05
1.917085e+01	-6.716962e-05
1.928158e+01	-6.794779e-05
1.939295e+01	-6.873498e-05
1.950496e+01	-6.953129e-05
1.961762e+01	-7.033682e-05
1.973093e+01	-7.115168e-05
1.984490e+01	-7.197599e-05
1.995952e+01	-7.280984e-05
2.007480e+01	-7.365336e-05
2.019076e+01	-7.450665e-05
2.030738e+01	-7.536982e-05
2.042467e+01	-7.624299e-05
2.054264e+01	-7.712628e-05
2.066130e+01	-7.801980e-05
2.078064e+01	-7.892368e-05
2.090066e+01	-7.983802e-05
2.102139e+01	-8.076296e-05
2.114280e+01	-8.169861e-05
2.126492e+01	-8.264510e-05
2.138775e+01	-8.360256e-05
2.151128e+01	-8.457111e-05
2.163553e+01	-8.555088e-05
2.176050e+01	-8.654200e-05
2.188619e+01	-8.754460e-05
2.201260e+01	-8.855882e-05
2.213974e+01	-8.958479e-05
2.226762e+01	-9.062264e-05
2.239624e+01	-9.167252e-05
2.252560e+01	-9.273456e-05
2.265571e+01	-9.380891e-05
2.278656e+01	-9.489570e-05
2.291818e+01	-9.599508e-05
2.305055e+01	-9.710719e-05
2.318369e+01	-9.823220e-05
2.331760e+01	-9.937023e-05
2.345228e+01	-1.005214e-04
2.358774e+01	-1.016860e-04
2.372398e+01	-1.028641e-04
2.386101e+01	-1.040557e-04
2.399883e+01	-1.052612e-04
2.413745e+01	-1.064807e-04
2.427686e+01	-1.077143e-04
2.441709e+01	-1.089622e-04
2.455812e+01	-1.102245e-04
2.469997e+01	-1.115015e-04
2.484263e+01	-1.127933e-04
2.498612e+01	-1.141000e-04
2.513044e+01	-1.154218e-04
2.527559e+01	-1.167590e-04
2.542158e+01	-1.181117e-04
2.556842e+01	-1.194800e-04
2.571610e+01	-1.208642e-04
2.586463e+01	-1.222644e-04
2.601403e+01	-1.236809e-04
2.616428e+01	-1.251137e-04
2.631541e+01	-1.265632e-04
2.646740e+01	-1.280295e-04
2.662028e+01	-1.295127e-04
2.677404e+01	-1.310131e-04
2.692868e+01	-1.325309e-04
2.708422e+01	-1.340663e-04
2.724066e+01	-1.356195e-04
2.739800e+01	-1.371906e-04
2.755625e+01	-1.387800e-04
2.771541e+01	-1.403878e-04
2.787550e+01	-1.420142e-04
2.803650e+01	-1.436594e-04
2.819844e+01	-1.453237e-04
2.836131e+01	-1.470073e-04
2.852513e+01	-1.487104e-04
2.868989e+01	-1.504332e-04
2.885560e+01	-1.521760e-04
2.902227e+01	-1.539390e-04
2.918990e+01	-1.557224e-04
2.935850e+01	-1.575264e-04
2.952807e+01	-1.593514e-04
2.969863e+01	-1.611975e-04
2.987016e+01	-1.630650e-04
3.004269e+01	-1.649541e-04
3.021622e+01	-1.668651e-04
3.039075e+01	-1.687982e-04
3.056628e+01	-1.707538e-04
3.074283e+01	-1.727319e-04
3.092040e+01	-1.747331e-04
3.109900e+01	-1.767573e-04
3.127862e+01	-1.788051e-04
3.145929e+01	-1.808766e-04
3.164099e+01	-1.829720e-04
3.182375e+01	-1.850917e-04
3.200756e+01	-1.872360e-04
3.219244e+01	-1.894052e-04
3.237838e+01	-1.915994e-04
3.256540e+01	-1.938191e-04
3.275349e+01	-1.960645e-04
3.294268e+01	-1.983359e-04
3.313295e+01	-2.006337e-04
3.332433e+01	-2.029580e-04
3.351681e+01	-2.053093e-04
3.371040e+01	-2.076878e-04
3.390511e+01	-2.100938e-04
3.410094e+01	-2.125278e-04
3.429791e+01	-2.149899e-04
3.449601e+01	-2.174806e-04
3.469526e+01	-2.200001e-04
3.489566e+01	-2.225488e-04
3.509721e+01	-2.251270e-04
3.529993e+01	-2.277351e-04
3.550382e+01	-2.303734e-04
3.570889e+01	-2.330423e-04
3.591515e+01	-2.357420e-04
3.612259e+01	-2.384731e-04
3.633123e+01	-2.412358e-04
3.654108e+01	-2.440305e-04
3.675214e+01	-2.468576e-04
3.696442e+01	-2.497174e-04
3.717792e+01	-2.526104e-04
3.739266e+01	-2.555369e-04
3.760864e+01	-2.584972e-04
3.782587e+01	-2.614919e-04
3.804435e+01	-2.645213e-04
3.826409e+01	-2.675857e-04
3.848510e+01	-2.706857e-04
3.870739e+01	-2.738216e-04
3.893096e+01	-2.769938e-04
3.915583e+01	-2.802027e-04
3.938199e+01	-2.834488e-04
3.960946e+01	-2.867325e-04
3.983824e+01	-2.900543e-04
4.006834e+01	-2.934146e-04
4.029978e+01	-2.968137e-04
4.053255e+01	-3.002523e-04
4.076666e+01	-3.037307e-04
4.100213e+01	-3.072493e-04
4.123896e+01	-3.108088e-04
4.147715e+01	-3.144095e-04
4.171672e+01	-3.180519e-04
4.195767e+01	-3.217364e-04
4.220002e+01	-3.254637e-04
4.244377e+01	-3.292341e-04
4.268892e+01	-3.330483e-04
4.293549e+01	-3.369066e-04
4.318348e+01	-3.408096e-04
4.343291e+01	-3.447578e-04
4.368377e+01	-3.487518e-04
4.393609e+01	-3.527920e-04
4.418986e+01	-3.568790e-04
4.444510e+01	-3.610134e-04
4.470182e+01	-3.651956e-04
4.496001e+01	-3.694263e-04
4.521970e+01	-3.737061e-04
4.548089e+01	-3.780354e-04
4.574358e+01	-3.824148e-04
4.600779e+01	-3.868450e-04
4.627353e+01	-3.913265e-04
4.654081e+01	-3.958599e-04
4.680963e+01	-4.004459e-04
4.708000e+01	-4.050849e-04
4.735193e+01	-4.097777e-04
4.762543e+01	-4.145249e-04
4.790051e+01	-4.193270e-04
4.817719e+01	-4.241848e-04
4.845545e+01	-4.290989e-04
4.873533e+01	-4.340699e-04
4.901682e+01	-4.390984e-04
4.929994e+01	-4.441852e-04
4.958470e+01	-4.493310e-04
4.987110e+01	-4.545363e-04
5.015915e+01	-4.598020e-04
5.044887e+01	-4.651286e-04
5.074026e+01	-4.705170e-04
5.103333e+01	-4.759678e-04
5.132810e+01	-4.814817e-04
5.162457e+01	-4.870595e-04
5.192275e+01	-4.927019e-04
5.222265e+01	-4.984096e-04
5.252429e+01	-5.041835e-04
5.282767e+01	-5.100243e-04
5.313280e+01	-5.159327e-04
5.343969e+01	-5.219095e-04
5.374836e+01	-5.279556e-04
5.405880e+01	-5.340718e-04
5.437105e+01	-5.402588e-04
5.468509e+01	-5.465174e-04
5.500095e+01	-5.528486e-04
5.531863e+01	-5.592531e-04
5.563815e+01	-5.657317e-04
5.595951e+01	-5.722855e-04
5.628273e+01	-5.789151e-04
5.660782e+01	-5.856216e-04
5.693479e+01	-5.924057e-04
5.726364e+01	-5.992684e-04
5.759439e+01	-6.062106e-04
5.792705e+01	-6.132332e-04
5.826164e+01	-6.203372e-04
5.859815e+01	-6.275234e-04
5.893662e+01	-6.347929e-04
5.927703e+01	-6.421466e-04
5.961941e+01	-6.495855e-04
5.996377e+01	-6.571106e-04
6.031012e+01	-6.647228e-04
6.065847e+01	-6.724232e-04
6.100883e+01	-6.802128e-04
6.136121e+01	-6.880926e-04
6.171563e+01	-6.960638e-04
6.207210e+01	-7.041272e-04
6.243063e+01	-7.122840e-04
6.279122e+01	-7.205353e-04
6.315390e+01	-7.288822e-04
6.351868e+01	-7.373258e-04
6.388556e+01	-7.458672e-04
6.425456e+01	-7.545075e-04
6.462569e+01	-7.632480e-04
6.499897e+01	-7.720896e-04
6.537440e+01	-7.810337e-04
6.575200e+01	-7.900813e-04
6.613178e+01	-7.992338e-04
6.651375e+01	-8.084923e-04
6.689793e+01	-8.178580e-04
6.728433e+01	-8.273322e-04
6.767297e+01	-8.369162e-04
6.806384e+01	-8.466111e-04
6.845698e+01	-8.564184e-04
6.885238e+01	-8.663392e-04
6.925007e+01	-8.763750e-04
6.965005e+01	-8.865270e-04
7.005235e+01	-8.967966e-04
7.045697e+01	-9.071852e-04
7.086393e+01	-9.176940e-04
7.127323e+01	-9.283246e-04
7.168490e+01	-9.390784e-04
7.209895e+01	-9.499567e-04
7.251539e+01	-9.609609e-04
7.293424e+01	-9.720927e-04
7.335551e+01	-9.833534e-04
7.377920e+01	-9.947445e-04
7.420535e+01	-1.006268e-03
7.463396e+01	-1.017924e-03
7.506504e+01	-1.029716e-03
7.549861e+01	-1.041644e-03
7.593469e+01	-1.053710e-03
7.637328e+01	-1.065916e-03
7.681441e+01	-1.078263e-03
7.725809e+01	-1.090754e-03
7.770433e+01	-1.103389e-03
7.815315e+01	-1.116170e-03
7.860456e+01	-1.129100e-03
7.905857e+01	-1.142179e-03
7.951521e+01	-1.155410e-03
7.997449e+01	-1.168794e-03
8.043642e+01	-1.182333e-03
8.090102e+01	-1.196028e-03
8.136830e+01	-1.209883e-03
8.183828e+01	-1.223898e-03
8.231097e+01	-1.238075e-03
8.278640e+01	-1.252416e-03
8.326457e+01	-1.266923e-03
8.374550e+01	-1.281599e-03
8.422921e+01	-1.296444e-03
8.471572e+01	-1.311462e-03
8.520503e+01	-1.326653e-03
8.569717e+01	-1.342020e-03
8.619215e+01	-1.357566e-03
8.669000e+01	-1.373291e-03
8.719071e+01	-1.389198e-03
8.769432e+01	-1.405290e-03
8.820084e+01	-1.421568e-03
8.871029e+01	-1.438034e-03
8.922267e+01	-1.454692e-03
8.973802e+01	-1.471542e-03
9.025634e+01	-1.488587e-03
9.077766e+01	-1.505830e-03
9.130199e+01	-1.523272e-03
9.182935e+01	-1.540917e-03
9.235975e+01	-1.558765e-03
9.289321e+01	-1.576821e-03
9.342976e+01	-1.595085e-03
9.396941e+01	-1.613561e-03
9.451217e+01	-1.632251e-03
9.505807e+01	-1.651158e-03
9.560712e+01	-1.670283e-03
9.615934e+01	-1.689630e-03
9.671476e+01	-1.709201e-03
9.727338e+01	-1.728999e-03
9.783522e+01	-1.749026e-03
9.840032e+01	-1.769285e-03
9.896867e+01	-1.789778e-03
9.954031e+01	-1.810509e-03
1.001153e+02	-1.831479e-03
1.006935e+02	-1.852693e-03
1.012751e+02	-1.874152e-03
1.018601e+02	-1.895860e-03
1.024484e+02	-1.917819e-03
1.030402e+02	-1.940033e-03
1.036353e+02	-1.962504e-03
1.042339e+02	-1.985235e-03
1.048360e+02	-2.008229e-03
1.054415e+02	-2.031489e-03
1.060505e+02	-2.055019e-03
1.066631e+02	-2.078821e-03
1.072791e+02	-2.102899e-03
1.078988e+02	-2.127256e-03
1.085220e+02	-2.151894e-03
1.091488e+02	-2.176818e-03
1.097793e+02	-2.202031e-03
1.104133e+02	-2.227536e-03
1.110511e+02	-2.253336e-03
1.116925e+02	-2.279434e-03
1.123376e+02	-2.305835e-03
1.129865e+02	-2.332542e-03
1.136391e+02	-2.359557e-03
1.142955e+02	-2.386886e-03
1.149556e+02	-2.414531e-03
1.156196e+02	-2.442496e-03
1.162874e+02	-2.470785e-03
1.169591e+02	-2.499401e-03
1.176347e+02	-2.528349e-03
1.183141e+02	-2.557632e-03
1.189975e+02	-2.587254e-03
1.196848e+02	-2.617219e-03
1.203761e+02	-2.647531e-03
1.210714e+02	-2.678194e-03
1.217707e+02	-2.709212e-03
1.224740e+02	-2.740589e-03
1.231814e+02	-2.772329e-03
1.238929e+02	-2.804437e-03
1.246085e+02	-2.836917e-03
1.253283e+02	-2.869772e-03
1.260522e+02	-2.903008e-03
1.267802e+02	-2.936629e-03
1.275125e+02	-2.970639e-03
1.282490e+02	-3.005042e-03
1.289898e+02	-3.039845e-03
1.297348e+02	-3.075049e-03
1.304842e+02	-3.110662e-03
1.312378e+02	-3.146687e-03
1.319959e+02	-3.183129e-03
1.327583e+02	-3.219992e-03
1.335251e+02	-3.257283e-03
1.342963e+02	-3.295005e-03
1.350720e+02	-3.333164e-03
1.358522e+02	-3.371764e-03
1.366368e+02	-3.410812e-03
1.374260e+02	-3.450311e-03
1.382198e+02	-3.490268e-03
1.390182e+02	-3.530687e-03
1.398211e+02	-3.571574e-03
1.406287e+02	-3.612934e-03
1.414410e+02	-3.654774e-03
1.422579e+02	-3.697097e-03
1.430796e+02	-3.739910e-03
1.439060e+02	-3.783219e-03
1.447372e+02	-3.827030e-03
1.455732e+02	-3.871347e-03
1.464141e+02	-3.916177e-03
1.472597e+02	-3.961527e-03
1.481103e+02	-4.007401e-03
1.489658e+02	-4.053806e-03
1.498262e+02	-4.100748e-03
1.506916e+02	-4.148233e-03
1.515620e+02	-4.196269e-03
1.524374e+02	-4.244860e-03
1.533179e+02	-4.294013e-03
1.542034e+02	-4.343735e-03
1.550941e+02	-4.394033e-03
1.559899e+02	-4.444913e-03
1.568909e+02	-4.496382e-03
1.577971e+02	-4.548446e-03
1.587085e+02	-4.601113e-03
1.596252e+02	-4.654390e-03
1.605472e+02	-4.708283e-03
1.614745e+02	-4.762800e-03
1.624072e+02	-4.817947e-03
1.633453e+02	-4.873733e-03
1.642887e+02	-4.930164e-03
1.652377e+02	-4.987249e-03
1.661921e+02	-5.044994e-03
1.671520e+02	-5.103407e-03
1.681175e+02	-5.162496e-03
1.690885e+02	-5.222269e-03
1.700651e+02	-5.282733e-03
1.710474e+02	-5.343897e-03
1.720354e+02	-5.405769e-03
1.730291e+02	-5.468357e-03
1.740285e+02	-5.531669e-03
1.750337e+02	-5.595713e-03
1.760446e+02	-5.660499e-03
1.770615e+02	-5.726034e-03
1.780842e+02	-5.792327e-03
1.791128e+02	-5.859387e-03
1.801473e+02	-5.927223e-03
1.811878e+02	-5.995844e-03
1.822344e+02	-6.065259e-03
1.832870e+02	-6.135477e-03
1.843456e+02	-6.206507e-03
1.854104e+02	-6.278359e-03
1.864813e+02	-6.351042e-03
1.875584e+02	-6.424566e-03
1.886418e+02	-6.498941e-03
1.897313e+02	-6.574175e-03
1.908272e+02	-6.650280e-03
1.919294e+02	-6.727266e-03
1.930380e+02	-6.805142e-03
1.941530e+02	-6.883918e-03
1.952744e+02	-6.963606e-03
1.964023e+02	-7.044216e-03
1.975367e+02	-7.125758e-03
1.986777e+02	-7.208243e-03
1.998252e+02	-7.291682e-03
2.009794e+02	-7.376086e-03
2.021403e+02	-7.461466e-03
2.033078e+02	-7.547834e-03
2.044821e+02	-7.635201e-03
2.056632e+02	-7.723578e-03
2.068511e+02	-7.812977e-03
2.080459e+02	-7.903409e-03
2.092475e+02	-7.994888e-03
2.104561e+02	-8.087424e-03
2.116717e+02	-8.181031e-03
2.128943e+02	-8.275719e-03
2.141240e+02	-8.371503e-03
2.153608e+02	-8.468394e-03
2.166047e+02	-8.566406e-03
2.178558e+02	-8.665551e-03
2.191141e+02	-8.765842e-03
2.203797e+02	-8.867292e-03
2.216526e+02	-8.969916e-03
2.229329e+02	-9.073726e-03
2.242205e+02	-9.178736e-03
2.255156e+02	-9.284960e-03
2.268182e+02	-9.392412e-03
2.281283e+02	-9.501106e-03
2.294459e+02	-9.611057e-03
2.307712e+02	-9.722278e-03
2.321041e+02	-9.834785e-03
2.334447e+02	-9.948593e-03
2.347931e+02	-1.006372e-02
2.361493e+02	-1.018017e-02
2.375133e+02	-1.029797e-02
2.388851e+02	-1.041713e-02
2.402649e+02	-1.053767e-02
2.416527e+02	-1.065960e-02
2.430484e+02	-1.078294e-02
2.444523e+02	-1.090771e-02
2.458642e+02	-1.103391e-02
2.472843e+02	-1.116158e-02
2.487126e+02	-1.129072e-02
2.501492e+02	-1.142135e-02
2.515940e+02	-1.155350e-02
2.530472e+02	-1.168717e-02
2.545088e+02	-1.182238e-02
2.559789e+02	-1.195916e-02
2.574574e+02	-1.209751e-02
2.589444e+02	-1.223747e-02
2.604401e+02	-1.237904e-02
2.619444e+02	-1.252225e-02
2.634574e+02	-1.266711e-02
2.649791e+02	-1.281364e-02
2.665096e+02	-1.296187e-02
2.680489e+02	-1.311181e-02
2.695972e+02	-1.326348e-02
2.711544e+02	-1.341690e-02
2.727205e+02	-1.357210e-02
2.742958e+02	-1.372909e-02
2.758801e+02	-1.388789e-02
2.774736e+02	-1.404852e-02
2.790762e+02	-1.421101e-02
2.806882e+02	-1.437537e-02
2.823094e+02	-1.454164e-02
2.839400e+02	-1.470982e-02
2.855800e+02	-1.487994e-02
2.872295e+02	-1.505203e-02
2.888886e+02	-1.522611e-02
2.905572e+02	-1.540219e-02
2.922354e+02	-1.558031e-02
2.939234e+02	-1.576048e-02
2.956211e+02	-1.594273e-02
2.973286e+02	-1.612709e-02
2.990459e+02	-1.631358e-02
3.007732e+02	-1.650221e-02
3.025104e+02	-1.669303e-02
3.042577e+02	-1.688604e-02
3.060151e+02	-1.708129e-02
3.077826e+02	-1.727878e-02
3.095604e+02	-1.747856e-02
3.113484e+02	-1.768064e-02
3.131467e+02	-1.788505e-02
3.149554e+02	-1.809182e-02
3.167746e+02	-1.830097e-02
3.186043e+02	-1.851254e-02
3.204445e+02	-1.872655e-02
3.222954e+02	-1.894303e-02
3.241570e+02	-1.916200e-02
3.260293e+02	-1.938350e-02
3.279124e+02	-1.960756e-02
3.298064e+02	-1.983420e-02
3.317114e+02	-2.006345e-02
3.336273e+02	-2.029534e-02
3.355544e+02	-2.052991e-02
3.374925e+02	-2.076719e-02
3.394418e+02	-2.100720e-02
3.414024e+02	-2.124997e-02
3.433744e+02	-2.149555e-02
3.453577e+02	-2.174395e-02
3.473525e+02	-2.199522e-02
3.493588e+02	-2.224939e-02
3.513766e+02	-2.250649e-02
3.534062e+02	-2.276654e-02
3.554474e+02	-2.302960e-02
3.575005e+02	-2.329569e-02
3.595654e+02	-2.356484e-02
3.616422e+02	-2.383709e-02
3.637311e+02	-2.411248e-02
3.658320e+02	-2.439104e-02
3.679450e+02	-2.467282e-02
3.700702e+02	-2.495783e-02
3.722077e+02	-2.524613e-02
3.743576e+02	-2.553775e-02
3.765199e+02	-2.583273e-02
3.786946e+02	-2.613111e-02
3.808820e+02	-2.643292e-02
3.830819e+02	-2.673821e-02
3.852946e+02	-2.704701e-02
3.875200e+02	-2.735937e-02
3.897583e+02	-2.767532e-02
3.920096e+02	-2.799491e-02
3.942738e+02	-2.831818e-02
3.965511e+02	-2.864517e-02
3.988416e+02	-2.897592e-02
4.011452e+02	-2.931048e-02
4.034622e+02	-2.964888e-02
4.057926e+02	-2.999119e-02
4.081365e+02	-3.033743e-02
4.104938e+02	-3.068765e-02
4.128648e+02	-3.104190e-02
4.152495e+02	-3.140022e-02
4.176480e+02	-3.176267e-02
4.200603e+02	-3.212928e-02
4.224866e+02	-3.250011e-02
4.249268e+02	-3.287521e-02
4.273812e+02	-3.325461e-02
4.298497e+02	-3.363838e-02
4.323325e+02	-3.402656e-02
4.348297e+02	-3.441920e-02
4.373412e+02	-3.481636e-02
4.398673e+02	-3.521807e-02
4.424079e+02	-3.562441e-02
4.449633e+02	-3.603541e-02
4.475334e+02	-3.645113e-02
4.501183e+02	-3.687163e-02
4.527182e+02	-3.729696e-02
4.553330e+02	-3.772718e-02
4.579630e+02	-3.816233e-02
4.606082e+02	-3.860249e-02
4.632687e+02	-3.904769e-02
4.659445e+02	-3.949801e-02
4.686358e+02	-3.995349e-02
4.713426e+02	-4.041421e-02
4.740650e+02	-4.088021e-02
4.768032e+02	-4.135156e-02
4.795572e+02	-4.182832e-02
4.823271e+02	-4.231054e-02
4.851130e+02	-4.279830e-02
4.879150e+02	-4.329166e-02
4.907332e+02	-4.379067e-02
4.935676e+02	-4.429541e-02
4.964185e+02	-4.480593e-02
4.992858e+02	-4.532230e-02
5.021696e+02	-4.584460e-02
5.050701e+02	-4.637288e-02
5.079874e+02	-4.690722e-02
5.109215e+02	-4.744768e-02
5.138726e+02	-4.799433e-02
5.168407e+02	-4.854725e-02
5.198259e+02	-4.910650e-02
5.228284e+02	-4.967215e-02
5.258482e+02	-5.024428e-02
5.288855e+02	-5.082297e-02
5.319403e+02	-5.140827e-02
5.350128e+02	-5.200028e-02
5.381030e+02	-5.259907e-02
5.412111e+02	-5.320471e-02
5.443371e+02	-5.381728e-02
5.474812e+02	-5.443685e-02
5.506434e+02	-5.506352e-02
5.538239e+02	-5.569735e-02
5.570228e+02	-5.633843e-02
5.602401e+02	-5.698684e-02
5.634760e+02	-5.764266e-02
5.667306e+02	-5.830598e-02
5.700040e+02	-5.897688e-02
5.732964e+02	-5.965545e-02
5.766077e+02	-6.034177e-02
5.799382e+02	-6.103593e-02
5.832879e+02	-6.173802e-02
5.866569e+02	-6.244813e-02
5.900454e+02	-6.316634e-02
5.934535e+02	-6.389276e-02
5.968813e+02	-6.462747e-02
6.003288e+02	-6.537056e-02
6.037963e+02	-6.612213e-02
6.072838e+02	-6.688227e-02
6.107914e+02	-6.765109e-02
6.143194e+02	-6.842867e-02
6.178676e+02	-6.921512e-02
6.214364e+02	-7.001053e-02
6.250258e+02	-7.081501e-02
6.286359e+02	-7.162866e-02
6.322669e+02	-7.245158e-02
6.359189e+02	-7.328387e-02
6.395919e+02	-7.412564e-02
6.432862e+02	-7.497700e-02
6.470017e+02	-7.583805e-02
6.507388e+02	-7.670890e-02
6.544974e+02	-7.758966e-02
6.582778e+02	-7.848044e-02
6.620800e+02	-7.938135e-02
6.659041e+02	-8.029252e-02
6.697504e+02	-8.121404e-02
6.736188e+02	-8.214604e-02
6.775096e+02	-8.308863e-02
6.814229e+02	-8.404193e-02
6.853587e+02	-8.500606e-02
6.893173e+02	-8.598114e-02
6.932988e+02	-8.696730e-02
6.973033e+02	-8.796465e-02
7.013309e+02	-8.897332e-02
