Frequency(Hz)	Magnitude(dB)
1.000000e+01	-2.451722e+00
1.005776e+01	-2.473123e+00
1.011585e+01	-2.494912e+00
1.017428e+01	-2.516839e+00
1.023305e+01	-2.538826e+00
1.029215e+01	-2.561044e+00
1.035160e+01	-2.583403e+00
1.041139e+01	-2.605907e+00
1.047153e+01	-2.628440e+00
1.053201e+01	-2.651421e+00
1.059284e+01	-2.674281e+00
1.065403e+01	-2.697465e+00
1.071556e+01	-2.720618e+00
1.077746e+01	-2.743938e+00
1.083971e+01	-2.767470e+00
1.090232e+01	-2.791252e+00
1.096529e+01	-2.815128e+00
1.102862e+01	-2.838917e+00
1.109232e+01	-2.863046e+00
1.115639e+01	-2.887168e+00
1.122083e+01	-2.911651e+00
1.128564e+01	-2.935887e+00
1.135083e+01	-2.960747e+00
1.141639e+01	-2.985505e+00
1.148233e+01	-3.010397e+00
1.154865e+01	-3.035520e+00
1.161536e+01	-3.060694e+00
1.168245e+01	-3.086273e+00
1.174992e+01	-3.111735e+00
1.181779e+01	-3.137129e+00
1.188605e+01	-3.163217e+00
1.195470e+01	-3.188957e+00
1.202375e+01	-3.215181e+00
1.209320e+01	-3.241449e+00
1.216305e+01	-3.267718e+00
1.223330e+01	-3.294267e+00
1.230396e+01	-3.321115e+00
1.237503e+01	-3.347831e+00
1.244651e+01	-3.374871e+00
1.251840e+01	-3.401713e+00
1.259070e+01	-3.429276e+00
1.266343e+01	-3.456217e+00
1.273657e+01	-3.483767e+00
1.281014e+01	-3.511603e+00
1.288413e+01	-3.539428e+00
1.295855e+01	-3.567314e+00
1.303339e+01	-3.595629e+00
1.310867e+01	-3.623673e+00
1.318439e+01	-3.652074e+00
1.326054e+01	-3.680515e+00
1.333713e+01	-3.709167e+00
1.341417e+01	-3.738016e+00
1.349165e+01	-3.767086e+00
1.356958e+01	-3.796297e+00
1.364795e+01	-3.825304e+00
1.372678e+01	-3.854391e+00
1.380607e+01	-3.884219e+00
1.388581e+01	-3.914009e+00
1.396602e+01	-3.943579e+00
1.404668e+01	-3.973422e+00
1.412782e+01	-4.003109e+00
1.420942e+01	-4.033561e+00
1.429149e+01	-4.063971e+00
1.437404e+01	-4.094756e+00
1.445706e+01	-4.125121e+00
1.454057e+01	-4.155856e+00
1.462455e+01	-4.187176e+00
1.470902e+01	-4.217958e+00
1.479398e+01	-4.248950e+00
1.487943e+01	-4.280279e+00
1.496537e+01	-4.311871e+00
1.505181e+01	-4.342937e+00
1.513875e+01	-4.374882e+00
1.522619e+01	-4.406524e+00
1.531414e+01	-4.438666e+00
1.540259e+01	-4.471013e+00
1.549156e+01	-4.503079e+00
1.558103e+01	-4.535370e+00
1.567103e+01	-4.567755e+00
1.576155e+01	-4.600412e+00
1.585258e+01	-4.633301e+00
1.594415e+01	-4.666088e+00
1.603624e+01	-4.699277e+00
1.612886e+01	-4.732582e+00
1.622202e+01	-4.765515e+00
1.631572e+01	-4.798969e+00
1.640996e+01	-4.832454e+00
1.650474e+01	-4.866087e+00
1.660008e+01	-4.899976e+00
1.669596e+01	-4.933880e+00
1.679239e+01	-4.967671e+00
1.688938e+01	-5.001861e+00
1.698694e+01	-5.035885e+00
1.708505e+01	-5.070584e+00
1.718373e+01	-5.104815e+00
1.728299e+01	-5.139723e+00
1.738281e+01	-5.174601e+00
1.748322e+01	-5.209533e+00
1.758420e+01	-5.244475e+00
1.768576e+01	-5.279362e+00
1.778792e+01	-5.314790e+00
1.789066e+01	-5.350328e+00
1.799399e+01	-5.385918e+00
1.809793e+01	-5.421191e+00
1.820246e+01	-5.457110e+00
1.830760e+01	-5.492701e+00
1.841334e+01	-5.528708e+00
1.851969e+01	-5.564877e+00
1.862666e+01	-5.600967e+00
1.873425e+01	-5.637684e+00
1.884246e+01	-5.673691e+00
1.895129e+01	-5.710321e+00
1.906075e+01	-5.746802e+00
1.917085e+01	-5.783925e+00
1.928158e+01	-5.820410e+00
1.939295e+01	-5.857648e+00
1.950496e+01	-5.894490e+00
1.961762e+01	-5.931949e+00
1.973093e+01	-5.969124e+00
1.984490e+01	-6.006604e+00
1.995952e+01	-6.044185e+00
2.007480e+01	-6.081905e+00
2.019076e+01	-6.119509e+00
2.030738e+01	-6.157426e+00
2.042467e+01	-6.195614e+00
2.054264e+01	-6.233416e+00
2.066130e+01	-6.271667e+00
2.078064e+01	-6.309985e+00
2.090066e+01	-6.348429e+00
2.102139e+01	-6.386413e+00
2.114280e+01	-6.425222e+00
2.126492e+01	-6.464185e+00
2.138775e+01	-6.502764e+00
2.151128e+01	-6.541863e+00
2.163553e+01	-6.580932e+00
2.176050e+01	-6.619402e+00
2.188619e+01	-6.658900e+00
2.201260e+01	-6.698524e+00
2.213974e+01	-6.737448e+00
2.226762e+01	-6.776920e+00
2.239624e+01	-6.816569e+00
2.252560e+01	-6.856111e+00
2.265571e+01	-6.895769e+00
2.278656e+01	-6.935917e+00
2.291818e+01	-6.975572e+00
2.305055e+01	-7.016247e+00
2.318369e+01	-7.056266e+00
2.331760e+01	-7.096417e+00
2.345228e+01	-7.136511e+00
2.358774e+01	-7.176791e+00
2.372398e+01	-7.217263e+00
2.386101e+01	-7.257592e+00
2.399883e+01	-7.298855e+00
2.413745e+01	-7.339302e+00
2.427686e+01	-7.380488e+00
2.441709e+01	-7.421320e+00
2.455812e+01	-7.462202e+00
2.469997e+01	-7.502827e+00
2.484263e+01	-7.544821e+00
2.498612e+01	-7.585613e+00
2.513044e+01	-7.627076e+00
2.527559e+01	-7.668535e+00
2.542158e+01	-7.710032e+00
2.556842e+01	-7.751576e+00
2.571610e+01	-7.793107e+00
2.586463e+01	-7.834621e+00
2.601403e+01	-7.876632e+00
2.616428e+01	-7.918547e+00
2.631541e+01	-7.960574e+00
2.646740e+01	-8.002744e+00
2.662028e+01	-8.044864e+00
2.677404e+01	-8.087413e+00
2.692868e+01	-8.129502e+00
2.708422e+01	-8.171680e+00
2.724066e+01	-8.213879e+00
2.739800e+01	-8.256840e+00
2.755625e+01	-8.299450e+00
2.771541e+01	-8.341793e+00
2.787550e+01	-8.385012e+00
2.803650e+01	-8.427648e+00
2.819844e+01	-8.470497e+00
2.836131e+01	-8.513697e+00
2.852513e+01	-8.556320e+00
2.868989e+01	-8.599640e+00
2.885560e+01	-8.642947e+00
2.902227e+01	-8.686002e+00
2.918990e+01	-8.729491e+00
2.935850e+01	-8.772610e+00
2.952807e+01	-8.816018e+00
2.969863e+01	-8.859457e+00
2.987016e+01	-8.903243e+00
3.004269e+01	-8.946356e+00
3.021622e+01	-8.990593e+00
3.039075e+01	-9.034162e+00
3.056628e+01	-9.077718e+00
3.074283e+01	-9.121564e+00
3.092040e+01	-9.166078e+00
3.109900e+01	-9.209720e+00
3.127862e+01	-9.253885e+00
3.145929e+01	-9.297730e+00
3.164099e+01	-9.341760e+00
3.182375e+01	-9.386557e+00
3.200756e+01	-9.430793e+00
3.219244e+01	-9.474522e+00
3.237838e+01	-9.518890e+00
3.256540e+01	-9.563951e+00
3.275349e+01	-9.608358e+00
3.294268e+01	-9.652622e+00
3.313295e+01	-9.697529e+00
3.332433e+01	-9.741934e+00
3.351681e+01	-9.787511e+00
3.371040e+01	-9.831615e+00
3.390511e+01	-9.876624e+00
3.410094e+01	-9.921654e+00
3.429791e+01	-9.966160e+00
3.449601e+01	-1.001146e+01
3.469526e+01	-1.005659e+01
3.489566e+01	-1.010211e+01
3.509721e+01	-1.014674e+01
3.529993e+01	-1.019173e+01
3.550382e+01	-1.023687e+01
3.570889e+01	-1.028262e+01
3.591515e+01	-1.032816e+01
3.612259e+01	-1.037336e+01
3.633123e+01	-1.041916e+01
3.654108e+01	-1.046422e+01
3.675214e+01	-1.050952e+01
3.696442e+01	-1.055547e+01
3.717792e+01	-1.060107e+01
3.739266e+01	-1.064680e+01
3.760864e+01	-1.069249e+01
3.782587e+01	-1.073796e+01
3.804435e+01	-1.078389e+01
3.826409e+01	-1.082970e+01
3.848510e+01	-1.087594e+01
3.870739e+01	-1.092193e+01
3.893096e+01	-1.096818e+01
3.915583e+01	-1.101383e+01
3.938199e+01	-1.106018e+01
3.960946e+01	-1.110585e+01
3.983824e+01	-1.115230e+01
4.006834e+01	-1.119832e+01
4.029978e+01	-1.124519e+01
4.053255e+01	-1.129147e+01
4.076666e+01	-1.133700e+01
4.100213e+01	-1.138333e+01
4.123896e+01	-1.142956e+01
4.147715e+01	-1.147586e+01
4.171672e+01	-1.152385e+01
4.195767e+01	-1.156965e+01
4.220002e+01	-1.161655e+01
4.244377e+01	-1.166264e+01
4.268892e+01	-1.170930e+01
4.293549e+01	-1.175582e+01
4.318348e+01	-1.180286e+01
4.343291e+01	-1.184955e+01
4.368377e+01	-1.189655e+01
4.393609e+01	-1.194335e+01
4.418986e+01	-1.199014e+01
4.444510e+01	-1.203682e+01
4.470182e+01	-1.208399e+01
4.496001e+01	-1.213085e+01
4.521970e+01	-1.217759e+01
4.548089e+01	-1.222457e+01
4.574358e+01	-1.227167e+01
4.600779e+01	-1.231937e+01
4.627353e+01	-1.236578e+01
4.654081e+01	-1.241280e+01
4.680963e+01	-1.245993e+01
4.708000e+01	-1.250779e+01
4.735193e+01	-1.255490e+01
4.762543e+01	-1.260222e+01
4.790051e+01	-1.264884e+01
4.817719e+01	-1.269580e+01
4.845545e+01	-1.274406e+01
4.873533e+01	-1.279107e+01
4.901682e+01	-1.283868e+01
4.929994e+01	-1.288631e+01
4.958470e+01	-1.293390e+01
4.987110e+01	-1.297978e+01
5.015915e+01	-1.302904e+01
5.044887e+01	-1.307605e+01
5.074026e+01	-1.312371e+01
5.103333e+01	-1.317111e+01
5.132810e+01	-1.321944e+01
5.162457e+01	-1.326626e+01
5.192275e+01	-1.331435e+01
5.222265e+01	-1.336187e+01
5.252429e+01	-1.340966e+01
5.282767e+01	-1.345793e+01
5.313280e+01	-1.350575e+01
5.343969e+01	-1.355259e+01
5.374836e+01	-1.360114e+01
5.405880e+01	-1.364863e+01
5.437105e+01	-1.369734e+01
5.468509e+01	-1.374474e+01
5.500095e+01	-1.379277e+01
5.531863e+01	-1.384045e+01
5.563815e+01	-1.388792e+01
5.595951e+01	-1.393730e+01
5.628273e+01	-1.398474e+01
5.660782e+01	-1.403195e+01
5.693479e+01	-1.408075e+01
5.726364e+01	-1.412849e+01
5.759439e+01	-1.417648e+01
5.792705e+01	-1.422501e+01
5.826164e+01	-1.427398e+01
5.859815e+01	-1.431985e+01
5.893662e+01	-1.436945e+01
5.927703e+01	-1.441740e+01
5.961941e+01	-1.446556e+01
5.996377e+01	-1.451411e+01
6.031012e+01	-1.456195e+01
6.065847e+01	-1.461053e+01
6.100883e+01	-1.465777e+01
6.136121e+01	-1.470757e+01
6.171563e+01	-1.475545e+01
6.207210e+01	-1.480401e+01
6.243063e+01	-1.485313e+01
6.279122e+01	-1.490130e+01
6.315390e+01	-1.494903e+01
6.351868e+01	-1.499785e+01
6.388556e+01	-1.504645e+01
6.425456e+01	-1.509363e+01
6.462569e+01	-1.514359e+01
6.499897e+01	-1.519071e+01
6.537440e+01	-1.524028e+01
6.575200e+01	-1.528900e+01
6.613178e+01	-1.533630e+01
6.651375e+01	-1.538580e+01
6.689793e+01	-1.543464e+01
6.728433e+01	-1.548228e+01
6.767297e+01	-1.553154e+01
6.806384e+01	-1.558014e+01
6.845698e+01	-1.562886e+01
6.885238e+01	-1.567771e+01
6.925007e+01	-1.572559e+01
6.965005e+01	-1.577545e+01
7.005235e+01	-1.582375e+01
7.045697e+01	-1.587290e+01
7.086393e+01	-1.592028e+01
7.127323e+01	-1.596961e+01
7.168490e+01	-1.601808e+01
7.209895e+01	-1.606673e+01
7.251539e+01	-1.611582e+01
7.293424e+01	-1.616388e+01
7.335551e+01	-1.621328e+01
7.377920e+01	-1.626346e+01
7.420535e+01	-1.631139e+01
7.463396e+01	-1.636006e+01
7.506504e+01	-1.641020e+01
7.549861e+01	-1.645770e+01
7.593469e+01	-1.650686e+01
7.637328e+01	-1.655569e+01
7.681441e+01	-1.660648e+01
7.725809e+01	-1.665478e+01
7.770433e+01	-1.670266e+01
7.815315e+01	-1.675228e+01
7.860456e+01	-1.680068e+01
7.905857e+01	-1.684954e+01
7.951521e+01	-1.689846e+01
7.997449e+01	-1.694657e+01
8.043642e+01	-1.699603e+01
8.090102e+01	-1.704606e+01
8.136830e+01	-1.709550e+01
8.183828e+01	-1.714407e+01
8.231097e+01	-1.719291e+01
8.278640e+01	-1.724176e+01
8.326457e+01	-1.728962e+01
8.374550e+01	-1.733960e+01
8.422921e+01	-1.738908e+01
8.471572e+01	-1.743778e+01
8.520503e+01	-1.748745e+01
8.569717e+01	-1.753645e+01
8.619215e+01	-1.758509e+01
8.669000e+01	-1.763452e+01
8.719071e+01	-1.768399e+01
8.769432e+01	-1.773339e+01
8.820084e+01	-1.778249e+01
8.871029e+01	-1.783193e+01
8.922267e+01	-1.788128e+01
8.973802e+01	-1.793076e+01
9.025634e+01	-1.797868e+01
9.077766e+01	-1.802822e+01
9.130199e+01	-1.807791e+01
9.182935e+01	-1.812746e+01
9.235975e+01	-1.817639e+01
9.289321e+01	-1.822651e+01
9.342976e+01	-1.827485e+01
9.396941e+01	-1.832427e+01
9.451217e+01	-1.837371e+01
9.505807e+01	-1.842221e+01
9.560712e+01	-1.847147e+01
9.615934e+01	-1.852182e+01
9.671476e+01	-1.857127e+01
9.727338e+01	-1.862094e+01
9.783522e+01	-1.866888e+01
9.840032e+01	-1.871904e+01
9.896867e+01	-1.876854e+01
9.954031e+01	-1.881765e+01
1.001153e+02	-1.886552e+01
1.006935e+02	-1.891703e+01
1.012751e+02	-1.896559e+01
1.018601e+02	-1.901584e+01
1.024484e+02	-1.906599e+01
1.030402e+02	-1.911357e+01
1.036353e+02	-1.916463e+01
1.042339e+02	-1.921293e+01
1.048360e+02	-1.926108e+01
1.054415e+02	-1.931195e+01
1.060505e+02	-1.936176e+01
1.066631e+02	-1.940829e+01
1.072791e+02	-1.945936e+01
1.078988e+02	-1.951045e+01
1.085220e+02	-1.956026e+01
1.091488e+02	-1.960816e+01
1.097793e+02	-1.965826e+01
1.104133e+02	-1.970788e+01
1.110511e+02	-1.975793e+01
1.116925e+02	-1.980528e+01
1.123376e+02	-1.985546e+01
1.129865e+02	-1.990588e+01
1.136391e+02	-1.995531e+01
1.142955e+02	-2.000318e+01
1.149556e+02	-2.005331e+01
1.156196e+02	-2.010352e+01
1.162874e+02	-2.015368e+01
1.169591e+02	-2.020251e+01
1.176347e+02	-2.025202e+01
1.183141e+02	-2.030227e+01
1.189975e+02	-2.035252e+01
1.196848e+02	-2.040248e+01
1.203761e+02	-2.045110e+01
1.210714e+02	-2.050047e+01
1.217707e+02	-2.055104e+01
1.224740e+02	-2.059898e+01
1.231814e+02	-2.064969e+01
1.238929e+02	-2.069835e+01
1.246085e+02	-2.074808e+01
1.253283e+02	-2.079808e+01
1.260522e+02	-2.084841e+01
1.267802e+02	-2.089619e+01
1.275125e+02	-2.094686e+01
1.282490e+02	-2.099693e+01
1.289898e+02	-2.104787e+01
1.297348e+02	-2.109433e+01
1.304842e+02	-2.114631e+01
1.312378e+02	-2.119412e+01
1.319959e+02	-2.124420e+01
1.327583e+02	-2.129420e+01
1.335251e+02	-2.134548e+01
1.342963e+02	-2.139301e+01
1.350720e+02	-2.144334e+01
1.358522e+02	-2.149207e+01
1.366368e+02	-2.154365e+01
1.374260e+02	-2.159065e+01
1.382198e+02	-2.164162e+01
1.390182e+02	-2.169200e+01
1.398211e+02	-2.174242e+01
1.406287e+02	-2.179080e+01
1.414410e+02	-2.184072e+01
1.422579e+02	-2.189017e+01
1.430796e+02	-2.194000e+01
1.439060e+02	-2.199048e+01
1.447372e+02	-2.204012e+01
1.455732e+02	-2.208998e+01
1.464141e+02	-2.214053e+01
1.472597e+02	-2.219147e+01
1.481103e+02	-2.223877e+01
1.489658e+02	-2.228907e+01
1.498262e+02	-2.233789e+01
1.506916e+02	-2.238907e+01
1.515620e+02	-2.243793e+01
1.524374e+02	-2.248902e+01
1.533179e+02	-2.253855e+01
1.542034e+02	-2.258783e+01
1.550941e+02	-2.263715e+01
1.559899e+02	-2.268652e+01
1.568909e+02	-2.273725e+01
1.577971e+02	-2.278503e+01
1.587085e+02	-2.283504e+01
1.596252e+02	-2.288569e+01
1.605472e+02	-2.293582e+01
1.614745e+02	-2.298712e+01
1.624072e+02	-2.303611e+01
1.633453e+02	-2.308644e+01
1.642887e+02	-2.313456e+01
1.652377e+02	-2.318594e+01
1.661921e+02	-2.323377e+01
1.671520e+02	-2.328430e+01
1.681175e+02	-2.333329e+01
1.690885e+02	-2.338417e+01
1.700651e+02	-2.343355e+01
1.710474e+02	-2.348394e+01
1.720354e+02	-2.353438e+01
1.730291e+02	-2.358423e+01
1.740285e+02	-2.363388e+01
1.750337e+02	-2.368335e+01
1.760446e+02	-2.373039e+01
1.770615e+02	-2.378221e+01
1.780842e+02	-2.383081e+01
1.791128e+02	-2.388051e+01
1.801473e+02	-2.393359e+01
1.811878e+02	-2.398353e+01
1.822344e+02	-2.403293e+01
1.832870e+02	-2.408075e+01
1.843456e+02	-2.413023e+01
1.854104e+02	-2.418311e+01
1.864813e+02	-2.423161e+01
1.875584e+02	-2.428199e+01
1.886418e+02	-2.433114e+01
1.897313e+02	-2.438335e+01
1.908272e+02	-2.442936e+01
1.919294e+02	-2.448018e+01
1.930380e+02	-2.453058e+01
1.941530e+02	-2.457944e+01
1.952744e+02	-2.462907e+01
1.964023e+02	-2.468146e+01
1.975367e+02	-2.473056e+01
1.986777e+02	-2.478182e+01
1.998252e+02	-2.483264e+01
2.009794e+02	-2.487894e+01
2.021403e+02	-2.492665e+01
2.033078e+02	-2.498169e+01
2.044821e+02	-2.503051e+01
2.056632e+02	-2.508040e+01
2.068511e+02	-2.512831e+01
2.080459e+02	-2.517902e+01
2.092475e+02	-2.522853e+01
2.104561e+02	-2.528232e+01
2.116717e+02	-2.532747e+01
2.128943e+02	-2.537813e+01
2.141240e+02	-2.542825e+01
2.153608e+02	-2.548017e+01
2.166047e+02	-2.552739e+01
2.178558e+02	-2.557963e+01
2.191141e+02	-2.562976e+01
2.203797e+02	-2.567766e+01
2.216526e+02	-2.573071e+01
2.229329e+02	-2.577817e+01
2.242205e+02	-2.582791e+01
2.255156e+02	-2.587540e+01
2.268182e+02	-2.592852e+01
2.281283e+02	-2.597623e+01
2.294459e+02	-2.603025e+01
2.307712e+02	-2.607644e+01
2.321041e+02	-2.613053e+01
2.334447e+02	-2.617787e+01
2.347931e+02	-2.622556e+01
2.361493e+02	-2.627529e+01
2.375133e+02	-2.632873e+01
2.388851e+02	-2.637793e+01
2.402649e+02	-2.642843e+01
2.416527e+02	-2.648030e+01
2.430484e+02	-2.652801e+01
2.444523e+02	-2.657395e+01
2.458642e+02	-2.662819e+01
2.472843e+02	-2.668119e+01
2.487126e+02	-2.672585e+01
2.501492e+02	-2.677590e+01
2.515940e+02	-2.682562e+01
2.530472e+02	-2.687687e+01
2.545088e+02	-2.692621e+01
2.559789e+02	-2.698160e+01
2.574574e+02	-2.702852e+01
2.589444e+02	-2.707421e+01
2.604401e+02	-2.713013e+01
2.619444e+02	-2.717436e+01
2.634574e+02	-2.722578e+01
2.649791e+02	-2.727593e+01
2.665096e+02	-2.732679e+01
2.680489e+02	-2.737747e+01
2.695972e+02	-2.742801e+01
2.711544e+02	-2.747685e+01
2.727205e+02	-2.752752e+01
2.742958e+02	-2.757897e+01
2.758801e+02	-2.762860e+01
2.774736e+02	-2.767745e+01
2.790762e+02	-2.772821e+01
2.806882e+02	-2.777892e+01
2.823094e+02	-2.782816e+01
2.839400e+02	-2.787689e+01
2.855800e+02	-2.792744e+01
2.872295e+02	-2.797888e+01
2.888886e+02	-2.802785e+01
2.905572e+02	-2.807479e+01
2.922354e+02	-2.812713e+01
2.939234e+02	-2.818184e+01
2.956211e+02	-2.822772e+01
2.973286e+02	-2.827743e+01
2.990459e+02	-2.832786e+01
3.007732e+02	-2.837776e+01
3.025104e+02	-2.842530e+01
3.042577e+02	-2.847523e+01
3.060151e+02	-2.853211e+01
3.077826e+02	-2.858179e+01
3.095604e+02	-2.862892e+01
3.113484e+02	-2.868309e+01
3.131467e+02	-2.872696e+01
3.149554e+02	-2.877883e+01
3.167746e+02	-2.882542e+01
3.186043e+02	-2.887608e+01
3.204445e+02	-2.892898e+01
3.222954e+02	-2.898047e+01
3.241570e+02	-2.902913e+01
3.260293e+02	-2.907904e+01
3.279124e+02	-2.912701e+01
3.298064e+02	-2.917945e+01
3.317114e+02	-2.922475e+01
3.336273e+02	-2.927794e+01
3.355544e+02	-2.932496e+01
3.374925e+02	-2.937638e+01
3.394418e+02	-2.943168e+01
3.414024e+02	-2.947491e+01
3.433744e+02	-2.952677e+01
3.453577e+02	-2.957399e+01
3.473525e+02	-2.963251e+01
3.493588e+02	-2.968003e+01
3.513766e+02	-2.973142e+01
3.534062e+02	-2.977985e+01
3.554474e+02	-2.982853e+01
3.575005e+02	-2.988395e+01
3.595654e+02	-2.992673e+01
3.616422e+02	-2.997548e+01
3.637311e+02	-3.003297e+01
3.658320e+02	-3.007679e+01
3.679450e+02	-3.012768e+01
3.700702e+02	-3.017693e+01
3.722077e+02	-3.023037e+01
3.743576e+02	-3.028208e+01
3.765199e+02	-3.033076e+01
3.786946e+02	-3.038058e+01
3.808820e+02	-3.043131e+01
3.830819e+02	-3.048220e+01
3.852946e+02	-3.052626e+01
3.875200e+02	-3.057695e+01
3.897583e+02	-3.063040e+01
3.920096e+02	-3.068444e+01
3.942738e+02	-3.073095e+01
3.965511e+02	-3.078177e+01
3.988416e+02	-3.083541e+01
4.011452e+02	-3.088234e+01
4.034622e+02	-3.092710e+01
4.057926e+02	-3.097961e+01
4.081365e+02	-3.102786e+01
4.104938e+02	-3.108404e+01
4.128648e+02	-3.113078e+01
4.152495e+02	-3.118266e+01
4.176480e+02	-3.122933e+01
4.200603e+02	-3.127726e+01
4.224866e+02	-3.132222e+01
4.249268e+02	-3.138806e+01
4.273812e+02	-3.143278e+01
4.298497e+02	-3.148449e+01
4.323325e+02	-3.153614e+01
4.348297e+02	-3.158769e+01
4.373412e+02	-3.163445e+01
4.398673e+02	-3.167941e+01
4.424079e+02	-3.173416e+01
4.449633e+02	-3.178843e+01
4.475334e+02	-3.183354e+01
4.501183e+02	-3.188006e+01
4.527182e+02	-3.193604e+01
4.553330e+02	-3.198076e+01
4.579630e+02	-3.203616e+01
4.606082e+02	-3.208413e+01
4.632687e+02	-3.213485e+01
4.659445e+02	-3.218648e+01
4.686358e+02	-3.224002e+01
4.713426e+02	-3.228855e+01
4.740650e+02	-3.233513e+01
4.768032e+02	-3.238687e+01
4.795572e+02	-3.242815e+01
4.823271e+02	-3.248702e+01
4.851130e+02	-3.253474e+01
4.879150e+02	-3.257855e+01
4.907332e+02	-3.263821e+01
4.935676e+02	-3.268475e+01
4.964185e+02	-3.273409e+01
4.992858e+02	-3.278641e+01
5.021696e+02	-3.283232e+01
5.050701e+02	-3.287984e+01
5.079874e+02	-3.294667e+01
5.109215e+02	-3.298952e+01
5.138726e+02	-3.303480e+01
5.168407e+02	-3.308656e+01
5.198259e+02	-3.313361e+01
5.228284e+02	-3.319077e+01
5.258482e+02	-3.324101e+01
5.288855e+02	-3.328614e+01
5.319403e+02	-3.333388e+01
5.350128e+02	-3.339083e+01
5.381030e+02	-3.344442e+01
5.412111e+02	-3.349490e+01
5.443371e+02	-3.354595e+01
5.474812e+02	-3.358977e+01
5.506434e+02	-3.364144e+01
5.538239e+02	-3.369004e+01
5.570228e+02	-3.375073e+01
5.602401e+02	-3.379666e+01
5.634760e+02	-3.384983e+01
5.667306e+02	-3.390197e+01
5.700040e+02	-3.393944e+01
5.732964e+02	-3.399771e+01
5.766077e+02	-3.404653e+01
5.799382e+02	-3.409939e+01
5.832879e+02	-3.414687e+01
5.866569e+02	-3.419179e+01
5.900454e+02	-3.424636e+01
5.934535e+02	-3.430581e+01
5.968813e+02	-3.434213e+01
6.003288e+02	-3.440002e+01
6.037963e+02	-3.444768e+01
6.072838e+02	-3.449991e+01
6.107914e+02	-3.454470e+01
6.143194e+02	-3.460141e+01
6.178676e+02	-3.464319e+01
6.214364e+02	-3.470032e+01
6.250258e+02	-3.474504e+01
6.286359e+02	-3.479229e+01
6.322669e+02	-3.485006e+01
6.359189e+02	-3.489696e+01
6.395919e+02	-3.494928e+01
6.432862e+02	-3.499865e+01
6.470017e+02	-3.504983e+01
6.507388e+02	-3.510538e+01
6.544974e+02	-3.515199e+01
6.582778e+02	-3.520392e+01
6.620800e+02	-3.525419e+01
6.659041e+02	-3.530906e+01
6.697504e+02	-3.534569e+01
6.736188e+02	-3.539570e+01
6.775096e+02	-3.545454e+01
6.814229e+02	-3.550473e+01
6.853587e+02	-3.556427e+01
6.893173e+02	-3.560405e+01
6.932988e+02	-3.564943e+01
6.973033e+02	-3.571165e+01
7.013309e+02	-3.575737e+01
