Frequency(Hz)	Magnitude(dB)
1.000000e+01	-1.614672e-05
1.005776e+01	-1.633379e-05
1.011585e+01	-1.652302e-05
1.017428e+01	-1.671444e-05
1.023305e+01	-1.690808e-05
1.029215e+01	-1.710397e-05
1.035160e+01	-1.730212e-05
1.041139e+01	-1.750257e-05
1.047153e+01	-1.770534e-05
1.053201e+01	-1.791046e-05
1.059284e+01	-1.811796e-05
1.065403e+01	-1.832786e-05
1.071556e+01	-1.854019e-05
1.077746e+01	-1.875499e-05
1.083971e+01	-1.897227e-05
1.090232e+01	-1.919207e-05
1.096529e+01	-1.941441e-05
1.102862e+01	-1.963933e-05
1.109232e+01	-1.986686e-05
1.115639e+01	-2.009702e-05
1.122083e+01	-2.032985e-05
1.128564e+01	-2.056538e-05
1.135083e+01	-2.080363e-05
1.141639e+01	-2.104465e-05
1.148233e+01	-2.128845e-05
1.154865e+01	-2.153509e-05
1.161536e+01	-2.178458e-05
1.168245e+01	-2.203696e-05
1.174992e+01	-2.229226e-05
1.181779e+01	-2.255052e-05
1.188605e+01	-2.281177e-05
1.195470e+01	-2.307605e-05
1.202375e+01	-2.334340e-05
1.209320e+01	-2.361383e-05
1.216305e+01	-2.388741e-05
1.223330e+01	-2.416415e-05
1.230396e+01	-2.444410e-05
1.237503e+01	-2.472729e-05
1.244651e+01	-2.501376e-05
1.251840e+01	-2.530355e-05
1.259070e+01	-2.559670e-05
1.266343e+01	-2.589324e-05
1.273657e+01	-2.619322e-05
1.281014e+01	-2.649668e-05
1.288413e+01	-2.680365e-05
1.295855e+01	-2.711417e-05
1.303339e+01	-2.742830e-05
1.310867e+01	-2.774606e-05
1.318439e+01	-2.806751e-05
1.326054e+01	-2.839267e-05
1.333713e+01	-2.872161e-05
1.341417e+01	-2.905436e-05
1.349165e+01	-2.939096e-05
1.356958e+01	-2.973146e-05
1.364795e+01	-3.007591e-05
1.372678e+01	-3.042434e-05
1.380607e+01	-3.077682e-05
1.388581e+01	-3.113337e-05
1.396602e+01	-3.149406e-05
1.404668e+01	-3.185893e-05
1.412782e+01	-3.222802e-05
1.420942e+01	-3.260139e-05
1.429149e+01	-3.297908e-05
1.437404e+01	-3.336115e-05
1.445706e+01	-3.374765e-05
1.454057e+01	-3.413863e-05
1.462455e+01	-3.453413e-05
1.470902e+01	-3.493422e-05
1.479398e+01	-3.533894e-05
1.487943e+01	-3.574835e-05
1.496537e+01	-3.616250e-05
1.505181e+01	-3.658145e-05
1.513875e+01	-3.700525e-05
1.522619e+01	-3.743397e-05
1.531414e+01	-3.786765e-05
1.540259e+01	-3.830636e-05
1.549156e+01	-3.875014e-05
1.558103e+01	-3.919907e-05
1.567103e+01	-3.965320e-05
1.576155e+01	-4.011259e-05
1.585258e+01	-4.057731e-05
1.594415e+01	-4.104740e-05
1.603624e+01	-4.152295e-05
1.612886e+01	-4.200400e-05
1.622202e+01	-4.249063e-05
1.631572e+01	-4.298289e-05
1.640996e+01	-4.348086e-05
1.650474e+01	-4.398459e-05
1.660008e+01	-4.449416e-05
1.669596e+01	-4.500964e-05
1.679239e+01	-4.553108e-05
1.688938e+01	-4.605857e-05
1.698694e+01	-4.659217e-05
1.708505e+01	-4.713195e-05
1.718373e+01	-4.767798e-05
1.728299e+01	-4.823034e-05
1.738281e+01	-4.878910e-05
1.748322e+01	-4.935433e-05
1.758420e+01	-4.992612e-05
1.768576e+01	-5.050452e-05
1.778792e+01	-5.108963e-05
1.789066e+01	-5.168151e-05
1.799399e+01	-5.228025e-05
1.809793e+01	-5.288593e-05
1.820246e+01	-5.349862e-05
1.830760e+01	-5.411842e-05
1.841334e+01	-5.474539e-05
1.851969e+01	-5.537963e-05
1.862666e+01	-5.602121e-05
1.873425e+01	-5.667023e-05
1.884246e+01	-5.732676e-05
1.895129e+01	-5.799091e-05
1.906075e+01	-5.866274e-05
1.917085e+01	-5.934236e-05
1.928158e+01	-6.002985e-05
1.939295e+01	-6.072531e-05
1.950496e+01	-6.142883e-05
1.961762e+01	-6.214049e-05
1.973093e+01	-6.286040e-05
1.984490e+01	-6.358865e-05
1.995952e+01	-6.432534e-05
2.007480e+01	-6.507056e-05
2.019076e+01	-6.582441e-05
2.030738e+01	-6.658700e-05
2.042467e+01	-6.735843e-05
2.054264e+01	-6.813879e-05
2.066130e+01	-6.892819e-05
2.078064e+01	-6.972673e-05
2.090066e+01	-7.053453e-05
2.102139e+01	-7.135169e-05
2.114280e+01	-7.217831e-05
2.126492e+01	-7.301451e-05
2.138775e+01	-7.386039e-05
2.151128e+01	-7.471608e-05
2.163553e+01	-7.558168e-05
2.176050e+01	-7.645731e-05
2.188619e+01	-7.734308e-05
2.201260e+01	-7.823911e-05
2.213974e+01	-7.914552e-05
2.226762e+01	-8.006244e-05
2.239624e+01	-8.098998e-05
2.252560e+01	-8.192826e-05
2.265571e+01	-8.287741e-05
2.278656e+01	-8.383756e-05
2.291818e+01	-8.480883e-05
2.305055e+01	-8.579136e-05
2.318369e+01	-8.678526e-05
2.331760e+01	-8.779068e-05
2.345228e+01	-8.880775e-05
2.358774e+01	-8.983661e-05
2.372398e+01	-9.087738e-05
2.386101e+01	-9.193021e-05
2.399883e+01	-9.299523e-05
2.413745e+01	-9.407259e-05
2.427686e+01	-9.516244e-05
2.441709e+01	-9.626491e-05
2.455812e+01	-9.738016e-05
2.469997e+01	-9.850832e-05
2.484263e+01	-9.964955e-05
2.498612e+01	-1.008040e-04
2.513044e+01	-1.019718e-04
2.527559e+01	-1.031532e-04
2.542158e+01	-1.043482e-04
2.556842e+01	-1.055571e-04
2.571610e+01	-1.067800e-04
2.586463e+01	-1.080171e-04
2.601403e+01	-1.092685e-04
2.616428e+01	-1.105344e-04
2.631541e+01	-1.118149e-04
2.646740e+01	-1.131103e-04
2.662028e+01	-1.144207e-04
2.677404e+01	-1.157463e-04
2.692868e+01	-1.170872e-04
2.708422e+01	-1.184437e-04
2.724066e+01	-1.198159e-04
2.739800e+01	-1.212040e-04
2.755625e+01	-1.226081e-04
2.771541e+01	-1.240285e-04
2.787550e+01	-1.254654e-04
2.803650e+01	-1.269190e-04
2.819844e+01	-1.283893e-04
2.836131e+01	-1.298767e-04
2.852513e+01	-1.313814e-04
2.868989e+01	-1.329034e-04
2.885560e+01	-1.344431e-04
2.902227e+01	-1.360007e-04
2.918990e+01	-1.375763e-04
2.935850e+01	-1.391701e-04
2.952807e+01	-1.407824e-04
2.969863e+01	-1.424134e-04
2.987016e+01	-1.440632e-04
3.004269e+01	-1.457322e-04
3.021622e+01	-1.474205e-04
3.039075e+01	-1.491284e-04
3.056628e+01	-1.508561e-04
3.074283e+01	-1.526038e-04
3.092040e+01	-1.543717e-04
3.109900e+01	-1.561601e-04
3.127862e+01	-1.579692e-04
3.145929e+01	-1.597993e-04
3.164099e+01	-1.616506e-04
3.182375e+01	-1.635233e-04
3.200756e+01	-1.654177e-04
3.219244e+01	-1.673341e-04
3.237838e+01	-1.692727e-04
3.256540e+01	-1.712337e-04
3.275349e+01	-1.732175e-04
3.294268e+01	-1.752242e-04
3.313295e+01	-1.772542e-04
3.332433e+01	-1.793077e-04
3.351681e+01	-1.813850e-04
3.371040e+01	-1.834863e-04
3.390511e+01	-1.856120e-04
3.410094e+01	-1.877623e-04
3.429791e+01	-1.899376e-04
3.449601e+01	-1.921380e-04
3.469526e+01	-1.943639e-04
3.489566e+01	-1.966156e-04
3.509721e+01	-1.988934e-04
3.529993e+01	-2.011976e-04
3.550382e+01	-2.035285e-04
3.570889e+01	-2.058864e-04
3.591515e+01	-2.082716e-04
3.612259e+01	-2.106844e-04
3.633123e+01	-2.131252e-04
3.654108e+01	-2.155942e-04
3.675214e+01	-2.180919e-04
3.696442e+01	-2.206185e-04
3.717792e+01	-2.231743e-04
3.739266e+01	-2.257598e-04
3.760864e+01	-2.283752e-04
3.782587e+01	-2.310209e-04
3.804435e+01	-2.336973e-04
3.826409e+01	-2.364047e-04
3.848510e+01	-2.391434e-04
3.870739e+01	-2.419139e-04
3.893096e+01	-2.447164e-04
3.915583e+01	-2.475515e-04
3.938199e+01	-2.504193e-04
3.960946e+01	-2.533204e-04
3.983824e+01	-2.562551e-04
4.006834e+01	-2.592238e-04
4.029978e+01	-2.622269e-04
4.053255e+01	-2.652648e-04
4.076666e+01	-2.683379e-04
4.100213e+01	-2.714465e-04
4.123896e+01	-2.745912e-04
4.147715e+01	-2.777723e-04
4.171672e+01	-2.809903e-04
4.195767e+01	-2.842456e-04
4.220002e+01	-2.875385e-04
4.244377e+01	-2.908696e-04
4.268892e+01	-2.942393e-04
4.293549e+01	-2.976480e-04
4.318348e+01	-3.010962e-04
4.343291e+01	-3.045844e-04
4.368377e+01	-3.081130e-04
4.393609e+01	-3.116824e-04
4.418986e+01	-3.152932e-04
4.444510e+01	-3.189458e-04
4.470182e+01	-3.226408e-04
4.496001e+01	-3.263785e-04
4.521970e+01	-3.301596e-04
4.548089e+01	-3.339844e-04
4.574358e+01	-3.378536e-04
4.600779e+01	-3.417675e-04
4.627353e+01	-3.457268e-04
4.654081e+01	-3.497320e-04
4.680963e+01	-3.537836e-04
4.708000e+01	-3.578821e-04
4.735193e+01	-3.620281e-04
4.762543e+01	-3.662221e-04
4.790051e+01	-3.704647e-04
4.817719e+01	-3.747565e-04
4.845545e+01	-3.790980e-04
4.873533e+01	-3.834897e-04
4.901682e+01	-3.879323e-04
4.929994e+01	-3.924264e-04
4.958470e+01	-3.969726e-04
4.987110e+01	-4.015714e-04
5.015915e+01	-4.062235e-04
5.044887e+01	-4.109295e-04
5.074026e+01	-4.156900e-04
5.103333e+01	-4.205057e-04
5.132810e+01	-4.253771e-04
5.162457e+01	-4.303050e-04
5.192275e+01	-4.352899e-04
5.222265e+01	-4.403326e-04
5.252429e+01	-4.454337e-04
5.282767e+01	-4.505940e-04
5.313280e+01	-4.558139e-04
5.343969e+01	-4.610944e-04
5.374836e+01	-4.664360e-04
5.405880e+01	-4.718395e-04
5.437105e+01	-4.773056e-04
5.468509e+01	-4.828350e-04
5.500095e+01	-4.884285e-04
5.531863e+01	-4.940867e-04
5.563815e+01	-4.998105e-04
5.595951e+01	-5.056006e-04
5.628273e+01	-5.114578e-04
5.660782e+01	-5.173828e-04
5.693479e+01	-5.233765e-04
5.726364e+01	-5.294396e-04
5.759439e+01	-5.355729e-04
5.792705e+01	-5.417773e-04
5.826164e+01	-5.480535e-04
5.859815e+01	-5.544025e-04
5.893662e+01	-5.608250e-04
5.927703e+01	-5.673219e-04
5.961941e+01	-5.738940e-04
5.996377e+01	-5.805423e-04
6.031012e+01	-5.872676e-04
6.065847e+01	-5.940708e-04
6.100883e+01	-6.009527e-04
6.136121e+01	-6.079145e-04
6.171563e+01	-6.149568e-04
6.207210e+01	-6.220808e-04
6.243063e+01	-6.292872e-04
6.279122e+01	-6.365771e-04
6.315390e+01	-6.439515e-04
6.351868e+01	-6.514113e-04
6.388556e+01	-6.589575e-04
6.425456e+01	-6.665911e-04
6.462569e+01	-6.743132e-04
6.499897e+01	-6.821247e-04
6.537440e+01	-6.900266e-04
6.575200e+01	-6.980201e-04
6.613178e+01	-7.061062e-04
6.651375e+01	-7.142860e-04
6.689793e+01	-7.225605e-04
6.728433e+01	-7.309309e-04
6.767297e+01	-7.393982e-04
6.806384e+01	-7.479636e-04
6.845698e+01	-7.566282e-04
6.885238e+01	-7.653932e-04
6.925007e+01	-7.742597e-04
6.965005e+01	-7.832289e-04
7.005235e+01	-7.923020e-04
7.045697e+01	-8.014801e-04
7.086393e+01	-8.107646e-04
7.127323e+01	-8.201567e-04
7.168490e+01	-8.296575e-04
7.209895e+01	-8.392684e-04
7.251539e+01	-8.489906e-04
7.293424e+01	-8.588254e-04
7.335551e+01	-8.687742e-04
7.377920e+01	-8.788381e-04
7.420535e+01	-8.890187e-04
7.463396e+01	-8.993171e-04
7.506504e+01	-9.097349e-04
7.549861e+01	-9.202733e-04
7.593469e+01	-9.309337e-04
7.637328e+01	-9.417177e-04
7.681441e+01	-9.526266e-04
7.725809e+01	-9.636618e-04
7.770433e+01	-9.748248e-04
7.815315e+01	-9.861171e-04
7.860456e+01	-9.975403e-04
7.905857e+01	-1.009096e-03
7.951521e+01	-1.020785e-03
7.997449e+01	-1.032610e-03
8.043642e+01	-1.044571e-03
8.090102e+01	-1.056671e-03
8.136830e+01	-1.068912e-03
8.183828e+01	-1.081294e-03
8.231097e+01	-1.093819e-03
8.278640e+01	-1.106490e-03
8.326457e+01	-1.119307e-03
8.374550e+01	-1.132273e-03
8.422921e+01	-1.145389e-03
8.471572e+01	-1.158657e-03
8.520503e+01	-1.172078e-03
8.569717e+01	-1.185655e-03
8.619215e+01	-1.199390e-03
8.669000e+01	-1.213283e-03
8.719071e+01	-1.227337e-03
8.769432e+01	-1.241554e-03
8.820084e+01	-1.255936e-03
8.871029e+01	-1.270484e-03
8.922267e+01	-1.285201e-03
8.973802e+01	-1.300088e-03
9.025634e+01	-1.315148e-03
9.077766e+01	-1.330382e-03
9.130199e+01	-1.345792e-03
9.182935e+01	-1.361381e-03
9.235975e+01	-1.377150e-03
9.289321e+01	-1.393102e-03
9.342976e+01	-1.409239e-03
9.396941e+01	-1.425563e-03
9.451217e+01	-1.442076e-03
9.505807e+01	-1.458780e-03
9.560712e+01	-1.475677e-03
9.615934e+01	-1.492771e-03
9.671476e+01	-1.510062e-03
9.727338e+01	-1.527553e-03
9.783522e+01	-1.545247e-03
9.840032e+01	-1.563146e-03
9.896867e+01	-1.581252e-03
9.954031e+01	-1.599568e-03
1.001153e+02	-1.618096e-03
1.006935e+02	-1.636838e-03
1.012751e+02	-1.655798e-03
1.018601e+02	-1.674977e-03
1.024484e+02	-1.694378e-03
1.030402e+02	-1.714004e-03
1.036353e+02	-1.733858e-03
1.042339e+02	-1.753941e-03
1.048360e+02	-1.774257e-03
1.054415e+02	-1.794808e-03
1.060505e+02	-1.815597e-03
1.066631e+02	-1.836626e-03
1.072791e+02	-1.857899e-03
1.078988e+02	-1.879419e-03
1.085220e+02	-1.901188e-03
1.091488e+02	-1.923209e-03
1.097793e+02	-1.945485e-03
1.104133e+02	-1.968019e-03
1.110511e+02	-1.990813e-03
1.116925e+02	-2.013872e-03
1.123376e+02	-2.037198e-03
1.129865e+02	-2.060794e-03
1.136391e+02	-2.084663e-03
1.142955e+02	-2.108808e-03
1.149556e+02	-2.133233e-03
1.156196e+02	-2.157941e-03
1.162874e+02	-2.182935e-03
1.169591e+02	-2.208219e-03
1.176347e+02	-2.233795e-03
1.183141e+02	-2.259667e-03
1.189975e+02	-2.285839e-03
1.196848e+02	-2.312314e-03
1.203761e+02	-2.339096e-03
1.210714e+02	-2.366188e-03
1.217707e+02	-2.393593e-03
1.224740e+02	-2.421316e-03
1.231814e+02	-2.449359e-03
1.238929e+02	-2.477728e-03
1.246085e+02	-2.506424e-03
1.253283e+02	-2.535454e-03
1.260522e+02	-2.564819e-03
1.267802e+02	-2.594524e-03
1.275125e+02	-2.624573e-03
1.282490e+02	-2.654970e-03
1.289898e+02	-2.685719e-03
1.297348e+02	-2.716824e-03
1.304842e+02	-2.748289e-03
1.312378e+02	-2.780119e-03
1.319959e+02	-2.812317e-03
1.327583e+02	-2.844888e-03
1.335251e+02	-2.877835e-03
1.342963e+02	-2.911165e-03
1.350720e+02	-2.944880e-03
1.358522e+02	-2.978985e-03
1.366368e+02	-3.013486e-03
1.374260e+02	-3.048385e-03
1.382198e+02	-3.083689e-03
1.390182e+02	-3.119402e-03
1.398211e+02	-3.155528e-03
1.406287e+02	-3.192072e-03
1.414410e+02	-3.229039e-03
1.422579e+02	-3.266434e-03
1.430796e+02	-3.304262e-03
1.439060e+02	-3.342528e-03
1.447372e+02	-3.381237e-03
1.455732e+02	-3.420394e-03
1.464141e+02	-3.460005e-03
1.472597e+02	-3.500073e-03
1.481103e+02	-3.540606e-03
1.489658e+02	-3.581608e-03
1.498262e+02	-3.623085e-03
1.506916e+02	-3.665041e-03
1.515620e+02	-3.707484e-03
1.524374e+02	-3.750417e-03
1.533179e+02	-3.793848e-03
1.542034e+02	-3.837781e-03
1.550941e+02	-3.882223e-03
1.559899e+02	-3.927179e-03
1.568909e+02	-3.972655e-03
1.577971e+02	-4.018658e-03
1.587085e+02	-4.065194e-03
1.596252e+02	-4.112268e-03
1.605472e+02	-4.159887e-03
1.614745e+02	-4.208056e-03
1.624072e+02	-4.256784e-03
1.633453e+02	-4.306075e-03
1.642887e+02	-4.355937e-03
1.652377e+02	-4.406376e-03
1.661921e+02	-4.457399e-03
1.671520e+02	-4.509012e-03
1.681175e+02	-4.561223e-03
1.690885e+02	-4.614038e-03
1.700651e+02	-4.667464e-03
1.710474e+02	-4.721508e-03
1.720354e+02	-4.776178e-03
1.730291e+02	-4.831480e-03
1.740285e+02	-4.887423e-03
1.750337e+02	-4.944012e-03
1.760446e+02	-5.001257e-03
1.770615e+02	-5.059164e-03
1.780842e+02	-5.117741e-03
1.791128e+02	-5.176996e-03
1.801473e+02	-5.236937e-03
1.811878e+02	-5.297571e-03
1.822344e+02	-5.358907e-03
1.832870e+02	-5.420952e-03
1.843456e+02	-5.483715e-03
1.854104e+02	-5.547205e-03
1.864813e+02	-5.611429e-03
1.875584e+02	-5.676396e-03
1.886418e+02	-5.742115e-03
1.897313e+02	-5.808595e-03
1.908272e+02	-5.875843e-03
1.919294e+02	-5.943869e-03
1.930380e+02	-6.012683e-03
1.941530e+02	-6.082292e-03
1.952744e+02	-6.152707e-03
1.964023e+02	-6.223937e-03
1.975367e+02	-6.295990e-03
1.986777e+02	-6.368877e-03
1.998252e+02	-6.442607e-03
2.009794e+02	-6.517191e-03
2.021403e+02	-6.592636e-03
2.033078e+02	-6.668955e-03
2.044821e+02	-6.746156e-03
2.056632e+02	-6.824251e-03
2.068511e+02	-6.903248e-03
2.080459e+02	-6.983160e-03
2.092475e+02	-7.063995e-03
2.104561e+02	-7.145766e-03
2.116717e+02	-7.228483e-03
2.128943e+02	-7.312156e-03
2.141240e+02	-7.396797e-03
2.153608e+02	-7.482416e-03
2.166047e+02	-7.569026e-03
2.178558e+02	-7.656638e-03
2.191141e+02	-7.745262e-03
2.203797e+02	-7.834912e-03
2.216526e+02	-7.925599e-03
2.229329e+02	-8.017334e-03
2.242205e+02	-8.110129e-03
2.255156e+02	-8.203998e-03
2.268182e+02	-8.298953e-03
2.281283e+02	-8.395005e-03
2.294459e+02	-8.492168e-03
2.307712e+02	-8.590454e-03
2.321041e+02	-8.689877e-03
2.334447e+02	-8.790449e-03
2.347931e+02	-8.892184e-03
2.361493e+02	-8.995095e-03
2.375133e+02	-9.099196e-03
2.388851e+02	-9.204501e-03
2.402649e+02	-9.311022e-03
2.416527e+02	-9.418775e-03
2.430484e+02	-9.527774e-03
2.444523e+02	-9.638033e-03
2.458642e+02	-9.749566e-03
2.472843e+02	-9.862389e-03
2.487126e+02	-9.976516e-03
2.501492e+02	-1.009196e-02
2.515940e+02	-1.020874e-02
2.530472e+02	-1.032687e-02
2.545088e+02	-1.044637e-02
2.559789e+02	-1.056724e-02
2.574574e+02	-1.068952e-02
2.589444e+02	-1.081320e-02
2.604401e+02	-1.093832e-02
2.619444e+02	-1.106488e-02
2.634574e+02	-1.119290e-02
2.649791e+02	-1.132240e-02
2.665096e+02	-1.145340e-02
2.680489e+02	-1.158592e-02
2.695972e+02	-1.171996e-02
2.711544e+02	-1.185555e-02
2.727205e+02	-1.199271e-02
2.742958e+02	-1.213146e-02
2.758801e+02	-1.227180e-02
2.774736e+02	-1.241377e-02
2.790762e+02	-1.255738e-02
2.806882e+02	-1.270265e-02
2.823094e+02	-1.284959e-02
2.839400e+02	-1.299823e-02
2.855800e+02	-1.314859e-02
2.872295e+02	-1.330069e-02
2.888886e+02	-1.345454e-02
2.905572e+02	-1.361017e-02
2.922354e+02	-1.376760e-02
2.939234e+02	-1.392684e-02
2.956211e+02	-1.408792e-02
2.973286e+02	-1.425087e-02
2.990459e+02	-1.441569e-02
3.007732e+02	-1.458242e-02
3.025104e+02	-1.475107e-02
3.042577e+02	-1.492167e-02
3.060151e+02	-1.509424e-02
3.077826e+02	-1.526881e-02
3.095604e+02	-1.544538e-02
3.113484e+02	-1.562400e-02
3.131467e+02	-1.580468e-02
3.149554e+02	-1.598744e-02
3.167746e+02	-1.617231e-02
3.186043e+02	-1.635932e-02
3.204445e+02	-1.654848e-02
3.222954e+02	-1.673983e-02
3.241570e+02	-1.693338e-02
3.260293e+02	-1.712917e-02
3.279124e+02	-1.732722e-02
3.298064e+02	-1.752756e-02
3.317114e+02	-1.773020e-02
3.336273e+02	-1.793518e-02
3.355544e+02	-1.814253e-02
3.374925e+02	-1.835227e-02
3.394418e+02	-1.856443e-02
3.414024e+02	-1.877904e-02
3.433744e+02	-1.899612e-02
3.453577e+02	-1.921571e-02
3.473525e+02	-1.943783e-02
3.493588e+02	-1.966251e-02
3.513766e+02	-1.988978e-02
3.534062e+02	-2.011967e-02
3.554474e+02	-2.035222e-02
3.575005e+02	-2.058744e-02
3.595654e+02	-2.082538e-02
3.616422e+02	-2.106606e-02
3.637311e+02	-2.130951e-02
3.658320e+02	-2.155577e-02
3.679450e+02	-2.180487e-02
3.700702e+02	-2.205684e-02
3.722077e+02	-2.231172e-02
3.743576e+02	-2.256953e-02
3.765199e+02	-2.283032e-02
3.786946e+02	-2.309411e-02
3.808820e+02	-2.336093e-02
3.830819e+02	-2.363084e-02
3.852946e+02	-2.390385e-02
3.875200e+02	-2.418001e-02
3.897583e+02	-2.445935e-02
3.920096e+02	-2.474191e-02
3.942738e+02	-2.502772e-02
3.965511e+02	-2.531682e-02
3.988416e+02	-2.560926e-02
4.011452e+02	-2.590506e-02
4.034622e+02	-2.620427e-02
4.057926e+02	-2.650692e-02
4.081365e+02	-2.681306e-02
4.104938e+02	-2.712272e-02
4.128648e+02	-2.743595e-02
4.152495e+02	-2.775278e-02
4.176480e+02	-2.807327e-02
4.200603e+02	-2.839743e-02
4.224866e+02	-2.872533e-02
4.249268e+02	-2.905701e-02
4.273812e+02	-2.939250e-02
4.298497e+02	-2.973185e-02
4.323325e+02	-3.007510e-02
4.348297e+02	-3.042231e-02
4.373412e+02	-3.077350e-02
4.398673e+02	-3.112874e-02
4.424079e+02	-3.148806e-02
4.449633e+02	-3.185152e-02
4.475334e+02	-3.221915e-02
4.501183e+02	-3.259102e-02
4.527182e+02	-3.296715e-02
4.553330e+02	-3.334762e-02
4.579630e+02	-3.373245e-02
4.606082e+02	-3.412171e-02
4.632687e+02	-3.451544e-02
4.659445e+02	-3.491370e-02
4.686358e+02	-3.531654e-02
4.713426e+02	-3.572400e-02
4.740650e+02	-3.613615e-02
4.768032e+02	-3.655303e-02
4.795572e+02	-3.697469e-02
4.823271e+02	-3.740121e-02
4.851130e+02	-3.783262e-02
4.879150e+02	-3.826898e-02
4.907332e+02	-3.871035e-02
4.935676e+02	-3.915680e-02
4.964185e+02	-3.960836e-02
4.992858e+02	-4.006511e-02
5.021696e+02	-4.052711e-02
5.050701e+02	-4.099440e-02
5.079874e+02	-4.146706e-02
5.109215e+02	-4.194514e-02
5.138726e+02	-4.242871e-02
5.168407e+02	-4.291782e-02
5.198259e+02	-4.341254e-02
5.228284e+02	-4.391294e-02
5.258482e+02	-4.441907e-02
5.288855e+02	-4.493101e-02
5.319403e+02	-4.544882e-02
5.350128e+02	-4.597256e-02
5.381030e+02	-4.650231e-02
5.412111e+02	-4.703813e-02
5.443371e+02	-4.758008e-02
5.474812e+02	-4.812825e-02
5.506434e+02	-4.868270e-02
5.538239e+02	-4.924349e-02
5.570228e+02	-4.981071e-02
5.602401e+02	-5.038443e-02
5.634760e+02	-5.096472e-02
5.667306e+02	-5.155164e-02
5.700040e+02	-5.214529e-02
5.732964e+02	-5.274573e-02
5.766077e+02	-5.335305e-02
5.799382e+02	-5.396731e-02
5.832879e+02	-5.458860e-02
5.866569e+02	-5.521699e-02
5.900454e+02	-5.585258e-02
5.934535e+02	-5.649543e-02
5.968813e+02	-5.714563e-02
6.003288e+02	-5.780326e-02
6.037963e+02	-5.846842e-02
6.072838e+02	-5.914117e-02
6.107914e+02	-5.982161e-02
6.143194e+02	-6.050982e-02
6.178676e+02	-6.120590e-02
6.214364e+02	-6.190993e-02
6.250258e+02	-6.262199e-02
6.286359e+02	-6.334219e-02
6.322669e+02	-6.407060e-02
6.359189e+02	-6.480734e-02
6.395919e+02	-6.555247e-02
6.432862e+02	-6.630611e-02
6.470017e+02	-6.706835e-02
6.507388e+02	-6.783928e-02
6.544974e+02	-6.861901e-02
6.582778e+02	-6.940762e-02
6.620800e+02	-7.020522e-02
6.659041e+02	-7.101191e-02
6.697504e+02	-7.182780e-02
6.736188e+02	-7.265298e-02
6.775096e+02	-7.348756e-02
6.814229e+02	-7.433164e-02
6.853587e+02	-7.518534e-02
6.893173e+02	-7.604875e-02
6.932988e+02	-7.692199e-02
6.973033e+02	-7.780517e-02
7.013309e+02	-7.869840e-02
