Frequency(Hz)	Magnitude(dB)
1.000000e+01	-1.708950e-05
1.005776e+01	-1.728749e-05
1.011585e+01	-1.748777e-05
1.017428e+01	-1.769037e-05
1.023305e+01	-1.789531e-05
1.029215e+01	-1.810264e-05
1.035160e+01	-1.831236e-05
1.041139e+01	-1.852451e-05
1.047153e+01	-1.873912e-05
1.053201e+01	-1.895622e-05
1.059284e+01	-1.917583e-05
1.065403e+01	-1.939799e-05
1.071556e+01	-1.962272e-05
1.077746e+01	-1.985006e-05
1.083971e+01	-2.008002e-05
1.090232e+01	-2.031266e-05
1.096529e+01	-2.054798e-05
1.102862e+01	-2.078604e-05
1.109232e+01	-2.102685e-05
1.115639e+01	-2.127045e-05
1.122083e+01	-2.151687e-05
1.128564e+01	-2.176615e-05
1.135083e+01	-2.201832e-05
1.141639e+01	-2.227341e-05
1.148233e+01	-2.253145e-05
1.154865e+01	-2.279248e-05
1.161536e+01	-2.305654e-05
1.168245e+01	-2.332365e-05
1.174992e+01	-2.359386e-05
1.181779e+01	-2.386720e-05
1.188605e+01	-2.414371e-05
1.195470e+01	-2.442342e-05
1.202375e+01	-2.470637e-05
1.209320e+01	-2.499260e-05
1.216305e+01	-2.528215e-05
1.223330e+01	-2.557505e-05
1.230396e+01	-2.587134e-05
1.237503e+01	-2.617107e-05
1.244651e+01	-2.647427e-05
1.251840e+01	-2.678098e-05
1.259070e+01	-2.709124e-05
1.266343e+01	-2.740510e-05
1.273657e+01	-2.772259e-05
1.281014e+01	-2.804377e-05
1.288413e+01	-2.836866e-05
1.295855e+01	-2.869732e-05
1.303339e+01	-2.902978e-05
1.310867e+01	-2.936610e-05
1.318439e+01	-2.970632e-05
1.326054e+01	-3.005047e-05
1.333713e+01	-3.039861e-05
1.341417e+01	-3.075079e-05
1.349165e+01	-3.110704e-05
1.356958e+01	-3.146742e-05
1.364795e+01	-3.183198e-05
1.372678e+01	-3.220076e-05
1.380607e+01	-3.257382e-05
1.388581e+01	-3.295119e-05
1.396602e+01	-3.333294e-05
1.404668e+01	-3.371911e-05
1.412782e+01	-3.410975e-05
1.420942e+01	-3.450492e-05
1.429149e+01	-3.490467e-05
1.437404e+01	-3.530905e-05
1.445706e+01	-3.571811e-05
1.454057e+01	-3.613192e-05
1.462455e+01	-3.655051e-05
1.470902e+01	-3.697396e-05
1.479398e+01	-3.740231e-05
1.487943e+01	-3.783562e-05
1.496537e+01	-3.827396e-05
1.505181e+01	-3.871737e-05
1.513875e+01	-3.916592e-05
1.522619e+01	-3.961967e-05
1.531414e+01	-4.007867e-05
1.540259e+01	-4.054299e-05
1.549156e+01	-4.101269e-05
1.558103e+01	-4.148783e-05
1.567103e+01	-4.196848e-05
1.576155e+01	-4.245469e-05
1.585258e+01	-4.294654e-05
1.594415e+01	-4.344408e-05
1.603624e+01	-4.394739e-05
1.612886e+01	-4.445653e-05
1.622202e+01	-4.497157e-05
1.631572e+01	-4.549258e-05
1.640996e+01	-4.601962e-05
1.650474e+01	-4.655277e-05
1.660008e+01	-4.709209e-05
1.669596e+01	-4.763766e-05
1.679239e+01	-4.818955e-05
1.688938e+01	-4.874784e-05
1.698694e+01	-4.931259e-05
1.708505e+01	-4.988389e-05
1.718373e+01	-5.046181e-05
1.728299e+01	-5.104642e-05
1.738281e+01	-5.163780e-05
1.748322e+01	-5.223604e-05
1.758420e+01	-5.284120e-05
1.768576e+01	-5.345338e-05
1.778792e+01	-5.407265e-05
1.789066e+01	-5.469909e-05
1.799399e+01	-5.533279e-05
1.809793e+01	-5.597383e-05
1.820246e+01	-5.662230e-05
1.830760e+01	-5.727828e-05
1.841334e+01	-5.794186e-05
1.851969e+01	-5.861313e-05
1.862666e+01	-5.929217e-05
1.873425e+01	-5.997909e-05
1.884246e+01	-6.067395e-05
1.895129e+01	-6.137687e-05
1.906075e+01	-6.208794e-05
1.917085e+01	-6.280724e-05
1.928158e+01	-6.353487e-05
1.939295e+01	-6.427094e-05
1.950496e+01	-6.501553e-05
1.961762e+01	-6.576875e-05
1.973093e+01	-6.653069e-05
1.984490e+01	-6.730146e-05
1.995952e+01	-6.808116e-05
2.007480e+01	-6.886989e-05
2.019076e+01	-6.966776e-05
2.030738e+01	-7.047488e-05
2.042467e+01	-7.129134e-05
2.054264e+01	-7.211726e-05
2.066130e+01	-7.295276e-05
2.078064e+01	-7.379793e-05
2.090066e+01	-7.465289e-05
2.102139e+01	-7.551776e-05
2.114280e+01	-7.639264e-05
2.126492e+01	-7.727767e-05
2.138775e+01	-7.817294e-05
2.151128e+01	-7.907859e-05
2.163553e+01	-7.999473e-05
2.176050e+01	-8.092148e-05
2.188619e+01	-8.185897e-05
2.201260e+01	-8.280732e-05
2.213974e+01	-8.376666e-05
2.226762e+01	-8.473711e-05
2.239624e+01	-8.571880e-05
2.252560e+01	-8.671187e-05
2.265571e+01	-8.771644e-05
2.278656e+01	-8.873265e-05
2.291818e+01	-8.976063e-05
2.305055e+01	-9.080052e-05
2.318369e+01	-9.185246e-05
2.331760e+01	-9.291658e-05
2.345228e+01	-9.399304e-05
2.358774e+01	-9.508196e-05
2.372398e+01	-9.618350e-05
2.386101e+01	-9.729780e-05
2.399883e+01	-9.842501e-05
2.413745e+01	-9.956528e-05
2.427686e+01	-1.007188e-04
2.441709e+01	-1.018856e-04
2.455812e+01	-1.030660e-04
2.469997e+01	-1.042600e-04
2.484263e+01	-1.054679e-04
2.498612e+01	-1.066897e-04
2.513044e+01	-1.079257e-04
2.527559e+01	-1.091761e-04
2.542158e+01	-1.104409e-04
2.556842e+01	-1.117204e-04
2.571610e+01	-1.130146e-04
2.586463e+01	-1.143239e-04
2.601403e+01	-1.156484e-04
2.616428e+01	-1.169882e-04
2.631541e+01	-1.183435e-04
2.646740e+01	-1.197145e-04
2.662028e+01	-1.211014e-04
2.677404e+01	-1.225044e-04
2.692868e+01	-1.239237e-04
2.708422e+01	-1.253593e-04
2.724066e+01	-1.268116e-04
2.739800e+01	-1.282807e-04
2.755625e+01	-1.297669e-04
2.771541e+01	-1.312703e-04
2.787550e+01	-1.327910e-04
2.803650e+01	-1.343294e-04
2.819844e+01	-1.358857e-04
2.836131e+01	-1.374599e-04
2.852513e+01	-1.390524e-04
2.868989e+01	-1.406633e-04
2.885560e+01	-1.422929e-04
2.902227e+01	-1.439414e-04
2.918990e+01	-1.456090e-04
2.935850e+01	-1.472959e-04
2.952807e+01	-1.490023e-04
2.969863e+01	-1.507285e-04
2.987016e+01	-1.524747e-04
3.004269e+01	-1.542411e-04
3.021622e+01	-1.560280e-04
3.039075e+01	-1.578356e-04
3.056628e+01	-1.596642e-04
3.074283e+01	-1.615139e-04
3.092040e+01	-1.633850e-04
3.109900e+01	-1.652778e-04
3.127862e+01	-1.671926e-04
3.145929e+01	-1.691295e-04
3.164099e+01	-1.710889e-04
3.182375e+01	-1.730710e-04
3.200756e+01	-1.750760e-04
3.219244e+01	-1.771043e-04
3.237838e+01	-1.791560e-04
3.256540e+01	-1.812316e-04
3.275349e+01	-1.833311e-04
3.294268e+01	-1.854550e-04
3.313295e+01	-1.876035e-04
3.332433e+01	-1.897769e-04
3.351681e+01	-1.919755e-04
3.371040e+01	-1.941995e-04
3.390511e+01	-1.964494e-04
3.410094e+01	-1.987252e-04
3.429791e+01	-2.010275e-04
3.449601e+01	-2.033564e-04
3.469526e+01	-2.057122e-04
3.489566e+01	-2.080954e-04
3.509721e+01	-2.105062e-04
3.529993e+01	-2.129449e-04
3.550382e+01	-2.154119e-04
3.570889e+01	-2.179074e-04
3.591515e+01	-2.204319e-04
3.612259e+01	-2.229856e-04
3.633123e+01	-2.255689e-04
3.654108e+01	-2.281821e-04
3.675214e+01	-2.308256e-04
3.696442e+01	-2.334997e-04
3.717792e+01	-2.362047e-04
3.739266e+01	-2.389412e-04
3.760864e+01	-2.417093e-04
3.782587e+01	-2.445095e-04
3.804435e+01	-2.473421e-04
3.826409e+01	-2.502076e-04
3.848510e+01	-2.531062e-04
3.870739e+01	-2.560384e-04
3.893096e+01	-2.590046e-04
3.915583e+01	-2.620052e-04
3.938199e+01	-2.650405e-04
3.960946e+01	-2.681109e-04
3.983824e+01	-2.712170e-04
4.006834e+01	-2.743590e-04
4.029978e+01	-2.775374e-04
4.053255e+01	-2.807527e-04
4.076666e+01	-2.840052e-04
4.100213e+01	-2.872953e-04
4.123896e+01	-2.906236e-04
4.147715e+01	-2.939905e-04
4.171672e+01	-2.973963e-04
4.195767e+01	-3.008416e-04
4.220002e+01	-3.043268e-04
4.244377e+01	-3.078524e-04
4.268892e+01	-3.114188e-04
4.293549e+01	-3.150266e-04
4.318348e+01	-3.186761e-04
4.343291e+01	-3.223679e-04
4.368377e+01	-3.261025e-04
4.393609e+01	-3.298803e-04
4.418986e+01	-3.337020e-04
4.444510e+01	-3.375678e-04
4.470182e+01	-3.414785e-04
4.496001e+01	-3.454345e-04
4.521970e+01	-3.494363e-04
4.548089e+01	-3.534844e-04
4.574358e+01	-3.575795e-04
4.600779e+01	-3.617219e-04
4.627353e+01	-3.659124e-04
4.654081e+01	-3.701514e-04
4.680963e+01	-3.744395e-04
4.708000e+01	-3.787773e-04
4.735193e+01	-3.831654e-04
4.762543e+01	-3.876043e-04
4.790051e+01	-3.920946e-04
4.817719e+01	-3.966369e-04
4.845545e+01	-4.012318e-04
4.873533e+01	-4.058800e-04
4.901682e+01	-4.105820e-04
4.929994e+01	-4.153385e-04
4.958470e+01	-4.201501e-04
4.987110e+01	-4.250174e-04
5.015915e+01	-4.299411e-04
5.044887e+01	-4.349218e-04
5.074026e+01	-4.399602e-04
5.103333e+01	-4.450570e-04
5.132810e+01	-4.502129e-04
5.162457e+01	-4.554285e-04
5.192275e+01	-4.607044e-04
5.222265e+01	-4.660415e-04
5.252429e+01	-4.714405e-04
5.282767e+01	-4.769019e-04
5.313280e+01	-4.824267e-04
5.343969e+01	-4.880154e-04
5.374836e+01	-4.936689e-04
5.405880e+01	-4.993878e-04
5.437105e+01	-5.051730e-04
5.468509e+01	-5.110253e-04
5.500095e+01	-5.169453e-04
5.531863e+01	-5.229339e-04
5.563815e+01	-5.289918e-04
5.595951e+01	-5.351200e-04
5.628273e+01	-5.413191e-04
5.660782e+01	-5.475900e-04
5.693479e+01	-5.539336e-04
5.726364e+01	-5.603507e-04
5.759439e+01	-5.668421e-04
5.792705e+01	-5.734087e-04
5.826164e+01	-5.800513e-04
5.859815e+01	-5.867709e-04
5.893662e+01	-5.935683e-04
5.927703e+01	-6.004445e-04
5.961941e+01	-6.074004e-04
5.996377e+01	-6.144368e-04
6.031012e+01	-6.215547e-04
6.065847e+01	-6.287550e-04
6.100883e+01	-6.360388e-04
6.136121e+01	-6.434069e-04
6.171563e+01	-6.508604e-04
6.207210e+01	-6.584002e-04
6.243063e+01	-6.660274e-04
6.279122e+01	-6.737429e-04
6.315390e+01	-6.815478e-04
6.351868e+01	-6.894431e-04
6.388556e+01	-6.974298e-04
6.425456e+01	-7.055091e-04
6.462569e+01	-7.136819e-04
6.499897e+01	-7.219495e-04
6.537440e+01	-7.303127e-04
6.575200e+01	-7.387729e-04
6.613178e+01	-7.473310e-04
6.651375e+01	-7.559883e-04
6.689793e+01	-7.647459e-04
6.728433e+01	-7.736049e-04
6.767297e+01	-7.825665e-04
6.806384e+01	-7.916319e-04
6.845698e+01	-8.008024e-04
6.885238e+01	-8.100790e-04
6.925007e+01	-8.194631e-04
6.965005e+01	-8.289559e-04
7.005235e+01	-8.385587e-04
7.045697e+01	-8.482726e-04
7.086393e+01	-8.580991e-04
7.127323e+01	-8.680395e-04
7.168490e+01	-8.780949e-04
7.209895e+01	-8.882668e-04
7.251539e+01	-8.985566e-04
7.293424e+01	-9.089655e-04
7.335551e+01	-9.194950e-04
7.377920e+01	-9.301465e-04
7.420535e+01	-9.409213e-04
7.463396e+01	-9.518209e-04
7.506504e+01	-9.628468e-04
7.549861e+01	-9.740004e-04
7.593469e+01	-9.852832e-04
7.637328e+01	-9.966967e-04
7.681441e+01	-1.008242e-03
7.725809e+01	-1.019922e-03
7.770433e+01	-1.031736e-03
7.815315e+01	-1.043688e-03
7.860456e+01	-1.055778e-03
7.905857e+01	-1.068008e-03
7.951521e+01	-1.080379e-03
7.997449e+01	-1.092894e-03
8.043642e+01	-1.105554e-03
8.090102e+01	-1.118361e-03
8.136830e+01	-1.131316e-03
8.183828e+01	-1.144420e-03
8.231097e+01	-1.157677e-03
8.278640e+01	-1.171087e-03
8.326457e+01	-1.184653e-03
8.374550e+01	-1.198375e-03
8.422921e+01	-1.212257e-03
8.471572e+01	-1.226299e-03
8.520503e+01	-1.240504e-03
8.569717e+01	-1.254874e-03
8.619215e+01	-1.269410e-03
8.669000e+01	-1.284114e-03
8.719071e+01	-1.298989e-03
8.769432e+01	-1.314035e-03
8.820084e+01	-1.329257e-03
8.871029e+01	-1.344654e-03
8.922267e+01	-1.360230e-03
8.973802e+01	-1.375986e-03
9.025634e+01	-1.391924e-03
9.077766e+01	-1.408048e-03
9.130199e+01	-1.424358e-03
9.182935e+01	-1.440856e-03
9.235975e+01	-1.457546e-03
9.289321e+01	-1.474429e-03
9.342976e+01	-1.491508e-03
9.396941e+01	-1.508785e-03
9.451217e+01	-1.526261e-03
9.505807e+01	-1.543940e-03
9.560712e+01	-1.561824e-03
9.615934e+01	-1.579915e-03
9.671476e+01	-1.598215e-03
9.727338e+01	-1.616728e-03
9.783522e+01	-1.635454e-03
9.840032e+01	-1.654398e-03
9.896867e+01	-1.673561e-03
9.954031e+01	-1.692946e-03
1.001153e+02	-1.712555e-03
1.006935e+02	-1.732391e-03
1.012751e+02	-1.752458e-03
1.018601e+02	-1.772756e-03
1.024484e+02	-1.793290e-03
1.030402e+02	-1.814061e-03
1.036353e+02	-1.835073e-03
1.042339e+02	-1.856328e-03
1.048360e+02	-1.877830e-03
1.054415e+02	-1.899580e-03
1.060505e+02	-1.921582e-03
1.066631e+02	-1.943840e-03
1.072791e+02	-1.966354e-03
1.078988e+02	-1.989130e-03
1.085220e+02	-2.012169e-03
1.091488e+02	-2.035475e-03
1.097793e+02	-2.059051e-03
1.104133e+02	-2.082900e-03
1.110511e+02	-2.107025e-03
1.116925e+02	-2.131430e-03
1.123376e+02	-2.156117e-03
1.129865e+02	-2.181089e-03
1.136391e+02	-2.206352e-03
1.142955e+02	-2.231906e-03
1.149556e+02	-2.257757e-03
1.156196e+02	-2.283906e-03
1.162874e+02	-2.310359e-03
1.169591e+02	-2.337118e-03
1.176347e+02	-2.364187e-03
1.183141e+02	-2.391569e-03
1.189975e+02	-2.419268e-03
1.196848e+02	-2.447288e-03
1.203761e+02	-2.475633e-03
1.210714e+02	-2.504305e-03
1.217707e+02	-2.533310e-03
1.224740e+02	-2.562650e-03
1.231814e+02	-2.592330e-03
1.238929e+02	-2.622354e-03
1.246085e+02	-2.652725e-03
1.253283e+02	-2.683448e-03
1.260522e+02	-2.714527e-03
1.267802e+02	-2.745966e-03
1.275125e+02	-2.777768e-03
1.282490e+02	-2.809939e-03
1.289898e+02	-2.842482e-03
1.297348e+02	-2.875402e-03
1.304842e+02	-2.908703e-03
1.312378e+02	-2.942390e-03
1.319959e+02	-2.976466e-03
1.327583e+02	-3.010938e-03
1.335251e+02	-3.045808e-03
1.342963e+02	-3.081082e-03
1.350720e+02	-3.116764e-03
1.358522e+02	-3.152860e-03
1.366368e+02	-3.189373e-03
1.374260e+02	-3.226309e-03
1.382198e+02	-3.263672e-03
1.390182e+02	-3.301468e-03
1.398211e+02	-3.339702e-03
1.406287e+02	-3.378378e-03
1.414410e+02	-3.417502e-03
1.422579e+02	-3.457079e-03
1.430796e+02	-3.497114e-03
1.439060e+02	-3.537613e-03
1.447372e+02	-3.578580e-03
1.455732e+02	-3.620021e-03
1.464141e+02	-3.661942e-03
1.472597e+02	-3.704349e-03
1.481103e+02	-3.747246e-03
1.489658e+02	-3.790640e-03
1.498262e+02	-3.834536e-03
1.506916e+02	-3.878940e-03
1.515620e+02	-3.923859e-03
1.524374e+02	-3.969297e-03
1.533179e+02	-4.015261e-03
1.542034e+02	-4.061757e-03
1.550941e+02	-4.108791e-03
1.559899e+02	-4.156369e-03
1.568909e+02	-4.204499e-03
1.577971e+02	-4.253185e-03
1.587085e+02	-4.302435e-03
1.596252e+02	-4.352255e-03
1.605472e+02	-4.402651e-03
1.614745e+02	-4.453631e-03
1.624072e+02	-4.505200e-03
1.633453e+02	-4.557367e-03
1.642887e+02	-4.610137e-03
1.652377e+02	-4.663518e-03
1.661921e+02	-4.717516e-03
1.671520e+02	-4.772140e-03
1.681175e+02	-4.827396e-03
1.690885e+02	-4.883291e-03
1.700651e+02	-4.939833e-03
1.710474e+02	-4.997029e-03
1.720354e+02	-5.054887e-03
1.730291e+02	-5.113415e-03
1.740285e+02	-5.172619e-03
1.750337e+02	-5.232509e-03
1.760446e+02	-5.293092e-03
1.770615e+02	-5.354376e-03
1.780842e+02	-5.416369e-03
1.791128e+02	-5.479080e-03
1.801473e+02	-5.542515e-03
1.811878e+02	-5.606685e-03
1.822344e+02	-5.671598e-03
1.832870e+02	-5.737261e-03
1.843456e+02	-5.803684e-03
1.854104e+02	-5.870876e-03
1.864813e+02	-5.938845e-03
1.875584e+02	-6.007600e-03
1.886418e+02	-6.077151e-03
1.897313e+02	-6.147506e-03
1.908272e+02	-6.218675e-03
1.919294e+02	-6.290668e-03
1.930380e+02	-6.363494e-03
1.941530e+02	-6.437161e-03
1.952744e+02	-6.511681e-03
1.964023e+02	-6.587064e-03
1.975367e+02	-6.663318e-03
1.986777e+02	-6.740454e-03
1.998252e+02	-6.818482e-03
2.009794e+02	-6.897413e-03
2.021403e+02	-6.977257e-03
2.033078e+02	-7.058024e-03
2.044821e+02	-7.139726e-03
2.056632e+02	-7.222373e-03
2.068511e+02	-7.305975e-03
2.080459e+02	-7.390544e-03
2.092475e+02	-7.476092e-03
2.104561e+02	-7.562628e-03
2.116717e+02	-7.650166e-03
2.128943e+02	-7.738716e-03
2.141240e+02	-7.828290e-03
2.153608e+02	-7.918900e-03
2.166047e+02	-8.010557e-03
2.178558e+02	-8.103275e-03
2.191141e+02	-8.197064e-03
2.203797e+02	-8.291938e-03
2.216526e+02	-8.387909e-03
2.229329e+02	-8.484990e-03
2.242205e+02	-8.583194e-03
2.255156e+02	-8.682532e-03
2.268182e+02	-8.783020e-03
2.281283e+02	-8.884669e-03
2.294459e+02	-8.987493e-03
2.307712e+02	-9.091506e-03
2.321041e+02	-9.196721e-03
2.334447e+02	-9.303153e-03
2.347931e+02	-9.410815e-03
2.361493e+02	-9.519722e-03
2.375133e+02	-9.629888e-03
2.388851e+02	-9.741327e-03
2.402649e+02	-9.854054e-03
2.416527e+02	-9.968084e-03
2.430484e+02	-1.008343e-02
2.444523e+02	-1.020011e-02
2.458642e+02	-1.031814e-02
2.472843e+02	-1.043754e-02
2.487126e+02	-1.055831e-02
2.501492e+02	-1.068048e-02
2.515940e+02	-1.080406e-02
2.530472e+02	-1.092907e-02
2.545088e+02	-1.105553e-02
2.559789e+02	-1.118344e-02
2.574574e+02	-1.131284e-02
2.589444e+02	-1.144373e-02
2.604401e+02	-1.157613e-02
2.619444e+02	-1.171006e-02
2.634574e+02	-1.184554e-02
2.649791e+02	-1.198258e-02
2.665096e+02	-1.212121e-02
2.680489e+02	-1.226143e-02
2.695972e+02	-1.240328e-02
2.711544e+02	-1.254677e-02
2.727205e+02	-1.269191e-02
2.742958e+02	-1.283873e-02
2.758801e+02	-1.298725e-02
2.774736e+02	-1.313748e-02
2.790762e+02	-1.328945e-02
2.806882e+02	-1.344317e-02
2.823094e+02	-1.359867e-02
2.839400e+02	-1.375596e-02
2.855800e+02	-1.391507e-02
2.872295e+02	-1.407602e-02
2.888886e+02	-1.423883e-02
2.905572e+02	-1.440351e-02
2.922354e+02	-1.457010e-02
2.939234e+02	-1.473861e-02
2.956211e+02	-1.490907e-02
2.973286e+02	-1.508149e-02
2.990459e+02	-1.525591e-02
3.007732e+02	-1.543234e-02
3.025104e+02	-1.561080e-02
3.042577e+02	-1.579133e-02
3.060151e+02	-1.597393e-02
3.077826e+02	-1.615865e-02
3.095604e+02	-1.634550e-02
3.113484e+02	-1.653450e-02
3.131467e+02	-1.672569e-02
3.149554e+02	-1.691908e-02
3.167746e+02	-1.711471e-02
3.186043e+02	-1.731259e-02
3.204445e+02	-1.751275e-02
3.222954e+02	-1.771523e-02
3.241570e+02	-1.792004e-02
3.260293e+02	-1.812721e-02
3.279124e+02	-1.833677e-02
3.298064e+02	-1.854875e-02
3.317114e+02	-1.876318e-02
3.336273e+02	-1.898008e-02
3.355544e+02	-1.919948e-02
3.374925e+02	-1.942141e-02
3.394418e+02	-1.964590e-02
3.414024e+02	-1.987298e-02
3.433744e+02	-2.010268e-02
3.453577e+02	-2.033503e-02
3.473525e+02	-2.057006e-02
3.493588e+02	-2.080779e-02
3.513766e+02	-2.104827e-02
3.534062e+02	-2.129152e-02
3.554474e+02	-2.153757e-02
3.575005e+02	-2.178646e-02
3.595654e+02	-2.203822e-02
3.616422e+02	-2.229288e-02
3.637311e+02	-2.255048e-02
3.658320e+02	-2.281104e-02
3.679450e+02	-2.307461e-02
3.700702e+02	-2.334121e-02
3.722077e+02	-2.361089e-02
3.743576e+02	-2.388367e-02
3.765199e+02	-2.415960e-02
3.786946e+02	-2.443870e-02
3.808820e+02	-2.472102e-02
3.830819e+02	-2.500659e-02
3.852946e+02	-2.529545e-02
3.875200e+02	-2.558764e-02
3.897583e+02	-2.588319e-02
3.920096e+02	-2.618215e-02
3.942738e+02	-2.648455e-02
3.965511e+02	-2.679043e-02
3.988416e+02	-2.709983e-02
4.011452e+02	-2.741280e-02
4.034622e+02	-2.772936e-02
4.057926e+02	-2.804957e-02
4.081365e+02	-2.837347e-02
4.104938e+02	-2.870109e-02
4.128648e+02	-2.903249e-02
4.152495e+02	-2.936770e-02
4.176480e+02	-2.970676e-02
4.200603e+02	-3.004973e-02
4.224866e+02	-3.039664e-02
4.249268e+02	-3.074754e-02
4.273812e+02	-3.110248e-02
4.298497e+02	-3.146150e-02
4.323325e+02	-3.182465e-02
4.348297e+02	-3.219197e-02
4.373412e+02	-3.256352e-02
4.398673e+02	-3.293934e-02
4.424079e+02	-3.331948e-02
4.449633e+02	-3.370400e-02
4.475334e+02	-3.409293e-02
4.501183e+02	-3.448633e-02
4.527182e+02	-3.488425e-02
4.553330e+02	-3.528675e-02
4.579630e+02	-3.569387e-02
4.606082e+02	-3.610567e-02
4.632687e+02	-3.652220e-02
4.659445e+02	-3.694351e-02
4.686358e+02	-3.736966e-02
4.713426e+02	-3.780071e-02
4.740650e+02	-3.823671e-02
4.768032e+02	-3.867771e-02
4.795572e+02	-3.912378e-02
4.823271e+02	-3.957497e-02
4.851130e+02	-4.003133e-02
4.879150e+02	-4.049294e-02
4.907332e+02	-4.095984e-02
4.935676e+02	-4.143210e-02
4.964185e+02	-4.190978e-02
4.992858e+02	-4.239294e-02
5.021696e+02	-4.288164e-02
5.050701e+02	-4.337595e-02
5.079874e+02	-4.387592e-02
5.109215e+02	-4.438163e-02
5.138726e+02	-4.489314e-02
5.168407e+02	-4.541051e-02
5.198259e+02	-4.593382e-02
5.228284e+02	-4.646312e-02
5.258482e+02	-4.699849e-02
5.288855e+02	-4.753999e-02
5.319403e+02	-4.808770e-02
5.350128e+02	-4.864168e-02
5.381030e+02	-4.920200e-02
5.412111e+02	-4.976875e-02
5.443371e+02	-5.034198e-02
5.474812e+02	-5.092178e-02
5.506434e+02	-5.150822e-02
5.538239e+02	-5.210136e-02
5.570228e+02	-5.270130e-02
5.602401e+02	-5.330811e-02
5.634760e+02	-5.392185e-02
5.667306e+02	-5.454262e-02
5.700040e+02	-5.517049e-02
5.732964e+02	-5.580554e-02
5.766077e+02	-5.644785e-02
5.799382e+02	-5.709751e-02
5.832879e+02	-5.775459e-02
5.866569e+02	-5.841919e-02
5.900454e+02	-5.909138e-02
5.934535e+02	-5.977125e-02
5.968813e+02	-6.045888e-02
6.003288e+02	-6.115438e-02
6.037963e+02	-6.185781e-02
6.072838e+02	-6.256928e-02
6.107914e+02	-6.328887e-02
6.143194e+02	-6.401668e-02
6.178676e+02	-6.475280e-02
6.214364e+02	-6.549731e-02
6.250258e+02	-6.625032e-02
6.286359e+02	-6.701192e-02
6.322669e+02	-6.778220e-02
6.359189e+02	-6.856127e-02
6.395919e+02	-6.934923e-02
6.432862e+02	-7.014616e-02
6.470017e+02	-7.095218e-02
6.507388e+02	-7.176738e-02
6.544974e+02	-7.259187e-02
6.582778e+02	-7.342575e-02
6.620800e+02	-7.426913e-02
6.659041e+02	-7.512211e-02
6.697504e+02	-7.598481e-02
6.736188e+02	-7.685732e-02
6.775096e+02	-7.773976e-02
6.814229e+02	-7.863224e-02
6.853587e+02	-7.953487e-02
6.893173e+02	-8.044777e-02
6.932988e+02	-8.137104e-02
6.973033e+02	-8.230481e-02
7.013309e+02	-8.324920e-02
