Frequency(Hz)	Magnitude(dB)
1.000000e+01	-2.152451e+00
1.005776e+01	-2.171980e+00
1.011585e+01	-2.191830e+00
1.017428e+01	-2.211808e+00
1.023305e+01	-2.231737e+00
1.029215e+01	-2.252109e+00
1.035160e+01	-2.272206e+00
1.041139e+01	-2.292822e+00
1.047153e+01	-2.313368e+00
1.053201e+01	-2.334098e+00
1.059284e+01	-2.354888e+00
1.065403e+01	-2.375914e+00
1.071556e+01	-2.397116e+00
1.077746e+01	-2.418242e+00
1.083971e+01	-2.439676e+00
1.090232e+01	-2.461295e+00
1.096529e+01	-2.483200e+00
1.102862e+01	-2.504812e+00
1.109232e+01	-2.526740e+00
1.115639e+01	-2.549102e+00
1.122083e+01	-2.571439e+00
1.128564e+01	-2.593803e+00
1.135083e+01	-2.616341e+00
1.141639e+01	-2.638988e+00
1.148233e+01	-2.662046e+00
1.154865e+01	-2.684810e+00
1.161536e+01	-2.707851e+00
1.168245e+01	-2.731261e+00
1.174992e+01	-2.754711e+00
1.181779e+01	-2.778157e+00
1.188605e+01	-2.802104e+00
1.195470e+01	-2.825967e+00
1.202375e+01	-2.849855e+00
1.209320e+01	-2.873936e+00
1.216305e+01	-2.898287e+00
1.223330e+01	-2.922662e+00
1.230396e+01	-2.947340e+00
1.237503e+01	-2.972119e+00
1.244651e+01	-2.996828e+00
1.251840e+01	-3.021712e+00
1.259070e+01	-3.047084e+00
1.266343e+01	-3.072399e+00
1.273657e+01	-3.097582e+00
1.281014e+01	-3.123539e+00
1.288413e+01	-3.149017e+00
1.295855e+01	-3.174846e+00
1.303339e+01	-3.201104e+00
1.310867e+01	-3.227028e+00
1.318439e+01	-3.253076e+00
1.326054e+01	-3.279985e+00
1.333713e+01	-3.306455e+00
1.341417e+01	-3.333113e+00
1.349165e+01	-3.360118e+00
1.356958e+01	-3.387117e+00
1.364795e+01	-3.414560e+00
1.372678e+01	-3.441176e+00
1.380607e+01	-3.468812e+00
1.388581e+01	-3.496603e+00
1.396602e+01	-3.524480e+00
1.404668e+01	-3.552124e+00
1.412782e+01	-3.580310e+00
1.420942e+01	-3.608071e+00
1.429149e+01	-3.636581e+00
1.437404e+01	-3.665169e+00
1.445706e+01	-3.693516e+00
1.454057e+01	-3.722527e+00
1.462455e+01	-3.751376e+00
1.470902e+01	-3.780177e+00
1.479398e+01	-3.809441e+00
1.487943e+01	-3.838498e+00
1.496537e+01	-3.868087e+00
1.505181e+01	-3.897575e+00
1.513875e+01	-3.927331e+00
1.522619e+01	-3.957227e+00
1.531414e+01	-3.987314e+00
1.540259e+01	-4.017088e+00
1.549156e+01	-4.047637e+00
1.558103e+01	-4.078251e+00
1.567103e+01	-4.108552e+00
1.576155e+01	-4.139262e+00
1.585258e+01	-4.169942e+00
1.594415e+01	-4.201006e+00
1.603624e+01	-4.232137e+00
1.612886e+01	-4.263171e+00
1.622202e+01	-4.294298e+00
1.631572e+01	-4.326108e+00
1.640996e+01	-4.357651e+00
1.650474e+01	-4.389547e+00
1.660008e+01	-4.421441e+00
1.669596e+01	-4.453172e+00
1.679239e+01	-4.485328e+00
1.688938e+01	-4.517845e+00
1.698694e+01	-4.550533e+00
1.708505e+01	-4.582775e+00
1.718373e+01	-4.615498e+00
1.728299e+01	-4.648247e+00
1.738281e+01	-4.681244e+00
1.748322e+01	-4.714281e+00
1.758420e+01	-4.747348e+00
1.768576e+01	-4.780621e+00
1.778792e+01	-4.814227e+00
1.789066e+01	-4.847495e+00
1.799399e+01	-4.881314e+00
1.809793e+01	-4.915408e+00
1.820246e+01	-4.949283e+00
1.830760e+01	-4.983350e+00
1.841334e+01	-5.017749e+00
1.851969e+01	-5.051858e+00
1.862666e+01	-5.086342e+00
1.873425e+01	-5.120961e+00
1.884246e+01	-5.155547e+00
1.895129e+01	-5.190414e+00
1.906075e+01	-5.225621e+00
1.917085e+01	-5.260451e+00
1.928158e+01	-5.295676e+00
1.939295e+01	-5.330869e+00
1.950496e+01	-5.366094e+00
1.961762e+01	-5.402058e+00
1.973093e+01	-5.437593e+00
1.984490e+01	-5.473281e+00
1.995952e+01	-5.509353e+00
2.007480e+01	-5.545228e+00
2.019076e+01	-5.581367e+00
2.030738e+01	-5.617481e+00
2.042467e+01	-5.653766e+00
2.054264e+01	-5.690365e+00
2.066130e+01	-5.727312e+00
2.078064e+01	-5.763732e+00
2.090066e+01	-5.800506e+00
2.102139e+01	-5.837525e+00
2.114280e+01	-5.874783e+00
2.126492e+01	-5.911647e+00
2.138775e+01	-5.948758e+00
2.151128e+01	-5.986389e+00
2.163553e+01	-6.023571e+00
2.176050e+01	-6.061403e+00
2.188619e+01	-6.099127e+00
2.201260e+01	-6.136817e+00
2.213974e+01	-6.174266e+00
2.226762e+01	-6.212775e+00
2.239624e+01	-6.250995e+00
2.252560e+01	-6.288913e+00
2.265571e+01	-6.327081e+00
2.278656e+01	-6.365733e+00
2.291818e+01	-6.404286e+00
2.305055e+01	-6.442955e+00
2.318369e+01	-6.481813e+00
2.331760e+01	-6.520271e+00
2.345228e+01	-6.559594e+00
2.358774e+01	-6.598519e+00
2.372398e+01	-6.637690e+00
2.386101e+01	-6.676818e+00
2.399883e+01	-6.716281e+00
2.413745e+01	-6.755544e+00
2.427686e+01	-6.795106e+00
2.441709e+01	-6.834698e+00
2.455812e+01	-6.874684e+00
2.469997e+01	-6.914208e+00
2.484263e+01	-6.953848e+00
2.498612e+01	-6.994437e+00
2.513044e+01	-7.034073e+00
2.527559e+01	-7.074132e+00
2.542158e+01	-7.114785e+00
2.556842e+01	-7.155131e+00
2.571610e+01	-7.195393e+00
2.586463e+01	-7.235980e+00
2.601403e+01	-7.276772e+00
2.616428e+01	-7.316897e+00
2.631541e+01	-7.357688e+00
2.646740e+01	-7.398926e+00
2.662028e+01	-7.439894e+00
2.677404e+01	-7.481243e+00
2.692868e+01	-7.521907e+00
2.708422e+01	-7.563255e+00
2.724066e+01	-7.604649e+00
2.739800e+01	-7.645933e+00
2.755625e+01	-7.687922e+00
2.771541e+01	-7.729440e+00
2.787550e+01	-7.771077e+00
2.803650e+01	-7.812261e+00
2.819844e+01	-7.854031e+00
2.836131e+01	-7.895598e+00
2.852513e+01	-7.937628e+00
2.868989e+01	-7.979930e+00
2.885560e+01	-8.022116e+00
2.902227e+01	-8.064179e+00
2.918990e+01	-8.106685e+00
2.935850e+01	-8.148873e+00
2.952807e+01	-8.191032e+00
2.969863e+01	-8.233496e+00
2.987016e+01	-8.276231e+00
3.004269e+01	-8.319102e+00
3.021622e+01	-8.361699e+00
3.039075e+01	-8.404210e+00
3.056628e+01	-8.447052e+00
3.074283e+01	-8.490092e+00
3.092040e+01	-8.532662e+00
3.109900e+01	-8.575960e+00
3.127862e+01	-8.619027e+00
3.145929e+01	-8.662085e+00
3.164099e+01	-8.705639e+00
3.182375e+01	-8.748600e+00
3.200756e+01	-8.792113e+00
3.219244e+01	-8.835459e+00
3.237838e+01	-8.879270e+00
3.256540e+01	-8.923439e+00
3.275349e+01	-8.966303e+00
3.294268e+01	-9.010049e+00
3.313295e+01	-9.054017e+00
3.332433e+01	-9.097787e+00
3.351681e+01	-9.141916e+00
3.371040e+01	-9.185556e+00
3.390511e+01	-9.229719e+00
3.410094e+01	-9.273360e+00
3.429791e+01	-9.318091e+00
3.449601e+01	-9.361682e+00
3.469526e+01	-9.406638e+00
3.489566e+01	-9.450621e+00
3.509721e+01	-9.495647e+00
3.529993e+01	-9.539439e+00
3.550382e+01	-9.584045e+00
3.570889e+01	-9.628030e+00
3.591515e+01	-9.673005e+00
3.612259e+01	-9.717327e+00
3.633123e+01	-9.762119e+00
3.654108e+01	-9.807267e+00
3.675214e+01	-9.851962e+00
3.696442e+01	-9.896529e+00
3.717792e+01	-9.942180e+00
3.739266e+01	-9.986699e+00
3.760864e+01	-1.003191e+01
3.782587e+01	-1.007689e+01
3.804435e+01	-1.012219e+01
3.826409e+01	-1.016764e+01
3.848510e+01	-1.021245e+01
3.870739e+01	-1.025816e+01
3.893096e+01	-1.030308e+01
3.915583e+01	-1.034863e+01
3.938199e+01	-1.039397e+01
3.960946e+01	-1.043941e+01
3.983824e+01	-1.048510e+01
4.006834e+01	-1.053054e+01
4.029978e+01	-1.057593e+01
4.053255e+01	-1.062196e+01
4.076666e+01	-1.066800e+01
4.100213e+01	-1.071322e+01
4.123896e+01	-1.075943e+01
4.147715e+01	-1.080497e+01
4.171672e+01	-1.085088e+01
4.195767e+01	-1.089651e+01
4.220002e+01	-1.094257e+01
4.244377e+01	-1.098863e+01
4.268892e+01	-1.103504e+01
4.293549e+01	-1.108098e+01
4.318348e+01	-1.112723e+01
4.343291e+01	-1.117348e+01
4.368377e+01	-1.121896e+01
4.393609e+01	-1.126583e+01
4.418986e+01	-1.131240e+01
4.444510e+01	-1.135872e+01
4.470182e+01	-1.140498e+01
4.496001e+01	-1.145180e+01
4.521970e+01	-1.149822e+01
4.548089e+01	-1.154399e+01
4.574358e+01	-1.159006e+01
4.600779e+01	-1.163794e+01
4.627353e+01	-1.168402e+01
4.654081e+01	-1.173070e+01
4.680963e+01	-1.177748e+01
4.708000e+01	-1.182361e+01
4.735193e+01	-1.187091e+01
4.762543e+01	-1.191763e+01
4.790051e+01	-1.196460e+01
4.817719e+01	-1.201075e+01
4.845545e+01	-1.205856e+01
4.873533e+01	-1.210556e+01
4.901682e+01	-1.215243e+01
4.929994e+01	-1.219896e+01
4.958470e+01	-1.224557e+01
4.987110e+01	-1.229273e+01
5.015915e+01	-1.234040e+01
5.044887e+01	-1.238750e+01
5.074026e+01	-1.243501e+01
5.103333e+01	-1.248162e+01
5.132810e+01	-1.252920e+01
5.162457e+01	-1.257599e+01
5.192275e+01	-1.262391e+01
5.222265e+01	-1.267089e+01
5.252429e+01	-1.271888e+01
5.282767e+01	-1.276535e+01
5.313280e+01	-1.281327e+01
5.343969e+01	-1.286119e+01
5.374836e+01	-1.290797e+01
5.405880e+01	-1.295544e+01
5.437105e+01	-1.300225e+01
5.468509e+01	-1.305078e+01
5.500095e+01	-1.309789e+01
5.531863e+01	-1.314510e+01
5.563815e+01	-1.319318e+01
5.595951e+01	-1.324121e+01
5.628273e+01	-1.328838e+01
5.660782e+01	-1.333664e+01
5.693479e+01	-1.338349e+01
5.726364e+01	-1.343159e+01
5.759439e+01	-1.347928e+01
5.792705e+01	-1.352688e+01
5.826164e+01	-1.357480e+01
5.859815e+01	-1.362371e+01
5.893662e+01	-1.367097e+01
5.927703e+01	-1.371913e+01
5.961941e+01	-1.376644e+01
5.996377e+01	-1.381443e+01
6.031012e+01	-1.386235e+01
6.065847e+01	-1.390999e+01
6.100883e+01	-1.395790e+01
6.136121e+01	-1.400647e+01
6.171563e+01	-1.405383e+01
6.207210e+01	-1.410272e+01
6.243063e+01	-1.415058e+01
6.279122e+01	-1.419809e+01
6.315390e+01	-1.424723e+01
6.351868e+01	-1.429401e+01
6.388556e+01	-1.434286e+01
6.425456e+01	-1.439138e+01
6.462569e+01	-1.443938e+01
6.499897e+01	-1.448691e+01
6.537440e+01	-1.453597e+01
6.575200e+01	-1.458406e+01
6.613178e+01	-1.463242e+01
6.651375e+01	-1.468146e+01
6.689793e+01	-1.472930e+01
6.728433e+01	-1.477806e+01
6.767297e+01	-1.482561e+01
6.806384e+01	-1.487415e+01
6.845698e+01	-1.492187e+01
6.885238e+01	-1.497146e+01
6.925007e+01	-1.501965e+01
6.965005e+01	-1.506934e+01
7.005235e+01	-1.511730e+01
7.045697e+01	-1.516518e+01
7.086393e+01	-1.521379e+01
7.127323e+01	-1.526241e+01
7.168490e+01	-1.531146e+01
7.209895e+01	-1.535854e+01
7.251539e+01	-1.540741e+01
7.293424e+01	-1.545645e+01
7.335551e+01	-1.550488e+01
7.377920e+01	-1.555321e+01
7.420535e+01	-1.560209e+01
7.463396e+01	-1.565051e+01
7.506504e+01	-1.570015e+01
7.549861e+01	-1.574810e+01
7.593469e+01	-1.579583e+01
7.637328e+01	-1.584658e+01
7.681441e+01	-1.589569e+01
7.725809e+01	-1.594290e+01
7.770433e+01	-1.599214e+01
7.815315e+01	-1.604069e+01
7.860456e+01	-1.608960e+01
7.905857e+01	-1.613901e+01
7.951521e+01	-1.618734e+01
7.997449e+01	-1.623680e+01
8.043642e+01	-1.628500e+01
8.090102e+01	-1.633367e+01
8.136830e+01	-1.638188e+01
8.183828e+01	-1.643149e+01
8.231097e+01	-1.648084e+01
8.278640e+01	-1.652895e+01
8.326457e+01	-1.657837e+01
8.374550e+01	-1.662857e+01
8.422921e+01	-1.667634e+01
8.471572e+01	-1.672473e+01
8.520503e+01	-1.677472e+01
8.569717e+01	-1.682336e+01
8.619215e+01	-1.687174e+01
8.669000e+01	-1.692053e+01
8.719071e+01	-1.697020e+01
8.769432e+01	-1.701883e+01
8.820084e+01	-1.706862e+01
8.871029e+01	-1.711823e+01
8.922267e+01	-1.716769e+01
8.973802e+01	-1.721608e+01
9.025634e+01	-1.726467e+01
9.077766e+01	-1.731418e+01
9.130199e+01	-1.736334e+01
9.182935e+01	-1.741087e+01
9.235975e+01	-1.745985e+01
9.289321e+01	-1.751011e+01
9.342976e+01	-1.755840e+01
9.396941e+01	-1.760909e+01
9.451217e+01	-1.765759e+01
9.505807e+01	-1.770624e+01
9.560712e+01	-1.775520e+01
9.615934e+01	-1.780485e+01
9.671476e+01	-1.785432e+01
9.727338e+01	-1.790369e+01
9.783522e+01	-1.795271e+01
9.840032e+01	-1.800266e+01
9.896867e+01	-1.805024e+01
9.954031e+01	-1.810125e+01
1.001153e+02	-1.814931e+01
1.006935e+02	-1.819956e+01
1.012751e+02	-1.824910e+01
1.018601e+02	-1.829787e+01
1.024484e+02	-1.834628e+01
1.030402e+02	-1.839445e+01
1.036353e+02	-1.844557e+01
1.042339e+02	-1.849354e+01
1.048360e+02	-1.854426e+01
1.054415e+02	-1.859428e+01
1.060505e+02	-1.864271e+01
1.066631e+02	-1.869109e+01
1.072791e+02	-1.874079e+01
1.078988e+02	-1.879020e+01
1.085220e+02	-1.883876e+01
1.091488e+02	-1.888774e+01
1.097793e+02	-1.893990e+01
1.104133e+02	-1.898870e+01
1.110511e+02	-1.903698e+01
1.116925e+02	-1.908868e+01
1.123376e+02	-1.913859e+01
1.129865e+02	-1.918611e+01
1.136391e+02	-1.923490e+01
1.142955e+02	-1.928424e+01
1.149556e+02	-1.933414e+01
1.156196e+02	-1.938477e+01
1.162874e+02	-1.943365e+01
1.169591e+02	-1.948509e+01
1.176347e+02	-1.953162e+01
1.183141e+02	-1.958261e+01
1.189975e+02	-1.963191e+01
1.196848e+02	-1.968056e+01
1.203761e+02	-1.973194e+01
1.210714e+02	-1.978006e+01
1.217707e+02	-1.982982e+01
1.224740e+02	-1.987831e+01
1.231814e+02	-1.992901e+01
1.238929e+02	-1.997923e+01
1.246085e+02	-2.002673e+01
1.253283e+02	-2.007742e+01
1.260522e+02	-2.012704e+01
1.267802e+02	-2.017647e+01
1.275125e+02	-2.022408e+01
1.282490e+02	-2.027509e+01
1.289898e+02	-2.032398e+01
1.297348e+02	-2.037493e+01
1.304842e+02	-2.042339e+01
1.312378e+02	-2.047390e+01
1.319959e+02	-2.052157e+01
1.327583e+02	-2.057488e+01
1.335251e+02	-2.062310e+01
1.342963e+02	-2.067047e+01
1.350720e+02	-2.072097e+01
1.358522e+02	-2.076999e+01
1.366368e+02	-2.081976e+01
1.374260e+02	-2.086890e+01
1.382198e+02	-2.092066e+01
1.390182e+02	-2.097016e+01
1.398211e+02	-2.101997e+01
1.406287e+02	-2.106841e+01
1.414410e+02	-2.111946e+01
1.422579e+02	-2.116860e+01
1.430796e+02	-2.121851e+01
1.439060e+02	-2.126684e+01
1.447372e+02	-2.131651e+01
1.455732e+02	-2.136598e+01
1.464141e+02	-2.141688e+01
1.472597e+02	-2.146639e+01
1.481103e+02	-2.151601e+01
1.489658e+02	-2.156503e+01
1.498262e+02	-2.161391e+01
1.506916e+02	-2.166412e+01
1.515620e+02	-2.171646e+01
1.524374e+02	-2.176467e+01
1.533179e+02	-2.181450e+01
1.542034e+02	-2.186408e+01
1.550941e+02	-2.191177e+01
1.559899e+02	-2.196387e+01
1.568909e+02	-2.201371e+01
1.577971e+02	-2.206315e+01
1.587085e+02	-2.211296e+01
1.596252e+02	-2.216366e+01
1.605472e+02	-2.221185e+01
1.614745e+02	-2.226419e+01
1.624072e+02	-2.231229e+01
1.633453e+02	-2.236105e+01
1.642887e+02	-2.241222e+01
1.652377e+02	-2.246093e+01
1.661921e+02	-2.250890e+01
1.671520e+02	-2.255954e+01
1.681175e+02	-2.261045e+01
1.690885e+02	-2.266288e+01
1.700651e+02	-2.270964e+01
1.710474e+02	-2.275887e+01
1.720354e+02	-2.281067e+01
1.730291e+02	-2.285799e+01
1.740285e+02	-2.290764e+01
1.750337e+02	-2.295943e+01
1.760446e+02	-2.300723e+01
1.770615e+02	-2.305822e+01
1.780842e+02	-2.311055e+01
1.791128e+02	-2.315985e+01
1.801473e+02	-2.321000e+01
1.811878e+02	-2.325787e+01
1.822344e+02	-2.330649e+01
1.832870e+02	-2.335527e+01
1.843456e+02	-2.340836e+01
1.854104e+02	-2.345551e+01
1.864813e+02	-2.350514e+01
1.875584e+02	-2.355471e+01
1.886418e+02	-2.360577e+01
1.897313e+02	-2.365618e+01
1.908272e+02	-2.370645e+01
1.919294e+02	-2.375803e+01
1.930380e+02	-2.380481e+01
1.941530e+02	-2.385473e+01
1.952744e+02	-2.390520e+01
1.964023e+02	-2.395848e+01
1.975367e+02	-2.400341e+01
1.986777e+02	-2.405292e+01
1.998252e+02	-2.410452e+01
2.009794e+02	-2.415559e+01
2.021403e+02	-2.420432e+01
2.033078e+02	-2.425443e+01
2.044821e+02	-2.430498e+01
2.056632e+02	-2.435388e+01
2.068511e+02	-2.440434e+01
2.080459e+02	-2.445404e+01
2.092475e+02	-2.450291e+01
2.104561e+02	-2.455276e+01
2.116717e+02	-2.460249e+01
2.128943e+02	-2.465672e+01
2.141240e+02	-2.470109e+01
2.153608e+02	-2.475351e+01
2.166047e+02	-2.480590e+01
2.178558e+02	-2.485257e+01
2.191141e+02	-2.490416e+01
2.203797e+02	-2.494930e+01
2.216526e+02	-2.500229e+01
2.229329e+02	-2.505384e+01
2.242205e+02	-2.510474e+01
2.255156e+02	-2.515106e+01
2.268182e+02	-2.520320e+01
2.281283e+02	-2.525157e+01
2.294459e+02	-2.529888e+01
2.307712e+02	-2.535268e+01
2.321041e+02	-2.540197e+01
2.334447e+02	-2.545163e+01
2.347931e+02	-2.550508e+01
2.361493e+02	-2.555110e+01
2.375133e+02	-2.560129e+01
2.388851e+02	-2.565232e+01
2.402649e+02	-2.570365e+01
2.416527e+02	-2.575255e+01
2.430484e+02	-2.580183e+01
2.444523e+02	-2.585037e+01
2.458642e+02	-2.590216e+01
2.472843e+02	-2.595134e+01
2.487126e+02	-2.599898e+01
2.501492e+02	-2.605048e+01
2.515940e+02	-2.610094e+01
2.530472e+02	-2.615305e+01
2.545088e+02	-2.620045e+01
2.559789e+02	-2.625265e+01
2.574574e+02	-2.630141e+01
2.589444e+02	-2.635046e+01
2.604401e+02	-2.639716e+01
2.619444e+02	-2.644948e+01
2.634574e+02	-2.650164e+01
2.649791e+02	-2.655050e+01
2.665096e+02	-2.660185e+01
2.680489e+02	-2.664789e+01
2.695972e+02	-2.670248e+01
2.711544e+02	-2.674905e+01
2.727205e+02	-2.680269e+01
2.742958e+02	-2.684918e+01
2.758801e+02	-2.689956e+01
2.774736e+02	-2.694401e+01
2.790762e+02	-2.700296e+01
2.806882e+02	-2.705241e+01
2.823094e+02	-2.710084e+01
2.839400e+02	-2.714916e+01
2.855800e+02	-2.720186e+01
2.872295e+02	-2.724966e+01
2.888886e+02	-2.729710e+01
2.905572e+02	-2.735139e+01
2.922354e+02	-2.740066e+01
2.939234e+02	-2.744967e+01
2.956211e+02	-2.750368e+01
2.973286e+02	-2.754748e+01
2.990459e+02	-2.760029e+01
3.007732e+02	-2.765306e+01
3.025104e+02	-2.770150e+01
3.042577e+02	-2.775297e+01
3.060151e+02	-2.779554e+01
3.077826e+02	-2.785015e+01
3.095604e+02	-2.790232e+01
3.113484e+02	-2.794983e+01
3.131467e+02	-2.799886e+01
3.149554e+02	-2.804874e+01
3.167746e+02	-2.809644e+01
3.186043e+02	-2.814774e+01
3.204445e+02	-2.820353e+01
3.222954e+02	-2.825315e+01
3.241570e+02	-2.829979e+01
3.260293e+02	-2.834844e+01
3.279124e+02	-2.840125e+01
3.298064e+02	-2.845147e+01
3.317114e+02	-2.850168e+01
3.336273e+02	-2.855133e+01
3.355544e+02	-2.860173e+01
3.374925e+02	-2.864771e+01
3.394418e+02	-2.870115e+01
3.414024e+02	-2.875397e+01
3.433744e+02	-2.880104e+01
3.453577e+02	-2.885144e+01
3.473525e+02	-2.890397e+01
3.493588e+02	-2.895521e+01
3.513766e+02	-2.900169e+01
3.534062e+02	-2.904989e+01
3.554474e+02	-2.910225e+01
3.575005e+02	-2.915627e+01
3.595654e+02	-2.920475e+01
3.616422e+02	-2.925006e+01
3.637311e+02	-2.929976e+01
3.658320e+02	-2.935887e+01
3.679450e+02	-2.940246e+01
3.700702e+02	-2.945415e+01
3.722077e+02	-2.949962e+01
3.743576e+02	-2.955109e+01
3.765199e+02	-2.960458e+01
3.786946e+02	-2.964986e+01
3.808820e+02	-2.970278e+01
3.830819e+02	-2.975524e+01
3.852946e+02	-2.979899e+01
3.875200e+02	-2.984658e+01
3.897583e+02	-2.990417e+01
3.920096e+02	-2.995520e+01
3.942738e+02	-3.000379e+01
3.965511e+02	-3.005503e+01
3.988416e+02	-3.009972e+01
4.011452e+02	-3.015726e+01
4.034622e+02	-3.020261e+01
4.057926e+02	-3.024783e+01
4.081365e+02	-3.030488e+01
4.104938e+02	-3.035770e+01
4.128648e+02	-3.040393e+01
4.152495e+02	-3.045562e+01
4.176480e+02	-3.050847e+01
4.200603e+02	-3.055338e+01
4.224866e+02	-3.060301e+01
4.249268e+02	-3.066011e+01
4.273812e+02	-3.070541e+01
4.298497e+02	-3.075124e+01
4.323325e+02	-3.080753e+01
4.348297e+02	-3.085384e+01
4.373412e+02	-3.090587e+01
4.398673e+02	-3.095764e+01
4.424079e+02	-3.100036e+01
4.449633e+02	-3.105893e+01
4.475334e+02	-3.110081e+01
4.501183e+02	-3.115824e+01
4.527182e+02	-3.120369e+01
4.553330e+02	-3.125170e+01
4.579630e+02	-3.130833e+01
4.606082e+02	-3.135591e+01
4.632687e+02	-3.140453e+01
4.659445e+02	-3.145786e+01
4.686358e+02	-3.150925e+01
4.713426e+02	-3.155661e+01
4.740650e+02	-3.160233e+01
4.768032e+02	-3.166042e+01
4.795572e+02	-3.170887e+01
4.823271e+02	-3.175993e+01
4.851130e+02	-3.180655e+01
4.879150e+02	-3.185088e+01
4.907332e+02	-3.190167e+01
4.935676e+02	-3.195347e+01
4.964185e+02	-3.200881e+01
4.992858e+02	-3.206110e+01
5.021696e+02	-3.210553e+01
5.050701e+02	-3.216600e+01
5.079874e+02	-3.221059e+01
5.109215e+02	-3.225694e+01
5.138726e+02	-3.231075e+01
5.168407e+02	-3.235654e+01
5.198259e+02	-3.241056e+01
5.228284e+02	-3.245817e+01
5.258482e+02	-3.250747e+01
5.288855e+02	-3.255366e+01
5.319403e+02	-3.261539e+01
5.350128e+02	-3.266821e+01
5.381030e+02	-3.270654e+01
5.412111e+02	-3.275430e+01
5.443371e+02	-3.280825e+01
5.474812e+02	-3.285795e+01
5.506434e+02	-3.291148e+01
5.538239e+02	-3.296120e+01
5.570228e+02	-3.301221e+01
5.602401e+02	-3.306615e+01
5.634760e+02	-3.311449e+01
5.667306e+02	-3.316549e+01
5.700040e+02	-3.321374e+01
5.732964e+02	-3.326376e+01
5.766077e+02	-3.331066e+01
5.799382e+02	-3.336659e+01
5.832879e+02	-3.341011e+01
5.866569e+02	-3.346297e+01
5.900454e+02	-3.351236e+01
5.934535e+02	-3.356276e+01
5.968813e+02	-3.361602e+01
6.003288e+02	-3.366895e+01
6.037963e+02	-3.371038e+01
6.072838e+02	-3.376441e+01
6.107914e+02	-3.381870e+01
6.143194e+02	-3.386660e+01
6.178676e+02	-3.392014e+01
6.214364e+02	-3.396121e+01
6.250258e+02	-3.402239e+01
6.286359e+02	-3.407245e+01
6.322669e+02	-3.411064e+01
6.359189e+02	-3.417277e+01
6.395919e+02	-3.421676e+01
6.432862e+02	-3.426127e+01
6.470017e+02	-3.431429e+01
6.507388e+02	-3.437581e+01
6.544974e+02	-3.442539e+01
6.582778e+02	-3.446560e+01
6.620800e+02	-3.451646e+01
6.659041e+02	-3.457860e+01
6.697504e+02	-3.462163e+01
6.736188e+02	-3.467300e+01
6.775096e+02	-3.472239e+01
6.814229e+02	-3.476631e+01
6.853587e+02	-3.483124e+01
6.893173e+02	-3.486891e+01
6.932988e+02	-3.491419e+01
6.973033e+02	-3.497260e+01
7.013309e+02	-3.502284e+01
