Frequency(Hz)	Magnitude(dB)
1.000000e+01	-2.209814e+00
1.005776e+01	-2.230036e+00
1.011585e+01	-2.250175e+00
1.017428e+01	-2.270382e+00
1.023305e+01	-2.291001e+00
1.029215e+01	-2.311533e+00
1.035160e+01	-2.332209e+00
1.041139e+01	-2.353149e+00
1.047153e+01	-2.374014e+00
1.053201e+01	-2.395309e+00
1.059284e+01	-2.416513e+00
1.065403e+01	-2.437891e+00
1.071556e+01	-2.459497e+00
1.077746e+01	-2.481422e+00
1.083971e+01	-2.502896e+00
1.090232e+01	-2.525078e+00
1.096529e+01	-2.547183e+00
1.102862e+01	-2.569432e+00
1.109232e+01	-2.592001e+00
1.115639e+01	-2.614365e+00
1.122083e+01	-2.637132e+00
1.128564e+01	-2.659962e+00
1.135083e+01	-2.682715e+00
1.141639e+01	-2.706252e+00
1.148233e+01	-2.729378e+00
1.154865e+01	-2.752894e+00
1.161536e+01	-2.776185e+00
1.168245e+01	-2.799954e+00
1.174992e+01	-2.823859e+00
1.181779e+01	-2.847778e+00
1.188605e+01	-2.872116e+00
1.195470e+01	-2.896317e+00
1.202375e+01	-2.920698e+00
1.209320e+01	-2.945517e+00
1.216305e+01	-2.970002e+00
1.223330e+01	-2.994648e+00
1.230396e+01	-3.019743e+00
1.237503e+01	-3.044649e+00
1.244651e+01	-3.070096e+00
1.251840e+01	-3.095834e+00
1.259070e+01	-3.121014e+00
1.266343e+01	-3.146811e+00
1.273657e+01	-3.172873e+00
1.281014e+01	-3.198785e+00
1.288413e+01	-3.224890e+00
1.295855e+01	-3.251242e+00
1.303339e+01	-3.277536e+00
1.310867e+01	-3.304315e+00
1.318439e+01	-3.330952e+00
1.326054e+01	-3.357753e+00
1.333713e+01	-3.384914e+00
1.341417e+01	-3.412068e+00
1.349165e+01	-3.439312e+00
1.356958e+01	-3.466747e+00
1.364795e+01	-3.494340e+00
1.372678e+01	-3.522046e+00
1.380607e+01	-3.549857e+00
1.388581e+01	-3.577959e+00
1.396602e+01	-3.606021e+00
1.404668e+01	-3.634126e+00
1.412782e+01	-3.662746e+00
1.420942e+01	-3.691114e+00
1.429149e+01	-3.720003e+00
1.437404e+01	-3.748990e+00
1.445706e+01	-3.777841e+00
1.454057e+01	-3.806957e+00
1.462455e+01	-3.836085e+00
1.470902e+01	-3.865705e+00
1.479398e+01	-3.895199e+00
1.487943e+01	-3.924647e+00
1.496537e+01	-3.954692e+00
1.505181e+01	-3.984702e+00
1.513875e+01	-4.014635e+00
1.522619e+01	-4.044771e+00
1.531414e+01	-4.075607e+00
1.540259e+01	-4.106103e+00
1.549156e+01	-4.136796e+00
1.558103e+01	-4.167454e+00
1.567103e+01	-4.198541e+00
1.576155e+01	-4.229583e+00
1.585258e+01	-4.260393e+00
1.594415e+01	-4.292123e+00
1.603624e+01	-4.323298e+00
1.612886e+01	-4.355062e+00
1.622202e+01	-4.386857e+00
1.631572e+01	-4.418682e+00
1.640996e+01	-4.450955e+00
1.650474e+01	-4.482821e+00
1.660008e+01	-4.515104e+00
1.669596e+01	-4.547467e+00
1.679239e+01	-4.579866e+00
1.688938e+01	-4.612907e+00
1.698694e+01	-4.645574e+00
1.708505e+01	-4.678447e+00
1.718373e+01	-4.711348e+00
1.728299e+01	-4.744627e+00
1.738281e+01	-4.777928e+00
1.748322e+01	-4.811225e+00
1.758420e+01	-4.844846e+00
1.768576e+01	-4.878607e+00
1.778792e+01	-4.912567e+00
1.789066e+01	-4.946675e+00
1.799399e+01	-4.980479e+00
1.809793e+01	-5.014607e+00
1.820246e+01	-5.049140e+00
1.830760e+01	-5.083622e+00
1.841334e+01	-5.118048e+00
1.851969e+01	-5.152718e+00
1.862666e+01	-5.187828e+00
1.873425e+01	-5.222809e+00
1.884246e+01	-5.257541e+00
1.895129e+01	-5.292621e+00
1.906075e+01	-5.327877e+00
1.917085e+01	-5.363339e+00
1.928158e+01	-5.399011e+00
1.939295e+01	-5.434875e+00
1.950496e+01	-5.470306e+00
1.961762e+01	-5.506341e+00
1.973093e+01	-5.542518e+00
1.984490e+01	-5.578274e+00
1.995952e+01	-5.614658e+00
2.007480e+01	-5.650932e+00
2.019076e+01	-5.687427e+00
2.030738e+01	-5.723967e+00
2.042467e+01	-5.760731e+00
2.054264e+01	-5.797385e+00
2.066130e+01	-5.834512e+00
2.078064e+01	-5.871345e+00
2.090066e+01	-5.908357e+00
2.102139e+01	-5.945815e+00
2.114280e+01	-5.983164e+00
2.126492e+01	-6.020815e+00
2.138775e+01	-6.058262e+00
2.151128e+01	-6.095987e+00
2.163553e+01	-6.133618e+00
2.176050e+01	-6.171288e+00
2.188619e+01	-6.209773e+00
2.201260e+01	-6.247853e+00
2.213974e+01	-6.285764e+00
2.226762e+01	-6.324390e+00
2.239624e+01	-6.362724e+00
2.252560e+01	-6.401268e+00
2.265571e+01	-6.439853e+00
2.278656e+01	-6.478852e+00
2.291818e+01	-6.517311e+00
2.305055e+01	-6.555905e+00
2.318369e+01	-6.595119e+00
2.331760e+01	-6.634395e+00
2.345228e+01	-6.673390e+00
2.358774e+01	-6.713073e+00
2.372398e+01	-6.752554e+00
2.386101e+01	-6.792200e+00
2.399883e+01	-6.831426e+00
2.413745e+01	-6.871106e+00
2.427686e+01	-6.911024e+00
2.441709e+01	-6.950870e+00
2.455812e+01	-6.990421e+00
2.469997e+01	-7.030869e+00
2.484263e+01	-7.070662e+00
2.498612e+01	-7.111115e+00
2.513044e+01	-7.151418e+00
2.527559e+01	-7.191986e+00
2.542158e+01	-7.232510e+00
2.556842e+01	-7.272723e+00
2.571610e+01	-7.313617e+00
2.586463e+01	-7.354843e+00
2.601403e+01	-7.395407e+00
2.616428e+01	-7.436498e+00
2.631541e+01	-7.477297e+00
2.646740e+01	-7.518250e+00
2.662028e+01	-7.559756e+00
2.677404e+01	-7.601022e+00
2.692868e+01	-7.642375e+00
2.708422e+01	-7.683996e+00
2.724066e+01	-7.725419e+00
2.739800e+01	-7.767148e+00
2.755625e+01	-7.808761e+00
2.771541e+01	-7.851003e+00
2.787550e+01	-7.892428e+00
2.803650e+01	-7.934923e+00
2.819844e+01	-7.976495e+00
2.836131e+01	-8.019034e+00
2.852513e+01	-8.060680e+00
2.868989e+01	-8.102722e+00
2.885560e+01	-8.145009e+00
2.902227e+01	-8.187285e+00
2.918990e+01	-8.230079e+00
2.935850e+01	-8.272927e+00
2.952807e+01	-8.314752e+00
2.969863e+01	-8.357884e+00
2.987016e+01	-8.400658e+00
3.004269e+01	-8.443683e+00
3.021622e+01	-8.486539e+00
3.039075e+01	-8.529281e+00
3.056628e+01	-8.572404e+00
3.074283e+01	-8.615567e+00
3.092040e+01	-8.658904e+00
3.109900e+01	-8.702139e+00
3.127862e+01	-8.745343e+00
3.145929e+01	-8.788734e+00
3.164099e+01	-8.831652e+00
3.182375e+01	-8.875254e+00
3.200756e+01	-8.919402e+00
3.219244e+01	-8.962951e+00
3.237838e+01	-9.006869e+00
3.256540e+01	-9.049744e+00
3.275349e+01	-9.094647e+00
3.294268e+01	-9.137894e+00
3.313295e+01	-9.182284e+00
3.332433e+01	-9.225905e+00
3.351681e+01	-9.270136e+00
3.371040e+01	-9.313828e+00
3.390511e+01	-9.358468e+00
3.410094e+01	-9.402912e+00
3.429791e+01	-9.446503e+00
3.449601e+01	-9.490999e+00
3.469526e+01	-9.536022e+00
3.489566e+01	-9.580108e+00
3.509721e+01	-9.624499e+00
3.529993e+01	-9.668987e+00
3.550382e+01	-9.714862e+00
3.570889e+01	-9.758993e+00
3.591515e+01	-9.803779e+00
3.612259e+01	-9.848349e+00
3.633123e+01	-9.893210e+00
3.654108e+01	-9.938151e+00
3.675214e+01	-9.983553e+00
3.696442e+01	-1.002806e+01
3.717792e+01	-1.007329e+01
3.739266e+01	-1.011849e+01
3.760864e+01	-1.016345e+01
3.782587e+01	-1.020867e+01
3.804435e+01	-1.025412e+01
3.826409e+01	-1.030015e+01
3.848510e+01	-1.034454e+01
3.870739e+01	-1.039037e+01
3.893096e+01	-1.043638e+01
3.915583e+01	-1.048100e+01
3.938199e+01	-1.052632e+01
3.960946e+01	-1.057262e+01
3.983824e+01	-1.061873e+01
4.006834e+01	-1.066406e+01
4.029978e+01	-1.070941e+01
4.053255e+01	-1.075552e+01
4.076666e+01	-1.080088e+01
4.100213e+01	-1.084707e+01
4.123896e+01	-1.089304e+01
4.147715e+01	-1.093890e+01
4.171672e+01	-1.098504e+01
4.195767e+01	-1.103155e+01
4.220002e+01	-1.107699e+01
4.244377e+01	-1.112304e+01
4.268892e+01	-1.116935e+01
4.293549e+01	-1.121521e+01
4.318348e+01	-1.126260e+01
4.343291e+01	-1.130820e+01
4.368377e+01	-1.135508e+01
4.393609e+01	-1.140109e+01
4.418986e+01	-1.144718e+01
4.444510e+01	-1.149394e+01
4.470182e+01	-1.154048e+01
4.496001e+01	-1.158714e+01
4.521970e+01	-1.163387e+01
4.548089e+01	-1.167982e+01
4.574358e+01	-1.172661e+01
4.600779e+01	-1.177374e+01
4.627353e+01	-1.182042e+01
4.654081e+01	-1.186659e+01
4.680963e+01	-1.191361e+01
4.708000e+01	-1.196088e+01
4.735193e+01	-1.200786e+01
4.762543e+01	-1.205399e+01
4.790051e+01	-1.210146e+01
4.817719e+01	-1.214850e+01
4.845545e+01	-1.219505e+01
4.873533e+01	-1.224222e+01
4.901682e+01	-1.228956e+01
4.929994e+01	-1.233612e+01
4.958470e+01	-1.238410e+01
4.987110e+01	-1.243111e+01
5.015915e+01	-1.247764e+01
5.044887e+01	-1.252508e+01
5.074026e+01	-1.257169e+01
5.103333e+01	-1.261984e+01
5.132810e+01	-1.266637e+01
5.162457e+01	-1.271419e+01
5.192275e+01	-1.276163e+01
5.222265e+01	-1.280920e+01
5.252429e+01	-1.285611e+01
5.282767e+01	-1.290356e+01
5.313280e+01	-1.295138e+01
5.343969e+01	-1.299894e+01
5.374836e+01	-1.304651e+01
5.405880e+01	-1.309354e+01
5.437105e+01	-1.314154e+01
5.468509e+01	-1.318925e+01
5.500095e+01	-1.323703e+01
5.531863e+01	-1.328500e+01
5.563815e+01	-1.333211e+01
5.595951e+01	-1.338019e+01
5.628273e+01	-1.342782e+01
5.660782e+01	-1.347528e+01
5.693479e+01	-1.352285e+01
5.726364e+01	-1.357097e+01
5.759439e+01	-1.361821e+01
5.792705e+01	-1.366680e+01
5.826164e+01	-1.371499e+01
5.859815e+01	-1.376197e+01
5.893662e+01	-1.381074e+01
5.927703e+01	-1.385864e+01
5.961941e+01	-1.390645e+01
5.996377e+01	-1.395297e+01
6.031012e+01	-1.400287e+01
6.065847e+01	-1.405056e+01
6.100883e+01	-1.409874e+01
6.136121e+01	-1.414663e+01
6.171563e+01	-1.419446e+01
6.207210e+01	-1.424185e+01
6.243063e+01	-1.429056e+01
6.279122e+01	-1.433892e+01
6.315390e+01	-1.438659e+01
6.351868e+01	-1.443512e+01
6.388556e+01	-1.448246e+01
6.425456e+01	-1.453161e+01
6.462569e+01	-1.458084e+01
6.499897e+01	-1.462896e+01
6.537440e+01	-1.467732e+01
6.575200e+01	-1.472576e+01
6.613178e+01	-1.477327e+01
6.651375e+01	-1.482168e+01
6.689793e+01	-1.487045e+01
6.728433e+01	-1.491885e+01
6.767297e+01	-1.496734e+01
6.806384e+01	-1.501486e+01
6.845698e+01	-1.506436e+01
6.885238e+01	-1.511314e+01
6.925007e+01	-1.516148e+01
6.965005e+01	-1.520858e+01
7.005235e+01	-1.525810e+01
7.045697e+01	-1.530704e+01
7.086393e+01	-1.535538e+01
7.127323e+01	-1.540263e+01
7.168490e+01	-1.545258e+01
7.209895e+01	-1.550147e+01
7.251539e+01	-1.555016e+01
7.293424e+01	-1.559866e+01
7.335551e+01	-1.564773e+01
7.377920e+01	-1.569583e+01
7.420535e+01	-1.574434e+01
7.463396e+01	-1.579244e+01
7.506504e+01	-1.584184e+01
7.549861e+01	-1.589002e+01
7.593469e+01	-1.593921e+01
7.637328e+01	-1.598703e+01
7.681441e+01	-1.603739e+01
7.725809e+01	-1.608531e+01
7.770433e+01	-1.613452e+01
7.815315e+01	-1.618301e+01
7.860456e+01	-1.623184e+01
7.905857e+01	-1.628035e+01
7.951521e+01	-1.632979e+01
7.997449e+01	-1.637906e+01
8.043642e+01	-1.642687e+01
8.090102e+01	-1.647728e+01
8.136830e+01	-1.652576e+01
8.183828e+01	-1.657490e+01
8.231097e+01	-1.662403e+01
8.278640e+01	-1.667190e+01
8.326457e+01	-1.672035e+01
8.374550e+01	-1.677024e+01
8.422921e+01	-1.681925e+01
8.471572e+01	-1.686888e+01
8.520503e+01	-1.691724e+01
8.569717e+01	-1.696614e+01
8.619215e+01	-1.701526e+01
8.669000e+01	-1.706357e+01
8.719071e+01	-1.711326e+01
8.769432e+01	-1.716199e+01
8.820084e+01	-1.721184e+01
8.871029e+01	-1.726088e+01
8.922267e+01	-1.730913e+01
8.973802e+01	-1.735927e+01
9.025634e+01	-1.740735e+01
9.077766e+01	-1.745622e+01
9.130199e+01	-1.750648e+01
9.182935e+01	-1.755418e+01
9.235975e+01	-1.760405e+01
9.289321e+01	-1.765301e+01
9.342976e+01	-1.770283e+01
9.396941e+01	-1.775203e+01
9.451217e+01	-1.780190e+01
9.505807e+01	-1.785066e+01
9.560712e+01	-1.789976e+01
9.615934e+01	-1.794779e+01
9.671476e+01	-1.799938e+01
9.727338e+01	-1.804731e+01
9.783522e+01	-1.809580e+01
9.840032e+01	-1.814468e+01
9.896867e+01	-1.819412e+01
9.954031e+01	-1.824468e+01
1.001153e+02	-1.829343e+01
1.006935e+02	-1.834229e+01
1.012751e+02	-1.839264e+01
1.018601e+02	-1.844055e+01
1.024484e+02	-1.849201e+01
1.030402e+02	-1.854005e+01
1.036353e+02	-1.858879e+01
1.042339e+02	-1.863914e+01
1.048360e+02	-1.868674e+01
1.054415e+02	-1.873836e+01
1.060505e+02	-1.878590e+01
1.066631e+02	-1.883637e+01
1.072791e+02	-1.888426e+01
1.078988e+02	-1.893600e+01
1.085220e+02	-1.898430e+01
1.091488e+02	-1.903389e+01
1.097793e+02	-1.908237e+01
1.104133e+02	-1.913274e+01
1.110511e+02	-1.918175e+01
1.116925e+02	-1.923149e+01
1.123376e+02	-1.928235e+01
1.129865e+02	-1.933046e+01
1.136391e+02	-1.937896e+01
1.142955e+02	-1.942775e+01
1.149556e+02	-1.947856e+01
1.156196e+02	-1.952915e+01
1.162874e+02	-1.957889e+01
1.169591e+02	-1.962739e+01
1.176347e+02	-1.967622e+01
1.183141e+02	-1.972568e+01
1.189975e+02	-1.977707e+01
1.196848e+02	-1.982460e+01
1.203761e+02	-1.987510e+01
1.210714e+02	-1.992225e+01
1.217707e+02	-1.997342e+01
1.224740e+02	-2.002348e+01
1.231814e+02	-2.007115e+01
1.238929e+02	-2.012316e+01
1.246085e+02	-2.017337e+01
1.253283e+02	-2.022243e+01
1.260522e+02	-2.027085e+01
1.267802e+02	-2.032120e+01
1.275125e+02	-2.037139e+01
1.282490e+02	-2.041989e+01
1.289898e+02	-2.046898e+01
1.297348e+02	-2.051987e+01
1.304842e+02	-2.056936e+01
1.312378e+02	-2.061779e+01
1.319959e+02	-2.066889e+01
1.327583e+02	-2.071666e+01
1.335251e+02	-2.076648e+01
1.342963e+02	-2.081570e+01
1.350720e+02	-2.086602e+01
1.358522e+02	-2.091471e+01
1.366368e+02	-2.096456e+01
1.374260e+02	-2.101530e+01
1.382198e+02	-2.106600e+01
1.390182e+02	-2.111443e+01
1.398211e+02	-2.116512e+01
1.406287e+02	-2.121221e+01
1.414410e+02	-2.126468e+01
1.422579e+02	-2.131194e+01
1.430796e+02	-2.136417e+01
1.439060e+02	-2.141245e+01
1.447372e+02	-2.146251e+01
1.455732e+02	-2.151092e+01
1.464141e+02	-2.156327e+01
1.472597e+02	-2.161154e+01
1.481103e+02	-2.166013e+01
1.489658e+02	-2.171027e+01
1.498262e+02	-2.176025e+01
1.506916e+02	-2.181077e+01
1.515620e+02	-2.186111e+01
1.524374e+02	-2.190980e+01
1.533179e+02	-2.196064e+01
1.542034e+02	-2.200959e+01
1.550941e+02	-2.205961e+01
1.559899e+02	-2.210806e+01
1.568909e+02	-2.215630e+01
1.577971e+02	-2.220713e+01
1.587085e+02	-2.225847e+01
1.596252e+02	-2.230529e+01
1.605472e+02	-2.235650e+01
1.614745e+02	-2.240702e+01
1.624072e+02	-2.245880e+01
1.633453e+02	-2.250632e+01
1.642887e+02	-2.255593e+01
1.652377e+02	-2.260443e+01
1.661921e+02	-2.265703e+01
1.671520e+02	-2.270491e+01
1.681175e+02	-2.275484e+01
1.690885e+02	-2.280634e+01
1.700651e+02	-2.285607e+01
1.710474e+02	-2.290512e+01
1.720354e+02	-2.295362e+01
1.730291e+02	-2.300320e+01
1.740285e+02	-2.305496e+01
1.750337e+02	-2.310372e+01
1.760446e+02	-2.315516e+01
1.770615e+02	-2.320240e+01
1.780842e+02	-2.325461e+01
1.791128e+02	-2.330289e+01
1.801473e+02	-2.335503e+01
1.811878e+02	-2.340195e+01
1.822344e+02	-2.345300e+01
1.832870e+02	-2.350264e+01
1.843456e+02	-2.355144e+01
1.854104e+02	-2.360131e+01
1.864813e+02	-2.365212e+01
1.875584e+02	-2.370093e+01
1.886418e+02	-2.375346e+01
1.897313e+02	-2.380073e+01
1.908272e+02	-2.385109e+01
1.919294e+02	-2.390034e+01
1.930380e+02	-2.395155e+01
1.941530e+02	-2.400097e+01
1.952744e+02	-2.404977e+01
1.964023e+02	-2.410267e+01
1.975367e+02	-2.415071e+01
1.986777e+02	-2.419959e+01
1.998252e+02	-2.424919e+01
2.009794e+02	-2.430070e+01
2.021403e+02	-2.434620e+01
2.033078e+02	-2.439945e+01
2.044821e+02	-2.444708e+01
2.056632e+02	-2.450186e+01
2.068511e+02	-2.455097e+01
2.080459e+02	-2.460204e+01
2.092475e+02	-2.464887e+01
2.104561e+02	-2.469876e+01
2.116717e+02	-2.474738e+01
2.128943e+02	-2.479854e+01
2.141240e+02	-2.484801e+01
2.153608e+02	-2.489774e+01
2.166047e+02	-2.495018e+01
2.178558e+02	-2.499721e+01
2.191141e+02	-2.504887e+01
2.203797e+02	-2.509858e+01
2.216526e+02	-2.514750e+01
2.229329e+02	-2.519997e+01
2.242205e+02	-2.524817e+01
2.255156e+02	-2.529840e+01
2.268182e+02	-2.534661e+01
2.281283e+02	-2.539521e+01
2.294459e+02	-2.544924e+01
2.307712e+02	-2.549996e+01
2.321041e+02	-2.554729e+01
2.334447e+02	-2.559939e+01
2.347931e+02	-2.564809e+01
2.361493e+02	-2.569981e+01
2.375133e+02	-2.574660e+01
2.388851e+02	-2.579695e+01
2.402649e+02	-2.584889e+01
2.416527e+02	-2.589769e+01
2.430484e+02	-2.594548e+01
2.444523e+02	-2.599408e+01
2.458642e+02	-2.604476e+01
2.472843e+02	-2.609496e+01
2.487126e+02	-2.615024e+01
2.501492e+02	-2.619479e+01
2.515940e+02	-2.624705e+01
2.530472e+02	-2.629555e+01
2.545088e+02	-2.634361e+01
2.559789e+02	-2.639637e+01
2.574574e+02	-2.644750e+01
2.589444e+02	-2.649470e+01
2.604401e+02	-2.654838e+01
2.619444e+02	-2.659723e+01
2.634574e+02	-2.664638e+01
2.649791e+02	-2.669770e+01
2.665096e+02	-2.674380e+01
2.680489e+02	-2.679747e+01
2.695972e+02	-2.684782e+01
2.711544e+02	-2.689673e+01
2.727205e+02	-2.694864e+01
2.742958e+02	-2.699769e+01
2.758801e+02	-2.704764e+01
2.774736e+02	-2.709647e+01
2.790762e+02	-2.714578e+01
2.806882e+02	-2.719583e+01
2.823094e+02	-2.724674e+01
2.839400e+02	-2.729184e+01
2.855800e+02	-2.734497e+01
2.872295e+02	-2.739586e+01
2.888886e+02	-2.744770e+01
2.905572e+02	-2.749498e+01
2.922354e+02	-2.754534e+01
2.939234e+02	-2.759792e+01
2.956211e+02	-2.764874e+01
2.973286e+02	-2.769682e+01
2.990459e+02	-2.774459e+01
3.007732e+02	-2.779605e+01
3.025104e+02	-2.784628e+01
3.042577e+02	-2.789324e+01
3.060151e+02	-2.794625e+01
3.077826e+02	-2.799353e+01
3.095604e+02	-2.804940e+01
3.113484e+02	-2.809559e+01
3.131467e+02	-2.814795e+01
3.149554e+02	-2.819591e+01
3.167746e+02	-2.824380e+01
3.186043e+02	-2.829756e+01
3.204445e+02	-2.834800e+01
3.222954e+02	-2.839893e+01
3.241570e+02	-2.844850e+01
3.260293e+02	-2.849805e+01
3.279124e+02	-2.854672e+01
3.298064e+02	-2.859868e+01
3.317114e+02	-2.864850e+01
3.336273e+02	-2.869815e+01
3.355544e+02	-2.874820e+01
3.374925e+02	-2.879828e+01
3.394418e+02	-2.884463e+01
3.414024e+02	-2.889781e+01
3.433744e+02	-2.894213e+01
3.453577e+02	-2.899358e+01
3.473525e+02	-2.904758e+01
3.493588e+02	-2.909584e+01
3.513766e+02	-2.914985e+01
3.534062e+02	-2.919856e+01
3.554474e+02	-2.925028e+01
3.575005e+02	-2.929706e+01
3.595654e+02	-2.934798e+01
3.616422e+02	-2.939896e+01
3.637311e+02	-2.944666e+01
3.658320e+02	-2.950113e+01
3.679450e+02	-2.954689e+01
3.700702e+02	-2.959859e+01
3.722077e+02	-2.964923e+01
3.743576e+02	-2.970432e+01
3.765199e+02	-2.974876e+01
3.786946e+02	-2.979795e+01
3.808820e+02	-2.984221e+01
3.830819e+02	-2.990107e+01
3.852946e+02	-2.995219e+01
3.875200e+02	-2.999506e+01
3.897583e+02	-3.004628e+01
3.920096e+02	-3.009867e+01
3.942738e+02	-3.015311e+01
3.965511e+02	-3.019763e+01
3.988416e+02	-3.024505e+01
4.011452e+02	-3.029786e+01
4.034622e+02	-3.035357e+01
4.057926e+02	-3.039970e+01
4.081365e+02	-3.044544e+01
4.104938e+02	-3.050356e+01
4.128648e+02	-3.054965e+01
4.152495e+02	-3.060027e+01
4.176480e+02	-3.064850e+01
4.200603e+02	-3.070143e+01
4.224866e+02	-3.074931e+01
4.249268e+02	-3.080286e+01
4.273812e+02	-3.084631e+01
4.298497e+02	-3.090041e+01
4.323325e+02	-3.095357e+01
4.348297e+02	-3.100456e+01
4.373412e+02	-3.104485e+01
4.398673e+02	-3.110066e+01
4.424079e+02	-3.115216e+01
4.449633e+02	-3.119553e+01
4.475334e+02	-3.125198e+01
4.501183e+02	-3.130086e+01
4.527182e+02	-3.134900e+01
4.553330e+02	-3.139596e+01
4.579630e+02	-3.145376e+01
4.606082e+02	-3.150284e+01
4.632687e+02	-3.155200e+01
4.659445e+02	-3.160185e+01
4.686358e+02	-3.165085e+01
4.713426e+02	-3.170586e+01
4.740650e+02	-3.175228e+01
4.768032e+02	-3.180652e+01
4.795572e+02	-3.185268e+01
4.823271e+02	-3.190531e+01
4.851130e+02	-3.195555e+01
4.879150e+02	-3.200482e+01
4.907332e+02	-3.205511e+01
4.935676e+02	-3.210164e+01
4.964185e+02	-3.215131e+01
4.992858e+02	-3.219865e+01
5.021696e+02	-3.224765e+01
5.050701e+02	-3.230370e+01
5.079874e+02	-3.235714e+01
5.109215e+02	-3.241085e+01
5.138726e+02	-3.246005e+01
5.168407e+02	-3.250884e+01
5.198259e+02	-3.255442e+01
5.228284e+02	-3.260516e+01
5.258482e+02	-3.265727e+01
5.288855e+02	-3.270246e+01
5.319403e+02	-3.276110e+01
5.350128e+02	-3.280741e+01
5.381030e+02	-3.285737e+01
5.412111e+02	-3.290723e+01
5.443371e+02	-3.295849e+01
5.474812e+02	-3.301314e+01
5.506434e+02	-3.306127e+01
5.538239e+02	-3.311480e+01
5.570228e+02	-3.316473e+01
5.602401e+02	-3.320910e+01
5.634760e+02	-3.326525e+01
5.667306e+02	-3.330466e+01
5.700040e+02	-3.335876e+01
5.732964e+02	-3.341026e+01
5.766077e+02	-3.346916e+01
5.799382e+02	-3.351097e+01
5.832879e+02	-3.355888e+01
5.866569e+02	-3.361074e+01
5.900454e+02	-3.366518e+01
5.934535e+02	-3.371754e+01
5.968813e+02	-3.376230e+01
6.003288e+02	-3.381760e+01
6.037963e+02	-3.386865e+01
6.072838e+02	-3.391158e+01
6.107914e+02	-3.396045e+01
6.143194e+02	-3.401506e+01
6.178676e+02	-3.406058e+01
6.214364e+02	-3.411564e+01
6.250258e+02	-3.416102e+01
6.286359e+02	-3.421435e+01
6.322669e+02	-3.426356e+01
6.359189e+02	-3.431725e+01
6.395919e+02	-3.436802e+01
6.432862e+02	-3.442362e+01
6.470017e+02	-3.446868e+01
6.507388e+02	-3.451323e+01
6.544974e+02	-3.456589e+01
6.582778e+02	-3.462110e+01
6.620800e+02	-3.466955e+01
6.659041e+02	-3.472391e+01
6.697504e+02	-3.476842e+01
6.736188e+02	-3.481782e+01
6.775096e+02	-3.486489e+01
6.814229e+02	-3.492097e+01
6.853587e+02	-3.496524e+01
6.893173e+02	-3.501441e+01
6.932988e+02	-3.507441e+01
6.973033e+02	-3.512108e+01
7.013309e+02	-3.516652e+01
