Frequency(Hz)	Magnitude(dB)
1.000000e+01	-1.508580e-05
1.005776e+01	-1.526058e-05
1.011585e+01	-1.543737e-05
1.017428e+01	-1.561622e-05
1.023305e+01	-1.579714e-05
1.029215e+01	-1.598015e-05
1.035160e+01	-1.616528e-05
1.041139e+01	-1.635256e-05
1.047153e+01	-1.654201e-05
1.053201e+01	-1.673366e-05
1.059284e+01	-1.692752e-05
1.065403e+01	-1.712363e-05
1.071556e+01	-1.732201e-05
1.077746e+01	-1.752269e-05
1.083971e+01	-1.772570e-05
1.090232e+01	-1.793105e-05
1.096529e+01	-1.813879e-05
1.102862e+01	-1.834893e-05
1.109232e+01	-1.856151e-05
1.115639e+01	-1.877655e-05
1.122083e+01	-1.899408e-05
1.128564e+01	-1.921413e-05
1.135083e+01	-1.943673e-05
1.141639e+01	-1.966191e-05
1.148233e+01	-1.988970e-05
1.154865e+01	-2.012013e-05
1.161536e+01	-2.035322e-05
1.168245e+01	-2.058902e-05
1.174992e+01	-2.082755e-05
1.181779e+01	-2.106884e-05
1.188605e+01	-2.131293e-05
1.195470e+01	-2.155984e-05
1.202375e+01	-2.180962e-05
1.209320e+01	-2.206229e-05
1.216305e+01	-2.231789e-05
1.223330e+01	-2.257645e-05
1.230396e+01	-2.283800e-05
1.237503e+01	-2.310258e-05
1.244651e+01	-2.337023e-05
1.251840e+01	-2.364098e-05
1.259070e+01	-2.391487e-05
1.266343e+01	-2.419193e-05
1.273657e+01	-2.447220e-05
1.281014e+01	-2.475571e-05
1.288413e+01	-2.504252e-05
1.295855e+01	-2.533264e-05
1.303339e+01	-2.562612e-05
1.310867e+01	-2.592301e-05
1.318439e+01	-2.622333e-05
1.326054e+01	-2.652714e-05
1.333713e+01	-2.683446e-05
1.341417e+01	-2.714534e-05
1.349165e+01	-2.745983e-05
1.356958e+01	-2.777796e-05
1.364795e+01	-2.809977e-05
1.372678e+01	-2.842532e-05
1.380607e+01	-2.875463e-05
1.388581e+01	-2.908776e-05
1.396602e+01	-2.942475e-05
1.404668e+01	-2.976564e-05
1.412782e+01	-3.011048e-05
1.420942e+01	-3.045932e-05
1.429149e+01	-3.081220e-05
1.437404e+01	-3.116917e-05
1.445706e+01	-3.153027e-05
1.454057e+01	-3.189555e-05
1.462455e+01	-3.226507e-05
1.470902e+01	-3.263887e-05
1.479398e+01	-3.301700e-05
1.487943e+01	-3.339951e-05
1.496537e+01	-3.378645e-05
1.505181e+01	-3.417787e-05
1.513875e+01	-3.457383e-05
1.522619e+01	-3.497438e-05
1.531414e+01	-3.537956e-05
1.540259e+01	-3.578944e-05
1.549156e+01	-3.620407e-05
1.558103e+01	-3.662351e-05
1.567103e+01	-3.704780e-05
1.576155e+01	-3.747701e-05
1.585258e+01	-3.791118e-05
1.594415e+01	-3.835039e-05
1.603624e+01	-3.879469e-05
1.612886e+01	-3.924414e-05
1.622202e+01	-3.969879e-05
1.631572e+01	-4.015871e-05
1.640996e+01	-4.062396e-05
1.650474e+01	-4.109460e-05
1.660008e+01	-4.157069e-05
1.669596e+01	-4.205229e-05
1.679239e+01	-4.253948e-05
1.688938e+01	-4.303231e-05
1.698694e+01	-4.353084e-05
1.708505e+01	-4.403516e-05
1.718373e+01	-4.454532e-05
1.728299e+01	-4.506138e-05
1.738281e+01	-4.558343e-05
1.748322e+01	-4.611152e-05
1.758420e+01	-4.664574e-05
1.768576e+01	-4.718614e-05
1.778792e+01	-4.773280e-05
1.789066e+01	-4.828579e-05
1.799399e+01	-4.884519e-05
1.809793e+01	-4.941108e-05
1.820246e+01	-4.998351e-05
1.830760e+01	-5.056258e-05
1.841334e+01	-5.114836e-05
1.851969e+01	-5.174093e-05
1.862666e+01	-5.234036e-05
1.873425e+01	-5.294673e-05
1.884246e+01	-5.356013e-05
1.895129e+01	-5.418063e-05
1.906075e+01	-5.480833e-05
1.917085e+01	-5.544329e-05
1.928158e+01	-5.608562e-05
1.939295e+01	-5.673538e-05
1.950496e+01	-5.739267e-05
1.961762e+01	-5.805758e-05
1.973093e+01	-5.873018e-05
1.984490e+01	-5.941058e-05
1.995952e+01	-6.009887e-05
2.007480e+01	-6.079513e-05
2.019076e+01	-6.149945e-05
2.030738e+01	-6.221193e-05
2.042467e+01	-6.293267e-05
2.054264e+01	-6.366176e-05
2.066130e+01	-6.439929e-05
2.078064e+01	-6.514537e-05
2.090066e+01	-6.590009e-05
2.102139e+01	-6.666356e-05
2.114280e+01	-6.743587e-05
2.126492e+01	-6.821712e-05
2.138775e+01	-6.900743e-05
2.151128e+01	-6.980689e-05
2.163553e+01	-7.061562e-05
2.176050e+01	-7.143372e-05
2.188619e+01	-7.226129e-05
2.201260e+01	-7.309845e-05
2.213974e+01	-7.394531e-05
2.226762e+01	-7.480198e-05
2.239624e+01	-7.566857e-05
2.252560e+01	-7.654521e-05
2.265571e+01	-7.743199e-05
2.278656e+01	-7.832906e-05
2.291818e+01	-7.923651e-05
2.305055e+01	-8.015448e-05
2.318369e+01	-8.108309e-05
2.331760e+01	-8.202245e-05
2.345228e+01	-8.297269e-05
2.358774e+01	-8.393394e-05
2.372398e+01	-8.490633e-05
2.386101e+01	-8.588999e-05
2.399883e+01	-8.688504e-05
2.413745e+01	-8.789161e-05
2.427686e+01	-8.890985e-05
2.441709e+01	-8.993989e-05
2.455812e+01	-9.098185e-05
2.469997e+01	-9.203589e-05
2.484263e+01	-9.310214e-05
2.498612e+01	-9.418075e-05
2.513044e+01	-9.527184e-05
2.527559e+01	-9.637558e-05
2.542158e+01	-9.749211e-05
2.556842e+01	-9.862157e-05
2.571610e+01	-9.976411e-05
2.586463e+01	-1.009199e-04
2.601403e+01	-1.020891e-04
2.616428e+01	-1.032718e-04
2.631541e+01	-1.044682e-04
2.646740e+01	-1.056785e-04
2.662028e+01	-1.069028e-04
2.677404e+01	-1.081413e-04
2.692868e+01	-1.093941e-04
2.708422e+01	-1.106614e-04
2.724066e+01	-1.119435e-04
2.739800e+01	-1.132403e-04
2.755625e+01	-1.145522e-04
2.771541e+01	-1.158794e-04
2.787550e+01	-1.172218e-04
2.803650e+01	-1.185799e-04
2.819844e+01	-1.199536e-04
2.836131e+01	-1.213433e-04
2.852513e+01	-1.227491e-04
2.868989e+01	-1.241711e-04
2.885560e+01	-1.256097e-04
2.902227e+01	-1.270649e-04
2.918990e+01	-1.285369e-04
2.935850e+01	-1.300260e-04
2.952807e+01	-1.315324e-04
2.969863e+01	-1.330562e-04
2.987016e+01	-1.345977e-04
3.004269e+01	-1.361570e-04
3.021622e+01	-1.377344e-04
3.039075e+01	-1.393301e-04
3.056628e+01	-1.409442e-04
3.074283e+01	-1.425771e-04
3.092040e+01	-1.442289e-04
3.109900e+01	-1.458998e-04
3.127862e+01	-1.475900e-04
3.145929e+01	-1.492999e-04
3.164099e+01	-1.510295e-04
3.182375e+01	-1.527792e-04
3.200756e+01	-1.545492e-04
3.219244e+01	-1.563396e-04
3.237838e+01	-1.581508e-04
3.256540e+01	-1.599830e-04
3.275349e+01	-1.618364e-04
3.294268e+01	-1.637113e-04
3.313295e+01	-1.656079e-04
3.332433e+01	-1.675265e-04
3.351681e+01	-1.694673e-04
3.371040e+01	-1.714306e-04
3.390511e+01	-1.734166e-04
3.410094e+01	-1.754257e-04
3.429791e+01	-1.774580e-04
3.449601e+01	-1.795138e-04
3.469526e+01	-1.815935e-04
3.489566e+01	-1.836973e-04
3.509721e+01	-1.858254e-04
3.529993e+01	-1.879782e-04
3.550382e+01	-1.901559e-04
3.570889e+01	-1.923589e-04
3.591515e+01	-1.945874e-04
3.612259e+01	-1.968417e-04
3.633123e+01	-1.991221e-04
3.654108e+01	-2.014289e-04
3.675214e+01	-2.037625e-04
3.696442e+01	-2.061231e-04
3.717792e+01	-2.085110e-04
3.739266e+01	-2.109266e-04
3.760864e+01	-2.133702e-04
3.782587e+01	-2.158421e-04
3.804435e+01	-2.183426e-04
3.826409e+01	-2.208721e-04
3.848510e+01	-2.234309e-04
3.870739e+01	-2.260193e-04
3.893096e+01	-2.286378e-04
3.915583e+01	-2.312865e-04
3.938199e+01	-2.339660e-04
3.960946e+01	-2.366765e-04
3.983824e+01	-2.394183e-04
4.006834e+01	-2.421920e-04
4.029978e+01	-2.449978e-04
4.053255e+01	-2.478361e-04
4.076666e+01	-2.507072e-04
4.100213e+01	-2.536117e-04
4.123896e+01	-2.565497e-04
4.147715e+01	-2.595218e-04
4.171672e+01	-2.625284e-04
4.195767e+01	-2.655698e-04
4.220002e+01	-2.686464e-04
4.244377e+01	-2.717586e-04
4.268892e+01	-2.749069e-04
4.293549e+01	-2.780917e-04
4.318348e+01	-2.813133e-04
4.343291e+01	-2.845723e-04
4.368377e+01	-2.878691e-04
4.393609e+01	-2.912040e-04
4.418986e+01	-2.945776e-04
4.444510e+01	-2.979902e-04
4.470182e+01	-3.014424e-04
4.496001e+01	-3.049346e-04
4.521970e+01	-3.084672e-04
4.548089e+01	-3.120407e-04
4.574358e+01	-3.156557e-04
4.600779e+01	-3.193125e-04
4.627353e+01	-3.230117e-04
4.654081e+01	-3.267537e-04
4.680963e+01	-3.305391e-04
4.708000e+01	-3.343684e-04
4.735193e+01	-3.382420e-04
4.762543e+01	-3.421604e-04
4.790051e+01	-3.461243e-04
4.817719e+01	-3.501341e-04
4.845545e+01	-3.541903e-04
4.873533e+01	-3.582935e-04
4.901682e+01	-3.624443e-04
4.929994e+01	-3.666431e-04
4.958470e+01	-3.708906e-04
4.987110e+01	-3.751873e-04
5.015915e+01	-3.795338e-04
5.044887e+01	-3.839306e-04
5.074026e+01	-3.883783e-04
5.103333e+01	-3.928776e-04
5.132810e+01	-3.974290e-04
5.162457e+01	-4.020331e-04
5.192275e+01	-4.066905e-04
5.222265e+01	-4.114019e-04
5.252429e+01	-4.161679e-04
5.282767e+01	-4.209891e-04
5.313280e+01	-4.258661e-04
5.343969e+01	-4.307997e-04
5.374836e+01	-4.357904e-04
5.405880e+01	-4.408388e-04
5.437105e+01	-4.459458e-04
5.468509e+01	-4.511120e-04
5.500095e+01	-4.563379e-04
5.531863e+01	-4.616245e-04
5.563815e+01	-4.669722e-04
5.595951e+01	-4.723819e-04
5.628273e+01	-4.778543e-04
5.660782e+01	-4.833901e-04
5.693479e+01	-4.889900e-04
5.726364e+01	-4.946547e-04
5.759439e+01	-5.003851e-04
5.792705e+01	-5.061819e-04
5.826164e+01	-5.120458e-04
5.859815e+01	-5.179776e-04
5.893662e+01	-5.239782e-04
5.927703e+01	-5.300482e-04
5.961941e+01	-5.361886e-04
5.996377e+01	-5.424001e-04
6.031012e+01	-5.486836e-04
6.065847e+01	-5.550398e-04
6.100883e+01	-5.614697e-04
6.136121e+01	-5.679740e-04
6.171563e+01	-5.745537e-04
6.207210e+01	-5.812097e-04
6.243063e+01	-5.879427e-04
6.279122e+01	-5.947537e-04
6.315390e+01	-6.016436e-04
6.351868e+01	-6.086133e-04
6.388556e+01	-6.156638e-04
6.425456e+01	-6.227959e-04
6.462569e+01	-6.300106e-04
6.499897e+01	-6.373089e-04
6.537440e+01	-6.446918e-04
6.575200e+01	-6.521602e-04
6.613178e+01	-6.597150e-04
6.651375e+01	-6.673574e-04
6.689793e+01	-6.750884e-04
6.728433e+01	-6.829088e-04
6.767297e+01	-6.908199e-04
6.806384e+01	-6.988226e-04
6.845698e+01	-7.069180e-04
6.885238e+01	-7.151071e-04
6.925007e+01	-7.233912e-04
6.965005e+01	-7.317711e-04
7.005235e+01	-7.402482e-04
7.045697e+01	-7.488234e-04
7.086393e+01	-7.574980e-04
7.127323e+01	-7.662730e-04
7.168490e+01	-7.751497e-04
7.209895e+01	-7.841292e-04
7.251539e+01	-7.932128e-04
7.293424e+01	-8.024015e-04
7.335551e+01	-8.116967e-04
7.377920e+01	-8.210995e-04
7.420535e+01	-8.306113e-04
7.463396e+01	-8.402332e-04
7.506504e+01	-8.499666e-04
7.549861e+01	-8.598127e-04
7.593469e+01	-8.697729e-04
7.637328e+01	-8.798484e-04
7.681441e+01	-8.900406e-04
7.725809e+01	-9.003509e-04
7.770433e+01	-9.107807e-04
7.815315e+01	-9.213312e-04
7.860456e+01	-9.320039e-04
7.905857e+01	-9.428002e-04
7.951521e+01	-9.537216e-04
7.997449e+01	-9.647695e-04
8.043642e+01	-9.759454e-04
8.090102e+01	-9.872507e-04
8.136830e+01	-9.986870e-04
8.183828e+01	-1.010256e-03
8.231097e+01	-1.021958e-03
8.278640e+01	-1.033797e-03
8.326457e+01	-1.045772e-03
8.374550e+01	-1.057886e-03
8.422921e+01	-1.070140e-03
8.471572e+01	-1.082537e-03
8.520503e+01	-1.095077e-03
8.569717e+01	-1.107762e-03
8.619215e+01	-1.120594e-03
8.669000e+01	-1.133575e-03
8.719071e+01	-1.146706e-03
8.769432e+01	-1.159989e-03
8.820084e+01	-1.173426e-03
8.871029e+01	-1.187018e-03
8.922267e+01	-1.200768e-03
8.973802e+01	-1.214678e-03
9.025634e+01	-1.228748e-03
9.077766e+01	-1.242981e-03
9.130199e+01	-1.257380e-03
9.182935e+01	-1.271945e-03
9.235975e+01	-1.286678e-03
9.289321e+01	-1.301582e-03
9.342976e+01	-1.316659e-03
9.396941e+01	-1.331911e-03
9.451217e+01	-1.347339e-03
9.505807e+01	-1.362946e-03
9.560712e+01	-1.378733e-03
9.615934e+01	-1.394704e-03
9.671476e+01	-1.410859e-03
9.727338e+01	-1.427202e-03
9.783522e+01	-1.443734e-03
9.840032e+01	-1.460457e-03
9.896867e+01	-1.477374e-03
9.954031e+01	-1.494486e-03
1.001153e+02	-1.511797e-03
1.006935e+02	-1.529309e-03
1.012751e+02	-1.547023e-03
1.018601e+02	-1.564943e-03
1.024484e+02	-1.583070e-03
1.030402e+02	-1.601407e-03
1.036353e+02	-1.619956e-03
1.042339e+02	-1.638720e-03
1.048360e+02	-1.657701e-03
1.054415e+02	-1.676903e-03
1.060505e+02	-1.696326e-03
1.066631e+02	-1.715975e-03
1.072791e+02	-1.735851e-03
1.078988e+02	-1.755957e-03
1.085220e+02	-1.776296e-03
1.091488e+02	-1.796871e-03
1.097793e+02	-1.817683e-03
1.104133e+02	-1.838737e-03
1.110511e+02	-1.860035e-03
1.116925e+02	-1.881579e-03
1.123376e+02	-1.903373e-03
1.129865e+02	-1.925419e-03
1.136391e+02	-1.947721e-03
1.142955e+02	-1.970281e-03
1.149556e+02	-1.993102e-03
1.156196e+02	-2.016187e-03
1.162874e+02	-2.039539e-03
1.169591e+02	-2.063162e-03
1.176347e+02	-2.087059e-03
1.183141e+02	-2.111232e-03
1.189975e+02	-2.135685e-03
1.196848e+02	-2.160422e-03
1.203761e+02	-2.185444e-03
1.210714e+02	-2.210757e-03
1.217707e+02	-2.236363e-03
1.224740e+02	-2.262265e-03
1.231814e+02	-2.288467e-03
1.238929e+02	-2.314972e-03
1.246085e+02	-2.341784e-03
1.253283e+02	-2.368907e-03
1.260522e+02	-2.396344e-03
1.267802e+02	-2.424099e-03
1.275125e+02	-2.452174e-03
1.282490e+02	-2.480575e-03
1.289898e+02	-2.509305e-03
1.297348e+02	-2.538368e-03
1.304842e+02	-2.567767e-03
1.312378e+02	-2.597506e-03
1.319959e+02	-2.627590e-03
1.327583e+02	-2.658022e-03
1.335251e+02	-2.688806e-03
1.342963e+02	-2.719947e-03
1.350720e+02	-2.751448e-03
1.358522e+02	-2.783314e-03
1.366368e+02	-2.815549e-03
1.374260e+02	-2.848157e-03
1.382198e+02	-2.881143e-03
1.390182e+02	-2.914510e-03
1.398211e+02	-2.948264e-03
1.406287e+02	-2.982409e-03
1.414410e+02	-3.016949e-03
1.422579e+02	-3.051889e-03
1.430796e+02	-3.087233e-03
1.439060e+02	-3.122987e-03
1.447372e+02	-3.159154e-03
1.455732e+02	-3.195740e-03
1.464141e+02	-3.232750e-03
1.472597e+02	-3.270188e-03
1.481103e+02	-3.308060e-03
1.489658e+02	-3.346370e-03
1.498262e+02	-3.385123e-03
1.506916e+02	-3.424325e-03
1.515620e+02	-3.463981e-03
1.524374e+02	-3.504096e-03
1.533179e+02	-3.544675e-03
1.542034e+02	-3.585724e-03
1.550941e+02	-3.627248e-03
1.559899e+02	-3.669253e-03
1.568909e+02	-3.711744e-03
1.577971e+02	-3.754727e-03
1.587085e+02	-3.798208e-03
1.596252e+02	-3.842191e-03
1.605472e+02	-3.886684e-03
1.614745e+02	-3.931692e-03
1.624072e+02	-3.977221e-03
1.633453e+02	-4.023276e-03
1.642887e+02	-4.069865e-03
1.652377e+02	-4.116993e-03
1.661921e+02	-4.164667e-03
1.671520e+02	-4.212892e-03
1.681175e+02	-4.261676e-03
1.690885e+02	-4.311024e-03
1.700651e+02	-4.360943e-03
1.710474e+02	-4.411440e-03
1.720354e+02	-4.462521e-03
1.730291e+02	-4.514194e-03
1.740285e+02	-4.566464e-03
1.750337e+02	-4.619340e-03
1.760446e+02	-4.672827e-03
1.770615e+02	-4.726934e-03
1.780842e+02	-4.781666e-03
1.791128e+02	-4.837032e-03
1.801473e+02	-4.893039e-03
1.811878e+02	-4.949693e-03
1.822344e+02	-5.007004e-03
1.832870e+02	-5.064977e-03
1.843456e+02	-5.123622e-03
1.854104e+02	-5.182945e-03
1.864813e+02	-5.242954e-03
1.875584e+02	-5.303658e-03
1.886418e+02	-5.365064e-03
1.897313e+02	-5.427181e-03
1.908272e+02	-5.490016e-03
1.919294e+02	-5.553579e-03
1.930380e+02	-5.617876e-03
1.941530e+02	-5.682918e-03
1.952744e+02	-5.748713e-03
1.964023e+02	-5.815268e-03
1.975367e+02	-5.882594e-03
1.986777e+02	-5.950699e-03
1.998252e+02	-6.019591e-03
2.009794e+02	-6.089280e-03
2.021403e+02	-6.159776e-03
2.033078e+02	-6.231087e-03
2.044821e+02	-6.303224e-03
2.056632e+02	-6.376194e-03
2.068511e+02	-6.450009e-03
2.080459e+02	-6.524678e-03
2.092475e+02	-6.600210e-03
2.104561e+02	-6.676617e-03
2.116717e+02	-6.753907e-03
2.128943e+02	-6.832091e-03
2.141240e+02	-6.911179e-03
2.153608e+02	-6.991182e-03
2.166047e+02	-7.072111e-03
2.178558e+02	-7.153975e-03
2.191141e+02	-7.236786e-03
2.203797e+02	-7.320556e-03
2.216526e+02	-7.405294e-03
2.229329e+02	-7.491012e-03
2.242205e+02	-7.577721e-03
2.255156e+02	-7.665433e-03
2.268182e+02	-7.754160e-03
2.281283e+02	-7.843912e-03
2.294459e+02	-7.934703e-03
2.307712e+02	-8.026543e-03
2.321041e+02	-8.119445e-03
2.334447e+02	-8.213422e-03
2.347931e+02	-8.308485e-03
2.361493e+02	-8.404648e-03
2.375133e+02	-8.501922e-03
2.388851e+02	-8.600321e-03
2.402649e+02	-8.699858e-03
2.416527e+02	-8.800546e-03
2.430484e+02	-8.902397e-03
2.444523e+02	-9.005427e-03
2.458642e+02	-9.109647e-03
2.472843e+02	-9.215072e-03
2.487126e+02	-9.321716e-03
2.501492e+02	-9.429593e-03
2.515940e+02	-9.538717e-03
2.530472e+02	-9.649102e-03
2.545088e+02	-9.760763e-03
2.559789e+02	-9.873715e-03
2.574574e+02	-9.987973e-03
2.589444e+02	-1.010355e-02
2.604401e+02	-1.022047e-02
2.619444e+02	-1.033873e-02
2.634574e+02	-1.045836e-02
2.649791e+02	-1.057938e-02
2.665096e+02	-1.070179e-02
2.680489e+02	-1.082562e-02
2.695972e+02	-1.095088e-02
2.711544e+02	-1.107758e-02
2.727205e+02	-1.120575e-02
2.742958e+02	-1.133541e-02
2.758801e+02	-1.146656e-02
2.774736e+02	-1.159922e-02
2.790762e+02	-1.173342e-02
2.806882e+02	-1.186917e-02
2.823094e+02	-1.200648e-02
2.839400e+02	-1.214539e-02
2.855800e+02	-1.228589e-02
2.872295e+02	-1.242802e-02
2.888886e+02	-1.257180e-02
2.905572e+02	-1.271723e-02
2.922354e+02	-1.286434e-02
2.939234e+02	-1.301316e-02
2.956211e+02	-1.316369e-02
2.973286e+02	-1.331596e-02
2.990459e+02	-1.346999e-02
3.007732e+02	-1.362579e-02
3.025104e+02	-1.378340e-02
3.042577e+02	-1.394283e-02
3.060151e+02	-1.410410e-02
3.077826e+02	-1.426723e-02
3.095604e+02	-1.443224e-02
3.113484e+02	-1.459916e-02
3.131467e+02	-1.476801e-02
3.149554e+02	-1.493880e-02
3.167746e+02	-1.511157e-02
3.186043e+02	-1.528633e-02
3.204445e+02	-1.546311e-02
3.222954e+02	-1.564193e-02
3.241570e+02	-1.582282e-02
3.260293e+02	-1.600579e-02
3.279124e+02	-1.619087e-02
3.298064e+02	-1.637809e-02
3.317114e+02	-1.656747e-02
3.336273e+02	-1.675904e-02
3.355544e+02	-1.695282e-02
3.374925e+02	-1.714883e-02
3.394418e+02	-1.734711e-02
3.414024e+02	-1.754767e-02
3.433744e+02	-1.775055e-02
3.453577e+02	-1.795576e-02
3.473525e+02	-1.816335e-02
3.493588e+02	-1.837333e-02
3.513766e+02	-1.858573e-02
3.534062e+02	-1.880059e-02
3.554474e+02	-1.901792e-02
3.575005e+02	-1.923775e-02
3.595654e+02	-1.946013e-02
3.616422e+02	-1.968507e-02
3.637311e+02	-1.991260e-02
3.658320e+02	-2.014275e-02
3.679450e+02	-2.037556e-02
3.700702e+02	-2.061106e-02
3.722077e+02	-2.084927e-02
3.743576e+02	-2.109022e-02
3.765199e+02	-2.133395e-02
3.786946e+02	-2.158050e-02
3.808820e+02	-2.182988e-02
3.830819e+02	-2.208214e-02
3.852946e+02	-2.233731e-02
3.875200e+02	-2.259542e-02
3.897583e+02	-2.285650e-02
3.920096e+02	-2.312059e-02
3.942738e+02	-2.338772e-02
3.965511e+02	-2.365794e-02
3.988416e+02	-2.393126e-02
4.011452e+02	-2.420774e-02
4.034622e+02	-2.448740e-02
4.057926e+02	-2.477028e-02
4.081365e+02	-2.505642e-02
4.104938e+02	-2.534585e-02
4.128648e+02	-2.563862e-02
4.152495e+02	-2.593476e-02
4.176480e+02	-2.623431e-02
4.200603e+02	-2.653731e-02
4.224866e+02	-2.684380e-02
4.249268e+02	-2.715382e-02
4.273812e+02	-2.746740e-02
4.298497e+02	-2.778460e-02
4.323325e+02	-2.810544e-02
4.348297e+02	-2.842998e-02
4.373412e+02	-2.875826e-02
4.398673e+02	-2.909031e-02
4.424079e+02	-2.942618e-02
4.449633e+02	-2.976592e-02
4.475334e+02	-3.010957e-02
4.501183e+02	-3.045717e-02
4.527182e+02	-3.080877e-02
4.553330e+02	-3.116441e-02
4.579630e+02	-3.152414e-02
4.606082e+02	-3.188801e-02
4.632687e+02	-3.225607e-02
4.659445e+02	-3.262835e-02
4.686358e+02	-3.300492e-02
4.713426e+02	-3.338582e-02
4.740650e+02	-3.377109e-02
4.768032e+02	-3.416080e-02
4.795572e+02	-3.455498e-02
4.823271e+02	-3.495369e-02
4.851130e+02	-3.535699e-02
4.879150e+02	-3.576491e-02
4.907332e+02	-3.617753e-02
4.935676e+02	-3.659489e-02
4.964185e+02	-3.701703e-02
4.992858e+02	-3.744403e-02
5.021696e+02	-3.787593e-02
5.050701e+02	-3.831280e-02
5.079874e+02	-3.875467e-02
5.109215e+02	-3.920163e-02
5.138726e+02	-3.965371e-02
5.168407e+02	-4.011098e-02
5.198259e+02	-4.057350e-02
5.228284e+02	-4.104133e-02
5.258482e+02	-4.151452e-02
5.288855e+02	-4.199315e-02
5.319403e+02	-4.247726e-02
5.350128e+02	-4.296693e-02
5.381030e+02	-4.346222e-02
5.412111e+02	-4.396319e-02
5.443371e+02	-4.446990e-02
5.474812e+02	-4.498242e-02
5.506434e+02	-4.550082e-02
5.538239e+02	-4.602516e-02
5.570228e+02	-4.655551e-02
5.602401e+02	-4.709193e-02
5.634760e+02	-4.763451e-02
5.667306e+02	-4.818330e-02
5.700040e+02	-4.873838e-02
5.732964e+02	-4.929981e-02
5.766077e+02	-4.986768e-02
5.799382e+02	-5.044204e-02
5.832879e+02	-5.102299e-02
5.866569e+02	-5.161059e-02
5.900454e+02	-5.220491e-02
5.934535e+02	-5.280603e-02
5.968813e+02	-5.341404e-02
6.003288e+02	-5.402899e-02
6.037963e+02	-5.465099e-02
6.072838e+02	-5.528010e-02
6.107914e+02	-5.591641e-02
6.143194e+02	-5.655999e-02
6.178676e+02	-5.721093e-02
6.214364e+02	-5.786931e-02
6.250258e+02	-5.853522e-02
6.286359e+02	-5.920873e-02
6.322669e+02	-5.988995e-02
6.359189e+02	-6.057894e-02
6.395919e+02	-6.127581e-02
6.432862e+02	-6.198063e-02
6.470017e+02	-6.269351e-02
6.507388e+02	-6.341452e-02
6.544974e+02	-6.414376e-02
6.582778e+02	-6.488133e-02
6.620800e+02	-6.562731e-02
6.659041e+02	-6.638181e-02
6.697504e+02	-6.714491e-02
6.736188e+02	-6.791671e-02
6.775096e+02	-6.869732e-02
6.814229e+02	-6.948682e-02
6.853587e+02	-7.028533e-02
6.893173e+02	-7.109294e-02
6.932988e+02	-7.190974e-02
6.973033e+02	-7.273586e-02
7.013309e+02	-7.357138e-02
