Frequency(Hz)	Magnitude(dB)
1.000000e+01	-1.600345e-05
1.005776e+01	-1.618885e-05
1.011585e+01	-1.637640e-05
1.017428e+01	-1.656613e-05
1.023305e+01	-1.675805e-05
1.029215e+01	-1.695220e-05
1.035160e+01	-1.714859e-05
1.041139e+01	-1.734726e-05
1.047153e+01	-1.754823e-05
1.053201e+01	-1.775154e-05
1.059284e+01	-1.795719e-05
1.065403e+01	-1.816523e-05
1.071556e+01	-1.837568e-05
1.077746e+01	-1.858857e-05
1.083971e+01	-1.880392e-05
1.090232e+01	-1.902177e-05
1.096529e+01	-1.924214e-05
1.102862e+01	-1.946506e-05
1.109232e+01	-1.969057e-05
1.115639e+01	-1.991869e-05
1.122083e+01	-2.014946e-05
1.128564e+01	-2.038289e-05
1.135083e+01	-2.061903e-05
1.141639e+01	-2.085791e-05
1.148233e+01	-2.109955e-05
1.154865e+01	-2.134400e-05
1.161536e+01	-2.159127e-05
1.168245e+01	-2.184141e-05
1.174992e+01	-2.209445e-05
1.181779e+01	-2.235042e-05
1.188605e+01	-2.260936e-05
1.195470e+01	-2.287129e-05
1.202375e+01	-2.313626e-05
1.209320e+01	-2.340430e-05
1.216305e+01	-2.367544e-05
1.223330e+01	-2.394973e-05
1.230396e+01	-2.422719e-05
1.237503e+01	-2.450787e-05
1.244651e+01	-2.479180e-05
1.251840e+01	-2.507902e-05
1.259070e+01	-2.536957e-05
1.266343e+01	-2.566348e-05
1.273657e+01	-2.596080e-05
1.281014e+01	-2.626156e-05
1.288413e+01	-2.656581e-05
1.295855e+01	-2.687358e-05
1.303339e+01	-2.718492e-05
1.310867e+01	-2.749986e-05
1.318439e+01	-2.781845e-05
1.326054e+01	-2.814074e-05
1.333713e+01	-2.846675e-05
1.341417e+01	-2.879655e-05
1.349165e+01	-2.913016e-05
1.356958e+01	-2.946764e-05
1.364795e+01	-2.980903e-05
1.372678e+01	-3.015438e-05
1.380607e+01	-3.050372e-05
1.388581e+01	-3.085711e-05
1.396602e+01	-3.121460e-05
1.404668e+01	-3.157623e-05
1.412782e+01	-3.194205e-05
1.420942e+01	-3.231210e-05
1.429149e+01	-3.268645e-05
1.437404e+01	-3.306513e-05
1.445706e+01	-3.344820e-05
1.454057e+01	-3.383570e-05
1.462455e+01	-3.422770e-05
1.470902e+01	-3.462423e-05
1.479398e+01	-3.502536e-05
1.487943e+01	-3.543114e-05
1.496537e+01	-3.584162e-05
1.505181e+01	-3.625685e-05
1.513875e+01	-3.667689e-05
1.522619e+01	-3.710180e-05
1.531414e+01	-3.753164e-05
1.540259e+01	-3.796645e-05
1.549156e+01	-3.840630e-05
1.558103e+01	-3.885124e-05
1.567103e+01	-3.930135e-05
1.576155e+01	-3.975666e-05
1.585258e+01	-4.021725e-05
1.594415e+01	-4.068318e-05
1.603624e+01	-4.115450e-05
1.612886e+01	-4.163128e-05
1.622202e+01	-4.211359e-05
1.631572e+01	-4.260149e-05
1.640996e+01	-4.309504e-05
1.650474e+01	-4.359430e-05
1.660008e+01	-4.409935e-05
1.669596e+01	-4.461025e-05
1.679239e+01	-4.512707e-05
1.688938e+01	-4.564988e-05
1.698694e+01	-4.617874e-05
1.708505e+01	-4.671373e-05
1.718373e+01	-4.725492e-05
1.728299e+01	-4.780238e-05
1.738281e+01	-4.835618e-05
1.748322e+01	-4.891640e-05
1.758420e+01	-4.948310e-05
1.768576e+01	-5.005638e-05
1.778792e+01	-5.063629e-05
1.789066e+01	-5.122292e-05
1.799399e+01	-5.181635e-05
1.809793e+01	-5.241665e-05
1.820246e+01	-5.302391e-05
1.830760e+01	-5.363820e-05
1.841334e+01	-5.425961e-05
1.851969e+01	-5.488822e-05
1.862666e+01	-5.552411e-05
1.873425e+01	-5.616737e-05
1.884246e+01	-5.681808e-05
1.895129e+01	-5.747633e-05
1.906075e+01	-5.814221e-05
1.917085e+01	-5.881580e-05
1.928158e+01	-5.949719e-05
1.939295e+01	-6.018648e-05
1.950496e+01	-6.088375e-05
1.961762e+01	-6.158910e-05
1.973093e+01	-6.230262e-05
1.984490e+01	-6.302441e-05
1.995952e+01	-6.375456e-05
2.007480e+01	-6.449317e-05
2.019076e+01	-6.524033e-05
2.030738e+01	-6.599615e-05
2.042467e+01	-6.676073e-05
2.054264e+01	-6.753417e-05
2.066130e+01	-6.831656e-05
2.078064e+01	-6.910802e-05
2.090066e+01	-6.990865e-05
2.102139e+01	-7.071856e-05
2.114280e+01	-7.153785e-05
2.126492e+01	-7.236663e-05
2.138775e+01	-7.320501e-05
2.151128e+01	-7.405310e-05
2.163553e+01	-7.491102e-05
2.176050e+01	-7.577888e-05
2.188619e+01	-7.665679e-05
2.201260e+01	-7.754487e-05
2.213974e+01	-7.844324e-05
2.226762e+01	-7.935202e-05
2.239624e+01	-8.027133e-05
2.252560e+01	-8.120128e-05
2.265571e+01	-8.214201e-05
2.278656e+01	-8.309364e-05
2.291818e+01	-8.405630e-05
2.305055e+01	-8.503010e-05
2.318369e+01	-8.601519e-05
2.331760e+01	-8.701169e-05
2.345228e+01	-8.801973e-05
2.358774e+01	-8.903946e-05
2.372398e+01	-9.007099e-05
2.386101e+01	-9.111448e-05
2.399883e+01	-9.217006e-05
2.413745e+01	-9.323786e-05
2.427686e+01	-9.431804e-05
2.441709e+01	-9.541072e-05
2.455812e+01	-9.651607e-05
2.469997e+01	-9.763423e-05
2.484263e+01	-9.876533e-05
2.498612e+01	-9.990954e-05
2.513044e+01	-1.010670e-04
2.527559e+01	-1.022379e-04
2.542158e+01	-1.034223e-04
2.556842e+01	-1.046205e-04
2.571610e+01	-1.058325e-04
2.586463e+01	-1.070586e-04
2.601403e+01	-1.082989e-04
2.616428e+01	-1.095536e-04
2.631541e+01	-1.108228e-04
2.646740e+01	-1.121066e-04
2.662028e+01	-1.134054e-04
2.677404e+01	-1.147192e-04
2.692868e+01	-1.160483e-04
2.708422e+01	-1.173927e-04
2.724066e+01	-1.187527e-04
2.739800e+01	-1.201285e-04
2.755625e+01	-1.215202e-04
2.771541e+01	-1.229280e-04
2.787550e+01	-1.243521e-04
2.803650e+01	-1.257928e-04
2.819844e+01	-1.272501e-04
2.836131e+01	-1.287243e-04
2.852513e+01	-1.302156e-04
2.868989e+01	-1.317241e-04
2.885560e+01	-1.332502e-04
2.902227e+01	-1.347939e-04
2.918990e+01	-1.363555e-04
2.935850e+01	-1.379352e-04
2.952807e+01	-1.395332e-04
2.969863e+01	-1.411497e-04
2.987016e+01	-1.427849e-04
3.004269e+01	-1.444391e-04
3.021622e+01	-1.461124e-04
3.039075e+01	-1.478052e-04
3.056628e+01	-1.495175e-04
3.074283e+01	-1.512497e-04
3.092040e+01	-1.530019e-04
3.109900e+01	-1.547744e-04
3.127862e+01	-1.565675e-04
3.145929e+01	-1.583814e-04
3.164099e+01	-1.602162e-04
3.182375e+01	-1.620723e-04
3.200756e+01	-1.639500e-04
3.219244e+01	-1.658493e-04
3.237838e+01	-1.677707e-04
3.256540e+01	-1.697143e-04
3.275349e+01	-1.716805e-04
3.294268e+01	-1.736694e-04
3.313295e+01	-1.756814e-04
3.332433e+01	-1.777167e-04
3.351681e+01	-1.797755e-04
3.371040e+01	-1.818582e-04
3.390511e+01	-1.839650e-04
3.410094e+01	-1.860963e-04
3.429791e+01	-1.882522e-04
3.449601e+01	-1.904331e-04
3.469526e+01	-1.926393e-04
3.489566e+01	-1.948710e-04
3.509721e+01	-1.971286e-04
3.529993e+01	-1.994123e-04
3.550382e+01	-2.017225e-04
3.570889e+01	-2.040595e-04
3.591515e+01	-2.064235e-04
3.612259e+01	-2.088149e-04
3.633123e+01	-2.112341e-04
3.654108e+01	-2.136812e-04
3.675214e+01	-2.161567e-04
3.696442e+01	-2.186609e-04
3.717792e+01	-2.211941e-04
3.739266e+01	-2.237566e-04
3.760864e+01	-2.263488e-04
3.782587e+01	-2.289710e-04
3.804435e+01	-2.316237e-04
3.826409e+01	-2.343070e-04
3.848510e+01	-2.370215e-04
3.870739e+01	-2.397673e-04
3.893096e+01	-2.425450e-04
3.915583e+01	-2.453549e-04
3.938199e+01	-2.481973e-04
3.960946e+01	-2.510727e-04
3.983824e+01	-2.539813e-04
4.006834e+01	-2.569237e-04
4.029978e+01	-2.599001e-04
4.053255e+01	-2.629111e-04
4.076666e+01	-2.659569e-04
4.100213e+01	-2.690380e-04
4.123896e+01	-2.721547e-04
4.147715e+01	-2.753076e-04
4.171672e+01	-2.784970e-04
4.195767e+01	-2.817234e-04
4.220002e+01	-2.849871e-04
4.244377e+01	-2.882887e-04
4.268892e+01	-2.916285e-04
4.293549e+01	-2.950070e-04
4.318348e+01	-2.984246e-04
4.343291e+01	-3.018818e-04
4.368377e+01	-3.053791e-04
4.393609e+01	-3.089168e-04
4.418986e+01	-3.124956e-04
4.444510e+01	-3.161158e-04
4.470182e+01	-3.197780e-04
4.496001e+01	-3.234825e-04
4.521970e+01	-3.272300e-04
4.548089e+01	-3.310209e-04
4.574358e+01	-3.348558e-04
4.600779e+01	-3.387350e-04
4.627353e+01	-3.426592e-04
4.654081e+01	-3.466288e-04
4.680963e+01	-3.506445e-04
4.708000e+01	-3.547066e-04
4.735193e+01	-3.588158e-04
4.762543e+01	-3.629726e-04
4.790051e+01	-3.671776e-04
4.817719e+01	-3.714313e-04
4.845545e+01	-3.757342e-04
4.873533e+01	-3.800870e-04
4.901682e+01	-3.844902e-04
4.929994e+01	-3.889444e-04
4.958470e+01	-3.934503e-04
4.987110e+01	-3.980083e-04
5.015915e+01	-4.026191e-04
5.044887e+01	-4.072834e-04
5.074026e+01	-4.120016e-04
5.103333e+01	-4.167745e-04
5.132810e+01	-4.216028e-04
5.162457e+01	-4.264869e-04
5.192275e+01	-4.314276e-04
5.222265e+01	-4.364256e-04
5.252429e+01	-4.414814e-04
5.282767e+01	-4.465959e-04
5.313280e+01	-4.517695e-04
5.343969e+01	-4.570031e-04
5.374836e+01	-4.622974e-04
5.405880e+01	-4.676529e-04
5.437105e+01	-4.730705e-04
5.468509e+01	-4.785508e-04
5.500095e+01	-4.840947e-04
5.531863e+01	-4.897027e-04
5.563815e+01	-4.953758e-04
5.595951e+01	-5.011145e-04
5.628273e+01	-5.069197e-04
5.660782e+01	-5.127922e-04
5.693479e+01	-5.187326e-04
5.726364e+01	-5.247419e-04
5.759439e+01	-5.308208e-04
5.792705e+01	-5.369702e-04
5.826164e+01	-5.431907e-04
5.859815e+01	-5.494834e-04
5.893662e+01	-5.558489e-04
5.927703e+01	-5.622881e-04
5.961941e+01	-5.688019e-04
5.996377e+01	-5.753912e-04
6.031012e+01	-5.820569e-04
6.065847e+01	-5.887997e-04
6.100883e+01	-5.956206e-04
6.136121e+01	-6.025206e-04
6.171563e+01	-6.095004e-04
6.207210e+01	-6.165612e-04
6.243063e+01	-6.237037e-04
6.279122e+01	-6.309289e-04
6.315390e+01	-6.382379e-04
6.351868e+01	-6.456315e-04
6.388556e+01	-6.531108e-04
6.425456e+01	-6.606767e-04
6.462569e+01	-6.683302e-04
6.499897e+01	-6.760724e-04
6.537440e+01	-6.839042e-04
6.575200e+01	-6.918268e-04
6.613178e+01	-6.998412e-04
6.651375e+01	-7.079484e-04
6.689793e+01	-7.161495e-04
6.728433e+01	-7.244456e-04
6.767297e+01	-7.328378e-04
6.806384e+01	-7.413272e-04
6.845698e+01	-7.499149e-04
6.885238e+01	-7.586021e-04
6.925007e+01	-7.673900e-04
6.965005e+01	-7.762796e-04
7.005235e+01	-7.852722e-04
7.045697e+01	-7.943689e-04
7.086393e+01	-8.035711e-04
7.127323e+01	-8.128798e-04
7.168490e+01	-8.222963e-04
7.209895e+01	-8.318220e-04
7.251539e+01	-8.414579e-04
7.293424e+01	-8.512055e-04
7.335551e+01	-8.610659e-04
7.377920e+01	-8.710406e-04
7.420535e+01	-8.811308e-04
7.463396e+01	-8.913379e-04
7.506504e+01	-9.016633e-04
7.549861e+01	-9.121082e-04
7.593469e+01	-9.226741e-04
7.637328e+01	-9.333624e-04
7.681441e+01	-9.441744e-04
7.725809e+01	-9.551118e-04
7.770433e+01	-9.661758e-04
7.815315e+01	-9.773679e-04
7.860456e+01	-9.886897e-04
7.905857e+01	-1.000143e-03
7.951521e+01	-1.011728e-03
7.997449e+01	-1.023448e-03
8.043642e+01	-1.035303e-03
8.090102e+01	-1.047296e-03
8.136830e+01	-1.059428e-03
8.183828e+01	-1.071700e-03
8.231097e+01	-1.084115e-03
8.278640e+01	-1.096673e-03
8.326457e+01	-1.109376e-03
8.374550e+01	-1.122227e-03
8.422921e+01	-1.135227e-03
8.471572e+01	-1.148377e-03
8.520503e+01	-1.161679e-03
8.569717e+01	-1.175136e-03
8.619215e+01	-1.188748e-03
8.669000e+01	-1.202519e-03
8.719071e+01	-1.216448e-03
8.769432e+01	-1.230539e-03
8.820084e+01	-1.244793e-03
8.871029e+01	-1.259212e-03
8.922267e+01	-1.273798e-03
8.973802e+01	-1.288553e-03
9.025634e+01	-1.303479e-03
9.077766e+01	-1.318578e-03
9.130199e+01	-1.333852e-03
9.182935e+01	-1.349303e-03
9.235975e+01	-1.364932e-03
9.289321e+01	-1.380743e-03
9.342976e+01	-1.396737e-03
9.396941e+01	-1.412916e-03
9.451217e+01	-1.429282e-03
9.505807e+01	-1.445838e-03
9.560712e+01	-1.462585e-03
9.615934e+01	-1.479527e-03
9.671476e+01	-1.496665e-03
9.727338e+01	-1.514001e-03
9.783522e+01	-1.531538e-03
9.840032e+01	-1.549278e-03
9.896867e+01	-1.567224e-03
9.954031e+01	-1.585377e-03
1.001153e+02	-1.603741e-03
1.006935e+02	-1.622317e-03
1.012751e+02	-1.641108e-03
1.018601e+02	-1.660117e-03
1.024484e+02	-1.679346e-03
1.030402e+02	-1.698798e-03
1.036353e+02	-1.718476e-03
1.042339e+02	-1.738381e-03
1.048360e+02	-1.758516e-03
1.054415e+02	-1.778885e-03
1.060505e+02	-1.799489e-03
1.066631e+02	-1.820333e-03
1.072791e+02	-1.841417e-03
1.078988e+02	-1.862746e-03
1.085220e+02	-1.884322e-03
1.091488e+02	-1.906147e-03
1.097793e+02	-1.928225e-03
1.104133e+02	-1.950559e-03
1.110511e+02	-1.973152e-03
1.116925e+02	-1.996006e-03
1.123376e+02	-2.019125e-03
1.129865e+02	-2.042512e-03
1.136391e+02	-2.066169e-03
1.142955e+02	-2.090101e-03
1.149556e+02	-2.114309e-03
1.156196e+02	-2.138798e-03
1.162874e+02	-2.163570e-03
1.169591e+02	-2.188629e-03
1.176347e+02	-2.213979e-03
1.183141e+02	-2.239622e-03
1.189975e+02	-2.265561e-03
1.196848e+02	-2.291802e-03
1.203761e+02	-2.318346e-03
1.210714e+02	-2.345197e-03
1.217707e+02	-2.372359e-03
1.224740e+02	-2.399836e-03
1.231814e+02	-2.427631e-03
1.238929e+02	-2.455748e-03
1.246085e+02	-2.484190e-03
1.253283e+02	-2.512962e-03
1.260522e+02	-2.542067e-03
1.267802e+02	-2.571509e-03
1.275125e+02	-2.601291e-03
1.282490e+02	-2.631419e-03
1.289898e+02	-2.661895e-03
1.297348e+02	-2.692724e-03
1.304842e+02	-2.723910e-03
1.312378e+02	-2.755458e-03
1.319959e+02	-2.787370e-03
1.327583e+02	-2.819652e-03
1.335251e+02	-2.852308e-03
1.342963e+02	-2.885341e-03
1.350720e+02	-2.918757e-03
1.358522e+02	-2.952561e-03
1.366368e+02	-2.986755e-03
1.374260e+02	-3.021345e-03
1.382198e+02	-3.056336e-03
1.390182e+02	-3.091732e-03
1.398211e+02	-3.127537e-03
1.406287e+02	-3.163758e-03
1.414410e+02	-3.200397e-03
1.422579e+02	-3.237461e-03
1.430796e+02	-3.274953e-03
1.439060e+02	-3.312880e-03
1.447372e+02	-3.351246e-03
1.455732e+02	-3.390056e-03
1.464141e+02	-3.429315e-03
1.472597e+02	-3.469028e-03
1.481103e+02	-3.509202e-03
1.489658e+02	-3.549840e-03
1.498262e+02	-3.590949e-03
1.506916e+02	-3.632533e-03
1.515620e+02	-3.674599e-03
1.524374e+02	-3.717152e-03
1.533179e+02	-3.760198e-03
1.542034e+02	-3.803742e-03
1.550941e+02	-3.847789e-03
1.559899e+02	-3.892347e-03
1.568909e+02	-3.937420e-03
1.577971e+02	-3.983015e-03
1.587085e+02	-4.029138e-03
1.596252e+02	-4.075795e-03
1.605472e+02	-4.122992e-03
1.614745e+02	-4.170735e-03
1.624072e+02	-4.219030e-03
1.633453e+02	-4.267885e-03
1.642887e+02	-4.317305e-03
1.652377e+02	-4.367296e-03
1.661921e+02	-4.417867e-03
1.671520e+02	-4.469023e-03
1.681175e+02	-4.520770e-03
1.690885e+02	-4.573117e-03
1.700651e+02	-4.626070e-03
1.710474e+02	-4.679635e-03
1.720354e+02	-4.733820e-03
1.730291e+02	-4.788632e-03
1.740285e+02	-4.844079e-03
1.750337e+02	-4.900167e-03
1.760446e+02	-4.956904e-03
1.770615e+02	-5.014298e-03
1.780842e+02	-5.072356e-03
1.791128e+02	-5.131086e-03
1.801473e+02	-5.190495e-03
1.811878e+02	-5.250592e-03
1.822344e+02	-5.311384e-03
1.832870e+02	-5.372879e-03
1.843456e+02	-5.435087e-03
1.854104e+02	-5.498013e-03
1.864813e+02	-5.561668e-03
1.875584e+02	-5.626060e-03
1.886418e+02	-5.691196e-03
1.897313e+02	-5.757087e-03
1.908272e+02	-5.823739e-03
1.919294e+02	-5.891163e-03
1.930380e+02	-5.959366e-03
1.941530e+02	-6.028359e-03
1.952744e+02	-6.098150e-03
1.964023e+02	-6.168748e-03
1.975367e+02	-6.240163e-03
1.986777e+02	-6.312405e-03
1.998252e+02	-6.385482e-03
2.009794e+02	-6.459404e-03
2.021403e+02	-6.534181e-03
2.033078e+02	-6.609824e-03
2.044821e+02	-6.686341e-03
2.056632e+02	-6.763743e-03
2.068511e+02	-6.842041e-03
2.080459e+02	-6.921245e-03
2.092475e+02	-7.001364e-03
2.104561e+02	-7.082410e-03
2.116717e+02	-7.164394e-03
2.128943e+02	-7.247326e-03
2.141240e+02	-7.331217e-03
2.153608e+02	-7.416078e-03
2.166047e+02	-7.501921e-03
2.178558e+02	-7.588757e-03
2.191141e+02	-7.676596e-03
2.203797e+02	-7.765452e-03
2.216526e+02	-7.855335e-03
2.229329e+02	-7.946257e-03
2.242205e+02	-8.038231e-03
2.255156e+02	-8.131269e-03
2.268182e+02	-8.225382e-03
2.281283e+02	-8.320584e-03
2.294459e+02	-8.416886e-03
2.307712e+02	-8.514302e-03
2.321041e+02	-8.612844e-03
2.334447e+02	-8.712526e-03
2.347931e+02	-8.813360e-03
2.361493e+02	-8.915360e-03
2.375133e+02	-9.018539e-03
2.388851e+02	-9.122911e-03
2.402649e+02	-9.228489e-03
2.416527e+02	-9.335288e-03
2.430484e+02	-9.443322e-03
2.444523e+02	-9.552605e-03
2.458642e+02	-9.663151e-03
2.472843e+02	-9.774974e-03
2.487126e+02	-9.888090e-03
2.501492e+02	-1.000251e-02
2.515940e+02	-1.011826e-02
2.530472e+02	-1.023534e-02
2.545088e+02	-1.035378e-02
2.559789e+02	-1.047359e-02
2.574574e+02	-1.059478e-02
2.589444e+02	-1.071737e-02
2.604401e+02	-1.084138e-02
2.619444e+02	-1.096682e-02
2.634574e+02	-1.109371e-02
2.649791e+02	-1.122207e-02
2.665096e+02	-1.135191e-02
2.680489e+02	-1.148325e-02
2.695972e+02	-1.161610e-02
2.711544e+02	-1.175050e-02
2.727205e+02	-1.188644e-02
2.742958e+02	-1.202396e-02
2.758801e+02	-1.216306e-02
2.774736e+02	-1.230377e-02
2.790762e+02	-1.244611e-02
2.806882e+02	-1.259009e-02
2.823094e+02	-1.273574e-02
2.839400e+02	-1.288307e-02
2.855800e+02	-1.303209e-02
2.872295e+02	-1.318284e-02
2.888886e+02	-1.333534e-02
2.905572e+02	-1.348959e-02
2.922354e+02	-1.364562e-02
2.939234e+02	-1.380346e-02
2.956211e+02	-1.396312e-02
2.973286e+02	-1.412462e-02
2.990459e+02	-1.428799e-02
3.007732e+02	-1.445324e-02
3.025104e+02	-1.462040e-02
3.042577e+02	-1.478949e-02
3.060151e+02	-1.496054e-02
3.077826e+02	-1.513355e-02
3.095604e+02	-1.530857e-02
3.113484e+02	-1.548561e-02
3.131467e+02	-1.566469e-02
3.149554e+02	-1.584583e-02
3.167746e+02	-1.602907e-02
3.186043e+02	-1.621442e-02
3.204445e+02	-1.640192e-02
3.222954e+02	-1.659157e-02
3.241570e+02	-1.678342e-02
3.260293e+02	-1.697748e-02
3.279124e+02	-1.717377e-02
3.298064e+02	-1.737234e-02
3.317114e+02	-1.757319e-02
3.336273e+02	-1.777636e-02
3.355544e+02	-1.798188e-02
3.374925e+02	-1.818977e-02
3.394418e+02	-1.840005e-02
3.414024e+02	-1.861276e-02
3.433744e+02	-1.882793e-02
3.453577e+02	-1.904557e-02
3.473525e+02	-1.926573e-02
3.493588e+02	-1.948842e-02
3.513766e+02	-1.971369e-02
3.534062e+02	-1.994155e-02
3.554474e+02	-2.017204e-02
3.575005e+02	-2.040519e-02
3.595654e+02	-2.064102e-02
3.616422e+02	-2.087958e-02
3.637311e+02	-2.112088e-02
3.658320e+02	-2.136497e-02
3.679450e+02	-2.161187e-02
3.700702e+02	-2.186162e-02
3.722077e+02	-2.211424e-02
3.743576e+02	-2.236978e-02
3.765199e+02	-2.262826e-02
3.786946e+02	-2.288972e-02
3.808820e+02	-2.315419e-02
3.830819e+02	-2.342172e-02
3.852946e+02	-2.369232e-02
3.875200e+02	-2.396604e-02
3.897583e+02	-2.424292e-02
3.920096e+02	-2.452298e-02
3.942738e+02	-2.480627e-02
3.965511e+02	-2.509282e-02
3.988416e+02	-2.538268e-02
4.011452e+02	-2.567587e-02
4.034622e+02	-2.597244e-02
4.057926e+02	-2.627242e-02
4.081365e+02	-2.657586e-02
4.104938e+02	-2.688279e-02
4.128648e+02	-2.719326e-02
4.152495e+02	-2.750730e-02
4.176480e+02	-2.782495e-02
4.200603e+02	-2.814627e-02
4.224866e+02	-2.847127e-02
4.249268e+02	-2.880002e-02
4.273812e+02	-2.913256e-02
4.298497e+02	-2.946892e-02
4.323325e+02	-2.980915e-02
4.348297e+02	-3.015329e-02
4.373412e+02	-3.050139e-02
4.398673e+02	-3.085350e-02
4.424079e+02	-3.120966e-02
4.449633e+02	-3.156991e-02
4.475334e+02	-3.193431e-02
4.501183e+02	-3.230289e-02
4.527182e+02	-3.267572e-02
4.553330e+02	-3.305283e-02
4.579630e+02	-3.343428e-02
4.606082e+02	-3.382011e-02
4.632687e+02	-3.421038e-02
4.659445e+02	-3.460513e-02
4.686358e+02	-3.500442e-02
4.713426e+02	-3.540829e-02
4.740650e+02	-3.581681e-02
4.768032e+02	-3.623002e-02
4.795572e+02	-3.664798e-02
4.823271e+02	-3.707074e-02
4.851130e+02	-3.749835e-02
4.879150e+02	-3.793088e-02
4.907332e+02	-3.836837e-02
4.935676e+02	-3.881089e-02
4.964185e+02	-3.925848e-02
4.992858e+02	-3.971122e-02
5.021696e+02	-4.016915e-02
5.050701e+02	-4.063234e-02
5.079874e+02	-4.110084e-02
5.109215e+02	-4.157472e-02
5.138726e+02	-4.205403e-02
5.168407e+02	-4.253885e-02
5.198259e+02	-4.302922e-02
5.228284e+02	-4.352522e-02
5.258482e+02	-4.402691e-02
5.288855e+02	-4.453435e-02
5.319403e+02	-4.504761e-02
5.350128e+02	-4.556676e-02
5.381030e+02	-4.609185e-02
5.412111e+02	-4.662297e-02
5.443371e+02	-4.716017e-02
5.474812e+02	-4.770352e-02
5.506434e+02	-4.825310e-02
5.538239e+02	-4.880898e-02
5.570228e+02	-4.937122e-02
5.602401e+02	-4.993990e-02
5.634760e+02	-5.051510e-02
5.667306e+02	-5.109688e-02
5.700040e+02	-5.168532e-02
5.732964e+02	-5.228050e-02
5.766077e+02	-5.288249e-02
5.799382e+02	-5.349136e-02
5.832879e+02	-5.410721e-02
5.866569e+02	-5.473010e-02
5.900454e+02	-5.536011e-02
5.934535e+02	-5.599733e-02
5.968813e+02	-5.664184e-02
6.003288e+02	-5.729371e-02
6.037963e+02	-5.795304e-02
6.072838e+02	-5.861990e-02
6.107914e+02	-5.929439e-02
6.143194e+02	-5.997658e-02
6.178676e+02	-6.066656e-02
6.214364e+02	-6.136443e-02
6.250258e+02	-6.207026e-02
6.286359e+02	-6.278416e-02
6.322669e+02	-6.350621e-02
6.359189e+02	-6.423650e-02
6.395919e+02	-6.497512e-02
6.432862e+02	-6.572217e-02
6.470017e+02	-6.647775e-02
6.507388e+02	-6.724194e-02
6.544974e+02	-6.801485e-02
6.582778e+02	-6.879658e-02
6.620800e+02	-6.958721e-02
6.659041e+02	-7.038686e-02
6.697504e+02	-7.119562e-02
6.736188e+02	-7.201360e-02
6.775096e+02	-7.284090e-02
6.814229e+02	-7.367762e-02
6.853587e+02	-7.452387e-02
6.893173e+02	-7.537975e-02
6.932988e+02	-7.624538e-02
6.973033e+02	-7.712086e-02
7.013309e+02	-7.800630e-02
