Frequency(Hz)	Magnitude(dB)
1.000000e+01	-2.177158e+00
1.005776e+01	-2.197120e+00
1.011585e+01	-2.216749e+00
1.017428e+01	-2.237182e+00
1.023305e+01	-2.257222e+00
1.029215e+01	-2.277522e+00
1.035160e+01	-2.298085e+00
1.041139e+01	-2.318730e+00
1.047153e+01	-2.339533e+00
1.053201e+01	-2.360571e+00
1.059284e+01	-2.381471e+00
1.065403e+01	-2.402692e+00
1.071556e+01	-2.424171e+00
1.077746e+01	-2.445501e+00
1.083971e+01	-2.467079e+00
1.090232e+01	-2.488873e+00
1.096529e+01	-2.510719e+00
1.102862e+01	-2.532546e+00
1.109232e+01	-2.554945e+00
1.115639e+01	-2.577194e+00
1.122083e+01	-2.599734e+00
1.128564e+01	-2.622281e+00
1.135083e+01	-2.644984e+00
1.141639e+01	-2.667962e+00
1.148233e+01	-2.690836e+00
1.154865e+01	-2.714180e+00
1.161536e+01	-2.737552e+00
1.168245e+01	-2.761053e+00
1.174992e+01	-2.784269e+00
1.181779e+01	-2.808218e+00
1.188605e+01	-2.832018e+00
1.195470e+01	-2.856114e+00
1.202375e+01	-2.880297e+00
1.209320e+01	-2.904530e+00
1.216305e+01	-2.929003e+00
1.223330e+01	-2.953661e+00
1.230396e+01	-2.978571e+00
1.237503e+01	-3.003200e+00
1.244651e+01	-3.028569e+00
1.251840e+01	-3.053658e+00
1.259070e+01	-3.079115e+00
1.266343e+01	-3.104531e+00
1.273657e+01	-3.130052e+00
1.281014e+01	-3.155917e+00
1.288413e+01	-3.181924e+00
1.295855e+01	-3.207909e+00
1.303339e+01	-3.234093e+00
1.310867e+01	-3.260316e+00
1.318439e+01	-3.286810e+00
1.326054e+01	-3.313542e+00
1.333713e+01	-3.340028e+00
1.341417e+01	-3.367317e+00
1.349165e+01	-3.394229e+00
1.356958e+01	-3.421450e+00
1.364795e+01	-3.448732e+00
1.372678e+01	-3.476249e+00
1.380607e+01	-3.503573e+00
1.388581e+01	-3.531660e+00
1.396602e+01	-3.559606e+00
1.404668e+01	-3.587735e+00
1.412782e+01	-3.615968e+00
1.420942e+01	-3.644295e+00
1.429149e+01	-3.672448e+00
1.437404e+01	-3.701321e+00
1.445706e+01	-3.730100e+00
1.454057e+01	-3.758925e+00
1.462455e+01	-3.787951e+00
1.470902e+01	-3.817446e+00
1.479398e+01	-3.846383e+00
1.487943e+01	-3.875776e+00
1.496537e+01	-3.905358e+00
1.505181e+01	-3.935267e+00
1.513875e+01	-3.965257e+00
1.522619e+01	-3.995082e+00
1.531414e+01	-4.025485e+00
1.540259e+01	-4.055733e+00
1.549156e+01	-4.086203e+00
1.558103e+01	-4.116285e+00
1.567103e+01	-4.147155e+00
1.576155e+01	-4.178144e+00
1.585258e+01	-4.208990e+00
1.594415e+01	-4.240368e+00
1.603624e+01	-4.271480e+00
1.612886e+01	-4.302733e+00
1.622202e+01	-4.334268e+00
1.631572e+01	-4.365708e+00
1.640996e+01	-4.397688e+00
1.650474e+01	-4.429666e+00
1.660008e+01	-4.461888e+00
1.669596e+01	-4.493914e+00
1.679239e+01	-4.526277e+00
1.688938e+01	-4.558698e+00
1.698694e+01	-4.591149e+00
1.708505e+01	-4.623715e+00
1.718373e+01	-4.656680e+00
1.728299e+01	-4.689703e+00
1.738281e+01	-4.722722e+00
1.748322e+01	-4.756059e+00
1.758420e+01	-4.789627e+00
1.768576e+01	-4.822909e+00
1.778792e+01	-4.856783e+00
1.789066e+01	-4.890361e+00
1.799399e+01	-4.924274e+00
1.809793e+01	-4.958184e+00
1.820246e+01	-4.992221e+00
1.830760e+01	-5.026782e+00
1.841334e+01	-5.061079e+00
1.851969e+01	-5.095437e+00
1.862666e+01	-5.129991e+00
1.873425e+01	-5.164596e+00
1.884246e+01	-5.199803e+00
1.895129e+01	-5.234637e+00
1.906075e+01	-5.269526e+00
1.917085e+01	-5.304937e+00
1.928158e+01	-5.340249e+00
1.939295e+01	-5.375617e+00
1.950496e+01	-5.411335e+00
1.961762e+01	-5.447096e+00
1.973093e+01	-5.482930e+00
1.984490e+01	-5.518599e+00
1.995952e+01	-5.554813e+00
2.007480e+01	-5.591140e+00
2.019076e+01	-5.627065e+00
2.030738e+01	-5.663683e+00
2.042467e+01	-5.700176e+00
2.054264e+01	-5.736997e+00
2.066130e+01	-5.773529e+00
2.078064e+01	-5.810090e+00
2.090066e+01	-5.847401e+00
2.102139e+01	-5.884255e+00
2.114280e+01	-5.921859e+00
2.126492e+01	-5.958789e+00
2.138775e+01	-5.996078e+00
2.151128e+01	-6.033208e+00
2.163553e+01	-6.071426e+00
2.176050e+01	-6.108949e+00
2.188619e+01	-6.146752e+00
2.201260e+01	-6.184893e+00
2.213974e+01	-6.222898e+00
2.226762e+01	-6.261118e+00
2.239624e+01	-6.299035e+00
2.252560e+01	-6.337514e+00
2.265571e+01	-6.376187e+00
2.278656e+01	-6.414420e+00
2.291818e+01	-6.453218e+00
2.305055e+01	-6.491741e+00
2.318369e+01	-6.530779e+00
2.331760e+01	-6.569946e+00
2.345228e+01	-6.608666e+00
2.358774e+01	-6.647883e+00
2.372398e+01	-6.687376e+00
2.386101e+01	-6.726568e+00
2.399883e+01	-6.766085e+00
2.413745e+01	-6.805215e+00
2.427686e+01	-6.845270e+00
2.441709e+01	-6.884847e+00
2.455812e+01	-6.925008e+00
2.469997e+01	-6.964419e+00
2.484263e+01	-7.004186e+00
2.498612e+01	-7.045009e+00
2.513044e+01	-7.084961e+00
2.527559e+01	-7.125182e+00
2.542158e+01	-7.165371e+00
2.556842e+01	-7.206025e+00
2.571610e+01	-7.246788e+00
2.586463e+01	-7.287326e+00
2.601403e+01	-7.327629e+00
2.616428e+01	-7.368992e+00
2.631541e+01	-7.409695e+00
2.646740e+01	-7.450369e+00
2.662028e+01	-7.491942e+00
2.677404e+01	-7.533317e+00
2.692868e+01	-7.573750e+00
2.708422e+01	-7.615224e+00
2.724066e+01	-7.656887e+00
2.739800e+01	-7.698205e+00
2.755625e+01	-7.739705e+00
2.771541e+01	-7.781444e+00
2.787550e+01	-7.823419e+00
2.803650e+01	-7.865105e+00
2.819844e+01	-7.906771e+00
2.836131e+01	-7.949202e+00
2.852513e+01	-7.991053e+00
2.868989e+01	-8.033163e+00
2.885560e+01	-8.075455e+00
2.902227e+01	-8.117408e+00
2.918990e+01	-8.159793e+00
2.935850e+01	-8.202224e+00
2.952807e+01	-8.244776e+00
2.969863e+01	-8.287462e+00
2.987016e+01	-8.329982e+00
3.004269e+01	-8.372763e+00
3.021622e+01	-8.415618e+00
3.039075e+01	-8.458315e+00
3.056628e+01	-8.501180e+00
3.074283e+01	-8.544507e+00
3.092040e+01	-8.587459e+00
3.109900e+01	-8.630680e+00
3.127862e+01	-8.672994e+00
3.145929e+01	-8.717050e+00
3.164099e+01	-8.760545e+00
3.182375e+01	-8.803929e+00
3.200756e+01	-8.847261e+00
3.219244e+01	-8.890616e+00
3.237838e+01	-8.933925e+00
3.256540e+01	-8.977944e+00
3.275349e+01	-9.021718e+00
3.294268e+01	-9.065423e+00
3.313295e+01	-9.109339e+00
3.332433e+01	-9.153582e+00
3.351681e+01	-9.197202e+00
3.371040e+01	-9.241499e+00
3.390511e+01	-9.285335e+00
3.410094e+01	-9.329547e+00
3.429791e+01	-9.373483e+00
3.449601e+01	-9.418127e+00
3.469526e+01	-9.462535e+00
3.489566e+01	-9.507483e+00
3.509721e+01	-9.551376e+00
3.529993e+01	-9.595646e+00
3.550382e+01	-9.640543e+00
3.570889e+01	-9.685014e+00
3.591515e+01	-9.729853e+00
3.612259e+01	-9.774165e+00
3.633123e+01	-9.819350e+00
3.654108e+01	-9.863741e+00
3.675214e+01	-9.908918e+00
3.696442e+01	-9.953624e+00
3.717792e+01	-9.998701e+00
3.739266e+01	-1.004356e+01
3.760864e+01	-1.008904e+01
3.782587e+01	-1.013380e+01
3.804435e+01	-1.017920e+01
3.826409e+01	-1.022485e+01
3.848510e+01	-1.026954e+01
3.870739e+01	-1.031432e+01
3.893096e+01	-1.036058e+01
3.915583e+01	-1.040645e+01
3.938199e+01	-1.045189e+01
3.960946e+01	-1.049676e+01
3.983824e+01	-1.054234e+01
4.006834e+01	-1.058820e+01
4.029978e+01	-1.063379e+01
4.053255e+01	-1.067967e+01
4.076666e+01	-1.072528e+01
4.100213e+01	-1.077177e+01
4.123896e+01	-1.081714e+01
4.147715e+01	-1.086324e+01
4.171672e+01	-1.090888e+01
4.195767e+01	-1.095524e+01
4.220002e+01	-1.100096e+01
4.244377e+01	-1.104743e+01
4.268892e+01	-1.109359e+01
4.293549e+01	-1.113936e+01
4.318348e+01	-1.118558e+01
4.343291e+01	-1.123179e+01
4.368377e+01	-1.127877e+01
4.393609e+01	-1.132485e+01
4.418986e+01	-1.137106e+01
4.444510e+01	-1.141729e+01
4.470182e+01	-1.146354e+01
4.496001e+01	-1.151023e+01
4.521970e+01	-1.155661e+01
4.548089e+01	-1.160333e+01
4.574358e+01	-1.164987e+01
4.600779e+01	-1.169625e+01
4.627353e+01	-1.174334e+01
4.654081e+01	-1.178982e+01
4.680963e+01	-1.183661e+01
4.708000e+01	-1.188296e+01
4.735193e+01	-1.192987e+01
4.762543e+01	-1.197667e+01
4.790051e+01	-1.202389e+01
4.817719e+01	-1.207110e+01
4.845545e+01	-1.211804e+01
4.873533e+01	-1.216467e+01
4.901682e+01	-1.221110e+01
4.929994e+01	-1.225916e+01
4.958470e+01	-1.230569e+01
4.987110e+01	-1.235234e+01
5.015915e+01	-1.240022e+01
5.044887e+01	-1.244654e+01
5.074026e+01	-1.249420e+01
5.103333e+01	-1.254255e+01
5.132810e+01	-1.258879e+01
5.162457e+01	-1.263584e+01
5.192275e+01	-1.268362e+01
5.222265e+01	-1.273077e+01
5.252429e+01	-1.277782e+01
5.282767e+01	-1.282543e+01
5.313280e+01	-1.287275e+01
5.343969e+01	-1.292057e+01
5.374836e+01	-1.296737e+01
5.405880e+01	-1.301442e+01
5.437105e+01	-1.306323e+01
5.468509e+01	-1.311021e+01
5.500095e+01	-1.315750e+01
5.531863e+01	-1.320555e+01
5.563815e+01	-1.325292e+01
5.595951e+01	-1.330075e+01
5.628273e+01	-1.334855e+01
5.660782e+01	-1.339601e+01
5.693479e+01	-1.344405e+01
5.726364e+01	-1.349206e+01
5.759439e+01	-1.354017e+01
5.792705e+01	-1.358741e+01
5.826164e+01	-1.363599e+01
5.859815e+01	-1.368370e+01
5.893662e+01	-1.373174e+01
5.927703e+01	-1.377876e+01
5.961941e+01	-1.382722e+01
5.996377e+01	-1.387449e+01
6.031012e+01	-1.392336e+01
6.065847e+01	-1.397087e+01
6.100883e+01	-1.401878e+01
6.136121e+01	-1.406738e+01
6.171563e+01	-1.411546e+01
6.207210e+01	-1.416258e+01
6.243063e+01	-1.421126e+01
6.279122e+01	-1.425896e+01
6.315390e+01	-1.430794e+01
6.351868e+01	-1.435542e+01
6.388556e+01	-1.440430e+01
6.425456e+01	-1.445232e+01
6.462569e+01	-1.450099e+01
6.499897e+01	-1.454965e+01
6.537440e+01	-1.459689e+01
6.575200e+01	-1.464582e+01
6.613178e+01	-1.469290e+01
6.651375e+01	-1.474319e+01
6.689793e+01	-1.479038e+01
6.728433e+01	-1.483878e+01
6.767297e+01	-1.488632e+01
6.806384e+01	-1.493509e+01
6.845698e+01	-1.498369e+01
6.885238e+01	-1.503288e+01
6.925007e+01	-1.508121e+01
6.965005e+01	-1.512937e+01
7.005235e+01	-1.517784e+01
7.045697e+01	-1.522583e+01
7.086393e+01	-1.527475e+01
7.127323e+01	-1.532356e+01
7.168490e+01	-1.537231e+01
7.209895e+01	-1.542016e+01
7.251539e+01	-1.546891e+01
7.293424e+01	-1.551734e+01
7.335551e+01	-1.556707e+01
7.377920e+01	-1.561579e+01
7.420535e+01	-1.566396e+01
7.463396e+01	-1.571387e+01
7.506504e+01	-1.575986e+01
7.549861e+01	-1.581009e+01
7.593469e+01	-1.585820e+01
7.637328e+01	-1.590691e+01
7.681441e+01	-1.595545e+01
7.725809e+01	-1.600441e+01
7.770433e+01	-1.605399e+01
7.815315e+01	-1.610210e+01
7.860456e+01	-1.615191e+01
7.905857e+01	-1.620035e+01
7.951521e+01	-1.624898e+01
7.997449e+01	-1.629715e+01
8.043642e+01	-1.634773e+01
8.090102e+01	-1.639522e+01
8.136830e+01	-1.644414e+01
8.183828e+01	-1.649286e+01
8.231097e+01	-1.654222e+01
8.278640e+01	-1.659151e+01
8.326457e+01	-1.664051e+01
8.374550e+01	-1.668970e+01
8.422921e+01	-1.673936e+01
8.471572e+01	-1.678702e+01
8.520503e+01	-1.683469e+01
8.569717e+01	-1.688526e+01
8.619215e+01	-1.693389e+01
8.669000e+01	-1.698241e+01
8.719071e+01	-1.703194e+01
8.769432e+01	-1.708044e+01
8.820084e+01	-1.712973e+01
8.871029e+01	-1.717990e+01
8.922267e+01	-1.722700e+01
8.973802e+01	-1.727700e+01
9.025634e+01	-1.732653e+01
9.077766e+01	-1.737451e+01
9.130199e+01	-1.742589e+01
9.182935e+01	-1.747327e+01
9.235975e+01	-1.752160e+01
9.289321e+01	-1.757184e+01
9.342976e+01	-1.762173e+01
9.396941e+01	-1.767026e+01
9.451217e+01	-1.771925e+01
9.505807e+01	-1.776785e+01
9.560712e+01	-1.781830e+01
9.615934e+01	-1.786708e+01
9.671476e+01	-1.791709e+01
9.727338e+01	-1.796587e+01
9.783522e+01	-1.801553e+01
9.840032e+01	-1.806442e+01
9.896867e+01	-1.811379e+01
9.954031e+01	-1.816194e+01
1.001153e+02	-1.821259e+01
1.006935e+02	-1.826065e+01
1.012751e+02	-1.831145e+01
1.018601e+02	-1.836010e+01
1.024484e+02	-1.840931e+01
1.030402e+02	-1.845911e+01
1.036353e+02	-1.850838e+01
1.042339e+02	-1.855689e+01
1.048360e+02	-1.860686e+01
1.054415e+02	-1.865516e+01
1.060505e+02	-1.870613e+01
1.066631e+02	-1.875386e+01
1.072791e+02	-1.880253e+01
1.078988e+02	-1.885402e+01
1.085220e+02	-1.890217e+01
1.091488e+02	-1.895153e+01
1.097793e+02	-1.900249e+01
1.104133e+02	-1.905136e+01
1.110511e+02	-1.909986e+01
1.116925e+02	-1.915019e+01
1.123376e+02	-1.919841e+01
1.129865e+02	-1.924824e+01
1.136391e+02	-1.929792e+01
1.142955e+02	-1.934769e+01
1.149556e+02	-1.939718e+01
1.156196e+02	-1.944495e+01
1.162874e+02	-1.949661e+01
1.169591e+02	-1.954465e+01
1.176347e+02	-1.959551e+01
1.183141e+02	-1.964386e+01
1.189975e+02	-1.969323e+01
1.196848e+02	-1.974344e+01
1.203761e+02	-1.979189e+01
1.210714e+02	-1.984100e+01
1.217707e+02	-1.989249e+01
1.224740e+02	-1.994051e+01
1.231814e+02	-1.999105e+01
1.238929e+02	-2.003949e+01
1.246085e+02	-2.009035e+01
1.253283e+02	-2.013952e+01
1.260522e+02	-2.019020e+01
1.267802e+02	-2.023932e+01
1.275125e+02	-2.028807e+01
1.282490e+02	-2.033876e+01
1.289898e+02	-2.038785e+01
1.297348e+02	-2.043719e+01
1.304842e+02	-2.048605e+01
1.312378e+02	-2.053460e+01
1.319959e+02	-2.058755e+01
1.327583e+02	-2.063555e+01
1.335251e+02	-2.068524e+01
1.342963e+02	-2.073392e+01
1.350720e+02	-2.078541e+01
1.358522e+02	-2.083486e+01
1.366368e+02	-2.088237e+01
1.374260e+02	-2.093465e+01
1.382198e+02	-2.098145e+01
1.390182e+02	-2.103205e+01
1.398211e+02	-2.108100e+01
1.406287e+02	-2.113363e+01
1.414410e+02	-2.118023e+01
1.422579e+02	-2.123206e+01
1.430796e+02	-2.128148e+01
1.439060e+02	-2.133128e+01
1.447372e+02	-2.137904e+01
1.455732e+02	-2.142989e+01
1.464141e+02	-2.147862e+01
1.472597e+02	-2.152871e+01
1.481103e+02	-2.157791e+01
1.489658e+02	-2.162683e+01
1.498262e+02	-2.167881e+01
1.506916e+02	-2.172858e+01
1.515620e+02	-2.177825e+01
1.524374e+02	-2.182666e+01
1.533179e+02	-2.187790e+01
1.542034e+02	-2.192523e+01
1.550941e+02	-2.197595e+01
1.559899e+02	-2.202689e+01
1.568909e+02	-2.207616e+01
1.577971e+02	-2.212443e+01
1.587085e+02	-2.217558e+01
1.596252e+02	-2.222416e+01
1.605472e+02	-2.227292e+01
1.614745e+02	-2.232465e+01
1.624072e+02	-2.237456e+01
1.633453e+02	-2.242272e+01
1.642887e+02	-2.247492e+01
1.652377e+02	-2.252555e+01
1.661921e+02	-2.257440e+01
1.671520e+02	-2.262519e+01
1.681175e+02	-2.267284e+01
1.690885e+02	-2.272086e+01
1.700651e+02	-2.277211e+01
1.710474e+02	-2.282298e+01
1.720354e+02	-2.287256e+01
1.730291e+02	-2.292087e+01
1.740285e+02	-2.297033e+01
1.750337e+02	-2.302200e+01
1.760446e+02	-2.307203e+01
1.770615e+02	-2.312206e+01
1.780842e+02	-2.317162e+01
1.791128e+02	-2.322201e+01
1.801473e+02	-2.326913e+01
1.811878e+02	-2.332029e+01
1.822344e+02	-2.337107e+01
1.832870e+02	-2.342050e+01
1.843456e+02	-2.347052e+01
1.854104e+02	-2.351938e+01
1.864813e+02	-2.356811e+01
1.875584e+02	-2.362119e+01
1.886418e+02	-2.366900e+01
1.897313e+02	-2.371796e+01
1.908272e+02	-2.377041e+01
1.919294e+02	-2.381842e+01
1.930380e+02	-2.386751e+01
1.941530e+02	-2.391817e+01
1.952744e+02	-2.396850e+01
1.964023e+02	-2.401827e+01
1.975367e+02	-2.406495e+01
1.986777e+02	-2.411903e+01
1.998252e+02	-2.416592e+01
2.009794e+02	-2.421429e+01
2.021403e+02	-2.426874e+01
2.033078e+02	-2.431689e+01
2.044821e+02	-2.436849e+01
2.056632e+02	-2.441528e+01
2.068511e+02	-2.446502e+01
2.080459e+02	-2.451782e+01
2.092475e+02	-2.456769e+01
2.104561e+02	-2.461743e+01
2.116717e+02	-2.466544e+01
2.128943e+02	-2.471785e+01
2.141240e+02	-2.476713e+01
2.153608e+02	-2.481615e+01
2.166047e+02	-2.486354e+01
2.178558e+02	-2.491667e+01
2.191141e+02	-2.496445e+01
2.203797e+02	-2.501644e+01
2.216526e+02	-2.506771e+01
2.229329e+02	-2.511606e+01
2.242205e+02	-2.516481e+01
2.255156e+02	-2.521581e+01
2.268182e+02	-2.526235e+01
2.281283e+02	-2.531351e+01
2.294459e+02	-2.536546e+01
2.307712e+02	-2.541545e+01
2.321041e+02	-2.546492e+01
2.334447e+02	-2.551443e+01
2.347931e+02	-2.556338e+01
2.361493e+02	-2.561650e+01
2.375133e+02	-2.566625e+01
2.388851e+02	-2.571533e+01
2.402649e+02	-2.576401e+01
2.416527e+02	-2.581554e+01
2.430484e+02	-2.586635e+01
2.444523e+02	-2.591330e+01
2.458642e+02	-2.596263e+01
2.472843e+02	-2.601607e+01
2.487126e+02	-2.606301e+01
2.501492e+02	-2.611240e+01
2.515940e+02	-2.616205e+01
2.530472e+02	-2.621275e+01
2.545088e+02	-2.626471e+01
2.559789e+02	-2.631066e+01
2.574574e+02	-2.636521e+01
2.589444e+02	-2.641271e+01
2.604401e+02	-2.646446e+01
2.619444e+02	-2.651474e+01
2.634574e+02	-2.655804e+01
2.649791e+02	-2.661456e+01
2.665096e+02	-2.666343e+01
2.680489e+02	-2.671478e+01
2.695972e+02	-2.676340e+01
2.711544e+02	-2.681295e+01
2.727205e+02	-2.686431e+01
2.742958e+02	-2.691185e+01
2.758801e+02	-2.696524e+01
2.774736e+02	-2.701692e+01
2.790762e+02	-2.706388e+01
2.806882e+02	-2.711680e+01
2.823094e+02	-2.716431e+01
2.839400e+02	-2.721485e+01
2.855800e+02	-2.726637e+01
2.872295e+02	-2.731265e+01
2.888886e+02	-2.736527e+01
2.905572e+02	-2.741002e+01
2.922354e+02	-2.746731e+01
2.939234e+02	-2.751482e+01
2.956211e+02	-2.756506e+01
2.973286e+02	-2.761521e+01
2.990459e+02	-2.766682e+01
3.007732e+02	-2.771478e+01
3.025104e+02	-2.776400e+01
3.042577e+02	-2.781533e+01
3.060151e+02	-2.786338e+01
3.077826e+02	-2.791311e+01
3.095604e+02	-2.796594e+01
3.113484e+02	-2.801361e+01
3.131467e+02	-2.806443e+01
3.149554e+02	-2.811394e+01
3.167746e+02	-2.815908e+01
3.186043e+02	-2.821230e+01
3.204445e+02	-2.826119e+01
3.222954e+02	-2.831570e+01
3.241570e+02	-2.836403e+01
3.260293e+02	-2.841319e+01
3.279124e+02	-2.846314e+01
3.298064e+02	-2.851122e+01
3.317114e+02	-2.856818e+01
3.336273e+02	-2.861394e+01
3.355544e+02	-2.866213e+01
3.374925e+02	-2.871151e+01
3.394418e+02	-2.876505e+01
3.414024e+02	-2.881428e+01
3.433744e+02	-2.886304e+01
3.453577e+02	-2.891303e+01
3.473525e+02	-2.896694e+01
3.493588e+02	-2.901504e+01
3.513766e+02	-2.906508e+01
3.534062e+02	-2.911394e+01
3.554474e+02	-2.916679e+01
3.575005e+02	-2.921176e+01
3.595654e+02	-2.926406e+01
3.616422e+02	-2.931236e+01
3.637311e+02	-2.936868e+01
3.658320e+02	-2.941812e+01
3.679450e+02	-2.946535e+01
3.700702e+02	-2.951557e+01
3.722077e+02	-2.956548e+01
3.743576e+02	-2.961760e+01
3.765199e+02	-2.966715e+01
3.786946e+02	-2.971770e+01
3.808820e+02	-2.976725e+01
3.830819e+02	-2.981758e+01
3.852946e+02	-2.986594e+01
3.875200e+02	-2.991916e+01
3.897583e+02	-2.996795e+01
3.920096e+02	-3.001276e+01
3.942738e+02	-3.006390e+01
3.965511e+02	-3.011831e+01
3.988416e+02	-3.016581e+01
4.011452e+02	-3.021251e+01
4.034622e+02	-3.026366e+01
4.057926e+02	-3.031470e+01
4.081365e+02	-3.036670e+01
4.104938e+02	-3.041839e+01
4.128648e+02	-3.047105e+01
4.152495e+02	-3.051720e+01
4.176480e+02	-3.056177e+01
4.200603e+02	-3.062023e+01
4.224866e+02	-3.066769e+01
4.249268e+02	-3.070985e+01
4.273812e+02	-3.076314e+01
4.298497e+02	-3.081669e+01
4.323325e+02	-3.086605e+01
4.348297e+02	-3.091749e+01
4.373412e+02	-3.097030e+01
4.398673e+02	-3.101089e+01
4.424079e+02	-3.106956e+01
4.449633e+02	-3.111963e+01
4.475334e+02	-3.116759e+01
4.501183e+02	-3.122543e+01
4.527182e+02	-3.127136e+01
4.553330e+02	-3.131826e+01
4.579630e+02	-3.136941e+01
4.606082e+02	-3.141267e+01
4.632687e+02	-3.147569e+01
4.659445e+02	-3.151810e+01
4.686358e+02	-3.157196e+01
4.713426e+02	-3.162114e+01
4.740650e+02	-3.166996e+01
4.768032e+02	-3.172201e+01
4.795572e+02	-3.176728e+01
4.823271e+02	-3.182425e+01
4.851130e+02	-3.187431e+01
4.879150e+02	-3.192328e+01
4.907332e+02	-3.196701e+01
4.935676e+02	-3.202201e+01
4.964185e+02	-3.206967e+01
4.992858e+02	-3.212843e+01
5.021696e+02	-3.216839e+01
5.050701e+02	-3.222200e+01
5.079874e+02	-3.227455e+01
5.109215e+02	-3.232322e+01
5.138726e+02	-3.237881e+01
5.168407e+02	-3.242461e+01
5.198259e+02	-3.247574e+01
5.228284e+02	-3.252092e+01
5.258482e+02	-3.256703e+01
5.288855e+02	-3.262416e+01
5.319403e+02	-3.267468e+01
5.350128e+02	-3.272432e+01
5.381030e+02	-3.276814e+01
5.412111e+02	-3.282725e+01
5.443371e+02	-3.287279e+01
5.474812e+02	-3.291555e+01
5.506434e+02	-3.298306e+01
5.538239e+02	-3.302986e+01
5.570228e+02	-3.308310e+01
5.602401e+02	-3.312751e+01
5.634760e+02	-3.317006e+01
5.667306e+02	-3.322747e+01
5.700040e+02	-3.327342e+01
5.732964e+02	-3.332574e+01
5.766077e+02	-3.338568e+01
5.799382e+02	-3.343463e+01
5.832879e+02	-3.347724e+01
5.866569e+02	-3.352762e+01
5.900454e+02	-3.357452e+01
5.934535e+02	-3.362714e+01
5.968813e+02	-3.368419e+01
6.003288e+02	-3.372272e+01
6.037963e+02	-3.377467e+01
6.072838e+02	-3.383167e+01
6.107914e+02	-3.388626e+01
6.143194e+02	-3.393778e+01
6.178676e+02	-3.397550e+01
6.214364e+02	-3.403368e+01
6.250258e+02	-3.407718e+01
6.286359e+02	-3.413340e+01
6.322669e+02	-3.417826e+01
6.359189e+02	-3.423213e+01
6.395919e+02	-3.428138e+01
6.432862e+02	-3.433421e+01
6.470017e+02	-3.438381e+01
6.507388e+02	-3.443732e+01
6.544974e+02	-3.448191e+01
6.582778e+02	-3.453371e+01
6.620800e+02	-3.458793e+01
6.659041e+02	-3.463405e+01
6.697504e+02	-3.469082e+01
6.736188e+02	-3.473947e+01
6.775096e+02	-3.478730e+01
6.814229e+02	-3.483492e+01
6.853587e+02	-3.488101e+01
6.893173e+02	-3.493913e+01
6.932988e+02	-3.498367e+01
6.973033e+02	-3.503902e+01
7.013309e+02	-3.509264e+01
