Frequency(Hz)	Magnitude(dB)
1.000000e+01	-2.130448e+00
1.005776e+01	-2.149987e+00
1.011585e+01	-2.169364e+00
1.017428e+01	-2.189361e+00
1.023305e+01	-2.209090e+00
1.029215e+01	-2.229251e+00
1.035160e+01	-2.249219e+00
1.041139e+01	-2.269610e+00
1.047153e+01	-2.290020e+00
1.053201e+01	-2.310516e+00
1.059284e+01	-2.331309e+00
1.065403e+01	-2.352153e+00
1.071556e+01	-2.373036e+00
1.077746e+01	-2.394315e+00
1.083971e+01	-2.415729e+00
1.090232e+01	-2.436804e+00
1.096529e+01	-2.458486e+00
1.102862e+01	-2.480228e+00
1.109232e+01	-2.502142e+00
1.115639e+01	-2.523810e+00
1.122083e+01	-2.546066e+00
1.128564e+01	-2.568328e+00
1.135083e+01	-2.590653e+00
1.141639e+01	-2.613092e+00
1.148233e+01	-2.636151e+00
1.154865e+01	-2.658744e+00
1.161536e+01	-2.681664e+00
1.168245e+01	-2.704899e+00
1.174992e+01	-2.728158e+00
1.181779e+01	-2.751621e+00
1.188605e+01	-2.775079e+00
1.195470e+01	-2.798803e+00
1.202375e+01	-2.822820e+00
1.209320e+01	-2.846485e+00
1.216305e+01	-2.870756e+00
1.223330e+01	-2.895052e+00
1.230396e+01	-2.919695e+00
1.237503e+01	-2.944045e+00
1.244651e+01	-2.968469e+00
1.251840e+01	-2.993400e+00
1.259070e+01	-3.018405e+00
1.266343e+01	-3.043619e+00
1.273657e+01	-3.068965e+00
1.281014e+01	-3.094361e+00
1.288413e+01	-3.120011e+00
1.295855e+01	-3.145555e+00
1.303339e+01	-3.171465e+00
1.310867e+01	-3.197555e+00
1.318439e+01	-3.223544e+00
1.326054e+01	-3.249944e+00
1.333713e+01	-3.276409e+00
1.341417e+01	-3.303091e+00
1.349165e+01	-3.329594e+00
1.356958e+01	-3.356485e+00
1.364795e+01	-3.383417e+00
1.372678e+01	-3.410642e+00
1.380607e+01	-3.437794e+00
1.388581e+01	-3.465180e+00
1.396602e+01	-3.492914e+00
1.404668e+01	-3.520475e+00
1.412782e+01	-3.548637e+00
1.420942e+01	-3.576476e+00
1.429149e+01	-3.604509e+00
1.437404e+01	-3.632964e+00
1.445706e+01	-3.661113e+00
1.454057e+01	-3.689657e+00
1.462455e+01	-3.718560e+00
1.470902e+01	-3.747248e+00
1.479398e+01	-3.776603e+00
1.487943e+01	-3.805432e+00
1.496537e+01	-3.834740e+00
1.505181e+01	-3.864307e+00
1.513875e+01	-3.893781e+00
1.522619e+01	-3.923565e+00
1.531414e+01	-3.953008e+00
1.540259e+01	-3.983239e+00
1.549156e+01	-4.013500e+00
1.558103e+01	-4.043587e+00
1.567103e+01	-4.074025e+00
1.576155e+01	-4.104340e+00
1.585258e+01	-4.135378e+00
1.594415e+01	-4.165807e+00
1.603624e+01	-4.196717e+00
1.612886e+01	-4.227956e+00
1.622202e+01	-4.259260e+00
1.631572e+01	-4.290299e+00
1.640996e+01	-4.321839e+00
1.650474e+01	-4.353633e+00
1.660008e+01	-4.385096e+00
1.669596e+01	-4.416790e+00
1.679239e+01	-4.449151e+00
1.688938e+01	-4.481265e+00
1.698694e+01	-4.513411e+00
1.708505e+01	-4.546067e+00
1.718373e+01	-4.578657e+00
1.728299e+01	-4.610986e+00
1.738281e+01	-4.643886e+00
1.748322e+01	-4.676585e+00
1.758420e+01	-4.709632e+00
1.768576e+01	-4.742982e+00
1.778792e+01	-4.776420e+00
1.789066e+01	-4.809980e+00
1.799399e+01	-4.843382e+00
1.809793e+01	-4.876942e+00
1.820246e+01	-4.910501e+00
1.830760e+01	-4.944730e+00
1.841334e+01	-4.978850e+00
1.851969e+01	-5.013157e+00
1.862666e+01	-5.047419e+00
1.873425e+01	-5.081836e+00
1.884246e+01	-5.116236e+00
1.895129e+01	-5.150860e+00
1.906075e+01	-5.185866e+00
1.917085e+01	-5.220658e+00
1.928158e+01	-5.256096e+00
1.939295e+01	-5.290970e+00
1.950496e+01	-5.326082e+00
1.961762e+01	-5.361801e+00
1.973093e+01	-5.397150e+00
1.984490e+01	-5.432824e+00
1.995952e+01	-5.468682e+00
2.007480e+01	-5.504171e+00
2.019076e+01	-5.540293e+00
2.030738e+01	-5.576630e+00
2.042467e+01	-5.612697e+00
2.054264e+01	-5.649188e+00
2.066130e+01	-5.685749e+00
2.078064e+01	-5.722385e+00
2.090066e+01	-5.758639e+00
2.102139e+01	-5.795588e+00
2.114280e+01	-5.832805e+00
2.126492e+01	-5.869844e+00
2.138775e+01	-5.906779e+00
2.151128e+01	-5.944232e+00
2.163553e+01	-5.980804e+00
2.176050e+01	-6.018796e+00
2.188619e+01	-6.056394e+00
2.201260e+01	-6.094178e+00
2.213974e+01	-6.132038e+00
2.226762e+01	-6.169917e+00
2.239624e+01	-6.207563e+00
2.252560e+01	-6.245801e+00
2.265571e+01	-6.284133e+00
2.278656e+01	-6.322647e+00
2.291818e+01	-6.360714e+00
2.305055e+01	-6.399160e+00
2.318369e+01	-6.437699e+00
2.331760e+01	-6.476278e+00
2.345228e+01	-6.515820e+00
2.358774e+01	-6.554562e+00
2.372398e+01	-6.593482e+00
2.386101e+01	-6.632143e+00
2.399883e+01	-6.671601e+00
2.413745e+01	-6.711022e+00
2.427686e+01	-6.750542e+00
2.441709e+01	-6.790152e+00
2.455812e+01	-6.829209e+00
2.469997e+01	-6.869022e+00
2.484263e+01	-6.909017e+00
2.498612e+01	-6.948998e+00
2.513044e+01	-6.988732e+00
2.527559e+01	-7.029231e+00
2.542158e+01	-7.069202e+00
2.556842e+01	-7.109376e+00
2.571610e+01	-7.149570e+00
2.586463e+01	-7.190006e+00
2.601403e+01	-7.230571e+00
2.616428e+01	-7.270989e+00
2.631541e+01	-7.311983e+00
2.646740e+01	-7.352818e+00
2.662028e+01	-7.393713e+00
2.677404e+01	-7.434647e+00
2.692868e+01	-7.475077e+00
2.708422e+01	-7.516714e+00
2.724066e+01	-7.557939e+00
2.739800e+01	-7.599079e+00
2.755625e+01	-7.640356e+00
2.771541e+01	-7.681573e+00
2.787550e+01	-7.723577e+00
2.803650e+01	-7.765050e+00
2.819844e+01	-7.806568e+00
2.836131e+01	-7.848805e+00
2.852513e+01	-7.890562e+00
2.868989e+01	-7.932683e+00
2.885560e+01	-7.973968e+00
2.902227e+01	-8.016108e+00
2.918990e+01	-8.058675e+00
2.935850e+01	-8.100500e+00
2.952807e+01	-8.143268e+00
2.969863e+01	-8.185326e+00
2.987016e+01	-8.228492e+00
3.004269e+01	-8.270500e+00
3.021622e+01	-8.313419e+00
3.039075e+01	-8.355845e+00
3.056628e+01	-8.398215e+00
3.074283e+01	-8.441260e+00
3.092040e+01	-8.484314e+00
3.109900e+01	-8.527359e+00
3.127862e+01	-8.570329e+00
3.145929e+01	-8.613653e+00
3.164099e+01	-8.656670e+00
3.182375e+01	-8.699773e+00
3.200756e+01	-8.743340e+00
3.219244e+01	-8.786620e+00
3.237838e+01	-8.829979e+00
3.256540e+01	-8.873407e+00
3.275349e+01	-8.916691e+00
3.294268e+01	-8.960346e+00
3.313295e+01	-9.004211e+00
3.332433e+01	-9.048627e+00
3.351681e+01	-9.092002e+00
3.371040e+01	-9.135785e+00
3.390511e+01	-9.179997e+00
3.410094e+01	-9.223944e+00
3.429791e+01	-9.267596e+00
3.449601e+01	-9.311848e+00
3.469526e+01	-9.356407e+00
3.489566e+01	-9.400253e+00
3.509721e+01	-9.445257e+00
3.529993e+01	-9.489002e+00
3.550382e+01	-9.533819e+00
3.570889e+01	-9.577993e+00
3.591515e+01	-9.623057e+00
3.612259e+01	-9.666833e+00
3.633123e+01	-9.711805e+00
3.654108e+01	-9.756628e+00
3.675214e+01	-9.801369e+00
3.696442e+01	-9.846415e+00
3.717792e+01	-9.890678e+00
3.739266e+01	-9.935855e+00
3.760864e+01	-9.980769e+00
3.782587e+01	-1.002632e+01
3.804435e+01	-1.007110e+01
3.826409e+01	-1.011655e+01
3.848510e+01	-1.016154e+01
3.870739e+01	-1.020683e+01
3.893096e+01	-1.025172e+01
3.915583e+01	-1.029706e+01
3.938199e+01	-1.034259e+01
3.960946e+01	-1.038811e+01
3.983824e+01	-1.043386e+01
4.006834e+01	-1.047886e+01
4.029978e+01	-1.052421e+01
4.053255e+01	-1.057034e+01
4.076666e+01	-1.061559e+01
4.100213e+01	-1.066161e+01
4.123896e+01	-1.070748e+01
4.147715e+01	-1.075317e+01
4.171672e+01	-1.079946e+01
4.195767e+01	-1.084523e+01
4.220002e+01	-1.089108e+01
4.244377e+01	-1.093697e+01
4.268892e+01	-1.098310e+01
4.293549e+01	-1.102917e+01
4.318348e+01	-1.107450e+01
4.343291e+01	-1.112118e+01
4.368377e+01	-1.116725e+01
4.393609e+01	-1.121339e+01
4.418986e+01	-1.125982e+01
4.444510e+01	-1.130651e+01
4.470182e+01	-1.135248e+01
4.496001e+01	-1.139887e+01
4.521970e+01	-1.144481e+01
4.548089e+01	-1.149169e+01
4.574358e+01	-1.153810e+01
4.600779e+01	-1.158484e+01
4.627353e+01	-1.163085e+01
4.654081e+01	-1.167826e+01
4.680963e+01	-1.172406e+01
4.708000e+01	-1.177153e+01
4.735193e+01	-1.181845e+01
4.762543e+01	-1.186502e+01
4.790051e+01	-1.191216e+01
4.817719e+01	-1.195838e+01
4.845545e+01	-1.200583e+01
4.873533e+01	-1.205187e+01
4.901682e+01	-1.209945e+01
4.929994e+01	-1.214532e+01
4.958470e+01	-1.219291e+01
4.987110e+01	-1.223946e+01
5.015915e+01	-1.228683e+01
5.044887e+01	-1.233469e+01
5.074026e+01	-1.238137e+01
5.103333e+01	-1.242867e+01
5.132810e+01	-1.247592e+01
5.162457e+01	-1.252295e+01
5.192275e+01	-1.257060e+01
5.222265e+01	-1.261754e+01
5.252429e+01	-1.266475e+01
5.282767e+01	-1.271252e+01
5.313280e+01	-1.275907e+01
5.343969e+01	-1.280712e+01
5.374836e+01	-1.285488e+01
5.405880e+01	-1.290137e+01
5.437105e+01	-1.294896e+01
5.468509e+01	-1.299668e+01
5.500095e+01	-1.304349e+01
5.531863e+01	-1.309163e+01
5.563815e+01	-1.313944e+01
5.595951e+01	-1.318615e+01
5.628273e+01	-1.323426e+01
5.660782e+01	-1.328247e+01
5.693479e+01	-1.332986e+01
5.726364e+01	-1.337793e+01
5.759439e+01	-1.342505e+01
5.792705e+01	-1.347269e+01
5.826164e+01	-1.352070e+01
5.859815e+01	-1.356803e+01
5.893662e+01	-1.361708e+01
5.927703e+01	-1.366409e+01
5.961941e+01	-1.371253e+01
5.996377e+01	-1.376067e+01
6.031012e+01	-1.380813e+01
6.065847e+01	-1.385587e+01
6.100883e+01	-1.390439e+01
6.136121e+01	-1.395215e+01
6.171563e+01	-1.400000e+01
6.207210e+01	-1.404834e+01
6.243063e+01	-1.409670e+01
6.279122e+01	-1.414455e+01
6.315390e+01	-1.419208e+01
6.351868e+01	-1.424030e+01
6.388556e+01	-1.428914e+01
6.425456e+01	-1.433667e+01
6.462569e+01	-1.438523e+01
6.499897e+01	-1.443335e+01
6.537440e+01	-1.448134e+01
6.575200e+01	-1.452936e+01
6.613178e+01	-1.457786e+01
6.651375e+01	-1.462630e+01
6.689793e+01	-1.467493e+01
6.728433e+01	-1.472364e+01
6.767297e+01	-1.477186e+01
6.806384e+01	-1.481976e+01
6.845698e+01	-1.486746e+01
6.885238e+01	-1.491589e+01
6.925007e+01	-1.496532e+01
6.965005e+01	-1.501313e+01
7.005235e+01	-1.506110e+01
7.045697e+01	-1.511055e+01
7.086393e+01	-1.515890e+01
7.127323e+01	-1.520790e+01
7.168490e+01	-1.525544e+01
7.209895e+01	-1.530471e+01
7.251539e+01	-1.535342e+01
7.293424e+01	-1.540120e+01
7.335551e+01	-1.545116e+01
7.377920e+01	-1.549879e+01
7.420535e+01	-1.554682e+01
7.463396e+01	-1.559608e+01
7.506504e+01	-1.564503e+01
7.549861e+01	-1.569302e+01
7.593469e+01	-1.574223e+01
7.637328e+01	-1.579025e+01
7.681441e+01	-1.583946e+01
7.725809e+01	-1.588767e+01
7.770433e+01	-1.593749e+01
7.815315e+01	-1.598532e+01
7.860456e+01	-1.603427e+01
7.905857e+01	-1.608302e+01
7.951521e+01	-1.613063e+01
7.997449e+01	-1.618068e+01
8.043642e+01	-1.622951e+01
8.090102e+01	-1.627915e+01
8.136830e+01	-1.632762e+01
8.183828e+01	-1.637589e+01
8.231097e+01	-1.642534e+01
8.278640e+01	-1.647425e+01
8.326457e+01	-1.652312e+01
8.374550e+01	-1.657241e+01
8.422921e+01	-1.661958e+01
8.471572e+01	-1.667014e+01
8.520503e+01	-1.671899e+01
8.569717e+01	-1.676750e+01
8.619215e+01	-1.681644e+01
8.669000e+01	-1.686527e+01
8.719071e+01	-1.691459e+01
8.769432e+01	-1.696354e+01
8.820084e+01	-1.701324e+01
8.871029e+01	-1.706133e+01
8.922267e+01	-1.711115e+01
8.973802e+01	-1.715958e+01
9.025634e+01	-1.720907e+01
9.077766e+01	-1.725885e+01
9.130199e+01	-1.730775e+01
9.182935e+01	-1.735635e+01
9.235975e+01	-1.740476e+01
9.289321e+01	-1.745548e+01
9.342976e+01	-1.750243e+01
9.396941e+01	-1.755341e+01
9.451217e+01	-1.760118e+01
9.505807e+01	-1.765150e+01
9.560712e+01	-1.770068e+01
9.615934e+01	-1.774870e+01
9.671476e+01	-1.779807e+01
9.727338e+01	-1.784849e+01
9.783522e+01	-1.789692e+01
9.840032e+01	-1.794537e+01
9.896867e+01	-1.799582e+01
9.954031e+01	-1.804415e+01
1.001153e+02	-1.809442e+01
1.006935e+02	-1.814284e+01
1.012751e+02	-1.819365e+01
1.018601e+02	-1.824221e+01
1.024484e+02	-1.829141e+01
1.030402e+02	-1.833987e+01
1.036353e+02	-1.838980e+01
1.042339e+02	-1.843784e+01
1.048360e+02	-1.848865e+01
1.054415e+02	-1.853778e+01
1.060505e+02	-1.858684e+01
1.066631e+02	-1.863698e+01
1.072791e+02	-1.868601e+01
1.078988e+02	-1.873479e+01
1.085220e+02	-1.878404e+01
1.091488e+02	-1.883378e+01
1.097793e+02	-1.888419e+01
1.104133e+02	-1.893147e+01
1.110511e+02	-1.898071e+01
1.116925e+02	-1.903129e+01
1.123376e+02	-1.908079e+01
1.129865e+02	-1.912923e+01
1.136391e+02	-1.917996e+01
1.142955e+02	-1.922942e+01
1.149556e+02	-1.927922e+01
1.156196e+02	-1.932830e+01
1.162874e+02	-1.937741e+01
1.169591e+02	-1.942704e+01
1.176347e+02	-1.947664e+01
1.183141e+02	-1.952518e+01
1.189975e+02	-1.957427e+01
1.196848e+02	-1.962506e+01
1.203761e+02	-1.967330e+01
1.210714e+02	-1.972321e+01
1.217707e+02	-1.977489e+01
1.224740e+02	-1.982313e+01
1.231814e+02	-1.987247e+01
1.238929e+02	-1.992156e+01
1.246085e+02	-1.997182e+01
1.253283e+02	-2.002031e+01
1.260522e+02	-2.006885e+01
1.267802e+02	-2.011956e+01
1.275125e+02	-2.016886e+01
1.282490e+02	-2.021902e+01
1.289898e+02	-2.026952e+01
1.297348e+02	-2.031673e+01
1.304842e+02	-2.036553e+01
1.312378e+02	-2.041644e+01
1.319959e+02	-2.046615e+01
1.327583e+02	-2.051648e+01
1.335251e+02	-2.056710e+01
1.342963e+02	-2.061594e+01
1.350720e+02	-2.066625e+01
1.358522e+02	-2.071517e+01
1.366368e+02	-2.076466e+01
1.374260e+02	-2.081525e+01
1.382198e+02	-2.086394e+01
1.390182e+02	-2.091332e+01
1.398211e+02	-2.096237e+01
1.406287e+02	-2.101276e+01
1.414410e+02	-2.106127e+01
1.422579e+02	-2.111257e+01
1.430796e+02	-2.116463e+01
1.439060e+02	-2.121180e+01
1.447372e+02	-2.126223e+01
1.455732e+02	-2.130926e+01
1.464141e+02	-2.136051e+01
1.472597e+02	-2.140900e+01
1.481103e+02	-2.145867e+01
1.489658e+02	-2.151026e+01
1.498262e+02	-2.155773e+01
1.506916e+02	-2.160812e+01
1.515620e+02	-2.165842e+01
1.524374e+02	-2.170826e+01
1.533179e+02	-2.175798e+01
1.542034e+02	-2.180729e+01
1.550941e+02	-2.185770e+01
1.559899e+02	-2.190606e+01
1.568909e+02	-2.195610e+01
1.577971e+02	-2.200557e+01
1.587085e+02	-2.205760e+01
1.596252e+02	-2.210535e+01
1.605472e+02	-2.215756e+01
1.614745e+02	-2.220487e+01
1.624072e+02	-2.225196e+01
1.633453e+02	-2.230529e+01
1.642887e+02	-2.235399e+01
1.652377e+02	-2.240604e+01
1.661921e+02	-2.245582e+01
1.671520e+02	-2.250665e+01
1.681175e+02	-2.255395e+01
1.690885e+02	-2.260443e+01
1.700651e+02	-2.265380e+01
1.710474e+02	-2.270322e+01
1.720354e+02	-2.275486e+01
1.730291e+02	-2.280281e+01
1.740285e+02	-2.285190e+01
1.750337e+02	-2.289857e+01
1.760446e+02	-2.295509e+01
1.770615e+02	-2.300179e+01
1.780842e+02	-2.305236e+01
1.791128e+02	-2.310086e+01
1.801473e+02	-2.315122e+01
1.811878e+02	-2.320066e+01
1.822344e+02	-2.325156e+01
1.832870e+02	-2.330444e+01
1.843456e+02	-2.335069e+01
1.854104e+02	-2.340024e+01
1.864813e+02	-2.344766e+01
1.875584e+02	-2.349808e+01
1.886418e+02	-2.354995e+01
1.897313e+02	-2.360142e+01
1.908272e+02	-2.364713e+01
1.919294e+02	-2.369950e+01
1.930380e+02	-2.374988e+01
1.941530e+02	-2.379651e+01
1.952744e+02	-2.384930e+01
1.964023e+02	-2.389690e+01
1.975367e+02	-2.395025e+01
1.986777e+02	-2.399678e+01
1.998252e+02	-2.404739e+01
2.009794e+02	-2.409762e+01
2.021403e+02	-2.414902e+01
2.033078e+02	-2.419981e+01
2.044821e+02	-2.424809e+01
2.056632e+02	-2.429816e+01
2.068511e+02	-2.434553e+01
2.080459e+02	-2.439765e+01
2.092475e+02	-2.444710e+01
2.104561e+02	-2.449579e+01
2.116717e+02	-2.454532e+01
2.128943e+02	-2.459393e+01
2.141240e+02	-2.464652e+01
2.153608e+02	-2.469632e+01
2.166047e+02	-2.474476e+01
2.178558e+02	-2.479455e+01
2.191141e+02	-2.484400e+01
2.203797e+02	-2.489384e+01
2.216526e+02	-2.494540e+01
2.229329e+02	-2.499237e+01
2.242205e+02	-2.504640e+01
2.255156e+02	-2.509379e+01
2.268182e+02	-2.514548e+01
2.281283e+02	-2.519685e+01
2.294459e+02	-2.524380e+01
2.307712e+02	-2.529641e+01
2.321041e+02	-2.534373e+01
2.334447e+02	-2.539474e+01
2.347931e+02	-2.544619e+01
2.361493e+02	-2.549581e+01
2.375133e+02	-2.554502e+01
2.388851e+02	-2.559616e+01
2.402649e+02	-2.564220e+01
2.416527e+02	-2.569378e+01
2.430484e+02	-2.574208e+01
2.444523e+02	-2.579489e+01
2.458642e+02	-2.584489e+01
2.472843e+02	-2.589578e+01
2.487126e+02	-2.594377e+01
2.501492e+02	-2.599482e+01
2.515940e+02	-2.604696e+01
2.530472e+02	-2.609705e+01
2.545088e+02	-2.614526e+01
2.559789e+02	-2.619078e+01
2.574574e+02	-2.624603e+01
2.589444e+02	-2.629199e+01
2.604401e+02	-2.634490e+01
2.619444e+02	-2.639243e+01
2.634574e+02	-2.644515e+01
2.649791e+02	-2.649183e+01
2.665096e+02	-2.654218e+01
2.680489e+02	-2.659165e+01
2.695972e+02	-2.664527e+01
2.711544e+02	-2.669203e+01
2.727205e+02	-2.674180e+01
2.742958e+02	-2.679327e+01
2.758801e+02	-2.684458e+01
2.774736e+02	-2.689315e+01
2.790762e+02	-2.694406e+01
2.806882e+02	-2.699137e+01
2.823094e+02	-2.703984e+01
2.839400e+02	-2.709673e+01
2.855800e+02	-2.714396e+01
2.872295e+02	-2.719277e+01
2.888886e+02	-2.724362e+01
2.905572e+02	-2.729351e+01
2.922354e+02	-2.734480e+01
2.939234e+02	-2.739463e+01
2.956211e+02	-2.744529e+01
2.973286e+02	-2.749342e+01
2.990459e+02	-2.754351e+01
3.007732e+02	-2.759465e+01
3.025104e+02	-2.764736e+01
3.042577e+02	-2.769254e+01
3.060151e+02	-2.774155e+01
3.077826e+02	-2.779414e+01
3.095604e+02	-2.784563e+01
3.113484e+02	-2.789312e+01
3.131467e+02	-2.794255e+01
3.149554e+02	-2.799291e+01
3.167746e+02	-2.804189e+01
3.186043e+02	-2.809341e+01
3.204445e+02	-2.814071e+01
3.222954e+02	-2.819286e+01
3.241570e+02	-2.824112e+01
3.260293e+02	-2.828815e+01
3.279124e+02	-2.834604e+01
3.298064e+02	-2.839287e+01
3.317114e+02	-2.844184e+01
3.336273e+02	-2.849303e+01
3.355544e+02	-2.854135e+01
3.374925e+02	-2.859791e+01
3.394418e+02	-2.864288e+01
3.414024e+02	-2.869076e+01
3.433744e+02	-2.874938e+01
3.453577e+02	-2.879337e+01
3.473525e+02	-2.884186e+01
3.493588e+02	-2.889595e+01
3.513766e+02	-2.894887e+01
3.534062e+02	-2.899369e+01
3.554474e+02	-2.904504e+01
3.575005e+02	-2.909360e+01
3.595654e+02	-2.914165e+01
3.616422e+02	-2.919580e+01
3.637311e+02	-2.924486e+01
3.658320e+02	-2.929386e+01
3.679450e+02	-2.934375e+01
3.700702e+02	-2.939275e+01
3.722077e+02	-2.944820e+01
3.743576e+02	-2.949462e+01
3.765199e+02	-2.954634e+01
3.786946e+02	-2.959839e+01
3.808820e+02	-2.964726e+01
3.830819e+02	-2.969825e+01
3.852946e+02	-2.974401e+01
3.875200e+02	-2.979488e+01
3.897583e+02	-2.984806e+01
3.920096e+02	-2.989892e+01
3.942738e+02	-2.994727e+01
3.965511e+02	-2.999551e+01
3.988416e+02	-3.004668e+01
4.011452e+02	-3.009442e+01
4.034622e+02	-3.014483e+01
4.057926e+02	-3.019247e+01
4.081365e+02	-3.024705e+01
4.104938e+02	-3.029421e+01
4.128648e+02	-3.034478e+01
4.152495e+02	-3.039769e+01
4.176480e+02	-3.044363e+01
4.200603e+02	-3.049011e+01
4.224866e+02	-3.054975e+01
4.249268e+02	-3.060057e+01
4.273812e+02	-3.065401e+01
4.298497e+02	-3.069833e+01
4.323325e+02	-3.074498e+01
4.348297e+02	-3.080115e+01
4.373412e+02	-3.084736e+01
4.398673e+02	-3.089919e+01
4.424079e+02	-3.094730e+01
4.449633e+02	-3.099818e+01
4.475334e+02	-3.104824e+01
4.501183e+02	-3.109641e+01
4.527182e+02	-3.115323e+01
4.553330e+02	-3.119504e+01
4.579630e+02	-3.125123e+01
4.606082e+02	-3.129950e+01
4.632687e+02	-3.135168e+01
4.659445e+02	-3.140080e+01
4.686358e+02	-3.144740e+01
4.713426e+02	-3.150515e+01
4.740650e+02	-3.155081e+01
4.768032e+02	-3.159839e+01
4.795572e+02	-3.164878e+01
4.823271e+02	-3.170210e+01
4.851130e+02	-3.175060e+01
4.879150e+02	-3.179925e+01
4.907332e+02	-3.185042e+01
4.935676e+02	-3.189614e+01
4.964185e+02	-3.195379e+01
4.992858e+02	-3.199805e+01
5.021696e+02	-3.204822e+01
5.050701e+02	-3.210101e+01
5.079874e+02	-3.215132e+01
5.109215e+02	-3.220698e+01
5.138726e+02	-3.224567e+01
5.168407e+02	-3.230014e+01
5.198259e+02	-3.235008e+01
5.228284e+02	-3.240286e+01
5.258482e+02	-3.245154e+01
5.288855e+02	-3.250238e+01
5.319403e+02	-3.256106e+01
5.350128e+02	-3.259664e+01
5.381030e+02	-3.264974e+01
5.412111e+02	-3.270484e+01
5.443371e+02	-3.275307e+01
5.474812e+02	-3.280338e+01
5.506434e+02	-3.285336e+01
5.538239e+02	-3.290291e+01
5.570228e+02	-3.296331e+01
5.602401e+02	-3.300400e+01
5.634760e+02	-3.305040e+01
5.667306e+02	-3.311224e+01
5.700040e+02	-3.315583e+01
5.732964e+02	-3.320170e+01
5.766077e+02	-3.325704e+01
5.799382e+02	-3.330750e+01
5.832879e+02	-3.335553e+01
5.866569e+02	-3.340425e+01
5.900454e+02	-3.346109e+01
5.934535e+02	-3.350690e+01
5.968813e+02	-3.355997e+01
6.003288e+02	-3.360817e+01
6.037963e+02	-3.364909e+01
6.072838e+02	-3.371112e+01
6.107914e+02	-3.375287e+01
6.143194e+02	-3.380769e+01
6.178676e+02	-3.385944e+01
6.214364e+02	-3.390991e+01
6.250258e+02	-3.396421e+01
6.286359e+02	-3.401082e+01
6.322669e+02	-3.405755e+01
6.359189e+02	-3.411038e+01
6.395919e+02	-3.415391e+01
6.432862e+02	-3.421078e+01
6.470017e+02	-3.426130e+01
6.507388e+02	-3.430760e+01
6.544974e+02	-3.436741e+01
6.582778e+02	-3.440808e+01
6.620800e+02	-3.446588e+01
6.659041e+02	-3.451483e+01
6.697504e+02	-3.455775e+01
6.736188e+02	-3.460834e+01
6.775096e+02	-3.466963e+01
6.814229e+02	-3.470988e+01
6.853587e+02	-3.475347e+01
6.893173e+02	-3.481043e+01
6.932988e+02	-3.485641e+01
6.973033e+02	-3.491868e+01
7.013309e+02	-3.496400e+01
