Frequency(Hz)	Magnitude(dB)
1.000000e+01	-1.480717e-05
1.005776e+01	-1.497871e-05
1.011585e+01	-1.515225e-05
1.017428e+01	-1.532779e-05
1.023305e+01	-1.550536e-05
1.029215e+01	-1.568500e-05
1.035160e+01	-1.586671e-05
1.041139e+01	-1.605053e-05
1.047153e+01	-1.623648e-05
1.053201e+01	-1.642459e-05
1.059284e+01	-1.661487e-05
1.065403e+01	-1.680736e-05
1.071556e+01	-1.700207e-05
1.077746e+01	-1.719905e-05
1.083971e+01	-1.739830e-05
1.090232e+01	-1.759987e-05
1.096529e+01	-1.780377e-05
1.102862e+01	-1.801003e-05
1.109232e+01	-1.821868e-05
1.115639e+01	-1.842975e-05
1.122083e+01	-1.864326e-05
1.128564e+01	-1.885925e-05
1.135083e+01	-1.907774e-05
1.141639e+01	-1.929876e-05
1.148233e+01	-1.952234e-05
1.154865e+01	-1.974851e-05
1.161536e+01	-1.997730e-05
1.168245e+01	-2.020874e-05
1.174992e+01	-2.044287e-05
1.181779e+01	-2.067970e-05
1.188605e+01	-2.091928e-05
1.195470e+01	-2.116164e-05
1.202375e+01	-2.140680e-05
1.209320e+01	-2.165480e-05
1.216305e+01	-2.190568e-05
1.223330e+01	-2.215946e-05
1.230396e+01	-2.241618e-05
1.237503e+01	-2.267588e-05
1.244651e+01	-2.293859e-05
1.251840e+01	-2.320434e-05
1.259070e+01	-2.347316e-05
1.266343e+01	-2.374511e-05
1.273657e+01	-2.402020e-05
1.281014e+01	-2.429848e-05
1.288413e+01	-2.457998e-05
1.295855e+01	-2.486475e-05
1.303339e+01	-2.515281e-05
1.310867e+01	-2.544421e-05
1.318439e+01	-2.573899e-05
1.326054e+01	-2.603718e-05
1.333713e+01	-2.633883e-05
1.341417e+01	-2.664397e-05
1.349165e+01	-2.695265e-05
1.356958e+01	-2.726490e-05
1.364795e+01	-2.758077e-05
1.372678e+01	-2.790030e-05
1.380607e+01	-2.822354e-05
1.388581e+01	-2.855051e-05
1.396602e+01	-2.888128e-05
1.404668e+01	-2.921587e-05
1.412782e+01	-2.955435e-05
1.420942e+01	-2.989674e-05
1.429149e+01	-3.024310e-05
1.437404e+01	-3.059347e-05
1.445706e+01	-3.094791e-05
1.454057e+01	-3.130645e-05
1.462455e+01	-3.166914e-05
1.470902e+01	-3.203603e-05
1.479398e+01	-3.240718e-05
1.487943e+01	-3.278262e-05
1.496537e+01	-3.316242e-05
1.505181e+01	-3.354661e-05
1.513875e+01	-3.393526e-05
1.522619e+01	-3.432841e-05
1.531414e+01	-3.472611e-05
1.540259e+01	-3.512842e-05
1.549156e+01	-3.553539e-05
1.558103e+01	-3.594707e-05
1.567103e+01	-3.636353e-05
1.576155e+01	-3.678481e-05
1.585258e+01	-3.721097e-05
1.594415e+01	-3.764207e-05
1.603624e+01	-3.807816e-05
1.612886e+01	-3.851930e-05
1.622202e+01	-3.896556e-05
1.631572e+01	-3.941698e-05
1.640996e+01	-3.987364e-05
1.650474e+01	-4.033558e-05
1.660008e+01	-4.080288e-05
1.669596e+01	-4.127559e-05
1.679239e+01	-4.175378e-05
1.688938e+01	-4.223750e-05
1.698694e+01	-4.272684e-05
1.708505e+01	-4.322184e-05
1.718373e+01	-4.372257e-05
1.728299e+01	-4.422911e-05
1.738281e+01	-4.474151e-05
1.748322e+01	-4.525985e-05
1.758420e+01	-4.578419e-05
1.768576e+01	-4.631461e-05
1.778792e+01	-4.685118e-05
1.789066e+01	-4.739396e-05
1.799399e+01	-4.794303e-05
1.809793e+01	-4.849846e-05
1.820246e+01	-4.906033e-05
1.830760e+01	-4.962870e-05
1.841334e+01	-5.020366e-05
1.851969e+01	-5.078528e-05
1.862666e+01	-5.137364e-05
1.873425e+01	-5.196881e-05
1.884246e+01	-5.257088e-05
1.895129e+01	-5.317993e-05
1.906075e+01	-5.379603e-05
1.917085e+01	-5.441926e-05
1.928158e+01	-5.504972e-05
1.939295e+01	-5.568749e-05
1.950496e+01	-5.633264e-05
1.961762e+01	-5.698526e-05
1.973093e+01	-5.764545e-05
1.984490e+01	-5.831328e-05
1.995952e+01	-5.898885e-05
2.007480e+01	-5.967225e-05
2.019076e+01	-6.036356e-05
2.030738e+01	-6.106289e-05
2.042467e+01	-6.177031e-05
2.054264e+01	-6.248594e-05
2.066130e+01	-6.320985e-05
2.078064e+01	-6.394215e-05
2.090066e+01	-6.468293e-05
2.102139e+01	-6.543229e-05
2.114280e+01	-6.619034e-05
2.126492e+01	-6.695717e-05
2.138775e+01	-6.773288e-05
2.151128e+01	-6.851757e-05
2.163553e+01	-6.931136e-05
2.176050e+01	-7.011435e-05
2.188619e+01	-7.092664e-05
2.201260e+01	-7.174833e-05
2.213974e+01	-7.257955e-05
2.226762e+01	-7.342040e-05
2.239624e+01	-7.427099e-05
2.252560e+01	-7.513143e-05
2.265571e+01	-7.600184e-05
2.278656e+01	-7.688234e-05
2.291818e+01	-7.777303e-05
2.305055e+01	-7.867405e-05
2.318369e+01	-7.958550e-05
2.331760e+01	-8.050751e-05
2.345228e+01	-8.144020e-05
2.358774e+01	-8.238370e-05
2.372398e+01	-8.333813e-05
2.386101e+01	-8.430362e-05
2.399883e+01	-8.528029e-05
2.413745e+01	-8.626828e-05
2.427686e+01	-8.726771e-05
2.441709e+01	-8.827872e-05
2.455812e+01	-8.930144e-05
2.469997e+01	-9.033601e-05
2.484263e+01	-9.138257e-05
2.498612e+01	-9.244125e-05
2.513044e+01	-9.351220e-05
2.527559e+01	-9.459555e-05
2.542158e+01	-9.569145e-05
2.556842e+01	-9.680005e-05
2.571610e+01	-9.792150e-05
2.586463e+01	-9.905593e-05
2.601403e+01	-1.002035e-04
2.616428e+01	-1.013644e-04
2.631541e+01	-1.025387e-04
2.646740e+01	-1.037266e-04
2.662028e+01	-1.049283e-04
2.677404e+01	-1.061439e-04
2.692868e+01	-1.073736e-04
2.708422e+01	-1.086176e-04
2.724066e+01	-1.098759e-04
2.739800e+01	-1.111488e-04
2.755625e+01	-1.124365e-04
2.771541e+01	-1.137391e-04
2.787550e+01	-1.150568e-04
2.803650e+01	-1.163897e-04
2.819844e+01	-1.177381e-04
2.836131e+01	-1.191021e-04
2.852513e+01	-1.204819e-04
2.868989e+01	-1.218777e-04
2.885560e+01	-1.232897e-04
2.902227e+01	-1.247180e-04
2.918990e+01	-1.261629e-04
2.935850e+01	-1.276245e-04
2.952807e+01	-1.291031e-04
2.969863e+01	-1.305987e-04
2.987016e+01	-1.321117e-04
3.004269e+01	-1.336422e-04
3.021622e+01	-1.351905e-04
3.039075e+01	-1.367567e-04
3.056628e+01	-1.383410e-04
3.074283e+01	-1.399437e-04
3.092040e+01	-1.415650e-04
3.109900e+01	-1.432050e-04
3.127862e+01	-1.448641e-04
3.145929e+01	-1.465423e-04
3.164099e+01	-1.482401e-04
3.182375e+01	-1.499574e-04
3.200756e+01	-1.516947e-04
3.219244e+01	-1.534521e-04
3.237838e+01	-1.552298e-04
3.256540e+01	-1.570282e-04
3.275349e+01	-1.588474e-04
3.294268e+01	-1.606876e-04
3.313295e+01	-1.625492e-04
3.332433e+01	-1.644323e-04
3.351681e+01	-1.663373e-04
3.371040e+01	-1.682643e-04
3.390511e+01	-1.702137e-04
3.410094e+01	-1.721856e-04
3.429791e+01	-1.741804e-04
3.449601e+01	-1.761983e-04
3.469526e+01	-1.782395e-04
3.489566e+01	-1.803045e-04
3.509721e+01	-1.823933e-04
3.529993e+01	-1.845063e-04
3.550382e+01	-1.866438e-04
3.570889e+01	-1.888061e-04
3.591515e+01	-1.909934e-04
3.612259e+01	-1.932061e-04
3.633123e+01	-1.954444e-04
3.654108e+01	-1.977086e-04
3.675214e+01	-1.999991e-04
3.696442e+01	-2.023161e-04
3.717792e+01	-2.046599e-04
3.739266e+01	-2.070309e-04
3.760864e+01	-2.094293e-04
3.782587e+01	-2.118556e-04
3.804435e+01	-2.143099e-04
3.826409e+01	-2.167927e-04
3.848510e+01	-2.193042e-04
3.870739e+01	-2.218449e-04
3.893096e+01	-2.244149e-04
3.915583e+01	-2.270148e-04
3.938199e+01	-2.296447e-04
3.960946e+01	-2.323052e-04
3.983824e+01	-2.349964e-04
4.006834e+01	-2.377188e-04
4.029978e+01	-2.404728e-04
4.053255e+01	-2.432587e-04
4.076666e+01	-2.460768e-04
4.100213e+01	-2.489276e-04
4.123896e+01	-2.518114e-04
4.147715e+01	-2.547286e-04
4.171672e+01	-2.576796e-04
4.195767e+01	-2.606648e-04
4.220002e+01	-2.636846e-04
4.244377e+01	-2.667394e-04
4.268892e+01	-2.698295e-04
4.293549e+01	-2.729555e-04
4.318348e+01	-2.761177e-04
4.343291e+01	-2.793165e-04
4.368377e+01	-2.825523e-04
4.393609e+01	-2.858257e-04
4.418986e+01	-2.891369e-04
4.444510e+01	-2.924865e-04
4.470182e+01	-2.958750e-04
4.496001e+01	-2.993026e-04
4.521970e+01	-3.027700e-04
4.548089e+01	-3.062776e-04
4.574358e+01	-3.098257e-04
4.600779e+01	-3.134150e-04
4.627353e+01	-3.170459e-04
4.654081e+01	-3.207188e-04
4.680963e+01	-3.244343e-04
4.708000e+01	-3.281928e-04
4.735193e+01	-3.319949e-04
4.762543e+01	-3.358410e-04
4.790051e+01	-3.397317e-04
4.817719e+01	-3.436674e-04
4.845545e+01	-3.476487e-04
4.873533e+01	-3.516762e-04
4.901682e+01	-3.557503e-04
4.929994e+01	-3.598715e-04
4.958470e+01	-3.640406e-04
4.987110e+01	-3.682579e-04
5.015915e+01	-3.725241e-04
5.044887e+01	-3.768397e-04
5.074026e+01	-3.812053e-04
5.103333e+01	-3.856215e-04
5.132810e+01	-3.900888e-04
5.162457e+01	-3.946079e-04
5.192275e+01	-3.991793e-04
5.222265e+01	-4.038037e-04
5.252429e+01	-4.084817e-04
5.282767e+01	-4.132138e-04
5.313280e+01	-4.180008e-04
5.343969e+01	-4.228432e-04
5.374836e+01	-4.277417e-04
5.405880e+01	-4.326970e-04
5.437105e+01	-4.377096e-04
5.468509e+01	-4.427804e-04
5.500095e+01	-4.479098e-04
5.531863e+01	-4.530987e-04
5.563815e+01	-4.583477e-04
5.595951e+01	-4.636575e-04
5.628273e+01	-4.690288e-04
5.660782e+01	-4.744624e-04
5.693479e+01	-4.799588e-04
5.726364e+01	-4.855190e-04
5.759439e+01	-4.911435e-04
5.792705e+01	-4.968333e-04
5.826164e+01	-5.025889e-04
5.859815e+01	-5.084112e-04
5.893662e+01	-5.143009e-04
5.927703e+01	-5.202589e-04
5.961941e+01	-5.262858e-04
5.996377e+01	-5.323826e-04
6.031012e+01	-5.385500e-04
6.065847e+01	-5.447889e-04
6.100883e+01	-5.511000e-04
6.136121e+01	-5.574843e-04
6.171563e+01	-5.639425e-04
6.207210e+01	-5.704755e-04
6.243063e+01	-5.770841e-04
6.279122e+01	-5.837694e-04
6.315390e+01	-5.905320e-04
6.351868e+01	-5.973730e-04
6.388556e+01	-6.042933e-04
6.425456e+01	-6.112937e-04
6.462569e+01	-6.183752e-04
6.499897e+01	-6.255387e-04
6.537440e+01	-6.327852e-04
6.575200e+01	-6.401157e-04
6.613178e+01	-6.475311e-04
6.651375e+01	-6.550323e-04
6.689793e+01	-6.626205e-04
6.728433e+01	-6.702965e-04
6.767297e+01	-6.780615e-04
6.806384e+01	-6.859164e-04
6.845698e+01	-6.938623e-04
6.885238e+01	-7.019002e-04
6.925007e+01	-7.100313e-04
6.965005e+01	-7.182565e-04
7.005235e+01	-7.265770e-04
7.045697e+01	-7.349939e-04
7.086393e+01	-7.435083e-04
7.127323e+01	-7.521213e-04
7.168490e+01	-7.608340e-04
7.209895e+01	-7.696477e-04
7.251539e+01	-7.785635e-04
7.293424e+01	-7.875825e-04
7.335551e+01	-7.967061e-04
7.377920e+01	-8.059353e-04
7.420535e+01	-8.152714e-04
7.463396e+01	-8.247156e-04
7.506504e+01	-8.342693e-04
7.549861e+01	-8.439336e-04
7.593469e+01	-8.537098e-04
7.637328e+01	-8.635993e-04
7.681441e+01	-8.736033e-04
7.725809e+01	-8.837232e-04
7.770433e+01	-8.939603e-04
7.815315e+01	-9.043160e-04
7.860456e+01	-9.147917e-04
7.905857e+01	-9.253887e-04
7.951521e+01	-9.361084e-04
7.997449e+01	-9.469523e-04
8.043642e+01	-9.579218e-04
8.090102e+01	-9.690183e-04
8.136830e+01	-9.802434e-04
8.183828e+01	-9.915985e-04
8.231097e+01	-1.003085e-03
8.278640e+01	-1.014705e-03
8.326457e+01	-1.026459e-03
8.374550e+01	-1.038349e-03
8.422921e+01	-1.050377e-03
8.471572e+01	-1.062545e-03
8.520503e+01	-1.074853e-03
8.569717e+01	-1.087304e-03
8.619215e+01	-1.099899e-03
8.669000e+01	-1.112640e-03
8.719071e+01	-1.125529e-03
8.769432e+01	-1.138567e-03
8.820084e+01	-1.151756e-03
8.871029e+01	-1.165097e-03
8.922267e+01	-1.178593e-03
8.973802e+01	-1.192246e-03
9.025634e+01	-1.206056e-03
9.077766e+01	-1.220027e-03
9.130199e+01	-1.234159e-03
9.182935e+01	-1.248455e-03
9.235975e+01	-1.262917e-03
9.289321e+01	-1.277546e-03
9.342976e+01	-1.292344e-03
9.396941e+01	-1.307314e-03
9.451217e+01	-1.322458e-03
9.505807e+01	-1.337776e-03
9.560712e+01	-1.353272e-03
9.615934e+01	-1.368948e-03
9.671476e+01	-1.384805e-03
9.727338e+01	-1.400846e-03
9.783522e+01	-1.417072e-03
9.840032e+01	-1.433487e-03
9.896867e+01	-1.450091e-03
9.954031e+01	-1.466888e-03
1.001153e+02	-1.483879e-03
1.006935e+02	-1.501068e-03
1.012751e+02	-1.518455e-03
1.018601e+02	-1.536043e-03
1.024484e+02	-1.553836e-03
1.030402e+02	-1.571834e-03
1.036353e+02	-1.590041e-03
1.042339e+02	-1.608459e-03
1.048360e+02	-1.627089e-03
1.054415e+02	-1.645936e-03
1.060505e+02	-1.665001e-03
1.066631e+02	-1.684287e-03
1.072791e+02	-1.703796e-03
1.078988e+02	-1.723531e-03
1.085220e+02	-1.743495e-03
1.091488e+02	-1.763689e-03
1.097793e+02	-1.784118e-03
1.104133e+02	-1.804783e-03
1.110511e+02	-1.825688e-03
1.116925e+02	-1.846834e-03
1.123376e+02	-1.868226e-03
1.129865e+02	-1.889865e-03
1.136391e+02	-1.911755e-03
1.142955e+02	-1.933898e-03
1.149556e+02	-1.956297e-03
1.156196e+02	-1.978957e-03
1.162874e+02	-2.001878e-03
1.169591e+02	-2.025065e-03
1.176347e+02	-2.048520e-03
1.183141e+02	-2.072247e-03
1.189975e+02	-2.096249e-03
1.196848e+02	-2.120529e-03
1.203761e+02	-2.145089e-03
1.210714e+02	-2.169935e-03
1.217707e+02	-2.195068e-03
1.224740e+02	-2.220492e-03
1.231814e+02	-2.246210e-03
1.238929e+02	-2.272226e-03
1.246085e+02	-2.298543e-03
1.253283e+02	-2.325165e-03
1.260522e+02	-2.352096e-03
1.267802e+02	-2.379338e-03
1.275125e+02	-2.406896e-03
1.282490e+02	-2.434772e-03
1.289898e+02	-2.462972e-03
1.297348e+02	-2.491498e-03
1.304842e+02	-2.520354e-03
1.312378e+02	-2.549544e-03
1.319959e+02	-2.579073e-03
1.327583e+02	-2.608943e-03
1.335251e+02	-2.639159e-03
1.342963e+02	-2.669725e-03
1.350720e+02	-2.700645e-03
1.358522e+02	-2.731923e-03
1.366368e+02	-2.763563e-03
1.374260e+02	-2.795569e-03
1.382198e+02	-2.827946e-03
1.390182e+02	-2.860698e-03
1.398211e+02	-2.893828e-03
1.406287e+02	-2.927343e-03
1.414410e+02	-2.961245e-03
1.422579e+02	-2.995540e-03
1.430796e+02	-3.030232e-03
1.439060e+02	-3.065326e-03
1.447372e+02	-3.100826e-03
1.455732e+02	-3.136737e-03
1.464141e+02	-3.173063e-03
1.472597e+02	-3.209811e-03
1.481103e+02	-3.246983e-03
1.489658e+02	-3.284586e-03
1.498262e+02	-3.322624e-03
1.506916e+02	-3.361103e-03
1.515620e+02	-3.400027e-03
1.524374e+02	-3.439401e-03
1.533179e+02	-3.479232e-03
1.542034e+02	-3.519523e-03
1.550941e+02	-3.560281e-03
1.559899e+02	-3.601511e-03
1.568909e+02	-3.643218e-03
1.577971e+02	-3.685407e-03
1.587085e+02	-3.728085e-03
1.596252e+02	-3.771257e-03
1.605472e+02	-3.814929e-03
1.614745e+02	-3.859106e-03
1.624072e+02	-3.903795e-03
1.633453e+02	-3.949001e-03
1.642887e+02	-3.994730e-03
1.652377e+02	-4.040989e-03
1.661921e+02	-4.087782e-03
1.671520e+02	-4.135118e-03
1.681175e+02	-4.183001e-03
1.690885e+02	-4.231439e-03
1.700651e+02	-4.280437e-03
1.710474e+02	-4.330002e-03
1.720354e+02	-4.380141e-03
1.730291e+02	-4.430860e-03
1.740285e+02	-4.482166e-03
1.750337e+02	-4.534066e-03
1.760446e+02	-4.586566e-03
1.770615e+02	-4.639675e-03
1.780842e+02	-4.693397e-03
1.791128e+02	-4.747742e-03
1.801473e+02	-4.802715e-03
1.811878e+02	-4.858325e-03
1.822344e+02	-4.914578e-03
1.832870e+02	-4.971482e-03
1.843456e+02	-5.029044e-03
1.854104e+02	-5.087273e-03
1.864813e+02	-5.146175e-03
1.875584e+02	-5.205759e-03
1.886418e+02	-5.266032e-03
1.897313e+02	-5.327003e-03
1.908272e+02	-5.388680e-03
1.919294e+02	-5.451070e-03
1.930380e+02	-5.514181e-03
1.941530e+02	-5.578023e-03
1.952744e+02	-5.642604e-03
1.964023e+02	-5.707932e-03
1.975367e+02	-5.774016e-03
1.986777e+02	-5.840864e-03
1.998252e+02	-5.908486e-03
2.009794e+02	-5.976890e-03
2.021403e+02	-6.046086e-03
2.033078e+02	-6.116082e-03
2.044821e+02	-6.186888e-03
2.056632e+02	-6.258512e-03
2.068511e+02	-6.330966e-03
2.080459e+02	-6.404258e-03
2.092475e+02	-6.478397e-03
2.104561e+02	-6.553394e-03
2.116717e+02	-6.629259e-03
2.128943e+02	-6.706001e-03
2.141240e+02	-6.783631e-03
2.153608e+02	-6.862159e-03
2.166047e+02	-6.941595e-03
2.178558e+02	-7.021950e-03
2.191141e+02	-7.103234e-03
2.203797e+02	-7.185459e-03
2.216526e+02	-7.268634e-03
2.229329e+02	-7.352772e-03
2.242205e+02	-7.437882e-03
2.255156e+02	-7.523977e-03
2.268182e+02	-7.611068e-03
2.281283e+02	-7.699166e-03
2.294459e+02	-7.788282e-03
2.307712e+02	-7.878429e-03
2.321041e+02	-7.969619e-03
2.334447e+02	-8.061863e-03
2.347931e+02	-8.155174e-03
2.361493e+02	-8.249564e-03
2.375133e+02	-8.345045e-03
2.388851e+02	-8.441630e-03
2.402649e+02	-8.539332e-03
2.416527e+02	-8.638164e-03
2.430484e+02	-8.738138e-03
2.444523e+02	-8.839268e-03
2.458642e+02	-8.941568e-03
2.472843e+02	-9.045050e-03
2.487126e+02	-9.149728e-03
2.501492e+02	-9.255617e-03
2.515940e+02	-9.362730e-03
2.530472e+02	-9.471081e-03
2.545088e+02	-9.580684e-03
2.559789e+02	-9.691555e-03
2.574574e+02	-9.803707e-03
2.589444e+02	-9.917155e-03
2.604401e+02	-1.003191e-02
2.619444e+02	-1.014800e-02
2.634574e+02	-1.026543e-02
2.649791e+02	-1.038421e-02
2.665096e+02	-1.050437e-02
2.680489e+02	-1.062592e-02
2.695972e+02	-1.074887e-02
2.711544e+02	-1.087324e-02
2.727205e+02	-1.099905e-02
2.742958e+02	-1.112631e-02
2.758801e+02	-1.125505e-02
2.774736e+02	-1.138527e-02
2.790762e+02	-1.151699e-02
2.806882e+02	-1.165024e-02
2.823094e+02	-1.178503e-02
2.839400e+02	-1.192137e-02
2.855800e+02	-1.205929e-02
2.872295e+02	-1.219881e-02
2.888886e+02	-1.233993e-02
2.905572e+02	-1.248269e-02
2.922354e+02	-1.262709e-02
2.939234e+02	-1.277316e-02
2.956211e+02	-1.292092e-02
2.973286e+02	-1.307039e-02
2.990459e+02	-1.322158e-02
3.007732e+02	-1.337452e-02
3.025104e+02	-1.352922e-02
3.042577e+02	-1.368572e-02
3.060151e+02	-1.384401e-02
3.077826e+02	-1.400414e-02
3.095604e+02	-1.416612e-02
3.113484e+02	-1.432996e-02
3.131467e+02	-1.449570e-02
3.149554e+02	-1.466335e-02
3.167746e+02	-1.483294e-02
3.186043e+02	-1.500449e-02
3.204445e+02	-1.517801e-02
3.222954e+02	-1.535354e-02
3.241570e+02	-1.553110e-02
3.260293e+02	-1.571070e-02
3.279124e+02	-1.589238e-02
3.298064e+02	-1.607616e-02
3.317114e+02	-1.626205e-02
3.336273e+02	-1.645010e-02
3.355544e+02	-1.664031e-02
3.374925e+02	-1.683272e-02
3.394418e+02	-1.702734e-02
3.414024e+02	-1.722422e-02
3.433744e+02	-1.742336e-02
3.453577e+02	-1.762480e-02
3.473525e+02	-1.782857e-02
3.493588e+02	-1.803469e-02
3.513766e+02	-1.824319e-02
3.534062e+02	-1.845409e-02
3.554474e+02	-1.866742e-02
3.575005e+02	-1.888322e-02
3.595654e+02	-1.910150e-02
3.616422e+02	-1.932230e-02
3.637311e+02	-1.954565e-02
3.658320e+02	-1.977158e-02
3.679450e+02	-2.000011e-02
3.700702e+02	-2.023127e-02
3.722077e+02	-2.046510e-02
3.743576e+02	-2.070163e-02
3.765199e+02	-2.094088e-02
3.786946e+02	-2.118289e-02
3.808820e+02	-2.142769e-02
3.830819e+02	-2.167532e-02
3.852946e+02	-2.192580e-02
3.875200e+02	-2.217916e-02
3.897583e+02	-2.243545e-02
3.920096e+02	-2.269468e-02
3.942738e+02	-2.295691e-02
3.965511e+02	-2.322216e-02
3.988416e+02	-2.349046e-02
4.011452e+02	-2.376186e-02
4.034622e+02	-2.403638e-02
4.057926e+02	-2.431407e-02
4.081365e+02	-2.459495e-02
4.104938e+02	-2.487907e-02
4.128648e+02	-2.516647e-02
4.152495e+02	-2.545717e-02
4.176480e+02	-2.575122e-02
4.200603e+02	-2.604866e-02
4.224866e+02	-2.634952e-02
4.249268e+02	-2.665384e-02
4.273812e+02	-2.696167e-02
4.298497e+02	-2.727305e-02
4.323325e+02	-2.758801e-02
4.348297e+02	-2.790659e-02
4.373412e+02	-2.822884e-02
4.398673e+02	-2.855480e-02
4.424079e+02	-2.888451e-02
4.449633e+02	-2.921802e-02
4.475334e+02	-2.955536e-02
4.501183e+02	-2.989659e-02
4.527182e+02	-3.024174e-02
4.553330e+02	-3.059086e-02
4.579630e+02	-3.094399e-02
4.606082e+02	-3.130119e-02
4.632687e+02	-3.166250e-02
4.659445e+02	-3.202796e-02
4.686358e+02	-3.239762e-02
4.713426e+02	-3.277154e-02
4.740650e+02	-3.314975e-02
4.768032e+02	-3.353231e-02
4.795572e+02	-3.391927e-02
4.823271e+02	-3.431068e-02
4.851130e+02	-3.470659e-02
4.879150e+02	-3.510704e-02
4.907332e+02	-3.551210e-02
4.935676e+02	-3.592181e-02
4.964185e+02	-3.633623e-02
4.992858e+02	-3.675541e-02
5.021696e+02	-3.717940e-02
5.050701e+02	-3.760826e-02
5.079874e+02	-3.804205e-02
5.109215e+02	-3.848082e-02
5.138726e+02	-3.892463e-02
5.168407e+02	-3.937353e-02
5.198259e+02	-3.982759e-02
5.228284e+02	-4.028685e-02
5.258482e+02	-4.075139e-02
5.288855e+02	-4.122126e-02
5.319403e+02	-4.169652e-02
5.350128e+02	-4.217724e-02
5.381030e+02	-4.266347e-02
5.412111e+02	-4.315527e-02
5.443371e+02	-4.365272e-02
5.474812e+02	-4.415587e-02
5.506434e+02	-4.466479e-02
5.538239e+02	-4.517955e-02
5.570228e+02	-4.570020e-02
5.602401e+02	-4.622683e-02
5.634760e+02	-4.675949e-02
5.667306e+02	-4.729826e-02
5.700040e+02	-4.784319e-02
5.732964e+02	-4.839438e-02
5.766077e+02	-4.895187e-02
5.799382e+02	-4.951575e-02
5.832879e+02	-5.008609e-02
5.866569e+02	-5.066296e-02
5.900454e+02	-5.124644e-02
5.934535e+02	-5.183659e-02
5.968813e+02	-5.243350e-02
6.003288e+02	-5.303724e-02
6.037963e+02	-5.364789e-02
6.072838e+02	-5.426553e-02
6.107914e+02	-5.489023e-02
6.143194e+02	-5.552208e-02
6.178676e+02	-5.616115e-02
6.214364e+02	-5.680753e-02
6.250258e+02	-5.746130e-02
6.286359e+02	-5.812255e-02
6.322669e+02	-5.879135e-02
6.359189e+02	-5.946779e-02
6.395919e+02	-6.015197e-02
6.432862e+02	-6.084396e-02
6.470017e+02	-6.154385e-02
6.507388e+02	-6.225174e-02
6.544974e+02	-6.296771e-02
6.582778e+02	-6.369185e-02
6.620800e+02	-6.442426e-02
6.659041e+02	-6.516503e-02
6.697504e+02	-6.591425e-02
6.736188e+02	-6.667202e-02
6.775096e+02	-6.743843e-02
6.814229e+02	-6.821358e-02
6.853587e+02	-6.899758e-02
6.893173e+02	-6.979051e-02
6.932988e+02	-7.059247e-02
6.973033e+02	-7.140358e-02
7.013309e+02	-7.222393e-02
