Frequency(Hz)	Magnitude(dB)
1.000000e+01	-1.940411e+00
1.005776e+01	-1.958397e+00
1.011585e+01	-1.976731e+00
1.017428e+01	-1.995201e+00
1.023305e+01	-2.013755e+00
1.029215e+01	-2.032285e+00
1.035160e+01	-2.050620e+00
1.041139e+01	-2.069943e+00
1.047153e+01	-2.088852e+00
1.053201e+01	-2.107918e+00
1.059284e+01	-2.127029e+00
1.065403e+01	-2.146818e+00
1.071556e+01	-2.166481e+00
1.077746e+01	-2.185940e+00
1.083971e+01	-2.206016e+00
1.090232e+01	-2.226010e+00
1.096529e+01	-2.245949e+00
1.102862e+01	-2.266383e+00
1.109232e+01	-2.286703e+00
1.115639e+01	-2.307375e+00
1.122083e+01	-2.327944e+00
1.128564e+01	-2.348805e+00
1.135083e+01	-2.369846e+00
1.141639e+01	-2.390927e+00
1.148233e+01	-2.411956e+00
1.154865e+01	-2.433465e+00
1.161536e+01	-2.454964e+00
1.168245e+01	-2.476593e+00
1.174992e+01	-2.498457e+00
1.181779e+01	-2.520442e+00
1.188605e+01	-2.542594e+00
1.195470e+01	-2.564819e+00
1.202375e+01	-2.586988e+00
1.209320e+01	-2.609597e+00
1.216305e+01	-2.632162e+00
1.223330e+01	-2.655313e+00
1.230396e+01	-2.678211e+00
1.237503e+01	-2.701179e+00
1.244651e+01	-2.724440e+00
1.251840e+01	-2.747668e+00
1.259070e+01	-2.771351e+00
1.266343e+01	-2.795191e+00
1.273657e+01	-2.818867e+00
1.281014e+01	-2.842885e+00
1.288413e+01	-2.867005e+00
1.295855e+01	-2.891285e+00
1.303339e+01	-2.915417e+00
1.310867e+01	-2.939873e+00
1.318439e+01	-2.964819e+00
1.326054e+01	-2.989611e+00
1.333713e+01	-3.014436e+00
1.341417e+01	-3.039735e+00
1.349165e+01	-3.064876e+00
1.356958e+01	-3.090445e+00
1.364795e+01	-3.115718e+00
1.372678e+01	-3.141381e+00
1.380607e+01	-3.167123e+00
1.388581e+01	-3.193302e+00
1.396602e+01	-3.219326e+00
1.404668e+01	-3.245693e+00
1.412782e+01	-3.271954e+00
1.420942e+01	-3.298581e+00
1.429149e+01	-3.325241e+00
1.437404e+01	-3.352002e+00
1.445706e+01	-3.379169e+00
1.454057e+01	-3.406227e+00
1.462455e+01	-3.433316e+00
1.470902e+01	-3.460966e+00
1.479398e+01	-3.488433e+00
1.487943e+01	-3.516312e+00
1.496537e+01	-3.543933e+00
1.505181e+01	-3.572015e+00
1.513875e+01	-3.599873e+00
1.522619e+01	-3.628086e+00
1.531414e+01	-3.656798e+00
1.540259e+01	-3.685292e+00
1.549156e+01	-3.713968e+00
1.558103e+01	-3.742942e+00
1.567103e+01	-3.771729e+00
1.576155e+01	-3.800948e+00
1.585258e+01	-3.830168e+00
1.594415e+01	-3.859479e+00
1.603624e+01	-3.889038e+00
1.612886e+01	-3.918701e+00
1.622202e+01	-3.948359e+00
1.631572e+01	-3.978220e+00
1.640996e+01	-4.008481e+00
1.650474e+01	-4.038721e+00
1.660008e+01	-4.069269e+00
1.669596e+01	-4.099576e+00
1.679239e+01	-4.130271e+00
1.688938e+01	-4.160834e+00
1.698694e+01	-4.191924e+00
1.708505e+01	-4.223257e+00
1.718373e+01	-4.254133e+00
1.728299e+01	-4.285678e+00
1.738281e+01	-4.316893e+00
1.748322e+01	-4.348599e+00
1.758420e+01	-4.380078e+00
1.768576e+01	-4.412107e+00
1.778792e+01	-4.443982e+00
1.789066e+01	-4.476279e+00
1.799399e+01	-4.508182e+00
1.809793e+01	-4.540764e+00
1.820246e+01	-4.573337e+00
1.830760e+01	-4.605760e+00
1.841334e+01	-4.638608e+00
1.851969e+01	-4.671447e+00
1.862666e+01	-4.704431e+00
1.873425e+01	-4.737588e+00
1.884246e+01	-4.771013e+00
1.895129e+01	-4.804529e+00
1.906075e+01	-4.837946e+00
1.917085e+01	-4.871847e+00
1.928158e+01	-4.905447e+00
1.939295e+01	-4.939315e+00
1.950496e+01	-4.973512e+00
1.961762e+01	-5.007533e+00
1.973093e+01	-5.041791e+00
1.984490e+01	-5.076370e+00
1.995952e+01	-5.110939e+00
2.007480e+01	-5.145562e+00
2.019076e+01	-5.180040e+00
2.030738e+01	-5.215128e+00
2.042467e+01	-5.250486e+00
2.054264e+01	-5.285544e+00
2.066130e+01	-5.320323e+00
2.078064e+01	-5.355871e+00
2.090066e+01	-5.391656e+00
2.102139e+01	-5.427422e+00
2.114280e+01	-5.462846e+00
2.126492e+01	-5.498475e+00
2.138775e+01	-5.534668e+00
2.151128e+01	-5.570796e+00
2.163553e+01	-5.606757e+00
2.176050e+01	-5.643497e+00
2.188619e+01	-5.679942e+00
2.201260e+01	-5.716340e+00
2.213974e+01	-5.752748e+00
2.226762e+01	-5.789633e+00
2.239624e+01	-5.826905e+00
2.252560e+01	-5.863671e+00
2.265571e+01	-5.900821e+00
2.278656e+01	-5.938123e+00
2.291818e+01	-5.975248e+00
2.305055e+01	-6.013003e+00
2.318369e+01	-6.050476e+00
2.331760e+01	-6.088289e+00
2.345228e+01	-6.126025e+00
2.358774e+01	-6.163713e+00
2.372398e+01	-6.201809e+00
2.386101e+01	-6.239657e+00
2.399883e+01	-6.277864e+00
2.413745e+01	-6.316330e+00
2.427686e+01	-6.354506e+00
2.441709e+01	-6.393237e+00
2.455812e+01	-6.431900e+00
2.469997e+01	-6.470292e+00
2.484263e+01	-6.509405e+00
2.498612e+01	-6.548121e+00
2.513044e+01	-6.587279e+00
2.527559e+01	-6.626188e+00
2.542158e+01	-6.665090e+00
2.556842e+01	-6.704880e+00
2.571610e+01	-6.744071e+00
2.586463e+01	-6.783550e+00
2.601403e+01	-6.823103e+00
2.616428e+01	-6.862583e+00
2.631541e+01	-6.902607e+00
2.646740e+01	-6.942788e+00
2.662028e+01	-6.982387e+00
2.677404e+01	-7.022324e+00
2.692868e+01	-7.062776e+00
2.708422e+01	-7.102754e+00
2.724066e+01	-7.143281e+00
2.739800e+01	-7.183444e+00
2.755625e+01	-7.224250e+00
2.771541e+01	-7.264737e+00
2.787550e+01	-7.305388e+00
2.803650e+01	-7.346489e+00
2.819844e+01	-7.386710e+00
2.836131e+01	-7.427918e+00
2.852513e+01	-7.469098e+00
2.868989e+01	-7.510079e+00
2.885560e+01	-7.551261e+00
2.902227e+01	-7.592401e+00
2.918990e+01	-7.633225e+00
2.935850e+01	-7.675791e+00
2.952807e+01	-7.716566e+00
2.969863e+01	-7.758739e+00
2.987016e+01	-7.800432e+00
3.004269e+01	-7.841927e+00
3.021622e+01	-7.883790e+00
3.039075e+01	-7.925712e+00
3.056628e+01	-7.967685e+00
3.074283e+01	-8.009738e+00
3.092040e+01	-8.051376e+00
3.109900e+01	-8.093780e+00
3.127862e+01	-8.136732e+00
3.145929e+01	-8.178637e+00
3.164099e+01	-8.221155e+00
3.182375e+01	-8.263759e+00
3.200756e+01	-8.306555e+00
3.219244e+01	-8.348847e+00
3.237838e+01	-8.391863e+00
3.256540e+01	-8.434374e+00
3.275349e+01	-8.477708e+00
3.294268e+01	-8.520137e+00
3.313295e+01	-8.563473e+00
3.332433e+01	-8.606314e+00
3.351681e+01	-8.650063e+00
3.371040e+01	-8.693136e+00
3.390511e+01	-8.736595e+00
3.410094e+01	-8.779680e+00
3.429791e+01	-8.822718e+00
3.449601e+01	-8.866806e+00
3.469526e+01	-8.910379e+00
3.489566e+01	-8.953610e+00
3.509721e+01	-8.997608e+00
3.529993e+01	-9.041187e+00
3.550382e+01	-9.085111e+00
3.570889e+01	-9.129126e+00
3.591515e+01	-9.172634e+00
3.612259e+01	-9.216537e+00
3.633123e+01	-9.260364e+00
3.654108e+01	-9.305047e+00
3.675214e+01	-9.349147e+00
3.696442e+01	-9.393201e+00
3.717792e+01	-9.437735e+00
3.739266e+01	-9.482124e+00
3.760864e+01	-9.526506e+00
3.782587e+01	-9.570915e+00
3.804435e+01	-9.615200e+00
3.826409e+01	-9.660472e+00
3.848510e+01	-9.704840e+00
3.870739e+01	-9.748733e+00
3.893096e+01	-9.794228e+00
3.915583e+01	-9.838906e+00
3.938199e+01	-9.883852e+00
3.960946e+01	-9.928978e+00
3.983824e+01	-9.974210e+00
4.006834e+01	-1.001898e+01
4.029978e+01	-1.006358e+01
4.053255e+01	-1.010902e+01
4.076666e+01	-1.015394e+01
4.100213e+01	-1.019927e+01
4.123896e+01	-1.024479e+01
4.147715e+01	-1.028998e+01
4.171672e+01	-1.033570e+01
4.195767e+01	-1.038080e+01
4.220002e+01	-1.042621e+01
4.244377e+01	-1.047161e+01
4.268892e+01	-1.051789e+01
4.293549e+01	-1.056217e+01
4.318348e+01	-1.060817e+01
4.343291e+01	-1.065459e+01
4.368377e+01	-1.070019e+01
4.393609e+01	-1.074637e+01
4.418986e+01	-1.079191e+01
4.444510e+01	-1.083716e+01
4.470182e+01	-1.088359e+01
4.496001e+01	-1.092902e+01
4.521970e+01	-1.097552e+01
4.548089e+01	-1.102155e+01
4.574358e+01	-1.106733e+01
4.600779e+01	-1.111446e+01
4.627353e+01	-1.116007e+01
4.654081e+01	-1.120623e+01
4.680963e+01	-1.125259e+01
4.708000e+01	-1.129881e+01
4.735193e+01	-1.134566e+01
4.762543e+01	-1.139174e+01
4.790051e+01	-1.143785e+01
4.817719e+01	-1.148435e+01
4.845545e+01	-1.153106e+01
4.873533e+01	-1.157743e+01
4.901682e+01	-1.162418e+01
4.929994e+01	-1.167038e+01
4.958470e+01	-1.171694e+01
4.987110e+01	-1.176391e+01
5.015915e+01	-1.181044e+01
5.044887e+01	-1.185712e+01
5.074026e+01	-1.190327e+01
5.103333e+01	-1.195055e+01
5.132810e+01	-1.199812e+01
5.162457e+01	-1.204363e+01
5.192275e+01	-1.209125e+01
5.222265e+01	-1.213907e+01
5.252429e+01	-1.218546e+01
5.282767e+01	-1.223264e+01
5.313280e+01	-1.227943e+01
5.343969e+01	-1.232622e+01
5.374836e+01	-1.237399e+01
5.405880e+01	-1.242024e+01
5.437105e+01	-1.246847e+01
5.468509e+01	-1.251492e+01
5.500095e+01	-1.256229e+01
5.531863e+01	-1.260957e+01
5.563815e+01	-1.265687e+01
5.595951e+01	-1.270450e+01
5.628273e+01	-1.275156e+01
5.660782e+01	-1.279909e+01
5.693479e+01	-1.284699e+01
5.726364e+01	-1.289411e+01
5.759439e+01	-1.294112e+01
5.792705e+01	-1.298951e+01
5.826164e+01	-1.303692e+01
5.859815e+01	-1.308410e+01
5.893662e+01	-1.313148e+01
5.927703e+01	-1.317913e+01
5.961941e+01	-1.322758e+01
5.996377e+01	-1.327415e+01
6.031012e+01	-1.332203e+01
6.065847e+01	-1.337039e+01
6.100883e+01	-1.341799e+01
6.136121e+01	-1.346548e+01
6.171563e+01	-1.351279e+01
6.207210e+01	-1.356039e+01
6.243063e+01	-1.360879e+01
6.279122e+01	-1.365698e+01
6.315390e+01	-1.370495e+01
6.351868e+01	-1.375243e+01
6.388556e+01	-1.380101e+01
6.425456e+01	-1.384886e+01
6.462569e+01	-1.389556e+01
6.499897e+01	-1.394452e+01
6.537440e+01	-1.399257e+01
6.575200e+01	-1.403976e+01
6.613178e+01	-1.408902e+01
6.651375e+01	-1.413691e+01
6.689793e+01	-1.418480e+01
6.728433e+01	-1.423256e+01
6.767297e+01	-1.428081e+01
6.806384e+01	-1.432883e+01
6.845698e+01	-1.437695e+01
6.885238e+01	-1.442572e+01
6.925007e+01	-1.447371e+01
6.965005e+01	-1.452253e+01
7.005235e+01	-1.457027e+01
7.045697e+01	-1.461882e+01
7.086393e+01	-1.466776e+01
7.127323e+01	-1.471603e+01
7.168490e+01	-1.476362e+01
7.209895e+01	-1.481217e+01
7.251539e+01	-1.486066e+01
7.293424e+01	-1.490887e+01
7.335551e+01	-1.495717e+01
7.377920e+01	-1.500477e+01
7.420535e+01	-1.505312e+01
7.463396e+01	-1.510191e+01
7.506504e+01	-1.515084e+01
7.549861e+01	-1.519908e+01
7.593469e+01	-1.524808e+01
7.637328e+01	-1.529676e+01
7.681441e+01	-1.534539e+01
7.725809e+01	-1.539398e+01
7.770433e+01	-1.544218e+01
7.815315e+01	-1.549091e+01
7.860456e+01	-1.553997e+01
7.905857e+01	-1.558864e+01
7.951521e+01	-1.563664e+01
7.997449e+01	-1.568543e+01
8.043642e+01	-1.573417e+01
8.090102e+01	-1.578252e+01
8.136830e+01	-1.583089e+01
8.183828e+01	-1.588054e+01
8.231097e+01	-1.592933e+01
8.278640e+01	-1.597769e+01
8.326457e+01	-1.602674e+01
8.374550e+01	-1.607550e+01
8.422921e+01	-1.612450e+01
8.471572e+01	-1.617283e+01
8.520503e+01	-1.622154e+01
8.569717e+01	-1.627045e+01
8.619215e+01	-1.631963e+01
8.669000e+01	-1.636837e+01
8.719071e+01	-1.641751e+01
8.769432e+01	-1.646668e+01
8.820084e+01	-1.651631e+01
8.871029e+01	-1.656440e+01
8.922267e+01	-1.661314e+01
8.973802e+01	-1.666184e+01
9.025634e+01	-1.671065e+01
9.077766e+01	-1.675995e+01
9.130199e+01	-1.680875e+01
9.182935e+01	-1.685718e+01
9.235975e+01	-1.690643e+01
9.289321e+01	-1.695559e+01
9.342976e+01	-1.700475e+01
9.396941e+01	-1.705397e+01
9.451217e+01	-1.710320e+01
9.505807e+01	-1.715280e+01
9.560712e+01	-1.720183e+01
9.615934e+01	-1.724974e+01
9.671476e+01	-1.729972e+01
9.727338e+01	-1.734962e+01
9.783522e+01	-1.739685e+01
9.840032e+01	-1.744717e+01
9.896867e+01	-1.749620e+01
9.954031e+01	-1.754632e+01
1.001153e+02	-1.759398e+01
1.006935e+02	-1.764447e+01
1.012751e+02	-1.769372e+01
1.018601e+02	-1.774159e+01
1.024484e+02	-1.779091e+01
1.030402e+02	-1.784034e+01
1.036353e+02	-1.788984e+01
1.042339e+02	-1.793961e+01
1.048360e+02	-1.798876e+01
1.054415e+02	-1.803565e+01
1.060505e+02	-1.808628e+01
1.066631e+02	-1.813564e+01
1.072791e+02	-1.818476e+01
1.078988e+02	-1.823430e+01
1.085220e+02	-1.828364e+01
1.091488e+02	-1.833261e+01
1.097793e+02	-1.838086e+01
1.104133e+02	-1.843193e+01
1.110511e+02	-1.848055e+01
1.116925e+02	-1.853054e+01
1.123376e+02	-1.857942e+01
1.129865e+02	-1.862815e+01
1.136391e+02	-1.867918e+01
1.142955e+02	-1.872800e+01
1.149556e+02	-1.877650e+01
1.156196e+02	-1.882724e+01
1.162874e+02	-1.887569e+01
1.169591e+02	-1.892463e+01
1.176347e+02	-1.897431e+01
1.183141e+02	-1.902287e+01
1.189975e+02	-1.907456e+01
1.196848e+02	-1.912263e+01
1.203761e+02	-1.916990e+01
1.210714e+02	-1.922197e+01
1.217707e+02	-1.927050e+01
1.224740e+02	-1.931991e+01
1.231814e+02	-1.936954e+01
1.238929e+02	-1.941946e+01
1.246085e+02	-1.946919e+01
1.253283e+02	-1.951771e+01
1.260522e+02	-1.956688e+01
1.267802e+02	-1.961695e+01
1.275125e+02	-1.966737e+01
1.282490e+02	-1.971699e+01
1.289898e+02	-1.976608e+01
1.297348e+02	-1.981542e+01
1.304842e+02	-1.986482e+01
1.312378e+02	-1.991264e+01
1.319959e+02	-1.996327e+01
1.327583e+02	-2.001305e+01
1.335251e+02	-2.006261e+01
1.342963e+02	-2.011412e+01
1.350720e+02	-2.016125e+01
1.358522e+02	-2.021259e+01
1.366368e+02	-2.026235e+01
1.374260e+02	-2.031064e+01
1.382198e+02	-2.036156e+01
1.390182e+02	-2.040726e+01
1.398211e+02	-2.045884e+01
1.406287e+02	-2.050919e+01
1.414410e+02	-2.055819e+01
1.422579e+02	-2.060723e+01
1.430796e+02	-2.065568e+01
1.439060e+02	-2.070843e+01
1.447372e+02	-2.075772e+01
1.455732e+02	-2.080658e+01
1.464141e+02	-2.085565e+01
1.472597e+02	-2.090559e+01
1.481103e+02	-2.095511e+01
1.489658e+02	-2.100575e+01
1.498262e+02	-2.105400e+01
1.506916e+02	-2.110125e+01
1.515620e+02	-2.115339e+01
1.524374e+02	-2.120291e+01
1.533179e+02	-2.125402e+01
1.542034e+02	-2.130273e+01
1.550941e+02	-2.135389e+01
1.559899e+02	-2.140191e+01
1.568909e+02	-2.145254e+01
1.577971e+02	-2.149987e+01
1.587085e+02	-2.155206e+01
1.596252e+02	-2.160117e+01
1.605472e+02	-2.165074e+01
1.614745e+02	-2.170079e+01
1.624072e+02	-2.175134e+01
1.633453e+02	-2.179980e+01
1.642887e+02	-2.184854e+01
1.652377e+02	-2.189852e+01
1.661921e+02	-2.194943e+01
1.671520e+02	-2.199978e+01
1.681175e+02	-2.204814e+01
1.690885e+02	-2.209761e+01
1.700651e+02	-2.214724e+01
1.710474e+02	-2.219646e+01
1.720354e+02	-2.224633e+01
1.730291e+02	-2.229613e+01
1.740285e+02	-2.234818e+01
1.750337e+02	-2.239896e+01
1.760446e+02	-2.244748e+01
1.770615e+02	-2.249649e+01
1.780842e+02	-2.254505e+01
1.791128e+02	-2.259492e+01
1.801473e+02	-2.264403e+01
1.811878e+02	-2.269614e+01
1.822344e+02	-2.274542e+01
1.832870e+02	-2.279459e+01
1.843456e+02	-2.284583e+01
1.854104e+02	-2.289360e+01
1.864813e+02	-2.294487e+01
1.875584e+02	-2.299306e+01
1.886418e+02	-2.304592e+01
1.897313e+02	-2.309229e+01
1.908272e+02	-2.314312e+01
1.919294e+02	-2.319473e+01
1.930380e+02	-2.324305e+01
1.941530e+02	-2.329423e+01
1.952744e+02	-2.334313e+01
1.964023e+02	-2.339402e+01
1.975367e+02	-2.344140e+01
1.986777e+02	-2.349419e+01
1.998252e+02	-2.354053e+01
2.009794e+02	-2.359172e+01
2.021403e+02	-2.364109e+01
2.033078e+02	-2.369150e+01
2.044821e+02	-2.374292e+01
2.056632e+02	-2.379211e+01
2.068511e+02	-2.383982e+01
2.080459e+02	-2.389139e+01
2.092475e+02	-2.394067e+01
2.104561e+02	-2.399215e+01
2.116717e+02	-2.404063e+01
2.128943e+02	-2.409212e+01
2.141240e+02	-2.414064e+01
2.153608e+02	-2.419157e+01
2.166047e+02	-2.424005e+01
2.178558e+02	-2.428754e+01
2.191141e+02	-2.434418e+01
2.203797e+02	-2.439126e+01
2.216526e+02	-2.444232e+01
2.229329e+02	-2.448783e+01
2.242205e+02	-2.454082e+01
2.255156e+02	-2.458839e+01
2.268182e+02	-2.463789e+01
2.281283e+02	-2.469043e+01
2.294459e+02	-2.473882e+01
2.307712e+02	-2.478740e+01
2.321041e+02	-2.483818e+01
2.334447e+02	-2.489052e+01
2.347931e+02	-2.493783e+01
2.361493e+02	-2.498862e+01
2.375133e+02	-2.504039e+01
2.388851e+02	-2.508796e+01
2.402649e+02	-2.513837e+01
2.416527e+02	-2.518807e+01
2.430484e+02	-2.523898e+01
2.444523e+02	-2.529077e+01
2.458642e+02	-2.533783e+01
2.472843e+02	-2.538884e+01
2.487126e+02	-2.543957e+01
2.501492e+02	-2.549090e+01
2.515940e+02	-2.553963e+01
2.530472e+02	-2.558659e+01
2.545088e+02	-2.563847e+01
2.559789e+02	-2.569073e+01
2.574574e+02	-2.573967e+01
2.589444e+02	-2.578894e+01
2.604401e+02	-2.583899e+01
2.619444e+02	-2.588679e+01
2.634574e+02	-2.593617e+01
2.649791e+02	-2.598660e+01
2.665096e+02	-2.603797e+01
2.680489e+02	-2.608727e+01
2.695972e+02	-2.613661e+01
2.711544e+02	-2.618800e+01
2.727205e+02	-2.623864e+01
2.742958e+02	-2.628577e+01
2.758801e+02	-2.633569e+01
2.774736e+02	-2.638555e+01
2.790762e+02	-2.643771e+01
2.806882e+02	-2.648889e+01
2.823094e+02	-2.653578e+01
2.839400e+02	-2.658936e+01
2.855800e+02	-2.663631e+01
2.872295e+02	-2.668618e+01
2.888886e+02	-2.673666e+01
2.905572e+02	-2.678948e+01
2.922354e+02	-2.683651e+01
2.939234e+02	-2.688699e+01
2.956211e+02	-2.693980e+01
2.973286e+02	-2.698845e+01
2.990459e+02	-2.703836e+01
3.007732e+02	-2.708827e+01
3.025104e+02	-2.713467e+01
3.042577e+02	-2.718680e+01
3.060151e+02	-2.723774e+01
3.077826e+02	-2.728857e+01
3.095604e+02	-2.733739e+01
3.113484e+02	-2.738849e+01
3.131467e+02	-2.743687e+01
3.149554e+02	-2.748308e+01
3.167746e+02	-2.753808e+01
3.186043e+02	-2.758629e+01
3.204445e+02	-2.763874e+01
3.222954e+02	-2.768653e+01
3.241570e+02	-2.773586e+01
3.260293e+02	-2.778974e+01
3.279124e+02	-2.783572e+01
3.298064e+02	-2.788928e+01
3.317114e+02	-2.793506e+01
3.336273e+02	-2.798847e+01
3.355544e+02	-2.803922e+01
3.374925e+02	-2.808817e+01
3.394418e+02	-2.813561e+01
3.414024e+02	-2.819113e+01
3.433744e+02	-2.823843e+01
3.453577e+02	-2.828799e+01
3.473525e+02	-2.833467e+01
3.493588e+02	-2.838796e+01
3.513766e+02	-2.843887e+01
3.534062e+02	-2.848725e+01
3.554474e+02	-2.853853e+01
3.575005e+02	-2.859032e+01
3.595654e+02	-2.863841e+01
3.616422e+02	-2.868928e+01
3.637311e+02	-2.873736e+01
3.658320e+02	-2.878628e+01
3.679450e+02	-2.883623e+01
3.700702e+02	-2.888758e+01
3.722077e+02	-2.893282e+01
3.743576e+02	-2.898555e+01
3.765199e+02	-2.903971e+01
3.786946e+02	-2.908623e+01
3.808820e+02	-2.914141e+01
3.830819e+02	-2.918800e+01
3.852946e+02	-2.924294e+01
3.875200e+02	-2.928942e+01
3.897583e+02	-2.934036e+01
3.920096e+02	-2.938429e+01
3.942738e+02	-2.943643e+01
3.965511e+02	-2.948823e+01
3.988416e+02	-2.953654e+01
4.011452e+02	-2.958765e+01
4.034622e+02	-2.964114e+01
4.057926e+02	-2.968875e+01
4.081365e+02	-2.973937e+01
4.104938e+02	-2.978769e+01
4.128648e+02	-2.984238e+01
4.152495e+02	-2.989031e+01
4.176480e+02	-2.994441e+01
4.200603e+02	-2.998847e+01
4.224866e+02	-3.004181e+01
4.249268e+02	-3.009273e+01
4.273812e+02	-3.014155e+01
4.298497e+02	-3.019310e+01
4.323325e+02	-3.024206e+01
4.348297e+02	-3.029170e+01
4.373412e+02	-3.034259e+01
4.398673e+02	-3.039418e+01
4.424079e+02	-3.044650e+01
4.449633e+02	-3.049228e+01
4.475334e+02	-3.054146e+01
4.501183e+02	-3.059029e+01
4.527182e+02	-3.064370e+01
4.553330e+02	-3.068864e+01
4.579630e+02	-3.074099e+01
4.606082e+02	-3.079526e+01
4.632687e+02	-3.084165e+01
4.659445e+02	-3.089547e+01
4.686358e+02	-3.093898e+01
4.713426e+02	-3.099249e+01
4.740650e+02	-3.104671e+01
4.768032e+02	-3.109220e+01
4.795572e+02	-3.114119e+01
4.823271e+02	-3.119098e+01
4.851130e+02	-3.124541e+01
4.879150e+02	-3.129287e+01
4.907332e+02	-3.134426e+01
4.935676e+02	-3.139399e+01
4.964185e+02	-3.144632e+01
4.992858e+02	-3.149803e+01
5.021696e+02	-3.154700e+01
5.050701e+02	-3.160099e+01
5.079874e+02	-3.164034e+01
5.109215e+02	-3.169224e+01
5.138726e+02	-3.174935e+01
5.168407e+02	-3.179773e+01
5.198259e+02	-3.184489e+01
5.228284e+02	-3.190756e+01
5.258482e+02	-3.194571e+01
5.288855e+02	-3.199535e+01
5.319403e+02	-3.205020e+01
5.350128e+02	-3.209522e+01
5.381030e+02	-3.214660e+01
5.412111e+02	-3.219984e+01
5.443371e+02	-3.225243e+01
5.474812e+02	-3.230277e+01
5.506434e+02	-3.235294e+01
5.538239e+02	-3.240032e+01
5.570228e+02	-3.244624e+01
5.602401e+02	-3.249755e+01
5.634760e+02	-3.254930e+01
5.667306e+02	-3.260132e+01
5.700040e+02	-3.264187e+01
5.732964e+02	-3.270016e+01
5.766077e+02	-3.275545e+01
5.799382e+02	-3.279565e+01
5.832879e+02	-3.284611e+01
5.866569e+02	-3.290115e+01
5.900454e+02	-3.295535e+01
5.934535e+02	-3.300002e+01
5.968813e+02	-3.305487e+01
6.003288e+02	-3.310709e+01
6.037963e+02	-3.316038e+01
6.072838e+02	-3.320902e+01
6.107914e+02	-3.325147e+01
6.143194e+02	-3.330102e+01
6.178676e+02	-3.335709e+01
6.214364e+02	-3.339855e+01
6.250258e+02	-3.345719e+01
6.286359e+02	-3.350418e+01
6.322669e+02	-3.355568e+01
6.359189e+02	-3.361134e+01
6.395919e+02	-3.365587e+01
6.432862e+02	-3.370434e+01
6.470017e+02	-3.375970e+01
6.507388e+02	-3.381132e+01
6.544974e+02	-3.386301e+01
6.582778e+02	-3.391172e+01
6.620800e+02	-3.396147e+01
6.659041e+02	-3.400296e+01
6.697504e+02	-3.405714e+01
6.736188e+02	-3.412179e+01
6.775096e+02	-3.416228e+01
6.814229e+02	-3.421082e+01
6.853587e+02	-3.426683e+01
6.893173e+02	-3.430701e+01
6.932988e+02	-3.436554e+01
6.973033e+02	-3.441522e+01
7.013309e+02	-3.446005e+01
