Frequency(Hz)	Magnitude(dB)
1.000000e+01	-1.617762e-05
1.005776e+01	-1.636504e-05
1.011585e+01	-1.655464e-05
1.017428e+01	-1.674643e-05
1.023305e+01	-1.694044e-05
1.029215e+01	-1.713670e-05
1.035160e+01	-1.733523e-05
1.041139e+01	-1.753606e-05
1.047153e+01	-1.773922e-05
1.053201e+01	-1.794474e-05
1.059284e+01	-1.815263e-05
1.065403e+01	-1.836293e-05
1.071556e+01	-1.857567e-05
1.077746e+01	-1.879088e-05
1.083971e+01	-1.900858e-05
1.090232e+01	-1.922879e-05
1.096529e+01	-1.945156e-05
1.102862e+01	-1.967692e-05
1.109232e+01	-1.990488e-05
1.115639e+01	-2.013548e-05
1.122083e+01	-2.036876e-05
1.128564e+01	-2.060473e-05
1.135083e+01	-2.084344e-05
1.141639e+01	-2.108492e-05
1.148233e+01	-2.132920e-05
1.154865e+01	-2.157630e-05
1.161536e+01	-2.182627e-05
1.168245e+01	-2.207913e-05
1.174992e+01	-2.233492e-05
1.181779e+01	-2.259368e-05
1.188605e+01	-2.285543e-05
1.195470e+01	-2.312022e-05
1.202375e+01	-2.338807e-05
1.209320e+01	-2.365903e-05
1.216305e+01	-2.393312e-05
1.223330e+01	-2.421039e-05
1.230396e+01	-2.449088e-05
1.237503e+01	-2.477461e-05
1.244651e+01	-2.506163e-05
1.251840e+01	-2.535197e-05
1.259070e+01	-2.564568e-05
1.266343e+01	-2.594279e-05
1.273657e+01	-2.624335e-05
1.281014e+01	-2.654738e-05
1.288413e+01	-2.685494e-05
1.295855e+01	-2.716606e-05
1.303339e+01	-2.748079e-05
1.310867e+01	-2.779916e-05
1.318439e+01	-2.812122e-05
1.326054e+01	-2.844701e-05
1.333713e+01	-2.877658e-05
1.341417e+01	-2.910996e-05
1.349165e+01	-2.944721e-05
1.356958e+01	-2.978836e-05
1.364795e+01	-3.013346e-05
1.372678e+01	-3.048257e-05
1.380607e+01	-3.083571e-05
1.388581e+01	-3.119295e-05
1.396602e+01	-3.155433e-05
1.404668e+01	-3.191990e-05
1.412782e+01	-3.228970e-05
1.420942e+01	-3.266378e-05
1.429149e+01	-3.304220e-05
1.437404e+01	-3.342500e-05
1.445706e+01	-3.381224e-05
1.454057e+01	-3.420396e-05
1.462455e+01	-3.460022e-05
1.470902e+01	-3.500107e-05
1.479398e+01	-3.540657e-05
1.487943e+01	-3.581676e-05
1.496537e+01	-3.623170e-05
1.505181e+01	-3.665146e-05
1.513875e+01	-3.707607e-05
1.522619e+01	-3.750561e-05
1.531414e+01	-3.794012e-05
1.540259e+01	-3.837966e-05
1.549156e+01	-3.882430e-05
1.558103e+01	-3.927409e-05
1.567103e+01	-3.972909e-05
1.576155e+01	-4.018936e-05
1.585258e+01	-4.065496e-05
1.594415e+01	-4.112596e-05
1.603624e+01	-4.160241e-05
1.612886e+01	-4.208439e-05
1.622202e+01	-4.257194e-05
1.631572e+01	-4.306515e-05
1.640996e+01	-4.356407e-05
1.650474e+01	-4.406877e-05
1.660008e+01	-4.457931e-05
1.669596e+01	-4.509577e-05
1.679239e+01	-4.561822e-05
1.688938e+01	-4.614672e-05
1.698694e+01	-4.668134e-05
1.708505e+01	-4.722215e-05
1.718373e+01	-4.776923e-05
1.728299e+01	-4.832264e-05
1.738281e+01	-4.888247e-05
1.748322e+01	-4.944879e-05
1.758420e+01	-5.002166e-05
1.768576e+01	-5.060117e-05
1.778792e+01	-5.118740e-05
1.789066e+01	-5.178042e-05
1.799399e+01	-5.238030e-05
1.809793e+01	-5.298714e-05
1.820246e+01	-5.360101e-05
1.830760e+01	-5.422198e-05
1.841334e+01	-5.485016e-05
1.851969e+01	-5.548561e-05
1.862666e+01	-5.612842e-05
1.873425e+01	-5.677868e-05
1.884246e+01	-5.743647e-05
1.895129e+01	-5.810188e-05
1.906075e+01	-5.877501e-05
1.917085e+01	-5.945593e-05
1.928158e+01	-6.014474e-05
1.939295e+01	-6.084152e-05
1.950496e+01	-6.154639e-05
1.961762e+01	-6.225941e-05
1.973093e+01	-6.298070e-05
1.984490e+01	-6.371034e-05
1.995952e+01	-6.444844e-05
2.007480e+01	-6.519509e-05
2.019076e+01	-6.595039e-05
2.030738e+01	-6.671443e-05
2.042467e+01	-6.748733e-05
2.054264e+01	-6.826919e-05
2.066130e+01	-6.906010e-05
2.078064e+01	-6.986017e-05
2.090066e+01	-7.066951e-05
2.102139e+01	-7.148823e-05
2.114280e+01	-7.231644e-05
2.126492e+01	-7.315424e-05
2.138775e+01	-7.400174e-05
2.151128e+01	-7.485907e-05
2.163553e+01	-7.572632e-05
2.176050e+01	-7.660362e-05
2.188619e+01	-7.749109e-05
2.201260e+01	-7.838884e-05
2.213974e+01	-7.929699e-05
2.226762e+01	-8.021566e-05
2.239624e+01	-8.114497e-05
2.252560e+01	-8.208505e-05
2.265571e+01	-8.303602e-05
2.278656e+01	-8.399800e-05
2.291818e+01	-8.497113e-05
2.305055e+01	-8.595554e-05
2.318369e+01	-8.695135e-05
2.331760e+01	-8.795869e-05
2.345228e+01	-8.897771e-05
2.358774e+01	-9.000853e-05
2.372398e+01	-9.105129e-05
2.386101e+01	-9.210614e-05
2.399883e+01	-9.317320e-05
2.413745e+01	-9.425263e-05
2.427686e+01	-9.534456e-05
2.441709e+01	-9.644914e-05
2.455812e+01	-9.756651e-05
2.469997e+01	-9.869684e-05
2.484263e+01	-9.984025e-05
2.498612e+01	-1.009969e-04
2.513044e+01	-1.021670e-04
2.527559e+01	-1.033506e-04
2.542158e+01	-1.045479e-04
2.556842e+01	-1.057591e-04
2.571610e+01	-1.069844e-04
2.586463e+01	-1.082238e-04
2.601403e+01	-1.094776e-04
2.616428e+01	-1.107459e-04
2.631541e+01	-1.120289e-04
2.646740e+01	-1.133268e-04
2.662028e+01	-1.146397e-04
2.677404e+01	-1.159678e-04
2.692868e+01	-1.173113e-04
2.708422e+01	-1.186704e-04
2.724066e+01	-1.200452e-04
2.739800e+01	-1.214359e-04
2.755625e+01	-1.228428e-04
2.771541e+01	-1.242659e-04
2.787550e+01	-1.257055e-04
2.803650e+01	-1.271618e-04
2.819844e+01	-1.286350e-04
2.836131e+01	-1.301253e-04
2.852513e+01	-1.316328e-04
2.868989e+01	-1.331578e-04
2.885560e+01	-1.347004e-04
2.902227e+01	-1.362609e-04
2.918990e+01	-1.378395e-04
2.935850e+01	-1.394364e-04
2.952807e+01	-1.410518e-04
2.969863e+01	-1.426859e-04
2.987016e+01	-1.443389e-04
3.004269e+01	-1.460111e-04
3.021622e+01	-1.477027e-04
3.039075e+01	-1.494138e-04
3.056628e+01	-1.511448e-04
3.074283e+01	-1.528958e-04
3.092040e+01	-1.546671e-04
3.109900e+01	-1.564589e-04
3.127862e+01	-1.582715e-04
3.145929e+01	-1.601051e-04
3.164099e+01	-1.619599e-04
3.182375e+01	-1.638363e-04
3.200756e+01	-1.657343e-04
3.219244e+01	-1.676544e-04
3.237838e+01	-1.695966e-04
3.256540e+01	-1.715614e-04
3.275349e+01	-1.735490e-04
3.294268e+01	-1.755595e-04
3.313295e+01	-1.775934e-04
3.332433e+01	-1.796508e-04
3.351681e+01	-1.817321e-04
3.371040e+01	-1.838375e-04
3.390511e+01	-1.859672e-04
3.410094e+01	-1.881217e-04
3.429791e+01	-1.903011e-04
3.449601e+01	-1.925057e-04
3.469526e+01	-1.947359e-04
3.489566e+01	-1.969919e-04
3.509721e+01	-1.992741e-04
3.529993e+01	-2.015826e-04
3.550382e+01	-2.039180e-04
3.570889e+01	-2.062804e-04
3.591515e+01	-2.086701e-04
3.612259e+01	-2.110876e-04
3.633123e+01	-2.135330e-04
3.654108e+01	-2.160068e-04
3.675214e+01	-2.185092e-04
3.696442e+01	-2.210407e-04
3.717792e+01	-2.236014e-04
3.739266e+01	-2.261918e-04
3.760864e+01	-2.288123e-04
3.782587e+01	-2.314630e-04
3.804435e+01	-2.341445e-04
3.826409e+01	-2.368571e-04
3.848510e+01	-2.396011e-04
3.870739e+01	-2.423768e-04
3.893096e+01	-2.451848e-04
3.915583e+01	-2.480252e-04
3.938199e+01	-2.508986e-04
3.960946e+01	-2.538052e-04
3.983824e+01	-2.567455e-04
4.006834e+01	-2.597199e-04
4.029978e+01	-2.627287e-04
4.053255e+01	-2.657724e-04
4.076666e+01	-2.688514e-04
4.100213e+01	-2.719660e-04
4.123896e+01	-2.751167e-04
4.147715e+01	-2.783039e-04
4.171672e+01	-2.815280e-04
4.195767e+01	-2.847895e-04
4.220002e+01	-2.880888e-04
4.244377e+01	-2.914262e-04
4.268892e+01	-2.948024e-04
4.293549e+01	-2.982176e-04
4.318348e+01	-3.016724e-04
4.343291e+01	-3.051673e-04
4.368377e+01	-3.087026e-04
4.393609e+01	-3.122789e-04
4.418986e+01	-3.158966e-04
4.444510e+01	-3.195562e-04
4.470182e+01	-3.232582e-04
4.496001e+01	-3.270031e-04
4.521970e+01	-3.307914e-04
4.548089e+01	-3.346236e-04
4.574358e+01	-3.385001e-04
4.600779e+01	-3.424216e-04
4.627353e+01	-3.463885e-04
4.654081e+01	-3.504013e-04
4.680963e+01	-3.544606e-04
4.708000e+01	-3.585670e-04
4.735193e+01	-3.627209e-04
4.762543e+01	-3.669230e-04
4.790051e+01	-3.711737e-04
4.817719e+01	-3.754736e-04
4.845545e+01	-3.798234e-04
4.873533e+01	-3.842236e-04
4.901682e+01	-3.886747e-04
4.929994e+01	-3.931774e-04
4.958470e+01	-3.977323e-04
4.987110e+01	-4.023399e-04
5.015915e+01	-4.070009e-04
5.044887e+01	-4.117159e-04
5.074026e+01	-4.164855e-04
5.103333e+01	-4.213104e-04
5.132810e+01	-4.261911e-04
5.162457e+01	-4.311284e-04
5.192275e+01	-4.361229e-04
5.222265e+01	-4.411753e-04
5.252429e+01	-4.462862e-04
5.282767e+01	-4.514562e-04
5.313280e+01	-4.566862e-04
5.343969e+01	-4.619768e-04
5.374836e+01	-4.673286e-04
5.405880e+01	-4.727424e-04
5.437105e+01	-4.782190e-04
5.468509e+01	-4.837590e-04
5.500095e+01	-4.893632e-04
5.531863e+01	-4.950322e-04
5.563815e+01	-5.007670e-04
5.595951e+01	-5.065682e-04
5.628273e+01	-5.124366e-04
5.660782e+01	-5.183729e-04
5.693479e+01	-5.243781e-04
5.726364e+01	-5.304528e-04
5.759439e+01	-5.365978e-04
5.792705e+01	-5.428141e-04
5.826164e+01	-5.491023e-04
5.859815e+01	-5.554634e-04
5.893662e+01	-5.618982e-04
5.927703e+01	-5.684075e-04
5.961941e+01	-5.749922e-04
5.996377e+01	-5.816532e-04
6.031012e+01	-5.883914e-04
6.065847e+01	-5.952076e-04
6.100883e+01	-6.021028e-04
6.136121e+01	-6.090778e-04
6.171563e+01	-6.161336e-04
6.207210e+01	-6.232712e-04
6.243063e+01	-6.304914e-04
6.279122e+01	-6.377953e-04
6.315390e+01	-6.451838e-04
6.351868e+01	-6.526579e-04
6.388556e+01	-6.602185e-04
6.425456e+01	-6.678667e-04
6.462569e+01	-6.756036e-04
6.499897e+01	-6.834300e-04
6.537440e+01	-6.913471e-04
6.575200e+01	-6.993559e-04
6.613178e+01	-7.074575e-04
6.651375e+01	-7.156529e-04
6.689793e+01	-7.239432e-04
6.728433e+01	-7.323296e-04
6.767297e+01	-7.408131e-04
6.806384e+01	-7.493949e-04
6.845698e+01	-7.580761e-04
6.885238e+01	-7.668578e-04
6.925007e+01	-7.757413e-04
6.965005e+01	-7.847277e-04
7.005235e+01	-7.938181e-04
7.045697e+01	-8.030139e-04
7.086393e+01	-8.123161e-04
7.127323e+01	-8.217261e-04
7.168490e+01	-8.312452e-04
7.209895e+01	-8.408744e-04
7.251539e+01	-8.506152e-04
7.293424e+01	-8.604689e-04
7.335551e+01	-8.704366e-04
7.377920e+01	-8.805199e-04
7.420535e+01	-8.907199e-04
7.463396e+01	-9.010380e-04
7.506504e+01	-9.114757e-04
7.549861e+01	-9.220343e-04
7.593469e+01	-9.327152e-04
7.637328e+01	-9.435197e-04
7.681441e+01	-9.544495e-04
7.725809e+01	-9.655058e-04
7.770433e+01	-9.766902e-04
7.815315e+01	-9.880041e-04
7.860456e+01	-9.994491e-04
7.905857e+01	-1.011027e-03
7.951521e+01	-1.022738e-03
7.997449e+01	-1.034586e-03
8.043642e+01	-1.046570e-03
8.090102e+01	-1.058693e-03
8.136830e+01	-1.070957e-03
8.183828e+01	-1.083363e-03
8.231097e+01	-1.095912e-03
8.278640e+01	-1.108607e-03
8.326457e+01	-1.121449e-03
8.374550e+01	-1.134440e-03
8.422921e+01	-1.147581e-03
8.471572e+01	-1.160874e-03
8.520503e+01	-1.174321e-03
8.569717e+01	-1.187924e-03
8.619215e+01	-1.201685e-03
8.669000e+01	-1.215605e-03
8.719071e+01	-1.229686e-03
8.769432e+01	-1.243930e-03
8.820084e+01	-1.258339e-03
8.871029e+01	-1.272915e-03
8.922267e+01	-1.287660e-03
8.973802e+01	-1.302576e-03
9.025634e+01	-1.317664e-03
9.077766e+01	-1.332927e-03
9.130199e+01	-1.348367e-03
9.182935e+01	-1.363986e-03
9.235975e+01	-1.379786e-03
9.289321e+01	-1.395768e-03
9.342976e+01	-1.411936e-03
9.396941e+01	-1.428291e-03
9.451217e+01	-1.444835e-03
9.505807e+01	-1.461571e-03
9.560712e+01	-1.478501e-03
9.615934e+01	-1.495627e-03
9.671476e+01	-1.512951e-03
9.727338e+01	-1.530476e-03
9.783522e+01	-1.548204e-03
9.840032e+01	-1.566137e-03
9.896867e+01	-1.584278e-03
9.954031e+01	-1.602629e-03
1.001153e+02	-1.621192e-03
1.006935e+02	-1.639970e-03
1.012751e+02	-1.658966e-03
1.018601e+02	-1.678182e-03
1.024484e+02	-1.697621e-03
1.030402e+02	-1.717284e-03
1.036353e+02	-1.737175e-03
1.042339e+02	-1.757297e-03
1.048360e+02	-1.777651e-03
1.054415e+02	-1.798242e-03
1.060505e+02	-1.819070e-03
1.066631e+02	-1.840140e-03
1.072791e+02	-1.861454e-03
1.078988e+02	-1.883015e-03
1.085220e+02	-1.904826e-03
1.091488e+02	-1.926889e-03
1.097793e+02	-1.949207e-03
1.104133e+02	-1.971784e-03
1.110511e+02	-1.994622e-03
1.116925e+02	-2.017725e-03
1.123376e+02	-2.041096e-03
1.129865e+02	-2.064737e-03
1.136391e+02	-2.088652e-03
1.142955e+02	-2.112843e-03
1.149556e+02	-2.137315e-03
1.156196e+02	-2.162070e-03
1.162874e+02	-2.187112e-03
1.169591e+02	-2.212444e-03
1.176347e+02	-2.238069e-03
1.183141e+02	-2.263991e-03
1.189975e+02	-2.290213e-03
1.196848e+02	-2.316739e-03
1.203761e+02	-2.343571e-03
1.210714e+02	-2.370715e-03
1.217707e+02	-2.398173e-03
1.224740e+02	-2.425948e-03
1.231814e+02	-2.454046e-03
1.238929e+02	-2.482468e-03
1.246085e+02	-2.511220e-03
1.253283e+02	-2.540305e-03
1.260522e+02	-2.569726e-03
1.267802e+02	-2.599488e-03
1.275125e+02	-2.629595e-03
1.282490e+02	-2.660050e-03
1.289898e+02	-2.690858e-03
1.297348e+02	-2.722022e-03
1.304842e+02	-2.753548e-03
1.312378e+02	-2.785438e-03
1.319959e+02	-2.817697e-03
1.327583e+02	-2.850330e-03
1.335251e+02	-2.883341e-03
1.342963e+02	-2.916734e-03
1.350720e+02	-2.950514e-03
1.358522e+02	-2.984685e-03
1.366368e+02	-3.019251e-03
1.374260e+02	-3.054218e-03
1.382198e+02	-3.089589e-03
1.390182e+02	-3.125370e-03
1.398211e+02	-3.161565e-03
1.406287e+02	-3.198179e-03
1.414410e+02	-3.235217e-03
1.422579e+02	-3.272683e-03
1.430796e+02	-3.310584e-03
1.439060e+02	-3.348923e-03
1.447372e+02	-3.387706e-03
1.455732e+02	-3.426938e-03
1.464141e+02	-3.466624e-03
1.472597e+02	-3.506769e-03
1.481103e+02	-3.547380e-03
1.489658e+02	-3.588460e-03
1.498262e+02	-3.630016e-03
1.506916e+02	-3.672053e-03
1.515620e+02	-3.714576e-03
1.524374e+02	-3.757592e-03
1.533179e+02	-3.801105e-03
1.542034e+02	-3.845123e-03
1.550941e+02	-3.889650e-03
1.559899e+02	-3.934692e-03
1.568909e+02	-3.980255e-03
1.577971e+02	-4.026346e-03
1.587085e+02	-4.072970e-03
1.596252e+02	-4.120134e-03
1.605472e+02	-4.167844e-03
1.614745e+02	-4.216106e-03
1.624072e+02	-4.264927e-03
1.633453e+02	-4.314313e-03
1.642887e+02	-4.364270e-03
1.652377e+02	-4.414805e-03
1.661921e+02	-4.465926e-03
1.671520e+02	-4.517638e-03
1.681175e+02	-4.569948e-03
1.690885e+02	-4.622864e-03
1.700651e+02	-4.676392e-03
1.710474e+02	-4.730540e-03
1.720354e+02	-4.785314e-03
1.730291e+02	-4.840722e-03
1.740285e+02	-4.896771e-03
1.750337e+02	-4.953469e-03
1.760446e+02	-5.010823e-03
1.770615e+02	-5.068841e-03
1.780842e+02	-5.127530e-03
1.791128e+02	-5.186898e-03
1.801473e+02	-5.246954e-03
1.811878e+02	-5.307704e-03
1.822344e+02	-5.369157e-03
1.832870e+02	-5.431321e-03
1.843456e+02	-5.494204e-03
1.854104e+02	-5.557815e-03
1.864813e+02	-5.622162e-03
1.875584e+02	-5.687254e-03
1.886418e+02	-5.753098e-03
1.897313e+02	-5.819704e-03
1.908272e+02	-5.887081e-03
1.919294e+02	-5.955238e-03
1.930380e+02	-6.024183e-03
1.941530e+02	-6.093926e-03
1.952744e+02	-6.164475e-03
1.964023e+02	-6.235841e-03
1.975367e+02	-6.308032e-03
1.986777e+02	-6.381058e-03
1.998252e+02	-6.454929e-03
2.009794e+02	-6.529655e-03
2.021403e+02	-6.605245e-03
2.033078e+02	-6.681709e-03
2.044821e+02	-6.759058e-03
2.056632e+02	-6.837302e-03
2.068511e+02	-6.916451e-03
2.080459e+02	-6.996515e-03
2.092475e+02	-7.077505e-03
2.104561e+02	-7.159432e-03
2.116717e+02	-7.242306e-03
2.128943e+02	-7.326139e-03
2.141240e+02	-7.410942e-03
2.153608e+02	-7.496725e-03
2.166047e+02	-7.583501e-03
2.178558e+02	-7.671280e-03
2.191141e+02	-7.760074e-03
2.203797e+02	-7.849895e-03
2.216526e+02	-7.940754e-03
2.229329e+02	-8.032665e-03
2.242205e+02	-8.125638e-03
2.255156e+02	-8.219686e-03
2.268182e+02	-8.314822e-03
2.281283e+02	-8.411058e-03
2.294459e+02	-8.508406e-03
2.307712e+02	-8.606880e-03
2.321041e+02	-8.706493e-03
2.334447e+02	-8.807257e-03
2.347931e+02	-8.909187e-03
2.361493e+02	-9.012294e-03
2.375133e+02	-9.116594e-03
2.388851e+02	-9.222100e-03
2.402649e+02	-9.328825e-03
2.416527e+02	-9.436784e-03
2.430484e+02	-9.545991e-03
2.444523e+02	-9.656461e-03
2.458642e+02	-9.768207e-03
2.472843e+02	-9.881245e-03
2.487126e+02	-9.995590e-03
2.501492e+02	-1.011126e-02
2.515940e+02	-1.022826e-02
2.530472e+02	-1.034661e-02
2.545088e+02	-1.046634e-02
2.559789e+02	-1.058744e-02
2.574574e+02	-1.070995e-02
2.589444e+02	-1.083387e-02
2.604401e+02	-1.095923e-02
2.619444e+02	-1.108603e-02
2.634574e+02	-1.121430e-02
2.649791e+02	-1.134405e-02
2.665096e+02	-1.147530e-02
2.680489e+02	-1.160806e-02
2.695972e+02	-1.174236e-02
2.711544e+02	-1.187822e-02
2.727205e+02	-1.201564e-02
2.742958e+02	-1.215465e-02
2.758801e+02	-1.229526e-02
2.774736e+02	-1.243750e-02
2.790762e+02	-1.258138e-02
2.806882e+02	-1.272693e-02
2.823094e+02	-1.287415e-02
2.839400e+02	-1.302308e-02
2.855800e+02	-1.317372e-02
2.872295e+02	-1.332611e-02
2.888886e+02	-1.348026e-02
2.905572e+02	-1.363618e-02
2.922354e+02	-1.379391e-02
2.939234e+02	-1.395346e-02
2.956211e+02	-1.411485e-02
2.973286e+02	-1.427810e-02
2.990459e+02	-1.444324e-02
3.007732e+02	-1.461029e-02
3.025104e+02	-1.477926e-02
3.042577e+02	-1.495019e-02
3.060151e+02	-1.512309e-02
3.077826e+02	-1.529798e-02
3.095604e+02	-1.547490e-02
3.113484e+02	-1.565385e-02
3.131467e+02	-1.583488e-02
3.149554e+02	-1.601799e-02
3.167746e+02	-1.620321e-02
3.186043e+02	-1.639057e-02
3.204445e+02	-1.658010e-02
3.222954e+02	-1.677181e-02
3.241570e+02	-1.696574e-02
3.260293e+02	-1.716190e-02
3.279124e+02	-1.736033e-02
3.298064e+02	-1.756104e-02
3.317114e+02	-1.776407e-02
3.336273e+02	-1.796945e-02
3.355544e+02	-1.817719e-02
3.374925e+02	-1.838733e-02
3.394418e+02	-1.859990e-02
3.414024e+02	-1.881491e-02
3.433744e+02	-1.903241e-02
3.453577e+02	-1.925241e-02
3.473525e+02	-1.947496e-02
3.493588e+02	-1.970006e-02
3.513766e+02	-1.992777e-02
3.534062e+02	-2.015810e-02
3.554474e+02	-2.039109e-02
3.575005e+02	-2.062676e-02
3.595654e+02	-2.086515e-02
3.616422e+02	-2.110629e-02
3.637311e+02	-2.135021e-02
3.658320e+02	-2.159694e-02
3.679450e+02	-2.184651e-02
3.700702e+02	-2.209896e-02
3.722077e+02	-2.235433e-02
3.743576e+02	-2.261263e-02
3.765199e+02	-2.287391e-02
3.786946e+02	-2.313820e-02
3.808820e+02	-2.340554e-02
3.830819e+02	-2.367596e-02
3.852946e+02	-2.394949e-02
3.875200e+02	-2.422618e-02
3.897583e+02	-2.450605e-02
3.920096e+02	-2.478914e-02
3.942738e+02	-2.507550e-02
3.965511e+02	-2.536516e-02
3.988416e+02	-2.565815e-02
4.011452e+02	-2.595451e-02
4.034622e+02	-2.625429e-02
4.057926e+02	-2.655752e-02
4.081365e+02	-2.686424e-02
4.104938e+02	-2.717449e-02
4.128648e+02	-2.748832e-02
4.152495e+02	-2.780575e-02
4.176480e+02	-2.812684e-02
4.200603e+02	-2.845163e-02
4.224866e+02	-2.878015e-02
4.249268e+02	-2.911246e-02
4.273812e+02	-2.944859e-02
4.298497e+02	-2.978858e-02
4.323325e+02	-3.013249e-02
4.348297e+02	-3.048035e-02
4.373412e+02	-3.083222e-02
4.398673e+02	-3.118813e-02
4.424079e+02	-3.154814e-02
4.449633e+02	-3.191229e-02
4.475334e+02	-3.228062e-02
4.501183e+02	-3.265319e-02
4.527182e+02	-3.303004e-02
4.553330e+02	-3.341123e-02
4.579630e+02	-3.379680e-02
4.606082e+02	-3.418679e-02
4.632687e+02	-3.458128e-02
4.659445e+02	-3.498029e-02
4.686358e+02	-3.538389e-02
4.713426e+02	-3.579213e-02
4.740650e+02	-3.620506e-02
4.768032e+02	-3.662273e-02
4.795572e+02	-3.704520e-02
4.823271e+02	-3.747252e-02
4.851130e+02	-3.790475e-02
4.879150e+02	-3.834194e-02
4.907332e+02	-3.878416e-02
4.935676e+02	-3.923145e-02
4.964185e+02	-3.968387e-02
4.992858e+02	-4.014149e-02
5.021696e+02	-4.060436e-02
5.050701e+02	-4.107254e-02
5.079874e+02	-4.154610e-02
5.109215e+02	-4.202509e-02
5.138726e+02	-4.250957e-02
5.168407e+02	-4.299961e-02
5.198259e+02	-4.349527e-02
5.228284e+02	-4.399662e-02
5.258482e+02	-4.450371e-02
5.288855e+02	-4.501662e-02
5.319403e+02	-4.553541e-02
5.350128e+02	-4.606015e-02
5.381030e+02	-4.659090e-02
5.412111e+02	-4.712773e-02
5.443371e+02	-4.767072e-02
5.474812e+02	-4.821993e-02
5.506434e+02	-4.877542e-02
5.538239e+02	-4.933728e-02
5.570228e+02	-4.990558e-02
5.602401e+02	-5.048038e-02
5.634760e+02	-5.106177e-02
5.667306e+02	-5.164981e-02
5.700040e+02	-5.224458e-02
5.732964e+02	-5.284616e-02
5.766077e+02	-5.345462e-02
5.799382e+02	-5.407005e-02
5.832879e+02	-5.469251e-02
5.866569e+02	-5.532210e-02
5.900454e+02	-5.595888e-02
5.934535e+02	-5.660295e-02
5.968813e+02	-5.725438e-02
6.003288e+02	-5.791326e-02
6.037963e+02	-5.857967e-02
6.072838e+02	-5.925370e-02
6.107914e+02	-5.993543e-02
6.143194e+02	-6.062494e-02
6.178676e+02	-6.132234e-02
6.214364e+02	-6.202769e-02
6.250258e+02	-6.274111e-02
6.286359e+02	-6.346266e-02
6.322669e+02	-6.419246e-02
6.359189e+02	-6.493058e-02
6.395919e+02	-6.567713e-02
6.432862e+02	-6.643219e-02
6.470017e+02	-6.719587e-02
6.507388e+02	-6.796826e-02
6.544974e+02	-6.874945e-02
6.582778e+02	-6.953955e-02
6.620800e+02	-7.033866e-02
6.659041e+02	-7.114688e-02
6.697504e+02	-7.196430e-02
6.736188e+02	-7.279104e-02
6.775096e+02	-7.362719e-02
6.814229e+02	-7.447287e-02
6.853587e+02	-7.532818e-02
6.893173e+02	-7.619322e-02
6.932988e+02	-7.706811e-02
6.973033e+02	-7.795295e-02
7.013309e+02	-7.884786e-02
