Frequency(Hz)	Magnitude(dB)
1.000000e+01	-2.233500e+00
1.005776e+01	-2.253500e+00
1.011585e+01	-2.273850e+00
1.017428e+01	-2.294372e+00
1.023305e+01	-2.315110e+00
1.029215e+01	-2.335583e+00
1.035160e+01	-2.356556e+00
1.041139e+01	-2.377258e+00
1.047153e+01	-2.398561e+00
1.053201e+01	-2.420144e+00
1.059284e+01	-2.441352e+00
1.065403e+01	-2.462846e+00
1.071556e+01	-2.484810e+00
1.077746e+01	-2.506701e+00
1.083971e+01	-2.528573e+00
1.090232e+01	-2.550898e+00
1.096529e+01	-2.573270e+00
1.102862e+01	-2.595558e+00
1.109232e+01	-2.618209e+00
1.115639e+01	-2.640850e+00
1.122083e+01	-2.663651e+00
1.128564e+01	-2.686916e+00
1.135083e+01	-2.709804e+00
1.141639e+01	-2.733051e+00
1.148233e+01	-2.756468e+00
1.154865e+01	-2.780033e+00
1.161536e+01	-2.803769e+00
1.168245e+01	-2.827700e+00
1.174992e+01	-2.851832e+00
1.181779e+01	-2.875855e+00
1.188605e+01	-2.900131e+00
1.195470e+01	-2.924525e+00
1.202375e+01	-2.949395e+00
1.209320e+01	-2.974042e+00
1.216305e+01	-2.998863e+00
1.223330e+01	-3.023848e+00
1.230396e+01	-3.049202e+00
1.237503e+01	-3.074368e+00
1.244651e+01	-3.099686e+00
1.251840e+01	-3.125362e+00
1.259070e+01	-3.151035e+00
1.266343e+01	-3.177114e+00
1.273657e+01	-3.203035e+00
1.281014e+01	-3.229147e+00
1.288413e+01	-3.255499e+00
1.295855e+01	-3.281831e+00
1.303339e+01	-3.308558e+00
1.310867e+01	-3.335411e+00
1.318439e+01	-3.362251e+00
1.326054e+01	-3.389124e+00
1.333713e+01	-3.416440e+00
1.341417e+01	-3.443860e+00
1.349165e+01	-3.471209e+00
1.356958e+01	-3.498762e+00
1.364795e+01	-3.526447e+00
1.372678e+01	-3.554350e+00
1.380607e+01	-3.582668e+00
1.388581e+01	-3.610591e+00
1.396602e+01	-3.638948e+00
1.404668e+01	-3.667374e+00
1.412782e+01	-3.696053e+00
1.420942e+01	-3.724794e+00
1.429149e+01	-3.753839e+00
1.437404e+01	-3.782686e+00
1.445706e+01	-3.811795e+00
1.454057e+01	-3.841128e+00
1.462455e+01	-3.870368e+00
1.470902e+01	-3.900094e+00
1.479398e+01	-3.929698e+00
1.487943e+01	-3.959503e+00
1.496537e+01	-3.989789e+00
1.505181e+01	-4.019781e+00
1.513875e+01	-4.050293e+00
1.522619e+01	-4.080734e+00
1.531414e+01	-4.111190e+00
1.540259e+01	-4.141644e+00
1.549156e+01	-4.172266e+00
1.558103e+01	-4.203592e+00
1.567103e+01	-4.234629e+00
1.576155e+01	-4.265697e+00
1.585258e+01	-4.296856e+00
1.594415e+01	-4.328647e+00
1.603624e+01	-4.360003e+00
1.612886e+01	-4.391819e+00
1.622202e+01	-4.424187e+00
1.631572e+01	-4.455979e+00
1.640996e+01	-4.487968e+00
1.650474e+01	-4.520288e+00
1.660008e+01	-4.552709e+00
1.669596e+01	-4.585314e+00
1.679239e+01	-4.617693e+00
1.688938e+01	-4.650752e+00
1.698694e+01	-4.684076e+00
1.708505e+01	-4.716995e+00
1.718373e+01	-4.750009e+00
1.728299e+01	-4.783570e+00
1.738281e+01	-4.816946e+00
1.748322e+01	-4.850370e+00
1.758420e+01	-4.884144e+00
1.768576e+01	-4.917894e+00
1.778792e+01	-4.951866e+00
1.789066e+01	-4.986251e+00
1.799399e+01	-5.020155e+00
1.809793e+01	-5.054447e+00
1.820246e+01	-5.089018e+00
1.830760e+01	-5.123875e+00
1.841334e+01	-5.158257e+00
1.851969e+01	-5.193406e+00
1.862666e+01	-5.228123e+00
1.873425e+01	-5.263164e+00
1.884246e+01	-5.298444e+00
1.895129e+01	-5.334269e+00
1.906075e+01	-5.369289e+00
1.917085e+01	-5.404666e+00
1.928158e+01	-5.440520e+00
1.939295e+01	-5.476234e+00
1.950496e+01	-5.512234e+00
1.961762e+01	-5.548366e+00
1.973093e+01	-5.584341e+00
1.984490e+01	-5.620444e+00
1.995952e+01	-5.656833e+00
2.007480e+01	-5.693330e+00
2.019076e+01	-5.730329e+00
2.030738e+01	-5.766399e+00
2.042467e+01	-5.803369e+00
2.054264e+01	-5.840579e+00
2.066130e+01	-5.877303e+00
2.078064e+01	-5.914924e+00
2.090066e+01	-5.951640e+00
2.102139e+01	-5.989383e+00
2.114280e+01	-6.026665e+00
2.126492e+01	-6.064376e+00
2.138775e+01	-6.102039e+00
2.151128e+01	-6.139736e+00
2.163553e+01	-6.177828e+00
2.176050e+01	-6.216116e+00
2.188619e+01	-6.253856e+00
2.201260e+01	-6.292037e+00
2.213974e+01	-6.330472e+00
2.226762e+01	-6.368901e+00
2.239624e+01	-6.407069e+00
2.252560e+01	-6.446219e+00
2.265571e+01	-6.484802e+00
2.278656e+01	-6.523597e+00
2.291818e+01	-6.562632e+00
2.305055e+01	-6.601706e+00
2.318369e+01	-6.640829e+00
2.331760e+01	-6.680058e+00
2.345228e+01	-6.719310e+00
2.358774e+01	-6.758320e+00
2.372398e+01	-6.798211e+00
2.386101e+01	-6.837500e+00
2.399883e+01	-6.877663e+00
2.413745e+01	-6.917326e+00
2.427686e+01	-6.957428e+00
2.441709e+01	-6.997432e+00
2.455812e+01	-7.037192e+00
2.469997e+01	-7.077569e+00
2.484263e+01	-7.117812e+00
2.498612e+01	-7.158151e+00
2.513044e+01	-7.199048e+00
2.527559e+01	-7.239255e+00
2.542158e+01	-7.279889e+00
2.556842e+01	-7.320158e+00
2.571610e+01	-7.361586e+00
2.586463e+01	-7.402412e+00
2.601403e+01	-7.443379e+00
2.616428e+01	-7.484422e+00
2.631541e+01	-7.525157e+00
2.646740e+01	-7.566451e+00
2.662028e+01	-7.607923e+00
2.677404e+01	-7.649678e+00
2.692868e+01	-7.690572e+00
2.708422e+01	-7.732688e+00
2.724066e+01	-7.774077e+00
2.739800e+01	-7.815737e+00
2.755625e+01	-7.857398e+00
2.771541e+01	-7.899736e+00
2.787550e+01	-7.941132e+00
2.803650e+01	-7.983226e+00
2.819844e+01	-8.025288e+00
2.836131e+01	-8.067813e+00
2.852513e+01	-8.109618e+00
2.868989e+01	-8.152288e+00
2.885560e+01	-8.194450e+00
2.902227e+01	-8.237296e+00
2.918990e+01	-8.279391e+00
2.935850e+01	-8.322312e+00
2.952807e+01	-8.365088e+00
2.969863e+01	-8.407637e+00
2.987016e+01	-8.450776e+00
3.004269e+01	-8.493485e+00
3.021622e+01	-8.536562e+00
3.039075e+01	-8.579400e+00
3.056628e+01	-8.622424e+00
3.074283e+01	-8.665985e+00
3.092040e+01	-8.708389e+00
3.109900e+01	-8.752416e+00
3.127862e+01	-8.795872e+00
3.145929e+01	-8.839159e+00
3.164099e+01	-8.882899e+00
3.182375e+01	-8.926646e+00
3.200756e+01	-8.969817e+00
3.219244e+01	-9.013546e+00
3.237838e+01	-9.057596e+00
3.256540e+01	-9.101357e+00
3.275349e+01	-9.144952e+00
3.294268e+01	-9.188866e+00
3.313295e+01	-9.233422e+00
3.332433e+01	-9.277213e+00
3.351681e+01	-9.321046e+00
3.371040e+01	-9.366027e+00
3.390511e+01	-9.410051e+00
3.410094e+01	-9.454185e+00
3.429791e+01	-9.498798e+00
3.449601e+01	-9.543110e+00
3.469526e+01	-9.587598e+00
3.489566e+01	-9.632428e+00
3.509721e+01	-9.676936e+00
3.529993e+01	-9.721066e+00
3.550382e+01	-9.765955e+00
3.570889e+01	-9.810868e+00
3.591515e+01	-9.855894e+00
3.612259e+01	-9.900569e+00
3.633123e+01	-9.945808e+00
3.654108e+01	-9.990725e+00
3.675214e+01	-1.003570e+01
3.696442e+01	-1.008075e+01
3.717792e+01	-1.012585e+01
3.739266e+01	-1.017114e+01
3.760864e+01	-1.021559e+01
3.782587e+01	-1.026105e+01
3.804435e+01	-1.030655e+01
3.826409e+01	-1.035198e+01
3.848510e+01	-1.039799e+01
3.870739e+01	-1.044369e+01
3.893096e+01	-1.048877e+01
3.915583e+01	-1.053452e+01
3.938199e+01	-1.058022e+01
3.960946e+01	-1.062585e+01
3.983824e+01	-1.067109e+01
4.006834e+01	-1.071686e+01
4.029978e+01	-1.076294e+01
4.053255e+01	-1.080865e+01
4.076666e+01	-1.085479e+01
4.100213e+01	-1.090040e+01
4.123896e+01	-1.094671e+01
4.147715e+01	-1.099202e+01
4.171672e+01	-1.103928e+01
4.195767e+01	-1.108475e+01
4.220002e+01	-1.113078e+01
4.244377e+01	-1.117682e+01
4.268892e+01	-1.122378e+01
4.293549e+01	-1.127004e+01
4.318348e+01	-1.131580e+01
4.343291e+01	-1.136275e+01
4.368377e+01	-1.140887e+01
4.393609e+01	-1.145520e+01
4.418986e+01	-1.150184e+01
4.444510e+01	-1.154785e+01
4.470182e+01	-1.159469e+01
4.496001e+01	-1.164085e+01
4.521970e+01	-1.168810e+01
4.548089e+01	-1.173490e+01
4.574358e+01	-1.178091e+01
4.600779e+01	-1.182804e+01
4.627353e+01	-1.187470e+01
4.654081e+01	-1.192139e+01
4.680963e+01	-1.196824e+01
4.708000e+01	-1.201496e+01
4.735193e+01	-1.206281e+01
4.762543e+01	-1.210911e+01
4.790051e+01	-1.215575e+01
4.817719e+01	-1.220290e+01
4.845545e+01	-1.225003e+01
4.873533e+01	-1.229737e+01
4.901682e+01	-1.234428e+01
4.929994e+01	-1.239078e+01
4.958470e+01	-1.243880e+01
4.987110e+01	-1.248558e+01
5.015915e+01	-1.253300e+01
5.044887e+01	-1.258012e+01
5.074026e+01	-1.262726e+01
5.103333e+01	-1.267465e+01
5.132810e+01	-1.272194e+01
5.162457e+01	-1.276885e+01
5.192275e+01	-1.281642e+01
5.222265e+01	-1.286457e+01
5.252429e+01	-1.291217e+01
5.282767e+01	-1.295916e+01
5.313280e+01	-1.300709e+01
5.343969e+01	-1.305432e+01
5.374836e+01	-1.310147e+01
5.405880e+01	-1.314981e+01
5.437105e+01	-1.319653e+01
5.468509e+01	-1.324465e+01
5.500095e+01	-1.329249e+01
5.531863e+01	-1.333987e+01
5.563815e+01	-1.338705e+01
5.595951e+01	-1.343576e+01
5.628273e+01	-1.348355e+01
5.660782e+01	-1.353137e+01
5.693479e+01	-1.357947e+01
5.726364e+01	-1.362637e+01
5.759439e+01	-1.367431e+01
5.792705e+01	-1.372263e+01
5.826164e+01	-1.376944e+01
5.859815e+01	-1.381869e+01
5.893662e+01	-1.386561e+01
5.927703e+01	-1.391437e+01
5.961941e+01	-1.396283e+01
5.996377e+01	-1.401047e+01
6.031012e+01	-1.405863e+01
6.065847e+01	-1.410598e+01
6.100883e+01	-1.415404e+01
6.136121e+01	-1.420235e+01
6.171563e+01	-1.425110e+01
6.207210e+01	-1.429919e+01
6.243063e+01	-1.434719e+01
6.279122e+01	-1.439535e+01
6.315390e+01	-1.444390e+01
6.351868e+01	-1.449214e+01
6.388556e+01	-1.454037e+01
6.425456e+01	-1.458801e+01
6.462569e+01	-1.463667e+01
6.499897e+01	-1.468509e+01
6.537440e+01	-1.473291e+01
6.575200e+01	-1.478158e+01
6.613178e+01	-1.482961e+01
6.651375e+01	-1.487869e+01
6.689793e+01	-1.492642e+01
6.728433e+01	-1.497482e+01
6.767297e+01	-1.502414e+01
6.806384e+01	-1.507141e+01
6.845698e+01	-1.512022e+01
6.885238e+01	-1.516897e+01
6.925007e+01	-1.521753e+01
6.965005e+01	-1.526625e+01
7.005235e+01	-1.531455e+01
7.045697e+01	-1.536362e+01
7.086393e+01	-1.541123e+01
7.127323e+01	-1.546044e+01
7.168490e+01	-1.550958e+01
7.209895e+01	-1.555706e+01
7.251539e+01	-1.560592e+01
7.293424e+01	-1.565490e+01
7.335551e+01	-1.570325e+01
7.377920e+01	-1.575217e+01
7.420535e+01	-1.579999e+01
7.463396e+01	-1.585010e+01
7.506504e+01	-1.589880e+01
7.549861e+01	-1.594786e+01
7.593469e+01	-1.599530e+01
7.637328e+01	-1.604550e+01
7.681441e+01	-1.609378e+01
7.725809e+01	-1.614264e+01
7.770433e+01	-1.619230e+01
7.815315e+01	-1.624051e+01
7.860456e+01	-1.628906e+01
7.905857e+01	-1.633728e+01
7.951521e+01	-1.638652e+01
7.997449e+01	-1.643513e+01
8.043642e+01	-1.648402e+01
8.090102e+01	-1.653310e+01
8.136830e+01	-1.658309e+01
8.183828e+01	-1.663181e+01
8.231097e+01	-1.667984e+01
8.278640e+01	-1.672955e+01
8.326457e+01	-1.677845e+01
8.374550e+01	-1.682729e+01
8.422921e+01	-1.687648e+01
8.471572e+01	-1.692578e+01
8.520503e+01	-1.697392e+01
8.569717e+01	-1.702244e+01
8.619215e+01	-1.707168e+01
8.669000e+01	-1.712125e+01
8.719071e+01	-1.717008e+01
8.769432e+01	-1.721885e+01
8.820084e+01	-1.726711e+01
8.871029e+01	-1.731842e+01
8.922267e+01	-1.736651e+01
8.973802e+01	-1.741643e+01
9.025634e+01	-1.746452e+01
9.077766e+01	-1.751409e+01
9.130199e+01	-1.756445e+01
9.182935e+01	-1.761250e+01
9.235975e+01	-1.766219e+01
9.289321e+01	-1.771083e+01
9.342976e+01	-1.775959e+01
9.396941e+01	-1.780830e+01
9.451217e+01	-1.785885e+01
9.505807e+01	-1.790843e+01
9.560712e+01	-1.795647e+01
9.615934e+01	-1.800691e+01
9.671476e+01	-1.805491e+01
9.727338e+01	-1.810614e+01
9.783522e+01	-1.815409e+01
9.840032e+01	-1.820468e+01
9.896867e+01	-1.825207e+01
9.954031e+01	-1.830115e+01
1.001153e+02	-1.835149e+01
1.006935e+02	-1.840039e+01
1.012751e+02	-1.844910e+01
1.018601e+02	-1.849842e+01
1.024484e+02	-1.854959e+01
1.030402e+02	-1.859626e+01
1.036353e+02	-1.864677e+01
1.042339e+02	-1.869732e+01
1.048360e+02	-1.874542e+01
1.054415e+02	-1.879447e+01
1.060505e+02	-1.884554e+01
1.066631e+02	-1.889470e+01
1.072791e+02	-1.894135e+01
1.078988e+02	-1.899238e+01
1.085220e+02	-1.904142e+01
1.091488e+02	-1.909124e+01
1.097793e+02	-1.913963e+01
1.104133e+02	-1.919074e+01
1.110511e+02	-1.924044e+01
1.116925e+02	-1.928976e+01
1.123376e+02	-1.933926e+01
1.129865e+02	-1.938794e+01
1.136391e+02	-1.943754e+01
1.142955e+02	-1.948700e+01
1.149556e+02	-1.953770e+01
1.156196e+02	-1.958543e+01
1.162874e+02	-1.963624e+01
1.169591e+02	-1.968342e+01
1.176347e+02	-1.973448e+01
1.183141e+02	-1.978355e+01
1.189975e+02	-1.983330e+01
1.196848e+02	-1.988333e+01
1.203761e+02	-1.993347e+01
1.210714e+02	-1.998190e+01
1.217707e+02	-2.003062e+01
1.224740e+02	-2.008160e+01
1.231814e+02	-2.012833e+01
1.238929e+02	-2.018020e+01
1.246085e+02	-2.023019e+01
1.253283e+02	-2.027710e+01
1.260522e+02	-2.032808e+01
1.267802e+02	-2.037798e+01
1.275125e+02	-2.042895e+01
1.282490e+02	-2.047747e+01
1.289898e+02	-2.052833e+01
1.297348e+02	-2.057654e+01
1.304842e+02	-2.062684e+01
1.312378e+02	-2.067638e+01
1.319959e+02	-2.072494e+01
1.327583e+02	-2.077573e+01
1.335251e+02	-2.082487e+01
1.342963e+02	-2.087486e+01
1.350720e+02	-2.092501e+01
1.358522e+02	-2.097232e+01
1.366368e+02	-2.102404e+01
1.374260e+02	-2.107238e+01
1.382198e+02	-2.112211e+01
1.390182e+02	-2.117411e+01
1.398211e+02	-2.122083e+01
1.406287e+02	-2.127108e+01
1.414410e+02	-2.132319e+01
1.422579e+02	-2.137156e+01
1.430796e+02	-2.142036e+01
1.439060e+02	-2.146940e+01
1.447372e+02	-2.151996e+01
1.455732e+02	-2.156737e+01
1.464141e+02	-2.161879e+01
1.472597e+02	-2.166845e+01
1.481103e+02	-2.171818e+01
1.489658e+02	-2.176856e+01
1.498262e+02	-2.181733e+01
1.506916e+02	-2.186852e+01
1.515620e+02	-2.191903e+01
1.524374e+02	-2.197041e+01
1.533179e+02	-2.201863e+01
1.542034e+02	-2.206534e+01
1.550941e+02	-2.211625e+01
1.559899e+02	-2.216514e+01
1.568909e+02	-2.221667e+01
1.577971e+02	-2.226567e+01
1.587085e+02	-2.231597e+01
1.596252e+02	-2.236446e+01
1.605472e+02	-2.241518e+01
1.614745e+02	-2.246451e+01
1.624072e+02	-2.251343e+01
1.633453e+02	-2.256619e+01
1.642887e+02	-2.261612e+01
1.652377e+02	-2.266360e+01
1.661921e+02	-2.271286e+01
1.671520e+02	-2.276409e+01
1.681175e+02	-2.281376e+01
1.690885e+02	-2.285925e+01
1.700651e+02	-2.291405e+01
1.710474e+02	-2.296493e+01
1.720354e+02	-2.301323e+01
1.730291e+02	-2.306219e+01
1.740285e+02	-2.311061e+01
1.750337e+02	-2.316165e+01
1.760446e+02	-2.321209e+01
1.770615e+02	-2.326375e+01
1.780842e+02	-2.331424e+01
1.791128e+02	-2.336080e+01
1.801473e+02	-2.341065e+01
1.811878e+02	-2.346185e+01
1.822344e+02	-2.351185e+01
1.832870e+02	-2.355993e+01
1.843456e+02	-2.360892e+01
1.854104e+02	-2.365819e+01
1.864813e+02	-2.371075e+01
1.875584e+02	-2.375849e+01
1.886418e+02	-2.380790e+01
1.897313e+02	-2.385877e+01
1.908272e+02	-2.390695e+01
1.919294e+02	-2.396010e+01
1.930380e+02	-2.401247e+01
1.941530e+02	-2.406127e+01
1.952744e+02	-2.410975e+01
1.964023e+02	-2.415789e+01
1.975367e+02	-2.420773e+01
1.986777e+02	-2.425655e+01
1.998252e+02	-2.431046e+01
2.009794e+02	-2.435785e+01
2.021403e+02	-2.440844e+01
2.033078e+02	-2.445952e+01
2.044821e+02	-2.450785e+01
2.056632e+02	-2.455670e+01
2.068511e+02	-2.460827e+01
2.080459e+02	-2.465730e+01
2.092475e+02	-2.470644e+01
2.104561e+02	-2.475656e+01
2.116717e+02	-2.480704e+01
2.128943e+02	-2.485457e+01
2.141240e+02	-2.490423e+01
2.153608e+02	-2.495544e+01
2.166047e+02	-2.500569e+01
2.178558e+02	-2.505769e+01
2.191141e+02	-2.510771e+01
2.203797e+02	-2.515481e+01
2.216526e+02	-2.520864e+01
2.229329e+02	-2.525687e+01
2.242205e+02	-2.530485e+01
2.255156e+02	-2.535523e+01
2.268182e+02	-2.540494e+01
2.281283e+02	-2.545584e+01
2.294459e+02	-2.550472e+01
2.307712e+02	-2.555550e+01
2.321041e+02	-2.560711e+01
2.334447e+02	-2.565923e+01
2.347931e+02	-2.570721e+01
2.361493e+02	-2.575391e+01
2.375133e+02	-2.580452e+01
2.388851e+02	-2.585575e+01
2.402649e+02	-2.590377e+01
2.416527e+02	-2.595376e+01
2.430484e+02	-2.600135e+01
2.444523e+02	-2.605475e+01
2.458642e+02	-2.610721e+01
2.472843e+02	-2.615990e+01
2.487126e+02	-2.620480e+01
2.501492e+02	-2.625361e+01
2.515940e+02	-2.630725e+01
2.530472e+02	-2.635819e+01
2.545088e+02	-2.640784e+01
2.559789e+02	-2.645260e+01
2.574574e+02	-2.650546e+01
2.589444e+02	-2.655419e+01
2.604401e+02	-2.660489e+01
2.619444e+02	-2.665550e+01
2.634574e+02	-2.670828e+01
2.649791e+02	-2.675978e+01
2.665096e+02	-2.680474e+01
2.680489e+02	-2.685435e+01
2.695972e+02	-2.690347e+01
2.711544e+02	-2.695848e+01
2.727205e+02	-2.700773e+01
2.742958e+02	-2.705287e+01
2.758801e+02	-2.710331e+01
2.774736e+02	-2.715154e+01
2.790762e+02	-2.720375e+01
2.806882e+02	-2.725521e+01
2.823094e+02	-2.730274e+01
2.839400e+02	-2.735066e+01
2.855800e+02	-2.740622e+01
2.872295e+02	-2.745839e+01
2.888886e+02	-2.750236e+01
2.905572e+02	-2.755386e+01
2.922354e+02	-2.760629e+01
2.939234e+02	-2.765703e+01
2.956211e+02	-2.770407e+01
2.973286e+02	-2.775452e+01
2.990459e+02	-2.780455e+01
3.007732e+02	-2.785045e+01
3.025104e+02	-2.790215e+01
3.042577e+02	-2.795483e+01
3.060151e+02	-2.800630e+01
3.077826e+02	-2.805247e+01
3.095604e+02	-2.810262e+01
3.113484e+02	-2.815639e+01
3.131467e+02	-2.820413e+01
3.149554e+02	-2.825767e+01
3.167746e+02	-2.830335e+01
3.186043e+02	-2.835365e+01
3.204445e+02	-2.840610e+01
3.222954e+02	-2.845408e+01
3.241570e+02	-2.850785e+01
3.260293e+02	-2.854984e+01
3.279124e+02	-2.860487e+01
3.298064e+02	-2.865592e+01
3.317114e+02	-2.870204e+01
3.336273e+02	-2.875734e+01
3.355544e+02	-2.880863e+01
3.374925e+02	-2.885867e+01
3.394418e+02	-2.890607e+01
3.414024e+02	-2.895666e+01
3.433744e+02	-2.900626e+01
3.453577e+02	-2.905705e+01
3.473525e+02	-2.910766e+01
3.493588e+02	-2.915150e+01
3.513766e+02	-2.920554e+01
3.534062e+02	-2.925330e+01
3.554474e+02	-2.930876e+01
3.575005e+02	-2.935147e+01
3.595654e+02	-2.940569e+01
3.616422e+02	-2.945145e+01
3.637311e+02	-2.950723e+01
3.658320e+02	-2.955795e+01
3.679450e+02	-2.960035e+01
3.700702e+02	-2.965363e+01
3.722077e+02	-2.970324e+01
3.743576e+02	-2.975986e+01
3.765199e+02	-2.980855e+01
3.786946e+02	-2.985516e+01
3.808820e+02	-2.990081e+01
3.830819e+02	-2.995888e+01
3.852946e+02	-3.000640e+01
3.875200e+02	-3.005153e+01
3.897583e+02	-3.011270e+01
3.920096e+02	-3.015668e+01
3.942738e+02	-3.021068e+01
3.965511e+02	-3.025790e+01
3.988416e+02	-3.030556e+01
4.011452e+02	-3.035750e+01
4.034622e+02	-3.040513e+01
4.057926e+02	-3.045978e+01
4.081365e+02	-3.050902e+01
4.104938e+02	-3.055509e+01
4.128648e+02	-3.060750e+01
4.152495e+02	-3.065831e+01
4.176480e+02	-3.070417e+01
4.200603e+02	-3.075720e+01
4.224866e+02	-3.080562e+01
4.249268e+02	-3.085558e+01
4.273812e+02	-3.090719e+01
4.298497e+02	-3.096634e+01
4.323325e+02	-3.101368e+01
4.348297e+02	-3.105767e+01
4.373412e+02	-3.110591e+01
4.398673e+02	-3.116322e+01
4.424079e+02	-3.120954e+01
4.449633e+02	-3.126162e+01
4.475334e+02	-3.130504e+01
4.501183e+02	-3.135876e+01
4.527182e+02	-3.141047e+01
4.553330e+02	-3.146261e+01
4.579630e+02	-3.150983e+01
4.606082e+02	-3.156357e+01
4.632687e+02	-3.161813e+01
4.659445e+02	-3.165374e+01
4.686358e+02	-3.171039e+01
4.713426e+02	-3.176582e+01
4.740650e+02	-3.182088e+01
4.768032e+02	-3.185921e+01
4.795572e+02	-3.191286e+01
4.823271e+02	-3.196847e+01
4.851130e+02	-3.201149e+01
4.879150e+02	-3.206181e+01
4.907332e+02	-3.211173e+01
4.935676e+02	-3.216852e+01
4.964185e+02	-3.220931e+01
4.992858e+02	-3.226247e+01
5.021696e+02	-3.231925e+01
5.050701e+02	-3.236938e+01
5.079874e+02	-3.241241e+01
5.109215e+02	-3.246524e+01
5.138726e+02	-3.251927e+01
5.168407e+02	-3.255920e+01
5.198259e+02	-3.262035e+01
5.228284e+02	-3.267035e+01
5.258482e+02	-3.272353e+01
5.288855e+02	-3.276403e+01
5.319403e+02	-3.281800e+01
5.350128e+02	-3.286413e+01
5.381030e+02	-3.291921e+01
5.412111e+02	-3.295803e+01
5.443371e+02	-3.302263e+01
5.474812e+02	-3.306134e+01
5.506434e+02	-3.311458e+01
5.538239e+02	-3.317191e+01
5.570228e+02	-3.322078e+01
5.602401e+02	-3.326467e+01
5.634760e+02	-3.331927e+01
5.667306e+02	-3.337529e+01
5.700040e+02	-3.342042e+01
5.732964e+02	-3.346425e+01
5.766077e+02	-3.352057e+01
5.799382e+02	-3.356947e+01
5.832879e+02	-3.362276e+01
5.866569e+02	-3.366681e+01
5.900454e+02	-3.372109e+01
5.934535e+02	-3.377355e+01
5.968813e+02	-3.381823e+01
6.003288e+02	-3.387934e+01
6.037963e+02	-3.392420e+01
6.072838e+02	-3.397617e+01
6.107914e+02	-3.402045e+01
6.143194e+02	-3.406980e+01
6.178676e+02	-3.411599e+01
6.214364e+02	-3.417520e+01
6.250258e+02	-3.421457e+01
6.286359e+02	-3.427437e+01
6.322669e+02	-3.432248e+01
6.359189e+02	-3.438094e+01
6.395919e+02	-3.442868e+01
6.432862e+02	-3.448165e+01
6.470017e+02	-3.452713e+01
6.507388e+02	-3.458140e+01
6.544974e+02	-3.462388e+01
6.582778e+02	-3.468181e+01
6.620800e+02	-3.472702e+01
6.659041e+02	-3.477906e+01
6.697504e+02	-3.482895e+01
6.736188e+02	-3.487617e+01
6.775096e+02	-3.492464e+01
6.814229e+02	-3.497546e+01
6.853587e+02	-3.503046e+01
6.893173e+02	-3.508585e+01
6.932988e+02	-3.513311e+01
6.973033e+02	-3.518170e+01
7.013309e+02	-3.523116e+01
