Frequency(Hz)	Magnitude(dB)
1.000000e+01	-2.236632e+00
1.005776e+01	-2.256824e+00
1.011585e+01	-2.276943e+00
1.017428e+01	-2.297393e+00
1.023305e+01	-2.318160e+00
1.029215e+01	-2.338949e+00
1.035160e+01	-2.359881e+00
1.041139e+01	-2.380769e+00
1.047153e+01	-2.402038e+00
1.053201e+01	-2.423216e+00
1.059284e+01	-2.444815e+00
1.065403e+01	-2.466281e+00
1.071556e+01	-2.488139e+00
1.077746e+01	-2.509977e+00
1.083971e+01	-2.532094e+00
1.090232e+01	-2.554393e+00
1.096529e+01	-2.576648e+00
1.102862e+01	-2.599013e+00
1.109232e+01	-2.621422e+00
1.115639e+01	-2.644420e+00
1.122083e+01	-2.667205e+00
1.128564e+01	-2.690242e+00
1.135083e+01	-2.713304e+00
1.141639e+01	-2.736535e+00
1.148233e+01	-2.760174e+00
1.154865e+01	-2.783841e+00
1.161536e+01	-2.807843e+00
1.168245e+01	-2.831255e+00
1.174992e+01	-2.855518e+00
1.181779e+01	-2.879814e+00
1.188605e+01	-2.903931e+00
1.195470e+01	-2.928337e+00
1.202375e+01	-2.953065e+00
1.209320e+01	-2.977877e+00
1.216305e+01	-3.002737e+00
1.223330e+01	-3.027850e+00
1.230396e+01	-3.052959e+00
1.237503e+01	-3.078321e+00
1.244651e+01	-3.103841e+00
1.251840e+01	-3.129295e+00
1.259070e+01	-3.155164e+00
1.266343e+01	-3.181024e+00
1.273657e+01	-3.207170e+00
1.281014e+01	-3.233079e+00
1.288413e+01	-3.259472e+00
1.295855e+01	-3.286037e+00
1.303339e+01	-3.312844e+00
1.310867e+01	-3.339444e+00
1.318439e+01	-3.366227e+00
1.326054e+01	-3.393355e+00
1.333713e+01	-3.420812e+00
1.341417e+01	-3.447912e+00
1.349165e+01	-3.475302e+00
1.356958e+01	-3.503184e+00
1.364795e+01	-3.530838e+00
1.372678e+01	-3.558770e+00
1.380607e+01	-3.586870e+00
1.388581e+01	-3.614976e+00
1.396602e+01	-3.643237e+00
1.404668e+01	-3.671831e+00
1.412782e+01	-3.700409e+00
1.420942e+01	-3.729212e+00
1.429149e+01	-3.758264e+00
1.437404e+01	-3.787022e+00
1.445706e+01	-3.816545e+00
1.454057e+01	-3.845792e+00
1.462455e+01	-3.875182e+00
1.470902e+01	-3.904560e+00
1.479398e+01	-3.934342e+00
1.487943e+01	-3.964331e+00
1.496537e+01	-3.994206e+00
1.505181e+01	-4.024200e+00
1.513875e+01	-4.054700e+00
1.522619e+01	-4.084973e+00
1.531414e+01	-4.115615e+00
1.540259e+01	-4.146514e+00
1.549156e+01	-4.177290e+00
1.558103e+01	-4.208323e+00
1.567103e+01	-4.239277e+00
1.576155e+01	-4.270783e+00
1.585258e+01	-4.301790e+00
1.594415e+01	-4.333279e+00
1.603624e+01	-4.365083e+00
1.612886e+01	-4.397070e+00
1.622202e+01	-4.428872e+00
1.631572e+01	-4.460696e+00
1.640996e+01	-4.493107e+00
1.650474e+01	-4.525265e+00
1.660008e+01	-4.557750e+00
1.669596e+01	-4.590265e+00
1.679239e+01	-4.623069e+00
1.688938e+01	-4.655802e+00
1.698694e+01	-4.688924e+00
1.708505e+01	-4.722045e+00
1.718373e+01	-4.755371e+00
1.728299e+01	-4.788365e+00
1.738281e+01	-4.822108e+00
1.748322e+01	-4.855657e+00
1.758420e+01	-4.889269e+00
1.768576e+01	-4.923197e+00
1.778792e+01	-4.957194e+00
1.789066e+01	-4.991215e+00
1.799399e+01	-5.025191e+00
1.809793e+01	-5.060089e+00
1.820246e+01	-5.094517e+00
1.830760e+01	-5.129056e+00
1.841334e+01	-5.163887e+00
1.851969e+01	-5.198566e+00
1.862666e+01	-5.233823e+00
1.873425e+01	-5.268688e+00
1.884246e+01	-5.303931e+00
1.895129e+01	-5.338929e+00
1.906075e+01	-5.374769e+00
1.917085e+01	-5.410061e+00
1.928158e+01	-5.445906e+00
1.939295e+01	-5.481795e+00
1.950496e+01	-5.517855e+00
1.961762e+01	-5.553424e+00
1.973093e+01	-5.589944e+00
1.984490e+01	-5.626443e+00
1.995952e+01	-5.662401e+00
2.007480e+01	-5.698978e+00
2.019076e+01	-5.735373e+00
2.030738e+01	-5.772517e+00
2.042467e+01	-5.809330e+00
2.054264e+01	-5.846450e+00
2.066130e+01	-5.883097e+00
2.078064e+01	-5.920446e+00
2.090066e+01	-5.957824e+00
2.102139e+01	-5.994878e+00
2.114280e+01	-6.032849e+00
2.126492e+01	-6.070137e+00
2.138775e+01	-6.107944e+00
2.151128e+01	-6.145499e+00
2.163553e+01	-6.183736e+00
2.176050e+01	-6.221898e+00
2.188619e+01	-6.259809e+00
2.201260e+01	-6.297851e+00
2.213974e+01	-6.336383e+00
2.226762e+01	-6.374802e+00
2.239624e+01	-6.413578e+00
2.252560e+01	-6.451892e+00
2.265571e+01	-6.491127e+00
2.278656e+01	-6.529664e+00
2.291818e+01	-6.568910e+00
2.305055e+01	-6.607599e+00
2.318369e+01	-6.646769e+00
2.331760e+01	-6.686052e+00
2.345228e+01	-6.725357e+00
2.358774e+01	-6.765207e+00
2.372398e+01	-6.804358e+00
2.386101e+01	-6.844071e+00
2.399883e+01	-6.884070e+00
2.413745e+01	-6.923696e+00
2.427686e+01	-6.963508e+00
2.441709e+01	-7.003256e+00
2.455812e+01	-7.043658e+00
2.469997e+01	-7.083594e+00
2.484263e+01	-7.124027e+00
2.498612e+01	-7.164549e+00
2.513044e+01	-7.204906e+00
2.527559e+01	-7.245374e+00
2.542158e+01	-7.286156e+00
2.556842e+01	-7.326911e+00
2.571610e+01	-7.367793e+00
2.586463e+01	-7.408819e+00
2.601403e+01	-7.449102e+00
2.616428e+01	-7.490499e+00
2.631541e+01	-7.531662e+00
2.646740e+01	-7.573188e+00
2.662028e+01	-7.614580e+00
2.677404e+01	-7.655845e+00
2.692868e+01	-7.697372e+00
2.708422e+01	-7.738858e+00
2.724066e+01	-7.780504e+00
2.739800e+01	-7.822193e+00
2.755625e+01	-7.863940e+00
2.771541e+01	-7.905671e+00
2.787550e+01	-7.947715e+00
2.803650e+01	-7.989576e+00
2.819844e+01	-8.032279e+00
2.836131e+01	-8.074137e+00
2.852513e+01	-8.116462e+00
2.868989e+01	-8.158468e+00
2.885560e+01	-8.200898e+00
2.902227e+01	-8.243573e+00
2.918990e+01	-8.286062e+00
2.935850e+01	-8.328828e+00
2.952807e+01	-8.370989e+00
2.969863e+01	-8.414272e+00
2.987016e+01	-8.457246e+00
3.004269e+01	-8.500092e+00
3.021622e+01	-8.543055e+00
3.039075e+01	-8.586084e+00
3.056628e+01	-8.629345e+00
3.074283e+01	-8.672229e+00
3.092040e+01	-8.715629e+00
3.109900e+01	-8.759050e+00
3.127862e+01	-8.802437e+00
3.145929e+01	-8.846083e+00
3.164099e+01	-8.889611e+00
3.182375e+01	-8.933493e+00
3.200756e+01	-8.976459e+00
3.219244e+01	-9.020627e+00
3.237838e+01	-9.064149e+00
3.256540e+01	-9.108019e+00
3.275349e+01	-9.151869e+00
3.294268e+01	-9.195911e+00
3.313295e+01	-9.240251e+00
3.332433e+01	-9.284217e+00
3.351681e+01	-9.328328e+00
3.371040e+01	-9.372520e+00
3.390511e+01	-9.417151e+00
3.410094e+01	-9.461061e+00
3.429791e+01	-9.505602e+00
3.449601e+01	-9.549518e+00
3.469526e+01	-9.594305e+00
3.489566e+01	-9.638884e+00
3.509721e+01	-9.683705e+00
3.529993e+01	-9.728093e+00
3.550382e+01	-9.773162e+00
3.570889e+01	-9.818157e+00
3.591515e+01	-9.862865e+00
3.612259e+01	-9.907763e+00
3.633123e+01	-9.952584e+00
3.654108e+01	-9.997637e+00
3.675214e+01	-1.004259e+01
3.696442e+01	-1.008755e+01
3.717792e+01	-1.013285e+01
3.739266e+01	-1.017796e+01
3.760864e+01	-1.022340e+01
3.782587e+01	-1.026838e+01
3.804435e+01	-1.031431e+01
3.826409e+01	-1.035903e+01
3.848510e+01	-1.040501e+01
3.870739e+01	-1.045003e+01
3.893096e+01	-1.049596e+01
3.915583e+01	-1.054120e+01
3.938199e+01	-1.058650e+01
3.960946e+01	-1.063266e+01
3.983824e+01	-1.067845e+01
4.006834e+01	-1.072416e+01
4.029978e+01	-1.077057e+01
4.053255e+01	-1.081590e+01
4.076666e+01	-1.086149e+01
4.100213e+01	-1.090776e+01
4.123896e+01	-1.095394e+01
4.147715e+01	-1.099971e+01
4.171672e+01	-1.104578e+01
4.195767e+01	-1.109209e+01
4.220002e+01	-1.113815e+01
4.244377e+01	-1.118376e+01
4.268892e+01	-1.122979e+01
4.293549e+01	-1.127732e+01
4.318348e+01	-1.132294e+01
4.343291e+01	-1.136888e+01
4.368377e+01	-1.141547e+01
4.393609e+01	-1.146179e+01
4.418986e+01	-1.150911e+01
4.444510e+01	-1.155507e+01
4.470182e+01	-1.160155e+01
4.496001e+01	-1.164827e+01
4.521970e+01	-1.169519e+01
4.548089e+01	-1.174170e+01
4.574358e+01	-1.178785e+01
4.600779e+01	-1.183501e+01
4.627353e+01	-1.188208e+01
4.654081e+01	-1.192844e+01
4.680963e+01	-1.197552e+01
4.708000e+01	-1.202254e+01
4.735193e+01	-1.206946e+01
4.762543e+01	-1.211626e+01
4.790051e+01	-1.216334e+01
4.817719e+01	-1.221010e+01
4.845545e+01	-1.225699e+01
4.873533e+01	-1.230412e+01
4.901682e+01	-1.235085e+01
4.929994e+01	-1.239763e+01
4.958470e+01	-1.244536e+01
4.987110e+01	-1.249310e+01
5.015915e+01	-1.254034e+01
5.044887e+01	-1.258716e+01
5.074026e+01	-1.263429e+01
5.103333e+01	-1.268243e+01
5.132810e+01	-1.272926e+01
5.162457e+01	-1.277685e+01
5.192275e+01	-1.282440e+01
5.222265e+01	-1.287211e+01
5.252429e+01	-1.291903e+01
5.282767e+01	-1.296616e+01
5.313280e+01	-1.301380e+01
5.343969e+01	-1.306097e+01
5.374836e+01	-1.310940e+01
5.405880e+01	-1.315653e+01
5.437105e+01	-1.320419e+01
5.468509e+01	-1.325143e+01
5.500095e+01	-1.329982e+01
5.531863e+01	-1.334688e+01
5.563815e+01	-1.339466e+01
5.595951e+01	-1.344239e+01
5.628273e+01	-1.349066e+01
5.660782e+01	-1.353825e+01
5.693479e+01	-1.358570e+01
5.726364e+01	-1.363329e+01
5.759439e+01	-1.368249e+01
5.792705e+01	-1.373062e+01
5.826164e+01	-1.377660e+01
5.859815e+01	-1.382556e+01
5.893662e+01	-1.387411e+01
5.927703e+01	-1.392199e+01
5.961941e+01	-1.396907e+01
5.996377e+01	-1.401693e+01
6.031012e+01	-1.406612e+01
6.065847e+01	-1.411431e+01
6.100883e+01	-1.416089e+01
6.136121e+01	-1.420992e+01
6.171563e+01	-1.425795e+01
6.207210e+01	-1.430576e+01
6.243063e+01	-1.435454e+01
6.279122e+01	-1.440310e+01
6.315390e+01	-1.445122e+01
6.351868e+01	-1.449914e+01
6.388556e+01	-1.454755e+01
6.425456e+01	-1.459559e+01
6.462569e+01	-1.464380e+01
6.499897e+01	-1.469303e+01
6.537440e+01	-1.474129e+01
6.575200e+01	-1.478859e+01
6.613178e+01	-1.483736e+01
6.651375e+01	-1.488626e+01
6.689793e+01	-1.493432e+01
6.728433e+01	-1.498334e+01
6.767297e+01	-1.503134e+01
6.806384e+01	-1.507928e+01
6.845698e+01	-1.512822e+01
6.885238e+01	-1.517651e+01
6.925007e+01	-1.522515e+01
6.965005e+01	-1.527433e+01
7.005235e+01	-1.532153e+01
7.045697e+01	-1.537194e+01
7.086393e+01	-1.541894e+01
7.127323e+01	-1.546784e+01
7.168490e+01	-1.551783e+01
7.209895e+01	-1.556482e+01
7.251539e+01	-1.561321e+01
7.293424e+01	-1.566199e+01
7.335551e+01	-1.571151e+01
7.377920e+01	-1.575996e+01
7.420535e+01	-1.580765e+01
7.463396e+01	-1.585734e+01
7.506504e+01	-1.590552e+01
7.549861e+01	-1.595542e+01
7.593469e+01	-1.600266e+01
7.637328e+01	-1.605298e+01
7.681441e+01	-1.610018e+01
7.725809e+01	-1.614993e+01
7.770433e+01	-1.619863e+01
7.815315e+01	-1.624745e+01
7.860456e+01	-1.629618e+01
7.905857e+01	-1.634627e+01
7.951521e+01	-1.639452e+01
7.997449e+01	-1.644309e+01
8.043642e+01	-1.649254e+01
8.090102e+01	-1.654080e+01
8.136830e+01	-1.659037e+01
8.183828e+01	-1.663900e+01
8.231097e+01	-1.668701e+01
8.278640e+01	-1.673583e+01
8.326457e+01	-1.678496e+01
8.374550e+01	-1.683464e+01
8.422921e+01	-1.688335e+01
8.471572e+01	-1.693116e+01
8.520503e+01	-1.697993e+01
8.569717e+01	-1.703054e+01
8.619215e+01	-1.707912e+01
8.669000e+01	-1.712838e+01
8.719071e+01	-1.717746e+01
8.769432e+01	-1.722776e+01
8.820084e+01	-1.727583e+01
8.871029e+01	-1.732556e+01
8.922267e+01	-1.737479e+01
8.973802e+01	-1.742394e+01
9.025634e+01	-1.747344e+01
9.077766e+01	-1.752215e+01
9.130199e+01	-1.757046e+01
9.182935e+01	-1.762053e+01
9.235975e+01	-1.766869e+01
9.289321e+01	-1.771852e+01
9.342976e+01	-1.776841e+01
9.396941e+01	-1.781740e+01
9.451217e+01	-1.786665e+01
9.505807e+01	-1.791583e+01
9.560712e+01	-1.796524e+01
9.615934e+01	-1.801224e+01
9.671476e+01	-1.806338e+01
9.727338e+01	-1.811236e+01
9.783522e+01	-1.816153e+01
9.840032e+01	-1.820968e+01
9.896867e+01	-1.826152e+01
9.954031e+01	-1.830829e+01
1.001153e+02	-1.835833e+01
1.006935e+02	-1.840827e+01
1.012751e+02	-1.845632e+01
1.018601e+02	-1.850662e+01
1.024484e+02	-1.855472e+01
1.030402e+02	-1.860615e+01
1.036353e+02	-1.865414e+01
1.042339e+02	-1.870479e+01
1.048360e+02	-1.875273e+01
1.054415e+02	-1.880328e+01
1.060505e+02	-1.885279e+01
1.066631e+02	-1.889999e+01
1.072791e+02	-1.895208e+01
1.078988e+02	-1.900234e+01
1.085220e+02	-1.904899e+01
1.091488e+02	-1.909924e+01
1.097793e+02	-1.914792e+01
1.104133e+02	-1.919685e+01
1.110511e+02	-1.924663e+01
1.116925e+02	-1.929663e+01
1.123376e+02	-1.934541e+01
1.129865e+02	-1.939615e+01
1.136391e+02	-1.944361e+01
1.142955e+02	-1.949298e+01
1.149556e+02	-1.954538e+01
1.156196e+02	-1.959356e+01
1.162874e+02	-1.964332e+01
1.169591e+02	-1.969142e+01
1.176347e+02	-1.974143e+01
1.183141e+02	-1.978995e+01
1.189975e+02	-1.984157e+01
1.196848e+02	-1.989146e+01
1.203761e+02	-1.994230e+01
1.210714e+02	-1.998914e+01
1.217707e+02	-2.003922e+01
1.224740e+02	-2.008840e+01
1.231814e+02	-2.013816e+01
1.238929e+02	-2.018734e+01
1.246085e+02	-2.023809e+01
1.253283e+02	-2.028669e+01
1.260522e+02	-2.033591e+01
1.267802e+02	-2.038535e+01
1.275125e+02	-2.043517e+01
1.282490e+02	-2.048750e+01
1.289898e+02	-2.053531e+01
1.297348e+02	-2.058525e+01
1.304842e+02	-2.063609e+01
1.312378e+02	-2.068320e+01
1.319959e+02	-2.073505e+01
1.327583e+02	-2.078138e+01
1.335251e+02	-2.083262e+01
1.342963e+02	-2.088247e+01
1.350720e+02	-2.092969e+01
1.358522e+02	-2.097977e+01
1.366368e+02	-2.103066e+01
1.374260e+02	-2.108065e+01
1.382198e+02	-2.112905e+01
1.390182e+02	-2.118088e+01
1.398211e+02	-2.123005e+01
1.406287e+02	-2.127858e+01
1.414410e+02	-2.132826e+01
1.422579e+02	-2.137794e+01
1.430796e+02	-2.142753e+01
1.439060e+02	-2.147808e+01
1.447372e+02	-2.152692e+01
1.455732e+02	-2.157691e+01
1.464141e+02	-2.162656e+01
1.472597e+02	-2.167804e+01
1.481103e+02	-2.172638e+01
1.489658e+02	-2.177769e+01
1.498262e+02	-2.182498e+01
1.506916e+02	-2.187611e+01
1.515620e+02	-2.192650e+01
1.524374e+02	-2.197574e+01
1.533179e+02	-2.202440e+01
1.542034e+02	-2.207356e+01
1.550941e+02	-2.212302e+01
1.559899e+02	-2.217532e+01
1.568909e+02	-2.222249e+01
1.577971e+02	-2.227324e+01
1.587085e+02	-2.232344e+01
1.596252e+02	-2.237470e+01
1.605472e+02	-2.242352e+01
1.614745e+02	-2.247263e+01
1.624072e+02	-2.252195e+01
1.633453e+02	-2.257129e+01
1.642887e+02	-2.262246e+01
1.652377e+02	-2.267086e+01
1.661921e+02	-2.272329e+01
1.671520e+02	-2.277053e+01
1.681175e+02	-2.282164e+01
1.690885e+02	-2.286891e+01
1.700651e+02	-2.292134e+01
1.710474e+02	-2.296928e+01
1.720354e+02	-2.302147e+01
1.730291e+02	-2.307028e+01
1.740285e+02	-2.311906e+01
1.750337e+02	-2.316987e+01
1.760446e+02	-2.321979e+01
1.770615e+02	-2.327002e+01
1.780842e+02	-2.331832e+01
1.791128e+02	-2.336747e+01
1.801473e+02	-2.341703e+01
1.811878e+02	-2.347061e+01
1.822344e+02	-2.351700e+01
1.832870e+02	-2.357025e+01
1.843456e+02	-2.361712e+01
1.854104e+02	-2.366639e+01
1.864813e+02	-2.371852e+01
1.875584e+02	-2.376685e+01
1.886418e+02	-2.381671e+01
1.897313e+02	-2.386777e+01
1.908272e+02	-2.391683e+01
1.919294e+02	-2.396717e+01
1.930380e+02	-2.401510e+01
1.941530e+02	-2.406753e+01
1.952744e+02	-2.411659e+01
1.964023e+02	-2.416741e+01
1.975367e+02	-2.421542e+01
1.986777e+02	-2.426784e+01
1.998252e+02	-2.431691e+01
2.009794e+02	-2.436629e+01
2.021403e+02	-2.441681e+01
2.033078e+02	-2.446566e+01
2.044821e+02	-2.451510e+01
2.056632e+02	-2.456606e+01
2.068511e+02	-2.461596e+01
2.080459e+02	-2.466497e+01
2.092475e+02	-2.471387e+01
2.104561e+02	-2.476456e+01
2.116717e+02	-2.481381e+01
2.128943e+02	-2.486461e+01
2.141240e+02	-2.491352e+01
2.153608e+02	-2.496289e+01
2.166047e+02	-2.501257e+01
2.178558e+02	-2.506516e+01
2.191141e+02	-2.511581e+01
2.203797e+02	-2.516724e+01
2.216526e+02	-2.521401e+01
2.229329e+02	-2.526479e+01
2.242205e+02	-2.531339e+01
2.255156e+02	-2.536277e+01
2.268182e+02	-2.541596e+01
2.281283e+02	-2.546182e+01
2.294459e+02	-2.551369e+01
2.307712e+02	-2.556332e+01
2.321041e+02	-2.561091e+01
2.334447e+02	-2.566232e+01
2.347931e+02	-2.571242e+01
2.361493e+02	-2.576403e+01
2.375133e+02	-2.581364e+01
2.388851e+02	-2.586523e+01
2.402649e+02	-2.591314e+01
2.416527e+02	-2.596132e+01
2.430484e+02	-2.601533e+01
2.444523e+02	-2.605774e+01
2.458642e+02	-2.611342e+01
2.472843e+02	-2.616183e+01
2.487126e+02	-2.621302e+01
2.501492e+02	-2.626368e+01
2.515940e+02	-2.631077e+01
2.530472e+02	-2.636617e+01
2.545088e+02	-2.641126e+01
2.559789e+02	-2.646108e+01
2.574574e+02	-2.651015e+01
2.589444e+02	-2.656297e+01
2.604401e+02	-2.661131e+01
2.619444e+02	-2.666062e+01
2.634574e+02	-2.671164e+01
2.649791e+02	-2.676206e+01
2.665096e+02	-2.681192e+01
2.680489e+02	-2.685916e+01
2.695972e+02	-2.691277e+01
2.711544e+02	-2.696210e+01
2.727205e+02	-2.701005e+01
2.742958e+02	-2.706367e+01
2.758801e+02	-2.711026e+01
2.774736e+02	-2.715935e+01
2.790762e+02	-2.721186e+01
2.806882e+02	-2.726475e+01
2.823094e+02	-2.731048e+01
2.839400e+02	-2.735711e+01
2.855800e+02	-2.741162e+01
2.872295e+02	-2.746137e+01
2.888886e+02	-2.751066e+01
2.905572e+02	-2.755924e+01
2.922354e+02	-2.761087e+01
2.939234e+02	-2.766073e+01
2.956211e+02	-2.771210e+01
2.973286e+02	-2.776239e+01
2.990459e+02	-2.781635e+01
3.007732e+02	-2.786102e+01
3.025104e+02	-2.791178e+01
3.042577e+02	-2.796556e+01
3.060151e+02	-2.801529e+01
3.077826e+02	-2.805855e+01
3.095604e+02	-2.811086e+01
3.113484e+02	-2.816349e+01
3.131467e+02	-2.821064e+01
3.149554e+02	-2.826158e+01
3.167746e+02	-2.831204e+01
3.186043e+02	-2.836644e+01
3.204445e+02	-2.841079e+01
3.222954e+02	-2.846118e+01
3.241570e+02	-2.851307e+01
3.260293e+02	-2.855985e+01
3.279124e+02	-2.861407e+01
3.298064e+02	-2.866274e+01
3.317114e+02	-2.871239e+01
3.336273e+02	-2.876203e+01
3.355544e+02	-2.881378e+01
3.374925e+02	-2.886731e+01
3.394418e+02	-2.891401e+01
3.414024e+02	-2.896118e+01
3.433744e+02	-2.901438e+01
3.453577e+02	-2.906448e+01
3.473525e+02	-2.911360e+01
3.493588e+02	-2.915679e+01
3.513766e+02	-2.921505e+01
3.534062e+02	-2.926173e+01
3.554474e+02	-2.931534e+01
3.575005e+02	-2.936531e+01
3.595654e+02	-2.941465e+01
3.616422e+02	-2.946982e+01
3.637311e+02	-2.951052e+01
3.658320e+02	-2.956423e+01
3.679450e+02	-2.961066e+01
3.700702e+02	-2.966919e+01
3.722077e+02	-2.971831e+01
3.743576e+02	-2.976531e+01
3.765199e+02	-2.981357e+01
3.786946e+02	-2.986563e+01
3.808820e+02	-2.991795e+01
3.830819e+02	-2.996501e+01
3.852946e+02	-3.001354e+01
3.875200e+02	-3.006659e+01
3.897583e+02	-3.011812e+01
3.920096e+02	-3.016471e+01
3.942738e+02	-3.021778e+01
3.965511e+02	-3.026168e+01
3.988416e+02	-3.031257e+01
4.011452e+02	-3.036390e+01
4.034622e+02	-3.041446e+01
4.057926e+02	-3.046866e+01
4.081365e+02	-3.051590e+01
4.104938e+02	-3.056965e+01
4.128648e+02	-3.061272e+01
4.152495e+02	-3.066592e+01
4.176480e+02	-3.071546e+01
4.200603e+02	-3.076591e+01
4.224866e+02	-3.081359e+01
4.249268e+02	-3.086322e+01
4.273812e+02	-3.091632e+01
4.298497e+02	-3.096932e+01
4.323325e+02	-3.101723e+01
4.348297e+02	-3.106609e+01
4.373412e+02	-3.111615e+01
4.398673e+02	-3.117151e+01
4.424079e+02	-3.121434e+01
4.449633e+02	-3.126586e+01
4.475334e+02	-3.132129e+01
4.501183e+02	-3.137025e+01
4.527182e+02	-3.141862e+01
4.553330e+02	-3.147015e+01
4.579630e+02	-3.152440e+01
4.606082e+02	-3.157032e+01
4.632687e+02	-3.161631e+01
4.659445e+02	-3.166988e+01
4.686358e+02	-3.171850e+01
4.713426e+02	-3.177152e+01
4.740650e+02	-3.181917e+01
4.768032e+02	-3.186848e+01
4.795572e+02	-3.192500e+01
4.823271e+02	-3.197473e+01
4.851130e+02	-3.201891e+01
4.879150e+02	-3.207152e+01
4.907332e+02	-3.212220e+01
4.935676e+02	-3.217278e+01
4.964185e+02	-3.222203e+01
4.992858e+02	-3.226344e+01
5.021696e+02	-3.232559e+01
5.050701e+02	-3.237131e+01
5.079874e+02	-3.242001e+01
5.109215e+02	-3.247707e+01
5.138726e+02	-3.252896e+01
5.168407e+02	-3.257964e+01
5.198259e+02	-3.261888e+01
5.228284e+02	-3.267187e+01
5.258482e+02	-3.272086e+01
5.288855e+02	-3.278512e+01
5.319403e+02	-3.281841e+01
5.350128e+02	-3.286473e+01
5.381030e+02	-3.292197e+01
5.412111e+02	-3.297567e+01
5.443371e+02	-3.302856e+01
5.474812e+02	-3.307925e+01
5.506434e+02	-3.312426e+01
5.538239e+02	-3.317491e+01
5.570228e+02	-3.322184e+01
5.602401e+02	-3.327443e+01
5.634760e+02	-3.331633e+01
5.667306e+02	-3.337763e+01
5.700040e+02	-3.342464e+01
5.732964e+02	-3.348212e+01
5.766077e+02	-3.352912e+01
5.799382e+02	-3.357790e+01
5.832879e+02	-3.363471e+01
5.866569e+02	-3.367441e+01
5.900454e+02	-3.372945e+01
5.934535e+02	-3.377831e+01
5.968813e+02	-3.382686e+01
6.003288e+02	-3.387525e+01
6.037963e+02	-3.393223e+01
6.072838e+02	-3.398119e+01
6.107914e+02	-3.403311e+01
6.143194e+02	-3.408382e+01
6.178676e+02	-3.413286e+01
6.214364e+02	-3.418169e+01
6.250258e+02	-3.422476e+01
6.286359e+02	-3.428485e+01
6.322669e+02	-3.432511e+01
6.359189e+02	-3.437835e+01
6.395919e+02	-3.443145e+01
6.432862e+02	-3.448761e+01
6.470017e+02	-3.452736e+01
6.507388e+02	-3.458884e+01
6.544974e+02	-3.463864e+01
6.582778e+02	-3.468408e+01
6.620800e+02	-3.473995e+01
6.659041e+02	-3.478984e+01
6.697504e+02	-3.483364e+01
6.736188e+02	-3.489400e+01
6.775096e+02	-3.493172e+01
6.814229e+02	-3.499301e+01
6.853587e+02	-3.504341e+01
6.893173e+02	-3.509037e+01
6.932988e+02	-3.514299e+01
6.973033e+02	-3.518549e+01
7.013309e+02	-3.523811e+01
