Frequency(Hz)	Magnitude(dB)
1.000000e+01	-2.243366e+00
1.005776e+01	-2.263623e+00
1.011585e+01	-2.284016e+00
1.017428e+01	-2.304455e+00
1.023305e+01	-2.325199e+00
1.029215e+01	-2.346077e+00
1.035160e+01	-2.367016e+00
1.041139e+01	-2.388059e+00
1.047153e+01	-2.409467e+00
1.053201e+01	-2.430594e+00
1.059284e+01	-2.452280e+00
1.065403e+01	-2.473925e+00
1.071556e+01	-2.495735e+00
1.077746e+01	-2.517534e+00
1.083971e+01	-2.539487e+00
1.090232e+01	-2.562116e+00
1.096529e+01	-2.584395e+00
1.102862e+01	-2.606773e+00
1.109232e+01	-2.629544e+00
1.115639e+01	-2.652309e+00
1.122083e+01	-2.675100e+00
1.128564e+01	-2.698323e+00
1.135083e+01	-2.721261e+00
1.141639e+01	-2.744838e+00
1.148233e+01	-2.768451e+00
1.154865e+01	-2.791821e+00
1.161536e+01	-2.815711e+00
1.168245e+01	-2.839752e+00
1.174992e+01	-2.863606e+00
1.181779e+01	-2.887945e+00
1.188605e+01	-2.912273e+00
1.195470e+01	-2.936974e+00
1.202375e+01	-2.961539e+00
1.209320e+01	-2.986183e+00
1.216305e+01	-3.011107e+00
1.223330e+01	-3.036438e+00
1.230396e+01	-3.061397e+00
1.237503e+01	-3.087335e+00
1.244651e+01	-3.112662e+00
1.251840e+01	-3.138056e+00
1.259070e+01	-3.163956e+00
1.266343e+01	-3.189630e+00
1.273657e+01	-3.216139e+00
1.281014e+01	-3.242300e+00
1.288413e+01	-3.268721e+00
1.295855e+01	-3.294997e+00
1.303339e+01	-3.321801e+00
1.310867e+01	-3.348693e+00
1.318439e+01	-3.375491e+00
1.326054e+01	-3.402734e+00
1.333713e+01	-3.430140e+00
1.341417e+01	-3.457469e+00
1.349165e+01	-3.484980e+00
1.356958e+01	-3.512576e+00
1.364795e+01	-3.540288e+00
1.372678e+01	-3.568455e+00
1.380607e+01	-3.596416e+00
1.388581e+01	-3.624772e+00
1.396602e+01	-3.653033e+00
1.404668e+01	-3.681750e+00
1.412782e+01	-3.710296e+00
1.420942e+01	-3.739243e+00
1.429149e+01	-3.768002e+00
1.437404e+01	-3.797235e+00
1.445706e+01	-3.826319e+00
1.454057e+01	-3.855655e+00
1.462455e+01	-3.885141e+00
1.470902e+01	-3.914959e+00
1.479398e+01	-3.944728e+00
1.487943e+01	-3.974660e+00
1.496537e+01	-4.004590e+00
1.505181e+01	-4.034815e+00
1.513875e+01	-4.064990e+00
1.522619e+01	-4.095768e+00
1.531414e+01	-4.126046e+00
1.540259e+01	-4.156917e+00
1.549156e+01	-4.188273e+00
1.558103e+01	-4.218900e+00
1.567103e+01	-4.250201e+00
1.576155e+01	-4.281475e+00
1.585258e+01	-4.313089e+00
1.594415e+01	-4.344295e+00
1.603624e+01	-4.376194e+00
1.612886e+01	-4.407713e+00
1.622202e+01	-4.439802e+00
1.631572e+01	-4.471871e+00
1.640996e+01	-4.504078e+00
1.650474e+01	-4.536836e+00
1.660008e+01	-4.568713e+00
1.669596e+01	-4.601748e+00
1.679239e+01	-4.633996e+00
1.688938e+01	-4.667196e+00
1.698694e+01	-4.700360e+00
1.708505e+01	-4.733457e+00
1.718373e+01	-4.767006e+00
1.728299e+01	-4.800256e+00
1.738281e+01	-4.833602e+00
1.748322e+01	-4.867207e+00
1.758420e+01	-4.901031e+00
1.768576e+01	-4.934956e+00
1.778792e+01	-4.968960e+00
1.789066e+01	-5.002887e+00
1.799399e+01	-5.037286e+00
1.809793e+01	-5.071773e+00
1.820246e+01	-5.106517e+00
1.830760e+01	-5.141217e+00
1.841334e+01	-5.175857e+00
1.851969e+01	-5.210552e+00
1.862666e+01	-5.245750e+00
1.873425e+01	-5.280966e+00
1.884246e+01	-5.316026e+00
1.895129e+01	-5.351402e+00
1.906075e+01	-5.386932e+00
1.917085e+01	-5.422273e+00
1.928158e+01	-5.458328e+00
1.939295e+01	-5.494191e+00
1.950496e+01	-5.529745e+00
1.961762e+01	-5.566157e+00
1.973093e+01	-5.602603e+00
1.984490e+01	-5.638544e+00
1.995952e+01	-5.675275e+00
2.007480e+01	-5.711969e+00
2.019076e+01	-5.748283e+00
2.030738e+01	-5.785066e+00
2.042467e+01	-5.822014e+00
2.054264e+01	-5.859213e+00
2.066130e+01	-5.896055e+00
2.078064e+01	-5.933250e+00
2.090066e+01	-5.970545e+00
2.102139e+01	-6.008133e+00
2.114280e+01	-6.045619e+00
2.126492e+01	-6.083413e+00
2.138775e+01	-6.120905e+00
2.151128e+01	-6.158451e+00
2.163553e+01	-6.197049e+00
2.176050e+01	-6.234703e+00
2.188619e+01	-6.272919e+00
2.201260e+01	-6.311183e+00
2.213974e+01	-6.349812e+00
2.226762e+01	-6.388499e+00
2.239624e+01	-6.427093e+00
2.252560e+01	-6.465231e+00
2.265571e+01	-6.503929e+00
2.278656e+01	-6.543331e+00
2.291818e+01	-6.582041e+00
2.305055e+01	-6.621420e+00
2.318369e+01	-6.660150e+00
2.331760e+01	-6.699667e+00
2.345228e+01	-6.738857e+00
2.358774e+01	-6.778581e+00
2.372398e+01	-6.818252e+00
2.386101e+01	-6.857723e+00
2.399883e+01	-6.897553e+00
2.413745e+01	-6.937327e+00
2.427686e+01	-6.977231e+00
2.441709e+01	-7.017099e+00
2.455812e+01	-7.057467e+00
2.469997e+01	-7.097617e+00
2.484263e+01	-7.137835e+00
2.498612e+01	-7.178449e+00
2.513044e+01	-7.219162e+00
2.527559e+01	-7.259253e+00
2.542158e+01	-7.300151e+00
2.556842e+01	-7.340813e+00
2.571610e+01	-7.382145e+00
2.586463e+01	-7.422925e+00
2.601403e+01	-7.463445e+00
2.616428e+01	-7.504577e+00
2.631541e+01	-7.545720e+00
2.646740e+01	-7.587279e+00
2.662028e+01	-7.628787e+00
2.677404e+01	-7.669989e+00
2.692868e+01	-7.711261e+00
2.708422e+01	-7.753043e+00
2.724066e+01	-7.794904e+00
2.739800e+01	-7.836503e+00
2.755625e+01	-7.878482e+00
2.771541e+01	-7.920190e+00
2.787550e+01	-7.962690e+00
2.803650e+01	-8.004109e+00
2.819844e+01	-8.046449e+00
2.836131e+01	-8.088538e+00
2.852513e+01	-8.130793e+00
2.868989e+01	-8.173715e+00
2.885560e+01	-8.216190e+00
2.902227e+01	-8.257890e+00
2.918990e+01	-8.300920e+00
2.935850e+01	-8.343225e+00
2.952807e+01	-8.386299e+00
2.969863e+01	-8.428906e+00
2.987016e+01	-8.471611e+00
3.004269e+01	-8.514973e+00
3.021622e+01	-8.557980e+00
3.039075e+01	-8.601140e+00
3.056628e+01	-8.644535e+00
3.074283e+01	-8.687260e+00
3.092040e+01	-8.730332e+00
3.109900e+01	-8.774148e+00
3.127862e+01	-8.817379e+00
3.145929e+01	-8.861123e+00
3.164099e+01	-8.904654e+00
3.182375e+01	-8.948245e+00
3.200756e+01	-8.991899e+00
3.219244e+01	-9.035645e+00
3.237838e+01	-9.078828e+00
3.256540e+01	-9.122998e+00
3.275349e+01	-9.166851e+00
3.294268e+01	-9.211322e+00
3.313295e+01	-9.255166e+00
3.332433e+01	-9.299676e+00
3.351681e+01	-9.342988e+00
3.371040e+01	-9.387384e+00
3.390511e+01	-9.431747e+00
3.410094e+01	-9.476411e+00
3.429791e+01	-9.521479e+00
3.449601e+01	-9.565142e+00
3.469526e+01	-9.610401e+00
3.489566e+01	-9.654286e+00
3.509721e+01	-9.698664e+00
3.529993e+01	-9.743957e+00
3.550382e+01	-9.788676e+00
3.570889e+01	-9.833289e+00
3.591515e+01	-9.878485e+00
3.612259e+01	-9.923000e+00
3.633123e+01	-9.968546e+00
3.654108e+01	-1.001320e+01
3.675214e+01	-1.005846e+01
3.696442e+01	-1.010357e+01
3.717792e+01	-1.014891e+01
3.739266e+01	-1.019397e+01
3.760864e+01	-1.023937e+01
3.782587e+01	-1.028402e+01
3.804435e+01	-1.032971e+01
3.826409e+01	-1.037436e+01
3.848510e+01	-1.042036e+01
3.870739e+01	-1.046599e+01
3.893096e+01	-1.051160e+01
3.915583e+01	-1.055683e+01
3.938199e+01	-1.060245e+01
3.960946e+01	-1.064838e+01
3.983824e+01	-1.069411e+01
4.006834e+01	-1.074017e+01
4.029978e+01	-1.078564e+01
4.053255e+01	-1.083169e+01
4.076666e+01	-1.087747e+01
4.100213e+01	-1.092356e+01
4.123896e+01	-1.096934e+01
4.147715e+01	-1.101565e+01
4.171672e+01	-1.106123e+01
4.195767e+01	-1.110756e+01
4.220002e+01	-1.115391e+01
4.244377e+01	-1.120011e+01
4.268892e+01	-1.124667e+01
4.293549e+01	-1.129292e+01
4.318348e+01	-1.133867e+01
4.343291e+01	-1.138590e+01
4.368377e+01	-1.143195e+01
4.393609e+01	-1.147781e+01
4.418986e+01	-1.152484e+01
4.444510e+01	-1.157111e+01
4.470182e+01	-1.161751e+01
4.496001e+01	-1.166461e+01
4.521970e+01	-1.171140e+01
4.548089e+01	-1.175779e+01
4.574358e+01	-1.180421e+01
4.600779e+01	-1.185133e+01
4.627353e+01	-1.189817e+01
4.654081e+01	-1.194470e+01
4.680963e+01	-1.199180e+01
4.708000e+01	-1.203782e+01
4.735193e+01	-1.208530e+01
4.762543e+01	-1.213229e+01
4.790051e+01	-1.218001e+01
4.817719e+01	-1.222632e+01
4.845545e+01	-1.227396e+01
4.873533e+01	-1.232017e+01
4.901682e+01	-1.236811e+01
4.929994e+01	-1.241484e+01
4.958470e+01	-1.246189e+01
4.987110e+01	-1.250928e+01
5.015915e+01	-1.255632e+01
5.044887e+01	-1.260416e+01
5.074026e+01	-1.265076e+01
5.103333e+01	-1.269824e+01
5.132810e+01	-1.274556e+01
5.162457e+01	-1.279320e+01
5.192275e+01	-1.283989e+01
5.222265e+01	-1.288806e+01
5.252429e+01	-1.293545e+01
5.282767e+01	-1.298270e+01
5.313280e+01	-1.302968e+01
5.343969e+01	-1.307664e+01
5.374836e+01	-1.312570e+01
5.405880e+01	-1.317245e+01
5.437105e+01	-1.322085e+01
5.468509e+01	-1.326801e+01
5.500095e+01	-1.331587e+01
5.531863e+01	-1.336381e+01
5.563815e+01	-1.341199e+01
5.595951e+01	-1.345944e+01
5.628273e+01	-1.350725e+01
5.660782e+01	-1.355507e+01
5.693479e+01	-1.360258e+01
5.726364e+01	-1.365102e+01
5.759439e+01	-1.369825e+01
5.792705e+01	-1.374633e+01
5.826164e+01	-1.379437e+01
5.859815e+01	-1.384125e+01
5.893662e+01	-1.389039e+01
5.927703e+01	-1.393793e+01
5.961941e+01	-1.398599e+01
5.996377e+01	-1.403410e+01
6.031012e+01	-1.408214e+01
6.065847e+01	-1.413024e+01
6.100883e+01	-1.417864e+01
6.136121e+01	-1.422617e+01
6.171563e+01	-1.427544e+01
6.207210e+01	-1.432233e+01
6.243063e+01	-1.437118e+01
6.279122e+01	-1.441962e+01
6.315390e+01	-1.446757e+01
6.351868e+01	-1.451548e+01
6.388556e+01	-1.456388e+01
6.425456e+01	-1.461198e+01
6.462569e+01	-1.466051e+01
6.499897e+01	-1.470842e+01
6.537440e+01	-1.475815e+01
6.575200e+01	-1.480534e+01
6.613178e+01	-1.485406e+01
6.651375e+01	-1.490303e+01
6.689793e+01	-1.495138e+01
6.728433e+01	-1.499965e+01
6.767297e+01	-1.504773e+01
6.806384e+01	-1.509598e+01
6.845698e+01	-1.514495e+01
6.885238e+01	-1.519419e+01
6.925007e+01	-1.524081e+01
6.965005e+01	-1.529001e+01
7.005235e+01	-1.533776e+01
7.045697e+01	-1.538776e+01
7.086393e+01	-1.543594e+01
7.127323e+01	-1.548525e+01
7.168490e+01	-1.553281e+01
7.209895e+01	-1.558267e+01
7.251539e+01	-1.563001e+01
7.293424e+01	-1.567928e+01
7.335551e+01	-1.572828e+01
7.377920e+01	-1.577723e+01
7.420535e+01	-1.582447e+01
7.463396e+01	-1.587339e+01
7.506504e+01	-1.592282e+01
7.549861e+01	-1.597192e+01
7.593469e+01	-1.601978e+01
7.637328e+01	-1.606858e+01
7.681441e+01	-1.611897e+01
7.725809e+01	-1.616674e+01
7.770433e+01	-1.621506e+01
7.815315e+01	-1.626445e+01
7.860456e+01	-1.631360e+01
7.905857e+01	-1.636214e+01
7.951521e+01	-1.641100e+01
7.997449e+01	-1.646031e+01
8.043642e+01	-1.650958e+01
8.090102e+01	-1.655694e+01
8.136830e+01	-1.660698e+01
8.183828e+01	-1.665611e+01
8.231097e+01	-1.670456e+01
8.278640e+01	-1.675338e+01
8.326457e+01	-1.680176e+01
8.374550e+01	-1.685163e+01
8.422921e+01	-1.689977e+01
8.471572e+01	-1.694935e+01
8.520503e+01	-1.699831e+01
8.569717e+01	-1.704767e+01
8.619215e+01	-1.709588e+01
8.669000e+01	-1.714554e+01
8.719071e+01	-1.719425e+01
8.769432e+01	-1.724439e+01
8.820084e+01	-1.729284e+01
8.871029e+01	-1.734185e+01
8.922267e+01	-1.739138e+01
8.973802e+01	-1.744137e+01
9.025634e+01	-1.748991e+01
9.077766e+01	-1.753882e+01
9.130199e+01	-1.758749e+01
9.182935e+01	-1.763845e+01
9.235975e+01	-1.768676e+01
9.289321e+01	-1.773461e+01
9.342976e+01	-1.778337e+01
9.396941e+01	-1.783281e+01
9.451217e+01	-1.788163e+01
9.505807e+01	-1.793234e+01
9.560712e+01	-1.798153e+01
9.615934e+01	-1.803146e+01
9.671476e+01	-1.808021e+01
9.727338e+01	-1.813061e+01
9.783522e+01	-1.817731e+01
9.840032e+01	-1.822763e+01
9.896867e+01	-1.827768e+01
9.954031e+01	-1.832568e+01
1.001153e+02	-1.837528e+01
1.006935e+02	-1.842460e+01
1.012751e+02	-1.847466e+01
1.018601e+02	-1.852342e+01
1.024484e+02	-1.857301e+01
1.030402e+02	-1.862147e+01
1.036353e+02	-1.867149e+01
1.042339e+02	-1.872064e+01
1.048360e+02	-1.877175e+01
1.054415e+02	-1.881913e+01
1.060505e+02	-1.886913e+01
1.066631e+02	-1.891899e+01
1.072791e+02	-1.896844e+01
1.078988e+02	-1.901689e+01
1.085220e+02	-1.906620e+01
1.091488e+02	-1.911662e+01
1.097793e+02	-1.916560e+01
1.104133e+02	-1.921475e+01
1.110511e+02	-1.926604e+01
1.116925e+02	-1.931394e+01
1.123376e+02	-1.936322e+01
1.129865e+02	-1.941407e+01
1.136391e+02	-1.946287e+01
1.142955e+02	-1.951242e+01
1.149556e+02	-1.956066e+01
1.156196e+02	-1.961310e+01
1.162874e+02	-1.965931e+01
1.169591e+02	-1.971004e+01
1.176347e+02	-1.975889e+01
1.183141e+02	-1.980879e+01
1.189975e+02	-1.985779e+01
1.196848e+02	-1.990702e+01
1.203761e+02	-1.995675e+01
1.210714e+02	-2.000636e+01
1.217707e+02	-2.005653e+01
1.224740e+02	-2.010557e+01
1.231814e+02	-2.015576e+01
1.238929e+02	-2.020518e+01
1.246085e+02	-2.025635e+01
1.253283e+02	-2.030365e+01
1.260522e+02	-2.035318e+01
1.267802e+02	-2.040509e+01
1.275125e+02	-2.045430e+01
1.282490e+02	-2.050183e+01
1.289898e+02	-2.055155e+01
1.297348e+02	-2.060252e+01
1.304842e+02	-2.065131e+01
1.312378e+02	-2.070177e+01
1.319959e+02	-2.075131e+01
1.327583e+02	-2.080121e+01
1.335251e+02	-2.085035e+01
1.342963e+02	-2.089969e+01
1.350720e+02	-2.094820e+01
1.358522e+02	-2.100011e+01
1.366368e+02	-2.104899e+01
1.374260e+02	-2.109883e+01
1.382198e+02	-2.114662e+01
1.390182e+02	-2.119944e+01
1.398211e+02	-2.124499e+01
1.406287e+02	-2.129542e+01
1.414410e+02	-2.134698e+01
1.422579e+02	-2.139644e+01
1.430796e+02	-2.144582e+01
1.439060e+02	-2.149469e+01
1.447372e+02	-2.154581e+01
1.455732e+02	-2.159382e+01
1.464141e+02	-2.164497e+01
1.472597e+02	-2.169272e+01
1.481103e+02	-2.174431e+01
1.489658e+02	-2.179192e+01
1.498262e+02	-2.184257e+01
1.506916e+02	-2.189368e+01
1.515620e+02	-2.194176e+01
1.524374e+02	-2.199209e+01
1.533179e+02	-2.204211e+01
1.542034e+02	-2.209141e+01
1.550941e+02	-2.214008e+01
1.559899e+02	-2.218843e+01
1.568909e+02	-2.224189e+01
1.577971e+02	-2.228990e+01
1.587085e+02	-2.234037e+01
1.596252e+02	-2.239056e+01
1.605472e+02	-2.243997e+01
1.614745e+02	-2.248861e+01
1.624072e+02	-2.253876e+01
1.633453e+02	-2.259060e+01
1.642887e+02	-2.263779e+01
1.652377e+02	-2.269112e+01
1.661921e+02	-2.273788e+01
1.671520e+02	-2.278938e+01
1.681175e+02	-2.283697e+01
1.690885e+02	-2.288940e+01
1.700651e+02	-2.293607e+01
1.710474e+02	-2.298772e+01
1.720354e+02	-2.303707e+01
1.730291e+02	-2.308790e+01
1.740285e+02	-2.313622e+01
1.750337e+02	-2.318748e+01
1.760446e+02	-2.323366e+01
1.770615e+02	-2.328550e+01
1.780842e+02	-2.333739e+01
1.791128e+02	-2.338620e+01
1.801473e+02	-2.343627e+01
1.811878e+02	-2.348499e+01
1.822344e+02	-2.353338e+01
1.832870e+02	-2.358615e+01
1.843456e+02	-2.363405e+01
1.854104e+02	-2.368766e+01
1.864813e+02	-2.373291e+01
1.875584e+02	-2.378330e+01
1.886418e+02	-2.383416e+01
1.897313e+02	-2.388709e+01
1.908272e+02	-2.393641e+01
1.919294e+02	-2.398375e+01
1.930380e+02	-2.403277e+01
1.941530e+02	-2.408421e+01
1.952744e+02	-2.413025e+01
1.964023e+02	-2.418223e+01
1.975367e+02	-2.423379e+01
1.986777e+02	-2.428135e+01
1.998252e+02	-2.433079e+01
2.009794e+02	-2.438228e+01
2.021403e+02	-2.443109e+01
2.033078e+02	-2.448329e+01
2.044821e+02	-2.453250e+01
2.056632e+02	-2.458209e+01
2.068511e+02	-2.463199e+01
2.080459e+02	-2.468349e+01
2.092475e+02	-2.473167e+01
2.104561e+02	-2.478294e+01
2.116717e+02	-2.483257e+01
2.128943e+02	-2.488193e+01
2.141240e+02	-2.492972e+01
2.153608e+02	-2.498122e+01
2.166047e+02	-2.503182e+01
2.178558e+02	-2.508333e+01
2.191141e+02	-2.513150e+01
2.203797e+02	-2.517804e+01
2.216526e+02	-2.522666e+01
2.229329e+02	-2.528161e+01
2.242205e+02	-2.532995e+01
2.255156e+02	-2.538106e+01
2.268182e+02	-2.542937e+01
2.281283e+02	-2.547726e+01
2.294459e+02	-2.553093e+01
2.307712e+02	-2.558027e+01
2.321041e+02	-2.563315e+01
2.334447e+02	-2.568016e+01
2.347931e+02	-2.572915e+01
2.361493e+02	-2.578048e+01
2.375133e+02	-2.582928e+01
2.388851e+02	-2.587986e+01
2.402649e+02	-2.592946e+01
2.416527e+02	-2.597940e+01
2.430484e+02	-2.603007e+01
2.444523e+02	-2.608012e+01
2.458642e+02	-2.612822e+01
2.472843e+02	-2.617852e+01
2.487126e+02	-2.623210e+01
2.501492e+02	-2.628153e+01
2.515940e+02	-2.633109e+01
2.530472e+02	-2.637903e+01
2.545088e+02	-2.642818e+01
2.559789e+02	-2.647683e+01
2.574574e+02	-2.652915e+01
2.589444e+02	-2.658140e+01
2.604401e+02	-2.663064e+01
2.619444e+02	-2.667831e+01
2.634574e+02	-2.672814e+01
2.649791e+02	-2.678119e+01
2.665096e+02	-2.682735e+01
2.680489e+02	-2.687869e+01
2.695972e+02	-2.693021e+01
2.711544e+02	-2.697678e+01
2.727205e+02	-2.702768e+01
2.742958e+02	-2.707785e+01
2.758801e+02	-2.712876e+01
2.774736e+02	-2.717767e+01
2.790762e+02	-2.722686e+01
2.806882e+02	-2.727696e+01
2.823094e+02	-2.732819e+01
2.839400e+02	-2.737843e+01
2.855800e+02	-2.742563e+01
2.872295e+02	-2.747945e+01
2.888886e+02	-2.752757e+01
2.905572e+02	-2.757700e+01
2.922354e+02	-2.762576e+01
2.939234e+02	-2.768067e+01
2.956211e+02	-2.773151e+01
2.973286e+02	-2.777999e+01
2.990459e+02	-2.783144e+01
3.007732e+02	-2.787879e+01
3.025104e+02	-2.792973e+01
3.042577e+02	-2.798212e+01
3.060151e+02	-2.803253e+01
3.077826e+02	-2.808004e+01
3.095604e+02	-2.812622e+01
3.113484e+02	-2.817980e+01
3.131467e+02	-2.822867e+01
3.149554e+02	-2.827939e+01
3.167746e+02	-2.833257e+01
3.186043e+02	-2.838110e+01
3.204445e+02	-2.843028e+01
3.222954e+02	-2.848290e+01
3.241570e+02	-2.852939e+01
3.260293e+02	-2.858068e+01
3.279124e+02	-2.863287e+01
3.298064e+02	-2.867859e+01
3.317114e+02	-2.872867e+01
3.336273e+02	-2.878289e+01
3.355544e+02	-2.883027e+01
3.374925e+02	-2.887388e+01
3.394418e+02	-2.893225e+01
3.414024e+02	-2.897638e+01
3.433744e+02	-2.902971e+01
3.453577e+02	-2.908240e+01
3.473525e+02	-2.913227e+01
3.493588e+02	-2.918177e+01
3.513766e+02	-2.923177e+01
3.534062e+02	-2.928353e+01
3.554474e+02	-2.933413e+01
3.575005e+02	-2.938312e+01
3.595654e+02	-2.943344e+01
3.616422e+02	-2.948170e+01
3.637311e+02	-2.953508e+01
3.658320e+02	-2.958228e+01
3.679450e+02	-2.962893e+01
3.700702e+02	-2.968108e+01
3.722077e+02	-2.972986e+01
3.743576e+02	-2.978466e+01
3.765199e+02	-2.983357e+01
3.786946e+02	-2.988418e+01
3.808820e+02	-2.992695e+01
3.830819e+02	-2.998029e+01
3.852946e+02	-3.003221e+01
3.875200e+02	-3.008714e+01
3.897583e+02	-3.012942e+01
3.920096e+02	-3.018262e+01
3.942738e+02	-3.023578e+01
3.965511e+02	-3.028519e+01
3.988416e+02	-3.033124e+01
4.011452e+02	-3.038480e+01
4.034622e+02	-3.043310e+01
4.057926e+02	-3.047997e+01
4.081365e+02	-3.053333e+01
4.104938e+02	-3.058192e+01
4.128648e+02	-3.063169e+01
4.152495e+02	-3.067647e+01
4.176480e+02	-3.073012e+01
4.200603e+02	-3.078592e+01
4.224866e+02	-3.083626e+01
4.249268e+02	-3.088384e+01
4.273812e+02	-3.093450e+01
4.298497e+02	-3.097928e+01
4.323325e+02	-3.103550e+01
4.348297e+02	-3.108679e+01
4.373412e+02	-3.113827e+01
4.398673e+02	-3.118527e+01
4.424079e+02	-3.123269e+01
4.449633e+02	-3.128304e+01
4.475334e+02	-3.133132e+01
4.501183e+02	-3.137789e+01
4.527182e+02	-3.143236e+01
4.553330e+02	-3.148639e+01
4.579630e+02	-3.153637e+01
4.606082e+02	-3.158640e+01
4.632687e+02	-3.164047e+01
4.659445e+02	-3.168641e+01
4.686358e+02	-3.173666e+01
4.713426e+02	-3.178749e+01
4.740650e+02	-3.184014e+01
4.768032e+02	-3.188685e+01
4.795572e+02	-3.193754e+01
4.823271e+02	-3.199036e+01
4.851130e+02	-3.203973e+01
4.879150e+02	-3.208455e+01
4.907332e+02	-3.213490e+01
4.935676e+02	-3.218841e+01
4.964185e+02	-3.223356e+01
4.992858e+02	-3.229467e+01
5.021696e+02	-3.233911e+01
5.050701e+02	-3.238368e+01
5.079874e+02	-3.243392e+01
5.109215e+02	-3.248338e+01
5.138726e+02	-3.253620e+01
5.168407e+02	-3.258791e+01
5.198259e+02	-3.263756e+01
5.228284e+02	-3.268316e+01
5.258482e+02	-3.274366e+01
5.288855e+02	-3.279171e+01
5.319403e+02	-3.284447e+01
5.350128e+02	-3.289186e+01
5.381030e+02	-3.293793e+01
5.412111e+02	-3.299488e+01
5.443371e+02	-3.304227e+01
5.474812e+02	-3.309082e+01
5.506434e+02	-3.314871e+01
5.538239e+02	-3.319541e+01
5.570228e+02	-3.325061e+01
5.602401e+02	-3.329278e+01
5.634760e+02	-3.334318e+01
5.667306e+02	-3.339183e+01
5.700040e+02	-3.344867e+01
5.732964e+02	-3.348795e+01
5.766077e+02	-3.354467e+01
5.799382e+02	-3.360106e+01
5.832879e+02	-3.364352e+01
5.866569e+02	-3.370077e+01
5.900454e+02	-3.374476e+01
5.934535e+02	-3.379601e+01
5.968813e+02	-3.384990e+01
6.003288e+02	-3.389770e+01
6.037963e+02	-3.394017e+01
6.072838e+02	-3.398923e+01
6.107914e+02	-3.405209e+01
6.143194e+02	-3.409135e+01
6.178676e+02	-3.414207e+01
6.214364e+02	-3.419533e+01
6.250258e+02	-3.425037e+01
6.286359e+02	-3.429386e+01
6.322669e+02	-3.435422e+01
6.359189e+02	-3.439642e+01
6.395919e+02	-3.445614e+01
6.432862e+02	-3.450000e+01
6.470017e+02	-3.455029e+01
6.507388e+02	-3.460789e+01
6.544974e+02	-3.465475e+01
6.582778e+02	-3.469573e+01
6.620800e+02	-3.475883e+01
6.659041e+02	-3.480171e+01
6.697504e+02	-3.485150e+01
6.736188e+02	-3.490169e+01
6.775096e+02	-3.495568e+01
6.814229e+02	-3.500689e+01
6.853587e+02	-3.506586e+01
6.893173e+02	-3.510724e+01
6.932988e+02	-3.516394e+01
6.973033e+02	-3.520816e+01
7.013309e+02	-3.525493e+01
