Frequency(Hz)	Magnitude(dB)
1.000000e+01	-2.331153e+00
1.005776e+01	-2.352240e+00
1.011585e+01	-2.373157e+00
1.017428e+01	-2.394304e+00
1.023305e+01	-2.415340e+00
1.029215e+01	-2.437048e+00
1.035160e+01	-2.458344e+00
1.041139e+01	-2.480106e+00
1.047153e+01	-2.501763e+00
1.053201e+01	-2.523850e+00
1.059284e+01	-2.546162e+00
1.065403e+01	-2.568314e+00
1.071556e+01	-2.590778e+00
1.077746e+01	-2.613527e+00
1.083971e+01	-2.635917e+00
1.090232e+01	-2.658932e+00
1.096529e+01	-2.681988e+00
1.102862e+01	-2.704911e+00
1.109232e+01	-2.728099e+00
1.115639e+01	-2.751517e+00
1.122083e+01	-2.775130e+00
1.128564e+01	-2.798918e+00
1.135083e+01	-2.822658e+00
1.141639e+01	-2.846724e+00
1.148233e+01	-2.870765e+00
1.154865e+01	-2.895070e+00
1.161536e+01	-2.919296e+00
1.168245e+01	-2.943818e+00
1.174992e+01	-2.968661e+00
1.181779e+01	-2.993546e+00
1.188605e+01	-3.018444e+00
1.195470e+01	-3.043466e+00
1.202375e+01	-3.068862e+00
1.209320e+01	-3.094227e+00
1.216305e+01	-3.119901e+00
1.223330e+01	-3.145736e+00
1.230396e+01	-3.171517e+00
1.237503e+01	-3.197333e+00
1.244651e+01	-3.223684e+00
1.251840e+01	-3.250154e+00
1.259070e+01	-3.276280e+00
1.266343e+01	-3.302830e+00
1.273657e+01	-3.329573e+00
1.281014e+01	-3.356456e+00
1.288413e+01	-3.383506e+00
1.295855e+01	-3.410490e+00
1.303339e+01	-3.437818e+00
1.310867e+01	-3.465307e+00
1.318439e+01	-3.492935e+00
1.326054e+01	-3.520602e+00
1.333713e+01	-3.548676e+00
1.341417e+01	-3.576174e+00
1.349165e+01	-3.604504e+00
1.356958e+01	-3.632942e+00
1.364795e+01	-3.661285e+00
1.372678e+01	-3.689837e+00
1.380607e+01	-3.718567e+00
1.388581e+01	-3.747279e+00
1.396602e+01	-3.776006e+00
1.404668e+01	-3.805627e+00
1.412782e+01	-3.834539e+00
1.420942e+01	-3.864486e+00
1.429149e+01	-3.893999e+00
1.437404e+01	-3.923607e+00
1.445706e+01	-3.953250e+00
1.454057e+01	-3.983184e+00
1.462455e+01	-4.013194e+00
1.470902e+01	-4.043614e+00
1.479398e+01	-4.073773e+00
1.487943e+01	-4.104440e+00
1.496537e+01	-4.135122e+00
1.505181e+01	-4.165779e+00
1.513875e+01	-4.196639e+00
1.522619e+01	-4.227780e+00
1.531414e+01	-4.259452e+00
1.540259e+01	-4.290208e+00
1.549156e+01	-4.321678e+00
1.558103e+01	-4.353448e+00
1.567103e+01	-4.385150e+00
1.576155e+01	-4.417282e+00
1.585258e+01	-4.448964e+00
1.594415e+01	-4.481254e+00
1.603624e+01	-4.513509e+00
1.612886e+01	-4.545974e+00
1.622202e+01	-4.578652e+00
1.631572e+01	-4.611149e+00
1.640996e+01	-4.643914e+00
1.650474e+01	-4.676920e+00
1.660008e+01	-4.709665e+00
1.669596e+01	-4.743102e+00
1.679239e+01	-4.776517e+00
1.688938e+01	-4.809802e+00
1.698694e+01	-4.843235e+00
1.708505e+01	-4.877123e+00
1.718373e+01	-4.910824e+00
1.728299e+01	-4.945045e+00
1.738281e+01	-4.978755e+00
1.748322e+01	-5.012934e+00
1.758420e+01	-5.046925e+00
1.768576e+01	-5.081598e+00
1.778792e+01	-5.116322e+00
1.789066e+01	-5.151236e+00
1.799399e+01	-5.185827e+00
1.809793e+01	-5.220484e+00
1.820246e+01	-5.255613e+00
1.830760e+01	-5.290954e+00
1.841334e+01	-5.326191e+00
1.851969e+01	-5.361880e+00
1.862666e+01	-5.397130e+00
1.873425e+01	-5.432782e+00
1.884246e+01	-5.468682e+00
1.895129e+01	-5.504344e+00
1.906075e+01	-5.540491e+00
1.917085e+01	-5.576334e+00
1.928158e+01	-5.612861e+00
1.939295e+01	-5.649138e+00
1.950496e+01	-5.685564e+00
1.961762e+01	-5.722273e+00
1.973093e+01	-5.758858e+00
1.984490e+01	-5.795491e+00
1.995952e+01	-5.832706e+00
2.007480e+01	-5.869416e+00
2.019076e+01	-5.906639e+00
2.030738e+01	-5.944062e+00
2.042467e+01	-5.981339e+00
2.054264e+01	-6.018911e+00
2.066130e+01	-6.056429e+00
2.078064e+01	-6.093939e+00
2.090066e+01	-6.131592e+00
2.102139e+01	-6.169804e+00
2.114280e+01	-6.207514e+00
2.126492e+01	-6.245639e+00
2.138775e+01	-6.284271e+00
2.151128e+01	-6.322476e+00
2.163553e+01	-6.360592e+00
2.176050e+01	-6.399223e+00
2.188619e+01	-6.438077e+00
2.201260e+01	-6.476767e+00
2.213974e+01	-6.515187e+00
2.226762e+01	-6.554180e+00
2.239624e+01	-6.593481e+00
2.252560e+01	-6.632012e+00
2.265571e+01	-6.671736e+00
2.278656e+01	-6.710694e+00
2.291818e+01	-6.750342e+00
2.305055e+01	-6.789547e+00
2.318369e+01	-6.829746e+00
2.331760e+01	-6.869005e+00
2.345228e+01	-6.908872e+00
2.358774e+01	-6.948941e+00
2.372398e+01	-6.988640e+00
2.386101e+01	-7.029049e+00
2.399883e+01	-7.069083e+00
2.413745e+01	-7.109445e+00
2.427686e+01	-7.149290e+00
2.441709e+01	-7.190037e+00
2.455812e+01	-7.230061e+00
2.469997e+01	-7.271186e+00
2.484263e+01	-7.311917e+00
2.498612e+01	-7.352749e+00
2.513044e+01	-7.393515e+00
2.527559e+01	-7.434592e+00
2.542158e+01	-7.475230e+00
2.556842e+01	-7.516588e+00
2.571610e+01	-7.557195e+00
2.586463e+01	-7.598781e+00
2.601403e+01	-7.640566e+00
2.616428e+01	-7.681629e+00
2.631541e+01	-7.723507e+00
2.646740e+01	-7.764904e+00
2.662028e+01	-7.806536e+00
2.677404e+01	-7.848186e+00
2.692868e+01	-7.890015e+00
2.708422e+01	-7.932710e+00
2.724066e+01	-7.974394e+00
2.739800e+01	-8.016153e+00
2.755625e+01	-8.058095e+00
2.771541e+01	-8.100799e+00
2.787550e+01	-8.142866e+00
2.803650e+01	-8.185563e+00
2.819844e+01	-8.228450e+00
2.836131e+01	-8.270567e+00
2.852513e+01	-8.313086e+00
2.868989e+01	-8.355859e+00
2.885560e+01	-8.398320e+00
2.902227e+01	-8.441364e+00
2.918990e+01	-8.484317e+00
2.935850e+01	-8.527500e+00
2.952807e+01	-8.569758e+00
2.969863e+01	-8.613356e+00
2.987016e+01	-8.656618e+00
3.004269e+01	-8.699723e+00
3.021622e+01	-8.743101e+00
3.039075e+01	-8.786725e+00
3.056628e+01	-8.830077e+00
3.074283e+01	-8.873858e+00
3.092040e+01	-8.916750e+00
3.109900e+01	-8.960435e+00
3.127862e+01	-9.004803e+00
3.145929e+01	-9.048072e+00
3.164099e+01	-9.092058e+00
3.182375e+01	-9.135827e+00
3.200756e+01	-9.179869e+00
3.219244e+01	-9.223703e+00
3.237838e+01	-9.268009e+00
3.256540e+01	-9.311917e+00
3.275349e+01	-9.355934e+00
3.294268e+01	-9.400247e+00
3.313295e+01	-9.445073e+00
3.332433e+01	-9.489465e+00
3.351681e+01	-9.533865e+00
3.371040e+01	-9.578206e+00
3.390511e+01	-9.622611e+00
3.410094e+01	-9.667233e+00
3.429791e+01	-9.711743e+00
3.449601e+01	-9.756972e+00
3.469526e+01	-9.801068e+00
3.489566e+01	-9.846374e+00
3.509721e+01	-9.891284e+00
3.529993e+01	-9.936271e+00
3.550382e+01	-9.980807e+00
3.570889e+01	-1.002637e+01
3.591515e+01	-1.007044e+01
3.612259e+01	-1.011645e+01
3.633123e+01	-1.016158e+01
3.654108e+01	-1.020616e+01
3.675214e+01	-1.025147e+01
3.696442e+01	-1.029741e+01
3.717792e+01	-1.034286e+01
3.739266e+01	-1.038779e+01
3.760864e+01	-1.043391e+01
3.782587e+01	-1.047902e+01
3.804435e+01	-1.052451e+01
3.826409e+01	-1.057036e+01
3.848510e+01	-1.061585e+01
3.870739e+01	-1.066173e+01
3.893096e+01	-1.070702e+01
3.915583e+01	-1.075321e+01
3.938199e+01	-1.079869e+01
3.960946e+01	-1.084492e+01
3.983824e+01	-1.089046e+01
4.006834e+01	-1.093646e+01
4.029978e+01	-1.098293e+01
4.053255e+01	-1.102948e+01
4.076666e+01	-1.107518e+01
4.100213e+01	-1.112110e+01
4.123896e+01	-1.116710e+01
4.147715e+01	-1.121334e+01
4.171672e+01	-1.125947e+01
4.195767e+01	-1.130649e+01
4.220002e+01	-1.135269e+01
4.244377e+01	-1.139851e+01
4.268892e+01	-1.144576e+01
4.293549e+01	-1.149135e+01
4.318348e+01	-1.153830e+01
4.343291e+01	-1.158391e+01
4.368377e+01	-1.163123e+01
4.393609e+01	-1.167774e+01
4.418986e+01	-1.172493e+01
4.444510e+01	-1.177177e+01
4.470182e+01	-1.181775e+01
4.496001e+01	-1.186436e+01
4.521970e+01	-1.191178e+01
4.548089e+01	-1.195787e+01
4.574358e+01	-1.200507e+01
4.600779e+01	-1.205202e+01
4.627353e+01	-1.209847e+01
4.654081e+01	-1.214564e+01
4.680963e+01	-1.219314e+01
4.708000e+01	-1.224010e+01
4.735193e+01	-1.228668e+01
4.762543e+01	-1.233441e+01
4.790051e+01	-1.238078e+01
4.817719e+01	-1.242861e+01
4.845545e+01	-1.247527e+01
4.873533e+01	-1.252238e+01
4.901682e+01	-1.257052e+01
4.929994e+01	-1.261743e+01
4.958470e+01	-1.266451e+01
4.987110e+01	-1.271207e+01
5.015915e+01	-1.275957e+01
5.044887e+01	-1.280729e+01
5.074026e+01	-1.285455e+01
5.103333e+01	-1.290190e+01
5.132810e+01	-1.294888e+01
5.162457e+01	-1.299638e+01
5.192275e+01	-1.304421e+01
5.222265e+01	-1.309132e+01
5.252429e+01	-1.313889e+01
5.282767e+01	-1.318742e+01
5.313280e+01	-1.323431e+01
5.343969e+01	-1.328212e+01
5.374836e+01	-1.332917e+01
5.405880e+01	-1.337816e+01
5.437105e+01	-1.342515e+01
5.468509e+01	-1.347259e+01
5.500095e+01	-1.352008e+01
5.531863e+01	-1.356829e+01
5.563815e+01	-1.361657e+01
5.595951e+01	-1.366397e+01
5.628273e+01	-1.371219e+01
5.660782e+01	-1.376035e+01
5.693479e+01	-1.380778e+01
5.726364e+01	-1.385598e+01
5.759439e+01	-1.390424e+01
5.792705e+01	-1.395237e+01
5.826164e+01	-1.400031e+01
5.859815e+01	-1.404834e+01
5.893662e+01	-1.409611e+01
5.927703e+01	-1.414424e+01
5.961941e+01	-1.419213e+01
5.996377e+01	-1.424037e+01
6.031012e+01	-1.428896e+01
6.065847e+01	-1.433654e+01
6.100883e+01	-1.438431e+01
6.136121e+01	-1.443353e+01
6.171563e+01	-1.448116e+01
6.207210e+01	-1.452978e+01
6.243063e+01	-1.457738e+01
6.279122e+01	-1.462613e+01
6.315390e+01	-1.467465e+01
6.351868e+01	-1.472196e+01
6.388556e+01	-1.477090e+01
6.425456e+01	-1.481900e+01
6.462569e+01	-1.486781e+01
6.499897e+01	-1.491674e+01
6.537440e+01	-1.496389e+01
6.575200e+01	-1.501402e+01
6.613178e+01	-1.506058e+01
6.651375e+01	-1.511102e+01
6.689793e+01	-1.515956e+01
6.728433e+01	-1.520715e+01
6.767297e+01	-1.525564e+01
6.806384e+01	-1.530470e+01
6.845698e+01	-1.535323e+01
6.885238e+01	-1.540121e+01
6.925007e+01	-1.545007e+01
6.965005e+01	-1.549875e+01
7.005235e+01	-1.554743e+01
7.045697e+01	-1.559567e+01
7.086393e+01	-1.564409e+01
7.127323e+01	-1.569329e+01
7.168490e+01	-1.574189e+01
7.209895e+01	-1.579083e+01
7.251539e+01	-1.583869e+01
7.293424e+01	-1.588866e+01
7.335551e+01	-1.593709e+01
7.377920e+01	-1.598586e+01
7.420535e+01	-1.603305e+01
7.463396e+01	-1.608365e+01
7.506504e+01	-1.613291e+01
7.549861e+01	-1.618085e+01
7.593469e+01	-1.623072e+01
7.637328e+01	-1.627938e+01
7.681441e+01	-1.632752e+01
7.725809e+01	-1.637577e+01
7.770433e+01	-1.642504e+01
7.815315e+01	-1.647439e+01
7.860456e+01	-1.652219e+01
7.905857e+01	-1.657195e+01
7.951521e+01	-1.662069e+01
7.997449e+01	-1.666856e+01
8.043642e+01	-1.671969e+01
8.090102e+01	-1.676688e+01
8.136830e+01	-1.681753e+01
8.183828e+01	-1.686534e+01
8.231097e+01	-1.691488e+01
8.278640e+01	-1.696359e+01
8.326457e+01	-1.701296e+01
8.374550e+01	-1.706182e+01
8.422921e+01	-1.710993e+01
8.471572e+01	-1.715971e+01
8.520503e+01	-1.720911e+01
8.569717e+01	-1.725744e+01
8.619215e+01	-1.730683e+01
8.669000e+01	-1.735512e+01
8.719071e+01	-1.740559e+01
8.769432e+01	-1.745412e+01
8.820084e+01	-1.750295e+01
8.871029e+01	-1.755325e+01
8.922267e+01	-1.760202e+01
8.973802e+01	-1.765188e+01
9.025634e+01	-1.769931e+01
9.077766e+01	-1.774945e+01
9.130199e+01	-1.779908e+01
9.182935e+01	-1.784664e+01
9.235975e+01	-1.789683e+01
9.289321e+01	-1.794554e+01
9.342976e+01	-1.799497e+01
9.396941e+01	-1.804604e+01
9.451217e+01	-1.809327e+01
9.505807e+01	-1.814318e+01
9.560712e+01	-1.819181e+01
9.615934e+01	-1.824147e+01
9.671476e+01	-1.829011e+01
9.727338e+01	-1.833939e+01
9.783522e+01	-1.838902e+01
9.840032e+01	-1.843928e+01
9.896867e+01	-1.848644e+01
9.954031e+01	-1.853708e+01
1.001153e+02	-1.858640e+01
1.006935e+02	-1.863594e+01
1.012751e+02	-1.868501e+01
1.018601e+02	-1.873357e+01
1.024484e+02	-1.878510e+01
1.030402e+02	-1.883407e+01
1.036353e+02	-1.888452e+01
1.042339e+02	-1.893158e+01
1.048360e+02	-1.898181e+01
1.054415e+02	-1.903185e+01
1.060505e+02	-1.908018e+01
1.066631e+02	-1.913116e+01
1.072791e+02	-1.917902e+01
1.078988e+02	-1.922911e+01
1.085220e+02	-1.927804e+01
1.091488e+02	-1.932712e+01
1.097793e+02	-1.937631e+01
1.104133e+02	-1.942618e+01
1.110511e+02	-1.947498e+01
1.116925e+02	-1.952511e+01
1.123376e+02	-1.957543e+01
1.129865e+02	-1.962367e+01
1.136391e+02	-1.967450e+01
1.142955e+02	-1.972363e+01
1.149556e+02	-1.977296e+01
1.156196e+02	-1.982171e+01
1.162874e+02	-1.987169e+01
1.169591e+02	-1.992147e+01
1.176347e+02	-1.997024e+01
1.183141e+02	-2.002056e+01
1.189975e+02	-2.006990e+01
1.196848e+02	-2.012045e+01
1.203761e+02	-2.017185e+01
1.210714e+02	-2.021779e+01
1.217707e+02	-2.026968e+01
1.224740e+02	-2.031897e+01
1.231814e+02	-2.036696e+01
1.238929e+02	-2.041579e+01
1.246085e+02	-2.046626e+01
1.253283e+02	-2.051504e+01
1.260522e+02	-2.056540e+01
1.267802e+02	-2.061498e+01
1.275125e+02	-2.066521e+01
1.282490e+02	-2.071460e+01
1.289898e+02	-2.076530e+01
1.297348e+02	-2.081462e+01
1.304842e+02	-2.086280e+01
1.312378e+02	-2.091290e+01
1.319959e+02	-2.096256e+01
1.327583e+02	-2.101271e+01
1.335251e+02	-2.106249e+01
1.342963e+02	-2.111283e+01
1.350720e+02	-2.116051e+01
1.358522e+02	-2.120987e+01
1.366368e+02	-2.126006e+01
1.374260e+02	-2.130952e+01
1.382198e+02	-2.135987e+01
1.390182e+02	-2.141115e+01
1.398211e+02	-2.145850e+01
1.406287e+02	-2.150755e+01
1.414410e+02	-2.155752e+01
1.422579e+02	-2.160765e+01
1.430796e+02	-2.165675e+01
1.439060e+02	-2.170633e+01
1.447372e+02	-2.175625e+01
1.455732e+02	-2.180802e+01
1.464141e+02	-2.185663e+01
1.472597e+02	-2.190712e+01
1.481103e+02	-2.195515e+01
1.489658e+02	-2.200684e+01
1.498262e+02	-2.205503e+01
1.506916e+02	-2.210356e+01
1.515620e+02	-2.215405e+01
1.524374e+02	-2.220537e+01
1.533179e+02	-2.225328e+01
1.542034e+02	-2.230382e+01
1.550941e+02	-2.235252e+01
1.559899e+02	-2.240311e+01
1.568909e+02	-2.245464e+01
1.577971e+02	-2.250413e+01
1.587085e+02	-2.255545e+01
1.596252e+02	-2.260323e+01
1.605472e+02	-2.265355e+01
1.614745e+02	-2.270043e+01
1.624072e+02	-2.275368e+01
1.633453e+02	-2.280389e+01
1.642887e+02	-2.285220e+01
1.652377e+02	-2.290360e+01
1.661921e+02	-2.295196e+01
1.671520e+02	-2.300242e+01
1.681175e+02	-2.305304e+01
1.690885e+02	-2.310262e+01
1.700651e+02	-2.315319e+01
1.710474e+02	-2.319892e+01
1.720354e+02	-2.325165e+01
1.730291e+02	-2.329821e+01
1.740285e+02	-2.335004e+01
1.750337e+02	-2.339995e+01
1.760446e+02	-2.345043e+01
1.770615e+02	-2.349940e+01
1.780842e+02	-2.354839e+01
1.791128e+02	-2.359973e+01
1.801473e+02	-2.364831e+01
1.811878e+02	-2.369788e+01
1.822344e+02	-2.374645e+01
1.832870e+02	-2.379728e+01
1.843456e+02	-2.384827e+01
1.854104e+02	-2.389737e+01
1.864813e+02	-2.394934e+01
1.875584e+02	-2.399825e+01
1.886418e+02	-2.405011e+01
1.897313e+02	-2.409667e+01
1.908272e+02	-2.414654e+01
1.919294e+02	-2.419769e+01
1.930380e+02	-2.424718e+01
1.941530e+02	-2.429862e+01
1.952744e+02	-2.434504e+01
1.964023e+02	-2.439237e+01
1.975367e+02	-2.444578e+01
1.986777e+02	-2.450012e+01
1.998252e+02	-2.454579e+01
2.009794e+02	-2.460037e+01
2.021403e+02	-2.464514e+01
2.033078e+02	-2.469531e+01
2.044821e+02	-2.474499e+01
2.056632e+02	-2.479538e+01
2.068511e+02	-2.484534e+01
2.080459e+02	-2.489453e+01
2.092475e+02	-2.494622e+01
2.104561e+02	-2.499319e+01
2.116717e+02	-2.504459e+01
2.128943e+02	-2.509788e+01
2.141240e+02	-2.514507e+01
2.153608e+02	-2.519331e+01
2.166047e+02	-2.524448e+01
2.178558e+02	-2.529503e+01
2.191141e+02	-2.534594e+01
2.203797e+02	-2.539210e+01
2.216526e+02	-2.544240e+01
2.229329e+02	-2.549219e+01
2.242205e+02	-2.554427e+01
2.255156e+02	-2.559429e+01
2.268182e+02	-2.564425e+01
2.281283e+02	-2.569287e+01
2.294459e+02	-2.574325e+01
2.307712e+02	-2.579477e+01
2.321041e+02	-2.584568e+01
2.334447e+02	-2.589693e+01
2.347931e+02	-2.594807e+01
2.361493e+02	-2.599689e+01
2.375133e+02	-2.604560e+01
2.388851e+02	-2.609304e+01
2.402649e+02	-2.614530e+01
2.416527e+02	-2.619386e+01
2.430484e+02	-2.624393e+01
2.444523e+02	-2.629445e+01
2.458642e+02	-2.634457e+01
2.472843e+02	-2.639370e+01
2.487126e+02	-2.644227e+01
2.501492e+02	-2.649450e+01
2.515940e+02	-2.654125e+01
2.530472e+02	-2.659417e+01
2.545088e+02	-2.664008e+01
2.559789e+02	-2.669290e+01
2.574574e+02	-2.674514e+01
2.589444e+02	-2.679138e+01
2.604401e+02	-2.684104e+01
2.619444e+02	-2.689415e+01
2.634574e+02	-2.693879e+01
2.649791e+02	-2.698902e+01
2.665096e+02	-2.704149e+01
2.680489e+02	-2.709466e+01
2.695972e+02	-2.714106e+01
2.711544e+02	-2.719453e+01
2.727205e+02	-2.724132e+01
2.742958e+02	-2.729492e+01
2.758801e+02	-2.734518e+01
2.774736e+02	-2.739273e+01
2.790762e+02	-2.744284e+01
2.806882e+02	-2.749350e+01
2.823094e+02	-2.753928e+01
2.839400e+02	-2.759486e+01
2.855800e+02	-2.764542e+01
2.872295e+02	-2.769231e+01
2.888886e+02	-2.774085e+01
2.905572e+02	-2.779174e+01
2.922354e+02	-2.784065e+01
2.939234e+02	-2.789022e+01
2.956211e+02	-2.794162e+01
2.973286e+02	-2.799621e+01
2.990459e+02	-2.804122e+01
3.007732e+02	-2.809371e+01
3.025104e+02	-2.813939e+01
3.042577e+02	-2.819496e+01
3.060151e+02	-2.824359e+01
3.077826e+02	-2.829507e+01
3.095604e+02	-2.834173e+01
3.113484e+02	-2.839574e+01
3.131467e+02	-2.844273e+01
3.149554e+02	-2.849260e+01
3.167746e+02	-2.853878e+01
3.186043e+02	-2.859591e+01
3.204445e+02	-2.864013e+01
3.222954e+02	-2.869487e+01
3.241570e+02	-2.874209e+01
3.260293e+02	-2.879166e+01
3.279124e+02	-2.884438e+01
3.298064e+02	-2.889810e+01
3.317114e+02	-2.893843e+01
3.336273e+02	-2.899379e+01
3.355544e+02	-2.904629e+01
3.374925e+02	-2.908722e+01
3.394418e+02	-2.913904e+01
3.414024e+02	-2.919050e+01
3.433744e+02	-2.923985e+01
3.453577e+02	-2.929472e+01
3.473525e+02	-2.934476e+01
3.493588e+02	-2.939289e+01
3.513766e+02	-2.944332e+01
3.534062e+02	-2.949147e+01
3.554474e+02	-2.953847e+01
3.575005e+02	-2.958682e+01
3.595654e+02	-2.964859e+01
3.616422e+02	-2.969711e+01
3.637311e+02	-2.974258e+01
3.658320e+02	-2.979336e+01
3.679450e+02	-2.984423e+01
3.700702e+02	-2.989604e+01
3.722077e+02	-2.994357e+01
3.743576e+02	-2.998850e+01
3.765199e+02	-3.004799e+01
3.786946e+02	-3.009395e+01
3.808820e+02	-3.014164e+01
3.830819e+02	-3.019273e+01
3.852946e+02	-3.025098e+01
3.875200e+02	-3.029475e+01
3.897583e+02	-3.034289e+01
3.920096e+02	-3.039156e+01
3.942738e+02	-3.044487e+01
3.965511e+02	-3.049543e+01
3.988416e+02	-3.053921e+01
4.011452e+02	-3.059522e+01
4.034622e+02	-3.063842e+01
4.057926e+02	-3.068964e+01
4.081365e+02	-3.074982e+01
4.104938e+02	-3.079386e+01
4.128648e+02	-3.084421e+01
4.152495e+02	-3.089681e+01
4.176480e+02	-3.095306e+01
4.200603e+02	-3.099681e+01
4.224866e+02	-3.104808e+01
4.249268e+02	-3.109584e+01
4.273812e+02	-3.114516e+01
4.298497e+02	-3.119729e+01
4.323325e+02	-3.124731e+01
4.348297e+02	-3.129652e+01
4.373412e+02	-3.134439e+01
4.398673e+02	-3.139273e+01
4.424079e+02	-3.144483e+01
4.449633e+02	-3.149633e+01
4.475334e+02	-3.155190e+01
4.501183e+02	-3.159885e+01
4.527182e+02	-3.164365e+01
4.553330e+02	-3.169837e+01
4.579630e+02	-3.174130e+01
4.606082e+02	-3.180357e+01
4.632687e+02	-3.184669e+01
4.659445e+02	-3.189818e+01
4.686358e+02	-3.195564e+01
4.713426e+02	-3.199628e+01
4.740650e+02	-3.204516e+01
4.768032e+02	-3.209868e+01
4.795572e+02	-3.214838e+01
4.823271e+02	-3.219975e+01
4.851130e+02	-3.225581e+01
4.879150e+02	-3.229627e+01
4.907332e+02	-3.235317e+01
4.935676e+02	-3.239551e+01
4.964185e+02	-3.245066e+01
4.992858e+02	-3.249720e+01
5.021696e+02	-3.255150e+01
5.050701e+02	-3.259662e+01
5.079874e+02	-3.264620e+01
5.109215e+02	-3.269435e+01
5.138726e+02	-3.274644e+01
5.168407e+02	-3.280158e+01
5.198259e+02	-3.284784e+01
5.228284e+02	-3.289237e+01
5.258482e+02	-3.296019e+01
5.288855e+02	-3.300043e+01
5.319403e+02	-3.305342e+01
5.350128e+02	-3.309894e+01
5.381030e+02	-3.315068e+01
5.412111e+02	-3.320274e+01
5.443371e+02	-3.325696e+01
5.474812e+02	-3.330728e+01
5.506434e+02	-3.335260e+01
5.538239e+02	-3.340341e+01
5.570228e+02	-3.345204e+01
5.602401e+02	-3.350057e+01
5.634760e+02	-3.356269e+01
5.667306e+02	-3.360902e+01
5.700040e+02	-3.365292e+01
5.732964e+02	-3.370704e+01
5.766077e+02	-3.376131e+01
5.799382e+02	-3.381086e+01
5.832879e+02	-3.385356e+01
5.866569e+02	-3.390534e+01
5.900454e+02	-3.395005e+01
5.934535e+02	-3.401198e+01
5.968813e+02	-3.405906e+01
6.003288e+02	-3.410963e+01
6.037963e+02	-3.415947e+01
6.072838e+02	-3.420503e+01
6.107914e+02	-3.425726e+01
6.143194e+02	-3.430888e+01
6.178676e+02	-3.436501e+01
6.214364e+02	-3.440471e+01
6.250258e+02	-3.445907e+01
6.286359e+02	-3.450867e+01
6.322669e+02	-3.455029e+01
6.359189e+02	-3.460800e+01
6.395919e+02	-3.466577e+01
6.432862e+02	-3.471192e+01
6.470017e+02	-3.476183e+01
6.507388e+02	-3.481048e+01
6.544974e+02	-3.485696e+01
6.582778e+02	-3.490821e+01
6.620800e+02	-3.495275e+01
6.659041e+02	-3.500800e+01
6.697504e+02	-3.506359e+01
6.736188e+02	-3.510572e+01
6.775096e+02	-3.517135e+01
6.814229e+02	-3.521873e+01
6.853587e+02	-3.526398e+01
6.893173e+02	-3.531532e+01
6.932988e+02	-3.536092e+01
6.973033e+02	-3.541001e+01
7.013309e+02	-3.546360e+01
