Frequency(Hz)	Magnitude(dB)
1.000000e+01	-2.094963e+00
1.005776e+01	-2.113941e+00
1.011585e+01	-2.133497e+00
1.017428e+01	-2.152701e+00
1.023305e+01	-2.172290e+00
1.029215e+01	-2.192147e+00
1.035160e+01	-2.212174e+00
1.041139e+01	-2.232108e+00
1.047153e+01	-2.252304e+00
1.053201e+01	-2.272387e+00
1.059284e+01	-2.293193e+00
1.065403e+01	-2.313550e+00
1.071556e+01	-2.334437e+00
1.077746e+01	-2.355215e+00
1.083971e+01	-2.376094e+00
1.090232e+01	-2.397442e+00
1.096529e+01	-2.418658e+00
1.102862e+01	-2.439871e+00
1.109232e+01	-2.461755e+00
1.115639e+01	-2.483352e+00
1.122083e+01	-2.505168e+00
1.128564e+01	-2.527246e+00
1.135083e+01	-2.549266e+00
1.141639e+01	-2.571785e+00
1.148233e+01	-2.594082e+00
1.154865e+01	-2.616689e+00
1.161536e+01	-2.639306e+00
1.168245e+01	-2.662133e+00
1.174992e+01	-2.685114e+00
1.181779e+01	-2.708360e+00
1.188605e+01	-2.731839e+00
1.195470e+01	-2.754809e+00
1.202375e+01	-2.778604e+00
1.209320e+01	-2.802656e+00
1.216305e+01	-2.826381e+00
1.223330e+01	-2.850328e+00
1.230396e+01	-2.874212e+00
1.237503e+01	-2.898599e+00
1.244651e+01	-2.923174e+00
1.251840e+01	-2.947421e+00
1.259070e+01	-2.972379e+00
1.266343e+01	-2.997220e+00
1.273657e+01	-3.022228e+00
1.281014e+01	-3.047345e+00
1.288413e+01	-3.072629e+00
1.295855e+01	-3.098242e+00
1.303339e+01	-3.123583e+00
1.310867e+01	-3.149456e+00
1.318439e+01	-3.175346e+00
1.326054e+01	-3.201421e+00
1.333713e+01	-3.227460e+00
1.341417e+01	-3.253631e+00
1.349165e+01	-3.280333e+00
1.356958e+01	-3.306771e+00
1.364795e+01	-3.333495e+00
1.372678e+01	-3.360834e+00
1.380607e+01	-3.387407e+00
1.388581e+01	-3.414539e+00
1.396602e+01	-3.442030e+00
1.404668e+01	-3.469435e+00
1.412782e+01	-3.497135e+00
1.420942e+01	-3.524826e+00
1.429149e+01	-3.552632e+00
1.437404e+01	-3.580524e+00
1.445706e+01	-3.608839e+00
1.454057e+01	-3.636979e+00
1.462455e+01	-3.665466e+00
1.470902e+01	-3.694069e+00
1.479398e+01	-3.723209e+00
1.487943e+01	-3.751745e+00
1.496537e+01	-3.780817e+00
1.505181e+01	-3.809923e+00
1.513875e+01	-3.839124e+00
1.522619e+01	-3.868654e+00
1.531414e+01	-3.898000e+00
1.540259e+01	-3.928011e+00
1.549156e+01	-3.957543e+00
1.558103e+01	-3.987648e+00
1.567103e+01	-4.017976e+00
1.576155e+01	-4.048225e+00
1.585258e+01	-4.078334e+00
1.594415e+01	-4.109168e+00
1.603624e+01	-4.139620e+00
1.612886e+01	-4.170668e+00
1.622202e+01	-4.201671e+00
1.631572e+01	-4.232417e+00
1.640996e+01	-4.263810e+00
1.650474e+01	-4.294969e+00
1.660008e+01	-4.326552e+00
1.669596e+01	-4.358399e+00
1.679239e+01	-4.390055e+00
1.688938e+01	-4.421845e+00
1.698694e+01	-4.454063e+00
1.708505e+01	-4.486069e+00
1.718373e+01	-4.518479e+00
1.728299e+01	-4.550889e+00
1.738281e+01	-4.583239e+00
1.748322e+01	-4.616035e+00
1.758420e+01	-4.648420e+00
1.768576e+01	-4.681823e+00
1.778792e+01	-4.714494e+00
1.789066e+01	-4.747956e+00
1.799399e+01	-4.781418e+00
1.809793e+01	-4.814802e+00
1.820246e+01	-4.848114e+00
1.830760e+01	-4.882170e+00
1.841334e+01	-4.916065e+00
1.851969e+01	-4.949967e+00
1.862666e+01	-4.984155e+00
1.873425e+01	-5.017940e+00
1.884246e+01	-5.052576e+00
1.895129e+01	-5.086742e+00
1.906075e+01	-5.121697e+00
1.917085e+01	-5.156183e+00
1.928158e+01	-5.190975e+00
1.939295e+01	-5.226017e+00
1.950496e+01	-5.260876e+00
1.961762e+01	-5.296148e+00
1.973093e+01	-5.331363e+00
1.984490e+01	-5.366796e+00
1.995952e+01	-5.402567e+00
2.007480e+01	-5.438112e+00
2.019076e+01	-5.474000e+00
2.030738e+01	-5.510160e+00
2.042467e+01	-5.545843e+00
2.054264e+01	-5.582158e+00
2.066130e+01	-5.618229e+00
2.078064e+01	-5.654634e+00
2.090066e+01	-5.691200e+00
2.102139e+01	-5.727502e+00
2.114280e+01	-5.764641e+00
2.126492e+01	-5.801341e+00
2.138775e+01	-5.837896e+00
2.151128e+01	-5.875076e+00
2.163553e+01	-5.912389e+00
2.176050e+01	-5.949528e+00
2.188619e+01	-5.986703e+00
2.201260e+01	-6.024526e+00
2.213974e+01	-6.061716e+00
2.226762e+01	-6.099629e+00
2.239624e+01	-6.137342e+00
2.252560e+01	-6.175447e+00
2.265571e+01	-6.213467e+00
2.278656e+01	-6.251505e+00
2.291818e+01	-6.289971e+00
2.305055e+01	-6.327816e+00
2.318369e+01	-6.366565e+00
2.331760e+01	-6.405185e+00
2.345228e+01	-6.443556e+00
2.358774e+01	-6.482203e+00
2.372398e+01	-6.520875e+00
2.386101e+01	-6.559801e+00
2.399883e+01	-6.598968e+00
2.413745e+01	-6.638713e+00
2.427686e+01	-6.676980e+00
2.441709e+01	-6.716893e+00
2.455812e+01	-6.756211e+00
2.469997e+01	-6.796076e+00
2.484263e+01	-6.835366e+00
2.498612e+01	-6.875135e+00
2.513044e+01	-6.915162e+00
2.527559e+01	-6.954871e+00
2.542158e+01	-6.994535e+00
2.556842e+01	-7.034966e+00
2.571610e+01	-7.074697e+00
2.586463e+01	-7.115426e+00
2.601403e+01	-7.155699e+00
2.616428e+01	-7.195850e+00
2.631541e+01	-7.236987e+00
2.646740e+01	-7.277264e+00
2.662028e+01	-7.317939e+00
2.677404e+01	-7.358889e+00
2.692868e+01	-7.399251e+00
2.708422e+01	-7.440484e+00
2.724066e+01	-7.481793e+00
2.739800e+01	-7.522588e+00
2.755625e+01	-7.564164e+00
2.771541e+01	-7.605305e+00
2.787550e+01	-7.646695e+00
2.803650e+01	-7.687891e+00
2.819844e+01	-7.729912e+00
2.836131e+01	-7.771377e+00
2.852513e+01	-7.812804e+00
2.868989e+01	-7.854465e+00
2.885560e+01	-7.896687e+00
2.902227e+01	-7.938858e+00
2.918990e+01	-7.980725e+00
2.935850e+01	-8.022429e+00
2.952807e+01	-8.064880e+00
2.969863e+01	-8.107253e+00
2.987016e+01	-8.149465e+00
3.004269e+01	-8.191773e+00
3.021622e+01	-8.234521e+00
3.039075e+01	-8.276750e+00
3.056628e+01	-8.319056e+00
3.074283e+01	-8.362183e+00
3.092040e+01	-8.405091e+00
3.109900e+01	-8.447739e+00
3.127862e+01	-8.490749e+00
3.145929e+01	-8.533577e+00
3.164099e+01	-8.576458e+00
3.182375e+01	-8.619741e+00
3.200756e+01	-8.662713e+00
3.219244e+01	-8.706236e+00
3.237838e+01	-8.749792e+00
3.256540e+01	-8.792687e+00
3.275349e+01	-8.836512e+00
3.294268e+01	-8.880059e+00
3.313295e+01	-8.923849e+00
3.332433e+01	-8.967205e+00
3.351681e+01	-9.010590e+00
3.371040e+01	-9.054874e+00
3.390511e+01	-9.098840e+00
3.410094e+01	-9.142162e+00
3.429791e+01	-9.186164e+00
3.449601e+01	-9.230284e+00
3.469526e+01	-9.274634e+00
3.489566e+01	-9.318515e+00
3.509721e+01	-9.362736e+00
3.529993e+01	-9.406696e+00
3.550382e+01	-9.451602e+00
3.570889e+01	-9.495975e+00
3.591515e+01	-9.540613e+00
3.612259e+01	-9.585106e+00
3.633123e+01	-9.629517e+00
3.654108e+01	-9.673759e+00
3.675214e+01	-9.718366e+00
3.696442e+01	-9.763293e+00
3.717792e+01	-9.807652e+00
3.739266e+01	-9.852788e+00
3.760864e+01	-9.897276e+00
3.782587e+01	-9.942734e+00
3.804435e+01	-9.987762e+00
3.826409e+01	-1.003232e+01
3.848510e+01	-1.007816e+01
3.870739e+01	-1.012217e+01
3.893096e+01	-1.016834e+01
3.915583e+01	-1.021319e+01
3.938199e+01	-1.025868e+01
3.960946e+01	-1.030440e+01
3.983824e+01	-1.034941e+01
4.006834e+01	-1.039543e+01
4.029978e+01	-1.044049e+01
4.053255e+01	-1.048540e+01
4.076666e+01	-1.053121e+01
4.100213e+01	-1.057762e+01
4.123896e+01	-1.062265e+01
4.147715e+01	-1.066847e+01
4.171672e+01	-1.071413e+01
4.195767e+01	-1.075985e+01
4.220002e+01	-1.080611e+01
4.244377e+01	-1.085150e+01
4.268892e+01	-1.089659e+01
4.293549e+01	-1.094425e+01
4.318348e+01	-1.098913e+01
4.343291e+01	-1.103528e+01
4.368377e+01	-1.108183e+01
4.393609e+01	-1.112819e+01
4.418986e+01	-1.117398e+01
4.444510e+01	-1.122006e+01
4.470182e+01	-1.126721e+01
4.496001e+01	-1.131253e+01
4.521970e+01	-1.135901e+01
4.548089e+01	-1.140521e+01
4.574358e+01	-1.145181e+01
4.600779e+01	-1.149875e+01
4.627353e+01	-1.154478e+01
4.654081e+01	-1.159172e+01
4.680963e+01	-1.163821e+01
4.708000e+01	-1.168551e+01
4.735193e+01	-1.173166e+01
4.762543e+01	-1.177827e+01
4.790051e+01	-1.182437e+01
4.817719e+01	-1.187133e+01
4.845545e+01	-1.191875e+01
4.873533e+01	-1.196575e+01
4.901682e+01	-1.201291e+01
4.929994e+01	-1.205865e+01
4.958470e+01	-1.210597e+01
4.987110e+01	-1.215212e+01
5.015915e+01	-1.219974e+01
5.044887e+01	-1.224727e+01
5.074026e+01	-1.229384e+01
5.103333e+01	-1.234046e+01
5.132810e+01	-1.238875e+01
5.162457e+01	-1.243617e+01
5.192275e+01	-1.248312e+01
5.222265e+01	-1.253020e+01
5.252429e+01	-1.257751e+01
5.282767e+01	-1.262426e+01
5.313280e+01	-1.267193e+01
5.343969e+01	-1.271987e+01
5.374836e+01	-1.276687e+01
5.405880e+01	-1.281342e+01
5.437105e+01	-1.286126e+01
5.468509e+01	-1.290914e+01
5.500095e+01	-1.295585e+01
5.531863e+01	-1.300380e+01
5.563815e+01	-1.305046e+01
5.595951e+01	-1.309856e+01
5.628273e+01	-1.314654e+01
5.660782e+01	-1.319374e+01
5.693479e+01	-1.324196e+01
5.726364e+01	-1.328921e+01
5.759439e+01	-1.333594e+01
5.792705e+01	-1.338475e+01
5.826164e+01	-1.343254e+01
5.859815e+01	-1.348092e+01
5.893662e+01	-1.352764e+01
5.927703e+01	-1.357557e+01
5.961941e+01	-1.362312e+01
5.996377e+01	-1.367058e+01
6.031012e+01	-1.372020e+01
6.065847e+01	-1.376728e+01
6.100883e+01	-1.381505e+01
6.136121e+01	-1.386395e+01
6.171563e+01	-1.391095e+01
6.207210e+01	-1.395904e+01
6.243063e+01	-1.400731e+01
6.279122e+01	-1.405564e+01
6.315390e+01	-1.410367e+01
6.351868e+01	-1.415078e+01
6.388556e+01	-1.419931e+01
6.425456e+01	-1.424742e+01
6.462569e+01	-1.429562e+01
6.499897e+01	-1.434411e+01
6.537440e+01	-1.439311e+01
6.575200e+01	-1.444106e+01
6.613178e+01	-1.448820e+01
6.651375e+01	-1.453652e+01
6.689793e+01	-1.458580e+01
6.728433e+01	-1.463391e+01
6.767297e+01	-1.468288e+01
6.806384e+01	-1.473047e+01
6.845698e+01	-1.477892e+01
6.885238e+01	-1.482704e+01
6.925007e+01	-1.487455e+01
6.965005e+01	-1.492350e+01
7.005235e+01	-1.497220e+01
7.045697e+01	-1.502084e+01
7.086393e+01	-1.506958e+01
7.127323e+01	-1.511725e+01
7.168490e+01	-1.516653e+01
7.209895e+01	-1.521317e+01
7.251539e+01	-1.526286e+01
7.293424e+01	-1.531151e+01
7.335551e+01	-1.536079e+01
7.377920e+01	-1.540827e+01
7.420535e+01	-1.545783e+01
7.463396e+01	-1.550568e+01
7.506504e+01	-1.555467e+01
7.549861e+01	-1.560223e+01
7.593469e+01	-1.565225e+01
7.637328e+01	-1.570021e+01
7.681441e+01	-1.575004e+01
7.725809e+01	-1.579778e+01
7.770433e+01	-1.584701e+01
7.815315e+01	-1.589549e+01
7.860456e+01	-1.594450e+01
7.905857e+01	-1.599278e+01
7.951521e+01	-1.604164e+01
7.997449e+01	-1.609047e+01
8.043642e+01	-1.613842e+01
8.090102e+01	-1.618797e+01
8.136830e+01	-1.623655e+01
8.183828e+01	-1.628605e+01
8.231097e+01	-1.633505e+01
8.278640e+01	-1.638349e+01
8.326457e+01	-1.643199e+01
8.374550e+01	-1.648054e+01
8.422921e+01	-1.652996e+01
8.471572e+01	-1.657881e+01
8.520503e+01	-1.662723e+01
8.569717e+01	-1.667774e+01
8.619215e+01	-1.672699e+01
8.669000e+01	-1.677516e+01
8.719071e+01	-1.682403e+01
8.769432e+01	-1.687305e+01
8.820084e+01	-1.692169e+01
8.871029e+01	-1.696941e+01
8.922267e+01	-1.701954e+01
8.973802e+01	-1.706814e+01
9.025634e+01	-1.711853e+01
9.077766e+01	-1.716690e+01
9.130199e+01	-1.721680e+01
9.182935e+01	-1.726528e+01
9.235975e+01	-1.731561e+01
9.289321e+01	-1.736306e+01
9.342976e+01	-1.741226e+01
9.396941e+01	-1.746088e+01
9.451217e+01	-1.751066e+01
9.505807e+01	-1.755945e+01
9.560712e+01	-1.760755e+01
9.615934e+01	-1.765799e+01
9.671476e+01	-1.770853e+01
9.727338e+01	-1.775692e+01
9.783522e+01	-1.780605e+01
9.840032e+01	-1.785487e+01
9.896867e+01	-1.790409e+01
9.954031e+01	-1.795444e+01
1.001153e+02	-1.800349e+01
1.006935e+02	-1.805232e+01
1.012751e+02	-1.810074e+01
1.018601e+02	-1.815027e+01
1.024484e+02	-1.820120e+01
1.030402e+02	-1.825032e+01
1.036353e+02	-1.829819e+01
1.042339e+02	-1.834964e+01
1.048360e+02	-1.839843e+01
1.054415e+02	-1.844499e+01
1.060505e+02	-1.849423e+01
1.066631e+02	-1.854528e+01
1.072791e+02	-1.859515e+01
1.078988e+02	-1.864364e+01
1.085220e+02	-1.869361e+01
1.091488e+02	-1.874269e+01
1.097793e+02	-1.879187e+01
1.104133e+02	-1.884011e+01
1.110511e+02	-1.888915e+01
1.116925e+02	-1.893922e+01
1.123376e+02	-1.898950e+01
1.129865e+02	-1.903842e+01
1.136391e+02	-1.908816e+01
1.142955e+02	-1.913714e+01
1.149556e+02	-1.918693e+01
1.156196e+02	-1.923767e+01
1.162874e+02	-1.928558e+01
1.169591e+02	-1.933448e+01
1.176347e+02	-1.938500e+01
1.183141e+02	-1.943386e+01
1.189975e+02	-1.948311e+01
1.196848e+02	-1.953325e+01
1.203761e+02	-1.958284e+01
1.210714e+02	-1.963106e+01
1.217707e+02	-1.968173e+01
1.224740e+02	-1.973409e+01
1.231814e+02	-1.978158e+01
1.238929e+02	-1.983054e+01
1.246085e+02	-1.987871e+01
1.253283e+02	-1.992969e+01
1.260522e+02	-1.997938e+01
1.267802e+02	-2.002860e+01
1.275125e+02	-2.007955e+01
1.282490e+02	-2.012698e+01
1.289898e+02	-2.017780e+01
1.297348e+02	-2.022556e+01
1.304842e+02	-2.027623e+01
1.312378e+02	-2.032492e+01
1.319959e+02	-2.037451e+01
1.327583e+02	-2.042515e+01
1.335251e+02	-2.047517e+01
1.342963e+02	-2.052399e+01
1.350720e+02	-2.057137e+01
1.358522e+02	-2.062403e+01
1.366368e+02	-2.067263e+01
1.374260e+02	-2.072222e+01
1.382198e+02	-2.077133e+01
1.390182e+02	-2.082198e+01
1.398211e+02	-2.087152e+01
1.406287e+02	-2.091955e+01
1.414410e+02	-2.097039e+01
1.422579e+02	-2.102044e+01
1.430796e+02	-2.106835e+01
1.439060e+02	-2.111992e+01
1.447372e+02	-2.117003e+01
1.455732e+02	-2.121907e+01
1.464141e+02	-2.126694e+01
1.472597e+02	-2.131891e+01
1.481103e+02	-2.136615e+01
1.489658e+02	-2.141945e+01
1.498262e+02	-2.146827e+01
1.506916e+02	-2.151877e+01
1.515620e+02	-2.156494e+01
1.524374e+02	-2.161471e+01
1.533179e+02	-2.166615e+01
1.542034e+02	-2.171578e+01
1.550941e+02	-2.176581e+01
1.559899e+02	-2.181451e+01
1.568909e+02	-2.186509e+01
1.577971e+02	-2.191495e+01
1.587085e+02	-2.196521e+01
1.596252e+02	-2.201588e+01
1.605472e+02	-2.206279e+01
1.614745e+02	-2.211246e+01
1.624072e+02	-2.216437e+01
1.633453e+02	-2.221436e+01
1.642887e+02	-2.226149e+01
1.652377e+02	-2.231385e+01
1.661921e+02	-2.236317e+01
1.671520e+02	-2.241193e+01
1.681175e+02	-2.246175e+01
1.690885e+02	-2.251234e+01
1.700651e+02	-2.256062e+01
1.710474e+02	-2.261132e+01
1.720354e+02	-2.266030e+01
1.730291e+02	-2.271020e+01
1.740285e+02	-2.276064e+01
1.750337e+02	-2.281130e+01
1.760446e+02	-2.285779e+01
1.770615e+02	-2.291087e+01
1.780842e+02	-2.295982e+01
1.791128e+02	-2.301060e+01
1.801473e+02	-2.305892e+01
1.811878e+02	-2.311010e+01
1.822344e+02	-2.316003e+01
1.832870e+02	-2.320639e+01
1.843456e+02	-2.325974e+01
1.854104e+02	-2.331049e+01
1.864813e+02	-2.335671e+01
1.875584e+02	-2.340928e+01
1.886418e+02	-2.345807e+01
1.897313e+02	-2.350897e+01
1.908272e+02	-2.355653e+01
1.919294e+02	-2.360647e+01
1.930380e+02	-2.365647e+01
1.941530e+02	-2.370696e+01
1.952744e+02	-2.375629e+01
1.964023e+02	-2.380669e+01
1.975367e+02	-2.385507e+01
1.986777e+02	-2.390433e+01
1.998252e+02	-2.395823e+01
2.009794e+02	-2.400707e+01
2.021403e+02	-2.405631e+01
2.033078e+02	-2.410476e+01
2.044821e+02	-2.415507e+01
2.056632e+02	-2.420649e+01
2.068511e+02	-2.425432e+01
2.080459e+02	-2.430460e+01
2.092475e+02	-2.435511e+01
2.104561e+02	-2.440691e+01
2.116717e+02	-2.445431e+01
2.128943e+02	-2.450529e+01
2.141240e+02	-2.455242e+01
2.153608e+02	-2.460396e+01
2.166047e+02	-2.465534e+01
2.178558e+02	-2.470434e+01
2.191141e+02	-2.475429e+01
2.203797e+02	-2.480515e+01
2.216526e+02	-2.485240e+01
2.229329e+02	-2.490590e+01
2.242205e+02	-2.495451e+01
2.255156e+02	-2.500398e+01
2.268182e+02	-2.505305e+01
2.281283e+02	-2.510354e+01
2.294459e+02	-2.515245e+01
2.307712e+02	-2.520278e+01
2.321041e+02	-2.525371e+01
2.334447e+02	-2.530115e+01
2.347931e+02	-2.535269e+01
2.361493e+02	-2.540430e+01
2.375133e+02	-2.545229e+01
2.388851e+02	-2.550102e+01
2.402649e+02	-2.555535e+01
2.416527e+02	-2.560494e+01
2.430484e+02	-2.565022e+01
2.444523e+02	-2.570267e+01
2.458642e+02	-2.575399e+01
2.472843e+02	-2.580679e+01
2.487126e+02	-2.585126e+01
2.501492e+02	-2.590044e+01
2.515940e+02	-2.595386e+01
2.530472e+02	-2.600029e+01
2.545088e+02	-2.605054e+01
2.559789e+02	-2.610011e+01
2.574574e+02	-2.615090e+01
2.589444e+02	-2.620395e+01
2.604401e+02	-2.625493e+01
2.619444e+02	-2.630449e+01
2.634574e+02	-2.635136e+01
2.649791e+02	-2.640185e+01
2.665096e+02	-2.644996e+01
2.680489e+02	-2.650049e+01
2.695972e+02	-2.655559e+01
2.711544e+02	-2.660260e+01
2.727205e+02	-2.665218e+01
2.742958e+02	-2.669927e+01
2.758801e+02	-2.675128e+01
2.774736e+02	-2.679912e+01
2.790762e+02	-2.685035e+01
2.806882e+02	-2.690142e+01
2.823094e+02	-2.695267e+01
2.839400e+02	-2.700143e+01
2.855800e+02	-2.705519e+01
2.872295e+02	-2.710577e+01
2.888886e+02	-2.715033e+01
2.905572e+02	-2.720204e+01
2.922354e+02	-2.725312e+01
2.939234e+02	-2.730010e+01
2.956211e+02	-2.735205e+01
2.973286e+02	-2.740323e+01
2.990459e+02	-2.745409e+01
3.007732e+02	-2.750232e+01
3.025104e+02	-2.755362e+01
3.042577e+02	-2.760340e+01
3.060151e+02	-2.765185e+01
3.077826e+02	-2.770087e+01
3.095604e+02	-2.775205e+01
3.113484e+02	-2.780091e+01
3.131467e+02	-2.784831e+01
3.149554e+02	-2.790791e+01
3.167746e+02	-2.795080e+01
3.186043e+02	-2.800380e+01
3.204445e+02	-2.805226e+01
3.222954e+02	-2.810232e+01
3.241570e+02	-2.814765e+01
3.260293e+02	-2.820292e+01
3.279124e+02	-2.825412e+01
3.298064e+02	-2.830233e+01
3.317114e+02	-2.835217e+01
3.336273e+02	-2.840217e+01
3.355544e+02	-2.845066e+01
3.374925e+02	-2.850300e+01
3.394418e+02	-2.855273e+01
3.414024e+02	-2.860110e+01
3.433744e+02	-2.864977e+01
3.453577e+02	-2.870341e+01
3.473525e+02	-2.874935e+01
3.493588e+02	-2.879836e+01
3.513766e+02	-2.885126e+01
3.534062e+02	-2.890316e+01
3.554474e+02	-2.895322e+01
3.575005e+02	-2.900619e+01
3.595654e+02	-2.905351e+01
3.616422e+02	-2.910328e+01
3.637311e+02	-2.915498e+01
3.658320e+02	-2.920069e+01
3.679450e+02	-2.925391e+01
3.700702e+02	-2.930488e+01
3.722077e+02	-2.935548e+01
3.743576e+02	-2.940101e+01
3.765199e+02	-2.945055e+01
3.786946e+02	-2.950305e+01
3.808820e+02	-2.955781e+01
3.830819e+02	-2.960314e+01
3.852946e+02	-2.965240e+01
3.875200e+02	-2.970554e+01
3.897583e+02	-2.975387e+01
3.920096e+02	-2.980112e+01
3.942738e+02	-2.985608e+01
3.965511e+02	-2.990769e+01
3.988416e+02	-2.995513e+01
4.011452e+02	-3.000711e+01
4.034622e+02	-3.005247e+01
4.057926e+02	-3.010718e+01
4.081365e+02	-3.015356e+01
4.104938e+02	-3.020391e+01
4.128648e+02	-3.025217e+01
4.152495e+02	-3.030463e+01
4.176480e+02	-3.035545e+01
4.200603e+02	-3.040526e+01
4.224866e+02	-3.045132e+01
4.249268e+02	-3.050593e+01
4.273812e+02	-3.055308e+01
4.298497e+02	-3.060453e+01
4.323325e+02	-3.065894e+01
4.348297e+02	-3.070568e+01
4.373412e+02	-3.075840e+01
4.398673e+02	-3.080598e+01
4.424079e+02	-3.085731e+01
4.449633e+02	-3.091212e+01
4.475334e+02	-3.095553e+01
4.501183e+02	-3.100473e+01
4.527182e+02	-3.105853e+01
4.553330e+02	-3.110678e+01
4.579630e+02	-3.115241e+01
4.606082e+02	-3.120808e+01
4.632687e+02	-3.126175e+01
4.659445e+02	-3.131043e+01
4.686358e+02	-3.135610e+01
4.713426e+02	-3.141106e+01
4.740650e+02	-3.145981e+01
4.768032e+02	-3.151119e+01
4.795572e+02	-3.155941e+01
4.823271e+02	-3.160390e+01
4.851130e+02	-3.165767e+01
4.879150e+02	-3.171203e+01
4.907332e+02	-3.176148e+01
4.935676e+02	-3.180961e+01
4.964185e+02	-3.185502e+01
4.992858e+02	-3.190710e+01
5.021696e+02	-3.196341e+01
5.050701e+02	-3.200505e+01
5.079874e+02	-3.205862e+01
5.109215e+02	-3.211631e+01
5.138726e+02	-3.215976e+01
5.168407e+02	-3.221022e+01
5.198259e+02	-3.226352e+01
5.228284e+02	-3.231018e+01
5.258482e+02	-3.235845e+01
5.288855e+02	-3.241919e+01
5.319403e+02	-3.245602e+01
5.350128e+02	-3.251412e+01
5.381030e+02	-3.256088e+01
5.412111e+02	-3.261496e+01
5.443371e+02	-3.265887e+01
5.474812e+02	-3.272216e+01
5.506434e+02	-3.276374e+01
5.538239e+02	-3.281140e+01
5.570228e+02	-3.287101e+01
5.602401e+02	-3.290972e+01
5.634760e+02	-3.296611e+01
5.667306e+02	-3.302132e+01
5.700040e+02	-3.306499e+01
5.732964e+02	-3.312365e+01
5.766077e+02	-3.316962e+01
5.799382e+02	-3.321928e+01
5.832879e+02	-3.326292e+01
5.866569e+02	-3.331663e+01
5.900454e+02	-3.336767e+01
5.934535e+02	-3.342801e+01
5.968813e+02	-3.346880e+01
6.003288e+02	-3.352329e+01
6.037963e+02	-3.357612e+01
6.072838e+02	-3.362152e+01
6.107914e+02	-3.366830e+01
6.143194e+02	-3.371922e+01
6.178676e+02	-3.376788e+01
6.214364e+02	-3.382293e+01
6.250258e+02	-3.387174e+01
6.286359e+02	-3.392209e+01
6.322669e+02	-3.397470e+01
6.359189e+02	-3.401885e+01
6.395919e+02	-3.407197e+01
6.432862e+02	-3.413210e+01
6.470017e+02	-3.416853e+01
6.507388e+02	-3.421984e+01
6.544974e+02	-3.427086e+01
6.582778e+02	-3.432776e+01
6.620800e+02	-3.437195e+01
6.659041e+02	-3.443236e+01
6.697504e+02	-3.447489e+01
6.736188e+02	-3.452501e+01
6.775096e+02	-3.457421e+01
6.814229e+02	-3.462786e+01
6.853587e+02	-3.467215e+01
6.893173e+02	-3.472690e+01
6.932988e+02	-3.477785e+01
6.973033e+02	-3.482667e+01
7.013309e+02	-3.487199e+01
