Frequency(Hz)	Magnitude(dB)
1.000000e+01	-2.214926e+00
1.005776e+01	-2.234964e+00
1.011585e+01	-2.255034e+00
1.017428e+01	-2.275460e+00
1.023305e+01	-2.296088e+00
1.029215e+01	-2.316635e+00
1.035160e+01	-2.337381e+00
1.041139e+01	-2.358099e+00
1.047153e+01	-2.379195e+00
1.053201e+01	-2.400489e+00
1.059284e+01	-2.421855e+00
1.065403e+01	-2.443093e+00
1.071556e+01	-2.464927e+00
1.077746e+01	-2.486633e+00
1.083971e+01	-2.508689e+00
1.090232e+01	-2.530435e+00
1.096529e+01	-2.552649e+00
1.102862e+01	-2.574839e+00
1.109232e+01	-2.597330e+00
1.115639e+01	-2.619985e+00
1.122083e+01	-2.642480e+00
1.128564e+01	-2.665581e+00
1.135083e+01	-2.688614e+00
1.141639e+01	-2.711739e+00
1.148233e+01	-2.734756e+00
1.154865e+01	-2.758394e+00
1.161536e+01	-2.782010e+00
1.168245e+01	-2.805763e+00
1.174992e+01	-2.829503e+00
1.181779e+01	-2.853717e+00
1.188605e+01	-2.877790e+00
1.195470e+01	-2.902247e+00
1.202375e+01	-2.926437e+00
1.209320e+01	-2.951385e+00
1.216305e+01	-2.975828e+00
1.223330e+01	-3.000895e+00
1.230396e+01	-3.025994e+00
1.237503e+01	-3.051036e+00
1.244651e+01	-3.076336e+00
1.251840e+01	-3.101867e+00
1.259070e+01	-3.127398e+00
1.266343e+01	-3.153194e+00
1.273657e+01	-3.179018e+00
1.281014e+01	-3.204921e+00
1.288413e+01	-3.231235e+00
1.295855e+01	-3.257609e+00
1.303339e+01	-3.284082e+00
1.310867e+01	-3.310818e+00
1.318439e+01	-3.337406e+00
1.326054e+01	-3.364139e+00
1.333713e+01	-3.391161e+00
1.341417e+01	-3.418269e+00
1.349165e+01	-3.445933e+00
1.356958e+01	-3.473500e+00
1.364795e+01	-3.501104e+00
1.372678e+01	-3.528660e+00
1.380607e+01	-3.556429e+00
1.388581e+01	-3.584766e+00
1.396602e+01	-3.612897e+00
1.404668e+01	-3.641093e+00
1.412782e+01	-3.669748e+00
1.420942e+01	-3.698388e+00
1.429149e+01	-3.727039e+00
1.437404e+01	-3.755791e+00
1.445706e+01	-3.784902e+00
1.454057e+01	-3.813877e+00
1.462455e+01	-3.843396e+00
1.470902e+01	-3.872734e+00
1.479398e+01	-3.902393e+00
1.487943e+01	-3.932312e+00
1.496537e+01	-3.961945e+00
1.505181e+01	-3.991958e+00
1.513875e+01	-4.022083e+00
1.522619e+01	-4.052668e+00
1.531414e+01	-4.082765e+00
1.540259e+01	-4.113431e+00
1.549156e+01	-4.144034e+00
1.558103e+01	-4.174914e+00
1.567103e+01	-4.205892e+00
1.576155e+01	-4.237053e+00
1.585258e+01	-4.268168e+00
1.594415e+01	-4.299785e+00
1.603624e+01	-4.330946e+00
1.612886e+01	-4.362662e+00
1.622202e+01	-4.394682e+00
1.631572e+01	-4.426424e+00
1.640996e+01	-4.458644e+00
1.650474e+01	-4.490764e+00
1.660008e+01	-4.523197e+00
1.669596e+01	-4.555198e+00
1.679239e+01	-4.587918e+00
1.688938e+01	-4.620451e+00
1.698694e+01	-4.653456e+00
1.708505e+01	-4.686256e+00
1.718373e+01	-4.719592e+00
1.728299e+01	-4.752724e+00
1.738281e+01	-4.786102e+00
1.748322e+01	-4.819714e+00
1.758420e+01	-4.853331e+00
1.768576e+01	-4.886524e+00
1.778792e+01	-4.920720e+00
1.789066e+01	-4.954708e+00
1.799399e+01	-4.988922e+00
1.809793e+01	-5.023187e+00
1.820246e+01	-5.057196e+00
1.830760e+01	-5.091582e+00
1.841334e+01	-5.126343e+00
1.851969e+01	-5.160931e+00
1.862666e+01	-5.195970e+00
1.873425e+01	-5.231064e+00
1.884246e+01	-5.266027e+00
1.895129e+01	-5.301003e+00
1.906075e+01	-5.336890e+00
1.917085e+01	-5.372108e+00
1.928158e+01	-5.407528e+00
1.939295e+01	-5.443189e+00
1.950496e+01	-5.479274e+00
1.961762e+01	-5.514837e+00
1.973093e+01	-5.550982e+00
1.984490e+01	-5.587399e+00
1.995952e+01	-5.623219e+00
2.007480e+01	-5.659939e+00
2.019076e+01	-5.695887e+00
2.030738e+01	-5.732984e+00
2.042467e+01	-5.769616e+00
2.054264e+01	-5.806810e+00
2.066130e+01	-5.843212e+00
2.078064e+01	-5.880874e+00
2.090066e+01	-5.917693e+00
2.102139e+01	-5.955095e+00
2.114280e+01	-5.992350e+00
2.126492e+01	-6.029769e+00
2.138775e+01	-6.067542e+00
2.151128e+01	-6.105344e+00
2.163553e+01	-6.142930e+00
2.176050e+01	-6.180870e+00
2.188619e+01	-6.218946e+00
2.201260e+01	-6.257071e+00
2.213974e+01	-6.294917e+00
2.226762e+01	-6.333431e+00
2.239624e+01	-6.371825e+00
2.252560e+01	-6.410409e+00
2.265571e+01	-6.449346e+00
2.278656e+01	-6.488286e+00
2.291818e+01	-6.526614e+00
2.305055e+01	-6.565543e+00
2.318369e+01	-6.604531e+00
2.331760e+01	-6.644025e+00
2.345228e+01	-6.683215e+00
2.358774e+01	-6.722351e+00
2.372398e+01	-6.762199e+00
2.386101e+01	-6.801367e+00
2.399883e+01	-6.841099e+00
2.413745e+01	-6.880920e+00
2.427686e+01	-6.920492e+00
2.441709e+01	-6.960092e+00
2.455812e+01	-7.000756e+00
2.469997e+01	-7.040862e+00
2.484263e+01	-7.080584e+00
2.498612e+01	-7.121177e+00
2.513044e+01	-7.161416e+00
2.527559e+01	-7.201863e+00
2.542158e+01	-7.242558e+00
2.556842e+01	-7.282853e+00
2.571610e+01	-7.323892e+00
2.586463e+01	-7.364589e+00
2.601403e+01	-7.405652e+00
2.616428e+01	-7.446633e+00
2.631541e+01	-7.487549e+00
2.646740e+01	-7.528375e+00
2.662028e+01	-7.569934e+00
2.677404e+01	-7.610931e+00
2.692868e+01	-7.652385e+00
2.708422e+01	-7.694045e+00
2.724066e+01	-7.735376e+00
2.739800e+01	-7.777151e+00
2.755625e+01	-7.819057e+00
2.771541e+01	-7.860801e+00
2.787550e+01	-7.902483e+00
2.803650e+01	-7.944263e+00
2.819844e+01	-7.986699e+00
2.836131e+01	-8.028584e+00
2.852513e+01	-8.070745e+00
2.868989e+01	-8.113366e+00
2.885560e+01	-8.155804e+00
2.902227e+01	-8.197904e+00
2.918990e+01	-8.240291e+00
2.935850e+01	-8.282606e+00
2.952807e+01	-8.325744e+00
2.969863e+01	-8.368338e+00
2.987016e+01	-8.410982e+00
3.004269e+01	-8.453938e+00
3.021622e+01	-8.497177e+00
3.039075e+01	-8.540064e+00
3.056628e+01	-8.583157e+00
3.074283e+01	-8.626221e+00
3.092040e+01	-8.668923e+00
3.109900e+01	-8.712068e+00
3.127862e+01	-8.755934e+00
3.145929e+01	-8.799119e+00
3.164099e+01	-8.842729e+00
3.182375e+01	-8.885997e+00
3.200756e+01	-8.929882e+00
3.219244e+01	-8.973248e+00
3.237838e+01	-9.017011e+00
3.256540e+01	-9.060890e+00
3.275349e+01	-9.104705e+00
3.294268e+01	-9.148814e+00
3.313295e+01	-9.192497e+00
3.332433e+01	-9.236150e+00
3.351681e+01	-9.280981e+00
3.371040e+01	-9.324692e+00
3.390511e+01	-9.368915e+00
3.410094e+01	-9.413777e+00
3.429791e+01	-9.458142e+00
3.449601e+01	-9.501985e+00
3.469526e+01	-9.546826e+00
3.489566e+01	-9.591497e+00
3.509721e+01	-9.635398e+00
3.529993e+01	-9.680590e+00
3.550382e+01	-9.724977e+00
3.570889e+01	-9.768646e+00
3.591515e+01	-9.814633e+00
3.612259e+01	-9.859463e+00
3.633123e+01	-9.904540e+00
3.654108e+01	-9.949359e+00
3.675214e+01	-9.993723e+00
3.696442e+01	-1.003953e+01
3.717792e+01	-1.008432e+01
3.739266e+01	-1.012918e+01
3.760864e+01	-1.017442e+01
3.782587e+01	-1.021964e+01
3.804435e+01	-1.026545e+01
3.826409e+01	-1.031052e+01
3.848510e+01	-1.035587e+01
3.870739e+01	-1.040171e+01
3.893096e+01	-1.044690e+01
3.915583e+01	-1.049221e+01
3.938199e+01	-1.053811e+01
3.960946e+01	-1.058386e+01
3.983824e+01	-1.062859e+01
4.006834e+01	-1.067475e+01
4.029978e+01	-1.072088e+01
4.053255e+01	-1.076676e+01
4.076666e+01	-1.081199e+01
4.100213e+01	-1.085784e+01
4.123896e+01	-1.090431e+01
4.147715e+01	-1.094956e+01
4.171672e+01	-1.099617e+01
4.195767e+01	-1.104175e+01
4.220002e+01	-1.108850e+01
4.244377e+01	-1.113472e+01
4.268892e+01	-1.118123e+01
4.293549e+01	-1.122723e+01
4.318348e+01	-1.127313e+01
4.343291e+01	-1.131958e+01
4.368377e+01	-1.136571e+01
4.393609e+01	-1.141252e+01
4.418986e+01	-1.145870e+01
4.444510e+01	-1.150580e+01
4.470182e+01	-1.155139e+01
4.496001e+01	-1.159785e+01
4.521970e+01	-1.164508e+01
4.548089e+01	-1.169156e+01
4.574358e+01	-1.173821e+01
4.600779e+01	-1.178499e+01
4.627353e+01	-1.183165e+01
4.654081e+01	-1.187782e+01
4.680963e+01	-1.192535e+01
4.708000e+01	-1.197149e+01
4.735193e+01	-1.201875e+01
4.762543e+01	-1.206512e+01
4.790051e+01	-1.211210e+01
4.817719e+01	-1.215959e+01
4.845545e+01	-1.220666e+01
4.873533e+01	-1.225357e+01
4.901682e+01	-1.230000e+01
4.929994e+01	-1.234775e+01
4.958470e+01	-1.239539e+01
4.987110e+01	-1.244241e+01
5.015915e+01	-1.248947e+01
5.044887e+01	-1.253648e+01
5.074026e+01	-1.258350e+01
5.103333e+01	-1.263122e+01
5.132810e+01	-1.267816e+01
5.162457e+01	-1.272553e+01
5.192275e+01	-1.277312e+01
5.222265e+01	-1.282160e+01
5.252429e+01	-1.286807e+01
5.282767e+01	-1.291503e+01
5.313280e+01	-1.296264e+01
5.343969e+01	-1.301042e+01
5.374836e+01	-1.305801e+01
5.405880e+01	-1.310590e+01
5.437105e+01	-1.315269e+01
5.468509e+01	-1.320004e+01
5.500095e+01	-1.324821e+01
5.531863e+01	-1.329545e+01
5.563815e+01	-1.334328e+01
5.595951e+01	-1.339122e+01
5.628273e+01	-1.343901e+01
5.660782e+01	-1.348696e+01
5.693479e+01	-1.353414e+01
5.726364e+01	-1.358257e+01
5.759439e+01	-1.363026e+01
5.792705e+01	-1.367870e+01
5.826164e+01	-1.372655e+01
5.859815e+01	-1.377402e+01
5.893662e+01	-1.382283e+01
5.927703e+01	-1.387002e+01
5.961941e+01	-1.391777e+01
5.996377e+01	-1.396583e+01
6.031012e+01	-1.401407e+01
6.065847e+01	-1.406202e+01
6.100883e+01	-1.411046e+01
6.136121e+01	-1.415775e+01
6.171563e+01	-1.420673e+01
6.207210e+01	-1.425427e+01
6.243063e+01	-1.430287e+01
6.279122e+01	-1.435120e+01
6.315390e+01	-1.439966e+01
6.351868e+01	-1.444677e+01
6.388556e+01	-1.449553e+01
6.425456e+01	-1.454431e+01
6.462569e+01	-1.459237e+01
6.499897e+01	-1.464057e+01
6.537440e+01	-1.468854e+01
6.575200e+01	-1.473666e+01
6.613178e+01	-1.478525e+01
6.651375e+01	-1.483441e+01
6.689793e+01	-1.488167e+01
6.728433e+01	-1.493088e+01
6.767297e+01	-1.497888e+01
6.806384e+01	-1.502701e+01
6.845698e+01	-1.507543e+01
6.885238e+01	-1.512395e+01
6.925007e+01	-1.517296e+01
6.965005e+01	-1.522019e+01
7.005235e+01	-1.526999e+01
7.045697e+01	-1.531827e+01
7.086393e+01	-1.536805e+01
7.127323e+01	-1.541583e+01
7.168490e+01	-1.546418e+01
7.209895e+01	-1.551319e+01
7.251539e+01	-1.556227e+01
7.293424e+01	-1.560988e+01
7.335551e+01	-1.565734e+01
7.377920e+01	-1.570664e+01
7.420535e+01	-1.575652e+01
7.463396e+01	-1.580526e+01
7.506504e+01	-1.585423e+01
7.549861e+01	-1.590234e+01
7.593469e+01	-1.595110e+01
7.637328e+01	-1.599875e+01
7.681441e+01	-1.604857e+01
7.725809e+01	-1.609850e+01
7.770433e+01	-1.614605e+01
7.815315e+01	-1.619530e+01
7.860456e+01	-1.624455e+01
7.905857e+01	-1.629333e+01
7.951521e+01	-1.634118e+01
7.997449e+01	-1.639035e+01
8.043642e+01	-1.643967e+01
8.090102e+01	-1.648767e+01
8.136830e+01	-1.653640e+01
8.183828e+01	-1.658645e+01
8.231097e+01	-1.663446e+01
8.278640e+01	-1.668408e+01
8.326457e+01	-1.673187e+01
8.374550e+01	-1.678193e+01
8.422921e+01	-1.683047e+01
8.471572e+01	-1.687968e+01
8.520503e+01	-1.692921e+01
8.569717e+01	-1.697718e+01
8.619215e+01	-1.702791e+01
8.669000e+01	-1.707634e+01
8.719071e+01	-1.712582e+01
8.769432e+01	-1.717382e+01
8.820084e+01	-1.722206e+01
8.871029e+01	-1.727200e+01
8.922267e+01	-1.732052e+01
8.973802e+01	-1.737130e+01
9.025634e+01	-1.741961e+01
9.077766e+01	-1.746797e+01
9.130199e+01	-1.751813e+01
9.182935e+01	-1.756731e+01
9.235975e+01	-1.761610e+01
9.289321e+01	-1.766590e+01
9.342976e+01	-1.771471e+01
9.396941e+01	-1.776511e+01
9.451217e+01	-1.781359e+01
9.505807e+01	-1.786214e+01
9.560712e+01	-1.791218e+01
9.615934e+01	-1.796156e+01
9.671476e+01	-1.801064e+01
9.727338e+01	-1.805863e+01
9.783522e+01	-1.810941e+01
9.840032e+01	-1.815790e+01
9.896867e+01	-1.820686e+01
9.954031e+01	-1.825669e+01
1.001153e+02	-1.830542e+01
1.006935e+02	-1.835462e+01
1.012751e+02	-1.840413e+01
1.018601e+02	-1.845402e+01
1.024484e+02	-1.850292e+01
1.030402e+02	-1.855305e+01
1.036353e+02	-1.860060e+01
1.042339e+02	-1.865079e+01
1.048360e+02	-1.869961e+01
1.054415e+02	-1.874841e+01
1.060505e+02	-1.879948e+01
1.066631e+02	-1.884819e+01
1.072791e+02	-1.889635e+01
1.078988e+02	-1.894711e+01
1.085220e+02	-1.899548e+01
1.091488e+02	-1.904410e+01
1.097793e+02	-1.909546e+01
1.104133e+02	-1.914612e+01
1.110511e+02	-1.919500e+01
1.116925e+02	-1.924485e+01
1.123376e+02	-1.929404e+01
1.129865e+02	-1.934324e+01
1.136391e+02	-1.939155e+01
1.142955e+02	-1.944139e+01
1.149556e+02	-1.949069e+01
1.156196e+02	-1.954074e+01
1.162874e+02	-1.958911e+01
1.169591e+02	-1.963869e+01
1.176347e+02	-1.968751e+01
1.183141e+02	-1.973752e+01
1.189975e+02	-1.978591e+01
1.196848e+02	-1.983749e+01
1.203761e+02	-1.988628e+01
1.210714e+02	-1.993641e+01
1.217707e+02	-1.998344e+01
1.224740e+02	-2.003614e+01
1.231814e+02	-2.008371e+01
1.238929e+02	-2.013543e+01
1.246085e+02	-2.018334e+01
1.253283e+02	-2.023379e+01
1.260522e+02	-2.028318e+01
1.267802e+02	-2.033162e+01
1.275125e+02	-2.038301e+01
1.282490e+02	-2.043097e+01
1.289898e+02	-2.048216e+01
1.297348e+02	-2.053011e+01
1.304842e+02	-2.058017e+01
1.312378e+02	-2.062962e+01
1.319959e+02	-2.067993e+01
1.327583e+02	-2.073086e+01
1.335251e+02	-2.077893e+01
1.342963e+02	-2.082850e+01
1.350720e+02	-2.087806e+01
1.358522e+02	-2.092797e+01
1.366368e+02	-2.097630e+01
1.374260e+02	-2.102894e+01
1.382198e+02	-2.107647e+01
1.390182e+02	-2.112723e+01
1.398211e+02	-2.117548e+01
1.406287e+02	-2.122611e+01
1.414410e+02	-2.127478e+01
1.422579e+02	-2.132545e+01
1.430796e+02	-2.137488e+01
1.439060e+02	-2.142623e+01
1.447372e+02	-2.147488e+01
1.455732e+02	-2.152361e+01
1.464141e+02	-2.157305e+01
1.472597e+02	-2.162215e+01
1.481103e+02	-2.167388e+01
1.489658e+02	-2.172402e+01
1.498262e+02	-2.177295e+01
1.506916e+02	-2.182292e+01
1.515620e+02	-2.187275e+01
1.524374e+02	-2.192256e+01
1.533179e+02	-2.197140e+01
1.542034e+02	-2.202113e+01
1.550941e+02	-2.206964e+01
1.559899e+02	-2.211925e+01
1.568909e+02	-2.216931e+01
1.577971e+02	-2.221960e+01
1.587085e+02	-2.227072e+01
1.596252e+02	-2.231786e+01
1.605472e+02	-2.236982e+01
1.614745e+02	-2.242061e+01
1.624072e+02	-2.247125e+01
1.633453e+02	-2.251934e+01
1.642887e+02	-2.256906e+01
1.652377e+02	-2.261715e+01
1.661921e+02	-2.266659e+01
1.671520e+02	-2.272072e+01
1.681175e+02	-2.276490e+01
1.690885e+02	-2.281614e+01
1.700651e+02	-2.286549e+01
1.710474e+02	-2.291587e+01
1.720354e+02	-2.296603e+01
1.730291e+02	-2.301685e+01
1.740285e+02	-2.306590e+01
1.750337e+02	-2.311512e+01
1.760446e+02	-2.316652e+01
1.770615e+02	-2.321447e+01
1.780842e+02	-2.326330e+01
1.791128e+02	-2.331569e+01
1.801473e+02	-2.336528e+01
1.811878e+02	-2.341430e+01
1.822344e+02	-2.346442e+01
1.832870e+02	-2.351288e+01
1.843456e+02	-2.356571e+01
1.854104e+02	-2.361613e+01
1.864813e+02	-2.366272e+01
1.875584e+02	-2.371350e+01
1.886418e+02	-2.376230e+01
1.897313e+02	-2.381339e+01
1.908272e+02	-2.386337e+01
1.919294e+02	-2.391260e+01
1.930380e+02	-2.396137e+01
1.941530e+02	-2.401227e+01
1.952744e+02	-2.406306e+01
1.964023e+02	-2.411205e+01
1.975367e+02	-2.416391e+01
1.986777e+02	-2.421127e+01
1.998252e+02	-2.426011e+01
2.009794e+02	-2.431412e+01
2.021403e+02	-2.436260e+01
2.033078e+02	-2.441179e+01
2.044821e+02	-2.446047e+01
2.056632e+02	-2.451395e+01
2.068511e+02	-2.456454e+01
2.080459e+02	-2.460982e+01
2.092475e+02	-2.465960e+01
2.104561e+02	-2.471133e+01
2.116717e+02	-2.476170e+01
2.128943e+02	-2.480978e+01
2.141240e+02	-2.486252e+01
2.153608e+02	-2.490932e+01
2.166047e+02	-2.496275e+01
2.178558e+02	-2.501281e+01
2.191141e+02	-2.505964e+01
2.203797e+02	-2.511190e+01
2.216526e+02	-2.515996e+01
2.229329e+02	-2.521361e+01
2.242205e+02	-2.526042e+01
2.255156e+02	-2.531207e+01
2.268182e+02	-2.535838e+01
2.281283e+02	-2.540904e+01
2.294459e+02	-2.545805e+01
2.307712e+02	-2.551077e+01
2.321041e+02	-2.555889e+01
2.334447e+02	-2.560977e+01
2.347931e+02	-2.566035e+01
2.361493e+02	-2.570899e+01
2.375133e+02	-2.575926e+01
2.388851e+02	-2.580680e+01
2.402649e+02	-2.585949e+01
2.416527e+02	-2.591033e+01
2.430484e+02	-2.595782e+01
2.444523e+02	-2.601055e+01
2.458642e+02	-2.606012e+01
2.472843e+02	-2.611070e+01
2.487126e+02	-2.615994e+01
2.501492e+02	-2.620653e+01
2.515940e+02	-2.626077e+01
2.530472e+02	-2.631113e+01
2.545088e+02	-2.636249e+01
2.559789e+02	-2.640702e+01
2.574574e+02	-2.646024e+01
2.589444e+02	-2.651006e+01
2.604401e+02	-2.656036e+01
2.619444e+02	-2.661220e+01
2.634574e+02	-2.665940e+01
2.649791e+02	-2.670659e+01
2.665096e+02	-2.675820e+01
2.680489e+02	-2.680695e+01
2.695972e+02	-2.685855e+01
2.711544e+02	-2.690814e+01
2.727205e+02	-2.696016e+01
2.742958e+02	-2.700714e+01
2.758801e+02	-2.705905e+01
2.774736e+02	-2.710779e+01
2.790762e+02	-2.715853e+01
2.806882e+02	-2.721143e+01
2.823094e+02	-2.725674e+01
2.839400e+02	-2.730886e+01
2.855800e+02	-2.735804e+01
2.872295e+02	-2.740911e+01
2.888886e+02	-2.745907e+01
2.905572e+02	-2.750843e+01
2.922354e+02	-2.755823e+01
2.939234e+02	-2.760579e+01
2.956211e+02	-2.766036e+01
2.973286e+02	-2.770742e+01
2.990459e+02	-2.776017e+01
3.007732e+02	-2.780714e+01
3.025104e+02	-2.785795e+01
3.042577e+02	-2.790938e+01
3.060151e+02	-2.796255e+01
3.077826e+02	-2.800703e+01
3.095604e+02	-2.805992e+01
3.113484e+02	-2.811066e+01
3.131467e+02	-2.815687e+01
3.149554e+02	-2.820594e+01
3.167746e+02	-2.825702e+01
3.186043e+02	-2.830555e+01
3.204445e+02	-2.835885e+01
3.222954e+02	-2.840576e+01
3.241570e+02	-2.846265e+01
3.260293e+02	-2.851454e+01
3.279124e+02	-2.856156e+01
3.298064e+02	-2.860887e+01
3.317114e+02	-2.865670e+01
3.336273e+02	-2.870693e+01
3.355544e+02	-2.875505e+01
3.374925e+02	-2.881085e+01
3.394418e+02	-2.885930e+01
3.414024e+02	-2.891153e+01
3.433744e+02	-2.896234e+01
3.453577e+02	-2.901477e+01
3.473525e+02	-2.906523e+01
3.493588e+02	-2.910691e+01
3.513766e+02	-2.916247e+01
3.534062e+02	-2.921288e+01
3.554474e+02	-2.926277e+01
3.575005e+02	-2.931200e+01
3.595654e+02	-2.936062e+01
3.616422e+02	-2.941307e+01
3.637311e+02	-2.946601e+01
3.658320e+02	-2.950914e+01
3.679450e+02	-2.956357e+01
3.700702e+02	-2.960774e+01
3.722077e+02	-2.966012e+01
3.743576e+02	-2.971457e+01
3.765199e+02	-2.976084e+01
3.786946e+02	-2.981272e+01
3.808820e+02	-2.986260e+01
3.830819e+02	-2.991694e+01
3.852946e+02	-2.996355e+01
3.875200e+02	-3.001089e+01
3.897583e+02	-3.006054e+01
3.920096e+02	-3.011196e+01
3.942738e+02	-3.016347e+01
3.965511e+02	-3.020790e+01
3.988416e+02	-3.025893e+01
4.011452e+02	-3.031486e+01
4.034622e+02	-3.036055e+01
4.057926e+02	-3.041579e+01
4.081365e+02	-3.045983e+01
4.104938e+02	-3.051511e+01
4.128648e+02	-3.056015e+01
4.152495e+02	-3.061333e+01
4.176480e+02	-3.066438e+01
4.200603e+02	-3.071380e+01
4.224866e+02	-3.076588e+01
4.249268e+02	-3.081090e+01
4.273812e+02	-3.086655e+01
4.298497e+02	-3.090980e+01
4.323325e+02	-3.096310e+01
4.348297e+02	-3.101644e+01
4.373412e+02	-3.106383e+01
4.398673e+02	-3.111366e+01
4.424079e+02	-3.116523e+01
4.449633e+02	-3.121624e+01
4.475334e+02	-3.126422e+01
4.501183e+02	-3.131663e+01
4.527182e+02	-3.136387e+01
4.553330e+02	-3.141735e+01
4.579630e+02	-3.146760e+01
4.606082e+02	-3.151686e+01
4.632687e+02	-3.156127e+01
4.659445e+02	-3.161885e+01
4.686358e+02	-3.166656e+01
4.713426e+02	-3.171572e+01
4.740650e+02	-3.176213e+01
4.768032e+02	-3.181258e+01
4.795572e+02	-3.186437e+01
4.823271e+02	-3.192002e+01
4.851130e+02	-3.196699e+01
4.879150e+02	-3.202087e+01
4.907332e+02	-3.206763e+01
4.935676e+02	-3.211587e+01
4.964185e+02	-3.217141e+01
4.992858e+02	-3.221833e+01
5.021696e+02	-3.227091e+01
5.050701e+02	-3.231864e+01
5.079874e+02	-3.236772e+01
5.109215e+02	-3.241591e+01
5.138726e+02	-3.246385e+01
5.168407e+02	-3.251794e+01
5.198259e+02	-3.256740e+01
5.228284e+02	-3.261498e+01
5.258482e+02	-3.266533e+01
5.288855e+02	-3.272133e+01
5.319403e+02	-3.276609e+01
5.350128e+02	-3.282185e+01
5.381030e+02	-3.286843e+01
5.412111e+02	-3.291999e+01
5.443371e+02	-3.297004e+01
5.474812e+02	-3.302618e+01
5.506434e+02	-3.307585e+01
5.538239e+02	-3.312005e+01
5.570228e+02	-3.317262e+01
5.602401e+02	-3.321130e+01
5.634760e+02	-3.327872e+01
5.667306e+02	-3.331588e+01
5.700040e+02	-3.336921e+01
5.732964e+02	-3.341932e+01
5.766077e+02	-3.348086e+01
5.799382e+02	-3.353050e+01
5.832879e+02	-3.357730e+01
5.866569e+02	-3.361823e+01
5.900454e+02	-3.367339e+01
5.934535e+02	-3.372301e+01
5.968813e+02	-3.377761e+01
6.003288e+02	-3.383331e+01
6.037963e+02	-3.388651e+01
6.072838e+02	-3.392756e+01
6.107914e+02	-3.397835e+01
6.143194e+02	-3.402910e+01
6.178676e+02	-3.407593e+01
6.214364e+02	-3.413403e+01
6.250258e+02	-3.417773e+01
6.286359e+02	-3.421643e+01
6.322669e+02	-3.428691e+01
6.359189e+02	-3.432722e+01
6.395919e+02	-3.437754e+01
6.432862e+02	-3.442608e+01
6.470017e+02	-3.449019e+01
6.507388e+02	-3.453103e+01
6.544974e+02	-3.458348e+01
6.582778e+02	-3.463829e+01
6.620800e+02	-3.468149e+01
6.659041e+02	-3.473303e+01
6.697504e+02	-3.478678e+01
6.736188e+02	-3.483391e+01
6.775096e+02	-3.488233e+01
6.814229e+02	-3.493595e+01
6.853587e+02	-3.498431e+01
6.893173e+02	-3.503652e+01
6.932988e+02	-3.508780e+01
6.973033e+02	-3.513408e+01
7.013309e+02	-3.519172e+01
