Frequency(Hz)	Magnitude(dB)
1.000000e+01	-1.612281e-05
1.005776e+01	-1.630960e-05
1.011585e+01	-1.649855e-05
1.017428e+01	-1.668969e-05
1.023305e+01	-1.688305e-05
1.029215e+01	-1.707864e-05
1.035160e+01	-1.727650e-05
1.041139e+01	-1.747665e-05
1.047153e+01	-1.767912e-05
1.053201e+01	-1.788394e-05
1.059284e+01	-1.809113e-05
1.065403e+01	-1.830072e-05
1.071556e+01	-1.851274e-05
1.077746e+01	-1.872722e-05
1.083971e+01	-1.894417e-05
1.090232e+01	-1.916365e-05
1.096529e+01	-1.938566e-05
1.102862e+01	-1.961025e-05
1.109232e+01	-1.983744e-05
1.115639e+01	-2.006726e-05
1.122083e+01	-2.029975e-05
1.128564e+01	-2.053492e-05
1.135083e+01	-2.077283e-05
1.141639e+01	-2.101349e-05
1.148233e+01	-2.125693e-05
1.154865e+01	-2.150320e-05
1.161536e+01	-2.175232e-05
1.168245e+01	-2.200432e-05
1.174992e+01	-2.225925e-05
1.181779e+01	-2.251713e-05
1.188605e+01	-2.277800e-05
1.195470e+01	-2.304188e-05
1.202375e+01	-2.330883e-05
1.209320e+01	-2.357887e-05
1.216305e+01	-2.385204e-05
1.223330e+01	-2.412837e-05
1.230396e+01	-2.440790e-05
1.237503e+01	-2.469067e-05
1.244651e+01	-2.497672e-05
1.251840e+01	-2.526608e-05
1.259070e+01	-2.555880e-05
1.266343e+01	-2.585490e-05
1.273657e+01	-2.615444e-05
1.281014e+01	-2.645744e-05
1.288413e+01	-2.676396e-05
1.295855e+01	-2.707402e-05
1.303339e+01	-2.738768e-05
1.310867e+01	-2.770498e-05
1.318439e+01	-2.802595e-05
1.326054e+01	-2.835063e-05
1.333713e+01	-2.867908e-05
1.341417e+01	-2.901134e-05
1.349165e+01	-2.934744e-05
1.356958e+01	-2.968744e-05
1.364795e+01	-3.003137e-05
1.372678e+01	-3.037929e-05
1.380607e+01	-3.073124e-05
1.388581e+01	-3.108727e-05
1.396602e+01	-3.144743e-05
1.404668e+01	-3.181175e-05
1.412782e+01	-3.218030e-05
1.420942e+01	-3.255312e-05
1.429149e+01	-3.293025e-05
1.437404e+01	-3.331176e-05
1.445706e+01	-3.369768e-05
1.454057e+01	-3.408808e-05
1.462455e+01	-3.448299e-05
1.470902e+01	-3.488249e-05
1.479398e+01	-3.528661e-05
1.487943e+01	-3.569541e-05
1.496537e+01	-3.610895e-05
1.505181e+01	-3.652728e-05
1.513875e+01	-3.695046e-05
1.522619e+01	-3.737854e-05
1.531414e+01	-3.781158e-05
1.540259e+01	-3.824963e-05
1.549156e+01	-3.869277e-05
1.558103e+01	-3.914103e-05
1.567103e+01	-3.959449e-05
1.576155e+01	-4.005320e-05
1.585258e+01	-4.051722e-05
1.594415e+01	-4.098663e-05
1.603624e+01	-4.146146e-05
1.612886e+01	-4.194181e-05
1.622202e+01	-4.242771e-05
1.631572e+01	-4.291924e-05
1.640996e+01	-4.341647e-05
1.650474e+01	-4.391946e-05
1.660008e+01	-4.442828e-05
1.669596e+01	-4.494299e-05
1.679239e+01	-4.546367e-05
1.688938e+01	-4.599037e-05
1.698694e+01	-4.652318e-05
1.708505e+01	-4.706216e-05
1.718373e+01	-4.760739e-05
1.728299e+01	-4.815893e-05
1.738281e+01	-4.871686e-05
1.748322e+01	-4.928126e-05
1.758420e+01	-4.985219e-05
1.768576e+01	-5.042974e-05
1.778792e+01	-5.101398e-05
1.789066e+01	-5.160498e-05
1.799399e+01	-5.220284e-05
1.809793e+01	-5.280762e-05
1.820246e+01	-5.341941e-05
1.830760e+01	-5.403828e-05
1.841334e+01	-5.466433e-05
1.851969e+01	-5.529762e-05
1.862666e+01	-5.593826e-05
1.873425e+01	-5.658632e-05
1.884246e+01	-5.724188e-05
1.895129e+01	-5.790504e-05
1.906075e+01	-5.857588e-05
1.917085e+01	-5.925449e-05
1.928158e+01	-5.994097e-05
1.939295e+01	-6.063540e-05
1.950496e+01	-6.133787e-05
1.961762e+01	-6.204848e-05
1.973093e+01	-6.276732e-05
1.984490e+01	-6.349450e-05
1.995952e+01	-6.423009e-05
2.007480e+01	-6.497421e-05
2.019076e+01	-6.572695e-05
2.030738e+01	-6.648841e-05
2.042467e+01	-6.725869e-05
2.054264e+01	-6.803789e-05
2.066130e+01	-6.882613e-05
2.078064e+01	-6.962349e-05
2.090066e+01	-7.043009e-05
2.102139e+01	-7.124604e-05
2.114280e+01	-7.207143e-05
2.126492e+01	-7.290639e-05
2.138775e+01	-7.375103e-05
2.151128e+01	-7.460545e-05
2.163553e+01	-7.546976e-05
2.176050e+01	-7.634410e-05
2.188619e+01	-7.722856e-05
2.201260e+01	-7.812326e-05
2.213974e+01	-7.902833e-05
2.226762e+01	-7.994389e-05
2.239624e+01	-8.087005e-05
2.252560e+01	-8.180695e-05
2.265571e+01	-8.275469e-05
2.278656e+01	-8.371342e-05
2.291818e+01	-8.468326e-05
2.305055e+01	-8.566433e-05
2.318369e+01	-8.665676e-05
2.331760e+01	-8.766069e-05
2.345228e+01	-8.867626e-05
2.358774e+01	-8.970358e-05
2.372398e+01	-9.074282e-05
2.386101e+01	-9.179409e-05
2.399883e+01	-9.285753e-05
2.413745e+01	-9.393330e-05
2.427686e+01	-9.502153e-05
2.441709e+01	-9.612237e-05
2.455812e+01	-9.723597e-05
2.469997e+01	-9.836246e-05
2.484263e+01	-9.950200e-05
2.498612e+01	-1.006547e-04
2.513044e+01	-1.018208e-04
2.527559e+01	-1.030005e-04
2.542158e+01	-1.041937e-04
2.556842e+01	-1.054008e-04
2.571610e+01	-1.066219e-04
2.586463e+01	-1.078571e-04
2.601403e+01	-1.091067e-04
2.616428e+01	-1.103707e-04
2.631541e+01	-1.116494e-04
2.646740e+01	-1.129428e-04
2.662028e+01	-1.142513e-04
2.677404e+01	-1.155749e-04
2.692868e+01	-1.169138e-04
2.708422e+01	-1.182683e-04
2.724066e+01	-1.196385e-04
2.739800e+01	-1.210245e-04
2.755625e+01	-1.224266e-04
2.771541e+01	-1.238449e-04
2.787550e+01	-1.252797e-04
2.803650e+01	-1.267310e-04
2.819844e+01	-1.281992e-04
2.836131e+01	-1.296844e-04
2.852513e+01	-1.311868e-04
2.868989e+01	-1.327066e-04
2.885560e+01	-1.342441e-04
2.902227e+01	-1.357993e-04
2.918990e+01	-1.373725e-04
2.935850e+01	-1.389640e-04
2.952807e+01	-1.405739e-04
2.969863e+01	-1.422025e-04
2.987016e+01	-1.438499e-04
3.004269e+01	-1.455164e-04
3.021622e+01	-1.472023e-04
3.039075e+01	-1.489076e-04
3.056628e+01	-1.506327e-04
3.074283e+01	-1.523778e-04
3.092040e+01	-1.541431e-04
3.109900e+01	-1.559289e-04
3.127862e+01	-1.577353e-04
3.145929e+01	-1.595627e-04
3.164099e+01	-1.614112e-04
3.182375e+01	-1.632812e-04
3.200756e+01	-1.651728e-04
3.219244e+01	-1.670864e-04
3.237838e+01	-1.690221e-04
3.256540e+01	-1.709802e-04
3.275349e+01	-1.729610e-04
3.294268e+01	-1.749648e-04
3.313295e+01	-1.769917e-04
3.332433e+01	-1.790422e-04
3.351681e+01	-1.811164e-04
3.371040e+01	-1.832146e-04
3.390511e+01	-1.853372e-04
3.410094e+01	-1.874843e-04
3.429791e+01	-1.896563e-04
3.449601e+01	-1.918535e-04
3.469526e+01	-1.940761e-04
3.489566e+01	-1.963245e-04
3.509721e+01	-1.985989e-04
3.529993e+01	-2.008997e-04
3.550382e+01	-2.032271e-04
3.570889e+01	-2.055815e-04
3.591515e+01	-2.079632e-04
3.612259e+01	-2.103724e-04
3.633123e+01	-2.128096e-04
3.654108e+01	-2.152750e-04
3.675214e+01	-2.177689e-04
3.696442e+01	-2.202918e-04
3.717792e+01	-2.228439e-04
3.739266e+01	-2.254255e-04
3.760864e+01	-2.280371e-04
3.782587e+01	-2.306789e-04
3.804435e+01	-2.333513e-04
3.826409e+01	-2.360546e-04
3.848510e+01	-2.387893e-04
3.870739e+01	-2.415557e-04
3.893096e+01	-2.443541e-04
3.915583e+01	-2.471849e-04
3.938199e+01	-2.500486e-04
3.960946e+01	-2.529454e-04
3.983824e+01	-2.558757e-04
4.006834e+01	-2.588400e-04
4.029978e+01	-2.618387e-04
4.053255e+01	-2.648720e-04
4.076666e+01	-2.679406e-04
4.100213e+01	-2.710446e-04
4.123896e+01	-2.741847e-04
4.147715e+01	-2.773611e-04
4.171672e+01	-2.805743e-04
4.195767e+01	-2.838247e-04
4.220002e+01	-2.871128e-04
4.244377e+01	-2.904389e-04
4.268892e+01	-2.938036e-04
4.293549e+01	-2.972073e-04
4.318348e+01	-3.006504e-04
4.343291e+01	-3.041334e-04
4.368377e+01	-3.076568e-04
4.393609e+01	-3.112209e-04
4.418986e+01	-3.148264e-04
4.444510e+01	-3.184736e-04
4.470182e+01	-3.221631e-04
4.496001e+01	-3.258953e-04
4.521970e+01	-3.296707e-04
4.548089e+01	-3.334899e-04
4.574358e+01	-3.373533e-04
4.600779e+01	-3.412615e-04
4.627353e+01	-3.452149e-04
4.654081e+01	-3.492142e-04
4.680963e+01	-3.532598e-04
4.708000e+01	-3.573522e-04
4.735193e+01	-3.614921e-04
4.762543e+01	-3.656799e-04
4.790051e+01	-3.699162e-04
4.817719e+01	-3.742016e-04
4.845545e+01	-3.785366e-04
4.873533e+01	-3.829219e-04
4.901682e+01	-3.873580e-04
4.929994e+01	-3.918454e-04
4.958470e+01	-3.963848e-04
4.987110e+01	-4.009769e-04
5.015915e+01	-4.056221e-04
5.044887e+01	-4.103211e-04
5.074026e+01	-4.150745e-04
5.103333e+01	-4.198831e-04
5.132810e+01	-4.247473e-04
5.162457e+01	-4.296679e-04
5.192275e+01	-4.346454e-04
5.222265e+01	-4.396807e-04
5.252429e+01	-4.447742e-04
5.282767e+01	-4.499268e-04
5.313280e+01	-4.551390e-04
5.343969e+01	-4.604117e-04
5.374836e+01	-4.657454e-04
5.405880e+01	-4.711409e-04
5.437105e+01	-4.765989e-04
5.468509e+01	-4.821201e-04
5.500095e+01	-4.877053e-04
5.531863e+01	-4.933552e-04
5.563815e+01	-4.990705e-04
5.595951e+01	-5.048520e-04
5.628273e+01	-5.107005e-04
5.660782e+01	-5.166168e-04
5.693479e+01	-5.226016e-04
5.726364e+01	-5.286557e-04
5.759439e+01	-5.347799e-04
5.792705e+01	-5.409751e-04
5.826164e+01	-5.472421e-04
5.859815e+01	-5.535816e-04
5.893662e+01	-5.599946e-04
5.927703e+01	-5.664819e-04
5.961941e+01	-5.730443e-04
5.996377e+01	-5.796827e-04
6.031012e+01	-5.863981e-04
6.065847e+01	-5.931912e-04
6.100883e+01	-6.000630e-04
6.136121e+01	-6.070144e-04
6.171563e+01	-6.140463e-04
6.207210e+01	-6.211597e-04
6.243063e+01	-6.283555e-04
6.279122e+01	-6.356346e-04
6.315390e+01	-6.429981e-04
6.351868e+01	-6.504468e-04
6.388556e+01	-6.579819e-04
6.425456e+01	-6.656042e-04
6.462569e+01	-6.733148e-04
6.499897e+01	-6.811147e-04
6.537440e+01	-6.890050e-04
6.575200e+01	-6.969867e-04
6.613178e+01	-7.050608e-04
6.651375e+01	-7.132285e-04
6.689793e+01	-7.214907e-04
6.728433e+01	-7.298487e-04
6.767297e+01	-7.383035e-04
6.806384e+01	-7.468562e-04
6.845698e+01	-7.555080e-04
6.885238e+01	-7.642600e-04
6.925007e+01	-7.731133e-04
6.965005e+01	-7.820693e-04
7.005235e+01	-7.911289e-04
7.045697e+01	-8.002935e-04
7.086393e+01	-8.095643e-04
7.127323e+01	-8.189424e-04
7.168490e+01	-8.284292e-04
7.209895e+01	-8.380258e-04
7.251539e+01	-8.477336e-04
7.293424e+01	-8.575539e-04
7.335551e+01	-8.674879e-04
7.377920e+01	-8.775370e-04
7.420535e+01	-8.877024e-04
7.463396e+01	-8.979856e-04
7.506504e+01	-9.083880e-04
7.549861e+01	-9.189108e-04
7.593469e+01	-9.295555e-04
7.637328e+01	-9.403235e-04
7.681441e+01	-9.512162e-04
7.725809e+01	-9.622350e-04
7.770433e+01	-9.733816e-04
7.815315e+01	-9.846572e-04
7.860456e+01	-9.960634e-04
7.905857e+01	-1.007602e-03
7.951521e+01	-1.019274e-03
7.997449e+01	-1.031081e-03
8.043642e+01	-1.043025e-03
8.090102e+01	-1.055107e-03
8.136830e+01	-1.067329e-03
8.183828e+01	-1.079693e-03
8.231097e+01	-1.092200e-03
8.278640e+01	-1.104852e-03
8.326457e+01	-1.117650e-03
8.374550e+01	-1.130597e-03
8.422921e+01	-1.143693e-03
8.471572e+01	-1.156941e-03
8.520503e+01	-1.170343e-03
8.569717e+01	-1.183900e-03
8.619215e+01	-1.197614e-03
8.669000e+01	-1.211487e-03
8.719071e+01	-1.225520e-03
8.769432e+01	-1.239716e-03
8.820084e+01	-1.254076e-03
8.871029e+01	-1.268603e-03
8.922267e+01	-1.283298e-03
8.973802e+01	-1.298163e-03
9.025634e+01	-1.313201e-03
9.077766e+01	-1.328412e-03
9.130199e+01	-1.343800e-03
9.182935e+01	-1.359365e-03
9.235975e+01	-1.375112e-03
9.289321e+01	-1.391040e-03
9.342976e+01	-1.407153e-03
9.396941e+01	-1.423453e-03
9.451217e+01	-1.439941e-03
9.505807e+01	-1.456620e-03
9.560712e+01	-1.473493e-03
9.615934e+01	-1.490561e-03
9.671476e+01	-1.507826e-03
9.727338e+01	-1.525292e-03
9.783522e+01	-1.542959e-03
9.840032e+01	-1.560832e-03
9.896867e+01	-1.578911e-03
9.954031e+01	-1.597200e-03
1.001153e+02	-1.615701e-03
1.006935e+02	-1.634415e-03
1.012751e+02	-1.653347e-03
1.018601e+02	-1.672498e-03
1.024484e+02	-1.691870e-03
1.030402e+02	-1.711467e-03
1.036353e+02	-1.731291e-03
1.042339e+02	-1.751344e-03
1.048360e+02	-1.771630e-03
1.054415e+02	-1.792151e-03
1.060505e+02	-1.812909e-03
1.066631e+02	-1.833907e-03
1.072791e+02	-1.855149e-03
1.078988e+02	-1.876637e-03
1.085220e+02	-1.898373e-03
1.091488e+02	-1.920362e-03
1.097793e+02	-1.942605e-03
1.104133e+02	-1.965105e-03
1.110511e+02	-1.987866e-03
1.116925e+02	-2.010891e-03
1.123376e+02	-2.034182e-03
1.129865e+02	-2.057743e-03
1.136391e+02	-2.081577e-03
1.142955e+02	-2.105687e-03
1.149556e+02	-2.130076e-03
1.156196e+02	-2.154747e-03
1.162874e+02	-2.179704e-03
1.169591e+02	-2.204950e-03
1.176347e+02	-2.230488e-03
1.183141e+02	-2.256322e-03
1.189975e+02	-2.282456e-03
1.196848e+02	-2.308892e-03
1.203761e+02	-2.335633e-03
1.210714e+02	-2.362685e-03
1.217707e+02	-2.390050e-03
1.224740e+02	-2.417731e-03
1.231814e+02	-2.445734e-03
1.238929e+02	-2.474060e-03
1.246085e+02	-2.502714e-03
1.253283e+02	-2.531701e-03
1.260522e+02	-2.561022e-03
1.267802e+02	-2.590684e-03
1.275125e+02	-2.620688e-03
1.282490e+02	-2.651040e-03
1.289898e+02	-2.681744e-03
1.297348e+02	-2.712803e-03
1.304842e+02	-2.744221e-03
1.312378e+02	-2.776004e-03
1.319959e+02	-2.808154e-03
1.327583e+02	-2.840677e-03
1.335251e+02	-2.873576e-03
1.342963e+02	-2.906856e-03
1.350720e+02	-2.940521e-03
1.358522e+02	-2.974576e-03
1.366368e+02	-3.009025e-03
1.374260e+02	-3.043873e-03
1.382198e+02	-3.079125e-03
1.390182e+02	-3.114785e-03
1.398211e+02	-3.150857e-03
1.406287e+02	-3.187347e-03
1.414410e+02	-3.224260e-03
1.422579e+02	-3.261600e-03
1.430796e+02	-3.299372e-03
1.439060e+02	-3.337581e-03
1.447372e+02	-3.376233e-03
1.455732e+02	-3.415332e-03
1.464141e+02	-3.454884e-03
1.472597e+02	-3.494893e-03
1.481103e+02	-3.535366e-03
1.489658e+02	-3.576307e-03
1.498262e+02	-3.617722e-03
1.506916e+02	-3.659617e-03
1.515620e+02	-3.701997e-03
1.524374e+02	-3.744867e-03
1.533179e+02	-3.788233e-03
1.542034e+02	-3.832101e-03
1.550941e+02	-3.876477e-03
1.559899e+02	-3.921367e-03
1.568909e+02	-3.966776e-03
1.577971e+02	-4.012711e-03
1.587085e+02	-4.059178e-03
1.596252e+02	-4.106182e-03
1.605472e+02	-4.153730e-03
1.614745e+02	-4.201829e-03
1.624072e+02	-4.250484e-03
1.633453e+02	-4.299703e-03
1.642887e+02	-4.349491e-03
1.652377e+02	-4.399856e-03
1.661921e+02	-4.450803e-03
1.671520e+02	-4.502340e-03
1.681175e+02	-4.554473e-03
1.690885e+02	-4.607210e-03
1.700651e+02	-4.660557e-03
1.710474e+02	-4.714521e-03
1.720354e+02	-4.769110e-03
1.730291e+02	-4.824331e-03
1.740285e+02	-4.880190e-03
1.750337e+02	-4.936697e-03
1.760446e+02	-4.993856e-03
1.770615e+02	-5.051678e-03
1.780842e+02	-5.110168e-03
1.791128e+02	-5.169336e-03
1.801473e+02	-5.229188e-03
1.811878e+02	-5.289732e-03
1.822344e+02	-5.350977e-03
1.832870e+02	-5.412931e-03
1.843456e+02	-5.475601e-03
1.854104e+02	-5.538997e-03
1.864813e+02	-5.603126e-03
1.875584e+02	-5.667998e-03
1.886418e+02	-5.733619e-03
1.897313e+02	-5.800000e-03
1.908272e+02	-5.867149e-03
1.919294e+02	-5.935075e-03
1.930380e+02	-6.003787e-03
1.941530e+02	-6.073294e-03
1.952744e+02	-6.143604e-03
1.964023e+02	-6.214728e-03
1.975367e+02	-6.286675e-03
1.986777e+02	-6.359455e-03
1.998252e+02	-6.433076e-03
2.009794e+02	-6.507549e-03
2.021403e+02	-6.582883e-03
2.033078e+02	-6.659089e-03
2.044821e+02	-6.736176e-03
2.056632e+02	-6.814155e-03
2.068511e+02	-6.893036e-03
2.080459e+02	-6.972829e-03
2.092475e+02	-7.053546e-03
2.104561e+02	-7.135195e-03
2.116717e+02	-7.217790e-03
2.128943e+02	-7.301339e-03
2.141240e+02	-7.385855e-03
2.153608e+02	-7.471348e-03
2.166047e+02	-7.557830e-03
2.178558e+02	-7.645312e-03
2.191141e+02	-7.733806e-03
2.203797e+02	-7.823323e-03
2.216526e+02	-7.913875e-03
2.229329e+02	-8.005475e-03
2.242205e+02	-8.098134e-03
2.255156e+02	-8.191864e-03
2.268182e+02	-8.286678e-03
2.281283e+02	-8.382588e-03
2.294459e+02	-8.479607e-03
2.307712e+02	-8.577749e-03
2.321041e+02	-8.677024e-03
2.334447e+02	-8.777448e-03
2.347931e+02	-8.879033e-03
2.361493e+02	-8.981792e-03
2.375133e+02	-9.085739e-03
2.388851e+02	-9.190888e-03
2.402649e+02	-9.297252e-03
2.416527e+02	-9.404846e-03
2.430484e+02	-9.513684e-03
2.444523e+02	-9.623780e-03
2.458642e+02	-9.735149e-03
2.472843e+02	-9.847805e-03
2.487126e+02	-9.961763e-03
2.501492e+02	-1.007704e-02
2.515940e+02	-1.019365e-02
2.530472e+02	-1.031160e-02
2.545088e+02	-1.043092e-02
2.559789e+02	-1.055162e-02
2.574574e+02	-1.067371e-02
2.589444e+02	-1.079721e-02
2.604401e+02	-1.092214e-02
2.619444e+02	-1.104852e-02
2.634574e+02	-1.117635e-02
2.649791e+02	-1.130566e-02
2.665096e+02	-1.143647e-02
2.680489e+02	-1.156879e-02
2.695972e+02	-1.170263e-02
2.711544e+02	-1.183803e-02
2.727205e+02	-1.197498e-02
2.742958e+02	-1.211352e-02
2.758801e+02	-1.225366e-02
2.774736e+02	-1.239542e-02
2.790762e+02	-1.253882e-02
2.806882e+02	-1.268387e-02
2.823094e+02	-1.283060e-02
2.839400e+02	-1.297902e-02
2.855800e+02	-1.312916e-02
2.872295e+02	-1.328103e-02
2.888886e+02	-1.343465e-02
2.905572e+02	-1.359005e-02
2.922354e+02	-1.374725e-02
2.939234e+02	-1.390626e-02
2.956211e+02	-1.406710e-02
2.973286e+02	-1.422981e-02
2.990459e+02	-1.439439e-02
3.007732e+02	-1.456087e-02
3.025104e+02	-1.472927e-02
3.042577e+02	-1.489962e-02
3.060151e+02	-1.507194e-02
3.077826e+02	-1.524624e-02
3.095604e+02	-1.542256e-02
3.113484e+02	-1.560091e-02
3.131467e+02	-1.578132e-02
3.149554e+02	-1.596382e-02
3.167746e+02	-1.614842e-02
3.186043e+02	-1.633515e-02
3.204445e+02	-1.652403e-02
3.222954e+02	-1.671510e-02
3.241570e+02	-1.690837e-02
3.260293e+02	-1.710387e-02
3.279124e+02	-1.730162e-02
3.298064e+02	-1.750166e-02
3.317114e+02	-1.770401e-02
3.336273e+02	-1.790869e-02
3.355544e+02	-1.811573e-02
3.374925e+02	-1.832516e-02
3.394418e+02	-1.853701e-02
3.414024e+02	-1.875130e-02
3.433744e+02	-1.896806e-02
3.453577e+02	-1.918733e-02
3.473525e+02	-1.940912e-02
3.493588e+02	-1.963347e-02
3.513766e+02	-1.986041e-02
3.534062e+02	-2.008996e-02
3.554474e+02	-2.032216e-02
3.575005e+02	-2.055704e-02
3.595654e+02	-2.079463e-02
3.616422e+02	-2.103495e-02
3.637311e+02	-2.127805e-02
3.658320e+02	-2.152395e-02
3.679450e+02	-2.177268e-02
3.700702e+02	-2.202428e-02
3.722077e+02	-2.227878e-02
3.743576e+02	-2.253621e-02
3.765199e+02	-2.279661e-02
3.786946e+02	-2.306001e-02
3.808820e+02	-2.332645e-02
3.830819e+02	-2.359596e-02
3.852946e+02	-2.386857e-02
3.875200e+02	-2.414432e-02
3.897583e+02	-2.442325e-02
3.920096e+02	-2.470539e-02
3.942738e+02	-2.499078e-02
3.965511e+02	-2.527946e-02
3.988416e+02	-2.557147e-02
4.011452e+02	-2.586683e-02
4.034622e+02	-2.616560e-02
4.057926e+02	-2.646781e-02
4.081365e+02	-2.677350e-02
4.104938e+02	-2.708271e-02
4.128648e+02	-2.739547e-02
4.152495e+02	-2.771184e-02
4.176480e+02	-2.803185e-02
4.200603e+02	-2.835554e-02
4.224866e+02	-2.868296e-02
4.249268e+02	-2.901415e-02
4.273812e+02	-2.934915e-02
4.298497e+02	-2.968800e-02
4.323325e+02	-3.003075e-02
4.348297e+02	-3.037744e-02
4.373412e+02	-3.072812e-02
4.398673e+02	-3.108284e-02
4.424079e+02	-3.144163e-02
4.449633e+02	-3.180455e-02
4.475334e+02	-3.217165e-02
4.501183e+02	-3.254297e-02
4.527182e+02	-3.291855e-02
4.553330e+02	-3.329846e-02
4.579630e+02	-3.368273e-02
4.606082e+02	-3.407141e-02
4.632687e+02	-3.446457e-02
4.659445e+02	-3.486224e-02
4.686358e+02	-3.526449e-02
4.713426e+02	-3.567135e-02
4.740650e+02	-3.608289e-02
4.768032e+02	-3.649916e-02
4.795572e+02	-3.692021e-02
4.823271e+02	-3.734610e-02
4.851130e+02	-3.777688e-02
4.879150e+02	-3.821260e-02
4.907332e+02	-3.865333e-02
4.935676e+02	-3.909912e-02
4.964185e+02	-3.955002e-02
4.992858e+02	-4.000610e-02
5.021696e+02	-4.046742e-02
5.050701e+02	-4.093403e-02
5.079874e+02	-4.140600e-02
5.109215e+02	-4.188338e-02
5.138726e+02	-4.236623e-02
5.168407e+02	-4.285463e-02
5.198259e+02	-4.334863e-02
5.228284e+02	-4.384829e-02
5.258482e+02	-4.435369e-02
5.288855e+02	-4.486488e-02
5.319403e+02	-4.538193e-02
5.350128e+02	-4.590490e-02
5.381030e+02	-4.643388e-02
5.412111e+02	-4.696891e-02
5.443371e+02	-4.751007e-02
5.474812e+02	-4.805744e-02
5.506434e+02	-4.861108e-02
5.538239e+02	-4.917105e-02
5.570228e+02	-4.973744e-02
5.602401e+02	-5.031032e-02
5.634760e+02	-5.088976e-02
5.667306e+02	-5.147583e-02
5.700040e+02	-5.206861e-02
5.732964e+02	-5.266818e-02
5.766077e+02	-5.327460e-02
5.799382e+02	-5.388797e-02
5.832879e+02	-5.450835e-02
5.866569e+02	-5.513583e-02
5.900454e+02	-5.577048e-02
5.934535e+02	-5.641240e-02
5.968813e+02	-5.706165e-02
6.003288e+02	-5.771833e-02
6.037963e+02	-5.838251e-02
6.072838e+02	-5.905428e-02
6.107914e+02	-5.973373e-02
6.143194e+02	-6.042094e-02
6.178676e+02	-6.111600e-02
6.214364e+02	-6.181900e-02
6.250258e+02	-6.253003e-02
6.286359e+02	-6.324918e-02
6.322669e+02	-6.397654e-02
6.359189e+02	-6.471220e-02
6.395919e+02	-6.545625e-02
6.432862e+02	-6.620879e-02
6.470017e+02	-6.696992e-02
6.507388e+02	-6.773973e-02
6.544974e+02	-6.851832e-02
6.582778e+02	-6.930579e-02
6.620800e+02	-7.010223e-02
6.659041e+02	-7.090775e-02
6.697504e+02	-7.172245e-02
6.736188e+02	-7.254643e-02
6.775096e+02	-7.337980e-02
6.814229e+02	-7.422266e-02
6.853587e+02	-7.507511e-02
6.893173e+02	-7.593728e-02
6.932988e+02	-7.680925e-02
6.973033e+02	-7.769115e-02
7.013309e+02	-7.858308e-02
