Frequency(Hz)	Magnitude(dB)
1.000000e+01	-2.029311e+00
1.005776e+01	-2.047982e+00
1.011585e+01	-2.066836e+00
1.017428e+01	-2.085715e+00
1.023305e+01	-2.104855e+00
1.029215e+01	-2.124564e+00
1.035160e+01	-2.143612e+00
1.041139e+01	-2.163265e+00
1.047153e+01	-2.182914e+00
1.053201e+01	-2.203132e+00
1.059284e+01	-2.222835e+00
1.065403e+01	-2.242786e+00
1.071556e+01	-2.263200e+00
1.077746e+01	-2.283486e+00
1.083971e+01	-2.303855e+00
1.090232e+01	-2.324624e+00
1.096529e+01	-2.345369e+00
1.102862e+01	-2.366603e+00
1.109232e+01	-2.387288e+00
1.115639e+01	-2.408661e+00
1.122083e+01	-2.430105e+00
1.128564e+01	-2.451589e+00
1.135083e+01	-2.473132e+00
1.141639e+01	-2.495041e+00
1.148233e+01	-2.516945e+00
1.154865e+01	-2.539118e+00
1.161536e+01	-2.561243e+00
1.168245e+01	-2.583853e+00
1.174992e+01	-2.606162e+00
1.181779e+01	-2.628728e+00
1.188605e+01	-2.651746e+00
1.195470e+01	-2.674657e+00
1.202375e+01	-2.697608e+00
1.209320e+01	-2.720823e+00
1.216305e+01	-2.744145e+00
1.223330e+01	-2.767569e+00
1.230396e+01	-2.791198e+00
1.237503e+01	-2.815133e+00
1.244651e+01	-2.838898e+00
1.251840e+01	-2.863228e+00
1.259070e+01	-2.887429e+00
1.266343e+01	-2.911847e+00
1.273657e+01	-2.936238e+00
1.281014e+01	-2.960986e+00
1.288413e+01	-2.985574e+00
1.295855e+01	-3.010655e+00
1.303339e+01	-3.035880e+00
1.310867e+01	-3.060810e+00
1.318439e+01	-3.086386e+00
1.326054e+01	-3.111685e+00
1.333713e+01	-3.137235e+00
1.341417e+01	-3.163117e+00
1.349165e+01	-3.189173e+00
1.356958e+01	-3.215317e+00
1.364795e+01	-3.241547e+00
1.372678e+01	-3.267872e+00
1.380607e+01	-3.294687e+00
1.388581e+01	-3.321089e+00
1.396602e+01	-3.347930e+00
1.404668e+01	-3.374823e+00
1.412782e+01	-3.401755e+00
1.420942e+01	-3.429234e+00
1.429149e+01	-3.456445e+00
1.437404e+01	-3.484330e+00
1.445706e+01	-3.511755e+00
1.454057e+01	-3.539550e+00
1.462455e+01	-3.567571e+00
1.470902e+01	-3.595601e+00
1.479398e+01	-3.624045e+00
1.487943e+01	-3.652007e+00
1.496537e+01	-3.680572e+00
1.505181e+01	-3.709379e+00
1.513875e+01	-3.738353e+00
1.522619e+01	-3.767279e+00
1.531414e+01	-3.796367e+00
1.540259e+01	-3.825503e+00
1.549156e+01	-3.855061e+00
1.558103e+01	-3.884391e+00
1.567103e+01	-3.914125e+00
1.576155e+01	-3.943884e+00
1.585258e+01	-3.973884e+00
1.594415e+01	-4.003967e+00
1.603624e+01	-4.033995e+00
1.612886e+01	-4.064241e+00
1.622202e+01	-4.094575e+00
1.631572e+01	-4.125458e+00
1.640996e+01	-4.156136e+00
1.650474e+01	-4.187012e+00
1.660008e+01	-4.218109e+00
1.669596e+01	-4.249149e+00
1.679239e+01	-4.280517e+00
1.688938e+01	-4.312154e+00
1.698694e+01	-4.343305e+00
1.708505e+01	-4.375315e+00
1.718373e+01	-4.407016e+00
1.728299e+01	-4.438951e+00
1.738281e+01	-4.470963e+00
1.748322e+01	-4.503100e+00
1.758420e+01	-4.535334e+00
1.768576e+01	-4.568247e+00
1.778792e+01	-4.600544e+00
1.789066e+01	-4.633366e+00
1.799399e+01	-4.666299e+00
1.809793e+01	-4.699066e+00
1.820246e+01	-4.732525e+00
1.830760e+01	-4.765748e+00
1.841334e+01	-4.799189e+00
1.851969e+01	-4.832479e+00
1.862666e+01	-4.866324e+00
1.873425e+01	-4.900318e+00
1.884246e+01	-4.933882e+00
1.895129e+01	-4.968271e+00
1.906075e+01	-5.002176e+00
1.917085e+01	-5.036344e+00
1.928158e+01	-5.070818e+00
1.939295e+01	-5.105347e+00
1.950496e+01	-5.139890e+00
1.961762e+01	-5.174925e+00
1.973093e+01	-5.209737e+00
1.984490e+01	-5.244547e+00
1.995952e+01	-5.280089e+00
2.007480e+01	-5.314900e+00
2.019076e+01	-5.350320e+00
2.030738e+01	-5.386072e+00
2.042467e+01	-5.421485e+00
2.054264e+01	-5.457344e+00
2.066130e+01	-5.492977e+00
2.078064e+01	-5.528842e+00
2.090066e+01	-5.565507e+00
2.102139e+01	-5.601126e+00
2.114280e+01	-5.637730e+00
2.126492e+01	-5.674100e+00
2.138775e+01	-5.710542e+00
2.151128e+01	-5.747313e+00
2.163553e+01	-5.783780e+00
2.176050e+01	-5.821064e+00
2.188619e+01	-5.857799e+00
2.201260e+01	-5.894584e+00
2.213974e+01	-5.932131e+00
2.226762e+01	-5.969615e+00
2.239624e+01	-6.006890e+00
2.252560e+01	-6.044482e+00
2.265571e+01	-6.082023e+00
2.278656e+01	-6.120162e+00
2.291818e+01	-6.157722e+00
2.305055e+01	-6.195422e+00
2.318369e+01	-6.233648e+00
2.331760e+01	-6.271655e+00
2.345228e+01	-6.310097e+00
2.358774e+01	-6.348014e+00
2.372398e+01	-6.387028e+00
2.386101e+01	-6.425704e+00
2.399883e+01	-6.464589e+00
2.413745e+01	-6.502759e+00
2.427686e+01	-6.541737e+00
2.441709e+01	-6.580817e+00
2.455812e+01	-6.620327e+00
2.469997e+01	-6.658645e+00
2.484263e+01	-6.698570e+00
2.498612e+01	-6.737753e+00
2.513044e+01	-6.777091e+00
2.527559e+01	-6.817016e+00
2.542158e+01	-6.856452e+00
2.556842e+01	-6.896508e+00
2.571610e+01	-6.936000e+00
2.586463e+01	-6.976037e+00
2.601403e+01	-7.016108e+00
2.616428e+01	-7.056247e+00
2.631541e+01	-7.096581e+00
2.646740e+01	-7.136903e+00
2.662028e+01	-7.177502e+00
2.677404e+01	-7.217463e+00
2.692868e+01	-7.258082e+00
2.708422e+01	-7.299020e+00
2.724066e+01	-7.339550e+00
2.739800e+01	-7.380839e+00
2.755625e+01	-7.421599e+00
2.771541e+01	-7.462376e+00
2.787550e+01	-7.503749e+00
2.803650e+01	-7.544249e+00
2.819844e+01	-7.585531e+00
2.836131e+01	-7.627224e+00
2.852513e+01	-7.668945e+00
2.868989e+01	-7.710354e+00
2.885560e+01	-7.751735e+00
2.902227e+01	-7.793578e+00
2.918990e+01	-7.835131e+00
2.935850e+01	-7.877045e+00
2.952807e+01	-7.919769e+00
2.969863e+01	-7.961442e+00
2.987016e+01	-8.003174e+00
3.004269e+01	-8.044893e+00
3.021622e+01	-8.087412e+00
3.039075e+01	-8.129709e+00
3.056628e+01	-8.172184e+00
3.074283e+01	-8.214286e+00
3.092040e+01	-8.256638e+00
3.109900e+01	-8.299517e+00
3.127862e+01	-8.342161e+00
3.145929e+01	-8.385317e+00
3.164099e+01	-8.427541e+00
3.182375e+01	-8.470682e+00
3.200756e+01	-8.514063e+00
3.219244e+01	-8.556999e+00
3.237838e+01	-8.599574e+00
3.256540e+01	-8.642575e+00
3.275349e+01	-8.686353e+00
3.294268e+01	-8.729067e+00
3.313295e+01	-8.772543e+00
3.332433e+01	-8.816067e+00
3.351681e+01	-8.859535e+00
3.371040e+01	-8.903076e+00
3.390511e+01	-8.947116e+00
3.410094e+01	-8.990417e+00
3.429791e+01	-9.034180e+00
3.449601e+01	-9.078194e+00
3.469526e+01	-9.122514e+00
3.489566e+01	-9.165956e+00
3.509721e+01	-9.209905e+00
3.529993e+01	-9.254434e+00
3.550382e+01	-9.298182e+00
3.570889e+01	-9.342438e+00
3.591515e+01	-9.386664e+00
3.612259e+01	-9.431139e+00
3.633123e+01	-9.475051e+00
3.654108e+01	-9.519493e+00
3.675214e+01	-9.563735e+00
3.696442e+01	-9.608651e+00
3.717792e+01	-9.653134e+00
3.739266e+01	-9.697536e+00
3.760864e+01	-9.742733e+00
3.782587e+01	-9.786947e+00
3.804435e+01	-9.832066e+00
3.826409e+01	-9.876964e+00
3.848510e+01	-9.921456e+00
3.870739e+01	-9.966536e+00
3.893096e+01	-1.001190e+01
3.915583e+01	-1.005700e+01
3.938199e+01	-1.010187e+01
3.960946e+01	-1.014694e+01
3.983824e+01	-1.019239e+01
4.006834e+01	-1.023779e+01
4.029978e+01	-1.028279e+01
4.053255e+01	-1.032876e+01
4.076666e+01	-1.037351e+01
4.100213e+01	-1.041925e+01
4.123896e+01	-1.046485e+01
4.147715e+01	-1.051018e+01
4.171672e+01	-1.055569e+01
4.195767e+01	-1.060131e+01
4.220002e+01	-1.064754e+01
4.244377e+01	-1.069327e+01
4.268892e+01	-1.073857e+01
4.293549e+01	-1.078468e+01
4.318348e+01	-1.082996e+01
4.343291e+01	-1.087618e+01
4.368377e+01	-1.092250e+01
4.393609e+01	-1.096770e+01
4.418986e+01	-1.101452e+01
4.444510e+01	-1.106028e+01
4.470182e+01	-1.110590e+01
4.496001e+01	-1.115280e+01
4.521970e+01	-1.119876e+01
4.548089e+01	-1.124522e+01
4.574358e+01	-1.129119e+01
4.600779e+01	-1.133742e+01
4.627353e+01	-1.138384e+01
4.654081e+01	-1.143023e+01
4.680963e+01	-1.147674e+01
4.708000e+01	-1.152369e+01
4.735193e+01	-1.157039e+01
4.762543e+01	-1.161673e+01
4.790051e+01	-1.166310e+01
4.817719e+01	-1.170962e+01
4.845545e+01	-1.175637e+01
4.873533e+01	-1.180289e+01
4.901682e+01	-1.184960e+01
4.929994e+01	-1.189617e+01
4.958470e+01	-1.194278e+01
4.987110e+01	-1.199054e+01
5.015915e+01	-1.203808e+01
5.044887e+01	-1.208395e+01
5.074026e+01	-1.213062e+01
5.103333e+01	-1.217802e+01
5.132810e+01	-1.222507e+01
5.162457e+01	-1.227245e+01
5.192275e+01	-1.231927e+01
5.222265e+01	-1.236652e+01
5.252429e+01	-1.241341e+01
5.282767e+01	-1.246023e+01
5.313280e+01	-1.250767e+01
5.343969e+01	-1.255442e+01
5.374836e+01	-1.260208e+01
5.405880e+01	-1.264922e+01
5.437105e+01	-1.269688e+01
5.468509e+01	-1.274461e+01
5.500095e+01	-1.279197e+01
5.531863e+01	-1.283919e+01
5.563815e+01	-1.288553e+01
5.595951e+01	-1.293372e+01
5.628273e+01	-1.298094e+01
5.660782e+01	-1.302874e+01
5.693479e+01	-1.307665e+01
5.726364e+01	-1.312392e+01
5.759439e+01	-1.317148e+01
5.792705e+01	-1.321950e+01
5.826164e+01	-1.326695e+01
5.859815e+01	-1.331422e+01
5.893662e+01	-1.336204e+01
5.927703e+01	-1.341025e+01
5.961941e+01	-1.345781e+01
5.996377e+01	-1.350575e+01
6.031012e+01	-1.355276e+01
6.065847e+01	-1.360048e+01
6.100883e+01	-1.364886e+01
6.136121e+01	-1.369685e+01
6.171563e+01	-1.374466e+01
6.207210e+01	-1.379302e+01
6.243063e+01	-1.384030e+01
6.279122e+01	-1.388855e+01
6.315390e+01	-1.393664e+01
6.351868e+01	-1.398455e+01
6.388556e+01	-1.403321e+01
6.425456e+01	-1.408025e+01
6.462569e+01	-1.412886e+01
6.499897e+01	-1.417669e+01
6.537440e+01	-1.422477e+01
6.575200e+01	-1.427366e+01
6.613178e+01	-1.432244e+01
6.651375e+01	-1.436939e+01
6.689793e+01	-1.441847e+01
6.728433e+01	-1.446648e+01
6.767297e+01	-1.451433e+01
6.806384e+01	-1.456332e+01
6.845698e+01	-1.461100e+01
6.885238e+01	-1.465895e+01
6.925007e+01	-1.470778e+01
6.965005e+01	-1.475539e+01
7.005235e+01	-1.480379e+01
7.045697e+01	-1.485342e+01
7.086393e+01	-1.490005e+01
7.127323e+01	-1.494916e+01
7.168490e+01	-1.499734e+01
7.209895e+01	-1.504626e+01
7.251539e+01	-1.509536e+01
7.293424e+01	-1.514198e+01
7.335551e+01	-1.519211e+01
7.377920e+01	-1.524067e+01
7.420535e+01	-1.528857e+01
7.463396e+01	-1.533676e+01
7.506504e+01	-1.538633e+01
7.549861e+01	-1.543497e+01
7.593469e+01	-1.548365e+01
7.637328e+01	-1.553151e+01
7.681441e+01	-1.558087e+01
7.725809e+01	-1.562876e+01
7.770433e+01	-1.567809e+01
7.815315e+01	-1.572663e+01
7.860456e+01	-1.577520e+01
7.905857e+01	-1.582308e+01
7.951521e+01	-1.587367e+01
7.997449e+01	-1.592097e+01
8.043642e+01	-1.597015e+01
8.090102e+01	-1.601888e+01
8.136830e+01	-1.606723e+01
8.183828e+01	-1.611659e+01
8.231097e+01	-1.616485e+01
8.278640e+01	-1.621402e+01
8.326457e+01	-1.626356e+01
8.374550e+01	-1.631130e+01
8.422921e+01	-1.636027e+01
8.471572e+01	-1.640938e+01
8.520503e+01	-1.645818e+01
8.569717e+01	-1.650700e+01
8.619215e+01	-1.655619e+01
8.669000e+01	-1.660526e+01
8.719071e+01	-1.665419e+01
8.769432e+01	-1.670334e+01
8.820084e+01	-1.675201e+01
8.871029e+01	-1.680034e+01
8.922267e+01	-1.685063e+01
8.973802e+01	-1.689872e+01
9.025634e+01	-1.694822e+01
9.077766e+01	-1.699761e+01
9.130199e+01	-1.704630e+01
9.182935e+01	-1.709545e+01
9.235975e+01	-1.714380e+01
9.289321e+01	-1.719131e+01
9.342976e+01	-1.724205e+01
9.396941e+01	-1.729171e+01
9.451217e+01	-1.733996e+01
9.505807e+01	-1.738856e+01
9.560712e+01	-1.743810e+01
9.615934e+01	-1.748809e+01
9.671476e+01	-1.753651e+01
9.727338e+01	-1.758672e+01
9.783522e+01	-1.763531e+01
9.840032e+01	-1.768423e+01
9.896867e+01	-1.773357e+01
9.954031e+01	-1.778223e+01
1.001153e+02	-1.783142e+01
1.006935e+02	-1.788056e+01
1.012751e+02	-1.793041e+01
1.018601e+02	-1.798010e+01
1.024484e+02	-1.802946e+01
1.030402e+02	-1.807865e+01
1.036353e+02	-1.812703e+01
1.042339e+02	-1.817716e+01
1.048360e+02	-1.822741e+01
1.054415e+02	-1.827529e+01
1.060505e+02	-1.832387e+01
1.066631e+02	-1.837451e+01
1.072791e+02	-1.842337e+01
1.078988e+02	-1.847350e+01
1.085220e+02	-1.852117e+01
1.091488e+02	-1.857176e+01
1.097793e+02	-1.862028e+01
1.104133e+02	-1.866999e+01
1.110511e+02	-1.871895e+01
1.116925e+02	-1.876876e+01
1.123376e+02	-1.881881e+01
1.129865e+02	-1.886722e+01
1.136391e+02	-1.891675e+01
1.142955e+02	-1.896819e+01
1.149556e+02	-1.901417e+01
1.156196e+02	-1.906570e+01
1.162874e+02	-1.911367e+01
1.169591e+02	-1.916431e+01
1.176347e+02	-1.921312e+01
1.183141e+02	-1.926180e+01
1.189975e+02	-1.931311e+01
1.196848e+02	-1.936199e+01
1.203761e+02	-1.941000e+01
1.210714e+02	-1.946157e+01
1.217707e+02	-1.951029e+01
1.224740e+02	-1.956007e+01
1.231814e+02	-1.960966e+01
1.238929e+02	-1.965819e+01
1.246085e+02	-1.970785e+01
1.253283e+02	-1.975701e+01
1.260522e+02	-1.980769e+01
1.267802e+02	-1.985655e+01
1.275125e+02	-1.990673e+01
1.282490e+02	-1.995536e+01
1.289898e+02	-2.000765e+01
1.297348e+02	-2.005404e+01
1.304842e+02	-2.010379e+01
1.312378e+02	-2.015237e+01
1.319959e+02	-2.020201e+01
1.327583e+02	-2.025346e+01
1.335251e+02	-2.030209e+01
1.342963e+02	-2.035259e+01
1.350720e+02	-2.040132e+01
1.358522e+02	-2.045094e+01
1.366368e+02	-2.050048e+01
1.374260e+02	-2.055056e+01
1.382198e+02	-2.060001e+01
1.390182e+02	-2.064817e+01
1.398211e+02	-2.069861e+01
1.406287e+02	-2.075045e+01
1.414410e+02	-2.079851e+01
1.422579e+02	-2.084793e+01
1.430796e+02	-2.089793e+01
1.439060e+02	-2.094768e+01
1.447372e+02	-2.099662e+01
1.455732e+02	-2.104559e+01
1.464141e+02	-2.109439e+01
1.472597e+02	-2.114610e+01
1.481103e+02	-2.119694e+01
1.489658e+02	-2.124415e+01
1.498262e+02	-2.129440e+01
1.506916e+02	-2.134515e+01
1.515620e+02	-2.139553e+01
1.524374e+02	-2.144431e+01
1.533179e+02	-2.149182e+01
1.542034e+02	-2.154382e+01
1.550941e+02	-2.159388e+01
1.559899e+02	-2.164228e+01
1.568909e+02	-2.169290e+01
1.577971e+02	-2.174031e+01
1.587085e+02	-2.179103e+01
1.596252e+02	-2.184266e+01
1.605472e+02	-2.189220e+01
1.614745e+02	-2.194223e+01
1.624072e+02	-2.199039e+01
1.633453e+02	-2.204014e+01
1.642887e+02	-2.209149e+01
1.652377e+02	-2.214032e+01
1.661921e+02	-2.219186e+01
1.671520e+02	-2.223908e+01
1.681175e+02	-2.229091e+01
1.690885e+02	-2.233861e+01
1.700651e+02	-2.238810e+01
1.710474e+02	-2.244000e+01
1.720354e+02	-2.248830e+01
1.730291e+02	-2.253698e+01
1.740285e+02	-2.258744e+01
1.750337e+02	-2.263764e+01
1.760446e+02	-2.268728e+01
1.770615e+02	-2.273850e+01
1.780842e+02	-2.278673e+01
1.791128e+02	-2.283751e+01
1.801473e+02	-2.288420e+01
1.811878e+02	-2.293652e+01
1.822344e+02	-2.298437e+01
1.832870e+02	-2.303401e+01
1.843456e+02	-2.308468e+01
1.854104e+02	-2.313497e+01
1.864813e+02	-2.318575e+01
1.875584e+02	-2.323278e+01
1.886418e+02	-2.328687e+01
1.897313e+02	-2.333425e+01
1.908272e+02	-2.338208e+01
1.919294e+02	-2.343530e+01
1.930380e+02	-2.348608e+01
1.941530e+02	-2.353063e+01
1.952744e+02	-2.358338e+01
1.964023e+02	-2.363205e+01
1.975367e+02	-2.368378e+01
1.986777e+02	-2.373163e+01
1.998252e+02	-2.378352e+01
2.009794e+02	-2.383145e+01
2.021403e+02	-2.388308e+01
2.033078e+02	-2.393104e+01
2.044821e+02	-2.398370e+01
2.056632e+02	-2.403201e+01
2.068511e+02	-2.408254e+01
2.080459e+02	-2.413231e+01
2.092475e+02	-2.418086e+01
2.104561e+02	-2.423429e+01
2.116717e+02	-2.428259e+01
2.128943e+02	-2.433289e+01
2.141240e+02	-2.438362e+01
2.153608e+02	-2.443433e+01
2.166047e+02	-2.448243e+01
2.178558e+02	-2.453316e+01
2.191141e+02	-2.458082e+01
2.203797e+02	-2.463099e+01
2.216526e+02	-2.468110e+01
2.229329e+02	-2.473150e+01
2.242205e+02	-2.477934e+01
2.255156e+02	-2.482889e+01
2.268182e+02	-2.487881e+01
2.281283e+02	-2.492956e+01
2.294459e+02	-2.498281e+01
2.307712e+02	-2.503146e+01
2.321041e+02	-2.508092e+01
2.334447e+02	-2.512950e+01
2.347931e+02	-2.517923e+01
2.361493e+02	-2.522874e+01
2.375133e+02	-2.527774e+01
2.388851e+02	-2.532751e+01
2.402649e+02	-2.537725e+01
2.416527e+02	-2.543012e+01
2.430484e+02	-2.547963e+01
2.444523e+02	-2.552792e+01
2.458642e+02	-2.557815e+01
2.472843e+02	-2.562918e+01
2.487126e+02	-2.567976e+01
2.501492e+02	-2.572650e+01
2.515940e+02	-2.577749e+01
2.530472e+02	-2.582586e+01
2.545088e+02	-2.588057e+01
2.559789e+02	-2.592972e+01
2.574574e+02	-2.597763e+01
2.589444e+02	-2.602716e+01
2.604401e+02	-2.607867e+01
2.619444e+02	-2.612602e+01
2.634574e+02	-2.617842e+01
2.649791e+02	-2.622955e+01
2.665096e+02	-2.628217e+01
2.680489e+02	-2.632986e+01
2.695972e+02	-2.637726e+01
2.711544e+02	-2.642962e+01
2.727205e+02	-2.648005e+01
2.742958e+02	-2.653124e+01
2.758801e+02	-2.657698e+01
2.774736e+02	-2.662808e+01
2.790762e+02	-2.667718e+01
2.806882e+02	-2.672772e+01
2.823094e+02	-2.677830e+01
2.839400e+02	-2.683326e+01
2.855800e+02	-2.687660e+01
2.872295e+02	-2.692635e+01
2.888886e+02	-2.697708e+01
2.905572e+02	-2.703128e+01
2.922354e+02	-2.707841e+01
2.939234e+02	-2.712684e+01
2.956211e+02	-2.717487e+01
2.973286e+02	-2.722663e+01
2.990459e+02	-2.727574e+01
3.007732e+02	-2.732566e+01
3.025104e+02	-2.737636e+01
3.042577e+02	-2.742751e+01
3.060151e+02	-2.747489e+01
3.077826e+02	-2.752939e+01
3.095604e+02	-2.757827e+01
3.113484e+02	-2.762840e+01
3.131467e+02	-2.768178e+01
3.149554e+02	-2.772769e+01
3.167746e+02	-2.777727e+01
3.186043e+02	-2.782998e+01
3.204445e+02	-2.787750e+01
3.222954e+02	-2.792880e+01
3.241570e+02	-2.797707e+01
3.260293e+02	-2.802857e+01
3.279124e+02	-2.807672e+01
3.298064e+02	-2.813140e+01
3.317114e+02	-2.817563e+01
3.336273e+02	-2.822754e+01
3.355544e+02	-2.827988e+01
3.374925e+02	-2.832689e+01
3.394418e+02	-2.838000e+01
3.414024e+02	-2.842403e+01
3.433744e+02	-2.847707e+01
3.453577e+02	-2.852846e+01
3.473525e+02	-2.857863e+01
3.493588e+02	-2.862738e+01
3.513766e+02	-2.867553e+01
3.534062e+02	-2.872998e+01
3.554474e+02	-2.878010e+01
3.575005e+02	-2.882922e+01
3.595654e+02	-2.887810e+01
3.616422e+02	-2.892936e+01
3.637311e+02	-2.897951e+01
3.658320e+02	-2.902827e+01
3.679450e+02	-2.907863e+01
3.700702e+02	-2.913093e+01
3.722077e+02	-2.918157e+01
3.743576e+02	-2.922984e+01
3.765199e+02	-2.928152e+01
3.786946e+02	-2.932654e+01
3.808820e+02	-2.937797e+01
3.830819e+02	-2.942731e+01
3.852946e+02	-2.948204e+01
3.875200e+02	-2.952605e+01
3.897583e+02	-2.957751e+01
3.920096e+02	-2.962601e+01
3.942738e+02	-2.967770e+01
3.965511e+02	-2.972802e+01
3.988416e+02	-2.977660e+01
4.011452e+02	-2.983171e+01
4.034622e+02	-2.987990e+01
4.057926e+02	-2.993081e+01
4.081365e+02	-2.997905e+01
4.104938e+02	-3.003432e+01
4.128648e+02	-3.007852e+01
4.152495e+02	-3.013117e+01
4.176480e+02	-3.017657e+01
4.200603e+02	-3.022962e+01
4.224866e+02	-3.027898e+01
4.249268e+02	-3.032816e+01
4.273812e+02	-3.038671e+01
4.298497e+02	-3.043369e+01
4.323325e+02	-3.048133e+01
4.348297e+02	-3.053241e+01
4.373412e+02	-3.057796e+01
4.398673e+02	-3.063048e+01
4.424079e+02	-3.068410e+01
4.449633e+02	-3.072980e+01
4.475334e+02	-3.078147e+01
4.501183e+02	-3.082985e+01
4.527182e+02	-3.087849e+01
4.553330e+02	-3.093305e+01
4.579630e+02	-3.098644e+01
4.606082e+02	-3.103449e+01
4.632687e+02	-3.108285e+01
4.659445e+02	-3.113501e+01
4.686358e+02	-3.117744e+01
4.713426e+02	-3.123652e+01
4.740650e+02	-3.128059e+01
4.768032e+02	-3.133143e+01
4.795572e+02	-3.138381e+01
4.823271e+02	-3.143307e+01
4.851130e+02	-3.148862e+01
4.879150e+02	-3.153767e+01
4.907332e+02	-3.158444e+01
4.935676e+02	-3.163833e+01
4.964185e+02	-3.168742e+01
4.992858e+02	-3.173750e+01
5.021696e+02	-3.178806e+01
5.050701e+02	-3.183129e+01
5.079874e+02	-3.188646e+01
5.109215e+02	-3.193196e+01
5.138726e+02	-3.198746e+01
5.168407e+02	-3.202953e+01
5.198259e+02	-3.208701e+01
5.228284e+02	-3.213532e+01
5.258482e+02	-3.218673e+01
5.288855e+02	-3.223585e+01
5.319403e+02	-3.228555e+01
5.350128e+02	-3.233768e+01
5.381030e+02	-3.238435e+01
5.412111e+02	-3.243534e+01
5.443371e+02	-3.248572e+01
5.474812e+02	-3.253719e+01
5.506434e+02	-3.258654e+01
5.538239e+02	-3.263935e+01
5.570228e+02	-3.269092e+01
5.602401e+02	-3.273712e+01
5.634760e+02	-3.279013e+01
5.667306e+02	-3.283592e+01
5.700040e+02	-3.289210e+01
5.732964e+02	-3.294190e+01
5.766077e+02	-3.298701e+01
5.799382e+02	-3.304784e+01
5.832879e+02	-3.309514e+01
5.866569e+02	-3.313864e+01
5.900454e+02	-3.319047e+01
5.934535e+02	-3.324388e+01
5.968813e+02	-3.328638e+01
6.003288e+02	-3.333589e+01
6.037963e+02	-3.339785e+01
6.072838e+02	-3.344141e+01
6.107914e+02	-3.349154e+01
6.143194e+02	-3.353923e+01
6.178676e+02	-3.358073e+01
6.214364e+02	-3.363883e+01
6.250258e+02	-3.369346e+01
6.286359e+02	-3.374266e+01
6.322669e+02	-3.379009e+01
6.359189e+02	-3.385278e+01
6.395919e+02	-3.389020e+01
6.432862e+02	-3.393997e+01
6.470017e+02	-3.398503e+01
6.507388e+02	-3.403905e+01
6.544974e+02	-3.409792e+01
6.582778e+02	-3.414732e+01
6.620800e+02	-3.419346e+01
6.659041e+02	-3.424912e+01
6.697504e+02	-3.429129e+01
6.736188e+02	-3.434369e+01
6.775096e+02	-3.440039e+01
6.814229e+02	-3.446244e+01
6.853587e+02	-3.449669e+01
6.893173e+02	-3.454491e+01
6.932988e+02	-3.458963e+01
6.973033e+02	-3.464141e+01
7.013309e+02	-3.469740e+01
