Frequency(Hz)	Magnitude(dB)
1.000000e+01	-1.952401e+00
1.005776e+01	-1.970465e+00
1.011585e+01	-1.988937e+00
1.017428e+01	-2.007394e+00
1.023305e+01	-2.025943e+00
1.029215e+01	-2.044700e+00
1.035160e+01	-2.063531e+00
1.041139e+01	-2.082439e+00
1.047153e+01	-2.101621e+00
1.053201e+01	-2.120939e+00
1.059284e+01	-2.140357e+00
1.065403e+01	-2.159604e+00
1.071556e+01	-2.179541e+00
1.077746e+01	-2.199280e+00
1.083971e+01	-2.219271e+00
1.090232e+01	-2.239149e+00
1.096529e+01	-2.259379e+00
1.102862e+01	-2.279922e+00
1.109232e+01	-2.300345e+00
1.115639e+01	-2.321077e+00
1.122083e+01	-2.341919e+00
1.128564e+01	-2.362694e+00
1.135083e+01	-2.383718e+00
1.141639e+01	-2.404922e+00
1.148233e+01	-2.426384e+00
1.154865e+01	-2.447891e+00
1.161536e+01	-2.469280e+00
1.168245e+01	-2.491100e+00
1.174992e+01	-2.513193e+00
1.181779e+01	-2.535193e+00
1.188605e+01	-2.557532e+00
1.195470e+01	-2.579749e+00
1.202375e+01	-2.602385e+00
1.209320e+01	-2.624859e+00
1.216305e+01	-2.647753e+00
1.223330e+01	-2.670580e+00
1.230396e+01	-2.693560e+00
1.237503e+01	-2.716520e+00
1.244651e+01	-2.739969e+00
1.251840e+01	-2.763530e+00
1.259070e+01	-2.787063e+00
1.266343e+01	-2.810755e+00
1.273657e+01	-2.834501e+00
1.281014e+01	-2.858889e+00
1.288413e+01	-2.882940e+00
1.295855e+01	-2.907079e+00
1.303339e+01	-2.931660e+00
1.310867e+01	-2.956521e+00
1.318439e+01	-2.981390e+00
1.326054e+01	-3.006280e+00
1.333713e+01	-3.031247e+00
1.341417e+01	-3.056325e+00
1.349165e+01	-3.081798e+00
1.356958e+01	-3.107464e+00
1.364795e+01	-3.132950e+00
1.372678e+01	-3.158933e+00
1.380607e+01	-3.184464e+00
1.388581e+01	-3.210689e+00
1.396602e+01	-3.236910e+00
1.404668e+01	-3.263231e+00
1.412782e+01	-3.289746e+00
1.420942e+01	-3.316310e+00
1.429149e+01	-3.343165e+00
1.437404e+01	-3.370088e+00
1.445706e+01	-3.397067e+00
1.454057e+01	-3.424458e+00
1.462455e+01	-3.451858e+00
1.470902e+01	-3.478922e+00
1.479398e+01	-3.507210e+00
1.487943e+01	-3.534791e+00
1.496537e+01	-3.562749e+00
1.505181e+01	-3.590681e+00
1.513875e+01	-3.618890e+00
1.522619e+01	-3.647367e+00
1.531414e+01	-3.675777e+00
1.540259e+01	-3.704506e+00
1.549156e+01	-3.733286e+00
1.558103e+01	-3.762054e+00
1.567103e+01	-3.790999e+00
1.576155e+01	-3.820315e+00
1.585258e+01	-3.849828e+00
1.594415e+01	-3.879200e+00
1.603624e+01	-3.908643e+00
1.612886e+01	-3.938453e+00
1.622202e+01	-3.968287e+00
1.631572e+01	-3.998457e+00
1.640996e+01	-4.028599e+00
1.650474e+01	-4.059019e+00
1.660008e+01	-4.089337e+00
1.669596e+01	-4.120033e+00
1.679239e+01	-4.150762e+00
1.688938e+01	-4.181540e+00
1.698694e+01	-4.212423e+00
1.708505e+01	-4.243808e+00
1.718373e+01	-4.275262e+00
1.728299e+01	-4.306306e+00
1.738281e+01	-4.337804e+00
1.748322e+01	-4.369577e+00
1.758420e+01	-4.401339e+00
1.768576e+01	-4.433312e+00
1.778792e+01	-4.465269e+00
1.789066e+01	-4.497859e+00
1.799399e+01	-4.529770e+00
1.809793e+01	-4.562179e+00
1.820246e+01	-4.594887e+00
1.830760e+01	-4.627603e+00
1.841334e+01	-4.660608e+00
1.851969e+01	-4.693616e+00
1.862666e+01	-4.726565e+00
1.873425e+01	-4.760035e+00
1.884246e+01	-4.793314e+00
1.895129e+01	-4.826730e+00
1.906075e+01	-4.860385e+00
1.917085e+01	-4.893999e+00
1.928158e+01	-4.928006e+00
1.939295e+01	-4.962040e+00
1.950496e+01	-4.996082e+00
1.961762e+01	-5.030526e+00
1.973093e+01	-5.064639e+00
1.984490e+01	-5.099479e+00
1.995952e+01	-5.133743e+00
2.007480e+01	-5.168317e+00
2.019076e+01	-5.203514e+00
2.030738e+01	-5.238478e+00
2.042467e+01	-5.273557e+00
2.054264e+01	-5.308996e+00
2.066130e+01	-5.344302e+00
2.078064e+01	-5.379557e+00
2.090066e+01	-5.415012e+00
2.102139e+01	-5.450797e+00
2.114280e+01	-5.486550e+00
2.126492e+01	-5.522832e+00
2.138775e+01	-5.558821e+00
2.151128e+01	-5.594784e+00
2.163553e+01	-5.631221e+00
2.176050e+01	-5.667570e+00
2.188619e+01	-5.704068e+00
2.201260e+01	-5.740809e+00
2.213974e+01	-5.777452e+00
2.226762e+01	-5.814504e+00
2.239624e+01	-5.851253e+00
2.252560e+01	-5.888436e+00
2.265571e+01	-5.925639e+00
2.278656e+01	-5.963019e+00
2.291818e+01	-6.000401e+00
2.305055e+01	-6.037957e+00
2.318369e+01	-6.075417e+00
2.331760e+01	-6.113049e+00
2.345228e+01	-6.150852e+00
2.358774e+01	-6.189060e+00
2.372398e+01	-6.227031e+00
2.386101e+01	-6.265190e+00
2.399883e+01	-6.303080e+00
2.413745e+01	-6.341477e+00
2.427686e+01	-6.380387e+00
2.441709e+01	-6.419058e+00
2.455812e+01	-6.457436e+00
2.469997e+01	-6.496156e+00
2.484263e+01	-6.535057e+00
2.498612e+01	-6.574165e+00
2.513044e+01	-6.613097e+00
2.527559e+01	-6.652077e+00
2.542158e+01	-6.691560e+00
2.556842e+01	-6.731152e+00
2.571610e+01	-6.770244e+00
2.586463e+01	-6.809885e+00
2.601403e+01	-6.849666e+00
2.616428e+01	-6.889136e+00
2.631541e+01	-6.929033e+00
2.646740e+01	-6.969036e+00
2.662028e+01	-7.009104e+00
2.677404e+01	-7.049211e+00
2.692868e+01	-7.089483e+00
2.708422e+01	-7.129958e+00
2.724066e+01	-7.169894e+00
2.739800e+01	-7.210770e+00
2.755625e+01	-7.250951e+00
2.771541e+01	-7.291778e+00
2.787550e+01	-7.332363e+00
2.803650e+01	-7.373369e+00
2.819844e+01	-7.414241e+00
2.836131e+01	-7.455201e+00
2.852513e+01	-7.496134e+00
2.868989e+01	-7.537360e+00
2.885560e+01	-7.578489e+00
2.902227e+01	-7.620147e+00
2.918990e+01	-7.661613e+00
2.935850e+01	-7.702857e+00
2.952807e+01	-7.744594e+00
2.969863e+01	-7.785816e+00
2.987016e+01	-7.827758e+00
3.004269e+01	-7.869760e+00
3.021622e+01	-7.911905e+00
3.039075e+01	-7.953396e+00
3.056628e+01	-7.995532e+00
3.074283e+01	-8.037801e+00
3.092040e+01	-8.079867e+00
3.109900e+01	-8.122413e+00
3.127862e+01	-8.164897e+00
3.145929e+01	-8.207089e+00
3.164099e+01	-8.249626e+00
3.182375e+01	-8.292183e+00
3.200756e+01	-8.334399e+00
3.219244e+01	-8.377512e+00
3.237838e+01	-8.420307e+00
3.256540e+01	-8.462965e+00
3.275349e+01	-8.506040e+00
3.294268e+01	-8.548867e+00
3.313295e+01	-8.592018e+00
3.332433e+01	-8.635316e+00
3.351681e+01	-8.678132e+00
3.371040e+01	-8.721547e+00
3.390511e+01	-8.764904e+00
3.410094e+01	-8.808426e+00
3.429791e+01	-8.851782e+00
3.449601e+01	-8.895810e+00
3.469526e+01	-8.939002e+00
3.489566e+01	-8.982625e+00
3.509721e+01	-9.025804e+00
3.529993e+01	-9.070085e+00
3.550382e+01	-9.114105e+00
3.570889e+01	-9.158248e+00
3.591515e+01	-9.202163e+00
3.612259e+01	-9.246297e+00
3.633123e+01	-9.290560e+00
3.654108e+01	-9.334648e+00
3.675214e+01	-9.378690e+00
3.696442e+01	-9.422854e+00
3.717792e+01	-9.467300e+00
3.739266e+01	-9.511588e+00
3.760864e+01	-9.555999e+00
3.782587e+01	-9.600681e+00
3.804435e+01	-9.645243e+00
3.826409e+01	-9.689244e+00
3.848510e+01	-9.734396e+00
3.870739e+01	-9.778660e+00
3.893096e+01	-9.824281e+00
3.915583e+01	-9.868926e+00
3.938199e+01	-9.913835e+00
3.960946e+01	-9.958706e+00
3.983824e+01	-1.000362e+01
4.006834e+01	-1.004848e+01
4.029978e+01	-1.009391e+01
4.053255e+01	-1.013871e+01
4.076666e+01	-1.018479e+01
4.100213e+01	-1.022944e+01
4.123896e+01	-1.027498e+01
4.147715e+01	-1.032010e+01
4.171672e+01	-1.036566e+01
4.195767e+01	-1.041161e+01
4.220002e+01	-1.045686e+01
4.244377e+01	-1.050210e+01
4.268892e+01	-1.054726e+01
4.293549e+01	-1.059312e+01
4.318348e+01	-1.063901e+01
4.343291e+01	-1.068451e+01
4.368377e+01	-1.073054e+01
4.393609e+01	-1.077639e+01
4.418986e+01	-1.082248e+01
4.444510e+01	-1.086812e+01
4.470182e+01	-1.091424e+01
4.496001e+01	-1.096030e+01
4.521970e+01	-1.100594e+01
4.548089e+01	-1.105263e+01
4.574358e+01	-1.109810e+01
4.600779e+01	-1.114469e+01
4.627353e+01	-1.119091e+01
4.654081e+01	-1.123673e+01
4.680963e+01	-1.128349e+01
4.708000e+01	-1.132963e+01
4.735193e+01	-1.137607e+01
4.762543e+01	-1.142205e+01
4.790051e+01	-1.146817e+01
4.817719e+01	-1.151483e+01
4.845545e+01	-1.156156e+01
4.873533e+01	-1.160858e+01
4.901682e+01	-1.165466e+01
4.929994e+01	-1.170161e+01
4.958470e+01	-1.174817e+01
4.987110e+01	-1.179509e+01
5.015915e+01	-1.184185e+01
5.044887e+01	-1.188824e+01
5.074026e+01	-1.193486e+01
5.103333e+01	-1.198203e+01
5.132810e+01	-1.202881e+01
5.162457e+01	-1.207607e+01
5.192275e+01	-1.212279e+01
5.222265e+01	-1.216937e+01
5.252429e+01	-1.221778e+01
5.282767e+01	-1.226374e+01
5.313280e+01	-1.231084e+01
5.343969e+01	-1.235766e+01
5.374836e+01	-1.240575e+01
5.405880e+01	-1.245293e+01
5.437105e+01	-1.249920e+01
5.468509e+01	-1.254660e+01
5.500095e+01	-1.259394e+01
5.531863e+01	-1.264132e+01
5.563815e+01	-1.268835e+01
5.595951e+01	-1.273640e+01
5.628273e+01	-1.278314e+01
5.660782e+01	-1.283025e+01
5.693479e+01	-1.287821e+01
5.726364e+01	-1.292614e+01
5.759439e+01	-1.297363e+01
5.792705e+01	-1.302171e+01
5.826164e+01	-1.306736e+01
5.859815e+01	-1.311607e+01
5.893662e+01	-1.316358e+01
5.927703e+01	-1.321060e+01
5.961941e+01	-1.325918e+01
5.996377e+01	-1.330623e+01
6.031012e+01	-1.335345e+01
6.065847e+01	-1.340140e+01
6.100883e+01	-1.344939e+01
6.136121e+01	-1.349687e+01
6.171563e+01	-1.354480e+01
6.207210e+01	-1.359314e+01
6.243063e+01	-1.364086e+01
6.279122e+01	-1.368873e+01
6.315390e+01	-1.373685e+01
6.351868e+01	-1.378449e+01
6.388556e+01	-1.383302e+01
6.425456e+01	-1.388035e+01
6.462569e+01	-1.392817e+01
6.499897e+01	-1.397633e+01
6.537440e+01	-1.402469e+01
6.575200e+01	-1.407247e+01
6.613178e+01	-1.412120e+01
6.651375e+01	-1.416839e+01
6.689793e+01	-1.421664e+01
6.728433e+01	-1.426454e+01
6.767297e+01	-1.431283e+01
6.806384e+01	-1.436177e+01
6.845698e+01	-1.440926e+01
6.885238e+01	-1.445760e+01
6.925007e+01	-1.450514e+01
6.965005e+01	-1.455433e+01
7.005235e+01	-1.460199e+01
7.045697e+01	-1.465123e+01
7.086393e+01	-1.469938e+01
7.127323e+01	-1.474705e+01
7.168490e+01	-1.479526e+01
7.209895e+01	-1.484420e+01
7.251539e+01	-1.489299e+01
7.293424e+01	-1.494090e+01
7.335551e+01	-1.499002e+01
7.377920e+01	-1.503766e+01
7.420535e+01	-1.508643e+01
7.463396e+01	-1.513512e+01
7.506504e+01	-1.518350e+01
7.549861e+01	-1.523128e+01
7.593469e+01	-1.528132e+01
7.637328e+01	-1.532920e+01
7.681441e+01	-1.537743e+01
7.725809e+01	-1.542531e+01
7.770433e+01	-1.547484e+01
7.815315e+01	-1.552334e+01
7.860456e+01	-1.557195e+01
7.905857e+01	-1.562061e+01
7.951521e+01	-1.567001e+01
7.997449e+01	-1.571822e+01
8.043642e+01	-1.576660e+01
8.090102e+01	-1.581492e+01
8.136830e+01	-1.586442e+01
8.183828e+01	-1.591231e+01
8.231097e+01	-1.596158e+01
8.278640e+01	-1.601090e+01
8.326457e+01	-1.606020e+01
8.374550e+01	-1.610713e+01
8.422921e+01	-1.615718e+01
8.471572e+01	-1.620647e+01
8.520503e+01	-1.625459e+01
8.569717e+01	-1.630283e+01
8.619215e+01	-1.635288e+01
8.669000e+01	-1.640146e+01
8.719071e+01	-1.645038e+01
8.769432e+01	-1.649880e+01
8.820084e+01	-1.654795e+01
8.871029e+01	-1.659678e+01
8.922267e+01	-1.664527e+01
8.973802e+01	-1.669410e+01
9.025634e+01	-1.674433e+01
9.077766e+01	-1.679225e+01
9.130199e+01	-1.684243e+01
9.182935e+01	-1.688977e+01
9.235975e+01	-1.693986e+01
9.289321e+01	-1.698756e+01
9.342976e+01	-1.703841e+01
9.396941e+01	-1.708633e+01
9.451217e+01	-1.713513e+01
9.505807e+01	-1.718442e+01
9.560712e+01	-1.723412e+01
9.615934e+01	-1.728293e+01
9.671476e+01	-1.733202e+01
9.727338e+01	-1.738006e+01
9.783522e+01	-1.743001e+01
9.840032e+01	-1.747867e+01
9.896867e+01	-1.752874e+01
9.954031e+01	-1.757735e+01
1.001153e+02	-1.762708e+01
1.006935e+02	-1.767528e+01
1.012751e+02	-1.772500e+01
1.018601e+02	-1.777396e+01
1.024484e+02	-1.782286e+01
1.030402e+02	-1.787259e+01
1.036353e+02	-1.792194e+01
1.042339e+02	-1.797148e+01
1.048360e+02	-1.802075e+01
1.054415e+02	-1.806960e+01
1.060505e+02	-1.812034e+01
1.066631e+02	-1.816833e+01
1.072791e+02	-1.821771e+01
1.078988e+02	-1.826666e+01
1.085220e+02	-1.831507e+01
1.091488e+02	-1.836504e+01
1.097793e+02	-1.841445e+01
1.104133e+02	-1.846458e+01
1.110511e+02	-1.851422e+01
1.116925e+02	-1.856277e+01
1.123376e+02	-1.861296e+01
1.129865e+02	-1.866219e+01
1.136391e+02	-1.871004e+01
1.142955e+02	-1.875978e+01
1.149556e+02	-1.880952e+01
1.156196e+02	-1.885883e+01
1.162874e+02	-1.890862e+01
1.169591e+02	-1.895663e+01
1.176347e+02	-1.900621e+01
1.183141e+02	-1.905545e+01
1.189975e+02	-1.910485e+01
1.196848e+02	-1.915469e+01
1.203761e+02	-1.920547e+01
1.210714e+02	-1.925513e+01
1.217707e+02	-1.930341e+01
1.224740e+02	-1.935285e+01
1.231814e+02	-1.940384e+01
1.238929e+02	-1.945092e+01
1.246085e+02	-1.950107e+01
1.253283e+02	-1.955154e+01
1.260522e+02	-1.960001e+01
1.267802e+02	-1.964889e+01
1.275125e+02	-1.969889e+01
1.282490e+02	-1.974779e+01
1.289898e+02	-1.979779e+01
1.297348e+02	-1.984874e+01
1.304842e+02	-1.989735e+01
1.312378e+02	-1.994671e+01
1.319959e+02	-1.999615e+01
1.327583e+02	-2.004644e+01
1.335251e+02	-2.009520e+01
1.342963e+02	-2.014632e+01
1.350720e+02	-2.019524e+01
1.358522e+02	-2.024530e+01
1.366368e+02	-2.029365e+01
1.374260e+02	-2.034382e+01
1.382198e+02	-2.039509e+01
1.390182e+02	-2.044301e+01
1.398211e+02	-2.049253e+01
1.406287e+02	-2.054448e+01
1.414410e+02	-2.059065e+01
1.422579e+02	-2.064201e+01
1.430796e+02	-2.069005e+01
1.439060e+02	-2.073984e+01
1.447372e+02	-2.078868e+01
1.455732e+02	-2.083901e+01
1.464141e+02	-2.088860e+01
1.472597e+02	-2.093923e+01
1.481103e+02	-2.098781e+01
1.489658e+02	-2.103932e+01
1.498262e+02	-2.108789e+01
1.506916e+02	-2.113712e+01
1.515620e+02	-2.118642e+01
1.524374e+02	-2.123567e+01
1.533179e+02	-2.128554e+01
1.542034e+02	-2.133672e+01
1.550941e+02	-2.138510e+01
1.559899e+02	-2.143664e+01
1.568909e+02	-2.148434e+01
1.577971e+02	-2.153602e+01
1.587085e+02	-2.158472e+01
1.596252e+02	-2.163472e+01
1.605472e+02	-2.168608e+01
1.614745e+02	-2.173356e+01
1.624072e+02	-2.178328e+01
1.633453e+02	-2.183437e+01
1.642887e+02	-2.188360e+01
1.652377e+02	-2.193284e+01
1.661921e+02	-2.198358e+01
1.671520e+02	-2.203121e+01
1.681175e+02	-2.208077e+01
1.690885e+02	-2.212984e+01
1.700651e+02	-2.218089e+01
1.710474e+02	-2.223160e+01
1.720354e+02	-2.227988e+01
1.730291e+02	-2.232931e+01
1.740285e+02	-2.238191e+01
1.750337e+02	-2.242991e+01
1.760446e+02	-2.247861e+01
1.770615e+02	-2.253115e+01
1.780842e+02	-2.258099e+01
1.791128e+02	-2.262717e+01
1.801473e+02	-2.267844e+01
1.811878e+02	-2.272897e+01
1.822344e+02	-2.277928e+01
1.832870e+02	-2.282673e+01
1.843456e+02	-2.287664e+01
1.854104e+02	-2.292970e+01
1.864813e+02	-2.297647e+01
1.875584e+02	-2.302729e+01
1.886418e+02	-2.307651e+01
1.897313e+02	-2.312677e+01
1.908272e+02	-2.317682e+01
1.919294e+02	-2.322785e+01
1.930380e+02	-2.327440e+01
1.941530e+02	-2.332626e+01
1.952744e+02	-2.337576e+01
1.964023e+02	-2.342438e+01
1.975367e+02	-2.347630e+01
1.986777e+02	-2.352541e+01
1.998252e+02	-2.357749e+01
2.009794e+02	-2.362630e+01
2.021403e+02	-2.367429e+01
2.033078e+02	-2.372385e+01
2.044821e+02	-2.377433e+01
2.056632e+02	-2.382239e+01
2.068511e+02	-2.387868e+01
2.080459e+02	-2.392511e+01
2.092475e+02	-2.397295e+01
2.104561e+02	-2.402421e+01
2.116717e+02	-2.407500e+01
2.128943e+02	-2.412244e+01
2.141240e+02	-2.417453e+01
2.153608e+02	-2.422596e+01
2.166047e+02	-2.427560e+01
2.178558e+02	-2.432263e+01
2.191141e+02	-2.437319e+01
2.203797e+02	-2.442233e+01
2.216526e+02	-2.447246e+01
2.229329e+02	-2.452368e+01
2.242205e+02	-2.457331e+01
2.255156e+02	-2.462109e+01
2.268182e+02	-2.467720e+01
2.281283e+02	-2.471914e+01
2.294459e+02	-2.477360e+01
2.307712e+02	-2.482327e+01
2.321041e+02	-2.487200e+01
2.334447e+02	-2.492280e+01
2.347931e+02	-2.497235e+01
2.361493e+02	-2.502017e+01
2.375133e+02	-2.507381e+01
2.388851e+02	-2.512079e+01
2.402649e+02	-2.517181e+01
2.416527e+02	-2.522068e+01
2.430484e+02	-2.527311e+01
2.444523e+02	-2.532102e+01
2.458642e+02	-2.536905e+01
2.472843e+02	-2.541986e+01
2.487126e+02	-2.546956e+01
2.501492e+02	-2.552055e+01
2.515940e+02	-2.556971e+01
2.530472e+02	-2.562168e+01
2.545088e+02	-2.567066e+01
2.559789e+02	-2.572082e+01
2.574574e+02	-2.577177e+01
2.589444e+02	-2.582004e+01
2.604401e+02	-2.587098e+01
2.619444e+02	-2.592005e+01
2.634574e+02	-2.597228e+01
2.649791e+02	-2.602021e+01
2.665096e+02	-2.606751e+01
2.680489e+02	-2.611848e+01
2.695972e+02	-2.616883e+01
2.711544e+02	-2.622317e+01
2.727205e+02	-2.626847e+01
2.742958e+02	-2.632012e+01
2.758801e+02	-2.637285e+01
2.774736e+02	-2.641801e+01
2.790762e+02	-2.646565e+01
2.806882e+02	-2.651843e+01
2.823094e+02	-2.657123e+01
2.839400e+02	-2.662376e+01
2.855800e+02	-2.667057e+01
2.872295e+02	-2.672201e+01
2.888886e+02	-2.676855e+01
2.905572e+02	-2.681955e+01
2.922354e+02	-2.687233e+01
2.939234e+02	-2.691792e+01
2.956211e+02	-2.696882e+01
2.973286e+02	-2.702176e+01
2.990459e+02	-2.707184e+01
3.007732e+02	-2.711641e+01
3.025104e+02	-2.717099e+01
3.042577e+02	-2.721813e+01
3.060151e+02	-2.727399e+01
3.077826e+02	-2.731725e+01
3.095604e+02	-2.736864e+01
3.113484e+02	-2.741771e+01
3.131467e+02	-2.747307e+01
3.149554e+02	-2.752336e+01
3.167746e+02	-2.756894e+01
3.186043e+02	-2.762055e+01
3.204445e+02	-2.766778e+01
3.222954e+02	-2.772115e+01
3.241570e+02	-2.777126e+01
3.260293e+02	-2.781991e+01
3.279124e+02	-2.787102e+01
3.298064e+02	-2.792196e+01
3.317114e+02	-2.796953e+01
3.336273e+02	-2.801917e+01
3.355544e+02	-2.807160e+01
3.374925e+02	-2.812369e+01
3.394418e+02	-2.816910e+01
3.414024e+02	-2.821863e+01
3.433744e+02	-2.826842e+01
3.453577e+02	-2.832116e+01
3.473525e+02	-2.836705e+01
3.493588e+02	-2.842269e+01
3.513766e+02	-2.846858e+01
3.534062e+02	-2.851893e+01
3.554474e+02	-2.857219e+01
3.575005e+02	-2.861987e+01
3.595654e+02	-2.867134e+01
3.616422e+02	-2.872110e+01
3.637311e+02	-2.876855e+01
3.658320e+02	-2.882036e+01
3.679450e+02	-2.887133e+01
3.700702e+02	-2.892016e+01
3.722077e+02	-2.897034e+01
3.743576e+02	-2.902171e+01
3.765199e+02	-2.907461e+01
3.786946e+02	-2.912449e+01
3.808820e+02	-2.916991e+01
3.830819e+02	-2.922500e+01
3.852946e+02	-2.927273e+01
3.875200e+02	-2.932334e+01
3.897583e+02	-2.937258e+01
3.920096e+02	-2.941961e+01
3.942738e+02	-2.947615e+01
3.965511e+02	-2.952665e+01
3.988416e+02	-2.957650e+01
4.011452e+02	-2.962726e+01
4.034622e+02	-2.966904e+01
4.057926e+02	-2.971894e+01
4.081365e+02	-2.977186e+01
4.104938e+02	-2.982278e+01
4.128648e+02	-2.987686e+01
4.152495e+02	-2.992220e+01
4.176480e+02	-2.997375e+01
4.200603e+02	-3.002494e+01
4.224866e+02	-3.007629e+01
4.249268e+02	-3.012805e+01
4.273812e+02	-3.017510e+01
4.298497e+02	-3.022108e+01
4.323325e+02	-3.027538e+01
4.348297e+02	-3.032626e+01
4.373412e+02	-3.037503e+01
4.398673e+02	-3.042231e+01
4.424079e+02	-3.047012e+01
4.449633e+02	-3.052603e+01
4.475334e+02	-3.057211e+01
4.501183e+02	-3.062885e+01
4.527182e+02	-3.067510e+01
4.553330e+02	-3.072181e+01
4.579630e+02	-3.077611e+01
4.606082e+02	-3.082731e+01
4.632687e+02	-3.087812e+01
4.659445e+02	-3.092453e+01
4.686358e+02	-3.097430e+01
4.713426e+02	-3.102966e+01
4.740650e+02	-3.107749e+01
4.768032e+02	-3.112921e+01
4.795572e+02	-3.117131e+01
4.823271e+02	-3.122719e+01
4.851130e+02	-3.127864e+01
4.879150e+02	-3.132987e+01
4.907332e+02	-3.137957e+01
4.935676e+02	-3.142851e+01
4.964185e+02	-3.147228e+01
4.992858e+02	-3.152553e+01
5.021696e+02	-3.157841e+01
5.050701e+02	-3.163092e+01
5.079874e+02	-3.167897e+01
5.109215e+02	-3.172401e+01
5.138726e+02	-3.177285e+01
5.168407e+02	-3.182899e+01
5.198259e+02	-3.187971e+01
5.228284e+02	-3.193083e+01
5.258482e+02	-3.197708e+01
5.288855e+02	-3.203333e+01
5.319403e+02	-3.207947e+01
5.350128e+02	-3.212565e+01
5.381030e+02	-3.217816e+01
5.412111e+02	-3.223185e+01
5.443371e+02	-3.228153e+01
5.474812e+02	-3.233862e+01
5.506434e+02	-3.237786e+01
5.538239e+02	-3.243215e+01
5.570228e+02	-3.248317e+01
5.602401e+02	-3.253407e+01
5.634760e+02	-3.258628e+01
5.667306e+02	-3.263137e+01
5.700040e+02	-3.268417e+01
5.732964e+02	-3.272880e+01
5.766077e+02	-3.277799e+01
5.799382e+02	-3.283767e+01
5.832879e+02	-3.288131e+01
5.866569e+02	-3.292750e+01
5.900454e+02	-3.298611e+01
5.934535e+02	-3.303467e+01
5.968813e+02	-3.308594e+01
6.003288e+02	-3.314124e+01
6.037963e+02	-3.318490e+01
6.072838e+02	-3.323483e+01
6.107914e+02	-3.328236e+01
6.143194e+02	-3.334359e+01
6.178676e+02	-3.339377e+01
6.214364e+02	-3.342966e+01
6.250258e+02	-3.348955e+01
6.286359e+02	-3.353444e+01
6.322669e+02	-3.359113e+01
6.359189e+02	-3.363430e+01
6.395919e+02	-3.369847e+01
6.432862e+02	-3.373421e+01
6.470017e+02	-3.379519e+01
6.507388e+02	-3.384286e+01
6.544974e+02	-3.388889e+01
6.582778e+02	-3.393648e+01
6.620800e+02	-3.399109e+01
6.659041e+02	-3.404514e+01
6.697504e+02	-3.410191e+01
6.736188e+02	-3.413395e+01
6.775096e+02	-3.419410e+01
6.814229e+02	-3.424384e+01
6.853587e+02	-3.429357e+01
6.893173e+02	-3.434186e+01
6.932988e+02	-3.438629e+01
6.973033e+02	-3.444932e+01
7.013309e+02	-3.449877e+01
