Frequency(Hz)	Magnitude(dB)
1.000000e+01	-2.191358e+00
1.005776e+01	-2.211200e+00
1.011585e+01	-2.231295e+00
1.017428e+01	-2.251354e+00
1.023305e+01	-2.271708e+00
1.029215e+01	-2.292108e+00
1.035160e+01	-2.312665e+00
1.041139e+01	-2.333436e+00
1.047153e+01	-2.354360e+00
1.053201e+01	-2.375050e+00
1.059284e+01	-2.396458e+00
1.065403e+01	-2.417988e+00
1.071556e+01	-2.439012e+00
1.077746e+01	-2.460658e+00
1.083971e+01	-2.482441e+00
1.090232e+01	-2.504592e+00
1.096529e+01	-2.526371e+00
1.102862e+01	-2.548512e+00
1.109232e+01	-2.570626e+00
1.115639e+01	-2.593147e+00
1.122083e+01	-2.615709e+00
1.128564e+01	-2.638449e+00
1.135083e+01	-2.661552e+00
1.141639e+01	-2.684283e+00
1.148233e+01	-2.707460e+00
1.154865e+01	-2.730617e+00
1.161536e+01	-2.754156e+00
1.168245e+01	-2.777818e+00
1.174992e+01	-2.801443e+00
1.181779e+01	-2.825335e+00
1.188605e+01	-2.849276e+00
1.195470e+01	-2.873435e+00
1.202375e+01	-2.897463e+00
1.209320e+01	-2.921906e+00
1.216305e+01	-2.946676e+00
1.223330e+01	-2.971431e+00
1.230396e+01	-2.996202e+00
1.237503e+01	-3.021401e+00
1.244651e+01	-3.046693e+00
1.251840e+01	-3.071722e+00
1.259070e+01	-3.097183e+00
1.266343e+01	-3.122646e+00
1.273657e+01	-3.148418e+00
1.281014e+01	-3.174493e+00
1.288413e+01	-3.200211e+00
1.295855e+01	-3.226524e+00
1.303339e+01	-3.252597e+00
1.310867e+01	-3.279146e+00
1.318439e+01	-3.305529e+00
1.326054e+01	-3.332434e+00
1.333713e+01	-3.359327e+00
1.341417e+01	-3.386369e+00
1.349165e+01	-3.413663e+00
1.356958e+01	-3.440782e+00
1.364795e+01	-3.468190e+00
1.372678e+01	-3.495604e+00
1.380607e+01	-3.523477e+00
1.388581e+01	-3.551638e+00
1.396602e+01	-3.579286e+00
1.404668e+01	-3.607986e+00
1.412782e+01	-3.635769e+00
1.420942e+01	-3.664484e+00
1.429149e+01	-3.692924e+00
1.437404e+01	-3.721651e+00
1.445706e+01	-3.750460e+00
1.454057e+01	-3.779714e+00
1.462455e+01	-3.808746e+00
1.470902e+01	-3.837989e+00
1.479398e+01	-3.867528e+00
1.487943e+01	-3.896771e+00
1.496537e+01	-3.926661e+00
1.505181e+01	-3.956430e+00
1.513875e+01	-3.986633e+00
1.522619e+01	-4.016673e+00
1.531414e+01	-4.046850e+00
1.540259e+01	-4.077075e+00
1.549156e+01	-4.107924e+00
1.558103e+01	-4.138117e+00
1.567103e+01	-4.169090e+00
1.576155e+01	-4.200270e+00
1.585258e+01	-4.231521e+00
1.594415e+01	-4.262522e+00
1.603624e+01	-4.293987e+00
1.612886e+01	-4.325403e+00
1.622202e+01	-4.356941e+00
1.631572e+01	-4.388564e+00
1.640996e+01	-4.420712e+00
1.650474e+01	-4.452549e+00
1.660008e+01	-4.484473e+00
1.669596e+01	-4.516991e+00
1.679239e+01	-4.549512e+00
1.688938e+01	-4.581830e+00
1.698694e+01	-4.614749e+00
1.708505e+01	-4.647621e+00
1.718373e+01	-4.680207e+00
1.728299e+01	-4.713624e+00
1.738281e+01	-4.746673e+00
1.748322e+01	-4.779886e+00
1.758420e+01	-4.813426e+00
1.768576e+01	-4.846789e+00
1.778792e+01	-4.880821e+00
1.789066e+01	-4.914512e+00
1.799399e+01	-4.948241e+00
1.809793e+01	-4.982448e+00
1.820246e+01	-5.016720e+00
1.830760e+01	-5.050617e+00
1.841334e+01	-5.085587e+00
1.851969e+01	-5.120200e+00
1.862666e+01	-5.155135e+00
1.873425e+01	-5.189549e+00
1.884246e+01	-5.224170e+00
1.895129e+01	-5.259688e+00
1.906075e+01	-5.294641e+00
1.917085e+01	-5.329882e+00
1.928158e+01	-5.365552e+00
1.939295e+01	-5.400978e+00
1.950496e+01	-5.436516e+00
1.961762e+01	-5.472343e+00
1.973093e+01	-5.508318e+00
1.984490e+01	-5.544273e+00
1.995952e+01	-5.580645e+00
2.007480e+01	-5.616801e+00
2.019076e+01	-5.653072e+00
2.030738e+01	-5.689765e+00
2.042467e+01	-5.726259e+00
2.054264e+01	-5.762645e+00
2.066130e+01	-5.799590e+00
2.078064e+01	-5.836545e+00
2.090066e+01	-5.873763e+00
2.102139e+01	-5.910543e+00
2.114280e+01	-5.947968e+00
2.126492e+01	-5.985376e+00
2.138775e+01	-6.022627e+00
2.151128e+01	-6.060367e+00
2.163553e+01	-6.098094e+00
2.176050e+01	-6.135932e+00
2.188619e+01	-6.173837e+00
2.201260e+01	-6.211702e+00
2.213974e+01	-6.249804e+00
2.226762e+01	-6.287697e+00
2.239624e+01	-6.326176e+00
2.252560e+01	-6.365023e+00
2.265571e+01	-6.403434e+00
2.278656e+01	-6.442210e+00
2.291818e+01	-6.480469e+00
2.305055e+01	-6.519421e+00
2.318369e+01	-6.558313e+00
2.331760e+01	-6.597555e+00
2.345228e+01	-6.636631e+00
2.358774e+01	-6.675745e+00
2.372398e+01	-6.715052e+00
2.386101e+01	-6.754545e+00
2.399883e+01	-6.794226e+00
2.413745e+01	-6.833820e+00
2.427686e+01	-6.873225e+00
2.441709e+01	-6.913441e+00
2.455812e+01	-6.952837e+00
2.469997e+01	-6.992813e+00
2.484263e+01	-7.033179e+00
2.498612e+01	-7.073780e+00
2.513044e+01	-7.113897e+00
2.527559e+01	-7.154092e+00
2.542158e+01	-7.194114e+00
2.556842e+01	-7.234648e+00
2.571610e+01	-7.275555e+00
2.586463e+01	-7.316560e+00
2.601403e+01	-7.357139e+00
2.616428e+01	-7.397942e+00
2.631541e+01	-7.438627e+00
2.646740e+01	-7.480086e+00
2.662028e+01	-7.520768e+00
2.677404e+01	-7.562401e+00
2.692868e+01	-7.603594e+00
2.708422e+01	-7.644504e+00
2.724066e+01	-7.686602e+00
2.739800e+01	-7.727306e+00
2.755625e+01	-7.769324e+00
2.771541e+01	-7.811150e+00
2.787550e+01	-7.852952e+00
2.803650e+01	-7.894989e+00
2.819844e+01	-7.936554e+00
2.836131e+01	-7.978717e+00
2.852513e+01	-8.021202e+00
2.868989e+01	-8.063311e+00
2.885560e+01	-8.105831e+00
2.902227e+01	-8.147769e+00
2.918990e+01	-8.189818e+00
2.935850e+01	-8.232705e+00
2.952807e+01	-8.275143e+00
2.969863e+01	-8.317796e+00
2.987016e+01	-8.360398e+00
3.004269e+01	-8.403152e+00
3.021622e+01	-8.446220e+00
3.039075e+01	-8.488795e+00
3.056628e+01	-8.531737e+00
3.074283e+01	-8.575056e+00
3.092040e+01	-8.618473e+00
3.109900e+01	-8.661261e+00
3.127862e+01	-8.704570e+00
3.145929e+01	-8.747695e+00
3.164099e+01	-8.791091e+00
3.182375e+01	-8.834872e+00
3.200756e+01	-8.878136e+00
3.219244e+01	-8.922192e+00
3.237838e+01	-8.965350e+00
3.256540e+01	-9.009213e+00
3.275349e+01	-9.052848e+00
3.294268e+01	-9.096515e+00
3.313295e+01	-9.140630e+00
3.332433e+01	-9.184827e+00
3.351681e+01	-9.228389e+00
3.371040e+01	-9.272536e+00
3.390511e+01	-9.316769e+00
3.410094e+01	-9.360664e+00
3.429791e+01	-9.405321e+00
3.449601e+01	-9.449663e+00
3.469526e+01	-9.494386e+00
3.489566e+01	-9.538672e+00
3.509721e+01	-9.583506e+00
3.529993e+01	-9.627778e+00
3.550382e+01	-9.672085e+00
3.570889e+01	-9.716567e+00
3.591515e+01	-9.761640e+00
3.612259e+01	-9.806420e+00
3.633123e+01	-9.850864e+00
3.654108e+01	-9.896106e+00
3.675214e+01	-9.940893e+00
3.696442e+01	-9.986080e+00
3.717792e+01	-1.003053e+01
3.739266e+01	-1.007610e+01
3.760864e+01	-1.012107e+01
3.782587e+01	-1.016638e+01
3.804435e+01	-1.021145e+01
3.826409e+01	-1.025683e+01
3.848510e+01	-1.030215e+01
3.870739e+01	-1.034771e+01
3.893096e+01	-1.039314e+01
3.915583e+01	-1.043811e+01
3.938199e+01	-1.048360e+01
3.960946e+01	-1.052956e+01
3.983824e+01	-1.057533e+01
4.006834e+01	-1.062052e+01
4.029978e+01	-1.066667e+01
4.053255e+01	-1.071255e+01
4.076666e+01	-1.075887e+01
4.100213e+01	-1.080392e+01
4.123896e+01	-1.084941e+01
4.147715e+01	-1.089610e+01
4.171672e+01	-1.094150e+01
4.195767e+01	-1.098813e+01
4.220002e+01	-1.103385e+01
4.244377e+01	-1.108015e+01
4.268892e+01	-1.112627e+01
4.293549e+01	-1.117245e+01
4.318348e+01	-1.121776e+01
4.343291e+01	-1.126504e+01
4.368377e+01	-1.131097e+01
4.393609e+01	-1.135687e+01
4.418986e+01	-1.140387e+01
4.444510e+01	-1.145033e+01
4.470182e+01	-1.149678e+01
4.496001e+01	-1.154343e+01
4.521970e+01	-1.158950e+01
4.548089e+01	-1.163588e+01
4.574358e+01	-1.168323e+01
4.600779e+01	-1.172971e+01
4.627353e+01	-1.177574e+01
4.654081e+01	-1.182271e+01
4.680963e+01	-1.187001e+01
4.708000e+01	-1.191615e+01
4.735193e+01	-1.196345e+01
4.762543e+01	-1.200961e+01
4.790051e+01	-1.205706e+01
4.817719e+01	-1.210375e+01
4.845545e+01	-1.215149e+01
4.873533e+01	-1.219750e+01
4.901682e+01	-1.224494e+01
4.929994e+01	-1.229242e+01
4.958470e+01	-1.233903e+01
4.987110e+01	-1.238639e+01
5.015915e+01	-1.243325e+01
5.044887e+01	-1.248062e+01
5.074026e+01	-1.252820e+01
5.103333e+01	-1.257542e+01
5.132810e+01	-1.262266e+01
5.162457e+01	-1.267045e+01
5.192275e+01	-1.271702e+01
5.222265e+01	-1.276449e+01
5.252429e+01	-1.281218e+01
5.282767e+01	-1.285949e+01
5.313280e+01	-1.290693e+01
5.343969e+01	-1.295426e+01
5.374836e+01	-1.300171e+01
5.405880e+01	-1.304921e+01
5.437105e+01	-1.309690e+01
5.468509e+01	-1.314458e+01
5.500095e+01	-1.319232e+01
5.531863e+01	-1.323963e+01
5.563815e+01	-1.328682e+01
5.595951e+01	-1.333477e+01
5.628273e+01	-1.338329e+01
5.660782e+01	-1.343050e+01
5.693479e+01	-1.347828e+01
5.726364e+01	-1.352560e+01
5.759439e+01	-1.357311e+01
5.792705e+01	-1.362147e+01
5.826164e+01	-1.366989e+01
5.859815e+01	-1.371734e+01
5.893662e+01	-1.376508e+01
5.927703e+01	-1.381313e+01
5.961941e+01	-1.386099e+01
5.996377e+01	-1.390936e+01
6.031012e+01	-1.395728e+01
6.065847e+01	-1.400590e+01
6.100883e+01	-1.405316e+01
6.136121e+01	-1.410140e+01
6.171563e+01	-1.414984e+01
6.207210e+01	-1.419777e+01
6.243063e+01	-1.424593e+01
6.279122e+01	-1.429409e+01
6.315390e+01	-1.434219e+01
6.351868e+01	-1.439093e+01
6.388556e+01	-1.443944e+01
6.425456e+01	-1.448650e+01
6.462569e+01	-1.453458e+01
6.499897e+01	-1.458372e+01
6.537440e+01	-1.462998e+01
6.575200e+01	-1.467987e+01
6.613178e+01	-1.472838e+01
6.651375e+01	-1.477682e+01
6.689793e+01	-1.482405e+01
6.728433e+01	-1.487330e+01
6.767297e+01	-1.492124e+01
6.806384e+01	-1.497078e+01
6.845698e+01	-1.501825e+01
6.885238e+01	-1.506710e+01
6.925007e+01	-1.511554e+01
6.965005e+01	-1.516372e+01
7.005235e+01	-1.521247e+01
7.045697e+01	-1.526053e+01
7.086393e+01	-1.530918e+01
7.127323e+01	-1.535771e+01
7.168490e+01	-1.540708e+01
7.209895e+01	-1.545504e+01
7.251539e+01	-1.550452e+01
7.293424e+01	-1.555262e+01
7.335551e+01	-1.560023e+01
7.377920e+01	-1.564961e+01
7.420535e+01	-1.569913e+01
7.463396e+01	-1.574699e+01
7.506504e+01	-1.579520e+01
7.549861e+01	-1.584457e+01
7.593469e+01	-1.589231e+01
7.637328e+01	-1.594189e+01
7.681441e+01	-1.599081e+01
7.725809e+01	-1.603971e+01
7.770433e+01	-1.608942e+01
7.815315e+01	-1.613673e+01
7.860456e+01	-1.618657e+01
7.905857e+01	-1.623508e+01
7.951521e+01	-1.628315e+01
7.997449e+01	-1.633278e+01
8.043642e+01	-1.638104e+01
8.090102e+01	-1.643035e+01
8.136830e+01	-1.647954e+01
8.183828e+01	-1.652859e+01
8.231097e+01	-1.657643e+01
8.278640e+01	-1.662563e+01
8.326457e+01	-1.667558e+01
8.374550e+01	-1.672322e+01
8.422921e+01	-1.677295e+01
8.471572e+01	-1.682154e+01
8.520503e+01	-1.687038e+01
8.569717e+01	-1.692122e+01
8.619215e+01	-1.696933e+01
8.669000e+01	-1.701780e+01
8.719071e+01	-1.706863e+01
8.769432e+01	-1.711579e+01
8.820084e+01	-1.716452e+01
8.871029e+01	-1.721330e+01
8.922267e+01	-1.726307e+01
8.973802e+01	-1.731197e+01
9.025634e+01	-1.736207e+01
9.077766e+01	-1.740965e+01
9.130199e+01	-1.745979e+01
9.182935e+01	-1.750849e+01
9.235975e+01	-1.755887e+01
9.289321e+01	-1.760691e+01
9.342976e+01	-1.765683e+01
9.396941e+01	-1.770464e+01
9.451217e+01	-1.775558e+01
9.505807e+01	-1.780365e+01
9.560712e+01	-1.785310e+01
9.615934e+01	-1.790150e+01
9.671476e+01	-1.795202e+01
9.727338e+01	-1.800161e+01
9.783522e+01	-1.805113e+01
9.840032e+01	-1.809917e+01
9.896867e+01	-1.814926e+01
9.954031e+01	-1.819794e+01
1.001153e+02	-1.824777e+01
1.006935e+02	-1.829600e+01
1.012751e+02	-1.834533e+01
1.018601e+02	-1.839475e+01
1.024484e+02	-1.844288e+01
1.030402e+02	-1.849333e+01
1.036353e+02	-1.854273e+01
1.042339e+02	-1.859358e+01
1.048360e+02	-1.864136e+01
1.054415e+02	-1.869061e+01
1.060505e+02	-1.874021e+01
1.066631e+02	-1.878936e+01
1.072791e+02	-1.883842e+01
1.078988e+02	-1.888838e+01
1.085220e+02	-1.893751e+01
1.091488e+02	-1.898690e+01
1.097793e+02	-1.903576e+01
1.104133e+02	-1.908571e+01
1.110511e+02	-1.913524e+01
1.116925e+02	-1.918483e+01
1.123376e+02	-1.923452e+01
1.129865e+02	-1.928339e+01
1.136391e+02	-1.933300e+01
1.142955e+02	-1.938164e+01
1.149556e+02	-1.943293e+01
1.156196e+02	-1.948270e+01
1.162874e+02	-1.953056e+01
1.169591e+02	-1.958084e+01
1.176347e+02	-1.963004e+01
1.183141e+02	-1.967984e+01
1.189975e+02	-1.972949e+01
1.196848e+02	-1.977799e+01
1.203761e+02	-1.982892e+01
1.210714e+02	-1.987691e+01
1.217707e+02	-1.992761e+01
1.224740e+02	-1.997649e+01
1.231814e+02	-2.002776e+01
1.238929e+02	-2.007620e+01
1.246085e+02	-2.012472e+01
1.253283e+02	-2.017459e+01
1.260522e+02	-2.022376e+01
1.267802e+02	-2.027284e+01
1.275125e+02	-2.032352e+01
1.282490e+02	-2.037344e+01
1.289898e+02	-2.042174e+01
1.297348e+02	-2.047195e+01
1.304842e+02	-2.052214e+01
1.312378e+02	-2.057123e+01
1.319959e+02	-2.061998e+01
1.327583e+02	-2.067139e+01
1.335251e+02	-2.072021e+01
1.342963e+02	-2.076947e+01
1.350720e+02	-2.081784e+01
1.358522e+02	-2.086991e+01
1.366368e+02	-2.091980e+01
1.374260e+02	-2.096713e+01
1.382198e+02	-2.101807e+01
1.390182e+02	-2.106519e+01
1.398211e+02	-2.111650e+01
1.406287e+02	-2.116978e+01
1.414410e+02	-2.121624e+01
1.422579e+02	-2.126601e+01
1.430796e+02	-2.131686e+01
1.439060e+02	-2.136614e+01
1.447372e+02	-2.141532e+01
1.455732e+02	-2.146491e+01
1.464141e+02	-2.151506e+01
1.472597e+02	-2.156479e+01
1.481103e+02	-2.161583e+01
1.489658e+02	-2.166342e+01
1.498262e+02	-2.171491e+01
1.506916e+02	-2.176388e+01
1.515620e+02	-2.181168e+01
1.524374e+02	-2.186299e+01
1.533179e+02	-2.191290e+01
1.542034e+02	-2.196366e+01
1.550941e+02	-2.201129e+01
1.559899e+02	-2.206188e+01
1.568909e+02	-2.210893e+01
1.577971e+02	-2.216077e+01
1.587085e+02	-2.221047e+01
1.596252e+02	-2.226232e+01
1.605472e+02	-2.230996e+01
1.614745e+02	-2.236159e+01
1.624072e+02	-2.240898e+01
1.633453e+02	-2.246054e+01
1.642887e+02	-2.250989e+01
1.652377e+02	-2.255734e+01
1.661921e+02	-2.260836e+01
1.671520e+02	-2.265890e+01
1.681175e+02	-2.270857e+01
1.690885e+02	-2.275776e+01
1.700651e+02	-2.280818e+01
1.710474e+02	-2.285609e+01
1.720354e+02	-2.290985e+01
1.730291e+02	-2.295822e+01
1.740285e+02	-2.300660e+01
1.750337e+02	-2.305785e+01
1.760446e+02	-2.310521e+01
1.770615e+02	-2.315688e+01
1.780842e+02	-2.320790e+01
1.791128e+02	-2.325505e+01
1.801473e+02	-2.330655e+01
1.811878e+02	-2.335410e+01
1.822344e+02	-2.340728e+01
1.832870e+02	-2.345543e+01
1.843456e+02	-2.350659e+01
1.854104e+02	-2.355495e+01
1.864813e+02	-2.360406e+01
1.875584e+02	-2.365271e+01
1.886418e+02	-2.370645e+01
1.897313e+02	-2.375496e+01
1.908272e+02	-2.380532e+01
1.919294e+02	-2.385010e+01
1.930380e+02	-2.390580e+01
1.941530e+02	-2.395201e+01
1.952744e+02	-2.400333e+01
1.964023e+02	-2.405264e+01
1.975367e+02	-2.410527e+01
1.986777e+02	-2.415244e+01
1.998252e+02	-2.420477e+01
2.009794e+02	-2.425219e+01
2.021403e+02	-2.430259e+01
2.033078e+02	-2.435226e+01
2.044821e+02	-2.440220e+01
2.056632e+02	-2.445373e+01
2.068511e+02	-2.450174e+01
2.080459e+02	-2.455271e+01
2.092475e+02	-2.460134e+01
2.104561e+02	-2.465158e+01
2.116717e+02	-2.470325e+01
2.128943e+02	-2.475193e+01
2.141240e+02	-2.480391e+01
2.153608e+02	-2.485244e+01
2.166047e+02	-2.490202e+01
2.178558e+02	-2.495008e+01
2.191141e+02	-2.500409e+01
2.203797e+02	-2.504995e+01
2.216526e+02	-2.510305e+01
2.229329e+02	-2.515118e+01
2.242205e+02	-2.519989e+01
2.255156e+02	-2.525077e+01
2.268182e+02	-2.530131e+01
2.281283e+02	-2.535039e+01
2.294459e+02	-2.540286e+01
2.307712e+02	-2.544856e+01
2.321041e+02	-2.550341e+01
2.334447e+02	-2.554920e+01
2.347931e+02	-2.559828e+01
2.361493e+02	-2.565286e+01
2.375133e+02	-2.570074e+01
2.388851e+02	-2.574923e+01
2.402649e+02	-2.580302e+01
2.416527e+02	-2.584872e+01
2.430484e+02	-2.590019e+01
2.444523e+02	-2.595095e+01
2.458642e+02	-2.600229e+01
2.472843e+02	-2.604910e+01
2.487126e+02	-2.609661e+01
2.501492e+02	-2.615007e+01
2.515940e+02	-2.620093e+01
2.530472e+02	-2.624945e+01
2.545088e+02	-2.630206e+01
2.559789e+02	-2.634945e+01
2.574574e+02	-2.639637e+01
2.589444e+02	-2.645106e+01
2.604401e+02	-2.649962e+01
2.619444e+02	-2.654715e+01
2.634574e+02	-2.659927e+01
2.649791e+02	-2.665041e+01
2.665096e+02	-2.669694e+01
2.680489e+02	-2.674970e+01
2.695972e+02	-2.680144e+01
2.711544e+02	-2.685086e+01
2.727205e+02	-2.689820e+01
2.742958e+02	-2.694529e+01
2.758801e+02	-2.699943e+01
2.774736e+02	-2.704951e+01
2.790762e+02	-2.709910e+01
2.806882e+02	-2.715285e+01
2.823094e+02	-2.719780e+01
2.839400e+02	-2.724918e+01
2.855800e+02	-2.729830e+01
2.872295e+02	-2.735105e+01
2.888886e+02	-2.739736e+01
2.905572e+02	-2.745108e+01
2.922354e+02	-2.749707e+01
2.939234e+02	-2.754699e+01
2.956211e+02	-2.759741e+01
2.973286e+02	-2.765161e+01
2.990459e+02	-2.770176e+01
3.007732e+02	-2.775147e+01
3.025104e+02	-2.780119e+01
3.042577e+02	-2.784560e+01
3.060151e+02	-2.790096e+01
3.077826e+02	-2.794787e+01
3.095604e+02	-2.799999e+01
3.113484e+02	-2.804723e+01
3.131467e+02	-2.809748e+01
3.149554e+02	-2.814627e+01
3.167746e+02	-2.819668e+01
3.186043e+02	-2.825041e+01
3.204445e+02	-2.829989e+01
3.222954e+02	-2.835059e+01
3.241570e+02	-2.840076e+01
3.260293e+02	-2.845154e+01
3.279124e+02	-2.850032e+01
3.298064e+02	-2.854834e+01
3.317114e+02	-2.859628e+01
3.336273e+02	-2.865226e+01
3.355544e+02	-2.870026e+01
3.374925e+02	-2.875457e+01
3.394418e+02	-2.880021e+01
3.414024e+02	-2.885006e+01
3.433744e+02	-2.890013e+01
3.453577e+02	-2.894841e+01
3.473525e+02	-2.900087e+01
3.493588e+02	-2.904844e+01
3.513766e+02	-2.909494e+01
3.534062e+02	-2.915454e+01
3.554474e+02	-2.920027e+01
3.575005e+02	-2.924975e+01
3.595654e+02	-2.930154e+01
3.616422e+02	-2.934507e+01
3.637311e+02	-2.940059e+01
3.658320e+02	-2.944891e+01
3.679450e+02	-2.950065e+01
3.700702e+02	-2.955556e+01
3.722077e+02	-2.960335e+01
3.743576e+02	-2.965358e+01
3.765199e+02	-2.970407e+01
3.786946e+02	-2.975205e+01
3.808820e+02	-2.980339e+01
3.830819e+02	-2.985159e+01
3.852946e+02	-2.990619e+01
3.875200e+02	-2.995339e+01
3.897583e+02	-3.000384e+01
3.920096e+02	-3.005308e+01
3.942738e+02	-3.010603e+01
3.965511e+02	-3.015005e+01
3.988416e+02	-3.019722e+01
4.011452e+02	-3.024895e+01
4.034622e+02	-3.030301e+01
4.057926e+02	-3.035315e+01
4.081365e+02	-3.040213e+01
4.104938e+02	-3.045066e+01
4.128648e+02	-3.050436e+01
4.152495e+02	-3.055220e+01
4.176480e+02	-3.059970e+01
4.200603e+02	-3.065389e+01
4.224866e+02	-3.070262e+01
4.249268e+02	-3.075194e+01
4.273812e+02	-3.080093e+01
4.298497e+02	-3.085140e+01
4.323325e+02	-3.090529e+01
4.348297e+02	-3.095496e+01
4.373412e+02	-3.100848e+01
4.398673e+02	-3.105585e+01
4.424079e+02	-3.110731e+01
4.449633e+02	-3.115049e+01
4.475334e+02	-3.120384e+01
4.501183e+02	-3.125423e+01
4.527182e+02	-3.130142e+01
4.553330e+02	-3.135100e+01
4.579630e+02	-3.139718e+01
4.606082e+02	-3.145891e+01
4.632687e+02	-3.150241e+01
4.659445e+02	-3.155614e+01
4.686358e+02	-3.160202e+01
4.713426e+02	-3.165247e+01
4.740650e+02	-3.171417e+01
4.768032e+02	-3.175067e+01
4.795572e+02	-3.180619e+01
4.823271e+02	-3.185810e+01
4.851130e+02	-3.190403e+01
4.879150e+02	-3.195730e+01
4.907332e+02	-3.200417e+01
4.935676e+02	-3.205542e+01
4.964185e+02	-3.210788e+01
4.992858e+02	-3.216006e+01
5.021696e+02	-3.221179e+01
5.050701e+02	-3.225843e+01
5.079874e+02	-3.229808e+01
5.109215e+02	-3.236008e+01
5.138726e+02	-3.240632e+01
5.168407e+02	-3.245249e+01
5.198259e+02	-3.250862e+01
5.228284e+02	-3.255923e+01
5.258482e+02	-3.260635e+01
5.288855e+02	-3.265706e+01
5.319403e+02	-3.270910e+01
5.350128e+02	-3.275296e+01
5.381030e+02	-3.280705e+01
5.412111e+02	-3.285787e+01
5.443371e+02	-3.290771e+01
5.474812e+02	-3.295693e+01
5.506434e+02	-3.300713e+01
5.538239e+02	-3.306320e+01
5.570228e+02	-3.311290e+01
5.602401e+02	-3.315785e+01
5.634760e+02	-3.321710e+01
5.667306e+02	-3.326117e+01
5.700040e+02	-3.331494e+01
5.732964e+02	-3.336911e+01
5.766077e+02	-3.340954e+01
5.799382e+02	-3.346324e+01
5.832879e+02	-3.351147e+01
5.866569e+02	-3.355944e+01
5.900454e+02	-3.361313e+01
5.934535e+02	-3.366697e+01
5.968813e+02	-3.371248e+01
6.003288e+02	-3.375798e+01
6.037963e+02	-3.381512e+01
6.072838e+02	-3.386314e+01
6.107914e+02	-3.391862e+01
6.143194e+02	-3.396751e+01
6.178676e+02	-3.401269e+01
6.214364e+02	-3.406147e+01
6.250258e+02	-3.410708e+01
6.286359e+02	-3.416133e+01
6.322669e+02	-3.421930e+01
6.359189e+02	-3.426989e+01
6.395919e+02	-3.432277e+01
6.432862e+02	-3.437784e+01
6.470017e+02	-3.441891e+01
6.507388e+02	-3.446569e+01
6.544974e+02	-3.451787e+01
6.582778e+02	-3.456834e+01
6.620800e+02	-3.461957e+01
6.659041e+02	-3.467639e+01
6.697504e+02	-3.471993e+01
6.736188e+02	-3.478159e+01
6.775096e+02	-3.482253e+01
6.814229e+02	-3.487443e+01
6.853587e+02	-3.492259e+01
6.893173e+02	-3.497192e+01
6.932988e+02	-3.501574e+01
6.973033e+02	-3.507770e+01
7.013309e+02	-3.513041e+01
