Frequency(Hz)	Magnitude(dB)
1.000000e+01	-1.565952e-05
1.005776e+01	-1.584094e-05
1.011585e+01	-1.602446e-05
1.017428e+01	-1.621011e-05
1.023305e+01	-1.639791e-05
1.029215e+01	-1.658788e-05
1.035160e+01	-1.678006e-05
1.041139e+01	-1.697446e-05
1.047153e+01	-1.717111e-05
1.053201e+01	-1.737005e-05
1.059284e+01	-1.757128e-05
1.065403e+01	-1.777485e-05
1.071556e+01	-1.798078e-05
1.077746e+01	-1.818909e-05
1.083971e+01	-1.839981e-05
1.090232e+01	-1.861298e-05
1.096529e+01	-1.882862e-05
1.102862e+01	-1.904675e-05
1.109232e+01	-1.926741e-05
1.115639e+01	-1.949063e-05
1.122083e+01	-1.971643e-05
1.128564e+01	-1.994485e-05
1.135083e+01	-2.017592e-05
1.141639e+01	-2.040966e-05
1.148233e+01	-2.064611e-05
1.154865e+01	-2.088530e-05
1.161536e+01	-2.112727e-05
1.168245e+01	-2.137203e-05
1.174992e+01	-2.161963e-05
1.181779e+01	-2.187010e-05
1.188605e+01	-2.212347e-05
1.195470e+01	-2.237978e-05
1.202375e+01	-2.263905e-05
1.209320e+01	-2.290133e-05
1.216305e+01	-2.316665e-05
1.223330e+01	-2.343504e-05
1.230396e+01	-2.370654e-05
1.237503e+01	-2.398119e-05
1.244651e+01	-2.425902e-05
1.251840e+01	-2.454006e-05
1.259070e+01	-2.482436e-05
1.266343e+01	-2.511196e-05
1.273657e+01	-2.540289e-05
1.281014e+01	-2.569719e-05
1.288413e+01	-2.599490e-05
1.295855e+01	-2.629605e-05
1.303339e+01	-2.660070e-05
1.310867e+01	-2.690888e-05
1.318439e+01	-2.722062e-05
1.326054e+01	-2.753598e-05
1.333713e+01	-2.785499e-05
1.341417e+01	-2.817770e-05
1.349165e+01	-2.850414e-05
1.356958e+01	-2.883437e-05
1.364795e+01	-2.916842e-05
1.372678e+01	-2.950635e-05
1.380607e+01	-2.984818e-05
1.388581e+01	-3.019398e-05
1.396602e+01	-3.054379e-05
1.404668e+01	-3.089764e-05
1.412782e+01	-3.125560e-05
1.420942e+01	-3.161770e-05
1.429149e+01	-3.198400e-05
1.437404e+01	-3.235454e-05
1.445706e+01	-3.272938e-05
1.454057e+01	-3.310856e-05
1.462455e+01	-3.349213e-05
1.470902e+01	-3.388014e-05
1.479398e+01	-3.427265e-05
1.487943e+01	-3.466971e-05
1.496537e+01	-3.507136e-05
1.505181e+01	-3.547767e-05
1.513875e+01	-3.588869e-05
1.522619e+01	-3.630447e-05
1.531414e+01	-3.672507e-05
1.540259e+01	-3.715053e-05
1.549156e+01	-3.758093e-05
1.558103e+01	-3.801632e-05
1.567103e+01	-3.845674e-05
1.576155e+01	-3.890227e-05
1.585258e+01	-3.935296e-05
1.594415e+01	-3.980888e-05
1.603624e+01	-4.027007e-05
1.612886e+01	-4.073661e-05
1.622202e+01	-4.120855e-05
1.631572e+01	-4.168596e-05
1.640996e+01	-4.216891e-05
1.650474e+01	-4.265744e-05
1.660008e+01	-4.315164e-05
1.669596e+01	-4.365156e-05
1.679239e+01	-4.415727e-05
1.688938e+01	-4.466884e-05
1.698694e+01	-4.518634e-05
1.708505e+01	-4.570984e-05
1.718373e+01	-4.623939e-05
1.728299e+01	-4.677509e-05
1.738281e+01	-4.731699e-05
1.748322e+01	-4.786516e-05
1.758420e+01	-4.841969e-05
1.768576e+01	-4.898064e-05
1.778792e+01	-4.954810e-05
1.789066e+01	-5.012212e-05
1.799399e+01	-5.070280e-05
1.809793e+01	-5.129020e-05
1.820246e+01	-5.188441e-05
1.830760e+01	-5.248550e-05
1.841334e+01	-5.309355e-05
1.851969e+01	-5.370865e-05
1.862666e+01	-5.433088e-05
1.873425e+01	-5.496031e-05
1.884246e+01	-5.559704e-05
1.895129e+01	-5.624114e-05
1.906075e+01	-5.689271e-05
1.917085e+01	-5.755182e-05
1.928158e+01	-5.821857e-05
1.939295e+01	-5.889305e-05
1.950496e+01	-5.957533e-05
1.961762e+01	-6.026553e-05
1.973093e+01	-6.096371e-05
1.984490e+01	-6.166999e-05
1.995952e+01	-6.238445e-05
2.007480e+01	-6.310719e-05
2.019076e+01	-6.383829e-05
2.030738e+01	-6.457787e-05
2.042467e+01	-6.532602e-05
2.054264e+01	-6.608284e-05
2.066130e+01	-6.684842e-05
2.078064e+01	-6.762287e-05
2.090066e+01	-6.840629e-05
2.102139e+01	-6.919879e-05
2.114280e+01	-7.000047e-05
2.126492e+01	-7.081144e-05
2.138775e+01	-7.163181e-05
2.151128e+01	-7.246167e-05
2.163553e+01	-7.330116e-05
2.176050e+01	-7.415036e-05
2.188619e+01	-7.500941e-05
2.201260e+01	-7.587841e-05
2.213974e+01	-7.675747e-05
2.226762e+01	-7.764672e-05
2.239624e+01	-7.854627e-05
2.252560e+01	-7.945624e-05
2.265571e+01	-8.037676e-05
2.278656e+01	-8.130793e-05
2.291818e+01	-8.224990e-05
2.305055e+01	-8.320278e-05
2.318369e+01	-8.416670e-05
2.331760e+01	-8.514178e-05
2.345228e+01	-8.612816e-05
2.358774e+01	-8.712597e-05
2.372398e+01	-8.813534e-05
2.386101e+01	-8.915640e-05
2.399883e+01	-9.018929e-05
2.413745e+01	-9.123415e-05
2.427686e+01	-9.229111e-05
2.441709e+01	-9.336032e-05
2.455812e+01	-9.444191e-05
2.469997e+01	-9.553604e-05
2.484263e+01	-9.664284e-05
2.498612e+01	-9.776246e-05
2.513044e+01	-9.889505e-05
2.527559e+01	-1.000408e-04
2.542158e+01	-1.011998e-04
2.556842e+01	-1.023722e-04
2.571610e+01	-1.035582e-04
2.586463e+01	-1.047579e-04
2.601403e+01	-1.059715e-04
2.616428e+01	-1.071992e-04
2.631541e+01	-1.084411e-04
2.646740e+01	-1.096974e-04
2.662028e+01	-1.109683e-04
2.677404e+01	-1.122539e-04
2.692868e+01	-1.135544e-04
2.708422e+01	-1.148699e-04
2.724066e+01	-1.162007e-04
2.739800e+01	-1.175469e-04
2.755625e+01	-1.189087e-04
2.771541e+01	-1.202863e-04
2.787550e+01	-1.216798e-04
2.803650e+01	-1.230895e-04
2.819844e+01	-1.245155e-04
2.836131e+01	-1.259580e-04
2.852513e+01	-1.274172e-04
2.868989e+01	-1.288934e-04
2.885560e+01	-1.303866e-04
2.902227e+01	-1.318972e-04
2.918990e+01	-1.334252e-04
2.935850e+01	-1.349709e-04
2.952807e+01	-1.365346e-04
2.969863e+01	-1.381164e-04
2.987016e+01	-1.397165e-04
3.004269e+01	-1.413351e-04
3.021622e+01	-1.429725e-04
3.039075e+01	-1.446288e-04
3.056628e+01	-1.463043e-04
3.074283e+01	-1.479993e-04
3.092040e+01	-1.497139e-04
3.109900e+01	-1.514483e-04
3.127862e+01	-1.532029e-04
3.145929e+01	-1.549777e-04
3.164099e+01	-1.567732e-04
3.182375e+01	-1.585894e-04
3.200756e+01	-1.604267e-04
3.219244e+01	-1.622852e-04
3.237838e+01	-1.641653e-04
3.256540e+01	-1.660672e-04
3.275349e+01	-1.679911e-04
3.294268e+01	-1.699372e-04
3.313295e+01	-1.719060e-04
3.332433e+01	-1.738975e-04
3.351681e+01	-1.759121e-04
3.371040e+01	-1.779501e-04
3.390511e+01	-1.800116e-04
3.410094e+01	-1.820971e-04
3.429791e+01	-1.842067e-04
3.449601e+01	-1.863407e-04
3.469526e+01	-1.884995e-04
3.489566e+01	-1.906832e-04
3.509721e+01	-1.928923e-04
3.529993e+01	-1.951270e-04
3.550382e+01	-1.973875e-04
3.570889e+01	-1.996743e-04
3.591515e+01	-2.019875e-04
3.612259e+01	-2.043275e-04
3.633123e+01	-2.066946e-04
3.654108e+01	-2.090892e-04
3.675214e+01	-2.115115e-04
3.696442e+01	-2.139619e-04
3.717792e+01	-2.164406e-04
3.739266e+01	-2.189481e-04
3.760864e+01	-2.214846e-04
3.782587e+01	-2.240505e-04
3.804435e+01	-2.266461e-04
3.826409e+01	-2.292718e-04
3.848510e+01	-2.319279e-04
3.870739e+01	-2.346148e-04
3.893096e+01	-2.373328e-04
3.915583e+01	-2.400823e-04
3.938199e+01	-2.428636e-04
3.960946e+01	-2.456772e-04
3.983824e+01	-2.485233e-04
4.006834e+01	-2.514024e-04
4.029978e+01	-2.543149e-04
4.053255e+01	-2.572611e-04
4.076666e+01	-2.602415e-04
4.100213e+01	-2.632564e-04
4.123896e+01	-2.663062e-04
4.147715e+01	-2.693913e-04
4.171672e+01	-2.725122e-04
4.195767e+01	-2.756692e-04
4.220002e+01	-2.788628e-04
4.244377e+01	-2.820934e-04
4.268892e+01	-2.853614e-04
4.293549e+01	-2.886673e-04
4.318348e+01	-2.920115e-04
4.343291e+01	-2.953944e-04
4.368377e+01	-2.988165e-04
4.393609e+01	-3.022783e-04
4.418986e+01	-3.057801e-04
4.444510e+01	-3.093226e-04
4.470182e+01	-3.129060e-04
4.496001e+01	-3.165310e-04
4.521970e+01	-3.201980e-04
4.548089e+01	-3.239074e-04
4.574358e+01	-3.276598e-04
4.600779e+01	-3.314557e-04
4.627353e+01	-3.352956e-04
4.654081e+01	-3.391799e-04
4.680963e+01	-3.431092e-04
4.708000e+01	-3.470841e-04
4.735193e+01	-3.511050e-04
4.762543e+01	-3.551725e-04
4.790051e+01	-3.592871e-04
4.817719e+01	-3.634493e-04
4.845545e+01	-3.676598e-04
4.873533e+01	-3.719191e-04
4.901682e+01	-3.762277e-04
4.929994e+01	-3.805862e-04
4.958470e+01	-3.849952e-04
4.987110e+01	-3.894553e-04
5.015915e+01	-3.939670e-04
5.044887e+01	-3.985310e-04
5.074026e+01	-4.031479e-04
5.103333e+01	-4.078183e-04
5.132810e+01	-4.125427e-04
5.162457e+01	-4.173219e-04
5.192275e+01	-4.221565e-04
5.222265e+01	-4.270470e-04
5.252429e+01	-4.319942e-04
5.282767e+01	-4.369988e-04
5.313280e+01	-4.420613e-04
5.343969e+01	-4.471824e-04
5.374836e+01	-4.523629e-04
5.405880e+01	-4.576033e-04
5.437105e+01	-4.629045e-04
5.468509e+01	-4.682671e-04
5.500095e+01	-4.736918e-04
5.531863e+01	-4.791794e-04
5.563815e+01	-4.847305e-04
5.595951e+01	-4.903459e-04
5.628273e+01	-4.960264e-04
5.660782e+01	-5.017726e-04
5.693479e+01	-5.075855e-04
5.726364e+01	-5.134656e-04
5.759439e+01	-5.194139e-04
5.792705e+01	-5.254311e-04
5.826164e+01	-5.315180e-04
5.859815e+01	-5.376754e-04
5.893662e+01	-5.439041e-04
5.927703e+01	-5.502050e-04
5.961941e+01	-5.565789e-04
5.996377e+01	-5.630266e-04
6.031012e+01	-5.695490e-04
6.065847e+01	-5.761469e-04
6.100883e+01	-5.828213e-04
6.136121e+01	-5.895730e-04
6.171563e+01	-5.964029e-04
6.207210e+01	-6.033119e-04
6.243063e+01	-6.103009e-04
6.279122e+01	-6.173709e-04
6.315390e+01	-6.245228e-04
6.351868e+01	-6.317576e-04
6.388556e+01	-6.390761e-04
6.425456e+01	-6.464794e-04
6.462569e+01	-6.539685e-04
6.499897e+01	-6.615443e-04
6.537440e+01	-6.692079e-04
6.575200e+01	-6.769603e-04
6.613178e+01	-6.848024e-04
6.651375e+01	-6.927354e-04
6.689793e+01	-7.007603e-04
6.728433e+01	-7.088781e-04
6.767297e+01	-7.170900e-04
6.806384e+01	-7.253970e-04
6.845698e+01	-7.338002e-04
6.885238e+01	-7.423008e-04
6.925007e+01	-7.508998e-04
6.965005e+01	-7.595984e-04
7.005235e+01	-7.683978e-04
7.045697e+01	-7.772991e-04
7.086393e+01	-7.863035e-04
7.127323e+01	-7.954122e-04
7.168490e+01	-8.046264e-04
7.209895e+01	-8.139474e-04
7.251539e+01	-8.233763e-04
7.293424e+01	-8.329144e-04
7.335551e+01	-8.425630e-04
7.377920e+01	-8.523234e-04
7.420535e+01	-8.621968e-04
7.463396e+01	-8.721846e-04
7.506504e+01	-8.822880e-04
7.549861e+01	-8.925085e-04
7.593469e+01	-9.028474e-04
7.637328e+01	-9.133060e-04
7.681441e+01	-9.238858e-04
7.725809e+01	-9.345881e-04
7.770433e+01	-9.454144e-04
7.815315e+01	-9.563661e-04
7.860456e+01	-9.674446e-04
7.905857e+01	-9.786515e-04
7.951521e+01	-9.899881e-04
7.997449e+01	-1.001456e-03
8.043642e+01	-1.013057e-03
8.090102e+01	-1.024792e-03
8.136830e+01	-1.036663e-03
8.183828e+01	-1.048672e-03
8.231097e+01	-1.060819e-03
8.278640e+01	-1.073108e-03
8.326457e+01	-1.085538e-03
8.374550e+01	-1.098113e-03
8.422921e+01	-1.110833e-03
8.471572e+01	-1.123701e-03
8.520503e+01	-1.136718e-03
8.569717e+01	-1.149885e-03
8.619215e+01	-1.163205e-03
8.669000e+01	-1.176679e-03
8.719071e+01	-1.190310e-03
8.769432e+01	-1.204098e-03
8.820084e+01	-1.218046e-03
8.871029e+01	-1.232155e-03
8.922267e+01	-1.246428e-03
8.973802e+01	-1.260866e-03
9.025634e+01	-1.275471e-03
9.077766e+01	-1.290246e-03
9.130199e+01	-1.305191e-03
9.182935e+01	-1.320310e-03
9.235975e+01	-1.335604e-03
9.289321e+01	-1.351075e-03
9.342976e+01	-1.366725e-03
9.396941e+01	-1.382556e-03
9.451217e+01	-1.398571e-03
9.505807e+01	-1.414771e-03
9.560712e+01	-1.431159e-03
9.615934e+01	-1.447736e-03
9.671476e+01	-1.464506e-03
9.727338e+01	-1.481470e-03
9.783522e+01	-1.498630e-03
9.840032e+01	-1.515989e-03
9.896867e+01	-1.533549e-03
9.954031e+01	-1.551312e-03
1.001153e+02	-1.569282e-03
1.006935e+02	-1.587459e-03
1.012751e+02	-1.605847e-03
1.018601e+02	-1.624447e-03
1.024484e+02	-1.643263e-03
1.030402e+02	-1.662297e-03
1.036353e+02	-1.681552e-03
1.042339e+02	-1.701029e-03
1.048360e+02	-1.720732e-03
1.054415e+02	-1.740663e-03
1.060505e+02	-1.760825e-03
1.066631e+02	-1.781221e-03
1.072791e+02	-1.801852e-03
1.078988e+02	-1.822723e-03
1.085220e+02	-1.843835e-03
1.091488e+02	-1.865192e-03
1.097793e+02	-1.886796e-03
1.104133e+02	-1.908650e-03
1.110511e+02	-1.930757e-03
1.116925e+02	-1.953121e-03
1.123376e+02	-1.975743e-03
1.129865e+02	-1.998627e-03
1.136391e+02	-2.021776e-03
1.142955e+02	-2.045194e-03
1.149556e+02	-2.068882e-03
1.156196e+02	-2.092845e-03
1.162874e+02	-2.117085e-03
1.169591e+02	-2.141606e-03
1.176347e+02	-2.166411e-03
1.183141e+02	-2.191503e-03
1.189975e+02	-2.216886e-03
1.196848e+02	-2.242562e-03
1.203761e+02	-2.268536e-03
1.210714e+02	-2.294811e-03
1.217707e+02	-2.321390e-03
1.224740e+02	-2.348276e-03
1.231814e+02	-2.375474e-03
1.238929e+02	-2.402987e-03
1.246085e+02	-2.430819e-03
1.253283e+02	-2.458972e-03
1.260522e+02	-2.487452e-03
1.267802e+02	-2.516262e-03
1.275125e+02	-2.545405e-03
1.282490e+02	-2.574885e-03
1.289898e+02	-2.604707e-03
1.297348e+02	-2.634874e-03
1.304842e+02	-2.665390e-03
1.312378e+02	-2.696260e-03
1.319959e+02	-2.727487e-03
1.327583e+02	-2.759075e-03
1.335251e+02	-2.791030e-03
1.342963e+02	-2.823354e-03
1.350720e+02	-2.856053e-03
1.358522e+02	-2.889130e-03
1.366368e+02	-2.922590e-03
1.374260e+02	-2.956437e-03
1.382198e+02	-2.990676e-03
1.390182e+02	-3.025312e-03
1.398211e+02	-3.060349e-03
1.406287e+02	-3.095791e-03
1.414410e+02	-3.131644e-03
1.422579e+02	-3.167911e-03
1.430796e+02	-3.204599e-03
1.439060e+02	-3.241711e-03
1.447372e+02	-3.279253e-03
1.455732e+02	-3.317229e-03
1.464141e+02	-3.355646e-03
1.472597e+02	-3.394506e-03
1.481103e+02	-3.433817e-03
1.489658e+02	-3.473583e-03
1.498262e+02	-3.513809e-03
1.506916e+02	-3.554500e-03
1.515620e+02	-3.595663e-03
1.524374e+02	-3.637302e-03
1.533179e+02	-3.679424e-03
1.542034e+02	-3.722032e-03
1.550941e+02	-3.765134e-03
1.559899e+02	-3.808735e-03
1.568909e+02	-3.852841e-03
1.577971e+02	-3.897457e-03
1.587085e+02	-3.942589e-03
1.596252e+02	-3.988244e-03
1.605472e+02	-4.034428e-03
1.614745e+02	-4.081146e-03
1.624072e+02	-4.128404e-03
1.633453e+02	-4.176210e-03
1.642887e+02	-4.224569e-03
1.652377e+02	-4.273487e-03
1.661921e+02	-4.322972e-03
1.671520e+02	-4.373030e-03
1.681175e+02	-4.423666e-03
1.690885e+02	-4.474889e-03
1.700651e+02	-4.526705e-03
1.710474e+02	-4.579120e-03
1.720354e+02	-4.632142e-03
1.730291e+02	-4.685778e-03
1.740285e+02	-4.740034e-03
1.750337e+02	-4.794918e-03
1.760446e+02	-4.850437e-03
1.770615e+02	-4.906599e-03
1.780842e+02	-4.963411e-03
1.791128e+02	-5.020880e-03
1.801473e+02	-5.079014e-03
1.811878e+02	-5.137821e-03
1.822344e+02	-5.197308e-03
1.832870e+02	-5.257484e-03
1.843456e+02	-5.318355e-03
1.854104e+02	-5.379932e-03
1.864813e+02	-5.442220e-03
1.875584e+02	-5.505230e-03
1.886418e+02	-5.568968e-03
1.897313e+02	-5.633444e-03
1.908272e+02	-5.698666e-03
1.919294e+02	-5.764643e-03
1.930380e+02	-5.831383e-03
1.941530e+02	-5.898895e-03
1.952744e+02	-5.967188e-03
1.964023e+02	-6.036271e-03
1.975367e+02	-6.106154e-03
1.986777e+02	-6.176845e-03
1.998252e+02	-6.248353e-03
2.009794e+02	-6.320689e-03
2.021403e+02	-6.393862e-03
2.033078e+02	-6.467881e-03
2.044821e+02	-6.542757e-03
2.056632e+02	-6.618498e-03
2.068511e+02	-6.695116e-03
2.080459e+02	-6.772620e-03
2.092475e+02	-6.851020e-03
2.104561e+02	-6.930328e-03
2.116717e+02	-7.010552e-03
2.128943e+02	-7.091705e-03
2.141240e+02	-7.173796e-03
2.153608e+02	-7.256837e-03
2.166047e+02	-7.340838e-03
2.178558e+02	-7.425810e-03
2.191141e+02	-7.511765e-03
2.203797e+02	-7.598715e-03
2.216526e+02	-7.686670e-03
2.229329e+02	-7.775642e-03
2.242205e+02	-7.865643e-03
2.255156e+02	-7.956684e-03
2.268182e+02	-8.048779e-03
2.281283e+02	-8.141938e-03
2.294459e+02	-8.236175e-03
2.307712e+02	-8.331501e-03
2.321041e+02	-8.427930e-03
2.334447e+02	-8.525473e-03
2.347931e+02	-8.624145e-03
2.361493e+02	-8.723957e-03
2.375133e+02	-8.824923e-03
2.388851e+02	-8.927057e-03
2.402649e+02	-9.030371e-03
2.416527e+02	-9.134880e-03
2.430484e+02	-9.240597e-03
2.444523e+02	-9.347536e-03
2.458642e+02	-9.455711e-03
2.472843e+02	-9.565137e-03
2.487126e+02	-9.675828e-03
2.501492e+02	-9.787798e-03
2.515940e+02	-9.901062e-03
2.530472e+02	-1.001564e-02
2.545088e+02	-1.013153e-02
2.559789e+02	-1.024877e-02
2.574574e+02	-1.036736e-02
2.589444e+02	-1.048733e-02
2.604401e+02	-1.060868e-02
2.619444e+02	-1.073143e-02
2.634574e+02	-1.085560e-02
2.649791e+02	-1.098120e-02
2.665096e+02	-1.110826e-02
2.680489e+02	-1.123678e-02
2.695972e+02	-1.136680e-02
2.711544e+02	-1.149831e-02
2.727205e+02	-1.163134e-02
2.742958e+02	-1.176591e-02
2.758801e+02	-1.190203e-02
2.774736e+02	-1.203973e-02
2.790762e+02	-1.217901e-02
2.806882e+02	-1.231991e-02
2.823094e+02	-1.246243e-02
2.839400e+02	-1.260660e-02
2.855800e+02	-1.275244e-02
2.872295e+02	-1.289996e-02
2.888886e+02	-1.304918e-02
2.905572e+02	-1.320013e-02
2.922354e+02	-1.335282e-02
2.939234e+02	-1.350728e-02
2.956211e+02	-1.366351e-02
2.973286e+02	-1.382156e-02
2.990459e+02	-1.398142e-02
3.007732e+02	-1.414314e-02
3.025104e+02	-1.430672e-02
3.042577e+02	-1.447219e-02
3.060151e+02	-1.463957e-02
3.077826e+02	-1.480888e-02
3.095604e+02	-1.498015e-02
3.113484e+02	-1.515340e-02
3.131467e+02	-1.532864e-02
3.149554e+02	-1.550591e-02
3.167746e+02	-1.568522e-02
3.186043e+02	-1.586661e-02
3.204445e+02	-1.605008e-02
3.222954e+02	-1.623568e-02
3.241570e+02	-1.642342e-02
3.260293e+02	-1.661332e-02
3.279124e+02	-1.680542e-02
3.298064e+02	-1.699973e-02
3.317114e+02	-1.719628e-02
3.336273e+02	-1.739511e-02
3.355544e+02	-1.759622e-02
3.374925e+02	-1.779966e-02
3.394418e+02	-1.800545e-02
3.414024e+02	-1.821360e-02
3.433744e+02	-1.842416e-02
3.453577e+02	-1.863715e-02
3.473525e+02	-1.885260e-02
3.493588e+02	-1.907053e-02
3.513766e+02	-1.929097e-02
3.534062e+02	-1.951396e-02
3.554474e+02	-1.973952e-02
3.575005e+02	-1.996768e-02
3.595654e+02	-2.019847e-02
3.616422e+02	-2.043192e-02
3.637311e+02	-2.066807e-02
3.658320e+02	-2.090693e-02
3.679450e+02	-2.114855e-02
3.700702e+02	-2.139296e-02
3.722077e+02	-2.164018e-02
3.743576e+02	-2.189025e-02
3.765199e+02	-2.214321e-02
3.786946e+02	-2.239908e-02
3.808820e+02	-2.265790e-02
3.830819e+02	-2.291970e-02
3.852946e+02	-2.318452e-02
3.875200e+02	-2.345239e-02
3.897583e+02	-2.372335e-02
3.920096e+02	-2.399743e-02
3.942738e+02	-2.427466e-02
3.965511e+02	-2.455509e-02
3.988416e+02	-2.483875e-02
4.011452e+02	-2.512568e-02
4.034622e+02	-2.541591e-02
4.057926e+02	-2.570949e-02
4.081365e+02	-2.600645e-02
4.104938e+02	-2.630682e-02
4.128648e+02	-2.661066e-02
4.152495e+02	-2.691799e-02
4.176480e+02	-2.722886e-02
4.200603e+02	-2.754331e-02
4.224866e+02	-2.786138e-02
4.249268e+02	-2.818311e-02
4.273812e+02	-2.850854e-02
4.298497e+02	-2.883772e-02
4.323325e+02	-2.917069e-02
4.348297e+02	-2.950748e-02
4.373412e+02	-2.984816e-02
4.398673e+02	-3.019275e-02
4.424079e+02	-3.054131e-02
4.449633e+02	-3.089387e-02
4.475334e+02	-3.125049e-02
4.501183e+02	-3.161122e-02
4.527182e+02	-3.197609e-02
4.553330e+02	-3.234516e-02
4.579630e+02	-3.271847e-02
4.606082e+02	-3.309607e-02
4.632687e+02	-3.347801e-02
4.659445e+02	-3.386435e-02
4.686358e+02	-3.425512e-02
4.713426e+02	-3.465039e-02
4.740650e+02	-3.505020e-02
4.768032e+02	-3.545460e-02
4.795572e+02	-3.586365e-02
4.823271e+02	-3.627740e-02
4.851130e+02	-3.669590e-02
4.879150e+02	-3.711921e-02
4.907332e+02	-3.754738e-02
4.935676e+02	-3.798047e-02
4.964185e+02	-3.841853e-02
4.992858e+02	-3.886162e-02
5.021696e+02	-3.930980e-02
5.050701e+02	-3.976313e-02
5.079874e+02	-4.022165e-02
5.109215e+02	-4.068544e-02
5.138726e+02	-4.115455e-02
5.168407e+02	-4.162905e-02
5.198259e+02	-4.210899e-02
5.228284e+02	-4.259443e-02
5.258482e+02	-4.308545e-02
5.288855e+02	-4.358209e-02
5.319403e+02	-4.408443e-02
5.350128e+02	-4.459253e-02
5.381030e+02	-4.510646e-02
5.412111e+02	-4.562628e-02
5.443371e+02	-4.615205e-02
5.474812e+02	-4.668386e-02
5.506434e+02	-4.722175e-02
5.538239e+02	-4.776582e-02
5.570228e+02	-4.831611e-02
5.602401e+02	-4.887271e-02
5.634760e+02	-4.943568e-02
5.667306e+02	-5.000510e-02
5.700040e+02	-5.058104e-02
5.732964e+02	-5.116358e-02
5.766077e+02	-5.175278e-02
5.799382e+02	-5.234873e-02
5.832879e+02	-5.295150e-02
5.866569e+02	-5.356117e-02
5.900454e+02	-5.417781e-02
5.934535e+02	-5.480151e-02
5.968813e+02	-5.543234e-02
6.003288e+02	-5.607038e-02
6.037963e+02	-5.671572e-02
6.072838e+02	-5.736844e-02
6.107914e+02	-5.802863e-02
6.143194e+02	-5.869635e-02
6.178676e+02	-5.937171e-02
6.214364e+02	-6.005478e-02
6.250258e+02	-6.074566e-02
6.286359e+02	-6.144443e-02
6.322669e+02	-6.215118e-02
6.359189e+02	-6.286600e-02
6.395919e+02	-6.358898e-02
6.432862e+02	-6.432021e-02
6.470017e+02	-6.505979e-02
6.507388e+02	-6.580781e-02
6.544974e+02	-6.656436e-02
6.582778e+02	-6.732955e-02
6.620800e+02	-6.810345e-02
6.659041e+02	-6.888619e-02
6.697504e+02	-6.967785e-02
6.736188e+02	-7.047853e-02
6.775096e+02	-7.128833e-02
6.814229e+02	-7.210737e-02
6.853587e+02	-7.293573e-02
6.893173e+02	-7.377353e-02
6.932988e+02	-7.462087e-02
6.973033e+02	-7.547786e-02
7.013309e+02	-7.634460e-02
