Frequency(Hz)	Magnitude(dB)
1.000000e+01	-2.111694e+00
1.005776e+01	-2.131263e+00
1.011585e+01	-2.150609e+00
1.017428e+01	-2.170223e+00
1.023305e+01	-2.189952e+00
1.029215e+01	-2.209832e+00
1.035160e+01	-2.229906e+00
1.041139e+01	-2.249921e+00
1.047153e+01	-2.270351e+00
1.053201e+01	-2.290671e+00
1.059284e+01	-2.311193e+00
1.065403e+01	-2.332090e+00
1.071556e+01	-2.353102e+00
1.077746e+01	-2.373802e+00
1.083971e+01	-2.394980e+00
1.090232e+01	-2.416431e+00
1.096529e+01	-2.437802e+00
1.102862e+01	-2.459264e+00
1.109232e+01	-2.481141e+00
1.115639e+01	-2.502909e+00
1.122083e+01	-2.524692e+00
1.128564e+01	-2.546732e+00
1.135083e+01	-2.569322e+00
1.141639e+01	-2.591449e+00
1.148233e+01	-2.614280e+00
1.154865e+01	-2.636873e+00
1.161536e+01	-2.659770e+00
1.168245e+01	-2.682821e+00
1.174992e+01	-2.705728e+00
1.181779e+01	-2.728975e+00
1.188605e+01	-2.752504e+00
1.195470e+01	-2.776176e+00
1.202375e+01	-2.799770e+00
1.209320e+01	-2.823730e+00
1.216305e+01	-2.847594e+00
1.223330e+01	-2.871780e+00
1.230396e+01	-2.896048e+00
1.237503e+01	-2.920421e+00
1.244651e+01	-2.945165e+00
1.251840e+01	-2.969653e+00
1.259070e+01	-2.994503e+00
1.266343e+01	-3.019599e+00
1.273657e+01	-3.044814e+00
1.281014e+01	-3.070045e+00
1.288413e+01	-3.095636e+00
1.295855e+01	-3.121075e+00
1.303339e+01	-3.146756e+00
1.310867e+01	-3.172800e+00
1.318439e+01	-3.198596e+00
1.326054e+01	-3.224817e+00
1.333713e+01	-3.250935e+00
1.341417e+01	-3.277298e+00
1.349165e+01	-3.303899e+00
1.356958e+01	-3.330786e+00
1.364795e+01	-3.357325e+00
1.372678e+01	-3.384575e+00
1.380607e+01	-3.411615e+00
1.388581e+01	-3.439097e+00
1.396602e+01	-3.466615e+00
1.404668e+01	-3.494039e+00
1.412782e+01	-3.521746e+00
1.420942e+01	-3.549584e+00
1.429149e+01	-3.577383e+00
1.437404e+01	-3.605835e+00
1.445706e+01	-3.633871e+00
1.454057e+01	-3.662535e+00
1.462455e+01	-3.690951e+00
1.470902e+01	-3.719781e+00
1.479398e+01	-3.748607e+00
1.487943e+01	-3.777623e+00
1.496537e+01	-3.806967e+00
1.505181e+01	-3.835915e+00
1.513875e+01	-3.865444e+00
1.522619e+01	-3.894877e+00
1.531414e+01	-3.924591e+00
1.540259e+01	-3.954436e+00
1.549156e+01	-3.984555e+00
1.558103e+01	-4.014629e+00
1.567103e+01	-4.044793e+00
1.576155e+01	-4.075277e+00
1.585258e+01	-4.106067e+00
1.594415e+01	-4.136385e+00
1.603624e+01	-4.167126e+00
1.612886e+01	-4.197969e+00
1.622202e+01	-4.228906e+00
1.631572e+01	-4.260523e+00
1.640996e+01	-4.291621e+00
1.650474e+01	-4.323221e+00
1.660008e+01	-4.354863e+00
1.669596e+01	-4.386456e+00
1.679239e+01	-4.418289e+00
1.688938e+01	-4.450540e+00
1.698694e+01	-4.482230e+00
1.708505e+01	-4.514561e+00
1.718373e+01	-4.547332e+00
1.728299e+01	-4.579540e+00
1.738281e+01	-4.612412e+00
1.748322e+01	-4.645216e+00
1.758420e+01	-4.678270e+00
1.768576e+01	-4.711253e+00
1.778792e+01	-4.744315e+00
1.789066e+01	-4.777751e+00
1.799399e+01	-4.811514e+00
1.809793e+01	-4.844511e+00
1.820246e+01	-4.878045e+00
1.830760e+01	-4.912715e+00
1.841334e+01	-4.946142e+00
1.851969e+01	-4.980333e+00
1.862666e+01	-5.014506e+00
1.873425e+01	-5.048658e+00
1.884246e+01	-5.082935e+00
1.895129e+01	-5.117538e+00
1.906075e+01	-5.152391e+00
1.917085e+01	-5.187263e+00
1.928158e+01	-5.222332e+00
1.939295e+01	-5.257122e+00
1.950496e+01	-5.292426e+00
1.961762e+01	-5.327785e+00
1.973093e+01	-5.363327e+00
1.984490e+01	-5.398614e+00
1.995952e+01	-5.434194e+00
2.007480e+01	-5.470149e+00
2.019076e+01	-5.506216e+00
2.030738e+01	-5.541705e+00
2.042467e+01	-5.578021e+00
2.054264e+01	-5.614156e+00
2.066130e+01	-5.650659e+00
2.078064e+01	-5.687148e+00
2.090066e+01	-5.723558e+00
2.102139e+01	-5.760575e+00
2.114280e+01	-5.797135e+00
2.126492e+01	-5.834008e+00
2.138775e+01	-5.870998e+00
2.151128e+01	-5.908527e+00
2.163553e+01	-5.945479e+00
2.176050e+01	-5.982852e+00
2.188619e+01	-6.020246e+00
2.201260e+01	-6.058005e+00
2.213974e+01	-6.095849e+00
2.226762e+01	-6.133243e+00
2.239624e+01	-6.171248e+00
2.252560e+01	-6.209412e+00
2.265571e+01	-6.247614e+00
2.278656e+01	-6.285718e+00
2.291818e+01	-6.323809e+00
2.305055e+01	-6.362318e+00
2.318369e+01	-6.400878e+00
2.331760e+01	-6.439605e+00
2.345228e+01	-6.477952e+00
2.358774e+01	-6.516758e+00
2.372398e+01	-6.555821e+00
2.386101e+01	-6.594890e+00
2.399883e+01	-6.634193e+00
2.413745e+01	-6.673240e+00
2.427686e+01	-6.712973e+00
2.441709e+01	-6.751792e+00
2.455812e+01	-6.791638e+00
2.469997e+01	-6.830930e+00
2.484263e+01	-6.870414e+00
2.498612e+01	-6.910575e+00
2.513044e+01	-6.950164e+00
2.527559e+01	-6.990268e+00
2.542158e+01	-7.030373e+00
2.556842e+01	-7.070741e+00
2.571610e+01	-7.111171e+00
2.586463e+01	-7.151332e+00
2.601403e+01	-7.191614e+00
2.616428e+01	-7.231944e+00
2.631541e+01	-7.272702e+00
2.646740e+01	-7.313514e+00
2.662028e+01	-7.354379e+00
2.677404e+01	-7.395405e+00
2.692868e+01	-7.435751e+00
2.708422e+01	-7.477077e+00
2.724066e+01	-7.518203e+00
2.739800e+01	-7.559355e+00
2.755625e+01	-7.601089e+00
2.771541e+01	-7.642155e+00
2.787550e+01	-7.683746e+00
2.803650e+01	-7.724715e+00
2.819844e+01	-7.766941e+00
2.836131e+01	-7.808535e+00
2.852513e+01	-7.850179e+00
2.868989e+01	-7.892210e+00
2.885560e+01	-7.933943e+00
2.902227e+01	-7.976143e+00
2.918990e+01	-8.017971e+00
2.935850e+01	-8.060059e+00
2.952807e+01	-8.102593e+00
2.969863e+01	-8.145046e+00
2.987016e+01	-8.187043e+00
3.004269e+01	-8.229626e+00
3.021622e+01	-8.272014e+00
3.039075e+01	-8.315096e+00
3.056628e+01	-8.357439e+00
3.074283e+01	-8.400466e+00
3.092040e+01	-8.443471e+00
3.109900e+01	-8.486301e+00
3.127862e+01	-8.528743e+00
3.145929e+01	-8.571996e+00
3.164099e+01	-8.615307e+00
3.182375e+01	-8.658637e+00
3.200756e+01	-8.701451e+00
3.219244e+01	-8.745165e+00
3.237838e+01	-8.788464e+00
3.256540e+01	-8.831867e+00
3.275349e+01	-8.875214e+00
3.294268e+01	-8.918919e+00
3.313295e+01	-8.962397e+00
3.332433e+01	-9.005878e+00
3.351681e+01	-9.049804e+00
3.371040e+01	-9.093703e+00
3.390511e+01	-9.137498e+00
3.410094e+01	-9.181441e+00
3.429791e+01	-9.225850e+00
3.449601e+01	-9.269521e+00
3.469526e+01	-9.313704e+00
3.489566e+01	-9.358335e+00
3.509721e+01	-9.402547e+00
3.529993e+01	-9.446896e+00
3.550382e+01	-9.490954e+00
3.570889e+01	-9.535529e+00
3.591515e+01	-9.579826e+00
3.612259e+01	-9.624814e+00
3.633123e+01	-9.669027e+00
3.654108e+01	-9.713726e+00
3.675214e+01	-9.757780e+00
3.696442e+01	-9.803021e+00
3.717792e+01	-9.847945e+00
3.739266e+01	-9.893187e+00
3.760864e+01	-9.937372e+00
3.782587e+01	-9.982554e+00
3.804435e+01	-1.002753e+01
3.826409e+01	-1.007284e+01
3.848510e+01	-1.011808e+01
3.870739e+01	-1.016320e+01
3.893096e+01	-1.020849e+01
3.915583e+01	-1.025343e+01
3.938199e+01	-1.029923e+01
3.960946e+01	-1.034403e+01
3.983824e+01	-1.038926e+01
4.006834e+01	-1.043565e+01
4.029978e+01	-1.048082e+01
4.053255e+01	-1.052590e+01
4.076666e+01	-1.057201e+01
4.100213e+01	-1.061771e+01
4.123896e+01	-1.066300e+01
4.147715e+01	-1.070947e+01
4.171672e+01	-1.075517e+01
4.195767e+01	-1.080049e+01
4.220002e+01	-1.084776e+01
4.244377e+01	-1.089301e+01
4.268892e+01	-1.093849e+01
4.293549e+01	-1.098532e+01
4.318348e+01	-1.103045e+01
4.343291e+01	-1.107672e+01
4.368377e+01	-1.112349e+01
4.393609e+01	-1.116900e+01
4.418986e+01	-1.121565e+01
4.444510e+01	-1.126162e+01
4.470182e+01	-1.130803e+01
4.496001e+01	-1.135437e+01
4.521970e+01	-1.140062e+01
4.548089e+01	-1.144685e+01
4.574358e+01	-1.149407e+01
4.600779e+01	-1.154043e+01
4.627353e+01	-1.158585e+01
4.654081e+01	-1.163313e+01
4.680963e+01	-1.167928e+01
4.708000e+01	-1.172712e+01
4.735193e+01	-1.177333e+01
4.762543e+01	-1.181981e+01
4.790051e+01	-1.186648e+01
4.817719e+01	-1.191398e+01
4.845545e+01	-1.195980e+01
4.873533e+01	-1.200786e+01
4.901682e+01	-1.205374e+01
4.929994e+01	-1.210122e+01
4.958470e+01	-1.214734e+01
4.987110e+01	-1.219482e+01
5.015915e+01	-1.224220e+01
5.044887e+01	-1.228855e+01
5.074026e+01	-1.233562e+01
5.103333e+01	-1.238319e+01
5.132810e+01	-1.243008e+01
5.162457e+01	-1.247700e+01
5.192275e+01	-1.252437e+01
5.222265e+01	-1.257262e+01
5.252429e+01	-1.261886e+01
5.282767e+01	-1.266637e+01
5.313280e+01	-1.271299e+01
5.343969e+01	-1.276115e+01
5.374836e+01	-1.280804e+01
5.405880e+01	-1.285617e+01
5.437105e+01	-1.290408e+01
5.468509e+01	-1.295140e+01
5.500095e+01	-1.299868e+01
5.531863e+01	-1.304637e+01
5.563815e+01	-1.309377e+01
5.595951e+01	-1.314141e+01
5.628273e+01	-1.318884e+01
5.660782e+01	-1.323660e+01
5.693479e+01	-1.328415e+01
5.726364e+01	-1.333218e+01
5.759439e+01	-1.337933e+01
5.792705e+01	-1.342772e+01
5.826164e+01	-1.347495e+01
5.859815e+01	-1.352174e+01
5.893662e+01	-1.357042e+01
5.927703e+01	-1.361829e+01
5.961941e+01	-1.366687e+01
5.996377e+01	-1.371404e+01
6.031012e+01	-1.376206e+01
6.065847e+01	-1.381106e+01
6.100883e+01	-1.385869e+01
6.136121e+01	-1.390586e+01
6.171563e+01	-1.395405e+01
6.207210e+01	-1.400201e+01
6.243063e+01	-1.404993e+01
6.279122e+01	-1.409857e+01
6.315390e+01	-1.414664e+01
6.351868e+01	-1.419390e+01
6.388556e+01	-1.424205e+01
6.425456e+01	-1.429051e+01
6.462569e+01	-1.433820e+01
6.499897e+01	-1.438684e+01
6.537440e+01	-1.443544e+01
6.575200e+01	-1.448406e+01
6.613178e+01	-1.453145e+01
6.651375e+01	-1.458027e+01
6.689793e+01	-1.462859e+01
6.728433e+01	-1.467669e+01
6.767297e+01	-1.472500e+01
6.806384e+01	-1.477270e+01
6.845698e+01	-1.482124e+01
6.885238e+01	-1.487000e+01
6.925007e+01	-1.491807e+01
6.965005e+01	-1.496760e+01
7.005235e+01	-1.501573e+01
7.045697e+01	-1.506356e+01
7.086393e+01	-1.511170e+01
7.127323e+01	-1.516006e+01
7.168490e+01	-1.520907e+01
7.209895e+01	-1.525728e+01
7.251539e+01	-1.530651e+01
7.293424e+01	-1.535498e+01
7.335551e+01	-1.540389e+01
7.377920e+01	-1.545205e+01
7.420535e+01	-1.550084e+01
7.463396e+01	-1.554961e+01
7.506504e+01	-1.559755e+01
7.549861e+01	-1.564607e+01
7.593469e+01	-1.569500e+01
7.637328e+01	-1.574433e+01
7.681441e+01	-1.579352e+01
7.725809e+01	-1.584220e+01
7.770433e+01	-1.589075e+01
7.815315e+01	-1.593816e+01
7.860456e+01	-1.598761e+01
7.905857e+01	-1.603657e+01
7.951521e+01	-1.608446e+01
7.997449e+01	-1.613390e+01
8.043642e+01	-1.618319e+01
8.090102e+01	-1.623216e+01
8.136830e+01	-1.628017e+01
8.183828e+01	-1.632903e+01
8.231097e+01	-1.637923e+01
8.278640e+01	-1.642757e+01
8.326457e+01	-1.647491e+01
8.374550e+01	-1.652662e+01
8.422921e+01	-1.657335e+01
8.471572e+01	-1.662193e+01
8.520503e+01	-1.667205e+01
8.569717e+01	-1.672115e+01
8.619215e+01	-1.677014e+01
8.669000e+01	-1.681882e+01
8.719071e+01	-1.686851e+01
8.769432e+01	-1.691593e+01
8.820084e+01	-1.696616e+01
8.871029e+01	-1.701489e+01
8.922267e+01	-1.706364e+01
8.973802e+01	-1.711331e+01
9.025634e+01	-1.716179e+01
9.077766e+01	-1.721185e+01
9.130199e+01	-1.726062e+01
9.182935e+01	-1.730985e+01
9.235975e+01	-1.735833e+01
9.289321e+01	-1.740771e+01
9.342976e+01	-1.745746e+01
9.396941e+01	-1.750642e+01
9.451217e+01	-1.755584e+01
9.505807e+01	-1.760465e+01
9.560712e+01	-1.765316e+01
9.615934e+01	-1.770301e+01
9.671476e+01	-1.775099e+01
9.727338e+01	-1.780101e+01
9.783522e+01	-1.785022e+01
9.840032e+01	-1.789895e+01
9.896867e+01	-1.794787e+01
9.954031e+01	-1.799784e+01
1.001153e+02	-1.804754e+01
1.006935e+02	-1.809579e+01
1.012751e+02	-1.814511e+01
1.018601e+02	-1.819451e+01
1.024484e+02	-1.824307e+01
1.030402e+02	-1.829189e+01
1.036353e+02	-1.834223e+01
1.042339e+02	-1.839159e+01
1.048360e+02	-1.844085e+01
1.054415e+02	-1.849059e+01
1.060505e+02	-1.854000e+01
1.066631e+02	-1.858829e+01
1.072791e+02	-1.863808e+01
1.078988e+02	-1.868770e+01
1.085220e+02	-1.873665e+01
1.091488e+02	-1.878557e+01
1.097793e+02	-1.883540e+01
1.104133e+02	-1.888410e+01
1.110511e+02	-1.893349e+01
1.116925e+02	-1.898308e+01
1.123376e+02	-1.903217e+01
1.129865e+02	-1.908262e+01
1.136391e+02	-1.913167e+01
1.142955e+02	-1.918149e+01
1.149556e+02	-1.923040e+01
1.156196e+02	-1.927901e+01
1.162874e+02	-1.933159e+01
1.169591e+02	-1.937985e+01
1.176347e+02	-1.942934e+01
1.183141e+02	-1.947875e+01
1.189975e+02	-1.952770e+01
1.196848e+02	-1.957885e+01
1.203761e+02	-1.962696e+01
1.210714e+02	-1.967675e+01
1.217707e+02	-1.972583e+01
1.224740e+02	-1.977498e+01
1.231814e+02	-1.982560e+01
1.238929e+02	-1.987468e+01
1.246085e+02	-1.992421e+01
1.253283e+02	-1.997323e+01
1.260522e+02	-2.002213e+01
1.267802e+02	-2.007345e+01
1.275125e+02	-2.012051e+01
1.282490e+02	-2.017155e+01
1.289898e+02	-2.022094e+01
1.297348e+02	-2.027131e+01
1.304842e+02	-2.032005e+01
1.312378e+02	-2.037120e+01
1.319959e+02	-2.042015e+01
1.327583e+02	-2.047077e+01
1.335251e+02	-2.051811e+01
1.342963e+02	-2.056903e+01
1.350720e+02	-2.061696e+01
1.358522e+02	-2.066788e+01
1.366368e+02	-2.071796e+01
1.374260e+02	-2.076722e+01
1.382198e+02	-2.081578e+01
1.390182e+02	-2.086515e+01
1.398211e+02	-2.091574e+01
1.406287e+02	-2.096657e+01
1.414410e+02	-2.101462e+01
1.422579e+02	-2.106537e+01
1.430796e+02	-2.111279e+01
1.439060e+02	-2.116267e+01
1.447372e+02	-2.121298e+01
1.455732e+02	-2.126349e+01
1.464141e+02	-2.131273e+01
1.472597e+02	-2.136107e+01
1.481103e+02	-2.141214e+01
1.489658e+02	-2.146294e+01
1.498262e+02	-2.151148e+01
1.506916e+02	-2.156202e+01
1.515620e+02	-2.161169e+01
1.524374e+02	-2.166094e+01
1.533179e+02	-2.171190e+01
1.542034e+02	-2.176064e+01
1.550941e+02	-2.181082e+01
1.559899e+02	-2.185879e+01
1.568909e+02	-2.190911e+01
1.577971e+02	-2.195875e+01
1.587085e+02	-2.200945e+01
1.596252e+02	-2.205947e+01
1.605472e+02	-2.210881e+01
1.614745e+02	-2.215866e+01
1.624072e+02	-2.220801e+01
1.633453e+02	-2.225725e+01
1.642887e+02	-2.230620e+01
1.652377e+02	-2.235695e+01
1.661921e+02	-2.240620e+01
1.671520e+02	-2.245844e+01
1.681175e+02	-2.250757e+01
1.690885e+02	-2.255736e+01
1.700651e+02	-2.260504e+01
1.710474e+02	-2.265542e+01
1.720354e+02	-2.270591e+01
1.730291e+02	-2.275503e+01
1.740285e+02	-2.280464e+01
1.750337e+02	-2.285348e+01
1.760446e+02	-2.290217e+01
1.770615e+02	-2.295251e+01
1.780842e+02	-2.300497e+01
1.791128e+02	-2.305312e+01
1.801473e+02	-2.310183e+01
1.811878e+02	-2.315324e+01
1.822344e+02	-2.320545e+01
1.832870e+02	-2.325415e+01
1.843456e+02	-2.330245e+01
1.854104e+02	-2.335237e+01
1.864813e+02	-2.340221e+01
1.875584e+02	-2.345293e+01
1.886418e+02	-2.350412e+01
1.897313e+02	-2.355300e+01
1.908272e+02	-2.360013e+01
1.919294e+02	-2.365211e+01
1.930380e+02	-2.370152e+01
1.941530e+02	-2.374919e+01
1.952744e+02	-2.380174e+01
1.964023e+02	-2.384975e+01
1.975367e+02	-2.390076e+01
1.986777e+02	-2.395024e+01
1.998252e+02	-2.400318e+01
2.009794e+02	-2.404966e+01
2.021403e+02	-2.410015e+01
2.033078e+02	-2.414785e+01
2.044821e+02	-2.419985e+01
2.056632e+02	-2.425186e+01
2.068511e+02	-2.430331e+01
2.080459e+02	-2.434891e+01
2.092475e+02	-2.440045e+01
2.104561e+02	-2.445041e+01
2.116717e+02	-2.450075e+01
2.128943e+02	-2.454878e+01
2.141240e+02	-2.459931e+01
2.153608e+02	-2.465155e+01
2.166047e+02	-2.469786e+01
2.178558e+02	-2.474930e+01
2.191141e+02	-2.479983e+01
2.203797e+02	-2.484788e+01
2.216526e+02	-2.490090e+01
2.229329e+02	-2.495133e+01
2.242205e+02	-2.499707e+01
2.255156e+02	-2.504924e+01
2.268182e+02	-2.509872e+01
2.281283e+02	-2.514803e+01
2.294459e+02	-2.520012e+01
2.307712e+02	-2.524829e+01
2.321041e+02	-2.529985e+01
2.334447e+02	-2.534627e+01
2.347931e+02	-2.539898e+01
2.361493e+02	-2.544669e+01
2.375133e+02	-2.549828e+01
2.388851e+02	-2.554506e+01
2.402649e+02	-2.559753e+01
2.416527e+02	-2.565040e+01
2.430484e+02	-2.569860e+01
2.444523e+02	-2.574570e+01
2.458642e+02	-2.579541e+01
2.472843e+02	-2.584667e+01
2.487126e+02	-2.589709e+01
2.501492e+02	-2.595059e+01
2.515940e+02	-2.599580e+01
2.530472e+02	-2.604894e+01
2.545088e+02	-2.610117e+01
2.559789e+02	-2.614754e+01
2.574574e+02	-2.619606e+01
2.589444e+02	-2.625027e+01
2.604401e+02	-2.629513e+01
2.619444e+02	-2.634684e+01
2.634574e+02	-2.639928e+01
2.649791e+02	-2.644375e+01
2.665096e+02	-2.649830e+01
2.680489e+02	-2.654560e+01
2.695972e+02	-2.659697e+01
2.711544e+02	-2.664765e+01
2.727205e+02	-2.670152e+01
2.742958e+02	-2.674617e+01
2.758801e+02	-2.679916e+01
2.774736e+02	-2.684704e+01
2.790762e+02	-2.689551e+01
2.806882e+02	-2.694900e+01
2.823094e+02	-2.700104e+01
2.839400e+02	-2.705095e+01
2.855800e+02	-2.709780e+01
2.872295e+02	-2.714504e+01
2.888886e+02	-2.719712e+01
2.905572e+02	-2.724588e+01
2.922354e+02	-2.729815e+01
2.939234e+02	-2.734317e+01
2.956211e+02	-2.739601e+01
2.973286e+02	-2.744979e+01
2.990459e+02	-2.749489e+01
3.007732e+02	-2.754681e+01
3.025104e+02	-2.759557e+01
3.042577e+02	-2.764678e+01
3.060151e+02	-2.769804e+01
3.077826e+02	-2.774270e+01
3.095604e+02	-2.779698e+01
3.113484e+02	-2.784711e+01
3.131467e+02	-2.789837e+01
3.149554e+02	-2.794474e+01
3.167746e+02	-2.800024e+01
3.186043e+02	-2.804518e+01
3.204445e+02	-2.809701e+01
3.222954e+02	-2.814633e+01
3.241570e+02	-2.819518e+01
3.260293e+02	-2.824471e+01
3.279124e+02	-2.829659e+01
3.298064e+02	-2.834893e+01
3.317114e+02	-2.839631e+01
3.336273e+02	-2.845011e+01
3.355544e+02	-2.849836e+01
3.374925e+02	-2.854608e+01
3.394418e+02	-2.859848e+01
3.414024e+02	-2.864712e+01
3.433744e+02	-2.870039e+01
3.453577e+02	-2.874580e+01
3.473525e+02	-2.879815e+01
3.493588e+02	-2.884770e+01
3.513766e+02	-2.889582e+01
3.534062e+02	-2.894452e+01
3.554474e+02	-2.899768e+01
3.575005e+02	-2.904631e+01
3.595654e+02	-2.909539e+01
3.616422e+02	-2.915027e+01
3.637311e+02	-2.919836e+01
3.658320e+02	-2.925017e+01
3.679450e+02	-2.930216e+01
3.700702e+02	-2.934538e+01
3.722077e+02	-2.940107e+01
3.743576e+02	-2.944860e+01
3.765199e+02	-2.950050e+01
3.786946e+02	-2.954381e+01
3.808820e+02	-2.959950e+01
3.830819e+02	-2.964634e+01
3.852946e+02	-2.969896e+01
3.875200e+02	-2.974698e+01
3.897583e+02	-2.979794e+01
3.920096e+02	-2.984764e+01
3.942738e+02	-2.990204e+01
3.965511e+02	-2.995372e+01
3.988416e+02	-2.999915e+01
4.011452e+02	-3.005257e+01
4.034622e+02	-3.010000e+01
4.057926e+02	-3.015142e+01
4.081365e+02	-3.019372e+01
4.104938e+02	-3.024624e+01
4.128648e+02	-3.030143e+01
4.152495e+02	-3.035227e+01
4.176480e+02	-3.040231e+01
4.200603e+02	-3.045186e+01
4.224866e+02	-3.050423e+01
4.249268e+02	-3.055444e+01
4.273812e+02	-3.060194e+01
4.298497e+02	-3.065533e+01
4.323325e+02	-3.069878e+01
4.348297e+02	-3.075069e+01
4.373412e+02	-3.079898e+01
4.398673e+02	-3.085045e+01
4.424079e+02	-3.090465e+01
4.449633e+02	-3.095224e+01
4.475334e+02	-3.100088e+01
4.501183e+02	-3.104872e+01
4.527182e+02	-3.110349e+01
4.553330e+02	-3.115586e+01
4.579630e+02	-3.119972e+01
4.606082e+02	-3.125316e+01
4.632687e+02	-3.130321e+01
4.659445e+02	-3.135308e+01
4.686358e+02	-3.140520e+01
4.713426e+02	-3.145288e+01
4.740650e+02	-3.150304e+01
4.768032e+02	-3.155184e+01
4.795572e+02	-3.160359e+01
4.823271e+02	-3.165869e+01
4.851130e+02	-3.171122e+01
4.879150e+02	-3.175405e+01
4.907332e+02	-3.180449e+01
4.935676e+02	-3.185927e+01
4.964185e+02	-3.190920e+01
4.992858e+02	-3.196057e+01
5.021696e+02	-3.200159e+01
5.050701e+02	-3.206112e+01
5.079874e+02	-3.211027e+01
5.109215e+02	-3.215851e+01
5.138726e+02	-3.220309e+01
5.168407e+02	-3.225785e+01
5.198259e+02	-3.230552e+01
5.228284e+02	-3.236126e+01
5.258482e+02	-3.240192e+01
5.288855e+02	-3.245800e+01
5.319403e+02	-3.251115e+01
5.350128e+02	-3.255912e+01
5.381030e+02	-3.261104e+01
5.412111e+02	-3.265682e+01
5.443371e+02	-3.270646e+01
5.474812e+02	-3.276358e+01
5.506434e+02	-3.281000e+01
5.538239e+02	-3.286004e+01
5.570228e+02	-3.290764e+01
5.602401e+02	-3.295842e+01
5.634760e+02	-3.300060e+01
5.667306e+02	-3.306070e+01
5.700040e+02	-3.311117e+01
5.732964e+02	-3.315222e+01
5.766077e+02	-3.321047e+01
5.799382e+02	-3.326725e+01
5.832879e+02	-3.330741e+01
5.866569e+02	-3.336105e+01
5.900454e+02	-3.341683e+01
5.934535e+02	-3.345901e+01
5.968813e+02	-3.351587e+01
6.003288e+02	-3.356112e+01
6.037963e+02	-3.361984e+01
6.072838e+02	-3.366500e+01
6.107914e+02	-3.371412e+01
6.143194e+02	-3.375670e+01
6.178676e+02	-3.381538e+01
6.214364e+02	-3.387661e+01
6.250258e+02	-3.392076e+01
6.286359e+02	-3.397306e+01
6.322669e+02	-3.401564e+01
6.359189e+02	-3.406072e+01
6.395919e+02	-3.410668e+01
6.432862e+02	-3.417152e+01
6.470017e+02	-3.422121e+01
6.507388e+02	-3.426901e+01
6.544974e+02	-3.432218e+01
6.582778e+02	-3.436561e+01
6.620800e+02	-3.441499e+01
6.659041e+02	-3.446821e+01
6.697504e+02	-3.452088e+01
6.736188e+02	-3.456834e+01
6.775096e+02	-3.462638e+01
6.814229e+02	-3.466928e+01
6.853587e+02	-3.472108e+01
6.893173e+02	-3.477084e+01
6.932988e+02	-3.482432e+01
6.973033e+02	-3.487074e+01
7.013309e+02	-3.492025e+01
