Frequency(Hz)	Magnitude(dB)
1.000000e+01	-2.241615e+00
1.005776e+01	-2.262321e+00
1.011585e+01	-2.282528e+00
1.017428e+01	-2.303077e+00
1.023305e+01	-2.323657e+00
1.029215e+01	-2.344626e+00
1.035160e+01	-2.365284e+00
1.041139e+01	-2.386522e+00
1.047153e+01	-2.407755e+00
1.053201e+01	-2.429061e+00
1.059284e+01	-2.450603e+00
1.065403e+01	-2.472170e+00
1.071556e+01	-2.494023e+00
1.077746e+01	-2.515891e+00
1.083971e+01	-2.538068e+00
1.090232e+01	-2.560177e+00
1.096529e+01	-2.582382e+00
1.102862e+01	-2.605021e+00
1.109232e+01	-2.627782e+00
1.115639e+01	-2.650153e+00
1.122083e+01	-2.673354e+00
1.128564e+01	-2.696507e+00
1.135083e+01	-2.719751e+00
1.141639e+01	-2.743180e+00
1.148233e+01	-2.766464e+00
1.154865e+01	-2.790033e+00
1.161536e+01	-2.813857e+00
1.168245e+01	-2.838063e+00
1.174992e+01	-2.861912e+00
1.181779e+01	-2.886292e+00
1.188605e+01	-2.910484e+00
1.195470e+01	-2.935111e+00
1.202375e+01	-2.959559e+00
1.209320e+01	-2.984509e+00
1.216305e+01	-3.009280e+00
1.223330e+01	-3.034540e+00
1.230396e+01	-3.059798e+00
1.237503e+01	-3.085098e+00
1.244651e+01	-3.110447e+00
1.251840e+01	-3.136249e+00
1.259070e+01	-3.162143e+00
1.266343e+01	-3.187967e+00
1.273657e+01	-3.214131e+00
1.281014e+01	-3.240338e+00
1.288413e+01	-3.266729e+00
1.295855e+01	-3.293264e+00
1.303339e+01	-3.319979e+00
1.310867e+01	-3.346775e+00
1.318439e+01	-3.373551e+00
1.326054e+01	-3.400512e+00
1.333713e+01	-3.427712e+00
1.341417e+01	-3.455519e+00
1.349165e+01	-3.483149e+00
1.356958e+01	-3.510653e+00
1.364795e+01	-3.538187e+00
1.372678e+01	-3.566439e+00
1.380607e+01	-3.594212e+00
1.388581e+01	-3.622758e+00
1.396602e+01	-3.651099e+00
1.404668e+01	-3.679359e+00
1.412782e+01	-3.708169e+00
1.420942e+01	-3.737007e+00
1.429149e+01	-3.766007e+00
1.437404e+01	-3.794734e+00
1.445706e+01	-3.823993e+00
1.454057e+01	-3.853547e+00
1.462455e+01	-3.882970e+00
1.470902e+01	-3.912667e+00
1.479398e+01	-3.942253e+00
1.487943e+01	-3.972235e+00
1.496537e+01	-4.002275e+00
1.505181e+01	-4.032399e+00
1.513875e+01	-4.063029e+00
1.522619e+01	-4.093238e+00
1.531414e+01	-4.123712e+00
1.540259e+01	-4.154491e+00
1.549156e+01	-4.185579e+00
1.558103e+01	-4.216519e+00
1.567103e+01	-4.247825e+00
1.576155e+01	-4.279019e+00
1.585258e+01	-4.310466e+00
1.594415e+01	-4.341819e+00
1.603624e+01	-4.373729e+00
1.612886e+01	-4.405651e+00
1.622202e+01	-4.437260e+00
1.631572e+01	-4.469446e+00
1.640996e+01	-4.501978e+00
1.650474e+01	-4.533967e+00
1.660008e+01	-4.566586e+00
1.669596e+01	-4.599204e+00
1.679239e+01	-4.631782e+00
1.688938e+01	-4.664651e+00
1.698694e+01	-4.697873e+00
1.708505e+01	-4.730897e+00
1.718373e+01	-4.764215e+00
1.728299e+01	-4.797810e+00
1.738281e+01	-4.831074e+00
1.748322e+01	-4.864642e+00
1.758420e+01	-4.898628e+00
1.768576e+01	-4.932207e+00
1.778792e+01	-4.966688e+00
1.789066e+01	-5.000833e+00
1.799399e+01	-5.034811e+00
1.809793e+01	-5.069067e+00
1.820246e+01	-5.103737e+00
1.830760e+01	-5.138293e+00
1.841334e+01	-5.172915e+00
1.851969e+01	-5.207593e+00
1.862666e+01	-5.243215e+00
1.873425e+01	-5.277916e+00
1.884246e+01	-5.313564e+00
1.895129e+01	-5.348751e+00
1.906075e+01	-5.384207e+00
1.917085e+01	-5.419841e+00
1.928158e+01	-5.455523e+00
1.939295e+01	-5.491043e+00
1.950496e+01	-5.527146e+00
1.961762e+01	-5.563425e+00
1.973093e+01	-5.599597e+00
1.984490e+01	-5.636267e+00
1.995952e+01	-5.672143e+00
2.007480e+01	-5.708937e+00
2.019076e+01	-5.745625e+00
2.030738e+01	-5.782268e+00
2.042467e+01	-5.818977e+00
2.054264e+01	-5.855861e+00
2.066130e+01	-5.893143e+00
2.078064e+01	-5.930389e+00
2.090066e+01	-5.967785e+00
2.102139e+01	-6.004951e+00
2.114280e+01	-6.042550e+00
2.126492e+01	-6.080177e+00
2.138775e+01	-6.117965e+00
2.151128e+01	-6.155835e+00
2.163553e+01	-6.193686e+00
2.176050e+01	-6.232275e+00
2.188619e+01	-6.270104e+00
2.201260e+01	-6.308590e+00
2.213974e+01	-6.346623e+00
2.226762e+01	-6.385347e+00
2.239624e+01	-6.423957e+00
2.252560e+01	-6.462672e+00
2.265571e+01	-6.501427e+00
2.278656e+01	-6.540247e+00
2.291818e+01	-6.578838e+00
2.305055e+01	-6.618223e+00
2.318369e+01	-6.657401e+00
2.331760e+01	-6.696293e+00
2.345228e+01	-6.735749e+00
2.358774e+01	-6.775798e+00
2.372398e+01	-6.814930e+00
2.386101e+01	-6.854579e+00
2.399883e+01	-6.894541e+00
2.413745e+01	-6.934311e+00
2.427686e+01	-6.974274e+00
2.441709e+01	-7.014473e+00
2.455812e+01	-7.054285e+00
2.469997e+01	-7.094418e+00
2.484263e+01	-7.134716e+00
2.498612e+01	-7.175149e+00
2.513044e+01	-7.215800e+00
2.527559e+01	-7.256053e+00
2.542158e+01	-7.296643e+00
2.556842e+01	-7.337803e+00
2.571610e+01	-7.378665e+00
2.586463e+01	-7.419891e+00
2.601403e+01	-7.460297e+00
2.616428e+01	-7.501767e+00
2.631541e+01	-7.542741e+00
2.646740e+01	-7.583600e+00
2.662028e+01	-7.625311e+00
2.677404e+01	-7.666892e+00
2.692868e+01	-7.708109e+00
2.708422e+01	-7.750115e+00
2.724066e+01	-7.791638e+00
2.739800e+01	-7.833227e+00
2.755625e+01	-7.874917e+00
2.771541e+01	-7.917276e+00
2.787550e+01	-7.959250e+00
2.803650e+01	-8.000882e+00
2.819844e+01	-8.043122e+00
2.836131e+01	-8.084753e+00
2.852513e+01	-8.127717e+00
2.868989e+01	-8.170100e+00
2.885560e+01	-8.212138e+00
2.902227e+01	-8.255095e+00
2.918990e+01	-8.297795e+00
2.935850e+01	-8.340054e+00
2.952807e+01	-8.382771e+00
2.969863e+01	-8.425568e+00
2.987016e+01	-8.468607e+00
3.004269e+01	-8.511704e+00
3.021622e+01	-8.555008e+00
3.039075e+01	-8.597473e+00
3.056628e+01	-8.641044e+00
3.074283e+01	-8.684264e+00
3.092040e+01	-8.726932e+00
3.109900e+01	-8.770672e+00
3.127862e+01	-8.814058e+00
3.145929e+01	-8.857330e+00
3.164099e+01	-8.901200e+00
3.182375e+01	-8.944473e+00
3.200756e+01	-8.988347e+00
3.219244e+01	-9.032354e+00
3.237838e+01	-9.075815e+00
3.256540e+01	-9.120415e+00
3.275349e+01	-9.164071e+00
3.294268e+01	-9.207837e+00
3.313295e+01	-9.251930e+00
3.332433e+01	-9.295728e+00
3.351681e+01	-9.340171e+00
3.371040e+01	-9.384953e+00
3.390511e+01	-9.429111e+00
3.410094e+01	-9.472764e+00
3.429791e+01	-9.517516e+00
3.449601e+01	-9.561800e+00
3.469526e+01	-9.606230e+00
3.489566e+01	-9.651098e+00
3.509721e+01	-9.695384e+00
3.529993e+01	-9.740515e+00
3.550382e+01	-9.784686e+00
3.570889e+01	-9.830138e+00
3.591515e+01	-9.875249e+00
3.612259e+01	-9.920010e+00
3.633123e+01	-9.964404e+00
3.654108e+01	-1.000961e+01
3.675214e+01	-1.005469e+01
3.696442e+01	-1.009959e+01
3.717792e+01	-1.014491e+01
3.739266e+01	-1.019034e+01
3.760864e+01	-1.023567e+01
3.782587e+01	-1.028052e+01
3.804435e+01	-1.032593e+01
3.826409e+01	-1.037113e+01
3.848510e+01	-1.041702e+01
3.870739e+01	-1.046187e+01
3.893096e+01	-1.050756e+01
3.915583e+01	-1.055363e+01
3.938199e+01	-1.059921e+01
3.960946e+01	-1.064487e+01
3.983824e+01	-1.069063e+01
4.006834e+01	-1.073643e+01
4.029978e+01	-1.078236e+01
4.053255e+01	-1.082775e+01
4.076666e+01	-1.087404e+01
4.100213e+01	-1.091978e+01
4.123896e+01	-1.096518e+01
4.147715e+01	-1.101159e+01
4.171672e+01	-1.105798e+01
4.195767e+01	-1.110425e+01
4.220002e+01	-1.115049e+01
4.244377e+01	-1.119711e+01
4.268892e+01	-1.124326e+01
4.293549e+01	-1.128937e+01
4.318348e+01	-1.133519e+01
4.343291e+01	-1.138170e+01
4.368377e+01	-1.142854e+01
4.393609e+01	-1.147460e+01
4.418986e+01	-1.152130e+01
4.444510e+01	-1.156780e+01
4.470182e+01	-1.161461e+01
4.496001e+01	-1.166052e+01
4.521970e+01	-1.170755e+01
4.548089e+01	-1.175452e+01
4.574358e+01	-1.180080e+01
4.600779e+01	-1.184776e+01
4.627353e+01	-1.189419e+01
4.654081e+01	-1.194169e+01
4.680963e+01	-1.198756e+01
4.708000e+01	-1.203562e+01
4.735193e+01	-1.208145e+01
4.762543e+01	-1.212834e+01
4.790051e+01	-1.217553e+01
4.817719e+01	-1.222231e+01
4.845545e+01	-1.226977e+01
4.873533e+01	-1.231693e+01
4.901682e+01	-1.236440e+01
4.929994e+01	-1.241131e+01
4.958470e+01	-1.245859e+01
4.987110e+01	-1.250517e+01
5.015915e+01	-1.255227e+01
5.044887e+01	-1.260001e+01
5.074026e+01	-1.264718e+01
5.103333e+01	-1.269401e+01
5.132810e+01	-1.274173e+01
5.162457e+01	-1.278993e+01
5.192275e+01	-1.283673e+01
5.222265e+01	-1.288445e+01
5.252429e+01	-1.293115e+01
5.282767e+01	-1.297918e+01
5.313280e+01	-1.302677e+01
5.343969e+01	-1.307470e+01
5.374836e+01	-1.312160e+01
5.405880e+01	-1.316985e+01
5.437105e+01	-1.321718e+01
5.468509e+01	-1.326535e+01
5.500095e+01	-1.331203e+01
5.531863e+01	-1.335985e+01
5.563815e+01	-1.340790e+01
5.595951e+01	-1.345551e+01
5.628273e+01	-1.350408e+01
5.660782e+01	-1.355072e+01
5.693479e+01	-1.359926e+01
5.726364e+01	-1.364638e+01
5.759439e+01	-1.369528e+01
5.792705e+01	-1.374208e+01
5.826164e+01	-1.379062e+01
5.859815e+01	-1.383857e+01
5.893662e+01	-1.388556e+01
5.927703e+01	-1.393401e+01
5.961941e+01	-1.398347e+01
5.996377e+01	-1.403157e+01
6.031012e+01	-1.407783e+01
6.065847e+01	-1.412725e+01
6.100883e+01	-1.417471e+01
6.136121e+01	-1.422310e+01
6.171563e+01	-1.427148e+01
6.207210e+01	-1.431915e+01
6.243063e+01	-1.436707e+01
6.279122e+01	-1.441576e+01
6.315390e+01	-1.446411e+01
6.351868e+01	-1.451252e+01
6.388556e+01	-1.455984e+01
6.425456e+01	-1.460939e+01
6.462569e+01	-1.465661e+01
6.499897e+01	-1.470465e+01
6.537440e+01	-1.475387e+01
6.575200e+01	-1.480190e+01
6.613178e+01	-1.485020e+01
6.651375e+01	-1.489794e+01
6.689793e+01	-1.494622e+01
6.728433e+01	-1.499573e+01
6.767297e+01	-1.504283e+01
6.806384e+01	-1.509223e+01
6.845698e+01	-1.514029e+01
6.885238e+01	-1.518971e+01
6.925007e+01	-1.523728e+01
6.965005e+01	-1.528656e+01
7.005235e+01	-1.533501e+01
7.045697e+01	-1.538315e+01
7.086393e+01	-1.543221e+01
7.127323e+01	-1.548087e+01
7.168490e+01	-1.552950e+01
7.209895e+01	-1.557713e+01
7.251539e+01	-1.562703e+01
7.293424e+01	-1.567563e+01
7.335551e+01	-1.572352e+01
7.377920e+01	-1.577308e+01
7.420535e+01	-1.582264e+01
7.463396e+01	-1.587047e+01
7.506504e+01	-1.591875e+01
7.549861e+01	-1.596870e+01
7.593469e+01	-1.601627e+01
7.637328e+01	-1.606439e+01
7.681441e+01	-1.611375e+01
7.725809e+01	-1.616317e+01
7.770433e+01	-1.621199e+01
7.815315e+01	-1.626103e+01
7.860456e+01	-1.630973e+01
7.905857e+01	-1.635831e+01
7.951521e+01	-1.640706e+01
7.997449e+01	-1.645698e+01
8.043642e+01	-1.650491e+01
8.090102e+01	-1.655362e+01
8.136830e+01	-1.660189e+01
8.183828e+01	-1.665191e+01
8.231097e+01	-1.670019e+01
8.278640e+01	-1.674944e+01
8.326457e+01	-1.679918e+01
8.374550e+01	-1.684759e+01
8.422921e+01	-1.689647e+01
8.471572e+01	-1.694565e+01
8.520503e+01	-1.699491e+01
8.569717e+01	-1.704367e+01
8.619215e+01	-1.709231e+01
8.669000e+01	-1.714284e+01
8.719071e+01	-1.719098e+01
8.769432e+01	-1.723965e+01
8.820084e+01	-1.729010e+01
8.871029e+01	-1.733807e+01
8.922267e+01	-1.738767e+01
8.973802e+01	-1.743586e+01
9.025634e+01	-1.748493e+01
9.077766e+01	-1.753495e+01
9.130199e+01	-1.758427e+01
9.182935e+01	-1.763130e+01
9.235975e+01	-1.768216e+01
9.289321e+01	-1.773180e+01
9.342976e+01	-1.777997e+01
9.396941e+01	-1.783097e+01
9.451217e+01	-1.787890e+01
9.505807e+01	-1.792920e+01
9.560712e+01	-1.797817e+01
9.615934e+01	-1.802707e+01
9.671476e+01	-1.807589e+01
9.727338e+01	-1.812551e+01
9.783522e+01	-1.817456e+01
9.840032e+01	-1.822333e+01
9.896867e+01	-1.827380e+01
9.954031e+01	-1.832324e+01
1.001153e+02	-1.837195e+01
1.006935e+02	-1.842194e+01
1.012751e+02	-1.846938e+01
1.018601e+02	-1.851951e+01
1.024484e+02	-1.856984e+01
1.030402e+02	-1.861919e+01
1.036353e+02	-1.866759e+01
1.042339e+02	-1.871749e+01
1.048360e+02	-1.876736e+01
1.054415e+02	-1.881462e+01
1.060505e+02	-1.886531e+01
1.066631e+02	-1.891514e+01
1.072791e+02	-1.896479e+01
1.078988e+02	-1.901335e+01
1.085220e+02	-1.906207e+01
1.091488e+02	-1.911165e+01
1.097793e+02	-1.916152e+01
1.104133e+02	-1.921144e+01
1.110511e+02	-1.925898e+01
1.116925e+02	-1.931042e+01
1.123376e+02	-1.936098e+01
1.129865e+02	-1.940998e+01
1.136391e+02	-1.945856e+01
1.142955e+02	-1.950781e+01
1.149556e+02	-1.955571e+01
1.156196e+02	-1.960764e+01
1.162874e+02	-1.965492e+01
1.169591e+02	-1.970564e+01
1.176347e+02	-1.975377e+01
1.183141e+02	-1.980510e+01
1.189975e+02	-1.985447e+01
1.196848e+02	-1.990450e+01
1.203761e+02	-1.995226e+01
1.210714e+02	-2.000172e+01
1.217707e+02	-2.005185e+01
1.224740e+02	-2.010222e+01
1.231814e+02	-2.015065e+01
1.238929e+02	-2.020057e+01
1.246085e+02	-2.025013e+01
1.253283e+02	-2.029920e+01
1.260522e+02	-2.034897e+01
1.267802e+02	-2.040065e+01
1.275125e+02	-2.044984e+01
1.282490e+02	-2.049870e+01
1.289898e+02	-2.054903e+01
1.297348e+02	-2.059804e+01
1.304842e+02	-2.064758e+01
1.312378e+02	-2.069623e+01
1.319959e+02	-2.074486e+01
1.327583e+02	-2.079660e+01
1.335251e+02	-2.084783e+01
1.342963e+02	-2.089650e+01
1.350720e+02	-2.094413e+01
1.358522e+02	-2.099399e+01
1.366368e+02	-2.104483e+01
1.374260e+02	-2.109490e+01
1.382198e+02	-2.114375e+01
1.390182e+02	-2.119451e+01
1.398211e+02	-2.124164e+01
1.406287e+02	-2.129384e+01
1.414410e+02	-2.134315e+01
1.422579e+02	-2.139132e+01
1.430796e+02	-2.144218e+01
1.439060e+02	-2.149200e+01
1.447372e+02	-2.154148e+01
1.455732e+02	-2.159094e+01
1.464141e+02	-2.164211e+01
1.472597e+02	-2.169164e+01
1.481103e+02	-2.173844e+01
1.489658e+02	-2.179048e+01
1.498262e+02	-2.183888e+01
1.506916e+02	-2.188996e+01
1.515620e+02	-2.193965e+01
1.524374e+02	-2.198798e+01
1.533179e+02	-2.203839e+01
1.542034e+02	-2.208645e+01
1.550941e+02	-2.213786e+01
1.559899e+02	-2.218693e+01
1.568909e+02	-2.223623e+01
1.577971e+02	-2.228659e+01
1.587085e+02	-2.233724e+01
1.596252e+02	-2.238455e+01
1.605472e+02	-2.243652e+01
1.614745e+02	-2.248532e+01
1.624072e+02	-2.253511e+01
1.633453e+02	-2.258369e+01
1.642887e+02	-2.263609e+01
1.652377e+02	-2.268578e+01
1.661921e+02	-2.273444e+01
1.671520e+02	-2.278296e+01
1.681175e+02	-2.283302e+01
1.690885e+02	-2.288249e+01
1.700651e+02	-2.293550e+01
1.710474e+02	-2.298096e+01
1.720354e+02	-2.303431e+01
1.730291e+02	-2.308474e+01
1.740285e+02	-2.313440e+01
1.750337e+02	-2.318429e+01
1.760446e+02	-2.323239e+01
1.770615e+02	-2.328396e+01
1.780842e+02	-2.333575e+01
1.791128e+02	-2.338355e+01
1.801473e+02	-2.343120e+01
1.811878e+02	-2.348211e+01
1.822344e+02	-2.353127e+01
1.832870e+02	-2.358175e+01
1.843456e+02	-2.363215e+01
1.854104e+02	-2.368126e+01
1.864813e+02	-2.373144e+01
1.875584e+02	-2.378003e+01
1.886418e+02	-2.383183e+01
1.897313e+02	-2.388257e+01
1.908272e+02	-2.392830e+01
1.919294e+02	-2.398028e+01
1.930380e+02	-2.402928e+01
1.941530e+02	-2.408180e+01
1.952744e+02	-2.413097e+01
1.964023e+02	-2.417892e+01
1.975367e+02	-2.422929e+01
1.986777e+02	-2.427980e+01
1.998252e+02	-2.432987e+01
2.009794e+02	-2.437948e+01
2.021403e+02	-2.442733e+01
2.033078e+02	-2.447840e+01
2.044821e+02	-2.452861e+01
2.056632e+02	-2.457798e+01
2.068511e+02	-2.462971e+01
2.080459e+02	-2.467780e+01
2.092475e+02	-2.472845e+01
2.104561e+02	-2.477792e+01
2.116717e+02	-2.482803e+01
2.128943e+02	-2.487926e+01
2.141240e+02	-2.492714e+01
2.153608e+02	-2.497866e+01
2.166047e+02	-2.502716e+01
2.178558e+02	-2.507704e+01
2.191141e+02	-2.513062e+01
2.203797e+02	-2.517676e+01
2.216526e+02	-2.522680e+01
2.229329e+02	-2.527951e+01
2.242205e+02	-2.532788e+01
2.255156e+02	-2.537564e+01
2.268182e+02	-2.542475e+01
2.281283e+02	-2.547877e+01
2.294459e+02	-2.552582e+01
2.307712e+02	-2.557800e+01
2.321041e+02	-2.562482e+01
2.334447e+02	-2.567434e+01
2.347931e+02	-2.572903e+01
2.361493e+02	-2.577297e+01
2.375133e+02	-2.582977e+01
2.388851e+02	-2.587638e+01
2.402649e+02	-2.592427e+01
2.416527e+02	-2.597835e+01
2.430484e+02	-2.602403e+01
2.444523e+02	-2.607229e+01
2.458642e+02	-2.612509e+01
2.472843e+02	-2.617429e+01
2.487126e+02	-2.622582e+01
2.501492e+02	-2.627703e+01
2.515940e+02	-2.632397e+01
2.530472e+02	-2.637667e+01
2.545088e+02	-2.642501e+01
2.559789e+02	-2.647272e+01
2.574574e+02	-2.652453e+01
2.589444e+02	-2.657665e+01
2.604401e+02	-2.662778e+01
2.619444e+02	-2.667584e+01
2.634574e+02	-2.672822e+01
2.649791e+02	-2.677856e+01
2.665096e+02	-2.682521e+01
2.680489e+02	-2.687816e+01
2.695972e+02	-2.692502e+01
2.711544e+02	-2.697736e+01
2.727205e+02	-2.702730e+01
2.742958e+02	-2.707805e+01
2.758801e+02	-2.712737e+01
2.774736e+02	-2.717654e+01
2.790762e+02	-2.722711e+01
2.806882e+02	-2.727437e+01
2.823094e+02	-2.732647e+01
2.839400e+02	-2.737557e+01
2.855800e+02	-2.742203e+01
2.872295e+02	-2.747483e+01
2.888886e+02	-2.752488e+01
2.905572e+02	-2.757471e+01
2.922354e+02	-2.762824e+01
2.939234e+02	-2.767567e+01
2.956211e+02	-2.772735e+01
2.973286e+02	-2.777766e+01
2.990459e+02	-2.782653e+01
3.007732e+02	-2.787848e+01
3.025104e+02	-2.792326e+01
3.042577e+02	-2.797426e+01
3.060151e+02	-2.802549e+01
3.077826e+02	-2.807803e+01
3.095604e+02	-2.812222e+01
3.113484e+02	-2.817334e+01
3.131467e+02	-2.822549e+01
3.149554e+02	-2.827677e+01
3.167746e+02	-2.832425e+01
3.186043e+02	-2.837138e+01
3.204445e+02	-2.842313e+01
3.222954e+02	-2.847783e+01
3.241570e+02	-2.852593e+01
3.260293e+02	-2.857527e+01
3.279124e+02	-2.862659e+01
3.298064e+02	-2.867804e+01
3.317114e+02	-2.873178e+01
3.336273e+02	-2.877887e+01
3.355544e+02	-2.882543e+01
3.374925e+02	-2.887639e+01
3.394418e+02	-2.892344e+01
3.414024e+02	-2.897599e+01
3.433744e+02	-2.902613e+01
3.453577e+02	-2.907547e+01
3.473525e+02	-2.912333e+01
3.493588e+02	-2.917515e+01
3.513766e+02	-2.922513e+01
3.534062e+02	-2.927310e+01
3.554474e+02	-2.932148e+01
3.575005e+02	-2.937210e+01
3.595654e+02	-2.942509e+01
3.616422e+02	-2.947613e+01
3.637311e+02	-2.952669e+01
3.658320e+02	-2.957339e+01
3.679450e+02	-2.962462e+01
3.700702e+02	-2.967897e+01
3.722077e+02	-2.973000e+01
3.743576e+02	-2.977910e+01
3.765199e+02	-2.982365e+01
3.786946e+02	-2.987910e+01
3.808820e+02	-2.992830e+01
3.830819e+02	-2.997944e+01
3.852946e+02	-3.003297e+01
3.875200e+02	-3.008198e+01
3.897583e+02	-3.013060e+01
3.920096e+02	-3.017794e+01
3.942738e+02	-3.022636e+01
3.965511e+02	-3.027753e+01
3.988416e+02	-3.033000e+01
4.011452e+02	-3.037770e+01
4.034622e+02	-3.043237e+01
4.057926e+02	-3.048077e+01
4.081365e+02	-3.052639e+01
4.104938e+02	-3.058095e+01
4.128648e+02	-3.063756e+01
4.152495e+02	-3.066984e+01
4.176480e+02	-3.072948e+01
4.200603e+02	-3.078148e+01
4.224866e+02	-3.082799e+01
4.249268e+02	-3.088045e+01
4.273812e+02	-3.093160e+01
4.298497e+02	-3.097971e+01
4.323325e+02	-3.103160e+01
4.348297e+02	-3.107833e+01
4.373412e+02	-3.113083e+01
4.398673e+02	-3.118495e+01
4.424079e+02	-3.123312e+01
4.449633e+02	-3.128091e+01
4.475334e+02	-3.132651e+01
4.501183e+02	-3.138688e+01
4.527182e+02	-3.143239e+01
4.553330e+02	-3.148160e+01
4.579630e+02	-3.153237e+01
4.606082e+02	-3.158320e+01
4.632687e+02	-3.163355e+01
4.659445e+02	-3.168319e+01
4.686358e+02	-3.172959e+01
4.713426e+02	-3.178504e+01
4.740650e+02	-3.183439e+01
4.768032e+02	-3.188583e+01
4.795572e+02	-3.193393e+01
4.823271e+02	-3.198120e+01
4.851130e+02	-3.203316e+01
4.879150e+02	-3.208588e+01
4.907332e+02	-3.213310e+01
4.935676e+02	-3.218363e+01
4.964185e+02	-3.223300e+01
4.992858e+02	-3.228688e+01
5.021696e+02	-3.234064e+01
5.050701e+02	-3.238714e+01
5.079874e+02	-3.244007e+01
5.109215e+02	-3.248845e+01
5.138726e+02	-3.253103e+01
5.168407e+02	-3.258432e+01
5.198259e+02	-3.263588e+01
5.228284e+02	-3.269007e+01
5.258482e+02	-3.273738e+01
5.288855e+02	-3.278822e+01
5.319403e+02	-3.283482e+01
5.350128e+02	-3.288828e+01
5.381030e+02	-3.293742e+01
5.412111e+02	-3.298838e+01
5.443371e+02	-3.304017e+01
5.474812e+02	-3.308155e+01
5.506434e+02	-3.313838e+01
5.538239e+02	-3.318696e+01
5.570228e+02	-3.324327e+01
5.602401e+02	-3.329264e+01
5.634760e+02	-3.334600e+01
5.667306e+02	-3.338711e+01
5.700040e+02	-3.344137e+01
5.732964e+02	-3.349275e+01
5.766077e+02	-3.354161e+01
5.799382e+02	-3.359003e+01
5.832879e+02	-3.364228e+01
5.866569e+02	-3.369026e+01
5.900454e+02	-3.374632e+01
5.934535e+02	-3.378614e+01
5.968813e+02	-3.384777e+01
6.003288e+02	-3.389221e+01
6.037963e+02	-3.394629e+01
6.072838e+02	-3.399448e+01
6.107914e+02	-3.403319e+01
6.143194e+02	-3.409681e+01
6.178676e+02	-3.414219e+01
6.214364e+02	-3.420055e+01
6.250258e+02	-3.424905e+01
6.286359e+02	-3.429449e+01
6.322669e+02	-3.435096e+01
6.359189e+02	-3.440349e+01
6.395919e+02	-3.444573e+01
6.432862e+02	-3.449707e+01
6.470017e+02	-3.454473e+01
6.507388e+02	-3.460071e+01
6.544974e+02	-3.464058e+01
6.582778e+02	-3.469730e+01
6.620800e+02	-3.475651e+01
6.659041e+02	-3.480446e+01
6.697504e+02	-3.485024e+01
6.736188e+02	-3.490141e+01
6.775096e+02	-3.495614e+01
6.814229e+02	-3.501188e+01
6.853587e+02	-3.505165e+01
6.893173e+02	-3.510440e+01
6.932988e+02	-3.516213e+01
6.973033e+02	-3.520064e+01
7.013309e+02	-3.525322e+01
