Frequency(Hz)	Magnitude(dB)
1.000000e+01	-1.688167e-05
1.005776e+01	-1.707724e-05
1.011585e+01	-1.727509e-05
1.017428e+01	-1.747522e-05
1.023305e+01	-1.767768e-05
1.029215e+01	-1.788248e-05
1.035160e+01	-1.808965e-05
1.041139e+01	-1.829923e-05
1.047153e+01	-1.851123e-05
1.053201e+01	-1.872568e-05
1.059284e+01	-1.894263e-05
1.065403e+01	-1.916208e-05
1.071556e+01	-1.938408e-05
1.077746e+01	-1.960865e-05
1.083971e+01	-1.983582e-05
1.090232e+01	-2.006562e-05
1.096529e+01	-2.029809e-05
1.102862e+01	-2.053325e-05
1.109232e+01	-2.077113e-05
1.115639e+01	-2.101177e-05
1.122083e+01	-2.125520e-05
1.128564e+01	-2.150144e-05
1.135083e+01	-2.175054e-05
1.141639e+01	-2.200253e-05
1.148233e+01	-2.225743e-05
1.154865e+01	-2.251529e-05
1.161536e+01	-2.277613e-05
1.168245e+01	-2.304000e-05
1.174992e+01	-2.330693e-05
1.181779e+01	-2.357694e-05
1.188605e+01	-2.385009e-05
1.195470e+01	-2.412640e-05
1.202375e+01	-2.440591e-05
1.209320e+01	-2.468866e-05
1.216305e+01	-2.497468e-05
1.223330e+01	-2.526402e-05
1.230396e+01	-2.555671e-05
1.237503e+01	-2.585279e-05
1.244651e+01	-2.615230e-05
1.251840e+01	-2.645528e-05
1.259070e+01	-2.676177e-05
1.266343e+01	-2.707181e-05
1.273657e+01	-2.738545e-05
1.281014e+01	-2.770271e-05
1.288413e+01	-2.802366e-05
1.295855e+01	-2.834832e-05
1.303339e+01	-2.867674e-05
1.310867e+01	-2.900897e-05
1.318439e+01	-2.934504e-05
1.326054e+01	-2.968501e-05
1.333713e+01	-3.002892e-05
1.341417e+01	-3.037681e-05
1.349165e+01	-3.072873e-05
1.356958e+01	-3.108473e-05
1.364795e+01	-3.144486e-05
1.372678e+01	-3.180915e-05
1.380607e+01	-3.217767e-05
1.388581e+01	-3.255046e-05
1.396602e+01	-3.292756e-05
1.404668e+01	-3.330903e-05
1.412782e+01	-3.369493e-05
1.420942e+01	-3.408529e-05
1.429149e+01	-3.448018e-05
1.437404e+01	-3.487964e-05
1.445706e+01	-3.528373e-05
1.454057e+01	-3.569250e-05
1.462455e+01	-3.610600e-05
1.470902e+01	-3.652430e-05
1.479398e+01	-3.694744e-05
1.487943e+01	-3.737549e-05
1.496537e+01	-3.780849e-05
1.505181e+01	-3.824651e-05
1.513875e+01	-3.868960e-05
1.522619e+01	-3.913783e-05
1.531414e+01	-3.959125e-05
1.540259e+01	-4.004993e-05
1.549156e+01	-4.051391e-05
1.558103e+01	-4.098328e-05
1.567103e+01	-4.145808e-05
1.576155e+01	-4.193838e-05
1.585258e+01	-4.242424e-05
1.594415e+01	-4.291574e-05
1.603624e+01	-4.341293e-05
1.612886e+01	-4.391587e-05
1.622202e+01	-4.442465e-05
1.631572e+01	-4.493932e-05
1.640996e+01	-4.545995e-05
1.650474e+01	-4.598661e-05
1.660008e+01	-4.651938e-05
1.669596e+01	-4.705832e-05
1.679239e+01	-4.760350e-05
1.688938e+01	-4.815499e-05
1.698694e+01	-4.871288e-05
1.708505e+01	-4.927723e-05
1.718373e+01	-4.984812e-05
1.728299e+01	-5.042562e-05
1.738281e+01	-5.100981e-05
1.748322e+01	-5.160077e-05
1.758420e+01	-5.219857e-05
1.768576e+01	-5.280331e-05
1.778792e+01	-5.341504e-05
1.789066e+01	-5.403387e-05
1.799399e+01	-5.465986e-05
1.809793e+01	-5.529311e-05
1.820246e+01	-5.593369e-05
1.830760e+01	-5.658169e-05
1.841334e+01	-5.723720e-05
1.851969e+01	-5.790031e-05
1.862666e+01	-5.857109e-05
1.873425e+01	-5.924965e-05
1.884246e+01	-5.993607e-05
1.895129e+01	-6.063044e-05
1.906075e+01	-6.133286e-05
1.917085e+01	-6.204341e-05
1.928158e+01	-6.276220e-05
1.939295e+01	-6.348931e-05
1.950496e+01	-6.422484e-05
1.961762e+01	-6.496890e-05
1.973093e+01	-6.572158e-05
1.984490e+01	-6.648297e-05
1.995952e+01	-6.725319e-05
2.007480e+01	-6.803233e-05
2.019076e+01	-6.882050e-05
2.030738e+01	-6.961780e-05
2.042467e+01	-7.042433e-05
2.054264e+01	-7.124021e-05
2.066130e+01	-7.206554e-05
2.078064e+01	-7.290044e-05
2.090066e+01	-7.374500e-05
2.102139e+01	-7.459935e-05
2.114280e+01	-7.546360e-05
2.126492e+01	-7.633786e-05
2.138775e+01	-7.722224e-05
2.151128e+01	-7.811688e-05
2.163553e+01	-7.902188e-05
2.176050e+01	-7.993736e-05
2.188619e+01	-8.086345e-05
2.201260e+01	-8.180026e-05
2.213974e+01	-8.274793e-05
2.226762e+01	-8.370658e-05
2.239624e+01	-8.467634e-05
2.252560e+01	-8.565732e-05
2.265571e+01	-8.664968e-05
2.278656e+01	-8.765353e-05
2.291818e+01	-8.866901e-05
2.305055e+01	-8.969625e-05
2.318369e+01	-9.073540e-05
2.331760e+01	-9.178658e-05
2.345228e+01	-9.284995e-05
2.358774e+01	-9.392563e-05
2.372398e+01	-9.501377e-05
2.386101e+01	-9.611452e-05
2.399883e+01	-9.722802e-05
2.413745e+01	-9.835442e-05
2.427686e+01	-9.949387e-05
2.441709e+01	-1.006465e-04
2.455812e+01	-1.018125e-04
2.469997e+01	-1.029920e-04
2.484263e+01	-1.041852e-04
2.498612e+01	-1.053922e-04
2.513044e+01	-1.066132e-04
2.527559e+01	-1.078483e-04
2.542158e+01	-1.090978e-04
2.556842e+01	-1.103617e-04
2.571610e+01	-1.116402e-04
2.586463e+01	-1.129336e-04
2.601403e+01	-1.142419e-04
2.616428e+01	-1.155655e-04
2.631541e+01	-1.169043e-04
2.646740e+01	-1.182586e-04
2.662028e+01	-1.196287e-04
2.677404e+01	-1.210146e-04
2.692868e+01	-1.224166e-04
2.708422e+01	-1.238348e-04
2.724066e+01	-1.252694e-04
2.739800e+01	-1.267207e-04
2.755625e+01	-1.281887e-04
2.771541e+01	-1.296738e-04
2.787550e+01	-1.311761e-04
2.803650e+01	-1.326958e-04
2.819844e+01	-1.342331e-04
2.836131e+01	-1.357882e-04
2.852513e+01	-1.373613e-04
2.868989e+01	-1.389527e-04
2.885560e+01	-1.405624e-04
2.902227e+01	-1.421909e-04
2.918990e+01	-1.438382e-04
2.935850e+01	-1.455045e-04
2.952807e+01	-1.471902e-04
2.969863e+01	-1.488954e-04
2.987016e+01	-1.506204e-04
3.004269e+01	-1.523654e-04
3.021622e+01	-1.541305e-04
3.039075e+01	-1.559161e-04
3.056628e+01	-1.577224e-04
3.074283e+01	-1.595497e-04
3.092040e+01	-1.613980e-04
3.109900e+01	-1.632679e-04
3.127862e+01	-1.651593e-04
3.145929e+01	-1.670727e-04
3.164099e+01	-1.690082e-04
3.182375e+01	-1.709662e-04
3.200756e+01	-1.729469e-04
3.219244e+01	-1.749505e-04
3.237838e+01	-1.769773e-04
3.256540e+01	-1.790276e-04
3.275349e+01	-1.811016e-04
3.294268e+01	-1.831997e-04
3.313295e+01	-1.853220e-04
3.332433e+01	-1.874690e-04
3.351681e+01	-1.896408e-04
3.371040e+01	-1.918378e-04
3.390511e+01	-1.940603e-04
3.410094e+01	-1.963085e-04
3.429791e+01	-1.985827e-04
3.449601e+01	-2.008833e-04
3.469526e+01	-2.032105e-04
3.489566e+01	-2.055647e-04
3.509721e+01	-2.079462e-04
3.529993e+01	-2.103552e-04
3.550382e+01	-2.127922e-04
3.570889e+01	-2.152574e-04
3.591515e+01	-2.177512e-04
3.612259e+01	-2.202738e-04
3.633123e+01	-2.228257e-04
3.654108e+01	-2.254071e-04
3.675214e+01	-2.280184e-04
3.696442e+01	-2.306600e-04
3.717792e+01	-2.333322e-04
3.739266e+01	-2.360354e-04
3.760864e+01	-2.387698e-04
3.782587e+01	-2.415360e-04
3.804435e+01	-2.443341e-04
3.826409e+01	-2.471647e-04
3.848510e+01	-2.500281e-04
3.870739e+01	-2.529247e-04
3.893096e+01	-2.558548e-04
3.915583e+01	-2.588189e-04
3.938199e+01	-2.618173e-04
3.960946e+01	-2.648504e-04
3.983824e+01	-2.679187e-04
4.006834e+01	-2.710225e-04
4.029978e+01	-2.741622e-04
4.053255e+01	-2.773384e-04
4.076666e+01	-2.805513e-04
4.100213e+01	-2.838015e-04
4.123896e+01	-2.870893e-04
4.147715e+01	-2.904152e-04
4.171672e+01	-2.937796e-04
4.195767e+01	-2.971830e-04
4.220002e+01	-3.006259e-04
4.244377e+01	-3.041086e-04
4.268892e+01	-3.076316e-04
4.293549e+01	-3.111955e-04
4.318348e+01	-3.148007e-04
4.343291e+01	-3.184476e-04
4.368377e+01	-3.221367e-04
4.393609e+01	-3.258686e-04
4.418986e+01	-3.296438e-04
4.444510e+01	-3.334626e-04
4.470182e+01	-3.373258e-04
4.496001e+01	-3.412336e-04
4.521970e+01	-3.451867e-04
4.548089e+01	-3.491857e-04
4.574358e+01	-3.532309e-04
4.600779e+01	-3.573230e-04
4.627353e+01	-3.614625e-04
4.654081e+01	-3.656500e-04
4.680963e+01	-3.698860e-04
4.708000e+01	-3.741710e-04
4.735193e+01	-3.785057e-04
4.762543e+01	-3.828906e-04
4.790051e+01	-3.873263e-04
4.817719e+01	-3.918134e-04
4.845545e+01	-3.963525e-04
4.873533e+01	-4.009441e-04
4.901682e+01	-4.055889e-04
4.929994e+01	-4.102876e-04
4.958470e+01	-4.150406e-04
4.987110e+01	-4.198488e-04
5.015915e+01	-4.247126e-04
5.044887e+01	-4.296328e-04
5.074026e+01	-4.346099e-04
5.103333e+01	-4.396447e-04
5.132810e+01	-4.447379e-04
5.162457e+01	-4.498900e-04
5.192275e+01	-4.551019e-04
5.222265e+01	-4.603741e-04
5.252429e+01	-4.657073e-04
5.282767e+01	-4.711024e-04
5.313280e+01	-4.765599e-04
5.343969e+01	-4.820807e-04
5.374836e+01	-4.876654e-04
5.405880e+01	-4.933149e-04
5.437105e+01	-4.990297e-04
5.468509e+01	-5.048108e-04
5.500095e+01	-5.106588e-04
5.531863e+01	-5.165746e-04
5.563815e+01	-5.225589e-04
5.595951e+01	-5.286125e-04
5.628273e+01	-5.347362e-04
5.660782e+01	-5.409309e-04
5.693479e+01	-5.471974e-04
5.726364e+01	-5.535364e-04
5.759439e+01	-5.599489e-04
5.792705e+01	-5.664356e-04
5.826164e+01	-5.729975e-04
5.859815e+01	-5.796354e-04
5.893662e+01	-5.863501e-04
5.927703e+01	-5.931427e-04
5.961941e+01	-6.000140e-04
5.996377e+01	-6.069648e-04
6.031012e+01	-6.139962e-04
6.065847e+01	-6.211090e-04
6.100883e+01	-6.283042e-04
6.136121e+01	-6.355827e-04
6.171563e+01	-6.429456e-04
6.207210e+01	-6.503937e-04
6.243063e+01	-6.579281e-04
6.279122e+01	-6.655498e-04
6.315390e+01	-6.732598e-04
6.351868e+01	-6.810591e-04
6.388556e+01	-6.889487e-04
6.425456e+01	-6.969297e-04
6.462569e+01	-7.050032e-04
6.499897e+01	-7.131702e-04
6.537440e+01	-7.214318e-04
6.575200e+01	-7.297891e-04
6.613178e+01	-7.382431e-04
6.651375e+01	-7.467952e-04
6.689793e+01	-7.554462e-04
6.728433e+01	-7.641975e-04
6.767297e+01	-7.730502e-04
6.806384e+01	-7.820054e-04
6.845698e+01	-7.910643e-04
6.885238e+01	-8.002281e-04
6.925007e+01	-8.094981e-04
6.965005e+01	-8.188755e-04
7.005235e+01	-8.283615e-04
7.045697e+01	-8.379574e-04
7.086393e+01	-8.476644e-04
7.127323e+01	-8.574838e-04
7.168490e+01	-8.674170e-04
7.209895e+01	-8.774653e-04
7.251539e+01	-8.876299e-04
7.293424e+01	-8.979123e-04
7.335551e+01	-9.083138e-04
7.377920e+01	-9.188357e-04
7.420535e+01	-9.294795e-04
7.463396e+01	-9.402466e-04
7.506504e+01	-9.511385e-04
7.549861e+01	-9.621564e-04
7.593469e+01	-9.733020e-04
7.637328e+01	-9.845767e-04
7.681441e+01	-9.959820e-04
7.725809e+01	-1.007519e-03
7.770433e+01	-1.019190e-03
7.815315e+01	-1.030997e-03
7.860456e+01	-1.042940e-03
7.905857e+01	-1.055021e-03
7.951521e+01	-1.067242e-03
7.997449e+01	-1.079605e-03
8.043642e+01	-1.092111e-03
8.090102e+01	-1.104762e-03
8.136830e+01	-1.117559e-03
8.183828e+01	-1.130504e-03
8.231097e+01	-1.143600e-03
8.278640e+01	-1.156847e-03
8.326457e+01	-1.170248e-03
8.374550e+01	-1.183803e-03
8.422921e+01	-1.197516e-03
8.471572e+01	-1.211388e-03
8.520503e+01	-1.225420e-03
8.569717e+01	-1.239615e-03
8.619215e+01	-1.253974e-03
8.669000e+01	-1.268500e-03
8.719071e+01	-1.283193e-03
8.769432e+01	-1.298057e-03
8.820084e+01	-1.313093e-03
8.871029e+01	-1.328303e-03
8.922267e+01	-1.343690e-03
8.973802e+01	-1.359254e-03
9.025634e+01	-1.374999e-03
9.077766e+01	-1.390926e-03
9.130199e+01	-1.407038e-03
9.182935e+01	-1.423336e-03
9.235975e+01	-1.439823e-03
9.289321e+01	-1.456501e-03
9.342976e+01	-1.473372e-03
9.396941e+01	-1.490439e-03
9.451217e+01	-1.507703e-03
9.505807e+01	-1.525167e-03
9.560712e+01	-1.542833e-03
9.615934e+01	-1.560704e-03
9.671476e+01	-1.578782e-03
9.727338e+01	-1.597069e-03
9.783522e+01	-1.615569e-03
9.840032e+01	-1.634282e-03
9.896867e+01	-1.653212e-03
9.954031e+01	-1.672361e-03
1.001153e+02	-1.691732e-03
1.006935e+02	-1.711327e-03
1.012751e+02	-1.731150e-03
1.018601e+02	-1.751201e-03
1.024484e+02	-1.771485e-03
1.030402e+02	-1.792004e-03
1.036353e+02	-1.812761e-03
1.042339e+02	-1.833758e-03
1.048360e+02	-1.854998e-03
1.054415e+02	-1.876484e-03
1.060505e+02	-1.898218e-03
1.066631e+02	-1.920205e-03
1.072791e+02	-1.942446e-03
1.078988e+02	-1.964945e-03
1.085220e+02	-1.987704e-03
1.091488e+02	-2.010727e-03
1.097793e+02	-2.034016e-03
1.104133e+02	-2.057575e-03
1.110511e+02	-2.081407e-03
1.116925e+02	-2.105515e-03
1.123376e+02	-2.129902e-03
1.129865e+02	-2.154571e-03
1.136391e+02	-2.179526e-03
1.142955e+02	-2.204770e-03
1.149556e+02	-2.230306e-03
1.156196e+02	-2.256138e-03
1.162874e+02	-2.282269e-03
1.169591e+02	-2.308703e-03
1.176347e+02	-2.335443e-03
1.183141e+02	-2.362492e-03
1.189975e+02	-2.389855e-03
1.196848e+02	-2.417534e-03
1.203761e+02	-2.445534e-03
1.210714e+02	-2.473858e-03
1.217707e+02	-2.502510e-03
1.224740e+02	-2.531494e-03
1.231814e+02	-2.560813e-03
1.238929e+02	-2.590472e-03
1.246085e+02	-2.620474e-03
1.253283e+02	-2.650824e-03
1.260522e+02	-2.681525e-03
1.267802e+02	-2.712581e-03
1.275125e+02	-2.743997e-03
1.282490e+02	-2.775777e-03
1.289898e+02	-2.807925e-03
1.297348e+02	-2.840445e-03
1.304842e+02	-2.873341e-03
1.312378e+02	-2.906618e-03
1.319959e+02	-2.940281e-03
1.327583e+02	-2.974333e-03
1.335251e+02	-3.008780e-03
1.342963e+02	-3.043625e-03
1.350720e+02	-3.078874e-03
1.358522e+02	-3.114530e-03
1.366368e+02	-3.150600e-03
1.374260e+02	-3.187087e-03
1.382198e+02	-3.223996e-03
1.390182e+02	-3.261333e-03
1.398211e+02	-3.299102e-03
1.406287e+02	-3.337309e-03
1.414410e+02	-3.375957e-03
1.422579e+02	-3.415053e-03
1.430796e+02	-3.454602e-03
1.439060e+02	-3.494608e-03
1.447372e+02	-3.535077e-03
1.455732e+02	-3.576015e-03
1.464141e+02	-3.617427e-03
1.472597e+02	-3.659318e-03
1.481103e+02	-3.701694e-03
1.489658e+02	-3.744561e-03
1.498262e+02	-3.787924e-03
1.506916e+02	-3.831788e-03
1.515620e+02	-3.876161e-03
1.524374e+02	-3.921047e-03
1.533179e+02	-3.966452e-03
1.542034e+02	-4.012383e-03
1.550941e+02	-4.058846e-03
1.559899e+02	-4.105847e-03
1.568909e+02	-4.153391e-03
1.577971e+02	-4.201486e-03
1.587085e+02	-4.250137e-03
1.596252e+02	-4.299352e-03
1.605472e+02	-4.349136e-03
1.614745e+02	-4.399496e-03
1.624072e+02	-4.450440e-03
1.633453e+02	-4.501972e-03
1.642887e+02	-4.554101e-03
1.652377e+02	-4.606834e-03
1.661921e+02	-4.660176e-03
1.671520e+02	-4.714136e-03
1.681175e+02	-4.768721e-03
1.690885e+02	-4.823937e-03
1.700651e+02	-4.879792e-03
1.710474e+02	-4.936294e-03
1.720354e+02	-4.993449e-03
1.730291e+02	-5.051266e-03
1.740285e+02	-5.109751e-03
1.750337e+02	-5.168914e-03
1.760446e+02	-5.228761e-03
1.770615e+02	-5.289300e-03
1.780842e+02	-5.350540e-03
1.791128e+02	-5.412489e-03
1.801473e+02	-5.475155e-03
1.811878e+02	-5.538545e-03
1.822344e+02	-5.602669e-03
1.832870e+02	-5.667535e-03
1.843456e+02	-5.733151e-03
1.854104e+02	-5.799527e-03
1.864813e+02	-5.866670e-03
1.875584e+02	-5.934591e-03
1.886418e+02	-6.003297e-03
1.897313e+02	-6.072798e-03
1.908272e+02	-6.143103e-03
1.919294e+02	-6.214221e-03
1.930380e+02	-6.286162e-03
1.941530e+02	-6.358936e-03
1.952744e+02	-6.432551e-03
1.964023e+02	-6.507018e-03
1.975367e+02	-6.582346e-03
1.986777e+02	-6.658546e-03
1.998252e+02	-6.735627e-03
2.009794e+02	-6.813599e-03
2.021403e+02	-6.892474e-03
2.033078e+02	-6.972260e-03
2.044821e+02	-7.052970e-03
2.056632e+02	-7.134613e-03
2.068511e+02	-7.217201e-03
2.080459e+02	-7.300743e-03
2.092475e+02	-7.385252e-03
2.104561e+02	-7.470738e-03
2.116717e+02	-7.557213e-03
2.128943e+02	-7.644688e-03
2.141240e+02	-7.733175e-03
2.153608e+02	-7.822685e-03
2.166047e+02	-7.913230e-03
2.178558e+02	-8.004822e-03
2.191141e+02	-8.097473e-03
2.203797e+02	-8.191196e-03
2.216526e+02	-8.286002e-03
2.229329e+02	-8.381904e-03
2.242205e+02	-8.478916e-03
2.255156e+02	-8.577049e-03
2.268182e+02	-8.676317e-03
2.281283e+02	-8.776732e-03
2.294459e+02	-8.878309e-03
2.307712e+02	-8.981059e-03
2.321041e+02	-9.084998e-03
2.334447e+02	-9.190138e-03
2.347931e+02	-9.296494e-03
2.361493e+02	-9.404079e-03
2.375133e+02	-9.512908e-03
2.388851e+02	-9.622995e-03
2.402649e+02	-9.734355e-03
2.416527e+02	-9.847002e-03
2.430484e+02	-9.960950e-03
2.444523e+02	-1.007622e-02
2.458642e+02	-1.019281e-02
2.472843e+02	-1.031076e-02
2.487126e+02	-1.043007e-02
2.501492e+02	-1.055076e-02
2.515940e+02	-1.067284e-02
2.530472e+02	-1.079633e-02
2.545088e+02	-1.092125e-02
2.559789e+02	-1.104762e-02
2.574574e+02	-1.117544e-02
2.589444e+02	-1.130474e-02
2.604401e+02	-1.143554e-02
2.619444e+02	-1.156784e-02
2.634574e+02	-1.170168e-02
2.649791e+02	-1.183706e-02
2.665096e+02	-1.197401e-02
2.680489e+02	-1.211254e-02
2.695972e+02	-1.225266e-02
2.711544e+02	-1.239441e-02
2.727205e+02	-1.253779e-02
2.742958e+02	-1.268284e-02
2.758801e+02	-1.282955e-02
2.774736e+02	-1.297796e-02
2.790762e+02	-1.312809e-02
2.806882e+02	-1.327995e-02
2.823094e+02	-1.343356e-02
2.839400e+02	-1.358895e-02
2.855800e+02	-1.374613e-02
2.872295e+02	-1.390512e-02
2.888886e+02	-1.406596e-02
2.905572e+02	-1.422865e-02
2.922354e+02	-1.439321e-02
2.939234e+02	-1.455968e-02
2.956211e+02	-1.472807e-02
2.973286e+02	-1.489841e-02
2.990459e+02	-1.507071e-02
3.007732e+02	-1.524500e-02
3.025104e+02	-1.542130e-02
3.042577e+02	-1.559964e-02
3.060151e+02	-1.578004e-02
3.077826e+02	-1.596252e-02
3.095604e+02	-1.614710e-02
3.113484e+02	-1.633382e-02
3.131467e+02	-1.652269e-02
3.149554e+02	-1.671374e-02
3.167746e+02	-1.690699e-02
3.186043e+02	-1.710248e-02
3.204445e+02	-1.730022e-02
3.222954e+02	-1.750024e-02
3.241570e+02	-1.770257e-02
3.260293e+02	-1.790723e-02
3.279124e+02	-1.811426e-02
3.298064e+02	-1.832367e-02
3.317114e+02	-1.853550e-02
3.336273e+02	-1.874978e-02
3.355544e+02	-1.896652e-02
3.374925e+02	-1.918577e-02
3.394418e+02	-1.940754e-02
3.414024e+02	-1.963187e-02
3.433744e+02	-1.985879e-02
3.453577e+02	-2.008833e-02
3.473525e+02	-2.032051e-02
3.493588e+02	-2.055537e-02
3.513766e+02	-2.079293e-02
3.534062e+02	-2.103324e-02
3.554474e+02	-2.127632e-02
3.575005e+02	-2.152220e-02
3.595654e+02	-2.177091e-02
3.616422e+02	-2.202249e-02
3.637311e+02	-2.227697e-02
3.658320e+02	-2.253438e-02
3.679450e+02	-2.279476e-02
3.700702e+02	-2.305814e-02
3.722077e+02	-2.332455e-02
3.743576e+02	-2.359404e-02
3.765199e+02	-2.386663e-02
3.786946e+02	-2.414236e-02
3.808820e+02	-2.442126e-02
3.830819e+02	-2.470338e-02
3.852946e+02	-2.498875e-02
3.875200e+02	-2.527741e-02
3.897583e+02	-2.556939e-02
3.920096e+02	-2.586473e-02
3.942738e+02	-2.616348e-02
3.965511e+02	-2.646566e-02
3.988416e+02	-2.677132e-02
4.011452e+02	-2.708051e-02
4.034622e+02	-2.739325e-02
4.057926e+02	-2.770959e-02
4.081365e+02	-2.802958e-02
4.104938e+02	-2.835324e-02
4.128648e+02	-2.868063e-02
4.152495e+02	-2.901179e-02
4.176480e+02	-2.934676e-02
4.200603e+02	-2.968559e-02
4.224866e+02	-3.002831e-02
4.249268e+02	-3.037498e-02
4.273812e+02	-3.072563e-02
4.298497e+02	-3.108032e-02
4.323325e+02	-3.143908e-02
4.348297e+02	-3.180197e-02
4.373412e+02	-3.216904e-02
4.398673e+02	-3.254033e-02
4.424079e+02	-3.291588e-02
4.449633e+02	-3.329575e-02
4.475334e+02	-3.367999e-02
4.501183e+02	-3.406865e-02
4.527182e+02	-3.446178e-02
4.553330e+02	-3.485942e-02
4.579630e+02	-3.526163e-02
4.606082e+02	-3.566846e-02
4.632687e+02	-3.607997e-02
4.659445e+02	-3.649620e-02
4.686358e+02	-3.691722e-02
4.713426e+02	-3.734307e-02
4.740650e+02	-3.777382e-02
4.768032e+02	-3.820951e-02
4.795572e+02	-3.865020e-02
4.823271e+02	-3.909595e-02
4.851130e+02	-3.954682e-02
4.879150e+02	-4.000286e-02
4.907332e+02	-4.046414e-02
4.935676e+02	-4.093072e-02
4.964185e+02	-4.140264e-02
4.992858e+02	-4.187999e-02
5.021696e+02	-4.236281e-02
5.050701e+02	-4.285116e-02
5.079874e+02	-4.334512e-02
5.109215e+02	-4.384475e-02
5.138726e+02	-4.435010e-02
5.168407e+02	-4.486125e-02
5.198259e+02	-4.537826e-02
5.228284e+02	-4.590119e-02
5.258482e+02	-4.643012e-02
5.288855e+02	-4.696511e-02
5.319403e+02	-4.750623e-02
5.350128e+02	-4.805355e-02
5.381030e+02	-4.860715e-02
5.412111e+02	-4.916708e-02
5.443371e+02	-4.973343e-02
5.474812e+02	-5.030626e-02
5.506434e+02	-5.088565e-02
5.538239e+02	-5.147167e-02
5.570228e+02	-5.206441e-02
5.602401e+02	-5.266392e-02
5.634760e+02	-5.327030e-02
5.667306e+02	-5.388362e-02
5.700040e+02	-5.450395e-02
5.732964e+02	-5.513138e-02
5.766077e+02	-5.576598e-02
5.799382e+02	-5.640785e-02
5.832879e+02	-5.705705e-02
5.866569e+02	-5.771367e-02
5.900454e+02	-5.837780e-02
5.934535e+02	-5.904952e-02
5.968813e+02	-5.972891e-02
6.003288e+02	-6.041607e-02
6.037963e+02	-6.111108e-02
6.072838e+02	-6.181402e-02
6.107914e+02	-6.252500e-02
6.143194e+02	-6.324409e-02
6.178676e+02	-6.397138e-02
6.214364e+02	-6.470698e-02
6.250258e+02	-6.545098e-02
6.286359e+02	-6.620346e-02
6.322669e+02	-6.696453e-02
6.359189e+02	-6.773428e-02
6.395919e+02	-6.851281e-02
6.432862e+02	-6.930021e-02
6.470017e+02	-7.009659e-02
6.507388e+02	-7.090205e-02
6.544974e+02	-7.171668e-02
6.582778e+02	-7.254060e-02
6.620800e+02	-7.337390e-02
6.659041e+02	-7.421669e-02
6.697504e+02	-7.506908e-02
6.736188e+02	-7.593118e-02
6.775096e+02	-7.680308e-02
6.814229e+02	-7.768491e-02
6.853587e+02	-7.857677e-02
6.893173e+02	-7.947878e-02
6.932988e+02	-8.039104e-02
6.973033e+02	-8.131368e-02
7.013309e+02	-8.224680e-02
