Frequency(Hz)	Magnitude(dB)
1.000000e+01	-2.399778e+00
1.005776e+01	-2.420973e+00
1.011585e+01	-2.442629e+00
1.017428e+01	-2.464225e+00
1.023305e+01	-2.486032e+00
1.029215e+01	-2.508023e+00
1.035160e+01	-2.529702e+00
1.041139e+01	-2.551914e+00
1.047153e+01	-2.574333e+00
1.053201e+01	-2.596582e+00
1.059284e+01	-2.619321e+00
1.065403e+01	-2.641863e+00
1.071556e+01	-2.664815e+00
1.077746e+01	-2.687643e+00
1.083971e+01	-2.711153e+00
1.090232e+01	-2.734221e+00
1.096529e+01	-2.757941e+00
1.102862e+01	-2.781469e+00
1.109232e+01	-2.805066e+00
1.115639e+01	-2.828948e+00
1.122083e+01	-2.853047e+00
1.128564e+01	-2.877187e+00
1.135083e+01	-2.901591e+00
1.141639e+01	-2.926003e+00
1.148233e+01	-2.950426e+00
1.154865e+01	-2.975357e+00
1.161536e+01	-3.000004e+00
1.168245e+01	-3.025321e+00
1.174992e+01	-3.050342e+00
1.181779e+01	-3.075613e+00
1.188605e+01	-3.101165e+00
1.195470e+01	-3.126674e+00
1.202375e+01	-3.152619e+00
1.209320e+01	-3.178563e+00
1.216305e+01	-3.204385e+00
1.223330e+01	-3.230495e+00
1.230396e+01	-3.256965e+00
1.237503e+01	-3.283409e+00
1.244651e+01	-3.310046e+00
1.251840e+01	-3.336949e+00
1.259070e+01	-3.363631e+00
1.266343e+01	-3.390937e+00
1.273657e+01	-3.417589e+00
1.281014e+01	-3.445176e+00
1.288413e+01	-3.472681e+00
1.295855e+01	-3.500239e+00
1.303339e+01	-3.528146e+00
1.310867e+01	-3.555835e+00
1.318439e+01	-3.584063e+00
1.326054e+01	-3.612265e+00
1.333713e+01	-3.640337e+00
1.341417e+01	-3.669011e+00
1.349165e+01	-3.697735e+00
1.356958e+01	-3.726231e+00
1.364795e+01	-3.754930e+00
1.372678e+01	-3.783939e+00
1.380607e+01	-3.813436e+00
1.388581e+01	-3.842354e+00
1.396602e+01	-3.872162e+00
1.404668e+01	-3.901772e+00
1.412782e+01	-3.931333e+00
1.420942e+01	-3.961348e+00
1.429149e+01	-3.991261e+00
1.437404e+01	-4.021438e+00
1.445706e+01	-4.051608e+00
1.454057e+01	-4.082206e+00
1.462455e+01	-4.112822e+00
1.470902e+01	-4.143205e+00
1.479398e+01	-4.173976e+00
1.487943e+01	-4.205039e+00
1.496537e+01	-4.236097e+00
1.505181e+01	-4.267546e+00
1.513875e+01	-4.298752e+00
1.522619e+01	-4.330056e+00
1.531414e+01	-4.362010e+00
1.540259e+01	-4.393783e+00
1.549156e+01	-4.425489e+00
1.558103e+01	-4.457608e+00
1.567103e+01	-4.489744e+00
1.576155e+01	-4.522128e+00
1.585258e+01	-4.554524e+00
1.594415e+01	-4.587140e+00
1.603624e+01	-4.619964e+00
1.612886e+01	-4.652787e+00
1.622202e+01	-4.685366e+00
1.631572e+01	-4.718785e+00
1.640996e+01	-4.751878e+00
1.650474e+01	-4.784944e+00
1.660008e+01	-4.818866e+00
1.669596e+01	-4.852285e+00
1.679239e+01	-4.886009e+00
1.688938e+01	-4.919808e+00
1.698694e+01	-4.953834e+00
1.708505e+01	-4.988055e+00
1.718373e+01	-5.022097e+00
1.728299e+01	-5.056304e+00
1.738281e+01	-5.090961e+00
1.748322e+01	-5.125699e+00
1.758420e+01	-5.160463e+00
1.768576e+01	-5.195098e+00
1.778792e+01	-5.229931e+00
1.789066e+01	-5.265245e+00
1.799399e+01	-5.300265e+00
1.809793e+01	-5.335681e+00
1.820246e+01	-5.371178e+00
1.830760e+01	-5.406657e+00
1.841334e+01	-5.442595e+00
1.851969e+01	-5.477834e+00
1.862666e+01	-5.514140e+00
1.873425e+01	-5.550105e+00
1.884246e+01	-5.586036e+00
1.895129e+01	-5.622478e+00
1.906075e+01	-5.658901e+00
1.917085e+01	-5.695246e+00
1.928158e+01	-5.732025e+00
1.939295e+01	-5.768473e+00
1.950496e+01	-5.805665e+00
1.961762e+01	-5.842464e+00
1.973093e+01	-5.879406e+00
1.984490e+01	-5.916682e+00
1.995952e+01	-5.953775e+00
2.007480e+01	-5.991425e+00
2.019076e+01	-6.028965e+00
2.030738e+01	-6.066573e+00
2.042467e+01	-6.104010e+00
2.054264e+01	-6.141695e+00
2.066130e+01	-6.180126e+00
2.078064e+01	-6.217722e+00
2.090066e+01	-6.255924e+00
2.102139e+01	-6.294244e+00
2.114280e+01	-6.332939e+00
2.126492e+01	-6.370938e+00
2.138775e+01	-6.409736e+00
2.151128e+01	-6.448062e+00
2.163553e+01	-6.486758e+00
2.176050e+01	-6.525788e+00
2.188619e+01	-6.564820e+00
2.201260e+01	-6.603691e+00
2.213974e+01	-6.642799e+00
2.226762e+01	-6.682254e+00
2.239624e+01	-6.721509e+00
2.252560e+01	-6.760907e+00
2.265571e+01	-6.800388e+00
2.278656e+01	-6.839755e+00
2.291818e+01	-6.879876e+00
2.305055e+01	-6.919898e+00
2.318369e+01	-6.959665e+00
2.331760e+01	-6.999360e+00
2.345228e+01	-7.039519e+00
2.358774e+01	-7.079786e+00
2.372398e+01	-7.120206e+00
2.386101e+01	-7.160543e+00
2.399883e+01	-7.201197e+00
2.413745e+01	-7.241091e+00
2.427686e+01	-7.282014e+00
2.441709e+01	-7.322793e+00
2.455812e+01	-7.363926e+00
2.469997e+01	-7.404450e+00
2.484263e+01	-7.445714e+00
2.498612e+01	-7.486196e+00
2.513044e+01	-7.527412e+00
2.527559e+01	-7.568824e+00
2.542158e+01	-7.610292e+00
2.556842e+01	-7.651311e+00
2.571610e+01	-7.692698e+00
2.586463e+01	-7.734954e+00
2.601403e+01	-7.775540e+00
2.616428e+01	-7.817802e+00
2.631541e+01	-7.859577e+00
2.646740e+01	-7.901643e+00
2.662028e+01	-7.943702e+00
2.677404e+01	-7.985812e+00
2.692868e+01	-8.027657e+00
2.708422e+01	-8.070096e+00
2.724066e+01	-8.112261e+00
2.739800e+01	-8.154277e+00
2.755625e+01	-8.196893e+00
2.771541e+01	-8.239073e+00
2.787550e+01	-8.281812e+00
2.803650e+01	-8.324164e+00
2.819844e+01	-8.367158e+00
2.836131e+01	-8.410333e+00
2.852513e+01	-8.453157e+00
2.868989e+01	-8.495679e+00
2.885560e+01	-8.538779e+00
2.902227e+01	-8.581596e+00
2.918990e+01	-8.624950e+00
2.935850e+01	-8.668415e+00
2.952807e+01	-8.711774e+00
2.969863e+01	-8.754636e+00
2.987016e+01	-8.798011e+00
3.004269e+01	-8.841161e+00
3.021622e+01	-8.884932e+00
3.039075e+01	-8.928968e+00
3.056628e+01	-8.972419e+00
3.074283e+01	-9.016282e+00
3.092040e+01	-9.059755e+00
3.109900e+01	-9.103732e+00
3.127862e+01	-9.147323e+00
3.145929e+01	-9.191364e+00
3.164099e+01	-9.235601e+00
3.182375e+01	-9.279610e+00
3.200756e+01	-9.323923e+00
3.219244e+01	-9.368027e+00
3.237838e+01	-9.412153e+00
3.256540e+01	-9.456763e+00
3.275349e+01	-9.501331e+00
3.294268e+01	-9.544935e+00
3.313295e+01	-9.590155e+00
3.332433e+01	-9.634116e+00
3.351681e+01	-9.678960e+00
3.371040e+01	-9.723915e+00
3.390511e+01	-9.768313e+00
3.410094e+01	-9.813384e+00
3.429791e+01	-9.858614e+00
3.449601e+01	-9.903279e+00
3.469526e+01	-9.948155e+00
3.489566e+01	-9.992830e+00
3.509721e+01	-1.003792e+01
3.529993e+01	-1.008302e+01
3.550382e+01	-1.012812e+01
3.570889e+01	-1.017333e+01
3.591515e+01	-1.021887e+01
3.612259e+01	-1.026335e+01
3.633123e+01	-1.030910e+01
3.654108e+01	-1.035428e+01
3.675214e+01	-1.039978e+01
3.696442e+01	-1.044529e+01
3.717792e+01	-1.049128e+01
3.739266e+01	-1.053657e+01
3.760864e+01	-1.058195e+01
3.782587e+01	-1.062767e+01
3.804435e+01	-1.067363e+01
3.826409e+01	-1.071939e+01
3.848510e+01	-1.076449e+01
3.870739e+01	-1.081129e+01
3.893096e+01	-1.085752e+01
3.915583e+01	-1.090307e+01
3.938199e+01	-1.094934e+01
3.960946e+01	-1.099486e+01
3.983824e+01	-1.104117e+01
4.006834e+01	-1.108669e+01
4.029978e+01	-1.113319e+01
4.053255e+01	-1.117989e+01
4.076666e+01	-1.122582e+01
4.100213e+01	-1.127190e+01
4.123896e+01	-1.131793e+01
4.147715e+01	-1.136471e+01
4.171672e+01	-1.141139e+01
4.195767e+01	-1.145772e+01
4.220002e+01	-1.150406e+01
4.244377e+01	-1.155102e+01
4.268892e+01	-1.159796e+01
4.293549e+01	-1.164408e+01
4.318348e+01	-1.169001e+01
4.343291e+01	-1.173729e+01
4.368377e+01	-1.178364e+01
4.393609e+01	-1.183011e+01
4.418986e+01	-1.187763e+01
4.444510e+01	-1.192392e+01
4.470182e+01	-1.197044e+01
4.496001e+01	-1.201752e+01
4.521970e+01	-1.206390e+01
4.548089e+01	-1.211204e+01
4.574358e+01	-1.215832e+01
4.600779e+01	-1.220526e+01
4.627353e+01	-1.225237e+01
4.654081e+01	-1.230000e+01
4.680963e+01	-1.234631e+01
4.708000e+01	-1.239419e+01
4.735193e+01	-1.244093e+01
4.762543e+01	-1.248757e+01
4.790051e+01	-1.253532e+01
4.817719e+01	-1.258238e+01
4.845545e+01	-1.262948e+01
4.873533e+01	-1.267735e+01
4.901682e+01	-1.272452e+01
4.929994e+01	-1.277143e+01
4.958470e+01	-1.281931e+01
4.987110e+01	-1.286658e+01
5.015915e+01	-1.291376e+01
5.044887e+01	-1.296173e+01
5.074026e+01	-1.300974e+01
5.103333e+01	-1.305690e+01
5.132810e+01	-1.310421e+01
5.162457e+01	-1.315220e+01
5.192275e+01	-1.319959e+01
5.222265e+01	-1.324783e+01
5.252429e+01	-1.329473e+01
5.282767e+01	-1.334283e+01
5.313280e+01	-1.338967e+01
5.343969e+01	-1.343731e+01
5.374836e+01	-1.348612e+01
5.405880e+01	-1.353402e+01
5.437105e+01	-1.358154e+01
5.468509e+01	-1.362927e+01
5.500095e+01	-1.367726e+01
5.531863e+01	-1.372414e+01
5.563815e+01	-1.377252e+01
5.595951e+01	-1.382110e+01
5.628273e+01	-1.386901e+01
5.660782e+01	-1.391745e+01
5.693479e+01	-1.396521e+01
5.726364e+01	-1.401257e+01
5.759439e+01	-1.406100e+01
5.792705e+01	-1.410892e+01
5.826164e+01	-1.415687e+01
5.859815e+01	-1.420540e+01
5.893662e+01	-1.425352e+01
5.927703e+01	-1.430163e+01
5.961941e+01	-1.434977e+01
5.996377e+01	-1.439799e+01
6.031012e+01	-1.444567e+01
6.065847e+01	-1.449450e+01
6.100883e+01	-1.454278e+01
6.136121e+01	-1.459090e+01
6.171563e+01	-1.463845e+01
6.207210e+01	-1.468656e+01
6.243063e+01	-1.473582e+01
6.279122e+01	-1.478392e+01
6.315390e+01	-1.483290e+01
6.351868e+01	-1.488083e+01
6.388556e+01	-1.492903e+01
6.425456e+01	-1.497720e+01
6.462569e+01	-1.502614e+01
6.499897e+01	-1.507499e+01
6.537440e+01	-1.512354e+01
6.575200e+01	-1.517235e+01
6.613178e+01	-1.521997e+01
6.651375e+01	-1.526883e+01
6.689793e+01	-1.531744e+01
6.728433e+01	-1.536626e+01
6.767297e+01	-1.541311e+01
6.806384e+01	-1.546240e+01
6.845698e+01	-1.551144e+01
6.885238e+01	-1.556015e+01
6.925007e+01	-1.560798e+01
6.965005e+01	-1.565701e+01
7.005235e+01	-1.570564e+01
7.045697e+01	-1.575565e+01
7.086393e+01	-1.580449e+01
7.127323e+01	-1.585236e+01
7.168490e+01	-1.590074e+01
7.209895e+01	-1.594917e+01
7.251539e+01	-1.599824e+01
7.293424e+01	-1.604695e+01
7.335551e+01	-1.609611e+01
7.377920e+01	-1.614501e+01
7.420535e+01	-1.619315e+01
7.463396e+01	-1.624195e+01
7.506504e+01	-1.629187e+01
7.549861e+01	-1.633902e+01
7.593469e+01	-1.638887e+01
7.637328e+01	-1.643844e+01
7.681441e+01	-1.648677e+01
7.725809e+01	-1.653694e+01
7.770433e+01	-1.658534e+01
7.815315e+01	-1.663326e+01
7.860456e+01	-1.668259e+01
7.905857e+01	-1.673149e+01
7.951521e+01	-1.677986e+01
7.997449e+01	-1.683050e+01
8.043642e+01	-1.687907e+01
8.090102e+01	-1.692735e+01
8.136830e+01	-1.697662e+01
8.183828e+01	-1.702647e+01
8.231097e+01	-1.707449e+01
8.278640e+01	-1.712314e+01
8.326457e+01	-1.717372e+01
8.374550e+01	-1.722250e+01
8.422921e+01	-1.727116e+01
8.471572e+01	-1.731977e+01
8.520503e+01	-1.737053e+01
8.569717e+01	-1.741785e+01
8.619215e+01	-1.746787e+01
8.669000e+01	-1.751659e+01
8.719071e+01	-1.756445e+01
8.769432e+01	-1.761519e+01
8.820084e+01	-1.766440e+01
8.871029e+01	-1.771242e+01
8.922267e+01	-1.776335e+01
8.973802e+01	-1.781176e+01
9.025634e+01	-1.785947e+01
9.077766e+01	-1.791036e+01
9.130199e+01	-1.795964e+01
9.182935e+01	-1.800962e+01
9.235975e+01	-1.805945e+01
9.289321e+01	-1.810712e+01
9.342976e+01	-1.815626e+01
9.396941e+01	-1.820561e+01
9.451217e+01	-1.825617e+01
9.505807e+01	-1.830524e+01
9.560712e+01	-1.835210e+01
9.615934e+01	-1.840303e+01
9.671476e+01	-1.845242e+01
9.727338e+01	-1.850029e+01
9.783522e+01	-1.855063e+01
9.840032e+01	-1.860050e+01
9.896867e+01	-1.864969e+01
9.954031e+01	-1.869864e+01
1.001153e+02	-1.874839e+01
1.006935e+02	-1.879773e+01
1.012751e+02	-1.884636e+01
1.018601e+02	-1.889639e+01
1.024484e+02	-1.894577e+01
1.030402e+02	-1.899464e+01
1.036353e+02	-1.904507e+01
1.042339e+02	-1.909409e+01
1.048360e+02	-1.914352e+01
1.054415e+02	-1.919249e+01
1.060505e+02	-1.924147e+01
1.066631e+02	-1.929168e+01
1.072791e+02	-1.934169e+01
1.078988e+02	-1.939009e+01
1.085220e+02	-1.943929e+01
1.091488e+02	-1.948937e+01
1.097793e+02	-1.953869e+01
1.104133e+02	-1.958834e+01
1.110511e+02	-1.963449e+01
1.116925e+02	-1.968700e+01
1.123376e+02	-1.973598e+01
1.129865e+02	-1.978749e+01
1.136391e+02	-1.983588e+01
1.142955e+02	-1.988509e+01
1.149556e+02	-1.993677e+01
1.156196e+02	-1.998395e+01
1.162874e+02	-2.003581e+01
1.169591e+02	-2.008395e+01
1.176347e+02	-2.013400e+01
1.183141e+02	-2.018373e+01
1.189975e+02	-2.023309e+01
1.196848e+02	-2.028259e+01
1.203761e+02	-2.033130e+01
1.210714e+02	-2.037860e+01
1.217707e+02	-2.043112e+01
1.224740e+02	-2.047931e+01
1.231814e+02	-2.053006e+01
1.238929e+02	-2.057871e+01
1.246085e+02	-2.062779e+01
1.253283e+02	-2.067855e+01
1.260522e+02	-2.072762e+01
1.267802e+02	-2.077749e+01
1.275125e+02	-2.082784e+01
1.282490e+02	-2.087567e+01
1.289898e+02	-2.092561e+01
1.297348e+02	-2.097865e+01
1.304842e+02	-2.102526e+01
1.312378e+02	-2.107507e+01
1.319959e+02	-2.112430e+01
1.327583e+02	-2.117545e+01
1.335251e+02	-2.122481e+01
1.342963e+02	-2.127489e+01
1.350720e+02	-2.132209e+01
1.358522e+02	-2.137469e+01
1.366368e+02	-2.142184e+01
1.374260e+02	-2.147286e+01
1.382198e+02	-2.152333e+01
1.390182e+02	-2.157126e+01
1.398211e+02	-2.162150e+01
1.406287e+02	-2.167201e+01
1.414410e+02	-2.172072e+01
1.422579e+02	-2.177180e+01
1.430796e+02	-2.182100e+01
1.439060e+02	-2.186949e+01
1.447372e+02	-2.192089e+01
1.455732e+02	-2.196951e+01
1.464141e+02	-2.202109e+01
1.472597e+02	-2.207126e+01
1.481103e+02	-2.211879e+01
1.489658e+02	-2.216825e+01
1.498262e+02	-2.221901e+01
1.506916e+02	-2.226927e+01
1.515620e+02	-2.231741e+01
1.524374e+02	-2.236355e+01
1.533179e+02	-2.241802e+01
1.542034e+02	-2.246880e+01
1.550941e+02	-2.251710e+01
1.559899e+02	-2.256713e+01
1.568909e+02	-2.261633e+01
1.577971e+02	-2.266544e+01
1.587085e+02	-2.271796e+01
1.596252e+02	-2.276674e+01
1.605472e+02	-2.281765e+01
1.614745e+02	-2.286788e+01
1.624072e+02	-2.291472e+01
1.633453e+02	-2.296697e+01
1.642887e+02	-2.301589e+01
1.652377e+02	-2.306296e+01
1.661921e+02	-2.311562e+01
1.671520e+02	-2.316333e+01
1.681175e+02	-2.321450e+01
1.690885e+02	-2.326359e+01
1.700651e+02	-2.331587e+01
1.710474e+02	-2.336426e+01
1.720354e+02	-2.341540e+01
1.730291e+02	-2.346468e+01
1.740285e+02	-2.351079e+01
1.750337e+02	-2.356301e+01
1.760446e+02	-2.361163e+01
1.770615e+02	-2.366090e+01
1.780842e+02	-2.371245e+01
1.791128e+02	-2.376371e+01
1.801473e+02	-2.381381e+01
1.811878e+02	-2.386226e+01
1.822344e+02	-2.391127e+01
1.832870e+02	-2.396206e+01
1.843456e+02	-2.400897e+01
1.854104e+02	-2.406188e+01
1.864813e+02	-2.411183e+01
1.875584e+02	-2.415872e+01
1.886418e+02	-2.421291e+01
1.897313e+02	-2.426377e+01
1.908272e+02	-2.431069e+01
1.919294e+02	-2.436140e+01
1.930380e+02	-2.441025e+01
1.941530e+02	-2.446020e+01
1.952744e+02	-2.451074e+01
1.964023e+02	-2.455816e+01
1.975367e+02	-2.460910e+01
1.986777e+02	-2.465954e+01
1.998252e+02	-2.470921e+01
2.009794e+02	-2.475682e+01
2.021403e+02	-2.481042e+01
2.033078e+02	-2.485946e+01
2.044821e+02	-2.490906e+01
2.056632e+02	-2.496091e+01
2.068511e+02	-2.501041e+01
2.080459e+02	-2.505782e+01
2.092475e+02	-2.510827e+01
2.104561e+02	-2.515752e+01
2.116717e+02	-2.521002e+01
2.128943e+02	-2.526017e+01
2.141240e+02	-2.530954e+01
2.153608e+02	-2.535939e+01
2.166047e+02	-2.540810e+01
2.178558e+02	-2.546213e+01
2.191141e+02	-2.550421e+01
2.203797e+02	-2.555260e+01
2.216526e+02	-2.560941e+01
2.229329e+02	-2.565638e+01
2.242205e+02	-2.571064e+01
2.255156e+02	-2.576003e+01
2.268182e+02	-2.580718e+01
2.281283e+02	-2.585723e+01
2.294459e+02	-2.591123e+01
2.307712e+02	-2.595770e+01
2.321041e+02	-2.600622e+01
2.334447e+02	-2.605781e+01
2.347931e+02	-2.610691e+01
2.361493e+02	-2.615979e+01
2.375133e+02	-2.620628e+01
2.388851e+02	-2.625686e+01
2.402649e+02	-2.630627e+01
2.416527e+02	-2.635483e+01
2.430484e+02	-2.640674e+01
2.444523e+02	-2.645818e+01
2.458642e+02	-2.650609e+01
2.472843e+02	-2.655513e+01
2.487126e+02	-2.660837e+01
2.501492e+02	-2.665411e+01
2.515940e+02	-2.670891e+01
2.530472e+02	-2.675525e+01
2.545088e+02	-2.680649e+01
2.559789e+02	-2.685739e+01
2.574574e+02	-2.690450e+01
2.589444e+02	-2.695865e+01
2.604401e+02	-2.700847e+01
2.619444e+02	-2.706106e+01
2.634574e+02	-2.710528e+01
2.649791e+02	-2.715665e+01
2.665096e+02	-2.720741e+01
2.680489e+02	-2.725891e+01
2.695972e+02	-2.731160e+01
2.711544e+02	-2.736217e+01
2.727205e+02	-2.740747e+01
2.742958e+02	-2.745570e+01
2.758801e+02	-2.750554e+01
2.774736e+02	-2.755768e+01
2.790762e+02	-2.760887e+01
2.806882e+02	-2.765987e+01
2.823094e+02	-2.770560e+01
2.839400e+02	-2.776070e+01
2.855800e+02	-2.780626e+01
2.872295e+02	-2.785855e+01
2.888886e+02	-2.790293e+01
2.905572e+02	-2.795590e+01
2.922354e+02	-2.800631e+01
2.939234e+02	-2.805680e+01
2.956211e+02	-2.810707e+01
2.973286e+02	-2.815672e+01
2.990459e+02	-2.820560e+01
3.007732e+02	-2.825671e+01
3.025104e+02	-2.830528e+01
3.042577e+02	-2.835891e+01
3.060151e+02	-2.840685e+01
3.077826e+02	-2.845913e+01
3.095604e+02	-2.850549e+01
3.113484e+02	-2.855704e+01
3.131467e+02	-2.860511e+01
3.149554e+02	-2.865913e+01
3.167746e+02	-2.870717e+01
3.186043e+02	-2.875812e+01
3.204445e+02	-2.881339e+01
3.222954e+02	-2.885831e+01
3.241570e+02	-2.890738e+01
3.260293e+02	-2.895465e+01
3.279124e+02	-2.900815e+01
3.298064e+02	-2.905861e+01
3.317114e+02	-2.911046e+01
3.336273e+02	-2.915261e+01
3.355544e+02	-2.920536e+01
3.374925e+02	-2.926145e+01
3.394418e+02	-2.930244e+01
3.414024e+02	-2.935440e+01
3.433744e+02	-2.940600e+01
3.453577e+02	-2.945839e+01
3.473525e+02	-2.951128e+01
3.493588e+02	-2.956025e+01
3.513766e+02	-2.960810e+01
3.534062e+02	-2.965914e+01
3.554474e+02	-2.971017e+01
3.575005e+02	-2.975878e+01
3.595654e+02	-2.981356e+01
3.616422e+02	-2.986416e+01
3.637311e+02	-2.990753e+01
3.658320e+02	-2.995885e+01
3.679450e+02	-3.001235e+01
3.700702e+02	-3.006049e+01
3.722077e+02	-3.011009e+01
3.743576e+02	-3.016195e+01
3.765199e+02	-3.020655e+01
3.786946e+02	-3.026301e+01
3.808820e+02	-3.031007e+01
3.830819e+02	-3.035806e+01
3.852946e+02	-3.040983e+01
3.875200e+02	-3.046234e+01
3.897583e+02	-3.051232e+01
3.920096e+02	-3.056222e+01
3.942738e+02	-3.061041e+01
3.965511e+02	-3.066860e+01
3.988416e+02	-3.070866e+01
4.011452e+02	-3.075941e+01
4.034622e+02	-3.080725e+01
4.057926e+02	-3.085761e+01
4.081365e+02	-3.091193e+01
4.104938e+02	-3.095840e+01
4.128648e+02	-3.101082e+01
4.152495e+02	-3.106344e+01
4.176480e+02	-3.112172e+01
4.200603e+02	-3.115766e+01
4.224866e+02	-3.120989e+01
4.249268e+02	-3.126540e+01
4.273812e+02	-3.131577e+01
4.298497e+02	-3.136153e+01
4.323325e+02	-3.141758e+01
4.348297e+02	-3.146382e+01
4.373412e+02	-3.151566e+01
4.398673e+02	-3.156350e+01
4.424079e+02	-3.162028e+01
4.449633e+02	-3.166568e+01
4.475334e+02	-3.171365e+01
4.501183e+02	-3.176663e+01
4.527182e+02	-3.181305e+01
4.553330e+02	-3.186920e+01
4.579630e+02	-3.191428e+01
4.606082e+02	-3.196732e+01
4.632687e+02	-3.201222e+01
4.659445e+02	-3.205935e+01
4.686358e+02	-3.211214e+01
4.713426e+02	-3.216131e+01
4.740650e+02	-3.221318e+01
4.768032e+02	-3.226336e+01
4.795572e+02	-3.231612e+01
4.823271e+02	-3.236757e+01
4.851130e+02	-3.241902e+01
4.879150e+02	-3.247180e+01
4.907332e+02	-3.251046e+01
4.935676e+02	-3.257190e+01
4.964185e+02	-3.261622e+01
4.992858e+02	-3.267011e+01
5.021696e+02	-3.271790e+01
5.050701e+02	-3.276581e+01
5.079874e+02	-3.281753e+01
5.109215e+02	-3.286960e+01
5.138726e+02	-3.291966e+01
5.168407e+02	-3.296996e+01
5.198259e+02	-3.301808e+01
5.228284e+02	-3.307349e+01
5.258482e+02	-3.312295e+01
5.288855e+02	-3.317323e+01
5.319403e+02	-3.322090e+01
5.350128e+02	-3.326902e+01
5.381030e+02	-3.332118e+01
5.412111e+02	-3.338305e+01
5.443371e+02	-3.341828e+01
5.474812e+02	-3.347509e+01
5.506434e+02	-3.352298e+01
5.538239e+02	-3.357295e+01
5.570228e+02	-3.362311e+01
5.602401e+02	-3.367556e+01
5.634760e+02	-3.372627e+01
5.667306e+02	-3.378741e+01
5.700040e+02	-3.381838e+01
5.732964e+02	-3.388377e+01
5.766077e+02	-3.392569e+01
5.799382e+02	-3.397151e+01
5.832879e+02	-3.401675e+01
5.866569e+02	-3.407398e+01
5.900454e+02	-3.412586e+01
5.934535e+02	-3.417422e+01
5.968813e+02	-3.423159e+01
6.003288e+02	-3.428096e+01
6.037963e+02	-3.432856e+01
6.072838e+02	-3.437473e+01
6.107914e+02	-3.442460e+01
6.143194e+02	-3.447850e+01
6.178676e+02	-3.452351e+01
6.214364e+02	-3.457448e+01
6.250258e+02	-3.462461e+01
6.286359e+02	-3.467816e+01
6.322669e+02	-3.472925e+01
6.359189e+02	-3.478590e+01
6.395919e+02	-3.482762e+01
6.432862e+02	-3.488410e+01
6.470017e+02	-3.493024e+01
6.507388e+02	-3.498236e+01
6.544974e+02	-3.503772e+01
6.582778e+02	-3.508812e+01
6.620800e+02	-3.514378e+01
6.659041e+02	-3.517680e+01
6.697504e+02	-3.523286e+01
6.736188e+02	-3.529199e+01
6.775096e+02	-3.533446e+01
6.814229e+02	-3.537695e+01
6.853587e+02	-3.543943e+01
6.893173e+02	-3.548180e+01
6.932988e+02	-3.553691e+01
6.973033e+02	-3.558787e+01
7.013309e+02	-3.564564e+01
