Frequency(Hz)	Magnitude(dB)
1.000000e+01	-2.140971e+00
1.005776e+01	-2.160292e+00
1.011585e+01	-2.180053e+00
1.017428e+01	-2.199868e+00
1.023305e+01	-2.219816e+00
1.029215e+01	-2.239804e+00
1.035160e+01	-2.260128e+00
1.041139e+01	-2.280604e+00
1.047153e+01	-2.300864e+00
1.053201e+01	-2.321527e+00
1.059284e+01	-2.342505e+00
1.065403e+01	-2.363480e+00
1.071556e+01	-2.384526e+00
1.077746e+01	-2.405670e+00
1.083971e+01	-2.426709e+00
1.090232e+01	-2.448930e+00
1.096529e+01	-2.470082e+00
1.102862e+01	-2.491945e+00
1.109232e+01	-2.513896e+00
1.115639e+01	-2.535965e+00
1.122083e+01	-2.558162e+00
1.128564e+01	-2.580186e+00
1.135083e+01	-2.602797e+00
1.141639e+01	-2.625425e+00
1.148233e+01	-2.648276e+00
1.154865e+01	-2.671083e+00
1.161536e+01	-2.694154e+00
1.168245e+01	-2.717460e+00
1.174992e+01	-2.740508e+00
1.181779e+01	-2.764238e+00
1.188605e+01	-2.787953e+00
1.195470e+01	-2.811849e+00
1.202375e+01	-2.835588e+00
1.209320e+01	-2.859453e+00
1.216305e+01	-2.883700e+00
1.223330e+01	-2.908199e+00
1.230396e+01	-2.932356e+00
1.237503e+01	-2.957036e+00
1.244651e+01	-2.982067e+00
1.251840e+01	-3.007138e+00
1.259070e+01	-3.031966e+00
1.266343e+01	-3.057129e+00
1.273657e+01	-3.082641e+00
1.281014e+01	-3.108055e+00
1.288413e+01	-3.133725e+00
1.295855e+01	-3.159334e+00
1.303339e+01	-3.185316e+00
1.310867e+01	-3.211318e+00
1.318439e+01	-3.237888e+00
1.326054e+01	-3.263972e+00
1.333713e+01	-3.290553e+00
1.341417e+01	-3.317136e+00
1.349165e+01	-3.344118e+00
1.356958e+01	-3.371047e+00
1.364795e+01	-3.398050e+00
1.372678e+01	-3.425230e+00
1.380607e+01	-3.452790e+00
1.388581e+01	-3.480156e+00
1.396602e+01	-3.507881e+00
1.404668e+01	-3.535522e+00
1.412782e+01	-3.563759e+00
1.420942e+01	-3.591616e+00
1.429149e+01	-3.619759e+00
1.437404e+01	-3.648086e+00
1.445706e+01	-3.676785e+00
1.454057e+01	-3.705402e+00
1.462455e+01	-3.734282e+00
1.470902e+01	-3.762912e+00
1.479398e+01	-3.792200e+00
1.487943e+01	-3.821318e+00
1.496537e+01	-3.850650e+00
1.505181e+01	-3.880119e+00
1.513875e+01	-3.909684e+00
1.522619e+01	-3.939513e+00
1.531414e+01	-3.969273e+00
1.540259e+01	-3.999294e+00
1.549156e+01	-4.029698e+00
1.558103e+01	-4.059990e+00
1.567103e+01	-4.090400e+00
1.576155e+01	-4.121170e+00
1.585258e+01	-4.151784e+00
1.594415e+01	-4.182402e+00
1.603624e+01	-4.213755e+00
1.612886e+01	-4.244720e+00
1.622202e+01	-4.275856e+00
1.631572e+01	-4.307275e+00
1.640996e+01	-4.338624e+00
1.650474e+01	-4.370613e+00
1.660008e+01	-4.402337e+00
1.669596e+01	-4.434197e+00
1.679239e+01	-4.466337e+00
1.688938e+01	-4.498731e+00
1.698694e+01	-4.530949e+00
1.708505e+01	-4.563410e+00
1.718373e+01	-4.595686e+00
1.728299e+01	-4.628632e+00
1.738281e+01	-4.661663e+00
1.748322e+01	-4.694390e+00
1.758420e+01	-4.727583e+00
1.768576e+01	-4.761135e+00
1.778792e+01	-4.794155e+00
1.789066e+01	-4.828058e+00
1.799399e+01	-4.861345e+00
1.809793e+01	-4.895306e+00
1.820246e+01	-4.928770e+00
1.830760e+01	-4.963157e+00
1.841334e+01	-4.997115e+00
1.851969e+01	-5.031557e+00
1.862666e+01	-5.065967e+00
1.873425e+01	-5.100270e+00
1.884246e+01	-5.134728e+00
1.895129e+01	-5.169607e+00
1.906075e+01	-5.204284e+00
1.917085e+01	-5.239670e+00
1.928158e+01	-5.274607e+00
1.939295e+01	-5.309648e+00
1.950496e+01	-5.345375e+00
1.961762e+01	-5.380832e+00
1.973093e+01	-5.416233e+00
1.984490e+01	-5.451927e+00
1.995952e+01	-5.487869e+00
2.007480e+01	-5.523946e+00
2.019076e+01	-5.559794e+00
2.030738e+01	-5.596192e+00
2.042467e+01	-5.632372e+00
2.054264e+01	-5.668586e+00
2.066130e+01	-5.705694e+00
2.078064e+01	-5.742007e+00
2.090066e+01	-5.778779e+00
2.102139e+01	-5.815527e+00
2.114280e+01	-5.852323e+00
2.126492e+01	-5.889583e+00
2.138775e+01	-5.927018e+00
2.151128e+01	-5.964049e+00
2.163553e+01	-6.001342e+00
2.176050e+01	-6.039240e+00
2.188619e+01	-6.076546e+00
2.201260e+01	-6.114197e+00
2.213974e+01	-6.152204e+00
2.226762e+01	-6.189667e+00
2.239624e+01	-6.228159e+00
2.252560e+01	-6.266282e+00
2.265571e+01	-6.304739e+00
2.278656e+01	-6.342953e+00
2.291818e+01	-6.381385e+00
2.305055e+01	-6.419967e+00
2.318369e+01	-6.458407e+00
2.331760e+01	-6.497606e+00
2.345228e+01	-6.536123e+00
2.358774e+01	-6.575173e+00
2.372398e+01	-6.614150e+00
2.386101e+01	-6.653532e+00
2.399883e+01	-6.693084e+00
2.413745e+01	-6.732227e+00
2.427686e+01	-6.771704e+00
2.441709e+01	-6.811294e+00
2.455812e+01	-6.850823e+00
2.469997e+01	-6.890393e+00
2.484263e+01	-6.930157e+00
2.498612e+01	-6.970409e+00
2.513044e+01	-7.010601e+00
2.527559e+01	-7.050588e+00
2.542158e+01	-7.090270e+00
2.556842e+01	-7.130880e+00
2.571610e+01	-7.171397e+00
2.586463e+01	-7.212107e+00
2.601403e+01	-7.252210e+00
2.616428e+01	-7.292716e+00
2.631541e+01	-7.333777e+00
2.646740e+01	-7.374267e+00
2.662028e+01	-7.415936e+00
2.677404e+01	-7.456583e+00
2.692868e+01	-7.497462e+00
2.708422e+01	-7.538887e+00
2.724066e+01	-7.579626e+00
2.739800e+01	-7.621168e+00
2.755625e+01	-7.662856e+00
2.771541e+01	-7.704404e+00
2.787550e+01	-7.745744e+00
2.803650e+01	-7.787284e+00
2.819844e+01	-7.829528e+00
2.836131e+01	-7.871125e+00
2.852513e+01	-7.912896e+00
2.868989e+01	-7.954632e+00
2.885560e+01	-7.996849e+00
2.902227e+01	-8.038899e+00
2.918990e+01	-8.081174e+00
2.935850e+01	-8.123646e+00
2.952807e+01	-8.165868e+00
2.969863e+01	-8.208250e+00
2.987016e+01	-8.251162e+00
3.004269e+01	-8.293543e+00
3.021622e+01	-8.336216e+00
3.039075e+01	-8.378825e+00
3.056628e+01	-8.421421e+00
3.074283e+01	-8.464296e+00
3.092040e+01	-8.507494e+00
3.109900e+01	-8.550169e+00
3.127862e+01	-8.593453e+00
3.145929e+01	-8.636915e+00
3.164099e+01	-8.679860e+00
3.182375e+01	-8.722598e+00
3.200756e+01	-8.766680e+00
3.219244e+01	-8.809399e+00
3.237838e+01	-8.853068e+00
3.256540e+01	-8.896927e+00
3.275349e+01	-8.940420e+00
3.294268e+01	-8.983745e+00
3.313295e+01	-9.028026e+00
3.332433e+01	-9.071726e+00
3.351681e+01	-9.115571e+00
3.371040e+01	-9.159676e+00
3.390511e+01	-9.203619e+00
3.410094e+01	-9.247576e+00
3.429791e+01	-9.291135e+00
3.449601e+01	-9.336241e+00
3.469526e+01	-9.380153e+00
3.489566e+01	-9.424170e+00
3.509721e+01	-9.468183e+00
3.529993e+01	-9.513055e+00
3.550382e+01	-9.558170e+00
3.570889e+01	-9.601896e+00
3.591515e+01	-9.646448e+00
3.612259e+01	-9.691172e+00
3.633123e+01	-9.735972e+00
3.654108e+01	-9.780947e+00
3.675214e+01	-9.824648e+00
3.696442e+01	-9.870437e+00
3.717792e+01	-9.915200e+00
3.739266e+01	-9.960041e+00
3.760864e+01	-1.000500e+01
3.782587e+01	-1.005005e+01
3.804435e+01	-1.009584e+01
3.826409e+01	-1.014039e+01
3.848510e+01	-1.018579e+01
3.870739e+01	-1.022995e+01
3.893096e+01	-1.027654e+01
3.915583e+01	-1.032132e+01
3.938199e+01	-1.036721e+01
3.960946e+01	-1.041239e+01
3.983824e+01	-1.045754e+01
4.006834e+01	-1.050408e+01
4.029978e+01	-1.054904e+01
4.053255e+01	-1.059490e+01
4.076666e+01	-1.064047e+01
4.100213e+01	-1.068666e+01
4.123896e+01	-1.073136e+01
4.147715e+01	-1.077773e+01
4.171672e+01	-1.082297e+01
4.195767e+01	-1.086933e+01
4.220002e+01	-1.091574e+01
4.244377e+01	-1.096166e+01
4.268892e+01	-1.100777e+01
4.293549e+01	-1.105350e+01
4.318348e+01	-1.109962e+01
4.343291e+01	-1.114667e+01
4.368377e+01	-1.119248e+01
4.393609e+01	-1.123798e+01
4.418986e+01	-1.128421e+01
4.444510e+01	-1.133113e+01
4.470182e+01	-1.137742e+01
4.496001e+01	-1.142405e+01
4.521970e+01	-1.147021e+01
4.548089e+01	-1.151673e+01
4.574358e+01	-1.156335e+01
4.600779e+01	-1.160974e+01
4.627353e+01	-1.165648e+01
4.654081e+01	-1.170333e+01
4.680963e+01	-1.174984e+01
4.708000e+01	-1.179632e+01
4.735193e+01	-1.184307e+01
4.762543e+01	-1.189010e+01
4.790051e+01	-1.193679e+01
4.817719e+01	-1.198347e+01
4.845545e+01	-1.202994e+01
4.873533e+01	-1.207700e+01
4.901682e+01	-1.212426e+01
4.929994e+01	-1.217167e+01
4.958470e+01	-1.221812e+01
4.987110e+01	-1.226533e+01
5.015915e+01	-1.231288e+01
5.044887e+01	-1.235996e+01
5.074026e+01	-1.240500e+01
5.103333e+01	-1.245386e+01
5.132810e+01	-1.250093e+01
5.162457e+01	-1.254834e+01
5.192275e+01	-1.259572e+01
5.222265e+01	-1.264293e+01
5.252429e+01	-1.268967e+01
5.282767e+01	-1.273737e+01
5.313280e+01	-1.278458e+01
5.343969e+01	-1.283236e+01
5.374836e+01	-1.288007e+01
5.405880e+01	-1.292683e+01
5.437105e+01	-1.297420e+01
5.468509e+01	-1.302254e+01
5.500095e+01	-1.306968e+01
5.531863e+01	-1.311729e+01
5.563815e+01	-1.316479e+01
5.595951e+01	-1.321193e+01
5.628273e+01	-1.326048e+01
5.660782e+01	-1.330738e+01
5.693479e+01	-1.335593e+01
5.726364e+01	-1.340303e+01
5.759439e+01	-1.345112e+01
5.792705e+01	-1.349848e+01
5.826164e+01	-1.354645e+01
5.859815e+01	-1.359399e+01
5.893662e+01	-1.364218e+01
5.927703e+01	-1.369018e+01
5.961941e+01	-1.373777e+01
5.996377e+01	-1.378556e+01
6.031012e+01	-1.383369e+01
6.065847e+01	-1.388148e+01
6.100883e+01	-1.392947e+01
6.136121e+01	-1.397817e+01
6.171563e+01	-1.402528e+01
6.207210e+01	-1.407456e+01
6.243063e+01	-1.412223e+01
6.279122e+01	-1.417003e+01
6.315390e+01	-1.421872e+01
6.351868e+01	-1.426709e+01
6.388556e+01	-1.431477e+01
6.425456e+01	-1.436270e+01
6.462569e+01	-1.441167e+01
6.499897e+01	-1.445967e+01
6.537440e+01	-1.450718e+01
6.575200e+01	-1.455559e+01
6.613178e+01	-1.460463e+01
6.651375e+01	-1.465177e+01
6.689793e+01	-1.470009e+01
6.728433e+01	-1.474839e+01
6.767297e+01	-1.479579e+01
6.806384e+01	-1.484554e+01
6.845698e+01	-1.489407e+01
6.885238e+01	-1.494243e+01
6.925007e+01	-1.499072e+01
6.965005e+01	-1.503939e+01
7.005235e+01	-1.508823e+01
7.045697e+01	-1.513674e+01
7.086393e+01	-1.518440e+01
7.127323e+01	-1.523308e+01
7.168490e+01	-1.528184e+01
7.209895e+01	-1.533059e+01
7.251539e+01	-1.537817e+01
7.293424e+01	-1.542768e+01
7.335551e+01	-1.547650e+01
7.377920e+01	-1.552385e+01
7.420535e+01	-1.557363e+01
7.463396e+01	-1.562182e+01
7.506504e+01	-1.567083e+01
7.549861e+01	-1.571913e+01
7.593469e+01	-1.576745e+01
7.637328e+01	-1.581673e+01
7.681441e+01	-1.586606e+01
7.725809e+01	-1.591402e+01
7.770433e+01	-1.596335e+01
7.815315e+01	-1.601065e+01
7.860456e+01	-1.606076e+01
7.905857e+01	-1.611035e+01
7.951521e+01	-1.615802e+01
7.997449e+01	-1.620681e+01
8.043642e+01	-1.625573e+01
8.090102e+01	-1.630481e+01
8.136830e+01	-1.635519e+01
8.183828e+01	-1.640235e+01
8.231097e+01	-1.645078e+01
8.278640e+01	-1.649984e+01
8.326457e+01	-1.655057e+01
8.374550e+01	-1.659863e+01
8.422921e+01	-1.664685e+01
8.471572e+01	-1.669687e+01
8.520503e+01	-1.674506e+01
8.569717e+01	-1.679473e+01
8.619215e+01	-1.684223e+01
8.669000e+01	-1.689110e+01
8.719071e+01	-1.694121e+01
8.769432e+01	-1.699018e+01
8.820084e+01	-1.703930e+01
8.871029e+01	-1.708815e+01
8.922267e+01	-1.713728e+01
8.973802e+01	-1.718590e+01
9.025634e+01	-1.723599e+01
9.077766e+01	-1.728402e+01
9.130199e+01	-1.733279e+01
9.182935e+01	-1.738395e+01
9.235975e+01	-1.743201e+01
9.289321e+01	-1.748162e+01
9.342976e+01	-1.753050e+01
9.396941e+01	-1.757875e+01
9.451217e+01	-1.762933e+01
9.505807e+01	-1.767632e+01
9.560712e+01	-1.772709e+01
9.615934e+01	-1.777608e+01
9.671476e+01	-1.782405e+01
9.727338e+01	-1.787427e+01
9.783522e+01	-1.792321e+01
9.840032e+01	-1.797264e+01
9.896867e+01	-1.802240e+01
9.954031e+01	-1.807100e+01
1.001153e+02	-1.811996e+01
1.006935e+02	-1.816864e+01
1.012751e+02	-1.821976e+01
1.018601e+02	-1.826771e+01
1.024484e+02	-1.831758e+01
1.030402e+02	-1.836681e+01
1.036353e+02	-1.841666e+01
1.042339e+02	-1.846490e+01
1.048360e+02	-1.851476e+01
1.054415e+02	-1.856410e+01
1.060505e+02	-1.861402e+01
1.066631e+02	-1.866346e+01
1.072791e+02	-1.871260e+01
1.078988e+02	-1.876127e+01
1.085220e+02	-1.881072e+01
1.091488e+02	-1.886078e+01
1.097793e+02	-1.891028e+01
1.104133e+02	-1.895850e+01
1.110511e+02	-1.900827e+01
1.116925e+02	-1.905877e+01
1.123376e+02	-1.910659e+01
1.129865e+02	-1.915608e+01
1.136391e+02	-1.920640e+01
1.142955e+02	-1.925661e+01
1.149556e+02	-1.930544e+01
1.156196e+02	-1.935376e+01
1.162874e+02	-1.940412e+01
1.169591e+02	-1.945303e+01
1.176347e+02	-1.950228e+01
1.183141e+02	-1.955226e+01
1.189975e+02	-1.960345e+01
1.196848e+02	-1.965176e+01
1.203761e+02	-1.970208e+01
1.210714e+02	-1.975075e+01
1.217707e+02	-1.980054e+01
1.224740e+02	-1.984989e+01
1.231814e+02	-1.989905e+01
1.238929e+02	-1.994810e+01
1.246085e+02	-1.999733e+01
1.253283e+02	-2.004883e+01
1.260522e+02	-2.009738e+01
1.267802e+02	-2.014697e+01
1.275125e+02	-2.019753e+01
1.282490e+02	-2.024603e+01
1.289898e+02	-2.029479e+01
1.297348e+02	-2.034571e+01
1.304842e+02	-2.039438e+01
1.312378e+02	-2.044223e+01
1.319959e+02	-2.049336e+01
1.327583e+02	-2.054525e+01
1.335251e+02	-2.059068e+01
1.342963e+02	-2.064248e+01
1.350720e+02	-2.069233e+01
1.358522e+02	-2.074343e+01
1.366368e+02	-2.079049e+01
1.374260e+02	-2.084007e+01
1.382198e+02	-2.088987e+01
1.390182e+02	-2.094033e+01
1.398211e+02	-2.098997e+01
1.406287e+02	-2.104101e+01
1.414410e+02	-2.109006e+01
1.422579e+02	-2.113783e+01
1.430796e+02	-2.118769e+01
1.439060e+02	-2.123936e+01
1.447372e+02	-2.128892e+01
1.455732e+02	-2.133951e+01
1.464141e+02	-2.138690e+01
1.472597e+02	-2.143800e+01
1.481103e+02	-2.148720e+01
1.489658e+02	-2.153567e+01
1.498262e+02	-2.158614e+01
1.506916e+02	-2.163650e+01
1.515620e+02	-2.168560e+01
1.524374e+02	-2.173520e+01
1.533179e+02	-2.178415e+01
1.542034e+02	-2.183470e+01
1.550941e+02	-2.188615e+01
1.559899e+02	-2.193425e+01
1.568909e+02	-2.198206e+01
1.577971e+02	-2.203222e+01
1.587085e+02	-2.208277e+01
1.596252e+02	-2.213073e+01
1.605472e+02	-2.218388e+01
1.614745e+02	-2.223272e+01
1.624072e+02	-2.228333e+01
1.633453e+02	-2.233433e+01
1.642887e+02	-2.238108e+01
1.652377e+02	-2.243189e+01
1.661921e+02	-2.248038e+01
1.671520e+02	-2.253307e+01
1.681175e+02	-2.258007e+01
1.690885e+02	-2.263116e+01
1.700651e+02	-2.268080e+01
1.710474e+02	-2.272875e+01
1.720354e+02	-2.278051e+01
1.730291e+02	-2.282896e+01
1.740285e+02	-2.287938e+01
1.750337e+02	-2.293064e+01
1.760446e+02	-2.298033e+01
1.770615e+02	-2.302829e+01
1.780842e+02	-2.307791e+01
1.791128e+02	-2.312358e+01
1.801473e+02	-2.317842e+01
1.811878e+02	-2.322906e+01
1.822344e+02	-2.328119e+01
1.832870e+02	-2.332682e+01
1.843456e+02	-2.337482e+01
1.854104e+02	-2.342675e+01
1.864813e+02	-2.347848e+01
1.875584e+02	-2.352892e+01
1.886418e+02	-2.357838e+01
1.897313e+02	-2.362847e+01
1.908272e+02	-2.367686e+01
1.919294e+02	-2.372776e+01
1.930380e+02	-2.377627e+01
1.941530e+02	-2.382730e+01
1.952744e+02	-2.387552e+01
1.964023e+02	-2.392822e+01
1.975367e+02	-2.397831e+01
1.986777e+02	-2.402373e+01
1.998252e+02	-2.407671e+01
2.009794e+02	-2.412398e+01
2.021403e+02	-2.417443e+01
2.033078e+02	-2.422437e+01
2.044821e+02	-2.427496e+01
2.056632e+02	-2.432713e+01
2.068511e+02	-2.437257e+01
2.080459e+02	-2.442233e+01
2.092475e+02	-2.447529e+01
2.104561e+02	-2.452461e+01
2.116717e+02	-2.457412e+01
2.128943e+02	-2.462514e+01
2.141240e+02	-2.467559e+01
2.153608e+02	-2.472359e+01
2.166047e+02	-2.477202e+01
2.178558e+02	-2.482523e+01
2.191141e+02	-2.487561e+01
2.203797e+02	-2.492105e+01
2.216526e+02	-2.497121e+01
2.229329e+02	-2.502254e+01
2.242205e+02	-2.507204e+01
2.255156e+02	-2.512343e+01
2.268182e+02	-2.517371e+01
2.281283e+02	-2.522127e+01
2.294459e+02	-2.527314e+01
2.307712e+02	-2.532167e+01
2.321041e+02	-2.537209e+01
2.334447e+02	-2.542208e+01
2.347931e+02	-2.547361e+01
2.361493e+02	-2.552077e+01
2.375133e+02	-2.557106e+01
2.388851e+02	-2.562309e+01
2.402649e+02	-2.567175e+01
2.416527e+02	-2.572000e+01
2.430484e+02	-2.577127e+01
2.444523e+02	-2.582539e+01
2.458642e+02	-2.586852e+01
2.472843e+02	-2.591876e+01
2.487126e+02	-2.596832e+01
2.501492e+02	-2.602076e+01
2.515940e+02	-2.607252e+01
2.530472e+02	-2.612172e+01
2.545088e+02	-2.617164e+01
2.559789e+02	-2.622249e+01
2.574574e+02	-2.627201e+01
2.589444e+02	-2.632164e+01
2.604401e+02	-2.637131e+01
2.619444e+02	-2.642305e+01
2.634574e+02	-2.647171e+01
2.649791e+02	-2.652244e+01
2.665096e+02	-2.656979e+01
2.680489e+02	-2.662194e+01
2.695972e+02	-2.667146e+01
2.711544e+02	-2.672110e+01
2.727205e+02	-2.677100e+01
2.742958e+02	-2.681957e+01
2.758801e+02	-2.687263e+01
2.774736e+02	-2.692129e+01
2.790762e+02	-2.697206e+01
2.806882e+02	-2.702059e+01
2.823094e+02	-2.707193e+01
2.839400e+02	-2.712087e+01
2.855800e+02	-2.716806e+01
2.872295e+02	-2.721997e+01
2.888886e+02	-2.727161e+01
2.905572e+02	-2.731915e+01
2.922354e+02	-2.737139e+01
2.939234e+02	-2.742285e+01
2.956211e+02	-2.747191e+01
2.973286e+02	-2.752397e+01
2.990459e+02	-2.757136e+01
3.007732e+02	-2.762175e+01
3.025104e+02	-2.766889e+01
3.042577e+02	-2.772413e+01
3.060151e+02	-2.777270e+01
3.077826e+02	-2.782356e+01
3.095604e+02	-2.787002e+01
3.113484e+02	-2.792006e+01
3.131467e+02	-2.797604e+01
3.149554e+02	-2.802087e+01
3.167746e+02	-2.807255e+01
3.186043e+02	-2.812088e+01
3.204445e+02	-2.817486e+01
3.222954e+02	-2.822099e+01
3.241570e+02	-2.827463e+01
3.260293e+02	-2.832436e+01
3.279124e+02	-2.837303e+01
3.298064e+02	-2.842260e+01
3.317114e+02	-2.846665e+01
3.336273e+02	-2.852130e+01
3.355544e+02	-2.857228e+01
3.374925e+02	-2.861974e+01
3.394418e+02	-2.867855e+01
3.414024e+02	-2.872191e+01
3.433744e+02	-2.877539e+01
3.453577e+02	-2.882494e+01
3.473525e+02	-2.887378e+01
3.493588e+02	-2.891722e+01
3.513766e+02	-2.896716e+01
3.534062e+02	-2.902508e+01
3.554474e+02	-2.907485e+01
3.575005e+02	-2.912369e+01
3.595654e+02	-2.917146e+01
3.616422e+02	-2.922497e+01
3.637311e+02	-2.927356e+01
3.658320e+02	-2.932204e+01
3.679450e+02	-2.938025e+01
3.700702e+02	-2.942229e+01
3.722077e+02	-2.947671e+01
3.743576e+02	-2.952764e+01
3.765199e+02	-2.957292e+01
3.786946e+02	-2.962356e+01
3.808820e+02	-2.967253e+01
3.830819e+02	-2.972641e+01
3.852946e+02	-2.977451e+01
3.875200e+02	-2.981992e+01
3.897583e+02	-2.987586e+01
3.920096e+02	-2.992768e+01
3.942738e+02	-2.998102e+01
3.965511e+02	-3.002499e+01
3.988416e+02	-3.007940e+01
4.011452e+02	-3.012814e+01
4.034622e+02	-3.017980e+01
4.057926e+02	-3.022597e+01
4.081365e+02	-3.027632e+01
4.104938e+02	-3.032770e+01
4.128648e+02	-3.037758e+01
4.152495e+02	-3.042076e+01
4.176480e+02	-3.047499e+01
4.200603e+02	-3.052423e+01
4.224866e+02	-3.057436e+01
4.249268e+02	-3.062661e+01
4.273812e+02	-3.067472e+01
4.298497e+02	-3.072242e+01
4.323325e+02	-3.077921e+01
4.348297e+02	-3.083013e+01
4.373412e+02	-3.087997e+01
4.398673e+02	-3.092176e+01
4.424079e+02	-3.097990e+01
4.449633e+02	-3.102754e+01
4.475334e+02	-3.107875e+01
4.501183e+02	-3.112259e+01
4.527182e+02	-3.117557e+01
4.553330e+02	-3.122359e+01
4.579630e+02	-3.127595e+01
4.606082e+02	-3.132807e+01
4.632687e+02	-3.137847e+01
4.659445e+02	-3.142697e+01
4.686358e+02	-3.147975e+01
4.713426e+02	-3.152404e+01
4.740650e+02	-3.157683e+01
4.768032e+02	-3.163189e+01
4.795572e+02	-3.168015e+01
4.823271e+02	-3.173209e+01
4.851130e+02	-3.178333e+01
4.879150e+02	-3.182686e+01
4.907332e+02	-3.187978e+01
4.935676e+02	-3.192630e+01
4.964185e+02	-3.198050e+01
4.992858e+02	-3.202926e+01
5.021696e+02	-3.208100e+01
5.050701e+02	-3.213516e+01
5.079874e+02	-3.218002e+01
5.109215e+02	-3.222984e+01
5.138726e+02	-3.227706e+01
5.168407e+02	-3.233140e+01
5.198259e+02	-3.238221e+01
5.228284e+02	-3.243499e+01
5.258482e+02	-3.248454e+01
5.288855e+02	-3.253264e+01
5.319403e+02	-3.258920e+01
5.350128e+02	-3.262752e+01
5.381030e+02	-3.268959e+01
5.412111e+02	-3.273545e+01
5.443371e+02	-3.278171e+01
5.474812e+02	-3.283216e+01
5.506434e+02	-3.288112e+01
5.538239e+02	-3.293635e+01
5.570228e+02	-3.299206e+01
5.602401e+02	-3.303618e+01
5.634760e+02	-3.307571e+01
5.667306e+02	-3.313260e+01
5.700040e+02	-3.318063e+01
5.732964e+02	-3.323006e+01
5.766077e+02	-3.328303e+01
5.799382e+02	-3.333824e+01
5.832879e+02	-3.338475e+01
5.866569e+02	-3.344459e+01
5.900454e+02	-3.349086e+01
5.934535e+02	-3.353559e+01
5.968813e+02	-3.357715e+01
6.003288e+02	-3.364424e+01
6.037963e+02	-3.369240e+01
6.072838e+02	-3.373580e+01
6.107914e+02	-3.379018e+01
6.143194e+02	-3.383621e+01
6.178676e+02	-3.389083e+01
6.214364e+02	-3.394500e+01
6.250258e+02	-3.398976e+01
6.286359e+02	-3.404349e+01
6.322669e+02	-3.409661e+01
6.359189e+02	-3.413727e+01
6.395919e+02	-3.419061e+01
6.432862e+02	-3.424556e+01
6.470017e+02	-3.429513e+01
6.507388e+02	-3.433738e+01
6.544974e+02	-3.440077e+01
6.582778e+02	-3.444186e+01
6.620800e+02	-3.449806e+01
6.659041e+02	-3.454730e+01
6.697504e+02	-3.459428e+01
6.736188e+02	-3.464844e+01
6.775096e+02	-3.469790e+01
6.814229e+02	-3.474607e+01
6.853587e+02	-3.479816e+01
6.893173e+02	-3.484420e+01
6.932988e+02	-3.490126e+01
6.973033e+02	-3.494705e+01
7.013309e+02	-3.501099e+01
