Frequency(Hz)	Magnitude(dB)
1.000000e+01	-1.883084e+00
1.005776e+01	-1.900620e+00
1.011585e+01	-1.918323e+00
1.017428e+01	-1.936493e+00
1.023305e+01	-1.954508e+00
1.029215e+01	-1.972802e+00
1.035160e+01	-1.990997e+00
1.041139e+01	-2.009508e+00
1.047153e+01	-2.028153e+00
1.053201e+01	-2.046792e+00
1.059284e+01	-2.065747e+00
1.065403e+01	-2.084586e+00
1.071556e+01	-2.103677e+00
1.077746e+01	-2.123229e+00
1.083971e+01	-2.142456e+00
1.090232e+01	-2.161964e+00
1.096529e+01	-2.181783e+00
1.102862e+01	-2.201624e+00
1.109232e+01	-2.221817e+00
1.115639e+01	-2.241567e+00
1.122083e+01	-2.261809e+00
1.128564e+01	-2.282269e+00
1.135083e+01	-2.302742e+00
1.141639e+01	-2.323554e+00
1.148233e+01	-2.344418e+00
1.154865e+01	-2.365020e+00
1.161536e+01	-2.386122e+00
1.168245e+01	-2.407440e+00
1.174992e+01	-2.428762e+00
1.181779e+01	-2.450517e+00
1.188605e+01	-2.472124e+00
1.195470e+01	-2.493851e+00
1.202375e+01	-2.515707e+00
1.209320e+01	-2.537621e+00
1.216305e+01	-2.559981e+00
1.223330e+01	-2.582270e+00
1.230396e+01	-2.604981e+00
1.237503e+01	-2.627298e+00
1.244651e+01	-2.650197e+00
1.251840e+01	-2.673341e+00
1.259070e+01	-2.696177e+00
1.266343e+01	-2.719621e+00
1.273657e+01	-2.742686e+00
1.281014e+01	-2.766166e+00
1.288413e+01	-2.790056e+00
1.295855e+01	-2.813784e+00
1.303339e+01	-2.837703e+00
1.310867e+01	-2.861693e+00
1.318439e+01	-2.886159e+00
1.326054e+01	-2.910228e+00
1.333713e+01	-2.934625e+00
1.341417e+01	-2.959274e+00
1.349165e+01	-2.984098e+00
1.356958e+01	-3.009014e+00
1.364795e+01	-3.034205e+00
1.372678e+01	-3.059626e+00
1.380607e+01	-3.084879e+00
1.388581e+01	-3.110271e+00
1.396602e+01	-3.135915e+00
1.404668e+01	-3.161736e+00
1.412782e+01	-3.187579e+00
1.420942e+01	-3.213566e+00
1.429149e+01	-3.240027e+00
1.437404e+01	-3.266351e+00
1.445706e+01	-3.292730e+00
1.454057e+01	-3.319643e+00
1.462455e+01	-3.346378e+00
1.470902e+01	-3.373333e+00
1.479398e+01	-3.400478e+00
1.487943e+01	-3.427522e+00
1.496537e+01	-3.454892e+00
1.505181e+01	-3.482535e+00
1.513875e+01	-3.510273e+00
1.522619e+01	-3.537852e+00
1.531414e+01	-3.566040e+00
1.540259e+01	-3.593959e+00
1.549156e+01	-3.622370e+00
1.558103e+01	-3.650394e+00
1.567103e+01	-3.679187e+00
1.576155e+01	-3.707847e+00
1.585258e+01	-3.736479e+00
1.594415e+01	-3.765496e+00
1.603624e+01	-3.794337e+00
1.612886e+01	-3.823783e+00
1.622202e+01	-3.853246e+00
1.631572e+01	-3.882502e+00
1.640996e+01	-3.912382e+00
1.650474e+01	-3.942148e+00
1.660008e+01	-3.972231e+00
1.669596e+01	-4.002251e+00
1.679239e+01	-4.031903e+00
1.688938e+01	-4.062670e+00
1.698694e+01	-4.092780e+00
1.708505e+01	-4.123417e+00
1.718373e+01	-4.154250e+00
1.728299e+01	-4.185178e+00
1.738281e+01	-4.216225e+00
1.748322e+01	-4.247322e+00
1.758420e+01	-4.278719e+00
1.768576e+01	-4.309840e+00
1.778792e+01	-4.341583e+00
1.789066e+01	-4.373100e+00
1.799399e+01	-4.405029e+00
1.809793e+01	-4.437219e+00
1.820246e+01	-4.469107e+00
1.830760e+01	-4.501212e+00
1.841334e+01	-4.533472e+00
1.851969e+01	-4.566382e+00
1.862666e+01	-4.598575e+00
1.873425e+01	-4.631401e+00
1.884246e+01	-4.664573e+00
1.895129e+01	-4.697413e+00
1.906075e+01	-4.730646e+00
1.917085e+01	-4.763579e+00
1.928158e+01	-4.796960e+00
1.939295e+01	-4.830728e+00
1.950496e+01	-4.864197e+00
1.961762e+01	-4.898150e+00
1.973093e+01	-4.931922e+00
1.984490e+01	-4.966033e+00
1.995952e+01	-5.000125e+00
2.007480e+01	-5.034247e+00
2.019076e+01	-5.068884e+00
2.030738e+01	-5.103075e+00
2.042467e+01	-5.137831e+00
2.054264e+01	-5.173134e+00
2.066130e+01	-5.207657e+00
2.078064e+01	-5.242644e+00
2.090066e+01	-5.277648e+00
2.102139e+01	-5.313308e+00
2.114280e+01	-5.348197e+00
2.126492e+01	-5.384111e+00
2.138775e+01	-5.419244e+00
2.151128e+01	-5.455096e+00
2.163553e+01	-5.490984e+00
2.176050e+01	-5.527177e+00
2.188619e+01	-5.562859e+00
2.201260e+01	-5.599166e+00
2.213974e+01	-5.635414e+00
2.226762e+01	-5.672026e+00
2.239624e+01	-5.708344e+00
2.252560e+01	-5.745292e+00
2.265571e+01	-5.781756e+00
2.278656e+01	-5.818749e+00
2.291818e+01	-5.855671e+00
2.305055e+01	-5.892832e+00
2.318369e+01	-5.930350e+00
2.331760e+01	-5.967334e+00
2.345228e+01	-6.004912e+00
2.358774e+01	-6.042148e+00
2.372398e+01	-6.079395e+00
2.386101e+01	-6.117773e+00
2.399883e+01	-6.155538e+00
2.413745e+01	-6.193364e+00
2.427686e+01	-6.231381e+00
2.441709e+01	-6.269912e+00
2.455812e+01	-6.308069e+00
2.469997e+01	-6.346500e+00
2.484263e+01	-6.384657e+00
2.498612e+01	-6.423150e+00
2.513044e+01	-6.462262e+00
2.527559e+01	-6.500684e+00
2.542158e+01	-6.539522e+00
2.556842e+01	-6.578697e+00
2.571610e+01	-6.617253e+00
2.586463e+01	-6.656856e+00
2.601403e+01	-6.696267e+00
2.616428e+01	-6.735284e+00
2.631541e+01	-6.775185e+00
2.646740e+01	-6.814595e+00
2.662028e+01	-6.854686e+00
2.677404e+01	-6.893890e+00
2.692868e+01	-6.934026e+00
2.708422e+01	-6.973728e+00
2.724066e+01	-7.013272e+00
2.739800e+01	-7.053959e+00
2.755625e+01	-7.094369e+00
2.771541e+01	-7.134598e+00
2.787550e+01	-7.175039e+00
2.803650e+01	-7.215257e+00
2.819844e+01	-7.255775e+00
2.836131e+01	-7.296678e+00
2.852513e+01	-7.337422e+00
2.868989e+01	-7.377874e+00
2.885560e+01	-7.418817e+00
2.902227e+01	-7.460166e+00
2.918990e+01	-7.501079e+00
2.935850e+01	-7.541957e+00
2.952807e+01	-7.583841e+00
2.969863e+01	-7.624650e+00
2.987016e+01	-7.666852e+00
3.004269e+01	-7.708024e+00
3.021622e+01	-7.749395e+00
3.039075e+01	-7.790901e+00
3.056628e+01	-7.832858e+00
3.074283e+01	-7.874415e+00
3.092040e+01	-7.916932e+00
3.109900e+01	-7.958520e+00
3.127862e+01	-8.000817e+00
3.145929e+01	-8.042656e+00
3.164099e+01	-8.085109e+00
3.182375e+01	-8.127247e+00
3.200756e+01	-8.169991e+00
3.219244e+01	-8.212305e+00
3.237838e+01	-8.254716e+00
3.256540e+01	-8.297103e+00
3.275349e+01	-8.339360e+00
3.294268e+01	-8.382203e+00
3.313295e+01	-8.425283e+00
3.332433e+01	-8.468705e+00
3.351681e+01	-8.511718e+00
3.371040e+01	-8.554081e+00
3.390511e+01	-8.596979e+00
3.410094e+01	-8.640450e+00
3.429791e+01	-8.683664e+00
3.449601e+01	-8.727206e+00
3.469526e+01	-8.770441e+00
3.489566e+01	-8.813678e+00
3.509721e+01	-8.857110e+00
3.529993e+01	-8.900688e+00
3.550382e+01	-8.944572e+00
3.570889e+01	-8.988071e+00
3.591515e+01	-9.032056e+00
3.612259e+01	-9.075827e+00
3.633123e+01	-9.119715e+00
3.654108e+01	-9.163304e+00
3.675214e+01	-9.207410e+00
3.696442e+01	-9.251584e+00
3.717792e+01	-9.295365e+00
3.739266e+01	-9.339272e+00
3.760864e+01	-9.383938e+00
3.782587e+01	-9.427742e+00
3.804435e+01	-9.472845e+00
3.826409e+01	-9.517278e+00
3.848510e+01	-9.561519e+00
3.870739e+01	-9.606146e+00
3.893096e+01	-9.650311e+00
3.915583e+01	-9.695480e+00
3.938199e+01	-9.739679e+00
3.960946e+01	-9.784175e+00
3.983824e+01	-9.829286e+00
4.006834e+01	-9.874125e+00
4.029978e+01	-9.919622e+00
4.053255e+01	-9.963846e+00
4.076666e+01	-1.000902e+01
4.100213e+01	-1.005367e+01
4.123896e+01	-1.009919e+01
4.147715e+01	-1.014448e+01
4.171672e+01	-1.018971e+01
4.195767e+01	-1.023507e+01
4.220002e+01	-1.027983e+01
4.244377e+01	-1.032587e+01
4.268892e+01	-1.037077e+01
4.293549e+01	-1.041602e+01
4.318348e+01	-1.046208e+01
4.343291e+01	-1.050715e+01
4.368377e+01	-1.055284e+01
4.393609e+01	-1.059874e+01
4.418986e+01	-1.064442e+01
4.444510e+01	-1.068964e+01
4.470182e+01	-1.073641e+01
4.496001e+01	-1.078198e+01
4.521970e+01	-1.082774e+01
4.548089e+01	-1.087327e+01
4.574358e+01	-1.091913e+01
4.600779e+01	-1.096594e+01
4.627353e+01	-1.101179e+01
4.654081e+01	-1.105764e+01
4.680963e+01	-1.110380e+01
4.708000e+01	-1.114965e+01
4.735193e+01	-1.119620e+01
4.762543e+01	-1.124215e+01
4.790051e+01	-1.128900e+01
4.817719e+01	-1.133492e+01
4.845545e+01	-1.138211e+01
4.873533e+01	-1.142789e+01
4.901682e+01	-1.147450e+01
4.929994e+01	-1.152094e+01
4.958470e+01	-1.156756e+01
4.987110e+01	-1.161365e+01
5.015915e+01	-1.166037e+01
5.044887e+01	-1.170692e+01
5.074026e+01	-1.175347e+01
5.103333e+01	-1.180033e+01
5.132810e+01	-1.184759e+01
5.162457e+01	-1.189440e+01
5.192275e+01	-1.194063e+01
5.222265e+01	-1.198786e+01
5.252429e+01	-1.203464e+01
5.282767e+01	-1.208135e+01
5.313280e+01	-1.212864e+01
5.343969e+01	-1.217522e+01
5.374836e+01	-1.222212e+01
5.405880e+01	-1.226911e+01
5.437105e+01	-1.231711e+01
5.468509e+01	-1.236349e+01
5.500095e+01	-1.241020e+01
5.531863e+01	-1.245778e+01
5.563815e+01	-1.250469e+01
5.595951e+01	-1.255232e+01
5.628273e+01	-1.259991e+01
5.660782e+01	-1.264675e+01
5.693479e+01	-1.269523e+01
5.726364e+01	-1.274158e+01
5.759439e+01	-1.278882e+01
5.792705e+01	-1.283602e+01
5.826164e+01	-1.288372e+01
5.859815e+01	-1.293119e+01
5.893662e+01	-1.297914e+01
5.927703e+01	-1.302653e+01
5.961941e+01	-1.307402e+01
5.996377e+01	-1.312130e+01
6.031012e+01	-1.316956e+01
6.065847e+01	-1.321667e+01
6.100883e+01	-1.326463e+01
6.136121e+01	-1.331225e+01
6.171563e+01	-1.335917e+01
6.207210e+01	-1.340695e+01
6.243063e+01	-1.345483e+01
6.279122e+01	-1.350281e+01
6.315390e+01	-1.355080e+01
6.351868e+01	-1.359929e+01
6.388556e+01	-1.364620e+01
6.425456e+01	-1.369410e+01
6.462569e+01	-1.374257e+01
6.499897e+01	-1.379036e+01
6.537440e+01	-1.383818e+01
6.575200e+01	-1.388536e+01
6.613178e+01	-1.393400e+01
6.651375e+01	-1.398272e+01
6.689793e+01	-1.403035e+01
6.728433e+01	-1.407830e+01
6.767297e+01	-1.412578e+01
6.806384e+01	-1.417436e+01
6.845698e+01	-1.422191e+01
6.885238e+01	-1.427066e+01
6.925007e+01	-1.431886e+01
6.965005e+01	-1.436744e+01
7.005235e+01	-1.441409e+01
7.045697e+01	-1.446359e+01
7.086393e+01	-1.451204e+01
7.127323e+01	-1.456008e+01
7.168490e+01	-1.460858e+01
7.209895e+01	-1.465552e+01
7.251539e+01	-1.470528e+01
7.293424e+01	-1.475334e+01
7.335551e+01	-1.480146e+01
7.377920e+01	-1.485039e+01
7.420535e+01	-1.489712e+01
7.463396e+01	-1.494636e+01
7.506504e+01	-1.499472e+01
7.549861e+01	-1.504380e+01
7.593469e+01	-1.509203e+01
7.637328e+01	-1.514050e+01
7.681441e+01	-1.518983e+01
7.725809e+01	-1.523724e+01
7.770433e+01	-1.528713e+01
7.815315e+01	-1.533458e+01
7.860456e+01	-1.538290e+01
7.905857e+01	-1.543224e+01
7.951521e+01	-1.548052e+01
7.997449e+01	-1.552925e+01
8.043642e+01	-1.557724e+01
8.090102e+01	-1.562624e+01
8.136830e+01	-1.567508e+01
8.183828e+01	-1.572326e+01
8.231097e+01	-1.577297e+01
8.278640e+01	-1.582103e+01
8.326457e+01	-1.586904e+01
8.374550e+01	-1.591918e+01
8.422921e+01	-1.596737e+01
8.471572e+01	-1.601561e+01
8.520503e+01	-1.606518e+01
8.569717e+01	-1.611382e+01
8.619215e+01	-1.616140e+01
8.669000e+01	-1.621231e+01
8.719071e+01	-1.625980e+01
8.769432e+01	-1.630931e+01
8.820084e+01	-1.635871e+01
8.871029e+01	-1.640670e+01
8.922267e+01	-1.645566e+01
8.973802e+01	-1.650523e+01
9.025634e+01	-1.655461e+01
9.077766e+01	-1.660211e+01
9.130199e+01	-1.665162e+01
9.182935e+01	-1.670007e+01
9.235975e+01	-1.674966e+01
9.289321e+01	-1.679736e+01
9.342976e+01	-1.684765e+01
9.396941e+01	-1.689579e+01
9.451217e+01	-1.694526e+01
9.505807e+01	-1.699415e+01
9.560712e+01	-1.704236e+01
9.615934e+01	-1.709226e+01
9.671476e+01	-1.714092e+01
9.727338e+01	-1.719020e+01
9.783522e+01	-1.723826e+01
9.840032e+01	-1.728791e+01
9.896867e+01	-1.733895e+01
9.954031e+01	-1.738689e+01
1.001153e+02	-1.743627e+01
1.006935e+02	-1.748565e+01
1.012751e+02	-1.753300e+01
1.018601e+02	-1.758347e+01
1.024484e+02	-1.763232e+01
1.030402e+02	-1.768281e+01
1.036353e+02	-1.773099e+01
1.042339e+02	-1.777916e+01
1.048360e+02	-1.783073e+01
1.054415e+02	-1.788044e+01
1.060505e+02	-1.792803e+01
1.066631e+02	-1.797711e+01
1.072791e+02	-1.802591e+01
1.078988e+02	-1.807608e+01
1.085220e+02	-1.812465e+01
1.091488e+02	-1.817512e+01
1.097793e+02	-1.822302e+01
1.104133e+02	-1.827388e+01
1.110511e+02	-1.832253e+01
1.116925e+02	-1.837101e+01
1.123376e+02	-1.842109e+01
1.129865e+02	-1.847134e+01
1.136391e+02	-1.851934e+01
1.142955e+02	-1.856818e+01
1.149556e+02	-1.861602e+01
1.156196e+02	-1.866775e+01
1.162874e+02	-1.871623e+01
1.169591e+02	-1.876651e+01
1.176347e+02	-1.881519e+01
1.183141e+02	-1.886427e+01
1.189975e+02	-1.891471e+01
1.196848e+02	-1.896306e+01
1.203761e+02	-1.901265e+01
1.210714e+02	-1.906209e+01
1.217707e+02	-1.911350e+01
1.224740e+02	-1.916061e+01
1.231814e+02	-1.921045e+01
1.238929e+02	-1.925987e+01
1.246085e+02	-1.930877e+01
1.253283e+02	-1.935872e+01
1.260522e+02	-1.940786e+01
1.267802e+02	-1.945909e+01
1.275125e+02	-1.950726e+01
1.282490e+02	-1.955707e+01
1.289898e+02	-1.960522e+01
1.297348e+02	-1.965618e+01
1.304842e+02	-1.970499e+01
1.312378e+02	-1.975345e+01
1.319959e+02	-1.980521e+01
1.327583e+02	-1.985318e+01
1.335251e+02	-1.990218e+01
1.342963e+02	-1.995353e+01
1.350720e+02	-2.000291e+01
1.358522e+02	-2.005106e+01
1.366368e+02	-2.010273e+01
1.374260e+02	-2.015133e+01
1.382198e+02	-2.020021e+01
1.390182e+02	-2.024849e+01
1.398211e+02	-2.029945e+01
1.406287e+02	-2.034765e+01
1.414410e+02	-2.039981e+01
1.422579e+02	-2.044982e+01
1.430796e+02	-2.049729e+01
1.439060e+02	-2.054908e+01
1.447372e+02	-2.059718e+01
1.455732e+02	-2.064629e+01
1.464141e+02	-2.069501e+01
1.472597e+02	-2.074741e+01
1.481103e+02	-2.079621e+01
1.489658e+02	-2.084550e+01
1.498262e+02	-2.089511e+01
1.506916e+02	-2.094487e+01
1.515620e+02	-2.099416e+01
1.524374e+02	-2.104136e+01
1.533179e+02	-2.109359e+01
1.542034e+02	-2.114363e+01
1.550941e+02	-2.119239e+01
1.559899e+02	-2.124370e+01
1.568909e+02	-2.129408e+01
1.577971e+02	-2.134207e+01
1.587085e+02	-2.138998e+01
1.596252e+02	-2.144133e+01
1.605472e+02	-2.149268e+01
1.614745e+02	-2.154023e+01
1.624072e+02	-2.158862e+01
1.633453e+02	-2.164245e+01
1.642887e+02	-2.168982e+01
1.652377e+02	-2.173902e+01
1.661921e+02	-2.178952e+01
1.671520e+02	-2.184111e+01
1.681175e+02	-2.188965e+01
1.690885e+02	-2.193845e+01
1.700651e+02	-2.198799e+01
1.710474e+02	-2.203776e+01
1.720354e+02	-2.208754e+01
1.730291e+02	-2.213759e+01
1.740285e+02	-2.218444e+01
1.750337e+02	-2.223753e+01
1.760446e+02	-2.228667e+01
1.770615e+02	-2.233526e+01
1.780842e+02	-2.238619e+01
1.791128e+02	-2.243589e+01
1.801473e+02	-2.248673e+01
1.811878e+02	-2.253723e+01
1.822344e+02	-2.258558e+01
1.832870e+02	-2.263449e+01
1.843456e+02	-2.268267e+01
1.854104e+02	-2.273452e+01
1.864813e+02	-2.278446e+01
1.875584e+02	-2.283305e+01
1.886418e+02	-2.288294e+01
1.897313e+02	-2.293423e+01
1.908272e+02	-2.298306e+01
1.919294e+02	-2.303075e+01
1.930380e+02	-2.308174e+01
1.941530e+02	-2.313089e+01
1.952744e+02	-2.318165e+01
1.964023e+02	-2.323229e+01
1.975367e+02	-2.328526e+01
1.986777e+02	-2.332997e+01
1.998252e+02	-2.338361e+01
2.009794e+02	-2.343048e+01
2.021403e+02	-2.348302e+01
2.033078e+02	-2.352997e+01
2.044821e+02	-2.358150e+01
2.056632e+02	-2.363040e+01
2.068511e+02	-2.367923e+01
2.080459e+02	-2.373097e+01
2.092475e+02	-2.378091e+01
2.104561e+02	-2.383225e+01
2.116717e+02	-2.388139e+01
2.128943e+02	-2.393253e+01
2.141240e+02	-2.397792e+01
2.153608e+02	-2.402987e+01
2.166047e+02	-2.408012e+01
2.178558e+02	-2.413030e+01
2.191141e+02	-2.417860e+01
2.203797e+02	-2.422786e+01
2.216526e+02	-2.427972e+01
2.229329e+02	-2.432932e+01
2.242205e+02	-2.437553e+01
2.255156e+02	-2.443172e+01
2.268182e+02	-2.447936e+01
2.281283e+02	-2.453038e+01
2.294459e+02	-2.457772e+01
2.307712e+02	-2.462774e+01
2.321041e+02	-2.467658e+01
2.334447e+02	-2.473028e+01
2.347931e+02	-2.478003e+01
2.361493e+02	-2.483147e+01
2.375133e+02	-2.487759e+01
2.388851e+02	-2.492804e+01
2.402649e+02	-2.497782e+01
2.416527e+02	-2.502704e+01
2.430484e+02	-2.507711e+01
2.444523e+02	-2.512796e+01
2.458642e+02	-2.517868e+01
2.472843e+02	-2.523035e+01
2.487126e+02	-2.527658e+01
2.501492e+02	-2.532748e+01
2.515940e+02	-2.537570e+01
2.530472e+02	-2.542769e+01
2.545088e+02	-2.547827e+01
2.559789e+02	-2.552695e+01
2.574574e+02	-2.557752e+01
2.589444e+02	-2.562272e+01
2.604401e+02	-2.567636e+01
2.619444e+02	-2.572540e+01
2.634574e+02	-2.577590e+01
2.649791e+02	-2.582594e+01
2.665096e+02	-2.587772e+01
2.680489e+02	-2.592804e+01
2.695972e+02	-2.597652e+01
2.711544e+02	-2.602694e+01
2.727205e+02	-2.607783e+01
2.742958e+02	-2.612425e+01
2.758801e+02	-2.617379e+01
2.774736e+02	-2.622759e+01
2.790762e+02	-2.628011e+01
2.806882e+02	-2.632870e+01
2.823094e+02	-2.637559e+01
2.839400e+02	-2.642623e+01
2.855800e+02	-2.647147e+01
2.872295e+02	-2.652715e+01
2.888886e+02	-2.657656e+01
2.905572e+02	-2.662602e+01
2.922354e+02	-2.667603e+01
2.939234e+02	-2.672599e+01
2.956211e+02	-2.677462e+01
2.973286e+02	-2.682589e+01
2.990459e+02	-2.687516e+01
3.007732e+02	-2.692599e+01
3.025104e+02	-2.697452e+01
3.042577e+02	-2.702458e+01
3.060151e+02	-2.707570e+01
3.077826e+02	-2.712141e+01
3.095604e+02	-2.717816e+01
3.113484e+02	-2.722394e+01
3.131467e+02	-2.727598e+01
3.149554e+02	-2.732605e+01
3.167746e+02	-2.737722e+01
3.186043e+02	-2.742598e+01
3.204445e+02	-2.747517e+01
3.222954e+02	-2.752357e+01
3.241570e+02	-2.757835e+01
3.260293e+02	-2.762463e+01
3.279124e+02	-2.767279e+01
3.298064e+02	-2.772477e+01
3.317114e+02	-2.777682e+01
3.336273e+02	-2.782590e+01
3.355544e+02	-2.787825e+01
3.374925e+02	-2.792508e+01
3.394418e+02	-2.797859e+01
3.414024e+02	-2.802585e+01
3.433744e+02	-2.808100e+01
3.453577e+02	-2.812256e+01
3.473525e+02	-2.817573e+01
3.493588e+02	-2.822563e+01
3.513766e+02	-2.827479e+01
3.534062e+02	-2.832280e+01
3.554474e+02	-2.837887e+01
3.575005e+02	-2.842379e+01
3.595654e+02	-2.847609e+01
3.616422e+02	-2.852863e+01
3.637311e+02	-2.857524e+01
3.658320e+02	-2.862846e+01
3.679450e+02	-2.867104e+01
3.700702e+02	-2.872752e+01
3.722077e+02	-2.878095e+01
3.743576e+02	-2.882870e+01
3.765199e+02	-2.887669e+01
3.786946e+02	-2.892531e+01
3.808820e+02	-2.897536e+01
3.830819e+02	-2.902843e+01
3.852946e+02	-2.907998e+01
3.875200e+02	-2.912607e+01
3.897583e+02	-2.917507e+01
3.920096e+02	-2.922544e+01
3.942738e+02	-2.927535e+01
3.965511e+02	-2.932827e+01
3.988416e+02	-2.937728e+01
4.011452e+02	-2.942691e+01
4.034622e+02	-2.947861e+01
4.057926e+02	-2.952705e+01
4.081365e+02	-2.957535e+01
4.104938e+02	-2.962777e+01
4.128648e+02	-2.968082e+01
4.152495e+02	-2.972246e+01
4.176480e+02	-2.977222e+01
4.200603e+02	-2.982300e+01
4.224866e+02	-2.987631e+01
4.249268e+02	-2.993386e+01
4.273812e+02	-2.998053e+01
4.298497e+02	-3.003044e+01
4.323325e+02	-3.007655e+01
4.348297e+02	-3.013189e+01
4.373412e+02	-3.017788e+01
4.398673e+02	-3.023079e+01
4.424079e+02	-3.028303e+01
4.449633e+02	-3.032513e+01
4.475334e+02	-3.038187e+01
4.501183e+02	-3.042964e+01
4.527182e+02	-3.048231e+01
4.553330e+02	-3.052860e+01
4.579630e+02	-3.057808e+01
4.606082e+02	-3.062732e+01
4.632687e+02	-3.068019e+01
4.659445e+02	-3.073066e+01
4.686358e+02	-3.077445e+01
4.713426e+02	-3.083698e+01
4.740650e+02	-3.087831e+01
4.768032e+02	-3.093391e+01
4.795572e+02	-3.098057e+01
4.823271e+02	-3.103254e+01
4.851130e+02	-3.108757e+01
4.879150e+02	-3.113471e+01
4.907332e+02	-3.117831e+01
4.935676e+02	-3.122766e+01
4.964185e+02	-3.127707e+01
4.992858e+02	-3.133414e+01
5.021696e+02	-3.138143e+01
5.050701e+02	-3.143367e+01
5.079874e+02	-3.148367e+01
5.109215e+02	-3.153275e+01
5.138726e+02	-3.158394e+01
5.168407e+02	-3.163088e+01
5.198259e+02	-3.168193e+01
5.228284e+02	-3.173739e+01
5.258482e+02	-3.178208e+01
5.288855e+02	-3.183205e+01
5.319403e+02	-3.188101e+01
5.350128e+02	-3.194076e+01
5.381030e+02	-3.198115e+01
5.412111e+02	-3.203669e+01
5.443371e+02	-3.208915e+01
5.474812e+02	-3.214357e+01
5.506434e+02	-3.218907e+01
5.538239e+02	-3.223477e+01
5.570228e+02	-3.228907e+01
5.602401e+02	-3.233502e+01
5.634760e+02	-3.238507e+01
5.667306e+02	-3.243189e+01
5.700040e+02	-3.248817e+01
5.732964e+02	-3.254272e+01
5.766077e+02	-3.258701e+01
5.799382e+02	-3.263718e+01
5.832879e+02	-3.268916e+01
5.866569e+02	-3.274141e+01
5.900454e+02	-3.278911e+01
5.934535e+02	-3.284373e+01
5.968813e+02	-3.288433e+01
6.003288e+02	-3.293806e+01
6.037963e+02	-3.299172e+01
6.072838e+02	-3.303825e+01
6.107914e+02	-3.309340e+01
6.143194e+02	-3.313732e+01
6.178676e+02	-3.319384e+01
6.214364e+02	-3.324309e+01
6.250258e+02	-3.329221e+01
6.286359e+02	-3.334625e+01
6.322669e+02	-3.339272e+01
6.359189e+02	-3.343970e+01
6.395919e+02	-3.349526e+01
6.432862e+02	-3.353797e+01
6.470017e+02	-3.358845e+01
6.507388e+02	-3.364833e+01
6.544974e+02	-3.368972e+01
6.582778e+02	-3.374460e+01
6.620800e+02	-3.379548e+01
6.659041e+02	-3.384364e+01
6.697504e+02	-3.389934e+01
6.736188e+02	-3.395036e+01
6.775096e+02	-3.399460e+01
6.814229e+02	-3.404568e+01
6.853587e+02	-3.409515e+01
6.893173e+02	-3.414980e+01
6.932988e+02	-3.419665e+01
6.973033e+02	-3.425686e+01
7.013309e+02	-3.430199e+01
