Frequency(Hz)	Magnitude(dB)
1.000000e+01	-1.884923e+00
1.005776e+01	-1.902779e+00
1.011585e+01	-1.920282e+00
1.017428e+01	-1.938485e+00
1.023305e+01	-1.956430e+00
1.029215e+01	-1.974559e+00
1.035160e+01	-1.992934e+00
1.041139e+01	-2.011506e+00
1.047153e+01	-2.029855e+00
1.053201e+01	-2.048926e+00
1.059284e+01	-2.067686e+00
1.065403e+01	-2.086894e+00
1.071556e+01	-2.105721e+00
1.077746e+01	-2.125121e+00
1.083971e+01	-2.144578e+00
1.090232e+01	-2.164228e+00
1.096529e+01	-2.183907e+00
1.102862e+01	-2.203707e+00
1.109232e+01	-2.223753e+00
1.115639e+01	-2.243736e+00
1.122083e+01	-2.264006e+00
1.128564e+01	-2.284445e+00
1.135083e+01	-2.305044e+00
1.141639e+01	-2.325554e+00
1.148233e+01	-2.346468e+00
1.154865e+01	-2.367549e+00
1.161536e+01	-2.388391e+00
1.168245e+01	-2.409917e+00
1.174992e+01	-2.431241e+00
1.181779e+01	-2.452918e+00
1.188605e+01	-2.474158e+00
1.195470e+01	-2.495963e+00
1.202375e+01	-2.517945e+00
1.209320e+01	-2.539963e+00
1.216305e+01	-2.562293e+00
1.223330e+01	-2.584780e+00
1.230396e+01	-2.607335e+00
1.237503e+01	-2.629804e+00
1.244651e+01	-2.652603e+00
1.251840e+01	-2.675534e+00
1.259070e+01	-2.698448e+00
1.266343e+01	-2.721658e+00
1.273657e+01	-2.745207e+00
1.281014e+01	-2.768623e+00
1.288413e+01	-2.792489e+00
1.295855e+01	-2.816187e+00
1.303339e+01	-2.840035e+00
1.310867e+01	-2.864297e+00
1.318439e+01	-2.888754e+00
1.326054e+01	-2.912875e+00
1.333713e+01	-2.937305e+00
1.341417e+01	-2.961939e+00
1.349165e+01	-2.986599e+00
1.356958e+01	-3.011877e+00
1.364795e+01	-3.036841e+00
1.372678e+01	-3.062104e+00
1.380607e+01	-3.087474e+00
1.388581e+01	-3.112925e+00
1.396602e+01	-3.138497e+00
1.404668e+01	-3.164528e+00
1.412782e+01	-3.190645e+00
1.420942e+01	-3.216632e+00
1.429149e+01	-3.242882e+00
1.437404e+01	-3.269056e+00
1.445706e+01	-3.295773e+00
1.454057e+01	-3.322286e+00
1.462455e+01	-3.349300e+00
1.470902e+01	-3.376078e+00
1.479398e+01	-3.402993e+00
1.487943e+01	-3.430472e+00
1.496537e+01	-3.458046e+00
1.505181e+01	-3.485394e+00
1.513875e+01	-3.512844e+00
1.522619e+01	-3.540850e+00
1.531414e+01	-3.568914e+00
1.540259e+01	-3.597118e+00
1.549156e+01	-3.625387e+00
1.558103e+01	-3.653724e+00
1.567103e+01	-3.682044e+00
1.576155e+01	-3.710788e+00
1.585258e+01	-3.739722e+00
1.594415e+01	-3.768541e+00
1.603624e+01	-3.797845e+00
1.612886e+01	-3.826846e+00
1.622202e+01	-3.856355e+00
1.631572e+01	-3.885819e+00
1.640996e+01	-3.915459e+00
1.650474e+01	-3.945501e+00
1.660008e+01	-3.975175e+00
1.669596e+01	-4.005232e+00
1.679239e+01	-4.035600e+00
1.688938e+01	-4.065719e+00
1.698694e+01	-4.096133e+00
1.708505e+01	-4.126713e+00
1.718373e+01	-4.157690e+00
1.728299e+01	-4.188434e+00
1.738281e+01	-4.219526e+00
1.748322e+01	-4.250784e+00
1.758420e+01	-4.282136e+00
1.768576e+01	-4.313512e+00
1.778792e+01	-4.345088e+00
1.789066e+01	-4.376844e+00
1.799399e+01	-4.408809e+00
1.809793e+01	-4.440544e+00
1.820246e+01	-4.472448e+00
1.830760e+01	-4.504870e+00
1.841334e+01	-4.537024e+00
1.851969e+01	-4.569579e+00
1.862666e+01	-4.602400e+00
1.873425e+01	-4.635178e+00
1.884246e+01	-4.667973e+00
1.895129e+01	-4.700791e+00
1.906075e+01	-4.733967e+00
1.917085e+01	-4.767335e+00
1.928158e+01	-4.800889e+00
1.939295e+01	-4.834347e+00
1.950496e+01	-4.868057e+00
1.961762e+01	-4.901597e+00
1.973093e+01	-4.935755e+00
1.984490e+01	-4.969638e+00
1.995952e+01	-5.003845e+00
2.007480e+01	-5.038230e+00
2.019076e+01	-5.072704e+00
2.030738e+01	-5.106722e+00
2.042467e+01	-5.141551e+00
2.054264e+01	-5.176605e+00
2.066130e+01	-5.211072e+00
2.078064e+01	-5.246252e+00
2.090066e+01	-5.281260e+00
2.102139e+01	-5.317106e+00
2.114280e+01	-5.352383e+00
2.126492e+01	-5.387581e+00
2.138775e+01	-5.423382e+00
2.151128e+01	-5.458937e+00
2.163553e+01	-5.494828e+00
2.176050e+01	-5.530896e+00
2.188619e+01	-5.566852e+00
2.201260e+01	-5.603071e+00
2.213974e+01	-5.639223e+00
2.226762e+01	-5.675688e+00
2.239624e+01	-5.712502e+00
2.252560e+01	-5.748699e+00
2.265571e+01	-5.785695e+00
2.278656e+01	-5.822600e+00
2.291818e+01	-5.859749e+00
2.305055e+01	-5.896950e+00
2.318369e+01	-5.934085e+00
2.331760e+01	-5.971803e+00
2.345228e+01	-6.008740e+00
2.358774e+01	-6.046035e+00
2.372398e+01	-6.084015e+00
2.386101e+01	-6.121522e+00
2.399883e+01	-6.159671e+00
2.413745e+01	-6.197183e+00
2.427686e+01	-6.235575e+00
2.441709e+01	-6.273751e+00
2.455812e+01	-6.311932e+00
2.469997e+01	-6.350683e+00
2.484263e+01	-6.389075e+00
2.498612e+01	-6.427394e+00
2.513044e+01	-6.465827e+00
2.527559e+01	-6.504982e+00
2.542158e+01	-6.544095e+00
2.556842e+01	-6.582985e+00
2.571610e+01	-6.622120e+00
2.586463e+01	-6.661082e+00
2.601403e+01	-6.700213e+00
2.616428e+01	-6.739825e+00
2.631541e+01	-6.779195e+00
2.646740e+01	-6.818316e+00
2.662028e+01	-6.858415e+00
2.677404e+01	-6.898374e+00
2.692868e+01	-6.938423e+00
2.708422e+01	-6.978149e+00
2.724066e+01	-7.018162e+00
2.739800e+01	-7.057763e+00
2.755625e+01	-7.098450e+00
2.771541e+01	-7.138651e+00
2.787550e+01	-7.179288e+00
2.803650e+01	-7.219303e+00
2.819844e+01	-7.260494e+00
2.836131e+01	-7.300873e+00
2.852513e+01	-7.341152e+00
2.868989e+01	-7.382323e+00
2.885560e+01	-7.423256e+00
2.902227e+01	-7.464181e+00
2.918990e+01	-7.505871e+00
2.935850e+01	-7.546833e+00
2.952807e+01	-7.587947e+00
2.969863e+01	-7.629315e+00
2.987016e+01	-7.670975e+00
3.004269e+01	-7.712697e+00
3.021622e+01	-7.754168e+00
3.039075e+01	-7.795730e+00
3.056628e+01	-7.836796e+00
3.074283e+01	-7.879183e+00
3.092040e+01	-7.921123e+00
3.109900e+01	-7.963453e+00
3.127862e+01	-8.004919e+00
3.145929e+01	-8.047148e+00
3.164099e+01	-8.089330e+00
3.182375e+01	-8.131610e+00
3.200756e+01	-8.173698e+00
3.219244e+01	-8.216697e+00
3.237838e+01	-8.258938e+00
3.256540e+01	-8.301650e+00
3.275349e+01	-8.344948e+00
3.294268e+01	-8.386934e+00
3.313295e+01	-8.429810e+00
3.332433e+01	-8.472708e+00
3.351681e+01	-8.515306e+00
3.371040e+01	-8.558892e+00
3.390511e+01	-8.601563e+00
3.410094e+01	-8.645183e+00
3.429791e+01	-8.688227e+00
3.449601e+01	-8.731787e+00
3.469526e+01	-8.774927e+00
3.489566e+01	-8.818819e+00
3.509721e+01	-8.861878e+00
3.529993e+01	-8.905435e+00
3.550382e+01	-8.948810e+00
3.570889e+01	-8.992828e+00
3.591515e+01	-9.036597e+00
3.612259e+01	-9.079972e+00
3.633123e+01	-9.124018e+00
3.654108e+01	-9.167947e+00
3.675214e+01	-9.212005e+00
3.696442e+01	-9.255707e+00
3.717792e+01	-9.300441e+00
3.739266e+01	-9.343958e+00
3.760864e+01	-9.388776e+00
3.782587e+01	-9.432843e+00
3.804435e+01	-9.477449e+00
3.826409e+01	-9.521451e+00
3.848510e+01	-9.565944e+00
3.870739e+01	-9.610410e+00
3.893096e+01	-9.655155e+00
3.915583e+01	-9.700091e+00
3.938199e+01	-9.745008e+00
3.960946e+01	-9.789207e+00
3.983824e+01	-9.834869e+00
4.006834e+01	-9.879122e+00
4.029978e+01	-9.923645e+00
4.053255e+01	-9.968891e+00
4.076666e+01	-1.001374e+01
4.100213e+01	-1.005933e+01
4.123896e+01	-1.010423e+01
4.147715e+01	-1.014860e+01
4.171672e+01	-1.019424e+01
4.195767e+01	-1.023931e+01
4.220002e+01	-1.028511e+01
4.244377e+01	-1.033034e+01
4.268892e+01	-1.037606e+01
4.293549e+01	-1.042133e+01
4.318348e+01	-1.046637e+01
4.343291e+01	-1.051254e+01
4.368377e+01	-1.055813e+01
4.393609e+01	-1.060370e+01
4.418986e+01	-1.064914e+01
4.444510e+01	-1.069513e+01
4.470182e+01	-1.074073e+01
4.496001e+01	-1.078675e+01
4.521970e+01	-1.083244e+01
4.548089e+01	-1.087746e+01
4.574358e+01	-1.092412e+01
4.600779e+01	-1.097062e+01
4.627353e+01	-1.101615e+01
4.654081e+01	-1.106250e+01
4.680963e+01	-1.110866e+01
4.708000e+01	-1.115410e+01
4.735193e+01	-1.120142e+01
4.762543e+01	-1.124708e+01
4.790051e+01	-1.129367e+01
4.817719e+01	-1.133992e+01
4.845545e+01	-1.138634e+01
4.873533e+01	-1.143282e+01
4.901682e+01	-1.147881e+01
4.929994e+01	-1.152550e+01
4.958470e+01	-1.157199e+01
4.987110e+01	-1.161856e+01
5.015915e+01	-1.166514e+01
5.044887e+01	-1.171198e+01
5.074026e+01	-1.175835e+01
5.103333e+01	-1.180539e+01
5.132810e+01	-1.185216e+01
5.162457e+01	-1.189874e+01
5.192275e+01	-1.194562e+01
5.222265e+01	-1.199265e+01
5.252429e+01	-1.203943e+01
5.282767e+01	-1.208662e+01
5.313280e+01	-1.213299e+01
5.343969e+01	-1.217984e+01
5.374836e+01	-1.222738e+01
5.405880e+01	-1.227465e+01
5.437105e+01	-1.232118e+01
5.468509e+01	-1.236853e+01
5.500095e+01	-1.241564e+01
5.531863e+01	-1.246242e+01
5.563815e+01	-1.251007e+01
5.595951e+01	-1.255651e+01
5.628273e+01	-1.260426e+01
5.660782e+01	-1.265181e+01
5.693479e+01	-1.269835e+01
5.726364e+01	-1.274637e+01
5.759439e+01	-1.279353e+01
5.792705e+01	-1.284160e+01
5.826164e+01	-1.288896e+01
5.859815e+01	-1.293681e+01
5.893662e+01	-1.298423e+01
5.927703e+01	-1.303130e+01
5.961941e+01	-1.307891e+01
5.996377e+01	-1.312681e+01
6.031012e+01	-1.317436e+01
6.065847e+01	-1.322210e+01
6.100883e+01	-1.326892e+01
6.136121e+01	-1.331701e+01
6.171563e+01	-1.336429e+01
6.207210e+01	-1.341192e+01
6.243063e+01	-1.345916e+01
6.279122e+01	-1.350700e+01
6.315390e+01	-1.355550e+01
6.351868e+01	-1.360430e+01
6.388556e+01	-1.365132e+01
6.425456e+01	-1.369924e+01
6.462569e+01	-1.374669e+01
6.499897e+01	-1.379548e+01
6.537440e+01	-1.384264e+01
6.575200e+01	-1.389125e+01
6.613178e+01	-1.393895e+01
6.651375e+01	-1.398772e+01
6.689793e+01	-1.403516e+01
6.728433e+01	-1.408402e+01
6.767297e+01	-1.413098e+01
6.806384e+01	-1.417931e+01
6.845698e+01	-1.422796e+01
6.885238e+01	-1.427556e+01
6.925007e+01	-1.432406e+01
6.965005e+01	-1.437197e+01
7.005235e+01	-1.442107e+01
7.045697e+01	-1.446832e+01
7.086393e+01	-1.451683e+01
7.127323e+01	-1.456508e+01
7.168490e+01	-1.461338e+01
7.209895e+01	-1.466091e+01
7.251539e+01	-1.471029e+01
7.293424e+01	-1.475811e+01
7.335551e+01	-1.480793e+01
7.377920e+01	-1.485557e+01
7.420535e+01	-1.490366e+01
7.463396e+01	-1.495208e+01
7.506504e+01	-1.499999e+01
7.549861e+01	-1.504817e+01
7.593469e+01	-1.509649e+01
7.637328e+01	-1.514570e+01
7.681441e+01	-1.519443e+01
7.725809e+01	-1.524293e+01
7.770433e+01	-1.529231e+01
7.815315e+01	-1.534034e+01
7.860456e+01	-1.538868e+01
7.905857e+01	-1.543703e+01
7.951521e+01	-1.548505e+01
7.997449e+01	-1.553419e+01
8.043642e+01	-1.558294e+01
8.090102e+01	-1.563163e+01
8.136830e+01	-1.568036e+01
8.183828e+01	-1.572961e+01
8.231097e+01	-1.577770e+01
8.278640e+01	-1.582680e+01
8.326457e+01	-1.587505e+01
8.374550e+01	-1.592346e+01
8.422921e+01	-1.597259e+01
8.471572e+01	-1.602092e+01
8.520503e+01	-1.607062e+01
8.569717e+01	-1.611952e+01
8.619215e+01	-1.616770e+01
8.669000e+01	-1.621609e+01
8.719071e+01	-1.626563e+01
8.769432e+01	-1.631345e+01
8.820084e+01	-1.636417e+01
8.871029e+01	-1.641131e+01
8.922267e+01	-1.646098e+01
8.973802e+01	-1.651008e+01
9.025634e+01	-1.655760e+01
9.077766e+01	-1.660839e+01
9.130199e+01	-1.665667e+01
9.182935e+01	-1.670621e+01
9.235975e+01	-1.675422e+01
9.289321e+01	-1.680331e+01
9.342976e+01	-1.685148e+01
9.396941e+01	-1.690272e+01
9.451217e+01	-1.695018e+01
9.505807e+01	-1.700010e+01
9.560712e+01	-1.704852e+01
9.615934e+01	-1.709823e+01
9.671476e+01	-1.714573e+01
9.727338e+01	-1.719619e+01
9.783522e+01	-1.724488e+01
9.840032e+01	-1.729312e+01
9.896867e+01	-1.734237e+01
9.954031e+01	-1.739260e+01
1.001153e+02	-1.744153e+01
1.006935e+02	-1.748997e+01
1.012751e+02	-1.753817e+01
1.018601e+02	-1.758971e+01
1.024484e+02	-1.763786e+01
1.030402e+02	-1.768699e+01
1.036353e+02	-1.773635e+01
1.042339e+02	-1.778502e+01
1.048360e+02	-1.783443e+01
1.054415e+02	-1.788356e+01
1.060505e+02	-1.793365e+01
1.066631e+02	-1.798248e+01
1.072791e+02	-1.803059e+01
1.078988e+02	-1.808111e+01
1.085220e+02	-1.813061e+01
1.091488e+02	-1.817905e+01
1.097793e+02	-1.822879e+01
1.104133e+02	-1.827778e+01
1.110511e+02	-1.832736e+01
1.116925e+02	-1.837707e+01
1.123376e+02	-1.842663e+01
1.129865e+02	-1.847497e+01
1.136391e+02	-1.852427e+01
1.142955e+02	-1.857525e+01
1.149556e+02	-1.862334e+01
1.156196e+02	-1.867350e+01
1.162874e+02	-1.872274e+01
1.169591e+02	-1.877110e+01
1.176347e+02	-1.882082e+01
1.183141e+02	-1.887031e+01
1.189975e+02	-1.892031e+01
1.196848e+02	-1.896887e+01
1.203761e+02	-1.901846e+01
1.210714e+02	-1.906706e+01
1.217707e+02	-1.911786e+01
1.224740e+02	-1.916652e+01
1.231814e+02	-1.921559e+01
1.238929e+02	-1.926600e+01
1.246085e+02	-1.931481e+01
1.253283e+02	-1.936352e+01
1.260522e+02	-1.941325e+01
1.267802e+02	-1.946393e+01
1.275125e+02	-1.951163e+01
1.282490e+02	-1.956228e+01
1.289898e+02	-1.961303e+01
1.297348e+02	-1.966291e+01
1.304842e+02	-1.970951e+01
1.312378e+02	-1.976127e+01
1.319959e+02	-1.980975e+01
1.327583e+02	-1.985889e+01
1.335251e+02	-1.990994e+01
1.342963e+02	-1.995800e+01
1.350720e+02	-2.000816e+01
1.358522e+02	-2.005955e+01
1.366368e+02	-2.010728e+01
1.374260e+02	-2.015689e+01
1.382198e+02	-2.020602e+01
1.390182e+02	-2.025359e+01
1.398211e+02	-2.030499e+01
1.406287e+02	-2.035573e+01
1.414410e+02	-2.040509e+01
1.422579e+02	-2.045242e+01
1.430796e+02	-2.050388e+01
1.439060e+02	-2.055228e+01
1.447372e+02	-2.060375e+01
1.455732e+02	-2.065239e+01
1.464141e+02	-2.070137e+01
1.472597e+02	-2.075266e+01
1.481103e+02	-2.079943e+01
1.489658e+02	-2.085192e+01
1.498262e+02	-2.090173e+01
1.506916e+02	-2.094835e+01
1.515620e+02	-2.100071e+01
1.524374e+02	-2.104917e+01
1.533179e+02	-2.109788e+01
1.542034e+02	-2.114732e+01
1.550941e+02	-2.119629e+01
1.559899e+02	-2.124688e+01
1.568909e+02	-2.129808e+01
1.577971e+02	-2.134467e+01
1.587085e+02	-2.139631e+01
1.596252e+02	-2.144619e+01
1.605472e+02	-2.149745e+01
1.614745e+02	-2.154665e+01
1.624072e+02	-2.159536e+01
1.633453e+02	-2.164760e+01
1.642887e+02	-2.169517e+01
1.652377e+02	-2.174544e+01
1.661921e+02	-2.179397e+01
1.671520e+02	-2.184418e+01
1.681175e+02	-2.189402e+01
1.690885e+02	-2.194415e+01
1.700651e+02	-2.199233e+01
1.710474e+02	-2.204442e+01
1.720354e+02	-2.209411e+01
1.730291e+02	-2.214272e+01
1.740285e+02	-2.219373e+01
1.750337e+02	-2.224288e+01
1.760446e+02	-2.229139e+01
1.770615e+02	-2.234110e+01
1.780842e+02	-2.239216e+01
1.791128e+02	-2.244185e+01
1.801473e+02	-2.249193e+01
1.811878e+02	-2.254166e+01
1.822344e+02	-2.259088e+01
1.832870e+02	-2.263876e+01
1.843456e+02	-2.269000e+01
1.854104e+02	-2.273943e+01
1.864813e+02	-2.278742e+01
1.875584e+02	-2.284001e+01
1.886418e+02	-2.288874e+01
1.897313e+02	-2.293716e+01
1.908272e+02	-2.298837e+01
1.919294e+02	-2.303826e+01
1.930380e+02	-2.308886e+01
1.941530e+02	-2.313920e+01
1.952744e+02	-2.318760e+01
1.964023e+02	-2.323701e+01
1.975367e+02	-2.328850e+01
1.986777e+02	-2.333689e+01
1.998252e+02	-2.338687e+01
2.009794e+02	-2.343670e+01
2.021403e+02	-2.348905e+01
2.033078e+02	-2.353952e+01
2.044821e+02	-2.358639e+01
2.056632e+02	-2.363686e+01
2.068511e+02	-2.368612e+01
2.080459e+02	-2.373585e+01
2.092475e+02	-2.378573e+01
2.104561e+02	-2.383496e+01
2.116717e+02	-2.388685e+01
2.128943e+02	-2.393642e+01
2.141240e+02	-2.398617e+01
2.153608e+02	-2.403509e+01
2.166047e+02	-2.408427e+01
2.178558e+02	-2.413452e+01
2.191141e+02	-2.418759e+01
2.203797e+02	-2.423522e+01
2.216526e+02	-2.428676e+01
2.229329e+02	-2.433285e+01
2.242205e+02	-2.438081e+01
2.255156e+02	-2.443167e+01
2.268182e+02	-2.448444e+01
2.281283e+02	-2.453478e+01
2.294459e+02	-2.458131e+01
2.307712e+02	-2.463445e+01
2.321041e+02	-2.468442e+01
2.334447e+02	-2.473386e+01
2.347931e+02	-2.478120e+01
2.361493e+02	-2.483475e+01
2.375133e+02	-2.488235e+01
2.388851e+02	-2.493183e+01
2.402649e+02	-2.498028e+01
2.416527e+02	-2.503043e+01
2.430484e+02	-2.508541e+01
2.444523e+02	-2.513382e+01
2.458642e+02	-2.518439e+01
2.472843e+02	-2.523456e+01
2.487126e+02	-2.527983e+01
2.501492e+02	-2.533246e+01
2.515940e+02	-2.538059e+01
2.530472e+02	-2.543203e+01
2.545088e+02	-2.548228e+01
2.559789e+02	-2.553411e+01
2.574574e+02	-2.558368e+01
2.589444e+02	-2.562770e+01
2.604401e+02	-2.568232e+01
2.619444e+02	-2.573165e+01
2.634574e+02	-2.578550e+01
2.649791e+02	-2.583135e+01
2.665096e+02	-2.588417e+01
2.680489e+02	-2.592919e+01
2.695972e+02	-2.598288e+01
2.711544e+02	-2.602983e+01
2.727205e+02	-2.608211e+01
2.742958e+02	-2.612900e+01
2.758801e+02	-2.617864e+01
2.774736e+02	-2.623288e+01
2.790762e+02	-2.627909e+01
2.806882e+02	-2.633004e+01
2.823094e+02	-2.637922e+01
2.839400e+02	-2.643010e+01
2.855800e+02	-2.648108e+01
2.872295e+02	-2.653061e+01
2.888886e+02	-2.657706e+01
2.905572e+02	-2.662968e+01
2.922354e+02	-2.668314e+01
2.939234e+02	-2.673361e+01
2.956211e+02	-2.678329e+01
2.973286e+02	-2.683452e+01
2.990459e+02	-2.687799e+01
3.007732e+02	-2.693107e+01
3.025104e+02	-2.698109e+01
3.042577e+02	-2.703211e+01
3.060151e+02	-2.708298e+01
3.077826e+02	-2.713181e+01
3.095604e+02	-2.717737e+01
3.113484e+02	-2.723048e+01
3.131467e+02	-2.728311e+01
3.149554e+02	-2.732585e+01
3.167746e+02	-2.738182e+01
3.186043e+02	-2.743091e+01
3.204445e+02	-2.747708e+01
3.222954e+02	-2.753007e+01
3.241570e+02	-2.757829e+01
3.260293e+02	-2.763373e+01
3.279124e+02	-2.767633e+01
3.298064e+02	-2.773102e+01
3.317114e+02	-2.778190e+01
3.336273e+02	-2.783140e+01
3.355544e+02	-2.787920e+01
3.374925e+02	-2.793115e+01
3.394418e+02	-2.798315e+01
3.414024e+02	-2.803164e+01
3.433744e+02	-2.808229e+01
3.453577e+02	-2.813086e+01
3.473525e+02	-2.818239e+01
3.493588e+02	-2.822896e+01
3.513766e+02	-2.828303e+01
3.534062e+02	-2.833176e+01
3.554474e+02	-2.838533e+01
3.575005e+02	-2.843017e+01
3.595654e+02	-2.848210e+01
3.616422e+02	-2.853131e+01
3.637311e+02	-2.858425e+01
3.658320e+02	-2.864015e+01
3.679450e+02	-2.868121e+01
3.700702e+02	-2.873048e+01
3.722077e+02	-2.878451e+01
3.743576e+02	-2.883447e+01
3.765199e+02	-2.888289e+01
3.786946e+02	-2.893481e+01
3.808820e+02	-2.898389e+01
3.830819e+02	-2.903401e+01
3.852946e+02	-2.908459e+01
3.875200e+02	-2.913223e+01
3.897583e+02	-2.917750e+01
3.920096e+02	-2.923166e+01
3.942738e+02	-2.928059e+01
3.965511e+02	-2.933087e+01
3.988416e+02	-2.938091e+01
4.011452e+02	-2.942966e+01
4.034622e+02	-2.948203e+01
4.057926e+02	-2.953240e+01
4.081365e+02	-2.957924e+01
4.104938e+02	-2.962921e+01
4.128648e+02	-2.967937e+01
4.152495e+02	-2.973502e+01
4.176480e+02	-2.978126e+01
4.200603e+02	-2.983136e+01
4.224866e+02	-2.988366e+01
4.249268e+02	-2.993292e+01
4.273812e+02	-2.998513e+01
4.298497e+02	-3.003292e+01
4.323325e+02	-3.007921e+01
4.348297e+02	-3.013248e+01
4.373412e+02	-3.018373e+01
4.398673e+02	-3.023360e+01
4.424079e+02	-3.028141e+01
4.449633e+02	-3.033663e+01
4.475334e+02	-3.038841e+01
4.501183e+02	-3.043570e+01
4.527182e+02	-3.048268e+01
4.553330e+02	-3.053460e+01
4.579630e+02	-3.058476e+01
4.606082e+02	-3.063651e+01
4.632687e+02	-3.068654e+01
4.659445e+02	-3.073987e+01
4.686358e+02	-3.078294e+01
4.713426e+02	-3.083540e+01
4.740650e+02	-3.088638e+01
4.768032e+02	-3.094049e+01
4.795572e+02	-3.098756e+01
4.823271e+02	-3.103430e+01
4.851130e+02	-3.109071e+01
4.879150e+02	-3.113697e+01
4.907332e+02	-3.118484e+01
4.935676e+02	-3.123754e+01
4.964185e+02	-3.128800e+01
4.992858e+02	-3.134076e+01
5.021696e+02	-3.138583e+01
5.050701e+02	-3.144515e+01
5.079874e+02	-3.149056e+01
5.109215e+02	-3.153979e+01
5.138726e+02	-3.159363e+01
5.168407e+02	-3.164111e+01
5.198259e+02	-3.168997e+01
5.228284e+02	-3.174099e+01
5.258482e+02	-3.179047e+01
5.288855e+02	-3.183760e+01
5.319403e+02	-3.188306e+01
5.350128e+02	-3.194129e+01
5.381030e+02	-3.199035e+01
5.412111e+02	-3.204382e+01
5.443371e+02	-3.208734e+01
5.474812e+02	-3.213928e+01
5.506434e+02	-3.218937e+01
5.538239e+02	-3.223878e+01
5.570228e+02	-3.228873e+01
5.602401e+02	-3.234075e+01
5.634760e+02	-3.239632e+01
5.667306e+02	-3.244632e+01
5.700040e+02	-3.248226e+01
5.732964e+02	-3.254803e+01
5.766077e+02	-3.259094e+01
5.799382e+02	-3.264574e+01
5.832879e+02	-3.269523e+01
5.866569e+02	-3.274061e+01
5.900454e+02	-3.279743e+01
5.934535e+02	-3.283994e+01
5.968813e+02	-3.289389e+01
6.003288e+02	-3.295214e+01
6.037963e+02	-3.299901e+01
6.072838e+02	-3.303285e+01
6.107914e+02	-3.308832e+01
6.143194e+02	-3.314475e+01
6.178676e+02	-3.318572e+01
6.214364e+02	-3.324799e+01
6.250258e+02	-3.329070e+01
6.286359e+02	-3.334863e+01
6.322669e+02	-3.339024e+01
6.359189e+02	-3.344592e+01
6.395919e+02	-3.350195e+01
6.432862e+02	-3.355121e+01
6.470017e+02	-3.360323e+01
6.507388e+02	-3.364489e+01
6.544974e+02	-3.370269e+01
6.582778e+02	-3.375295e+01
6.620800e+02	-3.379975e+01
6.659041e+02	-3.384847e+01
6.697504e+02	-3.389612e+01
6.736188e+02	-3.394941e+01
6.775096e+02	-3.399899e+01
6.814229e+02	-3.404706e+01
6.853587e+02	-3.409745e+01
6.893173e+02	-3.414804e+01
6.932988e+02	-3.420770e+01
6.973033e+02	-3.425376e+01
7.013309e+02	-3.430060e+01
