Frequency(Hz)	Magnitude(dB)
1.000000e+01	-1.883511e+00
1.005776e+01	-1.900853e+00
1.011585e+01	-1.918779e+00
1.017428e+01	-1.936771e+00
1.023305e+01	-1.954663e+00
1.029215e+01	-1.972842e+00
1.035160e+01	-1.991280e+00
1.041139e+01	-2.009750e+00
1.047153e+01	-2.028279e+00
1.053201e+01	-2.047131e+00
1.059284e+01	-2.065585e+00
1.065403e+01	-2.084870e+00
1.071556e+01	-2.104115e+00
1.077746e+01	-2.123360e+00
1.083971e+01	-2.142617e+00
1.090232e+01	-2.162422e+00
1.096529e+01	-2.181945e+00
1.102862e+01	-2.201837e+00
1.109232e+01	-2.221979e+00
1.115639e+01	-2.241877e+00
1.122083e+01	-2.262211e+00
1.128564e+01	-2.282596e+00
1.135083e+01	-2.302977e+00
1.141639e+01	-2.323688e+00
1.148233e+01	-2.344452e+00
1.154865e+01	-2.365429e+00
1.161536e+01	-2.386669e+00
1.168245e+01	-2.407652e+00
1.174992e+01	-2.429193e+00
1.181779e+01	-2.450629e+00
1.188605e+01	-2.472336e+00
1.195470e+01	-2.494034e+00
1.202375e+01	-2.516075e+00
1.209320e+01	-2.537880e+00
1.216305e+01	-2.560283e+00
1.223330e+01	-2.582375e+00
1.230396e+01	-2.605179e+00
1.237503e+01	-2.627795e+00
1.244651e+01	-2.650609e+00
1.251840e+01	-2.673423e+00
1.259070e+01	-2.696413e+00
1.266343e+01	-2.719618e+00
1.273657e+01	-2.743072e+00
1.281014e+01	-2.766700e+00
1.288413e+01	-2.790292e+00
1.295855e+01	-2.814070e+00
1.303339e+01	-2.837916e+00
1.310867e+01	-2.861990e+00
1.318439e+01	-2.886110e+00
1.326054e+01	-2.910446e+00
1.333713e+01	-2.934935e+00
1.341417e+01	-2.959688e+00
1.349165e+01	-2.984444e+00
1.356958e+01	-3.009506e+00
1.364795e+01	-3.034490e+00
1.372678e+01	-3.059729e+00
1.380607e+01	-3.085249e+00
1.388581e+01	-3.110606e+00
1.396602e+01	-3.136387e+00
1.404668e+01	-3.161959e+00
1.412782e+01	-3.188186e+00
1.420942e+01	-3.214025e+00
1.429149e+01	-3.240249e+00
1.437404e+01	-3.266698e+00
1.445706e+01	-3.293132e+00
1.454057e+01	-3.319887e+00
1.462455e+01	-3.346574e+00
1.470902e+01	-3.373723e+00
1.479398e+01	-3.400811e+00
1.487943e+01	-3.427860e+00
1.496537e+01	-3.455467e+00
1.505181e+01	-3.482762e+00
1.513875e+01	-3.510518e+00
1.522619e+01	-3.538079e+00
1.531414e+01	-3.566075e+00
1.540259e+01	-3.594282e+00
1.549156e+01	-3.622745e+00
1.558103e+01	-3.651116e+00
1.567103e+01	-3.679542e+00
1.576155e+01	-3.708169e+00
1.585258e+01	-3.737041e+00
1.594415e+01	-3.765946e+00
1.603624e+01	-3.794920e+00
1.612886e+01	-3.823907e+00
1.622202e+01	-3.853496e+00
1.631572e+01	-3.882874e+00
1.640996e+01	-3.912647e+00
1.650474e+01	-3.942663e+00
1.660008e+01	-3.972498e+00
1.669596e+01	-4.002106e+00
1.679239e+01	-4.032670e+00
1.688938e+01	-4.063150e+00
1.698694e+01	-4.093429e+00
1.708505e+01	-4.123989e+00
1.718373e+01	-4.154484e+00
1.728299e+01	-4.185788e+00
1.738281e+01	-4.216363e+00
1.748322e+01	-4.247474e+00
1.758420e+01	-4.279011e+00
1.768576e+01	-4.310385e+00
1.778792e+01	-4.341667e+00
1.789066e+01	-4.373677e+00
1.799399e+01	-4.405361e+00
1.809793e+01	-4.437407e+00
1.820246e+01	-4.469434e+00
1.830760e+01	-4.501597e+00
1.841334e+01	-4.534038e+00
1.851969e+01	-4.566492e+00
1.862666e+01	-4.599009e+00
1.873425e+01	-4.631800e+00
1.884246e+01	-4.664864e+00
1.895129e+01	-4.697801e+00
1.906075e+01	-4.730938e+00
1.917085e+01	-4.763929e+00
1.928158e+01	-4.797733e+00
1.939295e+01	-4.831085e+00
1.950496e+01	-4.864698e+00
1.961762e+01	-4.898645e+00
1.973093e+01	-4.932525e+00
1.984490e+01	-4.966504e+00
1.995952e+01	-5.000361e+00
2.007480e+01	-5.034947e+00
2.019076e+01	-5.069204e+00
2.030738e+01	-5.103591e+00
2.042467e+01	-5.138480e+00
2.054264e+01	-5.173190e+00
2.066130e+01	-5.207942e+00
2.078064e+01	-5.243124e+00
2.090066e+01	-5.278219e+00
2.102139e+01	-5.313250e+00
2.114280e+01	-5.348949e+00
2.126492e+01	-5.384273e+00
2.138775e+01	-5.420159e+00
2.151128e+01	-5.455346e+00
2.163553e+01	-5.491295e+00
2.176050e+01	-5.527556e+00
2.188619e+01	-5.563308e+00
2.201260e+01	-5.599612e+00
2.213974e+01	-5.635787e+00
2.226762e+01	-5.672265e+00
2.239624e+01	-5.708913e+00
2.252560e+01	-5.745616e+00
2.265571e+01	-5.782341e+00
2.278656e+01	-5.819218e+00
2.291818e+01	-5.856303e+00
2.305055e+01	-5.893157e+00
2.318369e+01	-5.930626e+00
2.331760e+01	-5.967565e+00
2.345228e+01	-6.004996e+00
2.358774e+01	-6.042738e+00
2.372398e+01	-6.080283e+00
2.386101e+01	-6.118099e+00
2.399883e+01	-6.155957e+00
2.413745e+01	-6.193708e+00
2.427686e+01	-6.231684e+00
2.441709e+01	-6.270035e+00
2.455812e+01	-6.308396e+00
2.469997e+01	-6.346576e+00
2.484263e+01	-6.385520e+00
2.498612e+01	-6.423763e+00
2.513044e+01	-6.462461e+00
2.527559e+01	-6.501096e+00
2.542158e+01	-6.540147e+00
2.556842e+01	-6.579084e+00
2.571610e+01	-6.618156e+00
2.586463e+01	-6.657730e+00
2.601403e+01	-6.696600e+00
2.616428e+01	-6.735868e+00
2.631541e+01	-6.775411e+00
2.646740e+01	-6.814926e+00
2.662028e+01	-6.854765e+00
2.677404e+01	-6.894551e+00
2.692868e+01	-6.934783e+00
2.708422e+01	-6.973868e+00
2.724066e+01	-7.014263e+00
2.739800e+01	-7.054287e+00
2.755625e+01	-7.094686e+00
2.771541e+01	-7.135014e+00
2.787550e+01	-7.175623e+00
2.803650e+01	-7.215462e+00
2.819844e+01	-7.256261e+00
2.836131e+01	-7.296900e+00
2.852513e+01	-7.337849e+00
2.868989e+01	-7.378200e+00
2.885560e+01	-7.419521e+00
2.902227e+01	-7.460600e+00
2.918990e+01	-7.501443e+00
2.935850e+01	-7.542690e+00
2.952807e+01	-7.583874e+00
2.969863e+01	-7.625422e+00
2.987016e+01	-7.666902e+00
3.004269e+01	-7.708268e+00
3.021622e+01	-7.749862e+00
3.039075e+01	-7.791435e+00
3.056628e+01	-7.833422e+00
3.074283e+01	-7.875157e+00
3.092040e+01	-7.916718e+00
3.109900e+01	-7.959241e+00
3.127862e+01	-8.001226e+00
3.145929e+01	-8.043128e+00
3.164099e+01	-8.085532e+00
3.182375e+01	-8.127896e+00
3.200756e+01	-8.170435e+00
3.219244e+01	-8.212312e+00
3.237838e+01	-8.255240e+00
3.256540e+01	-8.297511e+00
3.275349e+01	-8.340343e+00
3.294268e+01	-8.382876e+00
3.313295e+01	-8.425810e+00
3.332433e+01	-8.468738e+00
3.351681e+01	-8.511541e+00
3.371040e+01	-8.554594e+00
3.390511e+01	-8.597742e+00
3.410094e+01	-8.640880e+00
3.429791e+01	-8.684231e+00
3.449601e+01	-8.727652e+00
3.469526e+01	-8.770863e+00
3.489566e+01	-8.813825e+00
3.509721e+01	-8.857582e+00
3.529993e+01	-8.900853e+00
3.550382e+01	-8.944905e+00
3.570889e+01	-8.988387e+00
3.591515e+01	-9.032510e+00
3.612259e+01	-9.075759e+00
3.633123e+01	-9.120180e+00
3.654108e+01	-9.163583e+00
3.675214e+01	-9.208111e+00
3.696442e+01	-9.251629e+00
3.717792e+01	-9.295691e+00
3.739266e+01	-9.340105e+00
3.760864e+01	-9.384079e+00
3.782587e+01	-9.428670e+00
3.804435e+01	-9.472823e+00
3.826409e+01	-9.517243e+00
3.848510e+01	-9.561390e+00
3.870739e+01	-9.607083e+00
3.893096e+01	-9.651358e+00
3.915583e+01	-9.695496e+00
3.938199e+01	-9.740259e+00
3.960946e+01	-9.785175e+00
3.983824e+01	-9.829819e+00
4.006834e+01	-9.874698e+00
4.029978e+01	-9.919770e+00
4.053255e+01	-9.964463e+00
4.076666e+01	-1.000950e+01
4.100213e+01	-1.005460e+01
4.123896e+01	-1.009966e+01
4.147715e+01	-1.014480e+01
4.171672e+01	-1.019014e+01
4.195767e+01	-1.023540e+01
4.220002e+01	-1.028090e+01
4.244377e+01	-1.032617e+01
4.268892e+01	-1.037133e+01
4.293549e+01	-1.041717e+01
4.318348e+01	-1.046257e+01
4.343291e+01	-1.050814e+01
4.368377e+01	-1.055438e+01
4.393609e+01	-1.059956e+01
4.418986e+01	-1.064513e+01
4.444510e+01	-1.069037e+01
4.470182e+01	-1.073650e+01
4.496001e+01	-1.078218e+01
4.521970e+01	-1.082881e+01
4.548089e+01	-1.087374e+01
4.574358e+01	-1.092087e+01
4.600779e+01	-1.096598e+01
4.627353e+01	-1.101235e+01
4.654081e+01	-1.105813e+01
4.680963e+01	-1.110427e+01
4.708000e+01	-1.115052e+01
4.735193e+01	-1.119621e+01
4.762543e+01	-1.124244e+01
4.790051e+01	-1.128856e+01
4.817719e+01	-1.133543e+01
4.845545e+01	-1.138156e+01
4.873533e+01	-1.142811e+01
4.901682e+01	-1.147425e+01
4.929994e+01	-1.152097e+01
4.958470e+01	-1.156805e+01
4.987110e+01	-1.161388e+01
5.015915e+01	-1.166058e+01
5.044887e+01	-1.170772e+01
5.074026e+01	-1.175481e+01
5.103333e+01	-1.180087e+01
5.132810e+01	-1.184732e+01
5.162457e+01	-1.189470e+01
5.192275e+01	-1.194080e+01
5.222265e+01	-1.198811e+01
5.252429e+01	-1.203449e+01
5.282767e+01	-1.208192e+01
5.313280e+01	-1.212909e+01
5.343969e+01	-1.217587e+01
5.374836e+01	-1.222254e+01
5.405880e+01	-1.226987e+01
5.437105e+01	-1.231661e+01
5.468509e+01	-1.236474e+01
5.500095e+01	-1.241178e+01
5.531863e+01	-1.245816e+01
5.563815e+01	-1.250623e+01
5.595951e+01	-1.255336e+01
5.628273e+01	-1.259993e+01
5.660782e+01	-1.264715e+01
5.693479e+01	-1.269471e+01
5.726364e+01	-1.274205e+01
5.759439e+01	-1.278958e+01
5.792705e+01	-1.283704e+01
5.826164e+01	-1.288442e+01
5.859815e+01	-1.293204e+01
5.893662e+01	-1.297902e+01
5.927703e+01	-1.302638e+01
5.961941e+01	-1.307403e+01
5.996377e+01	-1.312151e+01
6.031012e+01	-1.316935e+01
6.065847e+01	-1.321685e+01
6.100883e+01	-1.326493e+01
6.136121e+01	-1.331266e+01
6.171563e+01	-1.336050e+01
6.207210e+01	-1.340812e+01
6.243063e+01	-1.345614e+01
6.279122e+01	-1.350366e+01
6.315390e+01	-1.355114e+01
6.351868e+01	-1.359865e+01
6.388556e+01	-1.364714e+01
6.425456e+01	-1.369419e+01
6.462569e+01	-1.374293e+01
6.499897e+01	-1.379068e+01
6.537440e+01	-1.383813e+01
6.575200e+01	-1.388663e+01
6.613178e+01	-1.393370e+01
6.651375e+01	-1.398301e+01
6.689793e+01	-1.403040e+01
6.728433e+01	-1.407833e+01
6.767297e+01	-1.412734e+01
6.806384e+01	-1.417418e+01
6.845698e+01	-1.422327e+01
6.885238e+01	-1.427083e+01
6.925007e+01	-1.431897e+01
6.965005e+01	-1.436726e+01
7.005235e+01	-1.441557e+01
7.045697e+01	-1.446360e+01
7.086393e+01	-1.451208e+01
7.127323e+01	-1.455991e+01
7.168490e+01	-1.460834e+01
7.209895e+01	-1.465726e+01
7.251539e+01	-1.470441e+01
7.293424e+01	-1.475398e+01
7.335551e+01	-1.480217e+01
7.377920e+01	-1.485041e+01
7.420535e+01	-1.489936e+01
7.463396e+01	-1.494725e+01
7.506504e+01	-1.499582e+01
7.549861e+01	-1.504329e+01
7.593469e+01	-1.509225e+01
7.637328e+01	-1.514094e+01
7.681441e+01	-1.518863e+01
7.725809e+01	-1.523778e+01
7.770433e+01	-1.528725e+01
7.815315e+01	-1.533480e+01
7.860456e+01	-1.538434e+01
7.905857e+01	-1.543238e+01
7.951521e+01	-1.548089e+01
7.997449e+01	-1.552914e+01
8.043642e+01	-1.557785e+01
8.090102e+01	-1.562735e+01
8.136830e+01	-1.567610e+01
8.183828e+01	-1.572411e+01
8.231097e+01	-1.577298e+01
8.278640e+01	-1.582128e+01
8.326457e+01	-1.586959e+01
8.374550e+01	-1.591878e+01
8.422921e+01	-1.596748e+01
8.471572e+01	-1.601730e+01
8.520503e+01	-1.606528e+01
8.569717e+01	-1.611352e+01
8.619215e+01	-1.616366e+01
8.669000e+01	-1.621247e+01
8.719071e+01	-1.625957e+01
8.769432e+01	-1.631030e+01
8.820084e+01	-1.635709e+01
8.871029e+01	-1.640745e+01
8.922267e+01	-1.645659e+01
8.973802e+01	-1.650565e+01
9.025634e+01	-1.655442e+01
9.077766e+01	-1.660281e+01
9.130199e+01	-1.665258e+01
9.182935e+01	-1.670103e+01
9.235975e+01	-1.674966e+01
9.289321e+01	-1.679974e+01
9.342976e+01	-1.684751e+01
9.396941e+01	-1.689599e+01
9.451217e+01	-1.694565e+01
9.505807e+01	-1.699458e+01
9.560712e+01	-1.704297e+01
9.615934e+01	-1.709394e+01
9.671476e+01	-1.714252e+01
9.727338e+01	-1.719124e+01
9.783522e+01	-1.723957e+01
9.840032e+01	-1.729093e+01
9.896867e+01	-1.733934e+01
9.954031e+01	-1.738665e+01
1.001153e+02	-1.743808e+01
1.006935e+02	-1.748492e+01
1.012751e+02	-1.753480e+01
1.018601e+02	-1.758422e+01
1.024484e+02	-1.763407e+01
1.030402e+02	-1.768121e+01
1.036353e+02	-1.773200e+01
1.042339e+02	-1.778054e+01
1.048360e+02	-1.782980e+01
1.054415e+02	-1.787920e+01
1.060505e+02	-1.792869e+01
1.066631e+02	-1.797857e+01
1.072791e+02	-1.802675e+01
1.078988e+02	-1.807694e+01
1.085220e+02	-1.812614e+01
1.091488e+02	-1.817492e+01
1.097793e+02	-1.822370e+01
1.104133e+02	-1.827408e+01
1.110511e+02	-1.832398e+01
1.116925e+02	-1.837267e+01
1.123376e+02	-1.842083e+01
1.129865e+02	-1.847029e+01
1.136391e+02	-1.852041e+01
1.142955e+02	-1.856850e+01
1.149556e+02	-1.861820e+01
1.156196e+02	-1.866717e+01
1.162874e+02	-1.871787e+01
1.169591e+02	-1.876701e+01
1.176347e+02	-1.881614e+01
1.183141e+02	-1.886552e+01
1.189975e+02	-1.891516e+01
1.196848e+02	-1.896378e+01
1.203761e+02	-1.901369e+01
1.210714e+02	-1.906290e+01
1.217707e+02	-1.911228e+01
1.224740e+02	-1.915946e+01
1.231814e+02	-1.921110e+01
1.238929e+02	-1.925947e+01
1.246085e+02	-1.931006e+01
1.253283e+02	-1.935975e+01
1.260522e+02	-1.940771e+01
1.267802e+02	-1.945864e+01
1.275125e+02	-1.950776e+01
1.282490e+02	-1.955705e+01
1.289898e+02	-1.960698e+01
1.297348e+02	-1.965822e+01
1.304842e+02	-1.970766e+01
1.312378e+02	-1.975492e+01
1.319959e+02	-1.980567e+01
1.327583e+02	-1.985553e+01
1.335251e+02	-1.990278e+01
1.342963e+02	-1.995265e+01
1.350720e+02	-2.000209e+01
1.358522e+02	-2.005157e+01
1.366368e+02	-2.010076e+01
1.374260e+02	-2.015149e+01
1.382198e+02	-2.020135e+01
1.390182e+02	-2.025231e+01
1.398211e+02	-2.030073e+01
1.406287e+02	-2.035059e+01
1.414410e+02	-2.039884e+01
1.422579e+02	-2.044842e+01
1.430796e+02	-2.049999e+01
1.439060e+02	-2.054840e+01
1.447372e+02	-2.059932e+01
1.455732e+02	-2.064782e+01
1.464141e+02	-2.069493e+01
1.472597e+02	-2.074828e+01
1.481103e+02	-2.079610e+01
1.489658e+02	-2.084522e+01
1.498262e+02	-2.089505e+01
1.506916e+02	-2.094724e+01
1.515620e+02	-2.099449e+01
1.524374e+02	-2.104458e+01
1.533179e+02	-2.109264e+01
1.542034e+02	-2.114481e+01
1.550941e+02	-2.119412e+01
1.559899e+02	-2.124327e+01
1.568909e+02	-2.129499e+01
1.577971e+02	-2.134198e+01
1.587085e+02	-2.139121e+01
1.596252e+02	-2.144271e+01
1.605472e+02	-2.149268e+01
1.614745e+02	-2.154102e+01
1.624072e+02	-2.159037e+01
1.633453e+02	-2.164065e+01
1.642887e+02	-2.169074e+01
1.652377e+02	-2.174066e+01
1.661921e+02	-2.179143e+01
1.671520e+02	-2.183879e+01
1.681175e+02	-2.188895e+01
1.690885e+02	-2.193792e+01
1.700651e+02	-2.198911e+01
1.710474e+02	-2.203826e+01
1.720354e+02	-2.208851e+01
1.730291e+02	-2.213866e+01
1.740285e+02	-2.219018e+01
1.750337e+02	-2.223619e+01
1.760446e+02	-2.228652e+01
1.770615e+02	-2.233808e+01
1.780842e+02	-2.238666e+01
1.791128e+02	-2.243496e+01
1.801473e+02	-2.248575e+01
1.811878e+02	-2.253521e+01
1.822344e+02	-2.258693e+01
1.832870e+02	-2.263479e+01
1.843456e+02	-2.268500e+01
1.854104e+02	-2.273444e+01
1.864813e+02	-2.278524e+01
1.875584e+02	-2.283379e+01
1.886418e+02	-2.288619e+01
1.897313e+02	-2.293162e+01
1.908272e+02	-2.298367e+01
1.919294e+02	-2.303249e+01
1.930380e+02	-2.308618e+01
1.941530e+02	-2.313328e+01
1.952744e+02	-2.318145e+01
1.964023e+02	-2.323272e+01
1.975367e+02	-2.327819e+01
1.986777e+02	-2.333330e+01
1.998252e+02	-2.338015e+01
2.009794e+02	-2.343181e+01
2.021403e+02	-2.348044e+01
2.033078e+02	-2.353138e+01
2.044821e+02	-2.358040e+01
2.056632e+02	-2.363325e+01
2.068511e+02	-2.368176e+01
2.080459e+02	-2.373171e+01
2.092475e+02	-2.378157e+01
2.104561e+02	-2.382944e+01
2.116717e+02	-2.388011e+01
2.128943e+02	-2.393319e+01
2.141240e+02	-2.398093e+01
2.153608e+02	-2.403113e+01
2.166047e+02	-2.407974e+01
2.178558e+02	-2.412883e+01
2.191141e+02	-2.418064e+01
2.203797e+02	-2.422990e+01
2.216526e+02	-2.427922e+01
2.229329e+02	-2.433233e+01
2.242205e+02	-2.437937e+01
2.255156e+02	-2.442909e+01
2.268182e+02	-2.447929e+01
2.281283e+02	-2.452975e+01
2.294459e+02	-2.457802e+01
2.307712e+02	-2.462811e+01
2.321041e+02	-2.467694e+01
2.334447e+02	-2.472960e+01
2.347931e+02	-2.477704e+01
2.361493e+02	-2.483020e+01
2.375133e+02	-2.487769e+01
2.388851e+02	-2.492823e+01
2.402649e+02	-2.497827e+01
2.416527e+02	-2.502679e+01
2.430484e+02	-2.507905e+01
2.444523e+02	-2.512952e+01
2.458642e+02	-2.517552e+01
2.472843e+02	-2.522892e+01
2.487126e+02	-2.527584e+01
2.501492e+02	-2.533068e+01
2.515940e+02	-2.537585e+01
2.530472e+02	-2.543002e+01
2.545088e+02	-2.547606e+01
2.559789e+02	-2.552659e+01
2.574574e+02	-2.557744e+01
2.589444e+02	-2.562366e+01
2.604401e+02	-2.567811e+01
2.619444e+02	-2.572872e+01
2.634574e+02	-2.577834e+01
2.649791e+02	-2.582660e+01
2.665096e+02	-2.587547e+01
2.680489e+02	-2.592428e+01
2.695972e+02	-2.598029e+01
2.711544e+02	-2.602520e+01
2.727205e+02	-2.607743e+01
2.742958e+02	-2.612816e+01
2.758801e+02	-2.617500e+01
2.774736e+02	-2.622671e+01
2.790762e+02	-2.627825e+01
2.806882e+02	-2.632767e+01
2.823094e+02	-2.637845e+01
2.839400e+02	-2.642643e+01
2.855800e+02	-2.647591e+01
2.872295e+02	-2.652363e+01
2.888886e+02	-2.657536e+01
2.905572e+02	-2.662784e+01
2.922354e+02	-2.667429e+01
2.939234e+02	-2.672300e+01
2.956211e+02	-2.677610e+01
2.973286e+02	-2.682915e+01
2.990459e+02	-2.687987e+01
3.007732e+02	-2.692457e+01
3.025104e+02	-2.697644e+01
3.042577e+02	-2.702808e+01
3.060151e+02	-2.707658e+01
3.077826e+02	-2.712561e+01
3.095604e+02	-2.717710e+01
3.113484e+02	-2.722664e+01
3.131467e+02	-2.727438e+01
3.149554e+02	-2.732413e+01
3.167746e+02	-2.737713e+01
3.186043e+02	-2.742646e+01
3.204445e+02	-2.747897e+01
3.222954e+02	-2.752712e+01
3.241570e+02	-2.757421e+01
3.260293e+02	-2.762938e+01
3.279124e+02	-2.767808e+01
3.298064e+02	-2.772381e+01
3.317114e+02	-2.777450e+01
3.336273e+02	-2.782861e+01
3.355544e+02	-2.787160e+01
3.374925e+02	-2.792531e+01
3.394418e+02	-2.797238e+01
3.414024e+02	-2.802241e+01
3.433744e+02	-2.807493e+01
3.453577e+02	-2.812714e+01
3.473525e+02	-2.817460e+01
3.493588e+02	-2.822891e+01
3.513766e+02	-2.827794e+01
3.534062e+02	-2.833078e+01
3.554474e+02	-2.837952e+01
3.575005e+02	-2.843009e+01
3.595654e+02	-2.847887e+01
3.616422e+02	-2.852843e+01
3.637311e+02	-2.857689e+01
3.658320e+02	-2.862599e+01
3.679450e+02	-2.867577e+01
3.700702e+02	-2.872515e+01
3.722077e+02	-2.877699e+01
3.743576e+02	-2.882732e+01
3.765199e+02	-2.887331e+01
3.786946e+02	-2.892805e+01
3.808820e+02	-2.897644e+01
3.830819e+02	-2.902415e+01
3.852946e+02	-2.908090e+01
3.875200e+02	-2.912676e+01
3.897583e+02	-2.917674e+01
3.920096e+02	-2.922591e+01
3.942738e+02	-2.927711e+01
3.965511e+02	-2.932669e+01
3.988416e+02	-2.937921e+01
4.011452e+02	-2.942817e+01
4.034622e+02	-2.947657e+01
4.057926e+02	-2.953014e+01
4.081365e+02	-2.958384e+01
4.104938e+02	-2.963085e+01
4.128648e+02	-2.967458e+01
4.152495e+02	-2.972957e+01
4.176480e+02	-2.977484e+01
4.200603e+02	-2.982669e+01
4.224866e+02	-2.988083e+01
4.249268e+02	-2.992678e+01
4.273812e+02	-2.998201e+01
4.298497e+02	-3.002714e+01
4.323325e+02	-3.007804e+01
4.348297e+02	-3.013386e+01
4.373412e+02	-3.017984e+01
4.398673e+02	-3.022840e+01
4.424079e+02	-3.027937e+01
4.449633e+02	-3.032875e+01
4.475334e+02	-3.038329e+01
4.501183e+02	-3.043728e+01
4.527182e+02	-3.048008e+01
4.553330e+02	-3.053473e+01
4.579630e+02	-3.058533e+01
4.606082e+02	-3.063601e+01
4.632687e+02	-3.067891e+01
4.659445e+02	-3.073130e+01
4.686358e+02	-3.078067e+01
4.713426e+02	-3.083678e+01
4.740650e+02	-3.087408e+01
4.768032e+02	-3.093813e+01
4.795572e+02	-3.098232e+01
4.823271e+02	-3.103316e+01
4.851130e+02	-3.108436e+01
4.879150e+02	-3.113552e+01
4.907332e+02	-3.117968e+01
4.935676e+02	-3.123377e+01
4.964185e+02	-3.128417e+01
4.992858e+02	-3.133449e+01
5.021696e+02	-3.138045e+01
5.050701e+02	-3.143210e+01
5.079874e+02	-3.148733e+01
5.109215e+02	-3.152892e+01
5.138726e+02	-3.158504e+01
5.168407e+02	-3.164170e+01
5.198259e+02	-3.167981e+01
5.228284e+02	-3.173349e+01
5.258482e+02	-3.178464e+01
5.288855e+02	-3.183078e+01
5.319403e+02	-3.188577e+01
5.350128e+02	-3.193727e+01
5.381030e+02	-3.199062e+01
5.412111e+02	-3.202773e+01
5.443371e+02	-3.208642e+01
5.474812e+02	-3.213410e+01
5.506434e+02	-3.218497e+01
5.538239e+02	-3.223587e+01
5.570228e+02	-3.227873e+01
5.602401e+02	-3.234049e+01
5.634760e+02	-3.238391e+01
5.667306e+02	-3.244133e+01
5.700040e+02	-3.248885e+01
5.732964e+02	-3.253094e+01
5.766077e+02	-3.258543e+01
5.799382e+02	-3.263916e+01
5.832879e+02	-3.269068e+01
5.866569e+02	-3.274030e+01
5.900454e+02	-3.278754e+01
5.934535e+02	-3.283571e+01
5.968813e+02	-3.289323e+01
6.003288e+02	-3.293855e+01
6.037963e+02	-3.299031e+01
6.072838e+02	-3.303931e+01
6.107914e+02	-3.308883e+01
6.143194e+02	-3.314568e+01
6.178676e+02	-3.319063e+01
6.214364e+02	-3.324750e+01
6.250258e+02	-3.329053e+01
6.286359e+02	-3.333938e+01
6.322669e+02	-3.339099e+01
6.359189e+02	-3.344889e+01
6.395919e+02	-3.349215e+01
6.432862e+02	-3.354341e+01
6.470017e+02	-3.359394e+01
6.507388e+02	-3.364461e+01
6.544974e+02	-3.370039e+01
6.582778e+02	-3.374540e+01
6.620800e+02	-3.379279e+01
6.659041e+02	-3.384178e+01
6.697504e+02	-3.389723e+01
6.736188e+02	-3.394784e+01
6.775096e+02	-3.400337e+01
6.814229e+02	-3.404925e+01
6.853587e+02	-3.410235e+01
6.893173e+02	-3.414982e+01
6.932988e+02	-3.419455e+01
6.973033e+02	-3.424139e+01
7.013309e+02	-3.430343e+01
