Frequency(Hz)	Magnitude(dB)
1.000000e+01	-2.278508e+00
1.005776e+01	-2.298983e+00
1.011585e+01	-2.319905e+00
1.017428e+01	-2.340549e+00
1.023305e+01	-2.361294e+00
1.029215e+01	-2.382600e+00
1.035160e+01	-2.403547e+00
1.041139e+01	-2.425056e+00
1.047153e+01	-2.446428e+00
1.053201e+01	-2.468072e+00
1.059284e+01	-2.489823e+00
1.065403e+01	-2.511731e+00
1.071556e+01	-2.533489e+00
1.077746e+01	-2.555796e+00
1.083971e+01	-2.578359e+00
1.090232e+01	-2.600716e+00
1.096529e+01	-2.623258e+00
1.102862e+01	-2.646288e+00
1.109232e+01	-2.668778e+00
1.115639e+01	-2.692014e+00
1.122083e+01	-2.715309e+00
1.128564e+01	-2.738486e+00
1.135083e+01	-2.761890e+00
1.141639e+01	-2.785480e+00
1.148233e+01	-2.809305e+00
1.154865e+01	-2.833182e+00
1.161536e+01	-2.857232e+00
1.168245e+01	-2.881596e+00
1.174992e+01	-2.905736e+00
1.181779e+01	-2.930173e+00
1.188605e+01	-2.954704e+00
1.195470e+01	-2.979593e+00
1.202375e+01	-3.004498e+00
1.209320e+01	-3.029559e+00
1.216305e+01	-3.054817e+00
1.223330e+01	-3.080331e+00
1.230396e+01	-3.105743e+00
1.237503e+01	-3.131252e+00
1.244651e+01	-3.157064e+00
1.251840e+01	-3.182810e+00
1.259070e+01	-3.209017e+00
1.266343e+01	-3.235202e+00
1.273657e+01	-3.261598e+00
1.281014e+01	-3.288012e+00
1.288413e+01	-3.314646e+00
1.295855e+01	-3.341526e+00
1.303339e+01	-3.368295e+00
1.310867e+01	-3.395476e+00
1.318439e+01	-3.422811e+00
1.326054e+01	-3.450167e+00
1.333713e+01	-3.477474e+00
1.341417e+01	-3.505075e+00
1.349165e+01	-3.532760e+00
1.356958e+01	-3.560829e+00
1.364795e+01	-3.588822e+00
1.372678e+01	-3.616889e+00
1.380607e+01	-3.645454e+00
1.388581e+01	-3.674151e+00
1.396602e+01	-3.702383e+00
1.404668e+01	-3.731317e+00
1.412782e+01	-3.759992e+00
1.420942e+01	-3.789181e+00
1.429149e+01	-3.818396e+00
1.437404e+01	-3.847800e+00
1.445706e+01	-3.877125e+00
1.454057e+01	-3.906988e+00
1.462455e+01	-3.936559e+00
1.470902e+01	-3.966398e+00
1.479398e+01	-3.996514e+00
1.487943e+01	-4.026654e+00
1.496537e+01	-4.057136e+00
1.505181e+01	-4.087672e+00
1.513875e+01	-4.118089e+00
1.522619e+01	-4.148610e+00
1.531414e+01	-4.179615e+00
1.540259e+01	-4.210276e+00
1.549156e+01	-4.241578e+00
1.558103e+01	-4.272799e+00
1.567103e+01	-4.304093e+00
1.576155e+01	-4.335512e+00
1.585258e+01	-4.367624e+00
1.594415e+01	-4.399210e+00
1.603624e+01	-4.431076e+00
1.612886e+01	-4.463193e+00
1.622202e+01	-4.495740e+00
1.631572e+01	-4.527574e+00
1.640996e+01	-4.560459e+00
1.650474e+01	-4.592743e+00
1.660008e+01	-4.625705e+00
1.669596e+01	-4.658343e+00
1.679239e+01	-4.691235e+00
1.688938e+01	-4.724445e+00
1.698694e+01	-4.757620e+00
1.708505e+01	-4.791028e+00
1.718373e+01	-4.824329e+00
1.728299e+01	-4.858225e+00
1.738281e+01	-4.891840e+00
1.748322e+01	-4.925707e+00
1.758420e+01	-4.959674e+00
1.768576e+01	-4.993770e+00
1.778792e+01	-5.028017e+00
1.789066e+01	-5.062604e+00
1.799399e+01	-5.097011e+00
1.809793e+01	-5.131923e+00
1.820246e+01	-5.166446e+00
1.830760e+01	-5.201185e+00
1.841334e+01	-5.236193e+00
1.851969e+01	-5.271253e+00
1.862666e+01	-5.306698e+00
1.873425e+01	-5.342114e+00
1.884246e+01	-5.377366e+00
1.895129e+01	-5.412336e+00
1.906075e+01	-5.448499e+00
1.917085e+01	-5.484153e+00
1.928158e+01	-5.520215e+00
1.939295e+01	-5.556598e+00
1.950496e+01	-5.592421e+00
1.961762e+01	-5.628668e+00
1.973093e+01	-5.665311e+00
1.984490e+01	-5.701721e+00
1.995952e+01	-5.738474e+00
2.007480e+01	-5.775312e+00
2.019076e+01	-5.811572e+00
2.030738e+01	-5.848806e+00
2.042467e+01	-5.885924e+00
2.054264e+01	-5.923403e+00
2.066130e+01	-5.960656e+00
2.078064e+01	-5.997918e+00
2.090066e+01	-6.035537e+00
2.102139e+01	-6.072835e+00
2.114280e+01	-6.110801e+00
2.126492e+01	-6.148644e+00
2.138775e+01	-6.186191e+00
2.151128e+01	-6.224401e+00
2.163553e+01	-6.262619e+00
2.176050e+01	-6.300917e+00
2.188619e+01	-6.339293e+00
2.201260e+01	-6.377831e+00
2.213974e+01	-6.416112e+00
2.226762e+01	-6.455064e+00
2.239624e+01	-6.493933e+00
2.252560e+01	-6.532571e+00
2.265571e+01	-6.571754e+00
2.278656e+01	-6.610942e+00
2.291818e+01	-6.649818e+00
2.305055e+01	-6.689253e+00
2.318369e+01	-6.728156e+00
2.331760e+01	-6.768032e+00
2.345228e+01	-6.807278e+00
2.358774e+01	-6.847009e+00
2.372398e+01	-6.886654e+00
2.386101e+01	-6.926506e+00
2.399883e+01	-6.966858e+00
2.413745e+01	-7.006321e+00
2.427686e+01	-7.046672e+00
2.441709e+01	-7.086667e+00
2.455812e+01	-7.127334e+00
2.469997e+01	-7.167272e+00
2.484263e+01	-7.208065e+00
2.498612e+01	-7.248445e+00
2.513044e+01	-7.288853e+00
2.527559e+01	-7.329646e+00
2.542158e+01	-7.370524e+00
2.556842e+01	-7.411546e+00
2.571610e+01	-7.452609e+00
2.586463e+01	-7.493507e+00
2.601403e+01	-7.534593e+00
2.616428e+01	-7.575908e+00
2.631541e+01	-7.617263e+00
2.646740e+01	-7.658323e+00
2.662028e+01	-7.700171e+00
2.677404e+01	-7.741752e+00
2.692868e+01	-7.783642e+00
2.708422e+01	-7.825310e+00
2.724066e+01	-7.867165e+00
2.739800e+01	-7.908897e+00
2.755625e+01	-7.950751e+00
2.771541e+01	-7.992945e+00
2.787550e+01	-8.035130e+00
2.803650e+01	-8.077304e+00
2.819844e+01	-8.119581e+00
2.836131e+01	-8.161861e+00
2.852513e+01	-8.204430e+00
2.868989e+01	-8.246867e+00
2.885560e+01	-8.289817e+00
2.902227e+01	-8.331949e+00
2.918990e+01	-8.374854e+00
2.935850e+01	-8.417276e+00
2.952807e+01	-8.460121e+00
2.969863e+01	-8.503337e+00
2.987016e+01	-8.546321e+00
3.004269e+01	-8.589540e+00
3.021622e+01	-8.632710e+00
3.039075e+01	-8.675501e+00
3.056628e+01	-8.719142e+00
3.074283e+01	-8.762837e+00
3.092040e+01	-8.805767e+00
3.109900e+01	-8.849207e+00
3.127862e+01	-8.892250e+00
3.145929e+01	-8.936198e+00
3.164099e+01	-8.980071e+00
3.182375e+01	-9.023738e+00
3.200756e+01	-9.067379e+00
3.219244e+01	-9.111575e+00
3.237838e+01	-9.155380e+00
3.256540e+01	-9.199282e+00
3.275349e+01	-9.242893e+00
3.294268e+01	-9.286930e+00
3.313295e+01	-9.331179e+00
3.332433e+01	-9.375892e+00
3.351681e+01	-9.419592e+00
3.371040e+01	-9.464337e+00
3.390511e+01	-9.508742e+00
3.410094e+01	-9.553373e+00
3.429791e+01	-9.598281e+00
3.449601e+01	-9.642000e+00
3.469526e+01	-9.687108e+00
3.489566e+01	-9.731589e+00
3.509721e+01	-9.776330e+00
3.529993e+01	-9.821118e+00
3.550382e+01	-9.866000e+00
3.570889e+01	-9.911022e+00
3.591515e+01	-9.955266e+00
3.612259e+01	-1.000081e+01
3.633123e+01	-1.004649e+01
3.654108e+01	-1.009093e+01
3.675214e+01	-1.013624e+01
3.696442e+01	-1.018072e+01
3.717792e+01	-1.022630e+01
3.739266e+01	-1.027178e+01
3.760864e+01	-1.031720e+01
3.782587e+01	-1.036248e+01
3.804435e+01	-1.040833e+01
3.826409e+01	-1.045388e+01
3.848510e+01	-1.049899e+01
3.870739e+01	-1.054484e+01
3.893096e+01	-1.059013e+01
3.915583e+01	-1.063649e+01
3.938199e+01	-1.068184e+01
3.960946e+01	-1.072725e+01
3.983824e+01	-1.077317e+01
4.006834e+01	-1.081971e+01
4.029978e+01	-1.086536e+01
4.053255e+01	-1.091184e+01
4.076666e+01	-1.095672e+01
4.100213e+01	-1.100272e+01
4.123896e+01	-1.104907e+01
4.147715e+01	-1.109569e+01
4.171672e+01	-1.114142e+01
4.195767e+01	-1.118781e+01
4.220002e+01	-1.123411e+01
4.244377e+01	-1.128002e+01
4.268892e+01	-1.132634e+01
4.293549e+01	-1.137297e+01
4.318348e+01	-1.141966e+01
4.343291e+01	-1.146524e+01
4.368377e+01	-1.151234e+01
4.393609e+01	-1.155848e+01
4.418986e+01	-1.160481e+01
4.444510e+01	-1.165140e+01
4.470182e+01	-1.169841e+01
4.496001e+01	-1.174464e+01
4.521970e+01	-1.179195e+01
4.548089e+01	-1.183873e+01
4.574358e+01	-1.188491e+01
4.600779e+01	-1.193213e+01
4.627353e+01	-1.197904e+01
4.654081e+01	-1.202657e+01
4.680963e+01	-1.207277e+01
4.708000e+01	-1.211963e+01
4.735193e+01	-1.216696e+01
4.762543e+01	-1.221348e+01
4.790051e+01	-1.226098e+01
4.817719e+01	-1.230787e+01
4.845545e+01	-1.235507e+01
4.873533e+01	-1.240212e+01
4.901682e+01	-1.244945e+01
4.929994e+01	-1.249624e+01
4.958470e+01	-1.254364e+01
4.987110e+01	-1.259082e+01
5.015915e+01	-1.263762e+01
5.044887e+01	-1.268510e+01
5.074026e+01	-1.273284e+01
5.103333e+01	-1.277991e+01
5.132810e+01	-1.282755e+01
5.162457e+01	-1.287573e+01
5.192275e+01	-1.292193e+01
5.222265e+01	-1.296946e+01
5.252429e+01	-1.301671e+01
5.282767e+01	-1.306456e+01
5.313280e+01	-1.311253e+01
5.343969e+01	-1.316095e+01
5.374836e+01	-1.320662e+01
5.405880e+01	-1.325532e+01
5.437105e+01	-1.330270e+01
5.468509e+01	-1.335068e+01
5.500095e+01	-1.339827e+01
5.531863e+01	-1.344560e+01
5.563815e+01	-1.349357e+01
5.595951e+01	-1.354197e+01
5.628273e+01	-1.359026e+01
5.660782e+01	-1.363753e+01
5.693479e+01	-1.368504e+01
5.726364e+01	-1.373324e+01
5.759439e+01	-1.378112e+01
5.792705e+01	-1.382921e+01
5.826164e+01	-1.387721e+01
5.859815e+01	-1.392544e+01
5.893662e+01	-1.397303e+01
5.927703e+01	-1.402161e+01
5.961941e+01	-1.406877e+01
5.996377e+01	-1.411686e+01
6.031012e+01	-1.416506e+01
6.065847e+01	-1.421367e+01
6.100883e+01	-1.426179e+01
6.136121e+01	-1.430951e+01
6.171563e+01	-1.435732e+01
6.207210e+01	-1.440713e+01
6.243063e+01	-1.445529e+01
6.279122e+01	-1.450277e+01
6.315390e+01	-1.455113e+01
6.351868e+01	-1.459910e+01
6.388556e+01	-1.464809e+01
6.425456e+01	-1.469579e+01
6.462569e+01	-1.474413e+01
6.499897e+01	-1.479266e+01
6.537440e+01	-1.484031e+01
6.575200e+01	-1.488918e+01
6.613178e+01	-1.493741e+01
6.651375e+01	-1.498636e+01
6.689793e+01	-1.503499e+01
6.728433e+01	-1.508292e+01
6.767297e+01	-1.513196e+01
6.806384e+01	-1.518005e+01
6.845698e+01	-1.522764e+01
6.885238e+01	-1.527746e+01
6.925007e+01	-1.532677e+01
6.965005e+01	-1.537348e+01
7.005235e+01	-1.542213e+01
7.045697e+01	-1.547193e+01
7.086393e+01	-1.552016e+01
7.127323e+01	-1.556959e+01
7.168490e+01	-1.561775e+01
7.209895e+01	-1.566739e+01
7.251539e+01	-1.571445e+01
7.293424e+01	-1.576352e+01
7.335551e+01	-1.581178e+01
7.377920e+01	-1.586116e+01
7.420535e+01	-1.590960e+01
7.463396e+01	-1.595757e+01
7.506504e+01	-1.600687e+01
7.549861e+01	-1.605685e+01
7.593469e+01	-1.610459e+01
7.637328e+01	-1.615301e+01
7.681441e+01	-1.620170e+01
7.725809e+01	-1.625103e+01
7.770433e+01	-1.630027e+01
7.815315e+01	-1.634861e+01
7.860456e+01	-1.639771e+01
7.905857e+01	-1.644676e+01
7.951521e+01	-1.649617e+01
7.997449e+01	-1.654319e+01
8.043642e+01	-1.659341e+01
8.090102e+01	-1.664357e+01
8.136830e+01	-1.669084e+01
8.183828e+01	-1.674008e+01
8.231097e+01	-1.678848e+01
8.278640e+01	-1.683852e+01
8.326457e+01	-1.688703e+01
8.374550e+01	-1.693645e+01
8.422921e+01	-1.698515e+01
8.471572e+01	-1.703389e+01
8.520503e+01	-1.708361e+01
8.569717e+01	-1.713155e+01
8.619215e+01	-1.718084e+01
8.669000e+01	-1.723014e+01
8.719071e+01	-1.727889e+01
8.769432e+01	-1.732806e+01
8.820084e+01	-1.737765e+01
8.871029e+01	-1.742587e+01
8.922267e+01	-1.747641e+01
8.973802e+01	-1.752391e+01
9.025634e+01	-1.757477e+01
9.077766e+01	-1.762398e+01
9.130199e+01	-1.767346e+01
9.182935e+01	-1.772103e+01
9.235975e+01	-1.777195e+01
9.289321e+01	-1.782016e+01
9.342976e+01	-1.786967e+01
9.396941e+01	-1.791779e+01
9.451217e+01	-1.796810e+01
9.505807e+01	-1.801699e+01
9.560712e+01	-1.806680e+01
9.615934e+01	-1.811569e+01
9.671476e+01	-1.816486e+01
9.727338e+01	-1.821456e+01
9.783522e+01	-1.826308e+01
9.840032e+01	-1.831250e+01
9.896867e+01	-1.836070e+01
9.954031e+01	-1.841097e+01
1.001153e+02	-1.846119e+01
1.006935e+02	-1.850942e+01
1.012751e+02	-1.856027e+01
1.018601e+02	-1.860874e+01
1.024484e+02	-1.865836e+01
1.030402e+02	-1.870717e+01
1.036353e+02	-1.875747e+01
1.042339e+02	-1.880533e+01
1.048360e+02	-1.885473e+01
1.054415e+02	-1.890543e+01
1.060505e+02	-1.895465e+01
1.066631e+02	-1.900401e+01
1.072791e+02	-1.905484e+01
1.078988e+02	-1.910221e+01
1.085220e+02	-1.915329e+01
1.091488e+02	-1.920130e+01
1.097793e+02	-1.924968e+01
1.104133e+02	-1.929998e+01
1.110511e+02	-1.935029e+01
1.116925e+02	-1.940000e+01
1.123376e+02	-1.944826e+01
1.129865e+02	-1.949749e+01
1.136391e+02	-1.954872e+01
1.142955e+02	-1.959768e+01
1.149556e+02	-1.964625e+01
1.156196e+02	-1.969524e+01
1.162874e+02	-1.974577e+01
1.169591e+02	-1.979437e+01
1.176347e+02	-1.984424e+01
1.183141e+02	-1.989317e+01
1.189975e+02	-1.994304e+01
1.196848e+02	-1.999231e+01
1.203761e+02	-2.004274e+01
1.210714e+02	-2.009224e+01
1.217707e+02	-2.014196e+01
1.224740e+02	-2.019287e+01
1.231814e+02	-2.024135e+01
1.238929e+02	-2.029215e+01
1.246085e+02	-2.033901e+01
1.253283e+02	-2.038886e+01
1.260522e+02	-2.043903e+01
1.267802e+02	-2.049023e+01
1.275125e+02	-2.053858e+01
1.282490e+02	-2.058727e+01
1.289898e+02	-2.063646e+01
1.297348e+02	-2.068669e+01
1.304842e+02	-2.073675e+01
1.312378e+02	-2.078549e+01
1.319959e+02	-2.083405e+01
1.327583e+02	-2.088597e+01
1.335251e+02	-2.093475e+01
1.342963e+02	-2.098481e+01
1.350720e+02	-2.103418e+01
1.358522e+02	-2.108383e+01
1.366368e+02	-2.113162e+01
1.374260e+02	-2.118332e+01
1.382198e+02	-2.123481e+01
1.390182e+02	-2.128495e+01
1.398211e+02	-2.133054e+01
1.406287e+02	-2.138269e+01
1.414410e+02	-2.142992e+01
1.422579e+02	-2.148148e+01
1.430796e+02	-2.153201e+01
1.439060e+02	-2.158087e+01
1.447372e+02	-2.163123e+01
1.455732e+02	-2.168083e+01
1.464141e+02	-2.172899e+01
1.472597e+02	-2.178110e+01
1.481103e+02	-2.182825e+01
1.489658e+02	-2.187799e+01
1.498262e+02	-2.192837e+01
1.506916e+02	-2.197915e+01
1.515620e+02	-2.202838e+01
1.524374e+02	-2.207655e+01
1.533179e+02	-2.212489e+01
1.542034e+02	-2.217928e+01
1.550941e+02	-2.222501e+01
1.559899e+02	-2.227508e+01
1.568909e+02	-2.232679e+01
1.577971e+02	-2.237537e+01
1.587085e+02	-2.242694e+01
1.596252e+02	-2.247476e+01
1.605472e+02	-2.252573e+01
1.614745e+02	-2.257441e+01
1.624072e+02	-2.262385e+01
1.633453e+02	-2.267412e+01
1.642887e+02	-2.272431e+01
1.652377e+02	-2.277275e+01
1.661921e+02	-2.282414e+01
1.671520e+02	-2.287349e+01
1.681175e+02	-2.292411e+01
1.690885e+02	-2.297289e+01
1.700651e+02	-2.302666e+01
1.710474e+02	-2.307228e+01
1.720354e+02	-2.312322e+01
1.730291e+02	-2.317372e+01
1.740285e+02	-2.322257e+01
1.750337e+02	-2.327357e+01
1.760446e+02	-2.332478e+01
1.770615e+02	-2.337093e+01
1.780842e+02	-2.342252e+01
1.791128e+02	-2.347010e+01
1.801473e+02	-2.352206e+01
1.811878e+02	-2.357316e+01
1.822344e+02	-2.362201e+01
1.832870e+02	-2.366974e+01
1.843456e+02	-2.371997e+01
1.854104e+02	-2.377014e+01
1.864813e+02	-2.382035e+01
1.875584e+02	-2.387140e+01
1.886418e+02	-2.392099e+01
1.897313e+02	-2.397043e+01
1.908272e+02	-2.401929e+01
1.919294e+02	-2.406944e+01
1.930380e+02	-2.411768e+01
1.941530e+02	-2.416852e+01
1.952744e+02	-2.421765e+01
1.964023e+02	-2.426802e+01
1.975367e+02	-2.431937e+01
1.986777e+02	-2.436820e+01
1.998252e+02	-2.441968e+01
2.009794e+02	-2.446818e+01
2.021403e+02	-2.452061e+01
2.033078e+02	-2.456772e+01
2.044821e+02	-2.461837e+01
2.056632e+02	-2.466760e+01
2.068511e+02	-2.471951e+01
2.080459e+02	-2.476783e+01
2.092475e+02	-2.481765e+01
2.104561e+02	-2.486833e+01
2.116717e+02	-2.491661e+01
2.128943e+02	-2.496610e+01
2.141240e+02	-2.501619e+01
2.153608e+02	-2.506587e+01
2.166047e+02	-2.511772e+01
2.178558e+02	-2.516827e+01
2.191141e+02	-2.521665e+01
2.203797e+02	-2.526701e+01
2.216526e+02	-2.531845e+01
2.229329e+02	-2.536704e+01
2.242205e+02	-2.541541e+01
2.255156e+02	-2.546758e+01
2.268182e+02	-2.551555e+01
2.281283e+02	-2.556782e+01
2.294459e+02	-2.561389e+01
2.307712e+02	-2.566497e+01
2.321041e+02	-2.571439e+01
2.334447e+02	-2.576795e+01
2.347931e+02	-2.581575e+01
2.361493e+02	-2.586306e+01
2.375133e+02	-2.591379e+01
2.388851e+02	-2.596458e+01
2.402649e+02	-2.601485e+01
2.416527e+02	-2.606628e+01
2.430484e+02	-2.611378e+01
2.444523e+02	-2.616872e+01
2.458642e+02	-2.621607e+01
2.472843e+02	-2.626670e+01
2.487126e+02	-2.631644e+01
2.501492e+02	-2.636600e+01
2.515940e+02	-2.641494e+01
2.530472e+02	-2.646403e+01
2.545088e+02	-2.651573e+01
2.559789e+02	-2.656594e+01
2.574574e+02	-2.661770e+01
2.589444e+02	-2.666367e+01
2.604401e+02	-2.671276e+01
2.619444e+02	-2.676729e+01
2.634574e+02	-2.681626e+01
2.649791e+02	-2.686691e+01
2.665096e+02	-2.691373e+01
2.680489e+02	-2.696759e+01
2.695972e+02	-2.701446e+01
2.711544e+02	-2.706400e+01
2.727205e+02	-2.711842e+01
2.742958e+02	-2.716889e+01
2.758801e+02	-2.721821e+01
2.774736e+02	-2.726510e+01
2.790762e+02	-2.731468e+01
2.806882e+02	-2.736301e+01
2.823094e+02	-2.741648e+01
2.839400e+02	-2.746161e+01
2.855800e+02	-2.751598e+01
2.872295e+02	-2.756478e+01
2.888886e+02	-2.761533e+01
2.905572e+02	-2.766785e+01
2.922354e+02	-2.771700e+01
2.939234e+02	-2.776403e+01
2.956211e+02	-2.781781e+01
2.973286e+02	-2.786385e+01
2.990459e+02	-2.791399e+01
3.007732e+02	-2.796624e+01
3.025104e+02	-2.801592e+01
3.042577e+02	-2.806558e+01
3.060151e+02	-2.811437e+01
3.077826e+02	-2.816226e+01
3.095604e+02	-2.821342e+01
3.113484e+02	-2.826970e+01
3.131467e+02	-2.831411e+01
3.149554e+02	-2.836557e+01
3.167746e+02	-2.841452e+01
3.186043e+02	-2.846335e+01
3.204445e+02	-2.851384e+01
3.222954e+02	-2.856400e+01
3.241570e+02	-2.861669e+01
3.260293e+02	-2.866267e+01
3.279124e+02	-2.871682e+01
3.298064e+02	-2.876816e+01
3.317114e+02	-2.881260e+01
3.336273e+02	-2.886434e+01
3.355544e+02	-2.891380e+01
3.374925e+02	-2.896298e+01
3.394418e+02	-2.901844e+01
3.414024e+02	-2.906292e+01
3.433744e+02	-2.911240e+01
3.453577e+02	-2.916562e+01
3.473525e+02	-2.921667e+01
3.493588e+02	-2.926459e+01
3.513766e+02	-2.931986e+01
3.534062e+02	-2.936633e+01
3.554474e+02	-2.941343e+01
3.575005e+02	-2.946618e+01
3.595654e+02	-2.951614e+01
3.616422e+02	-2.956716e+01
3.637311e+02	-2.961949e+01
3.658320e+02	-2.966593e+01
3.679450e+02	-2.971417e+01
3.700702e+02	-2.976770e+01
3.722077e+02	-2.981249e+01
3.743576e+02	-2.986432e+01
3.765199e+02	-2.991927e+01
3.786946e+02	-2.996828e+01
3.808820e+02	-3.001514e+01
3.830819e+02	-3.006624e+01
3.852946e+02	-3.011905e+01
3.875200e+02	-3.016454e+01
3.897583e+02	-3.021463e+01
3.920096e+02	-3.026990e+01
3.942738e+02	-3.031945e+01
3.965511e+02	-3.036590e+01
3.988416e+02	-3.041445e+01
4.011452e+02	-3.046878e+01
4.034622e+02	-3.051729e+01
4.057926e+02	-3.056756e+01
4.081365e+02	-3.061626e+01
4.104938e+02	-3.066869e+01
4.128648e+02	-3.071562e+01
4.152495e+02	-3.076567e+01
4.176480e+02	-3.081916e+01
4.200603e+02	-3.086594e+01
4.224866e+02	-3.091528e+01
4.249268e+02	-3.097082e+01
4.273812e+02	-3.101379e+01
4.298497e+02	-3.106828e+01
4.323325e+02	-3.112503e+01
4.348297e+02	-3.116832e+01
4.373412e+02	-3.122486e+01
4.398673e+02	-3.126520e+01
4.424079e+02	-3.131422e+01
4.449633e+02	-3.136826e+01
4.475334e+02	-3.142007e+01
4.501183e+02	-3.146827e+01
4.527182e+02	-3.151672e+01
4.553330e+02	-3.156821e+01
4.579630e+02	-3.162130e+01
4.606082e+02	-3.166854e+01
4.632687e+02	-3.172706e+01
4.659445e+02	-3.176938e+01
4.686358e+02	-3.182033e+01
4.713426e+02	-3.186613e+01
4.740650e+02	-3.191746e+01
4.768032e+02	-3.196880e+01
4.795572e+02	-3.201659e+01
4.823271e+02	-3.207459e+01
4.851130e+02	-3.212732e+01
4.879150e+02	-3.217057e+01
4.907332e+02	-3.222617e+01
4.935676e+02	-3.226927e+01
4.964185e+02	-3.232452e+01
4.992858e+02	-3.237286e+01
5.021696e+02	-3.242104e+01
5.050701e+02	-3.247336e+01
5.079874e+02	-3.251541e+01
5.109215e+02	-3.257249e+01
5.138726e+02	-3.262652e+01
5.168407e+02	-3.267407e+01
5.198259e+02	-3.272437e+01
5.228284e+02	-3.277985e+01
5.258482e+02	-3.281971e+01
5.288855e+02	-3.287551e+01
5.319403e+02	-3.292505e+01
5.350128e+02	-3.296708e+01
5.381030e+02	-3.302425e+01
5.412111e+02	-3.306922e+01
5.443371e+02	-3.312418e+01
5.474812e+02	-3.316721e+01
5.506434e+02	-3.323090e+01
5.538239e+02	-3.327663e+01
5.570228e+02	-3.333037e+01
5.602401e+02	-3.337847e+01
5.634760e+02	-3.342445e+01
5.667306e+02	-3.347263e+01
5.700040e+02	-3.352756e+01
5.732964e+02	-3.356645e+01
5.766077e+02	-3.363017e+01
5.799382e+02	-3.367744e+01
5.832879e+02	-3.372972e+01
5.866569e+02	-3.378704e+01
5.900454e+02	-3.383276e+01
5.934535e+02	-3.387405e+01
5.968813e+02	-3.393628e+01
6.003288e+02	-3.397937e+01
6.037963e+02	-3.402716e+01
6.072838e+02	-3.408037e+01
6.107914e+02	-3.413546e+01
6.143194e+02	-3.417955e+01
6.178676e+02	-3.423327e+01
6.214364e+02	-3.427558e+01
6.250258e+02	-3.432707e+01
6.286359e+02	-3.437847e+01
6.322669e+02	-3.442942e+01
6.359189e+02	-3.447435e+01
6.395919e+02	-3.453099e+01
6.432862e+02	-3.458481e+01
6.470017e+02	-3.462682e+01
6.507388e+02	-3.468328e+01
6.544974e+02	-3.473067e+01
6.582778e+02	-3.478159e+01
6.620800e+02	-3.483721e+01
6.659041e+02	-3.487129e+01
6.697504e+02	-3.493930e+01
6.736188e+02	-3.498050e+01
6.775096e+02	-3.502451e+01
6.814229e+02	-3.507858e+01
6.853587e+02	-3.513267e+01
6.893173e+02	-3.518705e+01
6.932988e+02	-3.524045e+01
6.973033e+02	-3.528477e+01
7.013309e+02	-3.534033e+01
