Frequency(Hz)	Magnitude(dB)
1.000000e+01	-2.015810e+00
1.005776e+01	-2.034454e+00
1.011585e+01	-2.053405e+00
1.017428e+01	-2.072373e+00
1.023305e+01	-2.091217e+00
1.029215e+01	-2.110557e+00
1.035160e+01	-2.129820e+00
1.041139e+01	-2.149231e+00
1.047153e+01	-2.168982e+00
1.053201e+01	-2.188661e+00
1.059284e+01	-2.208461e+00
1.065403e+01	-2.228568e+00
1.071556e+01	-2.248788e+00
1.077746e+01	-2.268829e+00
1.083971e+01	-2.289352e+00
1.090232e+01	-2.309913e+00
1.096529e+01	-2.330797e+00
1.102862e+01	-2.351661e+00
1.109232e+01	-2.372606e+00
1.115639e+01	-2.393616e+00
1.122083e+01	-2.414848e+00
1.128564e+01	-2.436356e+00
1.135083e+01	-2.457914e+00
1.141639e+01	-2.479477e+00
1.148233e+01	-2.501415e+00
1.154865e+01	-2.523422e+00
1.161536e+01	-2.545598e+00
1.168245e+01	-2.567634e+00
1.174992e+01	-2.590366e+00
1.181779e+01	-2.612948e+00
1.188605e+01	-2.635415e+00
1.195470e+01	-2.658175e+00
1.202375e+01	-2.681335e+00
1.209320e+01	-2.704275e+00
1.216305e+01	-2.727614e+00
1.223330e+01	-2.750546e+00
1.230396e+01	-2.774492e+00
1.237503e+01	-2.798176e+00
1.244651e+01	-2.822011e+00
1.251840e+01	-2.846132e+00
1.259070e+01	-2.870214e+00
1.266343e+01	-2.894128e+00
1.273657e+01	-2.918782e+00
1.281014e+01	-2.943496e+00
1.288413e+01	-2.968053e+00
1.295855e+01	-2.992963e+00
1.303339e+01	-3.017850e+00
1.310867e+01	-3.042825e+00
1.318439e+01	-3.068230e+00
1.326054e+01	-3.093632e+00
1.333713e+01	-3.119258e+00
1.341417e+01	-3.145002e+00
1.349165e+01	-3.170647e+00
1.356958e+01	-3.196485e+00
1.364795e+01	-3.222787e+00
1.372678e+01	-3.249140e+00
1.380607e+01	-3.275509e+00
1.388581e+01	-3.302238e+00
1.396602e+01	-3.328828e+00
1.404668e+01	-3.355757e+00
1.412782e+01	-3.382429e+00
1.420942e+01	-3.409969e+00
1.429149e+01	-3.436952e+00
1.437404e+01	-3.464640e+00
1.445706e+01	-3.491996e+00
1.454057e+01	-3.519818e+00
1.462455e+01	-3.547710e+00
1.470902e+01	-3.575813e+00
1.479398e+01	-3.603693e+00
1.487943e+01	-3.632042e+00
1.496537e+01	-3.660832e+00
1.505181e+01	-3.689073e+00
1.513875e+01	-3.717846e+00
1.522619e+01	-3.746620e+00
1.531414e+01	-3.775623e+00
1.540259e+01	-3.804719e+00
1.549156e+01	-3.833881e+00
1.558103e+01	-3.863152e+00
1.567103e+01	-3.892779e+00
1.576155e+01	-3.922595e+00
1.585258e+01	-3.952452e+00
1.594415e+01	-3.982445e+00
1.603624e+01	-4.012423e+00
1.612886e+01	-4.042785e+00
1.622202e+01	-4.073367e+00
1.631572e+01	-4.103463e+00
1.640996e+01	-4.134288e+00
1.650474e+01	-4.165028e+00
1.660008e+01	-4.196069e+00
1.669596e+01	-4.226758e+00
1.679239e+01	-4.258197e+00
1.688938e+01	-4.289391e+00
1.698694e+01	-4.320932e+00
1.708505e+01	-4.352538e+00
1.718373e+01	-4.384245e+00
1.728299e+01	-4.416395e+00
1.738281e+01	-4.448251e+00
1.748322e+01	-4.480445e+00
1.758420e+01	-4.512522e+00
1.768576e+01	-4.544966e+00
1.778792e+01	-4.577524e+00
1.789066e+01	-4.610012e+00
1.799399e+01	-4.642938e+00
1.809793e+01	-4.675879e+00
1.820246e+01	-4.708464e+00
1.830760e+01	-4.742251e+00
1.841334e+01	-4.775337e+00
1.851969e+01	-4.808824e+00
1.862666e+01	-4.842460e+00
1.873425e+01	-4.875886e+00
1.884246e+01	-4.909993e+00
1.895129e+01	-4.943850e+00
1.906075e+01	-4.977687e+00
1.917085e+01	-5.011974e+00
1.928158e+01	-5.046327e+00
1.939295e+01	-5.080605e+00
1.950496e+01	-5.115269e+00
1.961762e+01	-5.150430e+00
1.973093e+01	-5.184631e+00
1.984490e+01	-5.219740e+00
1.995952e+01	-5.254917e+00
2.007480e+01	-5.290169e+00
2.019076e+01	-5.325154e+00
2.030738e+01	-5.360828e+00
2.042467e+01	-5.396167e+00
2.054264e+01	-5.431896e+00
2.066130e+01	-5.467476e+00
2.078064e+01	-5.503605e+00
2.090066e+01	-5.539708e+00
2.102139e+01	-5.575700e+00
2.114280e+01	-5.611773e+00
2.126492e+01	-5.648096e+00
2.138775e+01	-5.684821e+00
2.151128e+01	-5.721101e+00
2.163553e+01	-5.757856e+00
2.176050e+01	-5.794703e+00
2.188619e+01	-5.831850e+00
2.201260e+01	-5.868552e+00
2.213974e+01	-5.905696e+00
2.226762e+01	-5.943177e+00
2.239624e+01	-5.980236e+00
2.252560e+01	-6.017726e+00
2.265571e+01	-6.055442e+00
2.278656e+01	-6.093071e+00
2.291818e+01	-6.130787e+00
2.305055e+01	-6.168611e+00
2.318369e+01	-6.206664e+00
2.331760e+01	-6.244847e+00
2.345228e+01	-6.282798e+00
2.358774e+01	-6.321186e+00
2.372398e+01	-6.359789e+00
2.386101e+01	-6.397979e+00
2.399883e+01	-6.436917e+00
2.413745e+01	-6.475526e+00
2.427686e+01	-6.514493e+00
2.441709e+01	-6.553239e+00
2.455812e+01	-6.592366e+00
2.469997e+01	-6.631412e+00
2.484263e+01	-6.670912e+00
2.498612e+01	-6.709949e+00
2.513044e+01	-6.749143e+00
2.527559e+01	-6.788831e+00
2.542158e+01	-6.828567e+00
2.556842e+01	-6.867934e+00
2.571610e+01	-6.907982e+00
2.586463e+01	-6.947382e+00
2.601403e+01	-6.987767e+00
2.616428e+01	-7.027697e+00
2.631541e+01	-7.067723e+00
2.646740e+01	-7.108057e+00
2.662028e+01	-7.148485e+00
2.677404e+01	-7.188686e+00
2.692868e+01	-7.229205e+00
2.708422e+01	-7.270021e+00
2.724066e+01	-7.310434e+00
2.739800e+01	-7.351503e+00
2.755625e+01	-7.392263e+00
2.771541e+01	-7.433482e+00
2.787550e+01	-7.474305e+00
2.803650e+01	-7.515685e+00
2.819844e+01	-7.556795e+00
2.836131e+01	-7.597816e+00
2.852513e+01	-7.639323e+00
2.868989e+01	-7.681081e+00
2.885560e+01	-7.722125e+00
2.902227e+01	-7.764037e+00
2.918990e+01	-7.805728e+00
2.935850e+01	-7.847473e+00
2.952807e+01	-7.889381e+00
2.969863e+01	-7.931026e+00
2.987016e+01	-7.973310e+00
3.004269e+01	-8.015047e+00
3.021622e+01	-8.057297e+00
3.039075e+01	-8.099879e+00
3.056628e+01	-8.141604e+00
3.074283e+01	-8.184219e+00
3.092040e+01	-8.226606e+00
3.109900e+01	-8.269441e+00
3.127862e+01	-8.312443e+00
3.145929e+01	-8.354743e+00
3.164099e+01	-8.397300e+00
3.182375e+01	-8.440258e+00
3.200756e+01	-8.482848e+00
3.219244e+01	-8.525525e+00
3.237838e+01	-8.569252e+00
3.256540e+01	-8.611802e+00
3.275349e+01	-8.655182e+00
3.294268e+01	-8.698684e+00
3.313295e+01	-8.741960e+00
3.332433e+01	-8.785370e+00
3.351681e+01	-8.828769e+00
3.371040e+01	-8.872484e+00
3.390511e+01	-8.915956e+00
3.410094e+01	-8.959449e+00
3.429791e+01	-9.003387e+00
3.449601e+01	-9.047195e+00
3.469526e+01	-9.090732e+00
3.489566e+01	-9.134709e+00
3.509721e+01	-9.178585e+00
3.529993e+01	-9.222598e+00
3.550382e+01	-9.266612e+00
3.570889e+01	-9.310949e+00
3.591515e+01	-9.355564e+00
3.612259e+01	-9.399159e+00
3.633123e+01	-9.443496e+00
3.654108e+01	-9.487456e+00
3.675214e+01	-9.532496e+00
3.696442e+01	-9.577076e+00
3.717792e+01	-9.620968e+00
3.739266e+01	-9.665422e+00
3.760864e+01	-9.710258e+00
3.782587e+01	-9.754922e+00
3.804435e+01	-9.800262e+00
3.826409e+01	-9.845006e+00
3.848510e+01	-9.890281e+00
3.870739e+01	-9.934727e+00
3.893096e+01	-9.979768e+00
3.915583e+01	-1.002476e+01
3.938199e+01	-1.006922e+01
3.960946e+01	-1.011454e+01
3.983824e+01	-1.016028e+01
4.006834e+01	-1.020545e+01
4.029978e+01	-1.025088e+01
4.053255e+01	-1.029611e+01
4.076666e+01	-1.034071e+01
4.100213e+01	-1.038669e+01
4.123896e+01	-1.043268e+01
4.147715e+01	-1.047801e+01
4.171672e+01	-1.052379e+01
4.195767e+01	-1.056930e+01
4.220002e+01	-1.061463e+01
4.244377e+01	-1.066018e+01
4.268892e+01	-1.070639e+01
4.293549e+01	-1.075198e+01
4.318348e+01	-1.079816e+01
4.343291e+01	-1.084357e+01
4.368377e+01	-1.088924e+01
4.393609e+01	-1.093484e+01
4.418986e+01	-1.098136e+01
4.444510e+01	-1.102771e+01
4.470182e+01	-1.107380e+01
4.496001e+01	-1.111975e+01
4.521970e+01	-1.116647e+01
4.548089e+01	-1.121192e+01
4.574358e+01	-1.125835e+01
4.600779e+01	-1.130511e+01
4.627353e+01	-1.135098e+01
4.654081e+01	-1.139726e+01
4.680963e+01	-1.144393e+01
4.708000e+01	-1.149036e+01
4.735193e+01	-1.153663e+01
4.762543e+01	-1.158310e+01
4.790051e+01	-1.163009e+01
4.817719e+01	-1.167594e+01
4.845545e+01	-1.172322e+01
4.873533e+01	-1.176977e+01
4.901682e+01	-1.181655e+01
4.929994e+01	-1.186408e+01
4.958470e+01	-1.191027e+01
4.987110e+01	-1.195666e+01
5.015915e+01	-1.200346e+01
5.044887e+01	-1.205121e+01
5.074026e+01	-1.209751e+01
5.103333e+01	-1.214472e+01
5.132810e+01	-1.219172e+01
5.162457e+01	-1.223839e+01
5.192275e+01	-1.228627e+01
5.222265e+01	-1.233324e+01
5.252429e+01	-1.238026e+01
5.282767e+01	-1.242685e+01
5.313280e+01	-1.247501e+01
5.343969e+01	-1.252119e+01
5.374836e+01	-1.256881e+01
5.405880e+01	-1.261553e+01
5.437105e+01	-1.266299e+01
5.468509e+01	-1.271116e+01
5.500095e+01	-1.275756e+01
5.531863e+01	-1.280500e+01
5.563815e+01	-1.285286e+01
5.595951e+01	-1.290076e+01
5.628273e+01	-1.294834e+01
5.660782e+01	-1.299558e+01
5.693479e+01	-1.304332e+01
5.726364e+01	-1.308930e+01
5.759439e+01	-1.313788e+01
5.792705e+01	-1.318534e+01
5.826164e+01	-1.323366e+01
5.859815e+01	-1.328021e+01
5.893662e+01	-1.332819e+01
5.927703e+01	-1.337557e+01
5.961941e+01	-1.342438e+01
5.996377e+01	-1.347167e+01
6.031012e+01	-1.351925e+01
6.065847e+01	-1.356763e+01
6.100883e+01	-1.361466e+01
6.136121e+01	-1.366311e+01
6.171563e+01	-1.371021e+01
6.207210e+01	-1.375829e+01
6.243063e+01	-1.380613e+01
6.279122e+01	-1.385486e+01
6.315390e+01	-1.390254e+01
6.351868e+01	-1.395164e+01
6.388556e+01	-1.399798e+01
6.425456e+01	-1.404655e+01
6.462569e+01	-1.409456e+01
6.499897e+01	-1.414265e+01
6.537440e+01	-1.419098e+01
6.575200e+01	-1.423894e+01
6.613178e+01	-1.428688e+01
6.651375e+01	-1.433527e+01
6.689793e+01	-1.438334e+01
6.728433e+01	-1.443179e+01
6.767297e+01	-1.448042e+01
6.806384e+01	-1.452912e+01
6.845698e+01	-1.457667e+01
6.885238e+01	-1.462526e+01
6.925007e+01	-1.467330e+01
6.965005e+01	-1.472222e+01
7.005235e+01	-1.477041e+01
7.045697e+01	-1.481833e+01
7.086393e+01	-1.486672e+01
7.127323e+01	-1.491420e+01
7.168490e+01	-1.496311e+01
7.209895e+01	-1.501182e+01
7.251539e+01	-1.506037e+01
7.293424e+01	-1.511030e+01
7.335551e+01	-1.515828e+01
7.377920e+01	-1.520610e+01
7.420535e+01	-1.525476e+01
7.463396e+01	-1.530320e+01
7.506504e+01	-1.535112e+01
7.549861e+01	-1.540005e+01
7.593469e+01	-1.544817e+01
7.637328e+01	-1.549763e+01
7.681441e+01	-1.554633e+01
7.725809e+01	-1.559458e+01
7.770433e+01	-1.564256e+01
7.815315e+01	-1.569265e+01
7.860456e+01	-1.573955e+01
7.905857e+01	-1.578852e+01
7.951521e+01	-1.583754e+01
7.997449e+01	-1.588636e+01
8.043642e+01	-1.593516e+01
8.090102e+01	-1.598419e+01
8.136830e+01	-1.603299e+01
8.183828e+01	-1.608169e+01
8.231097e+01	-1.613151e+01
8.278640e+01	-1.617910e+01
8.326457e+01	-1.622815e+01
8.374550e+01	-1.627715e+01
8.422921e+01	-1.632659e+01
8.471572e+01	-1.637512e+01
8.520503e+01	-1.642427e+01
8.569717e+01	-1.647346e+01
8.619215e+01	-1.652139e+01
8.669000e+01	-1.657117e+01
8.719071e+01	-1.661907e+01
8.769432e+01	-1.666800e+01
8.820084e+01	-1.671707e+01
8.871029e+01	-1.676585e+01
8.922267e+01	-1.681445e+01
8.973802e+01	-1.686389e+01
9.025634e+01	-1.691398e+01
9.077766e+01	-1.696249e+01
9.130199e+01	-1.701142e+01
9.182935e+01	-1.706003e+01
9.235975e+01	-1.710819e+01
9.289321e+01	-1.715935e+01
9.342976e+01	-1.720665e+01
9.396941e+01	-1.725554e+01
9.451217e+01	-1.730594e+01
9.505807e+01	-1.735502e+01
9.560712e+01	-1.740397e+01
9.615934e+01	-1.745316e+01
9.671476e+01	-1.750147e+01
9.727338e+01	-1.755027e+01
9.783522e+01	-1.760016e+01
9.840032e+01	-1.765028e+01
9.896867e+01	-1.769979e+01
9.954031e+01	-1.774824e+01
1.001153e+02	-1.779828e+01
1.006935e+02	-1.784764e+01
1.012751e+02	-1.789617e+01
1.018601e+02	-1.794465e+01
1.024484e+02	-1.799404e+01
1.030402e+02	-1.804221e+01
1.036353e+02	-1.809429e+01
1.042339e+02	-1.814167e+01
1.048360e+02	-1.819035e+01
1.054415e+02	-1.823918e+01
1.060505e+02	-1.828874e+01
1.066631e+02	-1.833932e+01
1.072791e+02	-1.838845e+01
1.078988e+02	-1.843707e+01
1.085220e+02	-1.848642e+01
1.091488e+02	-1.853611e+01
1.097793e+02	-1.858490e+01
1.104133e+02	-1.863552e+01
1.110511e+02	-1.868414e+01
1.116925e+02	-1.873402e+01
1.123376e+02	-1.878360e+01
1.129865e+02	-1.883047e+01
1.136391e+02	-1.888220e+01
1.142955e+02	-1.893132e+01
1.149556e+02	-1.898128e+01
1.156196e+02	-1.902997e+01
1.162874e+02	-1.907921e+01
1.169591e+02	-1.912823e+01
1.176347e+02	-1.917798e+01
1.183141e+02	-1.922969e+01
1.189975e+02	-1.927704e+01
1.196848e+02	-1.932793e+01
1.203761e+02	-1.937692e+01
1.210714e+02	-1.942613e+01
1.217707e+02	-1.947328e+01
1.224740e+02	-1.952463e+01
1.231814e+02	-1.957339e+01
1.238929e+02	-1.962510e+01
1.246085e+02	-1.967376e+01
1.253283e+02	-1.972140e+01
1.260522e+02	-1.977180e+01
1.267802e+02	-1.982109e+01
1.275125e+02	-1.987123e+01
1.282490e+02	-1.992242e+01
1.289898e+02	-1.996825e+01
1.297348e+02	-2.002041e+01
1.304842e+02	-2.007046e+01
1.312378e+02	-2.011901e+01
1.319959e+02	-2.016810e+01
1.327583e+02	-2.021771e+01
1.335251e+02	-2.026862e+01
1.342963e+02	-2.031855e+01
1.350720e+02	-2.036734e+01
1.358522e+02	-2.041561e+01
1.366368e+02	-2.046404e+01
1.374260e+02	-2.051429e+01
1.382198e+02	-2.056515e+01
1.390182e+02	-2.061371e+01
1.398211e+02	-2.066518e+01
1.406287e+02	-2.071347e+01
1.414410e+02	-2.076188e+01
1.422579e+02	-2.081322e+01
1.430796e+02	-2.086373e+01
1.439060e+02	-2.090999e+01
1.447372e+02	-2.096253e+01
1.455732e+02	-2.101282e+01
1.464141e+02	-2.106153e+01
1.472597e+02	-2.110916e+01
1.481103e+02	-2.115951e+01
1.489658e+02	-2.121203e+01
1.498262e+02	-2.126117e+01
1.506916e+02	-2.130928e+01
1.515620e+02	-2.135766e+01
1.524374e+02	-2.140926e+01
1.533179e+02	-2.145966e+01
1.542034e+02	-2.150900e+01
1.550941e+02	-2.155752e+01
1.559899e+02	-2.160718e+01
1.568909e+02	-2.165744e+01
1.577971e+02	-2.170807e+01
1.587085e+02	-2.175653e+01
1.596252e+02	-2.180416e+01
1.605472e+02	-2.185578e+01
1.614745e+02	-2.190596e+01
1.624072e+02	-2.195421e+01
1.633453e+02	-2.200521e+01
1.642887e+02	-2.205476e+01
1.652377e+02	-2.210475e+01
1.661921e+02	-2.215665e+01
1.671520e+02	-2.220393e+01
1.681175e+02	-2.225395e+01
1.690885e+02	-2.230346e+01
1.700651e+02	-2.235248e+01
1.710474e+02	-2.240528e+01
1.720354e+02	-2.245395e+01
1.730291e+02	-2.250088e+01
1.740285e+02	-2.255221e+01
1.750337e+02	-2.260299e+01
1.760446e+02	-2.265181e+01
1.770615e+02	-2.270085e+01
1.780842e+02	-2.275160e+01
1.791128e+02	-2.280095e+01
1.801473e+02	-2.285138e+01
1.811878e+02	-2.290044e+01
1.822344e+02	-2.295322e+01
1.832870e+02	-2.299936e+01
1.843456e+02	-2.305017e+01
1.854104e+02	-2.309859e+01
1.864813e+02	-2.314942e+01
1.875584e+02	-2.319988e+01
1.886418e+02	-2.324905e+01
1.897313e+02	-2.329871e+01
1.908272e+02	-2.334930e+01
1.919294e+02	-2.339931e+01
1.930380e+02	-2.344918e+01
1.941530e+02	-2.349787e+01
1.952744e+02	-2.355024e+01
1.964023e+02	-2.359875e+01
1.975367e+02	-2.364853e+01
1.986777e+02	-2.369646e+01
1.998252e+02	-2.374883e+01
2.009794e+02	-2.379750e+01
2.021403e+02	-2.384630e+01
2.033078e+02	-2.389725e+01
2.044821e+02	-2.394522e+01
2.056632e+02	-2.399630e+01
2.068511e+02	-2.404631e+01
2.080459e+02	-2.409485e+01
2.092475e+02	-2.414430e+01
2.104561e+02	-2.419814e+01
2.116717e+02	-2.424557e+01
2.128943e+02	-2.429502e+01
2.141240e+02	-2.434702e+01
2.153608e+02	-2.439780e+01
2.166047e+02	-2.444659e+01
2.178558e+02	-2.449368e+01
2.191141e+02	-2.454398e+01
2.203797e+02	-2.459396e+01
2.216526e+02	-2.464564e+01
2.229329e+02	-2.469801e+01
2.242205e+02	-2.474529e+01
2.255156e+02	-2.479225e+01
2.268182e+02	-2.484578e+01
2.281283e+02	-2.489808e+01
2.294459e+02	-2.494619e+01
2.307712e+02	-2.499232e+01
2.321041e+02	-2.504566e+01
2.334447e+02	-2.509630e+01
2.347931e+02	-2.514637e+01
2.361493e+02	-2.519192e+01
2.375133e+02	-2.524403e+01
2.388851e+02	-2.529095e+01
2.402649e+02	-2.534209e+01
2.416527e+02	-2.539564e+01
2.430484e+02	-2.544407e+01
2.444523e+02	-2.549237e+01
2.458642e+02	-2.554082e+01
2.472843e+02	-2.559528e+01
2.487126e+02	-2.564583e+01
2.501492e+02	-2.569327e+01
2.515940e+02	-2.574628e+01
2.530472e+02	-2.579441e+01
2.545088e+02	-2.584148e+01
2.559789e+02	-2.589141e+01
2.574574e+02	-2.594342e+01
2.589444e+02	-2.599383e+01
2.604401e+02	-2.604201e+01
2.619444e+02	-2.609255e+01
2.634574e+02	-2.614387e+01
2.649791e+02	-2.619524e+01
2.665096e+02	-2.624213e+01
2.680489e+02	-2.629131e+01
2.695972e+02	-2.634469e+01
2.711544e+02	-2.639384e+01
2.727205e+02	-2.644397e+01
2.742958e+02	-2.649264e+01
2.758801e+02	-2.654141e+01
2.774736e+02	-2.659503e+01
2.790762e+02	-2.664386e+01
2.806882e+02	-2.669206e+01
2.823094e+02	-2.674142e+01
2.839400e+02	-2.679413e+01
2.855800e+02	-2.684382e+01
2.872295e+02	-2.689097e+01
2.888886e+02	-2.694359e+01
2.905572e+02	-2.699199e+01
2.922354e+02	-2.704448e+01
2.939234e+02	-2.708839e+01
2.956211e+02	-2.714269e+01
2.973286e+02	-2.719392e+01
2.990459e+02	-2.724436e+01
3.007732e+02	-2.729327e+01
3.025104e+02	-2.734186e+01
3.042577e+02	-2.739239e+01
3.060151e+02	-2.743875e+01
3.077826e+02	-2.749151e+01
3.095604e+02	-2.754285e+01
3.113484e+02	-2.758954e+01
3.131467e+02	-2.764296e+01
3.149554e+02	-2.768802e+01
3.167746e+02	-2.774150e+01
3.186043e+02	-2.779404e+01
3.204445e+02	-2.784305e+01
3.222954e+02	-2.789323e+01
3.241570e+02	-2.793958e+01
3.260293e+02	-2.799405e+01
3.279124e+02	-2.804516e+01
3.298064e+02	-2.809572e+01
3.317114e+02	-2.814577e+01
3.336273e+02	-2.819602e+01
3.355544e+02	-2.824046e+01
3.374925e+02	-2.829394e+01
3.394418e+02	-2.834339e+01
3.414024e+02	-2.839395e+01
3.433744e+02	-2.844295e+01
3.453577e+02	-2.849520e+01
3.473525e+02	-2.854402e+01
3.493588e+02	-2.859491e+01
3.513766e+02	-2.864426e+01
3.534062e+02	-2.869530e+01
3.554474e+02	-2.874585e+01
3.575005e+02	-2.879410e+01
3.595654e+02	-2.884728e+01
3.616422e+02	-2.889497e+01
3.637311e+02	-2.894651e+01
3.658320e+02	-2.899353e+01
3.679450e+02	-2.903951e+01
3.700702e+02	-2.909345e+01
3.722077e+02	-2.914454e+01
3.743576e+02	-2.919682e+01
3.765199e+02	-2.924019e+01
3.786946e+02	-2.929465e+01
3.808820e+02	-2.934491e+01
3.830819e+02	-2.939295e+01
3.852946e+02	-2.944739e+01
3.875200e+02	-2.949441e+01
3.897583e+02	-2.954555e+01
3.920096e+02	-2.958954e+01
3.942738e+02	-2.964023e+01
3.965511e+02	-2.969531e+01
3.988416e+02	-2.974758e+01
4.011452e+02	-2.979612e+01
4.034622e+02	-2.985515e+01
4.057926e+02	-2.989574e+01
4.081365e+02	-2.994281e+01
4.104938e+02	-2.999955e+01
4.128648e+02	-3.004554e+01
4.152495e+02	-3.009424e+01
4.176480e+02	-3.015371e+01
4.200603e+02	-3.019347e+01
4.224866e+02	-3.024629e+01
4.249268e+02	-3.029241e+01
4.273812e+02	-3.034661e+01
4.298497e+02	-3.039434e+01
4.323325e+02	-3.045008e+01
4.348297e+02	-3.049962e+01
4.373412e+02	-3.054856e+01
4.398673e+02	-3.060272e+01
4.424079e+02	-3.064459e+01
4.449633e+02	-3.069271e+01
4.475334e+02	-3.074548e+01
4.501183e+02	-3.079600e+01
4.527182e+02	-3.084972e+01
4.553330e+02	-3.090159e+01
4.579630e+02	-3.095220e+01
4.606082e+02	-3.099906e+01
4.632687e+02	-3.104836e+01
4.659445e+02	-3.109529e+01
4.686358e+02	-3.115179e+01
4.713426e+02	-3.120256e+01
4.740650e+02	-3.124819e+01
4.768032e+02	-3.130578e+01
4.795572e+02	-3.134796e+01
4.823271e+02	-3.140002e+01
4.851130e+02	-3.144781e+01
4.879150e+02	-3.149488e+01
4.907332e+02	-3.155144e+01
4.935676e+02	-3.159794e+01
4.964185e+02	-3.164922e+01
4.992858e+02	-3.169972e+01
5.021696e+02	-3.174820e+01
5.050701e+02	-3.179691e+01
5.079874e+02	-3.185369e+01
5.109215e+02	-3.189810e+01
5.138726e+02	-3.195215e+01
5.168407e+02	-3.199539e+01
5.198259e+02	-3.205105e+01
5.228284e+02	-3.209640e+01
5.258482e+02	-3.214820e+01
5.288855e+02	-3.219950e+01
5.319403e+02	-3.225269e+01
5.350128e+02	-3.230302e+01
5.381030e+02	-3.235789e+01
5.412111e+02	-3.240296e+01
5.443371e+02	-3.245190e+01
5.474812e+02	-3.250274e+01
5.506434e+02	-3.254741e+01
5.538239e+02	-3.260395e+01
5.570228e+02	-3.266003e+01
5.602401e+02	-3.270294e+01
5.634760e+02	-3.275627e+01
5.667306e+02	-3.280524e+01
5.700040e+02	-3.284293e+01
5.732964e+02	-3.290824e+01
5.766077e+02	-3.296112e+01
5.799382e+02	-3.300160e+01
5.832879e+02	-3.305540e+01
5.866569e+02	-3.310688e+01
5.900454e+02	-3.315488e+01
5.934535e+02	-3.320298e+01
5.968813e+02	-3.325836e+01
6.003288e+02	-3.330227e+01
6.037963e+02	-3.335742e+01
6.072838e+02	-3.340977e+01
6.107914e+02	-3.345853e+01
6.143194e+02	-3.350603e+01
6.178676e+02	-3.355347e+01
6.214364e+02	-3.360262e+01
6.250258e+02	-3.366824e+01
6.286359e+02	-3.370925e+01
6.322669e+02	-3.376395e+01
6.359189e+02	-3.380913e+01
6.395919e+02	-3.386267e+01
6.432862e+02	-3.391128e+01
6.470017e+02	-3.396938e+01
6.507388e+02	-3.402236e+01
6.544974e+02	-3.405738e+01
6.582778e+02	-3.411129e+01
6.620800e+02	-3.416153e+01
6.659041e+02	-3.420984e+01
6.697504e+02	-3.426007e+01
6.736188e+02	-3.430872e+01
6.775096e+02	-3.436961e+01
6.814229e+02	-3.440896e+01
6.853587e+02	-3.446779e+01
6.893173e+02	-3.451179e+01
6.932988e+02	-3.456889e+01
6.973033e+02	-3.462116e+01
7.013309e+02	-3.466709e+01
