Frequency(Hz)	Magnitude(dB)
1.000000e+01	-2.014572e+00
1.005776e+01	-2.033074e+00
1.011585e+01	-2.051757e+00
1.017428e+01	-2.070698e+00
1.023305e+01	-2.089746e+00
1.029215e+01	-2.108972e+00
1.035160e+01	-2.128264e+00
1.041139e+01	-2.147656e+00
1.047153e+01	-2.167229e+00
1.053201e+01	-2.187061e+00
1.059284e+01	-2.206707e+00
1.065403e+01	-2.226866e+00
1.071556e+01	-2.247008e+00
1.077746e+01	-2.267186e+00
1.083971e+01	-2.287732e+00
1.090232e+01	-2.308195e+00
1.096529e+01	-2.328970e+00
1.102862e+01	-2.350074e+00
1.109232e+01	-2.370904e+00
1.115639e+01	-2.391828e+00
1.122083e+01	-2.413254e+00
1.128564e+01	-2.434432e+00
1.135083e+01	-2.455977e+00
1.141639e+01	-2.477771e+00
1.148233e+01	-2.499545e+00
1.154865e+01	-2.521479e+00
1.161536e+01	-2.543706e+00
1.168245e+01	-2.565818e+00
1.174992e+01	-2.588098e+00
1.181779e+01	-2.610816e+00
1.188605e+01	-2.633611e+00
1.195470e+01	-2.656180e+00
1.202375e+01	-2.679259e+00
1.209320e+01	-2.702328e+00
1.216305e+01	-2.725655e+00
1.223330e+01	-2.749011e+00
1.230396e+01	-2.772418e+00
1.237503e+01	-2.796232e+00
1.244651e+01	-2.819969e+00
1.251840e+01	-2.843668e+00
1.259070e+01	-2.868127e+00
1.266343e+01	-2.892326e+00
1.273657e+01	-2.916583e+00
1.281014e+01	-2.941123e+00
1.288413e+01	-2.966045e+00
1.295855e+01	-2.990799e+00
1.303339e+01	-3.015761e+00
1.310867e+01	-3.040677e+00
1.318439e+01	-3.066270e+00
1.326054e+01	-3.091350e+00
1.333713e+01	-3.117035e+00
1.341417e+01	-3.142693e+00
1.349165e+01	-3.168690e+00
1.356958e+01	-3.194704e+00
1.364795e+01	-3.220614e+00
1.372678e+01	-3.246910e+00
1.380607e+01	-3.273537e+00
1.388581e+01	-3.299798e+00
1.396602e+01	-3.326680e+00
1.404668e+01	-3.353737e+00
1.412782e+01	-3.380530e+00
1.420942e+01	-3.407617e+00
1.429149e+01	-3.435015e+00
1.437404e+01	-3.462109e+00
1.445706e+01	-3.489894e+00
1.454057e+01	-3.517491e+00
1.462455e+01	-3.545493e+00
1.470902e+01	-3.573164e+00
1.479398e+01	-3.601469e+00
1.487943e+01	-3.629636e+00
1.496537e+01	-3.658205e+00
1.505181e+01	-3.686504e+00
1.513875e+01	-3.715239e+00
1.522619e+01	-3.744324e+00
1.531414e+01	-3.773216e+00
1.540259e+01	-3.802412e+00
1.549156e+01	-3.831478e+00
1.558103e+01	-3.860961e+00
1.567103e+01	-3.890288e+00
1.576155e+01	-3.919946e+00
1.585258e+01	-3.949964e+00
1.594415e+01	-3.980014e+00
1.603624e+01	-4.010169e+00
1.612886e+01	-4.040336e+00
1.622202e+01	-4.070495e+00
1.631572e+01	-4.100832e+00
1.640996e+01	-4.132123e+00
1.650474e+01	-4.162350e+00
1.660008e+01	-4.193483e+00
1.669596e+01	-4.224511e+00
1.679239e+01	-4.255774e+00
1.688938e+01	-4.286937e+00
1.698694e+01	-4.318450e+00
1.708505e+01	-4.350118e+00
1.718373e+01	-4.381396e+00
1.728299e+01	-4.413808e+00
1.738281e+01	-4.445551e+00
1.748322e+01	-4.477706e+00
1.758420e+01	-4.510016e+00
1.768576e+01	-4.542436e+00
1.778792e+01	-4.574994e+00
1.789066e+01	-4.607637e+00
1.799399e+01	-4.640279e+00
1.809793e+01	-4.673085e+00
1.820246e+01	-4.706343e+00
1.830760e+01	-4.739345e+00
1.841334e+01	-4.772590e+00
1.851969e+01	-4.806050e+00
1.862666e+01	-4.839675e+00
1.873425e+01	-4.873292e+00
1.884246e+01	-4.906852e+00
1.895129e+01	-4.941085e+00
1.906075e+01	-4.975098e+00
1.917085e+01	-5.009003e+00
1.928158e+01	-5.043718e+00
1.939295e+01	-5.077900e+00
1.950496e+01	-5.112516e+00
1.961762e+01	-5.147346e+00
1.973093e+01	-5.181992e+00
1.984490e+01	-5.216885e+00
1.995952e+01	-5.251872e+00
2.007480e+01	-5.287547e+00
2.019076e+01	-5.322399e+00
2.030738e+01	-5.357621e+00
2.042467e+01	-5.393263e+00
2.054264e+01	-5.429164e+00
2.066130e+01	-5.464743e+00
2.078064e+01	-5.500861e+00
2.090066e+01	-5.536621e+00
2.102139e+01	-5.572523e+00
2.114280e+01	-5.608444e+00
2.126492e+01	-5.645135e+00
2.138775e+01	-5.681409e+00
2.151128e+01	-5.718066e+00
2.163553e+01	-5.754758e+00
2.176050e+01	-5.791435e+00
2.188619e+01	-5.828379e+00
2.201260e+01	-5.865789e+00
2.213974e+01	-5.902693e+00
2.226762e+01	-5.940134e+00
2.239624e+01	-5.977211e+00
2.252560e+01	-6.014685e+00
2.265571e+01	-6.052341e+00
2.278656e+01	-6.089892e+00
2.291818e+01	-6.127797e+00
2.305055e+01	-6.165692e+00
2.318369e+01	-6.203296e+00
2.331760e+01	-6.241837e+00
2.345228e+01	-6.279936e+00
2.358774e+01	-6.318193e+00
2.372398e+01	-6.356641e+00
2.386101e+01	-6.395037e+00
2.399883e+01	-6.433439e+00
2.413745e+01	-6.472172e+00
2.427686e+01	-6.510925e+00
2.441709e+01	-6.549831e+00
2.455812e+01	-6.589083e+00
2.469997e+01	-6.628175e+00
2.484263e+01	-6.667326e+00
2.498612e+01	-6.706480e+00
2.513044e+01	-6.745624e+00
2.527559e+01	-6.785409e+00
2.542158e+01	-6.825356e+00
2.556842e+01	-6.864761e+00
2.571610e+01	-6.904942e+00
2.586463e+01	-6.944348e+00
2.601403e+01	-6.984421e+00
2.616428e+01	-7.024232e+00
2.631541e+01	-7.064567e+00
2.646740e+01	-7.104631e+00
2.662028e+01	-7.145454e+00
2.677404e+01	-7.185687e+00
2.692868e+01	-7.225817e+00
2.708422e+01	-7.266550e+00
2.724066e+01	-7.307497e+00
2.739800e+01	-7.348015e+00
2.755625e+01	-7.388804e+00
2.771541e+01	-7.430212e+00
2.787550e+01	-7.470807e+00
2.803650e+01	-7.511943e+00
2.819844e+01	-7.552986e+00
2.836131e+01	-7.594992e+00
2.852513e+01	-7.635624e+00
2.868989e+01	-7.677188e+00
2.885560e+01	-7.718933e+00
2.902227e+01	-7.760630e+00
2.918990e+01	-7.802428e+00
2.935850e+01	-7.843838e+00
2.952807e+01	-7.885442e+00
2.969863e+01	-7.927581e+00
2.987016e+01	-7.970135e+00
3.004269e+01	-8.011815e+00
3.021622e+01	-8.053548e+00
3.039075e+01	-8.096241e+00
3.056628e+01	-8.138437e+00
3.074283e+01	-8.180887e+00
3.092040e+01	-8.223304e+00
3.109900e+01	-8.265702e+00
3.127862e+01	-8.308356e+00
3.145929e+01	-8.351550e+00
3.164099e+01	-8.393661e+00
3.182375e+01	-8.436590e+00
3.200756e+01	-8.479393e+00
3.219244e+01	-8.522536e+00
3.237838e+01	-8.565753e+00
3.256540e+01	-8.609031e+00
3.275349e+01	-8.652104e+00
3.294268e+01	-8.694935e+00
3.313295e+01	-8.738065e+00
3.332433e+01	-8.781777e+00
3.351681e+01	-8.825508e+00
3.371040e+01	-8.868604e+00
3.390511e+01	-8.912298e+00
3.410094e+01	-8.955945e+00
3.429791e+01	-8.999670e+00
3.449601e+01	-9.043368e+00
3.469526e+01	-9.087195e+00
3.489566e+01	-9.130786e+00
3.509721e+01	-9.175212e+00
3.529993e+01	-9.219067e+00
3.550382e+01	-9.263719e+00
3.570889e+01	-9.306827e+00
3.591515e+01	-9.351384e+00
3.612259e+01	-9.395374e+00
3.633123e+01	-9.440232e+00
3.654108e+01	-9.484174e+00
3.675214e+01	-9.528967e+00
3.696442e+01	-9.572775e+00
3.717792e+01	-9.617851e+00
3.739266e+01	-9.662093e+00
3.760864e+01	-9.707190e+00
3.782587e+01	-9.752212e+00
3.804435e+01	-9.796198e+00
3.826409e+01	-9.841901e+00
3.848510e+01	-9.886192e+00
3.870739e+01	-9.931049e+00
3.893096e+01	-9.976484e+00
3.915583e+01	-1.002080e+01
3.938199e+01	-1.006642e+01
3.960946e+01	-1.011095e+01
3.983824e+01	-1.015645e+01
4.006834e+01	-1.020158e+01
4.029978e+01	-1.024675e+01
4.053255e+01	-1.029195e+01
4.076666e+01	-1.033762e+01
4.100213e+01	-1.038312e+01
4.123896e+01	-1.042831e+01
4.147715e+01	-1.047331e+01
4.171672e+01	-1.051963e+01
4.195767e+01	-1.056497e+01
4.220002e+01	-1.061060e+01
4.244377e+01	-1.065658e+01
4.268892e+01	-1.070191e+01
4.293549e+01	-1.074803e+01
4.318348e+01	-1.079403e+01
4.343291e+01	-1.083980e+01
4.368377e+01	-1.088527e+01
4.393609e+01	-1.093164e+01
4.418986e+01	-1.097732e+01
4.444510e+01	-1.102397e+01
4.470182e+01	-1.106999e+01
4.496001e+01	-1.111586e+01
4.521970e+01	-1.116174e+01
4.548089e+01	-1.120722e+01
4.574358e+01	-1.125444e+01
4.600779e+01	-1.130154e+01
4.627353e+01	-1.134786e+01
4.654081e+01	-1.139388e+01
4.680963e+01	-1.143949e+01
4.708000e+01	-1.148664e+01
4.735193e+01	-1.153247e+01
4.762543e+01	-1.157919e+01
4.790051e+01	-1.162604e+01
4.817719e+01	-1.167278e+01
4.845545e+01	-1.171938e+01
4.873533e+01	-1.176590e+01
4.901682e+01	-1.181262e+01
4.929994e+01	-1.185977e+01
4.958470e+01	-1.190654e+01
4.987110e+01	-1.195315e+01
5.015915e+01	-1.200038e+01
5.044887e+01	-1.204668e+01
5.074026e+01	-1.209353e+01
5.103333e+01	-1.214049e+01
5.132810e+01	-1.218718e+01
5.162457e+01	-1.223465e+01
5.192275e+01	-1.228189e+01
5.222265e+01	-1.232850e+01
5.252429e+01	-1.237582e+01
5.282767e+01	-1.242324e+01
5.313280e+01	-1.246993e+01
5.343969e+01	-1.251739e+01
5.374836e+01	-1.256506e+01
5.405880e+01	-1.261232e+01
5.437105e+01	-1.265971e+01
5.468509e+01	-1.270612e+01
5.500095e+01	-1.275461e+01
5.531863e+01	-1.280084e+01
5.563815e+01	-1.284911e+01
5.595951e+01	-1.289615e+01
5.628273e+01	-1.294386e+01
5.660782e+01	-1.299146e+01
5.693479e+01	-1.303833e+01
5.726364e+01	-1.308657e+01
5.759439e+01	-1.313370e+01
5.792705e+01	-1.318146e+01
5.826164e+01	-1.322949e+01
5.859815e+01	-1.327737e+01
5.893662e+01	-1.332425e+01
5.927703e+01	-1.337240e+01
5.961941e+01	-1.342035e+01
5.996377e+01	-1.346743e+01
6.031012e+01	-1.351560e+01
6.065847e+01	-1.356355e+01
6.100883e+01	-1.361119e+01
6.136121e+01	-1.365928e+01
6.171563e+01	-1.370760e+01
6.207210e+01	-1.375426e+01
6.243063e+01	-1.380256e+01
6.279122e+01	-1.385000e+01
6.315390e+01	-1.389859e+01
6.351868e+01	-1.394651e+01
6.388556e+01	-1.399483e+01
6.425456e+01	-1.404262e+01
6.462569e+01	-1.409093e+01
6.499897e+01	-1.413879e+01
6.537440e+01	-1.418692e+01
6.575200e+01	-1.423549e+01
6.613178e+01	-1.428333e+01
6.651375e+01	-1.433167e+01
6.689793e+01	-1.437959e+01
6.728433e+01	-1.442718e+01
6.767297e+01	-1.447621e+01
6.806384e+01	-1.452458e+01
6.845698e+01	-1.457218e+01
6.885238e+01	-1.462053e+01
6.925007e+01	-1.466935e+01
6.965005e+01	-1.471764e+01
7.005235e+01	-1.476557e+01
7.045697e+01	-1.481438e+01
7.086393e+01	-1.486174e+01
7.127323e+01	-1.491076e+01
7.168490e+01	-1.495930e+01
7.209895e+01	-1.500830e+01
7.251539e+01	-1.505610e+01
7.293424e+01	-1.510476e+01
7.335551e+01	-1.515284e+01
7.377920e+01	-1.520174e+01
7.420535e+01	-1.525035e+01
7.463396e+01	-1.529930e+01
7.506504e+01	-1.534685e+01
7.549861e+01	-1.539595e+01
7.593469e+01	-1.544450e+01
7.637328e+01	-1.549318e+01
7.681441e+01	-1.554172e+01
7.725809e+01	-1.559116e+01
7.770433e+01	-1.563900e+01
7.815315e+01	-1.568832e+01
7.860456e+01	-1.573606e+01
7.905857e+01	-1.578536e+01
7.951521e+01	-1.583350e+01
7.997449e+01	-1.588360e+01
8.043642e+01	-1.593173e+01
8.090102e+01	-1.597974e+01
8.136830e+01	-1.602891e+01
8.183828e+01	-1.607779e+01
8.231097e+01	-1.612628e+01
8.278640e+01	-1.617547e+01
8.326457e+01	-1.622458e+01
8.374550e+01	-1.627321e+01
8.422921e+01	-1.632158e+01
8.471572e+01	-1.637079e+01
8.520503e+01	-1.641937e+01
8.569717e+01	-1.646896e+01
8.619215e+01	-1.651706e+01
8.669000e+01	-1.656594e+01
8.719071e+01	-1.661506e+01
8.769432e+01	-1.666472e+01
8.820084e+01	-1.671347e+01
8.871029e+01	-1.676226e+01
8.922267e+01	-1.681085e+01
8.973802e+01	-1.686025e+01
9.025634e+01	-1.690908e+01
9.077766e+01	-1.695868e+01
9.130199e+01	-1.700641e+01
9.182935e+01	-1.705655e+01
9.235975e+01	-1.710618e+01
9.289321e+01	-1.715439e+01
9.342976e+01	-1.720328e+01
9.396941e+01	-1.725338e+01
9.451217e+01	-1.730202e+01
9.505807e+01	-1.735174e+01
9.560712e+01	-1.739956e+01
9.615934e+01	-1.744849e+01
9.671476e+01	-1.749832e+01
9.727338e+01	-1.754838e+01
9.783522e+01	-1.759665e+01
9.840032e+01	-1.764713e+01
9.896867e+01	-1.769474e+01
9.954031e+01	-1.774436e+01
1.001153e+02	-1.779194e+01
1.006935e+02	-1.784203e+01
1.012751e+02	-1.789130e+01
1.018601e+02	-1.794004e+01
1.024484e+02	-1.799000e+01
1.030402e+02	-1.803942e+01
1.036353e+02	-1.808844e+01
1.042339e+02	-1.813789e+01
1.048360e+02	-1.818749e+01
1.054415e+02	-1.823664e+01
1.060505e+02	-1.828521e+01
1.066631e+02	-1.833548e+01
1.072791e+02	-1.838521e+01
1.078988e+02	-1.843433e+01
1.085220e+02	-1.848217e+01
1.091488e+02	-1.853295e+01
1.097793e+02	-1.858291e+01
1.104133e+02	-1.863161e+01
1.110511e+02	-1.868072e+01
1.116925e+02	-1.872989e+01
1.123376e+02	-1.877883e+01
1.129865e+02	-1.882786e+01
1.136391e+02	-1.887838e+01
1.142955e+02	-1.892684e+01
1.149556e+02	-1.897564e+01
1.156196e+02	-1.902621e+01
1.162874e+02	-1.907557e+01
1.169591e+02	-1.912315e+01
1.176347e+02	-1.917438e+01
1.183141e+02	-1.922334e+01
1.189975e+02	-1.927305e+01
1.196848e+02	-1.932142e+01
1.203761e+02	-1.937280e+01
1.210714e+02	-1.942103e+01
1.217707e+02	-1.947188e+01
1.224740e+02	-1.952149e+01
1.231814e+02	-1.957033e+01
1.238929e+02	-1.962068e+01
1.246085e+02	-1.966770e+01
1.253283e+02	-1.971838e+01
1.260522e+02	-1.976751e+01
1.267802e+02	-1.981778e+01
1.275125e+02	-1.986816e+01
1.282490e+02	-1.991600e+01
1.289898e+02	-1.996643e+01
1.297348e+02	-2.001629e+01
1.304842e+02	-2.006479e+01
1.312378e+02	-2.011418e+01
1.319959e+02	-2.016254e+01
1.327583e+02	-2.021505e+01
1.335251e+02	-2.026409e+01
1.342963e+02	-2.031102e+01
1.350720e+02	-2.036247e+01
1.358522e+02	-2.041311e+01
1.366368e+02	-2.046201e+01
1.374260e+02	-2.051225e+01
1.382198e+02	-2.055940e+01
1.390182e+02	-2.061061e+01
1.398211e+02	-2.066007e+01
1.406287e+02	-2.070849e+01
1.414410e+02	-2.075980e+01
1.422579e+02	-2.080898e+01
1.430796e+02	-2.085840e+01
1.439060e+02	-2.090717e+01
1.447372e+02	-2.095828e+01
1.455732e+02	-2.100724e+01
1.464141e+02	-2.105753e+01
1.472597e+02	-2.110775e+01
1.481103e+02	-2.115639e+01
1.489658e+02	-2.120539e+01
1.498262e+02	-2.125672e+01
1.506916e+02	-2.130406e+01
1.515620e+02	-2.135538e+01
1.524374e+02	-2.140653e+01
1.533179e+02	-2.145514e+01
1.542034e+02	-2.150415e+01
1.550941e+02	-2.155320e+01
1.559899e+02	-2.160429e+01
1.568909e+02	-2.165325e+01
1.577971e+02	-2.170303e+01
1.587085e+02	-2.175224e+01
1.596252e+02	-2.180095e+01
1.605472e+02	-2.185263e+01
1.614745e+02	-2.190129e+01
1.624072e+02	-2.194891e+01
1.633453e+02	-2.200080e+01
1.642887e+02	-2.205157e+01
1.652377e+02	-2.210011e+01
1.661921e+02	-2.215167e+01
1.671520e+02	-2.219912e+01
1.681175e+02	-2.225021e+01
1.690885e+02	-2.230018e+01
1.700651e+02	-2.234790e+01
1.710474e+02	-2.239804e+01
1.720354e+02	-2.244797e+01
1.730291e+02	-2.249940e+01
1.740285e+02	-2.254747e+01
1.750337e+02	-2.259596e+01
1.760446e+02	-2.264707e+01
1.770615e+02	-2.269890e+01
1.780842e+02	-2.275083e+01
1.791128e+02	-2.279747e+01
1.801473e+02	-2.284793e+01
1.811878e+02	-2.290023e+01
1.822344e+02	-2.294941e+01
1.832870e+02	-2.299603e+01
1.843456e+02	-2.304572e+01
1.854104e+02	-2.309856e+01
1.864813e+02	-2.314611e+01
1.875584e+02	-2.319566e+01
1.886418e+02	-2.324591e+01
1.897313e+02	-2.329677e+01
1.908272e+02	-2.334529e+01
1.919294e+02	-2.339521e+01
1.930380e+02	-2.344456e+01
1.941530e+02	-2.349330e+01
1.952744e+02	-2.354068e+01
1.964023e+02	-2.359461e+01
1.975367e+02	-2.364556e+01
1.986777e+02	-2.369612e+01
1.998252e+02	-2.374624e+01
2.009794e+02	-2.379519e+01
2.021403e+02	-2.384201e+01
2.033078e+02	-2.389364e+01
2.044821e+02	-2.394266e+01
2.056632e+02	-2.399312e+01
2.068511e+02	-2.404235e+01
2.080459e+02	-2.409211e+01
2.092475e+02	-2.414276e+01
2.104561e+02	-2.419029e+01
2.116717e+02	-2.424096e+01
2.128943e+02	-2.429289e+01
2.141240e+02	-2.434121e+01
2.153608e+02	-2.439294e+01
2.166047e+02	-2.444086e+01
2.178558e+02	-2.448770e+01
2.191141e+02	-2.454146e+01
2.203797e+02	-2.459211e+01
2.216526e+02	-2.463916e+01
2.229329e+02	-2.469003e+01
2.242205e+02	-2.474143e+01
2.255156e+02	-2.479013e+01
2.268182e+02	-2.484309e+01
2.281283e+02	-2.489122e+01
2.294459e+02	-2.494219e+01
2.307712e+02	-2.498920e+01
2.321041e+02	-2.504285e+01
2.334447e+02	-2.509176e+01
2.347931e+02	-2.514244e+01
2.361493e+02	-2.519273e+01
2.375133e+02	-2.524008e+01
2.388851e+02	-2.529228e+01
2.402649e+02	-2.534014e+01
2.416527e+02	-2.538884e+01
2.430484e+02	-2.543810e+01
2.444523e+02	-2.549174e+01
2.458642e+02	-2.554022e+01
2.472843e+02	-2.558854e+01
2.487126e+02	-2.563990e+01
2.501492e+02	-2.569193e+01
2.515940e+02	-2.573924e+01
2.530472e+02	-2.578929e+01
2.545088e+02	-2.583908e+01
2.559789e+02	-2.589093e+01
2.574574e+02	-2.594003e+01
2.589444e+02	-2.598723e+01
2.604401e+02	-2.603805e+01
2.619444e+02	-2.609254e+01
2.634574e+02	-2.613931e+01
2.649791e+02	-2.619264e+01
2.665096e+02	-2.624095e+01
2.680489e+02	-2.628825e+01
2.695972e+02	-2.633930e+01
2.711544e+02	-2.638919e+01
2.727205e+02	-2.644104e+01
2.742958e+02	-2.648928e+01
2.758801e+02	-2.654244e+01
2.774736e+02	-2.658806e+01
2.790762e+02	-2.664009e+01
2.806882e+02	-2.668808e+01
2.823094e+02	-2.673924e+01
2.839400e+02	-2.678691e+01
2.855800e+02	-2.683516e+01
2.872295e+02	-2.689115e+01
2.888886e+02	-2.694074e+01
2.905572e+02	-2.698767e+01
2.922354e+02	-2.703959e+01
2.939234e+02	-2.708871e+01
2.956211e+02	-2.713610e+01
2.973286e+02	-2.719059e+01
2.990459e+02	-2.723812e+01
3.007732e+02	-2.729057e+01
3.025104e+02	-2.733701e+01
3.042577e+02	-2.738874e+01
3.060151e+02	-2.743921e+01
3.077826e+02	-2.748771e+01
3.095604e+02	-2.753573e+01
3.113484e+02	-2.758797e+01
3.131467e+02	-2.763774e+01
3.149554e+02	-2.769008e+01
3.167746e+02	-2.773598e+01
3.186043e+02	-2.778879e+01
3.204445e+02	-2.783606e+01
3.222954e+02	-2.789230e+01
3.241570e+02	-2.793752e+01
3.260293e+02	-2.799014e+01
3.279124e+02	-2.803906e+01
3.298064e+02	-2.809040e+01
3.317114e+02	-2.813730e+01
3.336273e+02	-2.818768e+01
3.355544e+02	-2.824048e+01
3.374925e+02	-2.829241e+01
3.394418e+02	-2.834047e+01
3.414024e+02	-2.838736e+01
3.433744e+02	-2.843703e+01
3.453577e+02	-2.849352e+01
3.473525e+02	-2.853602e+01
3.493588e+02	-2.859167e+01
3.513766e+02	-2.864182e+01
3.534062e+02	-2.869093e+01
3.554474e+02	-2.873926e+01
3.575005e+02	-2.879017e+01
3.595654e+02	-2.884123e+01
3.616422e+02	-2.888415e+01
3.637311e+02	-2.893844e+01
3.658320e+02	-2.899193e+01
3.679450e+02	-2.904004e+01
3.700702e+02	-2.909131e+01
3.722077e+02	-2.913583e+01
3.743576e+02	-2.918747e+01
3.765199e+02	-2.924279e+01
3.786946e+02	-2.929103e+01
3.808820e+02	-2.934148e+01
3.830819e+02	-2.938934e+01
3.852946e+02	-2.944541e+01
3.875200e+02	-2.948744e+01
3.897583e+02	-2.954224e+01
3.920096e+02	-2.959039e+01
3.942738e+02	-2.964258e+01
3.965511e+02	-2.969134e+01
3.988416e+02	-2.974066e+01
4.011452e+02	-2.978968e+01
4.034622e+02	-2.983951e+01
4.057926e+02	-2.988986e+01
4.081365e+02	-2.994294e+01
4.104938e+02	-2.999244e+01
4.128648e+02	-3.004087e+01
4.152495e+02	-3.009173e+01
4.176480e+02	-3.014170e+01
4.200603e+02	-3.018850e+01
4.224866e+02	-3.024337e+01
4.249268e+02	-3.028790e+01
4.273812e+02	-3.034360e+01
4.298497e+02	-3.039423e+01
4.323325e+02	-3.044526e+01
4.348297e+02	-3.049555e+01
4.373412e+02	-3.054423e+01
4.398673e+02	-3.059614e+01
4.424079e+02	-3.064356e+01
4.449633e+02	-3.069183e+01
4.475334e+02	-3.074133e+01
4.501183e+02	-3.079890e+01
4.527182e+02	-3.084076e+01
4.553330e+02	-3.089569e+01
4.579630e+02	-3.094224e+01
4.606082e+02	-3.100237e+01
4.632687e+02	-3.104149e+01
4.659445e+02	-3.109110e+01
4.686358e+02	-3.114412e+01
4.713426e+02	-3.119701e+01
4.740650e+02	-3.124493e+01
4.768032e+02	-3.129304e+01
4.795572e+02	-3.134925e+01
4.823271e+02	-3.139437e+01
4.851130e+02	-3.144621e+01
4.879150e+02	-3.149584e+01
4.907332e+02	-3.154819e+01
4.935676e+02	-3.159614e+01
4.964185e+02	-3.164839e+01
4.992858e+02	-3.169529e+01
5.021696e+02	-3.175105e+01
5.050701e+02	-3.179689e+01
5.079874e+02	-3.185006e+01
5.109215e+02	-3.189820e+01
5.138726e+02	-3.194224e+01
5.168407e+02	-3.200050e+01
5.198259e+02	-3.204858e+01
5.228284e+02	-3.210150e+01
5.258482e+02	-3.214429e+01
5.288855e+02	-3.219896e+01
5.319403e+02	-3.224355e+01
5.350128e+02	-3.230033e+01
5.381030e+02	-3.234552e+01
5.412111e+02	-3.239405e+01
5.443371e+02	-3.244555e+01
5.474812e+02	-3.250136e+01
5.506434e+02	-3.255861e+01
5.538239e+02	-3.260109e+01
5.570228e+02	-3.264514e+01
5.602401e+02	-3.270279e+01
5.634760e+02	-3.275124e+01
5.667306e+02	-3.279933e+01
5.700040e+02	-3.284848e+01
5.732964e+02	-3.290722e+01
5.766077e+02	-3.295271e+01
5.799382e+02	-3.299343e+01
5.832879e+02	-3.305239e+01
5.866569e+02	-3.309946e+01
5.900454e+02	-3.315414e+01
5.934535e+02	-3.320712e+01
5.968813e+02	-3.325311e+01
6.003288e+02	-3.330659e+01
6.037963e+02	-3.335678e+01
6.072838e+02	-3.340218e+01
6.107914e+02	-3.344783e+01
6.143194e+02	-3.350514e+01
6.178676e+02	-3.356266e+01
6.214364e+02	-3.360259e+01
6.250258e+02	-3.366159e+01
6.286359e+02	-3.370745e+01
6.322669e+02	-3.376280e+01
6.359189e+02	-3.380630e+01
6.395919e+02	-3.386031e+01
6.432862e+02	-3.390906e+01
6.470017e+02	-3.395811e+01
6.507388e+02	-3.400746e+01
6.544974e+02	-3.406150e+01
6.582778e+02	-3.409523e+01
6.620800e+02	-3.416346e+01
6.659041e+02	-3.420238e+01
6.697504e+02	-3.425834e+01
6.736188e+02	-3.430970e+01
6.775096e+02	-3.435797e+01
6.814229e+02	-3.441349e+01
6.853587e+02	-3.445871e+01
6.893173e+02	-3.451078e+01
6.932988e+02	-3.456262e+01
6.973033e+02	-3.460713e+01
7.013309e+02	-3.466185e+01
