Frequency(Hz)	Magnitude(dB)
1.000000e+01	-2.121258e+00
1.005776e+01	-2.140569e+00
1.011585e+01	-2.159925e+00
1.017428e+01	-2.179690e+00
1.023305e+01	-2.199437e+00
1.029215e+01	-2.219414e+00
1.035160e+01	-2.239632e+00
1.041139e+01	-2.259962e+00
1.047153e+01	-2.280276e+00
1.053201e+01	-2.300685e+00
1.059284e+01	-2.321309e+00
1.065403e+01	-2.342315e+00
1.071556e+01	-2.363025e+00
1.077746e+01	-2.384113e+00
1.083971e+01	-2.405346e+00
1.090232e+01	-2.426922e+00
1.096529e+01	-2.448060e+00
1.102862e+01	-2.469990e+00
1.109232e+01	-2.491692e+00
1.115639e+01	-2.513129e+00
1.122083e+01	-2.535502e+00
1.128564e+01	-2.557847e+00
1.135083e+01	-2.580117e+00
1.141639e+01	-2.602617e+00
1.148233e+01	-2.625185e+00
1.154865e+01	-2.647997e+00
1.161536e+01	-2.670763e+00
1.168245e+01	-2.693992e+00
1.174992e+01	-2.716787e+00
1.181779e+01	-2.740325e+00
1.188605e+01	-2.763925e+00
1.195470e+01	-2.787439e+00
1.202375e+01	-2.811136e+00
1.209320e+01	-2.835193e+00
1.216305e+01	-2.859215e+00
1.223330e+01	-2.883604e+00
1.230396e+01	-2.907818e+00
1.237503e+01	-2.932050e+00
1.244651e+01	-2.956722e+00
1.251840e+01	-2.981561e+00
1.259070e+01	-3.006745e+00
1.266343e+01	-3.031546e+00
1.273657e+01	-3.056860e+00
1.281014e+01	-3.082284e+00
1.288413e+01	-3.107849e+00
1.295855e+01	-3.133388e+00
1.303339e+01	-3.159269e+00
1.310867e+01	-3.185131e+00
1.318439e+01	-3.211218e+00
1.326054e+01	-3.237259e+00
1.333713e+01	-3.263580e+00
1.341417e+01	-3.290196e+00
1.349165e+01	-3.316818e+00
1.356958e+01	-3.343529e+00
1.364795e+01	-3.370340e+00
1.372678e+01	-3.397503e+00
1.380607e+01	-3.424869e+00
1.388581e+01	-3.452173e+00
1.396602e+01	-3.479805e+00
1.404668e+01	-3.507460e+00
1.412782e+01	-3.534854e+00
1.420942e+01	-3.563187e+00
1.429149e+01	-3.591418e+00
1.437404e+01	-3.619443e+00
1.445706e+01	-3.647685e+00
1.454057e+01	-3.676094e+00
1.462455e+01	-3.705084e+00
1.470902e+01	-3.733792e+00
1.479398e+01	-3.762514e+00
1.487943e+01	-3.791498e+00
1.496537e+01	-3.820797e+00
1.505181e+01	-3.850168e+00
1.513875e+01	-3.879562e+00
1.522619e+01	-3.909367e+00
1.531414e+01	-3.939004e+00
1.540259e+01	-3.968908e+00
1.549156e+01	-3.999037e+00
1.558103e+01	-4.029210e+00
1.567103e+01	-4.059346e+00
1.576155e+01	-4.089904e+00
1.585258e+01	-4.120319e+00
1.594415e+01	-4.151067e+00
1.603624e+01	-4.182152e+00
1.612886e+01	-4.213042e+00
1.622202e+01	-4.244017e+00
1.631572e+01	-4.275531e+00
1.640996e+01	-4.306844e+00
1.650474e+01	-4.338617e+00
1.660008e+01	-4.370148e+00
1.669596e+01	-4.401887e+00
1.679239e+01	-4.433425e+00
1.688938e+01	-4.465735e+00
1.698694e+01	-4.498069e+00
1.708505e+01	-4.530299e+00
1.718373e+01	-4.562971e+00
1.728299e+01	-4.595284e+00
1.738281e+01	-4.628244e+00
1.748322e+01	-4.661014e+00
1.758420e+01	-4.693772e+00
1.768576e+01	-4.727145e+00
1.778792e+01	-4.760389e+00
1.789066e+01	-4.793618e+00
1.799399e+01	-4.827191e+00
1.809793e+01	-4.860736e+00
1.820246e+01	-4.894550e+00
1.830760e+01	-4.928589e+00
1.841334e+01	-4.962516e+00
1.851969e+01	-4.996410e+00
1.862666e+01	-5.030961e+00
1.873425e+01	-5.065133e+00
1.884246e+01	-5.099889e+00
1.895129e+01	-5.134407e+00
1.906075e+01	-5.169102e+00
1.917085e+01	-5.204093e+00
1.928158e+01	-5.239030e+00
1.939295e+01	-5.274126e+00
1.950496e+01	-5.309508e+00
1.961762e+01	-5.344664e+00
1.973093e+01	-5.380500e+00
1.984490e+01	-5.415820e+00
1.995952e+01	-5.451142e+00
2.007480e+01	-5.487393e+00
2.019076e+01	-5.522896e+00
2.030738e+01	-5.559252e+00
2.042467e+01	-5.595724e+00
2.054264e+01	-5.631712e+00
2.066130e+01	-5.668175e+00
2.078064e+01	-5.704766e+00
2.090066e+01	-5.741513e+00
2.102139e+01	-5.778176e+00
2.114280e+01	-5.814680e+00
2.126492e+01	-5.852173e+00
2.138775e+01	-5.889428e+00
2.151128e+01	-5.925975e+00
2.163553e+01	-5.963535e+00
2.176050e+01	-6.000956e+00
2.188619e+01	-6.037952e+00
2.201260e+01	-6.076109e+00
2.213974e+01	-6.113733e+00
2.226762e+01	-6.151499e+00
2.239624e+01	-6.189709e+00
2.252560e+01	-6.227435e+00
2.265571e+01	-6.265598e+00
2.278656e+01	-6.304186e+00
2.291818e+01	-6.342123e+00
2.305055e+01	-6.380536e+00
2.318369e+01	-6.419335e+00
2.331760e+01	-6.457660e+00
2.345228e+01	-6.496994e+00
2.358774e+01	-6.535613e+00
2.372398e+01	-6.574415e+00
2.386101e+01	-6.613606e+00
2.399883e+01	-6.653039e+00
2.413745e+01	-6.692162e+00
2.427686e+01	-6.731325e+00
2.441709e+01	-6.770591e+00
2.455812e+01	-6.810440e+00
2.469997e+01	-6.850430e+00
2.484263e+01	-6.889984e+00
2.498612e+01	-6.929938e+00
2.513044e+01	-6.969591e+00
2.527559e+01	-7.009647e+00
2.542158e+01	-7.049902e+00
2.556842e+01	-7.090069e+00
2.571610e+01	-7.130427e+00
2.586463e+01	-7.170400e+00
2.601403e+01	-7.211197e+00
2.616428e+01	-7.251647e+00
2.631541e+01	-7.292554e+00
2.646740e+01	-7.333206e+00
2.662028e+01	-7.373909e+00
2.677404e+01	-7.415069e+00
2.692868e+01	-7.455875e+00
2.708422e+01	-7.497052e+00
2.724066e+01	-7.538214e+00
2.739800e+01	-7.579292e+00
2.755625e+01	-7.620746e+00
2.771541e+01	-7.662343e+00
2.787550e+01	-7.703873e+00
2.803650e+01	-7.745083e+00
2.819844e+01	-7.786575e+00
2.836131e+01	-7.828315e+00
2.852513e+01	-7.870278e+00
2.868989e+01	-7.911900e+00
2.885560e+01	-7.953605e+00
2.902227e+01	-7.996201e+00
2.918990e+01	-8.038648e+00
2.935850e+01	-8.080595e+00
2.952807e+01	-8.122893e+00
2.969863e+01	-8.165551e+00
2.987016e+01	-8.207510e+00
3.004269e+01	-8.250713e+00
3.021622e+01	-8.292890e+00
3.039075e+01	-8.335673e+00
3.056628e+01	-8.377849e+00
3.074283e+01	-8.421409e+00
3.092040e+01	-8.463875e+00
3.109900e+01	-8.506619e+00
3.127862e+01	-8.549866e+00
3.145929e+01	-8.592980e+00
3.164099e+01	-8.635926e+00
3.182375e+01	-8.678863e+00
3.200756e+01	-8.722541e+00
3.219244e+01	-8.765601e+00
3.237838e+01	-8.809447e+00
3.256540e+01	-8.852279e+00
3.275349e+01	-8.896305e+00
3.294268e+01	-8.940082e+00
3.313295e+01	-8.983684e+00
3.332433e+01	-9.027324e+00
3.351681e+01	-9.071024e+00
3.371040e+01	-9.115073e+00
3.390511e+01	-9.158691e+00
3.410094e+01	-9.202582e+00
3.429791e+01	-9.246698e+00
3.449601e+01	-9.290942e+00
3.469526e+01	-9.335083e+00
3.489566e+01	-9.379367e+00
3.509721e+01	-9.423892e+00
3.529993e+01	-9.467850e+00
3.550382e+01	-9.512450e+00
3.570889e+01	-9.556499e+00
3.591515e+01	-9.601486e+00
3.612259e+01	-9.645847e+00
3.633123e+01	-9.690450e+00
3.654108e+01	-9.735530e+00
3.675214e+01	-9.780480e+00
3.696442e+01	-9.824713e+00
3.717792e+01	-9.869640e+00
3.739266e+01	-9.914165e+00
3.760864e+01	-9.959388e+00
3.782587e+01	-1.000419e+01
3.804435e+01	-1.004968e+01
3.826409e+01	-1.009501e+01
3.848510e+01	-1.013951e+01
3.870739e+01	-1.018469e+01
3.893096e+01	-1.023030e+01
3.915583e+01	-1.027517e+01
3.938199e+01	-1.032151e+01
3.960946e+01	-1.036630e+01
3.983824e+01	-1.041170e+01
4.006834e+01	-1.045746e+01
4.029978e+01	-1.050253e+01
4.053255e+01	-1.054884e+01
4.076666e+01	-1.059387e+01
4.100213e+01	-1.063941e+01
4.123896e+01	-1.068594e+01
4.147715e+01	-1.073082e+01
4.171672e+01	-1.077744e+01
4.195767e+01	-1.082272e+01
4.220002e+01	-1.086873e+01
4.244377e+01	-1.091530e+01
4.268892e+01	-1.096063e+01
4.293549e+01	-1.100686e+01
4.318348e+01	-1.105241e+01
4.343291e+01	-1.109921e+01
4.368377e+01	-1.114480e+01
4.393609e+01	-1.119174e+01
4.418986e+01	-1.123737e+01
4.444510e+01	-1.128371e+01
4.470182e+01	-1.132987e+01
4.496001e+01	-1.137636e+01
4.521970e+01	-1.142294e+01
4.548089e+01	-1.146963e+01
4.574358e+01	-1.151611e+01
4.600779e+01	-1.156225e+01
4.627353e+01	-1.160921e+01
4.654081e+01	-1.165507e+01
4.680963e+01	-1.170180e+01
4.708000e+01	-1.174850e+01
4.735193e+01	-1.179589e+01
4.762543e+01	-1.184288e+01
4.790051e+01	-1.188977e+01
4.817719e+01	-1.193613e+01
4.845545e+01	-1.198256e+01
4.873533e+01	-1.202962e+01
4.901682e+01	-1.207678e+01
4.929994e+01	-1.212318e+01
4.958470e+01	-1.217004e+01
4.987110e+01	-1.221786e+01
5.015915e+01	-1.226505e+01
5.044887e+01	-1.231154e+01
5.074026e+01	-1.235852e+01
5.103333e+01	-1.240586e+01
5.132810e+01	-1.245275e+01
5.162457e+01	-1.249989e+01
5.192275e+01	-1.254788e+01
5.222265e+01	-1.259438e+01
5.252429e+01	-1.264247e+01
5.282767e+01	-1.268923e+01
5.313280e+01	-1.273710e+01
5.343969e+01	-1.278374e+01
5.374836e+01	-1.283150e+01
5.405880e+01	-1.287889e+01
5.437105e+01	-1.292642e+01
5.468509e+01	-1.297380e+01
5.500095e+01	-1.302198e+01
5.531863e+01	-1.306855e+01
5.563815e+01	-1.311594e+01
5.595951e+01	-1.316392e+01
5.628273e+01	-1.321175e+01
5.660782e+01	-1.325947e+01
5.693479e+01	-1.330724e+01
5.726364e+01	-1.335483e+01
5.759439e+01	-1.340233e+01
5.792705e+01	-1.345036e+01
5.826164e+01	-1.349807e+01
5.859815e+01	-1.354588e+01
5.893662e+01	-1.359329e+01
5.927703e+01	-1.364115e+01
5.961941e+01	-1.368986e+01
5.996377e+01	-1.373675e+01
6.031012e+01	-1.378523e+01
6.065847e+01	-1.383267e+01
6.100883e+01	-1.388072e+01
6.136121e+01	-1.392883e+01
6.171563e+01	-1.397754e+01
6.207210e+01	-1.402480e+01
6.243063e+01	-1.407274e+01
6.279122e+01	-1.412077e+01
6.315390e+01	-1.416825e+01
6.351868e+01	-1.421733e+01
6.388556e+01	-1.426536e+01
6.425456e+01	-1.431395e+01
6.462569e+01	-1.436128e+01
6.499897e+01	-1.441031e+01
6.537440e+01	-1.445845e+01
6.575200e+01	-1.450658e+01
6.613178e+01	-1.455502e+01
6.651375e+01	-1.460312e+01
6.689793e+01	-1.465167e+01
6.728433e+01	-1.469992e+01
6.767297e+01	-1.474865e+01
6.806384e+01	-1.479708e+01
6.845698e+01	-1.484575e+01
6.885238e+01	-1.489308e+01
6.925007e+01	-1.494191e+01
6.965005e+01	-1.498938e+01
7.005235e+01	-1.503886e+01
7.045697e+01	-1.508680e+01
7.086393e+01	-1.513577e+01
7.127323e+01	-1.518428e+01
7.168490e+01	-1.523248e+01
7.209895e+01	-1.528097e+01
7.251539e+01	-1.533010e+01
7.293424e+01	-1.537903e+01
7.335551e+01	-1.542745e+01
7.377920e+01	-1.547601e+01
7.420535e+01	-1.552357e+01
7.463396e+01	-1.557245e+01
7.506504e+01	-1.562050e+01
7.549861e+01	-1.566972e+01
7.593469e+01	-1.571840e+01
7.637328e+01	-1.576702e+01
7.681441e+01	-1.581583e+01
7.725809e+01	-1.586393e+01
7.770433e+01	-1.591370e+01
7.815315e+01	-1.596227e+01
7.860456e+01	-1.601133e+01
7.905857e+01	-1.606038e+01
7.951521e+01	-1.610934e+01
7.997449e+01	-1.615732e+01
8.043642e+01	-1.620543e+01
8.090102e+01	-1.625507e+01
8.136830e+01	-1.630406e+01
8.183828e+01	-1.635257e+01
8.231097e+01	-1.640212e+01
8.278640e+01	-1.645133e+01
8.326457e+01	-1.649977e+01
8.374550e+01	-1.654820e+01
8.422921e+01	-1.659740e+01
8.471572e+01	-1.664673e+01
8.520503e+01	-1.669414e+01
8.569717e+01	-1.674455e+01
8.619215e+01	-1.679434e+01
8.669000e+01	-1.684257e+01
8.719071e+01	-1.689128e+01
8.769432e+01	-1.694082e+01
8.820084e+01	-1.698884e+01
8.871029e+01	-1.703840e+01
8.922267e+01	-1.708819e+01
8.973802e+01	-1.713553e+01
9.025634e+01	-1.718555e+01
9.077766e+01	-1.723342e+01
9.130199e+01	-1.728318e+01
9.182935e+01	-1.733293e+01
9.235975e+01	-1.738193e+01
9.289321e+01	-1.743106e+01
9.342976e+01	-1.748085e+01
9.396941e+01	-1.752883e+01
9.451217e+01	-1.757807e+01
9.505807e+01	-1.762686e+01
9.560712e+01	-1.767645e+01
9.615934e+01	-1.772501e+01
9.671476e+01	-1.777532e+01
9.727338e+01	-1.782449e+01
9.783522e+01	-1.787287e+01
9.840032e+01	-1.792177e+01
9.896867e+01	-1.797249e+01
9.954031e+01	-1.802154e+01
1.001153e+02	-1.807118e+01
1.006935e+02	-1.811879e+01
1.012751e+02	-1.816977e+01
1.018601e+02	-1.821780e+01
1.024484e+02	-1.826799e+01
1.030402e+02	-1.831783e+01
1.036353e+02	-1.836484e+01
1.042339e+02	-1.841598e+01
1.048360e+02	-1.846468e+01
1.054415e+02	-1.851406e+01
1.060505e+02	-1.856428e+01
1.066631e+02	-1.861294e+01
1.072791e+02	-1.866158e+01
1.078988e+02	-1.871031e+01
1.085220e+02	-1.875988e+01
1.091488e+02	-1.881009e+01
1.097793e+02	-1.885949e+01
1.104133e+02	-1.890966e+01
1.110511e+02	-1.895826e+01
1.116925e+02	-1.900834e+01
1.123376e+02	-1.905716e+01
1.129865e+02	-1.910713e+01
1.136391e+02	-1.915641e+01
1.142955e+02	-1.920691e+01
1.149556e+02	-1.925523e+01
1.156196e+02	-1.930387e+01
1.162874e+02	-1.935172e+01
1.169591e+02	-1.940261e+01
1.176347e+02	-1.945142e+01
1.183141e+02	-1.950140e+01
1.189975e+02	-1.955128e+01
1.196848e+02	-1.960269e+01
1.203761e+02	-1.965158e+01
1.210714e+02	-1.969930e+01
1.217707e+02	-1.975045e+01
1.224740e+02	-1.979860e+01
1.231814e+02	-1.984790e+01
1.238929e+02	-1.989783e+01
1.246085e+02	-1.994848e+01
1.253283e+02	-1.999652e+01
1.260522e+02	-2.004547e+01
1.267802e+02	-2.009447e+01
1.275125e+02	-2.014599e+01
1.282490e+02	-2.019609e+01
1.289898e+02	-2.024667e+01
1.297348e+02	-2.029543e+01
1.304842e+02	-2.034558e+01
1.312378e+02	-2.039374e+01
1.319959e+02	-2.044241e+01
1.327583e+02	-2.049449e+01
1.335251e+02	-2.054239e+01
1.342963e+02	-2.059223e+01
1.350720e+02	-2.064057e+01
1.358522e+02	-2.069310e+01
1.366368e+02	-2.074231e+01
1.374260e+02	-2.078970e+01
1.382198e+02	-2.084119e+01
1.390182e+02	-2.089047e+01
1.398211e+02	-2.093879e+01
1.406287e+02	-2.098906e+01
1.414410e+02	-2.103890e+01
1.422579e+02	-2.108825e+01
1.430796e+02	-2.113760e+01
1.439060e+02	-2.118632e+01
1.447372e+02	-2.123867e+01
1.455732e+02	-2.128661e+01
1.464141e+02	-2.133622e+01
1.472597e+02	-2.138698e+01
1.481103e+02	-2.143659e+01
1.489658e+02	-2.148734e+01
1.498262e+02	-2.153543e+01
1.506916e+02	-2.158537e+01
1.515620e+02	-2.163428e+01
1.524374e+02	-2.168572e+01
1.533179e+02	-2.173412e+01
1.542034e+02	-2.178266e+01
1.550941e+02	-2.183394e+01
1.559899e+02	-2.188297e+01
1.568909e+02	-2.193201e+01
1.577971e+02	-2.198296e+01
1.587085e+02	-2.203196e+01
1.596252e+02	-2.208484e+01
1.605472e+02	-2.213151e+01
1.614745e+02	-2.218013e+01
1.624072e+02	-2.223108e+01
1.633453e+02	-2.228093e+01
1.642887e+02	-2.233073e+01
1.652377e+02	-2.238152e+01
1.661921e+02	-2.243087e+01
1.671520e+02	-2.248134e+01
1.681175e+02	-2.252955e+01
1.690885e+02	-2.257789e+01
1.700651e+02	-2.262974e+01
1.710474e+02	-2.268041e+01
1.720354e+02	-2.272795e+01
1.730291e+02	-2.277720e+01
1.740285e+02	-2.282798e+01
1.750337e+02	-2.288037e+01
1.760446e+02	-2.292909e+01
1.770615e+02	-2.298012e+01
1.780842e+02	-2.302613e+01
1.791128e+02	-2.307790e+01
1.801473e+02	-2.312868e+01
1.811878e+02	-2.317664e+01
1.822344e+02	-2.322536e+01
1.832870e+02	-2.327802e+01
1.843456e+02	-2.332865e+01
1.854104e+02	-2.337755e+01
1.864813e+02	-2.342508e+01
1.875584e+02	-2.347893e+01
1.886418e+02	-2.352430e+01
1.897313e+02	-2.357577e+01
1.908272e+02	-2.362521e+01
1.919294e+02	-2.367419e+01
1.930380e+02	-2.372386e+01
1.941530e+02	-2.377377e+01
1.952744e+02	-2.382179e+01
1.964023e+02	-2.387478e+01
1.975367e+02	-2.392501e+01
1.986777e+02	-2.397324e+01
1.998252e+02	-2.402557e+01
2.009794e+02	-2.407195e+01
2.021403e+02	-2.412395e+01
2.033078e+02	-2.417511e+01
2.044821e+02	-2.422649e+01
2.056632e+02	-2.427335e+01
2.068511e+02	-2.432211e+01
2.080459e+02	-2.437231e+01
2.092475e+02	-2.442294e+01
2.104561e+02	-2.447279e+01
2.116717e+02	-2.452433e+01
2.128943e+02	-2.457234e+01
2.141240e+02	-2.462424e+01
2.153608e+02	-2.467072e+01
2.166047e+02	-2.472282e+01
2.178558e+02	-2.477382e+01
2.191141e+02	-2.482339e+01
2.203797e+02	-2.487301e+01
2.216526e+02	-2.492146e+01
2.229329e+02	-2.497206e+01
2.242205e+02	-2.502106e+01
2.255156e+02	-2.507040e+01
2.268182e+02	-2.512315e+01
2.281283e+02	-2.517260e+01
2.294459e+02	-2.522321e+01
2.307712e+02	-2.527203e+01
2.321041e+02	-2.532297e+01
2.334447e+02	-2.537042e+01
2.347931e+02	-2.542120e+01
2.361493e+02	-2.547203e+01
2.375133e+02	-2.552120e+01
2.388851e+02	-2.557104e+01
2.402649e+02	-2.562023e+01
2.416527e+02	-2.566890e+01
2.430484e+02	-2.572477e+01
2.444523e+02	-2.576775e+01
2.458642e+02	-2.581912e+01
2.472843e+02	-2.586986e+01
2.487126e+02	-2.592262e+01
2.501492e+02	-2.597125e+01
2.515940e+02	-2.602128e+01
2.530472e+02	-2.607072e+01
2.545088e+02	-2.611655e+01
2.559789e+02	-2.616667e+01
2.574574e+02	-2.621969e+01
2.589444e+02	-2.627081e+01
2.604401e+02	-2.632073e+01
2.619444e+02	-2.637034e+01
2.634574e+02	-2.641856e+01
2.649791e+02	-2.646998e+01
2.665096e+02	-2.651811e+01
2.680489e+02	-2.656985e+01
2.695972e+02	-2.662019e+01
2.711544e+02	-2.667273e+01
2.727205e+02	-2.671874e+01
2.742958e+02	-2.676902e+01
2.758801e+02	-2.682067e+01
2.774736e+02	-2.686957e+01
2.790762e+02	-2.692180e+01
2.806882e+02	-2.696783e+01
2.823094e+02	-2.702117e+01
2.839400e+02	-2.706765e+01
2.855800e+02	-2.712340e+01
2.872295e+02	-2.716863e+01
2.888886e+02	-2.722019e+01
2.905572e+02	-2.727208e+01
2.922354e+02	-2.732125e+01
2.939234e+02	-2.736714e+01
2.956211e+02	-2.741888e+01
2.973286e+02	-2.747178e+01
2.990459e+02	-2.752179e+01
3.007732e+02	-2.756806e+01
3.025104e+02	-2.761915e+01
3.042577e+02	-2.766948e+01
3.060151e+02	-2.771805e+01
3.077826e+02	-2.776960e+01
3.095604e+02	-2.781966e+01
3.113484e+02	-2.787371e+01
3.131467e+02	-2.792055e+01
3.149554e+02	-2.796679e+01
3.167746e+02	-2.802226e+01
3.186043e+02	-2.807225e+01
3.204445e+02	-2.812299e+01
3.222954e+02	-2.816930e+01
3.241570e+02	-2.821663e+01
3.260293e+02	-2.827472e+01
3.279124e+02	-2.831858e+01
3.298064e+02	-2.837261e+01
3.317114e+02	-2.841749e+01
3.336273e+02	-2.847234e+01
3.355544e+02	-2.851841e+01
3.374925e+02	-2.856586e+01
3.394418e+02	-2.861996e+01
3.414024e+02	-2.867266e+01
3.433744e+02	-2.871745e+01
3.453577e+02	-2.877023e+01
3.473525e+02	-2.882176e+01
3.493588e+02	-2.887025e+01
3.513766e+02	-2.891967e+01
3.534062e+02	-2.896565e+01
3.554474e+02	-2.902520e+01
3.575005e+02	-2.907109e+01
3.595654e+02	-2.912515e+01
3.616422e+02	-2.917056e+01
3.637311e+02	-2.921996e+01
3.658320e+02	-2.926949e+01
3.679450e+02	-2.932225e+01
3.700702e+02	-2.937108e+01
3.722077e+02	-2.942213e+01
3.743576e+02	-2.946677e+01
3.765199e+02	-2.952009e+01
3.786946e+02	-2.957613e+01
3.808820e+02	-2.961744e+01
3.830819e+02	-2.967380e+01
3.852946e+02	-2.972556e+01
3.875200e+02	-2.977296e+01
3.897583e+02	-2.982318e+01
3.920096e+02	-2.987382e+01
3.942738e+02	-2.992230e+01
3.965511e+02	-2.997414e+01
3.988416e+02	-3.002198e+01
4.011452e+02	-3.007403e+01
4.034622e+02	-3.012020e+01
4.057926e+02	-3.017550e+01
4.081365e+02	-3.022272e+01
4.104938e+02	-3.027394e+01
4.128648e+02	-3.032048e+01
4.152495e+02	-3.037231e+01
4.176480e+02	-3.042224e+01
4.200603e+02	-3.047260e+01
4.224866e+02	-3.052700e+01
4.249268e+02	-3.057269e+01
4.273812e+02	-3.062105e+01
4.298497e+02	-3.067845e+01
4.323325e+02	-3.072540e+01
4.348297e+02	-3.077322e+01
4.373412e+02	-3.082449e+01
4.398673e+02	-3.087572e+01
4.424079e+02	-3.092148e+01
4.449633e+02	-3.097506e+01
4.475334e+02	-3.102268e+01
4.501183e+02	-3.107455e+01
4.527182e+02	-3.112883e+01
4.553330e+02	-3.117855e+01
4.579630e+02	-3.122514e+01
4.606082e+02	-3.128159e+01
4.632687e+02	-3.132542e+01
4.659445e+02	-3.138190e+01
4.686358e+02	-3.142404e+01
4.713426e+02	-3.147447e+01
4.740650e+02	-3.152763e+01
4.768032e+02	-3.157346e+01
4.795572e+02	-3.162211e+01
4.823271e+02	-3.168208e+01
4.851130e+02	-3.172793e+01
4.879150e+02	-3.177601e+01
4.907332e+02	-3.182553e+01
4.935676e+02	-3.187640e+01
4.964185e+02	-3.192920e+01
4.992858e+02	-3.197952e+01
5.021696e+02	-3.202993e+01
5.050701e+02	-3.208404e+01
5.079874e+02	-3.213063e+01
5.109215e+02	-3.218052e+01
5.138726e+02	-3.223833e+01
5.168407e+02	-3.228092e+01
5.198259e+02	-3.232990e+01
5.228284e+02	-3.237800e+01
5.258482e+02	-3.243712e+01
5.288855e+02	-3.248267e+01
5.319403e+02	-3.252831e+01
5.350128e+02	-3.258545e+01
5.381030e+02	-3.263509e+01
5.412111e+02	-3.268605e+01
5.443371e+02	-3.273454e+01
5.474812e+02	-3.278695e+01
5.506434e+02	-3.283244e+01
5.538239e+02	-3.288465e+01
5.570228e+02	-3.293201e+01
5.602401e+02	-3.298615e+01
5.634760e+02	-3.302795e+01
5.667306e+02	-3.308639e+01
5.700040e+02	-3.313395e+01
5.732964e+02	-3.318224e+01
5.766077e+02	-3.323789e+01
5.799382e+02	-3.328211e+01
5.832879e+02	-3.333305e+01
5.866569e+02	-3.338429e+01
5.900454e+02	-3.343686e+01
5.934535e+02	-3.348766e+01
5.968813e+02	-3.353351e+01
6.003288e+02	-3.359044e+01
6.037963e+02	-3.363765e+01
6.072838e+02	-3.369092e+01
6.107914e+02	-3.373545e+01
6.143194e+02	-3.378263e+01
6.178676e+02	-3.383310e+01
6.214364e+02	-3.389136e+01
6.250258e+02	-3.393912e+01
6.286359e+02	-3.398934e+01
6.322669e+02	-3.403045e+01
6.359189e+02	-3.409155e+01
6.395919e+02	-3.413856e+01
6.432862e+02	-3.418877e+01
6.470017e+02	-3.424650e+01
6.507388e+02	-3.429685e+01
6.544974e+02	-3.435033e+01
6.582778e+02	-3.439145e+01
6.620800e+02	-3.443759e+01
6.659041e+02	-3.449205e+01
6.697504e+02	-3.454083e+01
6.736188e+02	-3.459111e+01
6.775096e+02	-3.464432e+01
6.814229e+02	-3.468978e+01
6.853587e+02	-3.473649e+01
6.893173e+02	-3.479484e+01
6.932988e+02	-3.485158e+01
6.973033e+02	-3.489134e+01
7.013309e+02	-3.494596e+01
