Frequency(Hz)	Magnitude(dB)
1.000000e+01	-2.124448e+00
1.005776e+01	-2.143767e+00
1.011585e+01	-2.163480e+00
1.017428e+01	-2.183145e+00
1.023305e+01	-2.202912e+00
1.029215e+01	-2.222852e+00
1.035160e+01	-2.242925e+00
1.041139e+01	-2.263058e+00
1.047153e+01	-2.283562e+00
1.053201e+01	-2.304239e+00
1.059284e+01	-2.324828e+00
1.065403e+01	-2.345586e+00
1.071556e+01	-2.366804e+00
1.077746e+01	-2.387673e+00
1.083971e+01	-2.408863e+00
1.090232e+01	-2.430306e+00
1.096529e+01	-2.451797e+00
1.102862e+01	-2.473377e+00
1.109232e+01	-2.495544e+00
1.115639e+01	-2.517215e+00
1.122083e+01	-2.539318e+00
1.128564e+01	-2.561457e+00
1.135083e+01	-2.583817e+00
1.141639e+01	-2.606099e+00
1.148233e+01	-2.629061e+00
1.154865e+01	-2.652054e+00
1.161536e+01	-2.674711e+00
1.168245e+01	-2.697856e+00
1.174992e+01	-2.721086e+00
1.181779e+01	-2.744372e+00
1.188605e+01	-2.767799e+00
1.195470e+01	-2.791462e+00
1.202375e+01	-2.815337e+00
1.209320e+01	-2.838958e+00
1.216305e+01	-2.863130e+00
1.223330e+01	-2.887531e+00
1.230396e+01	-2.911805e+00
1.237503e+01	-2.936506e+00
1.244651e+01	-2.961161e+00
1.251840e+01	-2.985688e+00
1.259070e+01	-3.010939e+00
1.266343e+01	-3.035492e+00
1.273657e+01	-3.061123e+00
1.281014e+01	-3.086575e+00
1.288413e+01	-3.111911e+00
1.295855e+01	-3.137741e+00
1.303339e+01	-3.163513e+00
1.310867e+01	-3.189500e+00
1.318439e+01	-3.215450e+00
1.326054e+01	-3.241752e+00
1.333713e+01	-3.267863e+00
1.341417e+01	-3.294734e+00
1.349165e+01	-3.321381e+00
1.356958e+01	-3.348115e+00
1.364795e+01	-3.374871e+00
1.372678e+01	-3.402259e+00
1.380607e+01	-3.429266e+00
1.388581e+01	-3.456643e+00
1.396602e+01	-3.484336e+00
1.404668e+01	-3.512116e+00
1.412782e+01	-3.540000e+00
1.420942e+01	-3.567824e+00
1.429149e+01	-3.595879e+00
1.437404e+01	-3.624007e+00
1.445706e+01	-3.652628e+00
1.454057e+01	-3.680937e+00
1.462455e+01	-3.709627e+00
1.470902e+01	-3.738521e+00
1.479398e+01	-3.767295e+00
1.487943e+01	-3.796634e+00
1.496537e+01	-3.825507e+00
1.505181e+01	-3.855212e+00
1.513875e+01	-3.884759e+00
1.522619e+01	-3.914242e+00
1.531414e+01	-3.943952e+00
1.540259e+01	-3.974017e+00
1.549156e+01	-4.004234e+00
1.558103e+01	-4.034105e+00
1.567103e+01	-4.064628e+00
1.576155e+01	-4.095220e+00
1.585258e+01	-4.125588e+00
1.594415e+01	-4.156661e+00
1.603624e+01	-4.187358e+00
1.612886e+01	-4.218592e+00
1.622202e+01	-4.249334e+00
1.631572e+01	-4.280497e+00
1.640996e+01	-4.312281e+00
1.650474e+01	-4.343643e+00
1.660008e+01	-4.375419e+00
1.669596e+01	-4.407306e+00
1.679239e+01	-4.439564e+00
1.688938e+01	-4.471182e+00
1.698694e+01	-4.503481e+00
1.708505e+01	-4.535925e+00
1.718373e+01	-4.568331e+00
1.728299e+01	-4.601072e+00
1.738281e+01	-4.633848e+00
1.748322e+01	-4.666762e+00
1.758420e+01	-4.700046e+00
1.768576e+01	-4.732841e+00
1.778792e+01	-4.766015e+00
1.789066e+01	-4.799747e+00
1.799399e+01	-4.833028e+00
1.809793e+01	-4.866742e+00
1.820246e+01	-4.900665e+00
1.830760e+01	-4.934366e+00
1.841334e+01	-4.968122e+00
1.851969e+01	-5.002349e+00
1.862666e+01	-5.036846e+00
1.873425e+01	-5.071287e+00
1.884246e+01	-5.105907e+00
1.895129e+01	-5.140605e+00
1.906075e+01	-5.175063e+00
1.917085e+01	-5.210055e+00
1.928158e+01	-5.244907e+00
1.939295e+01	-5.280244e+00
1.950496e+01	-5.315184e+00
1.961762e+01	-5.350729e+00
1.973093e+01	-5.386550e+00
1.984490e+01	-5.421860e+00
1.995952e+01	-5.457389e+00
2.007480e+01	-5.493334e+00
2.019076e+01	-5.529441e+00
2.030738e+01	-5.565473e+00
2.042467e+01	-5.601448e+00
2.054264e+01	-5.638053e+00
2.066130e+01	-5.674273e+00
2.078064e+01	-5.710894e+00
2.090066e+01	-5.747614e+00
2.102139e+01	-5.784414e+00
2.114280e+01	-5.821248e+00
2.126492e+01	-5.858074e+00
2.138775e+01	-5.895378e+00
2.151128e+01	-5.932270e+00
2.163553e+01	-5.969959e+00
2.176050e+01	-6.007396e+00
2.188619e+01	-6.044875e+00
2.201260e+01	-6.082143e+00
2.213974e+01	-6.120390e+00
2.226762e+01	-6.158317e+00
2.239624e+01	-6.195909e+00
2.252560e+01	-6.233996e+00
2.265571e+01	-6.272247e+00
2.278656e+01	-6.310816e+00
2.291818e+01	-6.349021e+00
2.305055e+01	-6.387414e+00
2.318369e+01	-6.426022e+00
2.331760e+01	-6.464710e+00
2.345228e+01	-6.503409e+00
2.358774e+01	-6.542436e+00
2.372398e+01	-6.581181e+00
2.386101e+01	-6.620457e+00
2.399883e+01	-6.659365e+00
2.413745e+01	-6.698862e+00
2.427686e+01	-6.738260e+00
2.441709e+01	-6.777582e+00
2.455812e+01	-6.817601e+00
2.469997e+01	-6.856666e+00
2.484263e+01	-6.896569e+00
2.498612e+01	-6.936675e+00
2.513044e+01	-6.976520e+00
2.527559e+01	-7.016345e+00
2.542158e+01	-7.056582e+00
2.556842e+01	-7.097046e+00
2.571610e+01	-7.136971e+00
2.586463e+01	-7.177470e+00
2.601403e+01	-7.218228e+00
2.616428e+01	-7.258758e+00
2.631541e+01	-7.299419e+00
2.646740e+01	-7.340162e+00
2.662028e+01	-7.380802e+00
2.677404e+01	-7.422053e+00
2.692868e+01	-7.462756e+00
2.708422e+01	-7.504266e+00
2.724066e+01	-7.545048e+00
2.739800e+01	-7.586759e+00
2.755625e+01	-7.628006e+00
2.771541e+01	-7.669142e+00
2.787550e+01	-7.710426e+00
2.803650e+01	-7.752251e+00
2.819844e+01	-7.794005e+00
2.836131e+01	-7.835536e+00
2.852513e+01	-7.877333e+00
2.868989e+01	-7.919291e+00
2.885560e+01	-7.961633e+00
2.902227e+01	-8.003421e+00
2.918990e+01	-8.045279e+00
2.935850e+01	-8.087919e+00
2.952807e+01	-8.129673e+00
2.969863e+01	-8.172563e+00
2.987016e+01	-8.214909e+00
3.004269e+01	-8.257643e+00
3.021622e+01	-8.300261e+00
3.039075e+01	-8.342794e+00
3.056628e+01	-8.385762e+00
3.074283e+01	-8.428248e+00
3.092040e+01	-8.470848e+00
3.109900e+01	-8.513684e+00
3.127862e+01	-8.557131e+00
3.145929e+01	-8.599899e+00
3.164099e+01	-8.643251e+00
3.182375e+01	-8.686648e+00
3.200756e+01	-8.729810e+00
3.219244e+01	-8.773423e+00
3.237838e+01	-8.816100e+00
3.256540e+01	-8.860036e+00
3.275349e+01	-8.903684e+00
3.294268e+01	-8.947045e+00
3.313295e+01	-8.991250e+00
3.332433e+01	-9.034352e+00
3.351681e+01	-9.078305e+00
3.371040e+01	-9.122337e+00
3.390511e+01	-9.165948e+00
3.410094e+01	-9.210214e+00
3.429791e+01	-9.254719e+00
3.449601e+01	-9.299238e+00
3.469526e+01	-9.342679e+00
3.489566e+01	-9.386965e+00
3.509721e+01	-9.430931e+00
3.529993e+01	-9.475935e+00
3.550382e+01	-9.520322e+00
3.570889e+01	-9.564206e+00
3.591515e+01	-9.609442e+00
3.612259e+01	-9.653797e+00
3.633123e+01	-9.697996e+00
3.654108e+01	-9.742685e+00
3.675214e+01	-9.787635e+00
3.696442e+01	-9.832648e+00
3.717792e+01	-9.877312e+00
3.739266e+01	-9.922170e+00
3.760864e+01	-9.967293e+00
3.782587e+01	-1.001188e+01
3.804435e+01	-1.005731e+01
3.826409e+01	-1.010257e+01
3.848510e+01	-1.014694e+01
3.870739e+01	-1.019230e+01
3.893096e+01	-1.023780e+01
3.915583e+01	-1.028355e+01
3.938199e+01	-1.032876e+01
3.960946e+01	-1.037402e+01
3.983824e+01	-1.041931e+01
4.006834e+01	-1.046491e+01
4.029978e+01	-1.051075e+01
4.053255e+01	-1.055625e+01
4.076666e+01	-1.060210e+01
4.100213e+01	-1.064780e+01
4.123896e+01	-1.069321e+01
4.147715e+01	-1.073889e+01
4.171672e+01	-1.078524e+01
4.195767e+01	-1.083128e+01
4.220002e+01	-1.087679e+01
4.244377e+01	-1.092301e+01
4.268892e+01	-1.096887e+01
4.293549e+01	-1.101433e+01
4.318348e+01	-1.106056e+01
4.343291e+01	-1.110711e+01
4.368377e+01	-1.115314e+01
4.393609e+01	-1.119950e+01
4.418986e+01	-1.124532e+01
4.444510e+01	-1.129187e+01
4.470182e+01	-1.133841e+01
4.496001e+01	-1.138431e+01
4.521970e+01	-1.143079e+01
4.548089e+01	-1.147766e+01
4.574358e+01	-1.152379e+01
4.600779e+01	-1.156982e+01
4.627353e+01	-1.161699e+01
4.654081e+01	-1.166330e+01
4.680963e+01	-1.171003e+01
4.708000e+01	-1.175668e+01
4.735193e+01	-1.180389e+01
4.762543e+01	-1.184975e+01
4.790051e+01	-1.189690e+01
4.817719e+01	-1.194378e+01
4.845545e+01	-1.199058e+01
4.873533e+01	-1.203768e+01
4.901682e+01	-1.208480e+01
4.929994e+01	-1.213097e+01
4.958470e+01	-1.217785e+01
4.987110e+01	-1.222567e+01
5.015915e+01	-1.227325e+01
5.044887e+01	-1.231987e+01
5.074026e+01	-1.236665e+01
5.103333e+01	-1.241429e+01
5.132810e+01	-1.246130e+01
5.162457e+01	-1.250790e+01
5.192275e+01	-1.255558e+01
5.222265e+01	-1.260356e+01
5.252429e+01	-1.264973e+01
5.282767e+01	-1.269739e+01
5.313280e+01	-1.274438e+01
5.343969e+01	-1.279186e+01
5.374836e+01	-1.283964e+01
5.405880e+01	-1.288728e+01
5.437105e+01	-1.293485e+01
5.468509e+01	-1.298174e+01
5.500095e+01	-1.302928e+01
5.531863e+01	-1.307703e+01
5.563815e+01	-1.312475e+01
5.595951e+01	-1.317221e+01
5.628273e+01	-1.321947e+01
5.660782e+01	-1.326741e+01
5.693479e+01	-1.331516e+01
5.726364e+01	-1.336317e+01
5.759439e+01	-1.341084e+01
5.792705e+01	-1.345877e+01
5.826164e+01	-1.350616e+01
5.859815e+01	-1.355325e+01
5.893662e+01	-1.360154e+01
5.927703e+01	-1.364998e+01
5.961941e+01	-1.369684e+01
5.996377e+01	-1.374526e+01
6.031012e+01	-1.379294e+01
6.065847e+01	-1.384111e+01
6.100883e+01	-1.389023e+01
6.136121e+01	-1.393762e+01
6.171563e+01	-1.398481e+01
6.207210e+01	-1.403413e+01
6.243063e+01	-1.408066e+01
6.279122e+01	-1.412916e+01
6.315390e+01	-1.417790e+01
6.351868e+01	-1.422494e+01
6.388556e+01	-1.427388e+01
6.425456e+01	-1.432204e+01
6.462569e+01	-1.437046e+01
6.499897e+01	-1.441825e+01
6.537440e+01	-1.446626e+01
6.575200e+01	-1.451447e+01
6.613178e+01	-1.456249e+01
6.651375e+01	-1.461169e+01
6.689793e+01	-1.466040e+01
6.728433e+01	-1.470808e+01
6.767297e+01	-1.475569e+01
6.806384e+01	-1.480558e+01
6.845698e+01	-1.485303e+01
6.885238e+01	-1.490220e+01
6.925007e+01	-1.495068e+01
6.965005e+01	-1.499780e+01
7.005235e+01	-1.504654e+01
7.045697e+01	-1.509478e+01
7.086393e+01	-1.514380e+01
7.127323e+01	-1.519191e+01
7.168490e+01	-1.524075e+01
7.209895e+01	-1.528944e+01
7.251539e+01	-1.533663e+01
7.293424e+01	-1.538635e+01
7.335551e+01	-1.543597e+01
7.377920e+01	-1.548351e+01
7.420535e+01	-1.553193e+01
7.463396e+01	-1.558118e+01
7.506504e+01	-1.562893e+01
7.549861e+01	-1.567927e+01
7.593469e+01	-1.572738e+01
7.637328e+01	-1.577522e+01
7.681441e+01	-1.582472e+01
7.725809e+01	-1.587318e+01
7.770433e+01	-1.592109e+01
7.815315e+01	-1.597139e+01
7.860456e+01	-1.601974e+01
7.905857e+01	-1.606794e+01
7.951521e+01	-1.611758e+01
7.997449e+01	-1.616595e+01
8.043642e+01	-1.621488e+01
8.090102e+01	-1.626360e+01
8.136830e+01	-1.631247e+01
8.183828e+01	-1.636052e+01
8.231097e+01	-1.640989e+01
8.278640e+01	-1.645846e+01
8.326457e+01	-1.650765e+01
8.374550e+01	-1.655713e+01
8.422921e+01	-1.660531e+01
8.471572e+01	-1.665586e+01
8.520503e+01	-1.670305e+01
8.569717e+01	-1.675148e+01
8.619215e+01	-1.680060e+01
8.669000e+01	-1.685124e+01
8.719071e+01	-1.690014e+01
8.769432e+01	-1.694868e+01
8.820084e+01	-1.699793e+01
8.871029e+01	-1.704599e+01
8.922267e+01	-1.709596e+01
8.973802e+01	-1.714363e+01
9.025634e+01	-1.719375e+01
9.077766e+01	-1.724436e+01
9.130199e+01	-1.729229e+01
9.182935e+01	-1.734127e+01
9.235975e+01	-1.738995e+01
9.289321e+01	-1.743942e+01
9.342976e+01	-1.748967e+01
9.396941e+01	-1.753824e+01
9.451217e+01	-1.758747e+01
9.505807e+01	-1.763658e+01
9.560712e+01	-1.768542e+01
9.615934e+01	-1.773355e+01
9.671476e+01	-1.778351e+01
9.727338e+01	-1.783349e+01
9.783522e+01	-1.788186e+01
9.840032e+01	-1.792983e+01
9.896867e+01	-1.798010e+01
9.954031e+01	-1.803031e+01
1.001153e+02	-1.807739e+01
1.006935e+02	-1.812903e+01
1.012751e+02	-1.817731e+01
1.018601e+02	-1.822781e+01
1.024484e+02	-1.827532e+01
1.030402e+02	-1.832503e+01
1.036353e+02	-1.837377e+01
1.042339e+02	-1.842384e+01
1.048360e+02	-1.847301e+01
1.054415e+02	-1.852138e+01
1.060505e+02	-1.857023e+01
1.066631e+02	-1.861914e+01
1.072791e+02	-1.867020e+01
1.078988e+02	-1.871935e+01
1.085220e+02	-1.876874e+01
1.091488e+02	-1.881917e+01
1.097793e+02	-1.886841e+01
1.104133e+02	-1.891840e+01
1.110511e+02	-1.896604e+01
1.116925e+02	-1.901657e+01
1.123376e+02	-1.906699e+01
1.129865e+02	-1.911444e+01
1.136391e+02	-1.916445e+01
1.142955e+02	-1.921356e+01
1.149556e+02	-1.926219e+01
1.156196e+02	-1.931301e+01
1.162874e+02	-1.936350e+01
1.169591e+02	-1.941275e+01
1.176347e+02	-1.946125e+01
1.183141e+02	-1.951175e+01
1.189975e+02	-1.956006e+01
1.196848e+02	-1.961012e+01
1.203761e+02	-1.965921e+01
1.210714e+02	-1.970892e+01
1.217707e+02	-1.975826e+01
1.224740e+02	-1.980728e+01
1.231814e+02	-1.985642e+01
1.238929e+02	-1.990598e+01
1.246085e+02	-1.995568e+01
1.253283e+02	-2.000590e+01
1.260522e+02	-2.005534e+01
1.267802e+02	-2.010390e+01
1.275125e+02	-2.015281e+01
1.282490e+02	-2.020451e+01
1.289898e+02	-2.025328e+01
1.297348e+02	-2.030412e+01
1.304842e+02	-2.035270e+01
1.312378e+02	-2.040241e+01
1.319959e+02	-2.045003e+01
1.327583e+02	-2.050124e+01
1.335251e+02	-2.055078e+01
1.342963e+02	-2.060116e+01
1.350720e+02	-2.064913e+01
1.358522e+02	-2.069865e+01
1.366368e+02	-2.075013e+01
1.374260e+02	-2.079988e+01
1.382198e+02	-2.085064e+01
1.390182e+02	-2.089756e+01
1.398211e+02	-2.094856e+01
1.406287e+02	-2.099748e+01
1.414410e+02	-2.104785e+01
1.422579e+02	-2.109933e+01
1.430796e+02	-2.114634e+01
1.439060e+02	-2.119728e+01
1.447372e+02	-2.124470e+01
1.455732e+02	-2.129449e+01
1.464141e+02	-2.134446e+01
1.472597e+02	-2.139536e+01
1.481103e+02	-2.144459e+01
1.489658e+02	-2.149558e+01
1.498262e+02	-2.154338e+01
1.506916e+02	-2.159454e+01
1.515620e+02	-2.164373e+01
1.524374e+02	-2.169541e+01
1.533179e+02	-2.174288e+01
1.542034e+02	-2.179265e+01
1.550941e+02	-2.184284e+01
1.559899e+02	-2.189323e+01
1.568909e+02	-2.194066e+01
1.577971e+02	-2.199049e+01
1.587085e+02	-2.203946e+01
1.596252e+02	-2.209157e+01
1.605472e+02	-2.213961e+01
1.614745e+02	-2.219003e+01
1.624072e+02	-2.224095e+01
1.633453e+02	-2.228980e+01
1.642887e+02	-2.233987e+01
1.652377e+02	-2.238983e+01
1.661921e+02	-2.243870e+01
1.671520e+02	-2.249005e+01
1.681175e+02	-2.253995e+01
1.690885e+02	-2.258732e+01
1.700651e+02	-2.263752e+01
1.710474e+02	-2.268801e+01
1.720354e+02	-2.273573e+01
1.730291e+02	-2.278742e+01
1.740285e+02	-2.283659e+01
1.750337e+02	-2.288853e+01
1.760446e+02	-2.293746e+01
1.770615e+02	-2.298648e+01
1.780842e+02	-2.303610e+01
1.791128e+02	-2.308538e+01
1.801473e+02	-2.313660e+01
1.811878e+02	-2.318643e+01
1.822344e+02	-2.323504e+01
1.832870e+02	-2.328596e+01
1.843456e+02	-2.333475e+01
1.854104e+02	-2.338409e+01
1.864813e+02	-2.343622e+01
1.875584e+02	-2.348615e+01
1.886418e+02	-2.353475e+01
1.897313e+02	-2.358304e+01
1.908272e+02	-2.363446e+01
1.919294e+02	-2.368367e+01
1.930380e+02	-2.373177e+01
1.941530e+02	-2.378519e+01
1.952744e+02	-2.383502e+01
1.964023e+02	-2.388371e+01
1.975367e+02	-2.393250e+01
1.986777e+02	-2.398341e+01
1.998252e+02	-2.403238e+01
2.009794e+02	-2.408407e+01
2.021403e+02	-2.413103e+01
2.033078e+02	-2.418034e+01
2.044821e+02	-2.423241e+01
2.056632e+02	-2.428030e+01
2.068511e+02	-2.433216e+01
2.080459e+02	-2.438516e+01
2.092475e+02	-2.443128e+01
2.104561e+02	-2.448102e+01
2.116717e+02	-2.453094e+01
2.128943e+02	-2.458159e+01
2.141240e+02	-2.462913e+01
2.153608e+02	-2.468243e+01
2.166047e+02	-2.473278e+01
2.178558e+02	-2.477866e+01
2.191141e+02	-2.483174e+01
2.203797e+02	-2.488384e+01
2.216526e+02	-2.493056e+01
2.229329e+02	-2.498144e+01
2.242205e+02	-2.503303e+01
2.255156e+02	-2.508158e+01
2.268182e+02	-2.512928e+01
2.281283e+02	-2.518247e+01
2.294459e+02	-2.523321e+01
2.307712e+02	-2.528182e+01
2.321041e+02	-2.533026e+01
2.334447e+02	-2.537850e+01
2.347931e+02	-2.543169e+01
2.361493e+02	-2.548110e+01
2.375133e+02	-2.553108e+01
2.388851e+02	-2.557682e+01
2.402649e+02	-2.562938e+01
2.416527e+02	-2.567937e+01
2.430484e+02	-2.572984e+01
2.444523e+02	-2.578022e+01
2.458642e+02	-2.583156e+01
2.472843e+02	-2.587949e+01
2.487126e+02	-2.592995e+01
2.501492e+02	-2.598040e+01
2.515940e+02	-2.602909e+01
2.530472e+02	-2.607716e+01
2.545088e+02	-2.612891e+01
2.559789e+02	-2.617964e+01
2.574574e+02	-2.622810e+01
2.589444e+02	-2.627676e+01
2.604401e+02	-2.632662e+01
2.619444e+02	-2.637948e+01
2.634574e+02	-2.642769e+01
2.649791e+02	-2.648001e+01
2.665096e+02	-2.652693e+01
2.680489e+02	-2.657899e+01
2.695972e+02	-2.662619e+01
2.711544e+02	-2.667737e+01
2.727205e+02	-2.672986e+01
2.742958e+02	-2.677927e+01
2.758801e+02	-2.682990e+01
2.774736e+02	-2.687894e+01
2.790762e+02	-2.692410e+01
2.806882e+02	-2.697911e+01
2.823094e+02	-2.702915e+01
2.839400e+02	-2.707580e+01
2.855800e+02	-2.712908e+01
2.872295e+02	-2.717782e+01
2.888886e+02	-2.722778e+01
2.905572e+02	-2.727809e+01
2.922354e+02	-2.732840e+01
2.939234e+02	-2.738105e+01
2.956211e+02	-2.742808e+01
2.973286e+02	-2.748232e+01
2.990459e+02	-2.752647e+01
3.007732e+02	-2.757841e+01
3.025104e+02	-2.763000e+01
3.042577e+02	-2.767814e+01
3.060151e+02	-2.773124e+01
3.077826e+02	-2.777437e+01
3.095604e+02	-2.782811e+01
3.113484e+02	-2.787779e+01
3.131467e+02	-2.792580e+01
3.149554e+02	-2.797970e+01
3.167746e+02	-2.803013e+01
3.186043e+02	-2.808226e+01
3.204445e+02	-2.812823e+01
3.222954e+02	-2.818436e+01
3.241570e+02	-2.822762e+01
3.260293e+02	-2.827709e+01
3.279124e+02	-2.832875e+01
3.298064e+02	-2.837969e+01
3.317114e+02	-2.843033e+01
3.336273e+02	-2.848090e+01
3.355544e+02	-2.852705e+01
3.374925e+02	-2.858004e+01
3.394418e+02	-2.862775e+01
3.414024e+02	-2.867855e+01
3.433744e+02	-2.873082e+01
3.453577e+02	-2.877941e+01
3.473525e+02	-2.883122e+01
3.493588e+02	-2.888246e+01
3.513766e+02	-2.892853e+01
3.534062e+02	-2.897979e+01
3.554474e+02	-2.902726e+01
3.575005e+02	-2.908053e+01
3.595654e+02	-2.912850e+01
3.616422e+02	-2.917986e+01
3.637311e+02	-2.922813e+01
3.658320e+02	-2.928625e+01
3.679450e+02	-2.932738e+01
3.700702e+02	-2.938188e+01
3.722077e+02	-2.943239e+01
3.743576e+02	-2.948480e+01
3.765199e+02	-2.953086e+01
3.786946e+02	-2.958331e+01
3.808820e+02	-2.962637e+01
3.830819e+02	-2.968795e+01
3.852946e+02	-2.973367e+01
3.875200e+02	-2.978351e+01
3.897583e+02	-2.982915e+01
3.920096e+02	-2.988298e+01
3.942738e+02	-2.993403e+01
3.965511e+02	-2.997993e+01
3.988416e+02	-3.002602e+01
4.011452e+02	-3.008204e+01
4.034622e+02	-3.013657e+01
4.057926e+02	-3.018356e+01
4.081365e+02	-3.022970e+01
4.104938e+02	-3.028149e+01
4.128648e+02	-3.033227e+01
4.152495e+02	-3.038311e+01
4.176480e+02	-3.043202e+01
4.200603e+02	-3.048252e+01
4.224866e+02	-3.053207e+01
4.249268e+02	-3.058561e+01
4.273812e+02	-3.063116e+01
4.298497e+02	-3.068296e+01
4.323325e+02	-3.073249e+01
4.348297e+02	-3.078382e+01
4.373412e+02	-3.083615e+01
4.398673e+02	-3.087764e+01
4.424079e+02	-3.093603e+01
4.449633e+02	-3.098157e+01
4.475334e+02	-3.103244e+01
4.501183e+02	-3.108554e+01
4.527182e+02	-3.113431e+01
4.553330e+02	-3.117672e+01
4.579630e+02	-3.122899e+01
4.606082e+02	-3.129011e+01
4.632687e+02	-3.133733e+01
4.659445e+02	-3.138063e+01
4.686358e+02	-3.143080e+01
4.713426e+02	-3.148397e+01
4.740650e+02	-3.153741e+01
4.768032e+02	-3.158534e+01
4.795572e+02	-3.163642e+01
4.823271e+02	-3.168669e+01
4.851130e+02	-3.173561e+01
4.879150e+02	-3.177824e+01
4.907332e+02	-3.183849e+01
4.935676e+02	-3.188958e+01
4.964185e+02	-3.193631e+01
4.992858e+02	-3.198239e+01
5.021696e+02	-3.204127e+01
5.050701e+02	-3.208695e+01
5.079874e+02	-3.214184e+01
5.109215e+02	-3.219070e+01
5.138726e+02	-3.224439e+01
5.168407e+02	-3.228664e+01
5.198259e+02	-3.234683e+01
5.228284e+02	-3.238593e+01
5.258482e+02	-3.243698e+01
5.288855e+02	-3.248423e+01
5.319403e+02	-3.253504e+01
5.350128e+02	-3.258902e+01
5.381030e+02	-3.264007e+01
5.412111e+02	-3.268720e+01
5.443371e+02	-3.273875e+01
5.474812e+02	-3.278126e+01
5.506434e+02	-3.284232e+01
5.538239e+02	-3.288924e+01
5.570228e+02	-3.293527e+01
5.602401e+02	-3.299128e+01
5.634760e+02	-3.303921e+01
5.667306e+02	-3.309768e+01
5.700040e+02	-3.314920e+01
5.732964e+02	-3.319648e+01
5.766077e+02	-3.324870e+01
5.799382e+02	-3.329909e+01
5.832879e+02	-3.334520e+01
5.866569e+02	-3.339754e+01
5.900454e+02	-3.344154e+01
5.934535e+02	-3.350227e+01
5.968813e+02	-3.354904e+01
6.003288e+02	-3.359826e+01
6.037963e+02	-3.365106e+01
6.072838e+02	-3.369219e+01
6.107914e+02	-3.374654e+01
6.143194e+02	-3.380183e+01
6.178676e+02	-3.385028e+01
6.214364e+02	-3.389368e+01
6.250258e+02	-3.395150e+01
6.286359e+02	-3.399285e+01
6.322669e+02	-3.405108e+01
6.359189e+02	-3.410220e+01
6.395919e+02	-3.415149e+01
6.432862e+02	-3.420296e+01
6.470017e+02	-3.424564e+01
6.507388e+02	-3.429466e+01
6.544974e+02	-3.434789e+01
6.582778e+02	-3.439861e+01
6.620800e+02	-3.445209e+01
6.659041e+02	-3.450296e+01
6.697504e+02	-3.454860e+01
6.736188e+02	-3.459853e+01
6.775096e+02	-3.465016e+01
6.814229e+02	-3.468973e+01
6.853587e+02	-3.475167e+01
6.893173e+02	-3.479900e+01
6.932988e+02	-3.485177e+01
6.973033e+02	-3.490928e+01
7.013309e+02	-3.494468e+01
