Frequency(Hz)	Magnitude(dB)
1.000000e+01	-1.762935e-05
1.005776e+01	-1.783359e-05
1.011585e+01	-1.804020e-05
1.017428e+01	-1.824920e-05
1.023305e+01	-1.846062e-05
1.029215e+01	-1.867449e-05
1.035160e+01	-1.889084e-05
1.041139e+01	-1.910969e-05
1.047153e+01	-1.933108e-05
1.053201e+01	-1.955504e-05
1.059284e+01	-1.978159e-05
1.065403e+01	-2.001076e-05
1.071556e+01	-2.024259e-05
1.077746e+01	-2.047711e-05
1.083971e+01	-2.071434e-05
1.090232e+01	-2.095432e-05
1.096529e+01	-2.119708e-05
1.102862e+01	-2.144266e-05
1.109232e+01	-2.169107e-05
1.115639e+01	-2.194237e-05
1.122083e+01	-2.219658e-05
1.128564e+01	-2.245373e-05
1.135083e+01	-2.271386e-05
1.141639e+01	-2.297701e-05
1.148233e+01	-2.324320e-05
1.154865e+01	-2.351248e-05
1.161536e+01	-2.378488e-05
1.168245e+01	-2.406043e-05
1.174992e+01	-2.433918e-05
1.181779e+01	-2.462116e-05
1.188605e+01	-2.490640e-05
1.195470e+01	-2.519494e-05
1.202375e+01	-2.548683e-05
1.209320e+01	-2.578211e-05
1.216305e+01	-2.608080e-05
1.223330e+01	-2.638295e-05
1.230396e+01	-2.668860e-05
1.237503e+01	-2.699780e-05
1.244651e+01	-2.731057e-05
1.251840e+01	-2.762697e-05
1.259070e+01	-2.794704e-05
1.266343e+01	-2.827081e-05
1.273657e+01	-2.859834e-05
1.281014e+01	-2.892965e-05
1.288413e+01	-2.926481e-05
1.295855e+01	-2.960385e-05
1.303339e+01	-2.994682e-05
1.310867e+01	-3.029376e-05
1.318439e+01	-3.064472e-05
1.326054e+01	-3.099975e-05
1.333713e+01	-3.135889e-05
1.341417e+01	-3.172219e-05
1.349165e+01	-3.208969e-05
1.356958e+01	-3.246146e-05
1.364795e+01	-3.283754e-05
1.372678e+01	-3.321797e-05
1.380607e+01	-3.360280e-05
1.388581e+01	-3.399210e-05
1.396602e+01	-3.438591e-05
1.404668e+01	-3.478428e-05
1.412782e+01	-3.518726e-05
1.420942e+01	-3.559491e-05
1.429149e+01	-3.600729e-05
1.437404e+01	-3.642444e-05
1.445706e+01	-3.684643e-05
1.454057e+01	-3.727330e-05
1.462455e+01	-3.770512e-05
1.470902e+01	-3.814194e-05
1.479398e+01	-3.858383e-05
1.487943e+01	-3.903083e-05
1.496537e+01	-3.948301e-05
1.505181e+01	-3.994043e-05
1.513875e+01	-4.040315e-05
1.522619e+01	-4.087123e-05
1.531414e+01	-4.134473e-05
1.540259e+01	-4.182372e-05
1.549156e+01	-4.230825e-05
1.558103e+01	-4.279840e-05
1.567103e+01	-4.329423e-05
1.576155e+01	-4.379581e-05
1.585258e+01	-4.430319e-05
1.594415e+01	-4.481645e-05
1.603624e+01	-4.533566e-05
1.612886e+01	-4.586089e-05
1.622202e+01	-4.639219e-05
1.631572e+01	-4.692966e-05
1.640996e+01	-4.747335e-05
1.650474e+01	-4.802334e-05
1.660008e+01	-4.857970e-05
1.669596e+01	-4.914250e-05
1.679239e+01	-4.971183e-05
1.688938e+01	-5.028775e-05
1.698694e+01	-5.087035e-05
1.708505e+01	-5.145969e-05
1.718373e+01	-5.205586e-05
1.728299e+01	-5.265894e-05
1.738281e+01	-5.326900e-05
1.748322e+01	-5.388614e-05
1.758420e+01	-5.451042e-05
1.768576e+01	-5.514193e-05
1.778792e+01	-5.578076e-05
1.789066e+01	-5.642700e-05
1.799399e+01	-5.708071e-05
1.809793e+01	-5.774200e-05
1.820246e+01	-5.841096e-05
1.830760e+01	-5.908766e-05
1.841334e+01	-5.977220e-05
1.851969e+01	-6.046468e-05
1.862666e+01	-6.116517e-05
1.873425e+01	-6.187378e-05
1.884246e+01	-6.259060e-05
1.895129e+01	-6.331573e-05
1.906075e+01	-6.404925e-05
1.917085e+01	-6.479127e-05
1.928158e+01	-6.554189e-05
1.939295e+01	-6.630121e-05
1.950496e+01	-6.706932e-05
1.961762e+01	-6.784633e-05
1.973093e+01	-6.863234e-05
1.984490e+01	-6.942746e-05
1.995952e+01	-7.023179e-05
2.007480e+01	-7.104544e-05
2.019076e+01	-7.186852e-05
2.030738e+01	-7.270113e-05
2.042467e+01	-7.354338e-05
2.054264e+01	-7.439539e-05
2.066130e+01	-7.525728e-05
2.078064e+01	-7.612915e-05
2.090066e+01	-7.701112e-05
2.102139e+01	-7.790330e-05
2.114280e+01	-7.880583e-05
2.126492e+01	-7.971881e-05
2.138775e+01	-8.064236e-05
2.151128e+01	-8.157662e-05
2.163553e+01	-8.252170e-05
2.176050e+01	-8.347773e-05
2.188619e+01	-8.444483e-05
2.201260e+01	-8.542314e-05
2.213974e+01	-8.641278e-05
2.226762e+01	-8.741388e-05
2.239624e+01	-8.842659e-05
2.252560e+01	-8.945102e-05
2.265571e+01	-9.048733e-05
2.278656e+01	-9.153564e-05
2.291818e+01	-9.259609e-05
2.305055e+01	-9.366883e-05
2.318369e+01	-9.475400e-05
2.331760e+01	-9.585174e-05
2.345228e+01	-9.696220e-05
2.358774e+01	-9.808552e-05
2.372398e+01	-9.922185e-05
2.386101e+01	-1.003714e-04
2.399883e+01	-1.015342e-04
2.413745e+01	-1.027105e-04
2.427686e+01	-1.039004e-04
2.441709e+01	-1.051041e-04
2.455812e+01	-1.063217e-04
2.469997e+01	-1.075535e-04
2.484263e+01	-1.087995e-04
2.498612e+01	-1.100599e-04
2.513044e+01	-1.113350e-04
2.527559e+01	-1.126248e-04
2.542158e+01	-1.139296e-04
2.556842e+01	-1.152495e-04
2.571610e+01	-1.165847e-04
2.586463e+01	-1.179353e-04
2.601403e+01	-1.193016e-04
2.616428e+01	-1.206837e-04
2.631541e+01	-1.220819e-04
2.646740e+01	-1.234962e-04
2.662028e+01	-1.249269e-04
2.677404e+01	-1.263742e-04
2.692868e+01	-1.278383e-04
2.708422e+01	-1.293193e-04
2.724066e+01	-1.308175e-04
2.739800e+01	-1.323330e-04
2.755625e+01	-1.338661e-04
2.771541e+01	-1.354170e-04
2.787550e+01	-1.369858e-04
2.803650e+01	-1.385728e-04
2.819844e+01	-1.401781e-04
2.836131e+01	-1.418021e-04
2.852513e+01	-1.434449e-04
2.868989e+01	-1.451067e-04
2.885560e+01	-1.467878e-04
2.902227e+01	-1.484884e-04
2.918990e+01	-1.502086e-04
2.935850e+01	-1.519488e-04
2.952807e+01	-1.537091e-04
2.969863e+01	-1.554899e-04
2.987016e+01	-1.572912e-04
3.004269e+01	-1.591134e-04
3.021622e+01	-1.609568e-04
3.039075e+01	-1.628215e-04
3.056628e+01	-1.647078e-04
3.074283e+01	-1.666159e-04
3.092040e+01	-1.685462e-04
3.109900e+01	-1.704988e-04
3.127862e+01	-1.724740e-04
3.145929e+01	-1.744721e-04
3.164099e+01	-1.764934e-04
3.182375e+01	-1.785381e-04
3.200756e+01	-1.806065e-04
3.219244e+01	-1.826988e-04
3.237838e+01	-1.848154e-04
3.256540e+01	-1.869565e-04
3.275349e+01	-1.891224e-04
3.294268e+01	-1.913133e-04
3.313295e+01	-1.935297e-04
3.332433e+01	-1.957718e-04
3.351681e+01	-1.980398e-04
3.371040e+01	-2.003341e-04
3.390511e+01	-2.026549e-04
3.410094e+01	-2.050027e-04
3.429791e+01	-2.073777e-04
3.449601e+01	-2.097801e-04
3.469526e+01	-2.122104e-04
3.489566e+01	-2.146689e-04
3.509721e+01	-2.171558e-04
3.529993e+01	-2.196716e-04
3.550382e+01	-2.222165e-04
3.570889e+01	-2.247908e-04
3.591515e+01	-2.273950e-04
3.612259e+01	-2.300294e-04
3.633123e+01	-2.326943e-04
3.654108e+01	-2.353900e-04
3.675214e+01	-2.381170e-04
3.696442e+01	-2.408756e-04
3.717792e+01	-2.436661e-04
3.739266e+01	-2.464890e-04
3.760864e+01	-2.493446e-04
3.782587e+01	-2.522332e-04
3.804435e+01	-2.551553e-04
3.826409e+01	-2.581113e-04
3.848510e+01	-2.611015e-04
3.870739e+01	-2.641263e-04
3.893096e+01	-2.671862e-04
3.915583e+01	-2.702815e-04
3.938199e+01	-2.734127e-04
3.960946e+01	-2.765802e-04
3.983824e+01	-2.797843e-04
4.006834e+01	-2.830256e-04
4.029978e+01	-2.863044e-04
4.053255e+01	-2.896212e-04
4.076666e+01	-2.929764e-04
4.100213e+01	-2.963705e-04
4.123896e+01	-2.998040e-04
4.147715e+01	-3.032772e-04
4.171672e+01	-3.067906e-04
4.195767e+01	-3.103447e-04
4.220002e+01	-3.139400e-04
4.244377e+01	-3.175770e-04
4.268892e+01	-3.212560e-04
4.293549e+01	-3.249777e-04
4.318348e+01	-3.287426e-04
4.343291e+01	-3.325510e-04
4.368377e+01	-3.364035e-04
4.393609e+01	-3.403007e-04
4.418986e+01	-3.442430e-04
4.444510e+01	-3.482310e-04
4.470182e+01	-3.522652e-04
4.496001e+01	-3.563461e-04
4.521970e+01	-3.604743e-04
4.548089e+01	-3.646503e-04
4.574358e+01	-3.688747e-04
4.600779e+01	-3.731481e-04
4.627353e+01	-3.774709e-04
4.654081e+01	-3.818438e-04
4.680963e+01	-3.862674e-04
4.708000e+01	-3.907422e-04
4.735193e+01	-3.952689e-04
4.762543e+01	-3.998479e-04
4.790051e+01	-4.044801e-04
4.817719e+01	-4.091659e-04
4.845545e+01	-4.139059e-04
4.873533e+01	-4.187009e-04
4.901682e+01	-4.235515e-04
4.929994e+01	-4.284582e-04
4.958470e+01	-4.334217e-04
4.987110e+01	-4.384428e-04
5.015915e+01	-4.435220e-04
5.044887e+01	-4.486601e-04
5.074026e+01	-4.538577e-04
5.103333e+01	-4.591154e-04
5.132810e+01	-4.644341e-04
5.162457e+01	-4.698144e-04
5.192275e+01	-4.752571e-04
5.222265e+01	-4.807628e-04
5.252429e+01	-4.863322e-04
5.282767e+01	-4.919662e-04
5.313280e+01	-4.976654e-04
5.343969e+01	-5.034307e-04
5.374836e+01	-5.092627e-04
5.405880e+01	-5.151623e-04
5.437105e+01	-5.211303e-04
5.468509e+01	-5.271673e-04
5.500095e+01	-5.332743e-04
5.531863e+01	-5.394521e-04
5.563815e+01	-5.457014e-04
5.595951e+01	-5.520231e-04
5.628273e+01	-5.584180e-04
5.660782e+01	-5.648870e-04
5.693479e+01	-5.714310e-04
5.726364e+01	-5.780507e-04
5.759439e+01	-5.847471e-04
5.792705e+01	-5.915211e-04
5.826164e+01	-5.983736e-04
5.859815e+01	-6.053054e-04
5.893662e+01	-6.123176e-04
5.927703e+01	-6.194109e-04
5.961941e+01	-6.265865e-04
5.996377e+01	-6.338451e-04
6.031012e+01	-6.411878e-04
6.065847e+01	-6.486156e-04
6.100883e+01	-6.561294e-04
6.136121e+01	-6.637303e-04
6.171563e+01	-6.714192e-04
6.207210e+01	-6.791972e-04
6.243063e+01	-6.870652e-04
6.279122e+01	-6.950244e-04
6.315390e+01	-7.030758e-04
6.351868e+01	-7.112205e-04
6.388556e+01	-7.194595e-04
6.425456e+01	-7.277939e-04
6.462569e+01	-7.362249e-04
6.499897e+01	-7.447536e-04
6.537440e+01	-7.533810e-04
6.575200e+01	-7.621083e-04
6.613178e+01	-7.709368e-04
6.651375e+01	-7.798675e-04
6.689793e+01	-7.889017e-04
6.728433e+01	-7.980405e-04
6.767297e+01	-8.072851e-04
6.806384e+01	-8.166369e-04
6.845698e+01	-8.260969e-04
6.885238e+01	-8.356666e-04
6.925007e+01	-8.453471e-04
6.965005e+01	-8.551397e-04
7.005235e+01	-8.650457e-04
7.045697e+01	-8.750665e-04
7.086393e+01	-8.852033e-04
7.127323e+01	-8.954576e-04
7.168490e+01	-9.058306e-04
7.209895e+01	-9.163238e-04
7.251539e+01	-9.269386e-04
7.293424e+01	-9.376762e-04
7.335551e+01	-9.485383e-04
7.377920e+01	-9.595261e-04
7.420535e+01	-9.706413e-04
7.463396e+01	-9.818851e-04
7.506504e+01	-9.932593e-04
7.549861e+01	-1.004765e-03
7.593469e+01	-1.016404e-03
7.637328e+01	-1.028178e-03
7.681441e+01	-1.040088e-03
7.725809e+01	-1.052137e-03
7.770433e+01	-1.064324e-03
7.815315e+01	-1.076653e-03
7.860456e+01	-1.089125e-03
7.905857e+01	-1.101741e-03
7.951521e+01	-1.114504e-03
7.997449e+01	-1.127414e-03
8.043642e+01	-1.140474e-03
8.090102e+01	-1.153685e-03
8.136830e+01	-1.167048e-03
8.183828e+01	-1.180567e-03
8.231097e+01	-1.194243e-03
8.278640e+01	-1.208076e-03
8.326457e+01	-1.222070e-03
8.374550e+01	-1.236226e-03
8.422921e+01	-1.250546e-03
8.471572e+01	-1.265032e-03
8.520503e+01	-1.279685e-03
8.569717e+01	-1.294509e-03
8.619215e+01	-1.309504e-03
8.669000e+01	-1.324672e-03
8.719071e+01	-1.340017e-03
8.769432e+01	-1.355539e-03
8.820084e+01	-1.371241e-03
8.871029e+01	-1.387124e-03
8.922267e+01	-1.403192e-03
8.973802e+01	-1.419446e-03
9.025634e+01	-1.435887e-03
9.077766e+01	-1.452520e-03
9.130199e+01	-1.469345e-03
9.182935e+01	-1.486365e-03
9.235975e+01	-1.503582e-03
9.289321e+01	-1.520998e-03
9.342976e+01	-1.538616e-03
9.396941e+01	-1.556438e-03
9.451217e+01	-1.574467e-03
9.505807e+01	-1.592704e-03
9.560712e+01	-1.611152e-03
9.615934e+01	-1.629814e-03
9.671476e+01	-1.648693e-03
9.727338e+01	-1.667790e-03
9.783522e+01	-1.687108e-03
9.840032e+01	-1.706649e-03
9.896867e+01	-1.726417e-03
9.954031e+01	-1.746414e-03
1.001153e+02	-1.766643e-03
1.006935e+02	-1.787106e-03
1.012751e+02	-1.807806e-03
1.018601e+02	-1.828745e-03
1.024484e+02	-1.849927e-03
1.030402e+02	-1.871354e-03
1.036353e+02	-1.893030e-03
1.042339e+02	-1.914956e-03
1.048360e+02	-1.937136e-03
1.054415e+02	-1.959574e-03
1.060505e+02	-1.982271e-03
1.066631e+02	-2.005230e-03
1.072791e+02	-2.028456e-03
1.078988e+02	-2.051951e-03
1.085220e+02	-2.075718e-03
1.091488e+02	-2.099759e-03
1.097793e+02	-2.124080e-03
1.104133e+02	-2.148682e-03
1.110511e+02	-2.173569e-03
1.116925e+02	-2.198744e-03
1.123376e+02	-2.224210e-03
1.129865e+02	-2.249971e-03
1.136391e+02	-2.276031e-03
1.142955e+02	-2.302393e-03
1.149556e+02	-2.329059e-03
1.156196e+02	-2.356035e-03
1.162874e+02	-2.383322e-03
1.169591e+02	-2.410926e-03
1.176347e+02	-2.438850e-03
1.183141e+02	-2.467096e-03
1.189975e+02	-2.495670e-03
1.196848e+02	-2.524575e-03
1.203761e+02	-2.553814e-03
1.210714e+02	-2.583392e-03
1.217707e+02	-2.613312e-03
1.224740e+02	-2.643579e-03
1.231814e+02	-2.674196e-03
1.238929e+02	-2.705167e-03
1.246085e+02	-2.736498e-03
1.253283e+02	-2.768190e-03
1.260522e+02	-2.800250e-03
1.267802e+02	-2.832681e-03
1.275125e+02	-2.865488e-03
1.282490e+02	-2.898674e-03
1.289898e+02	-2.932245e-03
1.297348e+02	-2.966204e-03
1.304842e+02	-3.000556e-03
1.312378e+02	-3.035306e-03
1.319959e+02	-3.070459e-03
1.327583e+02	-3.106018e-03
1.335251e+02	-3.141989e-03
1.342963e+02	-3.178377e-03
1.350720e+02	-3.215185e-03
1.358522e+02	-3.252420e-03
1.366368e+02	-3.290086e-03
1.374260e+02	-3.328188e-03
1.382198e+02	-3.366731e-03
1.390182e+02	-3.405720e-03
1.398211e+02	-3.445160e-03
1.406287e+02	-3.485057e-03
1.414410e+02	-3.525416e-03
1.422579e+02	-3.566242e-03
1.430796e+02	-3.607541e-03
1.439060e+02	-3.649318e-03
1.447372e+02	-3.691578e-03
1.455732e+02	-3.734327e-03
1.464141e+02	-3.777572e-03
1.472597e+02	-3.821317e-03
1.481103e+02	-3.865568e-03
1.489658e+02	-3.910331e-03
1.498262e+02	-3.955613e-03
1.506916e+02	-4.001418e-03
1.515620e+02	-4.047754e-03
1.524374e+02	-4.094626e-03
1.533179e+02	-4.142041e-03
1.542034e+02	-4.190005e-03
1.550941e+02	-4.238523e-03
1.559899e+02	-4.287603e-03
1.568909e+02	-4.337251e-03
1.577971e+02	-4.387474e-03
1.587085e+02	-4.438278e-03
1.596252e+02	-4.489670e-03
1.605472e+02	-4.541657e-03
1.614745e+02	-4.594245e-03
1.624072e+02	-4.647442e-03
1.633453e+02	-4.701255e-03
1.642887e+02	-4.755690e-03
1.652377e+02	-4.810756e-03
1.661921e+02	-4.866458e-03
1.671520e+02	-4.922805e-03
1.681175e+02	-4.979804e-03
1.690885e+02	-5.037463e-03
1.700651e+02	-5.095789e-03
1.710474e+02	-5.154790e-03
1.720354e+02	-5.214474e-03
1.730291e+02	-5.274848e-03
1.740285e+02	-5.335921e-03
1.750337e+02	-5.397700e-03
1.760446e+02	-5.460195e-03
1.770615e+02	-5.523412e-03
1.780842e+02	-5.587361e-03
1.791128e+02	-5.652050e-03
1.801473e+02	-5.717487e-03
1.811878e+02	-5.783681e-03
1.822344e+02	-5.850642e-03
1.832870e+02	-5.918377e-03
1.843456e+02	-5.986895e-03
1.854104e+02	-6.056206e-03
1.864813e+02	-6.126319e-03
1.875584e+02	-6.197244e-03
1.886418e+02	-6.268988e-03
1.897313e+02	-6.341563e-03
1.908272e+02	-6.414977e-03
1.919294e+02	-6.489241e-03
1.930380e+02	-6.564363e-03
1.941530e+02	-6.640355e-03
1.952744e+02	-6.717225e-03
1.964023e+02	-6.794985e-03
1.975367e+02	-6.873644e-03
1.986777e+02	-6.953213e-03
1.998252e+02	-7.033703e-03
2.009794e+02	-7.115123e-03
2.021403e+02	-7.197485e-03
2.033078e+02	-7.280800e-03
2.044821e+02	-7.365078e-03
2.056632e+02	-7.450331e-03
2.068511e+02	-7.536570e-03
2.080459e+02	-7.623806e-03
2.092475e+02	-7.712051e-03
2.104561e+02	-7.801317e-03
2.116717e+02	-7.891615e-03
2.128943e+02	-7.982957e-03
2.141240e+02	-8.075355e-03
2.153608e+02	-8.168822e-03
2.166047e+02	-8.263369e-03
2.178558e+02	-8.359010e-03
2.191141e+02	-8.455757e-03
2.203797e+02	-8.553622e-03
2.216526e+02	-8.652619e-03
2.229329e+02	-8.752761e-03
2.242205e+02	-8.854060e-03
2.255156e+02	-8.956530e-03
2.268182e+02	-9.060186e-03
2.281283e+02	-9.165039e-03
2.294459e+02	-9.271105e-03
2.307712e+02	-9.378396e-03
2.321041e+02	-9.486929e-03
2.334447e+02	-9.596715e-03
2.347931e+02	-9.707771e-03
2.361493e+02	-9.820110e-03
2.375133e+02	-9.933748e-03
2.388851e+02	-1.004870e-02
2.402649e+02	-1.016498e-02
2.416527e+02	-1.028260e-02
2.430484e+02	-1.040159e-02
2.444523e+02	-1.052195e-02
2.458642e+02	-1.064370e-02
2.472843e+02	-1.076685e-02
2.487126e+02	-1.089143e-02
2.501492e+02	-1.101745e-02
2.515940e+02	-1.114493e-02
2.530472e+02	-1.127388e-02
2.545088e+02	-1.140431e-02
2.559789e+02	-1.153626e-02
2.574574e+02	-1.166973e-02
2.589444e+02	-1.180474e-02
2.604401e+02	-1.194132e-02
2.619444e+02	-1.207947e-02
2.634574e+02	-1.221921e-02
2.649791e+02	-1.236057e-02
2.665096e+02	-1.250357e-02
2.680489e+02	-1.264821e-02
2.695972e+02	-1.279453e-02
2.711544e+02	-1.294253e-02
2.727205e+02	-1.309225e-02
2.742958e+02	-1.324369e-02
2.758801e+02	-1.339689e-02
2.774736e+02	-1.355185e-02
2.790762e+02	-1.370860e-02
2.806882e+02	-1.386717e-02
2.823094e+02	-1.402756e-02
2.839400e+02	-1.418981e-02
2.855800e+02	-1.435393e-02
2.872295e+02	-1.451994e-02
2.888886e+02	-1.468788e-02
2.905572e+02	-1.485775e-02
2.922354e+02	-1.502958e-02
2.939234e+02	-1.520339e-02
2.956211e+02	-1.537922e-02
2.973286e+02	-1.555707e-02
2.990459e+02	-1.573697e-02
3.007732e+02	-1.591895e-02
3.025104e+02	-1.610304e-02
3.042577e+02	-1.628924e-02
3.060151e+02	-1.647760e-02
3.077826e+02	-1.666813e-02
3.095604e+02	-1.686086e-02
3.113484e+02	-1.705581e-02
3.131467e+02	-1.725301e-02
3.149554e+02	-1.745249e-02
3.167746e+02	-1.765427e-02
3.186043e+02	-1.785838e-02
3.204445e+02	-1.806484e-02
3.222954e+02	-1.827368e-02
3.241570e+02	-1.848494e-02
3.260293e+02	-1.869863e-02
3.279124e+02	-1.891478e-02
3.298064e+02	-1.913343e-02
3.317114e+02	-1.935460e-02
3.336273e+02	-1.957832e-02
3.355544e+02	-1.980462e-02
3.374925e+02	-2.003353e-02
3.394418e+02	-2.026508e-02
3.414024e+02	-2.049930e-02
3.433744e+02	-2.073622e-02
3.453577e+02	-2.097587e-02
3.473525e+02	-2.121829e-02
3.493588e+02	-2.146350e-02
3.513766e+02	-2.171154e-02
3.534062e+02	-2.196243e-02
3.554474e+02	-2.221622e-02
3.575005e+02	-2.247293e-02
3.595654e+02	-2.273260e-02
3.616422e+02	-2.299527e-02
3.637311e+02	-2.326096e-02
3.658320e+02	-2.352971e-02
3.679450e+02	-2.380156e-02
3.700702e+02	-2.407654e-02
3.722077e+02	-2.435469e-02
3.743576e+02	-2.463604e-02
3.765199e+02	-2.492063e-02
3.786946e+02	-2.520850e-02
3.808820e+02	-2.549969e-02
3.830819e+02	-2.579423e-02
3.852946e+02	-2.609216e-02
3.875200e+02	-2.639353e-02
3.897583e+02	-2.669836e-02
3.920096e+02	-2.700670e-02
3.942738e+02	-2.731859e-02
3.965511e+02	-2.763408e-02
3.988416e+02	-2.795319e-02
4.011452e+02	-2.827598e-02
4.034622e+02	-2.860248e-02
4.057926e+02	-2.893274e-02
4.081365e+02	-2.926680e-02
4.104938e+02	-2.960471e-02
4.128648e+02	-2.994650e-02
4.152495e+02	-3.029222e-02
4.176480e+02	-3.064192e-02
4.200603e+02	-3.099565e-02
4.224866e+02	-3.135344e-02
4.249268e+02	-3.171535e-02
4.273812e+02	-3.208142e-02
4.298497e+02	-3.245170e-02
4.323325e+02	-3.282623e-02
4.348297e+02	-3.320508e-02
4.373412e+02	-3.358827e-02
4.398673e+02	-3.397588e-02
4.424079e+02	-3.436793e-02
4.449633e+02	-3.476450e-02
4.475334e+02	-3.516562e-02
4.501183e+02	-3.557135e-02
4.527182e+02	-3.598174e-02
4.553330e+02	-3.639685e-02
4.579630e+02	-3.681672e-02
4.606082e+02	-3.724142e-02
4.632687e+02	-3.767099e-02
4.659445e+02	-3.810550e-02
4.686358e+02	-3.854500e-02
4.713426e+02	-3.898955e-02
4.740650e+02	-3.943919e-02
4.768032e+02	-3.989400e-02
4.795572e+02	-4.035403e-02
4.823271e+02	-4.081934e-02
4.851130e+02	-4.128999e-02
4.879150e+02	-4.176604e-02
4.907332e+02	-4.224755e-02
4.935676e+02	-4.273459e-02
4.964185e+02	-4.322721e-02
4.992858e+02	-4.372548e-02
5.021696e+02	-4.422947e-02
5.050701e+02	-4.473923e-02
5.079874e+02	-4.525484e-02
5.109215e+02	-4.577636e-02
5.138726e+02	-4.630386e-02
5.168407e+02	-4.683741e-02
5.198259e+02	-4.737707e-02
5.228284e+02	-4.792291e-02
5.258482e+02	-4.847500e-02
5.288855e+02	-4.903342e-02
5.319403e+02	-4.959824e-02
5.350128e+02	-5.016952e-02
5.381030e+02	-5.074735e-02
5.412111e+02	-5.133179e-02
5.443371e+02	-5.192292e-02
5.474812e+02	-5.252082e-02
5.506434e+02	-5.312556e-02
5.538239e+02	-5.373722e-02
5.570228e+02	-5.435588e-02
5.602401e+02	-5.498161e-02
5.634760e+02	-5.561450e-02
5.667306e+02	-5.625463e-02
5.700040e+02	-5.690208e-02
5.732964e+02	-5.755694e-02
5.766077e+02	-5.821927e-02
5.799382e+02	-5.888918e-02
5.832879e+02	-5.956674e-02
5.866569e+02	-6.025205e-02
5.900454e+02	-6.094518e-02
5.934535e+02	-6.164623e-02
5.968813e+02	-6.235529e-02
6.003288e+02	-6.307244e-02
6.037963e+02	-6.379778e-02
6.072838e+02	-6.453140e-02
6.107914e+02	-6.527339e-02
6.143194e+02	-6.602385e-02
6.178676e+02	-6.678287e-02
6.214364e+02	-6.755055e-02
6.250258e+02	-6.832698e-02
6.286359e+02	-6.911226e-02
6.322669e+02	-6.990650e-02
6.359189e+02	-7.070979e-02
6.395919e+02	-7.152224e-02
6.432862e+02	-7.234394e-02
6.470017e+02	-7.317500e-02
6.507388e+02	-7.401553e-02
6.544974e+02	-7.486563e-02
6.582778e+02	-7.572540e-02
6.620800e+02	-7.659497e-02
6.659041e+02	-7.747443e-02
6.697504e+02	-7.836389e-02
6.736188e+02	-7.926348e-02
6.775096e+02	-8.017329e-02
6.814229e+02	-8.109346e-02
6.853587e+02	-8.202408e-02
6.893173e+02	-8.296528e-02
6.932988e+02	-8.391717e-02
6.973033e+02	-8.487988e-02
7.013309e+02	-8.585353e-02
