Frequency(Hz)	Magnitude(dB)
1.000000e+01	-2.259506e+00
1.005776e+01	-2.279817e+00
1.011585e+01	-2.300344e+00
1.017428e+01	-2.320904e+00
1.023305e+01	-2.341697e+00
1.029215e+01	-2.362773e+00
1.035160e+01	-2.383837e+00
1.041139e+01	-2.404979e+00
1.047153e+01	-2.426203e+00
1.053201e+01	-2.447869e+00
1.059284e+01	-2.469328e+00
1.065403e+01	-2.491080e+00
1.071556e+01	-2.513000e+00
1.077746e+01	-2.535302e+00
1.083971e+01	-2.557190e+00
1.090232e+01	-2.579377e+00
1.096529e+01	-2.601955e+00
1.102862e+01	-2.624714e+00
1.109232e+01	-2.647516e+00
1.115639e+01	-2.670517e+00
1.122083e+01	-2.693434e+00
1.128564e+01	-2.716413e+00
1.135083e+01	-2.739973e+00
1.141639e+01	-2.763249e+00
1.148233e+01	-2.787162e+00
1.154865e+01	-2.810719e+00
1.161536e+01	-2.834450e+00
1.168245e+01	-2.858781e+00
1.174992e+01	-2.883034e+00
1.181779e+01	-2.907159e+00
1.188605e+01	-2.931823e+00
1.195470e+01	-2.956427e+00
1.202375e+01	-2.981264e+00
1.209320e+01	-3.006272e+00
1.216305e+01	-3.031055e+00
1.223330e+01	-3.056367e+00
1.230396e+01	-3.081708e+00
1.237503e+01	-3.107305e+00
1.244651e+01	-3.132929e+00
1.251840e+01	-3.158694e+00
1.259070e+01	-3.184484e+00
1.266343e+01	-3.210565e+00
1.273657e+01	-3.236760e+00
1.281014e+01	-3.263160e+00
1.288413e+01	-3.289542e+00
1.295855e+01	-3.316179e+00
1.303339e+01	-3.343121e+00
1.310867e+01	-3.369953e+00
1.318439e+01	-3.397179e+00
1.326054e+01	-3.424302e+00
1.333713e+01	-3.451561e+00
1.341417e+01	-3.479063e+00
1.349165e+01	-3.506866e+00
1.356958e+01	-3.534623e+00
1.364795e+01	-3.562383e+00
1.372678e+01	-3.590559e+00
1.380607e+01	-3.618965e+00
1.388581e+01	-3.647260e+00
1.396602e+01	-3.675402e+00
1.404668e+01	-3.704193e+00
1.412782e+01	-3.733096e+00
1.420942e+01	-3.761903e+00
1.429149e+01	-3.791316e+00
1.437404e+01	-3.820157e+00
1.445706e+01	-3.849574e+00
1.454057e+01	-3.879026e+00
1.462455e+01	-3.908767e+00
1.470902e+01	-3.938408e+00
1.479398e+01	-3.968396e+00
1.487943e+01	-3.998289e+00
1.496537e+01	-4.028687e+00
1.505181e+01	-4.058598e+00
1.513875e+01	-4.089206e+00
1.522619e+01	-4.119809e+00
1.531414e+01	-4.150427e+00
1.540259e+01	-4.181522e+00
1.549156e+01	-4.212605e+00
1.558103e+01	-4.243483e+00
1.567103e+01	-4.274818e+00
1.576155e+01	-4.306412e+00
1.585258e+01	-4.337818e+00
1.594415e+01	-4.369532e+00
1.603624e+01	-4.401027e+00
1.612886e+01	-4.433334e+00
1.622202e+01	-4.465273e+00
1.631572e+01	-4.497515e+00
1.640996e+01	-4.529751e+00
1.650474e+01	-4.562121e+00
1.660008e+01	-4.595207e+00
1.669596e+01	-4.627529e+00
1.679239e+01	-4.660330e+00
1.688938e+01	-4.693507e+00
1.698694e+01	-4.726577e+00
1.708505e+01	-4.759645e+00
1.718373e+01	-4.793106e+00
1.728299e+01	-4.826687e+00
1.738281e+01	-4.860262e+00
1.748322e+01	-4.894145e+00
1.758420e+01	-4.927861e+00
1.768576e+01	-4.961942e+00
1.778792e+01	-4.996011e+00
1.789066e+01	-5.030238e+00
1.799399e+01	-5.064866e+00
1.809793e+01	-5.099035e+00
1.820246e+01	-5.133566e+00
1.830760e+01	-5.168562e+00
1.841334e+01	-5.203420e+00
1.851969e+01	-5.238282e+00
1.862666e+01	-5.273388e+00
1.873425e+01	-5.308694e+00
1.884246e+01	-5.344168e+00
1.895129e+01	-5.379616e+00
1.906075e+01	-5.415254e+00
1.917085e+01	-5.450906e+00
1.928158e+01	-5.486706e+00
1.939295e+01	-5.522697e+00
1.950496e+01	-5.558400e+00
1.961762e+01	-5.594781e+00
1.973093e+01	-5.631316e+00
1.984490e+01	-5.667317e+00
1.995952e+01	-5.703979e+00
2.007480e+01	-5.740657e+00
2.019076e+01	-5.777357e+00
2.030738e+01	-5.814500e+00
2.042467e+01	-5.851167e+00
2.054264e+01	-5.888465e+00
2.066130e+01	-5.925505e+00
2.078064e+01	-5.962717e+00
2.090066e+01	-6.000354e+00
2.102139e+01	-6.037784e+00
2.114280e+01	-6.075527e+00
2.126492e+01	-6.112753e+00
2.138775e+01	-6.150859e+00
2.151128e+01	-6.188876e+00
2.163553e+01	-6.226956e+00
2.176050e+01	-6.265156e+00
2.188619e+01	-6.303500e+00
2.201260e+01	-6.341432e+00
2.213974e+01	-6.380055e+00
2.226762e+01	-6.418730e+00
2.239624e+01	-6.457238e+00
2.252560e+01	-6.496178e+00
2.265571e+01	-6.535032e+00
2.278656e+01	-6.573896e+00
2.291818e+01	-6.612482e+00
2.305055e+01	-6.651941e+00
2.318369e+01	-6.691626e+00
2.331760e+01	-6.730367e+00
2.345228e+01	-6.770356e+00
2.358774e+01	-6.809850e+00
2.372398e+01	-6.849652e+00
2.386101e+01	-6.889099e+00
2.399883e+01	-6.929249e+00
2.413745e+01	-6.969022e+00
2.427686e+01	-7.008955e+00
2.441709e+01	-7.049387e+00
2.455812e+01	-7.089011e+00
2.469997e+01	-7.129404e+00
2.484263e+01	-7.170010e+00
2.498612e+01	-7.210377e+00
2.513044e+01	-7.250914e+00
2.527559e+01	-7.291666e+00
2.542158e+01	-7.332574e+00
2.556842e+01	-7.373456e+00
2.571610e+01	-7.414497e+00
2.586463e+01	-7.455184e+00
2.601403e+01	-7.496051e+00
2.616428e+01	-7.537400e+00
2.631541e+01	-7.578435e+00
2.646740e+01	-7.620084e+00
2.662028e+01	-7.661313e+00
2.677404e+01	-7.702688e+00
2.692868e+01	-7.744743e+00
2.708422e+01	-7.785917e+00
2.724066e+01	-7.827899e+00
2.739800e+01	-7.869592e+00
2.755625e+01	-7.911651e+00
2.771541e+01	-7.953367e+00
2.787550e+01	-7.995516e+00
2.803650e+01	-8.037773e+00
2.819844e+01	-8.080108e+00
2.836131e+01	-8.122161e+00
2.852513e+01	-8.164191e+00
2.868989e+01	-8.206883e+00
2.885560e+01	-8.249867e+00
2.902227e+01	-8.291838e+00
2.918990e+01	-8.335056e+00
2.935850e+01	-8.377289e+00
2.952807e+01	-8.420048e+00
2.969863e+01	-8.462690e+00
2.987016e+01	-8.506189e+00
3.004269e+01	-8.549059e+00
3.021622e+01	-8.591867e+00
3.039075e+01	-8.635262e+00
3.056628e+01	-8.678296e+00
3.074283e+01	-8.721725e+00
3.092040e+01	-8.765155e+00
3.109900e+01	-8.808183e+00
3.127862e+01	-8.852078e+00
3.145929e+01	-8.895649e+00
3.164099e+01	-8.938872e+00
3.182375e+01	-8.982517e+00
3.200756e+01	-9.026259e+00
3.219244e+01	-9.069969e+00
3.237838e+01	-9.113969e+00
3.256540e+01	-9.157974e+00
3.275349e+01	-9.202097e+00
3.294268e+01	-9.246116e+00
3.313295e+01	-9.290278e+00
3.332433e+01	-9.333835e+00
3.351681e+01	-9.378259e+00
3.371040e+01	-9.422975e+00
3.390511e+01	-9.467521e+00
3.410094e+01	-9.511342e+00
3.429791e+01	-9.555893e+00
3.449601e+01	-9.600795e+00
3.469526e+01	-9.645054e+00
3.489566e+01	-9.689513e+00
3.509721e+01	-9.734534e+00
3.529993e+01	-9.779076e+00
3.550382e+01	-9.823868e+00
3.570889e+01	-9.868687e+00
3.591515e+01	-9.913649e+00
3.612259e+01	-9.958585e+00
3.633123e+01	-1.000357e+01
3.654108e+01	-1.004902e+01
3.675214e+01	-1.009385e+01
3.696442e+01	-1.013902e+01
3.717792e+01	-1.018402e+01
3.739266e+01	-1.022919e+01
3.760864e+01	-1.027471e+01
3.782587e+01	-1.032037e+01
3.804435e+01	-1.036574e+01
3.826409e+01	-1.041102e+01
3.848510e+01	-1.045638e+01
3.870739e+01	-1.050178e+01
3.893096e+01	-1.054718e+01
3.915583e+01	-1.059304e+01
3.938199e+01	-1.063895e+01
3.960946e+01	-1.068439e+01
3.983824e+01	-1.073017e+01
4.006834e+01	-1.077614e+01
4.029978e+01	-1.082227e+01
4.053255e+01	-1.086813e+01
4.076666e+01	-1.091405e+01
4.100213e+01	-1.096054e+01
4.123896e+01	-1.100590e+01
4.147715e+01	-1.105177e+01
4.171672e+01	-1.109812e+01
4.195767e+01	-1.114432e+01
4.220002e+01	-1.119037e+01
4.244377e+01	-1.123729e+01
4.268892e+01	-1.128308e+01
4.293549e+01	-1.132999e+01
4.318348e+01	-1.137548e+01
4.343291e+01	-1.142229e+01
4.368377e+01	-1.146969e+01
4.393609e+01	-1.151472e+01
4.418986e+01	-1.156205e+01
4.444510e+01	-1.160827e+01
4.470182e+01	-1.165454e+01
4.496001e+01	-1.170107e+01
4.521970e+01	-1.174762e+01
4.548089e+01	-1.179487e+01
4.574358e+01	-1.184126e+01
4.600779e+01	-1.188826e+01
4.627353e+01	-1.193428e+01
4.654081e+01	-1.198140e+01
4.680963e+01	-1.202900e+01
4.708000e+01	-1.207529e+01
4.735193e+01	-1.212287e+01
4.762543e+01	-1.216937e+01
4.790051e+01	-1.221646e+01
4.817719e+01	-1.226338e+01
4.845545e+01	-1.231062e+01
4.873533e+01	-1.235814e+01
4.901682e+01	-1.240556e+01
4.929994e+01	-1.245223e+01
4.958470e+01	-1.249927e+01
4.987110e+01	-1.254686e+01
5.015915e+01	-1.259343e+01
5.044887e+01	-1.264111e+01
5.074026e+01	-1.268846e+01
5.103333e+01	-1.273596e+01
5.132810e+01	-1.278301e+01
5.162457e+01	-1.283089e+01
5.192275e+01	-1.287800e+01
5.222265e+01	-1.292526e+01
5.252429e+01	-1.297247e+01
5.282767e+01	-1.302062e+01
5.313280e+01	-1.306734e+01
5.343969e+01	-1.311559e+01
5.374836e+01	-1.316268e+01
5.405880e+01	-1.321020e+01
5.437105e+01	-1.325901e+01
5.468509e+01	-1.330598e+01
5.500095e+01	-1.335387e+01
5.531863e+01	-1.340101e+01
5.563815e+01	-1.344931e+01
5.595951e+01	-1.349654e+01
5.628273e+01	-1.354500e+01
5.660782e+01	-1.359267e+01
5.693479e+01	-1.364048e+01
5.726364e+01	-1.368814e+01
5.759439e+01	-1.373598e+01
5.792705e+01	-1.378430e+01
5.826164e+01	-1.383211e+01
5.859815e+01	-1.388049e+01
5.893662e+01	-1.392773e+01
5.927703e+01	-1.397665e+01
5.961941e+01	-1.402421e+01
5.996377e+01	-1.407188e+01
6.031012e+01	-1.412063e+01
6.065847e+01	-1.416858e+01
6.100883e+01	-1.421610e+01
6.136121e+01	-1.426506e+01
6.171563e+01	-1.431266e+01
6.207210e+01	-1.436132e+01
6.243063e+01	-1.440896e+01
6.279122e+01	-1.445747e+01
6.315390e+01	-1.450729e+01
6.351868e+01	-1.455357e+01
6.388556e+01	-1.460243e+01
6.425456e+01	-1.465023e+01
6.462569e+01	-1.469933e+01
6.499897e+01	-1.474727e+01
6.537440e+01	-1.479574e+01
6.575200e+01	-1.484469e+01
6.613178e+01	-1.489236e+01
6.651375e+01	-1.494020e+01
6.689793e+01	-1.498873e+01
6.728433e+01	-1.503770e+01
6.767297e+01	-1.508671e+01
6.806384e+01	-1.513509e+01
6.845698e+01	-1.518351e+01
6.885238e+01	-1.523202e+01
6.925007e+01	-1.528019e+01
6.965005e+01	-1.532870e+01
7.005235e+01	-1.537640e+01
7.045697e+01	-1.542571e+01
7.086393e+01	-1.547327e+01
7.127323e+01	-1.552233e+01
7.168490e+01	-1.557158e+01
7.209895e+01	-1.561994e+01
7.251539e+01	-1.566889e+01
7.293424e+01	-1.571848e+01
7.335551e+01	-1.576657e+01
7.377920e+01	-1.581536e+01
7.420535e+01	-1.586399e+01
7.463396e+01	-1.591270e+01
7.506504e+01	-1.596169e+01
7.549861e+01	-1.601055e+01
7.593469e+01	-1.605945e+01
7.637328e+01	-1.610902e+01
7.681441e+01	-1.615628e+01
7.725809e+01	-1.620499e+01
7.770433e+01	-1.625420e+01
7.815315e+01	-1.630307e+01
7.860456e+01	-1.635052e+01
7.905857e+01	-1.640174e+01
7.951521e+01	-1.644973e+01
7.997449e+01	-1.649862e+01
8.043642e+01	-1.654736e+01
8.090102e+01	-1.659625e+01
8.136830e+01	-1.664499e+01
8.183828e+01	-1.669364e+01
8.231097e+01	-1.674393e+01
8.278640e+01	-1.679180e+01
8.326457e+01	-1.684075e+01
8.374550e+01	-1.689116e+01
8.422921e+01	-1.693974e+01
8.471572e+01	-1.698746e+01
8.520503e+01	-1.703721e+01
8.569717e+01	-1.708749e+01
8.619215e+01	-1.713504e+01
8.669000e+01	-1.718466e+01
8.719071e+01	-1.723367e+01
8.769432e+01	-1.728245e+01
8.820084e+01	-1.733072e+01
8.871029e+01	-1.738108e+01
8.922267e+01	-1.743034e+01
8.973802e+01	-1.747850e+01
9.025634e+01	-1.752768e+01
9.077766e+01	-1.757660e+01
9.130199e+01	-1.762637e+01
9.182935e+01	-1.767555e+01
9.235975e+01	-1.772304e+01
9.289321e+01	-1.777431e+01
9.342976e+01	-1.782236e+01
9.396941e+01	-1.787255e+01
9.451217e+01	-1.792240e+01
9.505807e+01	-1.797203e+01
9.560712e+01	-1.801979e+01
9.615934e+01	-1.806908e+01
9.671476e+01	-1.811790e+01
9.727338e+01	-1.816799e+01
9.783522e+01	-1.821767e+01
9.840032e+01	-1.826615e+01
9.896867e+01	-1.831657e+01
9.954031e+01	-1.836646e+01
1.001153e+02	-1.841484e+01
1.006935e+02	-1.846440e+01
1.012751e+02	-1.851291e+01
1.018601e+02	-1.856265e+01
1.024484e+02	-1.861056e+01
1.030402e+02	-1.866226e+01
1.036353e+02	-1.871042e+01
1.042339e+02	-1.875914e+01
1.048360e+02	-1.880933e+01
1.054415e+02	-1.885815e+01
1.060505e+02	-1.890718e+01
1.066631e+02	-1.895757e+01
1.072791e+02	-1.900586e+01
1.078988e+02	-1.905764e+01
1.085220e+02	-1.910481e+01
1.091488e+02	-1.915413e+01
1.097793e+02	-1.920557e+01
1.104133e+02	-1.925391e+01
1.110511e+02	-1.930467e+01
1.116925e+02	-1.935324e+01
1.123376e+02	-1.940210e+01
1.129865e+02	-1.945100e+01
1.136391e+02	-1.950160e+01
1.142955e+02	-1.955071e+01
1.149556e+02	-1.960110e+01
1.156196e+02	-1.965056e+01
1.162874e+02	-1.969949e+01
1.169591e+02	-1.974767e+01
1.176347e+02	-1.979700e+01
1.183141e+02	-1.984795e+01
1.189975e+02	-1.989726e+01
1.196848e+02	-1.994707e+01
1.203761e+02	-1.999657e+01
1.210714e+02	-2.004501e+01
1.217707e+02	-2.009561e+01
1.224740e+02	-2.014294e+01
1.231814e+02	-2.019267e+01
1.238929e+02	-2.024310e+01
1.246085e+02	-2.029236e+01
1.253283e+02	-2.034236e+01
1.260522e+02	-2.039374e+01
1.267802e+02	-2.044309e+01
1.275125e+02	-2.049190e+01
1.282490e+02	-2.054162e+01
1.289898e+02	-2.058882e+01
1.297348e+02	-2.064131e+01
1.304842e+02	-2.068977e+01
1.312378e+02	-2.073801e+01
1.319959e+02	-2.078921e+01
1.327583e+02	-2.083794e+01
1.335251e+02	-2.088823e+01
1.342963e+02	-2.093714e+01
1.350720e+02	-2.098727e+01
1.358522e+02	-2.103782e+01
1.366368e+02	-2.108762e+01
1.374260e+02	-2.113600e+01
1.382198e+02	-2.118534e+01
1.390182e+02	-2.123744e+01
1.398211e+02	-2.128570e+01
1.406287e+02	-2.133467e+01
1.414410e+02	-2.138581e+01
1.422579e+02	-2.143233e+01
1.430796e+02	-2.148431e+01
1.439060e+02	-2.153548e+01
1.447372e+02	-2.158434e+01
1.455732e+02	-2.163532e+01
1.464141e+02	-2.168487e+01
1.472597e+02	-2.173205e+01
1.481103e+02	-2.178196e+01
1.489658e+02	-2.183313e+01
1.498262e+02	-2.188118e+01
1.506916e+02	-2.192870e+01
1.515620e+02	-2.198204e+01
1.524374e+02	-2.203229e+01
1.533179e+02	-2.207939e+01
1.542034e+02	-2.213146e+01
1.550941e+02	-2.218062e+01
1.559899e+02	-2.222962e+01
1.568909e+02	-2.228024e+01
1.577971e+02	-2.233155e+01
1.587085e+02	-2.237809e+01
1.596252e+02	-2.242940e+01
1.605472e+02	-2.247793e+01
1.614745e+02	-2.252877e+01
1.624072e+02	-2.257685e+01
1.633453e+02	-2.262772e+01
1.642887e+02	-2.267740e+01
1.652377e+02	-2.272619e+01
1.661921e+02	-2.277657e+01
1.671520e+02	-2.282803e+01
1.681175e+02	-2.287717e+01
1.690885e+02	-2.292747e+01
1.700651e+02	-2.297562e+01
1.710474e+02	-2.302723e+01
1.720354e+02	-2.307733e+01
1.730291e+02	-2.312549e+01
1.740285e+02	-2.317643e+01
1.750337e+02	-2.322426e+01
1.760446e+02	-2.327743e+01
1.770615e+02	-2.332273e+01
1.780842e+02	-2.337688e+01
1.791128e+02	-2.342431e+01
1.801473e+02	-2.347353e+01
1.811878e+02	-2.352360e+01
1.822344e+02	-2.357476e+01
1.832870e+02	-2.362357e+01
1.843456e+02	-2.367431e+01
1.854104e+02	-2.372492e+01
1.864813e+02	-2.377358e+01
1.875584e+02	-2.382537e+01
1.886418e+02	-2.387186e+01
1.897313e+02	-2.392273e+01
1.908272e+02	-2.397393e+01
1.919294e+02	-2.402509e+01
1.930380e+02	-2.407147e+01
1.941530e+02	-2.412336e+01
1.952744e+02	-2.417374e+01
1.964023e+02	-2.422402e+01
1.975367e+02	-2.427183e+01
1.986777e+02	-2.432004e+01
1.998252e+02	-2.437174e+01
2.009794e+02	-2.442159e+01
2.021403e+02	-2.447272e+01
2.033078e+02	-2.452098e+01
2.044821e+02	-2.457411e+01
2.056632e+02	-2.461977e+01
2.068511e+02	-2.466973e+01
2.080459e+02	-2.472170e+01
2.092475e+02	-2.477068e+01
2.104561e+02	-2.482100e+01
2.116717e+02	-2.487024e+01
2.128943e+02	-2.492440e+01
2.141240e+02	-2.497071e+01
2.153608e+02	-2.502136e+01
2.166047e+02	-2.507264e+01
2.178558e+02	-2.511933e+01
2.191141e+02	-2.517198e+01
2.203797e+02	-2.522103e+01
2.216526e+02	-2.527231e+01
2.229329e+02	-2.531646e+01
2.242205e+02	-2.536937e+01
2.255156e+02	-2.541846e+01
2.268182e+02	-2.546936e+01
2.281283e+02	-2.551862e+01
2.294459e+02	-2.556980e+01
2.307712e+02	-2.561880e+01
2.321041e+02	-2.567147e+01
2.334447e+02	-2.572075e+01
2.347931e+02	-2.576895e+01
2.361493e+02	-2.582065e+01
2.375133e+02	-2.587049e+01
2.388851e+02	-2.592055e+01
2.402649e+02	-2.596960e+01
2.416527e+02	-2.601938e+01
2.430484e+02	-2.607136e+01
2.444523e+02	-2.611995e+01
2.458642e+02	-2.617150e+01
2.472843e+02	-2.621956e+01
2.487126e+02	-2.627158e+01
2.501492e+02	-2.631855e+01
2.515940e+02	-2.636953e+01
2.530472e+02	-2.641859e+01
2.545088e+02	-2.647277e+01
2.559789e+02	-2.651915e+01
2.574574e+02	-2.656723e+01
2.589444e+02	-2.661813e+01
2.604401e+02	-2.667445e+01
2.619444e+02	-2.671758e+01
2.634574e+02	-2.676517e+01
2.649791e+02	-2.681612e+01
2.665096e+02	-2.686904e+01
2.680489e+02	-2.691848e+01
2.695972e+02	-2.696852e+01
2.711544e+02	-2.701763e+01
2.727205e+02	-2.706997e+01
2.742958e+02	-2.711721e+01
2.758801e+02	-2.717210e+01
2.774736e+02	-2.722157e+01
2.790762e+02	-2.726583e+01
2.806882e+02	-2.731828e+01
2.823094e+02	-2.736839e+01
2.839400e+02	-2.742122e+01
2.855800e+02	-2.746897e+01
2.872295e+02	-2.752003e+01
2.888886e+02	-2.756763e+01
2.905572e+02	-2.761570e+01
2.922354e+02	-2.766655e+01
2.939234e+02	-2.771868e+01
2.956211e+02	-2.776767e+01
2.973286e+02	-2.781656e+01
2.990459e+02	-2.786888e+01
3.007732e+02	-2.792199e+01
3.025104e+02	-2.796661e+01
3.042577e+02	-2.802146e+01
3.060151e+02	-2.807035e+01
3.077826e+02	-2.811497e+01
3.095604e+02	-2.816886e+01
3.113484e+02	-2.821761e+01
3.131467e+02	-2.826954e+01
3.149554e+02	-2.831853e+01
3.167746e+02	-2.836916e+01
3.186043e+02	-2.841755e+01
3.204445e+02	-2.846621e+01
3.222954e+02	-2.851987e+01
3.241570e+02	-2.857013e+01
3.260293e+02	-2.861759e+01
3.279124e+02	-2.866857e+01
3.298064e+02	-2.872043e+01
3.317114e+02	-2.876502e+01
3.336273e+02	-2.881355e+01
3.355544e+02	-2.886445e+01
3.374925e+02	-2.892100e+01
3.394418e+02	-2.896996e+01
3.414024e+02	-2.902078e+01
3.433744e+02	-2.906701e+01
3.453577e+02	-2.911976e+01
3.473525e+02	-2.916792e+01
3.493588e+02	-2.921901e+01
3.513766e+02	-2.926779e+01
3.534062e+02	-2.932114e+01
3.554474e+02	-2.936775e+01
3.575005e+02	-2.942159e+01
3.595654e+02	-2.946945e+01
3.616422e+02	-2.951656e+01
3.637311e+02	-2.957067e+01
3.658320e+02	-2.962150e+01
3.679450e+02	-2.966516e+01
3.700702e+02	-2.971540e+01
3.722077e+02	-2.976912e+01
3.743576e+02	-2.982141e+01
3.765199e+02	-2.986863e+01
3.786946e+02	-2.991825e+01
3.808820e+02	-2.997095e+01
3.830819e+02	-3.002184e+01
3.852946e+02	-3.007168e+01
3.875200e+02	-3.011593e+01
3.897583e+02	-3.016827e+01
3.920096e+02	-3.021936e+01
3.942738e+02	-3.026331e+01
3.965511e+02	-3.032423e+01
3.988416e+02	-3.037314e+01
4.011452e+02	-3.042229e+01
4.034622e+02	-3.047027e+01
4.057926e+02	-3.052289e+01
4.081365e+02	-3.056849e+01
4.104938e+02	-3.061339e+01
4.128648e+02	-3.067497e+01
4.152495e+02	-3.071772e+01
4.176480e+02	-3.077025e+01
4.200603e+02	-3.081759e+01
4.224866e+02	-3.086995e+01
4.249268e+02	-3.092404e+01
4.273812e+02	-3.097309e+01
4.298497e+02	-3.102081e+01
4.323325e+02	-3.107315e+01
4.348297e+02	-3.111717e+01
4.373412e+02	-3.117165e+01
4.398673e+02	-3.122175e+01
4.424079e+02	-3.127568e+01
4.449633e+02	-3.132350e+01
4.475334e+02	-3.137295e+01
4.501183e+02	-3.142212e+01
4.527182e+02	-3.147400e+01
4.553330e+02	-3.152827e+01
4.579630e+02	-3.157356e+01
4.606082e+02	-3.162798e+01
4.632687e+02	-3.167830e+01
4.659445e+02	-3.171531e+01
4.686358e+02	-3.177615e+01
4.713426e+02	-3.182902e+01
4.740650e+02	-3.187358e+01
4.768032e+02	-3.192285e+01
4.795572e+02	-3.197601e+01
4.823271e+02	-3.203089e+01
4.851130e+02	-3.208059e+01
4.879150e+02	-3.213095e+01
4.907332e+02	-3.217238e+01
4.935676e+02	-3.222420e+01
4.964185e+02	-3.227555e+01
4.992858e+02	-3.232946e+01
5.021696e+02	-3.237730e+01
5.050701e+02	-3.242846e+01
5.079874e+02	-3.247747e+01
5.109215e+02	-3.252725e+01
5.138726e+02	-3.257537e+01
5.168407e+02	-3.262159e+01
5.198259e+02	-3.267742e+01
5.228284e+02	-3.272455e+01
5.258482e+02	-3.277993e+01
5.288855e+02	-3.283328e+01
5.319403e+02	-3.286945e+01
5.350128e+02	-3.293020e+01
5.381030e+02	-3.297882e+01
5.412111e+02	-3.302275e+01
5.443371e+02	-3.307819e+01
5.474812e+02	-3.312527e+01
5.506434e+02	-3.318479e+01
5.538239e+02	-3.322693e+01
5.570228e+02	-3.327136e+01
5.602401e+02	-3.332485e+01
5.634760e+02	-3.338477e+01
5.667306e+02	-3.342823e+01
5.700040e+02	-3.347884e+01
5.732964e+02	-3.352580e+01
5.766077e+02	-3.358739e+01
5.799382e+02	-3.363351e+01
5.832879e+02	-3.367975e+01
5.866569e+02	-3.372749e+01
5.900454e+02	-3.378706e+01
5.934535e+02	-3.383400e+01
5.968813e+02	-3.388687e+01
6.003288e+02	-3.392770e+01
6.037963e+02	-3.398322e+01
6.072838e+02	-3.402192e+01
6.107914e+02	-3.409004e+01
6.143194e+02	-3.413203e+01
6.178676e+02	-3.418573e+01
6.214364e+02	-3.423775e+01
6.250258e+02	-3.429079e+01
6.286359e+02	-3.433680e+01
6.322669e+02	-3.437907e+01
6.359189e+02	-3.443163e+01
6.395919e+02	-3.449216e+01
6.432862e+02	-3.454597e+01
6.470017e+02	-3.458710e+01
6.507388e+02	-3.463218e+01
6.544974e+02	-3.467971e+01
6.582778e+02	-3.473230e+01
6.620800e+02	-3.479742e+01
6.659041e+02	-3.484197e+01
6.697504e+02	-3.488951e+01
6.736188e+02	-3.493310e+01
6.775096e+02	-3.499776e+01
6.814229e+02	-3.503845e+01
6.853587e+02	-3.509037e+01
6.893173e+02	-3.514031e+01
6.932988e+02	-3.518211e+01
6.973033e+02	-3.523775e+01
7.013309e+02	-3.528894e+01
