Frequency(Hz)	Magnitude(dB)
1.000000e+01	-2.063510e+00
1.005776e+01	-2.082338e+00
1.011585e+01	-2.101337e+00
1.017428e+01	-2.120515e+00
1.023305e+01	-2.140061e+00
1.029215e+01	-2.159628e+00
1.035160e+01	-2.179332e+00
1.041139e+01	-2.199049e+00
1.047153e+01	-2.219065e+00
1.053201e+01	-2.239116e+00
1.059284e+01	-2.259512e+00
1.065403e+01	-2.279618e+00
1.071556e+01	-2.300239e+00
1.077746e+01	-2.320978e+00
1.083971e+01	-2.341468e+00
1.090232e+01	-2.362526e+00
1.096529e+01	-2.383369e+00
1.102862e+01	-2.404750e+00
1.109232e+01	-2.426032e+00
1.115639e+01	-2.447610e+00
1.122083e+01	-2.469232e+00
1.128564e+01	-2.490928e+00
1.135083e+01	-2.512835e+00
1.141639e+01	-2.534879e+00
1.148233e+01	-2.557188e+00
1.154865e+01	-2.579485e+00
1.161536e+01	-2.601847e+00
1.168245e+01	-2.624529e+00
1.174992e+01	-2.647287e+00
1.181779e+01	-2.670196e+00
1.188605e+01	-2.693226e+00
1.195470e+01	-2.716513e+00
1.202375e+01	-2.739719e+00
1.209320e+01	-2.763203e+00
1.216305e+01	-2.786701e+00
1.223330e+01	-2.810581e+00
1.230396e+01	-2.834426e+00
1.237503e+01	-2.858447e+00
1.244651e+01	-2.882980e+00
1.251840e+01	-2.907355e+00
1.259070e+01	-2.931643e+00
1.266343e+01	-2.956318e+00
1.273657e+01	-2.980876e+00
1.281014e+01	-3.005754e+00
1.288413e+01	-3.031166e+00
1.295855e+01	-3.056209e+00
1.303339e+01	-3.081562e+00
1.310867e+01	-3.107146e+00
1.318439e+01	-3.132774e+00
1.326054e+01	-3.158472e+00
1.333713e+01	-3.184293e+00
1.341417e+01	-3.210608e+00
1.349165e+01	-3.236597e+00
1.356958e+01	-3.262907e+00
1.364795e+01	-3.289556e+00
1.372678e+01	-3.316202e+00
1.380607e+01	-3.342994e+00
1.388581e+01	-3.370003e+00
1.396602e+01	-3.396737e+00
1.404668e+01	-3.424269e+00
1.412782e+01	-3.451271e+00
1.420942e+01	-3.479169e+00
1.429149e+01	-3.506689e+00
1.437404e+01	-3.534615e+00
1.445706e+01	-3.562394e+00
1.454057e+01	-3.590490e+00
1.462455e+01	-3.618454e+00
1.470902e+01	-3.646775e+00
1.479398e+01	-3.675241e+00
1.487943e+01	-3.704291e+00
1.496537e+01	-3.732692e+00
1.505181e+01	-3.761692e+00
1.513875e+01	-3.790819e+00
1.522619e+01	-3.820120e+00
1.531414e+01	-3.849468e+00
1.540259e+01	-3.878868e+00
1.549156e+01	-3.908403e+00
1.558103e+01	-3.938270e+00
1.567103e+01	-3.967997e+00
1.576155e+01	-3.998432e+00
1.585258e+01	-4.028229e+00
1.594415e+01	-4.058669e+00
1.603624e+01	-4.089294e+00
1.612886e+01	-4.119836e+00
1.622202e+01	-4.150414e+00
1.631572e+01	-4.181346e+00
1.640996e+01	-4.212441e+00
1.650474e+01	-4.243524e+00
1.660008e+01	-4.274439e+00
1.669596e+01	-4.305848e+00
1.679239e+01	-4.337358e+00
1.688938e+01	-4.369374e+00
1.698694e+01	-4.401199e+00
1.708505e+01	-4.433068e+00
1.718373e+01	-4.465142e+00
1.728299e+01	-4.497400e+00
1.738281e+01	-4.529536e+00
1.748322e+01	-4.561676e+00
1.758420e+01	-4.594510e+00
1.768576e+01	-4.627421e+00
1.778792e+01	-4.660062e+00
1.789066e+01	-4.693453e+00
1.799399e+01	-4.726202e+00
1.809793e+01	-4.759586e+00
1.820246e+01	-4.792847e+00
1.830760e+01	-4.826481e+00
1.841334e+01	-4.860144e+00
1.851969e+01	-4.893628e+00
1.862666e+01	-4.927551e+00
1.873425e+01	-4.961673e+00
1.884246e+01	-4.996045e+00
1.895129e+01	-5.030038e+00
1.906075e+01	-5.064616e+00
1.917085e+01	-5.098802e+00
1.928158e+01	-5.133624e+00
1.939295e+01	-5.168365e+00
1.950496e+01	-5.203228e+00
1.961762e+01	-5.238465e+00
1.973093e+01	-5.273061e+00
1.984490e+01	-5.308591e+00
1.995952e+01	-5.343687e+00
2.007480e+01	-5.379317e+00
2.019076e+01	-5.414966e+00
2.030738e+01	-5.450487e+00
2.042467e+01	-5.486370e+00
2.054264e+01	-5.522338e+00
2.066130e+01	-5.558233e+00
2.078064e+01	-5.594464e+00
2.090066e+01	-5.630851e+00
2.102139e+01	-5.667075e+00
2.114280e+01	-5.704019e+00
2.126492e+01	-5.740281e+00
2.138775e+01	-5.777249e+00
2.151128e+01	-5.813771e+00
2.163553e+01	-5.850837e+00
2.176050e+01	-5.888141e+00
2.188619e+01	-5.925295e+00
2.201260e+01	-5.962423e+00
2.213974e+01	-5.999857e+00
2.226762e+01	-6.037153e+00
2.239624e+01	-6.075231e+00
2.252560e+01	-6.112893e+00
2.265571e+01	-6.150502e+00
2.278656e+01	-6.188709e+00
2.291818e+01	-6.226458e+00
2.305055e+01	-6.264875e+00
2.318369e+01	-6.303028e+00
2.331760e+01	-6.341284e+00
2.345228e+01	-6.380109e+00
2.358774e+01	-6.418698e+00
2.372398e+01	-6.457028e+00
2.386101e+01	-6.495720e+00
2.399883e+01	-6.534857e+00
2.413745e+01	-6.573668e+00
2.427686e+01	-6.612837e+00
2.441709e+01	-6.652139e+00
2.455812e+01	-6.691510e+00
2.469997e+01	-6.730052e+00
2.484263e+01	-6.770059e+00
2.498612e+01	-6.809658e+00
2.513044e+01	-6.849203e+00
2.527559e+01	-6.889102e+00
2.542158e+01	-6.928866e+00
2.556842e+01	-6.968547e+00
2.571610e+01	-7.008594e+00
2.586463e+01	-7.048960e+00
2.601403e+01	-7.089142e+00
2.616428e+01	-7.129066e+00
2.631541e+01	-7.169820e+00
2.646740e+01	-7.210133e+00
2.662028e+01	-7.250604e+00
2.677404e+01	-7.291470e+00
2.692868e+01	-7.332058e+00
2.708422e+01	-7.372903e+00
2.724066e+01	-7.413837e+00
2.739800e+01	-7.455117e+00
2.755625e+01	-7.495745e+00
2.771541e+01	-7.537513e+00
2.787550e+01	-7.578676e+00
2.803650e+01	-7.619857e+00
2.819844e+01	-7.661349e+00
2.836131e+01	-7.702531e+00
2.852513e+01	-7.744061e+00
2.868989e+01	-7.785958e+00
2.885560e+01	-7.827435e+00
2.902227e+01	-7.869388e+00
2.918990e+01	-7.911290e+00
2.935850e+01	-7.952783e+00
2.952807e+01	-7.995217e+00
2.969863e+01	-8.037511e+00
2.987016e+01	-8.079682e+00
3.004269e+01	-8.121800e+00
3.021622e+01	-8.164286e+00
3.039075e+01	-8.206433e+00
3.056628e+01	-8.249266e+00
3.074283e+01	-8.291954e+00
3.092040e+01	-8.334314e+00
3.109900e+01	-8.377130e+00
3.127862e+01	-8.420064e+00
3.145929e+01	-8.462395e+00
3.164099e+01	-8.505722e+00
3.182375e+01	-8.548843e+00
3.200756e+01	-8.591412e+00
3.219244e+01	-8.634898e+00
3.237838e+01	-8.677968e+00
3.256540e+01	-8.721545e+00
3.275349e+01	-8.764618e+00
3.294268e+01	-8.808427e+00
3.313295e+01	-8.851457e+00
3.332433e+01	-8.895559e+00
3.351681e+01	-8.938529e+00
3.371040e+01	-8.981951e+00
3.390511e+01	-9.025487e+00
3.410094e+01	-9.069530e+00
3.429791e+01	-9.113764e+00
3.449601e+01	-9.157614e+00
3.469526e+01	-9.201429e+00
3.489566e+01	-9.245542e+00
3.509721e+01	-9.289690e+00
3.529993e+01	-9.333982e+00
3.550382e+01	-9.378418e+00
3.570889e+01	-9.422748e+00
3.591515e+01	-9.466684e+00
3.612259e+01	-9.511017e+00
3.633123e+01	-9.555725e+00
3.654108e+01	-9.600374e+00
3.675214e+01	-9.644847e+00
3.696442e+01	-9.689509e+00
3.717792e+01	-9.734207e+00
3.739266e+01	-9.778993e+00
3.760864e+01	-9.824068e+00
3.782587e+01	-9.868542e+00
3.804435e+01	-9.913285e+00
3.826409e+01	-9.958295e+00
3.848510e+01	-1.000331e+01
3.870739e+01	-1.004832e+01
3.893096e+01	-1.009364e+01
3.915583e+01	-1.013864e+01
3.938199e+01	-1.018400e+01
3.960946e+01	-1.022896e+01
3.983824e+01	-1.027453e+01
4.006834e+01	-1.031994e+01
4.029978e+01	-1.036556e+01
4.053255e+01	-1.041104e+01
4.076666e+01	-1.045603e+01
4.100213e+01	-1.050143e+01
4.123896e+01	-1.054730e+01
4.147715e+01	-1.059295e+01
4.171672e+01	-1.063901e+01
4.195767e+01	-1.068435e+01
4.220002e+01	-1.072995e+01
4.244377e+01	-1.077574e+01
4.268892e+01	-1.082155e+01
4.293549e+01	-1.086792e+01
4.318348e+01	-1.091345e+01
4.343291e+01	-1.095956e+01
4.368377e+01	-1.100558e+01
4.393609e+01	-1.105159e+01
4.418986e+01	-1.109803e+01
4.444510e+01	-1.114408e+01
4.470182e+01	-1.118999e+01
4.496001e+01	-1.123669e+01
4.521970e+01	-1.128297e+01
4.548089e+01	-1.132891e+01
4.574358e+01	-1.137536e+01
4.600779e+01	-1.142231e+01
4.627353e+01	-1.146847e+01
4.654081e+01	-1.151480e+01
4.680963e+01	-1.156162e+01
4.708000e+01	-1.160764e+01
4.735193e+01	-1.165440e+01
4.762543e+01	-1.170121e+01
4.790051e+01	-1.174828e+01
4.817719e+01	-1.179454e+01
4.845545e+01	-1.184100e+01
4.873533e+01	-1.188771e+01
4.901682e+01	-1.193461e+01
4.929994e+01	-1.198190e+01
4.958470e+01	-1.202813e+01
4.987110e+01	-1.207557e+01
5.015915e+01	-1.212171e+01
5.044887e+01	-1.216901e+01
5.074026e+01	-1.221662e+01
5.103333e+01	-1.226357e+01
5.132810e+01	-1.231066e+01
5.162457e+01	-1.235800e+01
5.192275e+01	-1.240466e+01
5.222265e+01	-1.245253e+01
5.252429e+01	-1.249917e+01
5.282767e+01	-1.254616e+01
5.313280e+01	-1.259376e+01
5.343969e+01	-1.263995e+01
5.374836e+01	-1.268795e+01
5.405880e+01	-1.273610e+01
5.437105e+01	-1.278149e+01
5.468509e+01	-1.283020e+01
5.500095e+01	-1.287739e+01
5.531863e+01	-1.292501e+01
5.563815e+01	-1.297282e+01
5.595951e+01	-1.302042e+01
5.628273e+01	-1.306733e+01
5.660782e+01	-1.311484e+01
5.693479e+01	-1.316252e+01
5.726364e+01	-1.321057e+01
5.759439e+01	-1.325871e+01
5.792705e+01	-1.330598e+01
5.826164e+01	-1.335279e+01
5.859815e+01	-1.340192e+01
5.893662e+01	-1.344921e+01
5.927703e+01	-1.349718e+01
5.961941e+01	-1.354506e+01
5.996377e+01	-1.359247e+01
6.031012e+01	-1.364046e+01
6.065847e+01	-1.368853e+01
6.100883e+01	-1.373549e+01
6.136121e+01	-1.378418e+01
6.171563e+01	-1.383190e+01
6.207210e+01	-1.388033e+01
6.243063e+01	-1.392825e+01
6.279122e+01	-1.397541e+01
6.315390e+01	-1.402387e+01
6.351868e+01	-1.407134e+01
6.388556e+01	-1.411996e+01
6.425456e+01	-1.416748e+01
6.462569e+01	-1.421716e+01
6.499897e+01	-1.426438e+01
6.537440e+01	-1.431207e+01
6.575200e+01	-1.436131e+01
6.613178e+01	-1.440938e+01
6.651375e+01	-1.445771e+01
6.689793e+01	-1.450638e+01
6.728433e+01	-1.455419e+01
6.767297e+01	-1.460138e+01
6.806384e+01	-1.464970e+01
6.845698e+01	-1.469860e+01
6.885238e+01	-1.474723e+01
6.925007e+01	-1.479509e+01
6.965005e+01	-1.484413e+01
7.005235e+01	-1.489218e+01
7.045697e+01	-1.494076e+01
7.086393e+01	-1.498931e+01
7.127323e+01	-1.503701e+01
7.168490e+01	-1.508601e+01
7.209895e+01	-1.513414e+01
7.251539e+01	-1.518229e+01
7.293424e+01	-1.523134e+01
7.335551e+01	-1.528015e+01
7.377920e+01	-1.532748e+01
7.420535e+01	-1.537688e+01
7.463396e+01	-1.542575e+01
7.506504e+01	-1.547478e+01
7.549861e+01	-1.552174e+01
7.593469e+01	-1.557038e+01
7.637328e+01	-1.562000e+01
7.681441e+01	-1.566867e+01
7.725809e+01	-1.571855e+01
7.770433e+01	-1.576652e+01
7.815315e+01	-1.581461e+01
7.860456e+01	-1.586334e+01
7.905857e+01	-1.591282e+01
7.951521e+01	-1.596046e+01
7.997449e+01	-1.601048e+01
8.043642e+01	-1.605863e+01
8.090102e+01	-1.610703e+01
8.136830e+01	-1.615660e+01
8.183828e+01	-1.620543e+01
8.231097e+01	-1.625422e+01
8.278640e+01	-1.630256e+01
8.326457e+01	-1.635130e+01
8.374550e+01	-1.640025e+01
8.422921e+01	-1.644953e+01
8.471572e+01	-1.649976e+01
8.520503e+01	-1.654816e+01
8.569717e+01	-1.659653e+01
8.619215e+01	-1.664665e+01
8.669000e+01	-1.669436e+01
8.719071e+01	-1.674200e+01
8.769432e+01	-1.679250e+01
8.820084e+01	-1.684112e+01
8.871029e+01	-1.688985e+01
8.922267e+01	-1.693967e+01
8.973802e+01	-1.698826e+01
9.025634e+01	-1.703760e+01
9.077766e+01	-1.708567e+01
9.130199e+01	-1.713516e+01
9.182935e+01	-1.718294e+01
9.235975e+01	-1.723267e+01
9.289321e+01	-1.728248e+01
9.342976e+01	-1.733102e+01
9.396941e+01	-1.738182e+01
9.451217e+01	-1.743071e+01
9.505807e+01	-1.747826e+01
9.560712e+01	-1.752709e+01
9.615934e+01	-1.757694e+01
9.671476e+01	-1.762581e+01
9.727338e+01	-1.767597e+01
9.783522e+01	-1.772478e+01
9.840032e+01	-1.777243e+01
9.896867e+01	-1.782181e+01
9.954031e+01	-1.787256e+01
1.001153e+02	-1.792132e+01
1.006935e+02	-1.797090e+01
1.012751e+02	-1.801969e+01
1.018601e+02	-1.807019e+01
1.024484e+02	-1.811847e+01
1.030402e+02	-1.816768e+01
1.036353e+02	-1.821764e+01
1.042339e+02	-1.826720e+01
1.048360e+02	-1.831568e+01
1.054415e+02	-1.836578e+01
1.060505e+02	-1.841427e+01
1.066631e+02	-1.846445e+01
1.072791e+02	-1.851385e+01
1.078988e+02	-1.856190e+01
1.085220e+02	-1.861124e+01
1.091488e+02	-1.866126e+01
1.097793e+02	-1.870966e+01
1.104133e+02	-1.875935e+01
1.110511e+02	-1.880857e+01
1.116925e+02	-1.885758e+01
1.123376e+02	-1.890777e+01
1.129865e+02	-1.895703e+01
1.136391e+02	-1.900596e+01
1.142955e+02	-1.905698e+01
1.149556e+02	-1.910566e+01
1.156196e+02	-1.915499e+01
1.162874e+02	-1.920407e+01
1.169591e+02	-1.925362e+01
1.176347e+02	-1.930340e+01
1.183141e+02	-1.935244e+01
1.189975e+02	-1.940344e+01
1.196848e+02	-1.945250e+01
1.203761e+02	-1.950086e+01
1.210714e+02	-1.954918e+01
1.217707e+02	-1.960070e+01
1.224740e+02	-1.964951e+01
1.231814e+02	-1.969857e+01
1.238929e+02	-1.974951e+01
1.246085e+02	-1.979784e+01
1.253283e+02	-1.984782e+01
1.260522e+02	-1.989646e+01
1.267802e+02	-1.994616e+01
1.275125e+02	-1.999594e+01
1.282490e+02	-2.004626e+01
1.289898e+02	-2.009325e+01
1.297348e+02	-2.014446e+01
1.304842e+02	-2.019419e+01
1.312378e+02	-2.024464e+01
1.319959e+02	-2.029283e+01
1.327583e+02	-2.034183e+01
1.335251e+02	-2.039294e+01
1.342963e+02	-2.044214e+01
1.350720e+02	-2.049156e+01
1.358522e+02	-2.054222e+01
1.366368e+02	-2.059074e+01
1.374260e+02	-2.064078e+01
1.382198e+02	-2.069140e+01
1.390182e+02	-2.074141e+01
1.398211e+02	-2.078981e+01
1.406287e+02	-2.083803e+01
1.414410e+02	-2.088949e+01
1.422579e+02	-2.093655e+01
1.430796e+02	-2.098619e+01
1.439060e+02	-2.103781e+01
1.447372e+02	-2.108779e+01
1.455732e+02	-2.113647e+01
1.464141e+02	-2.118684e+01
1.472597e+02	-2.123601e+01
1.481103e+02	-2.128428e+01
1.489658e+02	-2.133376e+01
1.498262e+02	-2.138423e+01
1.506916e+02	-2.143420e+01
1.515620e+02	-2.148483e+01
1.524374e+02	-2.153661e+01
1.533179e+02	-2.158375e+01
1.542034e+02	-2.163319e+01
1.550941e+02	-2.168418e+01
1.559899e+02	-2.173269e+01
1.568909e+02	-2.178096e+01
1.577971e+02	-2.183376e+01
1.587085e+02	-2.188022e+01
1.596252e+02	-2.193229e+01
1.605472e+02	-2.198078e+01
1.614745e+02	-2.203209e+01
1.624072e+02	-2.208109e+01
1.633453e+02	-2.213102e+01
1.642887e+02	-2.218105e+01
1.652377e+02	-2.222949e+01
1.661921e+02	-2.227902e+01
1.671520e+02	-2.232944e+01
1.681175e+02	-2.238017e+01
1.690885e+02	-2.242918e+01
1.700651e+02	-2.247745e+01
1.710474e+02	-2.252947e+01
1.720354e+02	-2.257837e+01
1.730291e+02	-2.262863e+01
1.740285e+02	-2.267650e+01
1.750337e+02	-2.272741e+01
1.760446e+02	-2.277497e+01
1.770615e+02	-2.282737e+01
1.780842e+02	-2.287772e+01
1.791128e+02	-2.292553e+01
1.801473e+02	-2.297830e+01
1.811878e+02	-2.302846e+01
1.822344e+02	-2.307637e+01
1.832870e+02	-2.312563e+01
1.843456e+02	-2.317528e+01
1.854104e+02	-2.322484e+01
1.864813e+02	-2.327688e+01
1.875584e+02	-2.332404e+01
1.886418e+02	-2.337462e+01
1.897313e+02	-2.342382e+01
1.908272e+02	-2.347598e+01
1.919294e+02	-2.352611e+01
1.930380e+02	-2.357449e+01
1.941530e+02	-2.362388e+01
1.952744e+02	-2.367428e+01
1.964023e+02	-2.372326e+01
1.975367e+02	-2.377415e+01
1.986777e+02	-2.382496e+01
1.998252e+02	-2.387322e+01
2.009794e+02	-2.392141e+01
2.021403e+02	-2.397510e+01
2.033078e+02	-2.402332e+01
2.044821e+02	-2.407307e+01
2.056632e+02	-2.412269e+01
2.068511e+02	-2.417358e+01
2.080459e+02	-2.422208e+01
2.092475e+02	-2.427240e+01
2.104561e+02	-2.432285e+01
2.116717e+02	-2.437127e+01
2.128943e+02	-2.442299e+01
2.141240e+02	-2.446995e+01
2.153608e+02	-2.452139e+01
2.166047e+02	-2.457108e+01
2.178558e+02	-2.462098e+01
2.191141e+02	-2.467281e+01
2.203797e+02	-2.472050e+01
2.216526e+02	-2.477114e+01
2.229329e+02	-2.482240e+01
2.242205e+02	-2.487152e+01
2.255156e+02	-2.491923e+01
2.268182e+02	-2.497208e+01
2.281283e+02	-2.502209e+01
2.294459e+02	-2.507252e+01
2.307712e+02	-2.512178e+01
2.321041e+02	-2.516982e+01
2.334447e+02	-2.522100e+01
2.347931e+02	-2.526989e+01
2.361493e+02	-2.532081e+01
2.375133e+02	-2.537258e+01
2.388851e+02	-2.541868e+01
2.402649e+02	-2.547201e+01
2.416527e+02	-2.552004e+01
2.430484e+02	-2.557156e+01
2.444523e+02	-2.562146e+01
2.458642e+02	-2.566865e+01
2.472843e+02	-2.571977e+01
2.487126e+02	-2.576908e+01
2.501492e+02	-2.581725e+01
2.515940e+02	-2.586991e+01
2.530472e+02	-2.591725e+01
2.545088e+02	-2.597027e+01
2.559789e+02	-2.601731e+01
2.574574e+02	-2.606998e+01
2.589444e+02	-2.611952e+01
2.604401e+02	-2.616921e+01
2.619444e+02	-2.622015e+01
2.634574e+02	-2.626776e+01
2.649791e+02	-2.631728e+01
2.665096e+02	-2.636682e+01
2.680489e+02	-2.642062e+01
2.695972e+02	-2.646837e+01
2.711544e+02	-2.652035e+01
2.727205e+02	-2.657312e+01
2.742958e+02	-2.661923e+01
2.758801e+02	-2.666767e+01
2.774736e+02	-2.671904e+01
2.790762e+02	-2.677046e+01
2.806882e+02	-2.681675e+01
2.823094e+02	-2.686852e+01
2.839400e+02	-2.692193e+01
2.855800e+02	-2.697169e+01
2.872295e+02	-2.701800e+01
2.888886e+02	-2.706822e+01
2.905572e+02	-2.711806e+01
2.922354e+02	-2.716790e+01
2.939234e+02	-2.721823e+01
2.956211e+02	-2.726667e+01
2.973286e+02	-2.732393e+01
2.990459e+02	-2.736725e+01
3.007732e+02	-2.741639e+01
3.025104e+02	-2.747025e+01
3.042577e+02	-2.752078e+01
3.060151e+02	-2.757009e+01
3.077826e+02	-2.761775e+01
3.095604e+02	-2.766820e+01
3.113484e+02	-2.771562e+01
3.131467e+02	-2.776810e+01
3.149554e+02	-2.781830e+01
3.167746e+02	-2.787048e+01
3.186043e+02	-2.791920e+01
3.204445e+02	-2.797067e+01
3.222954e+02	-2.802010e+01
3.241570e+02	-2.806886e+01
3.260293e+02	-2.812059e+01
3.279124e+02	-2.817016e+01
3.298064e+02	-2.821521e+01
3.317114e+02	-2.827169e+01
3.336273e+02	-2.832006e+01
3.355544e+02	-2.836791e+01
3.374925e+02	-2.841720e+01
3.394418e+02	-2.846899e+01
3.414024e+02	-2.851444e+01
3.433744e+02	-2.857162e+01
3.453577e+02	-2.861795e+01
3.473525e+02	-2.867168e+01
3.493588e+02	-2.871831e+01
3.513766e+02	-2.877332e+01
3.534062e+02	-2.882201e+01
3.554474e+02	-2.886516e+01
3.575005e+02	-2.891367e+01
3.595654e+02	-2.897140e+01
3.616422e+02	-2.902295e+01
3.637311e+02	-2.906785e+01
3.658320e+02	-2.911786e+01
3.679450e+02	-2.916636e+01
3.700702e+02	-2.922227e+01
3.722077e+02	-2.926628e+01
3.743576e+02	-2.931817e+01
3.765199e+02	-2.937090e+01
3.786946e+02	-2.941547e+01
3.808820e+02	-2.947136e+01
3.830819e+02	-2.952165e+01
3.852946e+02	-2.956865e+01
3.875200e+02	-2.961995e+01
3.897583e+02	-2.966721e+01
3.920096e+02	-2.972294e+01
3.942738e+02	-2.976825e+01
3.965511e+02	-2.982469e+01
3.988416e+02	-2.987000e+01
4.011452e+02	-2.992760e+01
4.034622e+02	-2.997397e+01
4.057926e+02	-3.002114e+01
4.081365e+02	-3.007350e+01
4.104938e+02	-3.012373e+01
4.128648e+02	-3.017147e+01
4.152495e+02	-3.022037e+01
4.176480e+02	-3.026653e+01
4.200603e+02	-3.031750e+01
4.224866e+02	-3.036963e+01
4.249268e+02	-3.042031e+01
4.273812e+02	-3.047235e+01
4.298497e+02	-3.052077e+01
4.323325e+02	-3.057668e+01
4.348297e+02	-3.062114e+01
4.373412e+02	-3.067243e+01
4.398673e+02	-3.071640e+01
4.424079e+02	-3.077595e+01
4.449633e+02	-3.082386e+01
4.475334e+02	-3.087241e+01
4.501183e+02	-3.092531e+01
4.527182e+02	-3.097698e+01
4.553330e+02	-3.102164e+01
4.579630e+02	-3.107455e+01
4.606082e+02	-3.112554e+01
4.632687e+02	-3.117541e+01
4.659445e+02	-3.121746e+01
4.686358e+02	-3.127116e+01
4.713426e+02	-3.132761e+01
4.740650e+02	-3.137663e+01
4.768032e+02	-3.142799e+01
4.795572e+02	-3.147482e+01
4.823271e+02	-3.152866e+01
4.851130e+02	-3.158097e+01
4.879150e+02	-3.162697e+01
4.907332e+02	-3.167680e+01
4.935676e+02	-3.173006e+01
4.964185e+02	-3.177574e+01
4.992858e+02	-3.182856e+01
5.021696e+02	-3.187688e+01
5.050701e+02	-3.192487e+01
5.079874e+02	-3.197711e+01
5.109215e+02	-3.202445e+01
5.138726e+02	-3.207216e+01
5.168407e+02	-3.212065e+01
5.198259e+02	-3.218045e+01
5.228284e+02	-3.222564e+01
5.258482e+02	-3.227134e+01
5.288855e+02	-3.232479e+01
5.319403e+02	-3.236949e+01
5.350128e+02	-3.242094e+01
5.381030e+02	-3.247502e+01
5.412111e+02	-3.252524e+01
5.443371e+02	-3.258101e+01
5.474812e+02	-3.262039e+01
5.506434e+02	-3.267724e+01
5.538239e+02	-3.272662e+01
5.570228e+02	-3.277710e+01
5.602401e+02	-3.282614e+01
5.634760e+02	-3.288950e+01
5.667306e+02	-3.293743e+01
5.700040e+02	-3.297470e+01
5.732964e+02	-3.303546e+01
5.766077e+02	-3.308414e+01
5.799382e+02	-3.313430e+01
5.832879e+02	-3.318614e+01
5.866569e+02	-3.323718e+01
5.900454e+02	-3.328354e+01
5.934535e+02	-3.333949e+01
5.968813e+02	-3.338405e+01
6.003288e+02	-3.343543e+01
6.037963e+02	-3.348381e+01
6.072838e+02	-3.352945e+01
6.107914e+02	-3.358704e+01
6.143194e+02	-3.363166e+01
6.178676e+02	-3.368257e+01
6.214364e+02	-3.373052e+01
6.250258e+02	-3.378845e+01
6.286359e+02	-3.383958e+01
6.322669e+02	-3.388537e+01
6.359189e+02	-3.393536e+01
6.395919e+02	-3.397586e+01
6.432862e+02	-3.403837e+01
6.470017e+02	-3.408305e+01
6.507388e+02	-3.413735e+01
6.544974e+02	-3.418920e+01
6.582778e+02	-3.423708e+01
6.620800e+02	-3.429136e+01
6.659041e+02	-3.433594e+01
6.697504e+02	-3.438665e+01
6.736188e+02	-3.444173e+01
6.775096e+02	-3.449002e+01
6.814229e+02	-3.454197e+01
6.853587e+02	-3.459565e+01
6.893173e+02	-3.463649e+01
6.932988e+02	-3.469631e+01
6.973033e+02	-3.474496e+01
7.013309e+02	-3.479392e+01
