Frequency(Hz)	Magnitude(dB)
1.000000e+01	-2.053173e+00
1.005776e+01	-2.072027e+00
1.011585e+01	-2.091063e+00
1.017428e+01	-2.110299e+00
1.023305e+01	-2.129538e+00
1.029215e+01	-2.149185e+00
1.035160e+01	-2.168666e+00
1.041139e+01	-2.188336e+00
1.047153e+01	-2.208158e+00
1.053201e+01	-2.228304e+00
1.059284e+01	-2.248414e+00
1.065403e+01	-2.268506e+00
1.071556e+01	-2.289000e+00
1.077746e+01	-2.309590e+00
1.083971e+01	-2.330352e+00
1.090232e+01	-2.351076e+00
1.096529e+01	-2.372167e+00
1.102862e+01	-2.393518e+00
1.109232e+01	-2.414643e+00
1.115639e+01	-2.435956e+00
1.122083e+01	-2.457688e+00
1.128564e+01	-2.479264e+00
1.135083e+01	-2.501170e+00
1.141639e+01	-2.523153e+00
1.148233e+01	-2.545009e+00
1.154865e+01	-2.567581e+00
1.161536e+01	-2.589981e+00
1.168245e+01	-2.612539e+00
1.174992e+01	-2.635000e+00
1.181779e+01	-2.657909e+00
1.188605e+01	-2.680814e+00
1.195470e+01	-2.703945e+00
1.202375e+01	-2.727299e+00
1.209320e+01	-2.750688e+00
1.216305e+01	-2.774105e+00
1.223330e+01	-2.797765e+00
1.230396e+01	-2.821706e+00
1.237503e+01	-2.845500e+00
1.244651e+01	-2.869898e+00
1.251840e+01	-2.893983e+00
1.259070e+01	-2.918479e+00
1.266343e+01	-2.942904e+00
1.273657e+01	-2.967673e+00
1.281014e+01	-2.992248e+00
1.288413e+01	-3.017280e+00
1.295855e+01	-3.042666e+00
1.303339e+01	-3.067810e+00
1.310867e+01	-3.093197e+00
1.318439e+01	-3.118802e+00
1.326054e+01	-3.144664e+00
1.333713e+01	-3.170113e+00
1.341417e+01	-3.196452e+00
1.349165e+01	-3.222461e+00
1.356958e+01	-3.248765e+00
1.364795e+01	-3.275331e+00
1.372678e+01	-3.301811e+00
1.380607e+01	-3.328528e+00
1.388581e+01	-3.354968e+00
1.396602e+01	-3.382474e+00
1.404668e+01	-3.409275e+00
1.412782e+01	-3.436787e+00
1.420942e+01	-3.464069e+00
1.429149e+01	-3.491617e+00
1.437404e+01	-3.519646e+00
1.445706e+01	-3.547403e+00
1.454057e+01	-3.575229e+00
1.462455e+01	-3.603298e+00
1.470902e+01	-3.631681e+00
1.479398e+01	-3.660004e+00
1.487943e+01	-3.688723e+00
1.496537e+01	-3.717325e+00
1.505181e+01	-3.746311e+00
1.513875e+01	-3.775273e+00
1.522619e+01	-3.804350e+00
1.531414e+01	-3.833608e+00
1.540259e+01	-3.863196e+00
1.549156e+01	-3.892460e+00
1.558103e+01	-3.922044e+00
1.567103e+01	-3.952006e+00
1.576155e+01	-3.981776e+00
1.585258e+01	-4.012003e+00
1.594415e+01	-4.042186e+00
1.603624e+01	-4.072699e+00
1.612886e+01	-4.103044e+00
1.622202e+01	-4.134160e+00
1.631572e+01	-4.164573e+00
1.640996e+01	-4.195461e+00
1.650474e+01	-4.226622e+00
1.660008e+01	-4.257810e+00
1.669596e+01	-4.289074e+00
1.679239e+01	-4.320562e+00
1.688938e+01	-4.352328e+00
1.698694e+01	-4.383867e+00
1.708505e+01	-4.415790e+00
1.718373e+01	-4.447866e+00
1.728299e+01	-4.479711e+00
1.738281e+01	-4.512094e+00
1.748322e+01	-4.544660e+00
1.758420e+01	-4.576811e+00
1.768576e+01	-4.609740e+00
1.778792e+01	-4.642604e+00
1.789066e+01	-4.675483e+00
1.799399e+01	-4.708272e+00
1.809793e+01	-4.741471e+00
1.820246e+01	-4.774518e+00
1.830760e+01	-4.808803e+00
1.841334e+01	-4.841973e+00
1.851969e+01	-4.875370e+00
1.862666e+01	-4.909411e+00
1.873425e+01	-4.943229e+00
1.884246e+01	-4.977591e+00
1.895129e+01	-5.011462e+00
1.906075e+01	-5.045943e+00
1.917085e+01	-5.080536e+00
1.928158e+01	-5.114930e+00
1.939295e+01	-5.149508e+00
1.950496e+01	-5.184202e+00
1.961762e+01	-5.219037e+00
1.973093e+01	-5.254095e+00
1.984490e+01	-5.289474e+00
1.995952e+01	-5.324989e+00
2.007480e+01	-5.360413e+00
2.019076e+01	-5.395657e+00
2.030738e+01	-5.431177e+00
2.042467e+01	-5.467111e+00
2.054264e+01	-5.503099e+00
2.066130e+01	-5.539055e+00
2.078064e+01	-5.574990e+00
2.090066e+01	-5.611303e+00
2.102139e+01	-5.647822e+00
2.114280e+01	-5.684207e+00
2.126492e+01	-5.720658e+00
2.138775e+01	-5.757640e+00
2.151128e+01	-5.794234e+00
2.163553e+01	-5.831137e+00
2.176050e+01	-5.868106e+00
2.188619e+01	-5.904843e+00
2.201260e+01	-5.942742e+00
2.213974e+01	-5.980032e+00
2.226762e+01	-6.017703e+00
2.239624e+01	-6.055139e+00
2.252560e+01	-6.092555e+00
2.265571e+01	-6.130363e+00
2.278656e+01	-6.167899e+00
2.291818e+01	-6.206070e+00
2.305055e+01	-6.244243e+00
2.318369e+01	-6.282467e+00
2.331760e+01	-6.320766e+00
2.345228e+01	-6.359235e+00
2.358774e+01	-6.397862e+00
2.372398e+01	-6.436368e+00
2.386101e+01	-6.474907e+00
2.399883e+01	-6.513918e+00
2.413745e+01	-6.552429e+00
2.427686e+01	-6.591777e+00
2.441709e+01	-6.630713e+00
2.455812e+01	-6.669958e+00
2.469997e+01	-6.709205e+00
2.484263e+01	-6.748869e+00
2.498612e+01	-6.788005e+00
2.513044e+01	-6.828076e+00
2.527559e+01	-6.867668e+00
2.542158e+01	-6.907135e+00
2.556842e+01	-6.946587e+00
2.571610e+01	-6.987122e+00
2.586463e+01	-7.027322e+00
2.601403e+01	-7.067473e+00
2.616428e+01	-7.107792e+00
2.631541e+01	-7.148112e+00
2.646740e+01	-7.188535e+00
2.662028e+01	-7.228882e+00
2.677404e+01	-7.269275e+00
2.692868e+01	-7.310224e+00
2.708422e+01	-7.351044e+00
2.724066e+01	-7.392045e+00
2.739800e+01	-7.432836e+00
2.755625e+01	-7.473887e+00
2.771541e+01	-7.515196e+00
2.787550e+01	-7.555804e+00
2.803650e+01	-7.597594e+00
2.819844e+01	-7.639109e+00
2.836131e+01	-7.680248e+00
2.852513e+01	-7.721951e+00
2.868989e+01	-7.763100e+00
2.885560e+01	-7.804991e+00
2.902227e+01	-7.846761e+00
2.918990e+01	-7.888626e+00
2.935850e+01	-7.930687e+00
2.952807e+01	-7.972380e+00
2.969863e+01	-8.014353e+00
2.987016e+01	-8.056625e+00
3.004269e+01	-8.098831e+00
3.021622e+01	-8.141391e+00
3.039075e+01	-8.183831e+00
3.056628e+01	-8.226179e+00
3.074283e+01	-8.269048e+00
3.092040e+01	-8.311269e+00
3.109900e+01	-8.354390e+00
3.127862e+01	-8.396570e+00
3.145929e+01	-8.439687e+00
3.164099e+01	-8.482739e+00
3.182375e+01	-8.525274e+00
3.200756e+01	-8.568478e+00
3.219244e+01	-8.611632e+00
3.237838e+01	-8.655354e+00
3.256540e+01	-8.697894e+00
3.275349e+01	-8.741340e+00
3.294268e+01	-8.784699e+00
3.313295e+01	-8.827790e+00
3.332433e+01	-8.871917e+00
3.351681e+01	-8.915771e+00
3.371040e+01	-8.959339e+00
3.390511e+01	-9.002984e+00
3.410094e+01	-9.046130e+00
3.429791e+01	-9.090133e+00
3.449601e+01	-9.134204e+00
3.469526e+01	-9.177423e+00
3.489566e+01	-9.221981e+00
3.509721e+01	-9.266256e+00
3.529993e+01	-9.310561e+00
3.550382e+01	-9.354944e+00
3.570889e+01	-9.398516e+00
3.591515e+01	-9.443254e+00
3.612259e+01	-9.487114e+00
3.633123e+01	-9.531826e+00
3.654108e+01	-9.576587e+00
3.675214e+01	-9.620737e+00
3.696442e+01	-9.665890e+00
3.717792e+01	-9.709668e+00
3.739266e+01	-9.754773e+00
3.760864e+01	-9.799299e+00
3.782587e+01	-9.844684e+00
3.804435e+01	-9.889200e+00
3.826409e+01	-9.934116e+00
3.848510e+01	-9.979022e+00
3.870739e+01	-1.002452e+01
3.893096e+01	-1.006896e+01
3.915583e+01	-1.011421e+01
3.938199e+01	-1.015993e+01
3.960946e+01	-1.020466e+01
3.983824e+01	-1.025066e+01
4.006834e+01	-1.029569e+01
4.029978e+01	-1.034127e+01
4.053255e+01	-1.038612e+01
4.076666e+01	-1.043103e+01
4.100213e+01	-1.047677e+01
4.123896e+01	-1.052247e+01
4.147715e+01	-1.056875e+01
4.171672e+01	-1.061404e+01
4.195767e+01	-1.066002e+01
4.220002e+01	-1.070551e+01
4.244377e+01	-1.075061e+01
4.268892e+01	-1.079677e+01
4.293549e+01	-1.084299e+01
4.318348e+01	-1.088867e+01
4.343291e+01	-1.093513e+01
4.368377e+01	-1.098045e+01
4.393609e+01	-1.102699e+01
4.418986e+01	-1.107338e+01
4.444510e+01	-1.111937e+01
4.470182e+01	-1.116521e+01
4.496001e+01	-1.121162e+01
4.521970e+01	-1.125755e+01
4.548089e+01	-1.130421e+01
4.574358e+01	-1.135019e+01
4.600779e+01	-1.139728e+01
4.627353e+01	-1.144352e+01
4.654081e+01	-1.148976e+01
4.680963e+01	-1.153602e+01
4.708000e+01	-1.158329e+01
4.735193e+01	-1.162936e+01
4.762543e+01	-1.167591e+01
4.790051e+01	-1.172295e+01
4.817719e+01	-1.176988e+01
4.845545e+01	-1.181638e+01
4.873533e+01	-1.186241e+01
4.901682e+01	-1.190915e+01
4.929994e+01	-1.195594e+01
4.958470e+01	-1.200278e+01
4.987110e+01	-1.205057e+01
5.015915e+01	-1.209675e+01
5.044887e+01	-1.214401e+01
5.074026e+01	-1.219114e+01
5.103333e+01	-1.223684e+01
5.132810e+01	-1.228526e+01
5.162457e+01	-1.233241e+01
5.192275e+01	-1.237967e+01
5.222265e+01	-1.242632e+01
5.252429e+01	-1.247368e+01
5.282767e+01	-1.252130e+01
5.313280e+01	-1.256797e+01
5.343969e+01	-1.261409e+01
5.374836e+01	-1.266249e+01
5.405880e+01	-1.271008e+01
5.437105e+01	-1.275742e+01
5.468509e+01	-1.280446e+01
5.500095e+01	-1.285205e+01
5.531863e+01	-1.289951e+01
5.563815e+01	-1.294705e+01
5.595951e+01	-1.299465e+01
5.628273e+01	-1.304192e+01
5.660782e+01	-1.308984e+01
5.693479e+01	-1.313784e+01
5.726364e+01	-1.318567e+01
5.759439e+01	-1.323258e+01
5.792705e+01	-1.327997e+01
5.826164e+01	-1.332774e+01
5.859815e+01	-1.337514e+01
5.893662e+01	-1.342364e+01
5.927703e+01	-1.347107e+01
5.961941e+01	-1.351850e+01
5.996377e+01	-1.356648e+01
6.031012e+01	-1.361431e+01
6.065847e+01	-1.366252e+01
6.100883e+01	-1.370977e+01
6.136121e+01	-1.375823e+01
6.171563e+01	-1.380667e+01
6.207210e+01	-1.385467e+01
6.243063e+01	-1.390216e+01
6.279122e+01	-1.395058e+01
6.315390e+01	-1.399736e+01
6.351868e+01	-1.404671e+01
6.388556e+01	-1.409422e+01
6.425456e+01	-1.414239e+01
6.462569e+01	-1.419048e+01
6.499897e+01	-1.423802e+01
6.537440e+01	-1.428704e+01
6.575200e+01	-1.433424e+01
6.613178e+01	-1.438290e+01
6.651375e+01	-1.443109e+01
6.689793e+01	-1.448006e+01
6.728433e+01	-1.452847e+01
6.767297e+01	-1.457531e+01
6.806384e+01	-1.462388e+01
6.845698e+01	-1.467230e+01
6.885238e+01	-1.472092e+01
6.925007e+01	-1.476987e+01
6.965005e+01	-1.481797e+01
7.005235e+01	-1.486651e+01
7.045697e+01	-1.491470e+01
7.086393e+01	-1.496362e+01
7.127323e+01	-1.501181e+01
7.168490e+01	-1.505976e+01
7.209895e+01	-1.510799e+01
7.251539e+01	-1.515641e+01
7.293424e+01	-1.520524e+01
7.335551e+01	-1.525337e+01
7.377920e+01	-1.530240e+01
7.420535e+01	-1.535031e+01
7.463396e+01	-1.539979e+01
7.506504e+01	-1.544791e+01
7.549861e+01	-1.549690e+01
7.593469e+01	-1.554498e+01
7.637328e+01	-1.559351e+01
7.681441e+01	-1.564284e+01
7.725809e+01	-1.569115e+01
7.770433e+01	-1.574012e+01
7.815315e+01	-1.578854e+01
7.860456e+01	-1.583778e+01
7.905857e+01	-1.588599e+01
7.951521e+01	-1.593501e+01
7.997449e+01	-1.598371e+01
8.043642e+01	-1.603286e+01
8.090102e+01	-1.608185e+01
8.136830e+01	-1.612949e+01
8.183828e+01	-1.617861e+01
8.231097e+01	-1.622775e+01
8.278640e+01	-1.627592e+01
8.326457e+01	-1.632445e+01
8.374550e+01	-1.637395e+01
8.422921e+01	-1.642257e+01
8.471572e+01	-1.647196e+01
8.520503e+01	-1.652109e+01
8.569717e+01	-1.656906e+01
8.619215e+01	-1.661893e+01
8.669000e+01	-1.666758e+01
8.719071e+01	-1.671593e+01
8.769432e+01	-1.676581e+01
8.820084e+01	-1.681509e+01
8.871029e+01	-1.686335e+01
8.922267e+01	-1.691211e+01
8.973802e+01	-1.696196e+01
9.025634e+01	-1.701109e+01
9.077766e+01	-1.705856e+01
9.130199e+01	-1.710804e+01
9.182935e+01	-1.715715e+01
9.235975e+01	-1.720674e+01
9.289321e+01	-1.725499e+01
9.342976e+01	-1.730588e+01
9.396941e+01	-1.735477e+01
9.451217e+01	-1.740137e+01
9.505807e+01	-1.745111e+01
9.560712e+01	-1.750108e+01
9.615934e+01	-1.754988e+01
9.671476e+01	-1.759891e+01
9.727338e+01	-1.764950e+01
9.783522e+01	-1.769828e+01
9.840032e+01	-1.774767e+01
9.896867e+01	-1.779672e+01
9.954031e+01	-1.784579e+01
1.001153e+02	-1.789483e+01
1.006935e+02	-1.794533e+01
1.012751e+02	-1.799407e+01
1.018601e+02	-1.804179e+01
1.024484e+02	-1.809140e+01
1.030402e+02	-1.814106e+01
1.036353e+02	-1.819094e+01
1.042339e+02	-1.823895e+01
1.048360e+02	-1.828904e+01
1.054415e+02	-1.833874e+01
1.060505e+02	-1.838778e+01
1.066631e+02	-1.843731e+01
1.072791e+02	-1.848661e+01
1.078988e+02	-1.853603e+01
1.085220e+02	-1.858546e+01
1.091488e+02	-1.863486e+01
1.097793e+02	-1.868401e+01
1.104133e+02	-1.873358e+01
1.110511e+02	-1.878221e+01
1.116925e+02	-1.883219e+01
1.123376e+02	-1.888200e+01
1.129865e+02	-1.893182e+01
1.136391e+02	-1.897984e+01
1.142955e+02	-1.903029e+01
1.149556e+02	-1.907895e+01
1.156196e+02	-1.912826e+01
1.162874e+02	-1.917630e+01
1.169591e+02	-1.922671e+01
1.176347e+02	-1.927599e+01
1.183141e+02	-1.932781e+01
1.189975e+02	-1.937510e+01
1.196848e+02	-1.942600e+01
1.203761e+02	-1.947394e+01
1.210714e+02	-1.952457e+01
1.217707e+02	-1.957405e+01
1.224740e+02	-1.962266e+01
1.231814e+02	-1.967254e+01
1.238929e+02	-1.972073e+01
1.246085e+02	-1.977175e+01
1.253283e+02	-1.981977e+01
1.260522e+02	-1.987039e+01
1.267802e+02	-1.992105e+01
1.275125e+02	-1.996962e+01
1.282490e+02	-2.001829e+01
1.289898e+02	-2.006755e+01
1.297348e+02	-2.011803e+01
1.304842e+02	-2.016834e+01
1.312378e+02	-2.021766e+01
1.319959e+02	-2.026677e+01
1.327583e+02	-2.031589e+01
1.335251e+02	-2.036543e+01
1.342963e+02	-2.041660e+01
1.350720e+02	-2.046646e+01
1.358522e+02	-2.051366e+01
1.366368e+02	-2.056464e+01
1.374260e+02	-2.061342e+01
1.382198e+02	-2.066361e+01
1.390182e+02	-2.071307e+01
1.398211e+02	-2.076288e+01
1.406287e+02	-2.081310e+01
1.414410e+02	-2.086267e+01
1.422579e+02	-2.091295e+01
1.430796e+02	-2.096131e+01
1.439060e+02	-2.101131e+01
1.447372e+02	-2.106010e+01
1.455732e+02	-2.111168e+01
1.464141e+02	-2.115877e+01
1.472597e+02	-2.121004e+01
1.481103e+02	-2.125766e+01
1.489658e+02	-2.130803e+01
1.498262e+02	-2.135796e+01
1.506916e+02	-2.140837e+01
1.515620e+02	-2.145761e+01
1.524374e+02	-2.150877e+01
1.533179e+02	-2.155735e+01
1.542034e+02	-2.160706e+01
1.550941e+02	-2.165710e+01
1.559899e+02	-2.170676e+01
1.568909e+02	-2.175488e+01
1.577971e+02	-2.180516e+01
1.587085e+02	-2.185517e+01
1.596252e+02	-2.190581e+01
1.605472e+02	-2.195542e+01
1.614745e+02	-2.200677e+01
1.624072e+02	-2.205372e+01
1.633453e+02	-2.210510e+01
1.642887e+02	-2.215451e+01
1.652377e+02	-2.220359e+01
1.661921e+02	-2.225355e+01
1.671520e+02	-2.230484e+01
1.681175e+02	-2.235440e+01
1.690885e+02	-2.240239e+01
1.700651e+02	-2.244962e+01
1.710474e+02	-2.250141e+01
1.720354e+02	-2.254993e+01
1.730291e+02	-2.260215e+01
1.740285e+02	-2.265083e+01
1.750337e+02	-2.270005e+01
1.760446e+02	-2.275040e+01
1.770615e+02	-2.280243e+01
1.780842e+02	-2.284900e+01
1.791128e+02	-2.289935e+01
1.801473e+02	-2.295065e+01
1.811878e+02	-2.300210e+01
1.822344e+02	-2.305078e+01
1.832870e+02	-2.309919e+01
1.843456e+02	-2.314883e+01
1.854104e+02	-2.320144e+01
1.864813e+02	-2.324616e+01
1.875584e+02	-2.330013e+01
1.886418e+02	-2.334952e+01
1.897313e+02	-2.339900e+01
1.908272e+02	-2.345010e+01
1.919294e+02	-2.349809e+01
1.930380e+02	-2.354796e+01
1.941530e+02	-2.359780e+01
1.952744e+02	-2.364807e+01
1.964023e+02	-2.369727e+01
1.975367e+02	-2.374845e+01
1.986777e+02	-2.379512e+01
1.998252e+02	-2.384936e+01
2.009794e+02	-2.389791e+01
2.021403e+02	-2.394728e+01
2.033078e+02	-2.399649e+01
2.044821e+02	-2.404462e+01
2.056632e+02	-2.409516e+01
2.068511e+02	-2.414770e+01
2.080459e+02	-2.419708e+01
2.092475e+02	-2.424602e+01
2.104561e+02	-2.429941e+01
2.116717e+02	-2.434446e+01
2.128943e+02	-2.439270e+01
2.141240e+02	-2.444650e+01
2.153608e+02	-2.449484e+01
2.166047e+02	-2.454461e+01
2.178558e+02	-2.459261e+01
2.191141e+02	-2.464242e+01
2.203797e+02	-2.469178e+01
2.216526e+02	-2.474255e+01
2.229329e+02	-2.479599e+01
2.242205e+02	-2.484309e+01
2.255156e+02	-2.489320e+01
2.268182e+02	-2.494559e+01
2.281283e+02	-2.499336e+01
2.294459e+02	-2.504493e+01
2.307712e+02	-2.509463e+01
2.321041e+02	-2.514271e+01
2.334447e+02	-2.519520e+01
2.347931e+02	-2.524490e+01
2.361493e+02	-2.528993e+01
2.375133e+02	-2.534619e+01
2.388851e+02	-2.539317e+01
2.402649e+02	-2.544417e+01
2.416527e+02	-2.549336e+01
2.430484e+02	-2.554267e+01
2.444523e+02	-2.559296e+01
2.458642e+02	-2.564134e+01
2.472843e+02	-2.569608e+01
2.487126e+02	-2.574569e+01
2.501492e+02	-2.579717e+01
2.515940e+02	-2.584001e+01
2.530472e+02	-2.588955e+01
2.545088e+02	-2.594465e+01
2.559789e+02	-2.599133e+01
2.574574e+02	-2.603941e+01
2.589444e+02	-2.608923e+01
2.604401e+02	-2.614240e+01
2.619444e+02	-2.619390e+01
2.634574e+02	-2.624037e+01
2.649791e+02	-2.629496e+01
2.665096e+02	-2.634180e+01
2.680489e+02	-2.639384e+01
2.695972e+02	-2.644356e+01
2.711544e+02	-2.649029e+01
2.727205e+02	-2.654453e+01
2.742958e+02	-2.659149e+01
2.758801e+02	-2.664183e+01
2.774736e+02	-2.669013e+01
2.790762e+02	-2.673839e+01
2.806882e+02	-2.679013e+01
2.823094e+02	-2.684010e+01
2.839400e+02	-2.688902e+01
2.855800e+02	-2.693601e+01
2.872295e+02	-2.699091e+01
2.888886e+02	-2.704325e+01
2.905572e+02	-2.709167e+01
2.922354e+02	-2.714427e+01
2.939234e+02	-2.719254e+01
2.956211e+02	-2.723845e+01
2.973286e+02	-2.729544e+01
2.990459e+02	-2.733902e+01
3.007732e+02	-2.738944e+01
3.025104e+02	-2.744070e+01
3.042577e+02	-2.749444e+01
3.060151e+02	-2.753999e+01
3.077826e+02	-2.759505e+01
3.095604e+02	-2.764239e+01
3.113484e+02	-2.769376e+01
3.131467e+02	-2.773985e+01
3.149554e+02	-2.779022e+01
3.167746e+02	-2.784655e+01
3.186043e+02	-2.789332e+01
3.204445e+02	-2.794495e+01
3.222954e+02	-2.799256e+01
3.241570e+02	-2.804096e+01
3.260293e+02	-2.809099e+01
3.279124e+02	-2.814151e+01
3.298064e+02	-2.819338e+01
3.317114e+02	-2.824262e+01
3.336273e+02	-2.829147e+01
3.355544e+02	-2.833953e+01
3.374925e+02	-2.839081e+01
3.394418e+02	-2.844001e+01
3.414024e+02	-2.848643e+01
3.433744e+02	-2.853898e+01
3.453577e+02	-2.859569e+01
3.473525e+02	-2.864299e+01
3.493588e+02	-2.869311e+01
3.513766e+02	-2.874286e+01
3.534062e+02	-2.878992e+01
3.554474e+02	-2.884283e+01
3.575005e+02	-2.889400e+01
3.595654e+02	-2.894166e+01
3.616422e+02	-2.899679e+01
3.637311e+02	-2.904658e+01
3.658320e+02	-2.909568e+01
3.679450e+02	-2.914226e+01
3.700702e+02	-2.919373e+01
3.722077e+02	-2.924223e+01
3.743576e+02	-2.929240e+01
3.765199e+02	-2.934498e+01
3.786946e+02	-2.939323e+01
3.808820e+02	-2.944089e+01
3.830819e+02	-2.949217e+01
3.852946e+02	-2.954426e+01
3.875200e+02	-2.959214e+01
3.897583e+02	-2.964612e+01
3.920096e+02	-2.969148e+01
3.942738e+02	-2.974508e+01
3.965511e+02	-2.979153e+01
3.988416e+02	-2.984673e+01
4.011452e+02	-2.989437e+01
4.034622e+02	-2.994442e+01
4.057926e+02	-2.999713e+01
4.081365e+02	-3.004416e+01
4.104938e+02	-3.008825e+01
4.128648e+02	-3.014598e+01
4.152495e+02	-3.019140e+01
4.176480e+02	-3.024184e+01
4.200603e+02	-3.029983e+01
4.224866e+02	-3.034366e+01
4.249268e+02	-3.039300e+01
4.273812e+02	-3.044215e+01
4.298497e+02	-3.049088e+01
4.323325e+02	-3.054335e+01
4.348297e+02	-3.059846e+01
4.373412e+02	-3.064101e+01
4.398673e+02	-3.069577e+01
4.424079e+02	-3.074433e+01
4.449633e+02	-3.079968e+01
4.475334e+02	-3.084557e+01
4.501183e+02	-3.090096e+01
4.527182e+02	-3.094965e+01
4.553330e+02	-3.099486e+01
4.579630e+02	-3.105013e+01
4.606082e+02	-3.109381e+01
4.632687e+02	-3.114510e+01
4.659445e+02	-3.119988e+01
4.686358e+02	-3.124871e+01
4.713426e+02	-3.129356e+01
4.740650e+02	-3.135006e+01
4.768032e+02	-3.140044e+01
4.795572e+02	-3.144527e+01
4.823271e+02	-3.149861e+01
4.851130e+02	-3.154219e+01
4.879150e+02	-3.160089e+01
4.907332e+02	-3.165024e+01
4.935676e+02	-3.169679e+01
4.964185e+02	-3.174772e+01
4.992858e+02	-3.179718e+01
5.021696e+02	-3.184798e+01
5.050701e+02	-3.190351e+01
5.079874e+02	-3.194945e+01
5.109215e+02	-3.199791e+01
5.138726e+02	-3.205343e+01
5.168407e+02	-3.209798e+01
5.198259e+02	-3.214928e+01
5.228284e+02	-3.219755e+01
5.258482e+02	-3.225178e+01
5.288855e+02	-3.230476e+01
5.319403e+02	-3.234825e+01
5.350128e+02	-3.240277e+01
5.381030e+02	-3.245247e+01
5.412111e+02	-3.250289e+01
5.443371e+02	-3.255426e+01
5.474812e+02	-3.260343e+01
5.506434e+02	-3.265727e+01
5.538239e+02	-3.271327e+01
5.570228e+02	-3.275061e+01
5.602401e+02	-3.280417e+01
5.634760e+02	-3.284907e+01
5.667306e+02	-3.290340e+01
5.700040e+02	-3.295691e+01
5.732964e+02	-3.300159e+01
5.766077e+02	-3.305658e+01
5.799382e+02	-3.310380e+01
5.832879e+02	-3.315274e+01
5.866569e+02	-3.320519e+01
5.900454e+02	-3.325816e+01
5.934535e+02	-3.330543e+01
5.968813e+02	-3.335703e+01
6.003288e+02	-3.339530e+01
6.037963e+02	-3.345064e+01
6.072838e+02	-3.350102e+01
6.107914e+02	-3.355832e+01
6.143194e+02	-3.360798e+01
6.178676e+02	-3.365900e+01
6.214364e+02	-3.371122e+01
6.250258e+02	-3.375878e+01
6.286359e+02	-3.382080e+01
6.322669e+02	-3.385528e+01
6.359189e+02	-3.390420e+01
6.395919e+02	-3.396324e+01
6.432862e+02	-3.401487e+01
6.470017e+02	-3.407110e+01
6.507388e+02	-3.410863e+01
6.544974e+02	-3.416039e+01
6.582778e+02	-3.421159e+01
6.620800e+02	-3.426166e+01
6.659041e+02	-3.431044e+01
6.697504e+02	-3.435810e+01
6.736188e+02	-3.441842e+01
6.775096e+02	-3.446243e+01
6.814229e+02	-3.451487e+01
6.853587e+02	-3.455727e+01
6.893173e+02	-3.461214e+01
6.932988e+02	-3.466606e+01
6.973033e+02	-3.472148e+01
7.013309e+02	-3.475883e+01
