Frequency(Hz)	Magnitude(dB)
1.000000e+01	-2.244837e+00
1.005776e+01	-2.264765e+00
1.011585e+01	-2.285486e+00
1.017428e+01	-2.306028e+00
1.023305e+01	-2.326491e+00
1.029215e+01	-2.347364e+00
1.035160e+01	-2.368220e+00
1.041139e+01	-2.389463e+00
1.047153e+01	-2.410562e+00
1.053201e+01	-2.431869e+00
1.059284e+01	-2.453603e+00
1.065403e+01	-2.475371e+00
1.071556e+01	-2.497053e+00
1.077746e+01	-2.518943e+00
1.083971e+01	-2.541019e+00
1.090232e+01	-2.563306e+00
1.096529e+01	-2.585635e+00
1.102862e+01	-2.608216e+00
1.109232e+01	-2.630990e+00
1.115639e+01	-2.653686e+00
1.122083e+01	-2.676757e+00
1.128564e+01	-2.699735e+00
1.135083e+01	-2.722730e+00
1.141639e+01	-2.746230e+00
1.148233e+01	-2.769949e+00
1.154865e+01	-2.793296e+00
1.161536e+01	-2.816928e+00
1.168245e+01	-2.841230e+00
1.174992e+01	-2.865391e+00
1.181779e+01	-2.889337e+00
1.188605e+01	-2.913836e+00
1.195470e+01	-2.938346e+00
1.202375e+01	-2.963262e+00
1.209320e+01	-2.987888e+00
1.216305e+01	-3.012837e+00
1.223330e+01	-3.037989e+00
1.230396e+01	-3.063208e+00
1.237503e+01	-3.088559e+00
1.244651e+01	-3.114241e+00
1.251840e+01	-3.140089e+00
1.259070e+01	-3.165795e+00
1.266343e+01	-3.191505e+00
1.273657e+01	-3.217693e+00
1.281014e+01	-3.243865e+00
1.288413e+01	-3.270418e+00
1.295855e+01	-3.296768e+00
1.303339e+01	-3.323689e+00
1.310867e+01	-3.350356e+00
1.318439e+01	-3.377537e+00
1.326054e+01	-3.404317e+00
1.333713e+01	-3.431726e+00
1.341417e+01	-3.459470e+00
1.349165e+01	-3.486619e+00
1.356958e+01	-3.514118e+00
1.364795e+01	-3.542292e+00
1.372678e+01	-3.569567e+00
1.380607e+01	-3.598431e+00
1.388581e+01	-3.626337e+00
1.396602e+01	-3.654862e+00
1.404668e+01	-3.683331e+00
1.412782e+01	-3.712173e+00
1.420942e+01	-3.740985e+00
1.429149e+01	-3.769628e+00
1.437404e+01	-3.799162e+00
1.445706e+01	-3.828092e+00
1.454057e+01	-3.857523e+00
1.462455e+01	-3.887277e+00
1.470902e+01	-3.916728e+00
1.479398e+01	-3.946547e+00
1.487943e+01	-3.976467e+00
1.496537e+01	-4.006696e+00
1.505181e+01	-4.036809e+00
1.513875e+01	-4.066958e+00
1.522619e+01	-4.097269e+00
1.531414e+01	-4.128318e+00
1.540259e+01	-4.158940e+00
1.549156e+01	-4.189766e+00
1.558103e+01	-4.220834e+00
1.567103e+01	-4.252194e+00
1.576155e+01	-4.283296e+00
1.585258e+01	-4.314789e+00
1.594415e+01	-4.346202e+00
1.603624e+01	-4.377961e+00
1.612886e+01	-4.409714e+00
1.622202e+01	-4.442029e+00
1.631572e+01	-4.473860e+00
1.640996e+01	-4.506242e+00
1.650474e+01	-4.538312e+00
1.660008e+01	-4.571284e+00
1.669596e+01	-4.603970e+00
1.679239e+01	-4.636332e+00
1.688938e+01	-4.669388e+00
1.698694e+01	-4.702188e+00
1.708505e+01	-4.735365e+00
1.718373e+01	-4.768704e+00
1.728299e+01	-4.802015e+00
1.738281e+01	-4.835940e+00
1.748322e+01	-4.869261e+00
1.758420e+01	-4.903316e+00
1.768576e+01	-4.937157e+00
1.778792e+01	-4.971086e+00
1.789066e+01	-5.005239e+00
1.799399e+01	-5.039629e+00
1.809793e+01	-5.073998e+00
1.820246e+01	-5.108534e+00
1.830760e+01	-5.143259e+00
1.841334e+01	-5.177819e+00
1.851969e+01	-5.212910e+00
1.862666e+01	-5.247643e+00
1.873425e+01	-5.283195e+00
1.884246e+01	-5.318112e+00
1.895129e+01	-5.353746e+00
1.906075e+01	-5.389250e+00
1.917085e+01	-5.424690e+00
1.928158e+01	-5.460631e+00
1.939295e+01	-5.496242e+00
1.950496e+01	-5.532330e+00
1.961762e+01	-5.568528e+00
1.973093e+01	-5.604861e+00
1.984490e+01	-5.640949e+00
1.995952e+01	-5.677133e+00
2.007480e+01	-5.714063e+00
2.019076e+01	-5.750467e+00
2.030738e+01	-5.787267e+00
2.042467e+01	-5.824312e+00
2.054264e+01	-5.861102e+00
2.066130e+01	-5.898411e+00
2.078064e+01	-5.935695e+00
2.090066e+01	-5.972737e+00
2.102139e+01	-6.010159e+00
2.114280e+01	-6.047787e+00
2.126492e+01	-6.085322e+00
2.138775e+01	-6.123068e+00
2.151128e+01	-6.160874e+00
2.163553e+01	-6.199189e+00
2.176050e+01	-6.237036e+00
2.188619e+01	-6.275280e+00
2.201260e+01	-6.313616e+00
2.213974e+01	-6.352046e+00
2.226762e+01	-6.390569e+00
2.239624e+01	-6.429312e+00
2.252560e+01	-6.467956e+00
2.265571e+01	-6.506519e+00
2.278656e+01	-6.545666e+00
2.291818e+01	-6.584295e+00
2.305055e+01	-6.623724e+00
2.318369e+01	-6.662677e+00
2.331760e+01	-6.702244e+00
2.345228e+01	-6.741386e+00
2.358774e+01	-6.780890e+00
2.372398e+01	-6.820739e+00
2.386101e+01	-6.860289e+00
2.399883e+01	-6.900062e+00
2.413745e+01	-6.939980e+00
2.427686e+01	-6.980015e+00
2.441709e+01	-7.019944e+00
2.455812e+01	-7.059860e+00
2.469997e+01	-7.100455e+00
2.484263e+01	-7.140136e+00
2.498612e+01	-7.180871e+00
2.513044e+01	-7.221073e+00
2.527559e+01	-7.261829e+00
2.542158e+01	-7.302649e+00
2.556842e+01	-7.343461e+00
2.571610e+01	-7.383988e+00
2.586463e+01	-7.425317e+00
2.601403e+01	-7.466337e+00
2.616428e+01	-7.506925e+00
2.631541e+01	-7.548219e+00
2.646740e+01	-7.589795e+00
2.662028e+01	-7.630983e+00
2.677404e+01	-7.672792e+00
2.692868e+01	-7.713826e+00
2.708422e+01	-7.756068e+00
2.724066e+01	-7.797129e+00
2.739800e+01	-7.838828e+00
2.755625e+01	-7.880638e+00
2.771541e+01	-7.922797e+00
2.787550e+01	-7.964396e+00
2.803650e+01	-8.007136e+00
2.819844e+01	-8.048846e+00
2.836131e+01	-8.091169e+00
2.852513e+01	-8.133395e+00
2.868989e+01	-8.175763e+00
2.885560e+01	-8.218417e+00
2.902227e+01	-8.260959e+00
2.918990e+01	-8.303600e+00
2.935850e+01	-8.345888e+00
2.952807e+01	-8.388797e+00
2.969863e+01	-8.431764e+00
2.987016e+01	-8.474801e+00
3.004269e+01	-8.517326e+00
3.021622e+01	-8.560596e+00
3.039075e+01	-8.603487e+00
3.056628e+01	-8.647188e+00
3.074283e+01	-8.690015e+00
3.092040e+01	-8.733351e+00
3.109900e+01	-8.776825e+00
3.127862e+01	-8.820337e+00
3.145929e+01	-8.863757e+00
3.164099e+01	-8.907518e+00
3.182375e+01	-8.950970e+00
3.200756e+01	-8.994871e+00
3.219244e+01	-9.038010e+00
3.237838e+01	-9.082572e+00
3.256540e+01	-9.125813e+00
3.275349e+01	-9.169975e+00
3.294268e+01	-9.213989e+00
3.313295e+01	-9.258487e+00
3.332433e+01	-9.301960e+00
3.351681e+01	-9.346612e+00
3.371040e+01	-9.390610e+00
3.390511e+01	-9.434393e+00
3.410094e+01	-9.479120e+00
3.429791e+01	-9.523700e+00
3.449601e+01	-9.567841e+00
3.469526e+01	-9.613069e+00
3.489566e+01	-9.657059e+00
3.509721e+01	-9.701979e+00
3.529993e+01	-9.746268e+00
3.550382e+01	-9.791180e+00
3.570889e+01	-9.836353e+00
3.591515e+01	-9.881161e+00
3.612259e+01	-9.926270e+00
3.633123e+01	-9.970496e+00
3.654108e+01	-1.001545e+01
3.675214e+01	-1.006140e+01
3.696442e+01	-1.010540e+01
3.717792e+01	-1.015128e+01
3.739266e+01	-1.019636e+01
3.760864e+01	-1.024162e+01
3.782587e+01	-1.028702e+01
3.804435e+01	-1.033214e+01
3.826409e+01	-1.037774e+01
3.848510e+01	-1.042344e+01
3.870739e+01	-1.046868e+01
3.893096e+01	-1.051449e+01
3.915583e+01	-1.055999e+01
3.938199e+01	-1.060637e+01
3.960946e+01	-1.065155e+01
3.983824e+01	-1.069667e+01
4.006834e+01	-1.074324e+01
4.029978e+01	-1.078880e+01
4.053255e+01	-1.083459e+01
4.076666e+01	-1.088071e+01
4.100213e+01	-1.092620e+01
4.123896e+01	-1.097155e+01
4.147715e+01	-1.101842e+01
4.171672e+01	-1.106398e+01
4.195767e+01	-1.111098e+01
4.220002e+01	-1.115650e+01
4.244377e+01	-1.120303e+01
4.268892e+01	-1.124918e+01
4.293549e+01	-1.129524e+01
4.318348e+01	-1.134176e+01
4.343291e+01	-1.138855e+01
4.368377e+01	-1.143444e+01
4.393609e+01	-1.148094e+01
4.418986e+01	-1.152735e+01
4.444510e+01	-1.157415e+01
4.470182e+01	-1.162092e+01
4.496001e+01	-1.166756e+01
4.521970e+01	-1.171374e+01
4.548089e+01	-1.176031e+01
4.574358e+01	-1.180758e+01
4.600779e+01	-1.185390e+01
4.627353e+01	-1.190072e+01
4.654081e+01	-1.194743e+01
4.680963e+01	-1.199468e+01
4.708000e+01	-1.204190e+01
4.735193e+01	-1.208850e+01
4.762543e+01	-1.213523e+01
4.790051e+01	-1.218260e+01
4.817719e+01	-1.222895e+01
4.845545e+01	-1.227657e+01
4.873533e+01	-1.232360e+01
4.901682e+01	-1.237063e+01
4.929994e+01	-1.241726e+01
4.958470e+01	-1.246497e+01
4.987110e+01	-1.251170e+01
5.015915e+01	-1.255926e+01
5.044887e+01	-1.260707e+01
5.074026e+01	-1.265305e+01
5.103333e+01	-1.270035e+01
5.132810e+01	-1.274836e+01
5.162457e+01	-1.279568e+01
5.192275e+01	-1.284318e+01
5.222265e+01	-1.289053e+01
5.252429e+01	-1.293818e+01
5.282767e+01	-1.298591e+01
5.313280e+01	-1.303342e+01
5.343969e+01	-1.308126e+01
5.374836e+01	-1.312801e+01
5.405880e+01	-1.317567e+01
5.437105e+01	-1.322422e+01
5.468509e+01	-1.327167e+01
5.500095e+01	-1.331864e+01
5.531863e+01	-1.336701e+01
5.563815e+01	-1.341473e+01
5.595951e+01	-1.346205e+01
5.628273e+01	-1.351063e+01
5.660782e+01	-1.355846e+01
5.693479e+01	-1.360540e+01
5.726364e+01	-1.365342e+01
5.759439e+01	-1.370125e+01
5.792705e+01	-1.374898e+01
5.826164e+01	-1.379702e+01
5.859815e+01	-1.384460e+01
5.893662e+01	-1.389376e+01
5.927703e+01	-1.394015e+01
5.961941e+01	-1.398916e+01
5.996377e+01	-1.403760e+01
6.031012e+01	-1.408536e+01
6.065847e+01	-1.413338e+01
6.100883e+01	-1.418187e+01
6.136121e+01	-1.423002e+01
6.171563e+01	-1.427805e+01
6.207210e+01	-1.432593e+01
6.243063e+01	-1.437408e+01
6.279122e+01	-1.442215e+01
6.315390e+01	-1.447082e+01
6.351868e+01	-1.451884e+01
6.388556e+01	-1.456700e+01
6.425456e+01	-1.461561e+01
6.462569e+01	-1.466338e+01
6.499897e+01	-1.471208e+01
6.537440e+01	-1.476064e+01
6.575200e+01	-1.480893e+01
6.613178e+01	-1.485687e+01
6.651375e+01	-1.490519e+01
6.689793e+01	-1.495333e+01
6.728433e+01	-1.500236e+01
6.767297e+01	-1.505095e+01
6.806384e+01	-1.509962e+01
6.845698e+01	-1.514788e+01
6.885238e+01	-1.519625e+01
6.925007e+01	-1.524501e+01
6.965005e+01	-1.529301e+01
7.005235e+01	-1.534255e+01
7.045697e+01	-1.539153e+01
7.086393e+01	-1.543867e+01
7.127323e+01	-1.548776e+01
7.168490e+01	-1.553655e+01
7.209895e+01	-1.558449e+01
7.251539e+01	-1.563399e+01
7.293424e+01	-1.568294e+01
7.335551e+01	-1.573055e+01
7.377920e+01	-1.577940e+01
7.420535e+01	-1.582790e+01
7.463396e+01	-1.587712e+01
7.506504e+01	-1.592574e+01
7.549861e+01	-1.597488e+01
7.593469e+01	-1.602332e+01
7.637328e+01	-1.607147e+01
7.681441e+01	-1.612092e+01
7.725809e+01	-1.616835e+01
7.770433e+01	-1.621828e+01
7.815315e+01	-1.626688e+01
7.860456e+01	-1.631627e+01
7.905857e+01	-1.636580e+01
7.951521e+01	-1.641433e+01
7.997449e+01	-1.646271e+01
8.043642e+01	-1.651264e+01
8.090102e+01	-1.656115e+01
8.136830e+01	-1.660958e+01
8.183828e+01	-1.665802e+01
8.231097e+01	-1.670693e+01
8.278640e+01	-1.675696e+01
8.326457e+01	-1.680644e+01
8.374550e+01	-1.685560e+01
8.422921e+01	-1.690310e+01
8.471572e+01	-1.695384e+01
8.520503e+01	-1.700245e+01
8.569717e+01	-1.705057e+01
8.619215e+01	-1.709826e+01
8.669000e+01	-1.714863e+01
8.719071e+01	-1.719746e+01
8.769432e+01	-1.724570e+01
8.820084e+01	-1.729647e+01
8.871029e+01	-1.734468e+01
8.922267e+01	-1.739443e+01
8.973802e+01	-1.744327e+01
9.025634e+01	-1.749311e+01
9.077766e+01	-1.754151e+01
9.130199e+01	-1.759142e+01
9.182935e+01	-1.764081e+01
9.235975e+01	-1.768907e+01
9.289321e+01	-1.773789e+01
9.342976e+01	-1.778733e+01
9.396941e+01	-1.783738e+01
9.451217e+01	-1.788586e+01
9.505807e+01	-1.793435e+01
9.560712e+01	-1.798432e+01
9.615934e+01	-1.803280e+01
9.671476e+01	-1.808218e+01
9.727338e+01	-1.813316e+01
9.783522e+01	-1.818020e+01
9.840032e+01	-1.823050e+01
9.896867e+01	-1.828027e+01
9.954031e+01	-1.832898e+01
1.001153e+02	-1.837795e+01
1.006935e+02	-1.842706e+01
1.012751e+02	-1.847700e+01
1.018601e+02	-1.852568e+01
1.024484e+02	-1.857595e+01
1.030402e+02	-1.862469e+01
1.036353e+02	-1.867442e+01
1.042339e+02	-1.872562e+01
1.048360e+02	-1.877350e+01
1.054415e+02	-1.882297e+01
1.060505e+02	-1.887273e+01
1.066631e+02	-1.892068e+01
1.072791e+02	-1.896969e+01
1.078988e+02	-1.902037e+01
1.085220e+02	-1.907051e+01
1.091488e+02	-1.911751e+01
1.097793e+02	-1.916975e+01
1.104133e+02	-1.921775e+01
1.110511e+02	-1.926600e+01
1.116925e+02	-1.931690e+01
1.123376e+02	-1.936737e+01
1.129865e+02	-1.941568e+01
1.136391e+02	-1.946588e+01
1.142955e+02	-1.951488e+01
1.149556e+02	-1.956357e+01
1.156196e+02	-1.961232e+01
1.162874e+02	-1.966269e+01
1.169591e+02	-1.971385e+01
1.176347e+02	-1.976287e+01
1.183141e+02	-1.981088e+01
1.189975e+02	-1.985977e+01
1.196848e+02	-1.991027e+01
1.203761e+02	-1.995992e+01
1.210714e+02	-2.001054e+01
1.217707e+02	-2.005813e+01
1.224740e+02	-2.010899e+01
1.231814e+02	-2.015849e+01
1.238929e+02	-2.020833e+01
1.246085e+02	-2.025899e+01
1.253283e+02	-2.030707e+01
1.260522e+02	-2.035635e+01
1.267802e+02	-2.040558e+01
1.275125e+02	-2.045711e+01
1.282490e+02	-2.050472e+01
1.289898e+02	-2.055356e+01
1.297348e+02	-2.060469e+01
1.304842e+02	-2.065373e+01
1.312378e+02	-2.070500e+01
1.319959e+02	-2.075261e+01
1.327583e+02	-2.080496e+01
1.335251e+02	-2.085369e+01
1.342963e+02	-2.090299e+01
1.350720e+02	-2.095076e+01
1.358522e+02	-2.100189e+01
1.366368e+02	-2.105044e+01
1.374260e+02	-2.110146e+01
1.382198e+02	-2.114746e+01
1.390182e+02	-2.120063e+01
1.398211e+02	-2.125030e+01
1.406287e+02	-2.129888e+01
1.414410e+02	-2.135254e+01
1.422579e+02	-2.139960e+01
1.430796e+02	-2.144890e+01
1.439060e+02	-2.149921e+01
1.447372e+02	-2.154852e+01
1.455732e+02	-2.159778e+01
1.464141e+02	-2.164866e+01
1.472597e+02	-2.169798e+01
1.481103e+02	-2.174794e+01
1.489658e+02	-2.179571e+01
1.498262e+02	-2.184446e+01
1.506916e+02	-2.189615e+01
1.515620e+02	-2.194623e+01
1.524374e+02	-2.199358e+01
1.533179e+02	-2.204473e+01
1.542034e+02	-2.209380e+01
1.550941e+02	-2.214448e+01
1.559899e+02	-2.219430e+01
1.568909e+02	-2.224457e+01
1.577971e+02	-2.229423e+01
1.587085e+02	-2.234312e+01
1.596252e+02	-2.239528e+01
1.605472e+02	-2.244364e+01
1.614745e+02	-2.249136e+01
1.624072e+02	-2.254322e+01
1.633453e+02	-2.259293e+01
1.642887e+02	-2.264225e+01
1.652377e+02	-2.269174e+01
1.661921e+02	-2.274128e+01
1.671520e+02	-2.279052e+01
1.681175e+02	-2.283867e+01
1.690885e+02	-2.289006e+01
1.700651e+02	-2.294132e+01
1.710474e+02	-2.299066e+01
1.720354e+02	-2.303852e+01
1.730291e+02	-2.308829e+01
1.740285e+02	-2.314049e+01
1.750337e+02	-2.319061e+01
1.760446e+02	-2.323963e+01
1.770615e+02	-2.328938e+01
1.780842e+02	-2.333928e+01
1.791128e+02	-2.338897e+01
1.801473e+02	-2.344041e+01
1.811878e+02	-2.348756e+01
1.822344e+02	-2.353941e+01
1.832870e+02	-2.358796e+01
1.843456e+02	-2.364000e+01
1.854104e+02	-2.368762e+01
1.864813e+02	-2.373834e+01
1.875584e+02	-2.378982e+01
1.886418e+02	-2.383949e+01
1.897313e+02	-2.388626e+01
1.908272e+02	-2.393609e+01
1.919294e+02	-2.398658e+01
1.930380e+02	-2.403498e+01
1.941530e+02	-2.408719e+01
1.952744e+02	-2.413356e+01
1.964023e+02	-2.418562e+01
1.975367e+02	-2.423641e+01
1.986777e+02	-2.428591e+01
1.998252e+02	-2.433712e+01
2.009794e+02	-2.438649e+01
2.021403e+02	-2.443538e+01
2.033078e+02	-2.448525e+01
2.044821e+02	-2.453429e+01
2.056632e+02	-2.458572e+01
2.068511e+02	-2.463553e+01
2.080459e+02	-2.468687e+01
2.092475e+02	-2.473531e+01
2.104561e+02	-2.478980e+01
2.116717e+02	-2.483367e+01
2.128943e+02	-2.488588e+01
2.141240e+02	-2.493383e+01
2.153608e+02	-2.498463e+01
2.166047e+02	-2.503474e+01
2.178558e+02	-2.508174e+01
2.191141e+02	-2.513236e+01
2.203797e+02	-2.518532e+01
2.216526e+02	-2.523603e+01
2.229329e+02	-2.528372e+01
2.242205e+02	-2.533354e+01
2.255156e+02	-2.538263e+01
2.268182e+02	-2.543481e+01
2.281283e+02	-2.548381e+01
2.294459e+02	-2.553236e+01
2.307712e+02	-2.558616e+01
2.321041e+02	-2.563258e+01
2.334447e+02	-2.568283e+01
2.347931e+02	-2.573075e+01
2.361493e+02	-2.578278e+01
2.375133e+02	-2.583494e+01
2.388851e+02	-2.588476e+01
2.402649e+02	-2.593455e+01
2.416527e+02	-2.598009e+01
2.430484e+02	-2.603255e+01
2.444523e+02	-2.608431e+01
2.458642e+02	-2.613072e+01
2.472843e+02	-2.618105e+01
2.487126e+02	-2.623120e+01
2.501492e+02	-2.628412e+01
2.515940e+02	-2.633463e+01
2.530472e+02	-2.638397e+01
2.545088e+02	-2.643437e+01
2.559789e+02	-2.648514e+01
2.574574e+02	-2.653406e+01
2.589444e+02	-2.658329e+01
2.604401e+02	-2.663297e+01
2.619444e+02	-2.668417e+01
2.634574e+02	-2.673241e+01
2.649791e+02	-2.678135e+01
2.665096e+02	-2.683343e+01
2.680489e+02	-2.688376e+01
2.695972e+02	-2.693122e+01
2.711544e+02	-2.698151e+01
2.727205e+02	-2.703200e+01
2.742958e+02	-2.708053e+01
2.758801e+02	-2.713155e+01
2.774736e+02	-2.718370e+01
2.790762e+02	-2.723425e+01
2.806882e+02	-2.728181e+01
2.823094e+02	-2.733425e+01
2.839400e+02	-2.738047e+01
2.855800e+02	-2.742944e+01
2.872295e+02	-2.748182e+01
2.888886e+02	-2.753353e+01
2.905572e+02	-2.758208e+01
2.922354e+02	-2.763551e+01
2.939234e+02	-2.768271e+01
2.956211e+02	-2.773158e+01
2.973286e+02	-2.778252e+01
2.990459e+02	-2.783396e+01
3.007732e+02	-2.788348e+01
3.025104e+02	-2.793376e+01
3.042577e+02	-2.798627e+01
3.060151e+02	-2.803015e+01
3.077826e+02	-2.808119e+01
3.095604e+02	-2.813041e+01
3.113484e+02	-2.818067e+01
3.131467e+02	-2.823573e+01
3.149554e+02	-2.828790e+01
3.167746e+02	-2.833494e+01
3.186043e+02	-2.837974e+01
3.204445e+02	-2.843566e+01
3.222954e+02	-2.848507e+01
3.241570e+02	-2.853406e+01
3.260293e+02	-2.858467e+01
3.279124e+02	-2.863182e+01
3.298064e+02	-2.868491e+01
3.317114e+02	-2.873451e+01
3.336273e+02	-2.878107e+01
3.355544e+02	-2.883249e+01
3.374925e+02	-2.888329e+01
3.394418e+02	-2.893320e+01
3.414024e+02	-2.897839e+01
3.433744e+02	-2.903666e+01
3.453577e+02	-2.908808e+01
3.473525e+02	-2.913126e+01
3.493588e+02	-2.918632e+01
3.513766e+02	-2.923465e+01
3.534062e+02	-2.928385e+01
3.554474e+02	-2.932713e+01
3.575005e+02	-2.938195e+01
3.595654e+02	-2.943575e+01
3.616422e+02	-2.948252e+01
3.637311e+02	-2.953117e+01
3.658320e+02	-2.958189e+01
3.679450e+02	-2.963203e+01
3.700702e+02	-2.968154e+01
3.722077e+02	-2.973728e+01
3.743576e+02	-2.978711e+01
3.765199e+02	-2.983680e+01
3.786946e+02	-2.988511e+01
3.808820e+02	-2.993422e+01
3.830819e+02	-2.998824e+01
3.852946e+02	-3.003526e+01
3.875200e+02	-3.008800e+01
3.897583e+02	-3.013899e+01
3.920096e+02	-3.018512e+01
3.942738e+02	-3.023282e+01
3.965511e+02	-3.028290e+01
3.988416e+02	-3.033755e+01
4.011452e+02	-3.038639e+01
4.034622e+02	-3.044150e+01
4.057926e+02	-3.048219e+01
4.081365e+02	-3.053454e+01
4.104938e+02	-3.058884e+01
4.128648e+02	-3.063815e+01
4.152495e+02	-3.068787e+01
4.176480e+02	-3.073603e+01
4.200603e+02	-3.078633e+01
4.224866e+02	-3.083625e+01
4.249268e+02	-3.088861e+01
4.273812e+02	-3.093569e+01
4.298497e+02	-3.098580e+01
4.323325e+02	-3.104360e+01
4.348297e+02	-3.108916e+01
4.373412e+02	-3.114028e+01
4.398673e+02	-3.118653e+01
4.424079e+02	-3.123919e+01
4.449633e+02	-3.128562e+01
4.475334e+02	-3.133960e+01
4.501183e+02	-3.138865e+01
4.527182e+02	-3.143832e+01
4.553330e+02	-3.148959e+01
4.579630e+02	-3.154432e+01
4.606082e+02	-3.159404e+01
4.632687e+02	-3.164293e+01
4.659445e+02	-3.168825e+01
4.686358e+02	-3.173903e+01
4.713426e+02	-3.179427e+01
4.740650e+02	-3.183947e+01
4.768032e+02	-3.188868e+01
4.795572e+02	-3.194530e+01
4.823271e+02	-3.200099e+01
4.851130e+02	-3.204458e+01
4.879150e+02	-3.209405e+01
4.907332e+02	-3.214444e+01
4.935676e+02	-3.218922e+01
4.964185e+02	-3.224215e+01
4.992858e+02	-3.229429e+01
5.021696e+02	-3.233234e+01
5.050701e+02	-3.238660e+01
5.079874e+02	-3.244932e+01
5.109215e+02	-3.248450e+01
5.138726e+02	-3.255231e+01
5.168407e+02	-3.259141e+01
5.198259e+02	-3.264504e+01
5.228284e+02	-3.268932e+01
5.258482e+02	-3.274281e+01
5.288855e+02	-3.279295e+01
5.319403e+02	-3.284594e+01
5.350128e+02	-3.289497e+01
5.381030e+02	-3.295424e+01
5.412111e+02	-3.299682e+01
5.443371e+02	-3.304675e+01
5.474812e+02	-3.310098e+01
5.506434e+02	-3.315038e+01
5.538239e+02	-3.319739e+01
5.570228e+02	-3.324833e+01
5.602401e+02	-3.329668e+01
5.634760e+02	-3.334968e+01
5.667306e+02	-3.339729e+01
5.700040e+02	-3.344842e+01
5.732964e+02	-3.349590e+01
5.766077e+02	-3.354905e+01
5.799382e+02	-3.360411e+01
5.832879e+02	-3.365415e+01
5.866569e+02	-3.371256e+01
5.900454e+02	-3.374241e+01
5.934535e+02	-3.380272e+01
5.968813e+02	-3.384384e+01
6.003288e+02	-3.390588e+01
6.037963e+02	-3.395679e+01
6.072838e+02	-3.400389e+01
6.107914e+02	-3.405592e+01
6.143194e+02	-3.410201e+01
6.178676e+02	-3.415553e+01
6.214364e+02	-3.419401e+01
6.250258e+02	-3.424993e+01
6.286359e+02	-3.430557e+01
6.322669e+02	-3.434608e+01
6.359189e+02	-3.440264e+01
6.395919e+02	-3.445493e+01
6.432862e+02	-3.450519e+01
6.470017e+02	-3.455406e+01
6.507388e+02	-3.460395e+01
6.544974e+02	-3.466007e+01
6.582778e+02	-3.470628e+01
6.620800e+02	-3.475665e+01
6.659041e+02	-3.479900e+01
6.697504e+02	-3.485890e+01
6.736188e+02	-3.490651e+01
6.775096e+02	-3.495842e+01
6.814229e+02	-3.500841e+01
6.853587e+02	-3.506400e+01
6.893173e+02	-3.511226e+01
6.932988e+02	-3.516351e+01
6.973033e+02	-3.520348e+01
7.013309e+02	-3.526303e+01
