Frequency(Hz)	Magnitude(dB)
1.000000e+01	-2.216536e+00
1.005776e+01	-2.236597e+00
1.011585e+01	-2.256862e+00
1.017428e+01	-2.277322e+00
1.023305e+01	-2.297505e+00
1.029215e+01	-2.318217e+00
1.035160e+01	-2.339064e+00
1.041139e+01	-2.359877e+00
1.047153e+01	-2.381079e+00
1.053201e+01	-2.402200e+00
1.059284e+01	-2.423601e+00
1.065403e+01	-2.444883e+00
1.071556e+01	-2.466650e+00
1.077746e+01	-2.488258e+00
1.083971e+01	-2.510295e+00
1.090232e+01	-2.532212e+00
1.096529e+01	-2.554467e+00
1.102862e+01	-2.576702e+00
1.109232e+01	-2.599289e+00
1.115639e+01	-2.621827e+00
1.122083e+01	-2.644712e+00
1.128564e+01	-2.667362e+00
1.135083e+01	-2.690323e+00
1.141639e+01	-2.713555e+00
1.148233e+01	-2.736737e+00
1.154865e+01	-2.760379e+00
1.161536e+01	-2.784008e+00
1.168245e+01	-2.807822e+00
1.174992e+01	-2.831727e+00
1.181779e+01	-2.855559e+00
1.188605e+01	-2.879937e+00
1.195470e+01	-2.904160e+00
1.202375e+01	-2.928509e+00
1.209320e+01	-2.953267e+00
1.216305e+01	-2.978063e+00
1.223330e+01	-3.003048e+00
1.230396e+01	-3.028096e+00
1.237503e+01	-3.053176e+00
1.244651e+01	-3.078399e+00
1.251840e+01	-3.103994e+00
1.259070e+01	-3.129513e+00
1.266343e+01	-3.155397e+00
1.273657e+01	-3.181194e+00
1.281014e+01	-3.207252e+00
1.288413e+01	-3.233326e+00
1.295855e+01	-3.259485e+00
1.303339e+01	-3.286388e+00
1.310867e+01	-3.313227e+00
1.318439e+01	-3.339446e+00
1.326054e+01	-3.366670e+00
1.333713e+01	-3.393638e+00
1.341417e+01	-3.420693e+00
1.349165e+01	-3.448143e+00
1.356958e+01	-3.475451e+00
1.364795e+01	-3.503372e+00
1.372678e+01	-3.531281e+00
1.380607e+01	-3.558904e+00
1.388581e+01	-3.586933e+00
1.396602e+01	-3.615062e+00
1.404668e+01	-3.643513e+00
1.412782e+01	-3.671872e+00
1.420942e+01	-3.700523e+00
1.429149e+01	-3.729244e+00
1.437404e+01	-3.758298e+00
1.445706e+01	-3.787295e+00
1.454057e+01	-3.816465e+00
1.462455e+01	-3.845699e+00
1.470902e+01	-3.875397e+00
1.479398e+01	-3.904892e+00
1.487943e+01	-3.934379e+00
1.496537e+01	-3.964286e+00
1.505181e+01	-3.994415e+00
1.513875e+01	-4.024578e+00
1.522619e+01	-4.054996e+00
1.531414e+01	-4.085352e+00
1.540259e+01	-4.116057e+00
1.549156e+01	-4.146568e+00
1.558103e+01	-4.177506e+00
1.567103e+01	-4.208338e+00
1.576155e+01	-4.239543e+00
1.585258e+01	-4.270861e+00
1.594415e+01	-4.302140e+00
1.603624e+01	-4.333761e+00
1.612886e+01	-4.365265e+00
1.622202e+01	-4.396987e+00
1.631572e+01	-4.428966e+00
1.640996e+01	-4.460989e+00
1.650474e+01	-4.493274e+00
1.660008e+01	-4.525588e+00
1.669596e+01	-4.557979e+00
1.679239e+01	-4.590611e+00
1.688938e+01	-4.623191e+00
1.698694e+01	-4.656151e+00
1.708505e+01	-4.689160e+00
1.718373e+01	-4.722520e+00
1.728299e+01	-4.755696e+00
1.738281e+01	-4.788929e+00
1.748322e+01	-4.822540e+00
1.758420e+01	-4.855723e+00
1.768576e+01	-4.889298e+00
1.778792e+01	-4.923445e+00
1.789066e+01	-4.957512e+00
1.799399e+01	-4.991620e+00
1.809793e+01	-5.026124e+00
1.820246e+01	-5.060122e+00
1.830760e+01	-5.094812e+00
1.841334e+01	-5.129403e+00
1.851969e+01	-5.163995e+00
1.862666e+01	-5.198917e+00
1.873425e+01	-5.233813e+00
1.884246e+01	-5.269085e+00
1.895129e+01	-5.304333e+00
1.906075e+01	-5.339388e+00
1.917085e+01	-5.374968e+00
1.928158e+01	-5.410598e+00
1.939295e+01	-5.446221e+00
1.950496e+01	-5.481931e+00
1.961762e+01	-5.518147e+00
1.973093e+01	-5.554042e+00
1.984490e+01	-5.590579e+00
1.995952e+01	-5.626368e+00
2.007480e+01	-5.663015e+00
2.019076e+01	-5.699412e+00
2.030738e+01	-5.736027e+00
2.042467e+01	-5.772419e+00
2.054264e+01	-5.809620e+00
2.066130e+01	-5.846522e+00
2.078064e+01	-5.883692e+00
2.090066e+01	-5.920787e+00
2.102139e+01	-5.957949e+00
2.114280e+01	-5.995070e+00
2.126492e+01	-6.032763e+00
2.138775e+01	-6.070635e+00
2.151128e+01	-6.108249e+00
2.163553e+01	-6.146048e+00
2.176050e+01	-6.183590e+00
2.188619e+01	-6.222029e+00
2.201260e+01	-6.260160e+00
2.213974e+01	-6.298355e+00
2.226762e+01	-6.336834e+00
2.239624e+01	-6.374980e+00
2.252560e+01	-6.413571e+00
2.265571e+01	-6.452529e+00
2.278656e+01	-6.491047e+00
2.291818e+01	-6.530130e+00
2.305055e+01	-6.568621e+00
2.318369e+01	-6.608071e+00
2.331760e+01	-6.646988e+00
2.345228e+01	-6.686533e+00
2.358774e+01	-6.725459e+00
2.372398e+01	-6.765469e+00
2.386101e+01	-6.804935e+00
2.399883e+01	-6.844353e+00
2.413745e+01	-6.884030e+00
2.427686e+01	-6.924176e+00
2.441709e+01	-6.963937e+00
2.455812e+01	-7.003485e+00
2.469997e+01	-7.043704e+00
2.484263e+01	-7.084215e+00
2.498612e+01	-7.124309e+00
2.513044e+01	-7.165051e+00
2.527559e+01	-7.205292e+00
2.542158e+01	-7.245518e+00
2.556842e+01	-7.286301e+00
2.571610e+01	-7.327044e+00
2.586463e+01	-7.367859e+00
2.601403e+01	-7.409193e+00
2.616428e+01	-7.449684e+00
2.631541e+01	-7.491173e+00
2.646740e+01	-7.532074e+00
2.662028e+01	-7.573272e+00
2.677404e+01	-7.614859e+00
2.692868e+01	-7.655663e+00
2.708422e+01	-7.697202e+00
2.724066e+01	-7.738964e+00
2.739800e+01	-7.780675e+00
2.755625e+01	-7.822215e+00
2.771541e+01	-7.864229e+00
2.787550e+01	-7.905961e+00
2.803650e+01	-7.947870e+00
2.819844e+01	-7.989959e+00
2.836131e+01	-8.032614e+00
2.852513e+01	-8.074391e+00
2.868989e+01	-8.116190e+00
2.885560e+01	-8.159001e+00
2.902227e+01	-8.201708e+00
2.918990e+01	-8.244021e+00
2.935850e+01	-8.286496e+00
2.952807e+01	-8.329595e+00
2.969863e+01	-8.371918e+00
2.987016e+01	-8.414747e+00
3.004269e+01	-8.457385e+00
3.021622e+01	-8.500000e+00
3.039075e+01	-8.543262e+00
3.056628e+01	-8.586615e+00
3.074283e+01	-8.629871e+00
3.092040e+01	-8.672862e+00
3.109900e+01	-8.715691e+00
3.127862e+01	-8.758867e+00
3.145929e+01	-8.802717e+00
3.164099e+01	-8.846164e+00
3.182375e+01	-8.889712e+00
3.200756e+01	-8.933357e+00
3.219244e+01	-8.976770e+00
3.237838e+01	-9.021007e+00
3.256540e+01	-9.064829e+00
3.275349e+01	-9.108551e+00
3.294268e+01	-9.151906e+00
3.313295e+01	-9.195940e+00
3.332433e+01	-9.240274e+00
3.351681e+01	-9.284265e+00
3.371040e+01	-9.328953e+00
3.390511e+01	-9.372618e+00
3.410094e+01	-9.417319e+00
3.429791e+01	-9.461575e+00
3.449601e+01	-9.505903e+00
3.469526e+01	-9.550096e+00
3.489566e+01	-9.594807e+00
3.509721e+01	-9.639387e+00
3.529993e+01	-9.684160e+00
3.550382e+01	-9.728414e+00
3.570889e+01	-9.773894e+00
3.591515e+01	-9.818028e+00
3.612259e+01	-9.863219e+00
3.633123e+01	-9.907747e+00
3.654108e+01	-9.952347e+00
3.675214e+01	-9.997364e+00
3.696442e+01	-1.004266e+01
3.717792e+01	-1.008769e+01
3.739266e+01	-1.013346e+01
3.760864e+01	-1.017834e+01
3.782587e+01	-1.022380e+01
3.804435e+01	-1.026849e+01
3.826409e+01	-1.031428e+01
3.848510e+01	-1.036001e+01
3.870739e+01	-1.040538e+01
3.893096e+01	-1.045075e+01
3.915583e+01	-1.049595e+01
3.938199e+01	-1.054212e+01
3.960946e+01	-1.058743e+01
3.983824e+01	-1.063365e+01
4.006834e+01	-1.067879e+01
4.029978e+01	-1.072435e+01
4.053255e+01	-1.077015e+01
4.076666e+01	-1.081607e+01
4.100213e+01	-1.086211e+01
4.123896e+01	-1.090804e+01
4.147715e+01	-1.095423e+01
4.171672e+01	-1.100012e+01
4.195767e+01	-1.104605e+01
4.220002e+01	-1.109103e+01
4.244377e+01	-1.113747e+01
4.268892e+01	-1.118449e+01
4.293549e+01	-1.123060e+01
4.318348e+01	-1.127759e+01
4.343291e+01	-1.132334e+01
4.368377e+01	-1.136992e+01
4.393609e+01	-1.141673e+01
4.418986e+01	-1.146272e+01
4.444510e+01	-1.150861e+01
4.470182e+01	-1.155549e+01
4.496001e+01	-1.160248e+01
4.521970e+01	-1.164825e+01
4.548089e+01	-1.169554e+01
4.574358e+01	-1.174208e+01
4.600779e+01	-1.178855e+01
4.627353e+01	-1.183490e+01
4.654081e+01	-1.188216e+01
4.680963e+01	-1.192905e+01
4.708000e+01	-1.197570e+01
4.735193e+01	-1.202262e+01
4.762543e+01	-1.206984e+01
4.790051e+01	-1.211635e+01
4.817719e+01	-1.216384e+01
4.845545e+01	-1.221090e+01
4.873533e+01	-1.225785e+01
4.901682e+01	-1.230400e+01
4.929994e+01	-1.235132e+01
4.958470e+01	-1.239882e+01
4.987110e+01	-1.244658e+01
5.015915e+01	-1.249256e+01
5.044887e+01	-1.254080e+01
5.074026e+01	-1.258722e+01
5.103333e+01	-1.263591e+01
5.132810e+01	-1.268219e+01
5.162457e+01	-1.272972e+01
5.192275e+01	-1.277685e+01
5.222265e+01	-1.282395e+01
5.252429e+01	-1.287113e+01
5.282767e+01	-1.291918e+01
5.313280e+01	-1.296761e+01
5.343969e+01	-1.301407e+01
5.374836e+01	-1.306209e+01
5.405880e+01	-1.310963e+01
5.437105e+01	-1.315656e+01
5.468509e+01	-1.320477e+01
5.500095e+01	-1.325261e+01
5.531863e+01	-1.329982e+01
5.563815e+01	-1.334735e+01
5.595951e+01	-1.339481e+01
5.628273e+01	-1.344206e+01
5.660782e+01	-1.349110e+01
5.693479e+01	-1.353870e+01
5.726364e+01	-1.358672e+01
5.759439e+01	-1.363434e+01
5.792705e+01	-1.368236e+01
5.826164e+01	-1.373001e+01
5.859815e+01	-1.377827e+01
5.893662e+01	-1.382557e+01
5.927703e+01	-1.387487e+01
5.961941e+01	-1.392247e+01
5.996377e+01	-1.396997e+01
6.031012e+01	-1.401785e+01
6.065847e+01	-1.406686e+01
6.100883e+01	-1.411328e+01
6.136121e+01	-1.416104e+01
6.171563e+01	-1.421058e+01
6.207210e+01	-1.425795e+01
6.243063e+01	-1.430699e+01
6.279122e+01	-1.435492e+01
6.315390e+01	-1.440295e+01
6.351868e+01	-1.445094e+01
6.388556e+01	-1.450027e+01
6.425456e+01	-1.454772e+01
6.462569e+01	-1.459706e+01
6.499897e+01	-1.464498e+01
6.537440e+01	-1.469317e+01
6.575200e+01	-1.474152e+01
6.613178e+01	-1.478981e+01
6.651375e+01	-1.483762e+01
6.689793e+01	-1.488569e+01
6.728433e+01	-1.493456e+01
6.767297e+01	-1.498274e+01
6.806384e+01	-1.503156e+01
6.845698e+01	-1.507902e+01
6.885238e+01	-1.512859e+01
6.925007e+01	-1.517624e+01
6.965005e+01	-1.522425e+01
7.005235e+01	-1.527284e+01
7.045697e+01	-1.532237e+01
7.086393e+01	-1.537083e+01
7.127323e+01	-1.541852e+01
7.168490e+01	-1.546889e+01
7.209895e+01	-1.551536e+01
7.251539e+01	-1.556533e+01
7.293424e+01	-1.561409e+01
7.335551e+01	-1.566235e+01
7.377920e+01	-1.571099e+01
7.420535e+01	-1.575952e+01
7.463396e+01	-1.580922e+01
7.506504e+01	-1.585880e+01
7.549861e+01	-1.590628e+01
7.593469e+01	-1.595601e+01
7.637328e+01	-1.600429e+01
7.681441e+01	-1.605156e+01
7.725809e+01	-1.610074e+01
7.770433e+01	-1.614919e+01
7.815315e+01	-1.619870e+01
7.860456e+01	-1.624780e+01
7.905857e+01	-1.629698e+01
7.951521e+01	-1.634590e+01
7.997449e+01	-1.639421e+01
8.043642e+01	-1.644296e+01
8.090102e+01	-1.649281e+01
8.136830e+01	-1.654152e+01
8.183828e+01	-1.659012e+01
8.231097e+01	-1.663938e+01
8.278640e+01	-1.668821e+01
8.326457e+01	-1.673736e+01
8.374550e+01	-1.678608e+01
8.422921e+01	-1.683540e+01
8.471572e+01	-1.688480e+01
8.520503e+01	-1.693232e+01
8.569717e+01	-1.698161e+01
8.619215e+01	-1.703137e+01
8.669000e+01	-1.708005e+01
8.719071e+01	-1.712981e+01
8.769432e+01	-1.717765e+01
8.820084e+01	-1.722688e+01
8.871029e+01	-1.727519e+01
8.922267e+01	-1.732567e+01
8.973802e+01	-1.737423e+01
9.025634e+01	-1.742408e+01
9.077766e+01	-1.747200e+01
9.130199e+01	-1.752154e+01
9.182935e+01	-1.757100e+01
9.235975e+01	-1.761955e+01
9.289321e+01	-1.766920e+01
9.342976e+01	-1.771889e+01
9.396941e+01	-1.776711e+01
9.451217e+01	-1.781778e+01
9.505807e+01	-1.786566e+01
9.560712e+01	-1.791542e+01
9.615934e+01	-1.796424e+01
9.671476e+01	-1.801446e+01
9.727338e+01	-1.806208e+01
9.783522e+01	-1.811365e+01
9.840032e+01	-1.816132e+01
9.896867e+01	-1.821165e+01
9.954031e+01	-1.826031e+01
1.001153e+02	-1.830974e+01
1.006935e+02	-1.835885e+01
1.012751e+02	-1.840785e+01
1.018601e+02	-1.845730e+01
1.024484e+02	-1.850736e+01
1.030402e+02	-1.855585e+01
1.036353e+02	-1.860478e+01
1.042339e+02	-1.865575e+01
1.048360e+02	-1.870383e+01
1.054415e+02	-1.875346e+01
1.060505e+02	-1.880282e+01
1.066631e+02	-1.885184e+01
1.072791e+02	-1.890154e+01
1.078988e+02	-1.895066e+01
1.085220e+02	-1.900160e+01
1.091488e+02	-1.904951e+01
1.097793e+02	-1.910001e+01
1.104133e+02	-1.914859e+01
1.110511e+02	-1.919878e+01
1.116925e+02	-1.924869e+01
1.123376e+02	-1.929766e+01
1.129865e+02	-1.934594e+01
1.136391e+02	-1.939653e+01
1.142955e+02	-1.944672e+01
1.149556e+02	-1.949561e+01
1.156196e+02	-1.954407e+01
1.162874e+02	-1.959369e+01
1.169591e+02	-1.964282e+01
1.176347e+02	-1.969284e+01
1.183141e+02	-1.974320e+01
1.189975e+02	-1.979100e+01
1.196848e+02	-1.984142e+01
1.203761e+02	-1.989186e+01
1.210714e+02	-1.993965e+01
1.217707e+02	-1.999064e+01
1.224740e+02	-2.003805e+01
1.231814e+02	-2.008926e+01
1.238929e+02	-2.013853e+01
1.246085e+02	-2.018670e+01
1.253283e+02	-2.023819e+01
1.260522e+02	-2.028846e+01
1.267802e+02	-2.033788e+01
1.275125e+02	-2.038576e+01
1.282490e+02	-2.043653e+01
1.289898e+02	-2.048627e+01
1.297348e+02	-2.053451e+01
1.304842e+02	-2.058442e+01
1.312378e+02	-2.063552e+01
1.319959e+02	-2.068364e+01
1.327583e+02	-2.073461e+01
1.335251e+02	-2.078360e+01
1.342963e+02	-2.083434e+01
1.350720e+02	-2.088113e+01
1.358522e+02	-2.093213e+01
1.366368e+02	-2.098341e+01
1.374260e+02	-2.103241e+01
1.382198e+02	-2.108027e+01
1.390182e+02	-2.113022e+01
1.398211e+02	-2.118006e+01
1.406287e+02	-2.123041e+01
1.414410e+02	-2.127804e+01
1.422579e+02	-2.132934e+01
1.430796e+02	-2.138085e+01
1.439060e+02	-2.142904e+01
1.447372e+02	-2.147824e+01
1.455732e+02	-2.152853e+01
1.464141e+02	-2.157848e+01
1.472597e+02	-2.162665e+01
1.481103e+02	-2.167670e+01
1.489658e+02	-2.172776e+01
1.498262e+02	-2.177671e+01
1.506916e+02	-2.182538e+01
1.515620e+02	-2.187368e+01
1.524374e+02	-2.192483e+01
1.533179e+02	-2.197578e+01
1.542034e+02	-2.202603e+01
1.550941e+02	-2.207486e+01
1.559899e+02	-2.212297e+01
1.568909e+02	-2.217571e+01
1.577971e+02	-2.222340e+01
1.587085e+02	-2.227374e+01
1.596252e+02	-2.232134e+01
1.605472e+02	-2.237269e+01
1.614745e+02	-2.242249e+01
1.624072e+02	-2.247267e+01
1.633453e+02	-2.252385e+01
1.642887e+02	-2.257126e+01
1.652377e+02	-2.262048e+01
1.661921e+02	-2.267419e+01
1.671520e+02	-2.272260e+01
1.681175e+02	-2.277369e+01
1.690885e+02	-2.281858e+01
1.700651e+02	-2.286971e+01
1.710474e+02	-2.292222e+01
1.720354e+02	-2.297075e+01
1.730291e+02	-2.302192e+01
1.740285e+02	-2.307122e+01
1.750337e+02	-2.312038e+01
1.760446e+02	-2.316957e+01
1.770615e+02	-2.322054e+01
1.780842e+02	-2.327141e+01
1.791128e+02	-2.332024e+01
1.801473e+02	-2.336846e+01
1.811878e+02	-2.342016e+01
1.822344e+02	-2.346860e+01
1.832870e+02	-2.351746e+01
1.843456e+02	-2.356898e+01
1.854104e+02	-2.361782e+01
1.864813e+02	-2.366964e+01
1.875584e+02	-2.371861e+01
1.886418e+02	-2.376678e+01
1.897313e+02	-2.381583e+01
1.908272e+02	-2.386797e+01
1.919294e+02	-2.391645e+01
1.930380e+02	-2.396858e+01
1.941530e+02	-2.401764e+01
1.952744e+02	-2.406631e+01
1.964023e+02	-2.411552e+01
1.975367e+02	-2.416695e+01
1.986777e+02	-2.421781e+01
1.998252e+02	-2.426825e+01
2.009794e+02	-2.431665e+01
2.021403e+02	-2.436560e+01
2.033078e+02	-2.441548e+01
2.044821e+02	-2.446576e+01
2.056632e+02	-2.451578e+01
2.068511e+02	-2.456277e+01
2.080459e+02	-2.461396e+01
2.092475e+02	-2.466407e+01
2.104561e+02	-2.471326e+01
2.116717e+02	-2.476721e+01
2.128943e+02	-2.481574e+01
2.141240e+02	-2.486282e+01
2.153608e+02	-2.491612e+01
2.166047e+02	-2.496504e+01
2.178558e+02	-2.501486e+01
2.191141e+02	-2.506603e+01
2.203797e+02	-2.511508e+01
2.216526e+02	-2.516671e+01
2.229329e+02	-2.521293e+01
2.242205e+02	-2.526494e+01
2.255156e+02	-2.531256e+01
2.268182e+02	-2.536539e+01
2.281283e+02	-2.541496e+01
2.294459e+02	-2.546110e+01
2.307712e+02	-2.551105e+01
2.321041e+02	-2.556313e+01
2.334447e+02	-2.561664e+01
2.347931e+02	-2.566102e+01
2.361493e+02	-2.571486e+01
2.375133e+02	-2.576334e+01
2.388851e+02	-2.581278e+01
2.402649e+02	-2.586406e+01
2.416527e+02	-2.591304e+01
2.430484e+02	-2.596392e+01
2.444523e+02	-2.601108e+01
2.458642e+02	-2.606178e+01
2.472843e+02	-2.610936e+01
2.487126e+02	-2.616377e+01
2.501492e+02	-2.621142e+01
2.515940e+02	-2.626308e+01
2.530472e+02	-2.631146e+01
2.545088e+02	-2.635948e+01
2.559789e+02	-2.641427e+01
2.574574e+02	-2.646272e+01
2.589444e+02	-2.651205e+01
2.604401e+02	-2.656388e+01
2.619444e+02	-2.661291e+01
2.634574e+02	-2.666301e+01
2.649791e+02	-2.671089e+01
2.665096e+02	-2.676023e+01
2.680489e+02	-2.680944e+01
2.695972e+02	-2.686140e+01
2.711544e+02	-2.691303e+01
2.727205e+02	-2.696128e+01
2.742958e+02	-2.701326e+01
2.758801e+02	-2.706103e+01
2.774736e+02	-2.711010e+01
2.790762e+02	-2.716387e+01
2.806882e+02	-2.721515e+01
2.823094e+02	-2.726621e+01
2.839400e+02	-2.731250e+01
2.855800e+02	-2.736267e+01
2.872295e+02	-2.741426e+01
2.888886e+02	-2.746167e+01
2.905572e+02	-2.750719e+01
2.922354e+02	-2.756289e+01
2.939234e+02	-2.761220e+01
2.956211e+02	-2.766597e+01
2.973286e+02	-2.771232e+01
2.990459e+02	-2.776563e+01
3.007732e+02	-2.781280e+01
3.025104e+02	-2.786400e+01
3.042577e+02	-2.791215e+01
3.060151e+02	-2.795819e+01
3.077826e+02	-2.801425e+01
3.095604e+02	-2.806222e+01
3.113484e+02	-2.811248e+01
3.131467e+02	-2.816570e+01
3.149554e+02	-2.821484e+01
3.167746e+02	-2.826246e+01
3.186043e+02	-2.831481e+01
3.204445e+02	-2.836573e+01
3.222954e+02	-2.841525e+01
3.241570e+02	-2.846185e+01
3.260293e+02	-2.851471e+01
3.279124e+02	-2.856189e+01
3.298064e+02	-2.860957e+01
3.317114e+02	-2.866499e+01
3.336273e+02	-2.871537e+01
3.355544e+02	-2.876116e+01
3.374925e+02	-2.881440e+01
3.394418e+02	-2.885894e+01
3.414024e+02	-2.891266e+01
3.433744e+02	-2.896235e+01
3.453577e+02	-2.901569e+01
3.473525e+02	-2.906589e+01
3.493588e+02	-2.911582e+01
3.513766e+02	-2.916167e+01
3.534062e+02	-2.921759e+01
3.554474e+02	-2.926176e+01
3.575005e+02	-2.931075e+01
3.595654e+02	-2.936289e+01
3.616422e+02	-2.941625e+01
3.637311e+02	-2.946171e+01
3.658320e+02	-2.951554e+01
3.679450e+02	-2.956443e+01
3.700702e+02	-2.961536e+01
3.722077e+02	-2.966428e+01
3.743576e+02	-2.971659e+01
3.765199e+02	-2.976466e+01
3.786946e+02	-2.981556e+01
3.808820e+02	-2.986410e+01
3.830819e+02	-2.991448e+01
3.852946e+02	-2.996099e+01
3.875200e+02	-3.001411e+01
3.897583e+02	-3.006373e+01
3.920096e+02	-3.011094e+01
3.942738e+02	-3.016150e+01
3.965511e+02	-3.021746e+01
3.988416e+02	-3.026344e+01
4.011452e+02	-3.030924e+01
4.034622e+02	-3.036670e+01
4.057926e+02	-3.042153e+01
4.081365e+02	-3.046598e+01
4.104938e+02	-3.051494e+01
4.128648e+02	-3.056965e+01
4.152495e+02	-3.061574e+01
4.176480e+02	-3.066998e+01
4.200603e+02	-3.071654e+01
4.224866e+02	-3.076308e+01
4.249268e+02	-3.081742e+01
4.273812e+02	-3.086910e+01
4.298497e+02	-3.091973e+01
4.323325e+02	-3.096376e+01
4.348297e+02	-3.101485e+01
4.373412e+02	-3.106702e+01
4.398673e+02	-3.111887e+01
4.424079e+02	-3.116816e+01
4.449633e+02	-3.121762e+01
4.475334e+02	-3.126991e+01
4.501183e+02	-3.131574e+01
4.527182e+02	-3.136713e+01
4.553330e+02	-3.141578e+01
4.579630e+02	-3.147229e+01
4.606082e+02	-3.152251e+01
4.632687e+02	-3.156839e+01
4.659445e+02	-3.161885e+01
4.686358e+02	-3.167294e+01
4.713426e+02	-3.172003e+01
4.740650e+02	-3.177071e+01
4.768032e+02	-3.181919e+01
4.795572e+02	-3.187188e+01
4.823271e+02	-3.191878e+01
4.851130e+02	-3.197251e+01
4.879150e+02	-3.202119e+01
4.907332e+02	-3.207104e+01
4.935676e+02	-3.212346e+01
4.964185e+02	-3.218054e+01
4.992858e+02	-3.221953e+01
5.021696e+02	-3.227463e+01
5.050701e+02	-3.231403e+01
5.079874e+02	-3.237208e+01
5.109215e+02	-3.242901e+01
5.138726e+02	-3.247529e+01
5.168407e+02	-3.252680e+01
5.198259e+02	-3.257696e+01
5.228284e+02	-3.262018e+01
5.258482e+02	-3.267915e+01
5.288855e+02	-3.272493e+01
5.319403e+02	-3.277877e+01
5.350128e+02	-3.282330e+01
5.381030e+02	-3.287886e+01
5.412111e+02	-3.292519e+01
5.443371e+02	-3.297989e+01
5.474812e+02	-3.302288e+01
5.506434e+02	-3.307576e+01
5.538239e+02	-3.312679e+01
5.570228e+02	-3.318060e+01
5.602401e+02	-3.322476e+01
5.634760e+02	-3.327976e+01
5.667306e+02	-3.332299e+01
5.700040e+02	-3.338250e+01
5.732964e+02	-3.343494e+01
5.766077e+02	-3.348062e+01
5.799382e+02	-3.353009e+01
5.832879e+02	-3.357930e+01
5.866569e+02	-3.363165e+01
5.900454e+02	-3.367495e+01
5.934535e+02	-3.373160e+01
5.968813e+02	-3.378357e+01
6.003288e+02	-3.382499e+01
6.037963e+02	-3.387038e+01
6.072838e+02	-3.393436e+01
6.107914e+02	-3.397957e+01
6.143194e+02	-3.402845e+01
6.178676e+02	-3.408487e+01
6.214364e+02	-3.414063e+01
6.250258e+02	-3.418333e+01
6.286359e+02	-3.423161e+01
6.322669e+02	-3.427421e+01
6.359189e+02	-3.433198e+01
6.395919e+02	-3.438228e+01
6.432862e+02	-3.443257e+01
6.470017e+02	-3.448184e+01
6.507388e+02	-3.453542e+01
6.544974e+02	-3.458773e+01
6.582778e+02	-3.464003e+01
6.620800e+02	-3.468167e+01
6.659041e+02	-3.473703e+01
6.697504e+02	-3.478141e+01
6.736188e+02	-3.483394e+01
6.775096e+02	-3.488101e+01
6.814229e+02	-3.493613e+01
6.853587e+02	-3.498505e+01
6.893173e+02	-3.504100e+01
6.932988e+02	-3.508489e+01
6.973033e+02	-3.513915e+01
7.013309e+02	-3.519474e+01
