Frequency(Hz)	Magnitude(dB)
1.000000e+01	-2.109483e+00
1.005776e+01	-2.128901e+00
1.011585e+01	-2.148332e+00
1.017428e+01	-2.167912e+00
1.023305e+01	-2.187429e+00
1.029215e+01	-2.207170e+00
1.035160e+01	-2.227043e+00
1.041139e+01	-2.247506e+00
1.047153e+01	-2.267805e+00
1.053201e+01	-2.288083e+00
1.059284e+01	-2.308959e+00
1.065403e+01	-2.329632e+00
1.071556e+01	-2.350336e+00
1.077746e+01	-2.371381e+00
1.083971e+01	-2.392431e+00
1.090232e+01	-2.413757e+00
1.096529e+01	-2.435136e+00
1.102862e+01	-2.456453e+00
1.109232e+01	-2.478130e+00
1.115639e+01	-2.500096e+00
1.122083e+01	-2.522192e+00
1.128564e+01	-2.544087e+00
1.135083e+01	-2.566754e+00
1.141639e+01	-2.588743e+00
1.148233e+01	-2.611466e+00
1.154865e+01	-2.634014e+00
1.161536e+01	-2.656874e+00
1.168245e+01	-2.679854e+00
1.174992e+01	-2.702925e+00
1.181779e+01	-2.726185e+00
1.188605e+01	-2.749553e+00
1.195470e+01	-2.773106e+00
1.202375e+01	-2.796786e+00
1.209320e+01	-2.820652e+00
1.216305e+01	-2.844573e+00
1.223330e+01	-2.868633e+00
1.230396e+01	-2.892925e+00
1.237503e+01	-2.917592e+00
1.244651e+01	-2.941937e+00
1.251840e+01	-2.966520e+00
1.259070e+01	-2.991269e+00
1.266343e+01	-3.016286e+00
1.273657e+01	-3.041527e+00
1.281014e+01	-3.066623e+00
1.288413e+01	-3.092373e+00
1.295855e+01	-3.117714e+00
1.303339e+01	-3.143444e+00
1.310867e+01	-3.169407e+00
1.318439e+01	-3.195260e+00
1.326054e+01	-3.221292e+00
1.333713e+01	-3.247898e+00
1.341417e+01	-3.274121e+00
1.349165e+01	-3.300790e+00
1.356958e+01	-3.327369e+00
1.364795e+01	-3.354235e+00
1.372678e+01	-3.381079e+00
1.380607e+01	-3.408255e+00
1.388581e+01	-3.435479e+00
1.396602e+01	-3.462948e+00
1.404668e+01	-3.490661e+00
1.412782e+01	-3.518671e+00
1.420942e+01	-3.545943e+00
1.429149e+01	-3.574138e+00
1.437404e+01	-3.602312e+00
1.445706e+01	-3.630388e+00
1.454057e+01	-3.658911e+00
1.462455e+01	-3.687493e+00
1.470902e+01	-3.716317e+00
1.479398e+01	-3.745151e+00
1.487943e+01	-3.774054e+00
1.496537e+01	-3.803175e+00
1.505181e+01	-3.832312e+00
1.513875e+01	-3.861773e+00
1.522619e+01	-3.891197e+00
1.531414e+01	-3.920830e+00
1.540259e+01	-3.950709e+00
1.549156e+01	-3.980695e+00
1.558103e+01	-4.010753e+00
1.567103e+01	-4.041023e+00
1.576155e+01	-4.071265e+00
1.585258e+01	-4.101809e+00
1.594415e+01	-4.132492e+00
1.603624e+01	-4.163554e+00
1.612886e+01	-4.193976e+00
1.622202e+01	-4.225331e+00
1.631572e+01	-4.256386e+00
1.640996e+01	-4.287767e+00
1.650474e+01	-4.319174e+00
1.660008e+01	-4.350470e+00
1.669596e+01	-4.382373e+00
1.679239e+01	-4.414413e+00
1.688938e+01	-4.446174e+00
1.698694e+01	-4.478070e+00
1.708505e+01	-4.510983e+00
1.718373e+01	-4.543444e+00
1.728299e+01	-4.575797e+00
1.738281e+01	-4.608304e+00
1.748322e+01	-4.641102e+00
1.758420e+01	-4.674049e+00
1.768576e+01	-4.707085e+00
1.778792e+01	-4.740218e+00
1.789066e+01	-4.773516e+00
1.799399e+01	-4.806922e+00
1.809793e+01	-4.840560e+00
1.820246e+01	-4.874176e+00
1.830760e+01	-4.907855e+00
1.841334e+01	-4.941754e+00
1.851969e+01	-4.975918e+00
1.862666e+01	-5.010081e+00
1.873425e+01	-5.044262e+00
1.884246e+01	-5.078814e+00
1.895129e+01	-5.113646e+00
1.906075e+01	-5.148076e+00
1.917085e+01	-5.182714e+00
1.928158e+01	-5.217615e+00
1.939295e+01	-5.252958e+00
1.950496e+01	-5.287950e+00
1.961762e+01	-5.323247e+00
1.973093e+01	-5.358446e+00
1.984490e+01	-5.393998e+00
1.995952e+01	-5.429493e+00
2.007480e+01	-5.465540e+00
2.019076e+01	-5.501791e+00
2.030738e+01	-5.537701e+00
2.042467e+01	-5.573512e+00
2.054264e+01	-5.609854e+00
2.066130e+01	-5.645941e+00
2.078064e+01	-5.682248e+00
2.090066e+01	-5.719486e+00
2.102139e+01	-5.755755e+00
2.114280e+01	-5.792528e+00
2.126492e+01	-5.829831e+00
2.138775e+01	-5.866777e+00
2.151128e+01	-5.903288e+00
2.163553e+01	-5.940943e+00
2.176050e+01	-5.978289e+00
2.188619e+01	-6.015775e+00
2.201260e+01	-6.053156e+00
2.213974e+01	-6.090691e+00
2.226762e+01	-6.128619e+00
2.239624e+01	-6.166532e+00
2.252560e+01	-6.204784e+00
2.265571e+01	-6.242613e+00
2.278656e+01	-6.280805e+00
2.291818e+01	-6.318895e+00
2.305055e+01	-6.357612e+00
2.318369e+01	-6.395906e+00
2.331760e+01	-6.434608e+00
2.345228e+01	-6.473780e+00
2.358774e+01	-6.511831e+00
2.372398e+01	-6.551235e+00
2.386101e+01	-6.589827e+00
2.399883e+01	-6.629090e+00
2.413745e+01	-6.668527e+00
2.427686e+01	-6.707484e+00
2.441709e+01	-6.747254e+00
2.455812e+01	-6.786309e+00
2.469997e+01	-6.826207e+00
2.484263e+01	-6.866010e+00
2.498612e+01	-6.905356e+00
2.513044e+01	-6.945288e+00
2.527559e+01	-6.985364e+00
2.542158e+01	-7.025569e+00
2.556842e+01	-7.065068e+00
2.571610e+01	-7.105815e+00
2.586463e+01	-7.145935e+00
2.601403e+01	-7.186749e+00
2.616428e+01	-7.227183e+00
2.631541e+01	-7.267702e+00
2.646740e+01	-7.308352e+00
2.662028e+01	-7.349430e+00
2.677404e+01	-7.390014e+00
2.692868e+01	-7.431181e+00
2.708422e+01	-7.472428e+00
2.724066e+01	-7.513015e+00
2.739800e+01	-7.554955e+00
2.755625e+01	-7.595875e+00
2.771541e+01	-7.636708e+00
2.787550e+01	-7.678609e+00
2.803650e+01	-7.720004e+00
2.819844e+01	-7.761536e+00
2.836131e+01	-7.803195e+00
2.852513e+01	-7.844972e+00
2.868989e+01	-7.886764e+00
2.885560e+01	-7.928943e+00
2.902227e+01	-7.970724e+00
2.918990e+01	-8.012848e+00
2.935850e+01	-8.055506e+00
2.952807e+01	-8.097184e+00
2.969863e+01	-8.139788e+00
2.987016e+01	-8.181984e+00
3.004269e+01	-8.224473e+00
3.021622e+01	-8.267214e+00
3.039075e+01	-8.309843e+00
3.056628e+01	-8.352028e+00
3.074283e+01	-8.395099e+00
3.092040e+01	-8.437899e+00
3.109900e+01	-8.480908e+00
3.127862e+01	-8.523859e+00
3.145929e+01	-8.566998e+00
3.164099e+01	-8.609809e+00
3.182375e+01	-8.652828e+00
3.200756e+01	-8.696316e+00
3.219244e+01	-8.739446e+00
3.237838e+01	-8.783014e+00
3.256540e+01	-8.826406e+00
3.275349e+01	-8.869894e+00
3.294268e+01	-8.913404e+00
3.313295e+01	-8.956940e+00
3.332433e+01	-9.000748e+00
3.351681e+01	-9.044095e+00
3.371040e+01	-9.087922e+00
3.390511e+01	-9.131971e+00
3.410094e+01	-9.176227e+00
3.429791e+01	-9.220131e+00
3.449601e+01	-9.263992e+00
3.469526e+01	-9.308861e+00
3.489566e+01	-9.352567e+00
3.509721e+01	-9.396899e+00
3.529993e+01	-9.441024e+00
3.550382e+01	-9.485368e+00
3.570889e+01	-9.529860e+00
3.591515e+01	-9.574122e+00
3.612259e+01	-9.618800e+00
3.633123e+01	-9.663504e+00
3.654108e+01	-9.708530e+00
3.675214e+01	-9.753055e+00
3.696442e+01	-9.797466e+00
3.717792e+01	-9.842725e+00
3.739266e+01	-9.887207e+00
3.760864e+01	-9.932351e+00
3.782587e+01	-9.977135e+00
3.804435e+01	-1.002275e+01
3.826409e+01	-1.006703e+01
3.848510e+01	-1.011239e+01
3.870739e+01	-1.015736e+01
3.893096e+01	-1.020268e+01
3.915583e+01	-1.024821e+01
3.938199e+01	-1.029312e+01
3.960946e+01	-1.033821e+01
3.983824e+01	-1.038453e+01
4.006834e+01	-1.042990e+01
4.029978e+01	-1.047495e+01
4.053255e+01	-1.052093e+01
4.076666e+01	-1.056651e+01
4.100213e+01	-1.061199e+01
4.123896e+01	-1.065781e+01
4.147715e+01	-1.070321e+01
4.171672e+01	-1.074923e+01
4.195767e+01	-1.079549e+01
4.220002e+01	-1.084046e+01
4.244377e+01	-1.088748e+01
4.268892e+01	-1.093297e+01
4.293549e+01	-1.097919e+01
4.318348e+01	-1.102518e+01
4.343291e+01	-1.107102e+01
4.368377e+01	-1.111746e+01
4.393609e+01	-1.116362e+01
4.418986e+01	-1.120924e+01
4.444510e+01	-1.125553e+01
4.470182e+01	-1.130240e+01
4.496001e+01	-1.134859e+01
4.521970e+01	-1.139492e+01
4.548089e+01	-1.144103e+01
4.574358e+01	-1.148799e+01
4.600779e+01	-1.153395e+01
4.627353e+01	-1.158058e+01
4.654081e+01	-1.162780e+01
4.680963e+01	-1.167425e+01
4.708000e+01	-1.172065e+01
4.735193e+01	-1.176696e+01
4.762543e+01	-1.181428e+01
4.790051e+01	-1.186078e+01
4.817719e+01	-1.190782e+01
4.845545e+01	-1.195482e+01
4.873533e+01	-1.200160e+01
4.901682e+01	-1.204786e+01
4.929994e+01	-1.209437e+01
4.958470e+01	-1.214197e+01
4.987110e+01	-1.218919e+01
5.015915e+01	-1.223594e+01
5.044887e+01	-1.228311e+01
5.074026e+01	-1.232970e+01
5.103333e+01	-1.237719e+01
5.132810e+01	-1.242462e+01
5.162457e+01	-1.247195e+01
5.192275e+01	-1.251828e+01
5.222265e+01	-1.256530e+01
5.252429e+01	-1.261320e+01
5.282767e+01	-1.266001e+01
5.313280e+01	-1.270716e+01
5.343969e+01	-1.275523e+01
5.374836e+01	-1.280231e+01
5.405880e+01	-1.284958e+01
5.437105e+01	-1.289818e+01
5.468509e+01	-1.294556e+01
5.500095e+01	-1.299267e+01
5.531863e+01	-1.303961e+01
5.563815e+01	-1.308776e+01
5.595951e+01	-1.313472e+01
5.628273e+01	-1.318272e+01
5.660782e+01	-1.323100e+01
5.693479e+01	-1.327771e+01
5.726364e+01	-1.332594e+01
5.759439e+01	-1.337336e+01
5.792705e+01	-1.342163e+01
5.826164e+01	-1.346869e+01
5.859815e+01	-1.351692e+01
5.893662e+01	-1.356489e+01
5.927703e+01	-1.361239e+01
5.961941e+01	-1.365945e+01
5.996377e+01	-1.370804e+01
6.031012e+01	-1.375572e+01
6.065847e+01	-1.380427e+01
6.100883e+01	-1.385178e+01
6.136121e+01	-1.390012e+01
6.171563e+01	-1.394838e+01
6.207210e+01	-1.399588e+01
6.243063e+01	-1.404425e+01
6.279122e+01	-1.409176e+01
6.315390e+01	-1.414051e+01
6.351868e+01	-1.418839e+01
6.388556e+01	-1.423685e+01
6.425456e+01	-1.428531e+01
6.462569e+01	-1.433399e+01
6.499897e+01	-1.438132e+01
6.537440e+01	-1.442877e+01
6.575200e+01	-1.447718e+01
6.613178e+01	-1.452540e+01
6.651375e+01	-1.457385e+01
6.689793e+01	-1.462238e+01
6.728433e+01	-1.467053e+01
6.767297e+01	-1.472007e+01
6.806384e+01	-1.476744e+01
6.845698e+01	-1.481626e+01
6.885238e+01	-1.486382e+01
6.925007e+01	-1.491185e+01
6.965005e+01	-1.496083e+01
7.005235e+01	-1.500915e+01
7.045697e+01	-1.505760e+01
7.086393e+01	-1.510672e+01
7.127323e+01	-1.515424e+01
7.168490e+01	-1.520333e+01
7.209895e+01	-1.525066e+01
7.251539e+01	-1.530016e+01
7.293424e+01	-1.534980e+01
7.335551e+01	-1.539689e+01
7.377920e+01	-1.544557e+01
7.420535e+01	-1.549455e+01
7.463396e+01	-1.554389e+01
7.506504e+01	-1.559143e+01
7.549861e+01	-1.564038e+01
7.593469e+01	-1.568887e+01
7.637328e+01	-1.573631e+01
7.681441e+01	-1.578617e+01
7.725809e+01	-1.583612e+01
7.770433e+01	-1.588404e+01
7.815315e+01	-1.593296e+01
7.860456e+01	-1.598068e+01
7.905857e+01	-1.603028e+01
7.951521e+01	-1.608009e+01
7.997449e+01	-1.612790e+01
8.043642e+01	-1.617716e+01
8.090102e+01	-1.622543e+01
8.136830e+01	-1.627480e+01
8.183828e+01	-1.632344e+01
8.231097e+01	-1.637271e+01
8.278640e+01	-1.642101e+01
8.326457e+01	-1.646987e+01
8.374550e+01	-1.651782e+01
8.422921e+01	-1.656852e+01
8.471572e+01	-1.661656e+01
8.520503e+01	-1.666638e+01
8.569717e+01	-1.671360e+01
8.619215e+01	-1.676351e+01
8.669000e+01	-1.681183e+01
8.719071e+01	-1.686121e+01
8.769432e+01	-1.691003e+01
8.820084e+01	-1.696016e+01
8.871029e+01	-1.700818e+01
8.922267e+01	-1.705769e+01
8.973802e+01	-1.710756e+01
9.025634e+01	-1.715458e+01
9.077766e+01	-1.720387e+01
9.130199e+01	-1.725357e+01
9.182935e+01	-1.730364e+01
9.235975e+01	-1.735234e+01
9.289321e+01	-1.740115e+01
9.342976e+01	-1.745038e+01
9.396941e+01	-1.749891e+01
9.451217e+01	-1.754908e+01
9.505807e+01	-1.759704e+01
9.560712e+01	-1.764601e+01
9.615934e+01	-1.769663e+01
9.671476e+01	-1.774535e+01
9.727338e+01	-1.779468e+01
9.783522e+01	-1.784457e+01
9.840032e+01	-1.789328e+01
9.896867e+01	-1.794180e+01
9.954031e+01	-1.799092e+01
1.001153e+02	-1.804083e+01
1.006935e+02	-1.809056e+01
1.012751e+02	-1.813950e+01
1.018601e+02	-1.818830e+01
1.024484e+02	-1.823859e+01
1.030402e+02	-1.828548e+01
1.036353e+02	-1.833722e+01
1.042339e+02	-1.838592e+01
1.048360e+02	-1.843616e+01
1.054415e+02	-1.848341e+01
1.060505e+02	-1.853173e+01
1.066631e+02	-1.858180e+01
1.072791e+02	-1.863083e+01
1.078988e+02	-1.868171e+01
1.085220e+02	-1.873005e+01
1.091488e+02	-1.878029e+01
1.097793e+02	-1.882898e+01
1.104133e+02	-1.887945e+01
1.110511e+02	-1.892857e+01
1.116925e+02	-1.897941e+01
1.123376e+02	-1.902771e+01
1.129865e+02	-1.907663e+01
1.136391e+02	-1.912691e+01
1.142955e+02	-1.917484e+01
1.149556e+02	-1.922430e+01
1.156196e+02	-1.927460e+01
1.162874e+02	-1.932437e+01
1.169591e+02	-1.937400e+01
1.176347e+02	-1.942302e+01
1.183141e+02	-1.947243e+01
1.189975e+02	-1.952224e+01
1.196848e+02	-1.957213e+01
1.203761e+02	-1.962146e+01
1.210714e+02	-1.966892e+01
1.217707e+02	-1.971986e+01
1.224740e+02	-1.976977e+01
1.231814e+02	-1.981964e+01
1.238929e+02	-1.986716e+01
1.246085e+02	-1.991754e+01
1.253283e+02	-1.996896e+01
1.260522e+02	-2.001743e+01
1.267802e+02	-2.006614e+01
1.275125e+02	-2.011658e+01
1.282490e+02	-2.016476e+01
1.289898e+02	-2.021687e+01
1.297348e+02	-2.026527e+01
1.304842e+02	-2.031224e+01
1.312378e+02	-2.036517e+01
1.319959e+02	-2.041361e+01
1.327583e+02	-2.046226e+01
1.335251e+02	-2.051337e+01
1.342963e+02	-2.056304e+01
1.350720e+02	-2.061130e+01
1.358522e+02	-2.066313e+01
1.366368e+02	-2.070966e+01
1.374260e+02	-2.076025e+01
1.382198e+02	-2.081053e+01
1.390182e+02	-2.085937e+01
1.398211e+02	-2.090926e+01
1.406287e+02	-2.095877e+01
1.414410e+02	-2.100830e+01
1.422579e+02	-2.105758e+01
1.430796e+02	-2.110601e+01
1.439060e+02	-2.115952e+01
1.447372e+02	-2.120621e+01
1.455732e+02	-2.125756e+01
1.464141e+02	-2.130686e+01
1.472597e+02	-2.135582e+01
1.481103e+02	-2.140465e+01
1.489658e+02	-2.145484e+01
1.498262e+02	-2.150550e+01
1.506916e+02	-2.155614e+01
1.515620e+02	-2.160563e+01
1.524374e+02	-2.165350e+01
1.533179e+02	-2.170455e+01
1.542034e+02	-2.175453e+01
1.550941e+02	-2.180391e+01
1.559899e+02	-2.185392e+01
1.568909e+02	-2.190423e+01
1.577971e+02	-2.195159e+01
1.587085e+02	-2.200069e+01
1.596252e+02	-2.205305e+01
1.605472e+02	-2.210329e+01
1.614745e+02	-2.215167e+01
1.624072e+02	-2.220209e+01
1.633453e+02	-2.224990e+01
1.642887e+02	-2.230215e+01
1.652377e+02	-2.235062e+01
1.661921e+02	-2.239895e+01
1.671520e+02	-2.244892e+01
1.681175e+02	-2.249975e+01
1.690885e+02	-2.255169e+01
1.700651e+02	-2.259878e+01
1.710474e+02	-2.264858e+01
1.720354e+02	-2.270090e+01
1.730291e+02	-2.274683e+01
1.740285e+02	-2.279809e+01
1.750337e+02	-2.284923e+01
1.760446e+02	-2.289864e+01
1.770615e+02	-2.294729e+01
1.780842e+02	-2.299736e+01
1.791128e+02	-2.304897e+01
1.801473e+02	-2.310045e+01
1.811878e+02	-2.314561e+01
1.822344e+02	-2.319650e+01
1.832870e+02	-2.324898e+01
1.843456e+02	-2.329746e+01
1.854104e+02	-2.334621e+01
1.864813e+02	-2.339689e+01
1.875584e+02	-2.344450e+01
1.886418e+02	-2.349495e+01
1.897313e+02	-2.354618e+01
1.908272e+02	-2.359519e+01
1.919294e+02	-2.364425e+01
1.930380e+02	-2.369526e+01
1.941530e+02	-2.374545e+01
1.952744e+02	-2.379286e+01
1.964023e+02	-2.384565e+01
1.975367e+02	-2.389587e+01
1.986777e+02	-2.394422e+01
1.998252e+02	-2.399488e+01
2.009794e+02	-2.404306e+01
2.021403e+02	-2.409095e+01
2.033078e+02	-2.414287e+01
2.044821e+02	-2.419366e+01
2.056632e+02	-2.424234e+01
2.068511e+02	-2.429571e+01
2.080459e+02	-2.434569e+01
2.092475e+02	-2.439530e+01
2.104561e+02	-2.444516e+01
2.116717e+02	-2.449237e+01
2.128943e+02	-2.454131e+01
2.141240e+02	-2.459160e+01
2.153608e+02	-2.464175e+01
2.166047e+02	-2.469312e+01
2.178558e+02	-2.474254e+01
2.191141e+02	-2.479154e+01
2.203797e+02	-2.484261e+01
2.216526e+02	-2.489473e+01
2.229329e+02	-2.494147e+01
2.242205e+02	-2.499132e+01
2.255156e+02	-2.504379e+01
2.268182e+02	-2.508903e+01
2.281283e+02	-2.514129e+01
2.294459e+02	-2.519213e+01
2.307712e+02	-2.524072e+01
2.321041e+02	-2.529277e+01
2.334447e+02	-2.534123e+01
2.347931e+02	-2.539356e+01
2.361493e+02	-2.544275e+01
2.375133e+02	-2.549127e+01
2.388851e+02	-2.554195e+01
2.402649e+02	-2.558866e+01
2.416527e+02	-2.563910e+01
2.430484e+02	-2.569021e+01
2.444523e+02	-2.574229e+01
2.458642e+02	-2.578959e+01
2.472843e+02	-2.584182e+01
2.487126e+02	-2.589061e+01
2.501492e+02	-2.593858e+01
2.515940e+02	-2.598807e+01
2.530472e+02	-2.604042e+01
2.545088e+02	-2.609081e+01
2.559789e+02	-2.614235e+01
2.574574e+02	-2.619042e+01
2.589444e+02	-2.624058e+01
2.604401e+02	-2.629002e+01
2.619444e+02	-2.634276e+01
2.634574e+02	-2.638984e+01
2.649791e+02	-2.643994e+01
2.665096e+02	-2.649105e+01
2.680489e+02	-2.653874e+01
2.695972e+02	-2.658841e+01
2.711544e+02	-2.664149e+01
2.727205e+02	-2.669183e+01
2.742958e+02	-2.674017e+01
2.758801e+02	-2.679242e+01
2.774736e+02	-2.684372e+01
2.790762e+02	-2.689261e+01
2.806882e+02	-2.694185e+01
2.823094e+02	-2.699063e+01
2.839400e+02	-2.704062e+01
2.855800e+02	-2.708786e+01
2.872295e+02	-2.714047e+01
2.888886e+02	-2.719062e+01
2.905572e+02	-2.724152e+01
2.922354e+02	-2.728806e+01
2.939234e+02	-2.734073e+01
2.956211e+02	-2.738997e+01
2.973286e+02	-2.743750e+01
2.990459e+02	-2.748861e+01
3.007732e+02	-2.754192e+01
3.025104e+02	-2.759463e+01
3.042577e+02	-2.763707e+01
3.060151e+02	-2.769111e+01
3.077826e+02	-2.773777e+01
3.095604e+02	-2.779269e+01
3.113484e+02	-2.783881e+01
3.131467e+02	-2.788644e+01
3.149554e+02	-2.794142e+01
3.167746e+02	-2.798840e+01
3.186043e+02	-2.804223e+01
3.204445e+02	-2.809348e+01
3.222954e+02	-2.814168e+01
3.241570e+02	-2.819037e+01
3.260293e+02	-2.824437e+01
3.279124e+02	-2.828833e+01
3.298064e+02	-2.833969e+01
3.317114e+02	-2.839084e+01
3.336273e+02	-2.844525e+01
3.355544e+02	-2.848991e+01
3.374925e+02	-2.854188e+01
3.394418e+02	-2.859218e+01
3.414024e+02	-2.864454e+01
3.433744e+02	-2.869050e+01
3.453577e+02	-2.874325e+01
3.473525e+02	-2.879072e+01
3.493588e+02	-2.884404e+01
3.513766e+02	-2.888922e+01
3.534062e+02	-2.894087e+01
3.554474e+02	-2.899493e+01
3.575005e+02	-2.904393e+01
3.595654e+02	-2.909053e+01
3.616422e+02	-2.914668e+01
3.637311e+02	-2.919462e+01
3.658320e+02	-2.923807e+01
3.679450e+02	-2.929232e+01
3.700702e+02	-2.934251e+01
3.722077e+02	-2.938651e+01
3.743576e+02	-2.944197e+01
3.765199e+02	-2.949163e+01
3.786946e+02	-2.954088e+01
3.808820e+02	-2.959204e+01
3.830819e+02	-2.964507e+01
3.852946e+02	-2.969355e+01
3.875200e+02	-2.974455e+01
3.897583e+02	-2.979405e+01
3.920096e+02	-2.984219e+01
3.942738e+02	-2.989006e+01
3.965511e+02	-2.993949e+01
3.988416e+02	-2.999498e+01
4.011452e+02	-3.004116e+01
4.034622e+02	-3.009041e+01
4.057926e+02	-3.014614e+01
4.081365e+02	-3.019185e+01
4.104938e+02	-3.024279e+01
4.128648e+02	-3.029450e+01
4.152495e+02	-3.034184e+01
4.176480e+02	-3.039315e+01
4.200603e+02	-3.044743e+01
4.224866e+02	-3.049502e+01
4.249268e+02	-3.054014e+01
4.273812e+02	-3.059314e+01
4.298497e+02	-3.064396e+01
4.323325e+02	-3.069583e+01
4.348297e+02	-3.074687e+01
4.373412e+02	-3.079829e+01
4.398673e+02	-3.084687e+01
4.424079e+02	-3.089362e+01
4.449633e+02	-3.094043e+01
4.475334e+02	-3.099429e+01
4.501183e+02	-3.104684e+01
4.527182e+02	-3.109232e+01
4.553330e+02	-3.114703e+01
4.579630e+02	-3.119613e+01
4.606082e+02	-3.124342e+01
4.632687e+02	-3.130200e+01
4.659445e+02	-3.134658e+01
4.686358e+02	-3.140115e+01
4.713426e+02	-3.144862e+01
4.740650e+02	-3.149883e+01
4.768032e+02	-3.154562e+01
4.795572e+02	-3.159736e+01
4.823271e+02	-3.164780e+01
4.851130e+02	-3.169435e+01
4.879150e+02	-3.175004e+01
4.907332e+02	-3.180054e+01
4.935676e+02	-3.184693e+01
4.964185e+02	-3.190298e+01
4.992858e+02	-3.195179e+01
5.021696e+02	-3.200141e+01
5.050701e+02	-3.204723e+01
5.079874e+02	-3.209947e+01
5.109215e+02	-3.214504e+01
5.138726e+02	-3.219636e+01
5.168407e+02	-3.225217e+01
5.198259e+02	-3.229868e+01
5.228284e+02	-3.235079e+01
5.258482e+02	-3.240219e+01
5.288855e+02	-3.245082e+01
5.319403e+02	-3.250229e+01
5.350128e+02	-3.255420e+01
5.381030e+02	-3.260039e+01
5.412111e+02	-3.265630e+01
5.443371e+02	-3.270044e+01
5.474812e+02	-3.274933e+01
5.506434e+02	-3.279822e+01
5.538239e+02	-3.285965e+01
5.570228e+02	-3.290251e+01
5.602401e+02	-3.294817e+01
5.634760e+02	-3.300624e+01
5.667306e+02	-3.305718e+01
5.700040e+02	-3.309667e+01
5.732964e+02	-3.315847e+01
5.766077e+02	-3.320991e+01
5.799382e+02	-3.325427e+01
5.832879e+02	-3.330271e+01
5.866569e+02	-3.335374e+01
5.900454e+02	-3.340016e+01
5.934535e+02	-3.345893e+01
5.968813e+02	-3.349862e+01
6.003288e+02	-3.355034e+01
6.037963e+02	-3.359844e+01
6.072838e+02	-3.365701e+01
6.107914e+02	-3.370355e+01
6.143194e+02	-3.375957e+01
6.178676e+02	-3.382033e+01
6.214364e+02	-3.385786e+01
6.250258e+02	-3.390793e+01
6.286359e+02	-3.396352e+01
6.322669e+02	-3.400583e+01
6.359189e+02	-3.405892e+01
6.395919e+02	-3.411003e+01
6.432862e+02	-3.415588e+01
6.470017e+02	-3.421411e+01
6.507388e+02	-3.425974e+01
6.544974e+02	-3.430802e+01
6.582778e+02	-3.436055e+01
6.620800e+02	-3.441386e+01
6.659041e+02	-3.446358e+01
6.697504e+02	-3.450852e+01
6.736188e+02	-3.456524e+01
6.775096e+02	-3.461404e+01
6.814229e+02	-3.467113e+01
6.853587e+02	-3.471683e+01
6.893173e+02	-3.477103e+01
6.932988e+02	-3.481665e+01
6.973033e+02	-3.485960e+01
7.013309e+02	-3.491809e+01
