Frequency(Hz)	Magnitude(dB)
1.000000e+01	-2.035661e+00
1.005776e+01	-2.054390e+00
1.011585e+01	-2.073367e+00
1.017428e+01	-2.092373e+00
1.023305e+01	-2.111584e+00
1.029215e+01	-2.130988e+00
1.035160e+01	-2.150433e+00
1.041139e+01	-2.169920e+00
1.047153e+01	-2.189476e+00
1.053201e+01	-2.209508e+00
1.059284e+01	-2.229465e+00
1.065403e+01	-2.249800e+00
1.071556e+01	-2.270119e+00
1.077746e+01	-2.290519e+00
1.083971e+01	-2.311019e+00
1.090232e+01	-2.331757e+00
1.096529e+01	-2.352523e+00
1.102862e+01	-2.373538e+00
1.109232e+01	-2.394761e+00
1.115639e+01	-2.416056e+00
1.122083e+01	-2.437493e+00
1.128564e+01	-2.458887e+00
1.135083e+01	-2.480655e+00
1.141639e+01	-2.502325e+00
1.148233e+01	-2.524762e+00
1.154865e+01	-2.546748e+00
1.161536e+01	-2.568837e+00
1.168245e+01	-2.591211e+00
1.174992e+01	-2.613927e+00
1.181779e+01	-2.636445e+00
1.188605e+01	-2.659370e+00
1.195470e+01	-2.682258e+00
1.202375e+01	-2.705289e+00
1.209320e+01	-2.728798e+00
1.216305e+01	-2.752093e+00
1.223330e+01	-2.775492e+00
1.230396e+01	-2.799254e+00
1.237503e+01	-2.823378e+00
1.244651e+01	-2.847165e+00
1.251840e+01	-2.871140e+00
1.259070e+01	-2.895618e+00
1.266343e+01	-2.920156e+00
1.273657e+01	-2.944321e+00
1.281014e+01	-2.969161e+00
1.288413e+01	-2.994158e+00
1.295855e+01	-3.019036e+00
1.303339e+01	-3.044233e+00
1.310867e+01	-3.069359e+00
1.318439e+01	-3.095026e+00
1.326054e+01	-3.120585e+00
1.333713e+01	-3.146413e+00
1.341417e+01	-3.172180e+00
1.349165e+01	-3.198063e+00
1.356958e+01	-3.224179e+00
1.364795e+01	-3.250603e+00
1.372678e+01	-3.276874e+00
1.380607e+01	-3.303516e+00
1.388581e+01	-3.329902e+00
1.396602e+01	-3.357338e+00
1.404668e+01	-3.383936e+00
1.412782e+01	-3.411311e+00
1.420942e+01	-3.438632e+00
1.429149e+01	-3.466043e+00
1.437404e+01	-3.493624e+00
1.445706e+01	-3.521312e+00
1.454057e+01	-3.549119e+00
1.462455e+01	-3.576808e+00
1.470902e+01	-3.605229e+00
1.479398e+01	-3.633468e+00
1.487943e+01	-3.662171e+00
1.496537e+01	-3.690573e+00
1.505181e+01	-3.719117e+00
1.513875e+01	-3.748366e+00
1.522619e+01	-3.777187e+00
1.531414e+01	-3.806184e+00
1.540259e+01	-3.835660e+00
1.549156e+01	-3.864937e+00
1.558103e+01	-3.894575e+00
1.567103e+01	-3.923876e+00
1.576155e+01	-3.953942e+00
1.585258e+01	-3.983830e+00
1.594415e+01	-4.013982e+00
1.603624e+01	-4.044245e+00
1.612886e+01	-4.074841e+00
1.622202e+01	-4.105218e+00
1.631572e+01	-4.135838e+00
1.640996e+01	-4.166650e+00
1.650474e+01	-4.197393e+00
1.660008e+01	-4.228775e+00
1.669596e+01	-4.259955e+00
1.679239e+01	-4.290931e+00
1.688938e+01	-4.322363e+00
1.698694e+01	-4.354371e+00
1.708505e+01	-4.385884e+00
1.718373e+01	-4.417800e+00
1.728299e+01	-4.450033e+00
1.738281e+01	-4.482028e+00
1.748322e+01	-4.514283e+00
1.758420e+01	-4.546816e+00
1.768576e+01	-4.579239e+00
1.778792e+01	-4.611821e+00
1.789066e+01	-4.644634e+00
1.799399e+01	-4.677407e+00
1.809793e+01	-4.710810e+00
1.820246e+01	-4.743883e+00
1.830760e+01	-4.777163e+00
1.841334e+01	-4.810695e+00
1.851969e+01	-4.844313e+00
1.862666e+01	-4.877567e+00
1.873425e+01	-4.911568e+00
1.884246e+01	-4.945160e+00
1.895129e+01	-4.979518e+00
1.906075e+01	-5.013716e+00
1.917085e+01	-5.048028e+00
1.928158e+01	-5.082420e+00
1.939295e+01	-5.117409e+00
1.950496e+01	-5.151635e+00
1.961762e+01	-5.186452e+00
1.973093e+01	-5.221582e+00
1.984490e+01	-5.256500e+00
1.995952e+01	-5.291980e+00
2.007480e+01	-5.326985e+00
2.019076e+01	-5.362791e+00
2.030738e+01	-5.398176e+00
2.042467e+01	-5.433739e+00
2.054264e+01	-5.469655e+00
2.066130e+01	-5.505454e+00
2.078064e+01	-5.541655e+00
2.090066e+01	-5.577339e+00
2.102139e+01	-5.613667e+00
2.114280e+01	-5.650320e+00
2.126492e+01	-5.686489e+00
2.138775e+01	-5.723306e+00
2.151128e+01	-5.759879e+00
2.163553e+01	-5.796759e+00
2.176050e+01	-5.833040e+00
2.188619e+01	-5.870495e+00
2.201260e+01	-5.907628e+00
2.213974e+01	-5.944939e+00
2.226762e+01	-5.982357e+00
2.239624e+01	-6.019727e+00
2.252560e+01	-6.057186e+00
2.265571e+01	-6.094675e+00
2.278656e+01	-6.132721e+00
2.291818e+01	-6.170820e+00
2.305055e+01	-6.208527e+00
2.318369e+01	-6.246465e+00
2.331760e+01	-6.284978e+00
2.345228e+01	-6.323704e+00
2.358774e+01	-6.361597e+00
2.372398e+01	-6.399958e+00
2.386101e+01	-6.439134e+00
2.399883e+01	-6.477643e+00
2.413745e+01	-6.516370e+00
2.427686e+01	-6.554814e+00
2.441709e+01	-6.594067e+00
2.455812e+01	-6.633447e+00
2.469997e+01	-6.672674e+00
2.484263e+01	-6.711675e+00
2.498612e+01	-6.751392e+00
2.513044e+01	-6.791060e+00
2.527559e+01	-6.830104e+00
2.542158e+01	-6.870045e+00
2.556842e+01	-6.909807e+00
2.571610e+01	-6.949778e+00
2.586463e+01	-6.989424e+00
2.601403e+01	-7.029712e+00
2.616428e+01	-7.070157e+00
2.631541e+01	-7.110476e+00
2.646740e+01	-7.150757e+00
2.662028e+01	-7.190528e+00
2.677404e+01	-7.231333e+00
2.692868e+01	-7.272004e+00
2.708422e+01	-7.313096e+00
2.724066e+01	-7.353683e+00
2.739800e+01	-7.394221e+00
2.755625e+01	-7.435271e+00
2.771541e+01	-7.476645e+00
2.787550e+01	-7.517916e+00
2.803650e+01	-7.558687e+00
2.819844e+01	-7.600272e+00
2.836131e+01	-7.641314e+00
2.852513e+01	-7.682808e+00
2.868989e+01	-7.723984e+00
2.885560e+01	-7.766304e+00
2.902227e+01	-7.807705e+00
2.918990e+01	-7.849448e+00
2.935850e+01	-7.891709e+00
2.952807e+01	-7.933330e+00
2.969863e+01	-7.975216e+00
2.987016e+01	-8.017656e+00
3.004269e+01	-8.059762e+00
3.021622e+01	-8.101839e+00
3.039075e+01	-8.143994e+00
3.056628e+01	-8.186517e+00
3.074283e+01	-8.229043e+00
3.092040e+01	-8.271456e+00
3.109900e+01	-8.314175e+00
3.127862e+01	-8.356933e+00
3.145929e+01	-8.399276e+00
3.164099e+01	-8.442465e+00
3.182375e+01	-8.484807e+00
3.200756e+01	-8.528177e+00
3.219244e+01	-8.571591e+00
3.237838e+01	-8.614461e+00
3.256540e+01	-8.657676e+00
3.275349e+01	-8.700498e+00
3.294268e+01	-8.743943e+00
3.313295e+01	-8.787393e+00
3.332433e+01	-8.831275e+00
3.351681e+01	-8.874265e+00
3.371040e+01	-8.918315e+00
3.390511e+01	-8.961749e+00
3.410094e+01	-9.005553e+00
3.429791e+01	-9.049184e+00
3.449601e+01	-9.092909e+00
3.469526e+01	-9.137049e+00
3.489566e+01	-9.181017e+00
3.509721e+01	-9.225141e+00
3.529993e+01	-9.268727e+00
3.550382e+01	-9.313162e+00
3.570889e+01	-9.357081e+00
3.591515e+01	-9.400948e+00
3.612259e+01	-9.445556e+00
3.633123e+01	-9.490263e+00
3.654108e+01	-9.534303e+00
3.675214e+01	-9.579325e+00
3.696442e+01	-9.624253e+00
3.717792e+01	-9.668419e+00
3.739266e+01	-9.712838e+00
3.760864e+01	-9.757720e+00
3.782587e+01	-9.802560e+00
3.804435e+01	-9.847383e+00
3.826409e+01	-9.891844e+00
3.848510e+01	-9.937184e+00
3.870739e+01	-9.982380e+00
3.893096e+01	-1.002697e+01
3.915583e+01	-1.007176e+01
3.938199e+01	-1.011765e+01
3.960946e+01	-1.016264e+01
3.983824e+01	-1.020738e+01
4.006834e+01	-1.025300e+01
4.029978e+01	-1.029830e+01
4.053255e+01	-1.034375e+01
4.076666e+01	-1.038908e+01
4.100213e+01	-1.043454e+01
4.123896e+01	-1.048036e+01
4.147715e+01	-1.052611e+01
4.171672e+01	-1.057119e+01
4.195767e+01	-1.061674e+01
4.220002e+01	-1.066245e+01
4.244377e+01	-1.070835e+01
4.268892e+01	-1.075402e+01
4.293549e+01	-1.080026e+01
4.318348e+01	-1.084563e+01
4.343291e+01	-1.089169e+01
4.368377e+01	-1.093802e+01
4.393609e+01	-1.098415e+01
4.418986e+01	-1.102995e+01
4.444510e+01	-1.107623e+01
4.470182e+01	-1.112194e+01
4.496001e+01	-1.116803e+01
4.521970e+01	-1.121506e+01
4.548089e+01	-1.126095e+01
4.574358e+01	-1.130705e+01
4.600779e+01	-1.135336e+01
4.627353e+01	-1.139936e+01
4.654081e+01	-1.144627e+01
4.680963e+01	-1.149288e+01
4.708000e+01	-1.153901e+01
4.735193e+01	-1.158582e+01
4.762543e+01	-1.163256e+01
4.790051e+01	-1.167942e+01
4.817719e+01	-1.172557e+01
4.845545e+01	-1.177250e+01
4.873533e+01	-1.181907e+01
4.901682e+01	-1.186563e+01
4.929994e+01	-1.191173e+01
4.958470e+01	-1.195982e+01
4.987110e+01	-1.200628e+01
5.015915e+01	-1.205323e+01
5.044887e+01	-1.209985e+01
5.074026e+01	-1.214678e+01
5.103333e+01	-1.219404e+01
5.132810e+01	-1.224119e+01
5.162457e+01	-1.228819e+01
5.192275e+01	-1.233516e+01
5.222265e+01	-1.238241e+01
5.252429e+01	-1.242952e+01
5.282767e+01	-1.247610e+01
5.313280e+01	-1.252385e+01
5.343969e+01	-1.257089e+01
5.374836e+01	-1.261891e+01
5.405880e+01	-1.266486e+01
5.437105e+01	-1.271326e+01
5.468509e+01	-1.276017e+01
5.500095e+01	-1.280739e+01
5.531863e+01	-1.285504e+01
5.563815e+01	-1.290249e+01
5.595951e+01	-1.295039e+01
5.628273e+01	-1.299766e+01
5.660782e+01	-1.304554e+01
5.693479e+01	-1.309202e+01
5.726364e+01	-1.314018e+01
5.759439e+01	-1.318830e+01
5.792705e+01	-1.323570e+01
5.826164e+01	-1.328342e+01
5.859815e+01	-1.333133e+01
5.893662e+01	-1.337844e+01
5.927703e+01	-1.342631e+01
5.961941e+01	-1.347383e+01
5.996377e+01	-1.352179e+01
6.031012e+01	-1.357029e+01
6.065847e+01	-1.361781e+01
6.100883e+01	-1.366471e+01
6.136121e+01	-1.371356e+01
6.171563e+01	-1.376147e+01
6.207210e+01	-1.380890e+01
6.243063e+01	-1.385719e+01
6.279122e+01	-1.390578e+01
6.315390e+01	-1.395279e+01
6.351868e+01	-1.400131e+01
6.388556e+01	-1.404918e+01
6.425456e+01	-1.409792e+01
6.462569e+01	-1.414510e+01
6.499897e+01	-1.419347e+01
6.537440e+01	-1.424220e+01
6.575200e+01	-1.428953e+01
6.613178e+01	-1.433843e+01
6.651375e+01	-1.438631e+01
6.689793e+01	-1.443506e+01
6.728433e+01	-1.448283e+01
6.767297e+01	-1.453129e+01
6.806384e+01	-1.457920e+01
6.845698e+01	-1.462717e+01
6.885238e+01	-1.467547e+01
6.925007e+01	-1.472414e+01
6.965005e+01	-1.477262e+01
7.005235e+01	-1.482108e+01
7.045697e+01	-1.486861e+01
7.086393e+01	-1.491733e+01
7.127323e+01	-1.496616e+01
7.168490e+01	-1.501450e+01
7.209895e+01	-1.506334e+01
7.251539e+01	-1.511125e+01
7.293424e+01	-1.515989e+01
7.335551e+01	-1.520884e+01
7.377920e+01	-1.525671e+01
7.420535e+01	-1.530557e+01
7.463396e+01	-1.535410e+01
7.506504e+01	-1.540341e+01
7.549861e+01	-1.545101e+01
7.593469e+01	-1.549942e+01
7.637328e+01	-1.554859e+01
7.681441e+01	-1.559722e+01
7.725809e+01	-1.564596e+01
7.770433e+01	-1.569441e+01
7.815315e+01	-1.574237e+01
7.860456e+01	-1.579165e+01
7.905857e+01	-1.583945e+01
7.951521e+01	-1.588923e+01
7.997449e+01	-1.593906e+01
8.043642e+01	-1.598663e+01
8.090102e+01	-1.603607e+01
8.136830e+01	-1.608398e+01
8.183828e+01	-1.613311e+01
8.231097e+01	-1.618283e+01
8.278640e+01	-1.623134e+01
8.326457e+01	-1.628021e+01
8.374550e+01	-1.632875e+01
8.422921e+01	-1.637751e+01
8.471572e+01	-1.642610e+01
8.520503e+01	-1.647621e+01
8.569717e+01	-1.652429e+01
8.619215e+01	-1.657315e+01
8.669000e+01	-1.662126e+01
8.719071e+01	-1.667116e+01
8.769432e+01	-1.671985e+01
8.820084e+01	-1.676998e+01
8.871029e+01	-1.681813e+01
8.922267e+01	-1.686620e+01
8.973802e+01	-1.691573e+01
9.025634e+01	-1.696440e+01
9.077766e+01	-1.701426e+01
9.130199e+01	-1.706252e+01
9.182935e+01	-1.711202e+01
9.235975e+01	-1.716212e+01
9.289321e+01	-1.720961e+01
9.342976e+01	-1.725946e+01
9.396941e+01	-1.730800e+01
9.451217e+01	-1.735775e+01
9.505807e+01	-1.740661e+01
9.560712e+01	-1.745694e+01
9.615934e+01	-1.750556e+01
9.671476e+01	-1.755428e+01
9.727338e+01	-1.760231e+01
9.783522e+01	-1.765142e+01
9.840032e+01	-1.770103e+01
9.896867e+01	-1.775170e+01
9.954031e+01	-1.780001e+01
1.001153e+02	-1.784970e+01
1.006935e+02	-1.789798e+01
1.012751e+02	-1.794705e+01
1.018601e+02	-1.799716e+01
1.024484e+02	-1.804542e+01
1.030402e+02	-1.809615e+01
1.036353e+02	-1.814364e+01
1.042339e+02	-1.819378e+01
1.048360e+02	-1.824271e+01
1.054415e+02	-1.829212e+01
1.060505e+02	-1.834062e+01
1.066631e+02	-1.839166e+01
1.072791e+02	-1.843987e+01
1.078988e+02	-1.848928e+01
1.085220e+02	-1.853928e+01
1.091488e+02	-1.858823e+01
1.097793e+02	-1.863627e+01
1.104133e+02	-1.868691e+01
1.110511e+02	-1.873721e+01
1.116925e+02	-1.878540e+01
1.123376e+02	-1.883588e+01
1.129865e+02	-1.888343e+01
1.136391e+02	-1.893295e+01
1.142955e+02	-1.898318e+01
1.149556e+02	-1.903367e+01
1.156196e+02	-1.908401e+01
1.162874e+02	-1.913195e+01
1.169591e+02	-1.918172e+01
1.176347e+02	-1.923013e+01
1.183141e+02	-1.928073e+01
1.189975e+02	-1.933071e+01
1.196848e+02	-1.938005e+01
1.203761e+02	-1.942806e+01
1.210714e+02	-1.947785e+01
1.217707e+02	-1.952660e+01
1.224740e+02	-1.957601e+01
1.231814e+02	-1.962414e+01
1.238929e+02	-1.967606e+01
1.246085e+02	-1.972375e+01
1.253283e+02	-1.977262e+01
1.260522e+02	-1.982458e+01
1.267802e+02	-1.987283e+01
1.275125e+02	-1.992169e+01
1.282490e+02	-1.997252e+01
1.289898e+02	-2.002262e+01
1.297348e+02	-2.007337e+01
1.304842e+02	-2.012076e+01
1.312378e+02	-2.016980e+01
1.319959e+02	-2.021918e+01
1.327583e+02	-2.027017e+01
1.335251e+02	-2.032051e+01
1.342963e+02	-2.036914e+01
1.350720e+02	-2.041832e+01
1.358522e+02	-2.046966e+01
1.366368e+02	-2.051850e+01
1.374260e+02	-2.056639e+01
1.382198e+02	-2.061700e+01
1.390182e+02	-2.066717e+01
1.398211e+02	-2.071648e+01
1.406287e+02	-2.076626e+01
1.414410e+02	-2.081628e+01
1.422579e+02	-2.086520e+01
1.430796e+02	-2.091503e+01
1.439060e+02	-2.096460e+01
1.447372e+02	-2.101608e+01
1.455732e+02	-2.106424e+01
1.464141e+02	-2.111501e+01
1.472597e+02	-2.116441e+01
1.481103e+02	-2.121341e+01
1.489658e+02	-2.126330e+01
1.498262e+02	-2.131280e+01
1.506916e+02	-2.136165e+01
1.515620e+02	-2.141095e+01
1.524374e+02	-2.146012e+01
1.533179e+02	-2.151114e+01
1.542034e+02	-2.155992e+01
1.550941e+02	-2.160945e+01
1.559899e+02	-2.165959e+01
1.568909e+02	-2.171181e+01
1.577971e+02	-2.176034e+01
1.587085e+02	-2.180963e+01
1.596252e+02	-2.185948e+01
1.605472e+02	-2.190606e+01
1.614745e+02	-2.195878e+01
1.624072e+02	-2.200747e+01
1.633453e+02	-2.205777e+01
1.642887e+02	-2.211048e+01
1.652377e+02	-2.215684e+01
1.661921e+02	-2.220771e+01
1.671520e+02	-2.225657e+01
1.681175e+02	-2.230615e+01
1.690885e+02	-2.235701e+01
1.700651e+02	-2.240394e+01
1.710474e+02	-2.245407e+01
1.720354e+02	-2.250430e+01
1.730291e+02	-2.255570e+01
1.740285e+02	-2.260474e+01
1.750337e+02	-2.265403e+01
1.760446e+02	-2.270582e+01
1.770615e+02	-2.275270e+01
1.780842e+02	-2.280241e+01
1.791128e+02	-2.285478e+01
1.801473e+02	-2.290409e+01
1.811878e+02	-2.295300e+01
1.822344e+02	-2.300433e+01
1.832870e+02	-2.305378e+01
1.843456e+02	-2.310061e+01
1.854104e+02	-2.315328e+01
1.864813e+02	-2.320411e+01
1.875584e+02	-2.325099e+01
1.886418e+02	-2.330206e+01
1.897313e+02	-2.335244e+01
1.908272e+02	-2.340038e+01
1.919294e+02	-2.344952e+01
1.930380e+02	-2.350236e+01
1.941530e+02	-2.354873e+01
1.952744e+02	-2.360039e+01
1.964023e+02	-2.365151e+01
1.975367e+02	-2.369986e+01
1.986777e+02	-2.375045e+01
1.998252e+02	-2.379878e+01
2.009794e+02	-2.384618e+01
2.021403e+02	-2.389870e+01
2.033078e+02	-2.395032e+01
2.044821e+02	-2.400209e+01
2.056632e+02	-2.404971e+01
2.068511e+02	-2.409953e+01
2.080459e+02	-2.415064e+01
2.092475e+02	-2.419905e+01
2.104561e+02	-2.425181e+01
2.116717e+02	-2.429857e+01
2.128943e+02	-2.434790e+01
2.141240e+02	-2.440172e+01
2.153608e+02	-2.444932e+01
2.166047e+02	-2.449734e+01
2.178558e+02	-2.454840e+01
2.191141e+02	-2.459920e+01
2.203797e+02	-2.464804e+01
2.216526e+02	-2.469890e+01
2.229329e+02	-2.474641e+01
2.242205e+02	-2.479923e+01
2.255156e+02	-2.484784e+01
2.268182e+02	-2.489643e+01
2.281283e+02	-2.494845e+01
2.294459e+02	-2.499967e+01
2.307712e+02	-2.504617e+01
2.321041e+02	-2.509567e+01
2.334447e+02	-2.514623e+01
2.347931e+02	-2.519855e+01
2.361493e+02	-2.524778e+01
2.375133e+02	-2.529808e+01
2.388851e+02	-2.534753e+01
2.402649e+02	-2.539679e+01
2.416527e+02	-2.544861e+01
2.430484e+02	-2.549786e+01
2.444523e+02	-2.554575e+01
2.458642e+02	-2.559771e+01
2.472843e+02	-2.564709e+01
2.487126e+02	-2.569674e+01
2.501492e+02	-2.574809e+01
2.515940e+02	-2.579266e+01
2.530472e+02	-2.584937e+01
2.545088e+02	-2.589390e+01
2.559789e+02	-2.594534e+01
2.574574e+02	-2.599633e+01
2.589444e+02	-2.604677e+01
2.604401e+02	-2.609696e+01
2.619444e+02	-2.614497e+01
2.634574e+02	-2.619560e+01
2.649791e+02	-2.624445e+01
2.665096e+02	-2.629957e+01
2.680489e+02	-2.634724e+01
2.695972e+02	-2.639543e+01
2.711544e+02	-2.644696e+01
2.727205e+02	-2.649340e+01
2.742958e+02	-2.655020e+01
2.758801e+02	-2.659349e+01
2.774736e+02	-2.664668e+01
2.790762e+02	-2.669455e+01
2.806882e+02	-2.674700e+01
2.823094e+02	-2.679597e+01
2.839400e+02	-2.684887e+01
2.855800e+02	-2.689588e+01
2.872295e+02	-2.694647e+01
2.888886e+02	-2.699539e+01
2.905572e+02	-2.704448e+01
2.922354e+02	-2.709464e+01
2.939234e+02	-2.714343e+01
2.956211e+02	-2.719505e+01
2.973286e+02	-2.724724e+01
2.990459e+02	-2.729931e+01
3.007732e+02	-2.734704e+01
3.025104e+02	-2.739448e+01
3.042577e+02	-2.744688e+01
3.060151e+02	-2.749551e+01
3.077826e+02	-2.754723e+01
3.095604e+02	-2.759676e+01
3.113484e+02	-2.764164e+01
3.131467e+02	-2.769630e+01
3.149554e+02	-2.774485e+01
3.167746e+02	-2.779566e+01
3.186043e+02	-2.784675e+01
3.204445e+02	-2.789643e+01
3.222954e+02	-2.794305e+01
3.241570e+02	-2.799716e+01
3.260293e+02	-2.804963e+01
3.279124e+02	-2.810062e+01
3.298064e+02	-2.814336e+01
3.317114e+02	-2.819288e+01
3.336273e+02	-2.824529e+01
3.355544e+02	-2.829352e+01
3.374925e+02	-2.834852e+01
3.394418e+02	-2.839886e+01
3.414024e+02	-2.844998e+01
3.433744e+02	-2.849728e+01
3.453577e+02	-2.854652e+01
3.473525e+02	-2.859520e+01
3.493588e+02	-2.865022e+01
3.513766e+02	-2.869481e+01
3.534062e+02	-2.874436e+01
3.554474e+02	-2.879099e+01
3.575005e+02	-2.884193e+01
3.595654e+02	-2.889599e+01
3.616422e+02	-2.894967e+01
3.637311e+02	-2.900021e+01
3.658320e+02	-2.904973e+01
3.679450e+02	-2.909545e+01
3.700702e+02	-2.915080e+01
3.722077e+02	-2.920072e+01
3.743576e+02	-2.924517e+01
3.765199e+02	-2.929327e+01
3.786946e+02	-2.934968e+01
3.808820e+02	-2.939776e+01
3.830819e+02	-2.945445e+01
3.852946e+02	-2.950323e+01
3.875200e+02	-2.954628e+01
3.897583e+02	-2.959810e+01
3.920096e+02	-2.964748e+01
3.942738e+02	-2.969554e+01
3.965511e+02	-2.974889e+01
3.988416e+02	-2.980106e+01
4.011452e+02	-2.984662e+01
4.034622e+02	-2.989572e+01
4.057926e+02	-2.994750e+01
4.081365e+02	-2.999931e+01
4.104938e+02	-3.004571e+01
4.128648e+02	-3.009540e+01
4.152495e+02	-3.014459e+01
4.176480e+02	-3.020140e+01
4.200603e+02	-3.025214e+01
4.224866e+02	-3.030073e+01
4.249268e+02	-3.034587e+01
4.273812e+02	-3.039618e+01
4.298497e+02	-3.045106e+01
4.323325e+02	-3.050061e+01
4.348297e+02	-3.054910e+01
4.373412e+02	-3.059738e+01
4.398673e+02	-3.064910e+01
4.424079e+02	-3.069785e+01
4.449633e+02	-3.075219e+01
4.475334e+02	-3.079863e+01
4.501183e+02	-3.085309e+01
4.527182e+02	-3.090138e+01
4.553330e+02	-3.094919e+01
4.579630e+02	-3.099980e+01
4.606082e+02	-3.104788e+01
4.632687e+02	-3.109849e+01
4.659445e+02	-3.115212e+01
4.686358e+02	-3.119903e+01
4.713426e+02	-3.125437e+01
4.740650e+02	-3.130513e+01
4.768032e+02	-3.135137e+01
4.795572e+02	-3.139716e+01
4.823271e+02	-3.145033e+01
4.851130e+02	-3.149972e+01
4.879150e+02	-3.155478e+01
4.907332e+02	-3.160367e+01
4.935676e+02	-3.165427e+01
4.964185e+02	-3.170319e+01
4.992858e+02	-3.175157e+01
5.021696e+02	-3.179973e+01
5.050701e+02	-3.185911e+01
5.079874e+02	-3.190460e+01
5.109215e+02	-3.195971e+01
5.138726e+02	-3.200616e+01
5.168407e+02	-3.205750e+01
5.198259e+02	-3.210525e+01
5.228284e+02	-3.215754e+01
5.258482e+02	-3.220255e+01
5.288855e+02	-3.225897e+01
5.319403e+02	-3.230885e+01
5.350128e+02	-3.235784e+01
5.381030e+02	-3.240591e+01
5.412111e+02	-3.245443e+01
5.443371e+02	-3.251409e+01
5.474812e+02	-3.256195e+01
5.506434e+02	-3.260762e+01
5.538239e+02	-3.265896e+01
5.570228e+02	-3.270729e+01
5.602401e+02	-3.275955e+01
5.634760e+02	-3.280530e+01
5.667306e+02	-3.285878e+01
5.700040e+02	-3.290854e+01
5.732964e+02	-3.296387e+01
5.766077e+02	-3.300253e+01
5.799382e+02	-3.305977e+01
5.832879e+02	-3.310673e+01
5.866569e+02	-3.316575e+01
5.900454e+02	-3.320993e+01
5.934535e+02	-3.325890e+01
5.968813e+02	-3.331150e+01
6.003288e+02	-3.336567e+01
6.037963e+02	-3.341302e+01
6.072838e+02	-3.346493e+01
6.107914e+02	-3.350878e+01
6.143194e+02	-3.357178e+01
6.178676e+02	-3.361231e+01
6.214364e+02	-3.367300e+01
6.250258e+02	-3.371221e+01
6.286359e+02	-3.376423e+01
6.322669e+02	-3.381359e+01
6.359189e+02	-3.387004e+01
6.395919e+02	-3.392123e+01
6.432862e+02	-3.397082e+01
6.470017e+02	-3.401302e+01
6.507388e+02	-3.407337e+01
6.544974e+02	-3.411808e+01
6.582778e+02	-3.417406e+01
6.620800e+02	-3.421901e+01
6.659041e+02	-3.426365e+01
6.697504e+02	-3.431811e+01
6.736188e+02	-3.436420e+01
6.775096e+02	-3.442412e+01
6.814229e+02	-3.446097e+01
6.853587e+02	-3.451154e+01
6.893173e+02	-3.456732e+01
6.932988e+02	-3.462116e+01
6.973033e+02	-3.466307e+01
7.013309e+02	-3.471878e+01
