Frequency(Hz)	Magnitude(dB)
1.000000e+01	-2.109109e+00
1.005776e+01	-2.128404e+00
1.011585e+01	-2.147787e+00
1.017428e+01	-2.167311e+00
1.023305e+01	-2.186817e+00
1.029215e+01	-2.206983e+00
1.035160e+01	-2.226847e+00
1.041139e+01	-2.247116e+00
1.047153e+01	-2.267316e+00
1.053201e+01	-2.287858e+00
1.059284e+01	-2.308454e+00
1.065403e+01	-2.328968e+00
1.071556e+01	-2.350028e+00
1.077746e+01	-2.370792e+00
1.083971e+01	-2.391914e+00
1.090232e+01	-2.413153e+00
1.096529e+01	-2.434635e+00
1.102862e+01	-2.456206e+00
1.109232e+01	-2.477543e+00
1.115639e+01	-2.499641e+00
1.122083e+01	-2.521548e+00
1.128564e+01	-2.543563e+00
1.135083e+01	-2.566017e+00
1.141639e+01	-2.588325e+00
1.148233e+01	-2.610608e+00
1.154865e+01	-2.633402e+00
1.161536e+01	-2.656161e+00
1.168245e+01	-2.679295e+00
1.174992e+01	-2.702525e+00
1.181779e+01	-2.726007e+00
1.188605e+01	-2.748937e+00
1.195470e+01	-2.772681e+00
1.202375e+01	-2.796387e+00
1.209320e+01	-2.819979e+00
1.216305e+01	-2.844124e+00
1.223330e+01	-2.868044e+00
1.230396e+01	-2.892454e+00
1.237503e+01	-2.916694e+00
1.244651e+01	-2.941265e+00
1.251840e+01	-2.965986e+00
1.259070e+01	-2.990679e+00
1.266343e+01	-3.015590e+00
1.273657e+01	-3.041199e+00
1.281014e+01	-3.066245e+00
1.288413e+01	-3.091727e+00
1.295855e+01	-3.117142e+00
1.303339e+01	-3.142857e+00
1.310867e+01	-3.168502e+00
1.318439e+01	-3.194578e+00
1.326054e+01	-3.220691e+00
1.333713e+01	-3.247070e+00
1.341417e+01	-3.273573e+00
1.349165e+01	-3.300120e+00
1.356958e+01	-3.326635e+00
1.364795e+01	-3.353678e+00
1.372678e+01	-3.380381e+00
1.380607e+01	-3.407591e+00
1.388581e+01	-3.434896e+00
1.396602e+01	-3.462349e+00
1.404668e+01	-3.489977e+00
1.412782e+01	-3.517608e+00
1.420942e+01	-3.545278e+00
1.429149e+01	-3.573461e+00
1.437404e+01	-3.601484e+00
1.445706e+01	-3.629847e+00
1.454057e+01	-3.658211e+00
1.462455e+01	-3.686695e+00
1.470902e+01	-3.715526e+00
1.479398e+01	-3.744230e+00
1.487943e+01	-3.773186e+00
1.496537e+01	-3.802305e+00
1.505181e+01	-3.831392e+00
1.513875e+01	-3.860907e+00
1.522619e+01	-3.890390e+00
1.531414e+01	-3.920425e+00
1.540259e+01	-3.950016e+00
1.549156e+01	-3.979973e+00
1.558103e+01	-4.009935e+00
1.567103e+01	-4.040265e+00
1.576155e+01	-4.070752e+00
1.585258e+01	-4.101058e+00
1.594415e+01	-4.131694e+00
1.603624e+01	-4.162764e+00
1.612886e+01	-4.193645e+00
1.622202e+01	-4.224464e+00
1.631572e+01	-4.255783e+00
1.640996e+01	-4.286903e+00
1.650474e+01	-4.318513e+00
1.660008e+01	-4.350253e+00
1.669596e+01	-4.381996e+00
1.679239e+01	-4.413757e+00
1.688938e+01	-4.445731e+00
1.698694e+01	-4.477909e+00
1.708505e+01	-4.509977e+00
1.718373e+01	-4.542258e+00
1.728299e+01	-4.574627e+00
1.738281e+01	-4.607317e+00
1.748322e+01	-4.640180e+00
1.758420e+01	-4.673103e+00
1.768576e+01	-4.706126e+00
1.778792e+01	-4.739584e+00
1.789066e+01	-4.772762e+00
1.799399e+01	-4.806126e+00
1.809793e+01	-4.839574e+00
1.820246e+01	-4.873457e+00
1.830760e+01	-4.907045e+00
1.841334e+01	-4.940982e+00
1.851969e+01	-4.975147e+00
1.862666e+01	-5.009128e+00
1.873425e+01	-5.043529e+00
1.884246e+01	-5.078087e+00
1.895129e+01	-5.112527e+00
1.906075e+01	-5.147306e+00
1.917085e+01	-5.181918e+00
1.928158e+01	-5.217076e+00
1.939295e+01	-5.252059e+00
1.950496e+01	-5.287219e+00
1.961762e+01	-5.322599e+00
1.973093e+01	-5.358029e+00
1.984490e+01	-5.393196e+00
1.995952e+01	-5.428974e+00
2.007480e+01	-5.465069e+00
2.019076e+01	-5.500603e+00
2.030738e+01	-5.536420e+00
2.042467e+01	-5.572927e+00
2.054264e+01	-5.608876e+00
2.066130e+01	-5.645192e+00
2.078064e+01	-5.681785e+00
2.090066e+01	-5.718086e+00
2.102139e+01	-5.754936e+00
2.114280e+01	-5.791761e+00
2.126492e+01	-5.828673e+00
2.138775e+01	-5.865699e+00
2.151128e+01	-5.902517e+00
2.163553e+01	-5.940022e+00
2.176050e+01	-5.977197e+00
2.188619e+01	-6.014573e+00
2.201260e+01	-6.052407e+00
2.213974e+01	-6.089707e+00
2.226762e+01	-6.127720e+00
2.239624e+01	-6.165631e+00
2.252560e+01	-6.203764e+00
2.265571e+01	-6.241664e+00
2.278656e+01	-6.279670e+00
2.291818e+01	-6.318210e+00
2.305055e+01	-6.356373e+00
2.318369e+01	-6.394737e+00
2.331760e+01	-6.433714e+00
2.345228e+01	-6.472226e+00
2.358774e+01	-6.511250e+00
2.372398e+01	-6.550118e+00
2.386101e+01	-6.589420e+00
2.399883e+01	-6.628594e+00
2.413745e+01	-6.667212e+00
2.427686e+01	-6.706542e+00
2.441709e+01	-6.746102e+00
2.455812e+01	-6.785934e+00
2.469997e+01	-6.825234e+00
2.484263e+01	-6.864930e+00
2.498612e+01	-6.904788e+00
2.513044e+01	-6.944125e+00
2.527559e+01	-6.984613e+00
2.542158e+01	-7.024566e+00
2.556842e+01	-7.064678e+00
2.571610e+01	-7.104901e+00
2.586463e+01	-7.145526e+00
2.601403e+01	-7.185680e+00
2.616428e+01	-7.226081e+00
2.631541e+01	-7.266822e+00
2.646740e+01	-7.307079e+00
2.662028e+01	-7.348311e+00
2.677404e+01	-7.389003e+00
2.692868e+01	-7.430063e+00
2.708422e+01	-7.471213e+00
2.724066e+01	-7.512406e+00
2.739800e+01	-7.553314e+00
2.755625e+01	-7.594496e+00
2.771541e+01	-7.636152e+00
2.787550e+01	-7.677773e+00
2.803650e+01	-7.718549e+00
2.819844e+01	-7.760566e+00
2.836131e+01	-7.802544e+00
2.852513e+01	-7.844142e+00
2.868989e+01	-7.886152e+00
2.885560e+01	-7.928066e+00
2.902227e+01	-7.969671e+00
2.918990e+01	-8.012039e+00
2.935850e+01	-8.054118e+00
2.952807e+01	-8.095959e+00
2.969863e+01	-8.138738e+00
2.987016e+01	-8.181034e+00
3.004269e+01	-8.223336e+00
3.021622e+01	-8.265852e+00
3.039075e+01	-8.308917e+00
3.056628e+01	-8.351416e+00
3.074283e+01	-8.393829e+00
3.092040e+01	-8.437117e+00
3.109900e+01	-8.480204e+00
3.127862e+01	-8.522858e+00
3.145929e+01	-8.565231e+00
3.164099e+01	-8.609211e+00
3.182375e+01	-8.652154e+00
3.200756e+01	-8.694971e+00
3.219244e+01	-8.738160e+00
3.237838e+01	-8.781961e+00
3.256540e+01	-8.825629e+00
3.275349e+01	-8.869237e+00
3.294268e+01	-8.912609e+00
3.313295e+01	-8.956251e+00
3.332433e+01	-8.999831e+00
3.351681e+01	-9.043457e+00
3.371040e+01	-9.087380e+00
3.390511e+01	-9.131112e+00
3.410094e+01	-9.175079e+00
3.429791e+01	-9.219062e+00
3.449601e+01	-9.263045e+00
3.469526e+01	-9.307196e+00
3.489566e+01	-9.351703e+00
3.509721e+01	-9.395699e+00
3.529993e+01	-9.439965e+00
3.550382e+01	-9.484384e+00
3.570889e+01	-9.528754e+00
3.591515e+01	-9.573598e+00
3.612259e+01	-9.617668e+00
3.633123e+01	-9.662217e+00
3.654108e+01	-9.706356e+00
3.675214e+01	-9.752153e+00
3.696442e+01	-9.796726e+00
3.717792e+01	-9.841550e+00
3.739266e+01	-9.886357e+00
3.760864e+01	-9.931394e+00
3.782587e+01	-9.976466e+00
3.804435e+01	-1.002124e+01
3.826409e+01	-1.006575e+01
3.848510e+01	-1.011126e+01
3.870739e+01	-1.015701e+01
3.893096e+01	-1.020156e+01
3.915583e+01	-1.024706e+01
3.938199e+01	-1.029235e+01
3.960946e+01	-1.033755e+01
3.983824e+01	-1.038326e+01
4.006834e+01	-1.042844e+01
4.029978e+01	-1.047443e+01
4.053255e+01	-1.051999e+01
4.076666e+01	-1.056566e+01
4.100213e+01	-1.060996e+01
4.123896e+01	-1.065677e+01
4.147715e+01	-1.070235e+01
4.171672e+01	-1.074879e+01
4.195767e+01	-1.079411e+01
4.220002e+01	-1.083975e+01
4.244377e+01	-1.088561e+01
4.268892e+01	-1.093175e+01
4.293549e+01	-1.097757e+01
4.318348e+01	-1.102476e+01
4.343291e+01	-1.107012e+01
4.368377e+01	-1.111633e+01
4.393609e+01	-1.116219e+01
4.418986e+01	-1.120835e+01
4.444510e+01	-1.125522e+01
4.470182e+01	-1.130096e+01
4.496001e+01	-1.134689e+01
4.521970e+01	-1.139381e+01
4.548089e+01	-1.144008e+01
4.574358e+01	-1.148739e+01
4.600779e+01	-1.153311e+01
4.627353e+01	-1.157949e+01
4.654081e+01	-1.162640e+01
4.680963e+01	-1.167307e+01
4.708000e+01	-1.171981e+01
4.735193e+01	-1.176653e+01
4.762543e+01	-1.181254e+01
4.790051e+01	-1.185959e+01
4.817719e+01	-1.190580e+01
4.845545e+01	-1.195339e+01
4.873533e+01	-1.200042e+01
4.901682e+01	-1.204695e+01
4.929994e+01	-1.209420e+01
4.958470e+01	-1.214156e+01
4.987110e+01	-1.218706e+01
5.015915e+01	-1.223440e+01
5.044887e+01	-1.228236e+01
5.074026e+01	-1.232898e+01
5.103333e+01	-1.237623e+01
5.132810e+01	-1.242283e+01
5.162457e+01	-1.247043e+01
5.192275e+01	-1.251809e+01
5.222265e+01	-1.256482e+01
5.252429e+01	-1.261187e+01
5.282767e+01	-1.265964e+01
5.313280e+01	-1.270691e+01
5.343969e+01	-1.275346e+01
5.374836e+01	-1.280202e+01
5.405880e+01	-1.284932e+01
5.437105e+01	-1.289632e+01
5.468509e+01	-1.294339e+01
5.500095e+01	-1.299231e+01
5.531863e+01	-1.303936e+01
5.563815e+01	-1.308642e+01
5.595951e+01	-1.313438e+01
5.628273e+01	-1.318121e+01
5.660782e+01	-1.322935e+01
5.693479e+01	-1.327688e+01
5.726364e+01	-1.332457e+01
5.759439e+01	-1.337292e+01
5.792705e+01	-1.341974e+01
5.826164e+01	-1.346756e+01
5.859815e+01	-1.351555e+01
5.893662e+01	-1.356335e+01
5.927703e+01	-1.361071e+01
5.961941e+01	-1.365968e+01
5.996377e+01	-1.370712e+01
6.031012e+01	-1.375582e+01
6.065847e+01	-1.380281e+01
6.100883e+01	-1.385155e+01
6.136121e+01	-1.389995e+01
6.171563e+01	-1.394701e+01
6.207210e+01	-1.399405e+01
6.243063e+01	-1.404242e+01
6.279122e+01	-1.409120e+01
6.315390e+01	-1.413881e+01
6.351868e+01	-1.418710e+01
6.388556e+01	-1.423551e+01
6.425456e+01	-1.428342e+01
6.462569e+01	-1.433107e+01
6.499897e+01	-1.437958e+01
6.537440e+01	-1.442800e+01
6.575200e+01	-1.447551e+01
6.613178e+01	-1.452465e+01
6.651375e+01	-1.457267e+01
6.689793e+01	-1.462173e+01
6.728433e+01	-1.466944e+01
6.767297e+01	-1.471782e+01
6.806384e+01	-1.476560e+01
6.845698e+01	-1.481472e+01
6.885238e+01	-1.486268e+01
6.925007e+01	-1.490979e+01
6.965005e+01	-1.496043e+01
7.005235e+01	-1.500756e+01
7.045697e+01	-1.505658e+01
7.086393e+01	-1.510501e+01
7.127323e+01	-1.515324e+01
7.168490e+01	-1.520238e+01
7.209895e+01	-1.525063e+01
7.251539e+01	-1.529907e+01
7.293424e+01	-1.534809e+01
7.335551e+01	-1.539645e+01
7.377920e+01	-1.544419e+01
7.420535e+01	-1.549307e+01
7.463396e+01	-1.554200e+01
7.506504e+01	-1.559113e+01
7.549861e+01	-1.563954e+01
7.593469e+01	-1.568826e+01
7.637328e+01	-1.573585e+01
7.681441e+01	-1.578522e+01
7.725809e+01	-1.583492e+01
7.770433e+01	-1.588352e+01
7.815315e+01	-1.593259e+01
7.860456e+01	-1.598231e+01
7.905857e+01	-1.602907e+01
7.951521e+01	-1.607765e+01
7.997449e+01	-1.612634e+01
8.043642e+01	-1.617577e+01
8.090102e+01	-1.622446e+01
8.136830e+01	-1.627368e+01
8.183828e+01	-1.632193e+01
8.231097e+01	-1.637095e+01
8.278640e+01	-1.641857e+01
8.326457e+01	-1.646876e+01
8.374550e+01	-1.651690e+01
8.422921e+01	-1.656704e+01
8.471572e+01	-1.661488e+01
8.520503e+01	-1.666417e+01
8.569717e+01	-1.671378e+01
8.619215e+01	-1.676186e+01
8.669000e+01	-1.681113e+01
8.719071e+01	-1.685929e+01
8.769432e+01	-1.690983e+01
8.820084e+01	-1.695817e+01
8.871029e+01	-1.700726e+01
8.922267e+01	-1.705765e+01
8.973802e+01	-1.710577e+01
9.025634e+01	-1.715392e+01
9.077766e+01	-1.720298e+01
9.130199e+01	-1.725317e+01
9.182935e+01	-1.730256e+01
9.235975e+01	-1.735063e+01
9.289321e+01	-1.740137e+01
9.342976e+01	-1.744826e+01
9.396941e+01	-1.749908e+01
9.451217e+01	-1.754703e+01
9.505807e+01	-1.759613e+01
9.560712e+01	-1.764557e+01
9.615934e+01	-1.769400e+01
9.671476e+01	-1.774304e+01
9.727338e+01	-1.779206e+01
9.783522e+01	-1.784297e+01
9.840032e+01	-1.789105e+01
9.896867e+01	-1.794104e+01
9.954031e+01	-1.798946e+01
1.001153e+02	-1.804037e+01
1.006935e+02	-1.808849e+01
1.012751e+02	-1.813798e+01
1.018601e+02	-1.818714e+01
1.024484e+02	-1.823734e+01
1.030402e+02	-1.828440e+01
1.036353e+02	-1.833677e+01
1.042339e+02	-1.838509e+01
1.048360e+02	-1.843384e+01
1.054415e+02	-1.848362e+01
1.060505e+02	-1.853272e+01
1.066631e+02	-1.858205e+01
1.072791e+02	-1.863162e+01
1.078988e+02	-1.868091e+01
1.085220e+02	-1.872996e+01
1.091488e+02	-1.877794e+01
1.097793e+02	-1.882875e+01
1.104133e+02	-1.887638e+01
1.110511e+02	-1.892511e+01
1.116925e+02	-1.897719e+01
1.123376e+02	-1.902519e+01
1.129865e+02	-1.907418e+01
1.136391e+02	-1.912534e+01
1.142955e+02	-1.917368e+01
1.149556e+02	-1.922330e+01
1.156196e+02	-1.927463e+01
1.162874e+02	-1.932228e+01
1.169591e+02	-1.937325e+01
1.176347e+02	-1.942138e+01
1.183141e+02	-1.946905e+01
1.189975e+02	-1.952208e+01
1.196848e+02	-1.957003e+01
1.203761e+02	-1.962001e+01
1.210714e+02	-1.966908e+01
1.217707e+02	-1.971807e+01
1.224740e+02	-1.976870e+01
1.231814e+02	-1.981708e+01
1.238929e+02	-1.986801e+01
1.246085e+02	-1.991599e+01
1.253283e+02	-1.996709e+01
1.260522e+02	-2.001498e+01
1.267802e+02	-2.006621e+01
1.275125e+02	-2.011409e+01
1.282490e+02	-2.016287e+01
1.289898e+02	-2.021352e+01
1.297348e+02	-2.026336e+01
1.304842e+02	-2.031362e+01
1.312378e+02	-2.036414e+01
1.319959e+02	-2.041096e+01
1.327583e+02	-2.046155e+01
1.335251e+02	-2.051117e+01
1.342963e+02	-2.056119e+01
1.350720e+02	-2.061124e+01
1.358522e+02	-2.065979e+01
1.366368e+02	-2.071107e+01
1.374260e+02	-2.075849e+01
1.382198e+02	-2.081073e+01
1.390182e+02	-2.085898e+01
1.398211e+02	-2.090926e+01
1.406287e+02	-2.095798e+01
1.414410e+02	-2.100775e+01
1.422579e+02	-2.105676e+01
1.430796e+02	-2.110717e+01
1.439060e+02	-2.115618e+01
1.447372e+02	-2.120442e+01
1.455732e+02	-2.125449e+01
1.464141e+02	-2.130438e+01
1.472597e+02	-2.135653e+01
1.481103e+02	-2.140398e+01
1.489658e+02	-2.145325e+01
1.498262e+02	-2.150354e+01
1.506916e+02	-2.155415e+01
1.515620e+02	-2.160511e+01
1.524374e+02	-2.165256e+01
1.533179e+02	-2.170382e+01
1.542034e+02	-2.175400e+01
1.550941e+02	-2.180376e+01
1.559899e+02	-2.185114e+01
1.568909e+02	-2.190264e+01
1.577971e+02	-2.195336e+01
1.587085e+02	-2.200105e+01
1.596252e+02	-2.205093e+01
1.605472e+02	-2.210090e+01
1.614745e+02	-2.215005e+01
1.624072e+02	-2.220153e+01
1.633453e+02	-2.225177e+01
1.642887e+02	-2.230044e+01
1.652377e+02	-2.234912e+01
1.661921e+02	-2.239879e+01
1.671520e+02	-2.245065e+01
1.681175e+02	-2.249953e+01
1.690885e+02	-2.254675e+01
1.700651e+02	-2.259727e+01
1.710474e+02	-2.264746e+01
1.720354e+02	-2.269802e+01
1.730291e+02	-2.274907e+01
1.740285e+02	-2.279878e+01
1.750337e+02	-2.284541e+01
1.760446e+02	-2.289541e+01
1.770615e+02	-2.294778e+01
1.780842e+02	-2.299578e+01
1.791128e+02	-2.304600e+01
1.801473e+02	-2.309470e+01
1.811878e+02	-2.314567e+01
1.822344e+02	-2.319654e+01
1.832870e+02	-2.324383e+01
1.843456e+02	-2.329574e+01
1.854104e+02	-2.334622e+01
1.864813e+02	-2.339631e+01
1.875584e+02	-2.344485e+01
1.886418e+02	-2.349372e+01
1.897313e+02	-2.354450e+01
1.908272e+02	-2.359471e+01
1.919294e+02	-2.364651e+01
1.930380e+02	-2.369505e+01
1.941530e+02	-2.374261e+01
1.952744e+02	-2.379389e+01
1.964023e+02	-2.384208e+01
1.975367e+02	-2.389264e+01
1.986777e+02	-2.394153e+01
1.998252e+02	-2.399101e+01
2.009794e+02	-2.404358e+01
2.021403e+02	-2.409306e+01
2.033078e+02	-2.414269e+01
2.044821e+02	-2.419343e+01
2.056632e+02	-2.424330e+01
2.068511e+02	-2.429395e+01
2.080459e+02	-2.434032e+01
2.092475e+02	-2.439320e+01
2.104561e+02	-2.444091e+01
2.116717e+02	-2.449321e+01
2.128943e+02	-2.454162e+01
2.141240e+02	-2.459304e+01
2.153608e+02	-2.464190e+01
2.166047e+02	-2.469305e+01
2.178558e+02	-2.474285e+01
2.191141e+02	-2.479254e+01
2.203797e+02	-2.484013e+01
2.216526e+02	-2.489106e+01
2.229329e+02	-2.493988e+01
2.242205e+02	-2.499234e+01
2.255156e+02	-2.504036e+01
2.268182e+02	-2.509067e+01
2.281283e+02	-2.513989e+01
2.294459e+02	-2.519094e+01
2.307712e+02	-2.523879e+01
2.321041e+02	-2.529128e+01
2.334447e+02	-2.533890e+01
2.347931e+02	-2.539144e+01
2.361493e+02	-2.544015e+01
2.375133e+02	-2.548869e+01
2.388851e+02	-2.553783e+01
2.402649e+02	-2.558893e+01
2.416527e+02	-2.564271e+01
2.430484e+02	-2.569193e+01
2.444523e+02	-2.573811e+01
2.458642e+02	-2.578880e+01
2.472843e+02	-2.583845e+01
2.487126e+02	-2.588834e+01
2.501492e+02	-2.593892e+01
2.515940e+02	-2.599199e+01
2.530472e+02	-2.603803e+01
2.545088e+02	-2.608927e+01
2.559789e+02	-2.614450e+01
2.574574e+02	-2.618875e+01
2.589444e+02	-2.623861e+01
2.604401e+02	-2.629279e+01
2.619444e+02	-2.634116e+01
2.634574e+02	-2.639158e+01
2.649791e+02	-2.643825e+01
2.665096e+02	-2.648868e+01
2.680489e+02	-2.653820e+01
2.695972e+02	-2.658893e+01
2.711544e+02	-2.664233e+01
2.727205e+02	-2.669071e+01
2.742958e+02	-2.673603e+01
2.758801e+02	-2.678826e+01
2.774736e+02	-2.683905e+01
2.790762e+02	-2.688779e+01
2.806882e+02	-2.693844e+01
2.823094e+02	-2.698787e+01
2.839400e+02	-2.704051e+01
2.855800e+02	-2.708926e+01
2.872295e+02	-2.714030e+01
2.888886e+02	-2.718915e+01
2.905572e+02	-2.723741e+01
2.922354e+02	-2.728787e+01
2.939234e+02	-2.733865e+01
2.956211e+02	-2.738706e+01
2.973286e+02	-2.744078e+01
2.990459e+02	-2.748997e+01
3.007732e+02	-2.754009e+01
3.025104e+02	-2.758526e+01
3.042577e+02	-2.763526e+01
3.060151e+02	-2.768987e+01
3.077826e+02	-2.774248e+01
3.095604e+02	-2.778967e+01
3.113484e+02	-2.783913e+01
3.131467e+02	-2.788660e+01
3.149554e+02	-2.793892e+01
3.167746e+02	-2.799164e+01
3.186043e+02	-2.803985e+01
3.204445e+02	-2.809082e+01
3.222954e+02	-2.813966e+01
3.241570e+02	-2.818593e+01
3.260293e+02	-2.824129e+01
3.279124e+02	-2.829119e+01
3.298064e+02	-2.834061e+01
3.317114e+02	-2.838810e+01
3.336273e+02	-2.843668e+01
3.355544e+02	-2.849373e+01
3.374925e+02	-2.853745e+01
3.394418e+02	-2.859261e+01
3.414024e+02	-2.864051e+01
3.433744e+02	-2.868811e+01
3.453577e+02	-2.874139e+01
3.473525e+02	-2.879145e+01
3.493588e+02	-2.883961e+01
3.513766e+02	-2.888932e+01
3.534062e+02	-2.893735e+01
3.554474e+02	-2.899154e+01
3.575005e+02	-2.904007e+01
3.595654e+02	-2.909232e+01
3.616422e+02	-2.914255e+01
3.637311e+02	-2.919205e+01
3.658320e+02	-2.924355e+01
3.679450e+02	-2.928906e+01
3.700702e+02	-2.933978e+01
3.722077e+02	-2.939053e+01
3.743576e+02	-2.943773e+01
3.765199e+02	-2.949532e+01
3.786946e+02	-2.954082e+01
3.808820e+02	-2.959125e+01
3.830819e+02	-2.963991e+01
3.852946e+02	-2.969123e+01
3.875200e+02	-2.974112e+01
3.897583e+02	-2.979262e+01
3.920096e+02	-2.984388e+01
3.942738e+02	-2.989453e+01
3.965511e+02	-2.994245e+01
3.988416e+02	-2.999127e+01
4.011452e+02	-3.003939e+01
4.034622e+02	-3.009582e+01
4.057926e+02	-3.014231e+01
4.081365e+02	-3.018876e+01
4.104938e+02	-3.024289e+01
4.128648e+02	-3.029437e+01
4.152495e+02	-3.034194e+01
4.176480e+02	-3.039890e+01
4.200603e+02	-3.043958e+01
4.224866e+02	-3.048777e+01
4.249268e+02	-3.054333e+01
4.273812e+02	-3.059374e+01
4.298497e+02	-3.063915e+01
4.323325e+02	-3.069653e+01
4.348297e+02	-3.074659e+01
4.373412e+02	-3.079109e+01
4.398673e+02	-3.084364e+01
4.424079e+02	-3.089507e+01
4.449633e+02	-3.094138e+01
4.475334e+02	-3.099377e+01
4.501183e+02	-3.104655e+01
4.527182e+02	-3.110213e+01
4.553330e+02	-3.114498e+01
4.579630e+02	-3.119379e+01
4.606082e+02	-3.124392e+01
4.632687e+02	-3.130375e+01
4.659445e+02	-3.134086e+01
4.686358e+02	-3.139923e+01
4.713426e+02	-3.144447e+01
4.740650e+02	-3.149799e+01
4.768032e+02	-3.154676e+01
4.795572e+02	-3.159672e+01
4.823271e+02	-3.164701e+01
4.851130e+02	-3.169990e+01
4.879150e+02	-3.174710e+01
4.907332e+02	-3.179829e+01
4.935676e+02	-3.184835e+01
4.964185e+02	-3.189739e+01
4.992858e+02	-3.194412e+01
5.021696e+02	-3.199942e+01
5.050701e+02	-3.204701e+01
5.079874e+02	-3.209280e+01
5.109215e+02	-3.215063e+01
5.138726e+02	-3.219162e+01
5.168407e+02	-3.224683e+01
5.198259e+02	-3.230049e+01
5.228284e+02	-3.235409e+01
5.258482e+02	-3.240260e+01
5.288855e+02	-3.244860e+01
5.319403e+02	-3.250063e+01
5.350128e+02	-3.255115e+01
5.381030e+02	-3.260124e+01
5.412111e+02	-3.264678e+01
5.443371e+02	-3.270711e+01
5.474812e+02	-3.275394e+01
5.506434e+02	-3.280093e+01
5.538239e+02	-3.285644e+01
5.570228e+02	-3.290339e+01
5.602401e+02	-3.295143e+01
5.634760e+02	-3.300306e+01
5.667306e+02	-3.304962e+01
5.700040e+02	-3.310028e+01
5.732964e+02	-3.315063e+01
5.766077e+02	-3.321237e+01
5.799382e+02	-3.325743e+01
5.832879e+02	-3.330524e+01
5.866569e+02	-3.335071e+01
5.900454e+02	-3.340120e+01
5.934535e+02	-3.345188e+01
5.968813e+02	-3.351076e+01
6.003288e+02	-3.355195e+01
6.037963e+02	-3.361272e+01
6.072838e+02	-3.365808e+01
6.107914e+02	-3.370815e+01
6.143194e+02	-3.375900e+01
6.178676e+02	-3.380456e+01
6.214364e+02	-3.386397e+01
6.250258e+02	-3.390045e+01
6.286359e+02	-3.395228e+01
6.322669e+02	-3.401376e+01
6.359189e+02	-3.404936e+01
6.395919e+02	-3.411334e+01
6.432862e+02	-3.416060e+01
6.470017e+02	-3.420960e+01
6.507388e+02	-3.426188e+01
6.544974e+02	-3.431149e+01
6.582778e+02	-3.436008e+01
6.620800e+02	-3.440525e+01
6.659041e+02	-3.446840e+01
6.697504e+02	-3.451760e+01
6.736188e+02	-3.455424e+01
6.775096e+02	-3.460318e+01
6.814229e+02	-3.467058e+01
6.853587e+02	-3.472000e+01
6.893173e+02	-3.476424e+01
6.932988e+02	-3.482104e+01
6.973033e+02	-3.486977e+01
7.013309e+02	-3.491115e+01
