Frequency(Hz)	Magnitude(dB)
1.000000e+01	-2.357685e+00
1.005776e+01	-2.378864e+00
1.011585e+01	-2.400046e+00
1.017428e+01	-2.421036e+00
1.023305e+01	-2.442838e+00
1.029215e+01	-2.464342e+00
1.035160e+01	-2.485918e+00
1.041139e+01	-2.507896e+00
1.047153e+01	-2.529856e+00
1.053201e+01	-2.552129e+00
1.059284e+01	-2.574412e+00
1.065403e+01	-2.596867e+00
1.071556e+01	-2.619345e+00
1.077746e+01	-2.642247e+00
1.083971e+01	-2.665106e+00
1.090232e+01	-2.688235e+00
1.096529e+01	-2.711404e+00
1.102862e+01	-2.734460e+00
1.109232e+01	-2.758150e+00
1.115639e+01	-2.781668e+00
1.122083e+01	-2.805347e+00
1.128564e+01	-2.829041e+00
1.135083e+01	-2.852992e+00
1.141639e+01	-2.877435e+00
1.148233e+01	-2.901729e+00
1.154865e+01	-2.926244e+00
1.161536e+01	-2.950664e+00
1.168245e+01	-2.975390e+00
1.174992e+01	-3.000229e+00
1.181779e+01	-3.025117e+00
1.188605e+01	-3.050345e+00
1.195470e+01	-3.075825e+00
1.202375e+01	-3.101347e+00
1.209320e+01	-3.126790e+00
1.216305e+01	-3.152580e+00
1.223330e+01	-3.178463e+00
1.230396e+01	-3.204466e+00
1.237503e+01	-3.230894e+00
1.244651e+01	-3.257091e+00
1.251840e+01	-3.283599e+00
1.259070e+01	-3.309894e+00
1.266343e+01	-3.336955e+00
1.273657e+01	-3.363796e+00
1.281014e+01	-3.390753e+00
1.288413e+01	-3.418109e+00
1.295855e+01	-3.445538e+00
1.303339e+01	-3.472695e+00
1.310867e+01	-3.500631e+00
1.318439e+01	-3.527879e+00
1.326054e+01	-3.556143e+00
1.333713e+01	-3.584374e+00
1.341417e+01	-3.612203e+00
1.349165e+01	-3.641060e+00
1.356958e+01	-3.669253e+00
1.364795e+01	-3.697580e+00
1.372678e+01	-3.726421e+00
1.380607e+01	-3.755192e+00
1.388581e+01	-3.784202e+00
1.396602e+01	-3.813473e+00
1.404668e+01	-3.842705e+00
1.412782e+01	-3.872432e+00
1.420942e+01	-3.901767e+00
1.429149e+01	-3.931505e+00
1.437404e+01	-3.961518e+00
1.445706e+01	-3.991124e+00
1.454057e+01	-4.021400e+00
1.462455e+01	-4.051847e+00
1.470902e+01	-4.082144e+00
1.479398e+01	-4.113011e+00
1.487943e+01	-4.143389e+00
1.496537e+01	-4.174380e+00
1.505181e+01	-4.205019e+00
1.513875e+01	-4.236601e+00
1.522619e+01	-4.267454e+00
1.531414e+01	-4.299295e+00
1.540259e+01	-4.330370e+00
1.549156e+01	-4.362223e+00
1.558103e+01	-4.394041e+00
1.567103e+01	-4.425503e+00
1.576155e+01	-4.457822e+00
1.585258e+01	-4.489904e+00
1.594415e+01	-4.522156e+00
1.603624e+01	-4.554555e+00
1.612886e+01	-4.587277e+00
1.622202e+01	-4.619969e+00
1.631572e+01	-4.652826e+00
1.640996e+01	-4.685821e+00
1.650474e+01	-4.718674e+00
1.660008e+01	-4.751959e+00
1.669596e+01	-4.785558e+00
1.679239e+01	-4.818905e+00
1.688938e+01	-4.852322e+00
1.698694e+01	-4.886276e+00
1.708505e+01	-4.919981e+00
1.718373e+01	-4.954250e+00
1.728299e+01	-4.987873e+00
1.738281e+01	-5.022265e+00
1.748322e+01	-5.056523e+00
1.758420e+01	-5.090872e+00
1.768576e+01	-5.125542e+00
1.778792e+01	-5.160421e+00
1.789066e+01	-5.195417e+00
1.799399e+01	-5.230027e+00
1.809793e+01	-5.265395e+00
1.820246e+01	-5.300683e+00
1.830760e+01	-5.336046e+00
1.841334e+01	-5.371436e+00
1.851969e+01	-5.407121e+00
1.862666e+01	-5.442520e+00
1.873425e+01	-5.478221e+00
1.884246e+01	-5.514318e+00
1.895129e+01	-5.549986e+00
1.906075e+01	-5.586326e+00
1.917085e+01	-5.622807e+00
1.928158e+01	-5.659072e+00
1.939295e+01	-5.695452e+00
1.950496e+01	-5.732218e+00
1.961762e+01	-5.768789e+00
1.973093e+01	-5.805839e+00
1.984490e+01	-5.842298e+00
1.995952e+01	-5.879623e+00
2.007480e+01	-5.916800e+00
2.019076e+01	-5.954121e+00
2.030738e+01	-5.991730e+00
2.042467e+01	-6.029076e+00
2.054264e+01	-6.066704e+00
2.066130e+01	-6.104318e+00
2.078064e+01	-6.142282e+00
2.090066e+01	-6.180266e+00
2.102139e+01	-6.217915e+00
2.114280e+01	-6.256183e+00
2.126492e+01	-6.294393e+00
2.138775e+01	-6.332828e+00
2.151128e+01	-6.371060e+00
2.163553e+01	-6.409844e+00
2.176050e+01	-6.448238e+00
2.188619e+01	-6.487147e+00
2.201260e+01	-6.525933e+00
2.213974e+01	-6.565163e+00
2.226762e+01	-6.603775e+00
2.239624e+01	-6.643508e+00
2.252560e+01	-6.682481e+00
2.265571e+01	-6.721976e+00
2.278656e+01	-6.761106e+00
2.291818e+01	-6.800473e+00
2.305055e+01	-6.840186e+00
2.318369e+01	-6.879883e+00
2.331760e+01	-6.920149e+00
2.345228e+01	-6.959804e+00
2.358774e+01	-6.999625e+00
2.372398e+01	-7.039577e+00
2.386101e+01	-7.079613e+00
2.399883e+01	-7.120054e+00
2.413745e+01	-7.160673e+00
2.427686e+01	-7.201002e+00
2.441709e+01	-7.241913e+00
2.455812e+01	-7.282120e+00
2.469997e+01	-7.322831e+00
2.484263e+01	-7.363376e+00
2.498612e+01	-7.404488e+00
2.513044e+01	-7.445511e+00
2.527559e+01	-7.487120e+00
2.542158e+01	-7.527853e+00
2.556842e+01	-7.569362e+00
2.571610e+01	-7.610633e+00
2.586463e+01	-7.651612e+00
2.601403e+01	-7.693223e+00
2.616428e+01	-7.734800e+00
2.631541e+01	-7.776448e+00
2.646740e+01	-7.818358e+00
2.662028e+01	-7.859618e+00
2.677404e+01	-7.902005e+00
2.692868e+01	-7.943837e+00
2.708422e+01	-7.985761e+00
2.724066e+01	-8.027738e+00
2.739800e+01	-8.070259e+00
2.755625e+01	-8.112131e+00
2.771541e+01	-8.154610e+00
2.787550e+01	-8.197000e+00
2.803650e+01	-8.239113e+00
2.819844e+01	-8.282076e+00
2.836131e+01	-8.324835e+00
2.852513e+01	-8.367161e+00
2.868989e+01	-8.410345e+00
2.885560e+01	-8.452796e+00
2.902227e+01	-8.495780e+00
2.918990e+01	-8.538793e+00
2.935850e+01	-8.581909e+00
2.952807e+01	-8.625051e+00
2.969863e+01	-8.668138e+00
2.987016e+01	-8.711993e+00
3.004269e+01	-8.754749e+00
3.021622e+01	-8.798470e+00
3.039075e+01	-8.841584e+00
3.056628e+01	-8.885633e+00
3.074283e+01	-8.929054e+00
3.092040e+01	-8.972589e+00
3.109900e+01	-9.016098e+00
3.127862e+01	-9.060044e+00
3.145929e+01	-9.104248e+00
3.164099e+01	-9.147798e+00
3.182375e+01	-9.191857e+00
3.200756e+01	-9.236270e+00
3.219244e+01	-9.280259e+00
3.237838e+01	-9.324250e+00
3.256540e+01	-9.368544e+00
3.275349e+01	-9.412431e+00
3.294268e+01	-9.457162e+00
3.313295e+01	-9.501262e+00
3.332433e+01	-9.545509e+00
3.351681e+01	-9.590312e+00
3.371040e+01	-9.634655e+00
3.390511e+01	-9.679066e+00
3.410094e+01	-9.724447e+00
3.429791e+01	-9.768509e+00
3.449601e+01	-9.814006e+00
3.469526e+01	-9.858564e+00
3.489566e+01	-9.903025e+00
3.509721e+01	-9.947398e+00
3.529993e+01	-9.993122e+00
3.550382e+01	-1.003826e+01
3.570889e+01	-1.008309e+01
3.591515e+01	-1.012840e+01
3.612259e+01	-1.017396e+01
3.633123e+01	-1.021926e+01
3.654108e+01	-1.026430e+01
3.675214e+01	-1.030923e+01
3.696442e+01	-1.035499e+01
3.717792e+01	-1.040045e+01
3.739266e+01	-1.044610e+01
3.760864e+01	-1.049104e+01
3.782587e+01	-1.053676e+01
3.804435e+01	-1.058254e+01
3.826409e+01	-1.062887e+01
3.848510e+01	-1.067362e+01
3.870739e+01	-1.071984e+01
3.893096e+01	-1.076564e+01
3.915583e+01	-1.081123e+01
3.938199e+01	-1.085720e+01
3.960946e+01	-1.090339e+01
3.983824e+01	-1.094966e+01
4.006834e+01	-1.099516e+01
4.029978e+01	-1.104159e+01
4.053255e+01	-1.108748e+01
4.076666e+01	-1.113383e+01
4.100213e+01	-1.117999e+01
4.123896e+01	-1.122584e+01
4.147715e+01	-1.127194e+01
4.171672e+01	-1.131891e+01
4.195767e+01	-1.136518e+01
4.220002e+01	-1.141143e+01
4.244377e+01	-1.145804e+01
4.268892e+01	-1.150394e+01
4.293549e+01	-1.155047e+01
4.318348e+01	-1.159776e+01
4.343291e+01	-1.164389e+01
4.368377e+01	-1.169082e+01
4.393609e+01	-1.173718e+01
4.418986e+01	-1.178408e+01
4.444510e+01	-1.183027e+01
4.470182e+01	-1.187718e+01
4.496001e+01	-1.192433e+01
4.521970e+01	-1.197127e+01
4.548089e+01	-1.201760e+01
4.574358e+01	-1.206492e+01
4.600779e+01	-1.211152e+01
4.627353e+01	-1.215867e+01
4.654081e+01	-1.220535e+01
4.680963e+01	-1.225292e+01
4.708000e+01	-1.230001e+01
4.735193e+01	-1.234651e+01
4.762543e+01	-1.239354e+01
4.790051e+01	-1.244083e+01
4.817719e+01	-1.248821e+01
4.845545e+01	-1.253565e+01
4.873533e+01	-1.258278e+01
4.901682e+01	-1.262977e+01
4.929994e+01	-1.267677e+01
4.958470e+01	-1.272405e+01
4.987110e+01	-1.277179e+01
5.015915e+01	-1.281925e+01
5.044887e+01	-1.286738e+01
5.074026e+01	-1.291408e+01
5.103333e+01	-1.296145e+01
5.132810e+01	-1.300919e+01
5.162457e+01	-1.305693e+01
5.192275e+01	-1.310408e+01
5.222265e+01	-1.315192e+01
5.252429e+01	-1.319994e+01
5.282767e+01	-1.324781e+01
5.313280e+01	-1.329447e+01
5.343969e+01	-1.334283e+01
5.374836e+01	-1.339024e+01
5.405880e+01	-1.343850e+01
5.437105e+01	-1.348599e+01
5.468509e+01	-1.353453e+01
5.500095e+01	-1.358177e+01
5.531863e+01	-1.362987e+01
5.563815e+01	-1.367698e+01
5.595951e+01	-1.372500e+01
5.628273e+01	-1.377363e+01
5.660782e+01	-1.382151e+01
5.693479e+01	-1.386964e+01
5.726364e+01	-1.391710e+01
5.759439e+01	-1.396448e+01
5.792705e+01	-1.401327e+01
5.826164e+01	-1.406080e+01
5.859815e+01	-1.410867e+01
5.893662e+01	-1.415747e+01
5.927703e+01	-1.420636e+01
5.961941e+01	-1.425379e+01
5.996377e+01	-1.430291e+01
6.031012e+01	-1.434919e+01
6.065847e+01	-1.439849e+01
6.100883e+01	-1.444611e+01
6.136121e+01	-1.449531e+01
6.171563e+01	-1.454269e+01
6.207210e+01	-1.459029e+01
6.243063e+01	-1.463897e+01
6.279122e+01	-1.468854e+01
6.315390e+01	-1.473636e+01
6.351868e+01	-1.478516e+01
6.388556e+01	-1.483290e+01
6.425456e+01	-1.488088e+01
6.462569e+01	-1.492940e+01
6.499897e+01	-1.497877e+01
6.537440e+01	-1.502688e+01
6.575200e+01	-1.507503e+01
6.613178e+01	-1.512362e+01
6.651375e+01	-1.517233e+01
6.689793e+01	-1.522092e+01
6.728433e+01	-1.526871e+01
6.767297e+01	-1.531714e+01
6.806384e+01	-1.536592e+01
6.845698e+01	-1.541440e+01
6.885238e+01	-1.546352e+01
6.925007e+01	-1.551238e+01
6.965005e+01	-1.555993e+01
7.005235e+01	-1.560967e+01
7.045697e+01	-1.565733e+01
7.086393e+01	-1.570531e+01
7.127323e+01	-1.575559e+01
7.168490e+01	-1.580429e+01
7.209895e+01	-1.585279e+01
7.251539e+01	-1.590249e+01
7.293424e+01	-1.594976e+01
7.335551e+01	-1.599916e+01
7.377920e+01	-1.604728e+01
7.420535e+01	-1.609629e+01
7.463396e+01	-1.614472e+01
7.506504e+01	-1.619395e+01
7.549861e+01	-1.624332e+01
7.593469e+01	-1.629202e+01
7.637328e+01	-1.634032e+01
7.681441e+01	-1.639025e+01
7.725809e+01	-1.643869e+01
7.770433e+01	-1.648756e+01
7.815315e+01	-1.653592e+01
7.860456e+01	-1.658534e+01
7.905857e+01	-1.663409e+01
7.951521e+01	-1.668313e+01
7.997449e+01	-1.673223e+01
8.043642e+01	-1.678028e+01
8.090102e+01	-1.682984e+01
8.136830e+01	-1.687987e+01
8.183828e+01	-1.692868e+01
8.231097e+01	-1.697586e+01
8.278640e+01	-1.702508e+01
8.326457e+01	-1.707456e+01
8.374550e+01	-1.712445e+01
8.422921e+01	-1.717364e+01
8.471572e+01	-1.722211e+01
8.520503e+01	-1.727119e+01
8.569717e+01	-1.732125e+01
8.619215e+01	-1.736953e+01
8.669000e+01	-1.741925e+01
8.719071e+01	-1.746725e+01
8.769432e+01	-1.751602e+01
8.820084e+01	-1.756576e+01
8.871029e+01	-1.761563e+01
8.922267e+01	-1.766490e+01
8.973802e+01	-1.771460e+01
9.025634e+01	-1.776310e+01
9.077766e+01	-1.781189e+01
9.130199e+01	-1.786060e+01
9.182935e+01	-1.791082e+01
9.235975e+01	-1.796003e+01
9.289321e+01	-1.800828e+01
9.342976e+01	-1.805733e+01
9.396941e+01	-1.810746e+01
9.451217e+01	-1.815688e+01
9.505807e+01	-1.820604e+01
9.560712e+01	-1.825522e+01
9.615934e+01	-1.830319e+01
9.671476e+01	-1.835483e+01
9.727338e+01	-1.840299e+01
9.783522e+01	-1.845351e+01
9.840032e+01	-1.850061e+01
9.896867e+01	-1.855049e+01
9.954031e+01	-1.860072e+01
1.001153e+02	-1.864989e+01
1.006935e+02	-1.869925e+01
1.012751e+02	-1.874871e+01
1.018601e+02	-1.879750e+01
1.024484e+02	-1.884640e+01
1.030402e+02	-1.889599e+01
1.036353e+02	-1.894666e+01
1.042339e+02	-1.899571e+01
1.048360e+02	-1.904272e+01
1.054415e+02	-1.909410e+01
1.060505e+02	-1.914315e+01
1.066631e+02	-1.919312e+01
1.072791e+02	-1.924229e+01
1.078988e+02	-1.929071e+01
1.085220e+02	-1.934205e+01
1.091488e+02	-1.939272e+01
1.097793e+02	-1.944183e+01
1.104133e+02	-1.948972e+01
1.110511e+02	-1.953795e+01
1.116925e+02	-1.958905e+01
1.123376e+02	-1.963810e+01
1.129865e+02	-1.968765e+01
1.136391e+02	-1.973735e+01
1.142955e+02	-1.978794e+01
1.149556e+02	-1.983484e+01
1.156196e+02	-1.988482e+01
1.162874e+02	-1.993580e+01
1.169591e+02	-1.998528e+01
1.176347e+02	-2.003430e+01
1.183141e+02	-2.008389e+01
1.189975e+02	-2.013383e+01
1.196848e+02	-2.018255e+01
1.203761e+02	-2.023361e+01
1.210714e+02	-2.028141e+01
1.217707e+02	-2.032880e+01
1.224740e+02	-2.038130e+01
1.231814e+02	-2.043159e+01
1.238929e+02	-2.048064e+01
1.246085e+02	-2.053069e+01
1.253283e+02	-2.058070e+01
1.260522e+02	-2.062840e+01
1.267802e+02	-2.067905e+01
1.275125e+02	-2.072977e+01
1.282490e+02	-2.077868e+01
1.289898e+02	-2.082945e+01
1.297348e+02	-2.087758e+01
1.304842e+02	-2.092713e+01
1.312378e+02	-2.097606e+01
1.319959e+02	-2.102756e+01
1.327583e+02	-2.107666e+01
1.335251e+02	-2.112412e+01
1.342963e+02	-2.117663e+01
1.350720e+02	-2.122503e+01
1.358522e+02	-2.127329e+01
1.366368e+02	-2.132472e+01
1.374260e+02	-2.137244e+01
1.382198e+02	-2.142153e+01
1.390182e+02	-2.147428e+01
1.398211e+02	-2.152103e+01
1.406287e+02	-2.157277e+01
1.414410e+02	-2.162314e+01
1.422579e+02	-2.167125e+01
1.430796e+02	-2.172011e+01
1.439060e+02	-2.177226e+01
1.447372e+02	-2.182284e+01
1.455732e+02	-2.187207e+01
1.464141e+02	-2.192106e+01
1.472597e+02	-2.197180e+01
1.481103e+02	-2.202067e+01
1.489658e+02	-2.207112e+01
1.498262e+02	-2.211790e+01
1.506916e+02	-2.216898e+01
1.515620e+02	-2.222013e+01
1.524374e+02	-2.226884e+01
1.533179e+02	-2.231756e+01
1.542034e+02	-2.236577e+01
1.550941e+02	-2.241700e+01
1.559899e+02	-2.246727e+01
1.568909e+02	-2.251570e+01
1.577971e+02	-2.256537e+01
1.587085e+02	-2.261562e+01
1.596252e+02	-2.266812e+01
1.605472e+02	-2.271741e+01
1.614745e+02	-2.276478e+01
1.624072e+02	-2.281476e+01
1.633453e+02	-2.286628e+01
1.642887e+02	-2.291345e+01
1.652377e+02	-2.296674e+01
1.661921e+02	-2.301535e+01
1.671520e+02	-2.306601e+01
1.681175e+02	-2.311440e+01
1.690885e+02	-2.316477e+01
1.700651e+02	-2.321258e+01
1.710474e+02	-2.326399e+01
1.720354e+02	-2.331425e+01
1.730291e+02	-2.336500e+01
1.740285e+02	-2.341439e+01
1.750337e+02	-2.346513e+01
1.760446e+02	-2.351502e+01
1.770615e+02	-2.356488e+01
1.780842e+02	-2.361449e+01
1.791128e+02	-2.366217e+01
1.801473e+02	-2.371199e+01
1.811878e+02	-2.376220e+01
1.822344e+02	-2.381405e+01
1.832870e+02	-2.386333e+01
1.843456e+02	-2.391332e+01
1.854104e+02	-2.396185e+01
1.864813e+02	-2.400830e+01
1.875584e+02	-2.406157e+01
1.886418e+02	-2.410967e+01
1.897313e+02	-2.416204e+01
1.908272e+02	-2.421137e+01
1.919294e+02	-2.425869e+01
1.930380e+02	-2.431055e+01
1.941530e+02	-2.436063e+01
1.952744e+02	-2.441217e+01
1.964023e+02	-2.446244e+01
1.975367e+02	-2.450904e+01
1.986777e+02	-2.456156e+01
1.998252e+02	-2.460735e+01
2.009794e+02	-2.466210e+01
2.021403e+02	-2.471193e+01
2.033078e+02	-2.475829e+01
2.044821e+02	-2.481032e+01
2.056632e+02	-2.486225e+01
2.068511e+02	-2.491020e+01
2.080459e+02	-2.495838e+01
2.092475e+02	-2.501041e+01
2.104561e+02	-2.505796e+01
2.116717e+02	-2.510675e+01
2.128943e+02	-2.515913e+01
2.141240e+02	-2.521003e+01
2.153608e+02	-2.525735e+01
2.166047e+02	-2.530989e+01
2.178558e+02	-2.535915e+01
2.191141e+02	-2.540847e+01
2.203797e+02	-2.545801e+01
2.216526e+02	-2.550906e+01
2.229329e+02	-2.555830e+01
2.242205e+02	-2.560932e+01
2.255156e+02	-2.565602e+01
2.268182e+02	-2.570734e+01
2.281283e+02	-2.575965e+01
2.294459e+02	-2.581034e+01
2.307712e+02	-2.585756e+01
2.321041e+02	-2.590778e+01
2.334447e+02	-2.596015e+01
2.347931e+02	-2.600836e+01
2.361493e+02	-2.605895e+01
2.375133e+02	-2.610713e+01
2.388851e+02	-2.616074e+01
2.402649e+02	-2.620972e+01
2.416527e+02	-2.625991e+01
2.430484e+02	-2.630872e+01
2.444523e+02	-2.635584e+01
2.458642e+02	-2.640760e+01
2.472843e+02	-2.645983e+01
2.487126e+02	-2.650624e+01
2.501492e+02	-2.655635e+01
2.515940e+02	-2.661410e+01
2.530472e+02	-2.666031e+01
2.545088e+02	-2.670696e+01
2.559789e+02	-2.675603e+01
2.574574e+02	-2.680931e+01
2.589444e+02	-2.685808e+01
2.604401e+02	-2.690937e+01
2.619444e+02	-2.695302e+01
2.634574e+02	-2.701000e+01
2.649791e+02	-2.705526e+01
2.665096e+02	-2.710541e+01
2.680489e+02	-2.715507e+01
2.695972e+02	-2.720942e+01
2.711544e+02	-2.725697e+01
2.727205e+02	-2.730761e+01
2.742958e+02	-2.735504e+01
2.758801e+02	-2.740883e+01
2.774736e+02	-2.745443e+01
2.790762e+02	-2.750966e+01
2.806882e+02	-2.755874e+01
2.823094e+02	-2.760896e+01
2.839400e+02	-2.765612e+01
2.855800e+02	-2.770531e+01
2.872295e+02	-2.775924e+01
2.888886e+02	-2.780604e+01
2.905572e+02	-2.785680e+01
2.922354e+02	-2.790453e+01
2.939234e+02	-2.795852e+01
2.956211e+02	-2.800698e+01
2.973286e+02	-2.805607e+01
2.990459e+02	-2.810708e+01
3.007732e+02	-2.815752e+01
3.025104e+02	-2.820756e+01
3.042577e+02	-2.825683e+01
3.060151e+02	-2.830597e+01
3.077826e+02	-2.835961e+01
3.095604e+02	-2.840753e+01
3.113484e+02	-2.845691e+01
3.131467e+02	-2.850211e+01
3.149554e+02	-2.855634e+01
3.167746e+02	-2.860691e+01
3.186043e+02	-2.865859e+01
3.204445e+02	-2.870453e+01
3.222954e+02	-2.875889e+01
3.241570e+02	-2.880702e+01
3.260293e+02	-2.885533e+01
3.279124e+02	-2.891059e+01
3.298064e+02	-2.895805e+01
3.317114e+02	-2.900617e+01
3.336273e+02	-2.905788e+01
3.355544e+02	-2.910508e+01
3.374925e+02	-2.915913e+01
3.394418e+02	-2.921037e+01
3.414024e+02	-2.925701e+01
3.433744e+02	-2.930649e+01
3.453577e+02	-2.936093e+01
3.473525e+02	-2.941004e+01
3.493588e+02	-2.945695e+01
3.513766e+02	-2.950644e+01
3.534062e+02	-2.956024e+01
3.554474e+02	-2.960981e+01
3.575005e+02	-2.965226e+01
3.595654e+02	-2.971101e+01
3.616422e+02	-2.975733e+01
3.637311e+02	-2.980719e+01
3.658320e+02	-2.985834e+01
3.679450e+02	-2.991137e+01
3.700702e+02	-2.996305e+01
3.722077e+02	-3.001170e+01
3.743576e+02	-3.006007e+01
3.765199e+02	-3.011105e+01
3.786946e+02	-3.015983e+01
3.808820e+02	-3.020789e+01
3.830819e+02	-3.026442e+01
3.852946e+02	-3.030377e+01
3.875200e+02	-3.036349e+01
3.897583e+02	-3.040681e+01
3.920096e+02	-3.045828e+01
3.942738e+02	-3.050837e+01
3.965511e+02	-3.056276e+01
3.988416e+02	-3.061015e+01
4.011452e+02	-3.065946e+01
4.034622e+02	-3.071149e+01
4.057926e+02	-3.076502e+01
4.081365e+02	-3.080760e+01
4.104938e+02	-3.086381e+01
4.128648e+02	-3.091898e+01
4.152495e+02	-3.095856e+01
4.176480e+02	-3.100797e+01
4.200603e+02	-3.106415e+01
4.224866e+02	-3.111470e+01
4.249268e+02	-3.116063e+01
4.273812e+02	-3.121583e+01
4.298497e+02	-3.125797e+01
4.323325e+02	-3.130916e+01
4.348297e+02	-3.136431e+01
4.373412e+02	-3.140987e+01
4.398673e+02	-3.146284e+01
4.424079e+02	-3.151091e+01
4.449633e+02	-3.156255e+01
4.475334e+02	-3.161740e+01
4.501183e+02	-3.165821e+01
4.527182e+02	-3.171205e+01
4.553330e+02	-3.176632e+01
4.579630e+02	-3.181205e+01
4.606082e+02	-3.185896e+01
4.632687e+02	-3.191141e+01
4.659445e+02	-3.196711e+01
4.686358e+02	-3.201885e+01
4.713426e+02	-3.205891e+01
4.740650e+02	-3.211796e+01
4.768032e+02	-3.215786e+01
4.795572e+02	-3.221268e+01
4.823271e+02	-3.226801e+01
4.851130e+02	-3.231459e+01
4.879150e+02	-3.236200e+01
4.907332e+02	-3.241871e+01
4.935676e+02	-3.246717e+01
4.964185e+02	-3.251403e+01
4.992858e+02	-3.256718e+01
5.021696e+02	-3.261601e+01
5.050701e+02	-3.266802e+01
5.079874e+02	-3.271391e+01
5.109215e+02	-3.276805e+01
5.138726e+02	-3.281447e+01
5.168407e+02	-3.286687e+01
5.198259e+02	-3.291887e+01
5.228284e+02	-3.296545e+01
5.258482e+02	-3.301945e+01
5.288855e+02	-3.307109e+01
5.319403e+02	-3.311839e+01
5.350128e+02	-3.316848e+01
5.381030e+02	-3.321841e+01
5.412111e+02	-3.326751e+01
5.443371e+02	-3.331442e+01
5.474812e+02	-3.336388e+01
5.506434e+02	-3.342248e+01
5.538239e+02	-3.348434e+01
5.570228e+02	-3.352031e+01
5.602401e+02	-3.357191e+01
5.634760e+02	-3.362519e+01
5.667306e+02	-3.366805e+01
5.700040e+02	-3.372511e+01
5.732964e+02	-3.377895e+01
5.766077e+02	-3.382436e+01
5.799382e+02	-3.387892e+01
5.832879e+02	-3.392241e+01
5.866569e+02	-3.396380e+01
5.900454e+02	-3.402431e+01
5.934535e+02	-3.407169e+01
5.968813e+02	-3.412774e+01
6.003288e+02	-3.417112e+01
6.037963e+02	-3.423097e+01
6.072838e+02	-3.427235e+01
6.107914e+02	-3.432002e+01
6.143194e+02	-3.437939e+01
6.178676e+02	-3.442931e+01
6.214364e+02	-3.447569e+01
6.250258e+02	-3.452702e+01
6.286359e+02	-3.458185e+01
6.322669e+02	-3.462690e+01
6.359189e+02	-3.467821e+01
6.395919e+02	-3.471935e+01
6.432862e+02	-3.477841e+01
6.470017e+02	-3.482883e+01
6.507388e+02	-3.488169e+01
6.544974e+02	-3.493164e+01
6.582778e+02	-3.498440e+01
6.620800e+02	-3.502316e+01
6.659041e+02	-3.508299e+01
6.697504e+02	-3.513047e+01
6.736188e+02	-3.517631e+01
6.775096e+02	-3.522732e+01
6.814229e+02	-3.528498e+01
6.853587e+02	-3.532961e+01
6.893173e+02	-3.538471e+01
6.932988e+02	-3.543063e+01
6.973033e+02	-3.549545e+01
7.013309e+02	-3.553753e+01
