Frequency(Hz)	Magnitude(dB)
1.000000e+01	-2.188898e+00
1.005776e+01	-2.208997e+00
1.011585e+01	-2.228791e+00
1.017428e+01	-2.248996e+00
1.023305e+01	-2.269046e+00
1.029215e+01	-2.289944e+00
1.035160e+01	-2.310125e+00
1.041139e+01	-2.330945e+00
1.047153e+01	-2.351844e+00
1.053201e+01	-2.372783e+00
1.059284e+01	-2.393971e+00
1.065403e+01	-2.415160e+00
1.071556e+01	-2.436815e+00
1.077746e+01	-2.458240e+00
1.083971e+01	-2.479876e+00
1.090232e+01	-2.501685e+00
1.096529e+01	-2.523603e+00
1.102862e+01	-2.545872e+00
1.109232e+01	-2.568319e+00
1.115639e+01	-2.590501e+00
1.122083e+01	-2.613070e+00
1.128564e+01	-2.635522e+00
1.135083e+01	-2.658502e+00
1.141639e+01	-2.681509e+00
1.148233e+01	-2.704680e+00
1.154865e+01	-2.727702e+00
1.161536e+01	-2.751196e+00
1.168245e+01	-2.774769e+00
1.174992e+01	-2.798701e+00
1.181779e+01	-2.822286e+00
1.188605e+01	-2.846088e+00
1.195470e+01	-2.870373e+00
1.202375e+01	-2.894617e+00
1.209320e+01	-2.919270e+00
1.216305e+01	-2.943344e+00
1.223330e+01	-2.968472e+00
1.230396e+01	-2.993260e+00
1.237503e+01	-3.018088e+00
1.244651e+01	-3.043269e+00
1.251840e+01	-3.068509e+00
1.259070e+01	-3.093817e+00
1.266343e+01	-3.119691e+00
1.273657e+01	-3.145161e+00
1.281014e+01	-3.170959e+00
1.288413e+01	-3.197084e+00
1.295855e+01	-3.223074e+00
1.303339e+01	-3.249432e+00
1.310867e+01	-3.276002e+00
1.318439e+01	-3.302419e+00
1.326054e+01	-3.329052e+00
1.333713e+01	-3.355899e+00
1.341417e+01	-3.383058e+00
1.349165e+01	-3.410334e+00
1.356958e+01	-3.437693e+00
1.364795e+01	-3.464891e+00
1.372678e+01	-3.492630e+00
1.380607e+01	-3.520378e+00
1.388581e+01	-3.548082e+00
1.396602e+01	-3.575790e+00
1.404668e+01	-3.604151e+00
1.412782e+01	-3.632451e+00
1.420942e+01	-3.661119e+00
1.429149e+01	-3.689465e+00
1.437404e+01	-3.718380e+00
1.445706e+01	-3.747059e+00
1.454057e+01	-3.776054e+00
1.462455e+01	-3.804986e+00
1.470902e+01	-3.834361e+00
1.479398e+01	-3.863701e+00
1.487943e+01	-3.893368e+00
1.496537e+01	-3.922977e+00
1.505181e+01	-3.952944e+00
1.513875e+01	-3.982753e+00
1.522619e+01	-4.012766e+00
1.531414e+01	-4.043076e+00
1.540259e+01	-4.073540e+00
1.549156e+01	-4.104236e+00
1.558103e+01	-4.134679e+00
1.567103e+01	-4.165370e+00
1.576155e+01	-4.196395e+00
1.585258e+01	-4.227467e+00
1.594415e+01	-4.258858e+00
1.603624e+01	-4.290167e+00
1.612886e+01	-4.321563e+00
1.622202e+01	-4.352783e+00
1.631572e+01	-4.384710e+00
1.640996e+01	-4.416745e+00
1.650474e+01	-4.448577e+00
1.660008e+01	-4.480841e+00
1.669596e+01	-4.512963e+00
1.679239e+01	-4.545492e+00
1.688938e+01	-4.577905e+00
1.698694e+01	-4.610629e+00
1.708505e+01	-4.643349e+00
1.718373e+01	-4.676480e+00
1.728299e+01	-4.709116e+00
1.738281e+01	-4.742258e+00
1.748322e+01	-4.775779e+00
1.758420e+01	-4.809258e+00
1.768576e+01	-4.842551e+00
1.778792e+01	-4.876437e+00
1.789066e+01	-4.910407e+00
1.799399e+01	-4.944297e+00
1.809793e+01	-4.978095e+00
1.820246e+01	-5.012330e+00
1.830760e+01	-5.046844e+00
1.841334e+01	-5.081393e+00
1.851969e+01	-5.115609e+00
1.862666e+01	-5.150534e+00
1.873425e+01	-5.185450e+00
1.884246e+01	-5.220211e+00
1.895129e+01	-5.255382e+00
1.906075e+01	-5.290614e+00
1.917085e+01	-5.325685e+00
1.928158e+01	-5.361492e+00
1.939295e+01	-5.396733e+00
1.950496e+01	-5.432319e+00
1.961762e+01	-5.468098e+00
1.973093e+01	-5.504050e+00
1.984490e+01	-5.539690e+00
1.995952e+01	-5.575859e+00
2.007480e+01	-5.612235e+00
2.019076e+01	-5.648653e+00
2.030738e+01	-5.685273e+00
2.042467e+01	-5.721861e+00
2.054264e+01	-5.758441e+00
2.066130e+01	-5.795264e+00
2.078064e+01	-5.832400e+00
2.090066e+01	-5.868907e+00
2.102139e+01	-5.905967e+00
2.114280e+01	-5.943353e+00
2.126492e+01	-5.980515e+00
2.138775e+01	-6.018019e+00
2.151128e+01	-6.055959e+00
2.163553e+01	-6.093578e+00
2.176050e+01	-6.131181e+00
2.188619e+01	-6.169388e+00
2.201260e+01	-6.207418e+00
2.213974e+01	-6.245252e+00
2.226762e+01	-6.283727e+00
2.239624e+01	-6.321869e+00
2.252560e+01	-6.360141e+00
2.265571e+01	-6.398547e+00
2.278656e+01	-6.437160e+00
2.291818e+01	-6.475888e+00
2.305055e+01	-6.514751e+00
2.318369e+01	-6.553841e+00
2.331760e+01	-6.592566e+00
2.345228e+01	-6.631702e+00
2.358774e+01	-6.670808e+00
2.372398e+01	-6.710572e+00
2.386101e+01	-6.749773e+00
2.399883e+01	-6.789241e+00
2.413745e+01	-6.828839e+00
2.427686e+01	-6.868464e+00
2.441709e+01	-6.908431e+00
2.455812e+01	-6.948466e+00
2.469997e+01	-6.988186e+00
2.484263e+01	-7.028398e+00
2.498612e+01	-7.068680e+00
2.513044e+01	-7.108785e+00
2.527559e+01	-7.148947e+00
2.542158e+01	-7.189424e+00
2.556842e+01	-7.229856e+00
2.571610e+01	-7.270308e+00
2.586463e+01	-7.311193e+00
2.601403e+01	-7.351957e+00
2.616428e+01	-7.392842e+00
2.631541e+01	-7.433912e+00
2.646740e+01	-7.474505e+00
2.662028e+01	-7.516310e+00
2.677404e+01	-7.557327e+00
2.692868e+01	-7.598592e+00
2.708422e+01	-7.639648e+00
2.724066e+01	-7.681442e+00
2.739800e+01	-7.723416e+00
2.755625e+01	-7.763964e+00
2.771541e+01	-7.806345e+00
2.787550e+01	-7.848088e+00
2.803650e+01	-7.890033e+00
2.819844e+01	-7.931938e+00
2.836131e+01	-7.973632e+00
2.852513e+01	-8.015725e+00
2.868989e+01	-8.057916e+00
2.885560e+01	-8.099808e+00
2.902227e+01	-8.142565e+00
2.918990e+01	-8.185239e+00
2.935850e+01	-8.227179e+00
2.952807e+01	-8.270143e+00
2.969863e+01	-8.312523e+00
2.987016e+01	-8.355325e+00
3.004269e+01	-8.397902e+00
3.021622e+01	-8.440234e+00
3.039075e+01	-8.484007e+00
3.056628e+01	-8.526637e+00
3.074283e+01	-8.569413e+00
3.092040e+01	-8.612576e+00
3.109900e+01	-8.656501e+00
3.127862e+01	-8.699460e+00
3.145929e+01	-8.742195e+00
3.164099e+01	-8.785952e+00
3.182375e+01	-8.829256e+00
3.200756e+01	-8.872685e+00
3.219244e+01	-8.916571e+00
3.237838e+01	-8.960066e+00
3.256540e+01	-9.003686e+00
3.275349e+01	-9.047786e+00
3.294268e+01	-9.091228e+00
3.313295e+01	-9.135434e+00
3.332433e+01	-9.179390e+00
3.351681e+01	-9.223093e+00
3.371040e+01	-9.267331e+00
3.390511e+01	-9.311234e+00
3.410094e+01	-9.355639e+00
3.429791e+01	-9.400123e+00
3.449601e+01	-9.444097e+00
3.469526e+01	-9.488415e+00
3.489566e+01	-9.533250e+00
3.509721e+01	-9.577537e+00
3.529993e+01	-9.621959e+00
3.550382e+01	-9.666966e+00
3.570889e+01	-9.710638e+00
3.591515e+01	-9.756078e+00
3.612259e+01	-9.800395e+00
3.633123e+01	-9.845612e+00
3.654108e+01	-9.889966e+00
3.675214e+01	-9.935119e+00
3.696442e+01	-9.980425e+00
3.717792e+01	-1.002472e+01
3.739266e+01	-1.007040e+01
3.760864e+01	-1.011614e+01
3.782587e+01	-1.016149e+01
3.804435e+01	-1.020594e+01
3.826409e+01	-1.025139e+01
3.848510e+01	-1.029671e+01
3.870739e+01	-1.034174e+01
3.893096e+01	-1.038752e+01
3.915583e+01	-1.043279e+01
3.938199e+01	-1.047834e+01
3.960946e+01	-1.052396e+01
3.983824e+01	-1.056975e+01
4.006834e+01	-1.061492e+01
4.029978e+01	-1.066111e+01
4.053255e+01	-1.070679e+01
4.076666e+01	-1.075232e+01
4.100213e+01	-1.079832e+01
4.123896e+01	-1.084459e+01
4.147715e+01	-1.088978e+01
4.171672e+01	-1.093627e+01
4.195767e+01	-1.098289e+01
4.220002e+01	-1.102865e+01
4.244377e+01	-1.107441e+01
4.268892e+01	-1.112001e+01
4.293549e+01	-1.116687e+01
4.318348e+01	-1.121355e+01
4.343291e+01	-1.125894e+01
4.368377e+01	-1.130496e+01
4.393609e+01	-1.135193e+01
4.418986e+01	-1.139804e+01
4.444510e+01	-1.144527e+01
4.470182e+01	-1.149106e+01
4.496001e+01	-1.153743e+01
4.521970e+01	-1.158390e+01
4.548089e+01	-1.163049e+01
4.574358e+01	-1.167716e+01
4.600779e+01	-1.172352e+01
4.627353e+01	-1.177016e+01
4.654081e+01	-1.181745e+01
4.680963e+01	-1.186367e+01
4.708000e+01	-1.191166e+01
4.735193e+01	-1.195811e+01
4.762543e+01	-1.200402e+01
4.790051e+01	-1.205188e+01
4.817719e+01	-1.209808e+01
4.845545e+01	-1.214499e+01
4.873533e+01	-1.219222e+01
4.901682e+01	-1.223914e+01
4.929994e+01	-1.228597e+01
4.958470e+01	-1.233328e+01
4.987110e+01	-1.238038e+01
5.015915e+01	-1.242747e+01
5.044887e+01	-1.247446e+01
5.074026e+01	-1.252157e+01
5.103333e+01	-1.256952e+01
5.132810e+01	-1.261660e+01
5.162457e+01	-1.266393e+01
5.192275e+01	-1.271138e+01
5.222265e+01	-1.275868e+01
5.252429e+01	-1.280615e+01
5.282767e+01	-1.285378e+01
5.313280e+01	-1.290046e+01
5.343969e+01	-1.294841e+01
5.374836e+01	-1.299611e+01
5.405880e+01	-1.304330e+01
5.437105e+01	-1.309017e+01
5.468509e+01	-1.313842e+01
5.500095e+01	-1.318637e+01
5.531863e+01	-1.323426e+01
5.563815e+01	-1.328180e+01
5.595951e+01	-1.332990e+01
5.628273e+01	-1.337743e+01
5.660782e+01	-1.342441e+01
5.693479e+01	-1.347189e+01
5.726364e+01	-1.352019e+01
5.759439e+01	-1.356875e+01
5.792705e+01	-1.361610e+01
5.826164e+01	-1.366386e+01
5.859815e+01	-1.371118e+01
5.893662e+01	-1.375897e+01
5.927703e+01	-1.380745e+01
5.961941e+01	-1.385505e+01
5.996377e+01	-1.390324e+01
6.031012e+01	-1.395143e+01
6.065847e+01	-1.399876e+01
6.100883e+01	-1.404673e+01
6.136121e+01	-1.409518e+01
6.171563e+01	-1.414325e+01
6.207210e+01	-1.419219e+01
6.243063e+01	-1.423937e+01
6.279122e+01	-1.428847e+01
6.315390e+01	-1.433627e+01
6.351868e+01	-1.438434e+01
6.388556e+01	-1.443270e+01
6.425456e+01	-1.448023e+01
6.462569e+01	-1.452906e+01
6.499897e+01	-1.457723e+01
6.537440e+01	-1.462570e+01
6.575200e+01	-1.467359e+01
6.613178e+01	-1.472270e+01
6.651375e+01	-1.477002e+01
6.689793e+01	-1.481873e+01
6.728433e+01	-1.486784e+01
6.767297e+01	-1.491527e+01
6.806384e+01	-1.496540e+01
6.845698e+01	-1.501225e+01
6.885238e+01	-1.506190e+01
6.925007e+01	-1.510933e+01
6.965005e+01	-1.515691e+01
7.005235e+01	-1.520625e+01
7.045697e+01	-1.525637e+01
7.086393e+01	-1.530466e+01
7.127323e+01	-1.535151e+01
7.168490e+01	-1.540065e+01
7.209895e+01	-1.544945e+01
7.251539e+01	-1.549869e+01
7.293424e+01	-1.554654e+01
7.335551e+01	-1.559536e+01
7.377920e+01	-1.564355e+01
7.420535e+01	-1.569174e+01
7.463396e+01	-1.574028e+01
7.506504e+01	-1.579009e+01
7.549861e+01	-1.583857e+01
7.593469e+01	-1.588821e+01
7.637328e+01	-1.593627e+01
7.681441e+01	-1.598534e+01
7.725809e+01	-1.603399e+01
7.770433e+01	-1.608267e+01
7.815315e+01	-1.613129e+01
7.860456e+01	-1.618068e+01
7.905857e+01	-1.622970e+01
7.951521e+01	-1.627790e+01
7.997449e+01	-1.632628e+01
8.043642e+01	-1.637435e+01
8.090102e+01	-1.642450e+01
8.136830e+01	-1.647314e+01
8.183828e+01	-1.652245e+01
8.231097e+01	-1.657128e+01
8.278640e+01	-1.662076e+01
8.326457e+01	-1.666970e+01
8.374550e+01	-1.671759e+01
8.422921e+01	-1.676619e+01
8.471572e+01	-1.681688e+01
8.520503e+01	-1.686470e+01
8.569717e+01	-1.691353e+01
8.619215e+01	-1.696239e+01
8.669000e+01	-1.701258e+01
8.719071e+01	-1.706048e+01
8.769432e+01	-1.711114e+01
8.820084e+01	-1.715950e+01
8.871029e+01	-1.720719e+01
8.922267e+01	-1.725775e+01
8.973802e+01	-1.730599e+01
9.025634e+01	-1.735628e+01
9.077766e+01	-1.740432e+01
9.130199e+01	-1.745327e+01
9.182935e+01	-1.750245e+01
9.235975e+01	-1.755262e+01
9.289321e+01	-1.760162e+01
9.342976e+01	-1.764977e+01
9.396941e+01	-1.769904e+01
9.451217e+01	-1.774843e+01
9.505807e+01	-1.779808e+01
9.560712e+01	-1.784698e+01
9.615934e+01	-1.789621e+01
9.671476e+01	-1.794579e+01
9.727338e+01	-1.799505e+01
9.783522e+01	-1.804338e+01
9.840032e+01	-1.809362e+01
9.896867e+01	-1.814284e+01
9.954031e+01	-1.819198e+01
1.001153e+02	-1.824090e+01
1.006935e+02	-1.829126e+01
1.012751e+02	-1.833918e+01
1.018601e+02	-1.838994e+01
1.024484e+02	-1.843850e+01
1.030402e+02	-1.848777e+01
1.036353e+02	-1.853744e+01
1.042339e+02	-1.858453e+01
1.048360e+02	-1.863605e+01
1.054415e+02	-1.868562e+01
1.060505e+02	-1.873440e+01
1.066631e+02	-1.878399e+01
1.072791e+02	-1.883328e+01
1.078988e+02	-1.888299e+01
1.085220e+02	-1.893159e+01
1.091488e+02	-1.898183e+01
1.097793e+02	-1.903149e+01
1.104133e+02	-1.908088e+01
1.110511e+02	-1.913035e+01
1.116925e+02	-1.917863e+01
1.123376e+02	-1.922681e+01
1.129865e+02	-1.927705e+01
1.136391e+02	-1.932832e+01
1.142955e+02	-1.937586e+01
1.149556e+02	-1.942654e+01
1.156196e+02	-1.947588e+01
1.162874e+02	-1.952601e+01
1.169591e+02	-1.957442e+01
1.176347e+02	-1.962543e+01
1.183141e+02	-1.967304e+01
1.189975e+02	-1.972367e+01
1.196848e+02	-1.977454e+01
1.203761e+02	-1.982239e+01
1.210714e+02	-1.987072e+01
1.217707e+02	-1.992036e+01
1.224740e+02	-1.997042e+01
1.231814e+02	-2.002205e+01
1.238929e+02	-2.006980e+01
1.246085e+02	-2.012039e+01
1.253283e+02	-2.016783e+01
1.260522e+02	-2.021817e+01
1.267802e+02	-2.027014e+01
1.275125e+02	-2.031799e+01
1.282490e+02	-2.036790e+01
1.289898e+02	-2.041682e+01
1.297348e+02	-2.046697e+01
1.304842e+02	-2.051632e+01
1.312378e+02	-2.056553e+01
1.319959e+02	-2.061561e+01
1.327583e+02	-2.066581e+01
1.335251e+02	-2.071503e+01
1.342963e+02	-2.076478e+01
1.350720e+02	-2.081363e+01
1.358522e+02	-2.086434e+01
1.366368e+02	-2.091289e+01
1.374260e+02	-2.096366e+01
1.382198e+02	-2.101178e+01
1.390182e+02	-2.106253e+01
1.398211e+02	-2.111214e+01
1.406287e+02	-2.116100e+01
1.414410e+02	-2.121166e+01
1.422579e+02	-2.125929e+01
1.430796e+02	-2.130927e+01
1.439060e+02	-2.136000e+01
1.447372e+02	-2.141014e+01
1.455732e+02	-2.145905e+01
1.464141e+02	-2.150862e+01
1.472597e+02	-2.155823e+01
1.481103e+02	-2.160678e+01
1.489658e+02	-2.165971e+01
1.498262e+02	-2.170649e+01
1.506916e+02	-2.175735e+01
1.515620e+02	-2.180780e+01
1.524374e+02	-2.185775e+01
1.533179e+02	-2.190648e+01
1.542034e+02	-2.195686e+01
1.550941e+02	-2.200738e+01
1.559899e+02	-2.205489e+01
1.568909e+02	-2.210632e+01
1.577971e+02	-2.215572e+01
1.587085e+02	-2.220357e+01
1.596252e+02	-2.225451e+01
1.605472e+02	-2.230648e+01
1.614745e+02	-2.235422e+01
1.624072e+02	-2.240407e+01
1.633453e+02	-2.245288e+01
1.642887e+02	-2.250185e+01
1.652377e+02	-2.255554e+01
1.661921e+02	-2.260425e+01
1.671520e+02	-2.265320e+01
1.681175e+02	-2.270451e+01
1.690885e+02	-2.275322e+01
1.700651e+02	-2.280106e+01
1.710474e+02	-2.285304e+01
1.720354e+02	-2.290007e+01
1.730291e+02	-2.295052e+01
1.740285e+02	-2.300076e+01
1.750337e+02	-2.305100e+01
1.760446e+02	-2.310005e+01
1.770615e+02	-2.315056e+01
1.780842e+02	-2.320179e+01
1.791128e+02	-2.324987e+01
1.801473e+02	-2.330058e+01
1.811878e+02	-2.335122e+01
1.822344e+02	-2.340064e+01
1.832870e+02	-2.344753e+01
1.843456e+02	-2.350044e+01
1.854104e+02	-2.354964e+01
1.864813e+02	-2.359837e+01
1.875584e+02	-2.364926e+01
1.886418e+02	-2.369934e+01
1.897313e+02	-2.374925e+01
1.908272e+02	-2.379856e+01
1.919294e+02	-2.384630e+01
1.930380e+02	-2.389754e+01
1.941530e+02	-2.394673e+01
1.952744e+02	-2.399640e+01
1.964023e+02	-2.404737e+01
1.975367e+02	-2.409848e+01
1.986777e+02	-2.414662e+01
1.998252e+02	-2.419612e+01
2.009794e+02	-2.424748e+01
2.021403e+02	-2.429983e+01
2.033078e+02	-2.434519e+01
2.044821e+02	-2.439743e+01
2.056632e+02	-2.444874e+01
2.068511e+02	-2.449692e+01
2.080459e+02	-2.454376e+01
2.092475e+02	-2.459510e+01
2.104561e+02	-2.464489e+01
2.116717e+02	-2.469582e+01
2.128943e+02	-2.474777e+01
2.141240e+02	-2.479493e+01
2.153608e+02	-2.484489e+01
2.166047e+02	-2.489471e+01
2.178558e+02	-2.494606e+01
2.191141e+02	-2.500001e+01
2.203797e+02	-2.504725e+01
2.216526e+02	-2.509512e+01
2.229329e+02	-2.514400e+01
2.242205e+02	-2.519840e+01
2.255156e+02	-2.524543e+01
2.268182e+02	-2.529454e+01
2.281283e+02	-2.534659e+01
2.294459e+02	-2.539451e+01
2.307712e+02	-2.544461e+01
2.321041e+02	-2.549519e+01
2.334447e+02	-2.554468e+01
2.347931e+02	-2.559455e+01
2.361493e+02	-2.564563e+01
2.375133e+02	-2.569483e+01
2.388851e+02	-2.574415e+01
2.402649e+02	-2.579458e+01
2.416527e+02	-2.584610e+01
2.430484e+02	-2.589404e+01
2.444523e+02	-2.594245e+01
2.458642e+02	-2.599289e+01
2.472843e+02	-2.604371e+01
2.487126e+02	-2.609490e+01
2.501492e+02	-2.614316e+01
2.515940e+02	-2.619434e+01
2.530472e+02	-2.624680e+01
2.545088e+02	-2.629376e+01
2.559789e+02	-2.634251e+01
2.574574e+02	-2.639016e+01
2.589444e+02	-2.644399e+01
2.604401e+02	-2.649335e+01
2.619444e+02	-2.654322e+01
2.634574e+02	-2.659074e+01
2.649791e+02	-2.664377e+01
2.665096e+02	-2.669362e+01
2.680489e+02	-2.674653e+01
2.695972e+02	-2.679231e+01
2.711544e+02	-2.684495e+01
2.727205e+02	-2.689451e+01
2.742958e+02	-2.694383e+01
2.758801e+02	-2.699658e+01
2.774736e+02	-2.704187e+01
2.790762e+02	-2.709406e+01
2.806882e+02	-2.714866e+01
2.823094e+02	-2.718904e+01
2.839400e+02	-2.724097e+01
2.855800e+02	-2.729814e+01
2.872295e+02	-2.734560e+01
2.888886e+02	-2.739499e+01
2.905572e+02	-2.744478e+01
2.922354e+02	-2.749345e+01
2.939234e+02	-2.754636e+01
2.956211e+02	-2.759783e+01
2.973286e+02	-2.764568e+01
2.990459e+02	-2.769429e+01
3.007732e+02	-2.774465e+01
3.025104e+02	-2.779158e+01
3.042577e+02	-2.784026e+01
3.060151e+02	-2.789678e+01
3.077826e+02	-2.794311e+01
3.095604e+02	-2.799355e+01
3.113484e+02	-2.804566e+01
3.131467e+02	-2.809581e+01
3.149554e+02	-2.814337e+01
3.167746e+02	-2.819534e+01
3.186043e+02	-2.824791e+01
3.204445e+02	-2.828903e+01
3.222954e+02	-2.834913e+01
3.241570e+02	-2.839497e+01
3.260293e+02	-2.844377e+01
3.279124e+02	-2.849801e+01
3.298064e+02	-2.854364e+01
3.317114e+02	-2.859220e+01
3.336273e+02	-2.864293e+01
3.355544e+02	-2.869279e+01
3.374925e+02	-2.874542e+01
3.394418e+02	-2.879564e+01
3.414024e+02	-2.884157e+01
3.433744e+02	-2.889598e+01
3.453577e+02	-2.894578e+01
3.473525e+02	-2.899734e+01
3.493588e+02	-2.904519e+01
3.513766e+02	-2.909798e+01
3.534062e+02	-2.914162e+01
3.554474e+02	-2.919339e+01
3.575005e+02	-2.924542e+01
3.595654e+02	-2.929418e+01
3.616422e+02	-2.933915e+01
3.637311e+02	-2.939701e+01
3.658320e+02	-2.944194e+01
3.679450e+02	-2.949678e+01
3.700702e+02	-2.954332e+01
3.722077e+02	-2.959731e+01
3.743576e+02	-2.964572e+01
3.765199e+02	-2.969657e+01
3.786946e+02	-2.974940e+01
3.808820e+02	-2.979369e+01
3.830819e+02	-2.985115e+01
3.852946e+02	-2.990054e+01
3.875200e+02	-2.994571e+01
3.897583e+02	-2.999761e+01
3.920096e+02	-3.004931e+01
3.942738e+02	-3.009492e+01
3.965511e+02	-3.015453e+01
3.988416e+02	-3.019586e+01
4.011452e+02	-3.024227e+01
4.034622e+02	-3.029120e+01
4.057926e+02	-3.034876e+01
4.081365e+02	-3.039274e+01
4.104938e+02	-3.045093e+01
4.128648e+02	-3.050060e+01
4.152495e+02	-3.054792e+01
4.176480e+02	-3.060122e+01
4.200603e+02	-3.065257e+01
4.224866e+02	-3.069112e+01
4.249268e+02	-3.074649e+01
4.273812e+02	-3.080031e+01
4.298497e+02	-3.085423e+01
4.323325e+02	-3.090243e+01
4.348297e+02	-3.094700e+01
4.373412e+02	-3.099765e+01
4.398673e+02	-3.105076e+01
4.424079e+02	-3.110140e+01
4.449633e+02	-3.114992e+01
4.475334e+02	-3.119850e+01
4.501183e+02	-3.125338e+01
4.527182e+02	-3.129808e+01
4.553330e+02	-3.134960e+01
4.579630e+02	-3.140111e+01
4.606082e+02	-3.145334e+01
4.632687e+02	-3.150264e+01
4.659445e+02	-3.154581e+01
4.686358e+02	-3.160271e+01
4.713426e+02	-3.165438e+01
4.740650e+02	-3.169981e+01
4.768032e+02	-3.175211e+01
4.795572e+02	-3.180068e+01
4.823271e+02	-3.185723e+01
4.851130e+02	-3.190083e+01
4.879150e+02	-3.195547e+01
4.907332e+02	-3.200023e+01
4.935676e+02	-3.205847e+01
4.964185e+02	-3.210530e+01
4.992858e+02	-3.215654e+01
5.021696e+02	-3.220573e+01
5.050701e+02	-3.225367e+01
5.079874e+02	-3.230891e+01
5.109215e+02	-3.235444e+01
5.138726e+02	-3.241146e+01
5.168407e+02	-3.245836e+01
5.198259e+02	-3.250556e+01
5.228284e+02	-3.255401e+01
5.258482e+02	-3.259941e+01
5.288855e+02	-3.266572e+01
5.319403e+02	-3.270529e+01
5.350128e+02	-3.276610e+01
5.381030e+02	-3.280551e+01
5.412111e+02	-3.285950e+01
5.443371e+02	-3.290750e+01
5.474812e+02	-3.295330e+01
5.506434e+02	-3.300654e+01
5.538239e+02	-3.306238e+01
5.570228e+02	-3.312124e+01
5.602401e+02	-3.315706e+01
5.634760e+02	-3.321066e+01
5.667306e+02	-3.325715e+01
5.700040e+02	-3.330708e+01
5.732964e+02	-3.335992e+01
5.766077e+02	-3.341620e+01
5.799382e+02	-3.345983e+01
5.832879e+02	-3.351203e+01
5.866569e+02	-3.356084e+01
5.900454e+02	-3.360899e+01
5.934535e+02	-3.366942e+01
5.968813e+02	-3.370706e+01
6.003288e+02	-3.376592e+01
6.037963e+02	-3.381397e+01
6.072838e+02	-3.386087e+01
6.107914e+02	-3.391743e+01
6.143194e+02	-3.396646e+01
6.178676e+02	-3.401460e+01
6.214364e+02	-3.406794e+01
6.250258e+02	-3.411313e+01
6.286359e+02	-3.416433e+01
6.322669e+02	-3.421231e+01
6.359189e+02	-3.426804e+01
6.395919e+02	-3.430870e+01
6.432862e+02	-3.436330e+01
6.470017e+02	-3.441211e+01
6.507388e+02	-3.445851e+01
6.544974e+02	-3.451039e+01
6.582778e+02	-3.456144e+01
6.620800e+02	-3.463259e+01
6.659041e+02	-3.466784e+01
6.697504e+02	-3.471227e+01
6.736188e+02	-3.476598e+01
6.775096e+02	-3.481858e+01
6.814229e+02	-3.487746e+01
6.853587e+02	-3.491917e+01
6.893173e+02	-3.496975e+01
6.932988e+02	-3.501896e+01
6.973033e+02	-3.506756e+01
7.013309e+02	-3.512255e+01
