Frequency(Hz)	Magnitude(dB)
1.000000e+01	-1.569439e-05
1.005776e+01	-1.587621e-05
1.011585e+01	-1.606014e-05
1.017428e+01	-1.624620e-05
1.023305e+01	-1.643442e-05
1.029215e+01	-1.662482e-05
1.035160e+01	-1.681742e-05
1.041139e+01	-1.701226e-05
1.047153e+01	-1.720935e-05
1.053201e+01	-1.740872e-05
1.059284e+01	-1.761041e-05
1.065403e+01	-1.781443e-05
1.071556e+01	-1.802081e-05
1.077746e+01	-1.822959e-05
1.083971e+01	-1.844078e-05
1.090232e+01	-1.865442e-05
1.096529e+01	-1.887054e-05
1.102862e+01	-1.908916e-05
1.109232e+01	-1.931031e-05
1.115639e+01	-1.953403e-05
1.122083e+01	-1.976033e-05
1.128564e+01	-1.998926e-05
1.135083e+01	-2.022084e-05
1.141639e+01	-2.045511e-05
1.148233e+01	-2.069208e-05
1.154865e+01	-2.093181e-05
1.161536e+01	-2.117431e-05
1.168245e+01	-2.141962e-05
1.174992e+01	-2.166777e-05
1.181779e+01	-2.191879e-05
1.188605e+01	-2.217273e-05
1.195470e+01	-2.242961e-05
1.202375e+01	-2.268946e-05
1.209320e+01	-2.295232e-05
1.216305e+01	-2.321823e-05
1.223330e+01	-2.348722e-05
1.230396e+01	-2.375932e-05
1.237503e+01	-2.403458e-05
1.244651e+01	-2.431303e-05
1.251840e+01	-2.459470e-05
1.259070e+01	-2.487964e-05
1.266343e+01	-2.516787e-05
1.273657e+01	-2.545945e-05
1.281014e+01	-2.575440e-05
1.288413e+01	-2.605277e-05
1.295855e+01	-2.635460e-05
1.303339e+01	-2.665993e-05
1.310867e+01	-2.696879e-05
1.318439e+01	-2.728123e-05
1.326054e+01	-2.759729e-05
1.333713e+01	-2.791701e-05
1.341417e+01	-2.824043e-05
1.349165e+01	-2.856761e-05
1.356958e+01	-2.889857e-05
1.364795e+01	-2.923337e-05
1.372678e+01	-2.957204e-05
1.380607e+01	-2.991464e-05
1.388581e+01	-3.026121e-05
1.396602e+01	-3.061179e-05
1.404668e+01	-3.096644e-05
1.412782e+01	-3.132519e-05
1.420942e+01	-3.168810e-05
1.429149e+01	-3.205522e-05
1.437404e+01	-3.242658e-05
1.445706e+01	-3.280225e-05
1.454057e+01	-3.318227e-05
1.462455e+01	-3.356670e-05
1.470902e+01	-3.395558e-05
1.479398e+01	-3.434896e-05
1.487943e+01	-3.474690e-05
1.496537e+01	-3.514945e-05
1.505181e+01	-3.555667e-05
1.513875e+01	-3.596860e-05
1.522619e+01	-3.638530e-05
1.531414e+01	-3.680684e-05
1.540259e+01	-3.723325e-05
1.549156e+01	-3.766461e-05
1.558103e+01	-3.810096e-05
1.567103e+01	-3.854237e-05
1.576155e+01	-3.898889e-05
1.585258e+01	-3.944059e-05
1.594415e+01	-3.989751e-05
1.603624e+01	-4.035974e-05
1.612886e+01	-4.082731e-05
1.622202e+01	-4.130031e-05
1.631572e+01	-4.177878e-05
1.640996e+01	-4.226280e-05
1.650474e+01	-4.275242e-05
1.660008e+01	-4.324772e-05
1.669596e+01	-4.374875e-05
1.679239e+01	-4.425559e-05
1.688938e+01	-4.476830e-05
1.698694e+01	-4.528695e-05
1.708505e+01	-4.581161e-05
1.718373e+01	-4.634235e-05
1.728299e+01	-4.687923e-05
1.738281e+01	-4.742234e-05
1.748322e+01	-4.797174e-05
1.758420e+01	-4.852750e-05
1.768576e+01	-4.908970e-05
1.778792e+01	-4.965842e-05
1.789066e+01	-5.023372e-05
1.799399e+01	-5.081569e-05
1.809793e+01	-5.140440e-05
1.820246e+01	-5.199993e-05
1.830760e+01	-5.260236e-05
1.841334e+01	-5.321177e-05
1.851969e+01	-5.382824e-05
1.862666e+01	-5.445185e-05
1.873425e+01	-5.508269e-05
1.884246e+01	-5.572083e-05
1.895129e+01	-5.636637e-05
1.906075e+01	-5.701938e-05
1.917085e+01	-5.767996e-05
1.928158e+01	-5.834820e-05
1.939295e+01	-5.902417e-05
1.950496e+01	-5.970798e-05
1.961762e+01	-6.039971e-05
1.973093e+01	-6.109945e-05
1.984490e+01	-6.180730e-05
1.995952e+01	-6.252335e-05
2.007480e+01	-6.324770e-05
2.019076e+01	-6.398043e-05
2.030738e+01	-6.472166e-05
2.042467e+01	-6.547147e-05
2.054264e+01	-6.622997e-05
2.066130e+01	-6.699726e-05
2.078064e+01	-6.777343e-05
2.090066e+01	-6.855860e-05
2.102139e+01	-6.935287e-05
2.114280e+01	-7.015633e-05
2.126492e+01	-7.096911e-05
2.138775e+01	-7.179130e-05
2.151128e+01	-7.262301e-05
2.163553e+01	-7.346436e-05
2.176050e+01	-7.431546e-05
2.188619e+01	-7.517642e-05
2.201260e+01	-7.604735e-05
2.213974e+01	-7.692837e-05
2.226762e+01	-7.781960e-05
2.239624e+01	-7.872115e-05
2.252560e+01	-7.963315e-05
2.265571e+01	-8.055572e-05
2.278656e+01	-8.148897e-05
2.291818e+01	-8.243303e-05
2.305055e+01	-8.338803e-05
2.318369e+01	-8.435410e-05
2.331760e+01	-8.533135e-05
2.345228e+01	-8.631993e-05
2.358774e+01	-8.731996e-05
2.372398e+01	-8.833158e-05
2.386101e+01	-8.935491e-05
2.399883e+01	-9.039010e-05
2.413745e+01	-9.143729e-05
2.427686e+01	-9.249660e-05
2.441709e+01	-9.356819e-05
2.455812e+01	-9.465219e-05
2.469997e+01	-9.574875e-05
2.484263e+01	-9.685801e-05
2.498612e+01	-9.798013e-05
2.513044e+01	-9.911524e-05
2.527559e+01	-1.002635e-04
2.542158e+01	-1.014251e-04
2.556842e+01	-1.026001e-04
2.571610e+01	-1.037887e-04
2.586463e+01	-1.049911e-04
2.601403e+01	-1.062075e-04
2.616428e+01	-1.074379e-04
2.631541e+01	-1.086826e-04
2.646740e+01	-1.099417e-04
2.662028e+01	-1.112154e-04
2.677404e+01	-1.125038e-04
2.692868e+01	-1.138072e-04
2.708422e+01	-1.151257e-04
2.724066e+01	-1.164594e-04
2.739800e+01	-1.178086e-04
2.755625e+01	-1.191734e-04
2.771541e+01	-1.205541e-04
2.787550e+01	-1.219507e-04
2.803650e+01	-1.233635e-04
2.819844e+01	-1.247927e-04
2.836131e+01	-1.262384e-04
2.852513e+01	-1.277009e-04
2.868989e+01	-1.291804e-04
2.885560e+01	-1.306769e-04
2.902227e+01	-1.321908e-04
2.918990e+01	-1.337223e-04
2.935850e+01	-1.352715e-04
2.952807e+01	-1.368386e-04
2.969863e+01	-1.384239e-04
2.987016e+01	-1.400275e-04
3.004269e+01	-1.416498e-04
3.021622e+01	-1.432908e-04
3.039075e+01	-1.449508e-04
3.056628e+01	-1.466301e-04
3.074283e+01	-1.483288e-04
3.092040e+01	-1.500472e-04
3.109900e+01	-1.517855e-04
3.127862e+01	-1.535440e-04
3.145929e+01	-1.553228e-04
3.164099e+01	-1.571222e-04
3.182375e+01	-1.589425e-04
3.200756e+01	-1.607838e-04
3.219244e+01	-1.626465e-04
3.237838e+01	-1.645308e-04
3.256540e+01	-1.664369e-04
3.275349e+01	-1.683651e-04
3.294268e+01	-1.703156e-04
3.313295e+01	-1.722887e-04
3.332433e+01	-1.742847e-04
3.351681e+01	-1.763038e-04
3.371040e+01	-1.783463e-04
3.390511e+01	-1.804124e-04
3.410094e+01	-1.825025e-04
3.429791e+01	-1.846168e-04
3.449601e+01	-1.867556e-04
3.469526e+01	-1.889192e-04
3.489566e+01	-1.911078e-04
3.509721e+01	-1.933218e-04
3.529993e+01	-1.955614e-04
3.550382e+01	-1.978270e-04
3.570889e+01	-2.001188e-04
3.591515e+01	-2.024372e-04
3.612259e+01	-2.047824e-04
3.633123e+01	-2.071548e-04
3.654108e+01	-2.095547e-04
3.675214e+01	-2.119824e-04
3.696442e+01	-2.144382e-04
3.717792e+01	-2.169225e-04
3.739266e+01	-2.194355e-04
3.760864e+01	-2.219777e-04
3.782587e+01	-2.245493e-04
3.804435e+01	-2.271507e-04
3.826409e+01	-2.297822e-04
3.848510e+01	-2.324443e-04
3.870739e+01	-2.351371e-04
3.893096e+01	-2.378612e-04
3.915583e+01	-2.406168e-04
3.938199e+01	-2.434043e-04
3.960946e+01	-2.462242e-04
3.983824e+01	-2.490766e-04
4.006834e+01	-2.519622e-04
4.029978e+01	-2.548812e-04
4.053255e+01	-2.578339e-04
4.076666e+01	-2.608209e-04
4.100213e+01	-2.638425e-04
4.123896e+01	-2.668991e-04
4.147715e+01	-2.699911e-04
4.171672e+01	-2.731189e-04
4.195767e+01	-2.762830e-04
4.220002e+01	-2.794837e-04
4.244377e+01	-2.827215e-04
4.268892e+01	-2.859968e-04
4.293549e+01	-2.893100e-04
4.318348e+01	-2.926617e-04
4.343291e+01	-2.960521e-04
4.368377e+01	-2.994818e-04
4.393609e+01	-3.029513e-04
4.418986e+01	-3.064610e-04
4.444510e+01	-3.100113e-04
4.470182e+01	-3.136027e-04
4.496001e+01	-3.172357e-04
4.521970e+01	-3.209109e-04
4.548089e+01	-3.246286e-04
4.574358e+01	-3.283893e-04
4.600779e+01	-3.321937e-04
4.627353e+01	-3.360421e-04
4.654081e+01	-3.399351e-04
4.680963e+01	-3.438732e-04
4.708000e+01	-3.478569e-04
4.735193e+01	-3.518867e-04
4.762543e+01	-3.559633e-04
4.790051e+01	-3.600870e-04
4.817719e+01	-3.642586e-04
4.845545e+01	-3.684784e-04
4.873533e+01	-3.727472e-04
4.901682e+01	-3.770653e-04
4.929994e+01	-3.814336e-04
4.958470e+01	-3.858524e-04
4.987110e+01	-3.903224e-04
5.015915e+01	-3.948442e-04
5.044887e+01	-3.994183e-04
5.074026e+01	-4.040455e-04
5.103333e+01	-4.087263e-04
5.132810e+01	-4.134612e-04
5.162457e+01	-4.182511e-04
5.192275e+01	-4.230964e-04
5.222265e+01	-4.279978e-04
5.252429e+01	-4.329561e-04
5.282767e+01	-4.379717e-04
5.313280e+01	-4.430455e-04
5.343969e+01	-4.481780e-04
5.374836e+01	-4.533700e-04
5.405880e+01	-4.586222e-04
5.437105e+01	-4.639351e-04
5.468509e+01	-4.693097e-04
5.500095e+01	-4.747465e-04
5.531863e+01	-4.802462e-04
5.563815e+01	-4.858097e-04
5.595951e+01	-4.914376e-04
5.628273e+01	-4.971307e-04
5.660782e+01	-5.028898e-04
5.693479e+01	-5.087156e-04
5.726364e+01	-5.146088e-04
5.759439e+01	-5.205704e-04
5.792705e+01	-5.266009e-04
5.826164e+01	-5.327014e-04
5.859815e+01	-5.388725e-04
5.893662e+01	-5.451151e-04
5.927703e+01	-5.514300e-04
5.961941e+01	-5.578181e-04
5.996377e+01	-5.642801e-04
6.031012e+01	-5.708170e-04
6.065847e+01	-5.774297e-04
6.100883e+01	-5.841189e-04
6.136121e+01	-5.908856e-04
6.171563e+01	-5.977307e-04
6.207210e+01	-6.046551e-04
6.243063e+01	-6.116597e-04
6.279122e+01	-6.187454e-04
6.315390e+01	-6.259133e-04
6.351868e+01	-6.331641e-04
6.388556e+01	-6.404990e-04
6.425456e+01	-6.479188e-04
6.462569e+01	-6.554245e-04
6.499897e+01	-6.630172e-04
6.537440e+01	-6.706978e-04
6.575200e+01	-6.784675e-04
6.613178e+01	-6.863271e-04
6.651375e+01	-6.942777e-04
6.689793e+01	-7.023205e-04
6.728433e+01	-7.104564e-04
6.767297e+01	-7.186865e-04
6.806384e+01	-7.270120e-04
6.845698e+01	-7.354339e-04
6.885238e+01	-7.439534e-04
6.925007e+01	-7.525716e-04
6.965005e+01	-7.612895e-04
7.005235e+01	-7.701085e-04
7.045697e+01	-7.790296e-04
7.086393e+01	-7.880541e-04
7.127323e+01	-7.971831e-04
7.168490e+01	-8.064178e-04
7.209895e+01	-8.157595e-04
7.251539e+01	-8.252094e-04
7.293424e+01	-8.347687e-04
7.335551e+01	-8.444388e-04
7.377920e+01	-8.542209e-04
7.420535e+01	-8.641163e-04
7.463396e+01	-8.741263e-04
7.506504e+01	-8.842523e-04
7.549861e+01	-8.944956e-04
7.593469e+01	-9.048574e-04
7.637328e+01	-9.153394e-04
7.681441e+01	-9.259427e-04
7.725809e+01	-9.366688e-04
7.770433e+01	-9.475192e-04
7.815315e+01	-9.584953e-04
7.860456e+01	-9.695985e-04
7.905857e+01	-9.808303e-04
7.951521e+01	-9.921921e-04
7.997449e+01	-1.003686e-03
8.043642e+01	-1.015312e-03
8.090102e+01	-1.027074e-03
8.136830e+01	-1.038971e-03
8.183828e+01	-1.051006e-03
8.231097e+01	-1.063181e-03
8.278640e+01	-1.075497e-03
8.326457e+01	-1.087955e-03
8.374550e+01	-1.100558e-03
8.422921e+01	-1.113306e-03
8.471572e+01	-1.126203e-03
8.520503e+01	-1.139248e-03
8.569717e+01	-1.152445e-03
8.619215e+01	-1.165795e-03
8.669000e+01	-1.179299e-03
8.719071e+01	-1.192960e-03
8.769432e+01	-1.206778e-03
8.820084e+01	-1.220757e-03
8.871029e+01	-1.234898e-03
8.922267e+01	-1.249203e-03
8.973802e+01	-1.263673e-03
9.025634e+01	-1.278311e-03
9.077766e+01	-1.293118e-03
9.130199e+01	-1.308097e-03
9.182935e+01	-1.323249e-03
9.235975e+01	-1.338577e-03
9.289321e+01	-1.354082e-03
9.342976e+01	-1.369767e-03
9.396941e+01	-1.385634e-03
9.451217e+01	-1.401684e-03
9.505807e+01	-1.417921e-03
9.560712e+01	-1.434345e-03
9.615934e+01	-1.450959e-03
9.671476e+01	-1.467766e-03
9.727338e+01	-1.484768e-03
9.783522e+01	-1.501966e-03
9.840032e+01	-1.519364e-03
9.896867e+01	-1.536963e-03
9.954031e+01	-1.554766e-03
1.001153e+02	-1.572775e-03
1.006935e+02	-1.590993e-03
1.012751e+02	-1.609421e-03
1.018601e+02	-1.628064e-03
1.024484e+02	-1.646922e-03
1.030402e+02	-1.665998e-03
1.036353e+02	-1.685295e-03
1.042339e+02	-1.704816e-03
1.048360e+02	-1.724563e-03
1.054415e+02	-1.744538e-03
1.060505e+02	-1.764745e-03
1.066631e+02	-1.785186e-03
1.072791e+02	-1.805863e-03
1.078988e+02	-1.826781e-03
1.085220e+02	-1.847940e-03
1.091488e+02	-1.869344e-03
1.097793e+02	-1.890996e-03
1.104133e+02	-1.912899e-03
1.110511e+02	-1.935056e-03
1.116925e+02	-1.957469e-03
1.123376e+02	-1.980141e-03
1.129865e+02	-2.003076e-03
1.136391e+02	-2.026277e-03
1.142955e+02	-2.049747e-03
1.149556e+02	-2.073488e-03
1.156196e+02	-2.097504e-03
1.162874e+02	-2.121798e-03
1.169591e+02	-2.146374e-03
1.176347e+02	-2.171234e-03
1.183141e+02	-2.196382e-03
1.189975e+02	-2.221821e-03
1.196848e+02	-2.247554e-03
1.203761e+02	-2.273586e-03
1.210714e+02	-2.299919e-03
1.217707e+02	-2.326557e-03
1.224740e+02	-2.353504e-03
1.231814e+02	-2.380762e-03
1.238929e+02	-2.408336e-03
1.246085e+02	-2.436230e-03
1.253283e+02	-2.464446e-03
1.260522e+02	-2.492989e-03
1.267802e+02	-2.521863e-03
1.275125e+02	-2.551071e-03
1.282490e+02	-2.580617e-03
1.289898e+02	-2.610505e-03
1.297348e+02	-2.640739e-03
1.304842e+02	-2.671323e-03
1.312378e+02	-2.702261e-03
1.319959e+02	-2.733558e-03
1.327583e+02	-2.765217e-03
1.335251e+02	-2.797242e-03
1.342963e+02	-2.829639e-03
1.350720e+02	-2.862410e-03
1.358522e+02	-2.895561e-03
1.366368e+02	-2.929095e-03
1.374260e+02	-2.963018e-03
1.382198e+02	-2.997333e-03
1.390182e+02	-3.032046e-03
1.398211e+02	-3.067161e-03
1.406287e+02	-3.102682e-03
1.414410e+02	-3.138614e-03
1.422579e+02	-3.174963e-03
1.430796e+02	-3.211732e-03
1.439060e+02	-3.248927e-03
1.447372e+02	-3.286552e-03
1.455732e+02	-3.324613e-03
1.464141e+02	-3.363114e-03
1.472597e+02	-3.402062e-03
1.481103e+02	-3.441460e-03
1.489658e+02	-3.481314e-03
1.498262e+02	-3.521630e-03
1.506916e+02	-3.562412e-03
1.515620e+02	-3.603666e-03
1.524374e+02	-3.645398e-03
1.533179e+02	-3.687613e-03
1.542034e+02	-3.730317e-03
1.550941e+02	-3.773514e-03
1.559899e+02	-3.817212e-03
1.568909e+02	-3.861416e-03
1.577971e+02	-3.906131e-03
1.587085e+02	-3.951364e-03
1.596252e+02	-3.997121e-03
1.605472e+02	-4.043407e-03
1.614745e+02	-4.090229e-03
1.624072e+02	-4.137592e-03
1.633453e+02	-4.185504e-03
1.642887e+02	-4.233971e-03
1.652377e+02	-4.282998e-03
1.661921e+02	-4.332593e-03
1.671520e+02	-4.382762e-03
1.681175e+02	-4.433511e-03
1.690885e+02	-4.484848e-03
1.700651e+02	-4.536779e-03
1.710474e+02	-4.589311e-03
1.720354e+02	-4.642451e-03
1.730291e+02	-4.696206e-03
1.740285e+02	-4.750583e-03
1.750337e+02	-4.805589e-03
1.760446e+02	-4.861232e-03
1.770615e+02	-4.917518e-03
1.780842e+02	-4.974456e-03
1.791128e+02	-5.032053e-03
1.801473e+02	-5.090317e-03
1.811878e+02	-5.149254e-03
1.822344e+02	-5.208874e-03
1.832870e+02	-5.269183e-03
1.843456e+02	-5.330191e-03
1.854104e+02	-5.391904e-03
1.864813e+02	-5.454331e-03
1.875584e+02	-5.517481e-03
1.886418e+02	-5.581361e-03
1.897313e+02	-5.645980e-03
1.908272e+02	-5.711347e-03
1.919294e+02	-5.777471e-03
1.930380e+02	-5.844359e-03
1.941530e+02	-5.912021e-03
1.952744e+02	-5.980466e-03
1.964023e+02	-6.049703e-03
1.975367e+02	-6.119741e-03
1.986777e+02	-6.190589e-03
1.998252e+02	-6.262257e-03
2.009794e+02	-6.334754e-03
2.021403e+02	-6.408089e-03
2.033078e+02	-6.482273e-03
2.044821e+02	-6.557315e-03
2.056632e+02	-6.633225e-03
2.068511e+02	-6.710013e-03
2.080459e+02	-6.787689e-03
2.092475e+02	-6.866264e-03
2.104561e+02	-6.945748e-03
2.116717e+02	-7.026151e-03
2.128943e+02	-7.107484e-03
2.141240e+02	-7.189757e-03
2.153608e+02	-7.272982e-03
2.166047e+02	-7.357170e-03
2.178558e+02	-7.442332e-03
2.191141e+02	-7.528478e-03
2.203797e+02	-7.615621e-03
2.216526e+02	-7.703771e-03
2.229329e+02	-7.792941e-03
2.242205e+02	-7.883142e-03
2.255156e+02	-7.974386e-03
2.268182e+02	-8.066685e-03
2.281283e+02	-8.160052e-03
2.294459e+02	-8.254498e-03
2.307712e+02	-8.350036e-03
2.321041e+02	-8.446679e-03
2.334447e+02	-8.544440e-03
2.347931e+02	-8.643330e-03
2.361493e+02	-8.743364e-03
2.375133e+02	-8.844555e-03
2.388851e+02	-8.946916e-03
2.402649e+02	-9.050460e-03
2.416527e+02	-9.155201e-03
2.430484e+02	-9.261152e-03
2.444523e+02	-9.368329e-03
2.458642e+02	-9.476745e-03
2.472843e+02	-9.586414e-03
2.487126e+02	-9.697350e-03
2.501492e+02	-9.809569e-03
2.515940e+02	-9.923085e-03
2.530472e+02	-1.003791e-02
2.545088e+02	-1.015407e-02
2.559789e+02	-1.027157e-02
2.574574e+02	-1.039042e-02
2.589444e+02	-1.051065e-02
2.604401e+02	-1.063227e-02
2.619444e+02	-1.075530e-02
2.634574e+02	-1.087974e-02
2.649791e+02	-1.100563e-02
2.665096e+02	-1.113297e-02
2.680489e+02	-1.126178e-02
2.695972e+02	-1.139207e-02
2.711544e+02	-1.152388e-02
2.727205e+02	-1.165721e-02
2.742958e+02	-1.179207e-02
2.758801e+02	-1.192850e-02
2.774736e+02	-1.206650e-02
2.790762e+02	-1.220610e-02
2.806882e+02	-1.234731e-02
2.823094e+02	-1.249015e-02
2.839400e+02	-1.263464e-02
2.855800e+02	-1.278080e-02
2.872295e+02	-1.292865e-02
2.888886e+02	-1.307820e-02
2.905572e+02	-1.322948e-02
2.922354e+02	-1.338251e-02
2.939234e+02	-1.353731e-02
2.956211e+02	-1.369390e-02
2.973286e+02	-1.385229e-02
2.990459e+02	-1.401251e-02
3.007732e+02	-1.417458e-02
3.025104e+02	-1.433853e-02
3.042577e+02	-1.450437e-02
3.060151e+02	-1.467212e-02
3.077826e+02	-1.484181e-02
3.095604e+02	-1.501345e-02
3.113484e+02	-1.518708e-02
3.131467e+02	-1.536272e-02
3.149554e+02	-1.554038e-02
3.167746e+02	-1.572009e-02
3.186043e+02	-1.590188e-02
3.204445e+02	-1.608576e-02
3.222954e+02	-1.627177e-02
3.241570e+02	-1.645992e-02
3.260293e+02	-1.665025e-02
3.279124e+02	-1.684277e-02
3.298064e+02	-1.703752e-02
3.317114e+02	-1.723451e-02
3.336273e+02	-1.743377e-02
3.355544e+02	-1.763533e-02
3.374925e+02	-1.783922e-02
3.394418e+02	-1.804546e-02
3.414024e+02	-1.825408e-02
3.433744e+02	-1.846511e-02
3.453577e+02	-1.867857e-02
3.473525e+02	-1.889450e-02
3.493588e+02	-1.911291e-02
3.513766e+02	-1.933384e-02
3.534062e+02	-1.955732e-02
3.554474e+02	-1.978338e-02
3.575005e+02	-2.001205e-02
3.595654e+02	-2.024335e-02
3.616422e+02	-2.047732e-02
3.637311e+02	-2.071399e-02
3.658320e+02	-2.095338e-02
3.679450e+02	-2.119554e-02
3.700702e+02	-2.144049e-02
3.722077e+02	-2.168826e-02
3.743576e+02	-2.193889e-02
3.765199e+02	-2.219240e-02
3.786946e+02	-2.244884e-02
3.808820e+02	-2.270823e-02
3.830819e+02	-2.297062e-02
3.852946e+02	-2.323602e-02
3.875200e+02	-2.350449e-02
3.897583e+02	-2.377604e-02
3.920096e+02	-2.405073e-02
3.942738e+02	-2.432858e-02
3.965511e+02	-2.460963e-02
3.988416e+02	-2.489392e-02
4.011452e+02	-2.518149e-02
4.034622e+02	-2.547236e-02
4.057926e+02	-2.576659e-02
4.081365e+02	-2.606420e-02
4.104938e+02	-2.636524e-02
4.128648e+02	-2.666975e-02
4.152495e+02	-2.697776e-02
4.176480e+02	-2.728932e-02
4.200603e+02	-2.760447e-02
4.224866e+02	-2.792324e-02
4.249268e+02	-2.824568e-02
4.273812e+02	-2.857184e-02
4.298497e+02	-2.890174e-02
4.323325e+02	-2.923545e-02
4.348297e+02	-2.957299e-02
4.373412e+02	-2.991442e-02
4.398673e+02	-3.025977e-02
4.424079e+02	-3.060910e-02
4.449633e+02	-3.096245e-02
4.475334e+02	-3.131986e-02
4.501183e+02	-3.168138e-02
4.527182e+02	-3.204706e-02
4.553330e+02	-3.241694e-02
4.579630e+02	-3.279108e-02
4.606082e+02	-3.316952e-02
4.632687e+02	-3.355230e-02
4.659445e+02	-3.393949e-02
4.686358e+02	-3.433113e-02
4.713426e+02	-3.472727e-02
4.740650e+02	-3.512797e-02
4.768032e+02	-3.553326e-02
4.795572e+02	-3.594322e-02
4.823271e+02	-3.635788e-02
4.851130e+02	-3.677731e-02
4.879150e+02	-3.720155e-02
4.907332e+02	-3.763067e-02
4.935676e+02	-3.806471e-02
4.964185e+02	-3.850374e-02
4.992858e+02	-3.894781e-02
5.021696e+02	-3.939698e-02
5.050701e+02	-3.985131e-02
5.079874e+02	-4.031085e-02
5.109215e+02	-4.077566e-02
5.138726e+02	-4.124581e-02
5.168407e+02	-4.172135e-02
5.198259e+02	-4.220235e-02
5.228284e+02	-4.268887e-02
5.258482e+02	-4.318097e-02
5.288855e+02	-4.367871e-02
5.319403e+02	-4.418216e-02
5.350128e+02	-4.469138e-02
5.381030e+02	-4.520644e-02
5.412111e+02	-4.572740e-02
5.443371e+02	-4.625434e-02
5.474812e+02	-4.678732e-02
5.506434e+02	-4.732640e-02
5.538239e+02	-4.787166e-02
5.570228e+02	-4.842317e-02
5.602401e+02	-4.898099e-02
5.634760e+02	-4.954521e-02
5.667306e+02	-5.011589e-02
5.700040e+02	-5.069310e-02
5.732964e+02	-5.127692e-02
5.766077e+02	-5.186742e-02
5.799382e+02	-5.246468e-02
5.832879e+02	-5.306878e-02
5.866569e+02	-5.367979e-02
5.900454e+02	-5.429779e-02
5.934535e+02	-5.492286e-02
5.968813e+02	-5.555508e-02
6.003288e+02	-5.619453e-02
6.037963e+02	-5.684129e-02
6.072838e+02	-5.749545e-02
6.107914e+02	-5.815708e-02
6.143194e+02	-5.882628e-02
6.178676e+02	-5.950312e-02
6.214364e+02	-6.018770e-02
6.250258e+02	-6.088010e-02
6.286359e+02	-6.158040e-02
6.322669e+02	-6.228871e-02
6.359189e+02	-6.300510e-02
6.395919e+02	-6.372967e-02
6.432862e+02	-6.446251e-02
6.470017e+02	-6.520371e-02
6.507388e+02	-6.595337e-02
6.544974e+02	-6.671159e-02
6.582778e+02	-6.747845e-02
6.620800e+02	-6.825406e-02
6.659041e+02	-6.903851e-02
6.697504e+02	-6.983191e-02
6.736188e+02	-7.063435e-02
6.775096e+02	-7.144593e-02
6.814229e+02	-7.226677e-02
6.853587e+02	-7.309695e-02
6.893173e+02	-7.393659e-02
6.932988e+02	-7.478578e-02
6.973033e+02	-7.564465e-02
7.013309e+02	-7.651330e-02
