Frequency(Hz)	Magnitude(dB)
1.000000e+01	-1.882240e-05
1.005776e+01	-1.904046e-05
1.011585e+01	-1.926105e-05
1.017428e+01	-1.948420e-05
1.023305e+01	-1.970992e-05
1.029215e+01	-1.993827e-05
1.035160e+01	-2.016926e-05
1.041139e+01	-2.040293e-05
1.047153e+01	-2.063930e-05
1.053201e+01	-2.087841e-05
1.059284e+01	-2.112029e-05
1.065403e+01	-2.136498e-05
1.071556e+01	-2.161249e-05
1.077746e+01	-2.186288e-05
1.083971e+01	-2.211617e-05
1.090232e+01	-2.237239e-05
1.096529e+01	-2.263158e-05
1.102862e+01	-2.289377e-05
1.109232e+01	-2.315900e-05
1.115639e+01	-2.342730e-05
1.122083e+01	-2.369871e-05
1.128564e+01	-2.397327e-05
1.135083e+01	-2.425101e-05
1.141639e+01	-2.453196e-05
1.148233e+01	-2.481617e-05
1.154865e+01	-2.510367e-05
1.161536e+01	-2.539450e-05
1.168245e+01	-2.568870e-05
1.174992e+01	-2.598631e-05
1.181779e+01	-2.628737e-05
1.188605e+01	-2.659192e-05
1.195470e+01	-2.689999e-05
1.202375e+01	-2.721163e-05
1.209320e+01	-2.752689e-05
1.216305e+01	-2.784579e-05
1.223330e+01	-2.816839e-05
1.230396e+01	-2.849473e-05
1.237503e+01	-2.882485e-05
1.244651e+01	-2.915879e-05
1.251840e+01	-2.949660e-05
1.259070e+01	-2.983833e-05
1.266343e+01	-3.018401e-05
1.273657e+01	-3.053370e-05
1.281014e+01	-3.088744e-05
1.288413e+01	-3.124528e-05
1.295855e+01	-3.160727e-05
1.303339e+01	-3.197344e-05
1.310867e+01	-3.234386e-05
1.318439e+01	-3.271857e-05
1.326054e+01	-3.309763e-05
1.333713e+01	-3.348107e-05
1.341417e+01	-3.386896e-05
1.349165e+01	-3.426134e-05
1.356958e+01	-3.465826e-05
1.364795e+01	-3.505979e-05
1.372678e+01	-3.546596e-05
1.380607e+01	-3.587684e-05
1.388581e+01	-3.629248e-05
1.396602e+01	-3.671294e-05
1.404668e+01	-3.713827e-05
1.412782e+01	-3.756852e-05
1.420942e+01	-3.800376e-05
1.429149e+01	-3.844405e-05
1.437404e+01	-3.888943e-05
1.445706e+01	-3.933997e-05
1.454057e+01	-3.979574e-05
1.462455e+01	-4.025678e-05
1.470902e+01	-4.072316e-05
1.479398e+01	-4.119495e-05
1.487943e+01	-4.167220e-05
1.496537e+01	-4.215498e-05
1.505181e+01	-4.264336e-05
1.513875e+01	-4.313739e-05
1.522619e+01	-4.363715e-05
1.531414e+01	-4.414269e-05
1.540259e+01	-4.465410e-05
1.549156e+01	-4.517142e-05
1.558103e+01	-4.569474e-05
1.567103e+01	-4.622413e-05
1.576155e+01	-4.675964e-05
1.585258e+01	-4.730137e-05
1.594415e+01	-4.784936e-05
1.603624e+01	-4.840371e-05
1.612886e+01	-4.896447e-05
1.622202e+01	-4.953174e-05
1.631572e+01	-5.010557e-05
1.640996e+01	-5.068606e-05
1.650474e+01	-5.127327e-05
1.660008e+01	-5.186728e-05
1.669596e+01	-5.246817e-05
1.679239e+01	-5.307603e-05
1.688938e+01	-5.369092e-05
1.698694e+01	-5.431294e-05
1.708505e+01	-5.494217e-05
1.718373e+01	-5.557869e-05
1.728299e+01	-5.622258e-05
1.738281e+01	-5.687393e-05
1.748322e+01	-5.753282e-05
1.758420e+01	-5.819935e-05
1.768576e+01	-5.887360e-05
1.778792e+01	-5.955567e-05
1.789066e+01	-6.024563e-05
1.799399e+01	-6.094359e-05
1.809793e+01	-6.164963e-05
1.820246e+01	-6.236385e-05
1.830760e+01	-6.308635e-05
1.841334e+01	-6.381722e-05
1.851969e+01	-6.455655e-05
1.862666e+01	-6.530445e-05
1.873425e+01	-6.606102e-05
1.884246e+01	-6.682635e-05
1.895129e+01	-6.760054e-05
1.906075e+01	-6.838371e-05
1.917085e+01	-6.917595e-05
1.928158e+01	-6.997736e-05
1.939295e+01	-7.078806e-05
1.950496e+01	-7.160816e-05
1.961762e+01	-7.243775e-05
1.973093e+01	-7.327696e-05
1.984490e+01	-7.412588e-05
1.995952e+01	-7.498464e-05
2.007480e+01	-7.585335e-05
2.019076e+01	-7.673213e-05
2.030738e+01	-7.762108e-05
2.042467e+01	-7.852034e-05
2.054264e+01	-7.943001e-05
2.066130e+01	-8.035022e-05
2.078064e+01	-8.128109e-05
2.090066e+01	-8.222275e-05
2.102139e+01	-8.317531e-05
2.114280e+01	-8.413891e-05
2.126492e+01	-8.511367e-05
2.138775e+01	-8.609973e-05
2.151128e+01	-8.709721e-05
2.163553e+01	-8.810624e-05
2.176050e+01	-8.912697e-05
2.188619e+01	-9.015952e-05
2.201260e+01	-9.120403e-05
2.213974e+01	-9.226064e-05
2.226762e+01	-9.332950e-05
2.239624e+01	-9.441074e-05
2.252560e+01	-9.550450e-05
2.265571e+01	-9.661093e-05
2.278656e+01	-9.773018e-05
2.291818e+01	-9.886240e-05
2.305055e+01	-1.000077e-04
2.318369e+01	-1.011663e-04
2.331760e+01	-1.023384e-04
2.345228e+01	-1.035240e-04
2.358774e+01	-1.047233e-04
2.372398e+01	-1.059365e-04
2.386101e+01	-1.071638e-04
2.399883e+01	-1.084053e-04
2.413745e+01	-1.096612e-04
2.427686e+01	-1.109317e-04
2.441709e+01	-1.122168e-04
2.455812e+01	-1.135169e-04
2.469997e+01	-1.148320e-04
2.484263e+01	-1.161623e-04
2.498612e+01	-1.175081e-04
2.513044e+01	-1.188694e-04
2.527559e+01	-1.202465e-04
2.542158e+01	-1.216396e-04
2.556842e+01	-1.230488e-04
2.571610e+01	-1.244744e-04
2.586463e+01	-1.259164e-04
2.601403e+01	-1.273752e-04
2.616428e+01	-1.288508e-04
2.631541e+01	-1.303436e-04
2.646740e+01	-1.318536e-04
2.662028e+01	-1.333811e-04
2.677404e+01	-1.349264e-04
2.692868e+01	-1.364895e-04
2.708422e+01	-1.380708e-04
2.724066e+01	-1.396703e-04
2.739800e+01	-1.412884e-04
2.755625e+01	-1.429253e-04
2.771541e+01	-1.445811e-04
2.787550e+01	-1.462560e-04
2.803650e+01	-1.479504e-04
2.819844e+01	-1.496644e-04
2.836131e+01	-1.513983e-04
2.852513e+01	-1.531523e-04
2.868989e+01	-1.549266e-04
2.885560e+01	-1.567214e-04
2.902227e+01	-1.585370e-04
2.918990e+01	-1.603737e-04
2.935850e+01	-1.622316e-04
2.952807e+01	-1.641111e-04
2.969863e+01	-1.660123e-04
2.987016e+01	-1.679356e-04
3.004269e+01	-1.698811e-04
3.021622e+01	-1.718492e-04
3.039075e+01	-1.738401e-04
3.056628e+01	-1.758540e-04
3.074283e+01	-1.778913e-04
3.092040e+01	-1.799522e-04
3.109900e+01	-1.820369e-04
3.127862e+01	-1.841459e-04
3.145929e+01	-1.862792e-04
3.164099e+01	-1.884372e-04
3.182375e+01	-1.906203e-04
3.200756e+01	-1.928286e-04
3.219244e+01	-1.950625e-04
3.237838e+01	-1.973224e-04
3.256540e+01	-1.996083e-04
3.275349e+01	-2.019208e-04
3.294268e+01	-2.042601e-04
3.313295e+01	-2.066264e-04
3.332433e+01	-2.090202e-04
3.351681e+01	-2.114417e-04
3.371040e+01	-2.138912e-04
3.390511e+01	-2.163691e-04
3.410094e+01	-2.188758e-04
3.429791e+01	-2.214115e-04
3.449601e+01	-2.239765e-04
3.469526e+01	-2.265713e-04
3.489566e+01	-2.291961e-04
3.509721e+01	-2.318513e-04
3.529993e+01	-2.345373e-04
3.550382e+01	-2.372544e-04
3.570889e+01	-2.400030e-04
3.591515e+01	-2.427834e-04
3.612259e+01	-2.455961e-04
3.633123e+01	-2.484413e-04
3.654108e+01	-2.513194e-04
3.675214e+01	-2.542310e-04
3.696442e+01	-2.571762e-04
3.717792e+01	-2.601556e-04
3.739266e+01	-2.631695e-04
3.760864e+01	-2.662183e-04
3.782587e+01	-2.693024e-04
3.804435e+01	-2.724222e-04
3.826409e+01	-2.755782e-04
3.848510e+01	-2.787708e-04
3.870739e+01	-2.820003e-04
3.893096e+01	-2.852672e-04
3.915583e+01	-2.885720e-04
3.938199e+01	-2.919151e-04
3.960946e+01	-2.952969e-04
3.983824e+01	-2.987179e-04
4.006834e+01	-3.021785e-04
4.029978e+01	-3.056792e-04
4.053255e+01	-3.092204e-04
4.076666e+01	-3.128027e-04
4.100213e+01	-3.164265e-04
4.123896e+01	-3.200923e-04
4.147715e+01	-3.238005e-04
4.171672e+01	-3.275516e-04
4.195767e+01	-3.313463e-04
4.220002e+01	-3.351849e-04
4.244377e+01	-3.390679e-04
4.268892e+01	-3.429960e-04
4.293549e+01	-3.469695e-04
4.318348e+01	-3.509891e-04
4.343291e+01	-3.550552e-04
4.368377e+01	-3.591685e-04
4.393609e+01	-3.633294e-04
4.418986e+01	-3.675385e-04
4.444510e+01	-3.717963e-04
4.470182e+01	-3.761035e-04
4.496001e+01	-3.804606e-04
4.521970e+01	-3.848681e-04
4.548089e+01	-3.893267e-04
4.574358e+01	-3.938370e-04
4.600779e+01	-3.983995e-04
4.627353e+01	-4.030148e-04
4.654081e+01	-4.076836e-04
4.680963e+01	-4.124065e-04
4.708000e+01	-4.171842e-04
4.735193e+01	-4.220171e-04
4.762543e+01	-4.269061e-04
4.790051e+01	-4.318516e-04
4.817719e+01	-4.368545e-04
4.845545e+01	-4.419153e-04
4.873533e+01	-4.470348e-04
4.901682e+01	-4.522135e-04
4.929994e+01	-4.574523e-04
4.958470e+01	-4.627517e-04
4.987110e+01	-4.681125e-04
5.015915e+01	-4.735354e-04
5.044887e+01	-4.790212e-04
5.074026e+01	-4.845705e-04
5.103333e+01	-4.901840e-04
5.132810e+01	-4.958626e-04
5.162457e+01	-5.016070e-04
5.192275e+01	-5.074179e-04
5.222265e+01	-5.132961e-04
5.252429e+01	-5.192425e-04
5.282767e+01	-5.252577e-04
5.313280e+01	-5.313425e-04
5.343969e+01	-5.374979e-04
5.374836e+01	-5.437246e-04
5.405880e+01	-5.500234e-04
5.437105e+01	-5.563951e-04
5.468509e+01	-5.628407e-04
5.500095e+01	-5.693610e-04
5.531863e+01	-5.759567e-04
5.563815e+01	-5.826289e-04
5.595951e+01	-5.893784e-04
5.628273e+01	-5.962060e-04
5.660782e+01	-6.031127e-04
5.693479e+01	-6.100995e-04
5.726364e+01	-6.171671e-04
5.759439e+01	-6.243167e-04
5.792705e+01	-6.315490e-04
5.826164e+01	-6.388652e-04
5.859815e+01	-6.462660e-04
5.893662e+01	-6.537526e-04
5.927703e+01	-6.613260e-04
5.961941e+01	-6.689870e-04
5.996377e+01	-6.767368e-04
6.031012e+01	-6.845764e-04
6.065847e+01	-6.925068e-04
6.100883e+01	-7.005290e-04
6.136121e+01	-7.086441e-04
6.171563e+01	-7.168533e-04
6.207210e+01	-7.251576e-04
6.243063e+01	-7.335580e-04
6.279122e+01	-7.420557e-04
6.315390e+01	-7.506519e-04
6.351868e+01	-7.593477e-04
6.388556e+01	-7.681441e-04
6.425456e+01	-7.770425e-04
6.462569e+01	-7.860439e-04
6.499897e+01	-7.951496e-04
6.537440e+01	-8.043608e-04
6.575200e+01	-8.136787e-04
6.613178e+01	-8.231045e-04
6.651375e+01	-8.326395e-04
6.689793e+01	-8.422849e-04
6.728433e+01	-8.520420e-04
6.767297e+01	-8.619122e-04
6.806384e+01	-8.718967e-04
6.845698e+01	-8.819968e-04
6.885238e+01	-8.922139e-04
6.925007e+01	-9.025494e-04
6.965005e+01	-9.130046e-04
7.005235e+01	-9.235809e-04
7.045697e+01	-9.342796e-04
7.086393e+01	-9.451023e-04
7.127323e+01	-9.560504e-04
7.168490e+01	-9.671253e-04
7.209895e+01	-9.783284e-04
7.251539e+01	-9.896613e-04
7.293424e+01	-1.001126e-03
7.335551e+01	-1.012722e-03
7.377920e+01	-1.024454e-03
7.420535e+01	-1.036321e-03
7.463396e+01	-1.048326e-03
7.506504e+01	-1.060469e-03
7.549861e+01	-1.072753e-03
7.593469e+01	-1.085180e-03
7.637328e+01	-1.097751e-03
7.681441e+01	-1.110467e-03
7.725809e+01	-1.123330e-03
7.770433e+01	-1.136342e-03
7.815315e+01	-1.149506e-03
7.860456e+01	-1.162821e-03
7.905857e+01	-1.176291e-03
7.951521e+01	-1.189917e-03
7.997449e+01	-1.203700e-03
8.043642e+01	-1.217644e-03
8.090102e+01	-1.231748e-03
8.136830e+01	-1.246016e-03
8.183828e+01	-1.260450e-03
8.231097e+01	-1.275050e-03
8.278640e+01	-1.289820e-03
8.326457e+01	-1.304760e-03
8.374550e+01	-1.319874e-03
8.422921e+01	-1.335163e-03
8.471572e+01	-1.350629e-03
8.520503e+01	-1.366274e-03
8.569717e+01	-1.382100e-03
8.619215e+01	-1.398109e-03
8.669000e+01	-1.414304e-03
8.719071e+01	-1.430686e-03
8.769432e+01	-1.447259e-03
8.820084e+01	-1.464023e-03
8.871029e+01	-1.480981e-03
8.922267e+01	-1.498135e-03
8.973802e+01	-1.515489e-03
9.025634e+01	-1.533043e-03
9.077766e+01	-1.550800e-03
9.130199e+01	-1.568764e-03
9.182935e+01	-1.586935e-03
9.235975e+01	-1.605317e-03
9.289321e+01	-1.623911e-03
9.342976e+01	-1.642721e-03
9.396941e+01	-1.661749e-03
9.451217e+01	-1.680997e-03
9.505807e+01	-1.700468e-03
9.560712e+01	-1.720164e-03
9.615934e+01	-1.740089e-03
9.671476e+01	-1.760244e-03
9.727338e+01	-1.780633e-03
9.783522e+01	-1.801258e-03
9.840032e+01	-1.822121e-03
9.896867e+01	-1.843227e-03
9.954031e+01	-1.864576e-03
1.001153e+02	-1.886173e-03
1.006935e+02	-1.908020e-03
1.012751e+02	-1.930120e-03
1.018601e+02	-1.952476e-03
1.024484e+02	-1.975091e-03
1.030402e+02	-1.997968e-03
1.036353e+02	-2.021109e-03
1.042339e+02	-2.044519e-03
1.048360e+02	-2.068200e-03
1.054415e+02	-2.092154e-03
1.060505e+02	-2.116387e-03
1.066631e+02	-2.140900e-03
1.072791e+02	-2.165696e-03
1.078988e+02	-2.190780e-03
1.085220e+02	-2.216154e-03
1.091488e+02	-2.241822e-03
1.097793e+02	-2.267788e-03
1.104133e+02	-2.294054e-03
1.110511e+02	-2.320624e-03
1.116925e+02	-2.347502e-03
1.123376e+02	-2.374691e-03
1.129865e+02	-2.402194e-03
1.136391e+02	-2.430017e-03
1.142955e+02	-2.458161e-03
1.149556e+02	-2.486631e-03
1.156196e+02	-2.515431e-03
1.162874e+02	-2.544565e-03
1.169591e+02	-2.574035e-03
1.176347e+02	-2.603847e-03
1.183141e+02	-2.634004e-03
1.189975e+02	-2.664511e-03
1.196848e+02	-2.695370e-03
1.203761e+02	-2.726587e-03
1.210714e+02	-2.758165e-03
1.217707e+02	-2.790109e-03
1.224740e+02	-2.822423e-03
1.231814e+02	-2.855110e-03
1.238929e+02	-2.888176e-03
1.246085e+02	-2.921625e-03
1.253283e+02	-2.955462e-03
1.260522e+02	-2.989690e-03
1.267802e+02	-3.024314e-03
1.275125e+02	-3.059339e-03
1.282490e+02	-3.094770e-03
1.289898e+02	-3.130611e-03
1.297348e+02	-3.166866e-03
1.304842e+02	-3.203542e-03
1.312378e+02	-3.240642e-03
1.319959e+02	-3.278171e-03
1.327583e+02	-3.316135e-03
1.335251e+02	-3.354539e-03
1.342963e+02	-3.393387e-03
1.350720e+02	-3.432684e-03
1.358522e+02	-3.472437e-03
1.366368e+02	-3.512650e-03
1.374260e+02	-3.553328e-03
1.382198e+02	-3.594477e-03
1.390182e+02	-3.636103e-03
1.398211e+02	-3.678210e-03
1.406287e+02	-3.720805e-03
1.414410e+02	-3.763892e-03
1.422579e+02	-3.807479e-03
1.430796e+02	-3.851570e-03
1.439060e+02	-3.896171e-03
1.447372e+02	-3.941289e-03
1.455732e+02	-3.986929e-03
1.464141e+02	-4.033097e-03
1.472597e+02	-4.079799e-03
1.481103e+02	-4.127043e-03
1.489658e+02	-4.174832e-03
1.498262e+02	-4.223175e-03
1.506916e+02	-4.272078e-03
1.515620e+02	-4.321546e-03
1.524374e+02	-4.371587e-03
1.533179e+02	-4.422207e-03
1.542034e+02	-4.473413e-03
1.550941e+02	-4.525212e-03
1.559899e+02	-4.577610e-03
1.568909e+02	-4.630614e-03
1.577971e+02	-4.684232e-03
1.587085e+02	-4.738471e-03
1.596252e+02	-4.793337e-03
1.605472e+02	-4.848838e-03
1.614745e+02	-4.904981e-03
1.624072e+02	-4.961774e-03
1.633453e+02	-5.019224e-03
1.642887e+02	-5.077339e-03
1.652377e+02	-5.136126e-03
1.661921e+02	-5.195594e-03
1.671520e+02	-5.255750e-03
1.681175e+02	-5.316602e-03
1.690885e+02	-5.378158e-03
1.700651e+02	-5.440426e-03
1.710474e+02	-5.503415e-03
1.720354e+02	-5.567132e-03
1.730291e+02	-5.631587e-03
1.740285e+02	-5.696787e-03
1.750337e+02	-5.762742e-03
1.760446e+02	-5.829460e-03
1.770615e+02	-5.896950e-03
1.780842e+02	-5.965221e-03
1.791128e+02	-6.034281e-03
1.801473e+02	-6.104141e-03
1.811878e+02	-6.174808e-03
1.822344e+02	-6.246293e-03
1.832870e+02	-6.318605e-03
1.843456e+02	-6.391754e-03
1.854104e+02	-6.465749e-03
1.864813e+02	-6.540600e-03
1.875584e+02	-6.616316e-03
1.886418e+02	-6.692909e-03
1.897313e+02	-6.770387e-03
1.908272e+02	-6.848762e-03
1.919294e+02	-6.928043e-03
1.930380e+02	-7.008241e-03
1.941530e+02	-7.089367e-03
1.952744e+02	-7.171431e-03
1.964023e+02	-7.254445e-03
1.975367e+02	-7.338418e-03
1.986777e+02	-7.423363e-03
1.998252e+02	-7.509290e-03
2.009794e+02	-7.596210e-03
2.021403e+02	-7.684136e-03
2.033078e+02	-7.773079e-03
2.044821e+02	-7.863050e-03
2.056632e+02	-7.954062e-03
2.068511e+02	-8.046126e-03
2.080459e+02	-8.139255e-03
2.092475e+02	-8.233461e-03
2.104561e+02	-8.328756e-03
2.116717e+02	-8.425153e-03
2.128943e+02	-8.522664e-03
2.141240e+02	-8.621303e-03
2.153608e+02	-8.721083e-03
2.166047e+02	-8.822016e-03
2.178558e+02	-8.924116e-03
2.191141e+02	-9.027396e-03
2.203797e+02	-9.131870e-03
2.216526e+02	-9.237553e-03
2.229329e+02	-9.344456e-03
2.242205e+02	-9.452596e-03
2.255156e+02	-9.561986e-03
2.268182e+02	-9.672640e-03
2.281283e+02	-9.784574e-03
2.294459e+02	-9.897801e-03
2.307712e+02	-1.001234e-02
2.321041e+02	-1.012820e-02
2.334447e+02	-1.024540e-02
2.347931e+02	-1.036395e-02
2.361493e+02	-1.048387e-02
2.375133e+02	-1.060518e-02
2.388851e+02	-1.072789e-02
2.402649e+02	-1.085202e-02
2.416527e+02	-1.097759e-02
2.430484e+02	-1.110460e-02
2.444523e+02	-1.123308e-02
2.458642e+02	-1.136305e-02
2.472843e+02	-1.149452e-02
2.487126e+02	-1.162751e-02
2.501492e+02	-1.176203e-02
2.515940e+02	-1.189811e-02
2.530472e+02	-1.203576e-02
2.545088e+02	-1.217500e-02
2.559789e+02	-1.231585e-02
2.574574e+02	-1.245833e-02
2.589444e+02	-1.260245e-02
2.604401e+02	-1.274824e-02
2.619444e+02	-1.289571e-02
2.634574e+02	-1.304489e-02
2.649791e+02	-1.319579e-02
2.665096e+02	-1.334843e-02
2.680489e+02	-1.350283e-02
2.695972e+02	-1.365902e-02
2.711544e+02	-1.381701e-02
2.727205e+02	-1.397682e-02
2.742958e+02	-1.413848e-02
2.758801e+02	-1.430201e-02
2.774736e+02	-1.446743e-02
2.790762e+02	-1.463475e-02
2.806882e+02	-1.480401e-02
2.823094e+02	-1.497522e-02
2.839400e+02	-1.514841e-02
2.855800e+02	-1.532360e-02
2.872295e+02	-1.550081e-02
2.888886e+02	-1.568006e-02
2.905572e+02	-1.586139e-02
2.922354e+02	-1.604480e-02
2.939234e+02	-1.623034e-02
2.956211e+02	-1.641801e-02
2.973286e+02	-1.660786e-02
2.990459e+02	-1.679989e-02
3.007732e+02	-1.699414e-02
3.025104e+02	-1.719063e-02
3.042577e+02	-1.738939e-02
3.060151e+02	-1.759044e-02
3.077826e+02	-1.779381e-02
3.095604e+02	-1.799953e-02
3.113484e+02	-1.820762e-02
3.131467e+02	-1.841811e-02
3.149554e+02	-1.863103e-02
3.167746e+02	-1.884640e-02
3.186043e+02	-1.906426e-02
3.204445e+02	-1.928463e-02
3.222954e+02	-1.950755e-02
3.241570e+02	-1.973303e-02
3.260293e+02	-1.996112e-02
3.279124e+02	-2.019183e-02
3.298064e+02	-2.042521e-02
3.317114e+02	-2.066127e-02
3.336273e+02	-2.090006e-02
3.355544e+02	-2.114160e-02
3.374925e+02	-2.138593e-02
3.394418e+02	-2.163307e-02
3.414024e+02	-2.188306e-02
3.433744e+02	-2.213593e-02
3.453577e+02	-2.239172e-02
3.473525e+02	-2.265046e-02
3.493588e+02	-2.291217e-02
3.513766e+02	-2.317691e-02
3.534062e+02	-2.344469e-02
3.554474e+02	-2.371556e-02
3.575005e+02	-2.398955e-02
3.595654e+02	-2.426669e-02
3.616422e+02	-2.454703e-02
3.637311e+02	-2.483060e-02
3.658320e+02	-2.511743e-02
3.679450e+02	-2.540757e-02
3.700702e+02	-2.570105e-02
3.722077e+02	-2.599791e-02
3.743576e+02	-2.629819e-02
3.765199e+02	-2.660192e-02
3.786946e+02	-2.690916e-02
3.808820e+02	-2.721993e-02
3.830819e+02	-2.753427e-02
3.852946e+02	-2.785224e-02
3.875200e+02	-2.817386e-02
3.897583e+02	-2.849919e-02
3.920096e+02	-2.882826e-02
3.942738e+02	-2.916112e-02
3.965511e+02	-2.949781e-02
3.988416e+02	-2.983837e-02
4.011452e+02	-3.018285e-02
4.034622e+02	-3.053129e-02
4.057926e+02	-3.088374e-02
4.081365e+02	-3.124025e-02
4.104938e+02	-3.160086e-02
4.128648e+02	-3.196561e-02
4.152495e+02	-3.233456e-02
4.176480e+02	-3.270775e-02
4.200603e+02	-3.308523e-02
4.224866e+02	-3.346705e-02
4.249268e+02	-3.385325e-02
4.273812e+02	-3.424390e-02
4.298497e+02	-3.463904e-02
4.323325e+02	-3.503872e-02
4.348297e+02	-3.544299e-02
4.373412e+02	-3.585191e-02
4.398673e+02	-3.626552e-02
4.424079e+02	-3.668389e-02
4.449633e+02	-3.710706e-02
4.475334e+02	-3.753509e-02
4.501183e+02	-3.796804e-02
4.527182e+02	-3.840596e-02
4.553330e+02	-3.884891e-02
4.579630e+02	-3.929694e-02
4.606082e+02	-3.975012e-02
4.632687e+02	-4.020850e-02
4.659445e+02	-4.067213e-02
4.686358e+02	-4.114109e-02
4.713426e+02	-4.161544e-02
4.740650e+02	-4.209522e-02
4.768032e+02	-4.258051e-02
4.795572e+02	-4.307136e-02
4.823271e+02	-4.356785e-02
4.851130e+02	-4.407002e-02
4.879150e+02	-4.457796e-02
4.907332e+02	-4.509172e-02
4.935676e+02	-4.561137e-02
4.964185e+02	-4.613698e-02
4.992858e+02	-4.666861e-02
5.021696e+02	-4.720633e-02
5.050701e+02	-4.775022e-02
5.079874e+02	-4.830033e-02
5.109215e+02	-4.885675e-02
5.138726e+02	-4.941954e-02
5.168407e+02	-4.998878e-02
5.198259e+02	-5.056454e-02
5.228284e+02	-5.114689e-02
5.258482e+02	-5.173590e-02
5.288855e+02	-5.233166e-02
5.319403e+02	-5.293423e-02
5.350128e+02	-5.354370e-02
5.381030e+02	-5.416015e-02
5.412111e+02	-5.478364e-02
5.443371e+02	-5.541427e-02
5.474812e+02	-5.605211e-02
5.506434e+02	-5.669724e-02
5.538239e+02	-5.734975e-02
5.570228e+02	-5.800972e-02
5.602401e+02	-5.867723e-02
5.634760e+02	-5.935237e-02
5.667306e+02	-6.003523e-02
5.700040e+02	-6.072588e-02
5.732964e+02	-6.142443e-02
5.766077e+02	-6.213095e-02
5.799382e+02	-6.284554e-02
5.832879e+02	-6.356829e-02
5.866569e+02	-6.429929e-02
5.900454e+02	-6.503863e-02
5.934535e+02	-6.578641e-02
5.968813e+02	-6.654272e-02
6.003288e+02	-6.730766e-02
6.037963e+02	-6.808132e-02
6.072838e+02	-6.886380e-02
6.107914e+02	-6.965521e-02
6.143194e+02	-7.045563e-02
6.178676e+02	-7.126518e-02
6.214364e+02	-7.208395e-02
6.250258e+02	-7.291205e-02
6.286359e+02	-7.374958e-02
6.322669e+02	-7.459665e-02
6.359189e+02	-7.545337e-02
6.395919e+02	-7.631984e-02
6.432862e+02	-7.719616e-02
6.470017e+02	-7.808246e-02
6.507388e+02	-7.897885e-02
6.544974e+02	-7.988542e-02
6.582778e+02	-8.080231e-02
6.620800e+02	-8.172962e-02
6.659041e+02	-8.266747e-02
6.697504e+02	-8.361598e-02
6.736188e+02	-8.457527e-02
6.775096e+02	-8.554545e-02
6.814229e+02	-8.652666e-02
6.853587e+02	-8.751900e-02
6.893173e+02	-8.852260e-02
6.932988e+02	-8.953760e-02
6.973033e+02	-9.056411e-02
7.013309e+02	-9.160227e-02
