Frequency(Hz)	Magnitude(dB)
1.000000e+01	-2.245062e+00
1.005776e+01	-2.265710e+00
1.011585e+01	-2.285800e+00
1.017428e+01	-2.306416e+00
1.023305e+01	-2.327153e+00
1.029215e+01	-2.347892e+00
1.035160e+01	-2.368847e+00
1.041139e+01	-2.389893e+00
1.047153e+01	-2.411158e+00
1.053201e+01	-2.432530e+00
1.059284e+01	-2.454022e+00
1.065403e+01	-2.475798e+00
1.071556e+01	-2.497455e+00
1.077746e+01	-2.519626e+00
1.083971e+01	-2.541639e+00
1.090232e+01	-2.563832e+00
1.096529e+01	-2.586122e+00
1.102862e+01	-2.608593e+00
1.109232e+01	-2.631285e+00
1.115639e+01	-2.654199e+00
1.122083e+01	-2.677199e+00
1.128564e+01	-2.700076e+00
1.135083e+01	-2.723407e+00
1.141639e+01	-2.746716e+00
1.148233e+01	-2.770318e+00
1.154865e+01	-2.793830e+00
1.161536e+01	-2.817864e+00
1.168245e+01	-2.841783e+00
1.174992e+01	-2.865999e+00
1.181779e+01	-2.890204e+00
1.188605e+01	-2.914522e+00
1.195470e+01	-2.938973e+00
1.202375e+01	-2.963620e+00
1.209320e+01	-2.988485e+00
1.216305e+01	-3.013340e+00
1.223330e+01	-3.038478e+00
1.230396e+01	-3.063736e+00
1.237503e+01	-3.089225e+00
1.244651e+01	-3.114790e+00
1.251840e+01	-3.140299e+00
1.259070e+01	-3.166353e+00
1.266343e+01	-3.191988e+00
1.273657e+01	-3.218360e+00
1.281014e+01	-3.244529e+00
1.288413e+01	-3.270853e+00
1.295855e+01	-3.297627e+00
1.303339e+01	-3.324086e+00
1.310867e+01	-3.351008e+00
1.318439e+01	-3.377988e+00
1.326054e+01	-3.404923e+00
1.333713e+01	-3.432233e+00
1.341417e+01	-3.459842e+00
1.349165e+01	-3.487430e+00
1.356958e+01	-3.514842e+00
1.364795e+01	-3.542719e+00
1.372678e+01	-3.570729e+00
1.380607e+01	-3.598826e+00
1.388581e+01	-3.626975e+00
1.396602e+01	-3.655370e+00
1.404668e+01	-3.684076e+00
1.412782e+01	-3.712919e+00
1.420942e+01	-3.741710e+00
1.429149e+01	-3.770567e+00
1.437404e+01	-3.799618e+00
1.445706e+01	-3.828744e+00
1.454057e+01	-3.858202e+00
1.462455e+01	-3.887675e+00
1.470902e+01	-3.917346e+00
1.479398e+01	-3.947168e+00
1.487943e+01	-3.977351e+00
1.496537e+01	-4.007123e+00
1.505181e+01	-4.037330e+00
1.513875e+01	-4.067761e+00
1.522619e+01	-4.098423e+00
1.531414e+01	-4.128988e+00
1.540259e+01	-4.159724e+00
1.549156e+01	-4.190625e+00
1.558103e+01	-4.221557e+00
1.567103e+01	-4.252675e+00
1.576155e+01	-4.284103e+00
1.585258e+01	-4.315392e+00
1.594415e+01	-4.347005e+00
1.603624e+01	-4.378730e+00
1.612886e+01	-4.410587e+00
1.622202e+01	-4.442656e+00
1.631572e+01	-4.474496e+00
1.640996e+01	-4.506856e+00
1.650474e+01	-4.539342e+00
1.660008e+01	-4.571780e+00
1.669596e+01	-4.604387e+00
1.679239e+01	-4.637222e+00
1.688938e+01	-4.670113e+00
1.698694e+01	-4.702831e+00
1.708505e+01	-4.736432e+00
1.718373e+01	-4.769795e+00
1.728299e+01	-4.802998e+00
1.738281e+01	-4.836634e+00
1.748322e+01	-4.870226e+00
1.758420e+01	-4.904134e+00
1.768576e+01	-4.937939e+00
1.778792e+01	-4.971717e+00
1.789066e+01	-5.006004e+00
1.799399e+01	-5.040372e+00
1.809793e+01	-5.074819e+00
1.820246e+01	-5.109235e+00
1.830760e+01	-5.143823e+00
1.841334e+01	-5.178961e+00
1.851969e+01	-5.213349e+00
1.862666e+01	-5.248585e+00
1.873425e+01	-5.283984e+00
1.884246e+01	-5.318925e+00
1.895129e+01	-5.354493e+00
1.906075e+01	-5.390309e+00
1.917085e+01	-5.425620e+00
1.928158e+01	-5.461461e+00
1.939295e+01	-5.497114e+00
1.950496e+01	-5.533120e+00
1.961762e+01	-5.569195e+00
1.973093e+01	-5.605306e+00
1.984490e+01	-5.642066e+00
1.995952e+01	-5.678154e+00
2.007480e+01	-5.714699e+00
2.019076e+01	-5.751636e+00
2.030738e+01	-5.788477e+00
2.042467e+01	-5.825032e+00
2.054264e+01	-5.862216e+00
2.066130e+01	-5.899223e+00
2.078064e+01	-5.936672e+00
2.090066e+01	-5.973757e+00
2.102139e+01	-6.011287e+00
2.114280e+01	-6.048694e+00
2.126492e+01	-6.086403e+00
2.138775e+01	-6.124346e+00
2.151128e+01	-6.161926e+00
2.163553e+01	-6.200436e+00
2.176050e+01	-6.238243e+00
2.188619e+01	-6.275948e+00
2.201260e+01	-6.314501e+00
2.213974e+01	-6.352703e+00
2.226762e+01	-6.391565e+00
2.239624e+01	-6.430326e+00
2.252560e+01	-6.468653e+00
2.265571e+01	-6.507526e+00
2.278656e+01	-6.546304e+00
2.291818e+01	-6.585398e+00
2.305055e+01	-6.624689e+00
2.318369e+01	-6.663955e+00
2.331760e+01	-6.703053e+00
2.345228e+01	-6.742261e+00
2.358774e+01	-6.781717e+00
2.372398e+01	-6.821582e+00
2.386101e+01	-6.861194e+00
2.399883e+01	-6.900866e+00
2.413745e+01	-6.940580e+00
2.427686e+01	-6.980824e+00
2.441709e+01	-7.020379e+00
2.455812e+01	-7.060690e+00
2.469997e+01	-7.101146e+00
2.484263e+01	-7.141515e+00
2.498612e+01	-7.181873e+00
2.513044e+01	-7.222097e+00
2.527559e+01	-7.262966e+00
2.542158e+01	-7.303642e+00
2.556842e+01	-7.344492e+00
2.571610e+01	-7.385075e+00
2.586463e+01	-7.426402e+00
2.601403e+01	-7.467013e+00
2.616428e+01	-7.508306e+00
2.631541e+01	-7.549498e+00
2.646740e+01	-7.590445e+00
2.662028e+01	-7.631977e+00
2.677404e+01	-7.673758e+00
2.692868e+01	-7.714918e+00
2.708422e+01	-7.756113e+00
2.724066e+01	-7.798072e+00
2.739800e+01	-7.839959e+00
2.755625e+01	-7.881801e+00
2.771541e+01	-7.923890e+00
2.787550e+01	-7.966268e+00
2.803650e+01	-8.007422e+00
2.819844e+01	-8.050354e+00
2.836131e+01	-8.092186e+00
2.852513e+01	-8.134457e+00
2.868989e+01	-8.176633e+00
2.885560e+01	-8.219350e+00
2.902227e+01	-8.261909e+00
2.918990e+01	-8.304565e+00
2.935850e+01	-8.347384e+00
2.952807e+01	-8.389683e+00
2.969863e+01	-8.432802e+00
2.987016e+01	-8.475842e+00
3.004269e+01	-8.518767e+00
3.021622e+01	-8.561914e+00
3.039075e+01	-8.604856e+00
3.056628e+01	-8.648114e+00
3.074283e+01	-8.690914e+00
3.092040e+01	-8.734410e+00
3.109900e+01	-8.777592e+00
3.127862e+01	-8.821608e+00
3.145929e+01	-8.864605e+00
3.164099e+01	-8.908240e+00
3.182375e+01	-8.951939e+00
3.200756e+01	-8.995515e+00
3.219244e+01	-9.039422e+00
3.237838e+01	-9.083272e+00
3.256540e+01	-9.126715e+00
3.275349e+01	-9.170711e+00
3.294268e+01	-9.215187e+00
3.313295e+01	-9.259171e+00
3.332433e+01	-9.303290e+00
3.351681e+01	-9.347089e+00
3.371040e+01	-9.391479e+00
3.390511e+01	-9.435789e+00
3.410094e+01	-9.480703e+00
3.429791e+01	-9.524723e+00
3.449601e+01	-9.569138e+00
3.469526e+01	-9.613642e+00
3.489566e+01	-9.658096e+00
3.509721e+01	-9.702658e+00
3.529993e+01	-9.747538e+00
3.550382e+01	-9.791780e+00
3.570889e+01	-9.837773e+00
3.591515e+01	-9.881905e+00
3.612259e+01	-9.927064e+00
3.633123e+01	-9.971807e+00
3.654108e+01	-1.001675e+01
3.675214e+01	-1.006180e+01
3.696442e+01	-1.010684e+01
3.717792e+01	-1.015222e+01
3.739266e+01	-1.019740e+01
3.760864e+01	-1.024300e+01
3.782587e+01	-1.028864e+01
3.804435e+01	-1.033367e+01
3.826409e+01	-1.037857e+01
3.848510e+01	-1.042471e+01
3.870739e+01	-1.047072e+01
3.893096e+01	-1.051525e+01
3.915583e+01	-1.056108e+01
3.938199e+01	-1.060679e+01
3.960946e+01	-1.065255e+01
3.983824e+01	-1.069745e+01
4.006834e+01	-1.074317e+01
4.029978e+01	-1.078950e+01
4.053255e+01	-1.083616e+01
4.076666e+01	-1.088158e+01
4.100213e+01	-1.092713e+01
4.123896e+01	-1.097362e+01
4.147715e+01	-1.101920e+01
4.171672e+01	-1.106603e+01
4.195767e+01	-1.111178e+01
4.220002e+01	-1.115775e+01
4.244377e+01	-1.120445e+01
4.268892e+01	-1.124998e+01
4.293549e+01	-1.129671e+01
4.318348e+01	-1.134312e+01
4.343291e+01	-1.138942e+01
4.368377e+01	-1.143552e+01
4.393609e+01	-1.148219e+01
4.418986e+01	-1.152880e+01
4.444510e+01	-1.157460e+01
4.470182e+01	-1.162226e+01
4.496001e+01	-1.166912e+01
4.521970e+01	-1.171500e+01
4.548089e+01	-1.176179e+01
4.574358e+01	-1.180845e+01
4.600779e+01	-1.185461e+01
4.627353e+01	-1.190252e+01
4.654081e+01	-1.194900e+01
4.680963e+01	-1.199528e+01
4.708000e+01	-1.204293e+01
4.735193e+01	-1.208944e+01
4.762543e+01	-1.213636e+01
4.790051e+01	-1.218332e+01
4.817719e+01	-1.223060e+01
4.845545e+01	-1.227755e+01
4.873533e+01	-1.232489e+01
4.901682e+01	-1.237103e+01
4.929994e+01	-1.241863e+01
4.958470e+01	-1.246583e+01
4.987110e+01	-1.251317e+01
5.015915e+01	-1.256003e+01
5.044887e+01	-1.260768e+01
5.074026e+01	-1.265549e+01
5.103333e+01	-1.270252e+01
5.132810e+01	-1.274979e+01
5.162457e+01	-1.279783e+01
5.192275e+01	-1.284492e+01
5.222265e+01	-1.289161e+01
5.252429e+01	-1.293915e+01
5.282767e+01	-1.298633e+01
5.313280e+01	-1.303522e+01
5.343969e+01	-1.308206e+01
5.374836e+01	-1.312865e+01
5.405880e+01	-1.317802e+01
5.437105e+01	-1.322520e+01
5.468509e+01	-1.327201e+01
5.500095e+01	-1.332037e+01
5.531863e+01	-1.336781e+01
5.563815e+01	-1.341629e+01
5.595951e+01	-1.346361e+01
5.628273e+01	-1.351097e+01
5.660782e+01	-1.355931e+01
5.693479e+01	-1.360662e+01
5.726364e+01	-1.365507e+01
5.759439e+01	-1.370267e+01
5.792705e+01	-1.375049e+01
5.826164e+01	-1.379820e+01
5.859815e+01	-1.384631e+01
5.893662e+01	-1.389438e+01
5.927703e+01	-1.394249e+01
5.961941e+01	-1.399003e+01
5.996377e+01	-1.403861e+01
6.031012e+01	-1.408649e+01
6.065847e+01	-1.413484e+01
6.100883e+01	-1.418317e+01
6.136121e+01	-1.423126e+01
6.171563e+01	-1.427872e+01
6.207210e+01	-1.432660e+01
6.243063e+01	-1.437499e+01
6.279122e+01	-1.442289e+01
6.315390e+01	-1.447106e+01
6.351868e+01	-1.451887e+01
6.388556e+01	-1.456805e+01
6.425456e+01	-1.461648e+01
6.462569e+01	-1.466455e+01
6.499897e+01	-1.471356e+01
6.537440e+01	-1.476154e+01
6.575200e+01	-1.481008e+01
6.613178e+01	-1.485799e+01
6.651375e+01	-1.490601e+01
6.689793e+01	-1.495410e+01
6.728433e+01	-1.500339e+01
6.767297e+01	-1.505241e+01
6.806384e+01	-1.510052e+01
6.845698e+01	-1.514920e+01
6.885238e+01	-1.519736e+01
6.925007e+01	-1.524651e+01
6.965005e+01	-1.529445e+01
7.005235e+01	-1.534320e+01
7.045697e+01	-1.539147e+01
7.086393e+01	-1.544011e+01
7.127323e+01	-1.548901e+01
7.168490e+01	-1.553661e+01
7.209895e+01	-1.558592e+01
7.251539e+01	-1.563372e+01
7.293424e+01	-1.568362e+01
7.335551e+01	-1.573288e+01
7.377920e+01	-1.578057e+01
7.420535e+01	-1.582965e+01
7.463396e+01	-1.587771e+01
7.506504e+01	-1.592729e+01
7.549861e+01	-1.597573e+01
7.593469e+01	-1.602430e+01
7.637328e+01	-1.607215e+01
7.681441e+01	-1.612108e+01
7.725809e+01	-1.617034e+01
7.770433e+01	-1.622023e+01
7.815315e+01	-1.626941e+01
7.860456e+01	-1.631718e+01
7.905857e+01	-1.636672e+01
7.951521e+01	-1.641587e+01
7.997449e+01	-1.646394e+01
8.043642e+01	-1.651294e+01
8.090102e+01	-1.656183e+01
8.136830e+01	-1.661160e+01
8.183828e+01	-1.665970e+01
8.231097e+01	-1.670859e+01
8.278640e+01	-1.675861e+01
8.326457e+01	-1.680581e+01
8.374550e+01	-1.685371e+01
8.422921e+01	-1.690485e+01
8.471572e+01	-1.695331e+01
8.520503e+01	-1.700282e+01
8.569717e+01	-1.705159e+01
8.619215e+01	-1.710167e+01
8.669000e+01	-1.714962e+01
8.719071e+01	-1.719923e+01
8.769432e+01	-1.724818e+01
8.820084e+01	-1.729698e+01
8.871029e+01	-1.734521e+01
8.922267e+01	-1.739531e+01
8.973802e+01	-1.744386e+01
9.025634e+01	-1.749370e+01
9.077766e+01	-1.754298e+01
9.130199e+01	-1.759263e+01
9.182935e+01	-1.764159e+01
9.235975e+01	-1.768987e+01
9.289321e+01	-1.773801e+01
9.342976e+01	-1.778949e+01
9.396941e+01	-1.783726e+01
9.451217e+01	-1.788762e+01
9.505807e+01	-1.793667e+01
9.560712e+01	-1.798515e+01
9.615934e+01	-1.803447e+01
9.671476e+01	-1.808456e+01
9.727338e+01	-1.813358e+01
9.783522e+01	-1.818214e+01
9.840032e+01	-1.823045e+01
9.896867e+01	-1.828125e+01
9.954031e+01	-1.833096e+01
1.001153e+02	-1.837967e+01
1.006935e+02	-1.842892e+01
1.012751e+02	-1.848002e+01
1.018601e+02	-1.852744e+01
1.024484e+02	-1.857728e+01
1.030402e+02	-1.862565e+01
1.036353e+02	-1.867581e+01
1.042339e+02	-1.872570e+01
1.048360e+02	-1.877566e+01
1.054415e+02	-1.882436e+01
1.060505e+02	-1.887378e+01
1.066631e+02	-1.892158e+01
1.072791e+02	-1.897157e+01
1.078988e+02	-1.902067e+01
1.085220e+02	-1.907104e+01
1.091488e+02	-1.912056e+01
1.097793e+02	-1.917015e+01
1.104133e+02	-1.922006e+01
1.110511e+02	-1.926760e+01
1.116925e+02	-1.931873e+01
1.123376e+02	-1.936741e+01
1.129865e+02	-1.941640e+01
1.136391e+02	-1.946650e+01
1.142955e+02	-1.951451e+01
1.149556e+02	-1.956494e+01
1.156196e+02	-1.961534e+01
1.162874e+02	-1.966342e+01
1.169591e+02	-1.971304e+01
1.176347e+02	-1.976247e+01
1.183141e+02	-1.981376e+01
1.189975e+02	-1.986135e+01
1.196848e+02	-1.991293e+01
1.203761e+02	-1.996244e+01
1.210714e+02	-2.001104e+01
1.217707e+02	-2.005979e+01
1.224740e+02	-2.011024e+01
1.231814e+02	-2.015898e+01
1.238929e+02	-2.020880e+01
1.246085e+02	-2.026016e+01
1.253283e+02	-2.030840e+01
1.260522e+02	-2.035696e+01
1.267802e+02	-2.040764e+01
1.275125e+02	-2.045637e+01
1.282490e+02	-2.050648e+01
1.289898e+02	-2.055671e+01
1.297348e+02	-2.060404e+01
1.304842e+02	-2.065578e+01
1.312378e+02	-2.070399e+01
1.319959e+02	-2.075389e+01
1.327583e+02	-2.080367e+01
1.335251e+02	-2.085303e+01
1.342963e+02	-2.090311e+01
1.350720e+02	-2.095267e+01
1.358522e+02	-2.100449e+01
1.366368e+02	-2.105308e+01
1.374260e+02	-2.110175e+01
1.382198e+02	-2.115141e+01
1.390182e+02	-2.120188e+01
1.398211e+02	-2.125164e+01
1.406287e+02	-2.130346e+01
1.414410e+02	-2.135100e+01
1.422579e+02	-2.139928e+01
1.430796e+02	-2.144817e+01
1.439060e+02	-2.149815e+01
1.447372e+02	-2.154938e+01
1.455732e+02	-2.159840e+01
1.464141e+02	-2.164814e+01
1.472597e+02	-2.169841e+01
1.481103e+02	-2.174807e+01
1.489658e+02	-2.179642e+01
1.498262e+02	-2.184695e+01
1.506916e+02	-2.189703e+01
1.515620e+02	-2.194440e+01
1.524374e+02	-2.199737e+01
1.533179e+02	-2.204674e+01
1.542034e+02	-2.209429e+01
1.550941e+02	-2.214558e+01
1.559899e+02	-2.219680e+01
1.568909e+02	-2.224718e+01
1.577971e+02	-2.229685e+01
1.587085e+02	-2.234444e+01
1.596252e+02	-2.239206e+01
1.605472e+02	-2.244332e+01
1.614745e+02	-2.249308e+01
1.624072e+02	-2.254291e+01
1.633453e+02	-2.259200e+01
1.642887e+02	-2.264288e+01
1.652377e+02	-2.269573e+01
1.661921e+02	-2.274419e+01
1.671520e+02	-2.279111e+01
1.681175e+02	-2.284180e+01
1.690885e+02	-2.289193e+01
1.700651e+02	-2.294112e+01
1.710474e+02	-2.299066e+01
1.720354e+02	-2.304032e+01
1.730291e+02	-2.309134e+01
1.740285e+02	-2.314196e+01
1.750337e+02	-2.319130e+01
1.760446e+02	-2.324140e+01
1.770615e+02	-2.328890e+01
1.780842e+02	-2.334358e+01
1.791128e+02	-2.338924e+01
1.801473e+02	-2.343811e+01
1.811878e+02	-2.348969e+01
1.822344e+02	-2.353746e+01
1.832870e+02	-2.358802e+01
1.843456e+02	-2.364056e+01
1.854104e+02	-2.368904e+01
1.864813e+02	-2.373904e+01
1.875584e+02	-2.378927e+01
1.886418e+02	-2.383821e+01
1.897313e+02	-2.388972e+01
1.908272e+02	-2.393660e+01
1.919294e+02	-2.398921e+01
1.930380e+02	-2.403895e+01
1.941530e+02	-2.408458e+01
1.952744e+02	-2.413948e+01
1.964023e+02	-2.418909e+01
1.975367e+02	-2.423793e+01
1.986777e+02	-2.428689e+01
1.998252e+02	-2.433553e+01
2.009794e+02	-2.438669e+01
2.021403e+02	-2.443793e+01
2.033078e+02	-2.448928e+01
2.044821e+02	-2.453587e+01
2.056632e+02	-2.458419e+01
2.068511e+02	-2.463838e+01
2.080459e+02	-2.468368e+01
2.092475e+02	-2.473567e+01
2.104561e+02	-2.478401e+01
2.116717e+02	-2.483782e+01
2.128943e+02	-2.488814e+01
2.141240e+02	-2.493732e+01
2.153608e+02	-2.498668e+01
2.166047e+02	-2.503532e+01
2.178558e+02	-2.508647e+01
2.191141e+02	-2.513494e+01
2.203797e+02	-2.518812e+01
2.216526e+02	-2.523356e+01
2.229329e+02	-2.528634e+01
2.242205e+02	-2.533298e+01
2.255156e+02	-2.538391e+01
2.268182e+02	-2.543323e+01
2.281283e+02	-2.548582e+01
2.294459e+02	-2.553403e+01
2.307712e+02	-2.558337e+01
2.321041e+02	-2.563560e+01
2.334447e+02	-2.568424e+01
2.347931e+02	-2.573199e+01
2.361493e+02	-2.578425e+01
2.375133e+02	-2.583637e+01
2.388851e+02	-2.588170e+01
2.402649e+02	-2.593539e+01
2.416527e+02	-2.598605e+01
2.430484e+02	-2.603470e+01
2.444523e+02	-2.608439e+01
2.458642e+02	-2.613426e+01
2.472843e+02	-2.618485e+01
2.487126e+02	-2.623500e+01
2.501492e+02	-2.628524e+01
2.515940e+02	-2.633785e+01
2.530472e+02	-2.638422e+01
2.545088e+02	-2.643562e+01
2.559789e+02	-2.648117e+01
2.574574e+02	-2.653134e+01
2.589444e+02	-2.658286e+01
2.604401e+02	-2.663355e+01
2.619444e+02	-2.668390e+01
2.634574e+02	-2.673280e+01
2.649791e+02	-2.678430e+01
2.665096e+02	-2.683498e+01
2.680489e+02	-2.688517e+01
2.695972e+02	-2.693362e+01
2.711544e+02	-2.698035e+01
2.727205e+02	-2.703392e+01
2.742958e+02	-2.708516e+01
2.758801e+02	-2.713419e+01
2.774736e+02	-2.718485e+01
2.790762e+02	-2.723813e+01
2.806882e+02	-2.728704e+01
2.823094e+02	-2.733553e+01
2.839400e+02	-2.738438e+01
2.855800e+02	-2.743173e+01
2.872295e+02	-2.748346e+01
2.888886e+02	-2.753473e+01
2.905572e+02	-2.758608e+01
2.922354e+02	-2.763242e+01
2.939234e+02	-2.768314e+01
2.956211e+02	-2.773519e+01
2.973286e+02	-2.777879e+01
2.990459e+02	-2.783506e+01
3.007732e+02	-2.788467e+01
3.025104e+02	-2.793408e+01
3.042577e+02	-2.798361e+01
3.060151e+02	-2.803371e+01
3.077826e+02	-2.808524e+01
3.095604e+02	-2.813342e+01
3.113484e+02	-2.818473e+01
3.131467e+02	-2.823454e+01
3.149554e+02	-2.827909e+01
3.167746e+02	-2.833476e+01
3.186043e+02	-2.838932e+01
3.204445e+02	-2.843175e+01
3.222954e+02	-2.849035e+01
3.241570e+02	-2.853459e+01
3.260293e+02	-2.858436e+01
3.279124e+02	-2.863575e+01
3.298064e+02	-2.868825e+01
3.317114e+02	-2.873708e+01
3.336273e+02	-2.878736e+01
3.355544e+02	-2.883507e+01
3.374925e+02	-2.888530e+01
3.394418e+02	-2.893439e+01
3.414024e+02	-2.898093e+01
3.433744e+02	-2.903543e+01
3.453577e+02	-2.908906e+01
3.473525e+02	-2.913407e+01
3.493588e+02	-2.918328e+01
3.513766e+02	-2.923605e+01
3.534062e+02	-2.928506e+01
3.554474e+02	-2.933068e+01
3.575005e+02	-2.938864e+01
3.595654e+02	-2.943592e+01
3.616422e+02	-2.948552e+01
3.637311e+02	-2.953346e+01
3.658320e+02	-2.958521e+01
3.679450e+02	-2.963058e+01
3.700702e+02	-2.968346e+01
3.722077e+02	-2.973356e+01
3.743576e+02	-2.977949e+01
3.765199e+02	-2.983925e+01
3.786946e+02	-2.988241e+01
3.808820e+02	-2.993815e+01
3.830819e+02	-2.998696e+01
3.852946e+02	-3.003385e+01
3.875200e+02	-3.008354e+01
3.897583e+02	-3.013774e+01
3.920096e+02	-3.018468e+01
3.942738e+02	-3.023788e+01
3.965511e+02	-3.028637e+01
3.988416e+02	-3.033577e+01
4.011452e+02	-3.038931e+01
4.034622e+02	-3.043142e+01
4.057926e+02	-3.049166e+01
4.081365e+02	-3.054221e+01
4.104938e+02	-3.058536e+01
4.128648e+02	-3.063627e+01
4.152495e+02	-3.069459e+01
4.176480e+02	-3.073579e+01
4.200603e+02	-3.079139e+01
4.224866e+02	-3.083572e+01
4.249268e+02	-3.088336e+01
4.273812e+02	-3.093550e+01
4.298497e+02	-3.099325e+01
4.323325e+02	-3.103471e+01
4.348297e+02	-3.109040e+01
4.373412e+02	-3.113913e+01
4.398673e+02	-3.118765e+01
4.424079e+02	-3.124325e+01
4.449633e+02	-3.129113e+01
4.475334e+02	-3.134096e+01
4.501183e+02	-3.138809e+01
4.527182e+02	-3.143626e+01
4.553330e+02	-3.149629e+01
4.579630e+02	-3.154154e+01
4.606082e+02	-3.158567e+01
4.632687e+02	-3.164426e+01
4.659445e+02	-3.169089e+01
4.686358e+02	-3.174240e+01
4.713426e+02	-3.179401e+01
4.740650e+02	-3.184014e+01
4.768032e+02	-3.189791e+01
4.795572e+02	-3.194047e+01
4.823271e+02	-3.198963e+01
4.851130e+02	-3.204361e+01
4.879150e+02	-3.209219e+01
4.907332e+02	-3.214627e+01
4.935676e+02	-3.219055e+01
4.964185e+02	-3.224244e+01
4.992858e+02	-3.229362e+01
5.021696e+02	-3.234087e+01
5.050701e+02	-3.239457e+01
5.079874e+02	-3.244211e+01
5.109215e+02	-3.249052e+01
5.138726e+02	-3.254312e+01
5.168407e+02	-3.259090e+01
5.198259e+02	-3.264190e+01
5.228284e+02	-3.269816e+01
5.258482e+02	-3.273686e+01
5.288855e+02	-3.279308e+01
5.319403e+02	-3.284363e+01
5.350128e+02	-3.289397e+01
5.381030e+02	-3.294272e+01
5.412111e+02	-3.298759e+01
5.443371e+02	-3.304635e+01
5.474812e+02	-3.309872e+01
5.506434e+02	-3.314439e+01
5.538239e+02	-3.319592e+01
5.570228e+02	-3.324805e+01
5.602401e+02	-3.329632e+01
5.634760e+02	-3.334169e+01
5.667306e+02	-3.339572e+01
5.700040e+02	-3.344786e+01
5.732964e+02	-3.349678e+01
5.766077e+02	-3.354694e+01
5.799382e+02	-3.360086e+01
5.832879e+02	-3.365245e+01
5.866569e+02	-3.370662e+01
5.900454e+02	-3.375199e+01
5.934535e+02	-3.381084e+01
5.968813e+02	-3.385278e+01
6.003288e+02	-3.390480e+01
6.037963e+02	-3.395257e+01
6.072838e+02	-3.401226e+01
6.107914e+02	-3.405593e+01
6.143194e+02	-3.410368e+01
6.178676e+02	-3.415958e+01
6.214364e+02	-3.420619e+01
6.250258e+02	-3.425702e+01
6.286359e+02	-3.429986e+01
6.322669e+02	-3.435893e+01
6.359189e+02	-3.440680e+01
6.395919e+02	-3.445795e+01
6.432862e+02	-3.450760e+01
6.470017e+02	-3.455104e+01
6.507388e+02	-3.461023e+01
6.544974e+02	-3.466114e+01
6.582778e+02	-3.470438e+01
6.620800e+02	-3.475407e+01
6.659041e+02	-3.480846e+01
6.697504e+02	-3.484995e+01
6.736188e+02	-3.490651e+01
6.775096e+02	-3.495763e+01
6.814229e+02	-3.501689e+01
6.853587e+02	-3.506002e+01
6.893173e+02	-3.510996e+01
6.932988e+02	-3.516125e+01
6.973033e+02	-3.520698e+01
7.013309e+02	-3.526544e+01
