Frequency(Hz)	Magnitude(dB)
1.000000e+01	-2.208275e+00
1.005776e+01	-2.228297e+00
1.011585e+01	-2.248518e+00
1.017428e+01	-2.268629e+00
1.023305e+01	-2.289151e+00
1.029215e+01	-2.309605e+00
1.035160e+01	-2.330473e+00
1.041139e+01	-2.351219e+00
1.047153e+01	-2.372453e+00
1.053201e+01	-2.393339e+00
1.059284e+01	-2.414689e+00
1.065403e+01	-2.436094e+00
1.071556e+01	-2.457340e+00
1.077746e+01	-2.479163e+00
1.083971e+01	-2.501030e+00
1.090232e+01	-2.523018e+00
1.096529e+01	-2.545201e+00
1.102862e+01	-2.567427e+00
1.109232e+01	-2.589959e+00
1.115639e+01	-2.612504e+00
1.122083e+01	-2.635057e+00
1.128564e+01	-2.657821e+00
1.135083e+01	-2.680877e+00
1.141639e+01	-2.703936e+00
1.148233e+01	-2.727252e+00
1.154865e+01	-2.750781e+00
1.161536e+01	-2.774296e+00
1.168245e+01	-2.797736e+00
1.174992e+01	-2.821580e+00
1.181779e+01	-2.845654e+00
1.188605e+01	-2.869753e+00
1.195470e+01	-2.894237e+00
1.202375e+01	-2.918474e+00
1.209320e+01	-2.942968e+00
1.216305e+01	-2.967665e+00
1.223330e+01	-2.992635e+00
1.230396e+01	-3.017606e+00
1.237503e+01	-3.042840e+00
1.244651e+01	-3.067839e+00
1.251840e+01	-3.093415e+00
1.259070e+01	-3.118955e+00
1.266343e+01	-3.144442e+00
1.273657e+01	-3.170399e+00
1.281014e+01	-3.196458e+00
1.288413e+01	-3.222511e+00
1.295855e+01	-3.248913e+00
1.303339e+01	-3.275372e+00
1.310867e+01	-3.301960e+00
1.318439e+01	-3.328534e+00
1.326054e+01	-3.355283e+00
1.333713e+01	-3.382310e+00
1.341417e+01	-3.409572e+00
1.349165e+01	-3.436879e+00
1.356958e+01	-3.464133e+00
1.364795e+01	-3.491821e+00
1.372678e+01	-3.519536e+00
1.380607e+01	-3.547332e+00
1.388581e+01	-3.575195e+00
1.396602e+01	-3.603688e+00
1.404668e+01	-3.631757e+00
1.412782e+01	-3.659897e+00
1.420942e+01	-3.688838e+00
1.429149e+01	-3.717254e+00
1.437404e+01	-3.746472e+00
1.445706e+01	-3.775145e+00
1.454057e+01	-3.804379e+00
1.462455e+01	-3.833597e+00
1.470902e+01	-3.863013e+00
1.479398e+01	-3.892442e+00
1.487943e+01	-3.922293e+00
1.496537e+01	-3.952029e+00
1.505181e+01	-3.982059e+00
1.513875e+01	-4.012568e+00
1.522619e+01	-4.042263e+00
1.531414e+01	-4.072923e+00
1.540259e+01	-4.103383e+00
1.549156e+01	-4.133924e+00
1.558103e+01	-4.164887e+00
1.567103e+01	-4.195626e+00
1.576155e+01	-4.226815e+00
1.585258e+01	-4.257825e+00
1.594415e+01	-4.288999e+00
1.603624e+01	-4.320887e+00
1.612886e+01	-4.352295e+00
1.622202e+01	-4.384054e+00
1.631572e+01	-4.415654e+00
1.640996e+01	-4.447654e+00
1.650474e+01	-4.479864e+00
1.660008e+01	-4.512234e+00
1.669596e+01	-4.544766e+00
1.679239e+01	-4.577216e+00
1.688938e+01	-4.609774e+00
1.698694e+01	-4.642549e+00
1.708505e+01	-4.675422e+00
1.718373e+01	-4.708461e+00
1.728299e+01	-4.741750e+00
1.738281e+01	-4.775074e+00
1.748322e+01	-4.808245e+00
1.758420e+01	-4.841971e+00
1.768576e+01	-4.875507e+00
1.778792e+01	-4.909634e+00
1.789066e+01	-4.943493e+00
1.799399e+01	-4.977420e+00
1.809793e+01	-5.011569e+00
1.820246e+01	-5.046041e+00
1.830760e+01	-5.080335e+00
1.841334e+01	-5.115043e+00
1.851969e+01	-5.149540e+00
1.862666e+01	-5.184333e+00
1.873425e+01	-5.219550e+00
1.884246e+01	-5.254153e+00
1.895129e+01	-5.289508e+00
1.906075e+01	-5.324866e+00
1.917085e+01	-5.360337e+00
1.928158e+01	-5.395694e+00
1.939295e+01	-5.431479e+00
1.950496e+01	-5.467238e+00
1.961762e+01	-5.503161e+00
1.973093e+01	-5.539015e+00
1.984490e+01	-5.574838e+00
1.995952e+01	-5.611432e+00
2.007480e+01	-5.647808e+00
2.019076e+01	-5.684098e+00
2.030738e+01	-5.720661e+00
2.042467e+01	-5.757075e+00
2.054264e+01	-5.794426e+00
2.066130e+01	-5.831016e+00
2.078064e+01	-5.868151e+00
2.090066e+01	-5.905553e+00
2.102139e+01	-5.942537e+00
2.114280e+01	-5.980040e+00
2.126492e+01	-6.017261e+00
2.138775e+01	-6.055176e+00
2.151128e+01	-6.092668e+00
2.163553e+01	-6.130134e+00
2.176050e+01	-6.167959e+00
2.188619e+01	-6.206096e+00
2.201260e+01	-6.244331e+00
2.213974e+01	-6.282768e+00
2.226762e+01	-6.320589e+00
2.239624e+01	-6.359055e+00
2.252560e+01	-6.397789e+00
2.265571e+01	-6.436514e+00
2.278656e+01	-6.474960e+00
2.291818e+01	-6.514068e+00
2.305055e+01	-6.552707e+00
2.318369e+01	-6.591899e+00
2.331760e+01	-6.630814e+00
2.345228e+01	-6.670204e+00
2.358774e+01	-6.709128e+00
2.372398e+01	-6.748785e+00
2.386101e+01	-6.788481e+00
2.399883e+01	-6.827810e+00
2.413745e+01	-6.867538e+00
2.427686e+01	-6.907217e+00
2.441709e+01	-6.947129e+00
2.455812e+01	-6.986942e+00
2.469997e+01	-7.027619e+00
2.484263e+01	-7.067340e+00
2.498612e+01	-7.107308e+00
2.513044e+01	-7.147876e+00
2.527559e+01	-7.188364e+00
2.542158e+01	-7.229543e+00
2.556842e+01	-7.269697e+00
2.571610e+01	-7.310344e+00
2.586463e+01	-7.351139e+00
2.601403e+01	-7.391749e+00
2.616428e+01	-7.432888e+00
2.631541e+01	-7.473645e+00
2.646740e+01	-7.514932e+00
2.662028e+01	-7.556199e+00
2.677404e+01	-7.597179e+00
2.692868e+01	-7.638851e+00
2.708422e+01	-7.680332e+00
2.724066e+01	-7.721342e+00
2.739800e+01	-7.763455e+00
2.755625e+01	-7.804907e+00
2.771541e+01	-7.846663e+00
2.787550e+01	-7.888661e+00
2.803650e+01	-7.930472e+00
2.819844e+01	-7.972787e+00
2.836131e+01	-8.014964e+00
2.852513e+01	-8.056713e+00
2.868989e+01	-8.098814e+00
2.885560e+01	-8.141245e+00
2.902227e+01	-8.184084e+00
2.918990e+01	-8.226310e+00
2.935850e+01	-8.268502e+00
2.952807e+01	-8.311212e+00
2.969863e+01	-8.354190e+00
2.987016e+01	-8.397092e+00
3.004269e+01	-8.440133e+00
3.021622e+01	-8.482789e+00
3.039075e+01	-8.525575e+00
3.056628e+01	-8.568913e+00
3.074283e+01	-8.611895e+00
3.092040e+01	-8.655327e+00
3.109900e+01	-8.698091e+00
3.127862e+01	-8.741102e+00
3.145929e+01	-8.784598e+00
3.164099e+01	-8.828601e+00
3.182375e+01	-8.871906e+00
3.200756e+01	-8.915273e+00
3.219244e+01	-8.958949e+00
3.237838e+01	-9.003008e+00
3.256540e+01	-9.046408e+00
3.275349e+01	-9.089877e+00
3.294268e+01	-9.134186e+00
3.313295e+01	-9.177710e+00
3.332433e+01	-9.222354e+00
3.351681e+01	-9.265936e+00
3.371040e+01	-9.310412e+00
3.390511e+01	-9.354204e+00
3.410094e+01	-9.399021e+00
3.429791e+01	-9.443034e+00
3.449601e+01	-9.487474e+00
3.469526e+01	-9.531737e+00
3.489566e+01	-9.576467e+00
3.509721e+01	-9.621030e+00
3.529993e+01	-9.665436e+00
3.550382e+01	-9.710346e+00
3.570889e+01	-9.755221e+00
3.591515e+01	-9.799590e+00
3.612259e+01	-9.844617e+00
3.633123e+01	-9.889054e+00
3.654108e+01	-9.934417e+00
3.675214e+01	-9.979239e+00
3.696442e+01	-1.002450e+01
3.717792e+01	-1.006926e+01
3.739266e+01	-1.011441e+01
3.760864e+01	-1.015952e+01
3.782587e+01	-1.020469e+01
3.804435e+01	-1.025010e+01
3.826409e+01	-1.029563e+01
3.848510e+01	-1.034050e+01
3.870739e+01	-1.038516e+01
3.893096e+01	-1.043175e+01
3.915583e+01	-1.047693e+01
3.938199e+01	-1.052311e+01
3.960946e+01	-1.056837e+01
3.983824e+01	-1.061429e+01
4.006834e+01	-1.065966e+01
4.029978e+01	-1.070531e+01
4.053255e+01	-1.075094e+01
4.076666e+01	-1.079730e+01
4.100213e+01	-1.084303e+01
4.123896e+01	-1.088914e+01
4.147715e+01	-1.093490e+01
4.171672e+01	-1.098149e+01
4.195767e+01	-1.102668e+01
4.220002e+01	-1.107263e+01
4.244377e+01	-1.111905e+01
4.268892e+01	-1.116540e+01
4.293549e+01	-1.121157e+01
4.318348e+01	-1.125770e+01
4.343291e+01	-1.130378e+01
4.368377e+01	-1.135075e+01
4.393609e+01	-1.139705e+01
4.418986e+01	-1.144284e+01
4.444510e+01	-1.148933e+01
4.470182e+01	-1.153600e+01
4.496001e+01	-1.158276e+01
4.521970e+01	-1.163015e+01
4.548089e+01	-1.167559e+01
4.574358e+01	-1.172339e+01
4.600779e+01	-1.176931e+01
4.627353e+01	-1.181612e+01
4.654081e+01	-1.186353e+01
4.680963e+01	-1.190905e+01
4.708000e+01	-1.195678e+01
4.735193e+01	-1.200345e+01
4.762543e+01	-1.205030e+01
4.790051e+01	-1.209705e+01
4.817719e+01	-1.214437e+01
4.845545e+01	-1.219099e+01
4.873533e+01	-1.223768e+01
4.901682e+01	-1.228538e+01
4.929994e+01	-1.233237e+01
4.958470e+01	-1.237992e+01
4.987110e+01	-1.242629e+01
5.015915e+01	-1.247361e+01
5.044887e+01	-1.252050e+01
5.074026e+01	-1.256818e+01
5.103333e+01	-1.261519e+01
5.132810e+01	-1.266231e+01
5.162457e+01	-1.271004e+01
5.192275e+01	-1.275685e+01
5.222265e+01	-1.280475e+01
5.252429e+01	-1.285200e+01
5.282767e+01	-1.289917e+01
5.313280e+01	-1.294726e+01
5.343969e+01	-1.299395e+01
5.374836e+01	-1.304210e+01
5.405880e+01	-1.308930e+01
5.437105e+01	-1.313702e+01
5.468509e+01	-1.318573e+01
5.500095e+01	-1.323263e+01
5.531863e+01	-1.327981e+01
5.563815e+01	-1.332747e+01
5.595951e+01	-1.337577e+01
5.628273e+01	-1.342317e+01
5.660782e+01	-1.347082e+01
5.693479e+01	-1.351860e+01
5.726364e+01	-1.356688e+01
5.759439e+01	-1.361468e+01
5.792705e+01	-1.366268e+01
5.826164e+01	-1.371020e+01
5.859815e+01	-1.375838e+01
5.893662e+01	-1.380613e+01
5.927703e+01	-1.385471e+01
5.961941e+01	-1.390146e+01
5.996377e+01	-1.394972e+01
6.031012e+01	-1.399902e+01
6.065847e+01	-1.404650e+01
6.100883e+01	-1.409375e+01
6.136121e+01	-1.414207e+01
6.171563e+01	-1.419044e+01
6.207210e+01	-1.423771e+01
6.243063e+01	-1.428706e+01
6.279122e+01	-1.433507e+01
6.315390e+01	-1.438254e+01
6.351868e+01	-1.443152e+01
6.388556e+01	-1.447883e+01
6.425456e+01	-1.452805e+01
6.462569e+01	-1.457623e+01
6.499897e+01	-1.462351e+01
6.537440e+01	-1.467212e+01
6.575200e+01	-1.472107e+01
6.613178e+01	-1.476874e+01
6.651375e+01	-1.481798e+01
6.689793e+01	-1.486624e+01
6.728433e+01	-1.491514e+01
6.767297e+01	-1.496273e+01
6.806384e+01	-1.501113e+01
6.845698e+01	-1.506071e+01
6.885238e+01	-1.510815e+01
6.925007e+01	-1.515732e+01
6.965005e+01	-1.520534e+01
7.005235e+01	-1.525368e+01
7.045697e+01	-1.530297e+01
7.086393e+01	-1.535112e+01
7.127323e+01	-1.539929e+01
7.168490e+01	-1.544861e+01
7.209895e+01	-1.549685e+01
7.251539e+01	-1.554527e+01
7.293424e+01	-1.559500e+01
7.335551e+01	-1.564298e+01
7.377920e+01	-1.569082e+01
7.420535e+01	-1.574058e+01
7.463396e+01	-1.578872e+01
7.506504e+01	-1.583727e+01
7.549861e+01	-1.588606e+01
7.593469e+01	-1.593575e+01
7.637328e+01	-1.598363e+01
7.681441e+01	-1.603248e+01
7.725809e+01	-1.608088e+01
7.770433e+01	-1.613099e+01
7.815315e+01	-1.617860e+01
7.860456e+01	-1.622894e+01
7.905857e+01	-1.627766e+01
7.951521e+01	-1.632583e+01
7.997449e+01	-1.637459e+01
8.043642e+01	-1.642284e+01
8.090102e+01	-1.647198e+01
8.136830e+01	-1.652083e+01
8.183828e+01	-1.657067e+01
8.231097e+01	-1.661884e+01
8.278640e+01	-1.666789e+01
8.326457e+01	-1.671719e+01
8.374550e+01	-1.676569e+01
8.422921e+01	-1.681387e+01
8.471572e+01	-1.686374e+01
8.520503e+01	-1.691296e+01
8.569717e+01	-1.696200e+01
8.619215e+01	-1.701071e+01
8.669000e+01	-1.706109e+01
8.719071e+01	-1.710827e+01
8.769432e+01	-1.715782e+01
8.820084e+01	-1.720711e+01
8.871029e+01	-1.725634e+01
8.922267e+01	-1.730533e+01
8.973802e+01	-1.735324e+01
9.025634e+01	-1.740366e+01
9.077766e+01	-1.745324e+01
9.130199e+01	-1.750199e+01
9.182935e+01	-1.754992e+01
9.235975e+01	-1.759997e+01
9.289321e+01	-1.764857e+01
9.342976e+01	-1.769851e+01
9.396941e+01	-1.774730e+01
9.451217e+01	-1.779524e+01
9.505807e+01	-1.784552e+01
9.560712e+01	-1.789513e+01
9.615934e+01	-1.794320e+01
9.671476e+01	-1.799453e+01
9.727338e+01	-1.804296e+01
9.783522e+01	-1.809233e+01
9.840032e+01	-1.813995e+01
9.896867e+01	-1.819202e+01
9.954031e+01	-1.823954e+01
1.001153e+02	-1.828750e+01
1.006935e+02	-1.833759e+01
1.012751e+02	-1.838657e+01
1.018601e+02	-1.843712e+01
1.024484e+02	-1.848575e+01
1.030402e+02	-1.853570e+01
1.036353e+02	-1.858474e+01
1.042339e+02	-1.863360e+01
1.048360e+02	-1.868310e+01
1.054415e+02	-1.873436e+01
1.060505e+02	-1.878302e+01
1.066631e+02	-1.883176e+01
1.072791e+02	-1.888145e+01
1.078988e+02	-1.893097e+01
1.085220e+02	-1.898008e+01
1.091488e+02	-1.902809e+01
1.097793e+02	-1.907895e+01
1.104133e+02	-1.912822e+01
1.110511e+02	-1.917648e+01
1.116925e+02	-1.922808e+01
1.123376e+02	-1.927519e+01
1.129865e+02	-1.932587e+01
1.136391e+02	-1.937557e+01
1.142955e+02	-1.942544e+01
1.149556e+02	-1.947433e+01
1.156196e+02	-1.952374e+01
1.162874e+02	-1.957328e+01
1.169591e+02	-1.962344e+01
1.176347e+02	-1.967205e+01
1.183141e+02	-1.972286e+01
1.189975e+02	-1.977173e+01
1.196848e+02	-1.982071e+01
1.203761e+02	-1.987109e+01
1.210714e+02	-1.992041e+01
1.217707e+02	-1.996942e+01
1.224740e+02	-2.001805e+01
1.231814e+02	-2.006711e+01
1.238929e+02	-2.011873e+01
1.246085e+02	-2.016832e+01
1.253283e+02	-2.021705e+01
1.260522e+02	-2.026615e+01
1.267802e+02	-2.031653e+01
1.275125e+02	-2.036570e+01
1.282490e+02	-2.041523e+01
1.289898e+02	-2.046408e+01
1.297348e+02	-2.051343e+01
1.304842e+02	-2.056372e+01
1.312378e+02	-2.061530e+01
1.319959e+02	-2.066400e+01
1.327583e+02	-2.071388e+01
1.335251e+02	-2.076191e+01
1.342963e+02	-2.081157e+01
1.350720e+02	-2.086144e+01
1.358522e+02	-2.091237e+01
1.366368e+02	-2.096357e+01
1.374260e+02	-2.100960e+01
1.382198e+02	-2.106165e+01
1.390182e+02	-2.111016e+01
1.398211e+02	-2.115993e+01
1.406287e+02	-2.120870e+01
1.414410e+02	-2.125932e+01
1.422579e+02	-2.130979e+01
1.430796e+02	-2.135775e+01
1.439060e+02	-2.140955e+01
1.447372e+02	-2.145812e+01
1.455732e+02	-2.150717e+01
1.464141e+02	-2.155714e+01
1.472597e+02	-2.160636e+01
1.481103e+02	-2.165617e+01
1.489658e+02	-2.170745e+01
1.498262e+02	-2.175669e+01
1.506916e+02	-2.180578e+01
1.515620e+02	-2.185438e+01
1.524374e+02	-2.190583e+01
1.533179e+02	-2.195414e+01
1.542034e+02	-2.200530e+01
1.550941e+02	-2.205584e+01
1.559899e+02	-2.210404e+01
1.568909e+02	-2.215461e+01
1.577971e+02	-2.220376e+01
1.587085e+02	-2.225397e+01
1.596252e+02	-2.230373e+01
1.605472e+02	-2.235195e+01
1.614745e+02	-2.240373e+01
1.624072e+02	-2.245125e+01
1.633453e+02	-2.250345e+01
1.642887e+02	-2.255204e+01
1.652377e+02	-2.260211e+01
1.661921e+02	-2.265215e+01
1.671520e+02	-2.270198e+01
1.681175e+02	-2.274921e+01
1.690885e+02	-2.279929e+01
1.700651e+02	-2.285071e+01
1.710474e+02	-2.289798e+01
1.720354e+02	-2.295181e+01
1.730291e+02	-2.300083e+01
1.740285e+02	-2.304987e+01
1.750337e+02	-2.309958e+01
1.760446e+02	-2.314898e+01
1.770615e+02	-2.320039e+01
1.780842e+02	-2.324539e+01
1.791128e+02	-2.329930e+01
1.801473e+02	-2.334701e+01
1.811878e+02	-2.339722e+01
1.822344e+02	-2.344749e+01
1.832870e+02	-2.349792e+01
1.843456e+02	-2.354699e+01
1.854104e+02	-2.359815e+01
1.864813e+02	-2.364664e+01
1.875584e+02	-2.369787e+01
1.886418e+02	-2.374632e+01
1.897313e+02	-2.379771e+01
1.908272e+02	-2.384662e+01
1.919294e+02	-2.389767e+01
1.930380e+02	-2.394489e+01
1.941530e+02	-2.399712e+01
1.952744e+02	-2.404813e+01
1.964023e+02	-2.409758e+01
1.975367e+02	-2.414687e+01
1.986777e+02	-2.419772e+01
1.998252e+02	-2.424594e+01
2.009794e+02	-2.429551e+01
2.021403e+02	-2.434581e+01
2.033078e+02	-2.439566e+01
2.044821e+02	-2.444403e+01
2.056632e+02	-2.449390e+01
2.068511e+02	-2.454571e+01
2.080459e+02	-2.459420e+01
2.092475e+02	-2.464381e+01
2.104561e+02	-2.469395e+01
2.116717e+02	-2.474576e+01
2.128943e+02	-2.479451e+01
2.141240e+02	-2.484282e+01
2.153608e+02	-2.489272e+01
2.166047e+02	-2.494263e+01
2.178558e+02	-2.499146e+01
2.191141e+02	-2.504431e+01
2.203797e+02	-2.509536e+01
2.216526e+02	-2.514216e+01
2.229329e+02	-2.519237e+01
2.242205e+02	-2.524372e+01
2.255156e+02	-2.529576e+01
2.268182e+02	-2.534421e+01
2.281283e+02	-2.539162e+01
2.294459e+02	-2.544285e+01
2.307712e+02	-2.549363e+01
2.321041e+02	-2.554316e+01
2.334447e+02	-2.559317e+01
2.347931e+02	-2.564327e+01
2.361493e+02	-2.569265e+01
2.375133e+02	-2.574495e+01
2.388851e+02	-2.579417e+01
2.402649e+02	-2.584422e+01
2.416527e+02	-2.589393e+01
2.430484e+02	-2.594496e+01
2.444523e+02	-2.599446e+01
2.458642e+02	-2.604495e+01
2.472843e+02	-2.609182e+01
2.487126e+02	-2.614300e+01
2.501492e+02	-2.618948e+01
2.515940e+02	-2.624113e+01
2.530472e+02	-2.628961e+01
2.545088e+02	-2.634235e+01
2.559789e+02	-2.639085e+01
2.574574e+02	-2.644268e+01
2.589444e+02	-2.649078e+01
2.604401e+02	-2.654328e+01
2.619444e+02	-2.659169e+01
2.634574e+02	-2.664127e+01
2.649791e+02	-2.669182e+01
2.665096e+02	-2.674178e+01
2.680489e+02	-2.678963e+01
2.695972e+02	-2.683945e+01
2.711544e+02	-2.689017e+01
2.727205e+02	-2.694214e+01
2.742958e+02	-2.699376e+01
2.758801e+02	-2.704110e+01
2.774736e+02	-2.709034e+01
2.790762e+02	-2.714325e+01
2.806882e+02	-2.719163e+01
2.823094e+02	-2.724392e+01
2.839400e+02	-2.728962e+01
2.855800e+02	-2.734253e+01
2.872295e+02	-2.739346e+01
2.888886e+02	-2.744469e+01
2.905572e+02	-2.748614e+01
2.922354e+02	-2.753955e+01
2.939234e+02	-2.759086e+01
2.956211e+02	-2.763888e+01
2.973286e+02	-2.769456e+01
2.990459e+02	-2.773951e+01
3.007732e+02	-2.779423e+01
3.025104e+02	-2.784453e+01
3.042577e+02	-2.789357e+01
3.060151e+02	-2.794177e+01
3.077826e+02	-2.799320e+01
3.095604e+02	-2.803822e+01
3.113484e+02	-2.809391e+01
3.131467e+02	-2.814503e+01
3.149554e+02	-2.819083e+01
3.167746e+02	-2.824322e+01
3.186043e+02	-2.829130e+01
3.204445e+02	-2.834308e+01
3.222954e+02	-2.839203e+01
3.241570e+02	-2.844028e+01
3.260293e+02	-2.849446e+01
3.279124e+02	-2.854084e+01
3.298064e+02	-2.859131e+01
3.317114e+02	-2.864377e+01
3.336273e+02	-2.869288e+01
3.355544e+02	-2.874061e+01
3.374925e+02	-2.879216e+01
3.394418e+02	-2.884181e+01
3.414024e+02	-2.889019e+01
3.433744e+02	-2.894428e+01
3.453577e+02	-2.899105e+01
3.473525e+02	-2.903944e+01
3.493588e+02	-2.909325e+01
3.513766e+02	-2.914235e+01
3.534062e+02	-2.919274e+01
3.554474e+02	-2.924268e+01
3.575005e+02	-2.928906e+01
3.595654e+02	-2.934271e+01
3.616422e+02	-2.939013e+01
3.637311e+02	-2.944532e+01
3.658320e+02	-2.949122e+01
3.679450e+02	-2.953907e+01
3.700702e+02	-2.959288e+01
3.722077e+02	-2.963750e+01
3.743576e+02	-2.969048e+01
3.765199e+02	-2.974401e+01
3.786946e+02	-2.979265e+01
3.808820e+02	-2.984725e+01
3.830819e+02	-2.989442e+01
3.852946e+02	-2.994526e+01
3.875200e+02	-2.999677e+01
3.897583e+02	-3.004391e+01
3.920096e+02	-3.009486e+01
3.942738e+02	-3.014316e+01
3.965511e+02	-3.018783e+01
3.988416e+02	-3.024555e+01
4.011452e+02	-3.029700e+01
4.034622e+02	-3.034612e+01
4.057926e+02	-3.039965e+01
4.081365e+02	-3.044599e+01
4.104938e+02	-3.049263e+01
4.128648e+02	-3.054510e+01
4.152495e+02	-3.059507e+01
4.176480e+02	-3.064289e+01
4.200603e+02	-3.069563e+01
4.224866e+02	-3.074199e+01
4.249268e+02	-3.079669e+01
4.273812e+02	-3.084579e+01
4.298497e+02	-3.089550e+01
4.323325e+02	-3.094794e+01
4.348297e+02	-3.099951e+01
4.373412e+02	-3.104847e+01
4.398673e+02	-3.109359e+01
4.424079e+02	-3.114701e+01
4.449633e+02	-3.120264e+01
4.475334e+02	-3.125029e+01
4.501183e+02	-3.129481e+01
4.527182e+02	-3.134372e+01
4.553330e+02	-3.140029e+01
4.579630e+02	-3.144756e+01
4.606082e+02	-3.149673e+01
4.632687e+02	-3.155143e+01
4.659445e+02	-3.160321e+01
4.686358e+02	-3.164342e+01
4.713426e+02	-3.169913e+01
4.740650e+02	-3.175181e+01
4.768032e+02	-3.180397e+01
4.795572e+02	-3.184314e+01
4.823271e+02	-3.189750e+01
4.851130e+02	-3.194491e+01
4.879150e+02	-3.200202e+01
4.907332e+02	-3.204946e+01
4.935676e+02	-3.210193e+01
4.964185e+02	-3.214451e+01
4.992858e+02	-3.220397e+01
5.021696e+02	-3.225040e+01
5.050701e+02	-3.230430e+01
5.079874e+02	-3.235551e+01
5.109215e+02	-3.240348e+01
5.138726e+02	-3.245163e+01
5.168407e+02	-3.250992e+01
5.198259e+02	-3.255615e+01
5.228284e+02	-3.260310e+01
5.258482e+02	-3.265596e+01
5.288855e+02	-3.269891e+01
5.319403e+02	-3.275572e+01
5.350128e+02	-3.280285e+01
5.381030e+02	-3.286107e+01
5.412111e+02	-3.290274e+01
5.443371e+02	-3.294852e+01
5.474812e+02	-3.299816e+01
5.506434e+02	-3.305858e+01
5.538239e+02	-3.310422e+01
5.570228e+02	-3.315151e+01
5.602401e+02	-3.321028e+01
5.634760e+02	-3.325333e+01
5.667306e+02	-3.330244e+01
5.700040e+02	-3.335813e+01
5.732964e+02	-3.340505e+01
5.766077e+02	-3.345158e+01
5.799382e+02	-3.350793e+01
5.832879e+02	-3.355809e+01
5.866569e+02	-3.360634e+01
5.900454e+02	-3.366123e+01
5.934535e+02	-3.370790e+01
5.968813e+02	-3.375939e+01
6.003288e+02	-3.380835e+01
6.037963e+02	-3.386066e+01
6.072838e+02	-3.390401e+01
6.107914e+02	-3.396055e+01
6.143194e+02	-3.401104e+01
6.178676e+02	-3.405472e+01
6.214364e+02	-3.410525e+01
6.250258e+02	-3.416380e+01
6.286359e+02	-3.422340e+01
6.322669e+02	-3.426291e+01
6.359189e+02	-3.431216e+01
6.395919e+02	-3.436457e+01
6.432862e+02	-3.441313e+01
6.470017e+02	-3.446871e+01
6.507388e+02	-3.451590e+01
6.544974e+02	-3.457109e+01
6.582778e+02	-3.461288e+01
6.620800e+02	-3.466821e+01
6.659041e+02	-3.471106e+01
6.697504e+02	-3.476498e+01
6.736188e+02	-3.482431e+01
6.775096e+02	-3.486238e+01
6.814229e+02	-3.491778e+01
6.853587e+02	-3.496856e+01
6.893173e+02	-3.502322e+01
6.932988e+02	-3.505935e+01
6.973033e+02	-3.512055e+01
7.013309e+02	-3.516781e+01
