Frequency(Hz)	Magnitude(dB)
1.000000e+01	-2.027190e+00
1.005776e+01	-2.046173e+00
1.011585e+01	-2.065031e+00
1.017428e+01	-2.083839e+00
1.023305e+01	-2.102879e+00
1.029215e+01	-2.122535e+00
1.035160e+01	-2.141623e+00
1.041139e+01	-2.161118e+00
1.047153e+01	-2.180986e+00
1.053201e+01	-2.200834e+00
1.059284e+01	-2.220589e+00
1.065403e+01	-2.240767e+00
1.071556e+01	-2.261017e+00
1.077746e+01	-2.281527e+00
1.083971e+01	-2.302110e+00
1.090232e+01	-2.322517e+00
1.096529e+01	-2.343293e+00
1.102862e+01	-2.364068e+00
1.109232e+01	-2.385411e+00
1.115639e+01	-2.406521e+00
1.122083e+01	-2.428165e+00
1.128564e+01	-2.449404e+00
1.135083e+01	-2.470790e+00
1.141639e+01	-2.492854e+00
1.148233e+01	-2.514828e+00
1.154865e+01	-2.536891e+00
1.161536e+01	-2.558863e+00
1.168245e+01	-2.581487e+00
1.174992e+01	-2.603709e+00
1.181779e+01	-2.626630e+00
1.188605e+01	-2.649172e+00
1.195470e+01	-2.672304e+00
1.202375e+01	-2.694983e+00
1.209320e+01	-2.718315e+00
1.216305e+01	-2.741702e+00
1.223330e+01	-2.765347e+00
1.230396e+01	-2.788705e+00
1.237503e+01	-2.812633e+00
1.244651e+01	-2.836435e+00
1.251840e+01	-2.860632e+00
1.259070e+01	-2.884838e+00
1.266343e+01	-2.909178e+00
1.273657e+01	-2.933670e+00
1.281014e+01	-2.958375e+00
1.288413e+01	-2.983245e+00
1.295855e+01	-3.008078e+00
1.303339e+01	-3.033139e+00
1.310867e+01	-3.058379e+00
1.318439e+01	-3.083578e+00
1.326054e+01	-3.109311e+00
1.333713e+01	-3.134706e+00
1.341417e+01	-3.160657e+00
1.349165e+01	-3.186558e+00
1.356958e+01	-3.212537e+00
1.364795e+01	-3.239268e+00
1.372678e+01	-3.265361e+00
1.380607e+01	-3.291812e+00
1.388581e+01	-3.318477e+00
1.396602e+01	-3.345416e+00
1.404668e+01	-3.372350e+00
1.412782e+01	-3.398916e+00
1.420942e+01	-3.426679e+00
1.429149e+01	-3.453733e+00
1.437404e+01	-3.481262e+00
1.445706e+01	-3.509162e+00
1.454057e+01	-3.536796e+00
1.462455e+01	-3.564894e+00
1.470902e+01	-3.592701e+00
1.479398e+01	-3.621257e+00
1.487943e+01	-3.649483e+00
1.496537e+01	-3.677700e+00
1.505181e+01	-3.706697e+00
1.513875e+01	-3.735218e+00
1.522619e+01	-3.764294e+00
1.531414e+01	-3.793538e+00
1.540259e+01	-3.822574e+00
1.549156e+01	-3.851712e+00
1.558103e+01	-3.881372e+00
1.567103e+01	-3.911019e+00
1.576155e+01	-3.940770e+00
1.585258e+01	-3.970628e+00
1.594415e+01	-4.000702e+00
1.603624e+01	-4.031113e+00
1.612886e+01	-4.061269e+00
1.622202e+01	-4.091378e+00
1.631572e+01	-4.122487e+00
1.640996e+01	-4.152857e+00
1.650474e+01	-4.183857e+00
1.660008e+01	-4.215022e+00
1.669596e+01	-4.246284e+00
1.679239e+01	-4.277276e+00
1.688938e+01	-4.308678e+00
1.698694e+01	-4.340140e+00
1.708505e+01	-4.372044e+00
1.718373e+01	-4.403779e+00
1.728299e+01	-4.435835e+00
1.738281e+01	-4.467658e+00
1.748322e+01	-4.499898e+00
1.758420e+01	-4.532575e+00
1.768576e+01	-4.564843e+00
1.778792e+01	-4.597411e+00
1.789066e+01	-4.630177e+00
1.799399e+01	-4.663092e+00
1.809793e+01	-4.696130e+00
1.820246e+01	-4.728983e+00
1.830760e+01	-4.762245e+00
1.841334e+01	-4.795521e+00
1.851969e+01	-4.829372e+00
1.862666e+01	-4.863127e+00
1.873425e+01	-4.896804e+00
1.884246e+01	-4.930520e+00
1.895129e+01	-4.964335e+00
1.906075e+01	-4.998595e+00
1.917085e+01	-5.033045e+00
1.928158e+01	-5.067584e+00
1.939295e+01	-5.101602e+00
1.950496e+01	-5.136496e+00
1.961762e+01	-5.171189e+00
1.973093e+01	-5.205959e+00
1.984490e+01	-5.241198e+00
1.995952e+01	-5.276382e+00
2.007480e+01	-5.311675e+00
2.019076e+01	-5.346750e+00
2.030738e+01	-5.382576e+00
2.042467e+01	-5.418025e+00
2.054264e+01	-5.453789e+00
2.066130e+01	-5.489504e+00
2.078064e+01	-5.525806e+00
2.090066e+01	-5.561526e+00
2.102139e+01	-5.597719e+00
2.114280e+01	-5.634108e+00
2.126492e+01	-5.670413e+00
2.138775e+01	-5.707053e+00
2.151128e+01	-5.743470e+00
2.163553e+01	-5.780256e+00
2.176050e+01	-5.817298e+00
2.188619e+01	-5.854072e+00
2.201260e+01	-5.890893e+00
2.213974e+01	-5.928660e+00
2.226762e+01	-5.965609e+00
2.239624e+01	-6.003668e+00
2.252560e+01	-6.040570e+00
2.265571e+01	-6.078168e+00
2.278656e+01	-6.116142e+00
2.291818e+01	-6.154044e+00
2.305055e+01	-6.191903e+00
2.318369e+01	-6.229859e+00
2.331760e+01	-6.267709e+00
2.345228e+01	-6.306476e+00
2.358774e+01	-6.345001e+00
2.372398e+01	-6.383398e+00
2.386101e+01	-6.421920e+00
2.399883e+01	-6.460190e+00
2.413745e+01	-6.499420e+00
2.427686e+01	-6.537991e+00
2.441709e+01	-6.577017e+00
2.455812e+01	-6.616228e+00
2.469997e+01	-6.655144e+00
2.484263e+01	-6.694335e+00
2.498612e+01	-6.733742e+00
2.513044e+01	-6.773189e+00
2.527559e+01	-6.812879e+00
2.542158e+01	-6.852436e+00
2.556842e+01	-6.892226e+00
2.571610e+01	-6.932531e+00
2.586463e+01	-6.972390e+00
2.601403e+01	-7.012062e+00
2.616428e+01	-7.052453e+00
2.631541e+01	-7.092227e+00
2.646740e+01	-7.132618e+00
2.662028e+01	-7.173161e+00
2.677404e+01	-7.213790e+00
2.692868e+01	-7.254192e+00
2.708422e+01	-7.294612e+00
2.724066e+01	-7.335417e+00
2.739800e+01	-7.376524e+00
2.755625e+01	-7.417475e+00
2.771541e+01	-7.458226e+00
2.787550e+01	-7.499493e+00
2.803650e+01	-7.540207e+00
2.819844e+01	-7.581968e+00
2.836131e+01	-7.622807e+00
2.852513e+01	-7.664620e+00
2.868989e+01	-7.706128e+00
2.885560e+01	-7.747466e+00
2.902227e+01	-7.789402e+00
2.918990e+01	-7.831176e+00
2.935850e+01	-7.873221e+00
2.952807e+01	-7.914909e+00
2.969863e+01	-7.956840e+00
2.987016e+01	-7.998913e+00
3.004269e+01	-8.040932e+00
3.021622e+01	-8.082846e+00
3.039075e+01	-8.125446e+00
3.056628e+01	-8.168015e+00
3.074283e+01	-8.210267e+00
3.092040e+01	-8.252633e+00
3.109900e+01	-8.294743e+00
3.127862e+01	-8.337770e+00
3.145929e+01	-8.380413e+00
3.164099e+01	-8.423849e+00
3.182375e+01	-8.466875e+00
3.200756e+01	-8.509440e+00
3.219244e+01	-8.552488e+00
3.237838e+01	-8.595574e+00
3.256540e+01	-8.638460e+00
3.275349e+01	-8.681720e+00
3.294268e+01	-8.724939e+00
3.313295e+01	-8.768755e+00
3.332433e+01	-8.811438e+00
3.351681e+01	-8.855317e+00
3.371040e+01	-8.898980e+00
3.390511e+01	-8.942717e+00
3.410094e+01	-8.986530e+00
3.429791e+01	-9.029873e+00
3.449601e+01	-9.073911e+00
3.469526e+01	-9.117527e+00
3.489566e+01	-9.161770e+00
3.509721e+01	-9.205625e+00
3.529993e+01	-9.249724e+00
3.550382e+01	-9.293588e+00
3.570889e+01	-9.337659e+00
3.591515e+01	-9.382137e+00
3.612259e+01	-9.426408e+00
3.633123e+01	-9.470623e+00
3.654108e+01	-9.515129e+00
3.675214e+01	-9.559815e+00
3.696442e+01	-9.603478e+00
3.717792e+01	-9.648760e+00
3.739266e+01	-9.693717e+00
3.760864e+01	-9.737413e+00
3.782587e+01	-9.782706e+00
3.804435e+01	-9.827223e+00
3.826409e+01	-9.872117e+00
3.848510e+01	-9.917129e+00
3.870739e+01	-9.962709e+00
3.893096e+01	-1.000702e+01
3.915583e+01	-1.005229e+01
3.938199e+01	-1.009753e+01
3.960946e+01	-1.014245e+01
3.983824e+01	-1.018799e+01
4.006834e+01	-1.023319e+01
4.029978e+01	-1.027863e+01
4.053255e+01	-1.032347e+01
4.076666e+01	-1.036931e+01
4.100213e+01	-1.041481e+01
4.123896e+01	-1.045999e+01
4.147715e+01	-1.050504e+01
4.171672e+01	-1.055096e+01
4.195767e+01	-1.059678e+01
4.220002e+01	-1.064189e+01
4.244377e+01	-1.068840e+01
4.268892e+01	-1.073371e+01
4.293549e+01	-1.077941e+01
4.318348e+01	-1.082549e+01
4.343291e+01	-1.087177e+01
4.368377e+01	-1.091744e+01
4.393609e+01	-1.096307e+01
4.418986e+01	-1.100942e+01
4.444510e+01	-1.105607e+01
4.470182e+01	-1.110214e+01
4.496001e+01	-1.114769e+01
4.521970e+01	-1.119403e+01
4.548089e+01	-1.124026e+01
4.574358e+01	-1.128651e+01
4.600779e+01	-1.133346e+01
4.627353e+01	-1.137989e+01
4.654081e+01	-1.142566e+01
4.680963e+01	-1.147232e+01
4.708000e+01	-1.151918e+01
4.735193e+01	-1.156527e+01
4.762543e+01	-1.161194e+01
4.790051e+01	-1.165879e+01
4.817719e+01	-1.170480e+01
4.845545e+01	-1.175245e+01
4.873533e+01	-1.179840e+01
4.901682e+01	-1.184473e+01
4.929994e+01	-1.189265e+01
4.958470e+01	-1.193863e+01
4.987110e+01	-1.198545e+01
5.015915e+01	-1.203226e+01
5.044887e+01	-1.207970e+01
5.074026e+01	-1.212574e+01
5.103333e+01	-1.217288e+01
5.132810e+01	-1.221968e+01
5.162457e+01	-1.226699e+01
5.192275e+01	-1.231404e+01
5.222265e+01	-1.236147e+01
5.252429e+01	-1.240851e+01
5.282767e+01	-1.245640e+01
5.313280e+01	-1.250300e+01
5.343969e+01	-1.255072e+01
5.374836e+01	-1.259717e+01
5.405880e+01	-1.264458e+01
5.437105e+01	-1.269175e+01
5.468509e+01	-1.273968e+01
5.500095e+01	-1.278629e+01
5.531863e+01	-1.283426e+01
5.563815e+01	-1.288153e+01
5.595951e+01	-1.292846e+01
5.628273e+01	-1.297706e+01
5.660782e+01	-1.302435e+01
5.693479e+01	-1.307180e+01
5.726364e+01	-1.312014e+01
5.759439e+01	-1.316659e+01
5.792705e+01	-1.321405e+01
5.826164e+01	-1.326199e+01
5.859815e+01	-1.330965e+01
5.893662e+01	-1.335820e+01
5.927703e+01	-1.340544e+01
5.961941e+01	-1.345327e+01
5.996377e+01	-1.350143e+01
6.031012e+01	-1.354883e+01
6.065847e+01	-1.359641e+01
6.100883e+01	-1.364463e+01
6.136121e+01	-1.369208e+01
6.171563e+01	-1.374065e+01
6.207210e+01	-1.378871e+01
6.243063e+01	-1.383587e+01
6.279122e+01	-1.388412e+01
6.315390e+01	-1.393168e+01
6.351868e+01	-1.398057e+01
6.388556e+01	-1.402808e+01
6.425456e+01	-1.407625e+01
6.462569e+01	-1.412411e+01
6.499897e+01	-1.417205e+01
6.537440e+01	-1.422046e+01
6.575200e+01	-1.427015e+01
6.613178e+01	-1.431579e+01
6.651375e+01	-1.436427e+01
6.689793e+01	-1.441316e+01
6.728433e+01	-1.446098e+01
6.767297e+01	-1.450996e+01
6.806384e+01	-1.455812e+01
6.845698e+01	-1.460649e+01
6.885238e+01	-1.465425e+01
6.925007e+01	-1.470322e+01
6.965005e+01	-1.475134e+01
7.005235e+01	-1.479988e+01
7.045697e+01	-1.484754e+01
7.086393e+01	-1.489628e+01
7.127323e+01	-1.494456e+01
7.168490e+01	-1.499283e+01
7.209895e+01	-1.504082e+01
7.251539e+01	-1.508926e+01
7.293424e+01	-1.513796e+01
7.335551e+01	-1.518747e+01
7.377920e+01	-1.523583e+01
7.420535e+01	-1.528465e+01
7.463396e+01	-1.533363e+01
7.506504e+01	-1.538075e+01
7.549861e+01	-1.542983e+01
7.593469e+01	-1.547892e+01
7.637328e+01	-1.552713e+01
7.681441e+01	-1.557626e+01
7.725809e+01	-1.562376e+01
7.770433e+01	-1.567260e+01
7.815315e+01	-1.572115e+01
7.860456e+01	-1.577134e+01
7.905857e+01	-1.581835e+01
7.951521e+01	-1.586684e+01
7.997449e+01	-1.591688e+01
8.043642e+01	-1.596547e+01
8.090102e+01	-1.601429e+01
8.136830e+01	-1.606313e+01
8.183828e+01	-1.611163e+01
8.231097e+01	-1.616091e+01
8.278640e+01	-1.620873e+01
8.326457e+01	-1.625842e+01
8.374550e+01	-1.630711e+01
8.422921e+01	-1.635638e+01
8.471572e+01	-1.640496e+01
8.520503e+01	-1.645339e+01
8.569717e+01	-1.650232e+01
8.619215e+01	-1.655017e+01
8.669000e+01	-1.660034e+01
8.719071e+01	-1.664972e+01
8.769432e+01	-1.669964e+01
8.820084e+01	-1.674734e+01
8.871029e+01	-1.679590e+01
8.922267e+01	-1.684517e+01
8.973802e+01	-1.689347e+01
9.025634e+01	-1.694334e+01
9.077766e+01	-1.699178e+01
9.130199e+01	-1.704189e+01
9.182935e+01	-1.709028e+01
9.235975e+01	-1.713972e+01
9.289321e+01	-1.718710e+01
9.342976e+01	-1.723731e+01
9.396941e+01	-1.728627e+01
9.451217e+01	-1.733641e+01
9.505807e+01	-1.738473e+01
9.560712e+01	-1.743379e+01
9.615934e+01	-1.748305e+01
9.671476e+01	-1.753282e+01
9.727338e+01	-1.758121e+01
9.783522e+01	-1.763158e+01
9.840032e+01	-1.767855e+01
9.896867e+01	-1.772839e+01
9.954031e+01	-1.777707e+01
1.001153e+02	-1.782806e+01
1.006935e+02	-1.787701e+01
1.012751e+02	-1.792577e+01
1.018601e+02	-1.797522e+01
1.024484e+02	-1.802493e+01
1.030402e+02	-1.807387e+01
1.036353e+02	-1.812309e+01
1.042339e+02	-1.817281e+01
1.048360e+02	-1.822151e+01
1.054415e+02	-1.827018e+01
1.060505e+02	-1.831919e+01
1.066631e+02	-1.836954e+01
1.072791e+02	-1.841792e+01
1.078988e+02	-1.846775e+01
1.085220e+02	-1.851711e+01
1.091488e+02	-1.856615e+01
1.097793e+02	-1.861584e+01
1.104133e+02	-1.866629e+01
1.110511e+02	-1.871449e+01
1.116925e+02	-1.876410e+01
1.123376e+02	-1.881329e+01
1.129865e+02	-1.886323e+01
1.136391e+02	-1.891061e+01
1.142955e+02	-1.896146e+01
1.149556e+02	-1.901173e+01
1.156196e+02	-1.906099e+01
1.162874e+02	-1.910997e+01
1.169591e+02	-1.915873e+01
1.176347e+02	-1.920919e+01
1.183141e+02	-1.925685e+01
1.189975e+02	-1.930781e+01
1.196848e+02	-1.935646e+01
1.203761e+02	-1.940673e+01
1.210714e+02	-1.945562e+01
1.217707e+02	-1.950536e+01
1.224740e+02	-1.955528e+01
1.231814e+02	-1.960487e+01
1.238929e+02	-1.965458e+01
1.246085e+02	-1.970272e+01
1.253283e+02	-1.975195e+01
1.260522e+02	-1.980159e+01
1.267802e+02	-1.985140e+01
1.275125e+02	-1.990099e+01
1.282490e+02	-1.995165e+01
1.289898e+02	-2.000203e+01
1.297348e+02	-2.005067e+01
1.304842e+02	-2.010018e+01
1.312378e+02	-2.014994e+01
1.319959e+02	-2.020008e+01
1.327583e+02	-2.024917e+01
1.335251e+02	-2.029588e+01
1.342963e+02	-2.034623e+01
1.350720e+02	-2.039600e+01
1.358522e+02	-2.044554e+01
1.366368e+02	-2.049736e+01
1.374260e+02	-2.054511e+01
1.382198e+02	-2.059581e+01
1.390182e+02	-2.064574e+01
1.398211e+02	-2.069469e+01
1.406287e+02	-2.074483e+01
1.414410e+02	-2.079292e+01
1.422579e+02	-2.084158e+01
1.430796e+02	-2.089318e+01
1.439060e+02	-2.094093e+01
1.447372e+02	-2.099308e+01
1.455732e+02	-2.104272e+01
1.464141e+02	-2.109130e+01
1.472597e+02	-2.114146e+01
1.481103e+02	-2.119041e+01
1.489658e+02	-2.123919e+01
1.498262e+02	-2.129210e+01
1.506916e+02	-2.134074e+01
1.515620e+02	-2.138945e+01
1.524374e+02	-2.143857e+01
1.533179e+02	-2.148980e+01
1.542034e+02	-2.153837e+01
1.550941e+02	-2.158548e+01
1.559899e+02	-2.163696e+01
1.568909e+02	-2.168618e+01
1.577971e+02	-2.173441e+01
1.587085e+02	-2.178661e+01
1.596252e+02	-2.183762e+01
1.605472e+02	-2.188610e+01
1.614745e+02	-2.193612e+01
1.624072e+02	-2.198618e+01
1.633453e+02	-2.203643e+01
1.642887e+02	-2.208504e+01
1.652377e+02	-2.213334e+01
1.661921e+02	-2.218472e+01
1.671520e+02	-2.223484e+01
1.681175e+02	-2.228555e+01
1.690885e+02	-2.233703e+01
1.700651e+02	-2.238550e+01
1.710474e+02	-2.243289e+01
1.720354e+02	-2.248421e+01
1.730291e+02	-2.253436e+01
1.740285e+02	-2.258281e+01
1.750337e+02	-2.263256e+01
1.760446e+02	-2.268180e+01
1.770615e+02	-2.273163e+01
1.780842e+02	-2.278159e+01
1.791128e+02	-2.283070e+01
1.801473e+02	-2.288232e+01
1.811878e+02	-2.292998e+01
1.822344e+02	-2.298086e+01
1.832870e+02	-2.303076e+01
1.843456e+02	-2.308266e+01
1.854104e+02	-2.313062e+01
1.864813e+02	-2.317887e+01
1.875584e+02	-2.323174e+01
1.886418e+02	-2.327846e+01
1.897313e+02	-2.332788e+01
1.908272e+02	-2.337996e+01
1.919294e+02	-2.342987e+01
1.930380e+02	-2.348023e+01
1.941530e+02	-2.352761e+01
1.952744e+02	-2.357739e+01
1.964023e+02	-2.362714e+01
1.975367e+02	-2.367955e+01
1.986777e+02	-2.372752e+01
1.998252e+02	-2.377715e+01
2.009794e+02	-2.382881e+01
2.021403e+02	-2.387590e+01
2.033078e+02	-2.392870e+01
2.044821e+02	-2.397702e+01
2.056632e+02	-2.402929e+01
2.068511e+02	-2.407626e+01
2.080459e+02	-2.412879e+01
2.092475e+02	-2.417837e+01
2.104561e+02	-2.422673e+01
2.116717e+02	-2.427737e+01
2.128943e+02	-2.432860e+01
2.141240e+02	-2.437473e+01
2.153608e+02	-2.442862e+01
2.166047e+02	-2.447459e+01
2.178558e+02	-2.452938e+01
2.191141e+02	-2.457590e+01
2.203797e+02	-2.462690e+01
2.216526e+02	-2.467801e+01
2.229329e+02	-2.472467e+01
2.242205e+02	-2.477841e+01
2.255156e+02	-2.482643e+01
2.268182e+02	-2.487718e+01
2.281283e+02	-2.492629e+01
2.294459e+02	-2.497686e+01
2.307712e+02	-2.502688e+01
2.321041e+02	-2.507288e+01
2.334447e+02	-2.512317e+01
2.347931e+02	-2.517406e+01
2.361493e+02	-2.522472e+01
2.375133e+02	-2.527484e+01
2.388851e+02	-2.532496e+01
2.402649e+02	-2.537229e+01
2.416527e+02	-2.542396e+01
2.430484e+02	-2.547334e+01
2.444523e+02	-2.552567e+01
2.458642e+02	-2.557646e+01
2.472843e+02	-2.562301e+01
2.487126e+02	-2.567469e+01
2.501492e+02	-2.572301e+01
2.515940e+02	-2.577590e+01
2.530472e+02	-2.582350e+01
2.545088e+02	-2.587659e+01
2.559789e+02	-2.592273e+01
2.574574e+02	-2.597338e+01
2.589444e+02	-2.602480e+01
2.604401e+02	-2.607533e+01
2.619444e+02	-2.612297e+01
2.634574e+02	-2.617376e+01
2.649791e+02	-2.622603e+01
2.665096e+02	-2.627658e+01
2.680489e+02	-2.632651e+01
2.695972e+02	-2.637482e+01
2.711544e+02	-2.642651e+01
2.727205e+02	-2.647200e+01
2.742958e+02	-2.652415e+01
2.758801e+02	-2.657746e+01
2.774736e+02	-2.662237e+01
2.790762e+02	-2.667564e+01
2.806882e+02	-2.672529e+01
2.823094e+02	-2.677533e+01
2.839400e+02	-2.682430e+01
2.855800e+02	-2.687356e+01
2.872295e+02	-2.692653e+01
2.888886e+02	-2.697256e+01
2.905572e+02	-2.702391e+01
2.922354e+02	-2.707363e+01
2.939234e+02	-2.712153e+01
2.956211e+02	-2.717292e+01
2.973286e+02	-2.722074e+01
2.990459e+02	-2.727375e+01
3.007732e+02	-2.732472e+01
3.025104e+02	-2.737375e+01
3.042577e+02	-2.742306e+01
3.060151e+02	-2.747461e+01
3.077826e+02	-2.752335e+01
3.095604e+02	-2.757424e+01
3.113484e+02	-2.762507e+01
3.131467e+02	-2.767556e+01
3.149554e+02	-2.772596e+01
3.167746e+02	-2.777805e+01
3.186043e+02	-2.782742e+01
3.204445e+02	-2.787272e+01
3.222954e+02	-2.792322e+01
3.241570e+02	-2.797133e+01
3.260293e+02	-2.802563e+01
3.279124e+02	-2.807601e+01
3.298064e+02	-2.812309e+01
3.317114e+02	-2.817323e+01
3.336273e+02	-2.822484e+01
3.355544e+02	-2.827733e+01
3.374925e+02	-2.832520e+01
3.394418e+02	-2.837509e+01
3.414024e+02	-2.842200e+01
3.433744e+02	-2.847828e+01
3.453577e+02	-2.852472e+01
3.473525e+02	-2.857226e+01
3.493588e+02	-2.862431e+01
3.513766e+02	-2.867567e+01
3.534062e+02	-2.872457e+01
3.554474e+02	-2.877651e+01
3.575005e+02	-2.882499e+01
3.595654e+02	-2.887751e+01
3.616422e+02	-2.892601e+01
3.637311e+02	-2.897153e+01
3.658320e+02	-2.902449e+01
3.679450e+02	-2.907974e+01
3.700702e+02	-2.912071e+01
3.722077e+02	-2.917517e+01
3.743576e+02	-2.922660e+01
3.765199e+02	-2.927189e+01
3.786946e+02	-2.932743e+01
3.808820e+02	-2.937414e+01
3.830819e+02	-2.942497e+01
3.852946e+02	-2.947863e+01
3.875200e+02	-2.952578e+01
3.897583e+02	-2.958060e+01
3.920096e+02	-2.962757e+01
3.942738e+02	-2.967688e+01
3.965511e+02	-2.973497e+01
3.988416e+02	-2.977260e+01
4.011452e+02	-2.982650e+01
4.034622e+02	-2.987869e+01
4.057926e+02	-2.992548e+01
4.081365e+02	-2.997493e+01
4.104938e+02	-3.002893e+01
4.128648e+02	-3.007398e+01
4.152495e+02	-3.012552e+01
4.176480e+02	-3.017564e+01
4.200603e+02	-3.022931e+01
4.224866e+02	-3.027490e+01
4.249268e+02	-3.032740e+01
4.273812e+02	-3.037472e+01
4.298497e+02	-3.042830e+01
4.323325e+02	-3.047947e+01
4.348297e+02	-3.052717e+01
4.373412e+02	-3.058033e+01
4.398673e+02	-3.063164e+01
4.424079e+02	-3.067985e+01
4.449633e+02	-3.072764e+01
4.475334e+02	-3.078019e+01
4.501183e+02	-3.082749e+01
4.527182e+02	-3.088016e+01
4.553330e+02	-3.093444e+01
4.579630e+02	-3.098178e+01
4.606082e+02	-3.103093e+01
4.632687e+02	-3.108106e+01
4.659445e+02	-3.113350e+01
4.686358e+02	-3.117792e+01
4.713426e+02	-3.122830e+01
4.740650e+02	-3.127298e+01
4.768032e+02	-3.132937e+01
4.795572e+02	-3.137674e+01
4.823271e+02	-3.142966e+01
4.851130e+02	-3.147867e+01
4.879150e+02	-3.153206e+01
4.907332e+02	-3.159118e+01
4.935676e+02	-3.163520e+01
4.964185e+02	-3.168586e+01
4.992858e+02	-3.173125e+01
5.021696e+02	-3.178037e+01
5.050701e+02	-3.183466e+01
5.079874e+02	-3.188865e+01
5.109215e+02	-3.193074e+01
5.138726e+02	-3.197670e+01
5.168407e+02	-3.203502e+01
5.198259e+02	-3.208172e+01
5.228284e+02	-3.213419e+01
5.258482e+02	-3.218403e+01
5.288855e+02	-3.222645e+01
5.319403e+02	-3.228224e+01
5.350128e+02	-3.233203e+01
5.381030e+02	-3.238425e+01
5.412111e+02	-3.243424e+01
5.443371e+02	-3.248629e+01
5.474812e+02	-3.254133e+01
5.506434e+02	-3.257823e+01
5.538239e+02	-3.263588e+01
5.570228e+02	-3.268877e+01
5.602401e+02	-3.273862e+01
5.634760e+02	-3.278509e+01
5.667306e+02	-3.283050e+01
5.700040e+02	-3.288932e+01
5.732964e+02	-3.294379e+01
5.766077e+02	-3.298663e+01
5.799382e+02	-3.303433e+01
5.832879e+02	-3.309127e+01
5.866569e+02	-3.313788e+01
5.900454e+02	-3.319619e+01
5.934535e+02	-3.323339e+01
5.968813e+02	-3.328672e+01
6.003288e+02	-3.334078e+01
6.037963e+02	-3.338629e+01
6.072838e+02	-3.343826e+01
6.107914e+02	-3.349254e+01
6.143194e+02	-3.353976e+01
6.178676e+02	-3.359200e+01
6.214364e+02	-3.363865e+01
6.250258e+02	-3.369675e+01
6.286359e+02	-3.374460e+01
6.322669e+02	-3.379450e+01
6.359189e+02	-3.385413e+01
6.395919e+02	-3.389317e+01
6.432862e+02	-3.394695e+01
6.470017e+02	-3.399586e+01
6.507388e+02	-3.404602e+01
6.544974e+02	-3.410090e+01
6.582778e+02	-3.414271e+01
6.620800e+02	-3.419460e+01
6.659041e+02	-3.424915e+01
6.697504e+02	-3.429096e+01
6.736188e+02	-3.434716e+01
6.775096e+02	-3.439661e+01
6.814229e+02	-3.444156e+01
6.853587e+02	-3.449477e+01
6.893173e+02	-3.454485e+01
6.932988e+02	-3.459640e+01
6.973033e+02	-3.464309e+01
7.013309e+02	-3.470232e+01
