Frequency(Hz)	Magnitude(dB)
1.000000e+01	-1.926550e+00
1.005776e+01	-1.944607e+00
1.011585e+01	-1.962680e+00
1.017428e+01	-1.980811e+00
1.023305e+01	-1.999480e+00
1.029215e+01	-2.017752e+00
1.035160e+01	-2.036618e+00
1.041139e+01	-2.055269e+00
1.047153e+01	-2.074242e+00
1.053201e+01	-2.093384e+00
1.059284e+01	-2.112599e+00
1.065403e+01	-2.131951e+00
1.071556e+01	-2.151503e+00
1.077746e+01	-2.170860e+00
1.083971e+01	-2.190820e+00
1.090232e+01	-2.210616e+00
1.096529e+01	-2.230499e+00
1.102862e+01	-2.251025e+00
1.109232e+01	-2.271330e+00
1.115639e+01	-2.291440e+00
1.122083e+01	-2.312017e+00
1.128564e+01	-2.332821e+00
1.135083e+01	-2.353853e+00
1.141639e+01	-2.374675e+00
1.148233e+01	-2.395747e+00
1.154865e+01	-2.416946e+00
1.161536e+01	-2.438813e+00
1.168245e+01	-2.460149e+00
1.174992e+01	-2.481855e+00
1.181779e+01	-2.503823e+00
1.188605e+01	-2.525447e+00
1.195470e+01	-2.547971e+00
1.202375e+01	-2.570125e+00
1.209320e+01	-2.592542e+00
1.216305e+01	-2.615154e+00
1.223330e+01	-2.637699e+00
1.230396e+01	-2.660527e+00
1.237503e+01	-2.683783e+00
1.244651e+01	-2.706795e+00
1.251840e+01	-2.729780e+00
1.259070e+01	-2.753360e+00
1.266343e+01	-2.777085e+00
1.273657e+01	-2.800893e+00
1.281014e+01	-2.824402e+00
1.288413e+01	-2.848603e+00
1.295855e+01	-2.872625e+00
1.303339e+01	-2.896929e+00
1.310867e+01	-2.921258e+00
1.318439e+01	-2.945974e+00
1.326054e+01	-2.970692e+00
1.333713e+01	-2.995489e+00
1.341417e+01	-3.020419e+00
1.349165e+01	-3.045571e+00
1.356958e+01	-3.070853e+00
1.364795e+01	-3.096381e+00
1.372678e+01	-3.121803e+00
1.380607e+01	-3.147654e+00
1.388581e+01	-3.173517e+00
1.396602e+01	-3.199702e+00
1.404668e+01	-3.225800e+00
1.412782e+01	-3.251982e+00
1.420942e+01	-3.278330e+00
1.429149e+01	-3.304914e+00
1.437404e+01	-3.331510e+00
1.445706e+01	-3.358509e+00
1.454057e+01	-3.385584e+00
1.462455e+01	-3.412783e+00
1.470902e+01	-3.440200e+00
1.479398e+01	-3.467567e+00
1.487943e+01	-3.494940e+00
1.496537e+01	-3.522793e+00
1.505181e+01	-3.550443e+00
1.513875e+01	-3.578463e+00
1.522619e+01	-3.606916e+00
1.531414e+01	-3.635086e+00
1.540259e+01	-3.663351e+00
1.549156e+01	-3.692098e+00
1.558103e+01	-3.720878e+00
1.567103e+01	-3.749722e+00
1.576155e+01	-3.778677e+00
1.585258e+01	-3.807788e+00
1.594415e+01	-3.837085e+00
1.603624e+01	-3.866471e+00
1.612886e+01	-3.896243e+00
1.622202e+01	-3.926001e+00
1.631572e+01	-3.955588e+00
1.640996e+01	-3.985603e+00
1.650474e+01	-4.015696e+00
1.660008e+01	-4.045976e+00
1.669596e+01	-4.076347e+00
1.679239e+01	-4.106914e+00
1.688938e+01	-4.137654e+00
1.698694e+01	-4.168394e+00
1.708505e+01	-4.199197e+00
1.718373e+01	-4.230343e+00
1.728299e+01	-4.261537e+00
1.738281e+01	-4.293071e+00
1.748322e+01	-4.324456e+00
1.758420e+01	-4.356294e+00
1.768576e+01	-4.387697e+00
1.778792e+01	-4.419869e+00
1.789066e+01	-4.451797e+00
1.799399e+01	-4.483687e+00
1.809793e+01	-4.516087e+00
1.820246e+01	-4.548397e+00
1.830760e+01	-4.580966e+00
1.841334e+01	-4.613546e+00
1.851969e+01	-4.646644e+00
1.862666e+01	-4.679286e+00
1.873425e+01	-4.712398e+00
1.884246e+01	-4.745612e+00
1.895129e+01	-4.778884e+00
1.906075e+01	-4.812703e+00
1.917085e+01	-4.846360e+00
1.928158e+01	-4.879759e+00
1.939295e+01	-4.913493e+00
1.950496e+01	-4.947507e+00
1.961762e+01	-4.981731e+00
1.973093e+01	-5.015769e+00
1.984490e+01	-5.049993e+00
1.995952e+01	-5.084503e+00
2.007480e+01	-5.118545e+00
2.019076e+01	-5.153823e+00
2.030738e+01	-5.188773e+00
2.042467e+01	-5.223851e+00
2.054264e+01	-5.258812e+00
2.066130e+01	-5.293549e+00
2.078064e+01	-5.328953e+00
2.090066e+01	-5.364429e+00
2.102139e+01	-5.400083e+00
2.114280e+01	-5.435752e+00
2.126492e+01	-5.471315e+00
2.138775e+01	-5.507350e+00
2.151128e+01	-5.543051e+00
2.163553e+01	-5.579576e+00
2.176050e+01	-5.615733e+00
2.188619e+01	-5.652018e+00
2.201260e+01	-5.688210e+00
2.213974e+01	-5.725336e+00
2.226762e+01	-5.761944e+00
2.239624e+01	-5.798340e+00
2.252560e+01	-5.835271e+00
2.265571e+01	-5.872615e+00
2.278656e+01	-5.909794e+00
2.291818e+01	-5.947078e+00
2.305055e+01	-5.984187e+00
2.318369e+01	-6.022133e+00
2.331760e+01	-6.059553e+00
2.345228e+01	-6.096930e+00
2.358774e+01	-6.134891e+00
2.372398e+01	-6.172389e+00
2.386101e+01	-6.211088e+00
2.399883e+01	-6.248707e+00
2.413745e+01	-6.287042e+00
2.427686e+01	-6.325169e+00
2.441709e+01	-6.363442e+00
2.455812e+01	-6.402606e+00
2.469997e+01	-6.440916e+00
2.484263e+01	-6.479791e+00
2.498612e+01	-6.518399e+00
2.513044e+01	-6.557593e+00
2.527559e+01	-6.596245e+00
2.542158e+01	-6.635477e+00
2.556842e+01	-6.674901e+00
2.571610e+01	-6.713945e+00
2.586463e+01	-6.753374e+00
2.601403e+01	-6.792378e+00
2.616428e+01	-6.832592e+00
2.631541e+01	-6.871688e+00
2.646740e+01	-6.912310e+00
2.662028e+01	-6.952068e+00
2.677404e+01	-6.991674e+00
2.692868e+01	-7.032214e+00
2.708422e+01	-7.072614e+00
2.724066e+01	-7.112510e+00
2.739800e+01	-7.152810e+00
2.755625e+01	-7.193237e+00
2.771541e+01	-7.233262e+00
2.787550e+01	-7.274024e+00
2.803650e+01	-7.315288e+00
2.819844e+01	-7.355921e+00
2.836131e+01	-7.396233e+00
2.852513e+01	-7.437735e+00
2.868989e+01	-7.478731e+00
2.885560e+01	-7.519665e+00
2.902227e+01	-7.561193e+00
2.918990e+01	-7.602447e+00
2.935850e+01	-7.643721e+00
2.952807e+01	-7.684886e+00
2.969863e+01	-7.727080e+00
2.987016e+01	-7.768296e+00
3.004269e+01	-7.810505e+00
3.021622e+01	-7.852084e+00
3.039075e+01	-7.893612e+00
3.056628e+01	-7.935684e+00
3.074283e+01	-7.977526e+00
3.092040e+01	-8.019753e+00
3.109900e+01	-8.062105e+00
3.127862e+01	-8.103567e+00
3.145929e+01	-8.146583e+00
3.164099e+01	-8.188738e+00
3.182375e+01	-8.231121e+00
3.200756e+01	-8.273624e+00
3.219244e+01	-8.316703e+00
3.237838e+01	-8.359339e+00
3.256540e+01	-8.401614e+00
3.275349e+01	-8.444554e+00
3.294268e+01	-8.487869e+00
3.313295e+01	-8.530391e+00
3.332433e+01	-8.573898e+00
3.351681e+01	-8.616674e+00
3.371040e+01	-8.659913e+00
3.390511e+01	-8.703632e+00
3.410094e+01	-8.746887e+00
3.429791e+01	-8.789803e+00
3.449601e+01	-8.833473e+00
3.469526e+01	-8.877157e+00
3.489566e+01	-8.920745e+00
3.509721e+01	-8.964236e+00
3.529993e+01	-9.008065e+00
3.550382e+01	-9.051911e+00
3.570889e+01	-9.095583e+00
3.591515e+01	-9.138786e+00
3.612259e+01	-9.182779e+00
3.633123e+01	-9.227140e+00
3.654108e+01	-9.271927e+00
3.675214e+01	-9.315351e+00
3.696442e+01	-9.359796e+00
3.717792e+01	-9.403944e+00
3.739266e+01	-9.448671e+00
3.760864e+01	-9.491957e+00
3.782587e+01	-9.536848e+00
3.804435e+01	-9.581622e+00
3.826409e+01	-9.626403e+00
3.848510e+01	-9.671297e+00
3.870739e+01	-9.715447e+00
3.893096e+01	-9.760000e+00
3.915583e+01	-9.805257e+00
3.938199e+01	-9.849626e+00
3.960946e+01	-9.894571e+00
3.983824e+01	-9.939572e+00
4.006834e+01	-9.984437e+00
4.029978e+01	-1.002990e+01
4.053255e+01	-1.007455e+01
4.076666e+01	-1.012004e+01
4.100213e+01	-1.016523e+01
4.123896e+01	-1.021046e+01
4.147715e+01	-1.025592e+01
4.171672e+01	-1.030082e+01
4.195767e+01	-1.034590e+01
4.220002e+01	-1.039159e+01
4.244377e+01	-1.043704e+01
4.268892e+01	-1.048250e+01
4.293549e+01	-1.052810e+01
4.318348e+01	-1.057433e+01
4.343291e+01	-1.061985e+01
4.368377e+01	-1.066537e+01
4.393609e+01	-1.071129e+01
4.418986e+01	-1.075657e+01
4.444510e+01	-1.080272e+01
4.470182e+01	-1.084862e+01
4.496001e+01	-1.089430e+01
4.521970e+01	-1.093977e+01
4.548089e+01	-1.098630e+01
4.574358e+01	-1.103181e+01
4.600779e+01	-1.107915e+01
4.627353e+01	-1.112452e+01
4.654081e+01	-1.117096e+01
4.680963e+01	-1.121764e+01
4.708000e+01	-1.126325e+01
4.735193e+01	-1.131000e+01
4.762543e+01	-1.135610e+01
4.790051e+01	-1.140264e+01
4.817719e+01	-1.144887e+01
4.845545e+01	-1.149529e+01
4.873533e+01	-1.154176e+01
4.901682e+01	-1.158788e+01
4.929994e+01	-1.163478e+01
4.958470e+01	-1.168147e+01
4.987110e+01	-1.172860e+01
5.015915e+01	-1.177519e+01
5.044887e+01	-1.182200e+01
5.074026e+01	-1.186893e+01
5.103333e+01	-1.191536e+01
5.132810e+01	-1.196199e+01
5.162457e+01	-1.200933e+01
5.192275e+01	-1.205559e+01
5.222265e+01	-1.210275e+01
5.252429e+01	-1.214913e+01
5.282767e+01	-1.219624e+01
5.313280e+01	-1.224370e+01
5.343969e+01	-1.229066e+01
5.374836e+01	-1.233751e+01
5.405880e+01	-1.238433e+01
5.437105e+01	-1.243247e+01
5.468509e+01	-1.247944e+01
5.500095e+01	-1.252622e+01
5.531863e+01	-1.257361e+01
5.563815e+01	-1.262090e+01
5.595951e+01	-1.266842e+01
5.628273e+01	-1.271554e+01
5.660782e+01	-1.276313e+01
5.693479e+01	-1.281032e+01
5.726364e+01	-1.285780e+01
5.759439e+01	-1.290529e+01
5.792705e+01	-1.295308e+01
5.826164e+01	-1.300019e+01
5.859815e+01	-1.304784e+01
5.893662e+01	-1.309517e+01
5.927703e+01	-1.314245e+01
5.961941e+01	-1.319050e+01
5.996377e+01	-1.323810e+01
6.031012e+01	-1.328594e+01
6.065847e+01	-1.333232e+01
6.100883e+01	-1.338100e+01
6.136121e+01	-1.342877e+01
6.171563e+01	-1.347613e+01
6.207210e+01	-1.352470e+01
6.243063e+01	-1.357226e+01
6.279122e+01	-1.362088e+01
6.315390e+01	-1.366828e+01
6.351868e+01	-1.371595e+01
6.388556e+01	-1.376379e+01
6.425456e+01	-1.381126e+01
6.462569e+01	-1.385941e+01
6.499897e+01	-1.390784e+01
6.537440e+01	-1.395605e+01
6.575200e+01	-1.400465e+01
6.613178e+01	-1.405154e+01
6.651375e+01	-1.409960e+01
6.689793e+01	-1.414814e+01
6.728433e+01	-1.419600e+01
6.767297e+01	-1.424365e+01
6.806384e+01	-1.429235e+01
6.845698e+01	-1.434102e+01
6.885238e+01	-1.438961e+01
6.925007e+01	-1.443716e+01
6.965005e+01	-1.448505e+01
7.005235e+01	-1.453343e+01
7.045697e+01	-1.458127e+01
7.086393e+01	-1.463016e+01
7.127323e+01	-1.467813e+01
7.168490e+01	-1.472639e+01
7.209895e+01	-1.477548e+01
7.251539e+01	-1.482384e+01
7.293424e+01	-1.487208e+01
7.335551e+01	-1.492007e+01
7.377920e+01	-1.496870e+01
7.420535e+01	-1.501716e+01
7.463396e+01	-1.506571e+01
7.506504e+01	-1.511400e+01
7.549861e+01	-1.516259e+01
7.593469e+01	-1.521113e+01
7.637328e+01	-1.525980e+01
7.681441e+01	-1.530842e+01
7.725809e+01	-1.535707e+01
7.770433e+01	-1.540585e+01
7.815315e+01	-1.545462e+01
7.860456e+01	-1.550289e+01
7.905857e+01	-1.555148e+01
7.951521e+01	-1.559950e+01
7.997449e+01	-1.564869e+01
8.043642e+01	-1.569696e+01
8.090102e+01	-1.574583e+01
8.136830e+01	-1.579471e+01
8.183828e+01	-1.584321e+01
8.231097e+01	-1.589180e+01
8.278640e+01	-1.594106e+01
8.326457e+01	-1.599001e+01
8.374550e+01	-1.603883e+01
8.422921e+01	-1.608747e+01
8.471572e+01	-1.613556e+01
8.520503e+01	-1.618440e+01
8.569717e+01	-1.623353e+01
8.619215e+01	-1.628231e+01
8.669000e+01	-1.633229e+01
8.719071e+01	-1.638108e+01
8.769432e+01	-1.642900e+01
8.820084e+01	-1.647909e+01
8.871029e+01	-1.652724e+01
8.922267e+01	-1.657588e+01
8.973802e+01	-1.662456e+01
9.025634e+01	-1.667369e+01
9.077766e+01	-1.672267e+01
9.130199e+01	-1.677204e+01
9.182935e+01	-1.682043e+01
9.235975e+01	-1.686895e+01
9.289321e+01	-1.691747e+01
9.342976e+01	-1.696805e+01
9.396941e+01	-1.701696e+01
9.451217e+01	-1.706709e+01
9.505807e+01	-1.711610e+01
9.560712e+01	-1.716429e+01
9.615934e+01	-1.721257e+01
9.671476e+01	-1.726171e+01
9.727338e+01	-1.731085e+01
9.783522e+01	-1.736069e+01
9.840032e+01	-1.741061e+01
9.896867e+01	-1.745900e+01
9.954031e+01	-1.750822e+01
1.001153e+02	-1.755673e+01
1.006935e+02	-1.760604e+01
1.012751e+02	-1.765517e+01
1.018601e+02	-1.770514e+01
1.024484e+02	-1.775344e+01
1.030402e+02	-1.780210e+01
1.036353e+02	-1.785170e+01
1.042339e+02	-1.790091e+01
1.048360e+02	-1.795005e+01
1.054415e+02	-1.800006e+01
1.060505e+02	-1.804983e+01
1.066631e+02	-1.809677e+01
1.072791e+02	-1.814602e+01
1.078988e+02	-1.819572e+01
1.085220e+02	-1.824567e+01
1.091488e+02	-1.829502e+01
1.097793e+02	-1.834423e+01
1.104133e+02	-1.839427e+01
1.110511e+02	-1.844335e+01
1.116925e+02	-1.849328e+01
1.123376e+02	-1.854039e+01
1.129865e+02	-1.859048e+01
1.136391e+02	-1.864123e+01
1.142955e+02	-1.868995e+01
1.149556e+02	-1.873827e+01
1.156196e+02	-1.878820e+01
1.162874e+02	-1.883763e+01
1.169591e+02	-1.888740e+01
1.176347e+02	-1.893630e+01
1.183141e+02	-1.898661e+01
1.189975e+02	-1.903539e+01
1.196848e+02	-1.908536e+01
1.203761e+02	-1.913352e+01
1.210714e+02	-1.918364e+01
1.217707e+02	-1.923223e+01
1.224740e+02	-1.928322e+01
1.231814e+02	-1.933102e+01
1.238929e+02	-1.938200e+01
1.246085e+02	-1.943111e+01
1.253283e+02	-1.947983e+01
1.260522e+02	-1.952831e+01
1.267802e+02	-1.957870e+01
1.275125e+02	-1.962906e+01
1.282490e+02	-1.967853e+01
1.289898e+02	-1.972845e+01
1.297348e+02	-1.977785e+01
1.304842e+02	-1.982675e+01
1.312378e+02	-1.987818e+01
1.319959e+02	-1.992584e+01
1.327583e+02	-1.997604e+01
1.335251e+02	-2.002530e+01
1.342963e+02	-2.007460e+01
1.350720e+02	-2.012561e+01
1.358522e+02	-2.017315e+01
1.366368e+02	-2.022279e+01
1.374260e+02	-2.027257e+01
1.382198e+02	-2.032294e+01
1.390182e+02	-2.037250e+01
1.398211e+02	-2.042072e+01
1.406287e+02	-2.047154e+01
1.414410e+02	-2.052114e+01
1.422579e+02	-2.056901e+01
1.430796e+02	-2.062076e+01
1.439060e+02	-2.066880e+01
1.447372e+02	-2.071926e+01
1.455732e+02	-2.076712e+01
1.464141e+02	-2.081812e+01
1.472597e+02	-2.086698e+01
1.481103e+02	-2.091485e+01
1.489658e+02	-2.096704e+01
1.498262e+02	-2.101781e+01
1.506916e+02	-2.106698e+01
1.515620e+02	-2.111595e+01
1.524374e+02	-2.116448e+01
1.533179e+02	-2.121640e+01
1.542034e+02	-2.126525e+01
1.550941e+02	-2.131408e+01
1.559899e+02	-2.136449e+01
1.568909e+02	-2.141440e+01
1.577971e+02	-2.146455e+01
1.587085e+02	-2.151320e+01
1.596252e+02	-2.156432e+01
1.605472e+02	-2.161375e+01
1.614745e+02	-2.166329e+01
1.624072e+02	-2.171507e+01
1.633453e+02	-2.176147e+01
1.642887e+02	-2.181121e+01
1.652377e+02	-2.185955e+01
1.661921e+02	-2.191165e+01
1.671520e+02	-2.196156e+01
1.681175e+02	-2.201203e+01
1.690885e+02	-2.205974e+01
1.700651e+02	-2.210948e+01
1.710474e+02	-2.215881e+01
1.720354e+02	-2.220970e+01
1.730291e+02	-2.226044e+01
1.740285e+02	-2.230692e+01
1.750337e+02	-2.235880e+01
1.760446e+02	-2.240884e+01
1.770615e+02	-2.245631e+01
1.780842e+02	-2.250976e+01
1.791128e+02	-2.255893e+01
1.801473e+02	-2.260769e+01
1.811878e+02	-2.265770e+01
1.822344e+02	-2.270636e+01
1.832870e+02	-2.275713e+01
1.843456e+02	-2.280706e+01
1.854104e+02	-2.285766e+01
1.864813e+02	-2.290603e+01
1.875584e+02	-2.295786e+01
1.886418e+02	-2.300750e+01
1.897313e+02	-2.305569e+01
1.908272e+02	-2.310577e+01
1.919294e+02	-2.315405e+01
1.930380e+02	-2.320497e+01
1.941530e+02	-2.325288e+01
1.952744e+02	-2.330438e+01
1.964023e+02	-2.335492e+01
1.975367e+02	-2.340366e+01
1.986777e+02	-2.345609e+01
1.998252e+02	-2.350174e+01
2.009794e+02	-2.355427e+01
2.021403e+02	-2.360492e+01
2.033078e+02	-2.365246e+01
2.044821e+02	-2.370471e+01
2.056632e+02	-2.375290e+01
2.068511e+02	-2.380293e+01
2.080459e+02	-2.385607e+01
2.092475e+02	-2.390241e+01
2.104561e+02	-2.395155e+01
2.116717e+02	-2.400302e+01
2.128943e+02	-2.405263e+01
2.141240e+02	-2.410382e+01
2.153608e+02	-2.415188e+01
2.166047e+02	-2.420109e+01
2.178558e+02	-2.425270e+01
2.191141e+02	-2.429936e+01
2.203797e+02	-2.435362e+01
2.216526e+02	-2.440263e+01
2.229329e+02	-2.445271e+01
2.242205e+02	-2.450115e+01
2.255156e+02	-2.454886e+01
2.268182e+02	-2.460210e+01
2.281283e+02	-2.465190e+01
2.294459e+02	-2.470204e+01
2.307712e+02	-2.475159e+01
2.321041e+02	-2.480083e+01
2.334447e+02	-2.484924e+01
2.347931e+02	-2.490257e+01
2.361493e+02	-2.495218e+01
2.375133e+02	-2.500063e+01
2.388851e+02	-2.504981e+01
2.402649e+02	-2.510005e+01
2.416527e+02	-2.514979e+01
2.430484e+02	-2.519898e+01
2.444523e+02	-2.525000e+01
2.458642e+02	-2.529912e+01
2.472843e+02	-2.534848e+01
2.487126e+02	-2.539804e+01
2.501492e+02	-2.545209e+01
2.515940e+02	-2.549833e+01
2.530472e+02	-2.555011e+01
2.545088e+02	-2.560021e+01
2.559789e+02	-2.564949e+01
2.574574e+02	-2.569859e+01
2.589444e+02	-2.574965e+01
2.604401e+02	-2.579913e+01
2.619444e+02	-2.584752e+01
2.634574e+02	-2.589856e+01
2.649791e+02	-2.594654e+01
2.665096e+02	-2.599749e+01
2.680489e+02	-2.604745e+01
2.695972e+02	-2.610094e+01
2.711544e+02	-2.614839e+01
2.727205e+02	-2.620202e+01
2.742958e+02	-2.625006e+01
2.758801e+02	-2.629518e+01
2.774736e+02	-2.634720e+01
2.790762e+02	-2.639856e+01
2.806882e+02	-2.644684e+01
2.823094e+02	-2.649942e+01
2.839400e+02	-2.654846e+01
2.855800e+02	-2.659756e+01
2.872295e+02	-2.664929e+01
2.888886e+02	-2.669695e+01
2.905572e+02	-2.675020e+01
2.922354e+02	-2.679838e+01
2.939234e+02	-2.684767e+01
2.956211e+02	-2.689716e+01
2.973286e+02	-2.694915e+01
2.990459e+02	-2.699929e+01
3.007732e+02	-2.704721e+01
3.025104e+02	-2.709963e+01
3.042577e+02	-2.715118e+01
3.060151e+02	-2.719993e+01
3.077826e+02	-2.724831e+01
3.095604e+02	-2.729513e+01
3.113484e+02	-2.734827e+01
3.131467e+02	-2.739840e+01
3.149554e+02	-2.745006e+01
3.167746e+02	-2.749578e+01
3.186043e+02	-2.754995e+01
3.204445e+02	-2.759961e+01
3.222954e+02	-2.764560e+01
3.241570e+02	-2.769968e+01
3.260293e+02	-2.774736e+01
3.279124e+02	-2.779818e+01
3.298064e+02	-2.785204e+01
3.317114e+02	-2.789778e+01
3.336273e+02	-2.794965e+01
3.355544e+02	-2.799253e+01
3.374925e+02	-2.804611e+01
3.394418e+02	-2.809514e+01
3.414024e+02	-2.814830e+01
3.433744e+02	-2.819756e+01
3.453577e+02	-2.824919e+01
3.473525e+02	-2.830096e+01
3.493588e+02	-2.835043e+01
3.513766e+02	-2.840098e+01
3.534062e+02	-2.844777e+01
3.554474e+02	-2.850312e+01
3.575005e+02	-2.855105e+01
3.595654e+02	-2.859996e+01
3.616422e+02	-2.864619e+01
3.637311e+02	-2.870267e+01
3.658320e+02	-2.875132e+01
3.679450e+02	-2.880029e+01
3.700702e+02	-2.885143e+01
3.722077e+02	-2.889756e+01
3.743576e+02	-2.894952e+01
3.765199e+02	-2.899562e+01
3.786946e+02	-2.905024e+01
3.808820e+02	-2.909741e+01
3.830819e+02	-2.915332e+01
3.852946e+02	-2.919766e+01
3.875200e+02	-2.924670e+01
3.897583e+02	-2.929847e+01
3.920096e+02	-2.934796e+01
3.942738e+02	-2.939596e+01
3.965511e+02	-2.944575e+01
3.988416e+02	-2.949891e+01
4.011452e+02	-2.955032e+01
4.034622e+02	-2.960105e+01
4.057926e+02	-2.964845e+01
4.081365e+02	-2.970214e+01
4.104938e+02	-2.974862e+01
4.128648e+02	-2.979940e+01
4.152495e+02	-2.985207e+01
4.176480e+02	-2.989720e+01
4.200603e+02	-2.995468e+01
4.224866e+02	-2.999839e+01
4.249268e+02	-3.005503e+01
4.273812e+02	-3.010383e+01
4.298497e+02	-3.015248e+01
4.323325e+02	-3.019933e+01
4.348297e+02	-3.025065e+01
4.373412e+02	-3.029847e+01
4.398673e+02	-3.035908e+01
4.424079e+02	-3.040308e+01
4.449633e+02	-3.045500e+01
4.475334e+02	-3.050685e+01
4.501183e+02	-3.055008e+01
4.527182e+02	-3.060589e+01
4.553330e+02	-3.065046e+01
4.579630e+02	-3.070403e+01
4.606082e+02	-3.075343e+01
4.632687e+02	-3.079964e+01
4.659445e+02	-3.084700e+01
4.686358e+02	-3.090450e+01
4.713426e+02	-3.095820e+01
4.740650e+02	-3.099965e+01
4.768032e+02	-3.105586e+01
4.795572e+02	-3.110676e+01
4.823271e+02	-3.116192e+01
4.851130e+02	-3.120421e+01
4.879150e+02	-3.125610e+01
4.907332e+02	-3.130823e+01
4.935676e+02	-3.135510e+01
4.964185e+02	-3.140019e+01
4.992858e+02	-3.145874e+01
5.021696e+02	-3.150527e+01
5.050701e+02	-3.155478e+01
5.079874e+02	-3.160679e+01
5.109215e+02	-3.165665e+01
5.138726e+02	-3.171391e+01
5.168407e+02	-3.175486e+01
5.198259e+02	-3.180705e+01
5.228284e+02	-3.186133e+01
5.258482e+02	-3.190428e+01
5.288855e+02	-3.195345e+01
5.319403e+02	-3.200852e+01
5.350128e+02	-3.205595e+01
5.381030e+02	-3.210946e+01
5.412111e+02	-3.215649e+01
5.443371e+02	-3.220867e+01
5.474812e+02	-3.225696e+01
5.506434e+02	-3.231087e+01
5.538239e+02	-3.236103e+01
5.570228e+02	-3.241352e+01
5.602401e+02	-3.245849e+01
5.634760e+02	-3.251807e+01
5.667306e+02	-3.256524e+01
5.700040e+02	-3.260648e+01
5.732964e+02	-3.266288e+01
5.766077e+02	-3.270852e+01
5.799382e+02	-3.276168e+01
5.832879e+02	-3.281188e+01
5.866569e+02	-3.285288e+01
5.900454e+02	-3.291251e+01
5.934535e+02	-3.296371e+01
5.968813e+02	-3.301552e+01
6.003288e+02	-3.306763e+01
6.037963e+02	-3.311125e+01
6.072838e+02	-3.315709e+01
6.107914e+02	-3.321520e+01
6.143194e+02	-3.326853e+01
6.178676e+02	-3.331145e+01
6.214364e+02	-3.336284e+01
6.250258e+02	-3.340969e+01
6.286359e+02	-3.346723e+01
6.322669e+02	-3.351732e+01
6.359189e+02	-3.356917e+01
6.395919e+02	-3.361754e+01
6.432862e+02	-3.366412e+01
6.470017e+02	-3.372496e+01
6.507388e+02	-3.375855e+01
6.544974e+02	-3.381767e+01
6.582778e+02	-3.386498e+01
6.620800e+02	-3.391287e+01
6.659041e+02	-3.396503e+01
6.697504e+02	-3.401482e+01
6.736188e+02	-3.406809e+01
6.775096e+02	-3.412493e+01
6.814229e+02	-3.416937e+01
6.853587e+02	-3.421729e+01
6.893173e+02	-3.427577e+01
6.932988e+02	-3.432137e+01
6.973033e+02	-3.437711e+01
7.013309e+02	-3.442150e+01
