Frequency(Hz)	Magnitude(dB)
1.000000e+01	-2.050082e+00
1.005776e+01	-2.069220e+00
1.011585e+01	-2.088005e+00
1.017428e+01	-2.107158e+00
1.023305e+01	-2.126493e+00
1.029215e+01	-2.145983e+00
1.035160e+01	-2.165785e+00
1.041139e+01	-2.185551e+00
1.047153e+01	-2.205238e+00
1.053201e+01	-2.224984e+00
1.059284e+01	-2.245205e+00
1.065403e+01	-2.265432e+00
1.071556e+01	-2.285914e+00
1.077746e+01	-2.306393e+00
1.083971e+01	-2.327129e+00
1.090232e+01	-2.347966e+00
1.096529e+01	-2.369075e+00
1.102862e+01	-2.389989e+00
1.109232e+01	-2.411185e+00
1.115639e+01	-2.432624e+00
1.122083e+01	-2.454266e+00
1.128564e+01	-2.475831e+00
1.135083e+01	-2.497502e+00
1.141639e+01	-2.519602e+00
1.148233e+01	-2.541710e+00
1.154865e+01	-2.563893e+00
1.161536e+01	-2.586501e+00
1.168245e+01	-2.608863e+00
1.174992e+01	-2.631443e+00
1.181779e+01	-2.654306e+00
1.188605e+01	-2.677135e+00
1.195470e+01	-2.700358e+00
1.202375e+01	-2.723526e+00
1.209320e+01	-2.746992e+00
1.216305e+01	-2.770465e+00
1.223330e+01	-2.794100e+00
1.230396e+01	-2.818036e+00
1.237503e+01	-2.841800e+00
1.244651e+01	-2.865928e+00
1.251840e+01	-2.889982e+00
1.259070e+01	-2.914582e+00
1.266343e+01	-2.939100e+00
1.273657e+01	-2.963868e+00
1.281014e+01	-2.988378e+00
1.288413e+01	-3.013696e+00
1.295855e+01	-3.038589e+00
1.303339e+01	-3.063845e+00
1.310867e+01	-3.089365e+00
1.318439e+01	-3.114887e+00
1.326054e+01	-3.140522e+00
1.333713e+01	-3.166185e+00
1.341417e+01	-3.192295e+00
1.349165e+01	-3.218644e+00
1.356958e+01	-3.244639e+00
1.364795e+01	-3.271033e+00
1.372678e+01	-3.297390e+00
1.380607e+01	-3.324439e+00
1.388581e+01	-3.350996e+00
1.396602e+01	-3.378098e+00
1.404668e+01	-3.405092e+00
1.412782e+01	-3.432397e+00
1.420942e+01	-3.459711e+00
1.429149e+01	-3.487356e+00
1.437404e+01	-3.515205e+00
1.445706e+01	-3.542857e+00
1.454057e+01	-3.571025e+00
1.462455e+01	-3.599060e+00
1.470902e+01	-3.627256e+00
1.479398e+01	-3.655464e+00
1.487943e+01	-3.684000e+00
1.496537e+01	-3.712883e+00
1.505181e+01	-3.741898e+00
1.513875e+01	-3.770703e+00
1.522619e+01	-3.799534e+00
1.531414e+01	-3.828896e+00
1.540259e+01	-3.858536e+00
1.549156e+01	-3.887968e+00
1.558103e+01	-3.917721e+00
1.567103e+01	-3.947260e+00
1.576155e+01	-3.977358e+00
1.585258e+01	-4.007473e+00
1.594415e+01	-4.037551e+00
1.603624e+01	-4.067554e+00
1.612886e+01	-4.098462e+00
1.622202e+01	-4.129064e+00
1.631572e+01	-4.159735e+00
1.640996e+01	-4.191112e+00
1.650474e+01	-4.221764e+00
1.660008e+01	-4.252753e+00
1.669596e+01	-4.284243e+00
1.679239e+01	-4.315562e+00
1.688938e+01	-4.347275e+00
1.698694e+01	-4.378970e+00
1.708505e+01	-4.410628e+00
1.718373e+01	-4.443007e+00
1.728299e+01	-4.474856e+00
1.738281e+01	-4.507214e+00
1.748322e+01	-4.539522e+00
1.758420e+01	-4.571827e+00
1.768576e+01	-4.604642e+00
1.778792e+01	-4.637324e+00
1.789066e+01	-4.670403e+00
1.799399e+01	-4.703144e+00
1.809793e+01	-4.736399e+00
1.820246e+01	-4.769685e+00
1.830760e+01	-4.803033e+00
1.841334e+01	-4.836709e+00
1.851969e+01	-4.870531e+00
1.862666e+01	-4.903875e+00
1.873425e+01	-4.937864e+00
1.884246e+01	-4.972010e+00
1.895129e+01	-5.006050e+00
1.906075e+01	-5.040571e+00
1.917085e+01	-5.075138e+00
1.928158e+01	-5.109285e+00
1.939295e+01	-5.144107e+00
1.950496e+01	-5.179089e+00
1.961762e+01	-5.214092e+00
1.973093e+01	-5.249034e+00
1.984490e+01	-5.284033e+00
1.995952e+01	-5.319477e+00
2.007480e+01	-5.354807e+00
2.019076e+01	-5.390183e+00
2.030738e+01	-5.425756e+00
2.042467e+01	-5.461614e+00
2.054264e+01	-5.497259e+00
2.066130e+01	-5.533198e+00
2.078064e+01	-5.569057e+00
2.090066e+01	-5.605723e+00
2.102139e+01	-5.641937e+00
2.114280e+01	-5.678475e+00
2.126492e+01	-5.714921e+00
2.138775e+01	-5.751596e+00
2.151128e+01	-5.788447e+00
2.163553e+01	-5.825207e+00
2.176050e+01	-5.862417e+00
2.188619e+01	-5.899516e+00
2.201260e+01	-5.936735e+00
2.213974e+01	-5.973963e+00
2.226762e+01	-6.011472e+00
2.239624e+01	-6.048833e+00
2.252560e+01	-6.086446e+00
2.265571e+01	-6.124211e+00
2.278656e+01	-6.162043e+00
2.291818e+01	-6.200015e+00
2.305055e+01	-6.238553e+00
2.318369e+01	-6.276449e+00
2.331760e+01	-6.314910e+00
2.345228e+01	-6.352962e+00
2.358774e+01	-6.391674e+00
2.372398e+01	-6.430413e+00
2.386101e+01	-6.468717e+00
2.399883e+01	-6.507929e+00
2.413745e+01	-6.546570e+00
2.427686e+01	-6.585825e+00
2.441709e+01	-6.624798e+00
2.455812e+01	-6.663484e+00
2.469997e+01	-6.702878e+00
2.484263e+01	-6.742707e+00
2.498612e+01	-6.781887e+00
2.513044e+01	-6.821350e+00
2.527559e+01	-6.861379e+00
2.542158e+01	-6.901069e+00
2.556842e+01	-6.940502e+00
2.571610e+01	-6.980882e+00
2.586463e+01	-7.020578e+00
2.601403e+01	-7.060791e+00
2.616428e+01	-7.101124e+00
2.631541e+01	-7.141576e+00
2.646740e+01	-7.182071e+00
2.662028e+01	-7.222453e+00
2.677404e+01	-7.263231e+00
2.692868e+01	-7.303854e+00
2.708422e+01	-7.344720e+00
2.724066e+01	-7.385451e+00
2.739800e+01	-7.426102e+00
2.755625e+01	-7.467172e+00
2.771541e+01	-7.508206e+00
2.787550e+01	-7.549734e+00
2.803650e+01	-7.590467e+00
2.819844e+01	-7.632142e+00
2.836131e+01	-7.673573e+00
2.852513e+01	-7.715328e+00
2.868989e+01	-7.756782e+00
2.885560e+01	-7.798215e+00
2.902227e+01	-7.840747e+00
2.918990e+01	-7.882067e+00
2.935850e+01	-7.924144e+00
2.952807e+01	-7.965844e+00
2.969863e+01	-8.008216e+00
2.987016e+01	-8.050036e+00
3.004269e+01	-8.092150e+00
3.021622e+01	-8.134552e+00
3.039075e+01	-8.177289e+00
3.056628e+01	-8.219458e+00
3.074283e+01	-8.262467e+00
3.092040e+01	-8.304618e+00
3.109900e+01	-8.347403e+00
3.127862e+01	-8.389979e+00
3.145929e+01	-8.432578e+00
3.164099e+01	-8.475840e+00
3.182375e+01	-8.519529e+00
3.200756e+01	-8.562090e+00
3.219244e+01	-8.604968e+00
3.237838e+01	-8.648244e+00
3.256540e+01	-8.691733e+00
3.275349e+01	-8.734499e+00
3.294268e+01	-8.778126e+00
3.313295e+01	-8.821239e+00
3.332433e+01	-8.864736e+00
3.351681e+01	-8.909045e+00
3.371040e+01	-8.952139e+00
3.390511e+01	-8.995569e+00
3.410094e+01	-9.039492e+00
3.429791e+01	-9.083272e+00
3.449601e+01	-9.127195e+00
3.469526e+01	-9.171105e+00
3.489566e+01	-9.215090e+00
3.509721e+01	-9.258982e+00
3.529993e+01	-9.303403e+00
3.550382e+01	-9.347703e+00
3.570889e+01	-9.391671e+00
3.591515e+01	-9.436138e+00
3.612259e+01	-9.480460e+00
3.633123e+01	-9.524869e+00
3.654108e+01	-9.569066e+00
3.675214e+01	-9.613322e+00
3.696442e+01	-9.658387e+00
3.717792e+01	-9.702814e+00
3.739266e+01	-9.748083e+00
3.760864e+01	-9.792457e+00
3.782587e+01	-9.837103e+00
3.804435e+01	-9.881739e+00
3.826409e+01	-9.926923e+00
3.848510e+01	-9.971821e+00
3.870739e+01	-1.001698e+01
3.893096e+01	-1.006223e+01
3.915583e+01	-1.010771e+01
3.938199e+01	-1.015276e+01
3.960946e+01	-1.019775e+01
3.983824e+01	-1.024333e+01
4.006834e+01	-1.028807e+01
4.029978e+01	-1.033346e+01
4.053255e+01	-1.037894e+01
4.076666e+01	-1.042474e+01
4.100213e+01	-1.046990e+01
4.123896e+01	-1.051568e+01
4.147715e+01	-1.056115e+01
4.171672e+01	-1.060720e+01
4.195767e+01	-1.065218e+01
4.220002e+01	-1.069878e+01
4.244377e+01	-1.074414e+01
4.268892e+01	-1.079013e+01
4.293549e+01	-1.083587e+01
4.318348e+01	-1.088184e+01
4.343291e+01	-1.092727e+01
4.368377e+01	-1.097383e+01
4.393609e+01	-1.101947e+01
4.418986e+01	-1.106571e+01
4.444510e+01	-1.111216e+01
4.470182e+01	-1.115895e+01
4.496001e+01	-1.120445e+01
4.521970e+01	-1.125092e+01
4.548089e+01	-1.129695e+01
4.574358e+01	-1.134304e+01
4.600779e+01	-1.138936e+01
4.627353e+01	-1.143560e+01
4.654081e+01	-1.148280e+01
4.680963e+01	-1.152892e+01
4.708000e+01	-1.157622e+01
4.735193e+01	-1.162197e+01
4.762543e+01	-1.166908e+01
4.790051e+01	-1.171571e+01
4.817719e+01	-1.176171e+01
4.845545e+01	-1.180924e+01
4.873533e+01	-1.185515e+01
4.901682e+01	-1.190260e+01
4.929994e+01	-1.194904e+01
4.958470e+01	-1.199611e+01
4.987110e+01	-1.204269e+01
5.015915e+01	-1.209015e+01
5.044887e+01	-1.213656e+01
5.074026e+01	-1.218340e+01
5.103333e+01	-1.223125e+01
5.132810e+01	-1.227782e+01
5.162457e+01	-1.232415e+01
5.192275e+01	-1.237156e+01
5.222265e+01	-1.241940e+01
5.252429e+01	-1.246608e+01
5.282767e+01	-1.251315e+01
5.313280e+01	-1.256056e+01
5.343969e+01	-1.260799e+01
5.374836e+01	-1.265533e+01
5.405880e+01	-1.270239e+01
5.437105e+01	-1.274930e+01
5.468509e+01	-1.279762e+01
5.500095e+01	-1.284480e+01
5.531863e+01	-1.289192e+01
5.563815e+01	-1.294042e+01
5.595951e+01	-1.298691e+01
5.628273e+01	-1.303449e+01
5.660782e+01	-1.308207e+01
5.693479e+01	-1.312966e+01
5.726364e+01	-1.317692e+01
5.759439e+01	-1.322452e+01
5.792705e+01	-1.327255e+01
5.826164e+01	-1.332006e+01
5.859815e+01	-1.336831e+01
5.893662e+01	-1.341590e+01
5.927703e+01	-1.346390e+01
5.961941e+01	-1.351216e+01
5.996377e+01	-1.355946e+01
6.031012e+01	-1.360698e+01
6.065847e+01	-1.365420e+01
6.100883e+01	-1.370326e+01
6.136121e+01	-1.375018e+01
6.171563e+01	-1.379866e+01
6.207210e+01	-1.384657e+01
6.243063e+01	-1.389373e+01
6.279122e+01	-1.394256e+01
6.315390e+01	-1.399100e+01
6.351868e+01	-1.403844e+01
6.388556e+01	-1.408731e+01
6.425456e+01	-1.413406e+01
6.462569e+01	-1.418337e+01
6.499897e+01	-1.423142e+01
6.537440e+01	-1.427961e+01
6.575200e+01	-1.432724e+01
6.613178e+01	-1.437617e+01
6.651375e+01	-1.442292e+01
6.689793e+01	-1.447169e+01
6.728433e+01	-1.452032e+01
6.767297e+01	-1.456884e+01
6.806384e+01	-1.461641e+01
6.845698e+01	-1.466557e+01
6.885238e+01	-1.471316e+01
6.925007e+01	-1.476191e+01
6.965005e+01	-1.481064e+01
7.005235e+01	-1.485888e+01
7.045697e+01	-1.490681e+01
7.086393e+01	-1.495526e+01
7.127323e+01	-1.500384e+01
7.168490e+01	-1.505176e+01
7.209895e+01	-1.510097e+01
7.251539e+01	-1.514822e+01
7.293424e+01	-1.519748e+01
7.335551e+01	-1.524668e+01
7.377920e+01	-1.529443e+01
7.420535e+01	-1.534355e+01
7.463396e+01	-1.539121e+01
7.506504e+01	-1.543989e+01
7.549861e+01	-1.548899e+01
7.593469e+01	-1.553745e+01
7.637328e+01	-1.558573e+01
7.681441e+01	-1.563399e+01
7.725809e+01	-1.568341e+01
7.770433e+01	-1.573324e+01
7.815315e+01	-1.577989e+01
7.860456e+01	-1.582937e+01
7.905857e+01	-1.587855e+01
7.951521e+01	-1.592671e+01
7.997449e+01	-1.597500e+01
8.043642e+01	-1.602518e+01
8.090102e+01	-1.607433e+01
8.136830e+01	-1.612279e+01
8.183828e+01	-1.617127e+01
8.231097e+01	-1.622010e+01
8.278640e+01	-1.626885e+01
8.326457e+01	-1.631837e+01
8.374550e+01	-1.636620e+01
8.422921e+01	-1.641567e+01
8.471572e+01	-1.646464e+01
8.520503e+01	-1.651432e+01
8.569717e+01	-1.656229e+01
8.619215e+01	-1.661080e+01
8.669000e+01	-1.666012e+01
8.719071e+01	-1.670884e+01
8.769432e+01	-1.675774e+01
8.820084e+01	-1.680711e+01
8.871029e+01	-1.685554e+01
8.922267e+01	-1.690467e+01
8.973802e+01	-1.695367e+01
9.025634e+01	-1.700474e+01
9.077766e+01	-1.705129e+01
9.130199e+01	-1.710111e+01
9.182935e+01	-1.715103e+01
9.235975e+01	-1.719920e+01
9.289321e+01	-1.724765e+01
9.342976e+01	-1.729687e+01
9.396941e+01	-1.734571e+01
9.451217e+01	-1.739642e+01
9.505807e+01	-1.744465e+01
9.560712e+01	-1.749267e+01
9.615934e+01	-1.754304e+01
9.671476e+01	-1.759150e+01
9.727338e+01	-1.763974e+01
9.783522e+01	-1.769038e+01
9.840032e+01	-1.773902e+01
9.896867e+01	-1.778912e+01
9.954031e+01	-1.783802e+01
1.001153e+02	-1.788701e+01
1.006935e+02	-1.793620e+01
1.012751e+02	-1.798461e+01
1.018601e+02	-1.803620e+01
1.024484e+02	-1.808322e+01
1.030402e+02	-1.813334e+01
1.036353e+02	-1.818393e+01
1.042339e+02	-1.823216e+01
1.048360e+02	-1.828023e+01
1.054415e+02	-1.833147e+01
1.060505e+02	-1.838083e+01
1.066631e+02	-1.842818e+01
1.072791e+02	-1.847874e+01
1.078988e+02	-1.852849e+01
1.085220e+02	-1.857771e+01
1.091488e+02	-1.862627e+01
1.097793e+02	-1.867658e+01
1.104133e+02	-1.872649e+01
1.110511e+02	-1.877443e+01
1.116925e+02	-1.882385e+01
1.123376e+02	-1.887388e+01
1.129865e+02	-1.892350e+01
1.136391e+02	-1.897220e+01
1.142955e+02	-1.902170e+01
1.149556e+02	-1.907195e+01
1.156196e+02	-1.911958e+01
1.162874e+02	-1.916925e+01
1.169591e+02	-1.922053e+01
1.176347e+02	-1.926933e+01
1.183141e+02	-1.931778e+01
1.189975e+02	-1.936764e+01
1.196848e+02	-1.941690e+01
1.203761e+02	-1.946611e+01
1.210714e+02	-1.951537e+01
1.217707e+02	-1.956403e+01
1.224740e+02	-1.961423e+01
1.231814e+02	-1.966426e+01
1.238929e+02	-1.971403e+01
1.246085e+02	-1.976406e+01
1.253283e+02	-1.981543e+01
1.260522e+02	-1.986275e+01
1.267802e+02	-1.991300e+01
1.275125e+02	-1.996131e+01
1.282490e+02	-2.001057e+01
1.289898e+02	-2.005921e+01
1.297348e+02	-2.011066e+01
1.304842e+02	-2.015868e+01
1.312378e+02	-2.020878e+01
1.319959e+02	-2.025858e+01
1.327583e+02	-2.030862e+01
1.335251e+02	-2.035902e+01
1.342963e+02	-2.040713e+01
1.350720e+02	-2.045667e+01
1.358522e+02	-2.050700e+01
1.366368e+02	-2.055602e+01
1.374260e+02	-2.060511e+01
1.382198e+02	-2.065690e+01
1.390182e+02	-2.070559e+01
1.398211e+02	-2.075599e+01
1.406287e+02	-2.080519e+01
1.414410e+02	-2.085357e+01
1.422579e+02	-2.090232e+01
1.430796e+02	-2.095299e+01
1.439060e+02	-2.100252e+01
1.447372e+02	-2.105057e+01
1.455732e+02	-2.110175e+01
1.464141e+02	-2.115171e+01
1.472597e+02	-2.120189e+01
1.481103e+02	-2.125151e+01
1.489658e+02	-2.129907e+01
1.498262e+02	-2.134961e+01
1.506916e+02	-2.139965e+01
1.515620e+02	-2.145028e+01
1.524374e+02	-2.149992e+01
1.533179e+02	-2.154957e+01
1.542034e+02	-2.159959e+01
1.550941e+02	-2.164943e+01
1.559899e+02	-2.169826e+01
1.568909e+02	-2.174716e+01
1.577971e+02	-2.179718e+01
1.587085e+02	-2.184683e+01
1.596252e+02	-2.189622e+01
1.605472e+02	-2.194562e+01
1.614745e+02	-2.199574e+01
1.624072e+02	-2.204867e+01
1.633453e+02	-2.209631e+01
1.642887e+02	-2.214739e+01
1.652377e+02	-2.219447e+01
1.661921e+02	-2.224780e+01
1.671520e+02	-2.229522e+01
1.681175e+02	-2.234490e+01
1.690885e+02	-2.239424e+01
1.700651e+02	-2.244491e+01
1.710474e+02	-2.249233e+01
1.720354e+02	-2.254314e+01
1.730291e+02	-2.259391e+01
1.740285e+02	-2.264287e+01
1.750337e+02	-2.269576e+01
1.760446e+02	-2.274467e+01
1.770615e+02	-2.279399e+01
1.780842e+02	-2.284315e+01
1.791128e+02	-2.289243e+01
1.801473e+02	-2.294191e+01
1.811878e+02	-2.299354e+01
1.822344e+02	-2.304093e+01
1.832870e+02	-2.309204e+01
1.843456e+02	-2.314177e+01
1.854104e+02	-2.319116e+01
1.864813e+02	-2.324073e+01
1.875584e+02	-2.329205e+01
1.886418e+02	-2.334051e+01
1.897313e+02	-2.338957e+01
1.908272e+02	-2.344060e+01
1.919294e+02	-2.348751e+01
1.930380e+02	-2.353969e+01
1.941530e+02	-2.359031e+01
1.952744e+02	-2.364044e+01
1.964023e+02	-2.368996e+01
1.975367e+02	-2.374081e+01
1.986777e+02	-2.378888e+01
1.998252e+02	-2.384015e+01
2.009794e+02	-2.388964e+01
2.021403e+02	-2.393858e+01
2.033078e+02	-2.398758e+01
2.044821e+02	-2.403956e+01
2.056632e+02	-2.408859e+01
2.068511e+02	-2.413944e+01
2.080459e+02	-2.418778e+01
2.092475e+02	-2.423718e+01
2.104561e+02	-2.428501e+01
2.116717e+02	-2.433717e+01
2.128943e+02	-2.438810e+01
2.141240e+02	-2.443675e+01
2.153608e+02	-2.448808e+01
2.166047e+02	-2.453771e+01
2.178558e+02	-2.458744e+01
2.191141e+02	-2.463643e+01
2.203797e+02	-2.468736e+01
2.216526e+02	-2.473414e+01
2.229329e+02	-2.478384e+01
2.242205e+02	-2.483457e+01
2.255156e+02	-2.488663e+01
2.268182e+02	-2.493576e+01
2.281283e+02	-2.498740e+01
2.294459e+02	-2.503678e+01
2.307712e+02	-2.508819e+01
2.321041e+02	-2.513685e+01
2.334447e+02	-2.518454e+01
2.347931e+02	-2.523586e+01
2.361493e+02	-2.528622e+01
2.375133e+02	-2.533343e+01
2.388851e+02	-2.538430e+01
2.402649e+02	-2.543521e+01
2.416527e+02	-2.548399e+01
2.430484e+02	-2.553719e+01
2.444523e+02	-2.558531e+01
2.458642e+02	-2.563828e+01
2.472843e+02	-2.568517e+01
2.487126e+02	-2.573238e+01
2.501492e+02	-2.578417e+01
2.515940e+02	-2.583460e+01
2.530472e+02	-2.588573e+01
2.545088e+02	-2.593475e+01
2.559789e+02	-2.598651e+01
2.574574e+02	-2.603868e+01
2.589444e+02	-2.608139e+01
2.604401e+02	-2.613138e+01
2.619444e+02	-2.618328e+01
2.634574e+02	-2.623566e+01
2.649791e+02	-2.628355e+01
2.665096e+02	-2.633274e+01
2.680489e+02	-2.638215e+01
2.695972e+02	-2.643697e+01
2.711544e+02	-2.648554e+01
2.727205e+02	-2.653716e+01
2.742958e+02	-2.658546e+01
2.758801e+02	-2.663371e+01
2.774736e+02	-2.668555e+01
2.790762e+02	-2.673296e+01
2.806882e+02	-2.678535e+01
2.823094e+02	-2.683226e+01
2.839400e+02	-2.688533e+01
2.855800e+02	-2.693557e+01
2.872295e+02	-2.698230e+01
2.888886e+02	-2.703386e+01
2.905572e+02	-2.708189e+01
2.922354e+02	-2.713297e+01
2.939234e+02	-2.718124e+01
2.956211e+02	-2.723554e+01
2.973286e+02	-2.728482e+01
2.990459e+02	-2.733411e+01
3.007732e+02	-2.738611e+01
3.025104e+02	-2.743310e+01
3.042577e+02	-2.748534e+01
3.060151e+02	-2.753355e+01
3.077826e+02	-2.758500e+01
3.095604e+02	-2.763302e+01
3.113484e+02	-2.768531e+01
3.131467e+02	-2.773209e+01
3.149554e+02	-2.778702e+01
3.167746e+02	-2.783241e+01
3.186043e+02	-2.788483e+01
3.204445e+02	-2.793511e+01
3.222954e+02	-2.799143e+01
3.241570e+02	-2.803519e+01
3.260293e+02	-2.808309e+01
3.279124e+02	-2.813389e+01
3.298064e+02	-2.818442e+01
3.317114e+02	-2.823578e+01
3.336273e+02	-2.828808e+01
3.355544e+02	-2.833489e+01
3.374925e+02	-2.838675e+01
3.394418e+02	-2.843709e+01
3.414024e+02	-2.848418e+01
3.433744e+02	-2.853714e+01
3.453577e+02	-2.858974e+01
3.473525e+02	-2.863283e+01
3.493588e+02	-2.868563e+01
3.513766e+02	-2.873170e+01
3.534062e+02	-2.878037e+01
3.554474e+02	-2.883664e+01
3.575005e+02	-2.888711e+01
3.595654e+02	-2.893532e+01
3.616422e+02	-2.898440e+01
3.637311e+02	-2.903472e+01
3.658320e+02	-2.908410e+01
3.679450e+02	-2.913787e+01
3.700702e+02	-2.918467e+01
3.722077e+02	-2.923921e+01
3.743576e+02	-2.928267e+01
3.765199e+02	-2.933619e+01
3.786946e+02	-2.938720e+01
3.808820e+02	-2.943470e+01
3.830819e+02	-2.948713e+01
3.852946e+02	-2.953404e+01
3.875200e+02	-2.958811e+01
3.897583e+02	-2.963198e+01
3.920096e+02	-2.968488e+01
3.942738e+02	-2.973721e+01
3.965511e+02	-2.978925e+01
3.988416e+02	-2.984072e+01
4.011452e+02	-2.988892e+01
4.034622e+02	-2.993960e+01
4.057926e+02	-2.998908e+01
4.081365e+02	-3.004038e+01
4.104938e+02	-3.008737e+01
4.128648e+02	-3.013847e+01
4.152495e+02	-3.019215e+01
4.176480e+02	-3.023481e+01
4.200603e+02	-3.028857e+01
4.224866e+02	-3.033831e+01
4.249268e+02	-3.038293e+01
4.273812e+02	-3.044062e+01
4.298497e+02	-3.048927e+01
4.323325e+02	-3.053356e+01
4.348297e+02	-3.059308e+01
4.373412e+02	-3.063573e+01
4.398673e+02	-3.068768e+01
4.424079e+02	-3.073529e+01
4.449633e+02	-3.078446e+01
4.475334e+02	-3.084820e+01
4.501183e+02	-3.089365e+01
4.527182e+02	-3.093853e+01
4.553330e+02	-3.098840e+01
4.579630e+02	-3.103904e+01
4.606082e+02	-3.108307e+01
4.632687e+02	-3.113591e+01
4.659445e+02	-3.118687e+01
4.686358e+02	-3.123900e+01
4.713426e+02	-3.129028e+01
4.740650e+02	-3.133705e+01
4.768032e+02	-3.139126e+01
4.795572e+02	-3.143662e+01
4.823271e+02	-3.149211e+01
4.851130e+02	-3.153790e+01
4.879150e+02	-3.159451e+01
4.907332e+02	-3.164217e+01
4.935676e+02	-3.169400e+01
4.964185e+02	-3.173931e+01
4.992858e+02	-3.178825e+01
5.021696e+02	-3.183730e+01
5.050701e+02	-3.188926e+01
5.079874e+02	-3.194435e+01
5.109215e+02	-3.198977e+01
5.138726e+02	-3.204316e+01
5.168407e+02	-3.208855e+01
5.198259e+02	-3.213973e+01
5.228284e+02	-3.219946e+01
5.258482e+02	-3.224453e+01
5.288855e+02	-3.228811e+01
5.319403e+02	-3.234577e+01
5.350128e+02	-3.240031e+01
5.381030e+02	-3.244206e+01
5.412111e+02	-3.249238e+01
5.443371e+02	-3.254590e+01
5.474812e+02	-3.260072e+01
5.506434e+02	-3.264484e+01
5.538239e+02	-3.269766e+01
5.570228e+02	-3.274687e+01
5.602401e+02	-3.279540e+01
5.634760e+02	-3.284191e+01
5.667306e+02	-3.289796e+01
5.700040e+02	-3.294723e+01
5.732964e+02	-3.299837e+01
5.766077e+02	-3.304372e+01
5.799382e+02	-3.309977e+01
5.832879e+02	-3.314808e+01
5.866569e+02	-3.319768e+01
5.900454e+02	-3.324811e+01
5.934535e+02	-3.329909e+01
5.968813e+02	-3.334899e+01
6.003288e+02	-3.340115e+01
6.037963e+02	-3.344919e+01
6.072838e+02	-3.349687e+01
6.107914e+02	-3.355139e+01
6.143194e+02	-3.360114e+01
6.178676e+02	-3.365042e+01
6.214364e+02	-3.369420e+01
6.250258e+02	-3.374933e+01
6.286359e+02	-3.379954e+01
6.322669e+02	-3.385380e+01
6.359189e+02	-3.390028e+01
6.395919e+02	-3.395241e+01
6.432862e+02	-3.400825e+01
6.470017e+02	-3.405307e+01
6.507388e+02	-3.409933e+01
6.544974e+02	-3.415235e+01
6.582778e+02	-3.420244e+01
6.620800e+02	-3.425066e+01
6.659041e+02	-3.430032e+01
6.697504e+02	-3.435594e+01
6.736188e+02	-3.441018e+01
6.775096e+02	-3.446057e+01
6.814229e+02	-3.450680e+01
6.853587e+02	-3.456026e+01
6.893173e+02	-3.460930e+01
6.932988e+02	-3.465563e+01
6.973033e+02	-3.471174e+01
7.013309e+02	-3.477000e+01
