Frequency(Hz)	Magnitude(dB)
1.000000e+01	-2.217392e+00
1.005776e+01	-2.237440e+00
1.011585e+01	-2.257911e+00
1.017428e+01	-2.278158e+00
1.023305e+01	-2.298546e+00
1.029215e+01	-2.319136e+00
1.035160e+01	-2.340042e+00
1.041139e+01	-2.360870e+00
1.047153e+01	-2.382042e+00
1.053201e+01	-2.403167e+00
1.059284e+01	-2.424400e+00
1.065403e+01	-2.445788e+00
1.071556e+01	-2.467707e+00
1.077746e+01	-2.489353e+00
1.083971e+01	-2.511109e+00
1.090232e+01	-2.533259e+00
1.096529e+01	-2.555357e+00
1.102862e+01	-2.577478e+00
1.109232e+01	-2.600130e+00
1.115639e+01	-2.622551e+00
1.122083e+01	-2.645284e+00
1.128564e+01	-2.668173e+00
1.135083e+01	-2.691257e+00
1.141639e+01	-2.714681e+00
1.148233e+01	-2.738026e+00
1.154865e+01	-2.761497e+00
1.161536e+01	-2.784986e+00
1.168245e+01	-2.808637e+00
1.174992e+01	-2.832586e+00
1.181779e+01	-2.857004e+00
1.188605e+01	-2.880961e+00
1.195470e+01	-2.905186e+00
1.202375e+01	-2.929522e+00
1.209320e+01	-2.954328e+00
1.216305e+01	-2.979032e+00
1.223330e+01	-3.004091e+00
1.230396e+01	-3.028962e+00
1.237503e+01	-3.053990e+00
1.244651e+01	-3.079532e+00
1.251840e+01	-3.104894e+00
1.259070e+01	-3.130514e+00
1.266343e+01	-3.156250e+00
1.273657e+01	-3.182260e+00
1.281014e+01	-3.208198e+00
1.288413e+01	-3.234659e+00
1.295855e+01	-3.260946e+00
1.303339e+01	-3.287589e+00
1.310867e+01	-3.314062e+00
1.318439e+01	-3.340578e+00
1.326054e+01	-3.367738e+00
1.333713e+01	-3.394562e+00
1.341417e+01	-3.421961e+00
1.349165e+01	-3.449100e+00
1.356958e+01	-3.476958e+00
1.364795e+01	-3.504475e+00
1.372678e+01	-3.532203e+00
1.380607e+01	-3.560146e+00
1.388581e+01	-3.587989e+00
1.396602e+01	-3.616348e+00
1.404668e+01	-3.644689e+00
1.412782e+01	-3.673015e+00
1.420942e+01	-3.701886e+00
1.429149e+01	-3.730568e+00
1.437404e+01	-3.759275e+00
1.445706e+01	-3.788600e+00
1.454057e+01	-3.817793e+00
1.462455e+01	-3.847012e+00
1.470902e+01	-3.876726e+00
1.479398e+01	-3.905979e+00
1.487943e+01	-3.935886e+00
1.496537e+01	-3.965768e+00
1.505181e+01	-3.996096e+00
1.513875e+01	-4.026007e+00
1.522619e+01	-4.056154e+00
1.531414e+01	-4.086863e+00
1.540259e+01	-4.117171e+00
1.549156e+01	-4.147903e+00
1.558103e+01	-4.178982e+00
1.567103e+01	-4.209675e+00
1.576155e+01	-4.241000e+00
1.585258e+01	-4.272037e+00
1.594415e+01	-4.303531e+00
1.603624e+01	-4.335119e+00
1.612886e+01	-4.366690e+00
1.622202e+01	-4.398478e+00
1.631572e+01	-4.430516e+00
1.640996e+01	-4.462337e+00
1.650474e+01	-4.494570e+00
1.660008e+01	-4.526978e+00
1.669596e+01	-4.559553e+00
1.679239e+01	-4.591883e+00
1.688938e+01	-4.624664e+00
1.698694e+01	-4.657450e+00
1.708505e+01	-4.690681e+00
1.718373e+01	-4.723564e+00
1.728299e+01	-4.756799e+00
1.738281e+01	-4.790440e+00
1.748322e+01	-4.823581e+00
1.758420e+01	-4.857392e+00
1.768576e+01	-4.890839e+00
1.778792e+01	-4.924931e+00
1.789066e+01	-4.958934e+00
1.799399e+01	-4.993058e+00
1.809793e+01	-5.027209e+00
1.820246e+01	-5.061552e+00
1.830760e+01	-5.096147e+00
1.841334e+01	-5.130819e+00
1.851969e+01	-5.165506e+00
1.862666e+01	-5.199980e+00
1.873425e+01	-5.235372e+00
1.884246e+01	-5.270406e+00
1.895129e+01	-5.305465e+00
1.906075e+01	-5.340950e+00
1.917085e+01	-5.376332e+00
1.928158e+01	-5.412106e+00
1.939295e+01	-5.447824e+00
1.950496e+01	-5.483557e+00
1.961762e+01	-5.519593e+00
1.973093e+01	-5.555456e+00
1.984490e+01	-5.591614e+00
1.995952e+01	-5.627854e+00
2.007480e+01	-5.664274e+00
2.019076e+01	-5.700971e+00
2.030738e+01	-5.737653e+00
2.042467e+01	-5.774299e+00
2.054264e+01	-5.810892e+00
2.066130e+01	-5.847734e+00
2.078064e+01	-5.885072e+00
2.090066e+01	-5.922659e+00
2.102139e+01	-5.959822e+00
2.114280e+01	-5.996933e+00
2.126492e+01	-6.034550e+00
2.138775e+01	-6.071982e+00
2.151128e+01	-6.109957e+00
2.163553e+01	-6.147598e+00
2.176050e+01	-6.185579e+00
2.188619e+01	-6.223562e+00
2.201260e+01	-6.261627e+00
2.213974e+01	-6.299943e+00
2.226762e+01	-6.338156e+00
2.239624e+01	-6.376706e+00
2.252560e+01	-6.415392e+00
2.265571e+01	-6.453761e+00
2.278656e+01	-6.492826e+00
2.291818e+01	-6.531265e+00
2.305055e+01	-6.570555e+00
2.318369e+01	-6.610028e+00
2.331760e+01	-6.648843e+00
2.345228e+01	-6.687973e+00
2.358774e+01	-6.727114e+00
2.372398e+01	-6.766850e+00
2.386101e+01	-6.806164e+00
2.399883e+01	-6.846051e+00
2.413745e+01	-6.885581e+00
2.427686e+01	-6.925555e+00
2.441709e+01	-6.965159e+00
2.455812e+01	-7.005337e+00
2.469997e+01	-7.045690e+00
2.484263e+01	-7.085548e+00
2.498612e+01	-7.125857e+00
2.513044e+01	-7.166177e+00
2.527559e+01	-7.206596e+00
2.542158e+01	-7.247189e+00
2.556842e+01	-7.288242e+00
2.571610e+01	-7.328755e+00
2.586463e+01	-7.369731e+00
2.601403e+01	-7.410562e+00
2.616428e+01	-7.451499e+00
2.631541e+01	-7.493007e+00
2.646740e+01	-7.533848e+00
2.662028e+01	-7.575113e+00
2.677404e+01	-7.616288e+00
2.692868e+01	-7.658059e+00
2.708422e+01	-7.698730e+00
2.724066e+01	-7.740795e+00
2.739800e+01	-7.782498e+00
2.755625e+01	-7.824175e+00
2.771541e+01	-7.865694e+00
2.787550e+01	-7.907913e+00
2.803650e+01	-7.950259e+00
2.819844e+01	-7.991864e+00
2.836131e+01	-8.034225e+00
2.852513e+01	-8.076303e+00
2.868989e+01	-8.118406e+00
2.885560e+01	-8.160561e+00
2.902227e+01	-8.203153e+00
2.918990e+01	-8.245656e+00
2.935850e+01	-8.288368e+00
2.952807e+01	-8.331004e+00
2.969863e+01	-8.373488e+00
2.987016e+01	-8.415533e+00
3.004269e+01	-8.459368e+00
3.021622e+01	-8.502241e+00
3.039075e+01	-8.544940e+00
3.056628e+01	-8.588262e+00
3.074283e+01	-8.631742e+00
3.092040e+01	-8.674586e+00
3.109900e+01	-8.718048e+00
3.127862e+01	-8.761296e+00
3.145929e+01	-8.804225e+00
3.164099e+01	-8.847867e+00
3.182375e+01	-8.891877e+00
3.200756e+01	-8.935361e+00
3.219244e+01	-8.978722e+00
3.237838e+01	-9.022930e+00
3.256540e+01	-9.066569e+00
3.275349e+01	-9.110358e+00
3.294268e+01	-9.154343e+00
3.313295e+01	-9.198283e+00
3.332433e+01	-9.242324e+00
3.351681e+01	-9.286177e+00
3.371040e+01	-9.330422e+00
3.390511e+01	-9.374182e+00
3.410094e+01	-9.418149e+00
3.429791e+01	-9.463334e+00
3.449601e+01	-9.507182e+00
3.469526e+01	-9.552346e+00
3.489566e+01	-9.596481e+00
3.509721e+01	-9.641403e+00
3.529993e+01	-9.685671e+00
3.550382e+01	-9.730059e+00
3.570889e+01	-9.775589e+00
3.591515e+01	-9.820018e+00
3.612259e+01	-9.864517e+00
3.633123e+01	-9.910314e+00
3.654108e+01	-9.954360e+00
3.675214e+01	-9.999652e+00
3.696442e+01	-1.004445e+01
3.717792e+01	-1.009003e+01
3.739266e+01	-1.013473e+01
3.760864e+01	-1.018010e+01
3.782587e+01	-1.022561e+01
3.804435e+01	-1.027077e+01
3.826409e+01	-1.031589e+01
3.848510e+01	-1.036170e+01
3.870739e+01	-1.040767e+01
3.893096e+01	-1.045268e+01
3.915583e+01	-1.049859e+01
3.938199e+01	-1.054396e+01
3.960946e+01	-1.058916e+01
3.983824e+01	-1.063525e+01
4.006834e+01	-1.068085e+01
4.029978e+01	-1.072659e+01
4.053255e+01	-1.077206e+01
4.076666e+01	-1.081807e+01
4.100213e+01	-1.086483e+01
4.123896e+01	-1.091001e+01
4.147715e+01	-1.095631e+01
4.171672e+01	-1.100224e+01
4.195767e+01	-1.104783e+01
4.220002e+01	-1.109437e+01
4.244377e+01	-1.113995e+01
4.268892e+01	-1.118674e+01
4.293549e+01	-1.123293e+01
4.318348e+01	-1.127972e+01
4.343291e+01	-1.132519e+01
4.368377e+01	-1.137221e+01
4.393609e+01	-1.141779e+01
4.418986e+01	-1.146524e+01
4.444510e+01	-1.151112e+01
4.470182e+01	-1.155731e+01
4.496001e+01	-1.160414e+01
4.521970e+01	-1.165117e+01
4.548089e+01	-1.169691e+01
4.574358e+01	-1.174422e+01
4.600779e+01	-1.179018e+01
4.627353e+01	-1.183765e+01
4.654081e+01	-1.188371e+01
4.680963e+01	-1.193131e+01
4.708000e+01	-1.197779e+01
4.735193e+01	-1.202449e+01
4.762543e+01	-1.207122e+01
4.790051e+01	-1.211855e+01
4.817719e+01	-1.216474e+01
4.845545e+01	-1.221230e+01
4.873533e+01	-1.225955e+01
4.901682e+01	-1.230648e+01
4.929994e+01	-1.235387e+01
4.958470e+01	-1.240090e+01
4.987110e+01	-1.244795e+01
5.015915e+01	-1.249541e+01
5.044887e+01	-1.254224e+01
5.074026e+01	-1.258950e+01
5.103333e+01	-1.263749e+01
5.132810e+01	-1.268441e+01
5.162457e+01	-1.273153e+01
5.192275e+01	-1.277920e+01
5.222265e+01	-1.282543e+01
5.252429e+01	-1.287432e+01
5.282767e+01	-1.292166e+01
5.313280e+01	-1.296925e+01
5.343969e+01	-1.301577e+01
5.374836e+01	-1.306406e+01
5.405880e+01	-1.311129e+01
5.437105e+01	-1.315873e+01
5.468509e+01	-1.320661e+01
5.500095e+01	-1.325425e+01
5.531863e+01	-1.330173e+01
5.563815e+01	-1.334934e+01
5.595951e+01	-1.339698e+01
5.628273e+01	-1.344552e+01
5.660782e+01	-1.349205e+01
5.693479e+01	-1.354066e+01
5.726364e+01	-1.358774e+01
5.759439e+01	-1.363662e+01
5.792705e+01	-1.368400e+01
5.826164e+01	-1.373220e+01
5.859815e+01	-1.378026e+01
5.893662e+01	-1.382804e+01
5.927703e+01	-1.387618e+01
5.961941e+01	-1.392433e+01
5.996377e+01	-1.397209e+01
6.031012e+01	-1.402028e+01
6.065847e+01	-1.406806e+01
6.100883e+01	-1.411557e+01
6.136121e+01	-1.416422e+01
6.171563e+01	-1.421202e+01
6.207210e+01	-1.426108e+01
6.243063e+01	-1.430914e+01
6.279122e+01	-1.435695e+01
6.315390e+01	-1.440535e+01
6.351868e+01	-1.445336e+01
6.388556e+01	-1.450123e+01
6.425456e+01	-1.454939e+01
6.462569e+01	-1.459810e+01
6.499897e+01	-1.464614e+01
6.537440e+01	-1.469417e+01
6.575200e+01	-1.474331e+01
6.613178e+01	-1.479226e+01
6.651375e+01	-1.484027e+01
6.689793e+01	-1.488745e+01
6.728433e+01	-1.493660e+01
6.767297e+01	-1.498492e+01
6.806384e+01	-1.503452e+01
6.845698e+01	-1.508128e+01
6.885238e+01	-1.513044e+01
6.925007e+01	-1.517866e+01
6.965005e+01	-1.522703e+01
7.005235e+01	-1.527679e+01
7.045697e+01	-1.532405e+01
7.086393e+01	-1.537337e+01
7.127323e+01	-1.542159e+01
7.168490e+01	-1.547024e+01
7.209895e+01	-1.551937e+01
7.251539e+01	-1.556754e+01
7.293424e+01	-1.561633e+01
7.335551e+01	-1.566452e+01
7.377920e+01	-1.571440e+01
7.420535e+01	-1.576169e+01
7.463396e+01	-1.581173e+01
7.506504e+01	-1.585906e+01
7.549861e+01	-1.590846e+01
7.593469e+01	-1.595668e+01
7.637328e+01	-1.600566e+01
7.681441e+01	-1.605412e+01
7.725809e+01	-1.610492e+01
7.770433e+01	-1.615221e+01
7.815315e+01	-1.620048e+01
7.860456e+01	-1.624883e+01
7.905857e+01	-1.629954e+01
7.951521e+01	-1.634804e+01
7.997449e+01	-1.639501e+01
8.043642e+01	-1.644572e+01
8.090102e+01	-1.649397e+01
8.136830e+01	-1.654369e+01
8.183828e+01	-1.659211e+01
8.231097e+01	-1.664053e+01
8.278640e+01	-1.669094e+01
8.326457e+01	-1.673902e+01
8.374550e+01	-1.678822e+01
8.422921e+01	-1.683780e+01
8.471572e+01	-1.688509e+01
8.520503e+01	-1.693578e+01
8.569717e+01	-1.698394e+01
8.619215e+01	-1.703384e+01
8.669000e+01	-1.708195e+01
8.719071e+01	-1.713160e+01
8.769432e+01	-1.718064e+01
8.820084e+01	-1.723002e+01
8.871029e+01	-1.727922e+01
8.922267e+01	-1.732598e+01
8.973802e+01	-1.737627e+01
9.025634e+01	-1.742594e+01
9.077766e+01	-1.747414e+01
9.130199e+01	-1.752450e+01
9.182935e+01	-1.757370e+01
9.235975e+01	-1.762214e+01
9.289321e+01	-1.767112e+01
9.342976e+01	-1.772099e+01
9.396941e+01	-1.776889e+01
9.451217e+01	-1.781781e+01
9.505807e+01	-1.786752e+01
9.560712e+01	-1.791764e+01
9.615934e+01	-1.796733e+01
9.671476e+01	-1.801648e+01
9.727338e+01	-1.806553e+01
9.783522e+01	-1.811544e+01
9.840032e+01	-1.816363e+01
9.896867e+01	-1.821295e+01
9.954031e+01	-1.826339e+01
1.001153e+02	-1.831203e+01
1.006935e+02	-1.835976e+01
1.012751e+02	-1.841006e+01
1.018601e+02	-1.845970e+01
1.024484e+02	-1.850916e+01
1.030402e+02	-1.855837e+01
1.036353e+02	-1.860788e+01
1.042339e+02	-1.865654e+01
1.048360e+02	-1.870601e+01
1.054415e+02	-1.875562e+01
1.060505e+02	-1.880480e+01
1.066631e+02	-1.885415e+01
1.072791e+02	-1.890242e+01
1.078988e+02	-1.895243e+01
1.085220e+02	-1.900468e+01
1.091488e+02	-1.905224e+01
1.097793e+02	-1.910029e+01
1.104133e+02	-1.915117e+01
1.110511e+02	-1.920069e+01
1.116925e+02	-1.924955e+01
1.123376e+02	-1.929819e+01
1.129865e+02	-1.934734e+01
1.136391e+02	-1.939948e+01
1.142955e+02	-1.944749e+01
1.149556e+02	-1.949824e+01
1.156196e+02	-1.954566e+01
1.162874e+02	-1.959527e+01
1.169591e+02	-1.964367e+01
1.176347e+02	-1.969409e+01
1.183141e+02	-1.974229e+01
1.189975e+02	-1.979270e+01
1.196848e+02	-1.984429e+01
1.203761e+02	-1.989294e+01
1.210714e+02	-1.994371e+01
1.217707e+02	-1.999170e+01
1.224740e+02	-2.004268e+01
1.231814e+02	-2.009089e+01
1.238929e+02	-2.014192e+01
1.246085e+02	-2.019108e+01
1.253283e+02	-2.024070e+01
1.260522e+02	-2.029146e+01
1.267802e+02	-2.033990e+01
1.275125e+02	-2.038802e+01
1.282490e+02	-2.043814e+01
1.289898e+02	-2.048827e+01
1.297348e+02	-2.053770e+01
1.304842e+02	-2.058737e+01
1.312378e+02	-2.063635e+01
1.319959e+02	-2.068638e+01
1.327583e+02	-2.073677e+01
1.335251e+02	-2.078418e+01
1.342963e+02	-2.083379e+01
1.350720e+02	-2.088380e+01
1.358522e+02	-2.093402e+01
1.366368e+02	-2.098548e+01
1.374260e+02	-2.103416e+01
1.382198e+02	-2.108333e+01
1.390182e+02	-2.113450e+01
1.398211e+02	-2.118086e+01
1.406287e+02	-2.123396e+01
1.414410e+02	-2.128256e+01
1.422579e+02	-2.133078e+01
1.430796e+02	-2.138004e+01
1.439060e+02	-2.143162e+01
1.447372e+02	-2.147974e+01
1.455732e+02	-2.153032e+01
1.464141e+02	-2.158095e+01
1.472597e+02	-2.162980e+01
1.481103e+02	-2.167881e+01
1.489658e+02	-2.172802e+01
1.498262e+02	-2.177811e+01
1.506916e+02	-2.182905e+01
1.515620e+02	-2.187879e+01
1.524374e+02	-2.192784e+01
1.533179e+02	-2.197682e+01
1.542034e+02	-2.202722e+01
1.550941e+02	-2.207678e+01
1.559899e+02	-2.212592e+01
1.568909e+02	-2.217694e+01
1.577971e+02	-2.222677e+01
1.587085e+02	-2.227611e+01
1.596252e+02	-2.232525e+01
1.605472e+02	-2.237548e+01
1.614745e+02	-2.242533e+01
1.624072e+02	-2.247581e+01
1.633453e+02	-2.252483e+01
1.642887e+02	-2.257624e+01
1.652377e+02	-2.262416e+01
1.661921e+02	-2.267353e+01
1.671520e+02	-2.272366e+01
1.681175e+02	-2.277218e+01
1.690885e+02	-2.282120e+01
1.700651e+02	-2.287422e+01
1.710474e+02	-2.292314e+01
1.720354e+02	-2.297318e+01
1.730291e+02	-2.302185e+01
1.740285e+02	-2.306956e+01
1.750337e+02	-2.312069e+01
1.760446e+02	-2.317132e+01
1.770615e+02	-2.322297e+01
1.780842e+02	-2.327245e+01
1.791128e+02	-2.332072e+01
1.801473e+02	-2.337457e+01
1.811878e+02	-2.341924e+01
1.822344e+02	-2.347192e+01
1.832870e+02	-2.351964e+01
1.843456e+02	-2.357096e+01
1.854104e+02	-2.362030e+01
1.864813e+02	-2.366830e+01
1.875584e+02	-2.371821e+01
1.886418e+02	-2.377073e+01
1.897313e+02	-2.382137e+01
1.908272e+02	-2.386876e+01
1.919294e+02	-2.391906e+01
1.930380e+02	-2.397042e+01
1.941530e+02	-2.401884e+01
1.952744e+02	-2.406958e+01
1.964023e+02	-2.412131e+01
1.975367e+02	-2.416784e+01
1.986777e+02	-2.421755e+01
1.998252e+02	-2.426979e+01
2.009794e+02	-2.431959e+01
2.021403e+02	-2.436850e+01
2.033078e+02	-2.441718e+01
2.044821e+02	-2.446627e+01
2.056632e+02	-2.451858e+01
2.068511e+02	-2.456789e+01
2.080459e+02	-2.462058e+01
2.092475e+02	-2.466767e+01
2.104561e+02	-2.471700e+01
2.116717e+02	-2.476615e+01
2.128943e+02	-2.481881e+01
2.141240e+02	-2.486843e+01
2.153608e+02	-2.491839e+01
2.166047e+02	-2.496191e+01
2.178558e+02	-2.501472e+01
2.191141e+02	-2.506521e+01
2.203797e+02	-2.511739e+01
2.216526e+02	-2.516657e+01
2.229329e+02	-2.521889e+01
2.242205e+02	-2.526808e+01
2.255156e+02	-2.531488e+01
2.268182e+02	-2.536710e+01
2.281283e+02	-2.541755e+01
2.294459e+02	-2.546740e+01
2.307712e+02	-2.551784e+01
2.321041e+02	-2.556205e+01
2.334447e+02	-2.561573e+01
2.347931e+02	-2.566278e+01
2.361493e+02	-2.571771e+01
2.375133e+02	-2.576491e+01
2.388851e+02	-2.581542e+01
2.402649e+02	-2.586525e+01
2.416527e+02	-2.591460e+01
2.430484e+02	-2.596446e+01
2.444523e+02	-2.601539e+01
2.458642e+02	-2.606524e+01
2.472843e+02	-2.611769e+01
2.487126e+02	-2.616514e+01
2.501492e+02	-2.621362e+01
2.515940e+02	-2.626432e+01
2.530472e+02	-2.631485e+01
2.545088e+02	-2.636509e+01
2.559789e+02	-2.641352e+01
2.574574e+02	-2.646579e+01
2.589444e+02	-2.651669e+01
2.604401e+02	-2.656736e+01
2.619444e+02	-2.661530e+01
2.634574e+02	-2.666389e+01
2.649791e+02	-2.671408e+01
2.665096e+02	-2.676381e+01
2.680489e+02	-2.681507e+01
2.695972e+02	-2.686414e+01
2.711544e+02	-2.691737e+01
2.727205e+02	-2.696650e+01
2.742958e+02	-2.701469e+01
2.758801e+02	-2.706541e+01
2.774736e+02	-2.711441e+01
2.790762e+02	-2.716522e+01
2.806882e+02	-2.720998e+01
2.823094e+02	-2.726694e+01
2.839400e+02	-2.731519e+01
2.855800e+02	-2.736060e+01
2.872295e+02	-2.741304e+01
2.888886e+02	-2.746583e+01
2.905572e+02	-2.751617e+01
2.922354e+02	-2.756466e+01
2.939234e+02	-2.761434e+01
2.956211e+02	-2.766094e+01
2.973286e+02	-2.771392e+01
2.990459e+02	-2.776408e+01
3.007732e+02	-2.781701e+01
3.025104e+02	-2.786634e+01
3.042577e+02	-2.791572e+01
3.060151e+02	-2.797026e+01
3.077826e+02	-2.801439e+01
3.095604e+02	-2.806737e+01
3.113484e+02	-2.811220e+01
3.131467e+02	-2.816335e+01
3.149554e+02	-2.821677e+01
3.167746e+02	-2.826234e+01
3.186043e+02	-2.831620e+01
3.204445e+02	-2.836463e+01
3.222954e+02	-2.841430e+01
3.241570e+02	-2.846476e+01
3.260293e+02	-2.851538e+01
3.279124e+02	-2.856328e+01
3.298064e+02	-2.861723e+01
3.317114e+02	-2.866269e+01
3.336273e+02	-2.871617e+01
3.355544e+02	-2.876331e+01
3.374925e+02	-2.881530e+01
3.394418e+02	-2.886079e+01
3.414024e+02	-2.891677e+01
3.433744e+02	-2.896644e+01
3.453577e+02	-2.901742e+01
3.473525e+02	-2.906461e+01
3.493588e+02	-2.911779e+01
3.513766e+02	-2.916670e+01
3.534062e+02	-2.921585e+01
3.554474e+02	-2.926126e+01
3.575005e+02	-2.931579e+01
3.595654e+02	-2.936503e+01
3.616422e+02	-2.941417e+01
3.637311e+02	-2.946615e+01
3.658320e+02	-2.951252e+01
3.679450e+02	-2.956664e+01
3.700702e+02	-2.961561e+01
3.722077e+02	-2.966788e+01
3.743576e+02	-2.972019e+01
3.765199e+02	-2.976815e+01
3.786946e+02	-2.981421e+01
3.808820e+02	-2.986945e+01
3.830819e+02	-2.991302e+01
3.852946e+02	-2.996527e+01
3.875200e+02	-3.002394e+01
3.897583e+02	-3.006754e+01
3.920096e+02	-3.011738e+01
3.942738e+02	-3.016798e+01
3.965511e+02	-3.021939e+01
3.988416e+02	-3.026858e+01
4.011452e+02	-3.031634e+01
4.034622e+02	-3.036223e+01
4.057926e+02	-3.042548e+01
4.081365e+02	-3.046756e+01
4.104938e+02	-3.051625e+01
4.128648e+02	-3.056942e+01
4.152495e+02	-3.062118e+01
4.176480e+02	-3.067204e+01
4.200603e+02	-3.072087e+01
4.224866e+02	-3.076725e+01
4.249268e+02	-3.082430e+01
4.273812e+02	-3.086914e+01
4.298497e+02	-3.091256e+01
4.323325e+02	-3.097305e+01
4.348297e+02	-3.101711e+01
4.373412e+02	-3.107032e+01
4.398673e+02	-3.111962e+01
4.424079e+02	-3.117406e+01
4.449633e+02	-3.121831e+01
4.475334e+02	-3.127384e+01
4.501183e+02	-3.131182e+01
4.527182e+02	-3.137093e+01
4.553330e+02	-3.142483e+01
4.579630e+02	-3.147227e+01
4.606082e+02	-3.152755e+01
4.632687e+02	-3.157575e+01
4.659445e+02	-3.162378e+01
4.686358e+02	-3.167172e+01
4.713426e+02	-3.172702e+01
4.740650e+02	-3.177308e+01
4.768032e+02	-3.182897e+01
4.795572e+02	-3.187195e+01
4.823271e+02	-3.192457e+01
4.851130e+02	-3.197278e+01
4.879150e+02	-3.202429e+01
4.907332e+02	-3.207728e+01
4.935676e+02	-3.212688e+01
4.964185e+02	-3.217077e+01
4.992858e+02	-3.222230e+01
5.021696e+02	-3.227483e+01
5.050701e+02	-3.232200e+01
5.079874e+02	-3.237240e+01
5.109215e+02	-3.242372e+01
5.138726e+02	-3.248069e+01
5.168407e+02	-3.252229e+01
5.198259e+02	-3.258064e+01
5.228284e+02	-3.262385e+01
5.258482e+02	-3.267071e+01
5.288855e+02	-3.271981e+01
5.319403e+02	-3.277894e+01
5.350128e+02	-3.282723e+01
5.381030e+02	-3.287817e+01
5.412111e+02	-3.292961e+01
5.443371e+02	-3.297556e+01
5.474812e+02	-3.301889e+01
5.506434e+02	-3.307758e+01
5.538239e+02	-3.313351e+01
5.570228e+02	-3.317567e+01
5.602401e+02	-3.322863e+01
5.634760e+02	-3.327795e+01
5.667306e+02	-3.332723e+01
5.700040e+02	-3.337186e+01
5.732964e+02	-3.342657e+01
5.766077e+02	-3.347936e+01
5.799382e+02	-3.352710e+01
5.832879e+02	-3.358450e+01
5.866569e+02	-3.363476e+01
5.900454e+02	-3.367883e+01
5.934535e+02	-3.373499e+01
5.968813e+02	-3.379040e+01
6.003288e+02	-3.382784e+01
6.037963e+02	-3.388919e+01
6.072838e+02	-3.393518e+01
6.107914e+02	-3.397677e+01
6.143194e+02	-3.403576e+01
6.178676e+02	-3.408603e+01
6.214364e+02	-3.412934e+01
6.250258e+02	-3.418386e+01
6.286359e+02	-3.424068e+01
6.322669e+02	-3.428572e+01
6.359189e+02	-3.432142e+01
6.395919e+02	-3.438199e+01
6.432862e+02	-3.442807e+01
6.470017e+02	-3.448778e+01
6.507388e+02	-3.453644e+01
6.544974e+02	-3.458572e+01
6.582778e+02	-3.463982e+01
6.620800e+02	-3.468276e+01
6.659041e+02	-3.473942e+01
6.697504e+02	-3.478733e+01
6.736188e+02	-3.484028e+01
6.775096e+02	-3.489320e+01
6.814229e+02	-3.494089e+01
6.853587e+02	-3.497779e+01
6.893173e+02	-3.504039e+01
6.932988e+02	-3.509777e+01
6.973033e+02	-3.513430e+01
7.013309e+02	-3.519188e+01
