Frequency(Hz)	Magnitude(dB)
1.000000e+01	-2.218520e+00
1.005776e+01	-2.238406e+00
1.011585e+01	-2.258913e+00
1.017428e+01	-2.279272e+00
1.023305e+01	-2.299683e+00
1.029215e+01	-2.320335e+00
1.035160e+01	-2.341123e+00
1.041139e+01	-2.362001e+00
1.047153e+01	-2.383261e+00
1.053201e+01	-2.404075e+00
1.059284e+01	-2.425786e+00
1.065403e+01	-2.446902e+00
1.071556e+01	-2.468837e+00
1.077746e+01	-2.490398e+00
1.083971e+01	-2.512459e+00
1.090232e+01	-2.534443e+00
1.096529e+01	-2.556565e+00
1.102862e+01	-2.578781e+00
1.109232e+01	-2.601375e+00
1.115639e+01	-2.623899e+00
1.122083e+01	-2.646795e+00
1.128564e+01	-2.669710e+00
1.135083e+01	-2.692778e+00
1.141639e+01	-2.715815e+00
1.148233e+01	-2.739090e+00
1.154865e+01	-2.762892e+00
1.161536e+01	-2.786191e+00
1.168245e+01	-2.810188e+00
1.174992e+01	-2.834041e+00
1.181779e+01	-2.858178e+00
1.188605e+01	-2.882059e+00
1.195470e+01	-2.906452e+00
1.202375e+01	-2.931102e+00
1.209320e+01	-2.955649e+00
1.216305e+01	-2.980295e+00
1.223330e+01	-3.005263e+00
1.230396e+01	-3.030340e+00
1.237503e+01	-3.055591e+00
1.244651e+01	-3.081024e+00
1.251840e+01	-3.106281e+00
1.259070e+01	-3.131886e+00
1.266343e+01	-3.157722e+00
1.273657e+01	-3.183707e+00
1.281014e+01	-3.209725e+00
1.288413e+01	-3.235998e+00
1.295855e+01	-3.262349e+00
1.303339e+01	-3.288920e+00
1.310867e+01	-3.315311e+00
1.318439e+01	-3.342246e+00
1.326054e+01	-3.369203e+00
1.333713e+01	-3.396206e+00
1.341417e+01	-3.423410e+00
1.349165e+01	-3.450883e+00
1.356958e+01	-3.478314e+00
1.364795e+01	-3.506055e+00
1.372678e+01	-3.533912e+00
1.380607e+01	-3.561535e+00
1.388581e+01	-3.589692e+00
1.396602e+01	-3.618015e+00
1.404668e+01	-3.646531e+00
1.412782e+01	-3.674885e+00
1.420942e+01	-3.703664e+00
1.429149e+01	-3.731935e+00
1.437404e+01	-3.761162e+00
1.445706e+01	-3.790177e+00
1.454057e+01	-3.819407e+00
1.462455e+01	-3.848811e+00
1.470902e+01	-3.878145e+00
1.479398e+01	-3.907697e+00
1.487943e+01	-3.937385e+00
1.496537e+01	-3.967464e+00
1.505181e+01	-3.997323e+00
1.513875e+01	-4.027540e+00
1.522619e+01	-4.058092e+00
1.531414e+01	-4.088250e+00
1.540259e+01	-4.119136e+00
1.549156e+01	-4.149603e+00
1.558103e+01	-4.180402e+00
1.567103e+01	-4.211398e+00
1.576155e+01	-4.242455e+00
1.585258e+01	-4.273977e+00
1.594415e+01	-4.305226e+00
1.603624e+01	-4.336682e+00
1.612886e+01	-4.368302e+00
1.622202e+01	-4.400357e+00
1.631572e+01	-4.432236e+00
1.640996e+01	-4.464096e+00
1.650474e+01	-4.496815e+00
1.660008e+01	-4.528883e+00
1.669596e+01	-4.561292e+00
1.679239e+01	-4.593579e+00
1.688938e+01	-4.626787e+00
1.698694e+01	-4.659308e+00
1.708505e+01	-4.692317e+00
1.718373e+01	-4.725688e+00
1.728299e+01	-4.758852e+00
1.738281e+01	-4.792071e+00
1.748322e+01	-4.825491e+00
1.758420e+01	-4.859109e+00
1.768576e+01	-4.892659e+00
1.778792e+01	-4.926759e+00
1.789066e+01	-4.961113e+00
1.799399e+01	-4.995102e+00
1.809793e+01	-5.029022e+00
1.820246e+01	-5.063281e+00
1.830760e+01	-5.098402e+00
1.841334e+01	-5.132674e+00
1.851969e+01	-5.167443e+00
1.862666e+01	-5.202403e+00
1.873425e+01	-5.237466e+00
1.884246e+01	-5.272495e+00
1.895129e+01	-5.307448e+00
1.906075e+01	-5.342917e+00
1.917085e+01	-5.378406e+00
1.928158e+01	-5.414073e+00
1.939295e+01	-5.449758e+00
1.950496e+01	-5.485526e+00
1.961762e+01	-5.521411e+00
1.973093e+01	-5.557421e+00
1.984490e+01	-5.593693e+00
1.995952e+01	-5.629986e+00
2.007480e+01	-5.666490e+00
2.019076e+01	-5.702808e+00
2.030738e+01	-5.739268e+00
2.042467e+01	-5.776356e+00
2.054264e+01	-5.813235e+00
2.066130e+01	-5.850278e+00
2.078064e+01	-5.887583e+00
2.090066e+01	-5.924499e+00
2.102139e+01	-5.961637e+00
2.114280e+01	-5.999201e+00
2.126492e+01	-6.036430e+00
2.138775e+01	-6.074243e+00
2.151128e+01	-6.111830e+00
2.163553e+01	-6.149953e+00
2.176050e+01	-6.187900e+00
2.188619e+01	-6.225759e+00
2.201260e+01	-6.263736e+00
2.213974e+01	-6.302151e+00
2.226762e+01	-6.340705e+00
2.239624e+01	-6.378970e+00
2.252560e+01	-6.417271e+00
2.265571e+01	-6.455896e+00
2.278656e+01	-6.494755e+00
2.291818e+01	-6.533822e+00
2.305055e+01	-6.572848e+00
2.318369e+01	-6.611407e+00
2.331760e+01	-6.651101e+00
2.345228e+01	-6.690322e+00
2.358774e+01	-6.729815e+00
2.372398e+01	-6.769249e+00
2.386101e+01	-6.808829e+00
2.399883e+01	-6.848101e+00
2.413745e+01	-6.888229e+00
2.427686e+01	-6.927978e+00
2.441709e+01	-6.967628e+00
2.455812e+01	-7.007837e+00
2.469997e+01	-7.047753e+00
2.484263e+01	-7.088134e+00
2.498612e+01	-7.128182e+00
2.513044e+01	-7.168741e+00
2.527559e+01	-7.209380e+00
2.542158e+01	-7.249611e+00
2.556842e+01	-7.290432e+00
2.571610e+01	-7.331392e+00
2.586463e+01	-7.371991e+00
2.601403e+01	-7.412613e+00
2.616428e+01	-7.453972e+00
2.631541e+01	-7.495158e+00
2.646740e+01	-7.535730e+00
2.662028e+01	-7.577264e+00
2.677404e+01	-7.618832e+00
2.692868e+01	-7.659796e+00
2.708422e+01	-7.701708e+00
2.724066e+01	-7.743099e+00
2.739800e+01	-7.784669e+00
2.755625e+01	-7.826416e+00
2.771541e+01	-7.868335e+00
2.787550e+01	-7.910335e+00
2.803650e+01	-7.951832e+00
2.819844e+01	-7.993967e+00
2.836131e+01	-8.035971e+00
2.852513e+01	-8.078630e+00
2.868989e+01	-8.120728e+00
2.885560e+01	-8.163229e+00
2.902227e+01	-8.205450e+00
2.918990e+01	-8.248276e+00
2.935850e+01	-8.290428e+00
2.952807e+01	-8.333403e+00
2.969863e+01	-8.376247e+00
2.987016e+01	-8.418888e+00
3.004269e+01	-8.462106e+00
3.021622e+01	-8.504582e+00
3.039075e+01	-8.547684e+00
3.056628e+01	-8.590372e+00
3.074283e+01	-8.633714e+00
3.092040e+01	-8.677601e+00
3.109900e+01	-8.720677e+00
3.127862e+01	-8.763469e+00
3.145929e+01	-8.807023e+00
3.164099e+01	-8.850927e+00
3.182375e+01	-8.894185e+00
3.200756e+01	-8.937735e+00
3.219244e+01	-8.981223e+00
3.237838e+01	-9.024844e+00
3.256540e+01	-9.068502e+00
3.275349e+01	-9.112218e+00
3.294268e+01	-9.156220e+00
3.313295e+01	-9.200926e+00
3.332433e+01	-9.244497e+00
3.351681e+01	-9.288827e+00
3.371040e+01	-9.332602e+00
3.390511e+01	-9.377346e+00
3.410094e+01	-9.421409e+00
3.429791e+01	-9.465759e+00
3.449601e+01	-9.509843e+00
3.469526e+01	-9.554690e+00
3.489566e+01	-9.599164e+00
3.509721e+01	-9.644225e+00
3.529993e+01	-9.688046e+00
3.550382e+01	-9.733186e+00
3.570889e+01	-9.778286e+00
3.591515e+01	-9.822220e+00
3.612259e+01	-9.867385e+00
3.633123e+01	-9.912146e+00
3.654108e+01	-9.957450e+00
3.675214e+01	-1.000207e+01
3.696442e+01	-1.004728e+01
3.717792e+01	-1.009252e+01
3.739266e+01	-1.013784e+01
3.760864e+01	-1.018299e+01
3.782587e+01	-1.022792e+01
3.804435e+01	-1.027275e+01
3.826409e+01	-1.031816e+01
3.848510e+01	-1.036398e+01
3.870739e+01	-1.040952e+01
3.893096e+01	-1.045475e+01
3.915583e+01	-1.050044e+01
3.938199e+01	-1.054608e+01
3.960946e+01	-1.059150e+01
3.983824e+01	-1.063751e+01
4.006834e+01	-1.068336e+01
4.029978e+01	-1.072910e+01
4.053255e+01	-1.077510e+01
4.076666e+01	-1.082059e+01
4.100213e+01	-1.086667e+01
4.123896e+01	-1.091256e+01
4.147715e+01	-1.095807e+01
4.171672e+01	-1.100476e+01
4.195767e+01	-1.105046e+01
4.220002e+01	-1.109713e+01
4.244377e+01	-1.114268e+01
4.268892e+01	-1.118879e+01
4.293549e+01	-1.123548e+01
4.318348e+01	-1.128102e+01
4.343291e+01	-1.132807e+01
4.368377e+01	-1.137403e+01
4.393609e+01	-1.142067e+01
4.418986e+01	-1.146744e+01
4.444510e+01	-1.151392e+01
4.470182e+01	-1.156038e+01
4.496001e+01	-1.160631e+01
4.521970e+01	-1.165328e+01
4.548089e+01	-1.170053e+01
4.574358e+01	-1.174671e+01
4.600779e+01	-1.179352e+01
4.627353e+01	-1.184001e+01
4.654081e+01	-1.188599e+01
4.680963e+01	-1.193342e+01
4.708000e+01	-1.198030e+01
4.735193e+01	-1.202711e+01
4.762543e+01	-1.207436e+01
4.790051e+01	-1.212066e+01
4.817719e+01	-1.216817e+01
4.845545e+01	-1.221603e+01
4.873533e+01	-1.226197e+01
4.901682e+01	-1.230837e+01
4.929994e+01	-1.235579e+01
4.958470e+01	-1.240307e+01
4.987110e+01	-1.244999e+01
5.015915e+01	-1.249844e+01
5.044887e+01	-1.254487e+01
5.074026e+01	-1.259186e+01
5.103333e+01	-1.263951e+01
5.132810e+01	-1.268696e+01
5.162457e+01	-1.273460e+01
5.192275e+01	-1.278147e+01
5.222265e+01	-1.282890e+01
5.252429e+01	-1.287692e+01
5.282767e+01	-1.292429e+01
5.313280e+01	-1.297142e+01
5.343969e+01	-1.301851e+01
5.374836e+01	-1.306633e+01
5.405880e+01	-1.311431e+01
5.437105e+01	-1.316152e+01
5.468509e+01	-1.320956e+01
5.500095e+01	-1.325684e+01
5.531863e+01	-1.330436e+01
5.563815e+01	-1.335228e+01
5.595951e+01	-1.339971e+01
5.628273e+01	-1.344863e+01
5.660782e+01	-1.349557e+01
5.693479e+01	-1.354344e+01
5.726364e+01	-1.359136e+01
5.759439e+01	-1.363906e+01
5.792705e+01	-1.368683e+01
5.826164e+01	-1.373520e+01
5.859815e+01	-1.378327e+01
5.893662e+01	-1.383074e+01
5.927703e+01	-1.387761e+01
5.961941e+01	-1.392593e+01
5.996377e+01	-1.397537e+01
6.031012e+01	-1.402334e+01
6.065847e+01	-1.407128e+01
6.100883e+01	-1.411915e+01
6.136121e+01	-1.416726e+01
6.171563e+01	-1.421520e+01
6.207210e+01	-1.426314e+01
6.243063e+01	-1.431134e+01
6.279122e+01	-1.435977e+01
6.315390e+01	-1.440676e+01
6.351868e+01	-1.445523e+01
6.388556e+01	-1.450416e+01
6.425456e+01	-1.455222e+01
6.462569e+01	-1.460076e+01
6.499897e+01	-1.464909e+01
6.537440e+01	-1.469777e+01
6.575200e+01	-1.474624e+01
6.613178e+01	-1.479385e+01
6.651375e+01	-1.484209e+01
6.689793e+01	-1.489134e+01
6.728433e+01	-1.493922e+01
6.767297e+01	-1.498825e+01
6.806384e+01	-1.503549e+01
6.845698e+01	-1.508457e+01
6.885238e+01	-1.513257e+01
6.925007e+01	-1.518189e+01
6.965005e+01	-1.523029e+01
7.005235e+01	-1.527955e+01
7.045697e+01	-1.532641e+01
7.086393e+01	-1.537613e+01
7.127323e+01	-1.542436e+01
7.168490e+01	-1.547282e+01
7.209895e+01	-1.552258e+01
7.251539e+01	-1.557030e+01
7.293424e+01	-1.561925e+01
7.335551e+01	-1.566957e+01
7.377920e+01	-1.571689e+01
7.420535e+01	-1.576404e+01
7.463396e+01	-1.581451e+01
7.506504e+01	-1.586229e+01
7.549861e+01	-1.591115e+01
7.593469e+01	-1.596030e+01
7.637328e+01	-1.600875e+01
7.681441e+01	-1.605748e+01
7.725809e+01	-1.610631e+01
7.770433e+01	-1.615443e+01
7.815315e+01	-1.620404e+01
7.860456e+01	-1.625255e+01
7.905857e+01	-1.630212e+01
7.951521e+01	-1.635039e+01
7.997449e+01	-1.639867e+01
8.043642e+01	-1.644726e+01
8.090102e+01	-1.649695e+01
8.136830e+01	-1.654556e+01
8.183828e+01	-1.659518e+01
8.231097e+01	-1.664315e+01
8.278640e+01	-1.669250e+01
8.326457e+01	-1.674205e+01
8.374550e+01	-1.678983e+01
8.422921e+01	-1.684025e+01
8.471572e+01	-1.688941e+01
8.520503e+01	-1.693724e+01
8.569717e+01	-1.698677e+01
8.619215e+01	-1.703666e+01
8.669000e+01	-1.708508e+01
8.719071e+01	-1.713433e+01
8.769432e+01	-1.718455e+01
8.820084e+01	-1.723147e+01
8.871029e+01	-1.728162e+01
8.922267e+01	-1.733079e+01
8.973802e+01	-1.737895e+01
9.025634e+01	-1.742927e+01
9.077766e+01	-1.747774e+01
9.130199e+01	-1.752646e+01
9.182935e+01	-1.757706e+01
9.235975e+01	-1.762469e+01
9.289321e+01	-1.767473e+01
9.342976e+01	-1.772257e+01
9.396941e+01	-1.777202e+01
9.451217e+01	-1.782190e+01
9.505807e+01	-1.787126e+01
9.560712e+01	-1.791999e+01
9.615934e+01	-1.796886e+01
9.671476e+01	-1.801884e+01
9.727338e+01	-1.806737e+01
9.783522e+01	-1.811802e+01
9.840032e+01	-1.816622e+01
9.896867e+01	-1.821551e+01
9.954031e+01	-1.826476e+01
1.001153e+02	-1.831431e+01
1.006935e+02	-1.836441e+01
1.012751e+02	-1.841309e+01
1.018601e+02	-1.846207e+01
1.024484e+02	-1.851264e+01
1.030402e+02	-1.856078e+01
1.036353e+02	-1.861016e+01
1.042339e+02	-1.865922e+01
1.048360e+02	-1.870901e+01
1.054415e+02	-1.875842e+01
1.060505e+02	-1.880787e+01
1.066631e+02	-1.885770e+01
1.072791e+02	-1.890538e+01
1.078988e+02	-1.895520e+01
1.085220e+02	-1.900533e+01
1.091488e+02	-1.905488e+01
1.097793e+02	-1.910534e+01
1.104133e+02	-1.915340e+01
1.110511e+02	-1.920361e+01
1.116925e+02	-1.925327e+01
1.123376e+02	-1.930215e+01
1.129865e+02	-1.935114e+01
1.136391e+02	-1.940096e+01
1.142955e+02	-1.945014e+01
1.149556e+02	-1.950033e+01
1.156196e+02	-1.954774e+01
1.162874e+02	-1.959804e+01
1.169591e+02	-1.964894e+01
1.176347e+02	-1.969754e+01
1.183141e+02	-1.974802e+01
1.189975e+02	-1.979805e+01
1.196848e+02	-1.984439e+01
1.203761e+02	-1.989454e+01
1.210714e+02	-1.994611e+01
1.217707e+02	-1.999434e+01
1.224740e+02	-2.004249e+01
1.231814e+02	-2.009340e+01
1.238929e+02	-2.014287e+01
1.246085e+02	-2.019254e+01
1.253283e+02	-2.024293e+01
1.260522e+02	-2.029005e+01
1.267802e+02	-2.034191e+01
1.275125e+02	-2.039090e+01
1.282490e+02	-2.044099e+01
1.289898e+02	-2.049088e+01
1.297348e+02	-2.053859e+01
1.304842e+02	-2.059036e+01
1.312378e+02	-2.063795e+01
1.319959e+02	-2.068840e+01
1.327583e+02	-2.073749e+01
1.335251e+02	-2.078861e+01
1.342963e+02	-2.083682e+01
1.350720e+02	-2.088761e+01
1.358522e+02	-2.093735e+01
1.366368e+02	-2.098628e+01
1.374260e+02	-2.103593e+01
1.382198e+02	-2.108744e+01
1.390182e+02	-2.113584e+01
1.398211e+02	-2.118475e+01
1.406287e+02	-2.123523e+01
1.414410e+02	-2.128432e+01
1.422579e+02	-2.133537e+01
1.430796e+02	-2.138373e+01
1.439060e+02	-2.143336e+01
1.447372e+02	-2.148364e+01
1.455732e+02	-2.153358e+01
1.464141e+02	-2.158205e+01
1.472597e+02	-2.163213e+01
1.481103e+02	-2.168146e+01
1.489658e+02	-2.173247e+01
1.498262e+02	-2.178377e+01
1.506916e+02	-2.183176e+01
1.515620e+02	-2.188063e+01
1.524374e+02	-2.193204e+01
1.533179e+02	-2.197913e+01
1.542034e+02	-2.202949e+01
1.550941e+02	-2.207973e+01
1.559899e+02	-2.212884e+01
1.568909e+02	-2.217965e+01
1.577971e+02	-2.222826e+01
1.587085e+02	-2.228019e+01
1.596252e+02	-2.232886e+01
1.605472e+02	-2.237802e+01
1.614745e+02	-2.242959e+01
1.624072e+02	-2.247734e+01
1.633453e+02	-2.252734e+01
1.642887e+02	-2.257795e+01
1.652377e+02	-2.262493e+01
1.661921e+02	-2.267659e+01
1.671520e+02	-2.272768e+01
1.681175e+02	-2.277423e+01
1.690885e+02	-2.282812e+01
1.700651e+02	-2.287510e+01
1.710474e+02	-2.292595e+01
1.720354e+02	-2.297564e+01
1.730291e+02	-2.302588e+01
1.740285e+02	-2.307498e+01
1.750337e+02	-2.312436e+01
1.760446e+02	-2.317609e+01
1.770615e+02	-2.322657e+01
1.780842e+02	-2.327667e+01
1.791128e+02	-2.332519e+01
1.801473e+02	-2.337263e+01
1.811878e+02	-2.342018e+01
1.822344e+02	-2.347416e+01
1.832870e+02	-2.352286e+01
1.843456e+02	-2.357153e+01
1.854104e+02	-2.362310e+01
1.864813e+02	-2.367305e+01
1.875584e+02	-2.371980e+01
1.886418e+02	-2.377122e+01
1.897313e+02	-2.382235e+01
1.908272e+02	-2.387161e+01
1.919294e+02	-2.392233e+01
1.930380e+02	-2.397131e+01
1.941530e+02	-2.402047e+01
1.952744e+02	-2.407144e+01
1.964023e+02	-2.412182e+01
1.975367e+02	-2.417022e+01
1.986777e+02	-2.422075e+01
1.998252e+02	-2.427232e+01
2.009794e+02	-2.432106e+01
2.021403e+02	-2.437123e+01
2.033078e+02	-2.442039e+01
2.044821e+02	-2.446973e+01
2.056632e+02	-2.452128e+01
2.068511e+02	-2.456957e+01
2.080459e+02	-2.462035e+01
2.092475e+02	-2.467130e+01
2.104561e+02	-2.472038e+01
2.116717e+02	-2.477077e+01
2.128943e+02	-2.481876e+01
2.141240e+02	-2.487310e+01
2.153608e+02	-2.491754e+01
2.166047e+02	-2.496986e+01
2.178558e+02	-2.501943e+01
2.191141e+02	-2.506971e+01
2.203797e+02	-2.511884e+01
2.216526e+02	-2.517000e+01
2.229329e+02	-2.521980e+01
2.242205e+02	-2.526955e+01
2.255156e+02	-2.531882e+01
2.268182e+02	-2.536831e+01
2.281283e+02	-2.542064e+01
2.294459e+02	-2.546551e+01
2.307712e+02	-2.551969e+01
2.321041e+02	-2.556842e+01
2.334447e+02	-2.562203e+01
2.347931e+02	-2.566841e+01
2.361493e+02	-2.571988e+01
2.375133e+02	-2.576773e+01
2.388851e+02	-2.581951e+01
2.402649e+02	-2.586827e+01
2.416527e+02	-2.591951e+01
2.430484e+02	-2.596798e+01
2.444523e+02	-2.601738e+01
2.458642e+02	-2.606476e+01
2.472843e+02	-2.611817e+01
2.487126e+02	-2.617260e+01
2.501492e+02	-2.621963e+01
2.515940e+02	-2.626582e+01
2.530472e+02	-2.631982e+01
2.545088e+02	-2.637113e+01
2.559789e+02	-2.641613e+01
2.574574e+02	-2.646630e+01
2.589444e+02	-2.651959e+01
2.604401e+02	-2.657055e+01
2.619444e+02	-2.661848e+01
2.634574e+02	-2.666693e+01
2.649791e+02	-2.671658e+01
2.665096e+02	-2.676849e+01
2.680489e+02	-2.681560e+01
2.695972e+02	-2.686568e+01
2.711544e+02	-2.691846e+01
2.727205e+02	-2.696795e+01
2.742958e+02	-2.701957e+01
2.758801e+02	-2.707006e+01
2.774736e+02	-2.711928e+01
2.790762e+02	-2.717037e+01
2.806882e+02	-2.722009e+01
2.823094e+02	-2.726910e+01
2.839400e+02	-2.731776e+01
2.855800e+02	-2.736789e+01
2.872295e+02	-2.742185e+01
2.888886e+02	-2.746654e+01
2.905572e+02	-2.751643e+01
2.922354e+02	-2.756580e+01
2.939234e+02	-2.761854e+01
2.956211e+02	-2.766915e+01
2.973286e+02	-2.771622e+01
2.990459e+02	-2.776895e+01
3.007732e+02	-2.781638e+01
3.025104e+02	-2.786486e+01
3.042577e+02	-2.792048e+01
3.060151e+02	-2.796674e+01
3.077826e+02	-2.801869e+01
3.095604e+02	-2.806636e+01
3.113484e+02	-2.811946e+01
3.131467e+02	-2.816630e+01
3.149554e+02	-2.821759e+01
3.167746e+02	-2.826683e+01
3.186043e+02	-2.831666e+01
3.204445e+02	-2.837271e+01
3.222954e+02	-2.842035e+01
3.241570e+02	-2.847059e+01
3.260293e+02	-2.851963e+01
3.279124e+02	-2.856353e+01
3.298064e+02	-2.861820e+01
3.317114e+02	-2.866246e+01
3.336273e+02	-2.871689e+01
3.355544e+02	-2.877262e+01
3.374925e+02	-2.881815e+01
3.394418e+02	-2.886960e+01
3.414024e+02	-2.892212e+01
3.433744e+02	-2.896980e+01
3.453577e+02	-2.901458e+01
3.473525e+02	-2.907157e+01
3.493588e+02	-2.911621e+01
3.513766e+02	-2.916255e+01
3.534062e+02	-2.921652e+01
3.554474e+02	-2.926787e+01
3.575005e+02	-2.931799e+01
3.595654e+02	-2.936898e+01
3.616422e+02	-2.941791e+01
3.637311e+02	-2.947331e+01
3.658320e+02	-2.951663e+01
3.679450e+02	-2.956985e+01
3.700702e+02	-2.962300e+01
3.722077e+02	-2.967294e+01
3.743576e+02	-2.971465e+01
3.765199e+02	-2.976915e+01
3.786946e+02	-2.981875e+01
3.808820e+02	-2.986979e+01
3.830819e+02	-2.992060e+01
3.852946e+02	-2.997133e+01
3.875200e+02	-3.002291e+01
3.897583e+02	-3.007187e+01
3.920096e+02	-3.012079e+01
3.942738e+02	-3.017056e+01
3.965511e+02	-3.022255e+01
3.988416e+02	-3.026550e+01
4.011452e+02	-3.032330e+01
4.034622e+02	-3.036794e+01
4.057926e+02	-3.042043e+01
4.081365e+02	-3.047433e+01
4.104938e+02	-3.051967e+01
4.128648e+02	-3.057555e+01
4.152495e+02	-3.062184e+01
4.176480e+02	-3.067210e+01
4.200603e+02	-3.071826e+01
4.224866e+02	-3.077092e+01
4.249268e+02	-3.082351e+01
4.273812e+02	-3.087220e+01
4.298497e+02	-3.092405e+01
4.323325e+02	-3.097627e+01
4.348297e+02	-3.102189e+01
4.373412e+02	-3.107893e+01
4.398673e+02	-3.112572e+01
4.424079e+02	-3.117566e+01
4.449633e+02	-3.121983e+01
4.475334e+02	-3.127895e+01
4.501183e+02	-3.131977e+01
4.527182e+02	-3.136629e+01
4.553330e+02	-3.142394e+01
4.579630e+02	-3.147113e+01
4.606082e+02	-3.152111e+01
4.632687e+02	-3.157472e+01
4.659445e+02	-3.162385e+01
4.686358e+02	-3.167170e+01
4.713426e+02	-3.172777e+01
4.740650e+02	-3.178291e+01
4.768032e+02	-3.182488e+01
4.795572e+02	-3.187773e+01
4.823271e+02	-3.192486e+01
4.851130e+02	-3.198195e+01
4.879150e+02	-3.202152e+01
4.907332e+02	-3.207373e+01
4.935676e+02	-3.212562e+01
4.964185e+02	-3.217424e+01
4.992858e+02	-3.223079e+01
5.021696e+02	-3.227779e+01
5.050701e+02	-3.232998e+01
5.079874e+02	-3.237310e+01
5.109215e+02	-3.242682e+01
5.138726e+02	-3.248775e+01
5.168407e+02	-3.252797e+01
5.198259e+02	-3.257816e+01
5.228284e+02	-3.262990e+01
5.258482e+02	-3.267849e+01
5.288855e+02	-3.272381e+01
5.319403e+02	-3.276987e+01
5.350128e+02	-3.282929e+01
5.381030e+02	-3.287874e+01
5.412111e+02	-3.293013e+01
5.443371e+02	-3.298266e+01
5.474812e+02	-3.303354e+01
5.506434e+02	-3.308149e+01
5.538239e+02	-3.313083e+01
5.570228e+02	-3.318444e+01
5.602401e+02	-3.323043e+01
5.634760e+02	-3.327499e+01
5.667306e+02	-3.333019e+01
5.700040e+02	-3.338422e+01
5.732964e+02	-3.342828e+01
5.766077e+02	-3.348064e+01
5.799382e+02	-3.353181e+01
5.832879e+02	-3.358033e+01
5.866569e+02	-3.363712e+01
5.900454e+02	-3.368621e+01
5.934535e+02	-3.373158e+01
5.968813e+02	-3.378259e+01
6.003288e+02	-3.383514e+01
6.037963e+02	-3.388362e+01
6.072838e+02	-3.394311e+01
6.107914e+02	-3.398578e+01
6.143194e+02	-3.403691e+01
6.178676e+02	-3.408494e+01
6.214364e+02	-3.413575e+01
6.250258e+02	-3.418236e+01
6.286359e+02	-3.423664e+01
6.322669e+02	-3.429577e+01
6.359189e+02	-3.433059e+01
6.395919e+02	-3.438449e+01
6.432862e+02	-3.444063e+01
6.470017e+02	-3.448944e+01
6.507388e+02	-3.453819e+01
6.544974e+02	-3.458827e+01
6.582778e+02	-3.463520e+01
6.620800e+02	-3.468827e+01
6.659041e+02	-3.474223e+01
6.697504e+02	-3.478914e+01
6.736188e+02	-3.484643e+01
6.775096e+02	-3.489451e+01
6.814229e+02	-3.493950e+01
6.853587e+02	-3.498262e+01
6.893173e+02	-3.504414e+01
6.932988e+02	-3.509385e+01
6.973033e+02	-3.514292e+01
7.013309e+02	-3.519807e+01
