Frequency(Hz)	Magnitude(dB)
1.000000e+01	-2.102938e+00
1.005776e+01	-2.122456e+00
1.011585e+01	-2.141736e+00
1.017428e+01	-2.161254e+00
1.023305e+01	-2.181146e+00
1.029215e+01	-2.200548e+00
1.035160e+01	-2.220509e+00
1.041139e+01	-2.240887e+00
1.047153e+01	-2.260954e+00
1.053201e+01	-2.281243e+00
1.059284e+01	-2.301969e+00
1.065403e+01	-2.322676e+00
1.071556e+01	-2.343501e+00
1.077746e+01	-2.364134e+00
1.083971e+01	-2.385226e+00
1.090232e+01	-2.406468e+00
1.096529e+01	-2.428104e+00
1.102862e+01	-2.449222e+00
1.109232e+01	-2.471120e+00
1.115639e+01	-2.492664e+00
1.122083e+01	-2.514643e+00
1.128564e+01	-2.536568e+00
1.135083e+01	-2.558964e+00
1.141639e+01	-2.581300e+00
1.148233e+01	-2.603683e+00
1.154865e+01	-2.626502e+00
1.161536e+01	-2.649333e+00
1.168245e+01	-2.672206e+00
1.174992e+01	-2.695260e+00
1.181779e+01	-2.718400e+00
1.188605e+01	-2.741806e+00
1.195470e+01	-2.765249e+00
1.202375e+01	-2.788927e+00
1.209320e+01	-2.812656e+00
1.216305e+01	-2.836602e+00
1.223330e+01	-2.860640e+00
1.230396e+01	-2.884739e+00
1.237503e+01	-2.909417e+00
1.244651e+01	-2.933553e+00
1.251840e+01	-2.958228e+00
1.259070e+01	-2.983105e+00
1.266343e+01	-3.008055e+00
1.273657e+01	-3.032997e+00
1.281014e+01	-3.058177e+00
1.288413e+01	-3.083688e+00
1.295855e+01	-3.108886e+00
1.303339e+01	-3.134806e+00
1.310867e+01	-3.160504e+00
1.318439e+01	-3.186631e+00
1.326054e+01	-3.212766e+00
1.333713e+01	-3.239123e+00
1.341417e+01	-3.264983e+00
1.349165e+01	-3.291669e+00
1.356958e+01	-3.318104e+00
1.364795e+01	-3.345445e+00
1.372678e+01	-3.372127e+00
1.380607e+01	-3.399212e+00
1.388581e+01	-3.426328e+00
1.396602e+01	-3.453763e+00
1.404668e+01	-3.481606e+00
1.412782e+01	-3.509023e+00
1.420942e+01	-3.536680e+00
1.429149e+01	-3.564582e+00
1.437404e+01	-3.592857e+00
1.445706e+01	-3.621024e+00
1.454057e+01	-3.649290e+00
1.462455e+01	-3.678111e+00
1.470902e+01	-3.706650e+00
1.479398e+01	-3.735301e+00
1.487943e+01	-3.764360e+00
1.496537e+01	-3.793369e+00
1.505181e+01	-3.822541e+00
1.513875e+01	-3.851495e+00
1.522619e+01	-3.881232e+00
1.531414e+01	-3.910891e+00
1.540259e+01	-3.940871e+00
1.549156e+01	-3.970671e+00
1.558103e+01	-4.000655e+00
1.567103e+01	-4.030947e+00
1.576155e+01	-4.061152e+00
1.585258e+01	-4.091683e+00
1.594415e+01	-4.122183e+00
1.603624e+01	-4.152795e+00
1.612886e+01	-4.183963e+00
1.622202e+01	-4.214876e+00
1.631572e+01	-4.245813e+00
1.640996e+01	-4.277433e+00
1.650474e+01	-4.308805e+00
1.660008e+01	-4.340430e+00
1.669596e+01	-4.371623e+00
1.679239e+01	-4.403483e+00
1.688938e+01	-4.435657e+00
1.698694e+01	-4.467897e+00
1.708505e+01	-4.499819e+00
1.718373e+01	-4.532046e+00
1.728299e+01	-4.564618e+00
1.738281e+01	-4.597159e+00
1.748322e+01	-4.629796e+00
1.758420e+01	-4.662838e+00
1.768576e+01	-4.696044e+00
1.778792e+01	-4.728790e+00
1.789066e+01	-4.762262e+00
1.799399e+01	-4.795948e+00
1.809793e+01	-4.829119e+00
1.820246e+01	-4.862588e+00
1.830760e+01	-4.896644e+00
1.841334e+01	-4.930331e+00
1.851969e+01	-4.964376e+00
1.862666e+01	-4.998625e+00
1.873425e+01	-5.032689e+00
1.884246e+01	-5.067072e+00
1.895129e+01	-5.101533e+00
1.906075e+01	-5.136448e+00
1.917085e+01	-5.171397e+00
1.928158e+01	-5.205985e+00
1.939295e+01	-5.241101e+00
1.950496e+01	-5.276475e+00
1.961762e+01	-5.311546e+00
1.973093e+01	-5.346808e+00
1.984490e+01	-5.382265e+00
1.995952e+01	-5.417688e+00
2.007480e+01	-5.453760e+00
2.019076e+01	-5.489367e+00
2.030738e+01	-5.525136e+00
2.042467e+01	-5.561560e+00
2.054264e+01	-5.597589e+00
2.066130e+01	-5.634164e+00
2.078064e+01	-5.670534e+00
2.090066e+01	-5.706927e+00
2.102139e+01	-5.743555e+00
2.114280e+01	-5.780340e+00
2.126492e+01	-5.816762e+00
2.138775e+01	-5.854255e+00
2.151128e+01	-5.891052e+00
2.163553e+01	-5.928249e+00
2.176050e+01	-5.965569e+00
2.188619e+01	-6.003466e+00
2.201260e+01	-6.040343e+00
2.213974e+01	-6.078175e+00
2.226762e+01	-6.115561e+00
2.239624e+01	-6.154013e+00
2.252560e+01	-6.191719e+00
2.265571e+01	-6.229642e+00
2.278656e+01	-6.267831e+00
2.291818e+01	-6.306292e+00
2.305055e+01	-6.344623e+00
2.318369e+01	-6.382983e+00
2.331760e+01	-6.421680e+00
2.345228e+01	-6.460558e+00
2.358774e+01	-6.499158e+00
2.372398e+01	-6.538325e+00
2.386101e+01	-6.577020e+00
2.399883e+01	-6.615893e+00
2.413745e+01	-6.655213e+00
2.427686e+01	-6.694690e+00
2.441709e+01	-6.733801e+00
2.455812e+01	-6.773272e+00
2.469997e+01	-6.812998e+00
2.484263e+01	-6.852608e+00
2.498612e+01	-6.892604e+00
2.513044e+01	-6.932221e+00
2.527559e+01	-6.971896e+00
2.542158e+01	-7.011746e+00
2.556842e+01	-7.051948e+00
2.571610e+01	-7.092363e+00
2.586463e+01	-7.132868e+00
2.601403e+01	-7.172958e+00
2.616428e+01	-7.213523e+00
2.631541e+01	-7.254131e+00
2.646740e+01	-7.294801e+00
2.662028e+01	-7.335521e+00
2.677404e+01	-7.376220e+00
2.692868e+01	-7.417286e+00
2.708422e+01	-7.458252e+00
2.724066e+01	-7.499456e+00
2.739800e+01	-7.540171e+00
2.755625e+01	-7.581912e+00
2.771541e+01	-7.623411e+00
2.787550e+01	-7.664536e+00
2.803650e+01	-7.705989e+00
2.819844e+01	-7.747709e+00
2.836131e+01	-7.789416e+00
2.852513e+01	-7.830753e+00
2.868989e+01	-7.872845e+00
2.885560e+01	-7.914782e+00
2.902227e+01	-7.956533e+00
2.918990e+01	-7.998806e+00
2.935850e+01	-8.040676e+00
2.952807e+01	-8.083084e+00
2.969863e+01	-8.125035e+00
2.987016e+01	-8.167738e+00
3.004269e+01	-8.210105e+00
3.021622e+01	-8.252675e+00
3.039075e+01	-8.294998e+00
3.056628e+01	-8.337987e+00
3.074283e+01	-8.380296e+00
3.092040e+01	-8.423933e+00
3.109900e+01	-8.466574e+00
3.127862e+01	-8.509618e+00
3.145929e+01	-8.552454e+00
3.164099e+01	-8.595288e+00
3.182375e+01	-8.638651e+00
3.200756e+01	-8.681442e+00
3.219244e+01	-8.724752e+00
3.237838e+01	-8.767946e+00
3.256540e+01	-8.811225e+00
3.275349e+01	-8.855407e+00
3.294268e+01	-8.898765e+00
3.313295e+01	-8.942253e+00
3.332433e+01	-8.986001e+00
3.351681e+01	-9.029885e+00
3.371040e+01	-9.073392e+00
3.390511e+01	-9.117450e+00
3.410094e+01	-9.161525e+00
3.429791e+01	-9.205089e+00
3.449601e+01	-9.249450e+00
3.469526e+01	-9.293769e+00
3.489566e+01	-9.337923e+00
3.509721e+01	-9.382156e+00
3.529993e+01	-9.426237e+00
3.550382e+01	-9.470665e+00
3.570889e+01	-9.514860e+00
3.591515e+01	-9.559743e+00
3.612259e+01	-9.604340e+00
3.633123e+01	-9.648444e+00
3.654108e+01	-9.692816e+00
3.675214e+01	-9.737862e+00
3.696442e+01	-9.782716e+00
3.717792e+01	-9.827448e+00
3.739266e+01	-9.872410e+00
3.760864e+01	-9.917528e+00
3.782587e+01	-9.961833e+00
3.804435e+01	-1.000747e+01
3.826409e+01	-1.005216e+01
3.848510e+01	-1.009708e+01
3.870739e+01	-1.014251e+01
3.893096e+01	-1.018731e+01
3.915583e+01	-1.023308e+01
3.938199e+01	-1.027845e+01
3.960946e+01	-1.032391e+01
3.983824e+01	-1.036879e+01
4.006834e+01	-1.041376e+01
4.029978e+01	-1.045999e+01
4.053255e+01	-1.050574e+01
4.076666e+01	-1.055110e+01
4.100213e+01	-1.059659e+01
4.123896e+01	-1.064204e+01
4.147715e+01	-1.068824e+01
4.171672e+01	-1.073471e+01
4.195767e+01	-1.077999e+01
4.220002e+01	-1.082576e+01
4.244377e+01	-1.087176e+01
4.268892e+01	-1.091717e+01
4.293549e+01	-1.096332e+01
4.318348e+01	-1.100902e+01
4.343291e+01	-1.105559e+01
4.368377e+01	-1.110157e+01
4.393609e+01	-1.114778e+01
4.418986e+01	-1.119398e+01
4.444510e+01	-1.123987e+01
4.470182e+01	-1.128711e+01
4.496001e+01	-1.133291e+01
4.521970e+01	-1.137893e+01
4.548089e+01	-1.142558e+01
4.574358e+01	-1.147236e+01
4.600779e+01	-1.151899e+01
4.627353e+01	-1.156489e+01
4.654081e+01	-1.161157e+01
4.680963e+01	-1.165845e+01
4.708000e+01	-1.170522e+01
4.735193e+01	-1.175134e+01
4.762543e+01	-1.179851e+01
4.790051e+01	-1.184502e+01
4.817719e+01	-1.189202e+01
4.845545e+01	-1.193882e+01
4.873533e+01	-1.198567e+01
4.901682e+01	-1.203250e+01
4.929994e+01	-1.207969e+01
4.958470e+01	-1.212635e+01
4.987110e+01	-1.217338e+01
5.015915e+01	-1.222061e+01
5.044887e+01	-1.226725e+01
5.074026e+01	-1.231419e+01
5.103333e+01	-1.236104e+01
5.132810e+01	-1.240834e+01
5.162457e+01	-1.245619e+01
5.192275e+01	-1.250218e+01
5.222265e+01	-1.255010e+01
5.252429e+01	-1.259681e+01
5.282767e+01	-1.264448e+01
5.313280e+01	-1.269213e+01
5.343969e+01	-1.273960e+01
5.374836e+01	-1.278700e+01
5.405880e+01	-1.283386e+01
5.437105e+01	-1.288194e+01
5.468509e+01	-1.292792e+01
5.500095e+01	-1.297733e+01
5.531863e+01	-1.302371e+01
5.563815e+01	-1.307190e+01
5.595951e+01	-1.311966e+01
5.628273e+01	-1.316605e+01
5.660782e+01	-1.321446e+01
5.693479e+01	-1.326180e+01
5.726364e+01	-1.330993e+01
5.759439e+01	-1.335702e+01
5.792705e+01	-1.340615e+01
5.826164e+01	-1.345317e+01
5.859815e+01	-1.349998e+01
5.893662e+01	-1.354801e+01
5.927703e+01	-1.359656e+01
5.961941e+01	-1.364325e+01
5.996377e+01	-1.369215e+01
6.031012e+01	-1.373950e+01
6.065847e+01	-1.378789e+01
6.100883e+01	-1.383601e+01
6.136121e+01	-1.388423e+01
6.171563e+01	-1.393149e+01
6.207210e+01	-1.397982e+01
6.243063e+01	-1.402752e+01
6.279122e+01	-1.407577e+01
6.315390e+01	-1.412392e+01
6.351868e+01	-1.417200e+01
6.388556e+01	-1.421985e+01
6.425456e+01	-1.426807e+01
6.462569e+01	-1.431644e+01
6.499897e+01	-1.436430e+01
6.537440e+01	-1.441261e+01
6.575200e+01	-1.446100e+01
6.613178e+01	-1.450893e+01
6.651375e+01	-1.455770e+01
6.689793e+01	-1.460570e+01
6.728433e+01	-1.465370e+01
6.767297e+01	-1.470238e+01
6.806384e+01	-1.475074e+01
6.845698e+01	-1.479907e+01
6.885238e+01	-1.484770e+01
6.925007e+01	-1.489620e+01
6.965005e+01	-1.494431e+01
7.005235e+01	-1.499345e+01
7.045697e+01	-1.504199e+01
7.086393e+01	-1.508967e+01
7.127323e+01	-1.513841e+01
7.168490e+01	-1.518667e+01
7.209895e+01	-1.523595e+01
7.251539e+01	-1.528465e+01
7.293424e+01	-1.533223e+01
7.335551e+01	-1.538108e+01
7.377920e+01	-1.542903e+01
7.420535e+01	-1.547857e+01
7.463396e+01	-1.552731e+01
7.506504e+01	-1.557503e+01
7.549861e+01	-1.562368e+01
7.593469e+01	-1.567312e+01
7.637328e+01	-1.572127e+01
7.681441e+01	-1.577090e+01
7.725809e+01	-1.582110e+01
7.770433e+01	-1.586762e+01
7.815315e+01	-1.591639e+01
7.860456e+01	-1.596481e+01
7.905857e+01	-1.601317e+01
7.951521e+01	-1.606280e+01
7.997449e+01	-1.611110e+01
8.043642e+01	-1.616009e+01
8.090102e+01	-1.620937e+01
8.136830e+01	-1.625838e+01
8.183828e+01	-1.630745e+01
8.231097e+01	-1.635578e+01
8.278640e+01	-1.640454e+01
8.326457e+01	-1.645382e+01
8.374550e+01	-1.650288e+01
8.422921e+01	-1.655151e+01
8.471572e+01	-1.660092e+01
8.520503e+01	-1.664864e+01
8.569717e+01	-1.669735e+01
8.619215e+01	-1.674644e+01
8.669000e+01	-1.679601e+01
8.719071e+01	-1.684491e+01
8.769432e+01	-1.689437e+01
8.820084e+01	-1.694287e+01
8.871029e+01	-1.699198e+01
8.922267e+01	-1.704080e+01
8.973802e+01	-1.709005e+01
9.025634e+01	-1.713958e+01
9.077766e+01	-1.718842e+01
9.130199e+01	-1.723749e+01
9.182935e+01	-1.728570e+01
9.235975e+01	-1.733737e+01
9.289321e+01	-1.738544e+01
9.342976e+01	-1.743464e+01
9.396941e+01	-1.748290e+01
9.451217e+01	-1.753299e+01
9.505807e+01	-1.758153e+01
9.560712e+01	-1.763005e+01
9.615934e+01	-1.768020e+01
9.671476e+01	-1.772889e+01
9.727338e+01	-1.777739e+01
9.783522e+01	-1.782677e+01
9.840032e+01	-1.787592e+01
9.896867e+01	-1.792600e+01
9.954031e+01	-1.797423e+01
1.001153e+02	-1.802432e+01
1.006935e+02	-1.807334e+01
1.012751e+02	-1.812309e+01
1.018601e+02	-1.817113e+01
1.024484e+02	-1.821973e+01
1.030402e+02	-1.827142e+01
1.036353e+02	-1.831933e+01
1.042339e+02	-1.836870e+01
1.048360e+02	-1.841940e+01
1.054415e+02	-1.846776e+01
1.060505e+02	-1.851624e+01
1.066631e+02	-1.856636e+01
1.072791e+02	-1.861624e+01
1.078988e+02	-1.866448e+01
1.085220e+02	-1.871393e+01
1.091488e+02	-1.876403e+01
1.097793e+02	-1.881418e+01
1.104133e+02	-1.886255e+01
1.110511e+02	-1.891098e+01
1.116925e+02	-1.896076e+01
1.123376e+02	-1.900877e+01
1.129865e+02	-1.906000e+01
1.136391e+02	-1.910989e+01
1.142955e+02	-1.915835e+01
1.149556e+02	-1.920991e+01
1.156196e+02	-1.925696e+01
1.162874e+02	-1.930750e+01
1.169591e+02	-1.935568e+01
1.176347e+02	-1.940604e+01
1.183141e+02	-1.945533e+01
1.189975e+02	-1.950518e+01
1.196848e+02	-1.955556e+01
1.203761e+02	-1.960449e+01
1.210714e+02	-1.965263e+01
1.217707e+02	-1.970339e+01
1.224740e+02	-1.975198e+01
1.231814e+02	-1.980207e+01
1.238929e+02	-1.985208e+01
1.246085e+02	-1.990041e+01
1.253283e+02	-1.995081e+01
1.260522e+02	-1.999897e+01
1.267802e+02	-2.004854e+01
1.275125e+02	-2.009982e+01
1.282490e+02	-2.014829e+01
1.289898e+02	-2.019910e+01
1.297348e+02	-2.024685e+01
1.304842e+02	-2.029723e+01
1.312378e+02	-2.034745e+01
1.319959e+02	-2.039740e+01
1.327583e+02	-2.044744e+01
1.335251e+02	-2.049677e+01
1.342963e+02	-2.054576e+01
1.350720e+02	-2.059621e+01
1.358522e+02	-2.064424e+01
1.366368e+02	-2.069546e+01
1.374260e+02	-2.074399e+01
1.382198e+02	-2.079391e+01
1.390182e+02	-2.084291e+01
1.398211e+02	-2.089366e+01
1.406287e+02	-2.094140e+01
1.414410e+02	-2.099153e+01
1.422579e+02	-2.104268e+01
1.430796e+02	-2.109145e+01
1.439060e+02	-2.114102e+01
1.447372e+02	-2.119116e+01
1.455732e+02	-2.124166e+01
1.464141e+02	-2.128906e+01
1.472597e+02	-2.133966e+01
1.481103e+02	-2.139088e+01
1.489658e+02	-2.143837e+01
1.498262e+02	-2.148773e+01
1.506916e+02	-2.153876e+01
1.515620e+02	-2.158948e+01
1.524374e+02	-2.163745e+01
1.533179e+02	-2.168666e+01
1.542034e+02	-2.173732e+01
1.550941e+02	-2.178790e+01
1.559899e+02	-2.183742e+01
1.568909e+02	-2.188684e+01
1.577971e+02	-2.193460e+01
1.587085e+02	-2.198480e+01
1.596252e+02	-2.203560e+01
1.605472e+02	-2.208418e+01
1.614745e+02	-2.213455e+01
1.624072e+02	-2.218582e+01
1.633453e+02	-2.223547e+01
1.642887e+02	-2.228450e+01
1.652377e+02	-2.233472e+01
1.661921e+02	-2.238298e+01
1.671520e+02	-2.243364e+01
1.681175e+02	-2.248247e+01
1.690885e+02	-2.253409e+01
1.700651e+02	-2.258195e+01
1.710474e+02	-2.263006e+01
1.720354e+02	-2.268322e+01
1.730291e+02	-2.273023e+01
1.740285e+02	-2.278137e+01
1.750337e+02	-2.283337e+01
1.760446e+02	-2.288016e+01
1.770615e+02	-2.292940e+01
1.780842e+02	-2.298042e+01
1.791128e+02	-2.303139e+01
1.801473e+02	-2.308097e+01
1.811878e+02	-2.313042e+01
1.822344e+02	-2.317802e+01
1.832870e+02	-2.323187e+01
1.843456e+02	-2.328024e+01
1.854104e+02	-2.333176e+01
1.864813e+02	-2.337939e+01
1.875584e+02	-2.342796e+01
1.886418e+02	-2.347919e+01
1.897313e+02	-2.352785e+01
1.908272e+02	-2.357993e+01
1.919294e+02	-2.362801e+01
1.930380e+02	-2.367910e+01
1.941530e+02	-2.372761e+01
1.952744e+02	-2.377923e+01
1.964023e+02	-2.382750e+01
1.975367e+02	-2.387765e+01
1.986777e+02	-2.392754e+01
1.998252e+02	-2.397887e+01
2.009794e+02	-2.402731e+01
2.021403e+02	-2.407885e+01
2.033078e+02	-2.412787e+01
2.044821e+02	-2.417608e+01
2.056632e+02	-2.422513e+01
2.068511e+02	-2.427766e+01
2.080459e+02	-2.432646e+01
2.092475e+02	-2.437577e+01
2.104561e+02	-2.442413e+01
2.116717e+02	-2.447523e+01
2.128943e+02	-2.452405e+01
2.141240e+02	-2.457701e+01
2.153608e+02	-2.462699e+01
2.166047e+02	-2.467765e+01
2.178558e+02	-2.472669e+01
2.191141e+02	-2.477449e+01
2.203797e+02	-2.482396e+01
2.216526e+02	-2.487617e+01
2.229329e+02	-2.492917e+01
2.242205e+02	-2.497506e+01
2.255156e+02	-2.502745e+01
2.268182e+02	-2.507676e+01
2.281283e+02	-2.512685e+01
2.294459e+02	-2.517250e+01
2.307712e+02	-2.522426e+01
2.321041e+02	-2.527248e+01
2.334447e+02	-2.532245e+01
2.347931e+02	-2.537437e+01
2.361493e+02	-2.542187e+01
2.375133e+02	-2.547304e+01
2.388851e+02	-2.552285e+01
2.402649e+02	-2.557457e+01
2.416527e+02	-2.562359e+01
2.430484e+02	-2.567335e+01
2.444523e+02	-2.572479e+01
2.458642e+02	-2.577484e+01
2.472843e+02	-2.582097e+01
2.487126e+02	-2.587150e+01
2.501492e+02	-2.592312e+01
2.515940e+02	-2.597743e+01
2.530472e+02	-2.602335e+01
2.545088e+02	-2.607754e+01
2.559789e+02	-2.612372e+01
2.574574e+02	-2.617464e+01
2.589444e+02	-2.622418e+01
2.604401e+02	-2.627431e+01
2.619444e+02	-2.632060e+01
2.634574e+02	-2.637259e+01
2.649791e+02	-2.642469e+01
2.665096e+02	-2.647410e+01
2.680489e+02	-2.652286e+01
2.695972e+02	-2.657297e+01
2.711544e+02	-2.662014e+01
2.727205e+02	-2.667257e+01
2.742958e+02	-2.671889e+01
2.758801e+02	-2.677503e+01
2.774736e+02	-2.682555e+01
2.790762e+02	-2.687217e+01
2.806882e+02	-2.692359e+01
2.823094e+02	-2.697422e+01
2.839400e+02	-2.702251e+01
2.855800e+02	-2.707396e+01
2.872295e+02	-2.712510e+01
2.888886e+02	-2.717566e+01
2.905572e+02	-2.722056e+01
2.922354e+02	-2.727373e+01
2.939234e+02	-2.732218e+01
2.956211e+02	-2.737081e+01
2.973286e+02	-2.742643e+01
2.990459e+02	-2.747121e+01
3.007732e+02	-2.752378e+01
3.025104e+02	-2.757467e+01
3.042577e+02	-2.762302e+01
3.060151e+02	-2.767482e+01
3.077826e+02	-2.772463e+01
3.095604e+02	-2.777154e+01
3.113484e+02	-2.782559e+01
3.131467e+02	-2.787258e+01
3.149554e+02	-2.791994e+01
3.167746e+02	-2.797149e+01
3.186043e+02	-2.801969e+01
3.204445e+02	-2.807116e+01
3.222954e+02	-2.812323e+01
3.241570e+02	-2.817480e+01
3.260293e+02	-2.822042e+01
3.279124e+02	-2.827294e+01
3.298064e+02	-2.832517e+01
3.317114e+02	-2.836930e+01
3.336273e+02	-2.842319e+01
3.355544e+02	-2.847122e+01
3.374925e+02	-2.852242e+01
3.394418e+02	-2.857356e+01
3.414024e+02	-2.862340e+01
3.433744e+02	-2.867091e+01
3.453577e+02	-2.872486e+01
3.473525e+02	-2.877437e+01
3.493588e+02	-2.882742e+01
3.513766e+02	-2.887732e+01
3.534062e+02	-2.892526e+01
3.554474e+02	-2.897313e+01
3.575005e+02	-2.902302e+01
3.595654e+02	-2.907191e+01
3.616422e+02	-2.912848e+01
3.637311e+02	-2.917697e+01
3.658320e+02	-2.922334e+01
3.679450e+02	-2.928051e+01
3.700702e+02	-2.932600e+01
3.722077e+02	-2.937732e+01
3.743576e+02	-2.942293e+01
3.765199e+02	-2.947623e+01
3.786946e+02	-2.952616e+01
3.808820e+02	-2.957364e+01
3.830819e+02	-2.962318e+01
3.852946e+02	-2.967616e+01
3.875200e+02	-2.972614e+01
3.897583e+02	-2.977870e+01
3.920096e+02	-2.982467e+01
3.942738e+02	-2.987896e+01
3.965511e+02	-2.992255e+01
3.988416e+02	-2.997414e+01
4.011452e+02	-3.002527e+01
4.034622e+02	-3.007566e+01
4.057926e+02	-3.012372e+01
4.081365e+02	-3.017273e+01
4.104938e+02	-3.022460e+01
4.128648e+02	-3.027951e+01
4.152495e+02	-3.032443e+01
4.176480e+02	-3.037377e+01
4.200603e+02	-3.042697e+01
4.224866e+02	-3.047949e+01
4.249268e+02	-3.052389e+01
4.273812e+02	-3.057372e+01
4.298497e+02	-3.063030e+01
4.323325e+02	-3.067374e+01
4.348297e+02	-3.072609e+01
4.373412e+02	-3.077246e+01
4.398673e+02	-3.083090e+01
4.424079e+02	-3.087763e+01
4.449633e+02	-3.092676e+01
4.475334e+02	-3.097686e+01
4.501183e+02	-3.102777e+01
4.527182e+02	-3.108017e+01
4.553330e+02	-3.113051e+01
4.579630e+02	-3.118074e+01
4.606082e+02	-3.122817e+01
4.632687e+02	-3.127898e+01
4.659445e+02	-3.132960e+01
4.686358e+02	-3.138192e+01
4.713426e+02	-3.143687e+01
4.740650e+02	-3.148607e+01
4.768032e+02	-3.153200e+01
4.795572e+02	-3.158173e+01
4.823271e+02	-3.162876e+01
4.851130e+02	-3.168147e+01
4.879150e+02	-3.173163e+01
4.907332e+02	-3.177878e+01
4.935676e+02	-3.183420e+01
4.964185e+02	-3.188110e+01
4.992858e+02	-3.193838e+01
5.021696e+02	-3.198106e+01
5.050701e+02	-3.203021e+01
5.079874e+02	-3.208189e+01
5.109215e+02	-3.213282e+01
5.138726e+02	-3.218463e+01
5.168407e+02	-3.223174e+01
5.198259e+02	-3.227716e+01
5.228284e+02	-3.232770e+01
5.258482e+02	-3.238081e+01
5.288855e+02	-3.243303e+01
5.319403e+02	-3.248692e+01
5.350128e+02	-3.253250e+01
5.381030e+02	-3.258777e+01
5.412111e+02	-3.263387e+01
5.443371e+02	-3.268132e+01
5.474812e+02	-3.274080e+01
5.506434e+02	-3.277706e+01
5.538239e+02	-3.283561e+01
5.570228e+02	-3.288486e+01
5.602401e+02	-3.293347e+01
5.634760e+02	-3.298237e+01
5.667306e+02	-3.303444e+01
5.700040e+02	-3.307750e+01
5.732964e+02	-3.313514e+01
5.766077e+02	-3.318598e+01
5.799382e+02	-3.323535e+01
5.832879e+02	-3.328569e+01
5.866569e+02	-3.333994e+01
5.900454e+02	-3.338413e+01
5.934535e+02	-3.344012e+01
5.968813e+02	-3.348566e+01
6.003288e+02	-3.353972e+01
6.037963e+02	-3.359296e+01
6.072838e+02	-3.363383e+01
6.107914e+02	-3.369262e+01
6.143194e+02	-3.373749e+01
6.178676e+02	-3.379897e+01
6.214364e+02	-3.383861e+01
6.250258e+02	-3.389204e+01
6.286359e+02	-3.393330e+01
6.322669e+02	-3.399247e+01
6.359189e+02	-3.404440e+01
6.395919e+02	-3.408625e+01
6.432862e+02	-3.413951e+01
6.470017e+02	-3.419176e+01
6.507388e+02	-3.424425e+01
6.544974e+02	-3.428900e+01
6.582778e+02	-3.435007e+01
6.620800e+02	-3.439735e+01
6.659041e+02	-3.444596e+01
6.697504e+02	-3.449562e+01
6.736188e+02	-3.455094e+01
6.775096e+02	-3.460738e+01
6.814229e+02	-3.465046e+01
6.853587e+02	-3.469692e+01
6.893173e+02	-3.474500e+01
6.932988e+02	-3.478870e+01
6.973033e+02	-3.484846e+01
7.013309e+02	-3.489536e+01
