Frequency(Hz)	Magnitude(dB)
1.000000e+01	-2.195390e+00
1.005776e+01	-2.215326e+00
1.011585e+01	-2.235407e+00
1.017428e+01	-2.255645e+00
1.023305e+01	-2.275792e+00
1.029215e+01	-2.296384e+00
1.035160e+01	-2.317071e+00
1.041139e+01	-2.337549e+00
1.047153e+01	-2.358554e+00
1.053201e+01	-2.379529e+00
1.059284e+01	-2.400736e+00
1.065403e+01	-2.422069e+00
1.071556e+01	-2.443499e+00
1.077746e+01	-2.465226e+00
1.083971e+01	-2.486874e+00
1.090232e+01	-2.508851e+00
1.096529e+01	-2.530613e+00
1.102862e+01	-2.552999e+00
1.109232e+01	-2.575414e+00
1.115639e+01	-2.597793e+00
1.122083e+01	-2.620297e+00
1.128564e+01	-2.643183e+00
1.135083e+01	-2.665863e+00
1.141639e+01	-2.688986e+00
1.148233e+01	-2.712109e+00
1.154865e+01	-2.735100e+00
1.161536e+01	-2.758835e+00
1.168245e+01	-2.782538e+00
1.174992e+01	-2.806014e+00
1.181779e+01	-2.830168e+00
1.188605e+01	-2.853956e+00
1.195470e+01	-2.878147e+00
1.202375e+01	-2.902802e+00
1.209320e+01	-2.926885e+00
1.216305e+01	-2.951550e+00
1.223330e+01	-2.976395e+00
1.230396e+01	-3.001423e+00
1.237503e+01	-3.026367e+00
1.244651e+01	-3.051396e+00
1.251840e+01	-3.076817e+00
1.259070e+01	-3.102493e+00
1.266343e+01	-3.127841e+00
1.273657e+01	-3.153545e+00
1.281014e+01	-3.179297e+00
1.288413e+01	-3.205448e+00
1.295855e+01	-3.231804e+00
1.303339e+01	-3.257988e+00
1.310867e+01	-3.284500e+00
1.318439e+01	-3.311148e+00
1.326054e+01	-3.337628e+00
1.333713e+01	-3.364951e+00
1.341417e+01	-3.391888e+00
1.349165e+01	-3.419022e+00
1.356958e+01	-3.446149e+00
1.364795e+01	-3.473689e+00
1.372678e+01	-3.501564e+00
1.380607e+01	-3.529288e+00
1.388581e+01	-3.557077e+00
1.396602e+01	-3.585038e+00
1.404668e+01	-3.613514e+00
1.412782e+01	-3.641552e+00
1.420942e+01	-3.670044e+00
1.429149e+01	-3.698998e+00
1.437404e+01	-3.727503e+00
1.445706e+01	-3.756125e+00
1.454057e+01	-3.785422e+00
1.462455e+01	-3.814774e+00
1.470902e+01	-3.843935e+00
1.479398e+01	-3.873131e+00
1.487943e+01	-3.902800e+00
1.496537e+01	-3.932910e+00
1.505181e+01	-3.962552e+00
1.513875e+01	-3.992708e+00
1.522619e+01	-4.022686e+00
1.531414e+01	-4.052938e+00
1.540259e+01	-4.083475e+00
1.549156e+01	-4.113829e+00
1.558103e+01	-4.144559e+00
1.567103e+01	-4.175500e+00
1.576155e+01	-4.206415e+00
1.585258e+01	-4.237554e+00
1.594415e+01	-4.268762e+00
1.603624e+01	-4.300243e+00
1.612886e+01	-4.331902e+00
1.622202e+01	-4.363282e+00
1.631572e+01	-4.395046e+00
1.640996e+01	-4.427013e+00
1.650474e+01	-4.459081e+00
1.660008e+01	-4.490882e+00
1.669596e+01	-4.523647e+00
1.679239e+01	-4.555897e+00
1.688938e+01	-4.588335e+00
1.698694e+01	-4.621146e+00
1.708505e+01	-4.654127e+00
1.718373e+01	-4.687161e+00
1.728299e+01	-4.720028e+00
1.738281e+01	-4.753249e+00
1.748322e+01	-4.786670e+00
1.758420e+01	-4.819902e+00
1.768576e+01	-4.853892e+00
1.778792e+01	-4.887683e+00
1.789066e+01	-4.921434e+00
1.799399e+01	-4.955450e+00
1.809793e+01	-4.989450e+00
1.820246e+01	-5.023556e+00
1.830760e+01	-5.058027e+00
1.841334e+01	-5.092438e+00
1.851969e+01	-5.127021e+00
1.862666e+01	-5.161584e+00
1.873425e+01	-5.196672e+00
1.884246e+01	-5.231715e+00
1.895129e+01	-5.266686e+00
1.906075e+01	-5.301886e+00
1.917085e+01	-5.337272e+00
1.928158e+01	-5.372955e+00
1.939295e+01	-5.408273e+00
1.950496e+01	-5.443890e+00
1.961762e+01	-5.479668e+00
1.973093e+01	-5.515362e+00
1.984490e+01	-5.551843e+00
1.995952e+01	-5.587810e+00
2.007480e+01	-5.624141e+00
2.019076e+01	-5.660636e+00
2.030738e+01	-5.697476e+00
2.042467e+01	-5.733526e+00
2.054264e+01	-5.770007e+00
2.066130e+01	-5.807133e+00
2.078064e+01	-5.844135e+00
2.090066e+01	-5.881253e+00
2.102139e+01	-5.918576e+00
2.114280e+01	-5.955474e+00
2.126492e+01	-5.992851e+00
2.138775e+01	-6.030584e+00
2.151128e+01	-6.067845e+00
2.163553e+01	-6.106080e+00
2.176050e+01	-6.143474e+00
2.188619e+01	-6.181344e+00
2.201260e+01	-6.219564e+00
2.213974e+01	-6.257445e+00
2.226762e+01	-6.295756e+00
2.239624e+01	-6.334264e+00
2.252560e+01	-6.372582e+00
2.265571e+01	-6.411326e+00
2.278656e+01	-6.449932e+00
2.291818e+01	-6.488623e+00
2.305055e+01	-6.527651e+00
2.318369e+01	-6.566755e+00
2.331760e+01	-6.605530e+00
2.345228e+01	-6.644691e+00
2.358774e+01	-6.683777e+00
2.372398e+01	-6.723081e+00
2.386101e+01	-6.762716e+00
2.399883e+01	-6.802364e+00
2.413745e+01	-6.841861e+00
2.427686e+01	-6.881440e+00
2.441709e+01	-6.920978e+00
2.455812e+01	-6.960934e+00
2.469997e+01	-7.001204e+00
2.484263e+01	-7.041782e+00
2.498612e+01	-7.081356e+00
2.513044e+01	-7.121832e+00
2.527559e+01	-7.162115e+00
2.542158e+01	-7.202653e+00
2.556842e+01	-7.243295e+00
2.571610e+01	-7.283934e+00
2.586463e+01	-7.324464e+00
2.601403e+01	-7.365375e+00
2.616428e+01	-7.406137e+00
2.631541e+01	-7.447238e+00
2.646740e+01	-7.488491e+00
2.662028e+01	-7.529443e+00
2.677404e+01	-7.570756e+00
2.692868e+01	-7.611943e+00
2.708422e+01	-7.653431e+00
2.724066e+01	-7.694678e+00
2.739800e+01	-7.736294e+00
2.755625e+01	-7.777886e+00
2.771541e+01	-7.819976e+00
2.787550e+01	-7.861365e+00
2.803650e+01	-7.903732e+00
2.819844e+01	-7.944945e+00
2.836131e+01	-7.987262e+00
2.852513e+01	-8.029367e+00
2.868989e+01	-8.071644e+00
2.885560e+01	-8.114067e+00
2.902227e+01	-8.156295e+00
2.918990e+01	-8.198552e+00
2.935850e+01	-8.240974e+00
2.952807e+01	-8.283337e+00
2.969863e+01	-8.326353e+00
2.987016e+01	-8.369233e+00
3.004269e+01	-8.411615e+00
3.021622e+01	-8.454436e+00
3.039075e+01	-8.498011e+00
3.056628e+01	-8.540546e+00
3.074283e+01	-8.583563e+00
3.092040e+01	-8.626865e+00
3.109900e+01	-8.669993e+00
3.127862e+01	-8.713136e+00
3.145929e+01	-8.756725e+00
3.164099e+01	-8.800123e+00
3.182375e+01	-8.843546e+00
3.200756e+01	-8.887102e+00
3.219244e+01	-8.930265e+00
3.237838e+01	-8.974089e+00
3.256540e+01	-9.018540e+00
3.275349e+01	-9.061858e+00
3.294268e+01	-9.105605e+00
3.313295e+01	-9.149437e+00
3.332433e+01	-9.193517e+00
3.351681e+01	-9.237549e+00
3.371040e+01	-9.281735e+00
3.390511e+01	-9.326255e+00
3.410094e+01	-9.369774e+00
3.429791e+01	-9.414447e+00
3.449601e+01	-9.458670e+00
3.469526e+01	-9.502975e+00
3.489566e+01	-9.547174e+00
3.509721e+01	-9.591650e+00
3.529993e+01	-9.636666e+00
3.550382e+01	-9.681146e+00
3.570889e+01	-9.725669e+00
3.591515e+01	-9.770066e+00
3.612259e+01	-9.815441e+00
3.633123e+01	-9.859664e+00
3.654108e+01	-9.905361e+00
3.675214e+01	-9.949635e+00
3.696442e+01	-9.994907e+00
3.717792e+01	-1.004018e+01
3.739266e+01	-1.008501e+01
3.760864e+01	-1.012981e+01
3.782587e+01	-1.017528e+01
3.804435e+01	-1.022097e+01
3.826409e+01	-1.026631e+01
3.848510e+01	-1.031192e+01
3.870739e+01	-1.035643e+01
3.893096e+01	-1.040206e+01
3.915583e+01	-1.044763e+01
3.938199e+01	-1.049309e+01
3.960946e+01	-1.053869e+01
3.983824e+01	-1.058435e+01
4.006834e+01	-1.063060e+01
4.029978e+01	-1.067589e+01
4.053255e+01	-1.072157e+01
4.076666e+01	-1.076768e+01
4.100213e+01	-1.081332e+01
4.123896e+01	-1.085895e+01
4.147715e+01	-1.090531e+01
4.171672e+01	-1.095124e+01
4.195767e+01	-1.099705e+01
4.220002e+01	-1.104286e+01
4.244377e+01	-1.108957e+01
4.268892e+01	-1.113565e+01
4.293549e+01	-1.118143e+01
4.318348e+01	-1.122786e+01
4.343291e+01	-1.127382e+01
4.368377e+01	-1.132020e+01
4.393609e+01	-1.136643e+01
4.418986e+01	-1.141293e+01
4.444510e+01	-1.145943e+01
4.470182e+01	-1.150571e+01
4.496001e+01	-1.155319e+01
4.521970e+01	-1.159924e+01
4.548089e+01	-1.164606e+01
4.574358e+01	-1.169249e+01
4.600779e+01	-1.173897e+01
4.627353e+01	-1.178528e+01
4.654081e+01	-1.183235e+01
4.680963e+01	-1.187920e+01
4.708000e+01	-1.192565e+01
4.735193e+01	-1.197265e+01
4.762543e+01	-1.201900e+01
4.790051e+01	-1.206643e+01
4.817719e+01	-1.211357e+01
4.845545e+01	-1.216049e+01
4.873533e+01	-1.220706e+01
4.901682e+01	-1.225437e+01
4.929994e+01	-1.230175e+01
4.958470e+01	-1.234858e+01
4.987110e+01	-1.239532e+01
5.015915e+01	-1.244256e+01
5.044887e+01	-1.248996e+01
5.074026e+01	-1.253855e+01
5.103333e+01	-1.258522e+01
5.132810e+01	-1.263226e+01
5.162457e+01	-1.267952e+01
5.192275e+01	-1.272633e+01
5.222265e+01	-1.277383e+01
5.252429e+01	-1.282127e+01
5.282767e+01	-1.286876e+01
5.313280e+01	-1.291584e+01
5.343969e+01	-1.296379e+01
5.374836e+01	-1.301126e+01
5.405880e+01	-1.305954e+01
5.437105e+01	-1.310652e+01
5.468509e+01	-1.315389e+01
5.500095e+01	-1.320080e+01
5.531863e+01	-1.324929e+01
5.563815e+01	-1.329688e+01
5.595951e+01	-1.334503e+01
5.628273e+01	-1.339218e+01
5.660782e+01	-1.344013e+01
5.693479e+01	-1.348771e+01
5.726364e+01	-1.353566e+01
5.759439e+01	-1.358393e+01
5.792705e+01	-1.363063e+01
5.826164e+01	-1.367934e+01
5.859815e+01	-1.372660e+01
5.893662e+01	-1.377485e+01
5.927703e+01	-1.382335e+01
5.961941e+01	-1.387182e+01
5.996377e+01	-1.391914e+01
6.031012e+01	-1.396701e+01
6.065847e+01	-1.401517e+01
6.100883e+01	-1.406319e+01
6.136121e+01	-1.411067e+01
6.171563e+01	-1.415923e+01
6.207210e+01	-1.420677e+01
6.243063e+01	-1.425536e+01
6.279122e+01	-1.430276e+01
6.315390e+01	-1.435141e+01
6.351868e+01	-1.440052e+01
6.388556e+01	-1.444844e+01
6.425456e+01	-1.449599e+01
6.462569e+01	-1.454364e+01
6.499897e+01	-1.459333e+01
6.537440e+01	-1.464122e+01
6.575200e+01	-1.468891e+01
6.613178e+01	-1.473803e+01
6.651375e+01	-1.478681e+01
6.689793e+01	-1.483486e+01
6.728433e+01	-1.488314e+01
6.767297e+01	-1.493179e+01
6.806384e+01	-1.497979e+01
6.845698e+01	-1.502841e+01
6.885238e+01	-1.507676e+01
6.925007e+01	-1.512560e+01
6.965005e+01	-1.517482e+01
7.005235e+01	-1.522283e+01
7.045697e+01	-1.527090e+01
7.086393e+01	-1.531906e+01
7.127323e+01	-1.536838e+01
7.168490e+01	-1.541658e+01
7.209895e+01	-1.546537e+01
7.251539e+01	-1.551444e+01
7.293424e+01	-1.556290e+01
7.335551e+01	-1.561078e+01
7.377920e+01	-1.565983e+01
7.420535e+01	-1.570828e+01
7.463396e+01	-1.575697e+01
7.506504e+01	-1.580628e+01
7.549861e+01	-1.585385e+01
7.593469e+01	-1.590413e+01
7.637328e+01	-1.595128e+01
7.681441e+01	-1.600153e+01
7.725809e+01	-1.604971e+01
7.770433e+01	-1.609857e+01
7.815315e+01	-1.614688e+01
7.860456e+01	-1.619587e+01
7.905857e+01	-1.624592e+01
7.951521e+01	-1.629414e+01
7.997449e+01	-1.634252e+01
8.043642e+01	-1.639176e+01
8.090102e+01	-1.643988e+01
8.136830e+01	-1.648993e+01
8.183828e+01	-1.653857e+01
8.231097e+01	-1.658713e+01
8.278640e+01	-1.663588e+01
8.326457e+01	-1.668521e+01
8.374550e+01	-1.673350e+01
8.422921e+01	-1.678247e+01
8.471572e+01	-1.683181e+01
8.520503e+01	-1.688103e+01
8.569717e+01	-1.693100e+01
8.619215e+01	-1.697976e+01
8.669000e+01	-1.702733e+01
8.719071e+01	-1.707776e+01
8.769432e+01	-1.712527e+01
8.820084e+01	-1.717481e+01
8.871029e+01	-1.722499e+01
8.922267e+01	-1.727327e+01
8.973802e+01	-1.732202e+01
9.025634e+01	-1.737118e+01
9.077766e+01	-1.742055e+01
9.130199e+01	-1.746980e+01
9.182935e+01	-1.752052e+01
9.235975e+01	-1.756915e+01
9.289321e+01	-1.761739e+01
9.342976e+01	-1.766522e+01
9.396941e+01	-1.771588e+01
9.451217e+01	-1.776326e+01
9.505807e+01	-1.781402e+01
9.560712e+01	-1.786276e+01
9.615934e+01	-1.791140e+01
9.671476e+01	-1.796129e+01
9.727338e+01	-1.801126e+01
9.783522e+01	-1.806046e+01
9.840032e+01	-1.810800e+01
9.896867e+01	-1.815821e+01
9.954031e+01	-1.820828e+01
1.001153e+02	-1.825731e+01
1.006935e+02	-1.830609e+01
1.012751e+02	-1.835629e+01
1.018601e+02	-1.840553e+01
1.024484e+02	-1.845368e+01
1.030402e+02	-1.850381e+01
1.036353e+02	-1.855321e+01
1.042339e+02	-1.860184e+01
1.048360e+02	-1.865186e+01
1.054415e+02	-1.870149e+01
1.060505e+02	-1.874921e+01
1.066631e+02	-1.879973e+01
1.072791e+02	-1.884769e+01
1.078988e+02	-1.889996e+01
1.085220e+02	-1.894734e+01
1.091488e+02	-1.899626e+01
1.097793e+02	-1.904547e+01
1.104133e+02	-1.909510e+01
1.110511e+02	-1.914544e+01
1.116925e+02	-1.919506e+01
1.123376e+02	-1.924572e+01
1.129865e+02	-1.929332e+01
1.136391e+02	-1.934281e+01
1.142955e+02	-1.939287e+01
1.149556e+02	-1.944238e+01
1.156196e+02	-1.949243e+01
1.162874e+02	-1.954122e+01
1.169591e+02	-1.958999e+01
1.176347e+02	-1.964134e+01
1.183141e+02	-1.969044e+01
1.189975e+02	-1.973886e+01
1.196848e+02	-1.978841e+01
1.203761e+02	-1.983901e+01
1.210714e+02	-1.988756e+01
1.217707e+02	-1.993791e+01
1.224740e+02	-1.998553e+01
1.231814e+02	-2.003811e+01
1.238929e+02	-2.008570e+01
1.246085e+02	-2.013583e+01
1.253283e+02	-2.018381e+01
1.260522e+02	-2.023395e+01
1.267802e+02	-2.028397e+01
1.275125e+02	-2.033481e+01
1.282490e+02	-2.038209e+01
1.289898e+02	-2.043323e+01
1.297348e+02	-2.048245e+01
1.304842e+02	-2.053099e+01
1.312378e+02	-2.058045e+01
1.319959e+02	-2.062937e+01
1.327583e+02	-2.067928e+01
1.335251e+02	-2.072884e+01
1.342963e+02	-2.077997e+01
1.350720e+02	-2.083094e+01
1.358522e+02	-2.087723e+01
1.366368e+02	-2.092870e+01
1.374260e+02	-2.097824e+01
1.382198e+02	-2.102813e+01
1.390182e+02	-2.107884e+01
1.398211e+02	-2.112781e+01
1.406287e+02	-2.117682e+01
1.414410e+02	-2.122673e+01
1.422579e+02	-2.127674e+01
1.430796e+02	-2.132465e+01
1.439060e+02	-2.137824e+01
1.447372e+02	-2.142487e+01
1.455732e+02	-2.147478e+01
1.464141e+02	-2.152368e+01
1.472597e+02	-2.157380e+01
1.481103e+02	-2.162560e+01
1.489658e+02	-2.167366e+01
1.498262e+02	-2.172215e+01
1.506916e+02	-2.177415e+01
1.515620e+02	-2.182343e+01
1.524374e+02	-2.187331e+01
1.533179e+02	-2.192318e+01
1.542034e+02	-2.197354e+01
1.550941e+02	-2.202328e+01
1.559899e+02	-2.207364e+01
1.568909e+02	-2.212163e+01
1.577971e+02	-2.217053e+01
1.587085e+02	-2.221962e+01
1.596252e+02	-2.227081e+01
1.605472e+02	-2.232082e+01
1.614745e+02	-2.236741e+01
1.624072e+02	-2.242038e+01
1.633453e+02	-2.247102e+01
1.642887e+02	-2.252032e+01
1.652377e+02	-2.257078e+01
1.661921e+02	-2.261970e+01
1.671520e+02	-2.266893e+01
1.681175e+02	-2.271865e+01
1.690885e+02	-2.277003e+01
1.700651e+02	-2.281731e+01
1.710474e+02	-2.286868e+01
1.720354e+02	-2.291738e+01
1.730291e+02	-2.296661e+01
1.740285e+02	-2.301573e+01
1.750337e+02	-2.306495e+01
1.760446e+02	-2.311595e+01
1.770615e+02	-2.316810e+01
1.780842e+02	-2.321539e+01
1.791128e+02	-2.326659e+01
1.801473e+02	-2.331432e+01
1.811878e+02	-2.336778e+01
1.822344e+02	-2.341465e+01
1.832870e+02	-2.346549e+01
1.843456e+02	-2.351510e+01
1.854104e+02	-2.356755e+01
1.864813e+02	-2.361754e+01
1.875584e+02	-2.366440e+01
1.886418e+02	-2.371561e+01
1.897313e+02	-2.376554e+01
1.908272e+02	-2.381269e+01
1.919294e+02	-2.386487e+01
1.930380e+02	-2.391498e+01
1.941530e+02	-2.396393e+01
1.952744e+02	-2.401269e+01
1.964023e+02	-2.406538e+01
1.975367e+02	-2.411217e+01
1.986777e+02	-2.416435e+01
1.998252e+02	-2.421326e+01
2.009794e+02	-2.426230e+01
2.021403e+02	-2.431192e+01
2.033078e+02	-2.436669e+01
2.044821e+02	-2.441198e+01
2.056632e+02	-2.446313e+01
2.068511e+02	-2.451258e+01
2.080459e+02	-2.456297e+01
2.092475e+02	-2.461112e+01
2.104561e+02	-2.466065e+01
2.116717e+02	-2.471028e+01
2.128943e+02	-2.476132e+01
2.141240e+02	-2.481018e+01
2.153608e+02	-2.486089e+01
2.166047e+02	-2.490959e+01
2.178558e+02	-2.496090e+01
2.191141e+02	-2.501304e+01
2.203797e+02	-2.505842e+01
2.216526e+02	-2.511146e+01
2.229329e+02	-2.516182e+01
2.242205e+02	-2.521134e+01
2.255156e+02	-2.525676e+01
2.268182e+02	-2.530949e+01
2.281283e+02	-2.536228e+01
2.294459e+02	-2.541057e+01
2.307712e+02	-2.546149e+01
2.321041e+02	-2.550930e+01
2.334447e+02	-2.556013e+01
2.347931e+02	-2.561207e+01
2.361493e+02	-2.566216e+01
2.375133e+02	-2.570971e+01
2.388851e+02	-2.575995e+01
2.402649e+02	-2.581311e+01
2.416527e+02	-2.585912e+01
2.430484e+02	-2.591061e+01
2.444523e+02	-2.596101e+01
2.458642e+02	-2.601353e+01
2.472843e+02	-2.605808e+01
2.487126e+02	-2.611167e+01
2.501492e+02	-2.615387e+01
2.515940e+02	-2.621175e+01
2.530472e+02	-2.626375e+01
2.545088e+02	-2.630673e+01
2.559789e+02	-2.635962e+01
2.574574e+02	-2.641227e+01
2.589444e+02	-2.645588e+01
2.604401e+02	-2.650889e+01
2.619444e+02	-2.656069e+01
2.634574e+02	-2.660880e+01
2.649791e+02	-2.666056e+01
2.665096e+02	-2.670894e+01
2.680489e+02	-2.676253e+01
2.695972e+02	-2.681094e+01
2.711544e+02	-2.686147e+01
2.727205e+02	-2.691229e+01
2.742958e+02	-2.695717e+01
2.758801e+02	-2.700766e+01
2.774736e+02	-2.705644e+01
2.790762e+02	-2.710690e+01
2.806882e+02	-2.715659e+01
2.823094e+02	-2.720988e+01
2.839400e+02	-2.725750e+01
2.855800e+02	-2.731157e+01
2.872295e+02	-2.735954e+01
2.888886e+02	-2.740900e+01
2.905572e+02	-2.746067e+01
2.922354e+02	-2.751008e+01
2.939234e+02	-2.755636e+01
2.956211e+02	-2.761025e+01
2.973286e+02	-2.765782e+01
2.990459e+02	-2.770705e+01
3.007732e+02	-2.776073e+01
3.025104e+02	-2.780913e+01
3.042577e+02	-2.785726e+01
3.060151e+02	-2.791081e+01
3.077826e+02	-2.795831e+01
3.095604e+02	-2.801071e+01
3.113484e+02	-2.805976e+01
3.131467e+02	-2.810857e+01
3.149554e+02	-2.815969e+01
3.167746e+02	-2.820607e+01
3.186043e+02	-2.825788e+01
3.204445e+02	-2.831182e+01
3.222954e+02	-2.835873e+01
3.241570e+02	-2.840825e+01
3.260293e+02	-2.846425e+01
3.279124e+02	-2.850822e+01
3.298064e+02	-2.856112e+01
3.317114e+02	-2.861024e+01
3.336273e+02	-2.866068e+01
3.355544e+02	-2.870911e+01
3.374925e+02	-2.876140e+01
3.394418e+02	-2.881031e+01
3.414024e+02	-2.886124e+01
3.433744e+02	-2.891128e+01
3.453577e+02	-2.896127e+01
3.473525e+02	-2.901030e+01
3.493588e+02	-2.905986e+01
3.513766e+02	-2.911244e+01
3.534062e+02	-2.915995e+01
3.554474e+02	-2.921283e+01
3.575005e+02	-2.925967e+01
3.595654e+02	-2.931409e+01
3.616422e+02	-2.936451e+01
3.637311e+02	-2.941493e+01
3.658320e+02	-2.946257e+01
3.679450e+02	-2.951427e+01
3.700702e+02	-2.956213e+01
3.722077e+02	-2.960964e+01
3.743576e+02	-2.966007e+01
3.765199e+02	-2.971136e+01
3.786946e+02	-2.976664e+01
3.808820e+02	-2.981166e+01
3.830819e+02	-2.986653e+01
3.852946e+02	-2.990929e+01
3.875200e+02	-2.996186e+01
3.897583e+02	-3.001283e+01
3.920096e+02	-3.006368e+01
3.942738e+02	-3.011095e+01
3.965511e+02	-3.015895e+01
3.988416e+02	-3.021070e+01
4.011452e+02	-3.026586e+01
4.034622e+02	-3.031499e+01
4.057926e+02	-3.036070e+01
4.081365e+02	-3.041585e+01
4.104938e+02	-3.046529e+01
4.128648e+02	-3.051246e+01
4.152495e+02	-3.056278e+01
4.176480e+02	-3.061453e+01
4.200603e+02	-3.066543e+01
4.224866e+02	-3.071540e+01
4.249268e+02	-3.076159e+01
4.273812e+02	-3.082107e+01
4.298497e+02	-3.086364e+01
4.323325e+02	-3.091340e+01
4.348297e+02	-3.096687e+01
4.373412e+02	-3.101413e+01
4.398673e+02	-3.106280e+01
4.424079e+02	-3.111376e+01
4.449633e+02	-3.116301e+01
4.475334e+02	-3.121702e+01
4.501183e+02	-3.126492e+01
4.527182e+02	-3.131419e+01
4.553330e+02	-3.136129e+01
4.579630e+02	-3.141253e+01
4.606082e+02	-3.146806e+01
4.632687e+02	-3.152271e+01
4.659445e+02	-3.156923e+01
4.686358e+02	-3.162270e+01
4.713426e+02	-3.166805e+01
4.740650e+02	-3.171913e+01
4.768032e+02	-3.177086e+01
4.795572e+02	-3.181438e+01
4.823271e+02	-3.186750e+01
4.851130e+02	-3.191043e+01
4.879150e+02	-3.197175e+01
4.907332e+02	-3.201398e+01
4.935676e+02	-3.207118e+01
4.964185e+02	-3.211165e+01
4.992858e+02	-3.217078e+01
5.021696e+02	-3.222458e+01
5.050701e+02	-3.226300e+01
5.079874e+02	-3.232371e+01
5.109215e+02	-3.236508e+01
5.138726e+02	-3.241736e+01
5.168407e+02	-3.246472e+01
5.198259e+02	-3.251862e+01
5.228284e+02	-3.257409e+01
5.258482e+02	-3.262393e+01
5.288855e+02	-3.266799e+01
5.319403e+02	-3.272751e+01
5.350128e+02	-3.277068e+01
5.381030e+02	-3.281444e+01
5.412111e+02	-3.287624e+01
5.443371e+02	-3.292094e+01
5.474812e+02	-3.296745e+01
5.506434e+02	-3.302530e+01
5.538239e+02	-3.306956e+01
5.570228e+02	-3.312529e+01
5.602401e+02	-3.316368e+01
5.634760e+02	-3.322319e+01
5.667306e+02	-3.327547e+01
5.700040e+02	-3.332672e+01
5.732964e+02	-3.336727e+01
5.766077e+02	-3.343092e+01
5.799382e+02	-3.346894e+01
5.832879e+02	-3.352986e+01
5.866569e+02	-3.357650e+01
5.900454e+02	-3.362533e+01
5.934535e+02	-3.367259e+01
5.968813e+02	-3.373547e+01
6.003288e+02	-3.378020e+01
6.037963e+02	-3.383426e+01
6.072838e+02	-3.387689e+01
6.107914e+02	-3.392634e+01
6.143194e+02	-3.397851e+01
6.178676e+02	-3.403707e+01
6.214364e+02	-3.407936e+01
6.250258e+02	-3.412659e+01
6.286359e+02	-3.417960e+01
6.322669e+02	-3.422603e+01
6.359189e+02	-3.428294e+01
6.395919e+02	-3.433574e+01
6.432862e+02	-3.437837e+01
6.470017e+02	-3.443535e+01
6.507388e+02	-3.448077e+01
6.544974e+02	-3.453358e+01
6.582778e+02	-3.457876e+01
6.620800e+02	-3.462612e+01
6.659041e+02	-3.468837e+01
6.697504e+02	-3.473640e+01
6.736188e+02	-3.478272e+01
6.775096e+02	-3.482967e+01
6.814229e+02	-3.488188e+01
6.853587e+02	-3.493558e+01
6.893173e+02	-3.498691e+01
6.932988e+02	-3.504038e+01
6.973033e+02	-3.508363e+01
7.013309e+02	-3.513111e+01
