Frequency(Hz)	Magnitude(dB)
1.000000e+01	-1.923551e+00
1.005776e+01	-1.941374e+00
1.011585e+01	-1.959645e+00
1.017428e+01	-1.977739e+00
1.023305e+01	-1.996077e+00
1.029215e+01	-2.014820e+00
1.035160e+01	-2.032935e+00
1.041139e+01	-2.051953e+00
1.047153e+01	-2.070950e+00
1.053201e+01	-2.090120e+00
1.059284e+01	-2.109137e+00
1.065403e+01	-2.128568e+00
1.071556e+01	-2.148072e+00
1.077746e+01	-2.167568e+00
1.083971e+01	-2.187285e+00
1.090232e+01	-2.207198e+00
1.096529e+01	-2.227324e+00
1.102862e+01	-2.247273e+00
1.109232e+01	-2.267427e+00
1.115639e+01	-2.287926e+00
1.122083e+01	-2.308614e+00
1.128564e+01	-2.329360e+00
1.135083e+01	-2.350227e+00
1.141639e+01	-2.371072e+00
1.148233e+01	-2.392326e+00
1.154865e+01	-2.413331e+00
1.161536e+01	-2.434851e+00
1.168245e+01	-2.456294e+00
1.174992e+01	-2.477984e+00
1.181779e+01	-2.499682e+00
1.188605e+01	-2.521905e+00
1.195470e+01	-2.543704e+00
1.202375e+01	-2.566100e+00
1.209320e+01	-2.588653e+00
1.216305e+01	-2.610976e+00
1.223330e+01	-2.633807e+00
1.230396e+01	-2.656385e+00
1.237503e+01	-2.679392e+00
1.244651e+01	-2.702607e+00
1.251840e+01	-2.725913e+00
1.259070e+01	-2.749359e+00
1.266343e+01	-2.772870e+00
1.273657e+01	-2.796690e+00
1.281014e+01	-2.820498e+00
1.288413e+01	-2.844241e+00
1.295855e+01	-2.868520e+00
1.303339e+01	-2.892445e+00
1.310867e+01	-2.917119e+00
1.318439e+01	-2.941608e+00
1.326054e+01	-2.966172e+00
1.333713e+01	-2.991354e+00
1.341417e+01	-3.015852e+00
1.349165e+01	-3.041267e+00
1.356958e+01	-3.066557e+00
1.364795e+01	-3.091936e+00
1.372678e+01	-3.117421e+00
1.380607e+01	-3.143210e+00
1.388581e+01	-3.169042e+00
1.396602e+01	-3.195150e+00
1.404668e+01	-3.221063e+00
1.412782e+01	-3.247585e+00
1.420942e+01	-3.273672e+00
1.429149e+01	-3.300417e+00
1.437404e+01	-3.327073e+00
1.445706e+01	-3.353781e+00
1.454057e+01	-3.380680e+00
1.462455e+01	-3.408075e+00
1.470902e+01	-3.435393e+00
1.479398e+01	-3.462663e+00
1.487943e+01	-3.490155e+00
1.496537e+01	-3.517994e+00
1.505181e+01	-3.545954e+00
1.513875e+01	-3.573928e+00
1.522619e+01	-3.601728e+00
1.531414e+01	-3.630360e+00
1.540259e+01	-3.658475e+00
1.549156e+01	-3.686969e+00
1.558103e+01	-3.715774e+00
1.567103e+01	-3.744691e+00
1.576155e+01	-3.773426e+00
1.585258e+01	-3.802758e+00
1.594415e+01	-3.831998e+00
1.603624e+01	-3.861275e+00
1.612886e+01	-3.890696e+00
1.622202e+01	-3.920655e+00
1.631572e+01	-3.950324e+00
1.640996e+01	-3.980092e+00
1.650474e+01	-4.010497e+00
1.660008e+01	-4.040729e+00
1.669596e+01	-4.071104e+00
1.679239e+01	-4.101634e+00
1.688938e+01	-4.131967e+00
1.698694e+01	-4.163065e+00
1.708505e+01	-4.194094e+00
1.718373e+01	-4.225030e+00
1.728299e+01	-4.255977e+00
1.738281e+01	-4.287226e+00
1.748322e+01	-4.318619e+00
1.758420e+01	-4.350349e+00
1.768576e+01	-4.382152e+00
1.778792e+01	-4.414046e+00
1.789066e+01	-4.446317e+00
1.799399e+01	-4.477961e+00
1.809793e+01	-4.510405e+00
1.820246e+01	-4.542679e+00
1.830760e+01	-4.575413e+00
1.841334e+01	-4.607921e+00
1.851969e+01	-4.640770e+00
1.862666e+01	-4.673533e+00
1.873425e+01	-4.706481e+00
1.884246e+01	-4.739958e+00
1.895129e+01	-4.772902e+00
1.906075e+01	-4.806528e+00
1.917085e+01	-4.840147e+00
1.928158e+01	-4.873729e+00
1.939295e+01	-4.907483e+00
1.950496e+01	-4.941535e+00
1.961762e+01	-4.975512e+00
1.973093e+01	-5.009570e+00
1.984490e+01	-5.043842e+00
1.995952e+01	-5.078443e+00
2.007480e+01	-5.112941e+00
2.019076e+01	-5.147749e+00
2.030738e+01	-5.182408e+00
2.042467e+01	-5.217383e+00
2.054264e+01	-5.252120e+00
2.066130e+01	-5.287464e+00
2.078064e+01	-5.323054e+00
2.090066e+01	-5.358429e+00
2.102139e+01	-5.393890e+00
2.114280e+01	-5.429162e+00
2.126492e+01	-5.465074e+00
2.138775e+01	-5.501040e+00
2.151128e+01	-5.536930e+00
2.163553e+01	-5.572959e+00
2.176050e+01	-5.609413e+00
2.188619e+01	-5.645725e+00
2.201260e+01	-5.681997e+00
2.213974e+01	-5.718945e+00
2.226762e+01	-5.755382e+00
2.239624e+01	-5.792120e+00
2.252560e+01	-5.829157e+00
2.265571e+01	-5.865959e+00
2.278656e+01	-5.902952e+00
2.291818e+01	-5.940348e+00
2.305055e+01	-5.977604e+00
2.318369e+01	-6.015033e+00
2.331760e+01	-6.052754e+00
2.345228e+01	-6.090561e+00
2.358774e+01	-6.128136e+00
2.372398e+01	-6.166017e+00
2.386101e+01	-6.203938e+00
2.399883e+01	-6.241935e+00
2.413745e+01	-6.280654e+00
2.427686e+01	-6.318807e+00
2.441709e+01	-6.357250e+00
2.455812e+01	-6.395676e+00
2.469997e+01	-6.434066e+00
2.484263e+01	-6.472584e+00
2.498612e+01	-6.511511e+00
2.513044e+01	-6.550565e+00
2.527559e+01	-6.589574e+00
2.542158e+01	-6.628625e+00
2.556842e+01	-6.668069e+00
2.571610e+01	-6.707312e+00
2.586463e+01	-6.746776e+00
2.601403e+01	-6.786293e+00
2.616428e+01	-6.825696e+00
2.631541e+01	-6.865551e+00
2.646740e+01	-6.905267e+00
2.662028e+01	-6.944927e+00
2.677404e+01	-6.984749e+00
2.692868e+01	-7.024946e+00
2.708422e+01	-7.065057e+00
2.724066e+01	-7.105457e+00
2.739800e+01	-7.145647e+00
2.755625e+01	-7.186362e+00
2.771541e+01	-7.226981e+00
2.787550e+01	-7.266856e+00
2.803650e+01	-7.308159e+00
2.819844e+01	-7.348888e+00
2.836131e+01	-7.389339e+00
2.852513e+01	-7.430306e+00
2.868989e+01	-7.471208e+00
2.885560e+01	-7.512459e+00
2.902227e+01	-7.553616e+00
2.918990e+01	-7.595081e+00
2.935850e+01	-7.636142e+00
2.952807e+01	-7.677672e+00
2.969863e+01	-7.719581e+00
2.987016e+01	-7.761167e+00
3.004269e+01	-7.802921e+00
3.021622e+01	-7.844389e+00
3.039075e+01	-7.886352e+00
3.056628e+01	-7.928143e+00
3.074283e+01	-7.970535e+00
3.092040e+01	-8.011969e+00
3.109900e+01	-8.054345e+00
3.127862e+01	-8.096537e+00
3.145929e+01	-8.138776e+00
3.164099e+01	-8.181255e+00
3.182375e+01	-8.224107e+00
3.200756e+01	-8.266700e+00
3.219244e+01	-8.308947e+00
3.237838e+01	-8.351687e+00
3.256540e+01	-8.394563e+00
3.275349e+01	-8.437356e+00
3.294268e+01	-8.480068e+00
3.313295e+01	-8.523272e+00
3.332433e+01	-8.566516e+00
3.351681e+01	-8.609066e+00
3.371040e+01	-8.652659e+00
3.390511e+01	-8.695801e+00
3.410094e+01	-8.738666e+00
3.429791e+01	-8.782010e+00
3.449601e+01	-8.825254e+00
3.469526e+01	-8.869492e+00
3.489566e+01	-8.912404e+00
3.509721e+01	-8.956601e+00
3.529993e+01	-9.000296e+00
3.550382e+01	-9.043859e+00
3.570889e+01	-9.087417e+00
3.591515e+01	-9.131713e+00
3.612259e+01	-9.175862e+00
3.633123e+01	-9.219304e+00
3.654108e+01	-9.263744e+00
3.675214e+01	-9.307652e+00
3.696442e+01	-9.352081e+00
3.717792e+01	-9.396433e+00
3.739266e+01	-9.440292e+00
3.760864e+01	-9.484659e+00
3.782587e+01	-9.529456e+00
3.804435e+01	-9.573508e+00
3.826409e+01	-9.618257e+00
3.848510e+01	-9.662877e+00
3.870739e+01	-9.707147e+00
3.893096e+01	-9.751641e+00
3.915583e+01	-9.797021e+00
3.938199e+01	-9.841482e+00
3.960946e+01	-9.886577e+00
3.983824e+01	-9.931917e+00
4.006834e+01	-9.976344e+00
4.029978e+01	-1.002130e+01
4.053255e+01	-1.006625e+01
4.076666e+01	-1.011192e+01
4.100213e+01	-1.015708e+01
4.123896e+01	-1.020201e+01
4.147715e+01	-1.024783e+01
4.171672e+01	-1.029295e+01
4.195767e+01	-1.033776e+01
4.220002e+01	-1.038325e+01
4.244377e+01	-1.042859e+01
4.268892e+01	-1.047474e+01
4.293549e+01	-1.051982e+01
4.318348e+01	-1.056592e+01
4.343291e+01	-1.061120e+01
4.368377e+01	-1.065732e+01
4.393609e+01	-1.070285e+01
4.418986e+01	-1.074851e+01
4.444510e+01	-1.079433e+01
4.470182e+01	-1.084026e+01
4.496001e+01	-1.088656e+01
4.521970e+01	-1.093287e+01
4.548089e+01	-1.097797e+01
4.574358e+01	-1.102413e+01
4.600779e+01	-1.107033e+01
4.627353e+01	-1.111694e+01
4.654081e+01	-1.116261e+01
4.680963e+01	-1.120872e+01
4.708000e+01	-1.125558e+01
4.735193e+01	-1.130218e+01
4.762543e+01	-1.134777e+01
4.790051e+01	-1.139385e+01
4.817719e+01	-1.144073e+01
4.845545e+01	-1.148767e+01
4.873533e+01	-1.153397e+01
4.901682e+01	-1.158051e+01
4.929994e+01	-1.162657e+01
4.958470e+01	-1.167345e+01
4.987110e+01	-1.171996e+01
5.015915e+01	-1.176658e+01
5.044887e+01	-1.181310e+01
5.074026e+01	-1.186009e+01
5.103333e+01	-1.190691e+01
5.132810e+01	-1.195378e+01
5.162457e+01	-1.200023e+01
5.192275e+01	-1.204758e+01
5.222265e+01	-1.209428e+01
5.252429e+01	-1.214177e+01
5.282767e+01	-1.218775e+01
5.313280e+01	-1.223581e+01
5.343969e+01	-1.228332e+01
5.374836e+01	-1.232896e+01
5.405880e+01	-1.237671e+01
5.437105e+01	-1.242349e+01
5.468509e+01	-1.247091e+01
5.500095e+01	-1.251826e+01
5.531863e+01	-1.256585e+01
5.563815e+01	-1.261279e+01
5.595951e+01	-1.265998e+01
5.628273e+01	-1.270733e+01
5.660782e+01	-1.275477e+01
5.693479e+01	-1.280186e+01
5.726364e+01	-1.285011e+01
5.759439e+01	-1.289700e+01
5.792705e+01	-1.294457e+01
5.826164e+01	-1.299211e+01
5.859815e+01	-1.303944e+01
5.893662e+01	-1.308635e+01
5.927703e+01	-1.313429e+01
5.961941e+01	-1.318239e+01
5.996377e+01	-1.323028e+01
6.031012e+01	-1.327751e+01
6.065847e+01	-1.332539e+01
6.100883e+01	-1.337338e+01
6.136121e+01	-1.342074e+01
6.171563e+01	-1.346796e+01
6.207210e+01	-1.351587e+01
6.243063e+01	-1.356388e+01
6.279122e+01	-1.361143e+01
6.315390e+01	-1.366036e+01
6.351868e+01	-1.370749e+01
6.388556e+01	-1.375578e+01
6.425456e+01	-1.380339e+01
6.462569e+01	-1.385130e+01
6.499897e+01	-1.389977e+01
6.537440e+01	-1.394740e+01
6.575200e+01	-1.399471e+01
6.613178e+01	-1.404390e+01
6.651375e+01	-1.409131e+01
6.689793e+01	-1.413951e+01
6.728433e+01	-1.418756e+01
6.767297e+01	-1.423580e+01
6.806384e+01	-1.428320e+01
6.845698e+01	-1.433298e+01
6.885238e+01	-1.437957e+01
6.925007e+01	-1.442828e+01
6.965005e+01	-1.447729e+01
7.005235e+01	-1.452470e+01
7.045697e+01	-1.457314e+01
7.086393e+01	-1.462214e+01
7.127323e+01	-1.467011e+01
7.168490e+01	-1.471832e+01
7.209895e+01	-1.476711e+01
7.251539e+01	-1.481446e+01
7.293424e+01	-1.486325e+01
7.335551e+01	-1.491136e+01
7.377920e+01	-1.496059e+01
7.420535e+01	-1.500808e+01
7.463396e+01	-1.505769e+01
7.506504e+01	-1.510482e+01
7.549861e+01	-1.515422e+01
7.593469e+01	-1.520365e+01
7.637328e+01	-1.525125e+01
7.681441e+01	-1.529973e+01
7.725809e+01	-1.534814e+01
7.770433e+01	-1.539634e+01
7.815315e+01	-1.544551e+01
7.860456e+01	-1.549529e+01
7.905857e+01	-1.554316e+01
7.951521e+01	-1.559145e+01
7.997449e+01	-1.564011e+01
8.043642e+01	-1.568852e+01
8.090102e+01	-1.573756e+01
8.136830e+01	-1.578611e+01
8.183828e+01	-1.583453e+01
8.231097e+01	-1.588292e+01
8.278640e+01	-1.593174e+01
8.326457e+01	-1.598129e+01
8.374550e+01	-1.602957e+01
8.422921e+01	-1.607856e+01
8.471572e+01	-1.612768e+01
8.520503e+01	-1.617627e+01
8.569717e+01	-1.622512e+01
8.619215e+01	-1.627403e+01
8.669000e+01	-1.632198e+01
8.719071e+01	-1.637026e+01
8.769432e+01	-1.642076e+01
8.820084e+01	-1.646931e+01
8.871029e+01	-1.651706e+01
8.922267e+01	-1.656716e+01
8.973802e+01	-1.661594e+01
9.025634e+01	-1.666460e+01
9.077766e+01	-1.671312e+01
9.130199e+01	-1.676245e+01
9.182935e+01	-1.681246e+01
9.235975e+01	-1.686095e+01
9.289321e+01	-1.690851e+01
9.342976e+01	-1.695813e+01
9.396941e+01	-1.700791e+01
9.451217e+01	-1.705756e+01
9.505807e+01	-1.710595e+01
9.560712e+01	-1.715479e+01
9.615934e+01	-1.720342e+01
9.671476e+01	-1.725224e+01
9.727338e+01	-1.730222e+01
9.783522e+01	-1.735061e+01
9.840032e+01	-1.740055e+01
9.896867e+01	-1.745038e+01
9.954031e+01	-1.749794e+01
1.001153e+02	-1.754675e+01
1.006935e+02	-1.759612e+01
1.012751e+02	-1.764599e+01
1.018601e+02	-1.769565e+01
1.024484e+02	-1.774465e+01
1.030402e+02	-1.779353e+01
1.036353e+02	-1.784222e+01
1.042339e+02	-1.789164e+01
1.048360e+02	-1.794150e+01
1.054415e+02	-1.799129e+01
1.060505e+02	-1.804045e+01
1.066631e+02	-1.808981e+01
1.072791e+02	-1.813833e+01
1.078988e+02	-1.818818e+01
1.085220e+02	-1.823654e+01
1.091488e+02	-1.828749e+01
1.097793e+02	-1.833561e+01
1.104133e+02	-1.838423e+01
1.110511e+02	-1.843451e+01
1.116925e+02	-1.848411e+01
1.123376e+02	-1.853367e+01
1.129865e+02	-1.858206e+01
1.136391e+02	-1.863207e+01
1.142955e+02	-1.868191e+01
1.149556e+02	-1.873075e+01
1.156196e+02	-1.877895e+01
1.162874e+02	-1.882963e+01
1.169591e+02	-1.887790e+01
1.176347e+02	-1.892789e+01
1.183141e+02	-1.897710e+01
1.189975e+02	-1.902756e+01
1.196848e+02	-1.907614e+01
1.203761e+02	-1.912659e+01
1.210714e+02	-1.917620e+01
1.217707e+02	-1.922317e+01
1.224740e+02	-1.927332e+01
1.231814e+02	-1.932125e+01
1.238929e+02	-1.937149e+01
1.246085e+02	-1.942263e+01
1.253283e+02	-1.947205e+01
1.260522e+02	-1.952070e+01
1.267802e+02	-1.957136e+01
1.275125e+02	-1.961928e+01
1.282490e+02	-1.966842e+01
1.289898e+02	-1.971901e+01
1.297348e+02	-1.976904e+01
1.304842e+02	-1.981869e+01
1.312378e+02	-1.986664e+01
1.319959e+02	-1.991775e+01
1.327583e+02	-1.996458e+01
1.335251e+02	-2.001701e+01
1.342963e+02	-2.006505e+01
1.350720e+02	-2.011520e+01
1.358522e+02	-2.016552e+01
1.366368e+02	-2.021346e+01
1.374260e+02	-2.026586e+01
1.382198e+02	-2.031194e+01
1.390182e+02	-2.036427e+01
1.398211e+02	-2.041191e+01
1.406287e+02	-2.046211e+01
1.414410e+02	-2.051112e+01
1.422579e+02	-2.055946e+01
1.430796e+02	-2.061183e+01
1.439060e+02	-2.066018e+01
1.447372e+02	-2.071005e+01
1.455732e+02	-2.075894e+01
1.464141e+02	-2.080909e+01
1.472597e+02	-2.086106e+01
1.481103e+02	-2.090962e+01
1.489658e+02	-2.095726e+01
1.498262e+02	-2.100595e+01
1.506916e+02	-2.105671e+01
1.515620e+02	-2.110827e+01
1.524374e+02	-2.115705e+01
1.533179e+02	-2.120618e+01
1.542034e+02	-2.125611e+01
1.550941e+02	-2.130684e+01
1.559899e+02	-2.135359e+01
1.568909e+02	-2.140620e+01
1.577971e+02	-2.145456e+01
1.587085e+02	-2.150503e+01
1.596252e+02	-2.155280e+01
1.605472e+02	-2.160554e+01
1.614745e+02	-2.165383e+01
1.624072e+02	-2.170540e+01
1.633453e+02	-2.175100e+01
1.642887e+02	-2.180302e+01
1.652377e+02	-2.185118e+01
1.661921e+02	-2.190270e+01
1.671520e+02	-2.195203e+01
1.681175e+02	-2.200213e+01
1.690885e+02	-2.205185e+01
1.700651e+02	-2.210108e+01
1.710474e+02	-2.215285e+01
1.720354e+02	-2.220154e+01
1.730291e+02	-2.225168e+01
1.740285e+02	-2.229879e+01
1.750337e+02	-2.234941e+01
1.760446e+02	-2.239836e+01
1.770615e+02	-2.244751e+01
1.780842e+02	-2.249696e+01
1.791128e+02	-2.254955e+01
1.801473e+02	-2.259977e+01
1.811878e+02	-2.264872e+01
1.822344e+02	-2.270053e+01
1.832870e+02	-2.274932e+01
1.843456e+02	-2.280047e+01
1.854104e+02	-2.284679e+01
1.864813e+02	-2.289804e+01
1.875584e+02	-2.294699e+01
1.886418e+02	-2.299814e+01
1.897313e+02	-2.304711e+01
1.908272e+02	-2.309677e+01
1.919294e+02	-2.314631e+01
1.930380e+02	-2.319845e+01
1.941530e+02	-2.324701e+01
1.952744e+02	-2.329506e+01
1.964023e+02	-2.334503e+01
1.975367e+02	-2.339497e+01
1.986777e+02	-2.344326e+01
1.998252e+02	-2.349519e+01
2.009794e+02	-2.354582e+01
2.021403e+02	-2.359514e+01
2.033078e+02	-2.364638e+01
2.044821e+02	-2.369395e+01
2.056632e+02	-2.374431e+01
2.068511e+02	-2.379330e+01
2.080459e+02	-2.384294e+01
2.092475e+02	-2.389405e+01
2.104561e+02	-2.394430e+01
2.116717e+02	-2.399292e+01
2.128943e+02	-2.404281e+01
2.141240e+02	-2.409397e+01
2.153608e+02	-2.414579e+01
2.166047e+02	-2.419331e+01
2.178558e+02	-2.424038e+01
2.191141e+02	-2.429386e+01
2.203797e+02	-2.434199e+01
2.216526e+02	-2.439460e+01
2.229329e+02	-2.444168e+01
2.242205e+02	-2.449151e+01
2.255156e+02	-2.454091e+01
2.268182e+02	-2.459004e+01
2.281283e+02	-2.463990e+01
2.294459e+02	-2.469144e+01
2.307712e+02	-2.474370e+01
2.321041e+02	-2.479122e+01
2.334447e+02	-2.484390e+01
2.347931e+02	-2.489134e+01
2.361493e+02	-2.494183e+01
2.375133e+02	-2.499126e+01
2.388851e+02	-2.504318e+01
2.402649e+02	-2.509141e+01
2.416527e+02	-2.513994e+01
2.430484e+02	-2.518999e+01
2.444523e+02	-2.524102e+01
2.458642e+02	-2.529373e+01
2.472843e+02	-2.533892e+01
2.487126e+02	-2.539191e+01
2.501492e+02	-2.544147e+01
2.515940e+02	-2.549057e+01
2.530472e+02	-2.553961e+01
2.545088e+02	-2.558716e+01
2.559789e+02	-2.563888e+01
2.574574e+02	-2.569156e+01
2.589444e+02	-2.574258e+01
2.604401e+02	-2.579345e+01
2.619444e+02	-2.583900e+01
2.634574e+02	-2.588573e+01
2.649791e+02	-2.594124e+01
2.665096e+02	-2.598882e+01
2.680489e+02	-2.604156e+01
2.695972e+02	-2.608817e+01
2.711544e+02	-2.613857e+01
2.727205e+02	-2.619128e+01
2.742958e+02	-2.624116e+01
2.758801e+02	-2.629026e+01
2.774736e+02	-2.633996e+01
2.790762e+02	-2.639248e+01
2.806882e+02	-2.644345e+01
2.823094e+02	-2.648927e+01
2.839400e+02	-2.653473e+01
2.855800e+02	-2.659016e+01
2.872295e+02	-2.663897e+01
2.888886e+02	-2.668531e+01
2.905572e+02	-2.674132e+01
2.922354e+02	-2.679055e+01
2.939234e+02	-2.684172e+01
2.956211e+02	-2.688926e+01
2.973286e+02	-2.693924e+01
2.990459e+02	-2.699089e+01
3.007732e+02	-2.703809e+01
3.025104e+02	-2.708842e+01
3.042577e+02	-2.713973e+01
3.060151e+02	-2.718791e+01
3.077826e+02	-2.723640e+01
3.095604e+02	-2.728940e+01
3.113484e+02	-2.734125e+01
3.131467e+02	-2.738991e+01
3.149554e+02	-2.744077e+01
3.167746e+02	-2.748749e+01
3.186043e+02	-2.753857e+01
3.204445e+02	-2.758998e+01
3.222954e+02	-2.764177e+01
3.241570e+02	-2.768888e+01
3.260293e+02	-2.774125e+01
3.279124e+02	-2.778866e+01
3.298064e+02	-2.784020e+01
3.317114e+02	-2.788743e+01
3.336273e+02	-2.793844e+01
3.355544e+02	-2.798768e+01
3.374925e+02	-2.803688e+01
3.394418e+02	-2.808754e+01
3.414024e+02	-2.813952e+01
3.433744e+02	-2.819315e+01
3.453577e+02	-2.823984e+01
3.473525e+02	-2.828895e+01
3.493588e+02	-2.833567e+01
3.513766e+02	-2.838778e+01
3.534062e+02	-2.844194e+01
3.554474e+02	-2.849086e+01
3.575005e+02	-2.854037e+01
3.595654e+02	-2.858935e+01
3.616422e+02	-2.863877e+01
3.637311e+02	-2.869002e+01
3.658320e+02	-2.873655e+01
3.679450e+02	-2.879020e+01
3.700702e+02	-2.883856e+01
3.722077e+02	-2.889012e+01
3.743576e+02	-2.893964e+01
3.765199e+02	-2.899005e+01
3.786946e+02	-2.903668e+01
3.808820e+02	-2.908924e+01
3.830819e+02	-2.914061e+01
3.852946e+02	-2.918812e+01
3.875200e+02	-2.924184e+01
3.897583e+02	-2.929094e+01
3.920096e+02	-2.934080e+01
3.942738e+02	-2.939044e+01
3.965511e+02	-2.944308e+01
3.988416e+02	-2.949232e+01
4.011452e+02	-2.954055e+01
4.034622e+02	-2.959440e+01
4.057926e+02	-2.963959e+01
4.081365e+02	-2.969065e+01
4.104938e+02	-2.974309e+01
4.128648e+02	-2.979734e+01
4.152495e+02	-2.984321e+01
4.176480e+02	-2.989164e+01
4.200603e+02	-2.994269e+01
4.224866e+02	-2.998917e+01
4.249268e+02	-3.004031e+01
4.273812e+02	-3.008794e+01
4.298497e+02	-3.014242e+01
4.323325e+02	-3.019479e+01
4.348297e+02	-3.024805e+01
4.373412e+02	-3.028900e+01
4.398673e+02	-3.034460e+01
4.424079e+02	-3.039576e+01
4.449633e+02	-3.044706e+01
4.475334e+02	-3.049076e+01
4.501183e+02	-3.054779e+01
4.527182e+02	-3.059346e+01
4.553330e+02	-3.064373e+01
4.579630e+02	-3.068572e+01
4.606082e+02	-3.074166e+01
4.632687e+02	-3.078887e+01
4.659445e+02	-3.084588e+01
4.686358e+02	-3.089107e+01
4.713426e+02	-3.094160e+01
4.740650e+02	-3.099234e+01
4.768032e+02	-3.104064e+01
4.795572e+02	-3.109412e+01
4.823271e+02	-3.114652e+01
4.851130e+02	-3.118833e+01
4.879150e+02	-3.124896e+01
4.907332e+02	-3.129295e+01
4.935676e+02	-3.134570e+01
4.964185e+02	-3.139588e+01
4.992858e+02	-3.144552e+01
5.021696e+02	-3.149488e+01
5.050701e+02	-3.154428e+01
5.079874e+02	-3.160243e+01
5.109215e+02	-3.164734e+01
5.138726e+02	-3.169227e+01
5.168407e+02	-3.174217e+01
5.198259e+02	-3.178708e+01
5.228284e+02	-3.185353e+01
5.258482e+02	-3.190065e+01
5.288855e+02	-3.194855e+01
5.319403e+02	-3.199732e+01
5.350128e+02	-3.204678e+01
5.381030e+02	-3.210057e+01
5.412111e+02	-3.215830e+01
5.443371e+02	-3.220033e+01
5.474812e+02	-3.225140e+01
5.506434e+02	-3.229980e+01
5.538239e+02	-3.234710e+01
5.570228e+02	-3.239226e+01
5.602401e+02	-3.245087e+01
5.634760e+02	-3.250307e+01
5.667306e+02	-3.255309e+01
5.700040e+02	-3.259835e+01
5.732964e+02	-3.264522e+01
5.766077e+02	-3.269482e+01
5.799382e+02	-3.275420e+01
5.832879e+02	-3.280890e+01
5.866569e+02	-3.284931e+01
5.900454e+02	-3.289719e+01
5.934535e+02	-3.294726e+01
5.968813e+02	-3.299954e+01
6.003288e+02	-3.305517e+01
6.037963e+02	-3.310631e+01
6.072838e+02	-3.315574e+01
6.107914e+02	-3.319792e+01
6.143194e+02	-3.325334e+01
6.178676e+02	-3.330274e+01
6.214364e+02	-3.334402e+01
6.250258e+02	-3.340397e+01
6.286359e+02	-3.345739e+01
6.322669e+02	-3.350237e+01
6.359189e+02	-3.355406e+01
6.395919e+02	-3.360270e+01
6.432862e+02	-3.366263e+01
6.470017e+02	-3.370277e+01
6.507388e+02	-3.375591e+01
6.544974e+02	-3.380495e+01
6.582778e+02	-3.385840e+01
6.620800e+02	-3.390552e+01
6.659041e+02	-3.395932e+01
6.697504e+02	-3.401036e+01
6.736188e+02	-3.406830e+01
6.775096e+02	-3.410632e+01
6.814229e+02	-3.416338e+01
6.853587e+02	-3.421365e+01
6.893173e+02	-3.425929e+01
6.932988e+02	-3.431071e+01
6.973033e+02	-3.436424e+01
7.013309e+02	-3.441427e+01
