Frequency(Hz)	Magnitude(dB)
1.000000e+01	-1.492809e-05
1.005776e+01	-1.510103e-05
1.011585e+01	-1.527598e-05
1.017428e+01	-1.545296e-05
1.023305e+01	-1.563198e-05
1.029215e+01	-1.581308e-05
1.035160e+01	-1.599628e-05
1.041139e+01	-1.618161e-05
1.047153e+01	-1.636907e-05
1.053201e+01	-1.655871e-05
1.059284e+01	-1.675055e-05
1.065403e+01	-1.694461e-05
1.071556e+01	-1.714092e-05
1.077746e+01	-1.733950e-05
1.083971e+01	-1.754038e-05
1.090232e+01	-1.774359e-05
1.096529e+01	-1.794916e-05
1.102862e+01	-1.815710e-05
1.109232e+01	-1.836746e-05
1.115639e+01	-1.858025e-05
1.122083e+01	-1.879550e-05
1.128564e+01	-1.901325e-05
1.135083e+01	-1.923353e-05
1.141639e+01	-1.945635e-05
1.148233e+01	-1.968176e-05
1.154865e+01	-1.990978e-05
1.161536e+01	-2.014044e-05
1.168245e+01	-2.037377e-05
1.174992e+01	-2.060981e-05
1.181779e+01	-2.084858e-05
1.188605e+01	-2.109011e-05
1.195470e+01	-2.133445e-05
1.202375e+01	-2.158161e-05
1.209320e+01	-2.183164e-05
1.216305e+01	-2.208456e-05
1.223330e+01	-2.234042e-05
1.230396e+01	-2.259924e-05
1.237503e+01	-2.286106e-05
1.244651e+01	-2.312591e-05
1.251840e+01	-2.339383e-05
1.259070e+01	-2.366485e-05
1.266343e+01	-2.393901e-05
1.273657e+01	-2.421635e-05
1.281014e+01	-2.449691e-05
1.288413e+01	-2.478071e-05
1.295855e+01	-2.506780e-05
1.303339e+01	-2.535822e-05
1.310867e+01	-2.565200e-05
1.318439e+01	-2.594918e-05
1.326054e+01	-2.624981e-05
1.333713e+01	-2.655392e-05
1.341417e+01	-2.686155e-05
1.349165e+01	-2.717275e-05
1.356958e+01	-2.748755e-05
1.364795e+01	-2.780600e-05
1.372678e+01	-2.812814e-05
1.380607e+01	-2.845401e-05
1.388581e+01	-2.878366e-05
1.396602e+01	-2.911713e-05
1.404668e+01	-2.945445e-05
1.412782e+01	-2.979569e-05
1.420942e+01	-3.014088e-05
1.429149e+01	-3.049007e-05
1.437404e+01	-3.084331e-05
1.445706e+01	-3.120063e-05
1.454057e+01	-3.156210e-05
1.462455e+01	-3.192775e-05
1.470902e+01	-3.229765e-05
1.479398e+01	-3.267182e-05
1.487943e+01	-3.305033e-05
1.496537e+01	-3.343323e-05
1.505181e+01	-3.382056e-05
1.513875e+01	-3.421238e-05
1.522619e+01	-3.460874e-05
1.531414e+01	-3.500969e-05
1.540259e+01	-3.541528e-05
1.549156e+01	-3.582558e-05
1.558103e+01	-3.624062e-05
1.567103e+01	-3.666048e-05
1.576155e+01	-3.708520e-05
1.585258e+01	-3.751484e-05
1.594415e+01	-3.794946e-05
1.603624e+01	-3.838911e-05
1.612886e+01	-3.883386e-05
1.622202e+01	-3.928376e-05
1.631572e+01	-3.973887e-05
1.640996e+01	-4.019925e-05
1.650474e+01	-4.066497e-05
1.660008e+01	-4.113608e-05
1.669596e+01	-4.161265e-05
1.679239e+01	-4.209475e-05
1.688938e+01	-4.258242e-05
1.698694e+01	-4.307575e-05
1.708505e+01	-4.357479e-05
1.718373e+01	-4.407962e-05
1.728299e+01	-4.459029e-05
1.738281e+01	-4.510688e-05
1.748322e+01	-4.562945e-05
1.758420e+01	-4.615808e-05
1.768576e+01	-4.669283e-05
1.778792e+01	-4.723377e-05
1.789066e+01	-4.778099e-05
1.799399e+01	-4.833454e-05
1.809793e+01	-4.889451e-05
1.820246e+01	-4.946096e-05
1.830760e+01	-5.003398e-05
1.841334e+01	-5.061363e-05
1.851969e+01	-5.120000e-05
1.862666e+01	-5.179316e-05
1.873425e+01	-5.239320e-05
1.884246e+01	-5.300018e-05
1.895129e+01	-5.361420e-05
1.906075e+01	-5.423533e-05
1.917085e+01	-5.486366e-05
1.928158e+01	-5.549927e-05
1.939295e+01	-5.614224e-05
1.950496e+01	-5.679266e-05
1.961762e+01	-5.745061e-05
1.973093e+01	-5.811619e-05
1.984490e+01	-5.878948e-05
1.995952e+01	-5.947056e-05
2.007480e+01	-6.015954e-05
2.019076e+01	-6.085650e-05
2.030738e+01	-6.156154e-05
2.042467e+01	-6.227474e-05
2.054264e+01	-6.299620e-05
2.066130e+01	-6.372603e-05
2.078064e+01	-6.446431e-05
2.090066e+01	-6.521114e-05
2.102139e+01	-6.596662e-05
2.114280e+01	-6.673086e-05
2.126492e+01	-6.750395e-05
2.138775e+01	-6.828599e-05
2.151128e+01	-6.907710e-05
2.163553e+01	-6.987737e-05
2.176050e+01	-7.068691e-05
2.188619e+01	-7.150583e-05
2.201260e+01	-7.233424e-05
2.213974e+01	-7.317225e-05
2.226762e+01	-7.401996e-05
2.239624e+01	-7.487750e-05
2.252560e+01	-7.574496e-05
2.265571e+01	-7.662248e-05
2.278656e+01	-7.751017e-05
2.291818e+01	-7.840814e-05
2.305055e+01	-7.931651e-05
2.318369e+01	-8.023540e-05
2.331760e+01	-8.116495e-05
2.345228e+01	-8.210525e-05
2.358774e+01	-8.305646e-05
2.372398e+01	-8.401868e-05
2.386101e+01	-8.499205e-05
2.399883e+01	-8.597670e-05
2.413745e+01	-8.697275e-05
2.427686e+01	-8.798035e-05
2.441709e+01	-8.899961e-05
2.455812e+01	-9.003069e-05
2.469997e+01	-9.107371e-05
2.484263e+01	-9.212881e-05
2.498612e+01	-9.319614e-05
2.513044e+01	-9.427583e-05
2.527559e+01	-9.536803e-05
2.542158e+01	-9.647288e-05
2.556842e+01	-9.759053e-05
2.571610e+01	-9.872113e-05
2.586463e+01	-9.986483e-05
2.601403e+01	-1.010218e-04
2.616428e+01	-1.021921e-04
2.631541e+01	-1.033760e-04
2.646740e+01	-1.045737e-04
2.662028e+01	-1.057852e-04
2.677404e+01	-1.070107e-04
2.692868e+01	-1.082504e-04
2.708422e+01	-1.095045e-04
2.724066e+01	-1.107732e-04
2.739800e+01	-1.120565e-04
2.755625e+01	-1.133547e-04
2.771541e+01	-1.146679e-04
2.787550e+01	-1.159963e-04
2.803650e+01	-1.173402e-04
2.819844e+01	-1.186996e-04
2.836131e+01	-1.200747e-04
2.852513e+01	-1.214658e-04
2.868989e+01	-1.228730e-04
2.885560e+01	-1.242965e-04
2.902227e+01	-1.257365e-04
2.918990e+01	-1.271932e-04
2.935850e+01	-1.286667e-04
2.952807e+01	-1.301573e-04
2.969863e+01	-1.316652e-04
2.987016e+01	-1.331906e-04
3.004269e+01	-1.347336e-04
3.021622e+01	-1.362945e-04
3.039075e+01	-1.378735e-04
3.056628e+01	-1.394707e-04
3.074283e+01	-1.410865e-04
3.092040e+01	-1.427210e-04
3.109900e+01	-1.443745e-04
3.127862e+01	-1.460471e-04
3.145929e+01	-1.477390e-04
3.164099e+01	-1.494506e-04
3.182375e+01	-1.511820e-04
3.200756e+01	-1.529334e-04
3.219244e+01	-1.547052e-04
3.237838e+01	-1.564975e-04
3.256540e+01	-1.583105e-04
3.275349e+01	-1.601445e-04
3.294268e+01	-1.619998e-04
3.313295e+01	-1.638766e-04
3.332433e+01	-1.657751e-04
3.351681e+01	-1.676956e-04
3.371040e+01	-1.696384e-04
3.390511e+01	-1.716037e-04
3.410094e+01	-1.735917e-04
3.429791e+01	-1.756028e-04
3.449601e+01	-1.776371e-04
3.469526e+01	-1.796951e-04
3.489566e+01	-1.817768e-04
3.509721e+01	-1.838827e-04
3.529993e+01	-1.860130e-04
3.550382e+01	-1.881680e-04
3.570889e+01	-1.903479e-04
3.591515e+01	-1.925531e-04
3.612259e+01	-1.947838e-04
3.633123e+01	-1.970404e-04
3.654108e+01	-1.993231e-04
3.675214e+01	-2.016323e-04
3.696442e+01	-2.039682e-04
3.717792e+01	-2.063312e-04
3.739266e+01	-2.087215e-04
3.760864e+01	-2.111395e-04
3.782587e+01	-2.135856e-04
3.804435e+01	-2.160600e-04
3.826409e+01	-2.185630e-04
3.848510e+01	-2.210951e-04
3.870739e+01	-2.236565e-04
3.893096e+01	-2.262475e-04
3.915583e+01	-2.288686e-04
3.938199e+01	-2.315200e-04
3.960946e+01	-2.342022e-04
3.983824e+01	-2.369154e-04
4.006834e+01	-2.396601e-04
4.029978e+01	-2.424365e-04
4.053255e+01	-2.452451e-04
4.076666e+01	-2.480863e-04
4.100213e+01	-2.509603e-04
4.123896e+01	-2.538677e-04
4.147715e+01	-2.568087e-04
4.171672e+01	-2.597838e-04
4.195767e+01	-2.627934e-04
4.220002e+01	-2.658379e-04
4.244377e+01	-2.689176e-04
4.268892e+01	-2.720330e-04
4.293549e+01	-2.751844e-04
4.318348e+01	-2.783724e-04
4.343291e+01	-2.815973e-04
4.368377e+01	-2.848596e-04
4.393609e+01	-2.881597e-04
4.418986e+01	-2.914980e-04
4.444510e+01	-2.948750e-04
4.470182e+01	-2.982910e-04
4.496001e+01	-3.017467e-04
4.521970e+01	-3.052424e-04
4.548089e+01	-3.087786e-04
4.574358e+01	-3.123558e-04
4.600779e+01	-3.159744e-04
4.627353e+01	-3.196349e-04
4.654081e+01	-3.233378e-04
4.680963e+01	-3.270836e-04
4.708000e+01	-3.308728e-04
4.735193e+01	-3.347059e-04
4.762543e+01	-3.385834e-04
4.790051e+01	-3.425059e-04
4.817719e+01	-3.464737e-04
4.845545e+01	-3.504876e-04
4.873533e+01	-3.545479e-04
4.901682e+01	-3.586553e-04
4.929994e+01	-3.628102e-04
4.958470e+01	-3.670133e-04
4.987110e+01	-3.712651e-04
5.015915e+01	-3.755661e-04
5.044887e+01	-3.799169e-04
5.074026e+01	-3.843182e-04
5.103333e+01	-3.887704e-04
5.132810e+01	-3.932742e-04
5.162457e+01	-3.978302e-04
5.192275e+01	-4.024390e-04
5.222265e+01	-4.071011e-04
5.252429e+01	-4.118173e-04
5.282767e+01	-4.165881e-04
5.313280e+01	-4.214141e-04
5.343969e+01	-4.262961e-04
5.374836e+01	-4.312346e-04
5.405880e+01	-4.362303e-04
5.437105e+01	-4.412839e-04
5.468509e+01	-4.463960e-04
5.500095e+01	-4.515674e-04
5.531863e+01	-4.567986e-04
5.563815e+01	-4.620905e-04
5.595951e+01	-4.674437e-04
5.628273e+01	-4.728588e-04
5.660782e+01	-4.783367e-04
5.693479e+01	-4.838781e-04
5.726364e+01	-4.894836e-04
5.759439e+01	-4.951541e-04
5.792705e+01	-5.008903e-04
5.826164e+01	-5.066929e-04
5.859815e+01	-5.125627e-04
5.893662e+01	-5.185005e-04
5.927703e+01	-5.245071e-04
5.961941e+01	-5.305833e-04
5.996377e+01	-5.367299e-04
6.031012e+01	-5.429477e-04
6.065847e+01	-5.492375e-04
6.100883e+01	-5.556001e-04
6.136121e+01	-5.620365e-04
6.171563e+01	-5.685474e-04
6.207210e+01	-5.751338e-04
6.243063e+01	-5.817964e-04
6.279122e+01	-5.885362e-04
6.315390e+01	-5.953541e-04
6.351868e+01	-6.022510e-04
6.388556e+01	-6.092277e-04
6.425456e+01	-6.162853e-04
6.462569e+01	-6.234246e-04
6.499897e+01	-6.306466e-04
6.537440e+01	-6.379523e-04
6.575200e+01	-6.453426e-04
6.613178e+01	-6.528185e-04
6.651375e+01	-6.603810e-04
6.689793e+01	-6.680312e-04
6.728433e+01	-6.757699e-04
6.767297e+01	-6.835982e-04
6.806384e+01	-6.915173e-04
6.845698e+01	-6.995281e-04
6.885238e+01	-7.076316e-04
6.925007e+01	-7.158291e-04
6.965005e+01	-7.241214e-04
7.005235e+01	-7.325099e-04
7.045697e+01	-7.409955e-04
7.086393e+01	-7.495794e-04
7.127323e+01	-7.582627e-04
7.168490e+01	-7.670466e-04
7.209895e+01	-7.759323e-04
7.251539e+01	-7.849208e-04
7.293424e+01	-7.940135e-04
7.335551e+01	-8.032115e-04
7.377920e+01	-8.125161e-04
7.420535e+01	-8.219284e-04
7.463396e+01	-8.314498e-04
7.506504e+01	-8.410814e-04
7.549861e+01	-8.508246e-04
7.593469e+01	-8.606807e-04
7.637328e+01	-8.706509e-04
7.681441e+01	-8.807366e-04
7.725809e+01	-8.909391e-04
7.770433e+01	-9.012598e-04
7.815315e+01	-9.117001e-04
7.860456e+01	-9.222613e-04
7.905857e+01	-9.329448e-04
7.951521e+01	-9.437520e-04
7.997449e+01	-9.546844e-04
8.043642e+01	-9.657435e-04
8.090102e+01	-9.769306e-04
8.136830e+01	-9.882473e-04
8.183828e+01	-9.996951e-04
8.231097e+01	-1.011276e-03
8.278640e+01	-1.022990e-03
8.326457e+01	-1.034840e-03
8.374550e+01	-1.046828e-03
8.422921e+01	-1.058954e-03
8.471572e+01	-1.071221e-03
8.520503e+01	-1.083630e-03
8.569717e+01	-1.096182e-03
8.619215e+01	-1.108880e-03
8.669000e+01	-1.121725e-03
8.719071e+01	-1.134719e-03
8.769432e+01	-1.147863e-03
8.820084e+01	-1.161160e-03
8.871029e+01	-1.174610e-03
8.922267e+01	-1.188217e-03
8.973802e+01	-1.201981e-03
9.025634e+01	-1.215904e-03
9.077766e+01	-1.229988e-03
9.130199e+01	-1.244236e-03
9.182935e+01	-1.258649e-03
9.235975e+01	-1.273228e-03
9.289321e+01	-1.287977e-03
9.342976e+01	-1.302896e-03
9.396941e+01	-1.317988e-03
9.451217e+01	-1.333255e-03
9.505807e+01	-1.348699e-03
9.560712e+01	-1.364322e-03
9.615934e+01	-1.380125e-03
9.671476e+01	-1.396112e-03
9.727338e+01	-1.412283e-03
9.783522e+01	-1.428642e-03
9.840032e+01	-1.445191e-03
9.896867e+01	-1.461931e-03
9.954031e+01	-1.478865e-03
1.001153e+02	-1.495995e-03
1.006935e+02	-1.513324e-03
1.012751e+02	-1.530853e-03
1.018601e+02	-1.548585e-03
1.024484e+02	-1.566522e-03
1.030402e+02	-1.584668e-03
1.036353e+02	-1.603023e-03
1.042339e+02	-1.621591e-03
1.048360e+02	-1.640374e-03
1.054415e+02	-1.659375e-03
1.060505e+02	-1.678595e-03
1.066631e+02	-1.698038e-03
1.072791e+02	-1.717707e-03
1.078988e+02	-1.737603e-03
1.085220e+02	-1.757729e-03
1.091488e+02	-1.778089e-03
1.097793e+02	-1.798684e-03
1.104133e+02	-1.819518e-03
1.110511e+02	-1.840593e-03
1.116925e+02	-1.861913e-03
1.123376e+02	-1.883479e-03
1.129865e+02	-1.905294e-03
1.136391e+02	-1.927363e-03
1.142955e+02	-1.949687e-03
1.149556e+02	-1.972269e-03
1.156196e+02	-1.995113e-03
1.162874e+02	-2.018222e-03
1.169591e+02	-2.041598e-03
1.176347e+02	-2.065245e-03
1.183141e+02	-2.089166e-03
1.189975e+02	-2.113363e-03
1.196848e+02	-2.137841e-03
1.203761e+02	-2.162602e-03
1.210714e+02	-2.187650e-03
1.217707e+02	-2.212988e-03
1.224740e+02	-2.238620e-03
1.231814e+02	-2.264548e-03
1.238929e+02	-2.290777e-03
1.246085e+02	-2.317309e-03
1.253283e+02	-2.344148e-03
1.260522e+02	-2.371298e-03
1.267802e+02	-2.398763e-03
1.275125e+02	-2.426545e-03
1.282490e+02	-2.454650e-03
1.289898e+02	-2.483079e-03
1.297348e+02	-2.511838e-03
1.304842e+02	-2.540930e-03
1.312378e+02	-2.570358e-03
1.319959e+02	-2.600128e-03
1.327583e+02	-2.630242e-03
1.335251e+02	-2.660705e-03
1.342963e+02	-2.691520e-03
1.350720e+02	-2.722692e-03
1.358522e+02	-2.754225e-03
1.366368e+02	-2.786123e-03
1.374260e+02	-2.818391e-03
1.382198e+02	-2.851032e-03
1.390182e+02	-2.884051e-03
1.398211e+02	-2.917452e-03
1.406287e+02	-2.951240e-03
1.414410e+02	-2.985419e-03
1.422579e+02	-3.019994e-03
1.430796e+02	-3.054969e-03
1.439060e+02	-3.090349e-03
1.447372e+02	-3.126139e-03
1.455732e+02	-3.162343e-03
1.464141e+02	-3.198966e-03
1.472597e+02	-3.236013e-03
1.481103e+02	-3.273489e-03
1.489658e+02	-3.311398e-03
1.498262e+02	-3.349747e-03
1.506916e+02	-3.388540e-03
1.515620e+02	-3.427781e-03
1.524374e+02	-3.467477e-03
1.533179e+02	-3.507632e-03
1.542034e+02	-3.548253e-03
1.550941e+02	-3.589343e-03
1.559899e+02	-3.630909e-03
1.568909e+02	-3.672956e-03
1.577971e+02	-3.715490e-03
1.587085e+02	-3.758517e-03
1.596252e+02	-3.802041e-03
1.605472e+02	-3.846069e-03
1.614745e+02	-3.890607e-03
1.624072e+02	-3.935660e-03
1.633453e+02	-3.981235e-03
1.642887e+02	-4.027337e-03
1.652377e+02	-4.073973e-03
1.661921e+02	-4.121148e-03
1.671520e+02	-4.168870e-03
1.681175e+02	-4.217144e-03
1.690885e+02	-4.265976e-03
1.700651e+02	-4.315374e-03
1.710474e+02	-4.365344e-03
1.720354e+02	-4.415892e-03
1.730291e+02	-4.467025e-03
1.740285e+02	-4.518749e-03
1.750337e+02	-4.571073e-03
1.760446e+02	-4.624001e-03
1.770615e+02	-4.677543e-03
1.780842e+02	-4.731704e-03
1.791128e+02	-4.786491e-03
1.801473e+02	-4.841913e-03
1.811878e+02	-4.897976e-03
1.822344e+02	-4.954688e-03
1.832870e+02	-5.012056e-03
1.843456e+02	-5.070088e-03
1.854104e+02	-5.128792e-03
1.864813e+02	-5.188175e-03
1.875584e+02	-5.248245e-03
1.886418e+02	-5.309010e-03
1.897313e+02	-5.370478e-03
1.908272e+02	-5.432657e-03
1.919294e+02	-5.495556e-03
1.930380e+02	-5.559183e-03
1.941530e+02	-5.623545e-03
1.952744e+02	-5.688653e-03
1.964023e+02	-5.754514e-03
1.975367e+02	-5.821136e-03
1.986777e+02	-5.888530e-03
1.998252e+02	-5.956703e-03
2.009794e+02	-6.025665e-03
2.021403e+02	-6.095425e-03
2.033078e+02	-6.165992e-03
2.044821e+02	-6.237375e-03
2.056632e+02	-6.309584e-03
2.068511e+02	-6.382628e-03
2.080459e+02	-6.456517e-03
2.092475e+02	-6.531261e-03
2.104561e+02	-6.606870e-03
2.116717e+02	-6.683353e-03
2.128943e+02	-6.760721e-03
2.141240e+02	-6.838984e-03
2.153608e+02	-6.918152e-03
2.166047e+02	-6.998236e-03
2.178558e+02	-7.079246e-03
2.191141e+02	-7.161193e-03
2.203797e+02	-7.244088e-03
2.216526e+02	-7.327941e-03
2.229329e+02	-7.412765e-03
2.242205e+02	-7.498569e-03
2.255156e+02	-7.585366e-03
2.268182e+02	-7.673167e-03
2.281283e+02	-7.761983e-03
2.294459e+02	-7.851826e-03
2.307712e+02	-7.942708e-03
2.321041e+02	-8.034641e-03
2.334447e+02	-8.127637e-03
2.347931e+02	-8.221708e-03
2.361493e+02	-8.316867e-03
2.375133e+02	-8.413126e-03
2.388851e+02	-8.510499e-03
2.402649e+02	-8.608997e-03
2.416527e+02	-8.708634e-03
2.430484e+02	-8.809423e-03
2.444523e+02	-8.911378e-03
2.458642e+02	-9.014511e-03
2.472843e+02	-9.118836e-03
2.487126e+02	-9.224368e-03
2.501492e+02	-9.331119e-03
2.515940e+02	-9.439105e-03
2.530472e+02	-9.548339e-03
2.545088e+02	-9.658835e-03
2.559789e+02	-9.770609e-03
2.574574e+02	-9.883675e-03
2.589444e+02	-9.998048e-03
2.604401e+02	-1.011374e-02
2.619444e+02	-1.023077e-02
2.634574e+02	-1.034916e-02
2.649791e+02	-1.046891e-02
2.665096e+02	-1.059005e-02
2.680489e+02	-1.071258e-02
2.695972e+02	-1.083654e-02
2.711544e+02	-1.096192e-02
2.727205e+02	-1.108876e-02
2.742958e+02	-1.121706e-02
2.758801e+02	-1.134684e-02
2.774736e+02	-1.147812e-02
2.790762e+02	-1.161092e-02
2.806882e+02	-1.174525e-02
2.823094e+02	-1.188114e-02
2.839400e+02	-1.201859e-02
2.855800e+02	-1.215763e-02
2.872295e+02	-1.229828e-02
2.888886e+02	-1.244056e-02
2.905572e+02	-1.258447e-02
2.922354e+02	-1.273005e-02
2.939234e+02	-1.287732e-02
2.956211e+02	-1.302628e-02
2.973286e+02	-1.317696e-02
2.990459e+02	-1.332939e-02
3.007732e+02	-1.348357e-02
3.025104e+02	-1.363953e-02
3.042577e+02	-1.379730e-02
3.060151e+02	-1.395689e-02
3.077826e+02	-1.411832e-02
3.095604e+02	-1.428161e-02
3.113484e+02	-1.444679e-02
3.131467e+02	-1.461388e-02
3.149554e+02	-1.478289e-02
3.167746e+02	-1.495386e-02
3.186043e+02	-1.512680e-02
3.204445e+02	-1.530174e-02
3.222954e+02	-1.547870e-02
3.241570e+02	-1.565770e-02
3.260293e+02	-1.583877e-02
3.279124e+02	-1.602192e-02
3.298064e+02	-1.620719e-02
3.317114e+02	-1.639460e-02
3.336273e+02	-1.658417e-02
3.355544e+02	-1.677593e-02
3.374925e+02	-1.696991e-02
3.394418e+02	-1.716612e-02
3.414024e+02	-1.736459e-02
3.433744e+02	-1.756536e-02
3.453577e+02	-1.776844e-02
3.473525e+02	-1.797386e-02
3.493588e+02	-1.818166e-02
3.513766e+02	-1.839185e-02
3.534062e+02	-1.860447e-02
3.554474e+02	-1.881953e-02
3.575005e+02	-1.903708e-02
3.595654e+02	-1.925714e-02
3.616422e+02	-1.947974e-02
3.637311e+02	-1.970490e-02
3.658320e+02	-1.993266e-02
3.679450e+02	-2.016305e-02
3.700702e+02	-2.039610e-02
3.722077e+02	-2.063183e-02
3.743576e+02	-2.087028e-02
3.765199e+02	-2.111147e-02
3.786946e+02	-2.135545e-02
3.808820e+02	-2.160224e-02
3.830819e+02	-2.185188e-02
3.852946e+02	-2.210439e-02
3.875200e+02	-2.235982e-02
3.897583e+02	-2.261818e-02
3.920096e+02	-2.287953e-02
3.942738e+02	-2.314388e-02
3.965511e+02	-2.341129e-02
3.988416e+02	-2.368177e-02
4.011452e+02	-2.395537e-02
4.034622e+02	-2.423212e-02
4.057926e+02	-2.451206e-02
4.081365e+02	-2.479523e-02
4.104938e+02	-2.508166e-02
4.128648e+02	-2.537138e-02
4.152495e+02	-2.566444e-02
4.176480e+02	-2.596088e-02
4.200603e+02	-2.626073e-02
4.224866e+02	-2.656404e-02
4.249268e+02	-2.687083e-02
4.273812e+02	-2.718116e-02
4.298497e+02	-2.749506e-02
4.323325e+02	-2.781258e-02
4.348297e+02	-2.813375e-02
4.373412e+02	-2.845861e-02
4.398673e+02	-2.878722e-02
4.424079e+02	-2.911960e-02
4.449633e+02	-2.945581e-02
4.475334e+02	-2.979589e-02
4.501183e+02	-3.013988e-02
4.527182e+02	-3.048783e-02
4.553330e+02	-3.083978e-02
4.579630e+02	-3.119578e-02
4.606082e+02	-3.155588e-02
4.632687e+02	-3.192011e-02
4.659445e+02	-3.228854e-02
4.686358e+02	-3.266120e-02
4.713426e+02	-3.303814e-02
4.740650e+02	-3.341942e-02
4.768032e+02	-3.380508e-02
4.795572e+02	-3.419518e-02
4.823271e+02	-3.458976e-02
4.851130e+02	-3.498887e-02
4.879150e+02	-3.539257e-02
4.907332e+02	-3.580091e-02
4.935676e+02	-3.621394e-02
4.964185e+02	-3.663171e-02
4.992858e+02	-3.705428e-02
5.021696e+02	-3.748171e-02
5.050701e+02	-3.791404e-02
5.079874e+02	-3.835134e-02
5.109215e+02	-3.879366e-02
5.138726e+02	-3.924106e-02
5.168407e+02	-3.969360e-02
5.198259e+02	-4.015133e-02
5.228284e+02	-4.061431e-02
5.258482e+02	-4.108261e-02
5.288855e+02	-4.155628e-02
5.319403e+02	-4.203538e-02
5.350128e+02	-4.251999e-02
5.381030e+02	-4.301015e-02
5.412111e+02	-4.350593e-02
5.443371e+02	-4.400740e-02
5.474812e+02	-4.451462e-02
5.506434e+02	-4.502765e-02
5.538239e+02	-4.554657e-02
5.570228e+02	-4.607143e-02
5.602401e+02	-4.660231e-02
5.634760e+02	-4.713928e-02
5.667306e+02	-4.768239e-02
5.700040e+02	-4.823173e-02
5.732964e+02	-4.878737e-02
5.766077e+02	-4.934936e-02
5.799382e+02	-4.991780e-02
5.832879e+02	-5.049274e-02
5.866569e+02	-5.107427e-02
5.900454e+02	-5.166245e-02
5.934535e+02	-5.225737e-02
5.968813e+02	-5.285909e-02
6.003288e+02	-5.346770e-02
6.037963e+02	-5.408328e-02
6.072838e+02	-5.470590e-02
6.107914e+02	-5.533563e-02
6.143194e+02	-5.597258e-02
6.178676e+02	-5.661680e-02
6.214364e+02	-5.726839e-02
6.250258e+02	-5.792743e-02
6.286359e+02	-5.859400e-02
6.322669e+02	-5.926819e-02
6.359189e+02	-5.995009e-02
6.395919e+02	-6.063977e-02
6.432862e+02	-6.133733e-02
6.470017e+02	-6.204286e-02
6.507388e+02	-6.275645e-02
6.544974e+02	-6.347818e-02
6.582778e+02	-6.420815e-02
6.620800e+02	-6.494645e-02
6.659041e+02	-6.569318e-02
6.697504e+02	-6.644843e-02
6.736188e+02	-6.721229e-02
6.775096e+02	-6.798486e-02
6.814229e+02	-6.876625e-02
6.853587e+02	-6.955654e-02
6.893173e+02	-7.035584e-02
6.932988e+02	-7.116425e-02
6.973033e+02	-7.198188e-02
7.013309e+02	-7.280882e-02
