Frequency(Hz)	Magnitude(dB)
1.000000e+01	-2.220426e+00
1.005776e+01	-2.240397e+00
1.011585e+01	-2.260653e+00
1.017428e+01	-2.281108e+00
1.023305e+01	-2.301889e+00
1.029215e+01	-2.322277e+00
1.035160e+01	-2.343062e+00
1.041139e+01	-2.364179e+00
1.047153e+01	-2.385288e+00
1.053201e+01	-2.406331e+00
1.059284e+01	-2.427636e+00
1.065403e+01	-2.449139e+00
1.071556e+01	-2.470760e+00
1.077746e+01	-2.492564e+00
1.083971e+01	-2.514425e+00
1.090232e+01	-2.536715e+00
1.096529e+01	-2.558893e+00
1.102862e+01	-2.580920e+00
1.109232e+01	-2.603537e+00
1.115639e+01	-2.626184e+00
1.122083e+01	-2.648965e+00
1.128564e+01	-2.671806e+00
1.135083e+01	-2.694785e+00
1.141639e+01	-2.718196e+00
1.148233e+01	-2.741324e+00
1.154865e+01	-2.764792e+00
1.161536e+01	-2.788509e+00
1.168245e+01	-2.812240e+00
1.174992e+01	-2.836392e+00
1.181779e+01	-2.860354e+00
1.188605e+01	-2.884494e+00
1.195470e+01	-2.908839e+00
1.202375e+01	-2.933384e+00
1.209320e+01	-2.958034e+00
1.216305e+01	-2.982623e+00
1.223330e+01	-3.007754e+00
1.230396e+01	-3.032661e+00
1.237503e+01	-3.058345e+00
1.244651e+01	-3.083504e+00
1.251840e+01	-3.108912e+00
1.259070e+01	-3.134528e+00
1.266343e+01	-3.160458e+00
1.273657e+01	-3.186079e+00
1.281014e+01	-3.212341e+00
1.288413e+01	-3.238571e+00
1.295855e+01	-3.264995e+00
1.303339e+01	-3.291279e+00
1.310867e+01	-3.318191e+00
1.318439e+01	-3.344733e+00
1.326054e+01	-3.372010e+00
1.333713e+01	-3.398854e+00
1.341417e+01	-3.426131e+00
1.349165e+01	-3.453243e+00
1.356958e+01	-3.480928e+00
1.364795e+01	-3.508657e+00
1.372678e+01	-3.536501e+00
1.380607e+01	-3.564404e+00
1.388581e+01	-3.592585e+00
1.396602e+01	-3.620648e+00
1.404668e+01	-3.648763e+00
1.412782e+01	-3.677792e+00
1.420942e+01	-3.706291e+00
1.429149e+01	-3.735126e+00
1.437404e+01	-3.763806e+00
1.445706e+01	-3.793039e+00
1.454057e+01	-3.822231e+00
1.462455e+01	-3.851737e+00
1.470902e+01	-3.880984e+00
1.479398e+01	-3.910606e+00
1.487943e+01	-3.940338e+00
1.496537e+01	-3.970390e+00
1.505181e+01	-4.000398e+00
1.513875e+01	-4.030662e+00
1.522619e+01	-4.060875e+00
1.531414e+01	-4.091170e+00
1.540259e+01	-4.121945e+00
1.549156e+01	-4.152323e+00
1.558103e+01	-4.183480e+00
1.567103e+01	-4.214685e+00
1.576155e+01	-4.245657e+00
1.585258e+01	-4.276787e+00
1.594415e+01	-4.308430e+00
1.603624e+01	-4.339653e+00
1.612886e+01	-4.371260e+00
1.622202e+01	-4.403333e+00
1.631572e+01	-4.435452e+00
1.640996e+01	-4.467238e+00
1.650474e+01	-4.499654e+00
1.660008e+01	-4.531768e+00
1.669596e+01	-4.564186e+00
1.679239e+01	-4.596973e+00
1.688938e+01	-4.629672e+00
1.698694e+01	-4.662897e+00
1.708505e+01	-4.695587e+00
1.718373e+01	-4.728761e+00
1.728299e+01	-4.762037e+00
1.738281e+01	-4.795516e+00
1.748322e+01	-4.828614e+00
1.758420e+01	-4.862516e+00
1.768576e+01	-4.896195e+00
1.778792e+01	-4.930143e+00
1.789066e+01	-4.964126e+00
1.799399e+01	-4.998406e+00
1.809793e+01	-5.032716e+00
1.820246e+01	-5.066813e+00
1.830760e+01	-5.101597e+00
1.841334e+01	-5.135933e+00
1.851969e+01	-5.170633e+00
1.862666e+01	-5.205727e+00
1.873425e+01	-5.240701e+00
1.884246e+01	-5.276059e+00
1.895129e+01	-5.310749e+00
1.906075e+01	-5.346418e+00
1.917085e+01	-5.381854e+00
1.928158e+01	-5.417583e+00
1.939295e+01	-5.453014e+00
1.950496e+01	-5.488742e+00
1.961762e+01	-5.525101e+00
1.973093e+01	-5.561036e+00
1.984490e+01	-5.597520e+00
1.995952e+01	-5.633871e+00
2.007480e+01	-5.670202e+00
2.019076e+01	-5.706575e+00
2.030738e+01	-5.743214e+00
2.042467e+01	-5.780015e+00
2.054264e+01	-5.817020e+00
2.066130e+01	-5.853734e+00
2.078064e+01	-5.890797e+00
2.090066e+01	-5.927929e+00
2.102139e+01	-5.965336e+00
2.114280e+01	-6.002692e+00
2.126492e+01	-6.040349e+00
2.138775e+01	-6.077635e+00
2.151128e+01	-6.115454e+00
2.163553e+01	-6.153190e+00
2.176050e+01	-6.190977e+00
2.188619e+01	-6.229066e+00
2.201260e+01	-6.267381e+00
2.213974e+01	-6.305839e+00
2.226762e+01	-6.344252e+00
2.239624e+01	-6.382551e+00
2.252560e+01	-6.421061e+00
2.265571e+01	-6.459976e+00
2.278656e+01	-6.498558e+00
2.291818e+01	-6.537382e+00
2.305055e+01	-6.576537e+00
2.318369e+01	-6.615621e+00
2.331760e+01	-6.655064e+00
2.345228e+01	-6.694022e+00
2.358774e+01	-6.733366e+00
2.372398e+01	-6.773085e+00
2.386101e+01	-6.812480e+00
2.399883e+01	-6.852005e+00
2.413745e+01	-6.891635e+00
2.427686e+01	-6.931495e+00
2.441709e+01	-6.971254e+00
2.455812e+01	-7.011516e+00
2.469997e+01	-7.051673e+00
2.484263e+01	-7.091799e+00
2.498612e+01	-7.132246e+00
2.513044e+01	-7.172579e+00
2.527559e+01	-7.213071e+00
2.542158e+01	-7.253996e+00
2.556842e+01	-7.294588e+00
2.571610e+01	-7.335119e+00
2.586463e+01	-7.376028e+00
2.601403e+01	-7.416323e+00
2.616428e+01	-7.457890e+00
2.631541e+01	-7.499134e+00
2.646740e+01	-7.539962e+00
2.662028e+01	-7.581075e+00
2.677404e+01	-7.622850e+00
2.692868e+01	-7.664389e+00
2.708422e+01	-7.705638e+00
2.724066e+01	-7.747052e+00
2.739800e+01	-7.788468e+00
2.755625e+01	-7.830234e+00
2.771541e+01	-7.872610e+00
2.787550e+01	-7.914141e+00
2.803650e+01	-7.956103e+00
2.819844e+01	-7.998475e+00
2.836131e+01	-8.040169e+00
2.852513e+01	-8.082545e+00
2.868989e+01	-8.125162e+00
2.885560e+01	-8.167451e+00
2.902227e+01	-8.209915e+00
2.918990e+01	-8.252234e+00
2.935850e+01	-8.294133e+00
2.952807e+01	-8.337542e+00
2.969863e+01	-8.380245e+00
2.987016e+01	-8.423007e+00
3.004269e+01	-8.466207e+00
3.021622e+01	-8.509053e+00
3.039075e+01	-8.552013e+00
3.056628e+01	-8.594937e+00
3.074283e+01	-8.638240e+00
3.092040e+01	-8.681266e+00
3.109900e+01	-8.723998e+00
3.127862e+01	-8.767759e+00
3.145929e+01	-8.811448e+00
3.164099e+01	-8.855016e+00
3.182375e+01	-8.898225e+00
3.200756e+01	-8.941688e+00
3.219244e+01	-8.985904e+00
3.237838e+01	-9.028934e+00
3.256540e+01	-9.073405e+00
3.275349e+01	-9.117160e+00
3.294268e+01	-9.161071e+00
3.313295e+01	-9.204804e+00
3.332433e+01	-9.248977e+00
3.351681e+01	-9.292972e+00
3.371040e+01	-9.337185e+00
3.390511e+01	-9.381896e+00
3.410094e+01	-9.425674e+00
3.429791e+01	-9.469793e+00
3.449601e+01	-9.514579e+00
3.469526e+01	-9.559067e+00
3.489566e+01	-9.603586e+00
3.509721e+01	-9.647766e+00
3.529993e+01	-9.693168e+00
3.550382e+01	-9.737698e+00
3.570889e+01	-9.782270e+00
3.591515e+01	-9.826664e+00
3.612259e+01	-9.871920e+00
3.633123e+01	-9.916556e+00
3.654108e+01	-9.961795e+00
3.675214e+01	-1.000615e+01
3.696442e+01	-1.005148e+01
3.717792e+01	-1.009674e+01
3.739266e+01	-1.014193e+01
3.760864e+01	-1.018709e+01
3.782587e+01	-1.023281e+01
3.804435e+01	-1.027768e+01
3.826409e+01	-1.032318e+01
3.848510e+01	-1.036872e+01
3.870739e+01	-1.041390e+01
3.893096e+01	-1.045912e+01
3.915583e+01	-1.050514e+01
3.938199e+01	-1.055066e+01
3.960946e+01	-1.059599e+01
3.983824e+01	-1.064113e+01
4.006834e+01	-1.068726e+01
4.029978e+01	-1.073400e+01
4.053255e+01	-1.077952e+01
4.076666e+01	-1.082526e+01
4.100213e+01	-1.087096e+01
4.123896e+01	-1.091733e+01
4.147715e+01	-1.096297e+01
4.171672e+01	-1.100920e+01
4.195767e+01	-1.105544e+01
4.220002e+01	-1.110087e+01
4.244377e+01	-1.114767e+01
4.268892e+01	-1.119347e+01
4.293549e+01	-1.124015e+01
4.318348e+01	-1.128630e+01
4.343291e+01	-1.133261e+01
4.368377e+01	-1.137933e+01
4.393609e+01	-1.142539e+01
4.418986e+01	-1.147172e+01
4.444510e+01	-1.151776e+01
4.470182e+01	-1.156504e+01
4.496001e+01	-1.161137e+01
4.521970e+01	-1.165743e+01
4.548089e+01	-1.170408e+01
4.574358e+01	-1.175155e+01
4.600779e+01	-1.179749e+01
4.627353e+01	-1.184454e+01
4.654081e+01	-1.189101e+01
4.680963e+01	-1.193838e+01
4.708000e+01	-1.198434e+01
4.735193e+01	-1.203159e+01
4.762543e+01	-1.207888e+01
4.790051e+01	-1.212602e+01
4.817719e+01	-1.217239e+01
4.845545e+01	-1.221970e+01
4.873533e+01	-1.226711e+01
4.901682e+01	-1.231385e+01
4.929994e+01	-1.236124e+01
4.958470e+01	-1.240827e+01
4.987110e+01	-1.245523e+01
5.015915e+01	-1.250257e+01
5.044887e+01	-1.255016e+01
5.074026e+01	-1.259661e+01
5.103333e+01	-1.264394e+01
5.132810e+01	-1.269124e+01
5.162457e+01	-1.273849e+01
5.192275e+01	-1.278625e+01
5.222265e+01	-1.283380e+01
5.252429e+01	-1.288093e+01
5.282767e+01	-1.292791e+01
5.313280e+01	-1.297569e+01
5.343969e+01	-1.302326e+01
5.374836e+01	-1.307120e+01
5.405880e+01	-1.311866e+01
5.437105e+01	-1.316572e+01
5.468509e+01	-1.321352e+01
5.500095e+01	-1.326116e+01
5.531863e+01	-1.330976e+01
5.563815e+01	-1.335649e+01
5.595951e+01	-1.340494e+01
5.628273e+01	-1.345219e+01
5.660782e+01	-1.350065e+01
5.693479e+01	-1.354753e+01
5.726364e+01	-1.359608e+01
5.759439e+01	-1.364306e+01
5.792705e+01	-1.369186e+01
5.826164e+01	-1.373894e+01
5.859815e+01	-1.378839e+01
5.893662e+01	-1.383457e+01
5.927703e+01	-1.388291e+01
5.961941e+01	-1.393100e+01
5.996377e+01	-1.397923e+01
6.031012e+01	-1.402738e+01
6.065847e+01	-1.407519e+01
6.100883e+01	-1.412382e+01
6.136121e+01	-1.417116e+01
6.171563e+01	-1.422014e+01
6.207210e+01	-1.426781e+01
6.243063e+01	-1.431669e+01
6.279122e+01	-1.436435e+01
6.315390e+01	-1.441280e+01
6.351868e+01	-1.446085e+01
6.388556e+01	-1.450922e+01
6.425456e+01	-1.455670e+01
6.462569e+01	-1.460594e+01
6.499897e+01	-1.465295e+01
6.537440e+01	-1.470269e+01
6.575200e+01	-1.474956e+01
6.613178e+01	-1.479890e+01
6.651375e+01	-1.484658e+01
6.689793e+01	-1.489510e+01
6.728433e+01	-1.494410e+01
6.767297e+01	-1.499238e+01
6.806384e+01	-1.504089e+01
6.845698e+01	-1.508861e+01
6.885238e+01	-1.513859e+01
6.925007e+01	-1.518588e+01
6.965005e+01	-1.523435e+01
7.005235e+01	-1.528323e+01
7.045697e+01	-1.533248e+01
7.086393e+01	-1.538026e+01
7.127323e+01	-1.542909e+01
7.168490e+01	-1.547755e+01
7.209895e+01	-1.552657e+01
7.251539e+01	-1.557463e+01
7.293424e+01	-1.562438e+01
7.335551e+01	-1.567148e+01
7.377920e+01	-1.572085e+01
7.420535e+01	-1.576933e+01
7.463396e+01	-1.581821e+01
7.506504e+01	-1.586659e+01
7.549861e+01	-1.591608e+01
7.593469e+01	-1.596362e+01
7.637328e+01	-1.601283e+01
7.681441e+01	-1.606200e+01
7.725809e+01	-1.611081e+01
7.770433e+01	-1.615893e+01
7.815315e+01	-1.620837e+01
7.860456e+01	-1.625766e+01
7.905857e+01	-1.630694e+01
7.951521e+01	-1.635450e+01
7.997449e+01	-1.640392e+01
8.043642e+01	-1.645256e+01
8.090102e+01	-1.650180e+01
8.136830e+01	-1.655105e+01
8.183828e+01	-1.659895e+01
8.231097e+01	-1.664997e+01
8.278640e+01	-1.669725e+01
8.326457e+01	-1.674603e+01
8.374550e+01	-1.679652e+01
8.422921e+01	-1.684475e+01
8.471572e+01	-1.689311e+01
8.520503e+01	-1.694191e+01
8.569717e+01	-1.699119e+01
8.619215e+01	-1.704082e+01
8.669000e+01	-1.708928e+01
8.719071e+01	-1.713818e+01
8.769432e+01	-1.718755e+01
8.820084e+01	-1.723637e+01
8.871029e+01	-1.728443e+01
8.922267e+01	-1.733468e+01
8.973802e+01	-1.738390e+01
9.025634e+01	-1.743310e+01
9.077766e+01	-1.748317e+01
9.130199e+01	-1.753071e+01
9.182935e+01	-1.758034e+01
9.235975e+01	-1.763006e+01
9.289321e+01	-1.767934e+01
9.342976e+01	-1.772794e+01
9.396941e+01	-1.777700e+01
9.451217e+01	-1.782763e+01
9.505807e+01	-1.787641e+01
9.560712e+01	-1.792457e+01
9.615934e+01	-1.797378e+01
9.671476e+01	-1.802333e+01
9.727338e+01	-1.807284e+01
9.783522e+01	-1.812266e+01
9.840032e+01	-1.817109e+01
9.896867e+01	-1.822074e+01
9.954031e+01	-1.827043e+01
1.001153e+02	-1.831996e+01
1.006935e+02	-1.836938e+01
1.012751e+02	-1.841751e+01
1.018601e+02	-1.846542e+01
1.024484e+02	-1.851474e+01
1.030402e+02	-1.856519e+01
1.036353e+02	-1.861465e+01
1.042339e+02	-1.866474e+01
1.048360e+02	-1.871413e+01
1.054415e+02	-1.876355e+01
1.060505e+02	-1.881236e+01
1.066631e+02	-1.886144e+01
1.072791e+02	-1.891156e+01
1.078988e+02	-1.896020e+01
1.085220e+02	-1.901073e+01
1.091488e+02	-1.905929e+01
1.097793e+02	-1.910963e+01
1.104133e+02	-1.915889e+01
1.110511e+02	-1.920691e+01
1.116925e+02	-1.925743e+01
1.123376e+02	-1.930713e+01
1.129865e+02	-1.935741e+01
1.136391e+02	-1.940538e+01
1.142955e+02	-1.945532e+01
1.149556e+02	-1.950428e+01
1.156196e+02	-1.955438e+01
1.162874e+02	-1.960471e+01
1.169591e+02	-1.965382e+01
1.176347e+02	-1.970264e+01
1.183141e+02	-1.975124e+01
1.189975e+02	-1.980217e+01
1.196848e+02	-1.984967e+01
1.203761e+02	-1.989934e+01
1.210714e+02	-1.995043e+01
1.217707e+02	-2.000059e+01
1.224740e+02	-2.005043e+01
1.231814e+02	-2.009854e+01
1.238929e+02	-2.014804e+01
1.246085e+02	-2.019798e+01
1.253283e+02	-2.024766e+01
1.260522e+02	-2.029671e+01
1.267802e+02	-2.034706e+01
1.275125e+02	-2.039684e+01
1.282490e+02	-2.044374e+01
1.289898e+02	-2.049428e+01
1.297348e+02	-2.054467e+01
1.304842e+02	-2.059416e+01
1.312378e+02	-2.064244e+01
1.319959e+02	-2.069159e+01
1.327583e+02	-2.074229e+01
1.335251e+02	-2.079382e+01
1.342963e+02	-2.084049e+01
1.350720e+02	-2.089072e+01
1.358522e+02	-2.094333e+01
1.366368e+02	-2.099166e+01
1.374260e+02	-2.104007e+01
1.382198e+02	-2.108989e+01
1.390182e+02	-2.114147e+01
1.398211e+02	-2.118859e+01
1.406287e+02	-2.123993e+01
1.414410e+02	-2.128980e+01
1.422579e+02	-2.133931e+01
1.430796e+02	-2.138789e+01
1.439060e+02	-2.143848e+01
1.447372e+02	-2.148678e+01
1.455732e+02	-2.153865e+01
1.464141e+02	-2.158640e+01
1.472597e+02	-2.163646e+01
1.481103e+02	-2.168885e+01
1.489658e+02	-2.173647e+01
1.498262e+02	-2.178655e+01
1.506916e+02	-2.183565e+01
1.515620e+02	-2.188678e+01
1.524374e+02	-2.193362e+01
1.533179e+02	-2.198635e+01
1.542034e+02	-2.203435e+01
1.550941e+02	-2.208385e+01
1.559899e+02	-2.213407e+01
1.568909e+02	-2.218357e+01
1.577971e+02	-2.223363e+01
1.587085e+02	-2.228134e+01
1.596252e+02	-2.233214e+01
1.605472e+02	-2.238243e+01
1.614745e+02	-2.243205e+01
1.624072e+02	-2.248357e+01
1.633453e+02	-2.253311e+01
1.642887e+02	-2.258040e+01
1.652377e+02	-2.263154e+01
1.661921e+02	-2.268189e+01
1.671520e+02	-2.273068e+01
1.681175e+02	-2.278272e+01
1.690885e+02	-2.282948e+01
1.700651e+02	-2.288002e+01
1.710474e+02	-2.293104e+01
1.720354e+02	-2.298048e+01
1.730291e+02	-2.303159e+01
1.740285e+02	-2.308089e+01
1.750337e+02	-2.312907e+01
1.760446e+02	-2.317906e+01
1.770615e+02	-2.323146e+01
1.780842e+02	-2.327828e+01
1.791128e+02	-2.332928e+01
1.801473e+02	-2.338062e+01
1.811878e+02	-2.342659e+01
1.822344e+02	-2.347772e+01
1.832870e+02	-2.352896e+01
1.843456e+02	-2.357762e+01
1.854104e+02	-2.362618e+01
1.864813e+02	-2.367775e+01
1.875584e+02	-2.372932e+01
1.886418e+02	-2.377798e+01
1.897313e+02	-2.382739e+01
1.908272e+02	-2.387673e+01
1.919294e+02	-2.392696e+01
1.930380e+02	-2.397651e+01
1.941530e+02	-2.402685e+01
1.952744e+02	-2.407671e+01
1.964023e+02	-2.412738e+01
1.975367e+02	-2.417699e+01
1.986777e+02	-2.422523e+01
1.998252e+02	-2.427497e+01
2.009794e+02	-2.432623e+01
2.021403e+02	-2.437510e+01
2.033078e+02	-2.442711e+01
2.044821e+02	-2.447561e+01
2.056632e+02	-2.452632e+01
2.068511e+02	-2.457632e+01
2.080459e+02	-2.462312e+01
2.092475e+02	-2.467540e+01
2.104561e+02	-2.472263e+01
2.116717e+02	-2.477696e+01
2.128943e+02	-2.482369e+01
2.141240e+02	-2.487286e+01
2.153608e+02	-2.492277e+01
2.166047e+02	-2.497356e+01
2.178558e+02	-2.502347e+01
2.191141e+02	-2.507547e+01
2.203797e+02	-2.512315e+01
2.216526e+02	-2.517692e+01
2.229329e+02	-2.522476e+01
2.242205e+02	-2.527455e+01
2.255156e+02	-2.532161e+01
2.268182e+02	-2.537490e+01
2.281283e+02	-2.542210e+01
2.294459e+02	-2.547579e+01
2.307712e+02	-2.552417e+01
2.321041e+02	-2.557087e+01
2.334447e+02	-2.562229e+01
2.347931e+02	-2.567217e+01
2.361493e+02	-2.572204e+01
2.375133e+02	-2.577227e+01
2.388851e+02	-2.582209e+01
2.402649e+02	-2.587485e+01
2.416527e+02	-2.592008e+01
2.430484e+02	-2.597071e+01
2.444523e+02	-2.602163e+01
2.458642e+02	-2.607459e+01
2.472843e+02	-2.612259e+01
2.487126e+02	-2.617175e+01
2.501492e+02	-2.622193e+01
2.515940e+02	-2.627165e+01
2.530472e+02	-2.632376e+01
2.545088e+02	-2.637548e+01
2.559789e+02	-2.642194e+01
2.574574e+02	-2.647221e+01
2.589444e+02	-2.652397e+01
2.604401e+02	-2.657030e+01
2.619444e+02	-2.661937e+01
2.634574e+02	-2.667296e+01
2.649791e+02	-2.672221e+01
2.665096e+02	-2.677127e+01
2.680489e+02	-2.682513e+01
2.695972e+02	-2.687363e+01
2.711544e+02	-2.692394e+01
2.727205e+02	-2.697257e+01
2.742958e+02	-2.702562e+01
2.758801e+02	-2.707249e+01
2.774736e+02	-2.712162e+01
2.790762e+02	-2.717051e+01
2.806882e+02	-2.721920e+01
2.823094e+02	-2.727192e+01
2.839400e+02	-2.732113e+01
2.855800e+02	-2.737447e+01
2.872295e+02	-2.742492e+01
2.888886e+02	-2.746731e+01
2.905572e+02	-2.752100e+01
2.922354e+02	-2.756989e+01
2.939234e+02	-2.762050e+01
2.956211e+02	-2.767300e+01
2.973286e+02	-2.772339e+01
2.990459e+02	-2.777469e+01
3.007732e+02	-2.782116e+01
3.025104e+02	-2.786772e+01
3.042577e+02	-2.792060e+01
3.060151e+02	-2.797187e+01
3.077826e+02	-2.802081e+01
3.095604e+02	-2.807166e+01
3.113484e+02	-2.811635e+01
3.131467e+02	-2.817484e+01
3.149554e+02	-2.822504e+01
3.167746e+02	-2.827405e+01
3.186043e+02	-2.831725e+01
3.204445e+02	-2.837385e+01
3.222954e+02	-2.842190e+01
3.241570e+02	-2.847457e+01
3.260293e+02	-2.852575e+01
3.279124e+02	-2.857225e+01
3.298064e+02	-2.861978e+01
3.317114e+02	-2.867183e+01
3.336273e+02	-2.872286e+01
3.355544e+02	-2.876816e+01
3.374925e+02	-2.882439e+01
3.394418e+02	-2.887664e+01
3.414024e+02	-2.892244e+01
3.433744e+02	-2.897826e+01
3.453577e+02	-2.902242e+01
3.473525e+02	-2.907195e+01
3.493588e+02	-2.912422e+01
3.513766e+02	-2.917076e+01
3.534062e+02	-2.922568e+01
3.554474e+02	-2.927319e+01
3.575005e+02	-2.932261e+01
3.595654e+02	-2.937842e+01
3.616422e+02	-2.942131e+01
3.637311e+02	-2.947739e+01
3.658320e+02	-2.951885e+01
3.679450e+02	-2.957173e+01
3.700702e+02	-2.962830e+01
3.722077e+02	-2.967448e+01
3.743576e+02	-2.972565e+01
3.765199e+02	-2.977277e+01
3.786946e+02	-2.982572e+01
3.808820e+02	-2.986797e+01
3.830819e+02	-2.992008e+01
3.852946e+02	-2.997010e+01
3.875200e+02	-3.002642e+01
3.897583e+02	-3.007353e+01
3.920096e+02	-3.012210e+01
3.942738e+02	-3.017771e+01
3.965511e+02	-3.022157e+01
3.988416e+02	-3.027794e+01
4.011452e+02	-3.032413e+01
4.034622e+02	-3.037217e+01
4.057926e+02	-3.042601e+01
4.081365e+02	-3.047944e+01
4.104938e+02	-3.052233e+01
4.128648e+02	-3.057579e+01
4.152495e+02	-3.062525e+01
4.176480e+02	-3.067498e+01
4.200603e+02	-3.072645e+01
4.224866e+02	-3.077478e+01
4.249268e+02	-3.082471e+01
4.273812e+02	-3.087343e+01
4.298497e+02	-3.092865e+01
4.323325e+02	-3.097659e+01
4.348297e+02	-3.103134e+01
4.373412e+02	-3.107454e+01
4.398673e+02	-3.112714e+01
4.424079e+02	-3.117652e+01
4.449633e+02	-3.122035e+01
4.475334e+02	-3.127778e+01
4.501183e+02	-3.132562e+01
4.527182e+02	-3.137760e+01
4.553330e+02	-3.142847e+01
4.579630e+02	-3.147575e+01
4.606082e+02	-3.152944e+01
4.632687e+02	-3.157745e+01
4.659445e+02	-3.162996e+01
4.686358e+02	-3.168102e+01
4.713426e+02	-3.172705e+01
4.740650e+02	-3.177954e+01
4.768032e+02	-3.182543e+01
4.795572e+02	-3.187901e+01
4.823271e+02	-3.193474e+01
4.851130e+02	-3.197845e+01
4.879150e+02	-3.202833e+01
4.907332e+02	-3.208723e+01
4.935676e+02	-3.212748e+01
4.964185e+02	-3.218436e+01
4.992858e+02	-3.222617e+01
5.021696e+02	-3.228747e+01
5.050701e+02	-3.232364e+01
5.079874e+02	-3.238062e+01
5.109215e+02	-3.242990e+01
5.138726e+02	-3.247802e+01
5.168407e+02	-3.253373e+01
5.198259e+02	-3.257489e+01
5.228284e+02	-3.263010e+01
5.258482e+02	-3.268037e+01
5.288855e+02	-3.273483e+01
5.319403e+02	-3.278469e+01
5.350128e+02	-3.283095e+01
5.381030e+02	-3.288339e+01
5.412111e+02	-3.293619e+01
5.443371e+02	-3.297882e+01
5.474812e+02	-3.303266e+01
5.506434e+02	-3.308324e+01
5.538239e+02	-3.313846e+01
5.570228e+02	-3.318880e+01
5.602401e+02	-3.323976e+01
5.634760e+02	-3.328243e+01
5.667306e+02	-3.333769e+01
5.700040e+02	-3.338657e+01
5.732964e+02	-3.343745e+01
5.766077e+02	-3.348465e+01
5.799382e+02	-3.353867e+01
5.832879e+02	-3.358440e+01
5.866569e+02	-3.364079e+01
5.900454e+02	-3.368784e+01
5.934535e+02	-3.373099e+01
5.968813e+02	-3.379028e+01
6.003288e+02	-3.383197e+01
6.037963e+02	-3.388310e+01
6.072838e+02	-3.393678e+01
6.107914e+02	-3.398406e+01
6.143194e+02	-3.404169e+01
6.178676e+02	-3.408993e+01
6.214364e+02	-3.413746e+01
6.250258e+02	-3.417989e+01
6.286359e+02	-3.424459e+01
6.322669e+02	-3.429577e+01
6.359189e+02	-3.434025e+01
6.395919e+02	-3.438690e+01
6.432862e+02	-3.444720e+01
6.470017e+02	-3.449471e+01
6.507388e+02	-3.454125e+01
6.544974e+02	-3.458532e+01
6.582778e+02	-3.465251e+01
6.620800e+02	-3.469876e+01
6.659041e+02	-3.474316e+01
6.697504e+02	-3.479285e+01
6.736188e+02	-3.484719e+01
6.775096e+02	-3.489776e+01
6.814229e+02	-3.494657e+01
6.853587e+02	-3.499826e+01
6.893173e+02	-3.503359e+01
6.932988e+02	-3.509392e+01
6.973033e+02	-3.513383e+01
7.013309e+02	-3.519536e+01
