Frequency(Hz)	Magnitude(dB)
1.000000e+01	-2.463653e+00
1.005776e+01	-2.485436e+00
1.011585e+01	-2.507154e+00
1.017428e+01	-2.529215e+00
1.023305e+01	-2.551665e+00
1.029215e+01	-2.573921e+00
1.035160e+01	-2.596100e+00
1.041139e+01	-2.618839e+00
1.047153e+01	-2.641324e+00
1.053201e+01	-2.664323e+00
1.059284e+01	-2.687213e+00
1.065403e+01	-2.710410e+00
1.071556e+01	-2.733784e+00
1.077746e+01	-2.757245e+00
1.083971e+01	-2.780859e+00
1.090232e+01	-2.804530e+00
1.096529e+01	-2.828477e+00
1.102862e+01	-2.852547e+00
1.109232e+01	-2.876557e+00
1.115639e+01	-2.901085e+00
1.122083e+01	-2.925269e+00
1.128564e+01	-2.950180e+00
1.135083e+01	-2.974711e+00
1.141639e+01	-2.999495e+00
1.148233e+01	-3.024625e+00
1.154865e+01	-3.049735e+00
1.161536e+01	-3.074909e+00
1.168245e+01	-3.100425e+00
1.174992e+01	-3.126068e+00
1.181779e+01	-3.151810e+00
1.188605e+01	-3.177770e+00
1.195470e+01	-3.203726e+00
1.202375e+01	-3.229860e+00
1.209320e+01	-3.256423e+00
1.216305e+01	-3.282770e+00
1.223330e+01	-3.309317e+00
1.230396e+01	-3.336213e+00
1.237503e+01	-3.363030e+00
1.244651e+01	-3.390010e+00
1.251840e+01	-3.417305e+00
1.259070e+01	-3.444513e+00
1.266343e+01	-3.472008e+00
1.273657e+01	-3.499481e+00
1.281014e+01	-3.527481e+00
1.288413e+01	-3.555354e+00
1.295855e+01	-3.583338e+00
1.303339e+01	-3.611310e+00
1.310867e+01	-3.639426e+00
1.318439e+01	-3.668362e+00
1.326054e+01	-3.696882e+00
1.333713e+01	-3.725493e+00
1.341417e+01	-3.754329e+00
1.349165e+01	-3.783599e+00
1.356958e+01	-3.812402e+00
1.364795e+01	-3.841841e+00
1.372678e+01	-3.871120e+00
1.380607e+01	-3.900791e+00
1.388581e+01	-3.930763e+00
1.396602e+01	-3.960436e+00
1.404668e+01	-3.990474e+00
1.412782e+01	-4.020715e+00
1.420942e+01	-4.050899e+00
1.429149e+01	-4.081517e+00
1.437404e+01	-4.111695e+00
1.445706e+01	-4.142752e+00
1.454057e+01	-4.173391e+00
1.462455e+01	-4.204567e+00
1.470902e+01	-4.235820e+00
1.479398e+01	-4.266657e+00
1.487943e+01	-4.297922e+00
1.496537e+01	-4.329797e+00
1.505181e+01	-4.361196e+00
1.513875e+01	-4.392906e+00
1.522619e+01	-4.424542e+00
1.531414e+01	-4.456783e+00
1.540259e+01	-4.488957e+00
1.549156e+01	-4.521216e+00
1.558103e+01	-4.553302e+00
1.567103e+01	-4.586209e+00
1.576155e+01	-4.619187e+00
1.585258e+01	-4.652023e+00
1.594415e+01	-4.684684e+00
1.603624e+01	-4.717889e+00
1.612886e+01	-4.751141e+00
1.622202e+01	-4.784184e+00
1.631572e+01	-4.817854e+00
1.640996e+01	-4.851449e+00
1.650474e+01	-4.885198e+00
1.660008e+01	-4.918770e+00
1.669596e+01	-4.953036e+00
1.679239e+01	-4.987183e+00
1.688938e+01	-5.021593e+00
1.698694e+01	-5.055618e+00
1.708505e+01	-5.090089e+00
1.718373e+01	-5.124526e+00
1.728299e+01	-5.159447e+00
1.738281e+01	-5.194281e+00
1.748322e+01	-5.229235e+00
1.758420e+01	-5.264315e+00
1.768576e+01	-5.299628e+00
1.778792e+01	-5.334780e+00
1.789066e+01	-5.370110e+00
1.799399e+01	-5.405711e+00
1.809793e+01	-5.441294e+00
1.820246e+01	-5.477442e+00
1.830760e+01	-5.513072e+00
1.841334e+01	-5.549165e+00
1.851969e+01	-5.585344e+00
1.862666e+01	-5.621839e+00
1.873425e+01	-5.657914e+00
1.884246e+01	-5.694245e+00
1.895129e+01	-5.731063e+00
1.906075e+01	-5.767743e+00
1.917085e+01	-5.804736e+00
1.928158e+01	-5.841325e+00
1.939295e+01	-5.878509e+00
1.950496e+01	-5.915962e+00
1.961762e+01	-5.952891e+00
1.973093e+01	-5.990423e+00
1.984490e+01	-6.028076e+00
1.995952e+01	-6.065676e+00
2.007480e+01	-6.103301e+00
2.019076e+01	-6.140979e+00
2.030738e+01	-6.179012e+00
2.042467e+01	-6.217092e+00
2.054264e+01	-6.255281e+00
2.066130e+01	-6.293258e+00
2.078064e+01	-6.331391e+00
2.090066e+01	-6.369986e+00
2.102139e+01	-6.408770e+00
2.114280e+01	-6.447210e+00
2.126492e+01	-6.486076e+00
2.138775e+01	-6.524522e+00
2.151128e+01	-6.563658e+00
2.163553e+01	-6.602904e+00
2.176050e+01	-6.642200e+00
2.188619e+01	-6.681040e+00
2.201260e+01	-6.720722e+00
2.213974e+01	-6.759681e+00
2.226762e+01	-6.799459e+00
2.239624e+01	-6.838970e+00
2.252560e+01	-6.878842e+00
2.265571e+01	-6.918705e+00
2.278656e+01	-6.958558e+00
2.291818e+01	-6.998242e+00
2.305055e+01	-7.038616e+00
2.318369e+01	-7.078743e+00
2.331760e+01	-7.119195e+00
2.345228e+01	-7.159601e+00
2.358774e+01	-7.199434e+00
2.372398e+01	-7.240618e+00
2.386101e+01	-7.280720e+00
2.399883e+01	-7.321651e+00
2.413745e+01	-7.362402e+00
2.427686e+01	-7.403090e+00
2.441709e+01	-7.444416e+00
2.455812e+01	-7.485137e+00
2.469997e+01	-7.526563e+00
2.484263e+01	-7.567348e+00
2.498612e+01	-7.609071e+00
2.513044e+01	-7.650400e+00
2.527559e+01	-7.692117e+00
2.542158e+01	-7.733783e+00
2.556842e+01	-7.775035e+00
2.571610e+01	-7.816793e+00
2.586463e+01	-7.858600e+00
2.601403e+01	-7.900634e+00
2.616428e+01	-7.942476e+00
2.631541e+01	-7.984440e+00
2.646740e+01	-8.026650e+00
2.662028e+01	-8.069108e+00
2.677404e+01	-8.110982e+00
2.692868e+01	-8.153871e+00
2.708422e+01	-8.195652e+00
2.724066e+01	-8.238140e+00
2.739800e+01	-8.280781e+00
2.755625e+01	-8.323848e+00
2.771541e+01	-8.365976e+00
2.787550e+01	-8.408634e+00
2.803650e+01	-8.451700e+00
2.819844e+01	-8.494543e+00
2.836131e+01	-8.537685e+00
2.852513e+01	-8.580589e+00
2.868989e+01	-8.623897e+00
2.885560e+01	-8.667308e+00
2.902227e+01	-8.710400e+00
2.918990e+01	-8.753334e+00
2.935850e+01	-8.797065e+00
2.952807e+01	-8.840809e+00
2.969863e+01	-8.883451e+00
2.987016e+01	-8.927742e+00
3.004269e+01	-8.971010e+00
3.021622e+01	-9.015290e+00
3.039075e+01	-9.058568e+00
3.056628e+01	-9.102733e+00
3.074283e+01	-9.146997e+00
3.092040e+01	-9.190914e+00
3.109900e+01	-9.234654e+00
3.127862e+01	-9.278649e+00
3.145929e+01	-9.322580e+00
3.164099e+01	-9.366749e+00
3.182375e+01	-9.411578e+00
3.200756e+01	-9.455769e+00
3.219244e+01	-9.499965e+00
3.237838e+01	-9.544694e+00
3.256540e+01	-9.589313e+00
3.275349e+01	-9.633773e+00
3.294268e+01	-9.678159e+00
3.313295e+01	-9.722389e+00
3.332433e+01	-9.767522e+00
3.351681e+01	-9.812239e+00
3.371040e+01	-9.856923e+00
3.390511e+01	-9.901728e+00
3.410094e+01	-9.946817e+00
3.429791e+01	-9.992228e+00
3.449601e+01	-1.003717e+01
3.469526e+01	-1.008144e+01
3.489566e+01	-1.012757e+01
3.509721e+01	-1.017274e+01
3.529993e+01	-1.021765e+01
3.550382e+01	-1.026258e+01
3.570889e+01	-1.030821e+01
3.591515e+01	-1.035319e+01
3.612259e+01	-1.039896e+01
3.633123e+01	-1.044436e+01
3.654108e+01	-1.049014e+01
3.675214e+01	-1.053584e+01
3.696442e+01	-1.058128e+01
3.717792e+01	-1.062713e+01
3.739266e+01	-1.067236e+01
3.760864e+01	-1.071829e+01
3.782587e+01	-1.076374e+01
3.804435e+01	-1.081013e+01
3.826409e+01	-1.085580e+01
3.848510e+01	-1.090141e+01
3.870739e+01	-1.094754e+01
3.893096e+01	-1.099350e+01
3.915583e+01	-1.104012e+01
3.938199e+01	-1.108636e+01
3.960946e+01	-1.113228e+01
3.983824e+01	-1.117809e+01
4.006834e+01	-1.122416e+01
4.029978e+01	-1.127132e+01
4.053255e+01	-1.131726e+01
4.076666e+01	-1.136391e+01
4.100213e+01	-1.141019e+01
4.123896e+01	-1.145648e+01
4.147715e+01	-1.150336e+01
4.171672e+01	-1.154911e+01
4.195767e+01	-1.159567e+01
4.220002e+01	-1.164254e+01
4.244377e+01	-1.168926e+01
4.268892e+01	-1.173549e+01
4.293549e+01	-1.178232e+01
4.318348e+01	-1.182886e+01
4.343291e+01	-1.187598e+01
4.368377e+01	-1.192330e+01
4.393609e+01	-1.196919e+01
4.418986e+01	-1.201608e+01
4.444510e+01	-1.206311e+01
4.470182e+01	-1.211037e+01
4.496001e+01	-1.215727e+01
4.521970e+01	-1.220422e+01
4.548089e+01	-1.225117e+01
4.574358e+01	-1.229855e+01
4.600779e+01	-1.234510e+01
4.627353e+01	-1.239239e+01
4.654081e+01	-1.243974e+01
4.680963e+01	-1.248711e+01
4.708000e+01	-1.253403e+01
4.735193e+01	-1.258162e+01
4.762543e+01	-1.262771e+01
4.790051e+01	-1.267572e+01
4.817719e+01	-1.272289e+01
4.845545e+01	-1.277134e+01
4.873533e+01	-1.281777e+01
4.901682e+01	-1.286554e+01
4.929994e+01	-1.291240e+01
4.958470e+01	-1.296062e+01
4.987110e+01	-1.300748e+01
5.015915e+01	-1.305573e+01
5.044887e+01	-1.310307e+01
5.074026e+01	-1.314979e+01
5.103333e+01	-1.319862e+01
5.132810e+01	-1.324585e+01
5.162457e+01	-1.329317e+01
5.192275e+01	-1.334067e+01
5.222265e+01	-1.338900e+01
5.252429e+01	-1.343697e+01
5.282767e+01	-1.348516e+01
5.313280e+01	-1.353266e+01
5.343969e+01	-1.358009e+01
5.374836e+01	-1.362762e+01
5.405880e+01	-1.367642e+01
5.437105e+01	-1.372402e+01
5.468509e+01	-1.377223e+01
5.500095e+01	-1.381924e+01
5.531863e+01	-1.386729e+01
5.563815e+01	-1.391544e+01
5.595951e+01	-1.396410e+01
5.628273e+01	-1.401164e+01
5.660782e+01	-1.406026e+01
5.693479e+01	-1.410737e+01
5.726364e+01	-1.415508e+01
5.759439e+01	-1.420492e+01
5.792705e+01	-1.425158e+01
5.826164e+01	-1.430044e+01
5.859815e+01	-1.434780e+01
5.893662e+01	-1.439651e+01
5.927703e+01	-1.444457e+01
5.961941e+01	-1.449276e+01
5.996377e+01	-1.454163e+01
6.031012e+01	-1.458926e+01
6.065847e+01	-1.463824e+01
6.100883e+01	-1.468623e+01
6.136121e+01	-1.473545e+01
6.171563e+01	-1.478218e+01
6.207210e+01	-1.483216e+01
6.243063e+01	-1.487951e+01
6.279122e+01	-1.492766e+01
6.315390e+01	-1.497706e+01
6.351868e+01	-1.502483e+01
6.388556e+01	-1.507407e+01
6.425456e+01	-1.512179e+01
6.462569e+01	-1.517085e+01
6.499897e+01	-1.521904e+01
6.537440e+01	-1.526759e+01
6.575200e+01	-1.531621e+01
6.613178e+01	-1.536490e+01
6.651375e+01	-1.541263e+01
6.689793e+01	-1.546174e+01
6.728433e+01	-1.551066e+01
6.767297e+01	-1.555879e+01
6.806384e+01	-1.560743e+01
6.845698e+01	-1.565684e+01
6.885238e+01	-1.570517e+01
6.925007e+01	-1.575370e+01
6.965005e+01	-1.580262e+01
7.005235e+01	-1.585135e+01
7.045697e+01	-1.590092e+01
7.086393e+01	-1.594790e+01
7.127323e+01	-1.599633e+01
7.168490e+01	-1.604724e+01
7.209895e+01	-1.609566e+01
7.251539e+01	-1.614349e+01
7.293424e+01	-1.619216e+01
7.335551e+01	-1.624146e+01
7.377920e+01	-1.629041e+01
7.420535e+01	-1.633999e+01
7.463396e+01	-1.638662e+01
7.506504e+01	-1.643701e+01
7.549861e+01	-1.648585e+01
7.593469e+01	-1.653453e+01
7.637328e+01	-1.658346e+01
7.681441e+01	-1.663293e+01
7.725809e+01	-1.668156e+01
7.770433e+01	-1.673058e+01
7.815315e+01	-1.678003e+01
7.860456e+01	-1.682851e+01
7.905857e+01	-1.687744e+01
7.951521e+01	-1.692644e+01
7.997449e+01	-1.697621e+01
8.043642e+01	-1.702408e+01
8.090102e+01	-1.707397e+01
8.136830e+01	-1.712380e+01
8.183828e+01	-1.717023e+01
8.231097e+01	-1.722056e+01
8.278640e+01	-1.727029e+01
8.326457e+01	-1.731918e+01
8.374550e+01	-1.736757e+01
8.422921e+01	-1.741753e+01
8.471572e+01	-1.746581e+01
8.520503e+01	-1.751529e+01
8.569717e+01	-1.756341e+01
8.619215e+01	-1.761382e+01
8.669000e+01	-1.766272e+01
8.719071e+01	-1.771168e+01
8.769432e+01	-1.776275e+01
8.820084e+01	-1.780997e+01
8.871029e+01	-1.785947e+01
8.922267e+01	-1.790820e+01
8.973802e+01	-1.795895e+01
9.025634e+01	-1.800799e+01
9.077766e+01	-1.805760e+01
9.130199e+01	-1.810605e+01
9.182935e+01	-1.815566e+01
9.235975e+01	-1.820530e+01
9.289321e+01	-1.825410e+01
9.342976e+01	-1.830153e+01
9.396941e+01	-1.835278e+01
9.451217e+01	-1.840120e+01
9.505807e+01	-1.844992e+01
9.560712e+01	-1.850026e+01
9.615934e+01	-1.854915e+01
9.671476e+01	-1.859823e+01
9.727338e+01	-1.864770e+01
9.783522e+01	-1.869702e+01
9.840032e+01	-1.874697e+01
9.896867e+01	-1.879752e+01
9.954031e+01	-1.884592e+01
1.001153e+02	-1.889478e+01
1.006935e+02	-1.894547e+01
1.012751e+02	-1.899312e+01
1.018601e+02	-1.904313e+01
1.024484e+02	-1.909303e+01
1.030402e+02	-1.914308e+01
1.036353e+02	-1.919142e+01
1.042339e+02	-1.924185e+01
1.048360e+02	-1.928957e+01
1.054415e+02	-1.933874e+01
1.060505e+02	-1.938886e+01
1.066631e+02	-1.943857e+01
1.072791e+02	-1.948867e+01
1.078988e+02	-1.953726e+01
1.085220e+02	-1.958631e+01
1.091488e+02	-1.963777e+01
1.097793e+02	-1.968701e+01
1.104133e+02	-1.973484e+01
1.110511e+02	-1.978507e+01
1.116925e+02	-1.983467e+01
1.123376e+02	-1.988400e+01
1.129865e+02	-1.993369e+01
1.136391e+02	-1.998153e+01
1.142955e+02	-2.003165e+01
1.149556e+02	-2.008386e+01
1.156196e+02	-2.013254e+01
1.162874e+02	-2.018140e+01
1.169591e+02	-2.023151e+01
1.176347e+02	-2.028077e+01
1.183141e+02	-2.033214e+01
1.189975e+02	-2.037824e+01
1.196848e+02	-2.043048e+01
1.203761e+02	-2.047903e+01
1.210714e+02	-2.052983e+01
1.217707e+02	-2.057758e+01
1.224740e+02	-2.062631e+01
1.231814e+02	-2.067731e+01
1.238929e+02	-2.072759e+01
1.246085e+02	-2.077547e+01
1.253283e+02	-2.082587e+01
1.260522e+02	-2.087400e+01
1.267802e+02	-2.092577e+01
1.275125e+02	-2.097448e+01
1.282490e+02	-2.102460e+01
1.289898e+02	-2.107484e+01
1.297348e+02	-2.112320e+01
1.304842e+02	-2.117254e+01
1.312378e+02	-2.122465e+01
1.319959e+02	-2.127294e+01
1.327583e+02	-2.132144e+01
1.335251e+02	-2.137130e+01
1.342963e+02	-2.142229e+01
1.350720e+02	-2.147204e+01
1.358522e+02	-2.152140e+01
1.366368e+02	-2.157187e+01
1.374260e+02	-2.162017e+01
1.382198e+02	-2.167247e+01
1.390182e+02	-2.171902e+01
1.398211e+02	-2.176880e+01
1.406287e+02	-2.182067e+01
1.414410e+02	-2.187044e+01
1.422579e+02	-2.191761e+01
1.430796e+02	-2.197014e+01
1.439060e+02	-2.201762e+01
1.447372e+02	-2.206885e+01
1.455732e+02	-2.211797e+01
1.464141e+02	-2.216788e+01
1.472597e+02	-2.221645e+01
1.481103e+02	-2.226655e+01
1.489658e+02	-2.231594e+01
1.498262e+02	-2.236585e+01
1.506916e+02	-2.241633e+01
1.515620e+02	-2.246790e+01
1.524374e+02	-2.251588e+01
1.533179e+02	-2.256321e+01
1.542034e+02	-2.261764e+01
1.550941e+02	-2.266813e+01
1.559899e+02	-2.271534e+01
1.568909e+02	-2.276517e+01
1.577971e+02	-2.281456e+01
1.587085e+02	-2.286265e+01
1.596252e+02	-2.291601e+01
1.605472e+02	-2.296523e+01
1.614745e+02	-2.301491e+01
1.624072e+02	-2.306212e+01
1.633453e+02	-2.311223e+01
1.642887e+02	-2.316402e+01
1.652377e+02	-2.321342e+01
1.661921e+02	-2.326230e+01
1.671520e+02	-2.331272e+01
1.681175e+02	-2.336393e+01
1.690885e+02	-2.341182e+01
1.700651e+02	-2.346363e+01
1.710474e+02	-2.351156e+01
1.720354e+02	-2.356196e+01
1.730291e+02	-2.361093e+01
1.740285e+02	-2.366250e+01
1.750337e+02	-2.370905e+01
1.760446e+02	-2.375956e+01
1.770615e+02	-2.380933e+01
1.780842e+02	-2.386097e+01
1.791128e+02	-2.391077e+01
1.801473e+02	-2.396118e+01
1.811878e+02	-2.401064e+01
1.822344e+02	-2.406075e+01
1.832870e+02	-2.411040e+01
1.843456e+02	-2.415960e+01
1.854104e+02	-2.421075e+01
1.864813e+02	-2.425938e+01
1.875584e+02	-2.430937e+01
1.886418e+02	-2.435939e+01
1.897313e+02	-2.441041e+01
1.908272e+02	-2.445625e+01
1.919294e+02	-2.450878e+01
1.930380e+02	-2.456124e+01
1.941530e+02	-2.460534e+01
1.952744e+02	-2.465999e+01
1.964023e+02	-2.470662e+01
1.975367e+02	-2.476006e+01
1.986777e+02	-2.480779e+01
1.998252e+02	-2.485647e+01
2.009794e+02	-2.490722e+01
2.021403e+02	-2.495770e+01
2.033078e+02	-2.500760e+01
2.044821e+02	-2.505772e+01
2.056632e+02	-2.510778e+01
2.068511e+02	-2.515548e+01
2.080459e+02	-2.520616e+01
2.092475e+02	-2.525521e+01
2.104561e+02	-2.530498e+01
2.116717e+02	-2.535682e+01
2.128943e+02	-2.540449e+01
2.141240e+02	-2.545776e+01
2.153608e+02	-2.550561e+01
2.166047e+02	-2.555711e+01
2.178558e+02	-2.560573e+01
2.191141e+02	-2.565545e+01
2.203797e+02	-2.571084e+01
2.216526e+02	-2.575533e+01
2.229329e+02	-2.580906e+01
2.242205e+02	-2.585705e+01
2.255156e+02	-2.590550e+01
2.268182e+02	-2.595731e+01
2.281283e+02	-2.600675e+01
2.294459e+02	-2.605790e+01
2.307712e+02	-2.610581e+01
2.321041e+02	-2.615448e+01
2.334447e+02	-2.620818e+01
2.347931e+02	-2.625559e+01
2.361493e+02	-2.630424e+01
2.375133e+02	-2.635373e+01
2.388851e+02	-2.640783e+01
2.402649e+02	-2.645471e+01
2.416527e+02	-2.650745e+01
2.430484e+02	-2.655566e+01
2.444523e+02	-2.660200e+01
2.458642e+02	-2.666024e+01
2.472843e+02	-2.670617e+01
2.487126e+02	-2.675206e+01
2.501492e+02	-2.680621e+01
2.515940e+02	-2.685497e+01
2.530472e+02	-2.690375e+01
2.545088e+02	-2.695734e+01
2.559789e+02	-2.700491e+01
2.574574e+02	-2.705489e+01
2.589444e+02	-2.710899e+01
2.604401e+02	-2.715558e+01
2.619444e+02	-2.720359e+01
2.634574e+02	-2.725697e+01
2.649791e+02	-2.730829e+01
2.665096e+02	-2.735229e+01
2.680489e+02	-2.740359e+01
2.695972e+02	-2.745631e+01
2.711544e+02	-2.750812e+01
2.727205e+02	-2.755539e+01
2.742958e+02	-2.760563e+01
2.758801e+02	-2.765497e+01
2.774736e+02	-2.770617e+01
2.790762e+02	-2.775832e+01
2.806882e+02	-2.780785e+01
2.823094e+02	-2.785504e+01
2.839400e+02	-2.790543e+01
2.855800e+02	-2.795585e+01
2.872295e+02	-2.800908e+01
2.888886e+02	-2.805656e+01
2.905572e+02	-2.810040e+01
2.922354e+02	-2.815510e+01
2.939234e+02	-2.820272e+01
2.956211e+02	-2.825555e+01
2.973286e+02	-2.830889e+01
2.990459e+02	-2.835499e+01
3.007732e+02	-2.840565e+01
3.025104e+02	-2.845218e+01
3.042577e+02	-2.850971e+01
3.060151e+02	-2.856008e+01
3.077826e+02	-2.860617e+01
3.095604e+02	-2.865624e+01
3.113484e+02	-2.870935e+01
3.131467e+02	-2.875543e+01
3.149554e+02	-2.880688e+01
3.167746e+02	-2.885796e+01
3.186043e+02	-2.890387e+01
3.204445e+02	-2.895810e+01
3.222954e+02	-2.900248e+01
3.241570e+02	-2.905456e+01
3.260293e+02	-2.910268e+01
3.279124e+02	-2.915632e+01
3.298064e+02	-2.920091e+01
3.317114e+02	-2.925865e+01
3.336273e+02	-2.930884e+01
3.355544e+02	-2.935871e+01
3.374925e+02	-2.940567e+01
3.394418e+02	-2.945464e+01
3.414024e+02	-2.950507e+01
3.433744e+02	-2.955999e+01
3.453577e+02	-2.960681e+01
3.473525e+02	-2.965674e+01
3.493588e+02	-2.970538e+01
3.513766e+02	-2.975494e+01
3.534062e+02	-2.981197e+01
3.554474e+02	-2.985609e+01
3.575005e+02	-2.990777e+01
3.595654e+02	-2.995615e+01
3.616422e+02	-3.000379e+01
3.637311e+02	-3.005195e+01
3.658320e+02	-3.010977e+01
3.679450e+02	-3.016071e+01
3.700702e+02	-3.020690e+01
3.722077e+02	-3.025806e+01
3.743576e+02	-3.031275e+01
3.765199e+02	-3.035791e+01
3.786946e+02	-3.041042e+01
3.808820e+02	-3.045915e+01
3.830819e+02	-3.050805e+01
3.852946e+02	-3.056308e+01
3.875200e+02	-3.061281e+01
3.897583e+02	-3.066131e+01
3.920096e+02	-3.071320e+01
3.942738e+02	-3.075876e+01
3.965511e+02	-3.080879e+01
3.988416e+02	-3.085880e+01
4.011452e+02	-3.091024e+01
4.034622e+02	-3.095728e+01
4.057926e+02	-3.101313e+01
4.081365e+02	-3.105820e+01
4.104938e+02	-3.111148e+01
4.128648e+02	-3.115692e+01
4.152495e+02	-3.121076e+01
4.176480e+02	-3.125439e+01
4.200603e+02	-3.130707e+01
4.224866e+02	-3.136675e+01
4.249268e+02	-3.141453e+01
4.273812e+02	-3.146019e+01
4.298497e+02	-3.150716e+01
4.323325e+02	-3.155879e+01
4.348297e+02	-3.161172e+01
4.373412e+02	-3.166534e+01
4.398673e+02	-3.171005e+01
4.424079e+02	-3.176122e+01
4.449633e+02	-3.181730e+01
4.475334e+02	-3.186347e+01
4.501183e+02	-3.190924e+01
4.527182e+02	-3.195479e+01
4.553330e+02	-3.201705e+01
4.579630e+02	-3.207054e+01
4.606082e+02	-3.211228e+01
4.632687e+02	-3.216419e+01
4.659445e+02	-3.220435e+01
4.686358e+02	-3.225833e+01
4.713426e+02	-3.230870e+01
4.740650e+02	-3.236546e+01
4.768032e+02	-3.241276e+01
4.795572e+02	-3.246498e+01
4.823271e+02	-3.251187e+01
4.851130e+02	-3.256681e+01
4.879150e+02	-3.261689e+01
4.907332e+02	-3.267169e+01
4.935676e+02	-3.271814e+01
4.964185e+02	-3.276205e+01
4.992858e+02	-3.282164e+01
5.021696e+02	-3.286877e+01
5.050701e+02	-3.291008e+01
5.079874e+02	-3.296569e+01
5.109215e+02	-3.301881e+01
5.138726e+02	-3.306581e+01
5.168407e+02	-3.311951e+01
5.198259e+02	-3.316609e+01
5.228284e+02	-3.321296e+01
5.258482e+02	-3.327195e+01
5.288855e+02	-3.332433e+01
5.319403e+02	-3.335884e+01
5.350128e+02	-3.342687e+01
5.381030e+02	-3.346418e+01
5.412111e+02	-3.351916e+01
5.443371e+02	-3.357276e+01
5.474812e+02	-3.361966e+01
5.506434e+02	-3.366805e+01
5.538239e+02	-3.371754e+01
5.570228e+02	-3.376695e+01
5.602401e+02	-3.382050e+01
5.634760e+02	-3.387237e+01
5.667306e+02	-3.392438e+01
5.700040e+02	-3.397329e+01
5.732964e+02	-3.402508e+01
5.766077e+02	-3.407863e+01
5.799382e+02	-3.412111e+01
5.832879e+02	-3.416973e+01
5.866569e+02	-3.421598e+01
5.900454e+02	-3.426859e+01
5.934535e+02	-3.432799e+01
5.968813e+02	-3.437923e+01
6.003288e+02	-3.443173e+01
6.037963e+02	-3.447633e+01
6.072838e+02	-3.451382e+01
6.107914e+02	-3.458185e+01
6.143194e+02	-3.462814e+01
6.178676e+02	-3.466971e+01
6.214364e+02	-3.472571e+01
6.250258e+02	-3.477923e+01
6.286359e+02	-3.483379e+01
6.322669e+02	-3.487432e+01
6.359189e+02	-3.492924e+01
6.395919e+02	-3.497712e+01
6.432862e+02	-3.503280e+01
6.470017e+02	-3.507329e+01
6.507388e+02	-3.513988e+01
6.544974e+02	-3.518030e+01
6.582778e+02	-3.522777e+01
6.620800e+02	-3.527712e+01
6.659041e+02	-3.533830e+01
6.697504e+02	-3.538389e+01
6.736188e+02	-3.542864e+01
6.775096e+02	-3.547782e+01
6.814229e+02	-3.552684e+01
6.853587e+02	-3.558730e+01
6.893173e+02	-3.563625e+01
6.932988e+02	-3.567936e+01
6.973033e+02	-3.574038e+01
7.013309e+02	-3.577935e+01
