Frequency(Hz)	Magnitude(dB)
1.000000e+01	-2.423998e+00
1.005776e+01	-2.445347e+00
1.011585e+01	-2.466986e+00
1.017428e+01	-2.488838e+00
1.023305e+01	-2.510786e+00
1.029215e+01	-2.532716e+00
1.035160e+01	-2.554683e+00
1.041139e+01	-2.577194e+00
1.047153e+01	-2.599663e+00
1.053201e+01	-2.622052e+00
1.059284e+01	-2.644886e+00
1.065403e+01	-2.668047e+00
1.071556e+01	-2.690777e+00
1.077746e+01	-2.713933e+00
1.083971e+01	-2.737603e+00
1.090232e+01	-2.760904e+00
1.096529e+01	-2.784486e+00
1.102862e+01	-2.808307e+00
1.109232e+01	-2.831932e+00
1.115639e+01	-2.856216e+00
1.122083e+01	-2.880235e+00
1.128564e+01	-2.904796e+00
1.135083e+01	-2.929044e+00
1.141639e+01	-2.953635e+00
1.148233e+01	-2.978459e+00
1.154865e+01	-3.003263e+00
1.161536e+01	-3.028331e+00
1.168245e+01	-3.053462e+00
1.174992e+01	-3.079018e+00
1.181779e+01	-3.104385e+00
1.188605e+01	-3.130215e+00
1.195470e+01	-3.155905e+00
1.202375e+01	-3.181757e+00
1.209320e+01	-3.207836e+00
1.216305e+01	-3.233939e+00
1.223330e+01	-3.260317e+00
1.230396e+01	-3.286837e+00
1.237503e+01	-3.313271e+00
1.244651e+01	-3.340441e+00
1.251840e+01	-3.367162e+00
1.259070e+01	-3.394156e+00
1.266343e+01	-3.421311e+00
1.273657e+01	-3.448648e+00
1.281014e+01	-3.476220e+00
1.288413e+01	-3.503802e+00
1.295855e+01	-3.531522e+00
1.303339e+01	-3.559481e+00
1.310867e+01	-3.587748e+00
1.318439e+01	-3.615730e+00
1.326054e+01	-3.643916e+00
1.333713e+01	-3.672442e+00
1.341417e+01	-3.701515e+00
1.349165e+01	-3.729830e+00
1.356958e+01	-3.758849e+00
1.364795e+01	-3.787862e+00
1.372678e+01	-3.816984e+00
1.380607e+01	-3.845898e+00
1.388581e+01	-3.875944e+00
1.396602e+01	-3.905397e+00
1.404668e+01	-3.935424e+00
1.412782e+01	-3.965147e+00
1.420942e+01	-3.994885e+00
1.429149e+01	-4.025108e+00
1.437404e+01	-4.055538e+00
1.445706e+01	-4.086105e+00
1.454057e+01	-4.116524e+00
1.462455e+01	-4.147256e+00
1.470902e+01	-4.178055e+00
1.479398e+01	-4.209227e+00
1.487943e+01	-4.240175e+00
1.496537e+01	-4.271462e+00
1.505181e+01	-4.303187e+00
1.513875e+01	-4.334475e+00
1.522619e+01	-4.365807e+00
1.531414e+01	-4.397531e+00
1.540259e+01	-4.429914e+00
1.549156e+01	-4.461756e+00
1.558103e+01	-4.494085e+00
1.567103e+01	-4.526253e+00
1.576155e+01	-4.558697e+00
1.585258e+01	-4.591215e+00
1.594415e+01	-4.623958e+00
1.603624e+01	-4.656871e+00
1.612886e+01	-4.689556e+00
1.622202e+01	-4.722834e+00
1.631572e+01	-4.755958e+00
1.640996e+01	-4.789696e+00
1.650474e+01	-4.823189e+00
1.660008e+01	-4.856522e+00
1.669596e+01	-4.890447e+00
1.679239e+01	-4.924142e+00
1.688938e+01	-4.958248e+00
1.698694e+01	-4.992273e+00
1.708505e+01	-5.026610e+00
1.718373e+01	-5.060979e+00
1.728299e+01	-5.095150e+00
1.738281e+01	-5.129678e+00
1.748322e+01	-5.164645e+00
1.758420e+01	-5.199474e+00
1.768576e+01	-5.234578e+00
1.778792e+01	-5.269518e+00
1.789066e+01	-5.304895e+00
1.799399e+01	-5.340199e+00
1.809793e+01	-5.375662e+00
1.820246e+01	-5.411288e+00
1.830760e+01	-5.447216e+00
1.841334e+01	-5.483048e+00
1.851969e+01	-5.518666e+00
1.862666e+01	-5.554678e+00
1.873425e+01	-5.590884e+00
1.884246e+01	-5.627052e+00
1.895129e+01	-5.663357e+00
1.906075e+01	-5.700159e+00
1.917085e+01	-5.736833e+00
1.928158e+01	-5.773406e+00
1.939295e+01	-5.810345e+00
1.950496e+01	-5.847137e+00
1.961762e+01	-5.884616e+00
1.973093e+01	-5.921281e+00
1.984490e+01	-5.958480e+00
1.995952e+01	-5.995994e+00
2.007480e+01	-6.033598e+00
2.019076e+01	-6.071228e+00
2.030738e+01	-6.108968e+00
2.042467e+01	-6.146791e+00
2.054264e+01	-6.184665e+00
2.066130e+01	-6.222382e+00
2.078064e+01	-6.261052e+00
2.090066e+01	-6.299453e+00
2.102139e+01	-6.337436e+00
2.114280e+01	-6.376004e+00
2.126492e+01	-6.414574e+00
2.138775e+01	-6.452997e+00
2.151128e+01	-6.491984e+00
2.163553e+01	-6.530773e+00
2.176050e+01	-6.569670e+00
2.188619e+01	-6.608516e+00
2.201260e+01	-6.647917e+00
2.213974e+01	-6.687475e+00
2.226762e+01	-6.726337e+00
2.239624e+01	-6.765527e+00
2.252560e+01	-6.805435e+00
2.265571e+01	-6.844920e+00
2.278656e+01	-6.884920e+00
2.291818e+01	-6.925009e+00
2.305055e+01	-6.964701e+00
2.318369e+01	-7.004620e+00
2.331760e+01	-7.044616e+00
2.345228e+01	-7.085055e+00
2.358774e+01	-7.125255e+00
2.372398e+01	-7.166007e+00
2.386101e+01	-7.205803e+00
2.399883e+01	-7.246355e+00
2.413745e+01	-7.287215e+00
2.427686e+01	-7.327456e+00
2.441709e+01	-7.368874e+00
2.455812e+01	-7.409864e+00
2.469997e+01	-7.450301e+00
2.484263e+01	-7.491792e+00
2.498612e+01	-7.533174e+00
2.513044e+01	-7.574040e+00
2.527559e+01	-7.614967e+00
2.542158e+01	-7.656904e+00
2.556842e+01	-7.698347e+00
2.571610e+01	-7.739939e+00
2.586463e+01	-7.782040e+00
2.601403e+01	-7.823443e+00
2.616428e+01	-7.865384e+00
2.631541e+01	-7.907024e+00
2.646740e+01	-7.948947e+00
2.662028e+01	-7.990953e+00
2.677404e+01	-8.033047e+00
2.692868e+01	-8.075311e+00
2.708422e+01	-8.117356e+00
2.724066e+01	-8.160075e+00
2.739800e+01	-8.201811e+00
2.755625e+01	-8.244640e+00
2.771541e+01	-8.287104e+00
2.787550e+01	-8.330067e+00
2.803650e+01	-8.372906e+00
2.819844e+01	-8.415749e+00
2.836131e+01	-8.458256e+00
2.852513e+01	-8.501111e+00
2.868989e+01	-8.544274e+00
2.885560e+01	-8.587437e+00
2.902227e+01	-8.630437e+00
2.918990e+01	-8.673639e+00
2.935850e+01	-8.717040e+00
2.952807e+01	-8.760203e+00
2.969863e+01	-8.803768e+00
2.987016e+01	-8.847136e+00
3.004269e+01	-8.890822e+00
3.021622e+01	-8.934371e+00
3.039075e+01	-8.978541e+00
3.056628e+01	-9.022265e+00
3.074283e+01	-9.065471e+00
3.092040e+01	-9.109401e+00
3.109900e+01	-9.153471e+00
3.127862e+01	-9.197403e+00
3.145929e+01	-9.241712e+00
3.164099e+01	-9.285104e+00
3.182375e+01	-9.328721e+00
3.200756e+01	-9.374095e+00
3.219244e+01	-9.418109e+00
3.237838e+01	-9.461934e+00
3.256540e+01	-9.506472e+00
3.275349e+01	-9.551423e+00
3.294268e+01	-9.595695e+00
3.313295e+01	-9.639873e+00
3.332433e+01	-9.684675e+00
3.351681e+01	-9.728908e+00
3.371040e+01	-9.774018e+00
3.390511e+01	-9.818972e+00
3.410094e+01	-9.864373e+00
3.429791e+01	-9.908721e+00
3.449601e+01	-9.953757e+00
3.469526e+01	-9.999181e+00
3.489566e+01	-1.004371e+01
3.509721e+01	-1.008904e+01
3.529993e+01	-1.013383e+01
3.550382e+01	-1.017890e+01
3.570889e+01	-1.022488e+01
3.591515e+01	-1.027022e+01
3.612259e+01	-1.031487e+01
3.633123e+01	-1.036053e+01
3.654108e+01	-1.040567e+01
3.675214e+01	-1.045135e+01
3.696442e+01	-1.049685e+01
3.717792e+01	-1.054263e+01
3.739266e+01	-1.058881e+01
3.760864e+01	-1.063339e+01
3.782587e+01	-1.067962e+01
3.804435e+01	-1.072511e+01
3.826409e+01	-1.077147e+01
3.848510e+01	-1.081682e+01
3.870739e+01	-1.086298e+01
3.893096e+01	-1.090856e+01
3.915583e+01	-1.095425e+01
3.938199e+01	-1.100115e+01
3.960946e+01	-1.104711e+01
3.983824e+01	-1.109367e+01
4.006834e+01	-1.113941e+01
4.029978e+01	-1.118517e+01
4.053255e+01	-1.123168e+01
4.076666e+01	-1.127773e+01
4.100213e+01	-1.132441e+01
4.123896e+01	-1.137060e+01
4.147715e+01	-1.141719e+01
4.171672e+01	-1.146373e+01
4.195767e+01	-1.151000e+01
4.220002e+01	-1.155697e+01
4.244377e+01	-1.160312e+01
4.268892e+01	-1.164915e+01
4.293549e+01	-1.169666e+01
4.318348e+01	-1.174281e+01
4.343291e+01	-1.178935e+01
4.368377e+01	-1.183659e+01
4.393609e+01	-1.188291e+01
4.418986e+01	-1.192947e+01
4.444510e+01	-1.197705e+01
4.470182e+01	-1.202342e+01
4.496001e+01	-1.207086e+01
4.521970e+01	-1.211775e+01
4.548089e+01	-1.216463e+01
4.574358e+01	-1.221109e+01
4.600779e+01	-1.225844e+01
4.627353e+01	-1.230630e+01
4.654081e+01	-1.235241e+01
4.680963e+01	-1.239972e+01
4.708000e+01	-1.244660e+01
4.735193e+01	-1.249399e+01
4.762543e+01	-1.254124e+01
4.790051e+01	-1.258893e+01
4.817719e+01	-1.263584e+01
4.845545e+01	-1.268334e+01
4.873533e+01	-1.273011e+01
4.901682e+01	-1.277769e+01
4.929994e+01	-1.282586e+01
4.958470e+01	-1.287219e+01
4.987110e+01	-1.292053e+01
5.015915e+01	-1.296797e+01
5.044887e+01	-1.301559e+01
5.074026e+01	-1.306265e+01
5.103333e+01	-1.311034e+01
5.132810e+01	-1.315858e+01
5.162457e+01	-1.320586e+01
5.192275e+01	-1.325266e+01
5.222265e+01	-1.330131e+01
5.252429e+01	-1.334869e+01
5.282767e+01	-1.339614e+01
5.313280e+01	-1.344331e+01
5.343969e+01	-1.349146e+01
5.374836e+01	-1.354010e+01
5.405880e+01	-1.358730e+01
5.437105e+01	-1.363533e+01
5.468509e+01	-1.368307e+01
5.500095e+01	-1.373085e+01
5.531863e+01	-1.377905e+01
5.563815e+01	-1.382701e+01
5.595951e+01	-1.387493e+01
5.628273e+01	-1.392298e+01
5.660782e+01	-1.397134e+01
5.693479e+01	-1.401937e+01
5.726364e+01	-1.406650e+01
5.759439e+01	-1.411494e+01
5.792705e+01	-1.416326e+01
5.826164e+01	-1.421073e+01
5.859815e+01	-1.425873e+01
5.893662e+01	-1.430747e+01
5.927703e+01	-1.435554e+01
5.961941e+01	-1.440403e+01
5.996377e+01	-1.445216e+01
6.031012e+01	-1.450098e+01
6.065847e+01	-1.454896e+01
6.100883e+01	-1.459614e+01
6.136121e+01	-1.464513e+01
6.171563e+01	-1.469376e+01
6.207210e+01	-1.474173e+01
6.243063e+01	-1.479021e+01
6.279122e+01	-1.483902e+01
6.315390e+01	-1.488648e+01
6.351868e+01	-1.493624e+01
6.388556e+01	-1.498375e+01
6.425456e+01	-1.503240e+01
6.462569e+01	-1.508202e+01
6.499897e+01	-1.512926e+01
6.537440e+01	-1.517838e+01
6.575200e+01	-1.522601e+01
6.613178e+01	-1.527530e+01
6.651375e+01	-1.532316e+01
6.689793e+01	-1.537067e+01
6.728433e+01	-1.542002e+01
6.767297e+01	-1.546886e+01
6.806384e+01	-1.551800e+01
6.845698e+01	-1.556592e+01
6.885238e+01	-1.561557e+01
6.925007e+01	-1.566364e+01
6.965005e+01	-1.571263e+01
7.005235e+01	-1.576182e+01
7.045697e+01	-1.581002e+01
7.086393e+01	-1.585844e+01
7.127323e+01	-1.590694e+01
7.168490e+01	-1.595619e+01
7.209895e+01	-1.600442e+01
7.251539e+01	-1.605360e+01
7.293424e+01	-1.610286e+01
7.335551e+01	-1.615191e+01
7.377920e+01	-1.620079e+01
7.420535e+01	-1.624888e+01
7.463396e+01	-1.629872e+01
7.506504e+01	-1.634681e+01
7.549861e+01	-1.639542e+01
7.593469e+01	-1.644332e+01
7.637328e+01	-1.649213e+01
7.681441e+01	-1.654196e+01
7.725809e+01	-1.659012e+01
7.770433e+01	-1.663889e+01
7.815315e+01	-1.668978e+01
7.860456e+01	-1.673817e+01
7.905857e+01	-1.678570e+01
7.951521e+01	-1.683560e+01
7.997449e+01	-1.688466e+01
8.043642e+01	-1.693354e+01
8.090102e+01	-1.698219e+01
8.136830e+01	-1.703184e+01
8.183828e+01	-1.708213e+01
8.231097e+01	-1.713004e+01
8.278640e+01	-1.717778e+01
8.326457e+01	-1.722929e+01
8.374550e+01	-1.727732e+01
8.422921e+01	-1.732668e+01
8.471572e+01	-1.737551e+01
8.520503e+01	-1.742531e+01
8.569717e+01	-1.747396e+01
8.619215e+01	-1.752188e+01
8.669000e+01	-1.757227e+01
8.719071e+01	-1.762093e+01
8.769432e+01	-1.767068e+01
8.820084e+01	-1.771832e+01
8.871029e+01	-1.776879e+01
8.922267e+01	-1.781732e+01
8.973802e+01	-1.786638e+01
9.025634e+01	-1.791594e+01
9.077766e+01	-1.796561e+01
9.130199e+01	-1.801412e+01
9.182935e+01	-1.806370e+01
9.235975e+01	-1.811267e+01
9.289321e+01	-1.816343e+01
9.342976e+01	-1.821073e+01
9.396941e+01	-1.826106e+01
9.451217e+01	-1.831066e+01
9.505807e+01	-1.835961e+01
9.560712e+01	-1.840875e+01
9.615934e+01	-1.845794e+01
9.671476e+01	-1.850708e+01
9.727338e+01	-1.855623e+01
9.783522e+01	-1.860514e+01
9.840032e+01	-1.865706e+01
9.896867e+01	-1.870338e+01
9.954031e+01	-1.875386e+01
1.001153e+02	-1.880370e+01
1.006935e+02	-1.885380e+01
1.012751e+02	-1.890274e+01
1.018601e+02	-1.895057e+01
1.024484e+02	-1.900262e+01
1.030402e+02	-1.905121e+01
1.036353e+02	-1.910142e+01
1.042339e+02	-1.915055e+01
1.048360e+02	-1.919876e+01
1.054415e+02	-1.924898e+01
1.060505e+02	-1.929764e+01
1.066631e+02	-1.934849e+01
1.072791e+02	-1.939679e+01
1.078988e+02	-1.944625e+01
1.085220e+02	-1.949467e+01
1.091488e+02	-1.954445e+01
1.097793e+02	-1.959252e+01
1.104133e+02	-1.964573e+01
1.110511e+02	-1.969280e+01
1.116925e+02	-1.974338e+01
1.123376e+02	-1.979464e+01
1.129865e+02	-1.984302e+01
1.136391e+02	-1.988994e+01
1.142955e+02	-1.994018e+01
1.149556e+02	-1.999074e+01
1.156196e+02	-2.004046e+01
1.162874e+02	-2.008993e+01
1.169591e+02	-2.013893e+01
1.176347e+02	-2.018820e+01
1.183141e+02	-2.023652e+01
1.189975e+02	-2.028937e+01
1.196848e+02	-2.033698e+01
1.203761e+02	-2.038751e+01
1.210714e+02	-2.043711e+01
1.217707e+02	-2.048600e+01
1.224740e+02	-2.053588e+01
1.231814e+02	-2.058668e+01
1.238929e+02	-2.063451e+01
1.246085e+02	-2.068508e+01
1.253283e+02	-2.073327e+01
1.260522e+02	-2.078335e+01
1.267802e+02	-2.083611e+01
1.275125e+02	-2.088330e+01
1.282490e+02	-2.093274e+01
1.289898e+02	-2.098267e+01
1.297348e+02	-2.103211e+01
1.304842e+02	-2.108183e+01
1.312378e+02	-2.113134e+01
1.319959e+02	-2.117950e+01
1.327583e+02	-2.123077e+01
1.335251e+02	-2.128076e+01
1.342963e+02	-2.132892e+01
1.350720e+02	-2.138143e+01
1.358522e+02	-2.143042e+01
1.366368e+02	-2.147882e+01
1.374260e+02	-2.153065e+01
1.382198e+02	-2.157973e+01
1.390182e+02	-2.162744e+01
1.398211e+02	-2.167791e+01
1.406287e+02	-2.172728e+01
1.414410e+02	-2.177811e+01
1.422579e+02	-2.182620e+01
1.430796e+02	-2.187565e+01
1.439060e+02	-2.192568e+01
1.447372e+02	-2.197556e+01
1.455732e+02	-2.202539e+01
1.464141e+02	-2.207638e+01
1.472597e+02	-2.212429e+01
1.481103e+02	-2.217365e+01
1.489658e+02	-2.222601e+01
1.498262e+02	-2.227475e+01
1.506916e+02	-2.232373e+01
1.515620e+02	-2.237448e+01
1.524374e+02	-2.242348e+01
1.533179e+02	-2.247164e+01
1.542034e+02	-2.252296e+01
1.550941e+02	-2.257280e+01
1.559899e+02	-2.262474e+01
1.568909e+02	-2.267209e+01
1.577971e+02	-2.272455e+01
1.587085e+02	-2.277273e+01
1.596252e+02	-2.282201e+01
1.605472e+02	-2.287129e+01
1.614745e+02	-2.292231e+01
1.624072e+02	-2.297189e+01
1.633453e+02	-2.302031e+01
1.642887e+02	-2.307034e+01
1.652377e+02	-2.311988e+01
1.661921e+02	-2.317007e+01
1.671520e+02	-2.322034e+01
1.681175e+02	-2.326886e+01
1.690885e+02	-2.331925e+01
1.700651e+02	-2.336941e+01
1.710474e+02	-2.341914e+01
1.720354e+02	-2.346923e+01
1.730291e+02	-2.351997e+01
1.740285e+02	-2.356885e+01
1.750337e+02	-2.361810e+01
1.760446e+02	-2.366717e+01
1.770615e+02	-2.371621e+01
1.780842e+02	-2.376734e+01
1.791128e+02	-2.381974e+01
1.801473e+02	-2.386878e+01
1.811878e+02	-2.391905e+01
1.822344e+02	-2.397054e+01
1.832870e+02	-2.401450e+01
1.843456e+02	-2.406933e+01
1.854104e+02	-2.411919e+01
1.864813e+02	-2.416638e+01
1.875584e+02	-2.421771e+01
1.886418e+02	-2.426439e+01
1.897313e+02	-2.431518e+01
1.908272e+02	-2.436447e+01
1.919294e+02	-2.441574e+01
1.930380e+02	-2.446568e+01
1.941530e+02	-2.451476e+01
1.952744e+02	-2.456706e+01
1.964023e+02	-2.461590e+01
1.975367e+02	-2.466561e+01
1.986777e+02	-2.471640e+01
1.998252e+02	-2.476547e+01
2.009794e+02	-2.481882e+01
2.021403e+02	-2.486611e+01
2.033078e+02	-2.491088e+01
2.044821e+02	-2.496596e+01
2.056632e+02	-2.501536e+01
2.068511e+02	-2.506325e+01
2.080459e+02	-2.511421e+01
2.092475e+02	-2.516417e+01
2.104561e+02	-2.521325e+01
2.116717e+02	-2.526453e+01
2.128943e+02	-2.531189e+01
2.141240e+02	-2.536721e+01
2.153608e+02	-2.541678e+01
2.166047e+02	-2.546394e+01
2.178558e+02	-2.551583e+01
2.191141e+02	-2.556390e+01
2.203797e+02	-2.561411e+01
2.216526e+02	-2.566154e+01
2.229329e+02	-2.571442e+01
2.242205e+02	-2.576470e+01
2.255156e+02	-2.581401e+01
2.268182e+02	-2.586397e+01
2.281283e+02	-2.591609e+01
2.294459e+02	-2.596002e+01
2.307712e+02	-2.601278e+01
2.321041e+02	-2.606294e+01
2.334447e+02	-2.611124e+01
2.347931e+02	-2.616133e+01
2.361493e+02	-2.621377e+01
2.375133e+02	-2.626555e+01
2.388851e+02	-2.631502e+01
2.402649e+02	-2.636162e+01
2.416527e+02	-2.641507e+01
2.430484e+02	-2.646539e+01
2.444523e+02	-2.651363e+01
2.458642e+02	-2.656405e+01
2.472843e+02	-2.661481e+01
2.487126e+02	-2.666314e+01
2.501492e+02	-2.670948e+01
2.515940e+02	-2.676310e+01
2.530472e+02	-2.680835e+01
2.545088e+02	-2.686342e+01
2.559789e+02	-2.691463e+01
2.574574e+02	-2.696041e+01
2.589444e+02	-2.701374e+01
2.604401e+02	-2.706049e+01
2.619444e+02	-2.711383e+01
2.634574e+02	-2.716234e+01
2.649791e+02	-2.721372e+01
2.665096e+02	-2.726474e+01
2.680489e+02	-2.731244e+01
2.695972e+02	-2.735770e+01
2.711544e+02	-2.741152e+01
2.727205e+02	-2.746243e+01
2.742958e+02	-2.751008e+01
2.758801e+02	-2.756046e+01
2.774736e+02	-2.761540e+01
2.790762e+02	-2.765876e+01
2.806882e+02	-2.771228e+01
2.823094e+02	-2.776562e+01
2.839400e+02	-2.781544e+01
2.855800e+02	-2.786379e+01
2.872295e+02	-2.791499e+01
2.888886e+02	-2.796133e+01
2.905572e+02	-2.801406e+01
2.922354e+02	-2.806091e+01
2.939234e+02	-2.811515e+01
2.956211e+02	-2.816266e+01
2.973286e+02	-2.821054e+01
2.990459e+02	-2.826043e+01
3.007732e+02	-2.831341e+01
3.025104e+02	-2.836492e+01
3.042577e+02	-2.841435e+01
3.060151e+02	-2.846321e+01
3.077826e+02	-2.851037e+01
3.095604e+02	-2.856558e+01
3.113484e+02	-2.861402e+01
3.131467e+02	-2.866006e+01
3.149554e+02	-2.871440e+01
3.167746e+02	-2.875597e+01
3.186043e+02	-2.881553e+01
3.204445e+02	-2.886316e+01
3.222954e+02	-2.891474e+01
3.241570e+02	-2.896205e+01
3.260293e+02	-2.901021e+01
3.279124e+02	-2.905997e+01
3.298064e+02	-2.911358e+01
3.317114e+02	-2.916443e+01
3.336273e+02	-2.921838e+01
3.355544e+02	-2.925842e+01
3.374925e+02	-2.931164e+01
3.394418e+02	-2.936421e+01
3.414024e+02	-2.940898e+01
3.433744e+02	-2.946721e+01
3.453577e+02	-2.951658e+01
3.473525e+02	-2.956297e+01
3.493588e+02	-2.961549e+01
3.513766e+02	-2.966183e+01
3.534062e+02	-2.971735e+01
3.554474e+02	-2.976143e+01
3.575005e+02	-2.981239e+01
3.595654e+02	-2.986424e+01
3.616422e+02	-2.991357e+01
3.637311e+02	-2.996459e+01
3.658320e+02	-3.001677e+01
3.679450e+02	-3.007048e+01
3.700702e+02	-3.012167e+01
3.722077e+02	-3.016582e+01
3.743576e+02	-3.021161e+01
3.765199e+02	-3.026799e+01
3.786946e+02	-3.031982e+01
3.808820e+02	-3.036560e+01
3.830819e+02	-3.041486e+01
3.852946e+02	-3.046707e+01
3.875200e+02	-3.051190e+01
3.897583e+02	-3.056200e+01
3.920096e+02	-3.061306e+01
3.942738e+02	-3.066752e+01
3.965511e+02	-3.071590e+01
3.988416e+02	-3.076807e+01
4.011452e+02	-3.081579e+01
4.034622e+02	-3.086840e+01
4.057926e+02	-3.091635e+01
4.081365e+02	-3.096579e+01
4.104938e+02	-3.100881e+01
4.128648e+02	-3.106651e+01
4.152495e+02	-3.111569e+01
4.176480e+02	-3.117117e+01
4.200603e+02	-3.121712e+01
4.224866e+02	-3.126857e+01
4.249268e+02	-3.131852e+01
4.273812e+02	-3.136804e+01
4.298497e+02	-3.141457e+01
4.323325e+02	-3.146815e+01
4.348297e+02	-3.152381e+01
4.373412e+02	-3.156361e+01
4.398673e+02	-3.161986e+01
4.424079e+02	-3.167035e+01
4.449633e+02	-3.171617e+01
4.475334e+02	-3.177250e+01
4.501183e+02	-3.182379e+01
4.527182e+02	-3.186795e+01
4.553330e+02	-3.191681e+01
4.579630e+02	-3.196778e+01
4.606082e+02	-3.201532e+01
4.632687e+02	-3.207485e+01
4.659445e+02	-3.211854e+01
4.686358e+02	-3.216734e+01
4.713426e+02	-3.221779e+01
4.740650e+02	-3.226984e+01
4.768032e+02	-3.232589e+01
4.795572e+02	-3.238019e+01
4.823271e+02	-3.242557e+01
4.851130e+02	-3.246662e+01
4.879150e+02	-3.251483e+01
4.907332e+02	-3.257380e+01
4.935676e+02	-3.262497e+01
4.964185e+02	-3.266950e+01
4.992858e+02	-3.272045e+01
5.021696e+02	-3.276994e+01
5.050701e+02	-3.282195e+01
5.079874e+02	-3.286893e+01
5.109215e+02	-3.292152e+01
5.138726e+02	-3.297300e+01
5.168407e+02	-3.301944e+01
5.198259e+02	-3.307308e+01
5.228284e+02	-3.312323e+01
5.258482e+02	-3.317064e+01
5.288855e+02	-3.322568e+01
5.319403e+02	-3.327514e+01
5.350128e+02	-3.332497e+01
5.381030e+02	-3.336911e+01
5.412111e+02	-3.343205e+01
5.443371e+02	-3.347163e+01
5.474812e+02	-3.352788e+01
5.506434e+02	-3.357954e+01
5.538239e+02	-3.362600e+01
5.570228e+02	-3.367327e+01
5.602401e+02	-3.372870e+01
5.634760e+02	-3.377531e+01
5.667306e+02	-3.382765e+01
5.700040e+02	-3.387780e+01
5.732964e+02	-3.392395e+01
5.766077e+02	-3.397161e+01
5.799382e+02	-3.402556e+01
5.832879e+02	-3.407541e+01
5.866569e+02	-3.413131e+01
5.900454e+02	-3.418299e+01
5.934535e+02	-3.422203e+01
5.968813e+02	-3.428132e+01
6.003288e+02	-3.432508e+01
6.037963e+02	-3.438473e+01
6.072838e+02	-3.442566e+01
6.107914e+02	-3.446967e+01
6.143194e+02	-3.452531e+01
6.178676e+02	-3.458485e+01
6.214364e+02	-3.463885e+01
6.250258e+02	-3.468925e+01
6.286359e+02	-3.473573e+01
6.322669e+02	-3.478495e+01
6.359189e+02	-3.483732e+01
6.395919e+02	-3.487459e+01
6.432862e+02	-3.493850e+01
6.470017e+02	-3.498819e+01
6.507388e+02	-3.502816e+01
6.544974e+02	-3.508592e+01
6.582778e+02	-3.513514e+01
6.620800e+02	-3.519176e+01
6.659041e+02	-3.523526e+01
6.697504e+02	-3.528858e+01
6.736188e+02	-3.533877e+01
6.775096e+02	-3.538832e+01
6.814229e+02	-3.544219e+01
6.853587e+02	-3.549031e+01
6.893173e+02	-3.552436e+01
6.932988e+02	-3.558936e+01
6.973033e+02	-3.563554e+01
7.013309e+02	-3.567904e+01
