Frequency(Hz)	Magnitude(dB)
1.000000e+01	-1.939617e+00
1.005776e+01	-1.957594e+00
1.011585e+01	-1.975850e+00
1.017428e+01	-1.994062e+00
1.023305e+01	-2.012780e+00
1.029215e+01	-2.031290e+00
1.035160e+01	-2.050018e+00
1.041139e+01	-2.068839e+00
1.047153e+01	-2.087966e+00
1.053201e+01	-2.106990e+00
1.059284e+01	-2.126457e+00
1.065403e+01	-2.145665e+00
1.071556e+01	-2.165368e+00
1.077746e+01	-2.185059e+00
1.083971e+01	-2.204844e+00
1.090232e+01	-2.224982e+00
1.096529e+01	-2.245244e+00
1.102862e+01	-2.265374e+00
1.109232e+01	-2.285743e+00
1.115639e+01	-2.306181e+00
1.122083e+01	-2.326989e+00
1.128564e+01	-2.347821e+00
1.135083e+01	-2.368806e+00
1.141639e+01	-2.389731e+00
1.148233e+01	-2.410999e+00
1.154865e+01	-2.432368e+00
1.161536e+01	-2.453947e+00
1.168245e+01	-2.475658e+00
1.174992e+01	-2.497436e+00
1.181779e+01	-2.519352e+00
1.188605e+01	-2.541587e+00
1.195470e+01	-2.563863e+00
1.202375e+01	-2.586298e+00
1.209320e+01	-2.608516e+00
1.216305e+01	-2.631367e+00
1.223330e+01	-2.654199e+00
1.230396e+01	-2.677231e+00
1.237503e+01	-2.700181e+00
1.244651e+01	-2.723312e+00
1.251840e+01	-2.746665e+00
1.259070e+01	-2.770314e+00
1.266343e+01	-2.793777e+00
1.273657e+01	-2.817649e+00
1.281014e+01	-2.841475e+00
1.288413e+01	-2.865683e+00
1.295855e+01	-2.890069e+00
1.303339e+01	-2.914303e+00
1.310867e+01	-2.938967e+00
1.318439e+01	-2.963614e+00
1.326054e+01	-2.988505e+00
1.333713e+01	-3.013410e+00
1.341417e+01	-3.038485e+00
1.349165e+01	-3.063606e+00
1.356958e+01	-3.089182e+00
1.364795e+01	-3.114536e+00
1.372678e+01	-3.140057e+00
1.380607e+01	-3.166204e+00
1.388581e+01	-3.191961e+00
1.396602e+01	-3.218045e+00
1.404668e+01	-3.244586e+00
1.412782e+01	-3.270771e+00
1.420942e+01	-3.297412e+00
1.429149e+01	-3.324239e+00
1.437404e+01	-3.350976e+00
1.445706e+01	-3.377799e+00
1.454057e+01	-3.404793e+00
1.462455e+01	-3.432153e+00
1.470902e+01	-3.459661e+00
1.479398e+01	-3.487067e+00
1.487943e+01	-3.514763e+00
1.496537e+01	-3.542751e+00
1.505181e+01	-3.570779e+00
1.513875e+01	-3.598701e+00
1.522619e+01	-3.627083e+00
1.531414e+01	-3.655311e+00
1.540259e+01	-3.683809e+00
1.549156e+01	-3.712965e+00
1.558103e+01	-3.741336e+00
1.567103e+01	-3.770484e+00
1.576155e+01	-3.799429e+00
1.585258e+01	-3.828863e+00
1.594415e+01	-3.858199e+00
1.603624e+01	-3.887797e+00
1.612886e+01	-3.917515e+00
1.622202e+01	-3.947227e+00
1.631572e+01	-3.976989e+00
1.640996e+01	-4.007053e+00
1.650474e+01	-4.037375e+00
1.660008e+01	-4.067562e+00
1.669596e+01	-4.098042e+00
1.679239e+01	-4.128774e+00
1.688938e+01	-4.159633e+00
1.698694e+01	-4.190306e+00
1.708505e+01	-4.221583e+00
1.718373e+01	-4.252677e+00
1.728299e+01	-4.283956e+00
1.738281e+01	-4.315549e+00
1.748322e+01	-4.347108e+00
1.758420e+01	-4.378777e+00
1.768576e+01	-4.410530e+00
1.778792e+01	-4.442332e+00
1.789066e+01	-4.474644e+00
1.799399e+01	-4.506954e+00
1.809793e+01	-4.539211e+00
1.820246e+01	-4.571661e+00
1.830760e+01	-4.604271e+00
1.841334e+01	-4.637121e+00
1.851969e+01	-4.670171e+00
1.862666e+01	-4.703051e+00
1.873425e+01	-4.736068e+00
1.884246e+01	-4.768989e+00
1.895129e+01	-4.802812e+00
1.906075e+01	-4.836323e+00
1.917085e+01	-4.869987e+00
1.928158e+01	-4.903603e+00
1.939295e+01	-4.937792e+00
1.950496e+01	-4.971655e+00
1.961762e+01	-5.005660e+00
1.973093e+01	-5.040102e+00
1.984490e+01	-5.074772e+00
1.995952e+01	-5.109059e+00
2.007480e+01	-5.143919e+00
2.019076e+01	-5.178491e+00
2.030738e+01	-5.213496e+00
2.042467e+01	-5.248539e+00
2.054264e+01	-5.283545e+00
2.066130e+01	-5.318951e+00
2.078064e+01	-5.354152e+00
2.090066e+01	-5.389719e+00
2.102139e+01	-5.425291e+00
2.114280e+01	-5.460902e+00
2.126492e+01	-5.496940e+00
2.138775e+01	-5.532818e+00
2.151128e+01	-5.569000e+00
2.163553e+01	-5.605232e+00
2.176050e+01	-5.641591e+00
2.188619e+01	-5.677953e+00
2.201260e+01	-5.714614e+00
2.213974e+01	-5.751692e+00
2.226762e+01	-5.788294e+00
2.239624e+01	-5.825145e+00
2.252560e+01	-5.862119e+00
2.265571e+01	-5.898827e+00
2.278656e+01	-5.936576e+00
2.291818e+01	-5.973585e+00
2.305055e+01	-6.010928e+00
2.318369e+01	-6.048434e+00
2.331760e+01	-6.086334e+00
2.345228e+01	-6.123990e+00
2.358774e+01	-6.161781e+00
2.372398e+01	-6.199931e+00
2.386101e+01	-6.238142e+00
2.399883e+01	-6.275867e+00
2.413745e+01	-6.314547e+00
2.427686e+01	-6.352850e+00
2.441709e+01	-6.391301e+00
2.455812e+01	-6.429644e+00
2.469997e+01	-6.468660e+00
2.484263e+01	-6.507325e+00
2.498612e+01	-6.546266e+00
2.513044e+01	-6.585385e+00
2.527559e+01	-6.624224e+00
2.542158e+01	-6.663233e+00
2.556842e+01	-6.702810e+00
2.571610e+01	-6.742367e+00
2.586463e+01	-6.781799e+00
2.601403e+01	-6.821738e+00
2.616428e+01	-6.860918e+00
2.631541e+01	-6.900951e+00
2.646740e+01	-6.940497e+00
2.662028e+01	-6.980318e+00
2.677404e+01	-7.020716e+00
2.692868e+01	-7.060731e+00
2.708422e+01	-7.100829e+00
2.724066e+01	-7.141195e+00
2.739800e+01	-7.181837e+00
2.755625e+01	-7.221773e+00
2.771541e+01	-7.262645e+00
2.787550e+01	-7.303300e+00
2.803650e+01	-7.344660e+00
2.819844e+01	-7.385037e+00
2.836131e+01	-7.425720e+00
2.852513e+01	-7.466986e+00
2.868989e+01	-7.508432e+00
2.885560e+01	-7.549032e+00
2.902227e+01	-7.590713e+00
2.918990e+01	-7.631484e+00
2.935850e+01	-7.673334e+00
2.952807e+01	-7.714806e+00
2.969863e+01	-7.756769e+00
2.987016e+01	-7.797770e+00
3.004269e+01	-7.839796e+00
3.021622e+01	-7.881395e+00
3.039075e+01	-7.923623e+00
3.056628e+01	-7.965582e+00
3.074283e+01	-8.007806e+00
3.092040e+01	-8.049676e+00
3.109900e+01	-8.092055e+00
3.127862e+01	-8.134377e+00
3.145929e+01	-8.176754e+00
3.164099e+01	-8.219266e+00
3.182375e+01	-8.261700e+00
3.200756e+01	-8.304508e+00
3.219244e+01	-8.347393e+00
3.237838e+01	-8.389794e+00
3.256540e+01	-8.432497e+00
3.275349e+01	-8.475287e+00
3.294268e+01	-8.518299e+00
3.313295e+01	-8.561282e+00
3.332433e+01	-8.604876e+00
3.351681e+01	-8.647648e+00
3.371040e+01	-8.690774e+00
3.390511e+01	-8.734059e+00
3.410094e+01	-8.777285e+00
3.429791e+01	-8.821018e+00
3.449601e+01	-8.864293e+00
3.469526e+01	-8.908353e+00
3.489566e+01	-8.952040e+00
3.509721e+01	-8.995162e+00
3.529993e+01	-9.039521e+00
3.550382e+01	-9.082655e+00
3.570889e+01	-9.126723e+00
3.591515e+01	-9.170830e+00
3.612259e+01	-9.214875e+00
3.633123e+01	-9.258526e+00
3.654108e+01	-9.303149e+00
3.675214e+01	-9.346931e+00
3.696442e+01	-9.391420e+00
3.717792e+01	-9.436091e+00
3.739266e+01	-9.479881e+00
3.760864e+01	-9.524402e+00
3.782587e+01	-9.568571e+00
3.804435e+01	-9.613269e+00
3.826409e+01	-9.658325e+00
3.848510e+01	-9.702604e+00
3.870739e+01	-9.747391e+00
3.893096e+01	-9.792087e+00
3.915583e+01	-9.836949e+00
3.938199e+01	-9.881779e+00
3.960946e+01	-9.927058e+00
3.983824e+01	-9.971927e+00
4.006834e+01	-1.001659e+01
4.029978e+01	-1.006136e+01
4.053255e+01	-1.010672e+01
4.076666e+01	-1.015207e+01
4.100213e+01	-1.019701e+01
4.123896e+01	-1.024269e+01
4.147715e+01	-1.028774e+01
4.171672e+01	-1.033312e+01
4.195767e+01	-1.037850e+01
4.220002e+01	-1.042372e+01
4.244377e+01	-1.046954e+01
4.268892e+01	-1.051559e+01
4.293549e+01	-1.056040e+01
4.318348e+01	-1.060636e+01
4.343291e+01	-1.065199e+01
4.368377e+01	-1.069814e+01
4.393609e+01	-1.074336e+01
4.418986e+01	-1.078937e+01
4.444510e+01	-1.083518e+01
4.470182e+01	-1.088134e+01
4.496001e+01	-1.092741e+01
4.521970e+01	-1.097315e+01
4.548089e+01	-1.101923e+01
4.574358e+01	-1.106561e+01
4.600779e+01	-1.111093e+01
4.627353e+01	-1.115747e+01
4.654081e+01	-1.120411e+01
4.680963e+01	-1.125009e+01
4.708000e+01	-1.129681e+01
4.735193e+01	-1.134306e+01
4.762543e+01	-1.139013e+01
4.790051e+01	-1.143585e+01
4.817719e+01	-1.148264e+01
4.845545e+01	-1.152814e+01
4.873533e+01	-1.157508e+01
4.901682e+01	-1.162145e+01
4.929994e+01	-1.166779e+01
4.958470e+01	-1.171428e+01
4.987110e+01	-1.176248e+01
5.015915e+01	-1.180752e+01
5.044887e+01	-1.185474e+01
5.074026e+01	-1.190188e+01
5.103333e+01	-1.194813e+01
5.132810e+01	-1.199538e+01
5.162457e+01	-1.204281e+01
5.192275e+01	-1.208972e+01
5.222265e+01	-1.213601e+01
5.252429e+01	-1.218276e+01
5.282767e+01	-1.223011e+01
5.313280e+01	-1.227713e+01
5.343969e+01	-1.232474e+01
5.374836e+01	-1.237188e+01
5.405880e+01	-1.241872e+01
5.437105e+01	-1.246513e+01
5.468509e+01	-1.251320e+01
5.500095e+01	-1.256022e+01
5.531863e+01	-1.260763e+01
5.563815e+01	-1.265402e+01
5.595951e+01	-1.270162e+01
5.628273e+01	-1.274968e+01
5.660782e+01	-1.279709e+01
5.693479e+01	-1.284408e+01
5.726364e+01	-1.289118e+01
5.759439e+01	-1.293940e+01
5.792705e+01	-1.298665e+01
5.826164e+01	-1.303380e+01
5.859815e+01	-1.308231e+01
5.893662e+01	-1.312889e+01
5.927703e+01	-1.317717e+01
5.961941e+01	-1.322443e+01
5.996377e+01	-1.327314e+01
6.031012e+01	-1.332036e+01
6.065847e+01	-1.336683e+01
6.100883e+01	-1.341483e+01
6.136121e+01	-1.346263e+01
6.171563e+01	-1.351106e+01
6.207210e+01	-1.355807e+01
6.243063e+01	-1.360614e+01
6.279122e+01	-1.365497e+01
6.315390e+01	-1.370219e+01
6.351868e+01	-1.375080e+01
6.388556e+01	-1.379843e+01
6.425456e+01	-1.384582e+01
6.462569e+01	-1.389490e+01
6.499897e+01	-1.394208e+01
6.537440e+01	-1.399031e+01
6.575200e+01	-1.403858e+01
6.613178e+01	-1.408548e+01
6.651375e+01	-1.413361e+01
6.689793e+01	-1.418278e+01
6.728433e+01	-1.423037e+01
6.767297e+01	-1.427915e+01
6.806384e+01	-1.432618e+01
6.845698e+01	-1.437578e+01
6.885238e+01	-1.442372e+01
6.925007e+01	-1.447095e+01
6.965005e+01	-1.451939e+01
7.005235e+01	-1.456863e+01
7.045697e+01	-1.461708e+01
7.086393e+01	-1.466536e+01
7.127323e+01	-1.471226e+01
7.168490e+01	-1.476136e+01
7.209895e+01	-1.480851e+01
7.251539e+01	-1.485861e+01
7.293424e+01	-1.490627e+01
7.335551e+01	-1.495497e+01
7.377920e+01	-1.500336e+01
7.420535e+01	-1.505234e+01
7.463396e+01	-1.510074e+01
7.506504e+01	-1.514891e+01
7.549861e+01	-1.519722e+01
7.593469e+01	-1.524508e+01
7.637328e+01	-1.529413e+01
7.681441e+01	-1.534367e+01
7.725809e+01	-1.539124e+01
7.770433e+01	-1.544068e+01
7.815315e+01	-1.548811e+01
7.860456e+01	-1.553766e+01
7.905857e+01	-1.558626e+01
7.951521e+01	-1.563374e+01
7.997449e+01	-1.568357e+01
8.043642e+01	-1.573238e+01
8.090102e+01	-1.577964e+01
8.136830e+01	-1.582842e+01
8.183828e+01	-1.587860e+01
8.231097e+01	-1.592634e+01
8.278640e+01	-1.597534e+01
8.326457e+01	-1.602457e+01
8.374550e+01	-1.607327e+01
8.422921e+01	-1.612068e+01
8.471572e+01	-1.616993e+01
8.520503e+01	-1.621969e+01
8.569717e+01	-1.626809e+01
8.619215e+01	-1.631687e+01
8.669000e+01	-1.636706e+01
8.719071e+01	-1.641498e+01
8.769432e+01	-1.646373e+01
8.820084e+01	-1.651270e+01
8.871029e+01	-1.656129e+01
8.922267e+01	-1.661096e+01
8.973802e+01	-1.666073e+01
9.025634e+01	-1.670856e+01
9.077766e+01	-1.675829e+01
9.130199e+01	-1.680675e+01
9.182935e+01	-1.685457e+01
9.235975e+01	-1.690475e+01
9.289321e+01	-1.695397e+01
9.342976e+01	-1.700400e+01
9.396941e+01	-1.705237e+01
9.451217e+01	-1.710189e+01
9.505807e+01	-1.715042e+01
9.560712e+01	-1.719828e+01
9.615934e+01	-1.724782e+01
9.671476e+01	-1.729797e+01
9.727338e+01	-1.734616e+01
9.783522e+01	-1.739552e+01
9.840032e+01	-1.744408e+01
9.896867e+01	-1.749362e+01
9.954031e+01	-1.754198e+01
1.001153e+02	-1.759101e+01
1.006935e+02	-1.764143e+01
1.012751e+02	-1.768936e+01
1.018601e+02	-1.774028e+01
1.024484e+02	-1.778796e+01
1.030402e+02	-1.783749e+01
1.036353e+02	-1.788744e+01
1.042339e+02	-1.793578e+01
1.048360e+02	-1.798690e+01
1.054415e+02	-1.803507e+01
1.060505e+02	-1.808424e+01
1.066631e+02	-1.813242e+01
1.072791e+02	-1.818087e+01
1.078988e+02	-1.823051e+01
1.085220e+02	-1.828089e+01
1.091488e+02	-1.833002e+01
1.097793e+02	-1.837873e+01
1.104133e+02	-1.842865e+01
1.110511e+02	-1.847772e+01
1.116925e+02	-1.852687e+01
1.123376e+02	-1.857659e+01
1.129865e+02	-1.862510e+01
1.136391e+02	-1.867549e+01
1.142955e+02	-1.872523e+01
1.149556e+02	-1.877380e+01
1.156196e+02	-1.882393e+01
1.162874e+02	-1.887328e+01
1.169591e+02	-1.892258e+01
1.176347e+02	-1.897311e+01
1.183141e+02	-1.902092e+01
1.189975e+02	-1.907076e+01
1.196848e+02	-1.911791e+01
1.203761e+02	-1.916980e+01
1.210714e+02	-1.921879e+01
1.217707e+02	-1.926779e+01
1.224740e+02	-1.931963e+01
1.231814e+02	-1.936718e+01
1.238929e+02	-1.941653e+01
1.246085e+02	-1.946476e+01
1.253283e+02	-1.951609e+01
1.260522e+02	-1.956553e+01
1.267802e+02	-1.961419e+01
1.275125e+02	-1.966328e+01
1.282490e+02	-1.971440e+01
1.289898e+02	-1.976201e+01
1.297348e+02	-1.981177e+01
1.304842e+02	-1.985995e+01
1.312378e+02	-1.991182e+01
1.319959e+02	-1.996024e+01
1.327583e+02	-2.001080e+01
1.335251e+02	-2.006040e+01
1.342963e+02	-2.011046e+01
1.350720e+02	-2.015924e+01
1.358522e+02	-2.020796e+01
1.366368e+02	-2.025781e+01
1.374260e+02	-2.030777e+01
1.382198e+02	-2.035812e+01
1.390182e+02	-2.040735e+01
1.398211e+02	-2.045628e+01
1.406287e+02	-2.050596e+01
1.414410e+02	-2.055578e+01
1.422579e+02	-2.060607e+01
1.430796e+02	-2.065427e+01
1.439060e+02	-2.070552e+01
1.447372e+02	-2.075472e+01
1.455732e+02	-2.080486e+01
1.464141e+02	-2.085332e+01
1.472597e+02	-2.090446e+01
1.481103e+02	-2.095327e+01
1.489658e+02	-2.100414e+01
1.498262e+02	-2.105202e+01
1.506916e+02	-2.110108e+01
1.515620e+02	-2.115175e+01
1.524374e+02	-2.120135e+01
1.533179e+02	-2.125230e+01
1.542034e+02	-2.130110e+01
1.550941e+02	-2.134981e+01
1.559899e+02	-2.140104e+01
1.568909e+02	-2.145063e+01
1.577971e+02	-2.149928e+01
1.587085e+02	-2.154944e+01
1.596252e+02	-2.159983e+01
1.605472e+02	-2.164742e+01
1.614745e+02	-2.169729e+01
1.624072e+02	-2.174890e+01
1.633453e+02	-2.179901e+01
1.642887e+02	-2.184615e+01
1.652377e+02	-2.189797e+01
1.661921e+02	-2.194616e+01
1.671520e+02	-2.199696e+01
1.681175e+02	-2.204535e+01
1.690885e+02	-2.209619e+01
1.700651e+02	-2.214564e+01
1.710474e+02	-2.219533e+01
1.720354e+02	-2.224471e+01
1.730291e+02	-2.229594e+01
1.740285e+02	-2.234644e+01
1.750337e+02	-2.239512e+01
1.760446e+02	-2.244578e+01
1.770615e+02	-2.249370e+01
1.780842e+02	-2.254204e+01
1.791128e+02	-2.259384e+01
1.801473e+02	-2.264411e+01
1.811878e+02	-2.269139e+01
1.822344e+02	-2.274127e+01
1.832870e+02	-2.279509e+01
1.843456e+02	-2.284154e+01
1.854104e+02	-2.289342e+01
1.864813e+02	-2.294172e+01
1.875584e+02	-2.299086e+01
1.886418e+02	-2.304129e+01
1.897313e+02	-2.309186e+01
1.908272e+02	-2.313963e+01
1.919294e+02	-2.318955e+01
1.930380e+02	-2.324160e+01
1.941530e+02	-2.328949e+01
1.952744e+02	-2.334149e+01
1.964023e+02	-2.338978e+01
1.975367e+02	-2.343979e+01
1.986777e+02	-2.348942e+01
1.998252e+02	-2.353929e+01
2.009794e+02	-2.359330e+01
2.021403e+02	-2.364013e+01
2.033078e+02	-2.369036e+01
2.044821e+02	-2.373994e+01
2.056632e+02	-2.378618e+01
2.068511e+02	-2.384035e+01
2.080459e+02	-2.388731e+01
2.092475e+02	-2.393959e+01
2.104561e+02	-2.398941e+01
2.116717e+02	-2.403706e+01
2.128943e+02	-2.408647e+01
2.141240e+02	-2.413597e+01
2.153608e+02	-2.418723e+01
2.166047e+02	-2.423604e+01
2.178558e+02	-2.428681e+01
2.191141e+02	-2.433632e+01
2.203797e+02	-2.438669e+01
2.216526e+02	-2.443818e+01
2.229329e+02	-2.448900e+01
2.242205e+02	-2.453625e+01
2.255156e+02	-2.458918e+01
2.268182e+02	-2.463726e+01
2.281283e+02	-2.468602e+01
2.294459e+02	-2.473510e+01
2.307712e+02	-2.478513e+01
2.321041e+02	-2.483611e+01
2.334447e+02	-2.488595e+01
2.347931e+02	-2.493544e+01
2.361493e+02	-2.498390e+01
2.375133e+02	-2.503353e+01
2.388851e+02	-2.508813e+01
2.402649e+02	-2.513300e+01
2.416527e+02	-2.518704e+01
2.430484e+02	-2.523530e+01
2.444523e+02	-2.528534e+01
2.458642e+02	-2.533319e+01
2.472843e+02	-2.538636e+01
2.487126e+02	-2.543532e+01
2.501492e+02	-2.548602e+01
2.515940e+02	-2.553473e+01
2.530472e+02	-2.558490e+01
2.545088e+02	-2.563619e+01
2.559789e+02	-2.568633e+01
2.574574e+02	-2.573436e+01
2.589444e+02	-2.578180e+01
2.604401e+02	-2.583531e+01
2.619444e+02	-2.588328e+01
2.634574e+02	-2.593625e+01
2.649791e+02	-2.598522e+01
2.665096e+02	-2.603452e+01
2.680489e+02	-2.608415e+01
2.695972e+02	-2.613399e+01
2.711544e+02	-2.618292e+01
2.727205e+02	-2.623530e+01
2.742958e+02	-2.628210e+01
2.758801e+02	-2.633446e+01
2.774736e+02	-2.638693e+01
2.790762e+02	-2.643650e+01
2.806882e+02	-2.648636e+01
2.823094e+02	-2.653386e+01
2.839400e+02	-2.658440e+01
2.855800e+02	-2.663726e+01
2.872295e+02	-2.668593e+01
2.888886e+02	-2.673128e+01
2.905572e+02	-2.678513e+01
2.922354e+02	-2.683309e+01
2.939234e+02	-2.688412e+01
2.956211e+02	-2.693615e+01
2.973286e+02	-2.698429e+01
2.990459e+02	-2.702997e+01
3.007732e+02	-2.708610e+01
3.025104e+02	-2.713361e+01
3.042577e+02	-2.718703e+01
3.060151e+02	-2.723587e+01
3.077826e+02	-2.728442e+01
3.095604e+02	-2.733433e+01
3.113484e+02	-2.738564e+01
3.131467e+02	-2.743330e+01
3.149554e+02	-2.748842e+01
3.167746e+02	-2.753284e+01
3.186043e+02	-2.758503e+01
3.204445e+02	-2.763500e+01
3.222954e+02	-2.768286e+01
3.241570e+02	-2.773514e+01
3.260293e+02	-2.778189e+01
3.279124e+02	-2.783712e+01
3.298064e+02	-2.788063e+01
3.317114e+02	-2.793595e+01
3.336273e+02	-2.798524e+01
3.355544e+02	-2.802556e+01
3.374925e+02	-2.808286e+01
3.394418e+02	-2.812984e+01
3.414024e+02	-2.818130e+01
3.433744e+02	-2.823615e+01
3.453577e+02	-2.828712e+01
3.473525e+02	-2.833440e+01
3.493588e+02	-2.838457e+01
3.513766e+02	-2.843491e+01
3.534062e+02	-2.848089e+01
3.554474e+02	-2.853347e+01
3.575005e+02	-2.858465e+01
3.595654e+02	-2.863418e+01
3.616422e+02	-2.868492e+01
3.637311e+02	-2.873146e+01
3.658320e+02	-2.878553e+01
3.679450e+02	-2.883655e+01
3.700702e+02	-2.888546e+01
3.722077e+02	-2.893242e+01
3.743576e+02	-2.898556e+01
3.765199e+02	-2.903489e+01
3.786946e+02	-2.908805e+01
3.808820e+02	-2.913308e+01
3.830819e+02	-2.918147e+01
3.852946e+02	-2.923467e+01
3.875200e+02	-2.928536e+01
3.897583e+02	-2.933431e+01
3.920096e+02	-2.938781e+01
3.942738e+02	-2.943868e+01
3.965511e+02	-2.948700e+01
3.988416e+02	-2.953644e+01
4.011452e+02	-2.958650e+01
4.034622e+02	-2.963629e+01
4.057926e+02	-2.968423e+01
4.081365e+02	-2.974081e+01
4.104938e+02	-2.978769e+01
4.128648e+02	-2.983378e+01
4.152495e+02	-2.988750e+01
4.176480e+02	-2.993708e+01
4.200603e+02	-2.998029e+01
4.224866e+02	-3.003381e+01
4.249268e+02	-3.008157e+01
4.273812e+02	-3.013054e+01
4.298497e+02	-3.018685e+01
4.323325e+02	-3.023948e+01
4.348297e+02	-3.028744e+01
4.373412e+02	-3.033549e+01
4.398673e+02	-3.038439e+01
4.424079e+02	-3.043148e+01
4.449633e+02	-3.049176e+01
4.475334e+02	-3.053889e+01
4.501183e+02	-3.058698e+01
4.527182e+02	-3.063939e+01
4.553330e+02	-3.069101e+01
4.579630e+02	-3.073921e+01
4.606082e+02	-3.078494e+01
4.632687e+02	-3.083801e+01
4.659445e+02	-3.088933e+01
4.686358e+02	-3.094009e+01
4.713426e+02	-3.098932e+01
4.740650e+02	-3.103919e+01
4.768032e+02	-3.109239e+01
4.795572e+02	-3.113220e+01
4.823271e+02	-3.119480e+01
4.851130e+02	-3.124185e+01
4.879150e+02	-3.128530e+01
4.907332e+02	-3.133554e+01
4.935676e+02	-3.138791e+01
4.964185e+02	-3.144097e+01
4.992858e+02	-3.149164e+01
5.021696e+02	-3.153382e+01
5.050701e+02	-3.159251e+01
5.079874e+02	-3.163625e+01
5.109215e+02	-3.169271e+01
5.138726e+02	-3.174109e+01
5.168407e+02	-3.179593e+01
5.198259e+02	-3.184115e+01
5.228284e+02	-3.189592e+01
5.258482e+02	-3.193578e+01
5.288855e+02	-3.199047e+01
5.319403e+02	-3.204125e+01
5.350128e+02	-3.209356e+01
5.381030e+02	-3.214195e+01
5.412111e+02	-3.219533e+01
5.443371e+02	-3.224545e+01
5.474812e+02	-3.228771e+01
5.506434e+02	-3.234479e+01
5.538239e+02	-3.238888e+01
5.570228e+02	-3.244445e+01
5.602401e+02	-3.249793e+01
5.634760e+02	-3.254456e+01
5.667306e+02	-3.259303e+01
5.700040e+02	-3.264534e+01
5.732964e+02	-3.269857e+01
5.766077e+02	-3.274458e+01
5.799382e+02	-3.280209e+01
5.832879e+02	-3.284689e+01
5.866569e+02	-3.289659e+01
5.900454e+02	-3.295130e+01
5.934535e+02	-3.299061e+01
5.968813e+02	-3.304202e+01
6.003288e+02	-3.309181e+01
6.037963e+02	-3.314627e+01
6.072838e+02	-3.319632e+01
6.107914e+02	-3.324790e+01
6.143194e+02	-3.330399e+01
6.178676e+02	-3.334442e+01
6.214364e+02	-3.340184e+01
6.250258e+02	-3.344716e+01
6.286359e+02	-3.349898e+01
6.322669e+02	-3.354775e+01
6.359189e+02	-3.360664e+01
6.395919e+02	-3.364804e+01
6.432862e+02	-3.369420e+01
6.470017e+02	-3.376059e+01
6.507388e+02	-3.379795e+01
6.544974e+02	-3.385055e+01
6.582778e+02	-3.389701e+01
6.620800e+02	-3.395133e+01
6.659041e+02	-3.400501e+01
6.697504e+02	-3.404553e+01
6.736188e+02	-3.410089e+01
6.775096e+02	-3.415549e+01
6.814229e+02	-3.420198e+01
6.853587e+02	-3.424836e+01
6.893173e+02	-3.431338e+01
6.932988e+02	-3.435629e+01
6.973033e+02	-3.440520e+01
7.013309e+02	-3.445955e+01
