Frequency(Hz)	Magnitude(dB)
1.000000e+01	-1.607167e-05
1.005776e+01	-1.625787e-05
1.011585e+01	-1.644622e-05
1.017428e+01	-1.663675e-05
1.023305e+01	-1.682949e-05
1.029215e+01	-1.702447e-05
1.035160e+01	-1.722170e-05
1.041139e+01	-1.742122e-05
1.047153e+01	-1.762305e-05
1.053201e+01	-1.782722e-05
1.059284e+01	-1.803375e-05
1.065403e+01	-1.824267e-05
1.071556e+01	-1.845402e-05
1.077746e+01	-1.866781e-05
1.083971e+01	-1.888409e-05
1.090232e+01	-1.910286e-05
1.096529e+01	-1.932417e-05
1.102862e+01	-1.954805e-05
1.109232e+01	-1.977452e-05
1.115639e+01	-2.000361e-05
1.122083e+01	-2.023536e-05
1.128564e+01	-2.046979e-05
1.135083e+01	-2.070694e-05
1.141639e+01	-2.094683e-05
1.148233e+01	-2.118951e-05
1.154865e+01	-2.143499e-05
1.161536e+01	-2.168332e-05
1.168245e+01	-2.193453e-05
1.174992e+01	-2.218865e-05
1.181779e+01	-2.244571e-05
1.188605e+01	-2.270575e-05
1.195470e+01	-2.296880e-05
1.202375e+01	-2.323490e-05
1.209320e+01	-2.350408e-05
1.216305e+01	-2.377638e-05
1.223330e+01	-2.405184e-05
1.230396e+01	-2.433048e-05
1.237503e+01	-2.461236e-05
1.244651e+01	-2.489750e-05
1.251840e+01	-2.518594e-05
1.259070e+01	-2.547773e-05
1.266343e+01	-2.577289e-05
1.273657e+01	-2.607148e-05
1.281014e+01	-2.637352e-05
1.288413e+01	-2.667907e-05
1.295855e+01	-2.698815e-05
1.303339e+01	-2.730081e-05
1.310867e+01	-2.761710e-05
1.318439e+01	-2.793705e-05
1.326054e+01	-2.826071e-05
1.333713e+01	-2.858812e-05
1.341417e+01	-2.891932e-05
1.349165e+01	-2.925435e-05
1.356958e+01	-2.959327e-05
1.364795e+01	-2.993612e-05
1.372678e+01	-3.028293e-05
1.380607e+01	-3.063377e-05
1.388581e+01	-3.098867e-05
1.396602e+01	-3.134768e-05
1.404668e+01	-3.171085e-05
1.412782e+01	-3.207823e-05
1.420942e+01	-3.244986e-05
1.429149e+01	-3.282580e-05
1.437404e+01	-3.320610e-05
1.445706e+01	-3.359080e-05
1.454057e+01	-3.397995e-05
1.462455e+01	-3.437362e-05
1.470902e+01	-3.477185e-05
1.479398e+01	-3.517469e-05
1.487943e+01	-3.558219e-05
1.496537e+01	-3.599442e-05
1.505181e+01	-3.641142e-05
1.513875e+01	-3.683326e-05
1.522619e+01	-3.725998e-05
1.531414e+01	-3.769165e-05
1.540259e+01	-3.812831e-05
1.549156e+01	-3.857004e-05
1.558103e+01	-3.901688e-05
1.567103e+01	-3.946890e-05
1.576155e+01	-3.992616e-05
1.585258e+01	-4.038871e-05
1.594415e+01	-4.085662e-05
1.603624e+01	-4.132995e-05
1.612886e+01	-4.180877e-05
1.622202e+01	-4.229314e-05
1.631572e+01	-4.278311e-05
1.640996e+01	-4.327876e-05
1.650474e+01	-4.378016e-05
1.660008e+01	-4.428736e-05
1.669596e+01	-4.480044e-05
1.679239e+01	-4.531946e-05
1.688938e+01	-4.584450e-05
1.698694e+01	-4.637562e-05
1.708505e+01	-4.691289e-05
1.718373e+01	-4.745638e-05
1.728299e+01	-4.800618e-05
1.738281e+01	-4.856234e-05
1.748322e+01	-4.912494e-05
1.758420e+01	-4.969407e-05
1.768576e+01	-5.026978e-05
1.778792e+01	-5.085217e-05
1.789066e+01	-5.144130e-05
1.799399e+01	-5.203726e-05
1.809793e+01	-5.264012e-05
1.820246e+01	-5.324997e-05
1.830760e+01	-5.386688e-05
1.841334e+01	-5.449094e-05
1.851969e+01	-5.512223e-05
1.862666e+01	-5.576083e-05
1.873425e+01	-5.640683e-05
1.884246e+01	-5.706032e-05
1.895129e+01	-5.772137e-05
1.906075e+01	-5.839008e-05
1.917085e+01	-5.906655e-05
1.928158e+01	-5.975084e-05
1.939295e+01	-6.044307e-05
1.950496e+01	-6.114331e-05
1.961762e+01	-6.185167e-05
1.973093e+01	-6.256823e-05
1.984490e+01	-6.329310e-05
1.995952e+01	-6.402636e-05
2.007480e+01	-6.476812e-05
2.019076e+01	-6.551847e-05
2.030738e+01	-6.627752e-05
2.042467e+01	-6.704535e-05
2.054264e+01	-6.782209e-05
2.066130e+01	-6.860782e-05
2.078064e+01	-6.940265e-05
2.090066e+01	-7.020670e-05
2.102139e+01	-7.102005e-05
2.114280e+01	-7.184283e-05
2.126492e+01	-7.267515e-05
2.138775e+01	-7.351710e-05
2.151128e+01	-7.436881e-05
2.163553e+01	-7.523039e-05
2.176050e+01	-7.610194e-05
2.188619e+01	-7.698360e-05
2.201260e+01	-7.787547e-05
2.213974e+01	-7.877767e-05
2.226762e+01	-7.969032e-05
2.239624e+01	-8.061355e-05
2.252560e+01	-8.154747e-05
2.265571e+01	-8.249221e-05
2.278656e+01	-8.344789e-05
2.291818e+01	-8.441465e-05
2.305055e+01	-8.539261e-05
2.318369e+01	-8.638190e-05
2.331760e+01	-8.738265e-05
2.345228e+01	-8.839499e-05
2.358774e+01	-8.941906e-05
2.372398e+01	-9.045499e-05
2.386101e+01	-9.150293e-05
2.399883e+01	-9.256300e-05
2.413745e+01	-9.363536e-05
2.427686e+01	-9.472014e-05
2.441709e+01	-9.581749e-05
2.455812e+01	-9.692755e-05
2.469997e+01	-9.805047e-05
2.484263e+01	-9.918640e-05
2.498612e+01	-1.003355e-04
2.513044e+01	-1.014979e-04
2.527559e+01	-1.026738e-04
2.542158e+01	-1.038632e-04
2.556842e+01	-1.050665e-04
2.571610e+01	-1.062837e-04
2.586463e+01	-1.075150e-04
2.601403e+01	-1.087606e-04
2.616428e+01	-1.100206e-04
2.631541e+01	-1.112952e-04
2.646740e+01	-1.125846e-04
2.662028e+01	-1.138889e-04
2.677404e+01	-1.152083e-04
2.692868e+01	-1.165430e-04
2.708422e+01	-1.178932e-04
2.724066e+01	-1.192590e-04
2.739800e+01	-1.206406e-04
2.755625e+01	-1.220383e-04
2.771541e+01	-1.234521e-04
2.787550e+01	-1.248823e-04
2.803650e+01	-1.263291e-04
2.819844e+01	-1.277926e-04
2.836131e+01	-1.292731e-04
2.852513e+01	-1.307707e-04
2.868989e+01	-1.322857e-04
2.885560e+01	-1.338183e-04
2.902227e+01	-1.353686e-04
2.918990e+01	-1.369368e-04
2.935850e+01	-1.385232e-04
2.952807e+01	-1.401281e-04
2.969863e+01	-1.417514e-04
2.987016e+01	-1.433937e-04
3.004269e+01	-1.450549e-04
3.021622e+01	-1.467354e-04
3.039075e+01	-1.484353e-04
3.056628e+01	-1.501549e-04
3.074283e+01	-1.518945e-04
3.092040e+01	-1.536542e-04
3.109900e+01	-1.554343e-04
3.127862e+01	-1.572350e-04
3.145929e+01	-1.590566e-04
3.164099e+01	-1.608993e-04
3.182375e+01	-1.627633e-04
3.200756e+01	-1.646489e-04
3.219244e+01	-1.665564e-04
3.237838e+01	-1.684859e-04
3.256540e+01	-1.704379e-04
3.275349e+01	-1.724124e-04
3.294268e+01	-1.744098e-04
3.313295e+01	-1.764303e-04
3.332433e+01	-1.784743e-04
3.351681e+01	-1.805419e-04
3.371040e+01	-1.826335e-04
3.390511e+01	-1.847493e-04
3.410094e+01	-1.868897e-04
3.429791e+01	-1.890548e-04
3.449601e+01	-1.912450e-04
3.469526e+01	-1.934606e-04
3.489566e+01	-1.957018e-04
3.509721e+01	-1.979690e-04
3.529993e+01	-2.002625e-04
3.550382e+01	-2.025825e-04
3.570889e+01	-2.049294e-04
3.591515e+01	-2.073036e-04
3.612259e+01	-2.097052e-04
3.633123e+01	-2.121346e-04
3.654108e+01	-2.145922e-04
3.675214e+01	-2.170782e-04
3.696442e+01	-2.195931e-04
3.717792e+01	-2.221371e-04
3.739266e+01	-2.247105e-04
3.760864e+01	-2.273138e-04
3.782587e+01	-2.299472e-04
3.804435e+01	-2.326111e-04
3.826409e+01	-2.353059e-04
3.848510e+01	-2.380319e-04
3.870739e+01	-2.407895e-04
3.893096e+01	-2.435791e-04
3.915583e+01	-2.464009e-04
3.938199e+01	-2.492554e-04
3.960946e+01	-2.521431e-04
3.983824e+01	-2.550641e-04
4.006834e+01	-2.580190e-04
4.029978e+01	-2.610082e-04
4.053255e+01	-2.640319e-04
4.076666e+01	-2.670907e-04
4.100213e+01	-2.701849e-04
4.123896e+01	-2.733150e-04
4.147715e+01	-2.764813e-04
4.171672e+01	-2.796843e-04
4.195767e+01	-2.829245e-04
4.220002e+01	-2.862021e-04
4.244377e+01	-2.895177e-04
4.268892e+01	-2.928718e-04
4.293549e+01	-2.962646e-04
4.318348e+01	-2.996968e-04
4.343291e+01	-3.031688e-04
4.368377e+01	-3.066809e-04
4.393609e+01	-3.102338e-04
4.418986e+01	-3.138278e-04
4.444510e+01	-3.174635e-04
4.470182e+01	-3.211412e-04
4.496001e+01	-3.248616e-04
4.521970e+01	-3.286251e-04
4.548089e+01	-3.324321e-04
4.574358e+01	-3.362833e-04
4.600779e+01	-3.401791e-04
4.627353e+01	-3.441200e-04
4.654081e+01	-3.481066e-04
4.680963e+01	-3.521393e-04
4.708000e+01	-3.562188e-04
4.735193e+01	-3.603455e-04
4.762543e+01	-3.645200e-04
4.790051e+01	-3.687429e-04
4.817719e+01	-3.730147e-04
4.845545e+01	-3.773360e-04
4.873533e+01	-3.817074e-04
4.901682e+01	-3.861294e-04
4.929994e+01	-3.906026e-04
4.958470e+01	-3.951276e-04
4.987110e+01	-3.997051e-04
5.015915e+01	-4.043355e-04
5.044887e+01	-4.090197e-04
5.074026e+01	-4.137580e-04
5.103333e+01	-4.185513e-04
5.132810e+01	-4.234001e-04
5.162457e+01	-4.283051e-04
5.192275e+01	-4.332669e-04
5.222265e+01	-4.382861e-04
5.252429e+01	-4.433635e-04
5.282767e+01	-4.484997e-04
5.313280e+01	-4.536955e-04
5.343969e+01	-4.589514e-04
5.374836e+01	-4.642682e-04
5.405880e+01	-4.696466e-04
5.437105e+01	-4.750872e-04
5.468509e+01	-4.805910e-04
5.500095e+01	-4.861584e-04
5.531863e+01	-4.917904e-04
5.563815e+01	-4.974876e-04
5.595951e+01	-5.032508e-04
5.628273e+01	-5.090807e-04
5.660782e+01	-5.149782e-04
5.693479e+01	-5.209440e-04
5.726364e+01	-5.269790e-04
5.759439e+01	-5.330838e-04
5.792705e+01	-5.392593e-04
5.826164e+01	-5.455064e-04
5.859815e+01	-5.518258e-04
5.893662e+01	-5.582185e-04
5.927703e+01	-5.646852e-04
5.961941e+01	-5.712268e-04
5.996377e+01	-5.778441e-04
6.031012e+01	-5.845382e-04
6.065847e+01	-5.913098e-04
6.100883e+01	-5.981598e-04
6.136121e+01	-6.050891e-04
6.171563e+01	-6.120988e-04
6.207210e+01	-6.191896e-04
6.243063e+01	-6.263626e-04
6.279122e+01	-6.336186e-04
6.315390e+01	-6.409587e-04
6.351868e+01	-6.483838e-04
6.388556e+01	-6.558950e-04
6.425456e+01	-6.634931e-04
6.462569e+01	-6.711793e-04
6.499897e+01	-6.789545e-04
6.537440e+01	-6.868197e-04
6.575200e+01	-6.947761e-04
6.613178e+01	-7.028246e-04
6.651375e+01	-7.109663e-04
6.689793e+01	-7.192024e-04
6.728433e+01	-7.275339e-04
6.767297e+01	-7.359618e-04
6.806384e+01	-7.444874e-04
6.845698e+01	-7.531118e-04
6.885238e+01	-7.618360e-04
6.925007e+01	-7.706613e-04
6.965005e+01	-7.795888e-04
7.005235e+01	-7.886197e-04
7.045697e+01	-7.977553e-04
7.086393e+01	-8.069966e-04
7.127323e+01	-8.163450e-04
7.168490e+01	-8.258017e-04
7.209895e+01	-8.353679e-04
7.251539e+01	-8.450450e-04
7.293424e+01	-8.548341e-04
7.335551e+01	-8.647366e-04
7.377920e+01	-8.747538e-04
7.420535e+01	-8.848870e-04
7.463396e+01	-8.951376e-04
7.506504e+01	-9.055069e-04
7.549861e+01	-9.159964e-04
7.593469e+01	-9.266073e-04
7.637328e+01	-9.373412e-04
7.681441e+01	-9.481993e-04
7.725809e+01	-9.591833e-04
7.770433e+01	-9.702944e-04
7.815315e+01	-9.815343e-04
7.860456e+01	-9.929043e-04
7.905857e+01	-1.004406e-03
7.951521e+01	-1.016041e-03
7.997449e+01	-1.027811e-03
8.043642e+01	-1.039717e-03
8.090102e+01	-1.051761e-03
8.136830e+01	-1.063944e-03
8.183828e+01	-1.076269e-03
8.231097e+01	-1.088736e-03
8.278640e+01	-1.101348e-03
8.326457e+01	-1.114105e-03
8.374550e+01	-1.127011e-03
8.422921e+01	-1.140066e-03
8.471572e+01	-1.153272e-03
8.520503e+01	-1.166631e-03
8.569717e+01	-1.180145e-03
8.619215e+01	-1.193816e-03
8.669000e+01	-1.207645e-03
8.719071e+01	-1.221633e-03
8.769432e+01	-1.235784e-03
8.820084e+01	-1.250099e-03
8.871029e+01	-1.264580e-03
8.922267e+01	-1.279228e-03
8.973802e+01	-1.294046e-03
9.025634e+01	-1.309036e-03
9.077766e+01	-1.324199e-03
9.130199e+01	-1.339538e-03
9.182935e+01	-1.355054e-03
9.235975e+01	-1.370751e-03
9.289321e+01	-1.386628e-03
9.342976e+01	-1.402690e-03
9.396941e+01	-1.418938e-03
9.451217e+01	-1.435374e-03
9.505807e+01	-1.452001e-03
9.560712e+01	-1.468820e-03
9.615934e+01	-1.485833e-03
9.671476e+01	-1.503044e-03
9.727338e+01	-1.520454e-03
9.783522e+01	-1.538066e-03
9.840032e+01	-1.555882e-03
9.896867e+01	-1.573904e-03
9.954031e+01	-1.592135e-03
1.001153e+02	-1.610577e-03
1.006935e+02	-1.629232e-03
1.012751e+02	-1.648104e-03
1.018601e+02	-1.667194e-03
1.024484e+02	-1.686505e-03
1.030402e+02	-1.706039e-03
1.036353e+02	-1.725800e-03
1.042339e+02	-1.745790e-03
1.048360e+02	-1.766012e-03
1.054415e+02	-1.786467e-03
1.060505e+02	-1.807160e-03
1.066631e+02	-1.828092e-03
1.072791e+02	-1.849266e-03
1.078988e+02	-1.870686e-03
1.085220e+02	-1.892353e-03
1.091488e+02	-1.914272e-03
1.097793e+02	-1.936444e-03
1.104133e+02	-1.958873e-03
1.110511e+02	-1.981562e-03
1.116925e+02	-2.004514e-03
1.123376e+02	-2.027731e-03
1.129865e+02	-2.051218e-03
1.136391e+02	-2.074976e-03
1.142955e+02	-2.099009e-03
1.149556e+02	-2.123321e-03
1.156196e+02	-2.147914e-03
1.162874e+02	-2.172792e-03
1.169591e+02	-2.197958e-03
1.176347e+02	-2.223415e-03
1.183141e+02	-2.249167e-03
1.189975e+02	-2.275218e-03
1.196848e+02	-2.301570e-03
1.203761e+02	-2.328227e-03
1.210714e+02	-2.355193e-03
1.217707e+02	-2.382471e-03
1.224740e+02	-2.410065e-03
1.231814e+02	-2.437978e-03
1.238929e+02	-2.466215e-03
1.246085e+02	-2.494778e-03
1.253283e+02	-2.523672e-03
1.260522e+02	-2.552901e-03
1.267802e+02	-2.582468e-03
1.275125e+02	-2.612378e-03
1.282490e+02	-2.642634e-03
1.289898e+02	-2.673240e-03
1.297348e+02	-2.704201e-03
1.304842e+02	-2.735520e-03
1.312378e+02	-2.767201e-03
1.319959e+02	-2.799250e-03
1.327583e+02	-2.831669e-03
1.335251e+02	-2.864464e-03
1.342963e+02	-2.897638e-03
1.350720e+02	-2.931197e-03
1.358522e+02	-2.965144e-03
1.366368e+02	-2.999484e-03
1.374260e+02	-3.034222e-03
1.382198e+02	-3.069361e-03
1.390182e+02	-3.104908e-03
1.398211e+02	-3.140866e-03
1.406287e+02	-3.177241e-03
1.414410e+02	-3.214036e-03
1.422579e+02	-3.251258e-03
1.430796e+02	-3.288910e-03
1.439060e+02	-3.326998e-03
1.447372e+02	-3.365528e-03
1.455732e+02	-3.404503e-03
1.464141e+02	-3.443929e-03
1.472597e+02	-3.483812e-03
1.481103e+02	-3.524156e-03
1.489658e+02	-3.564968e-03
1.498262e+02	-3.606252e-03
1.506916e+02	-3.648014e-03
1.515620e+02	-3.690259e-03
1.524374e+02	-3.732993e-03
1.533179e+02	-3.776222e-03
1.542034e+02	-3.819951e-03
1.550941e+02	-3.864186e-03
1.559899e+02	-3.908934e-03
1.568909e+02	-3.954199e-03
1.577971e+02	-3.999988e-03
1.587085e+02	-4.046308e-03
1.596252e+02	-4.093163e-03
1.605472e+02	-4.140561e-03
1.614745e+02	-4.188507e-03
1.624072e+02	-4.237008e-03
1.633453e+02	-4.286071e-03
1.642887e+02	-4.335701e-03
1.652377e+02	-4.385906e-03
1.661921e+02	-4.436692e-03
1.671520e+02	-4.488066e-03
1.681175e+02	-4.540034e-03
1.690885e+02	-4.592603e-03
1.700651e+02	-4.645781e-03
1.710474e+02	-4.699575e-03
1.720354e+02	-4.753991e-03
1.730291e+02	-4.809036e-03
1.740285e+02	-4.864719e-03
1.750337e+02	-4.921046e-03
1.760446e+02	-4.978025e-03
1.770615e+02	-5.035663e-03
1.780842e+02	-5.093968e-03
1.791128e+02	-5.152948e-03
1.801473e+02	-5.212610e-03
1.811878e+02	-5.272963e-03
1.822344e+02	-5.334014e-03
1.832870e+02	-5.395771e-03
1.843456e+02	-5.458243e-03
1.854104e+02	-5.521438e-03
1.864813e+02	-5.585364e-03
1.875584e+02	-5.650030e-03
1.886418e+02	-5.715444e-03
1.897313e+02	-5.781614e-03
1.908272e+02	-5.848551e-03
1.919294e+02	-5.916261e-03
1.930380e+02	-5.984755e-03
1.941530e+02	-6.054042e-03
1.952744e+02	-6.124130e-03
1.964023e+02	-6.195029e-03
1.975367e+02	-6.266748e-03
1.986777e+02	-6.339297e-03
1.998252e+02	-6.412685e-03
2.009794e+02	-6.486922e-03
2.021403e+02	-6.562017e-03
2.033078e+02	-6.637982e-03
2.044821e+02	-6.714825e-03
2.056632e+02	-6.792557e-03
2.068511e+02	-6.871188e-03
2.080459e+02	-6.950728e-03
2.092475e+02	-7.031189e-03
2.104561e+02	-7.112580e-03
2.116717e+02	-7.194913e-03
2.128943e+02	-7.278198e-03
2.141240e+02	-7.362446e-03
2.153608e+02	-7.447668e-03
2.166047e+02	-7.533876e-03
2.178558e+02	-7.621081e-03
2.191141e+02	-7.709295e-03
2.203797e+02	-7.798528e-03
2.216526e+02	-7.888794e-03
2.229329e+02	-7.980103e-03
2.242205e+02	-8.072469e-03
2.255156e+02	-8.165902e-03
2.268182e+02	-8.260416e-03
2.281283e+02	-8.356023e-03
2.294459e+02	-8.452735e-03
2.307712e+02	-8.550565e-03
2.321041e+02	-8.649527e-03
2.334447e+02	-8.749632e-03
2.347931e+02	-8.850895e-03
2.361493e+02	-8.953329e-03
2.375133e+02	-9.056947e-03
2.388851e+02	-9.161763e-03
2.402649e+02	-9.267791e-03
2.416527e+02	-9.375044e-03
2.430484e+02	-9.483538e-03
2.444523e+02	-9.593285e-03
2.458642e+02	-9.704301e-03
2.472843e+02	-9.816600e-03
2.487126e+02	-9.930198e-03
2.501492e+02	-1.004511e-02
2.515940e+02	-1.016135e-02
2.530472e+02	-1.027893e-02
2.545088e+02	-1.039787e-02
2.559789e+02	-1.051819e-02
2.574574e+02	-1.063989e-02
2.589444e+02	-1.076300e-02
2.604401e+02	-1.088754e-02
2.619444e+02	-1.101351e-02
2.634574e+02	-1.114094e-02
2.649791e+02	-1.126985e-02
2.665096e+02	-1.140024e-02
2.680489e+02	-1.153214e-02
2.695972e+02	-1.166556e-02
2.711544e+02	-1.180052e-02
2.727205e+02	-1.193705e-02
2.742958e+02	-1.207515e-02
2.758801e+02	-1.221484e-02
2.774736e+02	-1.235615e-02
2.790762e+02	-1.249910e-02
2.806882e+02	-1.264369e-02
2.823094e+02	-1.278995e-02
2.839400e+02	-1.293791e-02
2.855800e+02	-1.308757e-02
2.872295e+02	-1.323896e-02
2.888886e+02	-1.339210e-02
2.905572e+02	-1.354701e-02
2.922354e+02	-1.370370e-02
2.939234e+02	-1.386221e-02
2.956211e+02	-1.402255e-02
2.973286e+02	-1.418474e-02
2.990459e+02	-1.434880e-02
3.007732e+02	-1.451475e-02
3.025104e+02	-1.468263e-02
3.042577e+02	-1.485244e-02
3.060151e+02	-1.502421e-02
3.077826e+02	-1.519796e-02
3.095604e+02	-1.537372e-02
3.113484e+02	-1.555151e-02
3.131467e+02	-1.573135e-02
3.149554e+02	-1.591326e-02
3.167746e+02	-1.609728e-02
3.186043e+02	-1.628342e-02
3.204445e+02	-1.647171e-02
3.222954e+02	-1.666217e-02
3.241570e+02	-1.685483e-02
3.260293e+02	-1.704971e-02
3.279124e+02	-1.724684e-02
3.298064e+02	-1.744625e-02
3.317114e+02	-1.764796e-02
3.336273e+02	-1.785199e-02
3.355544e+02	-1.805838e-02
3.374925e+02	-1.826715e-02
3.394418e+02	-1.847833e-02
3.414024e+02	-1.869194e-02
3.433744e+02	-1.890802e-02
3.453577e+02	-1.912659e-02
3.473525e+02	-1.934768e-02
3.493588e+02	-1.957132e-02
3.513766e+02	-1.979754e-02
3.534062e+02	-2.002637e-02
3.554474e+02	-2.025784e-02
3.575005e+02	-2.049197e-02
3.595654e+02	-2.072881e-02
3.616422e+02	-2.096838e-02
3.637311e+02	-2.121070e-02
3.658320e+02	-2.145583e-02
3.679450e+02	-2.170377e-02
3.700702e+02	-2.195458e-02
3.722077e+02	-2.220828e-02
3.743576e+02	-2.246490e-02
3.765199e+02	-2.272448e-02
3.786946e+02	-2.298705e-02
3.808820e+02	-2.325264e-02
3.830819e+02	-2.352130e-02
3.852946e+02	-2.379305e-02
3.875200e+02	-2.406793e-02
3.897583e+02	-2.434598e-02
3.920096e+02	-2.462723e-02
3.942738e+02	-2.491172e-02
3.965511e+02	-2.519949e-02
3.988416e+02	-2.549057e-02
4.011452e+02	-2.578501e-02
4.034622e+02	-2.608283e-02
4.057926e+02	-2.638409e-02
4.081365e+02	-2.668881e-02
4.104938e+02	-2.699704e-02
4.128648e+02	-2.730883e-02
4.152495e+02	-2.762420e-02
4.176480e+02	-2.794320e-02
4.200603e+02	-2.826587e-02
4.224866e+02	-2.859225e-02
4.249268e+02	-2.892240e-02
4.273812e+02	-2.925634e-02
4.298497e+02	-2.959412e-02
4.323325e+02	-2.993579e-02
4.348297e+02	-3.028139e-02
4.373412e+02	-3.063097e-02
4.398673e+02	-3.098456e-02
4.424079e+02	-3.134223e-02
4.449633e+02	-3.170401e-02
4.475334e+02	-3.206995e-02
4.501183e+02	-3.244009e-02
4.527182e+02	-3.281449e-02
4.553330e+02	-3.319320e-02
4.579630e+02	-3.357626e-02
4.606082e+02	-3.396373e-02
4.632687e+02	-3.435564e-02
4.659445e+02	-3.475206e-02
4.686358e+02	-3.515304e-02
4.713426e+02	-3.555863e-02
4.740650e+02	-3.596887e-02
4.768032e+02	-3.638383e-02
4.795572e+02	-3.680355e-02
4.823271e+02	-3.722810e-02
4.851130e+02	-3.765752e-02
4.879150e+02	-3.809187e-02
4.907332e+02	-3.853122e-02
4.935676e+02	-3.897560e-02
4.964185e+02	-3.942509e-02
4.992858e+02	-3.987973e-02
5.021696e+02	-4.033960e-02
5.050701e+02	-4.080474e-02
5.079874e+02	-4.127522e-02
5.109215e+02	-4.175110e-02
5.138726e+02	-4.223244e-02
5.168407e+02	-4.271930e-02
5.198259e+02	-4.321175e-02
5.228284e+02	-4.370984e-02
5.258482e+02	-4.421365e-02
5.288855e+02	-4.472323e-02
5.319403e+02	-4.523866e-02
5.350128e+02	-4.575999e-02
5.381030e+02	-4.628730e-02
5.412111e+02	-4.682065e-02
5.443371e+02	-4.736012e-02
5.474812e+02	-4.790576e-02
5.506434e+02	-4.845766e-02
5.538239e+02	-4.901588e-02
5.570228e+02	-4.958050e-02
5.602401e+02	-5.015157e-02
5.634760e+02	-5.072919e-02
5.667306e+02	-5.131343e-02
5.700040e+02	-5.190434e-02
5.732964e+02	-5.250203e-02
5.766077e+02	-5.310655e-02
5.799382e+02	-5.371799e-02
5.832879e+02	-5.433643e-02
5.866569e+02	-5.496194e-02
5.900454e+02	-5.559461e-02
5.934535e+02	-5.623451e-02
5.968813e+02	-5.688173e-02
6.003288e+02	-5.753634e-02
6.037963e+02	-5.819844e-02
6.072838e+02	-5.886811e-02
6.107914e+02	-5.954543e-02
6.143194e+02	-6.023049e-02
6.178676e+02	-6.092338e-02
6.214364e+02	-6.162417e-02
6.250258e+02	-6.233298e-02
6.286359e+02	-6.304987e-02
6.322669e+02	-6.377495e-02
6.359189e+02	-6.450831e-02
6.395919e+02	-6.525003e-02
6.432862e+02	-6.600022e-02
6.470017e+02	-6.675897e-02
6.507388e+02	-6.752637e-02
6.544974e+02	-6.830253e-02
6.582778e+02	-6.908753e-02
6.620800e+02	-6.988148e-02
6.659041e+02	-7.068449e-02
6.697504e+02	-7.149664e-02
6.736188e+02	-7.231805e-02
6.775096e+02	-7.314881e-02
6.814229e+02	-7.398904e-02
6.853587e+02	-7.483883e-02
6.893173e+02	-7.569830e-02
6.932988e+02	-7.656755e-02
6.973033e+02	-7.744670e-02
7.013309e+02	-7.833584e-02
