Frequency(Hz)	Magnitude(dB)
1.000000e+01	-1.709838e-05
1.005776e+01	-1.729647e-05
1.011585e+01	-1.749686e-05
1.017428e+01	-1.769956e-05
1.023305e+01	-1.790462e-05
1.029215e+01	-1.811205e-05
1.035160e+01	-1.832188e-05
1.041139e+01	-1.853414e-05
1.047153e+01	-1.874887e-05
1.053201e+01	-1.896608e-05
1.059284e+01	-1.918580e-05
1.065403e+01	-1.940808e-05
1.071556e+01	-1.963292e-05
1.077746e+01	-1.986038e-05
1.083971e+01	-2.009046e-05
1.090232e+01	-2.032322e-05
1.096529e+01	-2.055867e-05
1.102862e+01	-2.079684e-05
1.109232e+01	-2.103778e-05
1.115639e+01	-2.128151e-05
1.122083e+01	-2.152806e-05
1.128564e+01	-2.177747e-05
1.135083e+01	-2.202976e-05
1.141639e+01	-2.228498e-05
1.148233e+01	-2.254316e-05
1.154865e+01	-2.280433e-05
1.161536e+01	-2.306852e-05
1.168245e+01	-2.333578e-05
1.174992e+01	-2.360613e-05
1.181779e+01	-2.387961e-05
1.188605e+01	-2.415626e-05
1.195470e+01	-2.443612e-05
1.202375e+01	-2.471922e-05
1.209320e+01	-2.500560e-05
1.216305e+01	-2.529529e-05
1.223330e+01	-2.558834e-05
1.230396e+01	-2.588479e-05
1.237503e+01	-2.618467e-05
1.244651e+01	-2.648803e-05
1.251840e+01	-2.679490e-05
1.259070e+01	-2.710533e-05
1.266343e+01	-2.741935e-05
1.273657e+01	-2.773701e-05
1.281014e+01	-2.805835e-05
1.288413e+01	-2.838341e-05
1.295855e+01	-2.871224e-05
1.303339e+01	-2.904488e-05
1.310867e+01	-2.938137e-05
1.318439e+01	-2.972176e-05
1.326054e+01	-3.006609e-05
1.333713e+01	-3.041442e-05
1.341417e+01	-3.076677e-05
1.349165e+01	-3.112321e-05
1.356958e+01	-3.148378e-05
1.364795e+01	-3.184853e-05
1.372678e+01	-3.221750e-05
1.380607e+01	-3.259075e-05
1.388581e+01	-3.296832e-05
1.396602e+01	-3.335027e-05
1.404668e+01	-3.373664e-05
1.412782e+01	-3.412749e-05
1.420942e+01	-3.452286e-05
1.429149e+01	-3.492282e-05
1.437404e+01	-3.532741e-05
1.445706e+01	-3.573668e-05
1.454057e+01	-3.615070e-05
1.462455e+01	-3.656951e-05
1.470902e+01	-3.699318e-05
1.479398e+01	-3.742175e-05
1.487943e+01	-3.785529e-05
1.496537e+01	-3.829386e-05
1.505181e+01	-3.873750e-05
1.513875e+01	-3.918628e-05
1.522619e+01	-3.964026e-05
1.531414e+01	-4.009951e-05
1.540259e+01	-4.056407e-05
1.549156e+01	-4.103401e-05
1.558103e+01	-4.150940e-05
1.567103e+01	-4.199029e-05
1.576155e+01	-4.247676e-05
1.585258e+01	-4.296886e-05
1.594415e+01	-4.346667e-05
1.603624e+01	-4.397024e-05
1.612886e+01	-4.447964e-05
1.622202e+01	-4.499495e-05
1.631572e+01	-4.551623e-05
1.640996e+01	-4.604354e-05
1.650474e+01	-4.657697e-05
1.660008e+01	-4.711657e-05
1.669596e+01	-4.766243e-05
1.679239e+01	-4.821461e-05
1.688938e+01	-4.877318e-05
1.698694e+01	-4.933823e-05
1.708505e+01	-4.990982e-05
1.718373e+01	-5.048804e-05
1.728299e+01	-5.107296e-05
1.738281e+01	-5.166465e-05
1.748322e+01	-5.226319e-05
1.758420e+01	-5.286867e-05
1.768576e+01	-5.348117e-05
1.778792e+01	-5.410076e-05
1.789066e+01	-5.472753e-05
1.799399e+01	-5.536156e-05
1.809793e+01	-5.600293e-05
1.820246e+01	-5.665174e-05
1.830760e+01	-5.730806e-05
1.841334e+01	-5.797198e-05
1.851969e+01	-5.864360e-05
1.862666e+01	-5.932300e-05
1.873425e+01	-6.001027e-05
1.884246e+01	-6.070550e-05
1.895129e+01	-6.140878e-05
1.906075e+01	-6.212022e-05
1.917085e+01	-6.283989e-05
1.928158e+01	-6.356790e-05
1.939295e+01	-6.430435e-05
1.950496e+01	-6.504933e-05
1.961762e+01	-6.580294e-05
1.973093e+01	-6.656528e-05
1.984490e+01	-6.733645e-05
1.995952e+01	-6.811655e-05
2.007480e+01	-6.890570e-05
2.019076e+01	-6.970398e-05
2.030738e+01	-7.051151e-05
2.042467e+01	-7.132840e-05
2.054264e+01	-7.215476e-05
2.066130e+01	-7.299068e-05
2.078064e+01	-7.383629e-05
2.090066e+01	-7.469170e-05
2.102139e+01	-7.555702e-05
2.114280e+01	-7.643236e-05
2.126492e+01	-7.731784e-05
2.138775e+01	-7.821358e-05
2.151128e+01	-7.911970e-05
2.163553e+01	-8.003631e-05
2.176050e+01	-8.096355e-05
2.188619e+01	-8.190152e-05
2.201260e+01	-8.285037e-05
2.213974e+01	-8.381020e-05
2.226762e+01	-8.478116e-05
2.239624e+01	-8.576336e-05
2.252560e+01	-8.675694e-05
2.265571e+01	-8.776204e-05
2.278656e+01	-8.877878e-05
2.291818e+01	-8.980729e-05
2.305055e+01	-9.084772e-05
2.318369e+01	-9.190021e-05
2.331760e+01	-9.296489e-05
2.345228e+01	-9.404190e-05
2.358774e+01	-9.513139e-05
2.372398e+01	-9.623350e-05
2.386101e+01	-9.734838e-05
2.399883e+01	-9.847618e-05
2.413745e+01	-9.961704e-05
2.427686e+01	-1.007711e-04
2.441709e+01	-1.019386e-04
2.455812e+01	-1.031195e-04
2.469997e+01	-1.043142e-04
2.484263e+01	-1.055227e-04
2.498612e+01	-1.067452e-04
2.513044e+01	-1.079818e-04
2.527559e+01	-1.092328e-04
2.542158e+01	-1.104983e-04
2.556842e+01	-1.117784e-04
2.571610e+01	-1.130734e-04
2.586463e+01	-1.143834e-04
2.601403e+01	-1.157085e-04
2.616428e+01	-1.170490e-04
2.631541e+01	-1.184050e-04
2.646740e+01	-1.197768e-04
2.662028e+01	-1.211644e-04
2.677404e+01	-1.225681e-04
2.692868e+01	-1.239881e-04
2.708422e+01	-1.254245e-04
2.724066e+01	-1.268775e-04
2.739800e+01	-1.283474e-04
2.755625e+01	-1.298344e-04
2.771541e+01	-1.313385e-04
2.787550e+01	-1.328601e-04
2.803650e+01	-1.343993e-04
2.819844e+01	-1.359563e-04
2.836131e+01	-1.375314e-04
2.852513e+01	-1.391247e-04
2.868989e+01	-1.407364e-04
2.885560e+01	-1.423669e-04
2.902227e+01	-1.440162e-04
2.918990e+01	-1.456847e-04
2.935850e+01	-1.473724e-04
2.952807e+01	-1.490798e-04
2.969863e+01	-1.508069e-04
2.987016e+01	-1.525540e-04
3.004269e+01	-1.543213e-04
3.021622e+01	-1.561091e-04
3.039075e+01	-1.579177e-04
3.056628e+01	-1.597472e-04
3.074283e+01	-1.615978e-04
3.092040e+01	-1.634700e-04
3.109900e+01	-1.653638e-04
3.127862e+01	-1.672795e-04
3.145929e+01	-1.692175e-04
3.164099e+01	-1.711779e-04
3.182375e+01	-1.731610e-04
3.200756e+01	-1.751670e-04
3.219244e+01	-1.771964e-04
3.237838e+01	-1.792492e-04
3.256540e+01	-1.813258e-04
3.275349e+01	-1.834265e-04
3.294268e+01	-1.855515e-04
3.313295e+01	-1.877011e-04
3.332433e+01	-1.898756e-04
3.351681e+01	-1.920753e-04
3.371040e+01	-1.943005e-04
3.390511e+01	-1.965515e-04
3.410094e+01	-1.988285e-04
3.429791e+01	-2.011320e-04
3.449601e+01	-2.034621e-04
3.469526e+01	-2.058192e-04
3.489566e+01	-2.082036e-04
3.509721e+01	-2.106156e-04
3.529993e+01	-2.130556e-04
3.550382e+01	-2.155239e-04
3.570889e+01	-2.180207e-04
3.591515e+01	-2.205465e-04
3.612259e+01	-2.231015e-04
3.633123e+01	-2.256861e-04
3.654108e+01	-2.283007e-04
3.675214e+01	-2.309456e-04
3.696442e+01	-2.336210e-04
3.717792e+01	-2.363275e-04
3.739266e+01	-2.390654e-04
3.760864e+01	-2.418349e-04
3.782587e+01	-2.446366e-04
3.804435e+01	-2.474707e-04
3.826409e+01	-2.503376e-04
3.848510e+01	-2.532378e-04
3.870739e+01	-2.561715e-04
3.893096e+01	-2.591392e-04
3.915583e+01	-2.621414e-04
3.938199e+01	-2.651782e-04
3.960946e+01	-2.682503e-04
3.983824e+01	-2.713580e-04
4.006834e+01	-2.745016e-04
4.029978e+01	-2.776817e-04
4.053255e+01	-2.808986e-04
4.076666e+01	-2.841528e-04
4.100213e+01	-2.874447e-04
4.123896e+01	-2.907747e-04
4.147715e+01	-2.941433e-04
4.171672e+01	-2.975509e-04
4.195767e+01	-3.009980e-04
4.220002e+01	-3.044850e-04
4.244377e+01	-3.080124e-04
4.268892e+01	-3.115807e-04
4.293549e+01	-3.151903e-04
4.318348e+01	-3.188418e-04
4.343291e+01	-3.225355e-04
4.368377e+01	-3.262720e-04
4.393609e+01	-3.300518e-04
4.418986e+01	-3.338754e-04
4.444510e+01	-3.377433e-04
4.470182e+01	-3.416560e-04
4.496001e+01	-3.456140e-04
4.521970e+01	-3.496179e-04
4.548089e+01	-3.536682e-04
4.574358e+01	-3.577653e-04
4.600779e+01	-3.619100e-04
4.627353e+01	-3.661026e-04
4.654081e+01	-3.703439e-04
4.680963e+01	-3.746342e-04
4.708000e+01	-3.789743e-04
4.735193e+01	-3.833646e-04
4.762543e+01	-3.878058e-04
4.790051e+01	-3.922984e-04
4.817719e+01	-3.968431e-04
4.845545e+01	-4.014404e-04
4.873533e+01	-4.060910e-04
4.901682e+01	-4.107954e-04
4.929994e+01	-4.155544e-04
4.958470e+01	-4.203685e-04
4.987110e+01	-4.252383e-04
5.015915e+01	-4.301646e-04
5.044887e+01	-4.351479e-04
5.074026e+01	-4.401890e-04
5.103333e+01	-4.452884e-04
5.132810e+01	-4.504469e-04
5.162457e+01	-4.556652e-04
5.192275e+01	-4.609439e-04
5.222265e+01	-4.662838e-04
5.252429e+01	-4.716855e-04
5.282767e+01	-4.771499e-04
5.313280e+01	-4.826775e-04
5.343969e+01	-4.882691e-04
5.374836e+01	-4.939255e-04
5.405880e+01	-4.996474e-04
5.437105e+01	-5.054357e-04
5.468509e+01	-5.112909e-04
5.500095e+01	-5.172140e-04
5.531863e+01	-5.232057e-04
5.563815e+01	-5.292668e-04
5.595951e+01	-5.353982e-04
5.628273e+01	-5.416005e-04
5.660782e+01	-5.478747e-04
5.693479e+01	-5.542216e-04
5.726364e+01	-5.606420e-04
5.759439e+01	-5.671367e-04
5.792705e+01	-5.737067e-04
5.826164e+01	-5.803529e-04
5.859815e+01	-5.870759e-04
5.893662e+01	-5.938769e-04
5.927703e+01	-6.007567e-04
5.961941e+01	-6.077161e-04
5.996377e+01	-6.147562e-04
6.031012e+01	-6.218778e-04
6.065847e+01	-6.290819e-04
6.100883e+01	-6.363694e-04
6.136121e+01	-6.437414e-04
6.171563e+01	-6.511988e-04
6.207210e+01	-6.587425e-04
6.243063e+01	-6.663736e-04
6.279122e+01	-6.740932e-04
6.315390e+01	-6.819021e-04
6.351868e+01	-6.898015e-04
6.388556e+01	-6.977924e-04
6.425456e+01	-7.058759e-04
6.462569e+01	-7.140530e-04
6.499897e+01	-7.223248e-04
6.537440e+01	-7.306924e-04
6.575200e+01	-7.391569e-04
6.613178e+01	-7.477195e-04
6.651375e+01	-7.563813e-04
6.689793e+01	-7.651434e-04
6.728433e+01	-7.740070e-04
6.767297e+01	-7.829733e-04
6.806384e+01	-7.920435e-04
6.845698e+01	-8.012187e-04
6.885238e+01	-8.105001e-04
6.925007e+01	-8.198891e-04
6.965005e+01	-8.293868e-04
7.005235e+01	-8.389946e-04
7.045697e+01	-8.487136e-04
7.086393e+01	-8.585452e-04
7.127323e+01	-8.684907e-04
7.168490e+01	-8.785514e-04
7.209895e+01	-8.887286e-04
7.251539e+01	-8.990237e-04
7.293424e+01	-9.094380e-04
7.335551e+01	-9.199730e-04
7.377920e+01	-9.306300e-04
7.420535e+01	-9.414105e-04
7.463396e+01	-9.523158e-04
7.506504e+01	-9.633474e-04
7.549861e+01	-9.745068e-04
7.593469e+01	-9.857954e-04
7.637328e+01	-9.972148e-04
7.681441e+01	-1.008766e-03
7.725809e+01	-1.020452e-03
7.770433e+01	-1.032273e-03
7.815315e+01	-1.044230e-03
7.860456e+01	-1.056327e-03
7.905857e+01	-1.068563e-03
7.951521e+01	-1.080941e-03
7.997449e+01	-1.093462e-03
8.043642e+01	-1.106129e-03
8.090102e+01	-1.118942e-03
8.136830e+01	-1.131904e-03
8.183828e+01	-1.145015e-03
8.231097e+01	-1.158279e-03
8.278640e+01	-1.171696e-03
8.326457e+01	-1.185269e-03
8.374550e+01	-1.198998e-03
8.422921e+01	-1.212887e-03
8.471572e+01	-1.226937e-03
8.520503e+01	-1.241149e-03
8.569717e+01	-1.255526e-03
8.619215e+01	-1.270070e-03
8.669000e+01	-1.284782e-03
8.719071e+01	-1.299664e-03
8.769432e+01	-1.314718e-03
8.820084e+01	-1.329948e-03
8.871029e+01	-1.345353e-03
8.922267e+01	-1.360937e-03
8.973802e+01	-1.376701e-03
9.025634e+01	-1.392648e-03
9.077766e+01	-1.408780e-03
9.130199e+01	-1.425098e-03
9.182935e+01	-1.441605e-03
9.235975e+01	-1.458304e-03
9.289321e+01	-1.475196e-03
9.342976e+01	-1.492284e-03
9.396941e+01	-1.509569e-03
9.451217e+01	-1.527055e-03
9.505807e+01	-1.544743e-03
9.560712e+01	-1.562636e-03
9.615934e+01	-1.580736e-03
9.671476e+01	-1.599046e-03
9.727338e+01	-1.617568e-03
9.783522e+01	-1.636304e-03
9.840032e+01	-1.655258e-03
9.896867e+01	-1.674431e-03
9.954031e+01	-1.693826e-03
1.001153e+02	-1.713445e-03
1.006935e+02	-1.733292e-03
1.012751e+02	-1.753369e-03
1.018601e+02	-1.773678e-03
1.024484e+02	-1.794222e-03
1.030402e+02	-1.815004e-03
1.036353e+02	-1.836027e-03
1.042339e+02	-1.857293e-03
1.048360e+02	-1.878806e-03
1.054415e+02	-1.900568e-03
1.060505e+02	-1.922581e-03
1.066631e+02	-1.944850e-03
1.072791e+02	-1.967377e-03
1.078988e+02	-1.990164e-03
1.085220e+02	-2.013215e-03
1.091488e+02	-2.036533e-03
1.097793e+02	-2.060121e-03
1.104133e+02	-2.083983e-03
1.110511e+02	-2.108120e-03
1.116925e+02	-2.132538e-03
1.123376e+02	-2.157237e-03
1.129865e+02	-2.182223e-03
1.136391e+02	-2.207498e-03
1.142955e+02	-2.233066e-03
1.149556e+02	-2.258930e-03
1.156196e+02	-2.285094e-03
1.162874e+02	-2.311560e-03
1.169591e+02	-2.338333e-03
1.176347e+02	-2.365416e-03
1.183141e+02	-2.392812e-03
1.189975e+02	-2.420526e-03
1.196848e+02	-2.448560e-03
1.203761e+02	-2.476919e-03
1.210714e+02	-2.505607e-03
1.217707e+02	-2.534627e-03
1.224740e+02	-2.563982e-03
1.231814e+02	-2.593678e-03
1.238929e+02	-2.623717e-03
1.246085e+02	-2.654104e-03
1.253283e+02	-2.684843e-03
1.260522e+02	-2.715938e-03
1.267802e+02	-2.747393e-03
1.275125e+02	-2.779212e-03
1.282490e+02	-2.811399e-03
1.289898e+02	-2.843960e-03
1.297348e+02	-2.876897e-03
1.304842e+02	-2.910215e-03
1.312378e+02	-2.943919e-03
1.319959e+02	-2.978014e-03
1.327583e+02	-3.012503e-03
1.335251e+02	-3.047391e-03
1.342963e+02	-3.082683e-03
1.350720e+02	-3.118384e-03
1.358522e+02	-3.154498e-03
1.366368e+02	-3.191031e-03
1.374260e+02	-3.227986e-03
1.382198e+02	-3.265369e-03
1.390182e+02	-3.303185e-03
1.398211e+02	-3.341438e-03
1.406287e+02	-3.380134e-03
1.414410e+02	-3.419279e-03
1.422579e+02	-3.458876e-03
1.430796e+02	-3.498932e-03
1.439060e+02	-3.539451e-03
1.447372e+02	-3.580440e-03
1.455732e+02	-3.621903e-03
1.464141e+02	-3.663846e-03
1.472597e+02	-3.706274e-03
1.481103e+02	-3.749194e-03
1.489658e+02	-3.792610e-03
1.498262e+02	-3.836529e-03
1.506916e+02	-3.880957e-03
1.515620e+02	-3.925898e-03
1.524374e+02	-3.971360e-03
1.533179e+02	-4.017348e-03
1.542034e+02	-4.063868e-03
1.550941e+02	-4.110927e-03
1.559899e+02	-4.158530e-03
1.568909e+02	-4.206684e-03
1.577971e+02	-4.255396e-03
1.587085e+02	-4.304671e-03
1.596252e+02	-4.354517e-03
1.605472e+02	-4.404939e-03
1.614745e+02	-4.455946e-03
1.624072e+02	-4.507542e-03
1.633453e+02	-4.559736e-03
1.642887e+02	-4.612533e-03
1.652377e+02	-4.665942e-03
1.661921e+02	-4.719968e-03
1.671520e+02	-4.774620e-03
1.681175e+02	-4.829905e-03
1.690885e+02	-4.885829e-03
1.700651e+02	-4.942400e-03
1.710474e+02	-4.999626e-03
1.720354e+02	-5.057514e-03
1.730291e+02	-5.116072e-03
1.740285e+02	-5.175308e-03
1.750337e+02	-5.235229e-03
1.760446e+02	-5.295843e-03
1.770615e+02	-5.357159e-03
1.780842e+02	-5.419184e-03
1.791128e+02	-5.481927e-03
1.801473e+02	-5.545396e-03
1.811878e+02	-5.609599e-03
1.822344e+02	-5.674546e-03
1.832870e+02	-5.740243e-03
1.843456e+02	-5.806701e-03
1.854104e+02	-5.873927e-03
1.864813e+02	-5.941931e-03
1.875584e+02	-6.010723e-03
1.886418e+02	-6.080309e-03
1.897313e+02	-6.150701e-03
1.908272e+02	-6.221908e-03
1.919294e+02	-6.293938e-03
1.930380e+02	-6.366801e-03
1.941530e+02	-6.440507e-03
1.952744e+02	-6.515066e-03
1.964023e+02	-6.590487e-03
1.975367e+02	-6.666781e-03
1.986777e+02	-6.743957e-03
1.998252e+02	-6.822026e-03
2.009794e+02	-6.900998e-03
2.021403e+02	-6.980883e-03
2.033078e+02	-7.061693e-03
2.044821e+02	-7.143437e-03
2.056632e+02	-7.226126e-03
2.068511e+02	-7.309772e-03
2.080459e+02	-7.394385e-03
2.092475e+02	-7.479977e-03
2.104561e+02	-7.566559e-03
2.116717e+02	-7.654142e-03
2.128943e+02	-7.742738e-03
2.141240e+02	-7.832358e-03
2.153608e+02	-7.923015e-03
2.166047e+02	-8.014720e-03
2.178558e+02	-8.107486e-03
2.191141e+02	-8.201324e-03
2.203797e+02	-8.296248e-03
2.216526e+02	-8.392269e-03
2.229329e+02	-8.489400e-03
2.242205e+02	-8.587654e-03
2.255156e+02	-8.687045e-03
2.268182e+02	-8.787584e-03
2.281283e+02	-8.889286e-03
2.294459e+02	-8.992164e-03
2.307712e+02	-9.096231e-03
2.321041e+02	-9.201501e-03
2.334447e+02	-9.307988e-03
2.347931e+02	-9.415706e-03
2.361493e+02	-9.524669e-03
2.375133e+02	-9.634892e-03
2.388851e+02	-9.746389e-03
2.402649e+02	-9.859175e-03
2.416527e+02	-9.973265e-03
2.430484e+02	-1.008867e-02
2.444523e+02	-1.020541e-02
2.458642e+02	-1.032351e-02
2.472843e+02	-1.044296e-02
2.487126e+02	-1.056380e-02
2.501492e+02	-1.068603e-02
2.515940e+02	-1.080968e-02
2.530472e+02	-1.093475e-02
2.545088e+02	-1.106127e-02
2.559789e+02	-1.118925e-02
2.574574e+02	-1.131872e-02
2.589444e+02	-1.144967e-02
2.604401e+02	-1.158214e-02
2.619444e+02	-1.171614e-02
2.634574e+02	-1.185169e-02
2.649791e+02	-1.198881e-02
2.665096e+02	-1.212750e-02
2.680489e+02	-1.226781e-02
2.695972e+02	-1.240973e-02
2.711544e+02	-1.255329e-02
2.727205e+02	-1.269851e-02
2.742958e+02	-1.284541e-02
2.758801e+02	-1.299400e-02
2.774736e+02	-1.314431e-02
2.790762e+02	-1.329636e-02
2.806882e+02	-1.345016e-02
2.823094e+02	-1.360574e-02
2.839400e+02	-1.376311e-02
2.855800e+02	-1.392230e-02
2.872295e+02	-1.408334e-02
2.888886e+02	-1.424623e-02
2.905572e+02	-1.441100e-02
2.922354e+02	-1.457767e-02
2.939234e+02	-1.474627e-02
2.956211e+02	-1.491681e-02
2.973286e+02	-1.508933e-02
2.990459e+02	-1.526383e-02
3.007732e+02	-1.544035e-02
3.025104e+02	-1.561891e-02
3.042577e+02	-1.579953e-02
3.060151e+02	-1.598223e-02
3.077826e+02	-1.616705e-02
3.095604e+02	-1.635399e-02
3.113484e+02	-1.654309e-02
3.131467e+02	-1.673438e-02
3.149554e+02	-1.692787e-02
3.167746e+02	-1.712360e-02
3.186043e+02	-1.732158e-02
3.204445e+02	-1.752185e-02
3.222954e+02	-1.772443e-02
3.241570e+02	-1.792935e-02
3.260293e+02	-1.813663e-02
3.279124e+02	-1.834630e-02
3.298064e+02	-1.855839e-02
3.317114e+02	-1.877293e-02
3.336273e+02	-1.898994e-02
3.355544e+02	-1.920945e-02
3.374925e+02	-1.943150e-02
3.394418e+02	-1.965611e-02
3.414024e+02	-1.988331e-02
3.433744e+02	-2.011312e-02
3.453577e+02	-2.034559e-02
3.473525e+02	-2.058074e-02
3.493588e+02	-2.081860e-02
3.513766e+02	-2.105920e-02
3.534062e+02	-2.130258e-02
3.554474e+02	-2.154876e-02
3.575005e+02	-2.179778e-02
3.595654e+02	-2.204967e-02
3.616422e+02	-2.230446e-02
3.637311e+02	-2.256219e-02
3.658320e+02	-2.282289e-02
3.679450e+02	-2.308659e-02
3.700702e+02	-2.335334e-02
3.722077e+02	-2.362315e-02
3.743576e+02	-2.389608e-02
3.765199e+02	-2.417215e-02
3.786946e+02	-2.445140e-02
3.808820e+02	-2.473386e-02
3.830819e+02	-2.501958e-02
3.852946e+02	-2.530859e-02
3.875200e+02	-2.560093e-02
3.897583e+02	-2.589664e-02
3.920096e+02	-2.619575e-02
3.942738e+02	-2.649830e-02
3.965511e+02	-2.680434e-02
3.988416e+02	-2.711391e-02
4.011452e+02	-2.742703e-02
4.034622e+02	-2.774376e-02
4.057926e+02	-2.806414e-02
4.081365e+02	-2.838820e-02
4.104938e+02	-2.871600e-02
4.128648e+02	-2.904756e-02
4.152495e+02	-2.938295e-02
4.176480e+02	-2.972219e-02
4.200603e+02	-3.006533e-02
4.224866e+02	-3.041242e-02
4.249268e+02	-3.076350e-02
4.273812e+02	-3.111863e-02
4.298497e+02	-3.147783e-02
4.323325e+02	-3.184117e-02
4.348297e+02	-3.220869e-02
4.373412e+02	-3.258043e-02
4.398673e+02	-3.295645e-02
4.424079e+02	-3.333678e-02
4.449633e+02	-3.372150e-02
4.475334e+02	-3.411063e-02
4.501183e+02	-3.450424e-02
4.527182e+02	-3.490237e-02
4.553330e+02	-3.530507e-02
4.579630e+02	-3.571240e-02
4.606082e+02	-3.612441e-02
4.632687e+02	-3.654116e-02
4.659445e+02	-3.696269e-02
4.686358e+02	-3.738906e-02
4.713426e+02	-3.782034e-02
4.740650e+02	-3.825656e-02
4.768032e+02	-3.869779e-02
4.795572e+02	-3.914409e-02
4.823271e+02	-3.959551e-02
4.851130e+02	-4.005211e-02
4.879150e+02	-4.051396e-02
4.907332e+02	-4.098110e-02
4.935676e+02	-4.145361e-02
4.964185e+02	-4.193153e-02
4.992858e+02	-4.241494e-02
5.021696e+02	-4.290390e-02
5.050701e+02	-4.339846e-02
5.079874e+02	-4.389870e-02
5.109215e+02	-4.440467e-02
5.138726e+02	-4.491644e-02
5.168407e+02	-4.543408e-02
5.198259e+02	-4.595766e-02
5.228284e+02	-4.648723e-02
5.258482e+02	-4.702288e-02
5.288855e+02	-4.756466e-02
5.319403e+02	-4.811265e-02
5.350128e+02	-4.866692e-02
5.381030e+02	-4.922754e-02
5.412111e+02	-4.979457e-02
5.443371e+02	-5.036811e-02
5.474812e+02	-5.094820e-02
5.506434e+02	-5.153494e-02
5.538239e+02	-5.212840e-02
5.570228e+02	-5.272865e-02
5.602401e+02	-5.333577e-02
5.634760e+02	-5.394983e-02
5.667306e+02	-5.457092e-02
5.700040e+02	-5.519911e-02
5.732964e+02	-5.583449e-02
5.766077e+02	-5.647714e-02
5.799382e+02	-5.712713e-02
5.832879e+02	-5.778455e-02
5.866569e+02	-5.844949e-02
5.900454e+02	-5.912203e-02
5.934535e+02	-5.980225e-02
5.968813e+02	-6.049024e-02
6.003288e+02	-6.118610e-02
6.037963e+02	-6.188990e-02
6.072838e+02	-6.260174e-02
6.107914e+02	-6.332170e-02
6.143194e+02	-6.404988e-02
6.178676e+02	-6.478638e-02
6.214364e+02	-6.553128e-02
6.250258e+02	-6.628468e-02
6.286359e+02	-6.704667e-02
6.322669e+02	-6.781735e-02
6.359189e+02	-6.859683e-02
6.395919e+02	-6.938519e-02
6.432862e+02	-7.018253e-02
6.470017e+02	-7.098897e-02
6.507388e+02	-7.180459e-02
6.544974e+02	-7.262951e-02
6.582778e+02	-7.346382e-02
6.620800e+02	-7.430764e-02
6.659041e+02	-7.516106e-02
6.697504e+02	-7.602420e-02
6.736188e+02	-7.689716e-02
6.775096e+02	-7.778006e-02
6.814229e+02	-7.867300e-02
6.853587e+02	-7.957610e-02
6.893173e+02	-8.048947e-02
6.932988e+02	-8.141322e-02
6.973033e+02	-8.234747e-02
7.013309e+02	-8.329235e-02
