Frequency(Hz)	Magnitude(dB)
1.000000e+01	-2.163057e+00
1.005776e+01	-2.182897e+00
1.011585e+01	-2.202670e+00
1.017428e+01	-2.222780e+00
1.023305e+01	-2.242769e+00
1.029215e+01	-2.262946e+00
1.035160e+01	-2.283365e+00
1.041139e+01	-2.303976e+00
1.047153e+01	-2.324545e+00
1.053201e+01	-2.345471e+00
1.059284e+01	-2.366322e+00
1.065403e+01	-2.387249e+00
1.071556e+01	-2.408608e+00
1.077746e+01	-2.430026e+00
1.083971e+01	-2.451387e+00
1.090232e+01	-2.473157e+00
1.096529e+01	-2.495016e+00
1.102862e+01	-2.516968e+00
1.109232e+01	-2.538861e+00
1.115639e+01	-2.561428e+00
1.122083e+01	-2.583477e+00
1.128564e+01	-2.605709e+00
1.135083e+01	-2.628712e+00
1.141639e+01	-2.651291e+00
1.148233e+01	-2.674405e+00
1.154865e+01	-2.697452e+00
1.161536e+01	-2.720593e+00
1.168245e+01	-2.744022e+00
1.174992e+01	-2.767477e+00
1.181779e+01	-2.791157e+00
1.188605e+01	-2.815016e+00
1.195470e+01	-2.838975e+00
1.202375e+01	-2.862967e+00
1.209320e+01	-2.887352e+00
1.216305e+01	-2.911508e+00
1.223330e+01	-2.936315e+00
1.230396e+01	-2.960778e+00
1.237503e+01	-2.985536e+00
1.244651e+01	-3.010614e+00
1.251840e+01	-3.035405e+00
1.259070e+01	-3.060665e+00
1.266343e+01	-3.086074e+00
1.273657e+01	-3.111659e+00
1.281014e+01	-3.137471e+00
1.288413e+01	-3.163303e+00
1.295855e+01	-3.188976e+00
1.303339e+01	-3.214931e+00
1.310867e+01	-3.241276e+00
1.318439e+01	-3.267578e+00
1.326054e+01	-3.294147e+00
1.333713e+01	-3.320841e+00
1.341417e+01	-3.347904e+00
1.349165e+01	-3.374862e+00
1.356958e+01	-3.401985e+00
1.364795e+01	-3.429199e+00
1.372678e+01	-3.456220e+00
1.380607e+01	-3.483953e+00
1.388581e+01	-3.511704e+00
1.396602e+01	-3.539392e+00
1.404668e+01	-3.567167e+00
1.412782e+01	-3.595468e+00
1.420942e+01	-3.623669e+00
1.429149e+01	-3.652153e+00
1.437404e+01	-3.680692e+00
1.445706e+01	-3.709400e+00
1.454057e+01	-3.738274e+00
1.462455e+01	-3.767028e+00
1.470902e+01	-3.795892e+00
1.479398e+01	-3.825533e+00
1.487943e+01	-3.854850e+00
1.496537e+01	-3.884225e+00
1.505181e+01	-3.913829e+00
1.513875e+01	-3.943623e+00
1.522619e+01	-3.973579e+00
1.531414e+01	-4.003770e+00
1.540259e+01	-4.034058e+00
1.549156e+01	-4.064101e+00
1.558103e+01	-4.094567e+00
1.567103e+01	-4.125296e+00
1.576155e+01	-4.156114e+00
1.585258e+01	-4.186882e+00
1.594415e+01	-4.217747e+00
1.603624e+01	-4.248985e+00
1.612886e+01	-4.280311e+00
1.622202e+01	-4.311753e+00
1.631572e+01	-4.343309e+00
1.640996e+01	-4.374926e+00
1.650474e+01	-4.406861e+00
1.660008e+01	-4.438778e+00
1.669596e+01	-4.470880e+00
1.679239e+01	-4.503108e+00
1.688938e+01	-4.535538e+00
1.698694e+01	-4.567863e+00
1.708505e+01	-4.600588e+00
1.718373e+01	-4.633276e+00
1.728299e+01	-4.666303e+00
1.738281e+01	-4.699286e+00
1.748322e+01	-4.732369e+00
1.758420e+01	-4.765967e+00
1.768576e+01	-4.798799e+00
1.778792e+01	-4.832479e+00
1.789066e+01	-4.866215e+00
1.799399e+01	-4.899910e+00
1.809793e+01	-4.933853e+00
1.820246e+01	-4.968024e+00
1.830760e+01	-5.002054e+00
1.841334e+01	-5.035822e+00
1.851969e+01	-5.070874e+00
1.862666e+01	-5.105065e+00
1.873425e+01	-5.139684e+00
1.884246e+01	-5.174755e+00
1.895129e+01	-5.209259e+00
1.906075e+01	-5.244564e+00
1.917085e+01	-5.279536e+00
1.928158e+01	-5.314991e+00
1.939295e+01	-5.350122e+00
1.950496e+01	-5.385615e+00
1.961762e+01	-5.421346e+00
1.973093e+01	-5.457328e+00
1.984490e+01	-5.493160e+00
1.995952e+01	-5.529014e+00
2.007480e+01	-5.565185e+00
2.019076e+01	-5.601431e+00
2.030738e+01	-5.637243e+00
2.042467e+01	-5.673872e+00
2.054264e+01	-5.710483e+00
2.066130e+01	-5.747259e+00
2.078064e+01	-5.783719e+00
2.090066e+01	-5.820413e+00
2.102139e+01	-5.857607e+00
2.114280e+01	-5.894840e+00
2.126492e+01	-5.932079e+00
2.138775e+01	-5.969447e+00
2.151128e+01	-6.006632e+00
2.163553e+01	-6.044393e+00
2.176050e+01	-6.081913e+00
2.188619e+01	-6.119821e+00
2.201260e+01	-6.157691e+00
2.213974e+01	-6.195532e+00
2.226762e+01	-6.233358e+00
2.239624e+01	-6.271752e+00
2.252560e+01	-6.310072e+00
2.265571e+01	-6.348741e+00
2.278656e+01	-6.386804e+00
2.291818e+01	-6.425493e+00
2.305055e+01	-6.463977e+00
2.318369e+01	-6.502829e+00
2.331760e+01	-6.541771e+00
2.345228e+01	-6.581144e+00
2.358774e+01	-6.619765e+00
2.372398e+01	-6.659394e+00
2.386101e+01	-6.698000e+00
2.399883e+01	-6.737640e+00
2.413745e+01	-6.777152e+00
2.427686e+01	-6.816661e+00
2.441709e+01	-6.856667e+00
2.455812e+01	-6.895760e+00
2.469997e+01	-6.936078e+00
2.484263e+01	-6.975915e+00
2.498612e+01	-7.015924e+00
2.513044e+01	-7.055893e+00
2.527559e+01	-7.096012e+00
2.542158e+01	-7.137110e+00
2.556842e+01	-7.177195e+00
2.571610e+01	-7.217400e+00
2.586463e+01	-7.258477e+00
2.601403e+01	-7.298294e+00
2.616428e+01	-7.339613e+00
2.631541e+01	-7.380235e+00
2.646740e+01	-7.421199e+00
2.662028e+01	-7.462251e+00
2.677404e+01	-7.503283e+00
2.692868e+01	-7.544426e+00
2.708422e+01	-7.585439e+00
2.724066e+01	-7.627307e+00
2.739800e+01	-7.668500e+00
2.755625e+01	-7.709994e+00
2.771541e+01	-7.751674e+00
2.787550e+01	-7.793253e+00
2.803650e+01	-7.835360e+00
2.819844e+01	-7.876844e+00
2.836131e+01	-7.918821e+00
2.852513e+01	-7.960915e+00
2.868989e+01	-8.002878e+00
2.885560e+01	-8.045193e+00
2.902227e+01	-8.087152e+00
2.918990e+01	-8.129674e+00
2.935850e+01	-8.171888e+00
2.952807e+01	-8.214162e+00
2.969863e+01	-8.256790e+00
2.987016e+01	-8.299523e+00
3.004269e+01	-8.342272e+00
3.021622e+01	-8.385092e+00
3.039075e+01	-8.427108e+00
3.056628e+01	-8.470621e+00
3.074283e+01	-8.513586e+00
3.092040e+01	-8.556528e+00
3.109900e+01	-8.599388e+00
3.127862e+01	-8.642169e+00
3.145929e+01	-8.686056e+00
3.164099e+01	-8.729220e+00
3.182375e+01	-8.772770e+00
3.200756e+01	-8.816199e+00
3.219244e+01	-8.859648e+00
3.237838e+01	-8.902774e+00
3.256540e+01	-8.947110e+00
3.275349e+01	-8.990044e+00
3.294268e+01	-9.034099e+00
3.313295e+01	-9.077737e+00
3.332433e+01	-9.121476e+00
3.351681e+01	-9.166009e+00
3.371040e+01	-9.209625e+00
3.390511e+01	-9.254230e+00
3.410094e+01	-9.298031e+00
3.429791e+01	-9.341913e+00
3.449601e+01	-9.386180e+00
3.469526e+01	-9.430622e+00
3.489566e+01	-9.475140e+00
3.509721e+01	-9.519954e+00
3.529993e+01	-9.563793e+00
3.550382e+01	-9.608052e+00
3.570889e+01	-9.653056e+00
3.591515e+01	-9.697295e+00
3.612259e+01	-9.742229e+00
3.633123e+01	-9.786581e+00
3.654108e+01	-9.832001e+00
3.675214e+01	-9.876858e+00
3.696442e+01	-9.921409e+00
3.717792e+01	-9.966226e+00
3.739266e+01	-1.001133e+01
3.760864e+01	-1.005635e+01
3.782587e+01	-1.010167e+01
3.804435e+01	-1.014677e+01
3.826409e+01	-1.019209e+01
3.848510e+01	-1.023706e+01
3.870739e+01	-1.028224e+01
3.893096e+01	-1.032777e+01
3.915583e+01	-1.037395e+01
3.938199e+01	-1.041896e+01
3.960946e+01	-1.046434e+01
3.983824e+01	-1.051024e+01
4.006834e+01	-1.055561e+01
4.029978e+01	-1.060141e+01
4.053255e+01	-1.064676e+01
4.076666e+01	-1.069283e+01
4.100213e+01	-1.073883e+01
4.123896e+01	-1.078455e+01
4.147715e+01	-1.083030e+01
4.171672e+01	-1.087614e+01
4.195767e+01	-1.092210e+01
4.220002e+01	-1.096795e+01
4.244377e+01	-1.101457e+01
4.268892e+01	-1.106028e+01
4.293549e+01	-1.110669e+01
4.318348e+01	-1.115277e+01
4.343291e+01	-1.119795e+01
4.368377e+01	-1.124474e+01
4.393609e+01	-1.129133e+01
4.418986e+01	-1.133763e+01
4.444510e+01	-1.138398e+01
4.470182e+01	-1.143001e+01
4.496001e+01	-1.147655e+01
4.521970e+01	-1.152305e+01
4.548089e+01	-1.157002e+01
4.574358e+01	-1.161603e+01
4.600779e+01	-1.166270e+01
4.627353e+01	-1.170981e+01
4.654081e+01	-1.175572e+01
4.680963e+01	-1.180279e+01
4.708000e+01	-1.184906e+01
4.735193e+01	-1.189646e+01
4.762543e+01	-1.194283e+01
4.790051e+01	-1.198989e+01
4.817719e+01	-1.203630e+01
4.845545e+01	-1.208453e+01
4.873533e+01	-1.213044e+01
4.901682e+01	-1.217804e+01
4.929994e+01	-1.222452e+01
4.958470e+01	-1.227183e+01
4.987110e+01	-1.231874e+01
5.015915e+01	-1.236661e+01
5.044887e+01	-1.241326e+01
5.074026e+01	-1.246032e+01
5.103333e+01	-1.250718e+01
5.132810e+01	-1.255427e+01
5.162457e+01	-1.260199e+01
5.192275e+01	-1.264941e+01
5.222265e+01	-1.269645e+01
5.252429e+01	-1.274495e+01
5.282767e+01	-1.279190e+01
5.313280e+01	-1.283906e+01
5.343969e+01	-1.288629e+01
5.374836e+01	-1.293402e+01
5.405880e+01	-1.298064e+01
5.437105e+01	-1.302824e+01
5.468509e+01	-1.307649e+01
5.500095e+01	-1.312449e+01
5.531863e+01	-1.317101e+01
5.563815e+01	-1.321917e+01
5.595951e+01	-1.326628e+01
5.628273e+01	-1.331431e+01
5.660782e+01	-1.336255e+01
5.693479e+01	-1.340933e+01
5.726364e+01	-1.345808e+01
5.759439e+01	-1.350519e+01
5.792705e+01	-1.355279e+01
5.826164e+01	-1.360088e+01
5.859815e+01	-1.364894e+01
5.893662e+01	-1.369715e+01
5.927703e+01	-1.374457e+01
5.961941e+01	-1.379246e+01
5.996377e+01	-1.384095e+01
6.031012e+01	-1.388784e+01
6.065847e+01	-1.393610e+01
6.100883e+01	-1.398461e+01
6.136121e+01	-1.403220e+01
6.171563e+01	-1.407950e+01
6.207210e+01	-1.412800e+01
6.243063e+01	-1.417756e+01
6.279122e+01	-1.422507e+01
6.315390e+01	-1.427342e+01
6.351868e+01	-1.432158e+01
6.388556e+01	-1.436952e+01
6.425456e+01	-1.441766e+01
6.462569e+01	-1.446543e+01
6.499897e+01	-1.451367e+01
6.537440e+01	-1.456258e+01
6.575200e+01	-1.461052e+01
6.613178e+01	-1.465853e+01
6.651375e+01	-1.470772e+01
6.689793e+01	-1.475554e+01
6.728433e+01	-1.480320e+01
6.767297e+01	-1.485264e+01
6.806384e+01	-1.490057e+01
6.845698e+01	-1.494876e+01
6.885238e+01	-1.499803e+01
6.925007e+01	-1.504595e+01
6.965005e+01	-1.509520e+01
7.005235e+01	-1.514372e+01
7.045697e+01	-1.519209e+01
7.086393e+01	-1.524023e+01
7.127323e+01	-1.528969e+01
7.168490e+01	-1.533767e+01
7.209895e+01	-1.538591e+01
7.251539e+01	-1.543428e+01
7.293424e+01	-1.548315e+01
7.335551e+01	-1.553157e+01
7.377920e+01	-1.558014e+01
7.420535e+01	-1.562985e+01
7.463396e+01	-1.567717e+01
7.506504e+01	-1.572560e+01
7.549861e+01	-1.577473e+01
7.593469e+01	-1.582461e+01
7.637328e+01	-1.587208e+01
7.681441e+01	-1.592121e+01
7.725809e+01	-1.597075e+01
7.770433e+01	-1.601890e+01
7.815315e+01	-1.606825e+01
7.860456e+01	-1.611681e+01
7.905857e+01	-1.616549e+01
7.951521e+01	-1.621397e+01
7.997449e+01	-1.626258e+01
8.043642e+01	-1.631095e+01
8.090102e+01	-1.635981e+01
8.136830e+01	-1.640887e+01
8.183828e+01	-1.645678e+01
8.231097e+01	-1.650798e+01
8.278640e+01	-1.655564e+01
8.326457e+01	-1.660477e+01
8.374550e+01	-1.665416e+01
8.422921e+01	-1.670389e+01
8.471572e+01	-1.675195e+01
8.520503e+01	-1.680052e+01
8.569717e+01	-1.684999e+01
8.619215e+01	-1.689891e+01
8.669000e+01	-1.694816e+01
8.719071e+01	-1.699597e+01
8.769432e+01	-1.704506e+01
8.820084e+01	-1.709619e+01
8.871029e+01	-1.714461e+01
8.922267e+01	-1.719271e+01
8.973802e+01	-1.724316e+01
9.025634e+01	-1.729123e+01
9.077766e+01	-1.734017e+01
9.130199e+01	-1.739007e+01
9.182935e+01	-1.743814e+01
9.235975e+01	-1.748713e+01
9.289321e+01	-1.753625e+01
9.342976e+01	-1.758648e+01
9.396941e+01	-1.763465e+01
9.451217e+01	-1.768505e+01
9.505807e+01	-1.773400e+01
9.560712e+01	-1.778202e+01
9.615934e+01	-1.783185e+01
9.671476e+01	-1.788210e+01
9.727338e+01	-1.793091e+01
9.783522e+01	-1.798032e+01
9.840032e+01	-1.802972e+01
9.896867e+01	-1.807747e+01
9.954031e+01	-1.812749e+01
1.001153e+02	-1.817597e+01
1.006935e+02	-1.822588e+01
1.012751e+02	-1.827389e+01
1.018601e+02	-1.832399e+01
1.024484e+02	-1.837402e+01
1.030402e+02	-1.842359e+01
1.036353e+02	-1.847205e+01
1.042339e+02	-1.852213e+01
1.048360e+02	-1.857124e+01
1.054415e+02	-1.862009e+01
1.060505e+02	-1.866881e+01
1.066631e+02	-1.871998e+01
1.072791e+02	-1.876923e+01
1.078988e+02	-1.881804e+01
1.085220e+02	-1.886792e+01
1.091488e+02	-1.891605e+01
1.097793e+02	-1.896572e+01
1.104133e+02	-1.901551e+01
1.110511e+02	-1.906426e+01
1.116925e+02	-1.911373e+01
1.123376e+02	-1.916365e+01
1.129865e+02	-1.921276e+01
1.136391e+02	-1.926284e+01
1.142955e+02	-1.931232e+01
1.149556e+02	-1.936266e+01
1.156196e+02	-1.941001e+01
1.162874e+02	-1.946071e+01
1.169591e+02	-1.950937e+01
1.176347e+02	-1.956009e+01
1.183141e+02	-1.961074e+01
1.189975e+02	-1.965907e+01
1.196848e+02	-1.970691e+01
1.203761e+02	-1.975677e+01
1.210714e+02	-1.980543e+01
1.217707e+02	-1.985660e+01
1.224740e+02	-1.990616e+01
1.231814e+02	-1.995611e+01
1.238929e+02	-2.000500e+01
1.246085e+02	-2.005345e+01
1.253283e+02	-2.010368e+01
1.260522e+02	-2.015445e+01
1.267802e+02	-2.020362e+01
1.275125e+02	-2.025348e+01
1.282490e+02	-2.030224e+01
1.289898e+02	-2.035000e+01
1.297348e+02	-2.040105e+01
1.304842e+02	-2.045116e+01
1.312378e+02	-2.050006e+01
1.319959e+02	-2.055230e+01
1.327583e+02	-2.059989e+01
1.335251e+02	-2.064879e+01
1.342963e+02	-2.069867e+01
1.350720e+02	-2.074905e+01
1.358522e+02	-2.079726e+01
1.366368e+02	-2.084878e+01
1.374260e+02	-2.089632e+01
1.382198e+02	-2.094763e+01
1.390182e+02	-2.099733e+01
1.398211e+02	-2.104707e+01
1.406287e+02	-2.109520e+01
1.414410e+02	-2.114518e+01
1.422579e+02	-2.119518e+01
1.430796e+02	-2.124452e+01
1.439060e+02	-2.129433e+01
1.447372e+02	-2.134336e+01
1.455732e+02	-2.139505e+01
1.464141e+02	-2.144451e+01
1.472597e+02	-2.149501e+01
1.481103e+02	-2.154298e+01
1.489658e+02	-2.159303e+01
1.498262e+02	-2.164155e+01
1.506916e+02	-2.169010e+01
1.515620e+02	-2.174202e+01
1.524374e+02	-2.179256e+01
1.533179e+02	-2.184093e+01
1.542034e+02	-2.188929e+01
1.550941e+02	-2.194093e+01
1.559899e+02	-2.199251e+01
1.568909e+02	-2.204162e+01
1.577971e+02	-2.209216e+01
1.587085e+02	-2.213937e+01
1.596252e+02	-2.219040e+01
1.605472e+02	-2.223984e+01
1.614745e+02	-2.228869e+01
1.624072e+02	-2.233933e+01
1.633453e+02	-2.238597e+01
1.642887e+02	-2.244112e+01
1.652377e+02	-2.248936e+01
1.661921e+02	-2.253984e+01
1.671520e+02	-2.258767e+01
1.681175e+02	-2.263802e+01
1.690885e+02	-2.268783e+01
1.700651e+02	-2.273653e+01
1.710474e+02	-2.278812e+01
1.720354e+02	-2.283685e+01
1.730291e+02	-2.288629e+01
1.740285e+02	-2.293510e+01
1.750337e+02	-2.298491e+01
1.760446e+02	-2.303629e+01
1.770615e+02	-2.308516e+01
1.780842e+02	-2.313608e+01
1.791128e+02	-2.318608e+01
1.801473e+02	-2.323502e+01
1.811878e+02	-2.328490e+01
1.822344e+02	-2.333465e+01
1.832870e+02	-2.338169e+01
1.843456e+02	-2.343437e+01
1.854104e+02	-2.348484e+01
1.864813e+02	-2.353193e+01
1.875584e+02	-2.358353e+01
1.886418e+02	-2.363335e+01
1.897313e+02	-2.368261e+01
1.908272e+02	-2.373318e+01
1.919294e+02	-2.378261e+01
1.930380e+02	-2.383389e+01
1.941530e+02	-2.388291e+01
1.952744e+02	-2.393332e+01
1.964023e+02	-2.398379e+01
1.975367e+02	-2.403041e+01
1.986777e+02	-2.408034e+01
1.998252e+02	-2.412899e+01
2.009794e+02	-2.418286e+01
2.021403e+02	-2.423220e+01
2.033078e+02	-2.428139e+01
2.044821e+02	-2.433063e+01
2.056632e+02	-2.438018e+01
2.068511e+02	-2.443008e+01
2.080459e+02	-2.448054e+01
2.092475e+02	-2.453050e+01
2.104561e+02	-2.458032e+01
2.116717e+02	-2.463117e+01
2.128943e+02	-2.468070e+01
2.141240e+02	-2.473336e+01
2.153608e+02	-2.477876e+01
2.166047e+02	-2.482944e+01
2.178558e+02	-2.487933e+01
2.191141e+02	-2.492996e+01
2.203797e+02	-2.497985e+01
2.216526e+02	-2.503085e+01
2.229329e+02	-2.507908e+01
2.242205e+02	-2.512888e+01
2.255156e+02	-2.517886e+01
2.268182e+02	-2.523208e+01
2.281283e+02	-2.527821e+01
2.294459e+02	-2.532966e+01
2.307712e+02	-2.537979e+01
2.321041e+02	-2.542924e+01
2.334447e+02	-2.548130e+01
2.347931e+02	-2.552839e+01
2.361493e+02	-2.557879e+01
2.375133e+02	-2.562950e+01
2.388851e+02	-2.567886e+01
2.402649e+02	-2.572636e+01
2.416527e+02	-2.577870e+01
2.430484e+02	-2.582859e+01
2.444523e+02	-2.587745e+01
2.458642e+02	-2.592885e+01
2.472843e+02	-2.597982e+01
2.487126e+02	-2.602630e+01
2.501492e+02	-2.607895e+01
2.515940e+02	-2.612660e+01
2.530472e+02	-2.618005e+01
2.545088e+02	-2.622483e+01
2.559789e+02	-2.627939e+01
2.574574e+02	-2.632869e+01
2.589444e+02	-2.637830e+01
2.604401e+02	-2.642857e+01
2.619444e+02	-2.647904e+01
2.634574e+02	-2.652841e+01
2.649791e+02	-2.657609e+01
2.665096e+02	-2.662678e+01
2.680489e+02	-2.667656e+01
2.695972e+02	-2.673086e+01
2.711544e+02	-2.677510e+01
2.727205e+02	-2.682712e+01
2.742958e+02	-2.687862e+01
2.758801e+02	-2.692555e+01
2.774736e+02	-2.697346e+01
2.790762e+02	-2.703129e+01
2.806882e+02	-2.707625e+01
2.823094e+02	-2.713065e+01
2.839400e+02	-2.717954e+01
2.855800e+02	-2.722425e+01
2.872295e+02	-2.727438e+01
2.888886e+02	-2.732799e+01
2.905572e+02	-2.737835e+01
2.922354e+02	-2.743013e+01
2.939234e+02	-2.747640e+01
2.956211e+02	-2.752987e+01
2.973286e+02	-2.757752e+01
2.990459e+02	-2.762872e+01
3.007732e+02	-2.767564e+01
3.025104e+02	-2.772701e+01
3.042577e+02	-2.777445e+01
3.060151e+02	-2.782939e+01
3.077826e+02	-2.788058e+01
3.095604e+02	-2.792544e+01
3.113484e+02	-2.797795e+01
3.131467e+02	-2.802903e+01
3.149554e+02	-2.807871e+01
3.167746e+02	-2.812835e+01
3.186043e+02	-2.818219e+01
3.204445e+02	-2.822746e+01
3.222954e+02	-2.827630e+01
3.241570e+02	-2.832766e+01
3.260293e+02	-2.838293e+01
3.279124e+02	-2.843240e+01
3.298064e+02	-2.847702e+01
3.317114e+02	-2.852945e+01
3.336273e+02	-2.857950e+01
3.355544e+02	-2.862702e+01
3.374925e+02	-2.867768e+01
3.394418e+02	-2.873643e+01
3.414024e+02	-2.878060e+01
3.433744e+02	-2.882845e+01
3.453577e+02	-2.887651e+01
3.473525e+02	-2.892600e+01
3.493588e+02	-2.898220e+01
3.513766e+02	-2.903228e+01
3.534062e+02	-2.907818e+01
3.554474e+02	-2.912995e+01
3.575005e+02	-2.917609e+01
3.595654e+02	-2.922817e+01
3.616422e+02	-2.927690e+01
3.637311e+02	-2.932380e+01
3.658320e+02	-2.937821e+01
3.679450e+02	-2.943026e+01
3.700702e+02	-2.947661e+01
3.722077e+02	-2.952951e+01
3.743576e+02	-2.957769e+01
3.765199e+02	-2.963047e+01
3.786946e+02	-2.968395e+01
3.808820e+02	-2.973127e+01
3.830819e+02	-2.978168e+01
3.852946e+02	-2.982580e+01
3.875200e+02	-2.988219e+01
3.897583e+02	-2.992941e+01
3.920096e+02	-2.998343e+01
3.942738e+02	-3.003076e+01
3.965511e+02	-3.007887e+01
3.988416e+02	-3.013144e+01
4.011452e+02	-3.017748e+01
4.034622e+02	-3.023142e+01
4.057926e+02	-3.027624e+01
4.081365e+02	-3.032776e+01
4.104938e+02	-3.037957e+01
4.128648e+02	-3.043313e+01
4.152495e+02	-3.048032e+01
4.176480e+02	-3.052878e+01
4.200603e+02	-3.058322e+01
4.224866e+02	-3.063722e+01
4.249268e+02	-3.068312e+01
4.273812e+02	-3.073075e+01
4.298497e+02	-3.078366e+01
4.323325e+02	-3.082999e+01
4.348297e+02	-3.087380e+01
4.373412e+02	-3.093912e+01
4.398673e+02	-3.098089e+01
4.424079e+02	-3.103537e+01
4.449633e+02	-3.108920e+01
4.475334e+02	-3.113885e+01
4.501183e+02	-3.118631e+01
4.527182e+02	-3.122611e+01
4.553330e+02	-3.128473e+01
4.579630e+02	-3.132988e+01
4.606082e+02	-3.137983e+01
4.632687e+02	-3.143413e+01
4.659445e+02	-3.148832e+01
4.686358e+02	-3.153184e+01
4.713426e+02	-3.158618e+01
4.740650e+02	-3.163088e+01
4.768032e+02	-3.167888e+01
4.795572e+02	-3.173547e+01
4.823271e+02	-3.177888e+01
4.851130e+02	-3.183490e+01
4.879150e+02	-3.189012e+01
4.907332e+02	-3.193217e+01
4.935676e+02	-3.198133e+01
4.964185e+02	-3.203771e+01
4.992858e+02	-3.208886e+01
5.021696e+02	-3.214188e+01
5.050701e+02	-3.218103e+01
5.079874e+02	-3.223564e+01
5.109215e+02	-3.228681e+01
5.138726e+02	-3.234205e+01
5.168407e+02	-3.238469e+01
5.198259e+02	-3.243520e+01
5.228284e+02	-3.249202e+01
5.258482e+02	-3.254071e+01
5.288855e+02	-3.258954e+01
5.319403e+02	-3.263884e+01
5.350128e+02	-3.268487e+01
5.381030e+02	-3.274177e+01
5.412111e+02	-3.279204e+01
5.443371e+02	-3.284355e+01
5.474812e+02	-3.288454e+01
5.506434e+02	-3.294002e+01
5.538239e+02	-3.299319e+01
5.570228e+02	-3.304193e+01
5.602401e+02	-3.309077e+01
5.634760e+02	-3.314272e+01
5.667306e+02	-3.319642e+01
5.700040e+02	-3.324370e+01
5.732964e+02	-3.329567e+01
5.766077e+02	-3.334509e+01
5.799382e+02	-3.339023e+01
5.832879e+02	-3.344494e+01
5.866569e+02	-3.349804e+01
5.900454e+02	-3.354849e+01
5.934535e+02	-3.359532e+01
5.968813e+02	-3.364901e+01
6.003288e+02	-3.370174e+01
6.037963e+02	-3.374276e+01
6.072838e+02	-3.379346e+01
6.107914e+02	-3.384619e+01
6.143194e+02	-3.389301e+01
6.178676e+02	-3.395317e+01
6.214364e+02	-3.399908e+01
6.250258e+02	-3.404393e+01
6.286359e+02	-3.410025e+01
6.322669e+02	-3.415116e+01
6.359189e+02	-3.419305e+01
6.395919e+02	-3.424203e+01
6.432862e+02	-3.429144e+01
6.470017e+02	-3.434604e+01
6.507388e+02	-3.439468e+01
6.544974e+02	-3.445090e+01
6.582778e+02	-3.450495e+01
6.620800e+02	-3.455016e+01
6.659041e+02	-3.460191e+01
6.697504e+02	-3.466104e+01
6.736188e+02	-3.470016e+01
6.775096e+02	-3.475731e+01
6.814229e+02	-3.479834e+01
6.853587e+02	-3.486642e+01
6.893173e+02	-3.491379e+01
6.932988e+02	-3.495026e+01
6.973033e+02	-3.498824e+01
7.013309e+02	-3.504962e+01
