Frequency(Hz)	Magnitude(dB)
1.000000e+01	-1.988843e+00
1.005776e+01	-2.007272e+00
1.011585e+01	-2.025789e+00
1.017428e+01	-2.044625e+00
1.023305e+01	-2.063071e+00
1.029215e+01	-2.082455e+00
1.035160e+01	-2.101477e+00
1.041139e+01	-2.120686e+00
1.047153e+01	-2.140188e+00
1.053201e+01	-2.159702e+00
1.059284e+01	-2.179259e+00
1.065403e+01	-2.199173e+00
1.071556e+01	-2.218943e+00
1.077746e+01	-2.238889e+00
1.083971e+01	-2.259263e+00
1.090232e+01	-2.279579e+00
1.096529e+01	-2.300219e+00
1.102862e+01	-2.320958e+00
1.109232e+01	-2.341420e+00
1.115639e+01	-2.362467e+00
1.122083e+01	-2.383742e+00
1.128564e+01	-2.404717e+00
1.135083e+01	-2.426325e+00
1.141639e+01	-2.447701e+00
1.148233e+01	-2.468947e+00
1.154865e+01	-2.490830e+00
1.161536e+01	-2.512962e+00
1.168245e+01	-2.534989e+00
1.174992e+01	-2.557171e+00
1.181779e+01	-2.579586e+00
1.188605e+01	-2.602032e+00
1.195470e+01	-2.624639e+00
1.202375e+01	-2.647389e+00
1.209320e+01	-2.670304e+00
1.216305e+01	-2.693288e+00
1.223330e+01	-2.716433e+00
1.230396e+01	-2.739967e+00
1.237503e+01	-2.763381e+00
1.244651e+01	-2.786844e+00
1.251840e+01	-2.810857e+00
1.259070e+01	-2.834569e+00
1.266343e+01	-2.858463e+00
1.273657e+01	-2.882936e+00
1.281014e+01	-2.907166e+00
1.288413e+01	-2.931708e+00
1.295855e+01	-2.956212e+00
1.303339e+01	-2.980897e+00
1.310867e+01	-3.006079e+00
1.318439e+01	-3.031122e+00
1.326054e+01	-3.056128e+00
1.333713e+01	-3.081626e+00
1.341417e+01	-3.106958e+00
1.349165e+01	-3.132751e+00
1.356958e+01	-3.158469e+00
1.364795e+01	-3.184640e+00
1.372678e+01	-3.210738e+00
1.380607e+01	-3.236866e+00
1.388581e+01	-3.263142e+00
1.396602e+01	-3.289680e+00
1.404668e+01	-3.316257e+00
1.412782e+01	-3.342844e+00
1.420942e+01	-3.370004e+00
1.429149e+01	-3.397301e+00
1.437404e+01	-3.424102e+00
1.445706e+01	-3.451677e+00
1.454057e+01	-3.478925e+00
1.462455e+01	-3.506456e+00
1.470902e+01	-3.534358e+00
1.479398e+01	-3.562484e+00
1.487943e+01	-3.590509e+00
1.496537e+01	-3.618758e+00
1.505181e+01	-3.647164e+00
1.513875e+01	-3.675305e+00
1.522619e+01	-3.703949e+00
1.531414e+01	-3.732887e+00
1.540259e+01	-3.761876e+00
1.549156e+01	-3.790816e+00
1.558103e+01	-3.820138e+00
1.567103e+01	-3.849811e+00
1.576155e+01	-3.878814e+00
1.585258e+01	-3.908517e+00
1.594415e+01	-3.938360e+00
1.603624e+01	-3.968463e+00
1.612886e+01	-3.998407e+00
1.622202e+01	-4.028538e+00
1.631572e+01	-4.058859e+00
1.640996e+01	-4.089183e+00
1.650474e+01	-4.119831e+00
1.660008e+01	-4.150361e+00
1.669596e+01	-4.180973e+00
1.679239e+01	-4.212254e+00
1.688938e+01	-4.243537e+00
1.698694e+01	-4.274884e+00
1.708505e+01	-4.306123e+00
1.718373e+01	-4.337578e+00
1.728299e+01	-4.369438e+00
1.738281e+01	-4.400912e+00
1.748322e+01	-4.432912e+00
1.758420e+01	-4.465108e+00
1.768576e+01	-4.497320e+00
1.778792e+01	-4.529856e+00
1.789066e+01	-4.562254e+00
1.799399e+01	-4.594872e+00
1.809793e+01	-4.627511e+00
1.820246e+01	-4.660453e+00
1.830760e+01	-4.693121e+00
1.841334e+01	-4.726634e+00
1.851969e+01	-4.759876e+00
1.862666e+01	-4.792831e+00
1.873425e+01	-4.826449e+00
1.884246e+01	-4.860363e+00
1.895129e+01	-4.893572e+00
1.906075e+01	-4.927566e+00
1.917085e+01	-4.961642e+00
1.928158e+01	-4.995902e+00
1.939295e+01	-5.029954e+00
1.950496e+01	-5.064600e+00
1.961762e+01	-5.098906e+00
1.973093e+01	-5.133712e+00
1.984490e+01	-5.168375e+00
1.995952e+01	-5.203127e+00
2.007480e+01	-5.238312e+00
2.019076e+01	-5.273075e+00
2.030738e+01	-5.308718e+00
2.042467e+01	-5.343882e+00
2.054264e+01	-5.379510e+00
2.066130e+01	-5.415109e+00
2.078064e+01	-5.450757e+00
2.090066e+01	-5.486418e+00
2.102139e+01	-5.522331e+00
2.114280e+01	-5.558542e+00
2.126492e+01	-5.594609e+00
2.138775e+01	-5.631085e+00
2.151128e+01	-5.667494e+00
2.163553e+01	-5.703692e+00
2.176050e+01	-5.740418e+00
2.188619e+01	-5.777130e+00
2.201260e+01	-5.814187e+00
2.213974e+01	-5.850880e+00
2.226762e+01	-5.888195e+00
2.239624e+01	-5.925398e+00
2.252560e+01	-5.962663e+00
2.265571e+01	-5.999759e+00
2.278656e+01	-6.037636e+00
2.291818e+01	-6.075403e+00
2.305055e+01	-6.112752e+00
2.318369e+01	-6.150661e+00
2.331760e+01	-6.188841e+00
2.345228e+01	-6.226583e+00
2.358774e+01	-6.264988e+00
2.372398e+01	-6.303222e+00
2.386101e+01	-6.341630e+00
2.399883e+01	-6.380103e+00
2.413745e+01	-6.418622e+00
2.427686e+01	-6.457026e+00
2.441709e+01	-6.496052e+00
2.455812e+01	-6.534760e+00
2.469997e+01	-6.573898e+00
2.484263e+01	-6.613048e+00
2.498612e+01	-6.652350e+00
2.513044e+01	-6.691238e+00
2.527559e+01	-6.730829e+00
2.542158e+01	-6.769696e+00
2.556842e+01	-6.809890e+00
2.571610e+01	-6.849237e+00
2.586463e+01	-6.888959e+00
2.601403e+01	-6.928695e+00
2.616428e+01	-6.968710e+00
2.631541e+01	-7.008961e+00
2.646740e+01	-7.048861e+00
2.662028e+01	-7.089015e+00
2.677404e+01	-7.129641e+00
2.692868e+01	-7.169523e+00
2.708422e+01	-7.210296e+00
2.724066e+01	-7.250640e+00
2.739800e+01	-7.291480e+00
2.755625e+01	-7.332188e+00
2.771541e+01	-7.372686e+00
2.787550e+01	-7.413898e+00
2.803650e+01	-7.455220e+00
2.819844e+01	-7.495842e+00
2.836131e+01	-7.537067e+00
2.852513e+01	-7.578508e+00
2.868989e+01	-7.619798e+00
2.885560e+01	-7.661225e+00
2.902227e+01	-7.702663e+00
2.918990e+01	-7.744197e+00
2.935850e+01	-7.785627e+00
2.952807e+01	-7.827600e+00
2.969863e+01	-7.869543e+00
2.987016e+01	-7.911428e+00
3.004269e+01	-7.953525e+00
3.021622e+01	-7.995306e+00
3.039075e+01	-8.037424e+00
3.056628e+01	-8.080002e+00
3.074283e+01	-8.121909e+00
3.092040e+01	-8.164339e+00
3.109900e+01	-8.206549e+00
3.127862e+01	-8.249244e+00
3.145929e+01	-8.291630e+00
3.164099e+01	-8.334213e+00
3.182375e+01	-8.377317e+00
3.200756e+01	-8.419812e+00
3.219244e+01	-8.463051e+00
3.237838e+01	-8.505421e+00
3.256540e+01	-8.549114e+00
3.275349e+01	-8.591666e+00
3.294268e+01	-8.635236e+00
3.313295e+01	-8.678083e+00
3.332433e+01	-8.721701e+00
3.351681e+01	-8.764861e+00
3.371040e+01	-8.807851e+00
3.390511e+01	-8.851780e+00
3.410094e+01	-8.895368e+00
3.429791e+01	-8.938821e+00
3.449601e+01	-8.982672e+00
3.469526e+01	-9.026344e+00
3.489566e+01	-9.070413e+00
3.509721e+01	-9.113634e+00
3.529993e+01	-9.158214e+00
3.550382e+01	-9.202035e+00
3.570889e+01	-9.245375e+00
3.591515e+01	-9.289853e+00
3.612259e+01	-9.334202e+00
3.633123e+01	-9.378030e+00
3.654108e+01	-9.422326e+00
3.675214e+01	-9.466783e+00
3.696442e+01	-9.511097e+00
3.717792e+01	-9.555205e+00
3.739266e+01	-9.600163e+00
3.760864e+01	-9.644976e+00
3.782587e+01	-9.689603e+00
3.804435e+01	-9.734772e+00
3.826409e+01	-9.778634e+00
3.848510e+01	-9.823429e+00
3.870739e+01	-9.868517e+00
3.893096e+01	-9.913253e+00
3.915583e+01	-9.958381e+00
3.938199e+01	-1.000350e+01
3.960946e+01	-1.004823e+01
3.983824e+01	-1.009356e+01
4.006834e+01	-1.013877e+01
4.029978e+01	-1.018426e+01
4.053255e+01	-1.022903e+01
4.076666e+01	-1.027411e+01
4.100213e+01	-1.031977e+01
4.123896e+01	-1.036469e+01
4.147715e+01	-1.041058e+01
4.171672e+01	-1.045642e+01
4.195767e+01	-1.050206e+01
4.220002e+01	-1.054799e+01
4.244377e+01	-1.059312e+01
4.268892e+01	-1.063862e+01
4.293549e+01	-1.068454e+01
4.318348e+01	-1.072991e+01
4.343291e+01	-1.077625e+01
4.368377e+01	-1.082186e+01
4.393609e+01	-1.086740e+01
4.418986e+01	-1.091337e+01
4.444510e+01	-1.096015e+01
4.470182e+01	-1.100566e+01
4.496001e+01	-1.105199e+01
4.521970e+01	-1.109838e+01
4.548089e+01	-1.114431e+01
4.574358e+01	-1.119015e+01
4.600779e+01	-1.123668e+01
4.627353e+01	-1.128294e+01
4.654081e+01	-1.132954e+01
4.680963e+01	-1.137529e+01
4.708000e+01	-1.142200e+01
4.735193e+01	-1.146830e+01
4.762543e+01	-1.151485e+01
4.790051e+01	-1.156170e+01
4.817719e+01	-1.160800e+01
4.845545e+01	-1.165457e+01
4.873533e+01	-1.170155e+01
4.901682e+01	-1.174766e+01
4.929994e+01	-1.179437e+01
4.958470e+01	-1.184142e+01
4.987110e+01	-1.188729e+01
5.015915e+01	-1.193469e+01
5.044887e+01	-1.198162e+01
5.074026e+01	-1.202811e+01
5.103333e+01	-1.207529e+01
5.132810e+01	-1.212250e+01
5.162457e+01	-1.216958e+01
5.192275e+01	-1.221619e+01
5.222265e+01	-1.226313e+01
5.252429e+01	-1.231071e+01
5.282767e+01	-1.235713e+01
5.313280e+01	-1.240485e+01
5.343969e+01	-1.245211e+01
5.374836e+01	-1.249900e+01
5.405880e+01	-1.254662e+01
5.437105e+01	-1.259322e+01
5.468509e+01	-1.264063e+01
5.500095e+01	-1.268837e+01
5.531863e+01	-1.273486e+01
5.563815e+01	-1.278281e+01
5.595951e+01	-1.283039e+01
5.628273e+01	-1.287719e+01
5.660782e+01	-1.292566e+01
5.693479e+01	-1.297339e+01
5.726364e+01	-1.302021e+01
5.759439e+01	-1.306840e+01
5.792705e+01	-1.311545e+01
5.826164e+01	-1.316366e+01
5.859815e+01	-1.321116e+01
5.893662e+01	-1.325890e+01
5.927703e+01	-1.330603e+01
5.961941e+01	-1.335321e+01
5.996377e+01	-1.340156e+01
6.031012e+01	-1.344901e+01
6.065847e+01	-1.349651e+01
6.100883e+01	-1.354423e+01
6.136121e+01	-1.359322e+01
6.171563e+01	-1.364041e+01
6.207210e+01	-1.368887e+01
6.243063e+01	-1.373544e+01
6.279122e+01	-1.378389e+01
6.315390e+01	-1.383193e+01
6.351868e+01	-1.388032e+01
6.388556e+01	-1.392798e+01
6.425456e+01	-1.397558e+01
6.462569e+01	-1.402397e+01
6.499897e+01	-1.407186e+01
6.537440e+01	-1.412084e+01
6.575200e+01	-1.416844e+01
6.613178e+01	-1.421644e+01
6.651375e+01	-1.426438e+01
6.689793e+01	-1.431241e+01
6.728433e+01	-1.436078e+01
6.767297e+01	-1.440888e+01
6.806384e+01	-1.445788e+01
6.845698e+01	-1.450604e+01
6.885238e+01	-1.455387e+01
6.925007e+01	-1.460210e+01
6.965005e+01	-1.464991e+01
7.005235e+01	-1.469937e+01
7.045697e+01	-1.474658e+01
7.086393e+01	-1.479469e+01
7.127323e+01	-1.484451e+01
7.168490e+01	-1.489186e+01
7.209895e+01	-1.494064e+01
7.251539e+01	-1.498968e+01
7.293424e+01	-1.503760e+01
7.335551e+01	-1.508633e+01
7.377920e+01	-1.513434e+01
7.420535e+01	-1.518302e+01
7.463396e+01	-1.523176e+01
7.506504e+01	-1.528125e+01
7.549861e+01	-1.532915e+01
7.593469e+01	-1.537703e+01
7.637328e+01	-1.542598e+01
7.681441e+01	-1.547319e+01
7.725809e+01	-1.552276e+01
7.770433e+01	-1.557145e+01
7.815315e+01	-1.562037e+01
7.860456e+01	-1.566851e+01
7.905857e+01	-1.571704e+01
7.951521e+01	-1.576612e+01
7.997449e+01	-1.581619e+01
8.043642e+01	-1.586349e+01
8.090102e+01	-1.591230e+01
8.136830e+01	-1.596031e+01
8.183828e+01	-1.600969e+01
8.231097e+01	-1.605863e+01
8.278640e+01	-1.610708e+01
8.326457e+01	-1.615599e+01
8.374550e+01	-1.620533e+01
8.422921e+01	-1.625419e+01
8.471572e+01	-1.630351e+01
8.520503e+01	-1.635105e+01
8.569717e+01	-1.640057e+01
8.619215e+01	-1.644895e+01
8.669000e+01	-1.649749e+01
8.719071e+01	-1.654822e+01
8.769432e+01	-1.659633e+01
8.820084e+01	-1.664582e+01
8.871029e+01	-1.669362e+01
8.922267e+01	-1.674357e+01
8.973802e+01	-1.679208e+01
9.025634e+01	-1.684114e+01
9.077766e+01	-1.689000e+01
9.130199e+01	-1.693836e+01
9.182935e+01	-1.698760e+01
9.235975e+01	-1.703709e+01
9.289321e+01	-1.708629e+01
9.342976e+01	-1.713546e+01
9.396941e+01	-1.718382e+01
9.451217e+01	-1.723374e+01
9.505807e+01	-1.728133e+01
9.560712e+01	-1.733150e+01
9.615934e+01	-1.738186e+01
9.671476e+01	-1.742907e+01
9.727338e+01	-1.747810e+01
9.783522e+01	-1.752872e+01
9.840032e+01	-1.757787e+01
9.896867e+01	-1.762524e+01
9.954031e+01	-1.767560e+01
1.001153e+02	-1.772396e+01
1.006935e+02	-1.777354e+01
1.012751e+02	-1.782341e+01
1.018601e+02	-1.787028e+01
1.024484e+02	-1.792155e+01
1.030402e+02	-1.797067e+01
1.036353e+02	-1.801992e+01
1.042339e+02	-1.806913e+01
1.048360e+02	-1.811945e+01
1.054415e+02	-1.816690e+01
1.060505e+02	-1.821754e+01
1.066631e+02	-1.826540e+01
1.072791e+02	-1.831519e+01
1.078988e+02	-1.836659e+01
1.085220e+02	-1.841571e+01
1.091488e+02	-1.846405e+01
1.097793e+02	-1.851171e+01
1.104133e+02	-1.856309e+01
1.110511e+02	-1.861084e+01
1.116925e+02	-1.866021e+01
1.123376e+02	-1.870989e+01
1.129865e+02	-1.875885e+01
1.136391e+02	-1.880898e+01
1.142955e+02	-1.885872e+01
1.149556e+02	-1.890737e+01
1.156196e+02	-1.895691e+01
1.162874e+02	-1.900641e+01
1.169591e+02	-1.905685e+01
1.176347e+02	-1.910478e+01
1.183141e+02	-1.915579e+01
1.189975e+02	-1.920448e+01
1.196848e+02	-1.925395e+01
1.203761e+02	-1.930269e+01
1.210714e+02	-1.935143e+01
1.217707e+02	-1.940305e+01
1.224740e+02	-1.945258e+01
1.231814e+02	-1.950100e+01
1.238929e+02	-1.954976e+01
1.246085e+02	-1.959943e+01
1.253283e+02	-1.964979e+01
1.260522e+02	-1.969950e+01
1.267802e+02	-1.974890e+01
1.275125e+02	-1.979724e+01
1.282490e+02	-1.984695e+01
1.289898e+02	-1.989520e+01
1.297348e+02	-1.994659e+01
1.304842e+02	-1.999467e+01
1.312378e+02	-2.004595e+01
1.319959e+02	-2.009613e+01
1.327583e+02	-2.014394e+01
1.335251e+02	-2.019605e+01
1.342963e+02	-2.024399e+01
1.350720e+02	-2.029261e+01
1.358522e+02	-2.034308e+01
1.366368e+02	-2.039236e+01
1.374260e+02	-2.044224e+01
1.382198e+02	-2.049159e+01
1.390182e+02	-2.054000e+01
1.398211e+02	-2.059224e+01
1.406287e+02	-2.064023e+01
1.414410e+02	-2.069093e+01
1.422579e+02	-2.073937e+01
1.430796e+02	-2.078945e+01
1.439060e+02	-2.083894e+01
1.447372e+02	-2.088677e+01
1.455732e+02	-2.093919e+01
1.464141e+02	-2.098631e+01
1.472597e+02	-2.103732e+01
1.481103e+02	-2.108586e+01
1.489658e+02	-2.113662e+01
1.498262e+02	-2.118575e+01
1.506916e+02	-2.123570e+01
1.515620e+02	-2.128580e+01
1.524374e+02	-2.133606e+01
1.533179e+02	-2.138543e+01
1.542034e+02	-2.143351e+01
1.550941e+02	-2.148621e+01
1.559899e+02	-2.153426e+01
1.568909e+02	-2.158580e+01
1.577971e+02	-2.163388e+01
1.587085e+02	-2.168199e+01
1.596252e+02	-2.173306e+01
1.605472e+02	-2.178239e+01
1.614745e+02	-2.183279e+01
1.624072e+02	-2.188340e+01
1.633453e+02	-2.193196e+01
1.642887e+02	-2.198210e+01
1.652377e+02	-2.203065e+01
1.661921e+02	-2.208194e+01
1.671520e+02	-2.212866e+01
1.681175e+02	-2.218027e+01
1.690885e+02	-2.222836e+01
1.700651e+02	-2.227988e+01
1.710474e+02	-2.233051e+01
1.720354e+02	-2.237896e+01
1.730291e+02	-2.243005e+01
1.740285e+02	-2.247657e+01
1.750337e+02	-2.252909e+01
1.760446e+02	-2.257970e+01
1.770615e+02	-2.263002e+01
1.780842e+02	-2.267892e+01
1.791128e+02	-2.272625e+01
1.801473e+02	-2.277735e+01
1.811878e+02	-2.282776e+01
1.822344e+02	-2.287830e+01
1.832870e+02	-2.292840e+01
1.843456e+02	-2.297744e+01
1.854104e+02	-2.302705e+01
1.864813e+02	-2.307457e+01
1.875584e+02	-2.312640e+01
1.886418e+02	-2.317673e+01
1.897313e+02	-2.322392e+01
1.908272e+02	-2.327474e+01
1.919294e+02	-2.332585e+01
1.930380e+02	-2.337655e+01
1.941530e+02	-2.342571e+01
1.952744e+02	-2.347156e+01
1.964023e+02	-2.352582e+01
1.975367e+02	-2.357457e+01
1.986777e+02	-2.362252e+01
1.998252e+02	-2.367703e+01
2.009794e+02	-2.372484e+01
2.021403e+02	-2.377446e+01
2.033078e+02	-2.382396e+01
2.044821e+02	-2.387330e+01
2.056632e+02	-2.392046e+01
2.068511e+02	-2.397447e+01
2.080459e+02	-2.402507e+01
2.092475e+02	-2.407109e+01
2.104561e+02	-2.412435e+01
2.116717e+02	-2.417598e+01
2.128943e+02	-2.422291e+01
2.141240e+02	-2.427011e+01
2.153608e+02	-2.432001e+01
2.166047e+02	-2.437054e+01
2.178558e+02	-2.442269e+01
2.191141e+02	-2.447149e+01
2.203797e+02	-2.452106e+01
2.216526e+02	-2.457198e+01
2.229329e+02	-2.461863e+01
2.242205e+02	-2.467264e+01
2.255156e+02	-2.471862e+01
2.268182e+02	-2.477173e+01
2.281283e+02	-2.482089e+01
2.294459e+02	-2.487151e+01
2.307712e+02	-2.492175e+01
2.321041e+02	-2.496893e+01
2.334447e+02	-2.502153e+01
2.347931e+02	-2.507306e+01
2.361493e+02	-2.511979e+01
2.375133e+02	-2.516997e+01
2.388851e+02	-2.521704e+01
2.402649e+02	-2.526898e+01
2.416527e+02	-2.531937e+01
2.430484e+02	-2.536945e+01
2.444523e+02	-2.542045e+01
2.458642e+02	-2.546965e+01
2.472843e+02	-2.551956e+01
2.487126e+02	-2.556962e+01
2.501492e+02	-2.561937e+01
2.515940e+02	-2.567217e+01
2.530472e+02	-2.571876e+01
2.545088e+02	-2.576916e+01
2.559789e+02	-2.582063e+01
2.574574e+02	-2.586984e+01
2.589444e+02	-2.592284e+01
2.604401e+02	-2.596862e+01
2.619444e+02	-2.601873e+01
2.634574e+02	-2.606910e+01
2.649791e+02	-2.611637e+01
2.665096e+02	-2.616878e+01
2.680489e+02	-2.622081e+01
2.695972e+02	-2.626734e+01
2.711544e+02	-2.631710e+01
2.727205e+02	-2.637024e+01
2.742958e+02	-2.642079e+01
2.758801e+02	-2.646957e+01
2.774736e+02	-2.651957e+01
2.790762e+02	-2.656899e+01
2.806882e+02	-2.661884e+01
2.823094e+02	-2.667047e+01
2.839400e+02	-2.671943e+01
2.855800e+02	-2.676748e+01
2.872295e+02	-2.681934e+01
2.888886e+02	-2.686811e+01
2.905572e+02	-2.692383e+01
2.922354e+02	-2.696848e+01
2.939234e+02	-2.701726e+01
2.956211e+02	-2.707133e+01
2.973286e+02	-2.711764e+01
2.990459e+02	-2.717098e+01
3.007732e+02	-2.722129e+01
3.025104e+02	-2.726921e+01
3.042577e+02	-2.731984e+01
3.060151e+02	-2.736657e+01
3.077826e+02	-2.741687e+01
3.095604e+02	-2.746879e+01
3.113484e+02	-2.751810e+01
3.131467e+02	-2.756802e+01
3.149554e+02	-2.761736e+01
3.167746e+02	-2.767314e+01
3.186043e+02	-2.771622e+01
3.204445e+02	-2.777149e+01
3.222954e+02	-2.781715e+01
3.241570e+02	-2.786949e+01
3.260293e+02	-2.791896e+01
3.279124e+02	-2.797076e+01
3.298064e+02	-2.801701e+01
3.317114e+02	-2.807026e+01
3.336273e+02	-2.811985e+01
3.355544e+02	-2.816886e+01
3.374925e+02	-2.822221e+01
3.394418e+02	-2.826802e+01
3.414024e+02	-2.832318e+01
3.433744e+02	-2.837219e+01
3.453577e+02	-2.842030e+01
3.473525e+02	-2.846837e+01
3.493588e+02	-2.852160e+01
3.513766e+02	-2.856796e+01
3.534062e+02	-2.862104e+01
3.554474e+02	-2.866844e+01
3.575005e+02	-2.871840e+01
3.595654e+02	-2.876668e+01
3.616422e+02	-2.881931e+01
3.637311e+02	-2.886888e+01
3.658320e+02	-2.891883e+01
3.679450e+02	-2.897039e+01
3.700702e+02	-2.901993e+01
3.722077e+02	-2.907179e+01
3.743576e+02	-2.912111e+01
3.765199e+02	-2.916756e+01
3.786946e+02	-2.922268e+01
3.808820e+02	-2.926965e+01
3.830819e+02	-2.932398e+01
3.852946e+02	-2.936816e+01
3.875200e+02	-2.942069e+01
3.897583e+02	-2.946657e+01
3.920096e+02	-2.951820e+01
3.942738e+02	-2.957489e+01
3.965511e+02	-2.961908e+01
3.988416e+02	-2.966711e+01
4.011452e+02	-2.972052e+01
4.034622e+02	-2.976879e+01
4.057926e+02	-2.981590e+01
4.081365e+02	-2.987010e+01
4.104938e+02	-2.992175e+01
4.128648e+02	-2.996505e+01
4.152495e+02	-3.001938e+01
4.176480e+02	-3.007696e+01
4.200603e+02	-3.011858e+01
4.224866e+02	-3.017242e+01
4.249268e+02	-3.022253e+01
4.273812e+02	-3.027528e+01
4.298497e+02	-3.032169e+01
4.323325e+02	-3.037474e+01
4.348297e+02	-3.042416e+01
4.373412e+02	-3.046909e+01
4.398673e+02	-3.051808e+01
4.424079e+02	-3.057405e+01
4.449633e+02	-3.062271e+01
4.475334e+02	-3.067192e+01
4.501183e+02	-3.072802e+01
4.527182e+02	-3.077472e+01
4.553330e+02	-3.081719e+01
4.579630e+02	-3.087557e+01
4.606082e+02	-3.092818e+01
4.632687e+02	-3.097190e+01
4.659445e+02	-3.101726e+01
4.686358e+02	-3.107770e+01
4.713426e+02	-3.112345e+01
4.740650e+02	-3.117791e+01
4.768032e+02	-3.122083e+01
4.795572e+02	-3.127599e+01
4.823271e+02	-3.132561e+01
4.851130e+02	-3.137324e+01
4.879150e+02	-3.142617e+01
4.907332e+02	-3.147305e+01
4.935676e+02	-3.152788e+01
4.964185e+02	-3.157826e+01
4.992858e+02	-3.161991e+01
5.021696e+02	-3.167509e+01
5.050701e+02	-3.173300e+01
5.079874e+02	-3.177614e+01
5.109215e+02	-3.182479e+01
5.138726e+02	-3.187091e+01
5.168407e+02	-3.192660e+01
5.198259e+02	-3.197560e+01
5.228284e+02	-3.202621e+01
5.258482e+02	-3.207673e+01
5.288855e+02	-3.213006e+01
5.319403e+02	-3.217705e+01
5.350128e+02	-3.223082e+01
5.381030e+02	-3.228144e+01
5.412111e+02	-3.232946e+01
5.443371e+02	-3.237580e+01
5.474812e+02	-3.243180e+01
5.506434e+02	-3.247773e+01
5.538239e+02	-3.252833e+01
5.570228e+02	-3.258255e+01
5.602401e+02	-3.263129e+01
5.634760e+02	-3.267794e+01
5.667306e+02	-3.273394e+01
5.700040e+02	-3.277992e+01
5.732964e+02	-3.282523e+01
5.766077e+02	-3.287239e+01
5.799382e+02	-3.292899e+01
5.832879e+02	-3.297954e+01
5.866569e+02	-3.303263e+01
5.900454e+02	-3.307608e+01
5.934535e+02	-3.314017e+01
5.968813e+02	-3.317942e+01
6.003288e+02	-3.322469e+01
6.037963e+02	-3.328641e+01
6.072838e+02	-3.333473e+01
6.107914e+02	-3.337604e+01
6.143194e+02	-3.343175e+01
6.178676e+02	-3.348101e+01
6.214364e+02	-3.353311e+01
6.250258e+02	-3.358544e+01
6.286359e+02	-3.363250e+01
6.322669e+02	-3.368743e+01
6.359189e+02	-3.373973e+01
6.395919e+02	-3.378118e+01
6.432862e+02	-3.383699e+01
6.470017e+02	-3.388267e+01
6.507388e+02	-3.394126e+01
6.544974e+02	-3.398681e+01
6.582778e+02	-3.403925e+01
6.620800e+02	-3.408523e+01
6.659041e+02	-3.413799e+01
6.697504e+02	-3.418217e+01
6.736188e+02	-3.423584e+01
6.775096e+02	-3.429039e+01
6.814229e+02	-3.433494e+01
6.853587e+02	-3.438880e+01
6.893173e+02	-3.443964e+01
6.932988e+02	-3.448992e+01
6.973033e+02	-3.453279e+01
7.013309e+02	-3.457848e+01
