Frequency(Hz)	Magnitude(dB)
1.000000e+01	-2.124676e+00
1.005776e+01	-2.144219e+00
1.011585e+01	-2.163759e+00
1.017428e+01	-2.183255e+00
1.023305e+01	-2.203252e+00
1.029215e+01	-2.223364e+00
1.035160e+01	-2.243204e+00
1.041139e+01	-2.263565e+00
1.047153e+01	-2.283838e+00
1.053201e+01	-2.304309e+00
1.059284e+01	-2.325097e+00
1.065403e+01	-2.345807e+00
1.071556e+01	-2.367004e+00
1.077746e+01	-2.387865e+00
1.083971e+01	-2.409262e+00
1.090232e+01	-2.430639e+00
1.096529e+01	-2.451867e+00
1.102862e+01	-2.473487e+00
1.109232e+01	-2.495367e+00
1.115639e+01	-2.517404e+00
1.122083e+01	-2.539540e+00
1.128564e+01	-2.561738e+00
1.135083e+01	-2.583987e+00
1.141639e+01	-2.606663e+00
1.148233e+01	-2.629285e+00
1.154865e+01	-2.651956e+00
1.161536e+01	-2.674944e+00
1.168245e+01	-2.698180e+00
1.174992e+01	-2.721189e+00
1.181779e+01	-2.744672e+00
1.188605e+01	-2.767991e+00
1.195470e+01	-2.792105e+00
1.202375e+01	-2.815580e+00
1.209320e+01	-2.839455e+00
1.216305e+01	-2.863502e+00
1.223330e+01	-2.887864e+00
1.230396e+01	-2.912274e+00
1.237503e+01	-2.936697e+00
1.244651e+01	-2.961400e+00
1.251840e+01	-2.985839e+00
1.259070e+01	-3.011064e+00
1.266343e+01	-3.036216e+00
1.273657e+01	-3.061194e+00
1.281014e+01	-3.086827e+00
1.288413e+01	-3.112303e+00
1.295855e+01	-3.137823e+00
1.303339e+01	-3.163855e+00
1.310867e+01	-3.189753e+00
1.318439e+01	-3.215925e+00
1.326054e+01	-3.242161e+00
1.333713e+01	-3.268291e+00
1.341417e+01	-3.295011e+00
1.349165e+01	-3.321563e+00
1.356958e+01	-3.348417e+00
1.364795e+01	-3.375154e+00
1.372678e+01	-3.402616e+00
1.380607e+01	-3.429650e+00
1.388581e+01	-3.457236e+00
1.396602e+01	-3.484664e+00
1.404668e+01	-3.512382e+00
1.412782e+01	-3.540134e+00
1.420942e+01	-3.567927e+00
1.429149e+01	-3.596266e+00
1.437404e+01	-3.624256e+00
1.445706e+01	-3.652831e+00
1.454057e+01	-3.681345e+00
1.462455e+01	-3.710017e+00
1.470902e+01	-3.738892e+00
1.479398e+01	-3.767879e+00
1.487943e+01	-3.796793e+00
1.496537e+01	-3.825907e+00
1.505181e+01	-3.855536e+00
1.513875e+01	-3.884927e+00
1.522619e+01	-3.914273e+00
1.531414e+01	-3.944425e+00
1.540259e+01	-3.974101e+00
1.549156e+01	-4.004180e+00
1.558103e+01	-4.034879e+00
1.567103e+01	-4.065114e+00
1.576155e+01	-4.095454e+00
1.585258e+01	-4.126100e+00
1.594415e+01	-4.156935e+00
1.603624e+01	-4.187839e+00
1.612886e+01	-4.218554e+00
1.622202e+01	-4.250004e+00
1.631572e+01	-4.281232e+00
1.640996e+01	-4.312543e+00
1.650474e+01	-4.344025e+00
1.660008e+01	-4.375876e+00
1.669596e+01	-4.407525e+00
1.679239e+01	-4.439310e+00
1.688938e+01	-4.471575e+00
1.698694e+01	-4.503931e+00
1.708505e+01	-4.536335e+00
1.718373e+01	-4.568697e+00
1.728299e+01	-4.601486e+00
1.738281e+01	-4.634179e+00
1.748322e+01	-4.667092e+00
1.758420e+01	-4.700168e+00
1.768576e+01	-4.733209e+00
1.778792e+01	-4.766616e+00
1.789066e+01	-4.799874e+00
1.799399e+01	-4.833298e+00
1.809793e+01	-4.866739e+00
1.820246e+01	-4.900769e+00
1.830760e+01	-4.934542e+00
1.841334e+01	-4.968871e+00
1.851969e+01	-5.002934e+00
1.862666e+01	-5.037122e+00
1.873425e+01	-5.071358e+00
1.884246e+01	-5.106248e+00
1.895129e+01	-5.140758e+00
1.906075e+01	-5.175368e+00
1.917085e+01	-5.210626e+00
1.928158e+01	-5.245331e+00
1.939295e+01	-5.280684e+00
1.950496e+01	-5.315991e+00
1.961762e+01	-5.351285e+00
1.973093e+01	-5.386790e+00
1.984490e+01	-5.421975e+00
1.995952e+01	-5.458013e+00
2.007480e+01	-5.493847e+00
2.019076e+01	-5.529624e+00
2.030738e+01	-5.565845e+00
2.042467e+01	-5.602068e+00
2.054264e+01	-5.638476e+00
2.066130e+01	-5.674529e+00
2.078064e+01	-5.711374e+00
2.090066e+01	-5.747927e+00
2.102139e+01	-5.785031e+00
2.114280e+01	-5.821513e+00
2.126492e+01	-5.859037e+00
2.138775e+01	-5.895689e+00
2.151128e+01	-5.933116e+00
2.163553e+01	-5.970301e+00
2.176050e+01	-6.007721e+00
2.188619e+01	-6.045289e+00
2.201260e+01	-6.082682e+00
2.213974e+01	-6.120538e+00
2.226762e+01	-6.158313e+00
2.239624e+01	-6.196495e+00
2.252560e+01	-6.234474e+00
2.265571e+01	-6.273262e+00
2.278656e+01	-6.310729e+00
2.291818e+01	-6.349366e+00
2.305055e+01	-6.387637e+00
2.318369e+01	-6.426121e+00
2.331760e+01	-6.465119e+00
2.345228e+01	-6.503627e+00
2.358774e+01	-6.542748e+00
2.372398e+01	-6.581951e+00
2.386101e+01	-6.620633e+00
2.399883e+01	-6.660064e+00
2.413745e+01	-6.699490e+00
2.427686e+01	-6.738614e+00
2.441709e+01	-6.778207e+00
2.455812e+01	-6.818018e+00
2.469997e+01	-6.857097e+00
2.484263e+01	-6.896816e+00
2.498612e+01	-6.937356e+00
2.513044e+01	-6.977185e+00
2.527559e+01	-7.017195e+00
2.542158e+01	-7.057463e+00
2.556842e+01	-7.097508e+00
2.571610e+01	-7.137433e+00
2.586463e+01	-7.177886e+00
2.601403e+01	-7.218372e+00
2.616428e+01	-7.259167e+00
2.631541e+01	-7.299916e+00
2.646740e+01	-7.340448e+00
2.662028e+01	-7.381960e+00
2.677404e+01	-7.422414e+00
2.692868e+01	-7.463290e+00
2.708422e+01	-7.504238e+00
2.724066e+01	-7.545819e+00
2.739800e+01	-7.586686e+00
2.755625e+01	-7.628136e+00
2.771541e+01	-7.669487e+00
2.787550e+01	-7.711181e+00
2.803650e+01	-7.752751e+00
2.819844e+01	-7.794311e+00
2.836131e+01	-7.836169e+00
2.852513e+01	-7.878288e+00
2.868989e+01	-7.919913e+00
2.885560e+01	-7.962139e+00
2.902227e+01	-8.003824e+00
2.918990e+01	-8.046190e+00
2.935850e+01	-8.088494e+00
2.952807e+01	-8.130730e+00
2.969863e+01	-8.172804e+00
2.987016e+01	-8.216115e+00
3.004269e+01	-8.257667e+00
3.021622e+01	-8.300614e+00
3.039075e+01	-8.342883e+00
3.056628e+01	-8.385967e+00
3.074283e+01	-8.428732e+00
3.092040e+01	-8.471460e+00
3.109900e+01	-8.514730e+00
3.127862e+01	-8.557685e+00
3.145929e+01	-8.600988e+00
3.164099e+01	-8.644104e+00
3.182375e+01	-8.687500e+00
3.200756e+01	-8.730606e+00
3.219244e+01	-8.773522e+00
3.237838e+01	-8.817015e+00
3.256540e+01	-8.860368e+00
3.275349e+01	-8.904481e+00
3.294268e+01	-8.947862e+00
3.313295e+01	-8.991502e+00
3.332433e+01	-9.034771e+00
3.351681e+01	-9.078883e+00
3.371040e+01	-9.122753e+00
3.390511e+01	-9.166563e+00
3.410094e+01	-9.211167e+00
3.429791e+01	-9.254696e+00
3.449601e+01	-9.299301e+00
3.469526e+01	-9.343385e+00
3.489566e+01	-9.387508e+00
3.509721e+01	-9.431473e+00
3.529993e+01	-9.476340e+00
3.550382e+01	-9.520485e+00
3.570889e+01	-9.564740e+00
3.591515e+01	-9.609626e+00
3.612259e+01	-9.654282e+00
3.633123e+01	-9.699031e+00
3.654108e+01	-9.743532e+00
3.675214e+01	-9.787987e+00
3.696442e+01	-9.833011e+00
3.717792e+01	-9.877879e+00
3.739266e+01	-9.922645e+00
3.760864e+01	-9.967240e+00
3.782587e+01	-1.001279e+01
3.804435e+01	-1.005785e+01
3.826409e+01	-1.010308e+01
3.848510e+01	-1.014826e+01
3.870739e+01	-1.019349e+01
3.893096e+01	-1.023878e+01
3.915583e+01	-1.028351e+01
3.938199e+01	-1.032901e+01
3.960946e+01	-1.037437e+01
3.983824e+01	-1.042002e+01
4.006834e+01	-1.046528e+01
4.029978e+01	-1.051084e+01
4.053255e+01	-1.055652e+01
4.076666e+01	-1.060275e+01
4.100213e+01	-1.064774e+01
4.123896e+01	-1.069397e+01
4.147715e+01	-1.073973e+01
4.171672e+01	-1.078537e+01
4.195767e+01	-1.083095e+01
4.220002e+01	-1.087684e+01
4.244377e+01	-1.092325e+01
4.268892e+01	-1.096910e+01
4.293549e+01	-1.101494e+01
4.318348e+01	-1.106121e+01
4.343291e+01	-1.110701e+01
4.368377e+01	-1.115341e+01
4.393609e+01	-1.119902e+01
4.418986e+01	-1.124622e+01
4.444510e+01	-1.129245e+01
4.470182e+01	-1.133892e+01
4.496001e+01	-1.138514e+01
4.521970e+01	-1.143203e+01
4.548089e+01	-1.147832e+01
4.574358e+01	-1.152457e+01
4.600779e+01	-1.157085e+01
4.627353e+01	-1.161699e+01
4.654081e+01	-1.166456e+01
4.680963e+01	-1.171066e+01
4.708000e+01	-1.175702e+01
4.735193e+01	-1.180402e+01
4.762543e+01	-1.185108e+01
4.790051e+01	-1.189703e+01
4.817719e+01	-1.194411e+01
4.845545e+01	-1.199138e+01
4.873533e+01	-1.203847e+01
4.901682e+01	-1.208528e+01
4.929994e+01	-1.213148e+01
4.958470e+01	-1.217913e+01
4.987110e+01	-1.222606e+01
5.015915e+01	-1.227288e+01
5.044887e+01	-1.231966e+01
5.074026e+01	-1.236712e+01
5.103333e+01	-1.241454e+01
5.132810e+01	-1.246116e+01
5.162457e+01	-1.250869e+01
5.192275e+01	-1.255563e+01
5.222265e+01	-1.260357e+01
5.252429e+01	-1.265030e+01
5.282767e+01	-1.269857e+01
5.313280e+01	-1.274402e+01
5.343969e+01	-1.279331e+01
5.374836e+01	-1.284019e+01
5.405880e+01	-1.288697e+01
5.437105e+01	-1.293525e+01
5.468509e+01	-1.298213e+01
5.500095e+01	-1.302977e+01
5.531863e+01	-1.307706e+01
5.563815e+01	-1.312504e+01
5.595951e+01	-1.317285e+01
5.628273e+01	-1.322039e+01
5.660782e+01	-1.326794e+01
5.693479e+01	-1.331554e+01
5.726364e+01	-1.336336e+01
5.759439e+01	-1.341163e+01
5.792705e+01	-1.345839e+01
5.826164e+01	-1.350691e+01
5.859815e+01	-1.355493e+01
5.893662e+01	-1.360226e+01
5.927703e+01	-1.365024e+01
5.961941e+01	-1.369836e+01
5.996377e+01	-1.374622e+01
6.031012e+01	-1.379403e+01
6.065847e+01	-1.384174e+01
6.100883e+01	-1.389000e+01
6.136121e+01	-1.393669e+01
6.171563e+01	-1.398472e+01
6.207210e+01	-1.403388e+01
6.243063e+01	-1.408189e+01
6.279122e+01	-1.413044e+01
6.315390e+01	-1.417791e+01
6.351868e+01	-1.422618e+01
6.388556e+01	-1.427423e+01
6.425456e+01	-1.432306e+01
6.462569e+01	-1.437179e+01
6.499897e+01	-1.441898e+01
6.537440e+01	-1.446753e+01
6.575200e+01	-1.451518e+01
6.613178e+01	-1.456310e+01
6.651375e+01	-1.461278e+01
6.689793e+01	-1.466013e+01
6.728433e+01	-1.470807e+01
6.767297e+01	-1.475685e+01
6.806384e+01	-1.480515e+01
6.845698e+01	-1.485359e+01
6.885238e+01	-1.490210e+01
6.925007e+01	-1.495066e+01
6.965005e+01	-1.500004e+01
7.005235e+01	-1.504710e+01
7.045697e+01	-1.509553e+01
7.086393e+01	-1.514458e+01
7.127323e+01	-1.519292e+01
7.168490e+01	-1.524098e+01
7.209895e+01	-1.529018e+01
7.251539e+01	-1.533825e+01
7.293424e+01	-1.538655e+01
7.335551e+01	-1.543472e+01
7.377920e+01	-1.548373e+01
7.420535e+01	-1.553222e+01
7.463396e+01	-1.558195e+01
7.506504e+01	-1.562991e+01
7.549861e+01	-1.567876e+01
7.593469e+01	-1.572732e+01
7.637328e+01	-1.577632e+01
7.681441e+01	-1.582549e+01
7.725809e+01	-1.587285e+01
7.770433e+01	-1.592121e+01
7.815315e+01	-1.597065e+01
7.860456e+01	-1.601988e+01
7.905857e+01	-1.606933e+01
7.951521e+01	-1.611693e+01
7.997449e+01	-1.616654e+01
8.043642e+01	-1.621483e+01
8.090102e+01	-1.626377e+01
8.136830e+01	-1.631219e+01
8.183828e+01	-1.636199e+01
8.231097e+01	-1.641058e+01
8.278640e+01	-1.645956e+01
8.326457e+01	-1.650812e+01
8.374550e+01	-1.655767e+01
8.422921e+01	-1.660576e+01
8.471572e+01	-1.665569e+01
8.520503e+01	-1.670445e+01
8.569717e+01	-1.675337e+01
8.619215e+01	-1.680293e+01
8.669000e+01	-1.685062e+01
8.719071e+01	-1.689985e+01
8.769432e+01	-1.694985e+01
8.820084e+01	-1.699852e+01
8.871029e+01	-1.704711e+01
8.922267e+01	-1.709646e+01
8.973802e+01	-1.714588e+01
9.025634e+01	-1.719425e+01
9.077766e+01	-1.724383e+01
9.130199e+01	-1.729201e+01
9.182935e+01	-1.734154e+01
9.235975e+01	-1.739108e+01
9.289321e+01	-1.743950e+01
9.342976e+01	-1.748905e+01
9.396941e+01	-1.753805e+01
9.451217e+01	-1.758723e+01
9.505807e+01	-1.763821e+01
9.560712e+01	-1.768494e+01
9.615934e+01	-1.773414e+01
9.671476e+01	-1.778415e+01
9.727338e+01	-1.783272e+01
9.783522e+01	-1.788233e+01
9.840032e+01	-1.793139e+01
9.896867e+01	-1.798007e+01
9.954031e+01	-1.802976e+01
1.001153e+02	-1.807936e+01
1.006935e+02	-1.812820e+01
1.012751e+02	-1.817886e+01
1.018601e+02	-1.822765e+01
1.024484e+02	-1.827527e+01
1.030402e+02	-1.832625e+01
1.036353e+02	-1.837592e+01
1.042339e+02	-1.842420e+01
1.048360e+02	-1.847407e+01
1.054415e+02	-1.852239e+01
1.060505e+02	-1.857202e+01
1.066631e+02	-1.862213e+01
1.072791e+02	-1.867161e+01
1.078988e+02	-1.872043e+01
1.085220e+02	-1.877035e+01
1.091488e+02	-1.881919e+01
1.097793e+02	-1.886800e+01
1.104133e+02	-1.891801e+01
1.110511e+02	-1.896695e+01
1.116925e+02	-1.901721e+01
1.123376e+02	-1.906639e+01
1.129865e+02	-1.911517e+01
1.136391e+02	-1.916603e+01
1.142955e+02	-1.921351e+01
1.149556e+02	-1.926423e+01
1.156196e+02	-1.931323e+01
1.162874e+02	-1.936245e+01
1.169591e+02	-1.941196e+01
1.176347e+02	-1.946305e+01
1.183141e+02	-1.951069e+01
1.189975e+02	-1.956084e+01
1.196848e+02	-1.960880e+01
1.203761e+02	-1.965863e+01
1.210714e+02	-1.970836e+01
1.217707e+02	-1.975896e+01
1.224740e+02	-1.980739e+01
1.231814e+02	-1.985761e+01
1.238929e+02	-1.990764e+01
1.246085e+02	-1.995587e+01
1.253283e+02	-2.000629e+01
1.260522e+02	-2.005665e+01
1.267802e+02	-2.010670e+01
1.275125e+02	-2.015438e+01
1.282490e+02	-2.020513e+01
1.289898e+02	-2.025425e+01
1.297348e+02	-2.030395e+01
1.304842e+02	-2.035274e+01
1.312378e+02	-2.040376e+01
1.319959e+02	-2.045297e+01
1.327583e+02	-2.050202e+01
1.335251e+02	-2.055227e+01
1.342963e+02	-2.059996e+01
1.350720e+02	-2.065105e+01
1.358522e+02	-2.070208e+01
1.366368e+02	-2.075082e+01
1.374260e+02	-2.080132e+01
1.382198e+02	-2.085036e+01
1.390182e+02	-2.090064e+01
1.398211e+02	-2.094771e+01
1.406287e+02	-2.099868e+01
1.414410e+02	-2.104791e+01
1.422579e+02	-2.109649e+01
1.430796e+02	-2.114680e+01
1.439060e+02	-2.119697e+01
1.447372e+02	-2.124596e+01
1.455732e+02	-2.129754e+01
1.464141e+02	-2.134531e+01
1.472597e+02	-2.139564e+01
1.481103e+02	-2.144507e+01
1.489658e+02	-2.149689e+01
1.498262e+02	-2.154514e+01
1.506916e+02	-2.159611e+01
1.515620e+02	-2.164353e+01
1.524374e+02	-2.169359e+01
1.533179e+02	-2.174569e+01
1.542034e+02	-2.179307e+01
1.550941e+02	-2.184307e+01
1.559899e+02	-2.189172e+01
1.568909e+02	-2.194368e+01
1.577971e+02	-2.199083e+01
1.587085e+02	-2.204187e+01
1.596252e+02	-2.209182e+01
1.605472e+02	-2.214109e+01
1.614745e+02	-2.219027e+01
1.624072e+02	-2.224123e+01
1.633453e+02	-2.229091e+01
1.642887e+02	-2.234121e+01
1.652377e+02	-2.239043e+01
1.661921e+02	-2.243950e+01
1.671520e+02	-2.248934e+01
1.681175e+02	-2.254189e+01
1.690885e+02	-2.259028e+01
1.700651e+02	-2.263859e+01
1.710474e+02	-2.268809e+01
1.720354e+02	-2.273808e+01
1.730291e+02	-2.278944e+01
1.740285e+02	-2.283706e+01
1.750337e+02	-2.288823e+01
1.760446e+02	-2.293650e+01
1.770615e+02	-2.298627e+01
1.780842e+02	-2.303500e+01
1.791128e+02	-2.308561e+01
1.801473e+02	-2.313657e+01
1.811878e+02	-2.318657e+01
1.822344e+02	-2.323524e+01
1.832870e+02	-2.328684e+01
1.843456e+02	-2.333737e+01
1.854104e+02	-2.338542e+01
1.864813e+02	-2.343585e+01
1.875584e+02	-2.348493e+01
1.886418e+02	-2.353594e+01
1.897313e+02	-2.358639e+01
1.908272e+02	-2.363540e+01
1.919294e+02	-2.368517e+01
1.930380e+02	-2.373590e+01
1.941530e+02	-2.378531e+01
1.952744e+02	-2.383565e+01
1.964023e+02	-2.388393e+01
1.975367e+02	-2.393292e+01
1.986777e+02	-2.398223e+01
1.998252e+02	-2.403224e+01
2.009794e+02	-2.408432e+01
2.021403e+02	-2.413461e+01
2.033078e+02	-2.418127e+01
2.044821e+02	-2.423486e+01
2.056632e+02	-2.428438e+01
2.068511e+02	-2.433393e+01
2.080459e+02	-2.438358e+01
2.092475e+02	-2.443500e+01
2.104561e+02	-2.448246e+01
2.116717e+02	-2.453283e+01
2.128943e+02	-2.458628e+01
2.141240e+02	-2.463244e+01
2.153608e+02	-2.468406e+01
2.166047e+02	-2.473275e+01
2.178558e+02	-2.478092e+01
2.191141e+02	-2.483252e+01
2.203797e+02	-2.488011e+01
2.216526e+02	-2.493048e+01
2.229329e+02	-2.497962e+01
2.242205e+02	-2.503017e+01
2.255156e+02	-2.508250e+01
2.268182e+02	-2.513283e+01
2.281283e+02	-2.517985e+01
2.294459e+02	-2.523063e+01
2.307712e+02	-2.527995e+01
2.321041e+02	-2.533323e+01
2.334447e+02	-2.538314e+01
2.347931e+02	-2.543185e+01
2.361493e+02	-2.547696e+01
2.375133e+02	-2.553453e+01
2.388851e+02	-2.558017e+01
2.402649e+02	-2.562970e+01
2.416527e+02	-2.567991e+01
2.430484e+02	-2.573057e+01
2.444523e+02	-2.578092e+01
2.458642e+02	-2.583174e+01
2.472843e+02	-2.588298e+01
2.487126e+02	-2.593014e+01
2.501492e+02	-2.597840e+01
2.515940e+02	-2.603038e+01
2.530472e+02	-2.608048e+01
2.545088e+02	-2.612591e+01
2.559789e+02	-2.618063e+01
2.574574e+02	-2.623345e+01
2.589444e+02	-2.628395e+01
2.604401e+02	-2.633104e+01
2.619444e+02	-2.637944e+01
2.634574e+02	-2.643027e+01
2.649791e+02	-2.648011e+01
2.665096e+02	-2.653164e+01
2.680489e+02	-2.658289e+01
2.695972e+02	-2.663211e+01
2.711544e+02	-2.668014e+01
2.727205e+02	-2.673040e+01
2.742958e+02	-2.677804e+01
2.758801e+02	-2.683017e+01
2.774736e+02	-2.687540e+01
2.790762e+02	-2.692787e+01
2.806882e+02	-2.697999e+01
2.823094e+02	-2.703155e+01
2.839400e+02	-2.707965e+01
2.855800e+02	-2.712852e+01
2.872295e+02	-2.717880e+01
2.888886e+02	-2.722651e+01
2.905572e+02	-2.727909e+01
2.922354e+02	-2.733170e+01
2.939234e+02	-2.737871e+01
2.956211e+02	-2.743341e+01
2.973286e+02	-2.747650e+01
2.990459e+02	-2.753088e+01
3.007732e+02	-2.757849e+01
3.025104e+02	-2.763329e+01
3.042577e+02	-2.768413e+01
3.060151e+02	-2.773120e+01
3.077826e+02	-2.778228e+01
3.095604e+02	-2.783336e+01
3.113484e+02	-2.788238e+01
3.131467e+02	-2.792953e+01
3.149554e+02	-2.798082e+01
3.167746e+02	-2.802555e+01
3.186043e+02	-2.807501e+01
3.204445e+02	-2.813215e+01
3.222954e+02	-2.817777e+01
3.241570e+02	-2.822588e+01
3.260293e+02	-2.827940e+01
3.279124e+02	-2.832271e+01
3.298064e+02	-2.838145e+01
3.317114e+02	-2.843085e+01
3.336273e+02	-2.848077e+01
3.355544e+02	-2.852965e+01
3.374925e+02	-2.857968e+01
3.394418e+02	-2.863272e+01
3.414024e+02	-2.868167e+01
3.433744e+02	-2.873011e+01
3.453577e+02	-2.877916e+01
3.473525e+02	-2.883060e+01
3.493588e+02	-2.888148e+01
3.513766e+02	-2.893201e+01
3.534062e+02	-2.898526e+01
3.554474e+02	-2.902910e+01
3.575005e+02	-2.907970e+01
3.595654e+02	-2.913207e+01
3.616422e+02	-2.917983e+01
3.637311e+02	-2.923120e+01
3.658320e+02	-2.928195e+01
3.679450e+02	-2.933620e+01
3.700702e+02	-2.938200e+01
3.722077e+02	-2.943489e+01
3.743576e+02	-2.947680e+01
3.765199e+02	-2.953308e+01
3.786946e+02	-2.958265e+01
3.808820e+02	-2.963157e+01
3.830819e+02	-2.968233e+01
3.852946e+02	-2.972671e+01
3.875200e+02	-2.978407e+01
3.897583e+02	-2.983158e+01
3.920096e+02	-2.988243e+01
3.942738e+02	-2.993203e+01
3.965511e+02	-2.998250e+01
3.988416e+02	-3.003682e+01
4.011452e+02	-3.008239e+01
4.034622e+02	-3.013560e+01
4.057926e+02	-3.018796e+01
4.081365e+02	-3.023770e+01
4.104938e+02	-3.027620e+01
4.128648e+02	-3.032721e+01
4.152495e+02	-3.038531e+01
4.176480e+02	-3.043523e+01
4.200603e+02	-3.048326e+01
4.224866e+02	-3.053486e+01
4.249268e+02	-3.058376e+01
4.273812e+02	-3.063543e+01
4.298497e+02	-3.068036e+01
4.323325e+02	-3.073102e+01
4.348297e+02	-3.078325e+01
4.373412e+02	-3.082969e+01
4.398673e+02	-3.088638e+01
4.424079e+02	-3.094066e+01
4.449633e+02	-3.098710e+01
4.475334e+02	-3.103462e+01
4.501183e+02	-3.108519e+01
4.527182e+02	-3.113430e+01
4.553330e+02	-3.119060e+01
4.579630e+02	-3.123757e+01
4.606082e+02	-3.128975e+01
4.632687e+02	-3.133443e+01
4.659445e+02	-3.138265e+01
4.686358e+02	-3.143936e+01
4.713426e+02	-3.149144e+01
4.740650e+02	-3.153998e+01
4.768032e+02	-3.158780e+01
4.795572e+02	-3.163587e+01
4.823271e+02	-3.169110e+01
4.851130e+02	-3.174069e+01
4.879150e+02	-3.178858e+01
4.907332e+02	-3.183646e+01
4.935676e+02	-3.188710e+01
4.964185e+02	-3.193624e+01
4.992858e+02	-3.199114e+01
5.021696e+02	-3.204065e+01
5.050701e+02	-3.209424e+01
5.079874e+02	-3.214188e+01
5.109215e+02	-3.218942e+01
5.138726e+02	-3.223567e+01
5.168407e+02	-3.229758e+01
5.198259e+02	-3.234228e+01
5.228284e+02	-3.239108e+01
5.258482e+02	-3.244034e+01
5.288855e+02	-3.249089e+01
5.319403e+02	-3.254660e+01
5.350128e+02	-3.258757e+01
5.381030e+02	-3.263910e+01
5.412111e+02	-3.269206e+01
5.443371e+02	-3.274138e+01
5.474812e+02	-3.279995e+01
5.506434e+02	-3.284498e+01
5.538239e+02	-3.288692e+01
5.570228e+02	-3.293836e+01
5.602401e+02	-3.299822e+01
5.634760e+02	-3.304800e+01
5.667306e+02	-3.309768e+01
5.700040e+02	-3.314147e+01
5.732964e+02	-3.319402e+01
5.766077e+02	-3.324368e+01
5.799382e+02	-3.329883e+01
5.832879e+02	-3.335164e+01
5.866569e+02	-3.339064e+01
5.900454e+02	-3.344326e+01
5.934535e+02	-3.350000e+01
5.968813e+02	-3.354344e+01
6.003288e+02	-3.359996e+01
6.037963e+02	-3.364548e+01
6.072838e+02	-3.369402e+01
6.107914e+02	-3.374558e+01
6.143194e+02	-3.380069e+01
6.178676e+02	-3.384439e+01
6.214364e+02	-3.390014e+01
6.250258e+02	-3.394536e+01
6.286359e+02	-3.399233e+01
6.322669e+02	-3.404742e+01
6.359189e+02	-3.410142e+01
6.395919e+02	-3.414441e+01
6.432862e+02	-3.420939e+01
6.470017e+02	-3.425430e+01
6.507388e+02	-3.430627e+01
6.544974e+02	-3.435856e+01
6.582778e+02	-3.441346e+01
6.620800e+02	-3.445669e+01
6.659041e+02	-3.450000e+01
6.697504e+02	-3.454806e+01
6.736188e+02	-3.461119e+01
6.775096e+02	-3.465922e+01
6.814229e+02	-3.470568e+01
6.853587e+02	-3.475544e+01
6.893173e+02	-3.480373e+01
6.932988e+02	-3.485425e+01
6.973033e+02	-3.491336e+01
7.013309e+02	-3.495744e+01
