Frequency(Hz)	Magnitude(dB)
1.000000e+01	-1.651303e-05
1.005776e+01	-1.670433e-05
1.011585e+01	-1.689786e-05
1.017428e+01	-1.709362e-05
1.023305e+01	-1.729166e-05
1.029215e+01	-1.749199e-05
1.035160e+01	-1.769464e-05
1.041139e+01	-1.789963e-05
1.047153e+01	-1.810700e-05
1.053201e+01	-1.831678e-05
1.059284e+01	-1.852898e-05
1.065403e+01	-1.874365e-05
1.071556e+01	-1.896080e-05
1.077746e+01	-1.918046e-05
1.083971e+01	-1.940267e-05
1.090232e+01	-1.962746e-05
1.096529e+01	-1.985485e-05
1.102862e+01	-2.008487e-05
1.109232e+01	-2.031756e-05
1.115639e+01	-2.055294e-05
1.122083e+01	-2.079105e-05
1.128564e+01	-2.103192e-05
1.135083e+01	-2.127558e-05
1.141639e+01	-2.152207e-05
1.148233e+01	-2.177140e-05
1.154865e+01	-2.202363e-05
1.161536e+01	-2.227878e-05
1.168245e+01	-2.253689e-05
1.174992e+01	-2.279798e-05
1.181779e+01	-2.306210e-05
1.188605e+01	-2.332928e-05
1.195470e+01	-2.359956e-05
1.202375e+01	-2.387296e-05
1.209320e+01	-2.414954e-05
1.216305e+01	-2.442932e-05
1.223330e+01	-2.471234e-05
1.230396e+01	-2.499864e-05
1.237503e+01	-2.528825e-05
1.244651e+01	-2.558122e-05
1.251840e+01	-2.587759e-05
1.259070e+01	-2.617738e-05
1.266343e+01	-2.648066e-05
1.273657e+01	-2.678744e-05
1.281014e+01	-2.709778e-05
1.288413e+01	-2.741171e-05
1.295855e+01	-2.772929e-05
1.303339e+01	-2.805054e-05
1.310867e+01	-2.837551e-05
1.318439e+01	-2.870424e-05
1.326054e+01	-2.903679e-05
1.333713e+01	-2.937319e-05
1.341417e+01	-2.971348e-05
1.349165e+01	-3.005772e-05
1.356958e+01	-3.040595e-05
1.364795e+01	-3.075821e-05
1.372678e+01	-3.111455e-05
1.380607e+01	-3.147502e-05
1.388581e+01	-3.183966e-05
1.396602e+01	-3.220853e-05
1.404668e+01	-3.258168e-05
1.412782e+01	-3.295914e-05
1.420942e+01	-3.334098e-05
1.429149e+01	-3.372725e-05
1.437404e+01	-3.411799e-05
1.445706e+01	-3.451325e-05
1.454057e+01	-3.491309e-05
1.462455e+01	-3.531757e-05
1.470902e+01	-3.572673e-05
1.479398e+01	-3.614063e-05
1.487943e+01	-3.655933e-05
1.496537e+01	-3.698288e-05
1.505181e+01	-3.741134e-05
1.513875e+01	-3.784476e-05
1.522619e+01	-3.828320e-05
1.531414e+01	-3.872671e-05
1.540259e+01	-3.917537e-05
1.549156e+01	-3.962923e-05
1.558103e+01	-4.008834e-05
1.567103e+01	-4.055277e-05
1.576155e+01	-4.102259e-05
1.585258e+01	-4.149784e-05
1.594415e+01	-4.197860e-05
1.603624e+01	-4.246494e-05
1.612886e+01	-4.295690e-05
1.622202e+01	-4.345457e-05
1.631572e+01	-4.395800e-05
1.640996e+01	-4.446726e-05
1.650474e+01	-4.498242e-05
1.660008e+01	-4.550356e-05
1.669596e+01	-4.603072e-05
1.679239e+01	-4.656400e-05
1.688938e+01	-4.710345e-05
1.698694e+01	-4.764916e-05
1.708505e+01	-4.820118e-05
1.718373e+01	-4.875960e-05
1.728299e+01	-4.932450e-05
1.738281e+01	-4.989593e-05
1.748322e+01	-5.047398e-05
1.758420e+01	-5.105874e-05
1.768576e+01	-5.165026e-05
1.778792e+01	-5.224864e-05
1.789066e+01	-5.285395e-05
1.799399e+01	-5.346628e-05
1.809793e+01	-5.408570e-05
1.820246e+01	-5.471229e-05
1.830760e+01	-5.534614e-05
1.841334e+01	-5.598734e-05
1.851969e+01	-5.663596e-05
1.862666e+01	-5.729210e-05
1.873425e+01	-5.795584e-05
1.884246e+01	-5.862727e-05
1.895129e+01	-5.930648e-05
1.906075e+01	-5.999356e-05
1.917085e+01	-6.068860e-05
1.928158e+01	-6.139169e-05
1.939295e+01	-6.210292e-05
1.950496e+01	-6.282240e-05
1.961762e+01	-6.355021e-05
1.973093e+01	-6.428645e-05
1.984490e+01	-6.503122e-05
1.995952e+01	-6.578462e-05
2.007480e+01	-6.654674e-05
2.019076e+01	-6.731770e-05
2.030738e+01	-6.809759e-05
2.042467e+01	-6.888651e-05
2.054264e+01	-6.968458e-05
2.066130e+01	-7.049188e-05
2.078064e+01	-7.130855e-05
2.090066e+01	-7.213467e-05
2.102139e+01	-7.297036e-05
2.114280e+01	-7.381574e-05
2.126492e+01	-7.467091e-05
2.138775e+01	-7.553598e-05
2.151128e+01	-7.641108e-05
2.163553e+01	-7.729631e-05
2.176050e+01	-7.819181e-05
2.188619e+01	-7.909767e-05
2.201260e+01	-8.001403e-05
2.213974e+01	-8.094101e-05
2.226762e+01	-8.187872e-05
2.239624e+01	-8.282730e-05
2.252560e+01	-8.378687e-05
2.265571e+01	-8.475756e-05
2.278656e+01	-8.573949e-05
2.291818e+01	-8.673279e-05
2.305055e+01	-8.773761e-05
2.318369e+01	-8.875406e-05
2.331760e+01	-8.978229e-05
2.345228e+01	-9.082243e-05
2.358774e+01	-9.187462e-05
2.372398e+01	-9.293901e-05
2.386101e+01	-9.401572e-05
2.399883e+01	-9.510491e-05
2.413745e+01	-9.620671e-05
2.427686e+01	-9.732128e-05
2.441709e+01	-9.844876e-05
2.455812e+01	-9.958930e-05
2.469997e+01	-1.007431e-04
2.484263e+01	-1.019102e-04
2.498612e+01	-1.030908e-04
2.513044e+01	-1.042851e-04
2.527559e+01	-1.054933e-04
2.542158e+01	-1.067155e-04
2.556842e+01	-1.079518e-04
2.571610e+01	-1.092024e-04
2.586463e+01	-1.104675e-04
2.601403e+01	-1.117473e-04
2.616428e+01	-1.130419e-04
2.631541e+01	-1.143515e-04
2.646740e+01	-1.156763e-04
2.662028e+01	-1.170164e-04
2.677404e+01	-1.183721e-04
2.692868e+01	-1.197434e-04
2.708422e+01	-1.211307e-04
2.724066e+01	-1.225340e-04
2.739800e+01	-1.239536e-04
2.755625e+01	-1.253896e-04
2.771541e+01	-1.268422e-04
2.787550e+01	-1.283117e-04
2.803650e+01	-1.297982e-04
2.819844e+01	-1.313019e-04
2.836131e+01	-1.328231e-04
2.852513e+01	-1.343619e-04
2.868989e+01	-1.359184e-04
2.885560e+01	-1.374931e-04
2.902227e+01	-1.390859e-04
2.918990e+01	-1.406973e-04
2.935850e+01	-1.423273e-04
2.952807e+01	-1.439761e-04
2.969863e+01	-1.456441e-04
2.987016e+01	-1.473314e-04
3.004269e+01	-1.490383e-04
3.021622e+01	-1.507649e-04
3.039075e+01	-1.525115e-04
3.056628e+01	-1.542784e-04
3.074283e+01	-1.560657e-04
3.092040e+01	-1.578737e-04
3.109900e+01	-1.597027e-04
3.127862e+01	-1.615529e-04
3.145929e+01	-1.634245e-04
3.164099e+01	-1.653177e-04
3.182375e+01	-1.672330e-04
3.200756e+01	-1.691704e-04
3.219244e+01	-1.711302e-04
3.237838e+01	-1.731128e-04
3.256540e+01	-1.751183e-04
3.275349e+01	-1.771470e-04
3.294268e+01	-1.791993e-04
3.313295e+01	-1.812753e-04
3.332433e+01	-1.833754e-04
3.351681e+01	-1.854998e-04
3.371040e+01	-1.876488e-04
3.390511e+01	-1.898227e-04
3.410094e+01	-1.920218e-04
3.429791e+01	-1.942464e-04
3.449601e+01	-1.964968e-04
3.469526e+01	-1.987732e-04
3.489566e+01	-2.010760e-04
3.509721e+01	-2.034054e-04
3.529993e+01	-2.057619e-04
3.550382e+01	-2.081456e-04
3.570889e+01	-2.105570e-04
3.591515e+01	-2.129963e-04
3.612259e+01	-2.154639e-04
3.633123e+01	-2.179600e-04
3.654108e+01	-2.204851e-04
3.675214e+01	-2.230394e-04
3.696442e+01	-2.256233e-04
3.717792e+01	-2.282371e-04
3.739266e+01	-2.308813e-04
3.760864e+01	-2.335560e-04
3.782587e+01	-2.362618e-04
3.804435e+01	-2.389988e-04
3.826409e+01	-2.417676e-04
3.848510e+01	-2.445685e-04
3.870739e+01	-2.474018e-04
3.893096e+01	-2.502679e-04
3.915583e+01	-2.531673e-04
3.938199e+01	-2.561002e-04
3.960946e+01	-2.590671e-04
3.983824e+01	-2.620684e-04
4.006834e+01	-2.651044e-04
4.029978e+01	-2.681756e-04
4.053255e+01	-2.712824e-04
4.076666e+01	-2.744252e-04
4.100213e+01	-2.776044e-04
4.123896e+01	-2.808204e-04
4.147715e+01	-2.840737e-04
4.171672e+01	-2.873647e-04
4.195767e+01	-2.906938e-04
4.220002e+01	-2.940614e-04
4.244377e+01	-2.974681e-04
4.268892e+01	-3.009142e-04
4.293549e+01	-3.044003e-04
4.318348e+01	-3.079267e-04
4.343291e+01	-3.114940e-04
4.368377e+01	-3.151026e-04
4.393609e+01	-3.187530e-04
4.418986e+01	-3.224457e-04
4.444510e+01	-3.261812e-04
4.470182e+01	-3.299600e-04
4.496001e+01	-3.337825e-04
4.521970e+01	-3.376493e-04
4.548089e+01	-3.415609e-04
4.574358e+01	-3.455178e-04
4.600779e+01	-3.495206e-04
4.627353e+01	-3.535697e-04
4.654081e+01	-3.576658e-04
4.680963e+01	-3.618092e-04
4.708000e+01	-3.660007e-04
4.735193e+01	-3.702408e-04
4.762543e+01	-3.745299e-04
4.790051e+01	-3.788688e-04
4.817719e+01	-3.832579e-04
4.845545e+01	-3.876978e-04
4.873533e+01	-3.921892e-04
4.901682e+01	-3.967326e-04
4.929994e+01	-4.013287e-04
4.958470e+01	-4.059779e-04
4.987110e+01	-4.106811e-04
5.015915e+01	-4.154387e-04
5.044887e+01	-4.202515e-04
5.074026e+01	-4.251199e-04
5.103333e+01	-4.300448e-04
5.132810e+01	-4.350268e-04
5.162457e+01	-4.400664e-04
5.192275e+01	-4.451645e-04
5.222265e+01	-4.503215e-04
5.252429e+01	-4.555384e-04
5.282767e+01	-4.608156e-04
5.313280e+01	-4.661540e-04
5.343969e+01	-4.715542e-04
5.374836e+01	-4.770170e-04
5.405880e+01	-4.825431e-04
5.437105e+01	-4.881332e-04
5.468509e+01	-4.937880e-04
5.500095e+01	-4.995084e-04
5.531863e+01	-5.052950e-04
5.563815e+01	-5.111486e-04
5.595951e+01	-5.170700e-04
5.628273e+01	-5.230601e-04
5.660782e+01	-5.291195e-04
5.693479e+01	-5.352491e-04
5.726364e+01	-5.414498e-04
5.759439e+01	-5.477222e-04
5.792705e+01	-5.540673e-04
5.826164e+01	-5.604859e-04
5.859815e+01	-5.669789e-04
5.893662e+01	-5.735471e-04
5.927703e+01	-5.801913e-04
5.961941e+01	-5.869125e-04
5.996377e+01	-5.937116e-04
6.031012e+01	-6.005894e-04
6.065847e+01	-6.075470e-04
6.100883e+01	-6.145851e-04
6.136121e+01	-6.217047e-04
6.171563e+01	-6.289068e-04
6.207210e+01	-6.361923e-04
6.243063e+01	-6.435622e-04
6.279122e+01	-6.510175e-04
6.315390e+01	-6.585592e-04
6.351868e+01	-6.661882e-04
6.388556e+01	-6.739055e-04
6.425456e+01	-6.817123e-04
6.462569e+01	-6.896095e-04
6.499897e+01	-6.975982e-04
6.537440e+01	-7.056794e-04
6.575200e+01	-7.138542e-04
6.613178e+01	-7.221237e-04
6.651375e+01	-7.304890e-04
6.689793e+01	-7.389512e-04
6.728433e+01	-7.475114e-04
6.767297e+01	-7.561708e-04
6.806384e+01	-7.649305e-04
6.845698e+01	-7.737916e-04
6.885238e+01	-7.827554e-04
6.925007e+01	-7.918230e-04
6.965005e+01	-8.009956e-04
7.005235e+01	-8.102745e-04
7.045697e+01	-8.196609e-04
7.086393e+01	-8.291560e-04
7.127323e+01	-8.387611e-04
7.168490e+01	-8.484774e-04
7.209895e+01	-8.583062e-04
7.251539e+01	-8.682490e-04
7.293424e+01	-8.783069e-04
7.335551e+01	-8.884812e-04
7.377920e+01	-8.987735e-04
7.420535e+01	-9.091849e-04
7.463396e+01	-9.197170e-04
7.506504e+01	-9.303710e-04
7.549861e+01	-9.411484e-04
7.593469e+01	-9.520507e-04
7.637328e+01	-9.630792e-04
7.681441e+01	-9.742355e-04
7.725809e+01	-9.855210e-04
7.770433e+01	-9.969372e-04
7.815315e+01	-1.008486e-03
7.860456e+01	-1.020168e-03
7.905857e+01	-1.031985e-03
7.951521e+01	-1.043940e-03
7.997449e+01	-1.056033e-03
8.043642e+01	-1.068266e-03
8.090102e+01	-1.080640e-03
8.136830e+01	-1.093158e-03
8.183828e+01	-1.105821e-03
8.231097e+01	-1.118631e-03
8.278640e+01	-1.131589e-03
8.326457e+01	-1.144697e-03
8.374550e+01	-1.157956e-03
8.422921e+01	-1.171370e-03
8.471572e+01	-1.184939e-03
8.520503e+01	-1.198665e-03
8.569717e+01	-1.212550e-03
8.619215e+01	-1.226595e-03
8.669000e+01	-1.240804e-03
8.719071e+01	-1.255177e-03
8.769432e+01	-1.269716e-03
8.820084e+01	-1.284424e-03
8.871029e+01	-1.299302e-03
8.922267e+01	-1.314353e-03
8.973802e+01	-1.329577e-03
9.025634e+01	-1.344979e-03
9.077766e+01	-1.360558e-03
9.130199e+01	-1.376318e-03
9.182935e+01	-1.392260e-03
9.235975e+01	-1.408388e-03
9.289321e+01	-1.424701e-03
9.342976e+01	-1.441204e-03
9.396941e+01	-1.457898e-03
9.451217e+01	-1.474785e-03
9.505807e+01	-1.491868e-03
9.560712e+01	-1.509149e-03
9.615934e+01	-1.526630e-03
9.671476e+01	-1.544313e-03
9.727338e+01	-1.562201e-03
9.783522e+01	-1.580296e-03
9.840032e+01	-1.598601e-03
9.896867e+01	-1.617118e-03
9.954031e+01	-1.635849e-03
1.001153e+02	-1.654797e-03
1.006935e+02	-1.673965e-03
1.012751e+02	-1.693354e-03
1.018601e+02	-1.712968e-03
1.024484e+02	-1.732810e-03
1.030402e+02	-1.752881e-03
1.036353e+02	-1.773184e-03
1.042339e+02	-1.793723e-03
1.048360e+02	-1.814499e-03
1.054415e+02	-1.835516e-03
1.060505e+02	-1.856777e-03
1.066631e+02	-1.878283e-03
1.072791e+02	-1.900039e-03
1.078988e+02	-1.922046e-03
1.085220e+02	-1.944309e-03
1.091488e+02	-1.966829e-03
1.097793e+02	-1.989610e-03
1.104133e+02	-2.012655e-03
1.110511e+02	-2.035967e-03
1.116925e+02	-2.059548e-03
1.123376e+02	-2.083403e-03
1.129865e+02	-2.107534e-03
1.136391e+02	-2.131944e-03
1.142955e+02	-2.156637e-03
1.149556e+02	-2.181616e-03
1.156196e+02	-2.206884e-03
1.162874e+02	-2.232445e-03
1.169591e+02	-2.258302e-03
1.176347e+02	-2.284458e-03
1.183141e+02	-2.310917e-03
1.189975e+02	-2.337682e-03
1.196848e+02	-2.364758e-03
1.203761e+02	-2.392146e-03
1.210714e+02	-2.419852e-03
1.217707e+02	-2.447879e-03
1.224740e+02	-2.476230e-03
1.231814e+02	-2.504910e-03
1.238929e+02	-2.533921e-03
1.246085e+02	-2.563269e-03
1.253283e+02	-2.592956e-03
1.260522e+02	-2.622987e-03
1.267802e+02	-2.653366e-03
1.275125e+02	-2.684096e-03
1.282490e+02	-2.715182e-03
1.289898e+02	-2.746629e-03
1.297348e+02	-2.778439e-03
1.304842e+02	-2.810617e-03
1.312378e+02	-2.843168e-03
1.319959e+02	-2.876096e-03
1.327583e+02	-2.909405e-03
1.335251e+02	-2.943100e-03
1.342963e+02	-2.977185e-03
1.350720e+02	-3.011665e-03
1.358522e+02	-3.046543e-03
1.366368e+02	-3.081826e-03
1.374260e+02	-3.117517e-03
1.382198e+02	-3.153621e-03
1.390182e+02	-3.190143e-03
1.398211e+02	-3.227088e-03
1.406287e+02	-3.264460e-03
1.414410e+02	-3.302266e-03
1.422579e+02	-3.340509e-03
1.430796e+02	-3.379194e-03
1.439060e+02	-3.418328e-03
1.447372e+02	-3.457914e-03
1.455732e+02	-3.497959e-03
1.464141e+02	-3.538467e-03
1.472597e+02	-3.579444e-03
1.481103e+02	-3.620895e-03
1.489658e+02	-3.662827e-03
1.498262e+02	-3.705243e-03
1.506916e+02	-3.748151e-03
1.515620e+02	-3.791555e-03
1.524374e+02	-3.835462e-03
1.533179e+02	-3.879877e-03
1.542034e+02	-3.924806e-03
1.550941e+02	-3.970255e-03
1.559899e+02	-4.016230e-03
1.568909e+02	-4.062738e-03
1.577971e+02	-4.109783e-03
1.587085e+02	-4.157373e-03
1.596252e+02	-4.205514e-03
1.605472e+02	-4.254212e-03
1.614745e+02	-4.303474e-03
1.624072e+02	-4.353306e-03
1.633453e+02	-4.403714e-03
1.642887e+02	-4.454706e-03
1.652377e+02	-4.506288e-03
1.661921e+02	-4.558467e-03
1.671520e+02	-4.611250e-03
1.681175e+02	-4.664644e-03
1.690885e+02	-4.718656e-03
1.700651e+02	-4.773293e-03
1.710474e+02	-4.828562e-03
1.720354e+02	-4.884470e-03
1.730291e+02	-4.941026e-03
1.740285e+02	-4.998236e-03
1.750337e+02	-5.056108e-03
1.760446e+02	-5.114650e-03
1.770615e+02	-5.173869e-03
1.780842e+02	-5.233773e-03
1.791128e+02	-5.294371e-03
1.801473e+02	-5.355670e-03
1.811878e+02	-5.417678e-03
1.822344e+02	-5.480403e-03
1.832870e+02	-5.543854e-03
1.843456e+02	-5.608040e-03
1.854104e+02	-5.672968e-03
1.864813e+02	-5.738647e-03
1.875584e+02	-5.805086e-03
1.886418e+02	-5.872294e-03
1.897313e+02	-5.940280e-03
1.908272e+02	-6.009051e-03
1.919294e+02	-6.078619e-03
1.930380e+02	-6.148991e-03
1.941530e+02	-6.220178e-03
1.952744e+02	-6.292188e-03
1.964023e+02	-6.365031e-03
1.975367e+02	-6.438717e-03
1.986777e+02	-6.513255e-03
1.998252e+02	-6.588655e-03
2.009794e+02	-6.664928e-03
2.021403e+02	-6.742083e-03
2.033078e+02	-6.820130e-03
2.044821e+02	-6.899080e-03
2.056632e+02	-6.978943e-03
2.068511e+02	-7.059730e-03
2.080459e+02	-7.141451e-03
2.092475e+02	-7.224118e-03
2.104561e+02	-7.307741e-03
2.116717e+02	-7.392330e-03
2.128943e+02	-7.477898e-03
2.141240e+02	-7.564456e-03
2.153608e+02	-7.652015e-03
2.166047e+02	-7.740586e-03
2.178558e+02	-7.830182e-03
2.191141e+02	-7.920814e-03
2.203797e+02	-8.012493e-03
2.216526e+02	-8.105233e-03
2.229329e+02	-8.199045e-03
2.242205e+02	-8.293943e-03
2.255156e+02	-8.389937e-03
2.268182e+02	-8.487041e-03
2.281283e+02	-8.585268e-03
2.294459e+02	-8.684631e-03
2.307712e+02	-8.785143e-03
2.321041e+02	-8.886816e-03
2.334447e+02	-8.989666e-03
2.347931e+02	-9.093704e-03
2.361493e+02	-9.198945e-03
2.375133e+02	-9.305402e-03
2.388851e+02	-9.413091e-03
2.402649e+02	-9.522024e-03
2.416527e+02	-9.632216e-03
2.430484e+02	-9.743682e-03
2.444523e+02	-9.856437e-03
2.458642e+02	-9.970495e-03
2.472843e+02	-1.008587e-02
2.487126e+02	-1.020258e-02
2.501492e+02	-1.032064e-02
2.515940e+02	-1.044006e-02
2.530472e+02	-1.056087e-02
2.545088e+02	-1.068306e-02
2.559789e+02	-1.080668e-02
2.574574e+02	-1.093172e-02
2.589444e+02	-1.105820e-02
2.604401e+02	-1.118615e-02
2.619444e+02	-1.131557e-02
2.634574e+02	-1.144649e-02
2.649791e+02	-1.157893e-02
2.665096e+02	-1.171289e-02
2.680489e+02	-1.184840e-02
2.695972e+02	-1.198548e-02
2.711544e+02	-1.212414e-02
2.727205e+02	-1.226440e-02
2.742958e+02	-1.240628e-02
2.758801e+02	-1.254980e-02
2.774736e+02	-1.269498e-02
2.790762e+02	-1.284184e-02
2.806882e+02	-1.299039e-02
2.823094e+02	-1.314066e-02
2.839400e+02	-1.329267e-02
2.855800e+02	-1.344643e-02
2.872295e+02	-1.360196e-02
2.888886e+02	-1.375929e-02
2.905572e+02	-1.391844e-02
2.922354e+02	-1.407943e-02
2.939234e+02	-1.424227e-02
2.956211e+02	-1.440700e-02
2.973286e+02	-1.457363e-02
2.990459e+02	-1.474218e-02
3.007732e+02	-1.491268e-02
3.025104e+02	-1.508514e-02
3.042577e+02	-1.525960e-02
3.060151e+02	-1.543607e-02
3.077826e+02	-1.561458e-02
3.095604e+02	-1.579515e-02
3.113484e+02	-1.597780e-02
3.131467e+02	-1.616256e-02
3.149554e+02	-1.634946e-02
3.167746e+02	-1.653851e-02
3.186043e+02	-1.672974e-02
3.204445e+02	-1.692318e-02
3.222954e+02	-1.711885e-02
3.241570e+02	-1.731678e-02
3.260293e+02	-1.751699e-02
3.279124e+02	-1.771952e-02
3.298064e+02	-1.792438e-02
3.317114e+02	-1.813160e-02
3.336273e+02	-1.834121e-02
3.355544e+02	-1.855325e-02
3.374925e+02	-1.876772e-02
3.394418e+02	-1.898468e-02
3.414024e+02	-1.920413e-02
3.433744e+02	-1.942612e-02
3.453577e+02	-1.965066e-02
3.473525e+02	-1.987780e-02
3.493588e+02	-2.010755e-02
3.513766e+02	-2.033996e-02
3.534062e+02	-2.057504e-02
3.554474e+02	-2.081283e-02
3.575005e+02	-2.105337e-02
3.595654e+02	-2.129668e-02
3.616422e+02	-2.154279e-02
3.637311e+02	-2.179174e-02
3.658320e+02	-2.204356e-02
3.679450e+02	-2.229828e-02
3.700702e+02	-2.255594e-02
3.722077e+02	-2.281657e-02
3.743576e+02	-2.308020e-02
3.765199e+02	-2.334687e-02
3.786946e+02	-2.361661e-02
3.808820e+02	-2.388946e-02
3.830819e+02	-2.416545e-02
3.852946e+02	-2.444463e-02
3.875200e+02	-2.472702e-02
3.897583e+02	-2.501266e-02
3.920096e+02	-2.530159e-02
3.942738e+02	-2.559385e-02
3.965511e+02	-2.588947e-02
3.988416e+02	-2.618850e-02
4.011452e+02	-2.649097e-02
4.034622e+02	-2.679693e-02
4.057926e+02	-2.710641e-02
4.081365e+02	-2.741945e-02
4.104938e+02	-2.773609e-02
4.128648e+02	-2.805638e-02
4.152495e+02	-2.838035e-02
4.176480e+02	-2.870806e-02
4.200603e+02	-2.903953e-02
4.224866e+02	-2.937482e-02
4.249268e+02	-2.971397e-02
4.273812e+02	-3.005702e-02
4.298497e+02	-3.040401e-02
4.323325e+02	-3.075500e-02
4.348297e+02	-3.111003e-02
4.373412e+02	-3.146913e-02
4.398673e+02	-3.183237e-02
4.424079e+02	-3.219979e-02
4.449633e+02	-3.257143e-02
4.475334e+02	-3.294734e-02
4.501183e+02	-3.332758e-02
4.527182e+02	-3.371218e-02
4.553330e+02	-3.410121e-02
4.579630e+02	-3.449471e-02
4.606082e+02	-3.489273e-02
4.632687e+02	-3.529532e-02
4.659445e+02	-3.570254e-02
4.686358e+02	-3.611444e-02
4.713426e+02	-3.653107e-02
4.740650e+02	-3.695249e-02
4.768032e+02	-3.737875e-02
4.795572e+02	-3.780990e-02
4.823271e+02	-3.824600e-02
4.851130e+02	-3.868711e-02
4.879150e+02	-3.913329e-02
4.907332e+02	-3.958459e-02
4.935676e+02	-4.004107e-02
4.964185e+02	-4.050278e-02
4.992858e+02	-4.096980e-02
5.021696e+02	-4.144218e-02
5.050701e+02	-4.191997e-02
5.079874e+02	-4.240325e-02
5.109215e+02	-4.289207e-02
5.138726e+02	-4.338650e-02
5.168407e+02	-4.388660e-02
5.198259e+02	-4.439243e-02
5.228284e+02	-4.490407e-02
5.258482e+02	-4.542157e-02
5.288855e+02	-4.594500e-02
5.319403e+02	-4.647443e-02
5.350128e+02	-4.700993e-02
5.381030e+02	-4.755156e-02
5.412111e+02	-4.809941e-02
5.443371e+02	-4.865352e-02
5.474812e+02	-4.921399e-02
5.506434e+02	-4.978087e-02
5.538239e+02	-5.035425e-02
5.570228e+02	-5.093419e-02
5.602401e+02	-5.152077e-02
5.634760e+02	-5.211406e-02
5.667306e+02	-5.271415e-02
5.700040e+02	-5.332110e-02
5.732964e+02	-5.393500e-02
5.766077e+02	-5.455592e-02
5.799382e+02	-5.518394e-02
5.832879e+02	-5.581915e-02
5.866569e+02	-5.646162e-02
5.900454e+02	-5.711144e-02
5.934535e+02	-5.776868e-02
5.968813e+02	-5.843344e-02
6.003288e+02	-5.910579e-02
6.037963e+02	-5.978583e-02
6.072838e+02	-6.047364e-02
6.107914e+02	-6.116930e-02
6.143194e+02	-6.187291e-02
6.178676e+02	-6.258456e-02
6.214364e+02	-6.330433e-02
6.250258e+02	-6.403232e-02
6.286359e+02	-6.476861e-02
6.322669e+02	-6.551331e-02
6.359189e+02	-6.626651e-02
6.395919e+02	-6.702829e-02
6.432862e+02	-6.779877e-02
6.470017e+02	-6.857803e-02
6.507388e+02	-6.936618e-02
6.544974e+02	-7.016331e-02
6.582778e+02	-7.096953e-02
6.620800e+02	-7.178494e-02
6.659041e+02	-7.260963e-02
6.697504e+02	-7.344372e-02
6.736188e+02	-7.428731e-02
6.775096e+02	-7.514050e-02
6.814229e+02	-7.600341e-02
6.853587e+02	-7.687613e-02
6.893173e+02	-7.775879e-02
6.932988e+02	-7.865150e-02
6.973033e+02	-7.955435e-02
7.013309e+02	-8.046748e-02
