Frequency(Hz)	Magnitude(dB)
1.000000e+01	-2.101144e+00
1.005776e+01	-2.120417e+00
1.011585e+01	-2.139552e+00
1.017428e+01	-2.159441e+00
1.023305e+01	-2.178950e+00
1.029215e+01	-2.198865e+00
1.035160e+01	-2.218672e+00
1.041139e+01	-2.238734e+00
1.047153e+01	-2.258903e+00
1.053201e+01	-2.279410e+00
1.059284e+01	-2.299970e+00
1.065403e+01	-2.320505e+00
1.071556e+01	-2.341291e+00
1.077746e+01	-2.362508e+00
1.083971e+01	-2.382940e+00
1.090232e+01	-2.404389e+00
1.096529e+01	-2.425887e+00
1.102862e+01	-2.447234e+00
1.109232e+01	-2.468893e+00
1.115639e+01	-2.490877e+00
1.122083e+01	-2.512638e+00
1.128564e+01	-2.534614e+00
1.135083e+01	-2.556864e+00
1.141639e+01	-2.579124e+00
1.148233e+01	-2.601744e+00
1.154865e+01	-2.624145e+00
1.161536e+01	-2.646853e+00
1.168245e+01	-2.670113e+00
1.174992e+01	-2.692856e+00
1.181779e+01	-2.715969e+00
1.188605e+01	-2.739335e+00
1.195470e+01	-2.763082e+00
1.202375e+01	-2.786593e+00
1.209320e+01	-2.810364e+00
1.216305e+01	-2.834279e+00
1.223330e+01	-2.858638e+00
1.230396e+01	-2.882397e+00
1.237503e+01	-2.906655e+00
1.244651e+01	-2.931222e+00
1.251840e+01	-2.956015e+00
1.259070e+01	-2.980795e+00
1.266343e+01	-3.005496e+00
1.273657e+01	-3.030742e+00
1.281014e+01	-3.055535e+00
1.288413e+01	-3.081111e+00
1.295855e+01	-3.106859e+00
1.303339e+01	-3.132194e+00
1.310867e+01	-3.157917e+00
1.318439e+01	-3.183929e+00
1.326054e+01	-3.210187e+00
1.333713e+01	-3.236200e+00
1.341417e+01	-3.262594e+00
1.349165e+01	-3.289171e+00
1.356958e+01	-3.315957e+00
1.364795e+01	-3.342361e+00
1.372678e+01	-3.369408e+00
1.380607e+01	-3.396564e+00
1.388581e+01	-3.423675e+00
1.396602e+01	-3.451016e+00
1.404668e+01	-3.478719e+00
1.412782e+01	-3.506130e+00
1.420942e+01	-3.534291e+00
1.429149e+01	-3.561896e+00
1.437404e+01	-3.589938e+00
1.445706e+01	-3.618115e+00
1.454057e+01	-3.646612e+00
1.462455e+01	-3.675136e+00
1.470902e+01	-3.703805e+00
1.479398e+01	-3.732551e+00
1.487943e+01	-3.761374e+00
1.496537e+01	-3.790345e+00
1.505181e+01	-3.819517e+00
1.513875e+01	-3.849019e+00
1.522619e+01	-3.878583e+00
1.531414e+01	-3.908193e+00
1.540259e+01	-3.937975e+00
1.549156e+01	-3.967788e+00
1.558103e+01	-3.997626e+00
1.567103e+01	-4.027920e+00
1.576155e+01	-4.058485e+00
1.585258e+01	-4.088728e+00
1.594415e+01	-4.119222e+00
1.603624e+01	-4.149913e+00
1.612886e+01	-4.180925e+00
1.622202e+01	-4.212000e+00
1.631572e+01	-4.242881e+00
1.640996e+01	-4.274160e+00
1.650474e+01	-4.305485e+00
1.660008e+01	-4.337163e+00
1.669596e+01	-4.368388e+00
1.679239e+01	-4.400689e+00
1.688938e+01	-4.432713e+00
1.698694e+01	-4.464808e+00
1.708505e+01	-4.496852e+00
1.718373e+01	-4.529394e+00
1.728299e+01	-4.561616e+00
1.738281e+01	-4.594181e+00
1.748322e+01	-4.626824e+00
1.758420e+01	-4.659977e+00
1.768576e+01	-4.692803e+00
1.778792e+01	-4.725828e+00
1.789066e+01	-4.759242e+00
1.799399e+01	-4.792292e+00
1.809793e+01	-4.825969e+00
1.820246e+01	-4.859748e+00
1.830760e+01	-4.893451e+00
1.841334e+01	-4.927226e+00
1.851969e+01	-4.961420e+00
1.862666e+01	-4.995318e+00
1.873425e+01	-5.029784e+00
1.884246e+01	-5.063990e+00
1.895129e+01	-5.098109e+00
1.906075e+01	-5.133251e+00
1.917085e+01	-5.167681e+00
1.928158e+01	-5.202752e+00
1.939295e+01	-5.237594e+00
1.950496e+01	-5.272414e+00
1.961762e+01	-5.307958e+00
1.973093e+01	-5.343633e+00
1.984490e+01	-5.379135e+00
1.995952e+01	-5.414445e+00
2.007480e+01	-5.449857e+00
2.019076e+01	-5.486118e+00
2.030738e+01	-5.521996e+00
2.042467e+01	-5.558194e+00
2.054264e+01	-5.594090e+00
2.066130e+01	-5.630365e+00
2.078064e+01	-5.666974e+00
2.090066e+01	-5.703670e+00
2.102139e+01	-5.740171e+00
2.114280e+01	-5.776674e+00
2.126492e+01	-5.813523e+00
2.138775e+01	-5.850489e+00
2.151128e+01	-5.887604e+00
2.163553e+01	-5.924798e+00
2.176050e+01	-5.962157e+00
2.188619e+01	-5.999537e+00
2.201260e+01	-6.036789e+00
2.213974e+01	-6.074570e+00
2.226762e+01	-6.112660e+00
2.239624e+01	-6.150104e+00
2.252560e+01	-6.188017e+00
2.265571e+01	-6.225951e+00
2.278656e+01	-6.264184e+00
2.291818e+01	-6.302575e+00
2.305055e+01	-6.340888e+00
2.318369e+01	-6.379226e+00
2.331760e+01	-6.418322e+00
2.345228e+01	-6.456703e+00
2.358774e+01	-6.495487e+00
2.372398e+01	-6.534471e+00
2.386101e+01	-6.572947e+00
2.399883e+01	-6.612510e+00
2.413745e+01	-6.651673e+00
2.427686e+01	-6.690605e+00
2.441709e+01	-6.730090e+00
2.455812e+01	-6.768994e+00
2.469997e+01	-6.809147e+00
2.484263e+01	-6.848942e+00
2.498612e+01	-6.888344e+00
2.513044e+01	-6.928245e+00
2.527559e+01	-6.968013e+00
2.542158e+01	-7.008494e+00
2.556842e+01	-7.048122e+00
2.571610e+01	-7.088484e+00
2.586463e+01	-7.128461e+00
2.601403e+01	-7.169102e+00
2.616428e+01	-7.209478e+00
2.631541e+01	-7.250130e+00
2.646740e+01	-7.290963e+00
2.662028e+01	-7.331609e+00
2.677404e+01	-7.372328e+00
2.692868e+01	-7.413102e+00
2.708422e+01	-7.454367e+00
2.724066e+01	-7.495597e+00
2.739800e+01	-7.536599e+00
2.755625e+01	-7.577805e+00
2.771541e+01	-7.618858e+00
2.787550e+01	-7.660150e+00
2.803650e+01	-7.702260e+00
2.819844e+01	-7.743624e+00
2.836131e+01	-7.785122e+00
2.852513e+01	-7.827266e+00
2.868989e+01	-7.868790e+00
2.885560e+01	-7.910183e+00
2.902227e+01	-7.952362e+00
2.918990e+01	-7.994992e+00
2.935850e+01	-8.036841e+00
2.952807e+01	-8.078919e+00
2.969863e+01	-8.121280e+00
2.987016e+01	-8.163632e+00
3.004269e+01	-8.206402e+00
3.021622e+01	-8.248527e+00
3.039075e+01	-8.290989e+00
3.056628e+01	-8.333732e+00
3.074283e+01	-8.376630e+00
3.092040e+01	-8.419207e+00
3.109900e+01	-8.462265e+00
3.127862e+01	-8.505358e+00
3.145929e+01	-8.548077e+00
3.164099e+01	-8.591058e+00
3.182375e+01	-8.634626e+00
3.200756e+01	-8.676766e+00
3.219244e+01	-8.721050e+00
3.237838e+01	-8.764300e+00
3.256540e+01	-8.807568e+00
3.275349e+01	-8.850917e+00
3.294268e+01	-8.894924e+00
3.313295e+01	-8.937644e+00
3.332433e+01	-8.982179e+00
3.351681e+01	-9.025428e+00
3.371040e+01	-9.069567e+00
3.390511e+01	-9.113137e+00
3.410094e+01	-9.156687e+00
3.429791e+01	-9.200656e+00
3.449601e+01	-9.244624e+00
3.469526e+01	-9.289158e+00
3.489566e+01	-9.333584e+00
3.509721e+01	-9.377508e+00
3.529993e+01	-9.421734e+00
3.550382e+01	-9.466053e+00
3.570889e+01	-9.511372e+00
3.591515e+01	-9.555493e+00
3.612259e+01	-9.599278e+00
3.633123e+01	-9.644736e+00
3.654108e+01	-9.688895e+00
3.675214e+01	-9.733475e+00
3.696442e+01	-9.778357e+00
3.717792e+01	-9.822702e+00
3.739266e+01	-9.867715e+00
3.760864e+01	-9.913117e+00
3.782587e+01	-9.958026e+00
3.804435e+01	-1.000302e+01
3.826409e+01	-1.004788e+01
3.848510e+01	-1.009333e+01
3.870739e+01	-1.013789e+01
3.893096e+01	-1.018327e+01
3.915583e+01	-1.022888e+01
3.938199e+01	-1.027375e+01
3.960946e+01	-1.031859e+01
3.983824e+01	-1.036449e+01
4.006834e+01	-1.040982e+01
4.029978e+01	-1.045566e+01
4.053255e+01	-1.050098e+01
4.076666e+01	-1.054672e+01
4.100213e+01	-1.059287e+01
4.123896e+01	-1.063726e+01
4.147715e+01	-1.068366e+01
4.171672e+01	-1.072939e+01
4.195767e+01	-1.077583e+01
4.220002e+01	-1.082082e+01
4.244377e+01	-1.086756e+01
4.268892e+01	-1.091348e+01
4.293549e+01	-1.095878e+01
4.318348e+01	-1.100486e+01
4.343291e+01	-1.105154e+01
4.368377e+01	-1.109725e+01
4.393609e+01	-1.114332e+01
4.418986e+01	-1.118972e+01
4.444510e+01	-1.123557e+01
4.470182e+01	-1.128230e+01
4.496001e+01	-1.132809e+01
4.521970e+01	-1.137506e+01
4.548089e+01	-1.142090e+01
4.574358e+01	-1.146720e+01
4.600779e+01	-1.151395e+01
4.627353e+01	-1.156035e+01
4.654081e+01	-1.160738e+01
4.680963e+01	-1.165376e+01
4.708000e+01	-1.170072e+01
4.735193e+01	-1.174750e+01
4.762543e+01	-1.179338e+01
4.790051e+01	-1.184086e+01
4.817719e+01	-1.188760e+01
4.845545e+01	-1.193408e+01
4.873533e+01	-1.198102e+01
4.901682e+01	-1.202841e+01
4.929994e+01	-1.207453e+01
4.958470e+01	-1.212146e+01
4.987110e+01	-1.216866e+01
5.015915e+01	-1.221593e+01
5.044887e+01	-1.226245e+01
5.074026e+01	-1.230948e+01
5.103333e+01	-1.235723e+01
5.132810e+01	-1.240393e+01
5.162457e+01	-1.245088e+01
5.192275e+01	-1.249818e+01
5.222265e+01	-1.254621e+01
5.252429e+01	-1.259238e+01
5.282767e+01	-1.264064e+01
5.313280e+01	-1.268757e+01
5.343969e+01	-1.273487e+01
5.374836e+01	-1.278141e+01
5.405880e+01	-1.282925e+01
5.437105e+01	-1.287618e+01
5.468509e+01	-1.292474e+01
5.500095e+01	-1.297160e+01
5.531863e+01	-1.301956e+01
5.563815e+01	-1.306716e+01
5.595951e+01	-1.311460e+01
5.628273e+01	-1.316249e+01
5.660782e+01	-1.320944e+01
5.693479e+01	-1.325756e+01
5.726364e+01	-1.330467e+01
5.759439e+01	-1.335258e+01
5.792705e+01	-1.340037e+01
5.826164e+01	-1.344811e+01
5.859815e+01	-1.349671e+01
5.893662e+01	-1.354398e+01
5.927703e+01	-1.359219e+01
5.961941e+01	-1.363987e+01
5.996377e+01	-1.368753e+01
6.031012e+01	-1.373480e+01
6.065847e+01	-1.378317e+01
6.100883e+01	-1.383137e+01
6.136121e+01	-1.387892e+01
6.171563e+01	-1.392779e+01
6.207210e+01	-1.397528e+01
6.243063e+01	-1.402246e+01
6.279122e+01	-1.407155e+01
6.315390e+01	-1.411940e+01
6.351868e+01	-1.416736e+01
6.388556e+01	-1.421503e+01
6.425456e+01	-1.426374e+01
6.462569e+01	-1.431281e+01
6.499897e+01	-1.436027e+01
6.537440e+01	-1.440766e+01
6.575200e+01	-1.445501e+01
6.613178e+01	-1.450426e+01
6.651375e+01	-1.455262e+01
6.689793e+01	-1.460108e+01
6.728433e+01	-1.464922e+01
6.767297e+01	-1.469777e+01
6.806384e+01	-1.474616e+01
6.845698e+01	-1.479485e+01
6.885238e+01	-1.484308e+01
6.925007e+01	-1.489128e+01
6.965005e+01	-1.493998e+01
7.005235e+01	-1.498848e+01
7.045697e+01	-1.503672e+01
7.086393e+01	-1.508588e+01
7.127323e+01	-1.513288e+01
7.168490e+01	-1.518219e+01
7.209895e+01	-1.523026e+01
7.251539e+01	-1.527915e+01
7.293424e+01	-1.532785e+01
7.335551e+01	-1.537646e+01
7.377920e+01	-1.542565e+01
7.420535e+01	-1.547369e+01
7.463396e+01	-1.552096e+01
7.506504e+01	-1.557019e+01
7.549861e+01	-1.561911e+01
7.593469e+01	-1.566746e+01
7.637328e+01	-1.571637e+01
7.681441e+01	-1.576602e+01
7.725809e+01	-1.581478e+01
7.770433e+01	-1.586229e+01
7.815315e+01	-1.591194e+01
7.860456e+01	-1.596022e+01
7.905857e+01	-1.600922e+01
7.951521e+01	-1.605820e+01
7.997449e+01	-1.610760e+01
8.043642e+01	-1.615519e+01
8.090102e+01	-1.620493e+01
8.136830e+01	-1.625320e+01
8.183828e+01	-1.630279e+01
8.231097e+01	-1.635031e+01
8.278640e+01	-1.639998e+01
8.326457e+01	-1.644939e+01
8.374550e+01	-1.649841e+01
8.422921e+01	-1.654647e+01
8.471572e+01	-1.659575e+01
8.520503e+01	-1.664368e+01
8.569717e+01	-1.669458e+01
8.619215e+01	-1.674176e+01
8.669000e+01	-1.679171e+01
8.719071e+01	-1.684079e+01
8.769432e+01	-1.688894e+01
8.820084e+01	-1.693835e+01
8.871029e+01	-1.698886e+01
8.922267e+01	-1.703641e+01
8.973802e+01	-1.708507e+01
9.025634e+01	-1.713379e+01
9.077766e+01	-1.718339e+01
9.130199e+01	-1.723237e+01
9.182935e+01	-1.728121e+01
9.235975e+01	-1.733108e+01
9.289321e+01	-1.737895e+01
9.342976e+01	-1.742897e+01
9.396941e+01	-1.747807e+01
9.451217e+01	-1.752618e+01
9.505807e+01	-1.757778e+01
9.560712e+01	-1.762632e+01
9.615934e+01	-1.767514e+01
9.671476e+01	-1.772327e+01
9.727338e+01	-1.777332e+01
9.783522e+01	-1.782168e+01
9.840032e+01	-1.787180e+01
9.896867e+01	-1.792124e+01
9.954031e+01	-1.797052e+01
1.001153e+02	-1.801871e+01
1.006935e+02	-1.806892e+01
1.012751e+02	-1.811763e+01
1.018601e+02	-1.816750e+01
1.024484e+02	-1.821571e+01
1.030402e+02	-1.826510e+01
1.036353e+02	-1.831458e+01
1.042339e+02	-1.836355e+01
1.048360e+02	-1.841267e+01
1.054415e+02	-1.846357e+01
1.060505e+02	-1.851211e+01
1.066631e+02	-1.856147e+01
1.072791e+02	-1.861080e+01
1.078988e+02	-1.866060e+01
1.085220e+02	-1.870923e+01
1.091488e+02	-1.875808e+01
1.097793e+02	-1.880667e+01
1.104133e+02	-1.885854e+01
1.110511e+02	-1.890646e+01
1.116925e+02	-1.895626e+01
1.123376e+02	-1.900553e+01
1.129865e+02	-1.905541e+01
1.136391e+02	-1.910439e+01
1.142955e+02	-1.915428e+01
1.149556e+02	-1.920379e+01
1.156196e+02	-1.925264e+01
1.162874e+02	-1.930379e+01
1.169591e+02	-1.935055e+01
1.176347e+02	-1.940101e+01
1.183141e+02	-1.945095e+01
1.189975e+02	-1.949987e+01
1.196848e+02	-1.954841e+01
1.203761e+02	-1.959755e+01
1.210714e+02	-1.964831e+01
1.217707e+02	-1.969910e+01
1.224740e+02	-1.974702e+01
1.231814e+02	-1.979792e+01
1.238929e+02	-1.984782e+01
1.246085e+02	-1.989671e+01
1.253283e+02	-1.994591e+01
1.260522e+02	-1.999587e+01
1.267802e+02	-2.004679e+01
1.275125e+02	-2.009432e+01
1.282490e+02	-2.014394e+01
1.289898e+02	-2.019440e+01
1.297348e+02	-2.024401e+01
1.304842e+02	-2.029274e+01
1.312378e+02	-2.034283e+01
1.319959e+02	-2.039239e+01
1.327583e+02	-2.044105e+01
1.335251e+02	-2.048968e+01
1.342963e+02	-2.053953e+01
1.350720e+02	-2.059159e+01
1.358522e+02	-2.063927e+01
1.366368e+02	-2.069038e+01
1.374260e+02	-2.073872e+01
1.382198e+02	-2.078781e+01
1.390182e+02	-2.083823e+01
1.398211e+02	-2.088882e+01
1.406287e+02	-2.093842e+01
1.414410e+02	-2.098671e+01
1.422579e+02	-2.103508e+01
1.430796e+02	-2.108557e+01
1.439060e+02	-2.113622e+01
1.447372e+02	-2.118585e+01
1.455732e+02	-2.123765e+01
1.464141e+02	-2.128418e+01
1.472597e+02	-2.133642e+01
1.481103e+02	-2.138300e+01
1.489658e+02	-2.143493e+01
1.498262e+02	-2.148495e+01
1.506916e+02	-2.153288e+01
1.515620e+02	-2.158217e+01
1.524374e+02	-2.163171e+01
1.533179e+02	-2.168419e+01
1.542034e+02	-2.173206e+01
1.550941e+02	-2.178039e+01
1.559899e+02	-2.183135e+01
1.568909e+02	-2.188039e+01
1.577971e+02	-2.192960e+01
1.587085e+02	-2.197954e+01
1.596252e+02	-2.203130e+01
1.605472e+02	-2.208030e+01
1.614745e+02	-2.213011e+01
1.624072e+02	-2.218077e+01
1.633453e+02	-2.223094e+01
1.642887e+02	-2.227929e+01
1.652377e+02	-2.232682e+01
1.661921e+02	-2.238013e+01
1.671520e+02	-2.242856e+01
1.681175e+02	-2.247715e+01
1.690885e+02	-2.252693e+01
1.700651e+02	-2.257777e+01
1.710474e+02	-2.262956e+01
1.720354e+02	-2.267591e+01
1.730291e+02	-2.272678e+01
1.740285e+02	-2.277798e+01
1.750337e+02	-2.282463e+01
1.760446e+02	-2.287684e+01
1.770615e+02	-2.292848e+01
1.780842e+02	-2.297363e+01
1.791128e+02	-2.302656e+01
1.801473e+02	-2.307471e+01
1.811878e+02	-2.312482e+01
1.822344e+02	-2.317653e+01
1.832870e+02	-2.322457e+01
1.843456e+02	-2.327424e+01
1.854104e+02	-2.332614e+01
1.864813e+02	-2.337401e+01
1.875584e+02	-2.342293e+01
1.886418e+02	-2.347285e+01
1.897313e+02	-2.352274e+01
1.908272e+02	-2.357495e+01
1.919294e+02	-2.362391e+01
1.930380e+02	-2.367338e+01
1.941530e+02	-2.372346e+01
1.952744e+02	-2.377430e+01
1.964023e+02	-2.382209e+01
1.975367e+02	-2.387384e+01
1.986777e+02	-2.392068e+01
1.998252e+02	-2.397233e+01
2.009794e+02	-2.402304e+01
2.021403e+02	-2.407200e+01
2.033078e+02	-2.412112e+01
2.044821e+02	-2.417245e+01
2.056632e+02	-2.422015e+01
2.068511e+02	-2.427292e+01
2.080459e+02	-2.432201e+01
2.092475e+02	-2.436856e+01
2.104561e+02	-2.441997e+01
2.116717e+02	-2.447203e+01
2.128943e+02	-2.452195e+01
2.141240e+02	-2.457238e+01
2.153608e+02	-2.462143e+01
2.166047e+02	-2.467042e+01
2.178558e+02	-2.472041e+01
2.191141e+02	-2.477139e+01
2.203797e+02	-2.481951e+01
2.216526e+02	-2.487145e+01
2.229329e+02	-2.492092e+01
2.242205e+02	-2.496886e+01
2.255156e+02	-2.502096e+01
2.268182e+02	-2.507107e+01
2.281283e+02	-2.512008e+01
2.294459e+02	-2.517317e+01
2.307712e+02	-2.521966e+01
2.321041e+02	-2.527109e+01
2.334447e+02	-2.531717e+01
2.347931e+02	-2.537050e+01
2.361493e+02	-2.541962e+01
2.375133e+02	-2.546797e+01
2.388851e+02	-2.551953e+01
2.402649e+02	-2.556839e+01
2.416527e+02	-2.562110e+01
2.430484e+02	-2.566871e+01
2.444523e+02	-2.571761e+01
2.458642e+02	-2.576878e+01
2.472843e+02	-2.581809e+01
2.487126e+02	-2.586779e+01
2.501492e+02	-2.592058e+01
2.515940e+02	-2.596836e+01
2.530472e+02	-2.602101e+01
2.545088e+02	-2.606975e+01
2.559789e+02	-2.611744e+01
2.574574e+02	-2.616430e+01
2.589444e+02	-2.621701e+01
2.604401e+02	-2.626816e+01
2.619444e+02	-2.632237e+01
2.634574e+02	-2.636804e+01
2.649791e+02	-2.641947e+01
2.665096e+02	-2.646640e+01
2.680489e+02	-2.652009e+01
2.695972e+02	-2.657163e+01
2.711544e+02	-2.662141e+01
2.727205e+02	-2.666922e+01
2.742958e+02	-2.671678e+01
2.758801e+02	-2.676725e+01
2.774736e+02	-2.681906e+01
2.790762e+02	-2.686802e+01
2.806882e+02	-2.691605e+01
2.823094e+02	-2.696749e+01
2.839400e+02	-2.702021e+01
2.855800e+02	-2.707000e+01
2.872295e+02	-2.711890e+01
2.888886e+02	-2.716673e+01
2.905572e+02	-2.721949e+01
2.922354e+02	-2.726599e+01
2.939234e+02	-2.732228e+01
2.956211e+02	-2.736651e+01
2.973286e+02	-2.741701e+01
2.990459e+02	-2.746864e+01
3.007732e+02	-2.751882e+01
3.025104e+02	-2.756556e+01
3.042577e+02	-2.761662e+01
3.060151e+02	-2.766719e+01
3.077826e+02	-2.771771e+01
3.095604e+02	-2.776799e+01
3.113484e+02	-2.782013e+01
3.131467e+02	-2.787058e+01
3.149554e+02	-2.791870e+01
3.167746e+02	-2.796508e+01
3.186043e+02	-2.801761e+01
3.204445e+02	-2.806879e+01
3.222954e+02	-2.811901e+01
3.241570e+02	-2.816920e+01
3.260293e+02	-2.821847e+01
3.279124e+02	-2.826670e+01
3.298064e+02	-2.831615e+01
3.317114e+02	-2.837230e+01
3.336273e+02	-2.841962e+01
3.355544e+02	-2.846805e+01
3.374925e+02	-2.851894e+01
3.394418e+02	-2.857175e+01
3.414024e+02	-2.862001e+01
3.433744e+02	-2.867103e+01
3.453577e+02	-2.872021e+01
3.473525e+02	-2.876917e+01
3.493588e+02	-2.882408e+01
3.513766e+02	-2.887333e+01
3.534062e+02	-2.892162e+01
3.554474e+02	-2.897056e+01
3.575005e+02	-2.902176e+01
3.595654e+02	-2.906735e+01
3.616422e+02	-2.912059e+01
3.637311e+02	-2.917080e+01
3.658320e+02	-2.922185e+01
3.679450e+02	-2.926855e+01
3.700702e+02	-2.931927e+01
3.722077e+02	-2.937168e+01
3.743576e+02	-2.941951e+01
3.765199e+02	-2.947192e+01
3.786946e+02	-2.951437e+01
3.808820e+02	-2.957030e+01
3.830819e+02	-2.962050e+01
3.852946e+02	-2.966991e+01
3.875200e+02	-2.971877e+01
3.897583e+02	-2.977224e+01
3.920096e+02	-2.982087e+01
3.942738e+02	-2.986804e+01
3.965511e+02	-2.992146e+01
3.988416e+02	-2.996562e+01
4.011452e+02	-3.002806e+01
4.034622e+02	-3.007363e+01
4.057926e+02	-3.012210e+01
4.081365e+02	-3.016950e+01
4.104938e+02	-3.022247e+01
4.128648e+02	-3.027343e+01
4.152495e+02	-3.031534e+01
4.176480e+02	-3.036656e+01
4.200603e+02	-3.042800e+01
4.224866e+02	-3.047378e+01
4.249268e+02	-3.052270e+01
4.273812e+02	-3.056879e+01
4.298497e+02	-3.061847e+01
4.323325e+02	-3.067270e+01
4.348297e+02	-3.072071e+01
4.373412e+02	-3.076747e+01
4.398673e+02	-3.082889e+01
4.424079e+02	-3.087413e+01
4.449633e+02	-3.092561e+01
4.475334e+02	-3.096898e+01
4.501183e+02	-3.102643e+01
4.527182e+02	-3.107300e+01
4.553330e+02	-3.112327e+01
4.579630e+02	-3.117027e+01
4.606082e+02	-3.122315e+01
4.632687e+02	-3.126771e+01
4.659445e+02	-3.131956e+01
4.686358e+02	-3.138076e+01
4.713426e+02	-3.142898e+01
4.740650e+02	-3.147034e+01
4.768032e+02	-3.152495e+01
4.795572e+02	-3.157603e+01
4.823271e+02	-3.162136e+01
4.851130e+02	-3.166982e+01
4.879150e+02	-3.172438e+01
4.907332e+02	-3.177402e+01
4.935676e+02	-3.182948e+01
4.964185e+02	-3.188494e+01
4.992858e+02	-3.192685e+01
5.021696e+02	-3.197648e+01
5.050701e+02	-3.202550e+01
5.079874e+02	-3.207778e+01
5.109215e+02	-3.212113e+01
5.138726e+02	-3.217707e+01
5.168407e+02	-3.223204e+01
5.198259e+02	-3.227672e+01
5.228284e+02	-3.232637e+01
5.258482e+02	-3.238182e+01
5.288855e+02	-3.242881e+01
5.319403e+02	-3.247885e+01
5.350128e+02	-3.253303e+01
5.381030e+02	-3.257737e+01
5.412111e+02	-3.262497e+01
5.443371e+02	-3.268035e+01
5.474812e+02	-3.272473e+01
5.506434e+02	-3.277718e+01
5.538239e+02	-3.282279e+01
5.570228e+02	-3.288485e+01
5.602401e+02	-3.293219e+01
5.634760e+02	-3.297460e+01
5.667306e+02	-3.304029e+01
5.700040e+02	-3.307918e+01
5.732964e+02	-3.313012e+01
5.766077e+02	-3.318352e+01
5.799382e+02	-3.322957e+01
5.832879e+02	-3.328787e+01
5.866569e+02	-3.333142e+01
5.900454e+02	-3.338058e+01
5.934535e+02	-3.344088e+01
5.968813e+02	-3.348194e+01
6.003288e+02	-3.352677e+01
6.037963e+02	-3.359000e+01
6.072838e+02	-3.363277e+01
6.107914e+02	-3.368744e+01
6.143194e+02	-3.374123e+01
6.178676e+02	-3.378579e+01
6.214364e+02	-3.383479e+01
6.250258e+02	-3.388223e+01
6.286359e+02	-3.394023e+01
6.322669e+02	-3.399059e+01
6.359189e+02	-3.404306e+01
6.395919e+02	-3.408714e+01
6.432862e+02	-3.413743e+01
6.470017e+02	-3.418476e+01
6.507388e+02	-3.423503e+01
6.544974e+02	-3.429353e+01
6.582778e+02	-3.433657e+01
6.620800e+02	-3.438744e+01
6.659041e+02	-3.443409e+01
6.697504e+02	-3.448435e+01
6.736188e+02	-3.454070e+01
6.775096e+02	-3.458586e+01
6.814229e+02	-3.464404e+01
6.853587e+02	-3.468148e+01
6.893173e+02	-3.474569e+01
6.932988e+02	-3.479833e+01
6.973033e+02	-3.483867e+01
7.013309e+02	-3.489744e+01
