Frequency(Hz)	Magnitude(dB)
1.000000e+01	-1.592793e-05
1.005776e+01	-1.611246e-05
1.011585e+01	-1.629913e-05
1.017428e+01	-1.648796e-05
1.023305e+01	-1.667898e-05
1.029215e+01	-1.687221e-05
1.035160e+01	-1.706768e-05
1.041139e+01	-1.726541e-05
1.047153e+01	-1.746543e-05
1.053201e+01	-1.766778e-05
1.059284e+01	-1.787246e-05
1.065403e+01	-1.807952e-05
1.071556e+01	-1.828897e-05
1.077746e+01	-1.850086e-05
1.083971e+01	-1.871519e-05
1.090232e+01	-1.893201e-05
1.096529e+01	-1.915135e-05
1.102862e+01	-1.937322e-05
1.109232e+01	-1.959766e-05
1.115639e+01	-1.982471e-05
1.122083e+01	-2.005438e-05
1.128564e+01	-2.028672e-05
1.135083e+01	-2.052174e-05
1.141639e+01	-2.075949e-05
1.148233e+01	-2.100000e-05
1.154865e+01	-2.124329e-05
1.161536e+01	-2.148940e-05
1.168245e+01	-2.173836e-05
1.174992e+01	-2.199020e-05
1.181779e+01	-2.224496e-05
1.188605e+01	-2.250268e-05
1.195470e+01	-2.276337e-05
1.202375e+01	-2.302709e-05
1.209320e+01	-2.329387e-05
1.216305e+01	-2.356373e-05
1.223330e+01	-2.383673e-05
1.230396e+01	-2.411288e-05
1.237503e+01	-2.439223e-05
1.244651e+01	-2.467482e-05
1.251840e+01	-2.496069e-05
1.259070e+01	-2.524986e-05
1.266343e+01	-2.554239e-05
1.273657e+01	-2.583830e-05
1.281014e+01	-2.613765e-05
1.288413e+01	-2.644046e-05
1.295855e+01	-2.674678e-05
1.303339e+01	-2.705665e-05
1.310867e+01	-2.737010e-05
1.318439e+01	-2.768719e-05
1.326054e+01	-2.800795e-05
1.333713e+01	-2.833243e-05
1.341417e+01	-2.866067e-05
1.349165e+01	-2.899271e-05
1.356958e+01	-2.932860e-05
1.364795e+01	-2.966838e-05
1.372678e+01	-3.001209e-05
1.380607e+01	-3.035979e-05
1.388581e+01	-3.071152e-05
1.396602e+01	-3.106732e-05
1.404668e+01	-3.142724e-05
1.412782e+01	-3.179133e-05
1.420942e+01	-3.215964e-05
1.429149e+01	-3.253222e-05
1.437404e+01	-3.290911e-05
1.445706e+01	-3.329037e-05
1.454057e+01	-3.367605e-05
1.462455e+01	-3.406619e-05
1.470902e+01	-3.446086e-05
1.479398e+01	-3.486010e-05
1.487943e+01	-3.526396e-05
1.496537e+01	-3.567250e-05
1.505181e+01	-3.608577e-05
1.513875e+01	-3.650384e-05
1.522619e+01	-3.692674e-05
1.531414e+01	-3.735455e-05
1.540259e+01	-3.778731e-05
1.549156e+01	-3.822508e-05
1.558103e+01	-3.866793e-05
1.567103e+01	-3.911590e-05
1.576155e+01	-3.956907e-05
1.585258e+01	-4.002749e-05
1.594415e+01	-4.049122e-05
1.603624e+01	-4.096031e-05
1.612886e+01	-4.143485e-05
1.622202e+01	-4.191488e-05
1.631572e+01	-4.240047e-05
1.640996e+01	-4.289169e-05
1.650474e+01	-4.338860e-05
1.660008e+01	-4.389127e-05
1.669596e+01	-4.439976e-05
1.679239e+01	-4.491414e-05
1.688938e+01	-4.543448e-05
1.698694e+01	-4.596085e-05
1.708505e+01	-4.649332e-05
1.718373e+01	-4.703195e-05
1.728299e+01	-4.757683e-05
1.738281e+01	-4.812801e-05
1.748322e+01	-4.868559e-05
1.758420e+01	-4.924962e-05
1.768576e+01	-4.982019e-05
1.778792e+01	-5.039737e-05
1.789066e+01	-5.098123e-05
1.799399e+01	-5.157186e-05
1.809793e+01	-5.216933e-05
1.820246e+01	-5.277372e-05
1.830760e+01	-5.338512e-05
1.841334e+01	-5.400359e-05
1.851969e+01	-5.462924e-05
1.862666e+01	-5.526213e-05
1.873425e+01	-5.590235e-05
1.884246e+01	-5.654999e-05
1.895129e+01	-5.720513e-05
1.906075e+01	-5.786787e-05
1.917085e+01	-5.853828e-05
1.928158e+01	-5.921646e-05
1.939295e+01	-5.990249e-05
1.950496e+01	-6.059647e-05
1.961762e+01	-6.129849e-05
1.973093e+01	-6.200865e-05
1.984490e+01	-6.272703e-05
1.995952e+01	-6.345374e-05
2.007480e+01	-6.418886e-05
2.019076e+01	-6.493250e-05
2.030738e+01	-6.568476e-05
2.042467e+01	-6.644573e-05
2.054264e+01	-6.721551e-05
2.066130e+01	-6.799422e-05
2.078064e+01	-6.878194e-05
2.090066e+01	-6.957880e-05
2.102139e+01	-7.038488e-05
2.114280e+01	-7.120030e-05
2.126492e+01	-7.202517e-05
2.138775e+01	-7.285959e-05
2.151128e+01	-7.370369e-05
2.163553e+01	-7.455756e-05
2.176050e+01	-7.542132e-05
2.188619e+01	-7.629509e-05
2.201260e+01	-7.717898e-05
2.213974e+01	-7.807311e-05
2.226762e+01	-7.897760e-05
2.239624e+01	-7.989257e-05
2.252560e+01	-8.081814e-05
2.265571e+01	-8.175443e-05
2.278656e+01	-8.270157e-05
2.291818e+01	-8.365968e-05
2.305055e+01	-8.462890e-05
2.318369e+01	-8.560933e-05
2.331760e+01	-8.660113e-05
2.345228e+01	-8.760442e-05
2.358774e+01	-8.861933e-05
2.372398e+01	-8.964600e-05
2.386101e+01	-9.068457e-05
2.399883e+01	-9.173516e-05
2.413745e+01	-9.279793e-05
2.427686e+01	-9.387300e-05
2.441709e+01	-9.496054e-05
2.455812e+01	-9.606067e-05
2.469997e+01	-9.717355e-05
2.484263e+01	-9.829932e-05
2.498612e+01	-9.943813e-05
2.513044e+01	-1.005901e-04
2.527559e+01	-1.017555e-04
2.542158e+01	-1.029343e-04
2.556842e+01	-1.041268e-04
2.571610e+01	-1.053332e-04
2.586463e+01	-1.065535e-04
2.601403e+01	-1.077879e-04
2.616428e+01	-1.090366e-04
2.631541e+01	-1.102998e-04
2.646740e+01	-1.115777e-04
2.662028e+01	-1.128703e-04
2.677404e+01	-1.141779e-04
2.692868e+01	-1.155007e-04
2.708422e+01	-1.168388e-04
2.724066e+01	-1.181924e-04
2.739800e+01	-1.195617e-04
2.755625e+01	-1.209468e-04
2.771541e+01	-1.223480e-04
2.787550e+01	-1.237654e-04
2.803650e+01	-1.251992e-04
2.819844e+01	-1.266497e-04
2.836131e+01	-1.281169e-04
2.852513e+01	-1.296012e-04
2.868989e+01	-1.311026e-04
2.885560e+01	-1.326215e-04
2.902227e+01	-1.341579e-04
2.918990e+01	-1.357121e-04
2.935850e+01	-1.372844e-04
2.952807e+01	-1.388748e-04
2.969863e+01	-1.404837e-04
2.987016e+01	-1.421112e-04
3.004269e+01	-1.437576e-04
3.021622e+01	-1.454230e-04
3.039075e+01	-1.471078e-04
3.056628e+01	-1.488120e-04
3.074283e+01	-1.505360e-04
3.092040e+01	-1.522800e-04
3.109900e+01	-1.540442e-04
3.127862e+01	-1.558288e-04
3.145929e+01	-1.576341e-04
3.164099e+01	-1.594603e-04
3.182375e+01	-1.613076e-04
3.200756e+01	-1.631764e-04
3.219244e+01	-1.650668e-04
3.237838e+01	-1.669791e-04
3.256540e+01	-1.689136e-04
3.275349e+01	-1.708704e-04
3.294268e+01	-1.728500e-04
3.313295e+01	-1.748524e-04
3.332433e+01	-1.768781e-04
3.351681e+01	-1.789273e-04
3.371040e+01	-1.810001e-04
3.390511e+01	-1.830970e-04
3.410094e+01	-1.852182e-04
3.429791e+01	-1.873640e-04
3.449601e+01	-1.895346e-04
3.469526e+01	-1.917304e-04
3.489566e+01	-1.939516e-04
3.509721e+01	-1.961985e-04
3.529993e+01	-1.984714e-04
3.550382e+01	-2.007707e-04
3.570889e+01	-2.030967e-04
3.591515e+01	-2.054495e-04
3.612259e+01	-2.078297e-04
3.633123e+01	-2.102374e-04
3.654108e+01	-2.126730e-04
3.675214e+01	-2.151368e-04
3.696442e+01	-2.176292e-04
3.717792e+01	-2.201504e-04
3.739266e+01	-2.227008e-04
3.760864e+01	-2.252808e-04
3.782587e+01	-2.278907e-04
3.804435e+01	-2.305308e-04
3.826409e+01	-2.332015e-04
3.848510e+01	-2.359031e-04
3.870739e+01	-2.386360e-04
3.893096e+01	-2.414006e-04
3.915583e+01	-2.441972e-04
3.938199e+01	-2.470263e-04
3.960946e+01	-2.498880e-04
3.983824e+01	-2.527830e-04
4.006834e+01	-2.557115e-04
4.029978e+01	-2.586739e-04
4.053255e+01	-2.616706e-04
4.076666e+01	-2.647020e-04
4.100213e+01	-2.677686e-04
4.123896e+01	-2.708706e-04
4.147715e+01	-2.740086e-04
4.171672e+01	-2.771830e-04
4.195767e+01	-2.803942e-04
4.220002e+01	-2.836425e-04
4.244377e+01	-2.869285e-04
4.268892e+01	-2.902525e-04
4.293549e+01	-2.936150e-04
4.318348e+01	-2.970165e-04
4.343291e+01	-3.004574e-04
4.368377e+01	-3.039382e-04
4.393609e+01	-3.074593e-04
4.418986e+01	-3.110212e-04
4.444510e+01	-3.146243e-04
4.470182e+01	-3.182692e-04
4.496001e+01	-3.219563e-04
4.521970e+01	-3.256861e-04
4.548089e+01	-3.294591e-04
4.574358e+01	-3.332758e-04
4.600779e+01	-3.371368e-04
4.627353e+01	-3.410424e-04
4.654081e+01	-3.449934e-04
4.680963e+01	-3.489900e-04
4.708000e+01	-3.530330e-04
4.735193e+01	-3.571228e-04
4.762543e+01	-3.612600e-04
4.790051e+01	-3.654452e-04
4.817719e+01	-3.696788e-04
4.845545e+01	-3.739614e-04
4.873533e+01	-3.782937e-04
4.901682e+01	-3.826761e-04
4.929994e+01	-3.871093e-04
4.958470e+01	-3.915939e-04
4.987110e+01	-3.961304e-04
5.015915e+01	-4.007195e-04
5.044887e+01	-4.053617e-04
5.074026e+01	-4.100577e-04
5.103333e+01	-4.148081e-04
5.132810e+01	-4.196135e-04
5.162457e+01	-4.244746e-04
5.192275e+01	-4.293921e-04
5.222265e+01	-4.343664e-04
5.252429e+01	-4.393984e-04
5.282767e+01	-4.444887e-04
5.313280e+01	-4.496380e-04
5.343969e+01	-4.548469e-04
5.374836e+01	-4.601161e-04
5.405880e+01	-4.654464e-04
5.437105e+01	-4.708385e-04
5.468509e+01	-4.762930e-04
5.500095e+01	-4.818106e-04
5.531863e+01	-4.873922e-04
5.563815e+01	-4.930385e-04
5.595951e+01	-4.987501e-04
5.628273e+01	-5.045280e-04
5.660782e+01	-5.103727e-04
5.693479e+01	-5.162852e-04
5.726364e+01	-5.222661e-04
5.759439e+01	-5.283164e-04
5.792705e+01	-5.344367e-04
5.826164e+01	-5.406279e-04
5.859815e+01	-5.468908e-04
5.893662e+01	-5.532263e-04
5.927703e+01	-5.596351e-04
5.961941e+01	-5.661183e-04
5.996377e+01	-5.726765e-04
6.031012e+01	-5.793106e-04
6.065847e+01	-5.860216e-04
6.100883e+01	-5.928104e-04
6.136121e+01	-5.996778e-04
6.171563e+01	-6.066248e-04
6.207210e+01	-6.136522e-04
6.243063e+01	-6.207610e-04
6.279122e+01	-6.279522e-04
6.315390e+01	-6.352266e-04
6.351868e+01	-6.425854e-04
6.388556e+01	-6.500293e-04
6.425456e+01	-6.575595e-04
6.462569e+01	-6.651770e-04
6.499897e+01	-6.728826e-04
6.537440e+01	-6.806775e-04
6.575200e+01	-6.885627e-04
6.613178e+01	-6.965393e-04
6.651375e+01	-7.046082e-04
6.689793e+01	-7.127706e-04
6.728433e+01	-7.210276e-04
6.767297e+01	-7.293802e-04
6.806384e+01	-7.378296e-04
6.845698e+01	-7.463768e-04
6.885238e+01	-7.550230e-04
6.925007e+01	-7.637694e-04
6.965005e+01	-7.726171e-04
7.005235e+01	-7.815673e-04
7.045697e+01	-7.906211e-04
7.086393e+01	-7.997798e-04
7.127323e+01	-8.090446e-04
7.168490e+01	-8.184167e-04
7.209895e+01	-8.278974e-04
7.251539e+01	-8.374879e-04
7.293424e+01	-8.471895e-04
7.335551e+01	-8.570034e-04
7.377920e+01	-8.669311e-04
7.420535e+01	-8.769737e-04
7.463396e+01	-8.871326e-04
7.506504e+01	-8.974093e-04
7.549861e+01	-9.078049e-04
7.593469e+01	-9.183210e-04
7.637328e+01	-9.289588e-04
7.681441e+01	-9.397199e-04
7.725809e+01	-9.506056e-04
7.770433e+01	-9.616174e-04
7.815315e+01	-9.727568e-04
7.860456e+01	-9.840251e-04
7.905857e+01	-9.954240e-04
7.951521e+01	-1.006955e-03
7.997449e+01	-1.018619e-03
8.043642e+01	-1.030419e-03
8.090102e+01	-1.042355e-03
8.136830e+01	-1.054430e-03
8.183828e+01	-1.066644e-03
8.231097e+01	-1.079000e-03
8.278640e+01	-1.091499e-03
8.326457e+01	-1.104143e-03
8.374550e+01	-1.116933e-03
8.422921e+01	-1.129871e-03
8.471572e+01	-1.142959e-03
8.520503e+01	-1.156199e-03
8.569717e+01	-1.169592e-03
8.619215e+01	-1.183140e-03
8.669000e+01	-1.196845e-03
8.719071e+01	-1.210709e-03
8.769432e+01	-1.224734e-03
8.820084e+01	-1.238920e-03
8.871029e+01	-1.253272e-03
8.922267e+01	-1.267789e-03
8.973802e+01	-1.282474e-03
9.025634e+01	-1.297330e-03
9.077766e+01	-1.312358e-03
9.130199e+01	-1.327559e-03
9.182935e+01	-1.342937e-03
9.235975e+01	-1.358493e-03
9.289321e+01	-1.374229e-03
9.342976e+01	-1.390147e-03
9.396941e+01	-1.406250e-03
9.451217e+01	-1.422539e-03
9.505807e+01	-1.439017e-03
9.560712e+01	-1.455685e-03
9.615934e+01	-1.472547e-03
9.671476e+01	-1.489604e-03
9.727338e+01	-1.506858e-03
9.783522e+01	-1.524313e-03
9.840032e+01	-1.541969e-03
9.896867e+01	-1.559830e-03
9.954031e+01	-1.577898e-03
1.001153e+02	-1.596175e-03
1.006935e+02	-1.614663e-03
1.012751e+02	-1.633366e-03
1.018601e+02	-1.652286e-03
1.024484e+02	-1.671424e-03
1.030402e+02	-1.690784e-03
1.036353e+02	-1.710369e-03
1.042339e+02	-1.730180e-03
1.048360e+02	-1.750220e-03
1.054415e+02	-1.770493e-03
1.060505e+02	-1.791000e-03
1.066631e+02	-1.811745e-03
1.072791e+02	-1.832730e-03
1.078988e+02	-1.853958e-03
1.085220e+02	-1.875432e-03
1.091488e+02	-1.897155e-03
1.097793e+02	-1.919129e-03
1.104133e+02	-1.941358e-03
1.110511e+02	-1.963844e-03
1.116925e+02	-1.986590e-03
1.123376e+02	-2.009600e-03
1.129865e+02	-2.032877e-03
1.136391e+02	-2.056422e-03
1.142955e+02	-2.080241e-03
1.149556e+02	-2.104335e-03
1.156196e+02	-2.128709e-03
1.162874e+02	-2.153364e-03
1.169591e+02	-2.178305e-03
1.176347e+02	-2.203535e-03
1.183141e+02	-2.229057e-03
1.189975e+02	-2.254874e-03
1.196848e+02	-2.280991e-03
1.203761e+02	-2.307410e-03
1.210714e+02	-2.334134e-03
1.217707e+02	-2.361169e-03
1.224740e+02	-2.388516e-03
1.231814e+02	-2.416180e-03
1.238929e+02	-2.444164e-03
1.246085e+02	-2.472472e-03
1.253283e+02	-2.501108e-03
1.260522e+02	-2.530076e-03
1.267802e+02	-2.559379e-03
1.275125e+02	-2.589021e-03
1.282490e+02	-2.619006e-03
1.289898e+02	-2.649339e-03
1.297348e+02	-2.680023e-03
1.304842e+02	-2.711062e-03
1.312378e+02	-2.742460e-03
1.319959e+02	-2.774222e-03
1.327583e+02	-2.806352e-03
1.335251e+02	-2.838854e-03
1.342963e+02	-2.871732e-03
1.350720e+02	-2.904990e-03
1.358522e+02	-2.938634e-03
1.366368e+02	-2.972667e-03
1.374260e+02	-3.007094e-03
1.382198e+02	-3.041920e-03
1.390182e+02	-3.077149e-03
1.398211e+02	-3.112786e-03
1.406287e+02	-3.148835e-03
1.414410e+02	-3.185302e-03
1.422579e+02	-3.222191e-03
1.430796e+02	-3.259507e-03
1.439060e+02	-3.297254e-03
1.447372e+02	-3.335439e-03
1.455732e+02	-3.374066e-03
1.464141e+02	-3.413140e-03
1.472597e+02	-3.452667e-03
1.481103e+02	-3.492651e-03
1.489658e+02	-3.533097e-03
1.498262e+02	-3.574012e-03
1.506916e+02	-3.615401e-03
1.515620e+02	-3.657269e-03
1.524374e+02	-3.699621e-03
1.533179e+02	-3.742464e-03
1.542034e+02	-3.785802e-03
1.550941e+02	-3.829642e-03
1.559899e+02	-3.873990e-03
1.568909e+02	-3.918851e-03
1.577971e+02	-3.964231e-03
1.587085e+02	-4.010136e-03
1.596252e+02	-4.056573e-03
1.605472e+02	-4.103547e-03
1.614745e+02	-4.151065e-03
1.624072e+02	-4.199133e-03
1.633453e+02	-4.247757e-03
1.642887e+02	-4.296944e-03
1.652377e+02	-4.346700e-03
1.661921e+02	-4.397032e-03
1.671520e+02	-4.447947e-03
1.681175e+02	-4.499451e-03
1.690885e+02	-4.551551e-03
1.700651e+02	-4.604254e-03
1.710474e+02	-4.657566e-03
1.720354e+02	-4.711496e-03
1.730291e+02	-4.766050e-03
1.740285e+02	-4.821235e-03
1.750337e+02	-4.877059e-03
1.760446e+02	-4.933529e-03
1.770615e+02	-4.990652e-03
1.780842e+02	-5.048437e-03
1.791128e+02	-5.106890e-03
1.801473e+02	-5.166019e-03
1.811878e+02	-5.225832e-03
1.822344e+02	-5.286338e-03
1.832870e+02	-5.347544e-03
1.843456e+02	-5.409458e-03
1.854104e+02	-5.472088e-03
1.864813e+02	-5.535443e-03
1.875584e+02	-5.599531e-03
1.886418e+02	-5.664361e-03
1.897313e+02	-5.729941e-03
1.908272e+02	-5.796279e-03
1.919294e+02	-5.863385e-03
1.930380e+02	-5.931267e-03
1.941530e+02	-5.999935e-03
1.952744e+02	-6.069397e-03
1.964023e+02	-6.139663e-03
1.975367e+02	-6.210741e-03
1.986777e+02	-6.282642e-03
1.998252e+02	-6.355375e-03
2.009794e+02	-6.428949e-03
2.021403e+02	-6.503374e-03
2.033078e+02	-6.578660e-03
2.044821e+02	-6.654817e-03
2.056632e+02	-6.731855e-03
2.068511e+02	-6.809784e-03
2.080459e+02	-6.888614e-03
2.092475e+02	-6.968356e-03
2.104561e+02	-7.049021e-03
2.116717e+02	-7.130618e-03
2.128943e+02	-7.213159e-03
2.141240e+02	-7.296655e-03
2.153608e+02	-7.381117e-03
2.166047e+02	-7.466555e-03
2.178558e+02	-7.552982e-03
2.191141e+02	-7.640408e-03
2.203797e+02	-7.728845e-03
2.216526e+02	-7.818305e-03
2.229329e+02	-7.908799e-03
2.242205e+02	-8.000340e-03
2.255156e+02	-8.092939e-03
2.268182e+02	-8.186609e-03
2.281283e+02	-8.281362e-03
2.294459e+02	-8.377211e-03
2.307712e+02	-8.474168e-03
2.321041e+02	-8.572247e-03
2.334447e+02	-8.671459e-03
2.347931e+02	-8.771818e-03
2.361493e+02	-8.873338e-03
2.375133e+02	-8.976031e-03
2.388851e+02	-9.079912e-03
2.402649e+02	-9.184993e-03
2.416527e+02	-9.291289e-03
2.430484e+02	-9.398814e-03
2.444523e+02	-9.507583e-03
2.458642e+02	-9.617608e-03
2.472843e+02	-9.728905e-03
2.487126e+02	-9.841489e-03
2.501492e+02	-9.955374e-03
2.515940e+02	-1.007058e-02
2.530472e+02	-1.018711e-02
2.545088e+02	-1.030499e-02
2.559789e+02	-1.042423e-02
2.574574e+02	-1.054485e-02
2.589444e+02	-1.066686e-02
2.604401e+02	-1.079029e-02
2.619444e+02	-1.091514e-02
2.634574e+02	-1.104143e-02
2.649791e+02	-1.116919e-02
2.665096e+02	-1.129841e-02
2.680489e+02	-1.142914e-02
2.695972e+02	-1.156137e-02
2.711544e+02	-1.169513e-02
2.727205e+02	-1.183044e-02
2.742958e+02	-1.196730e-02
2.758801e+02	-1.210576e-02
2.774736e+02	-1.224580e-02
2.790762e+02	-1.238747e-02
2.806882e+02	-1.253078e-02
2.823094e+02	-1.267574e-02
2.839400e+02	-1.282237e-02
2.855800e+02	-1.297070e-02
2.872295e+02	-1.312074e-02
2.888886e+02	-1.327251e-02
2.905572e+02	-1.342604e-02
2.922354e+02	-1.358134e-02
2.939234e+02	-1.373843e-02
2.956211e+02	-1.389734e-02
2.973286e+02	-1.405808e-02
2.990459e+02	-1.422068e-02
3.007732e+02	-1.438516e-02
3.025104e+02	-1.455154e-02
3.042577e+02	-1.471983e-02
3.060151e+02	-1.489007e-02
3.077826e+02	-1.506228e-02
3.095604e+02	-1.523647e-02
3.113484e+02	-1.541267e-02
3.131467e+02	-1.559091e-02
3.149554e+02	-1.577121e-02
3.167746e+02	-1.595358e-02
3.186043e+02	-1.613807e-02
3.204445e+02	-1.632468e-02
3.222954e+02	-1.651344e-02
3.241570e+02	-1.670438e-02
3.260293e+02	-1.689753e-02
3.279124e+02	-1.709291e-02
3.298064e+02	-1.729054e-02
3.317114e+02	-1.749045e-02
3.336273e+02	-1.769266e-02
3.355544e+02	-1.789721e-02
3.374925e+02	-1.810412e-02
3.394418e+02	-1.831342e-02
3.414024e+02	-1.852513e-02
3.433744e+02	-1.873929e-02
3.453577e+02	-1.895591e-02
3.473525e+02	-1.917503e-02
3.493588e+02	-1.939668e-02
3.513766e+02	-1.962089e-02
3.534062e+02	-1.984768e-02
3.554474e+02	-2.007709e-02
3.575005e+02	-2.030914e-02
3.595654e+02	-2.054387e-02
3.616422e+02	-2.078130e-02
3.637311e+02	-2.102147e-02
3.658320e+02	-2.126442e-02
3.679450e+02	-2.151016e-02
3.700702e+02	-2.175873e-02
3.722077e+02	-2.201017e-02
3.743576e+02	-2.226451e-02
3.765199e+02	-2.252178e-02
3.786946e+02	-2.278201e-02
3.808820e+02	-2.304524e-02
3.830819e+02	-2.331151e-02
3.852946e+02	-2.358084e-02
3.875200e+02	-2.385328e-02
3.897583e+02	-2.412886e-02
3.920096e+02	-2.440761e-02
3.942738e+02	-2.468957e-02
3.965511e+02	-2.497478e-02
3.988416e+02	-2.526327e-02
4.011452e+02	-2.555509e-02
4.034622e+02	-2.585027e-02
4.057926e+02	-2.614885e-02
4.081365e+02	-2.645086e-02
4.104938e+02	-2.675636e-02
4.128648e+02	-2.706537e-02
4.152495e+02	-2.737793e-02
4.176480e+02	-2.769410e-02
4.200603e+02	-2.801390e-02
4.224866e+02	-2.833739e-02
4.249268e+02	-2.866460e-02
4.273812e+02	-2.899557e-02
4.298497e+02	-2.933036e-02
4.323325e+02	-2.966899e-02
4.348297e+02	-3.001152e-02
4.373412e+02	-3.035800e-02
4.398673e+02	-3.070845e-02
4.424079e+02	-3.106294e-02
4.449633e+02	-3.142151e-02
4.475334e+02	-3.178420e-02
4.501183e+02	-3.215106e-02
4.527182e+02	-3.252214e-02
4.553330e+02	-3.289749e-02
4.579630e+02	-3.327715e-02
4.606082e+02	-3.366117e-02
4.632687e+02	-3.404961e-02
4.659445e+02	-3.444252e-02
4.686358e+02	-3.483994e-02
4.713426e+02	-3.524193e-02
4.740650e+02	-3.564853e-02
4.768032e+02	-3.605981e-02
4.795572e+02	-3.647581e-02
4.823271e+02	-3.689659e-02
4.851130e+02	-3.732221e-02
4.879150e+02	-3.775271e-02
4.907332e+02	-3.818816e-02
4.935676e+02	-3.862861e-02
4.964185e+02	-3.907411e-02
4.992858e+02	-3.952473e-02
5.021696e+02	-3.998052e-02
5.050701e+02	-4.044154e-02
5.079874e+02	-4.090785e-02
5.109215e+02	-4.137952e-02
5.138726e+02	-4.185660e-02
5.168407e+02	-4.233915e-02
5.198259e+02	-4.282723e-02
5.228284e+02	-4.332092e-02
5.258482e+02	-4.382026e-02
5.288855e+02	-4.432533e-02
5.319403e+02	-4.483620e-02
5.350128e+02	-4.535292e-02
5.381030e+02	-4.587556e-02
5.412111e+02	-4.640420e-02
5.443371e+02	-4.693889e-02
5.474812e+02	-4.747971e-02
5.506434e+02	-4.802673e-02
5.538239e+02	-4.858001e-02
5.570228e+02	-4.913963e-02
5.602401e+02	-4.970567e-02
5.634760e+02	-5.027818e-02
5.667306e+02	-5.085725e-02
5.700040e+02	-5.144295e-02
5.732964e+02	-5.203535e-02
5.766077e+02	-5.263453e-02
5.799382e+02	-5.324057e-02
5.832879e+02	-5.385355e-02
5.866569e+02	-5.447354e-02
5.900454e+02	-5.510062e-02
5.934535e+02	-5.573487e-02
5.968813e+02	-5.637638e-02
6.003288e+02	-5.702522e-02
6.037963e+02	-5.768147e-02
6.072838e+02	-5.834524e-02
6.107914e+02	-5.901658e-02
6.143194e+02	-5.969560e-02
6.178676e+02	-6.038237e-02
6.214364e+02	-6.107700e-02
6.250258e+02	-6.177955e-02
6.286359e+02	-6.249013e-02
6.322669e+02	-6.320882e-02
6.359189e+02	-6.393571e-02
6.395919e+02	-6.467091e-02
6.432862e+02	-6.541449e-02
6.470017e+02	-6.616655e-02
6.507388e+02	-6.692720e-02
6.544974e+02	-6.769652e-02
6.582778e+02	-6.847462e-02
6.620800e+02	-6.926158e-02
6.659041e+02	-7.005752e-02
6.697504e+02	-7.086253e-02
6.736188e+02	-7.167672e-02
6.775096e+02	-7.250018e-02
6.814229e+02	-7.333302e-02
6.853587e+02	-7.417534e-02
6.893173e+02	-7.502726e-02
6.932988e+02	-7.588887e-02
6.973033e+02	-7.676030e-02
7.013309e+02	-7.764164e-02
