Frequency(Hz)	Magnitude(dB)
1.000000e+01	-2.312368e+00
1.005776e+01	-2.333386e+00
1.011585e+01	-2.354130e+00
1.017428e+01	-2.375039e+00
1.023305e+01	-2.396259e+00
1.029215e+01	-2.417540e+00
1.035160e+01	-2.438726e+00
1.041139e+01	-2.460535e+00
1.047153e+01	-2.482082e+00
1.053201e+01	-2.504196e+00
1.059284e+01	-2.526115e+00
1.065403e+01	-2.548196e+00
1.071556e+01	-2.570356e+00
1.077746e+01	-2.592850e+00
1.083971e+01	-2.615671e+00
1.090232e+01	-2.638122e+00
1.096529e+01	-2.660890e+00
1.102862e+01	-2.683920e+00
1.109232e+01	-2.707206e+00
1.115639e+01	-2.730326e+00
1.122083e+01	-2.753799e+00
1.128564e+01	-2.777371e+00
1.135083e+01	-2.801174e+00
1.141639e+01	-2.825036e+00
1.148233e+01	-2.848841e+00
1.154865e+01	-2.873179e+00
1.161536e+01	-2.897298e+00
1.168245e+01	-2.921427e+00
1.174992e+01	-2.946486e+00
1.181779e+01	-2.970989e+00
1.188605e+01	-2.995917e+00
1.195470e+01	-3.021019e+00
1.202375e+01	-3.046077e+00
1.209320e+01	-3.071403e+00
1.216305e+01	-3.096702e+00
1.223330e+01	-3.122443e+00
1.230396e+01	-3.148044e+00
1.237503e+01	-3.173906e+00
1.244651e+01	-3.199963e+00
1.251840e+01	-3.226108e+00
1.259070e+01	-3.252099e+00
1.266343e+01	-3.278760e+00
1.273657e+01	-3.305308e+00
1.281014e+01	-3.331981e+00
1.288413e+01	-3.359047e+00
1.295855e+01	-3.385996e+00
1.303339e+01	-3.413201e+00
1.310867e+01	-3.440544e+00
1.318439e+01	-3.467973e+00
1.326054e+01	-3.495248e+00
1.333713e+01	-3.523351e+00
1.341417e+01	-3.551078e+00
1.349165e+01	-3.578885e+00
1.356958e+01	-3.607276e+00
1.364795e+01	-3.635292e+00
1.372678e+01	-3.663755e+00
1.380607e+01	-3.692708e+00
1.388581e+01	-3.721099e+00
1.396602e+01	-3.750290e+00
1.404668e+01	-3.779182e+00
1.412782e+01	-3.808400e+00
1.420942e+01	-3.837730e+00
1.429149e+01	-3.867017e+00
1.437404e+01	-3.896266e+00
1.445706e+01	-3.926047e+00
1.454057e+01	-3.956289e+00
1.462455e+01	-3.985840e+00
1.470902e+01	-4.016179e+00
1.479398e+01	-4.046639e+00
1.487943e+01	-4.076647e+00
1.496537e+01	-4.107255e+00
1.505181e+01	-4.137894e+00
1.513875e+01	-4.168740e+00
1.522619e+01	-4.199571e+00
1.531414e+01	-4.230703e+00
1.540259e+01	-4.262030e+00
1.549156e+01	-4.293350e+00
1.558103e+01	-4.324852e+00
1.567103e+01	-4.356489e+00
1.576155e+01	-4.387986e+00
1.585258e+01	-4.420333e+00
1.594415e+01	-4.452060e+00
1.603624e+01	-4.484395e+00
1.612886e+01	-4.516129e+00
1.622202e+01	-4.549292e+00
1.631572e+01	-4.581232e+00
1.640996e+01	-4.613730e+00
1.650474e+01	-4.646618e+00
1.660008e+01	-4.679830e+00
1.669596e+01	-4.712993e+00
1.679239e+01	-4.745956e+00
1.688938e+01	-4.779346e+00
1.698694e+01	-4.812940e+00
1.708505e+01	-4.846451e+00
1.718373e+01	-4.880226e+00
1.728299e+01	-4.913795e+00
1.738281e+01	-4.947750e+00
1.748322e+01	-4.982048e+00
1.758420e+01	-5.016275e+00
1.768576e+01	-5.050458e+00
1.778792e+01	-5.084941e+00
1.789066e+01	-5.119632e+00
1.799399e+01	-5.153973e+00
1.809793e+01	-5.189232e+00
1.820246e+01	-5.224180e+00
1.830760e+01	-5.259103e+00
1.841334e+01	-5.293888e+00
1.851969e+01	-5.329508e+00
1.862666e+01	-5.364889e+00
1.873425e+01	-5.400219e+00
1.884246e+01	-5.436003e+00
1.895129e+01	-5.471981e+00
1.906075e+01	-5.507847e+00
1.917085e+01	-5.543927e+00
1.928158e+01	-5.579858e+00
1.939295e+01	-5.616363e+00
1.950496e+01	-5.652499e+00
1.961762e+01	-5.689162e+00
1.973093e+01	-5.725841e+00
1.984490e+01	-5.762162e+00
1.995952e+01	-5.799015e+00
2.007480e+01	-5.836137e+00
2.019076e+01	-5.873020e+00
2.030738e+01	-5.910130e+00
2.042467e+01	-5.947433e+00
2.054264e+01	-5.984832e+00
2.066130e+01	-6.022531e+00
2.078064e+01	-6.059937e+00
2.090066e+01	-6.097497e+00
2.102139e+01	-6.135492e+00
2.114280e+01	-6.173163e+00
2.126492e+01	-6.211215e+00
2.138775e+01	-6.249154e+00
2.151128e+01	-6.287537e+00
2.163553e+01	-6.325882e+00
2.176050e+01	-6.364269e+00
2.188619e+01	-6.403048e+00
2.201260e+01	-6.441498e+00
2.213974e+01	-6.480067e+00
2.226762e+01	-6.519067e+00
2.239624e+01	-6.557987e+00
2.252560e+01	-6.596683e+00
2.265571e+01	-6.636285e+00
2.278656e+01	-6.675072e+00
2.291818e+01	-6.714535e+00
2.305055e+01	-6.753949e+00
2.318369e+01	-6.793529e+00
2.331760e+01	-6.833316e+00
2.345228e+01	-6.872704e+00
2.358774e+01	-6.912907e+00
2.372398e+01	-6.952564e+00
2.386101e+01	-6.992329e+00
2.399883e+01	-7.032686e+00
2.413745e+01	-7.072419e+00
2.427686e+01	-7.112965e+00
2.441709e+01	-7.153371e+00
2.455812e+01	-7.193922e+00
2.469997e+01	-7.234436e+00
2.484263e+01	-7.275142e+00
2.498612e+01	-7.315434e+00
2.513044e+01	-7.356794e+00
2.527559e+01	-7.397383e+00
2.542158e+01	-7.438195e+00
2.556842e+01	-7.479263e+00
2.571610e+01	-7.519928e+00
2.586463e+01	-7.561631e+00
2.601403e+01	-7.602913e+00
2.616428e+01	-7.644175e+00
2.631541e+01	-7.685741e+00
2.646740e+01	-7.727072e+00
2.662028e+01	-7.768964e+00
2.677404e+01	-7.810715e+00
2.692868e+01	-7.852149e+00
2.708422e+01	-7.894285e+00
2.724066e+01	-7.936101e+00
2.739800e+01	-7.978277e+00
2.755625e+01	-8.019958e+00
2.771541e+01	-8.062843e+00
2.787550e+01	-8.104268e+00
2.803650e+01	-8.146885e+00
2.819844e+01	-8.189297e+00
2.836131e+01	-8.231929e+00
2.852513e+01	-8.274738e+00
2.868989e+01	-8.317260e+00
2.885560e+01	-8.360258e+00
2.902227e+01	-8.402636e+00
2.918990e+01	-8.445276e+00
2.935850e+01	-8.488472e+00
2.952807e+01	-8.531690e+00
2.969863e+01	-8.574337e+00
2.987016e+01	-8.617606e+00
3.004269e+01	-8.660554e+00
3.021622e+01	-8.704263e+00
3.039075e+01	-8.746884e+00
3.056628e+01	-8.790803e+00
3.074283e+01	-8.833501e+00
3.092040e+01	-8.877507e+00
3.109900e+01	-8.921280e+00
3.127862e+01	-8.964950e+00
3.145929e+01	-9.008440e+00
3.164099e+01	-9.052368e+00
3.182375e+01	-9.095922e+00
3.200756e+01	-9.139894e+00
3.219244e+01	-9.183882e+00
3.237838e+01	-9.227951e+00
3.256540e+01	-9.271660e+00
3.275349e+01	-9.316304e+00
3.294268e+01	-9.360475e+00
3.313295e+01	-9.405035e+00
3.332433e+01	-9.448639e+00
3.351681e+01	-9.493293e+00
3.371040e+01	-9.537633e+00
3.390511e+01	-9.582274e+00
3.410094e+01	-9.626738e+00
3.429791e+01	-9.671566e+00
3.449601e+01	-9.716506e+00
3.469526e+01	-9.760753e+00
3.489566e+01	-9.805627e+00
3.509721e+01	-9.850621e+00
3.529993e+01	-9.895636e+00
3.550382e+01	-9.939754e+00
3.570889e+01	-9.985293e+00
3.591515e+01	-1.003015e+01
3.612259e+01	-1.007512e+01
3.633123e+01	-1.012050e+01
3.654108e+01	-1.016569e+01
3.675214e+01	-1.021070e+01
3.696442e+01	-1.025557e+01
3.717792e+01	-1.030127e+01
3.739266e+01	-1.034670e+01
3.760864e+01	-1.039204e+01
3.782587e+01	-1.043770e+01
3.804435e+01	-1.048318e+01
3.826409e+01	-1.052895e+01
3.848510e+01	-1.057451e+01
3.870739e+01	-1.062011e+01
3.893096e+01	-1.066554e+01
3.915583e+01	-1.071153e+01
3.938199e+01	-1.075776e+01
3.960946e+01	-1.080333e+01
3.983824e+01	-1.084880e+01
4.006834e+01	-1.089502e+01
4.029978e+01	-1.094141e+01
4.053255e+01	-1.098693e+01
4.076666e+01	-1.103336e+01
4.100213e+01	-1.107882e+01
4.123896e+01	-1.112573e+01
4.147715e+01	-1.117098e+01
4.171672e+01	-1.121746e+01
4.195767e+01	-1.126442e+01
4.220002e+01	-1.130981e+01
4.244377e+01	-1.135648e+01
4.268892e+01	-1.140303e+01
4.293549e+01	-1.144940e+01
4.318348e+01	-1.149600e+01
4.343291e+01	-1.154274e+01
4.368377e+01	-1.158912e+01
4.393609e+01	-1.163551e+01
4.418986e+01	-1.168188e+01
4.444510e+01	-1.172880e+01
4.470182e+01	-1.177490e+01
4.496001e+01	-1.182263e+01
4.521970e+01	-1.186873e+01
4.548089e+01	-1.191614e+01
4.574358e+01	-1.196191e+01
4.600779e+01	-1.200907e+01
4.627353e+01	-1.205682e+01
4.654081e+01	-1.210286e+01
4.680963e+01	-1.214984e+01
4.708000e+01	-1.219777e+01
4.735193e+01	-1.224408e+01
4.762543e+01	-1.229134e+01
4.790051e+01	-1.233879e+01
4.817719e+01	-1.238578e+01
4.845545e+01	-1.243300e+01
4.873533e+01	-1.248005e+01
4.901682e+01	-1.252743e+01
4.929994e+01	-1.257428e+01
4.958470e+01	-1.262190e+01
4.987110e+01	-1.266884e+01
5.015915e+01	-1.271609e+01
5.044887e+01	-1.276356e+01
5.074026e+01	-1.281076e+01
5.103333e+01	-1.285821e+01
5.132810e+01	-1.290574e+01
5.162457e+01	-1.295359e+01
5.192275e+01	-1.300113e+01
5.222265e+01	-1.304813e+01
5.252429e+01	-1.309589e+01
5.282767e+01	-1.314372e+01
5.313280e+01	-1.319119e+01
5.343969e+01	-1.323927e+01
5.374836e+01	-1.328553e+01
5.405880e+01	-1.333412e+01
5.437105e+01	-1.338112e+01
5.468509e+01	-1.342927e+01
5.500095e+01	-1.347745e+01
5.531863e+01	-1.352549e+01
5.563815e+01	-1.357320e+01
5.595951e+01	-1.362027e+01
5.628273e+01	-1.366854e+01
5.660782e+01	-1.371607e+01
5.693479e+01	-1.376464e+01
5.726364e+01	-1.381207e+01
5.759439e+01	-1.386031e+01
5.792705e+01	-1.390925e+01
5.826164e+01	-1.395640e+01
5.859815e+01	-1.400460e+01
5.893662e+01	-1.405190e+01
5.927703e+01	-1.410094e+01
5.961941e+01	-1.414863e+01
5.996377e+01	-1.419661e+01
6.031012e+01	-1.424501e+01
6.065847e+01	-1.429286e+01
6.100883e+01	-1.434120e+01
6.136121e+01	-1.438984e+01
6.171563e+01	-1.443688e+01
6.207210e+01	-1.448603e+01
6.243063e+01	-1.453377e+01
6.279122e+01	-1.458166e+01
6.315390e+01	-1.463088e+01
6.351868e+01	-1.467901e+01
6.388556e+01	-1.472710e+01
6.425456e+01	-1.477554e+01
6.462569e+01	-1.482444e+01
6.499897e+01	-1.487288e+01
6.537440e+01	-1.492107e+01
6.575200e+01	-1.496956e+01
6.613178e+01	-1.501826e+01
6.651375e+01	-1.506572e+01
6.689793e+01	-1.511510e+01
6.728433e+01	-1.516338e+01
6.767297e+01	-1.521138e+01
6.806384e+01	-1.525965e+01
6.845698e+01	-1.530808e+01
6.885238e+01	-1.535680e+01
6.925007e+01	-1.540509e+01
6.965005e+01	-1.545456e+01
7.005235e+01	-1.550326e+01
7.045697e+01	-1.555238e+01
7.086393e+01	-1.560073e+01
7.127323e+01	-1.564849e+01
7.168490e+01	-1.569791e+01
7.209895e+01	-1.574700e+01
7.251539e+01	-1.579532e+01
7.293424e+01	-1.584329e+01
7.335551e+01	-1.589291e+01
7.377920e+01	-1.594105e+01
7.420535e+01	-1.599030e+01
7.463396e+01	-1.603911e+01
7.506504e+01	-1.608821e+01
7.549861e+01	-1.613644e+01
7.593469e+01	-1.618593e+01
7.637328e+01	-1.623507e+01
7.681441e+01	-1.628229e+01
7.725809e+01	-1.633247e+01
7.770433e+01	-1.637986e+01
7.815315e+01	-1.643001e+01
7.860456e+01	-1.647880e+01
7.905857e+01	-1.652771e+01
7.951521e+01	-1.657634e+01
7.997449e+01	-1.662587e+01
8.043642e+01	-1.667320e+01
8.090102e+01	-1.672346e+01
8.136830e+01	-1.677319e+01
8.183828e+01	-1.682078e+01
8.231097e+01	-1.687052e+01
8.278640e+01	-1.691908e+01
8.326457e+01	-1.696783e+01
8.374550e+01	-1.701753e+01
8.422921e+01	-1.706664e+01
8.471572e+01	-1.711555e+01
8.520503e+01	-1.716421e+01
8.569717e+01	-1.721261e+01
8.619215e+01	-1.726275e+01
8.669000e+01	-1.731055e+01
8.719071e+01	-1.736155e+01
8.769432e+01	-1.740939e+01
8.820084e+01	-1.745959e+01
8.871029e+01	-1.750794e+01
8.922267e+01	-1.755761e+01
8.973802e+01	-1.760620e+01
9.025634e+01	-1.765571e+01
9.077766e+01	-1.770471e+01
9.130199e+01	-1.775402e+01
9.182935e+01	-1.780269e+01
9.235975e+01	-1.785234e+01
9.289321e+01	-1.790188e+01
9.342976e+01	-1.794955e+01
9.396941e+01	-1.799930e+01
9.451217e+01	-1.805002e+01
9.505807e+01	-1.809869e+01
9.560712e+01	-1.814648e+01
9.615934e+01	-1.819613e+01
9.671476e+01	-1.824573e+01
9.727338e+01	-1.829661e+01
9.783522e+01	-1.834472e+01
9.840032e+01	-1.839338e+01
9.896867e+01	-1.844357e+01
9.954031e+01	-1.849238e+01
1.001153e+02	-1.854261e+01
1.006935e+02	-1.859138e+01
1.012751e+02	-1.864107e+01
1.018601e+02	-1.869100e+01
1.024484e+02	-1.873892e+01
1.030402e+02	-1.878782e+01
1.036353e+02	-1.883793e+01
1.042339e+02	-1.888828e+01
1.048360e+02	-1.893774e+01
1.054415e+02	-1.898588e+01
1.060505e+02	-1.903527e+01
1.066631e+02	-1.908369e+01
1.072791e+02	-1.913546e+01
1.078988e+02	-1.918376e+01
1.085220e+02	-1.923418e+01
1.091488e+02	-1.928309e+01
1.097793e+02	-1.933302e+01
1.104133e+02	-1.938191e+01
1.110511e+02	-1.943028e+01
1.116925e+02	-1.948174e+01
1.123376e+02	-1.952933e+01
1.129865e+02	-1.957985e+01
1.136391e+02	-1.962882e+01
1.142955e+02	-1.967824e+01
1.149556e+02	-1.972846e+01
1.156196e+02	-1.977719e+01
1.162874e+02	-1.982657e+01
1.169591e+02	-1.987646e+01
1.176347e+02	-1.992727e+01
1.183141e+02	-1.997583e+01
1.189975e+02	-2.002574e+01
1.196848e+02	-2.007457e+01
1.203761e+02	-2.012412e+01
1.210714e+02	-2.017385e+01
1.217707e+02	-2.022443e+01
1.224740e+02	-2.027388e+01
1.231814e+02	-2.032058e+01
1.238929e+02	-2.037330e+01
1.246085e+02	-2.042180e+01
1.253283e+02	-2.047004e+01
1.260522e+02	-2.052127e+01
1.267802e+02	-2.057085e+01
1.275125e+02	-2.062081e+01
1.282490e+02	-2.066876e+01
1.289898e+02	-2.071927e+01
1.297348e+02	-2.076954e+01
1.304842e+02	-2.081819e+01
1.312378e+02	-2.086846e+01
1.319959e+02	-2.091605e+01
1.327583e+02	-2.096765e+01
1.335251e+02	-2.101642e+01
1.342963e+02	-2.106728e+01
1.350720e+02	-2.111689e+01
1.358522e+02	-2.116776e+01
1.366368e+02	-2.121747e+01
1.374260e+02	-2.126670e+01
1.382198e+02	-2.131544e+01
1.390182e+02	-2.136597e+01
1.398211e+02	-2.141392e+01
1.406287e+02	-2.146431e+01
1.414410e+02	-2.151507e+01
1.422579e+02	-2.156284e+01
1.430796e+02	-2.161477e+01
1.439060e+02	-2.166353e+01
1.447372e+02	-2.171246e+01
1.455732e+02	-2.176299e+01
1.464141e+02	-2.181211e+01
1.472597e+02	-2.186251e+01
1.481103e+02	-2.191202e+01
1.489658e+02	-2.196163e+01
1.498262e+02	-2.200899e+01
1.506916e+02	-2.206079e+01
1.515620e+02	-2.211036e+01
1.524374e+02	-2.215972e+01
1.533179e+02	-2.220991e+01
1.542034e+02	-2.225972e+01
1.550941e+02	-2.230817e+01
1.559899e+02	-2.235906e+01
1.568909e+02	-2.240836e+01
1.577971e+02	-2.245875e+01
1.587085e+02	-2.250947e+01
1.596252e+02	-2.255844e+01
1.605472e+02	-2.260617e+01
1.614745e+02	-2.265833e+01
1.624072e+02	-2.270699e+01
1.633453e+02	-2.275757e+01
1.642887e+02	-2.280620e+01
1.652377e+02	-2.285544e+01
1.661921e+02	-2.290993e+01
1.671520e+02	-2.295603e+01
1.681175e+02	-2.300498e+01
1.690885e+02	-2.305525e+01
1.700651e+02	-2.310579e+01
1.710474e+02	-2.315636e+01
1.720354e+02	-2.320463e+01
1.730291e+02	-2.325715e+01
1.740285e+02	-2.330325e+01
1.750337e+02	-2.335496e+01
1.760446e+02	-2.340355e+01
1.770615e+02	-2.345626e+01
1.780842e+02	-2.350483e+01
1.791128e+02	-2.355390e+01
1.801473e+02	-2.360267e+01
1.811878e+02	-2.365379e+01
1.822344e+02	-2.370221e+01
1.832870e+02	-2.375390e+01
1.843456e+02	-2.380295e+01
1.854104e+02	-2.385378e+01
1.864813e+02	-2.390231e+01
1.875584e+02	-2.395285e+01
1.886418e+02	-2.400064e+01
1.897313e+02	-2.405128e+01
1.908272e+02	-2.410286e+01
1.919294e+02	-2.415415e+01
1.930380e+02	-2.420446e+01
1.941530e+02	-2.425161e+01
1.952744e+02	-2.430430e+01
1.964023e+02	-2.435190e+01
1.975367e+02	-2.440267e+01
1.986777e+02	-2.445275e+01
1.998252e+02	-2.450261e+01
2.009794e+02	-2.454798e+01
2.021403e+02	-2.459986e+01
2.033078e+02	-2.465143e+01
2.044821e+02	-2.470171e+01
2.056632e+02	-2.474704e+01
2.068511e+02	-2.480032e+01
2.080459e+02	-2.485244e+01
2.092475e+02	-2.489902e+01
2.104561e+02	-2.494749e+01
2.116717e+02	-2.499891e+01
2.128943e+02	-2.504913e+01
2.141240e+02	-2.509980e+01
2.153608e+02	-2.514996e+01
2.166047e+02	-2.519960e+01
2.178558e+02	-2.524807e+01
2.191141e+02	-2.529855e+01
2.203797e+02	-2.534763e+01
2.216526e+02	-2.540321e+01
2.229329e+02	-2.545259e+01
2.242205e+02	-2.549743e+01
2.255156e+02	-2.555174e+01
2.268182e+02	-2.559504e+01
2.281283e+02	-2.564981e+01
2.294459e+02	-2.569589e+01
2.307712e+02	-2.574956e+01
2.321041e+02	-2.580076e+01
2.334447e+02	-2.585061e+01
2.347931e+02	-2.590090e+01
2.361493e+02	-2.594972e+01
2.375133e+02	-2.599560e+01
2.388851e+02	-2.604919e+01
2.402649e+02	-2.609619e+01
2.416527e+02	-2.614979e+01
2.430484e+02	-2.619699e+01
2.444523e+02	-2.624767e+01
2.458642e+02	-2.629907e+01
2.472843e+02	-2.634985e+01
2.487126e+02	-2.639498e+01
2.501492e+02	-2.644770e+01
2.515940e+02	-2.649795e+01
2.530472e+02	-2.654547e+01
2.545088e+02	-2.659350e+01
2.559789e+02	-2.664883e+01
2.574574e+02	-2.670189e+01
2.589444e+02	-2.675024e+01
2.604401e+02	-2.679665e+01
2.619444e+02	-2.684383e+01
2.634574e+02	-2.690044e+01
2.649791e+02	-2.694972e+01
2.665096e+02	-2.699549e+01
2.680489e+02	-2.704593e+01
2.695972e+02	-2.710159e+01
2.711544e+02	-2.715050e+01
2.727205e+02	-2.719484e+01
2.742958e+02	-2.724600e+01
2.758801e+02	-2.729647e+01
2.774736e+02	-2.734942e+01
2.790762e+02	-2.739846e+01
2.806882e+02	-2.744635e+01
2.823094e+02	-2.749655e+01
2.839400e+02	-2.754770e+01
2.855800e+02	-2.759836e+01
2.872295e+02	-2.765124e+01
2.888886e+02	-2.769903e+01
2.905572e+02	-2.775144e+01
2.922354e+02	-2.779617e+01
2.939234e+02	-2.784897e+01
2.956211e+02	-2.790224e+01
2.973286e+02	-2.795001e+01
2.990459e+02	-2.800170e+01
3.007732e+02	-2.804788e+01
3.025104e+02	-2.809852e+01
3.042577e+02	-2.814923e+01
3.060151e+02	-2.819623e+01
3.077826e+02	-2.824442e+01
3.095604e+02	-2.829808e+01
3.113484e+02	-2.834461e+01
3.131467e+02	-2.839727e+01
3.149554e+02	-2.844690e+01
3.167746e+02	-2.849837e+01
3.186043e+02	-2.854900e+01
3.204445e+02	-2.859967e+01
3.222954e+02	-2.864570e+01
3.241570e+02	-2.869918e+01
3.260293e+02	-2.875145e+01
3.279124e+02	-2.880249e+01
3.298064e+02	-2.884627e+01
3.317114e+02	-2.890062e+01
3.336273e+02	-2.894390e+01
3.355544e+02	-2.900011e+01
3.374925e+02	-2.905176e+01
3.394418e+02	-2.910225e+01
3.414024e+02	-2.915306e+01
3.433744e+02	-2.919664e+01
3.453577e+02	-2.924918e+01
3.473525e+02	-2.929730e+01
3.493588e+02	-2.935430e+01
3.513766e+02	-2.940136e+01
3.534062e+02	-2.944873e+01
3.554474e+02	-2.950308e+01
3.575005e+02	-2.954661e+01
3.595654e+02	-2.959681e+01
3.616422e+02	-2.965203e+01
3.637311e+02	-2.969964e+01
3.658320e+02	-2.975167e+01
3.679450e+02	-2.979616e+01
3.700702e+02	-2.984837e+01
3.722077e+02	-2.990054e+01
3.743576e+02	-2.994692e+01
3.765199e+02	-3.000436e+01
3.786946e+02	-3.005187e+01
3.808820e+02	-3.010261e+01
3.830819e+02	-3.015312e+01
3.852946e+02	-3.019700e+01
3.875200e+02	-3.024793e+01
3.897583e+02	-3.030268e+01
3.920096e+02	-3.034657e+01
3.942738e+02	-3.040154e+01
3.965511e+02	-3.045153e+01
3.988416e+02	-3.050406e+01
4.011452e+02	-3.055287e+01
4.034622e+02	-3.060054e+01
4.057926e+02	-3.065289e+01
4.081365e+02	-3.070397e+01
4.104938e+02	-3.075643e+01
4.128648e+02	-3.079892e+01
4.152495e+02	-3.085405e+01
4.176480e+02	-3.089952e+01
4.200603e+02	-3.094595e+01
4.224866e+02	-3.100051e+01
4.249268e+02	-3.105394e+01
4.273812e+02	-3.110385e+01
4.298497e+02	-3.115338e+01
4.323325e+02	-3.120852e+01
4.348297e+02	-3.125470e+01
4.373412e+02	-3.130882e+01
4.398673e+02	-3.135229e+01
4.424079e+02	-3.140353e+01
4.449633e+02	-3.145358e+01
4.475334e+02	-3.150291e+01
4.501183e+02	-3.155122e+01
4.527182e+02	-3.160645e+01
4.553330e+02	-3.165842e+01
4.579630e+02	-3.170688e+01
4.606082e+02	-3.175209e+01
4.632687e+02	-3.180639e+01
4.659445e+02	-3.185755e+01
4.686358e+02	-3.190871e+01
4.713426e+02	-3.195179e+01
4.740650e+02	-3.200511e+01
4.768032e+02	-3.205345e+01
4.795572e+02	-3.210320e+01
4.823271e+02	-3.215732e+01
4.851130e+02	-3.221169e+01
4.879150e+02	-3.226332e+01
4.907332e+02	-3.230307e+01
4.935676e+02	-3.236268e+01
4.964185e+02	-3.241451e+01
4.992858e+02	-3.246044e+01
5.021696e+02	-3.251177e+01
5.050701e+02	-3.255885e+01
5.079874e+02	-3.260125e+01
5.109215e+02	-3.265459e+01
5.138726e+02	-3.270851e+01
5.168407e+02	-3.275600e+01
5.198259e+02	-3.281236e+01
5.228284e+02	-3.285229e+01
5.258482e+02	-3.290610e+01
5.288855e+02	-3.296585e+01
5.319403e+02	-3.300830e+01
5.350128e+02	-3.305529e+01
5.381030e+02	-3.311304e+01
5.412111e+02	-3.316312e+01
5.443371e+02	-3.321062e+01
5.474812e+02	-3.326341e+01
5.506434e+02	-3.331529e+01
5.538239e+02	-3.335595e+01
5.570228e+02	-3.341505e+01
5.602401e+02	-3.345778e+01
5.634760e+02	-3.351391e+01
5.667306e+02	-3.356488e+01
5.700040e+02	-3.360810e+01
5.732964e+02	-3.366475e+01
5.766077e+02	-3.371548e+01
5.799382e+02	-3.376102e+01
5.832879e+02	-3.380672e+01
5.866569e+02	-3.385851e+01
5.900454e+02	-3.390711e+01
5.934535e+02	-3.396043e+01
5.968813e+02	-3.401375e+01
6.003288e+02	-3.406462e+01
6.037963e+02	-3.411959e+01
6.072838e+02	-3.416200e+01
6.107914e+02	-3.420925e+01
6.143194e+02	-3.426147e+01
6.178676e+02	-3.431494e+01
6.214364e+02	-3.436780e+01
6.250258e+02	-3.441162e+01
6.286359e+02	-3.447229e+01
6.322669e+02	-3.451438e+01
6.359189e+02	-3.455959e+01
6.395919e+02	-3.461807e+01
6.432862e+02	-3.466792e+01
6.470017e+02	-3.472300e+01
6.507388e+02	-3.477027e+01
6.544974e+02	-3.482719e+01
6.582778e+02	-3.486562e+01
6.620800e+02	-3.492044e+01
6.659041e+02	-3.496700e+01
6.697504e+02	-3.502956e+01
6.736188e+02	-3.506412e+01
6.775096e+02	-3.511390e+01
6.814229e+02	-3.517172e+01
6.853587e+02	-3.522689e+01
6.893173e+02	-3.527574e+01
6.932988e+02	-3.532427e+01
6.973033e+02	-3.537323e+01
7.013309e+02	-3.542937e+01
