Frequency(Hz)	Magnitude(dB)
1.000000e+01	-2.223832e+00
1.005776e+01	-2.243754e+00
1.011585e+01	-2.264312e+00
1.017428e+01	-2.284507e+00
1.023305e+01	-2.305026e+00
1.029215e+01	-2.325625e+00
1.035160e+01	-2.346416e+00
1.041139e+01	-2.367463e+00
1.047153e+01	-2.388505e+00
1.053201e+01	-2.409718e+00
1.059284e+01	-2.431129e+00
1.065403e+01	-2.452635e+00
1.071556e+01	-2.474264e+00
1.077746e+01	-2.496160e+00
1.083971e+01	-2.518150e+00
1.090232e+01	-2.539929e+00
1.096529e+01	-2.562347e+00
1.102862e+01	-2.584697e+00
1.109232e+01	-2.607239e+00
1.115639e+01	-2.630028e+00
1.122083e+01	-2.652908e+00
1.128564e+01	-2.675783e+00
1.135083e+01	-2.698914e+00
1.141639e+01	-2.722065e+00
1.148233e+01	-2.745350e+00
1.154865e+01	-2.768974e+00
1.161536e+01	-2.792663e+00
1.168245e+01	-2.816142e+00
1.174992e+01	-2.840143e+00
1.181779e+01	-2.864496e+00
1.188605e+01	-2.888634e+00
1.195470e+01	-2.912940e+00
1.202375e+01	-2.937568e+00
1.209320e+01	-2.962048e+00
1.216305e+01	-2.986895e+00
1.223330e+01	-3.012121e+00
1.230396e+01	-3.036741e+00
1.237503e+01	-3.062139e+00
1.244651e+01	-3.087557e+00
1.251840e+01	-3.113101e+00
1.259070e+01	-3.138688e+00
1.266343e+01	-3.164434e+00
1.273657e+01	-3.190564e+00
1.281014e+01	-3.216607e+00
1.288413e+01	-3.243066e+00
1.295855e+01	-3.269289e+00
1.303339e+01	-3.295853e+00
1.310867e+01	-3.322537e+00
1.318439e+01	-3.349091e+00
1.326054e+01	-3.376188e+00
1.333713e+01	-3.403414e+00
1.341417e+01	-3.430597e+00
1.349165e+01	-3.458016e+00
1.356958e+01	-3.485550e+00
1.364795e+01	-3.513247e+00
1.372678e+01	-3.541114e+00
1.380607e+01	-3.568949e+00
1.388581e+01	-3.597264e+00
1.396602e+01	-3.625373e+00
1.404668e+01	-3.653803e+00
1.412782e+01	-3.682124e+00
1.420942e+01	-3.711114e+00
1.429149e+01	-3.739572e+00
1.437404e+01	-3.768529e+00
1.445706e+01	-3.797820e+00
1.454057e+01	-3.826951e+00
1.462455e+01	-3.856582e+00
1.470902e+01	-3.885992e+00
1.479398e+01	-3.915387e+00
1.487943e+01	-3.945338e+00
1.496537e+01	-3.975405e+00
1.505181e+01	-4.005317e+00
1.513875e+01	-4.035524e+00
1.522619e+01	-4.065850e+00
1.531414e+01	-4.096200e+00
1.540259e+01	-4.127062e+00
1.549156e+01	-4.157798e+00
1.558103e+01	-4.188400e+00
1.567103e+01	-4.219572e+00
1.576155e+01	-4.250939e+00
1.585258e+01	-4.282289e+00
1.594415e+01	-4.313589e+00
1.603624e+01	-4.344984e+00
1.612886e+01	-4.376979e+00
1.622202e+01	-4.408810e+00
1.631572e+01	-4.440629e+00
1.640996e+01	-4.472318e+00
1.650474e+01	-4.505034e+00
1.660008e+01	-4.537276e+00
1.669596e+01	-4.569670e+00
1.679239e+01	-4.602298e+00
1.688938e+01	-4.634994e+00
1.698694e+01	-4.668064e+00
1.708505e+01	-4.700927e+00
1.718373e+01	-4.734107e+00
1.728299e+01	-4.767128e+00
1.738281e+01	-4.801041e+00
1.748322e+01	-4.834219e+00
1.758420e+01	-4.868063e+00
1.768576e+01	-4.901706e+00
1.778792e+01	-4.935765e+00
1.789066e+01	-4.969865e+00
1.799399e+01	-5.003746e+00
1.809793e+01	-5.038173e+00
1.820246e+01	-5.072340e+00
1.830760e+01	-5.107157e+00
1.841334e+01	-5.141520e+00
1.851969e+01	-5.176468e+00
1.862666e+01	-5.211435e+00
1.873425e+01	-5.246505e+00
1.884246e+01	-5.281497e+00
1.895129e+01	-5.316856e+00
1.906075e+01	-5.352357e+00
1.917085e+01	-5.387648e+00
1.928158e+01	-5.423535e+00
1.939295e+01	-5.459140e+00
1.950496e+01	-5.494866e+00
1.961762e+01	-5.530858e+00
1.973093e+01	-5.567146e+00
1.984490e+01	-5.603168e+00
1.995952e+01	-5.639619e+00
2.007480e+01	-5.676082e+00
2.019076e+01	-5.712379e+00
2.030738e+01	-5.749362e+00
2.042467e+01	-5.785946e+00
2.054264e+01	-5.822959e+00
2.066130e+01	-5.859628e+00
2.078064e+01	-5.896706e+00
2.090066e+01	-5.933956e+00
2.102139e+01	-5.971578e+00
2.114280e+01	-6.008687e+00
2.126492e+01	-6.046272e+00
2.138775e+01	-6.084023e+00
2.151128e+01	-6.121900e+00
2.163553e+01	-6.159568e+00
2.176050e+01	-6.197495e+00
2.188619e+01	-6.235785e+00
2.201260e+01	-6.273706e+00
2.213974e+01	-6.312190e+00
2.226762e+01	-6.350587e+00
2.239624e+01	-6.389205e+00
2.252560e+01	-6.427450e+00
2.265571e+01	-6.466150e+00
2.278656e+01	-6.505141e+00
2.291818e+01	-6.543738e+00
2.305055e+01	-6.583012e+00
2.318369e+01	-6.622126e+00
2.331760e+01	-6.661069e+00
2.345228e+01	-6.700312e+00
2.358774e+01	-6.739650e+00
2.372398e+01	-6.779521e+00
2.386101e+01	-6.818998e+00
2.399883e+01	-6.858576e+00
2.413745e+01	-6.898450e+00
2.427686e+01	-6.938069e+00
2.441709e+01	-6.978036e+00
2.455812e+01	-7.018114e+00
2.469997e+01	-7.058590e+00
2.484263e+01	-7.098283e+00
2.498612e+01	-7.138947e+00
2.513044e+01	-7.179258e+00
2.527559e+01	-7.219932e+00
2.542158e+01	-7.260350e+00
2.556842e+01	-7.301140e+00
2.571610e+01	-7.341599e+00
2.586463e+01	-7.382269e+00
2.601403e+01	-7.423667e+00
2.616428e+01	-7.464310e+00
2.631541e+01	-7.505981e+00
2.646740e+01	-7.546556e+00
2.662028e+01	-7.588112e+00
2.677404e+01	-7.629297e+00
2.692868e+01	-7.670585e+00
2.708422e+01	-7.712207e+00
2.724066e+01	-7.753711e+00
2.739800e+01	-7.795876e+00
2.755625e+01	-7.837279e+00
2.771541e+01	-7.879229e+00
2.787550e+01	-7.921423e+00
2.803650e+01	-7.962872e+00
2.819844e+01	-8.005150e+00
2.836131e+01	-8.047535e+00
2.852513e+01	-8.089647e+00
2.868989e+01	-8.131476e+00
2.885560e+01	-8.174276e+00
2.902227e+01	-8.216843e+00
2.918990e+01	-8.259135e+00
2.935850e+01	-8.302186e+00
2.952807e+01	-8.344533e+00
2.969863e+01	-8.387391e+00
2.987016e+01	-8.430395e+00
3.004269e+01	-8.473093e+00
3.021622e+01	-8.515944e+00
3.039075e+01	-8.558896e+00
3.056628e+01	-8.602287e+00
3.074283e+01	-8.645148e+00
3.092040e+01	-8.688430e+00
3.109900e+01	-8.731250e+00
3.127862e+01	-8.775207e+00
3.145929e+01	-8.818106e+00
3.164099e+01	-8.862040e+00
3.182375e+01	-8.905456e+00
3.200756e+01	-8.948902e+00
3.219244e+01	-8.992434e+00
3.237838e+01	-9.035815e+00
3.256540e+01	-9.080499e+00
3.275349e+01	-9.124220e+00
3.294268e+01	-9.167749e+00
3.313295e+01	-9.211713e+00
3.332433e+01	-9.256389e+00
3.351681e+01	-9.300410e+00
3.371040e+01	-9.344162e+00
3.390511e+01	-9.388843e+00
3.410094e+01	-9.433031e+00
3.429791e+01	-9.477162e+00
3.449601e+01	-9.521864e+00
3.469526e+01	-9.566315e+00
3.489566e+01	-9.610830e+00
3.509721e+01	-9.655416e+00
3.529993e+01	-9.700257e+00
3.550382e+01	-9.744407e+00
3.570889e+01	-9.789211e+00
3.591515e+01	-9.833891e+00
3.612259e+01	-9.879489e+00
3.633123e+01	-9.923824e+00
3.654108e+01	-9.969103e+00
3.675214e+01	-1.001438e+01
3.696442e+01	-1.005922e+01
3.717792e+01	-1.010465e+01
3.739266e+01	-1.014958e+01
3.760864e+01	-1.019416e+01
3.782587e+01	-1.023974e+01
3.804435e+01	-1.028540e+01
3.826409e+01	-1.033057e+01
3.848510e+01	-1.037626e+01
3.870739e+01	-1.042165e+01
3.893096e+01	-1.046699e+01
3.915583e+01	-1.051275e+01
3.938199e+01	-1.055839e+01
3.960946e+01	-1.060379e+01
3.983824e+01	-1.064957e+01
4.006834e+01	-1.069556e+01
4.029978e+01	-1.074117e+01
4.053255e+01	-1.078613e+01
4.076666e+01	-1.083268e+01
4.100213e+01	-1.087869e+01
4.123896e+01	-1.092464e+01
4.147715e+01	-1.097029e+01
4.171672e+01	-1.101616e+01
4.195767e+01	-1.106240e+01
4.220002e+01	-1.110901e+01
4.244377e+01	-1.115438e+01
4.268892e+01	-1.120133e+01
4.293549e+01	-1.124770e+01
4.318348e+01	-1.129405e+01
4.343291e+01	-1.134060e+01
4.368377e+01	-1.138645e+01
4.393609e+01	-1.143280e+01
4.418986e+01	-1.147902e+01
4.444510e+01	-1.152563e+01
4.470182e+01	-1.157245e+01
4.496001e+01	-1.161905e+01
4.521970e+01	-1.166501e+01
4.548089e+01	-1.171227e+01
4.574358e+01	-1.175876e+01
4.600779e+01	-1.180551e+01
4.627353e+01	-1.185241e+01
4.654081e+01	-1.189935e+01
4.680963e+01	-1.194619e+01
4.708000e+01	-1.199230e+01
4.735193e+01	-1.203931e+01
4.762543e+01	-1.208654e+01
4.790051e+01	-1.213321e+01
4.817719e+01	-1.218001e+01
4.845545e+01	-1.222722e+01
4.873533e+01	-1.227494e+01
4.901682e+01	-1.232115e+01
4.929994e+01	-1.236865e+01
4.958470e+01	-1.241556e+01
4.987110e+01	-1.246311e+01
5.015915e+01	-1.251014e+01
5.044887e+01	-1.255761e+01
5.074026e+01	-1.260497e+01
5.103333e+01	-1.265215e+01
5.132810e+01	-1.269908e+01
5.162457e+01	-1.274684e+01
5.192275e+01	-1.279406e+01
5.222265e+01	-1.284130e+01
5.252429e+01	-1.288854e+01
5.282767e+01	-1.293638e+01
5.313280e+01	-1.298392e+01
5.343969e+01	-1.303138e+01
5.374836e+01	-1.307934e+01
5.405880e+01	-1.312712e+01
5.437105e+01	-1.317369e+01
5.468509e+01	-1.322184e+01
5.500095e+01	-1.326971e+01
5.531863e+01	-1.331635e+01
5.563815e+01	-1.336412e+01
5.595951e+01	-1.341283e+01
5.628273e+01	-1.346012e+01
5.660782e+01	-1.350759e+01
5.693479e+01	-1.355552e+01
5.726364e+01	-1.360492e+01
5.759439e+01	-1.365180e+01
5.792705e+01	-1.370015e+01
5.826164e+01	-1.374697e+01
5.859815e+01	-1.379472e+01
5.893662e+01	-1.384353e+01
5.927703e+01	-1.389103e+01
5.961941e+01	-1.393879e+01
5.996377e+01	-1.398720e+01
6.031012e+01	-1.403506e+01
6.065847e+01	-1.408299e+01
6.100883e+01	-1.413097e+01
6.136121e+01	-1.417959e+01
6.171563e+01	-1.422759e+01
6.207210e+01	-1.427621e+01
6.243063e+01	-1.432396e+01
6.279122e+01	-1.437168e+01
6.315390e+01	-1.442031e+01
6.351868e+01	-1.446849e+01
6.388556e+01	-1.451662e+01
6.425456e+01	-1.456577e+01
6.462569e+01	-1.461321e+01
6.499897e+01	-1.466136e+01
6.537440e+01	-1.471074e+01
6.575200e+01	-1.475817e+01
6.613178e+01	-1.480784e+01
6.651375e+01	-1.485639e+01
6.689793e+01	-1.490353e+01
6.728433e+01	-1.495152e+01
6.767297e+01	-1.500065e+01
6.806384e+01	-1.504889e+01
6.845698e+01	-1.509714e+01
6.885238e+01	-1.514608e+01
6.925007e+01	-1.519456e+01
6.965005e+01	-1.524358e+01
7.005235e+01	-1.529137e+01
7.045697e+01	-1.533978e+01
7.086393e+01	-1.538819e+01
7.127323e+01	-1.543746e+01
7.168490e+01	-1.548559e+01
7.209895e+01	-1.553399e+01
7.251539e+01	-1.558296e+01
7.293424e+01	-1.563161e+01
7.335551e+01	-1.568097e+01
7.377920e+01	-1.572900e+01
7.420535e+01	-1.577773e+01
7.463396e+01	-1.582597e+01
7.506504e+01	-1.587546e+01
7.549861e+01	-1.592293e+01
7.593469e+01	-1.597274e+01
7.637328e+01	-1.602084e+01
7.681441e+01	-1.606992e+01
7.725809e+01	-1.611876e+01
7.770433e+01	-1.616869e+01
7.815315e+01	-1.621728e+01
7.860456e+01	-1.626585e+01
7.905857e+01	-1.631376e+01
7.951521e+01	-1.636325e+01
7.997449e+01	-1.641216e+01
8.043642e+01	-1.646086e+01
8.090102e+01	-1.650996e+01
8.136830e+01	-1.655950e+01
8.183828e+01	-1.660853e+01
8.231097e+01	-1.665558e+01
8.278640e+01	-1.670517e+01
8.326457e+01	-1.675520e+01
8.374550e+01	-1.680387e+01
8.422921e+01	-1.685370e+01
8.471572e+01	-1.690042e+01
8.520503e+01	-1.695098e+01
8.569717e+01	-1.699964e+01
8.619215e+01	-1.704758e+01
8.669000e+01	-1.709671e+01
8.719071e+01	-1.714679e+01
8.769432e+01	-1.719632e+01
8.820084e+01	-1.724368e+01
8.871029e+01	-1.729397e+01
8.922267e+01	-1.734263e+01
8.973802e+01	-1.739207e+01
9.025634e+01	-1.744110e+01
9.077766e+01	-1.749055e+01
9.130199e+01	-1.753966e+01
9.182935e+01	-1.758859e+01
9.235975e+01	-1.763749e+01
9.289321e+01	-1.768719e+01
9.342976e+01	-1.773623e+01
9.396941e+01	-1.778598e+01
9.451217e+01	-1.783355e+01
9.505807e+01	-1.788362e+01
9.560712e+01	-1.793238e+01
9.615934e+01	-1.798247e+01
9.671476e+01	-1.803112e+01
9.727338e+01	-1.808086e+01
9.783522e+01	-1.812969e+01
9.840032e+01	-1.817906e+01
9.896867e+01	-1.822932e+01
9.954031e+01	-1.827805e+01
1.001153e+02	-1.832594e+01
1.006935e+02	-1.837646e+01
1.012751e+02	-1.842573e+01
1.018601e+02	-1.847425e+01
1.024484e+02	-1.852664e+01
1.030402e+02	-1.857420e+01
1.036353e+02	-1.862288e+01
1.042339e+02	-1.867122e+01
1.048360e+02	-1.872079e+01
1.054415e+02	-1.877201e+01
1.060505e+02	-1.882021e+01
1.066631e+02	-1.887063e+01
1.072791e+02	-1.891947e+01
1.078988e+02	-1.896919e+01
1.085220e+02	-1.901761e+01
1.091488e+02	-1.906826e+01
1.097793e+02	-1.911761e+01
1.104133e+02	-1.916596e+01
1.110511e+02	-1.921466e+01
1.116925e+02	-1.926623e+01
1.123376e+02	-1.931527e+01
1.129865e+02	-1.936447e+01
1.136391e+02	-1.941398e+01
1.142955e+02	-1.946504e+01
1.149556e+02	-1.951302e+01
1.156196e+02	-1.956234e+01
1.162874e+02	-1.961201e+01
1.169591e+02	-1.966221e+01
1.176347e+02	-1.971082e+01
1.183141e+02	-1.976179e+01
1.189975e+02	-1.981059e+01
1.196848e+02	-1.985812e+01
1.203761e+02	-1.990718e+01
1.210714e+02	-1.995939e+01
1.217707e+02	-2.000766e+01
1.224740e+02	-2.005730e+01
1.231814e+02	-2.010706e+01
1.238929e+02	-2.015699e+01
1.246085e+02	-2.020582e+01
1.253283e+02	-2.025669e+01
1.260522e+02	-2.030508e+01
1.267802e+02	-2.035326e+01
1.275125e+02	-2.040433e+01
1.282490e+02	-2.045291e+01
1.289898e+02	-2.050429e+01
1.297348e+02	-2.055300e+01
1.304842e+02	-2.060271e+01
1.312378e+02	-2.065269e+01
1.319959e+02	-2.070198e+01
1.327583e+02	-2.075099e+01
1.335251e+02	-2.080093e+01
1.342963e+02	-2.085116e+01
1.350720e+02	-2.090013e+01
1.358522e+02	-2.095017e+01
1.366368e+02	-2.099981e+01
1.374260e+02	-2.104992e+01
1.382198e+02	-2.110012e+01
1.390182e+02	-2.114849e+01
1.398211e+02	-2.119717e+01
1.406287e+02	-2.124849e+01
1.414410e+02	-2.129750e+01
1.422579e+02	-2.134832e+01
1.430796e+02	-2.139685e+01
1.439060e+02	-2.144571e+01
1.447372e+02	-2.149664e+01
1.455732e+02	-2.154641e+01
1.464141e+02	-2.159616e+01
1.472597e+02	-2.164677e+01
1.481103e+02	-2.169450e+01
1.489658e+02	-2.174469e+01
1.498262e+02	-2.179489e+01
1.506916e+02	-2.184563e+01
1.515620e+02	-2.189377e+01
1.524374e+02	-2.194433e+01
1.533179e+02	-2.199169e+01
1.542034e+02	-2.204233e+01
1.550941e+02	-2.209236e+01
1.559899e+02	-2.214259e+01
1.568909e+02	-2.219340e+01
1.577971e+02	-2.224415e+01
1.587085e+02	-2.229169e+01
1.596252e+02	-2.234244e+01
1.605472e+02	-2.239186e+01
1.614745e+02	-2.244096e+01
1.624072e+02	-2.249184e+01
1.633453e+02	-2.254205e+01
1.642887e+02	-2.258934e+01
1.652377e+02	-2.264021e+01
1.661921e+02	-2.269011e+01
1.671520e+02	-2.274161e+01
1.681175e+02	-2.279008e+01
1.690885e+02	-2.284020e+01
1.700651e+02	-2.288897e+01
1.710474e+02	-2.294137e+01
1.720354e+02	-2.299044e+01
1.730291e+02	-2.303587e+01
1.740285e+02	-2.308798e+01
1.750337e+02	-2.313818e+01
1.760446e+02	-2.318599e+01
1.770615e+02	-2.324004e+01
1.780842e+02	-2.328844e+01
1.791128e+02	-2.333813e+01
1.801473e+02	-2.338835e+01
1.811878e+02	-2.343551e+01
1.822344e+02	-2.348578e+01
1.832870e+02	-2.353720e+01
1.843456e+02	-2.358620e+01
1.854104e+02	-2.363442e+01
1.864813e+02	-2.368537e+01
1.875584e+02	-2.373780e+01
1.886418e+02	-2.378481e+01
1.897313e+02	-2.383360e+01
1.908272e+02	-2.388704e+01
1.919294e+02	-2.393685e+01
1.930380e+02	-2.398607e+01
1.941530e+02	-2.403489e+01
1.952744e+02	-2.408526e+01
1.964023e+02	-2.413490e+01
1.975367e+02	-2.418468e+01
1.986777e+02	-2.423398e+01
1.998252e+02	-2.428392e+01
2.009794e+02	-2.433305e+01
2.021403e+02	-2.438464e+01
2.033078e+02	-2.443358e+01
2.044821e+02	-2.448617e+01
2.056632e+02	-2.453148e+01
2.068511e+02	-2.458549e+01
2.080459e+02	-2.463382e+01
2.092475e+02	-2.468250e+01
2.104561e+02	-2.473197e+01
2.116717e+02	-2.478422e+01
2.128943e+02	-2.483380e+01
2.141240e+02	-2.488415e+01
2.153608e+02	-2.493276e+01
2.166047e+02	-2.498323e+01
2.178558e+02	-2.503307e+01
2.191141e+02	-2.508233e+01
2.203797e+02	-2.513429e+01
2.216526e+02	-2.518245e+01
2.229329e+02	-2.523011e+01
2.242205e+02	-2.528580e+01
2.255156e+02	-2.533128e+01
2.268182e+02	-2.538093e+01
2.281283e+02	-2.543043e+01
2.294459e+02	-2.548120e+01
2.307712e+02	-2.553192e+01
2.321041e+02	-2.558153e+01
2.334447e+02	-2.563372e+01
2.347931e+02	-2.568124e+01
2.361493e+02	-2.573304e+01
2.375133e+02	-2.578241e+01
2.388851e+02	-2.583296e+01
2.402649e+02	-2.588061e+01
2.416527e+02	-2.593269e+01
2.430484e+02	-2.598219e+01
2.444523e+02	-2.603126e+01
2.458642e+02	-2.608129e+01
2.472843e+02	-2.613134e+01
2.487126e+02	-2.618360e+01
2.501492e+02	-2.623280e+01
2.515940e+02	-2.628088e+01
2.530472e+02	-2.632855e+01
2.545088e+02	-2.638173e+01
2.559789e+02	-2.642638e+01
2.574574e+02	-2.648136e+01
2.589444e+02	-2.653224e+01
2.604401e+02	-2.657921e+01
2.619444e+02	-2.663409e+01
2.634574e+02	-2.668593e+01
2.649791e+02	-2.673094e+01
2.665096e+02	-2.677859e+01
2.680489e+02	-2.683216e+01
2.695972e+02	-2.687677e+01
2.711544e+02	-2.693362e+01
2.727205e+02	-2.698044e+01
2.742958e+02	-2.703435e+01
2.758801e+02	-2.707853e+01
2.774736e+02	-2.713294e+01
2.790762e+02	-2.718346e+01
2.806882e+02	-2.723191e+01
2.823094e+02	-2.727891e+01
2.839400e+02	-2.733187e+01
2.855800e+02	-2.738172e+01
2.872295e+02	-2.742972e+01
2.888886e+02	-2.747863e+01
2.905572e+02	-2.753472e+01
2.922354e+02	-2.757895e+01
2.939234e+02	-2.763161e+01
2.956211e+02	-2.767927e+01
2.973286e+02	-2.773266e+01
2.990459e+02	-2.778120e+01
3.007732e+02	-2.782872e+01
3.025104e+02	-2.788134e+01
3.042577e+02	-2.793189e+01
3.060151e+02	-2.798052e+01
3.077826e+02	-2.803034e+01
3.095604e+02	-2.808208e+01
3.113484e+02	-2.813067e+01
3.131467e+02	-2.818437e+01
3.149554e+02	-2.822815e+01
3.167746e+02	-2.827924e+01
3.186043e+02	-2.833201e+01
3.204445e+02	-2.838329e+01
3.222954e+02	-2.842892e+01
3.241570e+02	-2.848304e+01
3.260293e+02	-2.853106e+01
3.279124e+02	-2.857715e+01
3.298064e+02	-2.862977e+01
3.317114e+02	-2.868368e+01
3.336273e+02	-2.872826e+01
3.355544e+02	-2.878402e+01
3.374925e+02	-2.883214e+01
3.394418e+02	-2.888450e+01
3.414024e+02	-2.893168e+01
3.433744e+02	-2.898512e+01
3.453577e+02	-2.903316e+01
3.473525e+02	-2.908048e+01
3.493588e+02	-2.913277e+01
3.513766e+02	-2.918074e+01
3.534062e+02	-2.923385e+01
3.554474e+02	-2.927999e+01
3.575005e+02	-2.933025e+01
3.595654e+02	-2.938341e+01
3.616422e+02	-2.943332e+01
3.637311e+02	-2.948083e+01
3.658320e+02	-2.953181e+01
3.679450e+02	-2.957841e+01
3.700702e+02	-2.963113e+01
3.722077e+02	-2.968359e+01
3.743576e+02	-2.972936e+01
3.765199e+02	-2.978633e+01
3.786946e+02	-2.982867e+01
3.808820e+02	-2.988064e+01
3.830819e+02	-2.993611e+01
3.852946e+02	-2.998379e+01
3.875200e+02	-3.003181e+01
3.897583e+02	-3.008060e+01
3.920096e+02	-3.013409e+01
3.942738e+02	-3.018569e+01
3.965511e+02	-3.023355e+01
3.988416e+02	-3.028386e+01
4.011452e+02	-3.033361e+01
4.034622e+02	-3.038118e+01
4.057926e+02	-3.043448e+01
4.081365e+02	-3.048350e+01
4.104938e+02	-3.053428e+01
4.128648e+02	-3.058481e+01
4.152495e+02	-3.063520e+01
4.176480e+02	-3.068429e+01
4.200603e+02	-3.073281e+01
4.224866e+02	-3.078088e+01
4.249268e+02	-3.083550e+01
4.273812e+02	-3.088730e+01
4.298497e+02	-3.093682e+01
4.323325e+02	-3.098140e+01
4.348297e+02	-3.103911e+01
4.373412e+02	-3.108999e+01
4.398673e+02	-3.113663e+01
4.424079e+02	-3.118575e+01
4.449633e+02	-3.123947e+01
4.475334e+02	-3.128257e+01
4.501183e+02	-3.133767e+01
4.527182e+02	-3.138479e+01
4.553330e+02	-3.144420e+01
4.579630e+02	-3.148969e+01
4.606082e+02	-3.154022e+01
4.632687e+02	-3.158527e+01
4.659445e+02	-3.163815e+01
4.686358e+02	-3.168929e+01
4.713426e+02	-3.173326e+01
4.740650e+02	-3.179376e+01
4.768032e+02	-3.183822e+01
4.795572e+02	-3.188813e+01
4.823271e+02	-3.193641e+01
4.851130e+02	-3.198811e+01
4.879150e+02	-3.203486e+01
4.907332e+02	-3.208689e+01
4.935676e+02	-3.214330e+01
4.964185e+02	-3.219422e+01
4.992858e+02	-3.223693e+01
5.021696e+02	-3.228623e+01
5.050701e+02	-3.233881e+01
5.079874e+02	-3.239517e+01
5.109215e+02	-3.243851e+01
5.138726e+02	-3.249768e+01
5.168407e+02	-3.254486e+01
5.198259e+02	-3.258726e+01
5.228284e+02	-3.263872e+01
5.258482e+02	-3.269254e+01
5.288855e+02	-3.274541e+01
5.319403e+02	-3.279249e+01
5.350128e+02	-3.283955e+01
5.381030e+02	-3.289504e+01
5.412111e+02	-3.294862e+01
5.443371e+02	-3.299192e+01
5.474812e+02	-3.304686e+01
5.506434e+02	-3.308860e+01
5.538239e+02	-3.314503e+01
5.570228e+02	-3.319519e+01
5.602401e+02	-3.324362e+01
5.634760e+02	-3.329372e+01
5.667306e+02	-3.335129e+01
5.700040e+02	-3.340240e+01
5.732964e+02	-3.345225e+01
5.766077e+02	-3.349080e+01
5.799382e+02	-3.355202e+01
5.832879e+02	-3.359207e+01
5.866569e+02	-3.365355e+01
5.900454e+02	-3.370053e+01
5.934535e+02	-3.375001e+01
5.968813e+02	-3.379642e+01
6.003288e+02	-3.384660e+01
6.037963e+02	-3.390821e+01
6.072838e+02	-3.394734e+01
6.107914e+02	-3.400364e+01
6.143194e+02	-3.405283e+01
6.178676e+02	-3.409789e+01
6.214364e+02	-3.416188e+01
6.250258e+02	-3.419734e+01
6.286359e+02	-3.425077e+01
6.322669e+02	-3.429690e+01
6.359189e+02	-3.434559e+01
6.395919e+02	-3.439598e+01
6.432862e+02	-3.445027e+01
6.470017e+02	-3.449676e+01
6.507388e+02	-3.455441e+01
6.544974e+02	-3.460901e+01
6.582778e+02	-3.464982e+01
6.620800e+02	-3.470622e+01
6.659041e+02	-3.475736e+01
6.697504e+02	-3.479995e+01
6.736188e+02	-3.485818e+01
6.775096e+02	-3.490999e+01
6.814229e+02	-3.495900e+01
6.853587e+02	-3.500536e+01
6.893173e+02	-3.505225e+01
6.932988e+02	-3.510862e+01
6.973033e+02	-3.515872e+01
7.013309e+02	-3.520870e+01
