Frequency(Hz)	Magnitude(dB)
1.000000e+01	-2.071713e+00
1.005776e+01	-2.090716e+00
1.011585e+01	-2.110027e+00
1.017428e+01	-2.129240e+00
1.023305e+01	-2.148682e+00
1.029215e+01	-2.168328e+00
1.035160e+01	-2.188169e+00
1.041139e+01	-2.207892e+00
1.047153e+01	-2.228077e+00
1.053201e+01	-2.248054e+00
1.059284e+01	-2.268182e+00
1.065403e+01	-2.288800e+00
1.071556e+01	-2.309496e+00
1.077746e+01	-2.330073e+00
1.083971e+01	-2.351086e+00
1.090232e+01	-2.371781e+00
1.096529e+01	-2.393010e+00
1.102862e+01	-2.414191e+00
1.109232e+01	-2.435542e+00
1.115639e+01	-2.457337e+00
1.122083e+01	-2.478861e+00
1.128564e+01	-2.500530e+00
1.135083e+01	-2.522663e+00
1.141639e+01	-2.544807e+00
1.148233e+01	-2.567048e+00
1.154865e+01	-2.589443e+00
1.161536e+01	-2.611918e+00
1.168245e+01	-2.634599e+00
1.174992e+01	-2.657485e+00
1.181779e+01	-2.680528e+00
1.188605e+01	-2.703398e+00
1.195470e+01	-2.726688e+00
1.202375e+01	-2.750231e+00
1.209320e+01	-2.773824e+00
1.216305e+01	-2.797291e+00
1.223330e+01	-2.821229e+00
1.230396e+01	-2.845320e+00
1.237503e+01	-2.869554e+00
1.244651e+01	-2.893466e+00
1.251840e+01	-2.918017e+00
1.259070e+01	-2.942539e+00
1.266343e+01	-2.967376e+00
1.273657e+01	-2.992163e+00
1.281014e+01	-3.016800e+00
1.288413e+01	-3.042118e+00
1.295855e+01	-3.067585e+00
1.303339e+01	-3.093019e+00
1.310867e+01	-3.118223e+00
1.318439e+01	-3.144031e+00
1.326054e+01	-3.169934e+00
1.333713e+01	-3.196071e+00
1.341417e+01	-3.222074e+00
1.349165e+01	-3.248365e+00
1.356958e+01	-3.274813e+00
1.364795e+01	-3.301176e+00
1.372678e+01	-3.328173e+00
1.380607e+01	-3.355198e+00
1.388581e+01	-3.381887e+00
1.396602e+01	-3.409004e+00
1.404668e+01	-3.436294e+00
1.412782e+01	-3.464014e+00
1.420942e+01	-3.491179e+00
1.429149e+01	-3.518929e+00
1.437404e+01	-3.546726e+00
1.445706e+01	-3.574797e+00
1.454057e+01	-3.603006e+00
1.462455e+01	-3.631433e+00
1.470902e+01	-3.659878e+00
1.479398e+01	-3.688342e+00
1.487943e+01	-3.717019e+00
1.496537e+01	-3.745678e+00
1.505181e+01	-3.774672e+00
1.513875e+01	-3.803984e+00
1.522619e+01	-3.833132e+00
1.531414e+01	-3.862480e+00
1.540259e+01	-3.891991e+00
1.549156e+01	-3.921852e+00
1.558103e+01	-3.951614e+00
1.567103e+01	-3.981703e+00
1.576155e+01	-4.011646e+00
1.585258e+01	-4.041860e+00
1.594415e+01	-4.072100e+00
1.603624e+01	-4.102601e+00
1.612886e+01	-4.133457e+00
1.622202e+01	-4.163947e+00
1.631572e+01	-4.194969e+00
1.640996e+01	-4.226028e+00
1.650474e+01	-4.257294e+00
1.660008e+01	-4.288712e+00
1.669596e+01	-4.320033e+00
1.679239e+01	-4.351620e+00
1.688938e+01	-4.383326e+00
1.698694e+01	-4.415239e+00
1.708505e+01	-4.447306e+00
1.718373e+01	-4.479279e+00
1.728299e+01	-4.511548e+00
1.738281e+01	-4.544129e+00
1.748322e+01	-4.576570e+00
1.758420e+01	-4.609399e+00
1.768576e+01	-4.641988e+00
1.778792e+01	-4.675075e+00
1.789066e+01	-4.707801e+00
1.799399e+01	-4.740983e+00
1.809793e+01	-4.774402e+00
1.820246e+01	-4.807716e+00
1.830760e+01	-4.841587e+00
1.841334e+01	-4.874951e+00
1.851969e+01	-4.908906e+00
1.862666e+01	-4.942573e+00
1.873425e+01	-4.976884e+00
1.884246e+01	-5.010994e+00
1.895129e+01	-5.045616e+00
1.906075e+01	-5.079644e+00
1.917085e+01	-5.114442e+00
1.928158e+01	-5.148791e+00
1.939295e+01	-5.183952e+00
1.950496e+01	-5.218402e+00
1.961762e+01	-5.253758e+00
1.973093e+01	-5.288942e+00
1.984490e+01	-5.324120e+00
1.995952e+01	-5.359534e+00
2.007480e+01	-5.395136e+00
2.019076e+01	-5.431185e+00
2.030738e+01	-5.466812e+00
2.042467e+01	-5.502398e+00
2.054264e+01	-5.538504e+00
2.066130e+01	-5.574387e+00
2.078064e+01	-5.610461e+00
2.090066e+01	-5.646898e+00
2.102139e+01	-5.683578e+00
2.114280e+01	-5.720458e+00
2.126492e+01	-5.757036e+00
2.138775e+01	-5.793764e+00
2.151128e+01	-5.830324e+00
2.163553e+01	-5.867593e+00
2.176050e+01	-5.904409e+00
2.188619e+01	-5.941547e+00
2.201260e+01	-5.979300e+00
2.213974e+01	-6.016484e+00
2.226762e+01	-6.054248e+00
2.239624e+01	-6.092038e+00
2.252560e+01	-6.129720e+00
2.265571e+01	-6.167505e+00
2.278656e+01	-6.205233e+00
2.291818e+01	-6.243610e+00
2.305055e+01	-6.282050e+00
2.318369e+01	-6.320011e+00
2.331760e+01	-6.358186e+00
2.345228e+01	-6.397172e+00
2.358774e+01	-6.435821e+00
2.372398e+01	-6.474275e+00
2.386101e+01	-6.512726e+00
2.399883e+01	-6.551820e+00
2.413745e+01	-6.590826e+00
2.427686e+01	-6.630510e+00
2.441709e+01	-6.669400e+00
2.455812e+01	-6.708639e+00
2.469997e+01	-6.747999e+00
2.484263e+01	-6.787848e+00
2.498612e+01	-6.827043e+00
2.513044e+01	-6.866785e+00
2.527559e+01	-6.906573e+00
2.542158e+01	-6.946603e+00
2.556842e+01	-6.986484e+00
2.571610e+01	-7.026563e+00
2.586463e+01	-7.066722e+00
2.601403e+01	-7.106813e+00
2.616428e+01	-7.146884e+00
2.631541e+01	-7.187655e+00
2.646740e+01	-7.228278e+00
2.662028e+01	-7.268508e+00
2.677404e+01	-7.309526e+00
2.692868e+01	-7.350157e+00
2.708422e+01	-7.390839e+00
2.724066e+01	-7.431891e+00
2.739800e+01	-7.473218e+00
2.755625e+01	-7.514314e+00
2.771541e+01	-7.555601e+00
2.787550e+01	-7.596881e+00
2.803650e+01	-7.637883e+00
2.819844e+01	-7.679699e+00
2.836131e+01	-7.721201e+00
2.852513e+01	-7.762485e+00
2.868989e+01	-7.804416e+00
2.885560e+01	-7.845963e+00
2.902227e+01	-7.888104e+00
2.918990e+01	-7.929474e+00
2.935850e+01	-7.971680e+00
2.952807e+01	-8.013864e+00
2.969863e+01	-8.056127e+00
2.987016e+01	-8.098367e+00
3.004269e+01	-8.140657e+00
3.021622e+01	-8.183330e+00
3.039075e+01	-8.225725e+00
3.056628e+01	-8.268282e+00
3.074283e+01	-8.310736e+00
3.092040e+01	-8.353386e+00
3.109900e+01	-8.395833e+00
3.127862e+01	-8.438977e+00
3.145929e+01	-8.481883e+00
3.164099e+01	-8.524630e+00
3.182375e+01	-8.567547e+00
3.200756e+01	-8.610759e+00
3.219244e+01	-8.654304e+00
3.237838e+01	-8.697088e+00
3.256540e+01	-8.740528e+00
3.275349e+01	-8.783350e+00
3.294268e+01	-8.826787e+00
3.313295e+01	-8.870670e+00
3.332433e+01	-8.914975e+00
3.351681e+01	-8.957774e+00
3.371040e+01	-9.002059e+00
3.390511e+01	-9.045737e+00
3.410094e+01	-9.089766e+00
3.429791e+01	-9.133284e+00
3.449601e+01	-9.177519e+00
3.469526e+01	-9.221327e+00
3.489566e+01	-9.265138e+00
3.509721e+01	-9.309574e+00
3.529993e+01	-9.353118e+00
3.550382e+01	-9.397573e+00
3.570889e+01	-9.442039e+00
3.591515e+01	-9.486681e+00
3.612259e+01	-9.531672e+00
3.633123e+01	-9.575429e+00
3.654108e+01	-9.620471e+00
3.675214e+01	-9.664888e+00
3.696442e+01	-9.709656e+00
3.717792e+01	-9.754319e+00
3.739266e+01	-9.799044e+00
3.760864e+01	-9.844178e+00
3.782587e+01	-9.888426e+00
3.804435e+01	-9.933036e+00
3.826409e+01	-9.978178e+00
3.848510e+01	-1.002362e+01
3.870739e+01	-1.006883e+01
3.893096e+01	-1.011377e+01
3.915583e+01	-1.015914e+01
3.938199e+01	-1.020373e+01
3.960946e+01	-1.024910e+01
3.983824e+01	-1.029468e+01
4.006834e+01	-1.033987e+01
4.029978e+01	-1.038511e+01
4.053255e+01	-1.043095e+01
4.076666e+01	-1.047609e+01
4.100213e+01	-1.052250e+01
4.123896e+01	-1.056801e+01
4.147715e+01	-1.061355e+01
4.171672e+01	-1.065898e+01
4.195767e+01	-1.070458e+01
4.220002e+01	-1.075058e+01
4.244377e+01	-1.079681e+01
4.268892e+01	-1.084244e+01
4.293549e+01	-1.088795e+01
4.318348e+01	-1.093328e+01
4.343291e+01	-1.098071e+01
4.368377e+01	-1.102591e+01
4.393609e+01	-1.107219e+01
4.418986e+01	-1.111822e+01
4.444510e+01	-1.116453e+01
4.470182e+01	-1.121116e+01
4.496001e+01	-1.125713e+01
4.521970e+01	-1.130300e+01
4.548089e+01	-1.134978e+01
4.574358e+01	-1.139586e+01
4.600779e+01	-1.144248e+01
4.627353e+01	-1.148917e+01
4.654081e+01	-1.153589e+01
4.680963e+01	-1.158168e+01
4.708000e+01	-1.162859e+01
4.735193e+01	-1.167517e+01
4.762543e+01	-1.172256e+01
4.790051e+01	-1.176841e+01
4.817719e+01	-1.181472e+01
4.845545e+01	-1.186195e+01
4.873533e+01	-1.190855e+01
4.901682e+01	-1.195547e+01
4.929994e+01	-1.200221e+01
4.958470e+01	-1.204913e+01
4.987110e+01	-1.209635e+01
5.015915e+01	-1.214302e+01
5.044887e+01	-1.219019e+01
5.074026e+01	-1.223714e+01
5.103333e+01	-1.228417e+01
5.132810e+01	-1.233079e+01
5.162457e+01	-1.237840e+01
5.192275e+01	-1.242567e+01
5.222265e+01	-1.247284e+01
5.252429e+01	-1.252047e+01
5.282767e+01	-1.256734e+01
5.313280e+01	-1.261439e+01
5.343969e+01	-1.266188e+01
5.374836e+01	-1.270968e+01
5.405880e+01	-1.275571e+01
5.437105e+01	-1.280372e+01
5.468509e+01	-1.285091e+01
5.500095e+01	-1.289814e+01
5.531863e+01	-1.294599e+01
5.563815e+01	-1.299373e+01
5.595951e+01	-1.304095e+01
5.628273e+01	-1.308901e+01
5.660782e+01	-1.313600e+01
5.693479e+01	-1.318426e+01
5.726364e+01	-1.323209e+01
5.759439e+01	-1.327957e+01
5.792705e+01	-1.332647e+01
5.826164e+01	-1.337481e+01
5.859815e+01	-1.342224e+01
5.893662e+01	-1.347129e+01
5.927703e+01	-1.351778e+01
5.961941e+01	-1.356586e+01
5.996377e+01	-1.361432e+01
6.031012e+01	-1.366139e+01
6.065847e+01	-1.370988e+01
6.100883e+01	-1.375678e+01
6.136121e+01	-1.380529e+01
6.171563e+01	-1.385247e+01
6.207210e+01	-1.390039e+01
6.243063e+01	-1.394971e+01
6.279122e+01	-1.399768e+01
6.315390e+01	-1.404508e+01
6.351868e+01	-1.409406e+01
6.388556e+01	-1.414090e+01
6.425456e+01	-1.418930e+01
6.462569e+01	-1.423760e+01
6.499897e+01	-1.428609e+01
6.537440e+01	-1.433430e+01
6.575200e+01	-1.438281e+01
6.613178e+01	-1.443050e+01
6.651375e+01	-1.447864e+01
6.689793e+01	-1.452695e+01
6.728433e+01	-1.457472e+01
6.767297e+01	-1.462309e+01
6.806384e+01	-1.467157e+01
6.845698e+01	-1.472055e+01
6.885238e+01	-1.476861e+01
6.925007e+01	-1.481680e+01
6.965005e+01	-1.486464e+01
7.005235e+01	-1.491369e+01
7.045697e+01	-1.496203e+01
7.086393e+01	-1.501048e+01
7.127323e+01	-1.505872e+01
7.168490e+01	-1.510719e+01
7.209895e+01	-1.515560e+01
7.251539e+01	-1.520448e+01
7.293424e+01	-1.525284e+01
7.335551e+01	-1.530192e+01
7.377920e+01	-1.535036e+01
7.420535e+01	-1.539879e+01
7.463396e+01	-1.544648e+01
7.506504e+01	-1.549569e+01
7.549861e+01	-1.554441e+01
7.593469e+01	-1.559295e+01
7.637328e+01	-1.564184e+01
7.681441e+01	-1.569057e+01
7.725809e+01	-1.573883e+01
7.770433e+01	-1.578720e+01
7.815315e+01	-1.583679e+01
7.860456e+01	-1.588495e+01
7.905857e+01	-1.593487e+01
7.951521e+01	-1.598235e+01
7.997449e+01	-1.603056e+01
8.043642e+01	-1.607992e+01
8.090102e+01	-1.612820e+01
8.136830e+01	-1.617813e+01
8.183828e+01	-1.622603e+01
8.231097e+01	-1.627578e+01
8.278640e+01	-1.632451e+01
8.326457e+01	-1.637281e+01
8.374550e+01	-1.642245e+01
8.422921e+01	-1.647165e+01
8.471572e+01	-1.652089e+01
8.520503e+01	-1.656862e+01
8.569717e+01	-1.661841e+01
8.619215e+01	-1.666627e+01
8.669000e+01	-1.671639e+01
8.719071e+01	-1.676498e+01
8.769432e+01	-1.681413e+01
8.820084e+01	-1.686295e+01
8.871029e+01	-1.691270e+01
8.922267e+01	-1.696049e+01
8.973802e+01	-1.701037e+01
9.025634e+01	-1.705822e+01
9.077766e+01	-1.710807e+01
9.130199e+01	-1.715764e+01
9.182935e+01	-1.720681e+01
9.235975e+01	-1.725595e+01
9.289321e+01	-1.730378e+01
9.342976e+01	-1.735297e+01
9.396941e+01	-1.740180e+01
9.451217e+01	-1.745179e+01
9.505807e+01	-1.750102e+01
9.560712e+01	-1.754912e+01
9.615934e+01	-1.759934e+01
9.671476e+01	-1.764739e+01
9.727338e+01	-1.769811e+01
9.783522e+01	-1.774700e+01
9.840032e+01	-1.779536e+01
9.896867e+01	-1.784555e+01
9.954031e+01	-1.789378e+01
1.001153e+02	-1.794353e+01
1.006935e+02	-1.799380e+01
1.012751e+02	-1.804226e+01
1.018601e+02	-1.809089e+01
1.024484e+02	-1.813975e+01
1.030402e+02	-1.818890e+01
1.036353e+02	-1.823921e+01
1.042339e+02	-1.828916e+01
1.048360e+02	-1.833684e+01
1.054415e+02	-1.838773e+01
1.060505e+02	-1.843700e+01
1.066631e+02	-1.848594e+01
1.072791e+02	-1.853596e+01
1.078988e+02	-1.858486e+01
1.085220e+02	-1.863262e+01
1.091488e+02	-1.868278e+01
1.097793e+02	-1.873255e+01
1.104133e+02	-1.878133e+01
1.110511e+02	-1.882953e+01
1.116925e+02	-1.887967e+01
1.123376e+02	-1.892988e+01
1.129865e+02	-1.897940e+01
1.136391e+02	-1.902995e+01
1.142955e+02	-1.907766e+01
1.149556e+02	-1.912763e+01
1.156196e+02	-1.917698e+01
1.162874e+02	-1.922797e+01
1.169591e+02	-1.927642e+01
1.176347e+02	-1.932535e+01
1.183141e+02	-1.937326e+01
1.189975e+02	-1.942300e+01
1.196848e+02	-1.947357e+01
1.203761e+02	-1.952242e+01
1.210714e+02	-1.957336e+01
1.217707e+02	-1.962179e+01
1.224740e+02	-1.967237e+01
1.231814e+02	-1.972122e+01
1.238929e+02	-1.977105e+01
1.246085e+02	-1.981893e+01
1.253283e+02	-1.986819e+01
1.260522e+02	-1.991837e+01
1.267802e+02	-1.996826e+01
1.275125e+02	-2.001844e+01
1.282490e+02	-2.006580e+01
1.289898e+02	-2.011789e+01
1.297348e+02	-2.016572e+01
1.304842e+02	-2.021569e+01
1.312378e+02	-2.026557e+01
1.319959e+02	-2.031582e+01
1.327583e+02	-2.036345e+01
1.335251e+02	-2.041454e+01
1.342963e+02	-2.046410e+01
1.350720e+02	-2.051594e+01
1.358522e+02	-2.056265e+01
1.366368e+02	-2.061369e+01
1.374260e+02	-2.066293e+01
1.382198e+02	-2.071337e+01
1.390182e+02	-2.076271e+01
1.398211e+02	-2.081020e+01
1.406287e+02	-2.086242e+01
1.414410e+02	-2.091087e+01
1.422579e+02	-2.096031e+01
1.430796e+02	-2.101192e+01
1.439060e+02	-2.105861e+01
1.447372e+02	-2.111041e+01
1.455732e+02	-2.115933e+01
1.464141e+02	-2.120821e+01
1.472597e+02	-2.125927e+01
1.481103e+02	-2.130840e+01
1.489658e+02	-2.135655e+01
1.498262e+02	-2.140617e+01
1.506916e+02	-2.145655e+01
1.515620e+02	-2.150664e+01
1.524374e+02	-2.155448e+01
1.533179e+02	-2.160730e+01
1.542034e+02	-2.165662e+01
1.550941e+02	-2.170418e+01
1.559899e+02	-2.175462e+01
1.568909e+02	-2.180283e+01
1.577971e+02	-2.185408e+01
1.587085e+02	-2.190592e+01
1.596252e+02	-2.195387e+01
1.605472e+02	-2.200363e+01
1.614745e+02	-2.205162e+01
1.624072e+02	-2.210327e+01
1.633453e+02	-2.215148e+01
1.642887e+02	-2.220248e+01
1.652377e+02	-2.225242e+01
1.661921e+02	-2.230260e+01
1.671520e+02	-2.235229e+01
1.681175e+02	-2.240068e+01
1.690885e+02	-2.245139e+01
1.700651e+02	-2.250105e+01
1.710474e+02	-2.255394e+01
1.720354e+02	-2.260131e+01
1.730291e+02	-2.264983e+01
1.740285e+02	-2.270199e+01
1.750337e+02	-2.274879e+01
1.760446e+02	-2.279997e+01
1.770615e+02	-2.284845e+01
1.780842e+02	-2.289946e+01
1.791128e+02	-2.294647e+01
1.801473e+02	-2.299917e+01
1.811878e+02	-2.304883e+01
1.822344e+02	-2.309657e+01
1.832870e+02	-2.314573e+01
1.843456e+02	-2.319634e+01
1.854104e+02	-2.324866e+01
1.864813e+02	-2.329870e+01
1.875584e+02	-2.334888e+01
1.886418e+02	-2.339734e+01
1.897313e+02	-2.344796e+01
1.908272e+02	-2.349985e+01
1.919294e+02	-2.354628e+01
1.930380e+02	-2.359725e+01
1.941530e+02	-2.364599e+01
1.952744e+02	-2.369807e+01
1.964023e+02	-2.374530e+01
1.975367e+02	-2.379772e+01
1.986777e+02	-2.384706e+01
1.998252e+02	-2.389812e+01
2.009794e+02	-2.394332e+01
2.021403e+02	-2.399603e+01
2.033078e+02	-2.404477e+01
2.044821e+02	-2.409535e+01
2.056632e+02	-2.414449e+01
2.068511e+02	-2.419608e+01
2.080459e+02	-2.424538e+01
2.092475e+02	-2.429248e+01
2.104561e+02	-2.434544e+01
2.116717e+02	-2.439335e+01
2.128943e+02	-2.444644e+01
2.141240e+02	-2.449237e+01
2.153608e+02	-2.454578e+01
2.166047e+02	-2.459493e+01
2.178558e+02	-2.464330e+01
2.191141e+02	-2.469567e+01
2.203797e+02	-2.474311e+01
2.216526e+02	-2.479339e+01
2.229329e+02	-2.484571e+01
2.242205e+02	-2.489402e+01
2.255156e+02	-2.494184e+01
2.268182e+02	-2.499395e+01
2.281283e+02	-2.504214e+01
2.294459e+02	-2.509343e+01
2.307712e+02	-2.514528e+01
2.321041e+02	-2.518993e+01
2.334447e+02	-2.524181e+01
2.347931e+02	-2.529587e+01
2.361493e+02	-2.534174e+01
2.375133e+02	-2.539102e+01
2.388851e+02	-2.544034e+01
2.402649e+02	-2.549328e+01
2.416527e+02	-2.554319e+01
2.430484e+02	-2.559111e+01
2.444523e+02	-2.564057e+01
2.458642e+02	-2.569287e+01
2.472843e+02	-2.573906e+01
2.487126e+02	-2.579386e+01
2.501492e+02	-2.584089e+01
2.515940e+02	-2.589241e+01
2.530472e+02	-2.594375e+01
2.545088e+02	-2.598934e+01
2.559789e+02	-2.604067e+01
2.574574e+02	-2.609572e+01
2.589444e+02	-2.614235e+01
2.604401e+02	-2.619521e+01
2.619444e+02	-2.624127e+01
2.634574e+02	-2.629040e+01
2.649791e+02	-2.634142e+01
2.665096e+02	-2.638858e+01
2.680489e+02	-2.644272e+01
2.695972e+02	-2.649058e+01
2.711544e+02	-2.653863e+01
2.727205e+02	-2.659070e+01
2.742958e+02	-2.663936e+01
2.758801e+02	-2.668815e+01
2.774736e+02	-2.673943e+01
2.790762e+02	-2.679245e+01
2.806882e+02	-2.684045e+01
2.823094e+02	-2.689086e+01
2.839400e+02	-2.694307e+01
2.855800e+02	-2.699209e+01
2.872295e+02	-2.704217e+01
2.888886e+02	-2.709379e+01
2.905572e+02	-2.714431e+01
2.922354e+02	-2.719570e+01
2.939234e+02	-2.724505e+01
2.956211e+02	-2.728663e+01
2.973286e+02	-2.734184e+01
2.990459e+02	-2.739124e+01
3.007732e+02	-2.743975e+01
3.025104e+02	-2.748840e+01
3.042577e+02	-2.754257e+01
3.060151e+02	-2.759233e+01
3.077826e+02	-2.763945e+01
3.095604e+02	-2.769145e+01
3.113484e+02	-2.774081e+01
3.131467e+02	-2.778852e+01
3.149554e+02	-2.783655e+01
3.167746e+02	-2.789293e+01
3.186043e+02	-2.794412e+01
3.204445e+02	-2.798978e+01
3.222954e+02	-2.804247e+01
3.241570e+02	-2.809107e+01
3.260293e+02	-2.814244e+01
3.279124e+02	-2.819281e+01
3.298064e+02	-2.824200e+01
3.317114e+02	-2.829158e+01
3.336273e+02	-2.834310e+01
3.355544e+02	-2.839296e+01
3.374925e+02	-2.844320e+01
3.394418e+02	-2.849505e+01
3.414024e+02	-2.854146e+01
3.433744e+02	-2.859474e+01
3.453577e+02	-2.864425e+01
3.473525e+02	-2.868889e+01
3.493588e+02	-2.873807e+01
3.513766e+02	-2.879483e+01
3.534062e+02	-2.884387e+01
3.554474e+02	-2.889304e+01
3.575005e+02	-2.894067e+01
3.595654e+02	-2.899400e+01
3.616422e+02	-2.904480e+01
3.637311e+02	-2.909289e+01
3.658320e+02	-2.914189e+01
3.679450e+02	-2.919358e+01
3.700702e+02	-2.924003e+01
3.722077e+02	-2.928707e+01
3.743576e+02	-2.934558e+01
3.765199e+02	-2.939370e+01
3.786946e+02	-2.944270e+01
3.808820e+02	-2.949293e+01
3.830819e+02	-2.953839e+01
3.852946e+02	-2.959593e+01
3.875200e+02	-2.964218e+01
3.897583e+02	-2.969420e+01
3.920096e+02	-2.974349e+01
3.942738e+02	-2.978944e+01
3.965511e+02	-2.984029e+01
3.988416e+02	-2.989446e+01
4.011452e+02	-2.994236e+01
4.034622e+02	-2.999482e+01
4.057926e+02	-3.004388e+01
4.081365e+02	-3.010144e+01
4.104938e+02	-3.014321e+01
4.128648e+02	-3.019169e+01
4.152495e+02	-3.024865e+01
4.176480e+02	-3.029303e+01
4.200603e+02	-3.034725e+01
4.224866e+02	-3.039783e+01
4.249268e+02	-3.044200e+01
4.273812e+02	-3.049830e+01
4.298497e+02	-3.054338e+01
4.323325e+02	-3.059630e+01
4.348297e+02	-3.064639e+01
4.373412e+02	-3.069955e+01
4.398673e+02	-3.074120e+01
4.424079e+02	-3.079226e+01
4.449633e+02	-3.084268e+01
4.475334e+02	-3.089787e+01
4.501183e+02	-3.093828e+01
4.527182e+02	-3.099727e+01
4.553330e+02	-3.104592e+01
4.579630e+02	-3.109527e+01
4.606082e+02	-3.114250e+01
4.632687e+02	-3.119234e+01
4.659445e+02	-3.124731e+01
4.686358e+02	-3.129895e+01
4.713426e+02	-3.134525e+01
4.740650e+02	-3.139685e+01
4.768032e+02	-3.144346e+01
4.795572e+02	-3.149603e+01
4.823271e+02	-3.155186e+01
4.851130e+02	-3.160038e+01
4.879150e+02	-3.164998e+01
4.907332e+02	-3.169981e+01
4.935676e+02	-3.175235e+01
4.964185e+02	-3.180295e+01
4.992858e+02	-3.185108e+01
5.021696e+02	-3.190123e+01
5.050701e+02	-3.194898e+01
5.079874e+02	-3.199574e+01
5.109215e+02	-3.204958e+01
5.138726e+02	-3.210309e+01
5.168407e+02	-3.214794e+01
5.198259e+02	-3.219923e+01
5.228284e+02	-3.224931e+01
5.258482e+02	-3.229447e+01
5.288855e+02	-3.234494e+01
5.319403e+02	-3.240004e+01
5.350128e+02	-3.244652e+01
5.381030e+02	-3.249794e+01
5.412111e+02	-3.255459e+01
5.443371e+02	-3.260033e+01
5.474812e+02	-3.264303e+01
5.506434e+02	-3.270290e+01
5.538239e+02	-3.274731e+01
5.570228e+02	-3.280461e+01
5.602401e+02	-3.285583e+01
5.634760e+02	-3.290264e+01
5.667306e+02	-3.294712e+01
5.700040e+02	-3.299780e+01
5.732964e+02	-3.306118e+01
5.766077e+02	-3.310466e+01
5.799382e+02	-3.316442e+01
5.832879e+02	-3.320894e+01
5.866569e+02	-3.325013e+01
5.900454e+02	-3.330812e+01
5.934535e+02	-3.335164e+01
5.968813e+02	-3.340402e+01
6.003288e+02	-3.346738e+01
6.037963e+02	-3.350841e+01
6.072838e+02	-3.355032e+01
6.107914e+02	-3.360670e+01
6.143194e+02	-3.365099e+01
6.178676e+02	-3.370209e+01
6.214364e+02	-3.375476e+01
6.250258e+02	-3.380905e+01
6.286359e+02	-3.386284e+01
6.322669e+02	-3.390614e+01
6.359189e+02	-3.396248e+01
6.395919e+02	-3.401320e+01
6.432862e+02	-3.405727e+01
6.470017e+02	-3.410817e+01
6.507388e+02	-3.416510e+01
6.544974e+02	-3.421454e+01
6.582778e+02	-3.425644e+01
6.620800e+02	-3.431835e+01
6.659041e+02	-3.436004e+01
6.697504e+02	-3.440923e+01
6.736188e+02	-3.446597e+01
6.775096e+02	-3.452288e+01
6.814229e+02	-3.456175e+01
6.853587e+02	-3.461182e+01
6.893173e+02	-3.466464e+01
6.932988e+02	-3.471521e+01
6.973033e+02	-3.475779e+01
7.013309e+02	-3.481336e+01
