Frequency(Hz)	Magnitude(dB)
1.000000e+01	-1.871299e-05
1.005776e+01	-1.892979e-05
1.011585e+01	-1.914910e-05
1.017428e+01	-1.937094e-05
1.023305e+01	-1.959536e-05
1.029215e+01	-1.982238e-05
1.035160e+01	-2.005202e-05
1.041139e+01	-2.028433e-05
1.047153e+01	-2.051933e-05
1.053201e+01	-2.075705e-05
1.059284e+01	-2.099753e-05
1.065403e+01	-2.124079e-05
1.071556e+01	-2.148687e-05
1.077746e+01	-2.173580e-05
1.083971e+01	-2.198762e-05
1.090232e+01	-2.224235e-05
1.096529e+01	-2.250003e-05
1.102862e+01	-2.276070e-05
1.109232e+01	-2.302439e-05
1.115639e+01	-2.329113e-05
1.122083e+01	-2.356096e-05
1.128564e+01	-2.383392e-05
1.135083e+01	-2.411005e-05
1.141639e+01	-2.438937e-05
1.148233e+01	-2.467192e-05
1.154865e+01	-2.495775e-05
1.161536e+01	-2.524690e-05
1.168245e+01	-2.553939e-05
1.174992e+01	-2.583527e-05
1.181779e+01	-2.613458e-05
1.188605e+01	-2.643735e-05
1.195470e+01	-2.674363e-05
1.202375e+01	-2.705347e-05
1.209320e+01	-2.736689e-05
1.216305e+01	-2.768394e-05
1.223330e+01	-2.800466e-05
1.230396e+01	-2.832910e-05
1.237503e+01	-2.865730e-05
1.244651e+01	-2.898931e-05
1.251840e+01	-2.932515e-05
1.259070e+01	-2.966489e-05
1.266343e+01	-3.000857e-05
1.273657e+01	-3.035622e-05
1.281014e+01	-3.070791e-05
1.288413e+01	-3.106367e-05
1.295855e+01	-3.142355e-05
1.303339e+01	-3.178760e-05
1.310867e+01	-3.215586e-05
1.318439e+01	-3.252840e-05
1.326054e+01	-3.290525e-05
1.333713e+01	-3.328646e-05
1.341417e+01	-3.367209e-05
1.349165e+01	-3.406219e-05
1.356958e+01	-3.445681e-05
1.364795e+01	-3.485600e-05
1.372678e+01	-3.525981e-05
1.380607e+01	-3.566831e-05
1.388581e+01	-3.608153e-05
1.396602e+01	-3.649955e-05
1.404668e+01	-3.692240e-05
1.412782e+01	-3.735016e-05
1.420942e+01	-3.778287e-05
1.429149e+01	-3.822059e-05
1.437404e+01	-3.866338e-05
1.445706e+01	-3.911131e-05
1.454057e+01	-3.956442e-05
1.462455e+01	-4.002278e-05
1.470902e+01	-4.048646e-05
1.479398e+01	-4.095550e-05
1.487943e+01	-4.142998e-05
1.496537e+01	-4.190996e-05
1.505181e+01	-4.239549e-05
1.513875e+01	-4.288665e-05
1.522619e+01	-4.338351e-05
1.531414e+01	-4.388611e-05
1.540259e+01	-4.439454e-05
1.549156e+01	-4.490886e-05
1.558103e+01	-4.542914e-05
1.567103e+01	-4.595545e-05
1.576155e+01	-4.648785e-05
1.585258e+01	-4.702643e-05
1.594415e+01	-4.757124e-05
1.603624e+01	-4.812236e-05
1.612886e+01	-4.867987e-05
1.622202e+01	-4.924383e-05
1.631572e+01	-4.981433e-05
1.640996e+01	-5.039144e-05
1.650474e+01	-5.097524e-05
1.660008e+01	-5.156580e-05
1.669596e+01	-5.216320e-05
1.679239e+01	-5.276752e-05
1.688938e+01	-5.337884e-05
1.698694e+01	-5.399725e-05
1.708505e+01	-5.462282e-05
1.718373e+01	-5.525563e-05
1.728299e+01	-5.589578e-05
1.738281e+01	-5.654335e-05
1.748322e+01	-5.719841e-05
1.758420e+01	-5.786107e-05
1.768576e+01	-5.853140e-05
1.778792e+01	-5.920950e-05
1.789066e+01	-5.989545e-05
1.799399e+01	-6.058935e-05
1.809793e+01	-6.129129e-05
1.820246e+01	-6.200136e-05
1.830760e+01	-6.271966e-05
1.841334e+01	-6.344628e-05
1.851969e+01	-6.418132e-05
1.862666e+01	-6.492487e-05
1.873425e+01	-6.567704e-05
1.884246e+01	-6.643792e-05
1.895129e+01	-6.720762e-05
1.906075e+01	-6.798623e-05
1.917085e+01	-6.877386e-05
1.928158e+01	-6.957062e-05
1.939295e+01	-7.037661e-05
1.950496e+01	-7.119193e-05
1.961762e+01	-7.201671e-05
1.973093e+01	-7.285103e-05
1.984490e+01	-7.369503e-05
1.995952e+01	-7.454880e-05
2.007480e+01	-7.541246e-05
2.019076e+01	-7.628612e-05
2.030738e+01	-7.716991e-05
2.042467e+01	-7.806394e-05
2.054264e+01	-7.896832e-05
2.066130e+01	-7.988319e-05
2.078064e+01	-8.080865e-05
2.090066e+01	-8.174483e-05
2.102139e+01	-8.269186e-05
2.114280e+01	-8.364985e-05
2.126492e+01	-8.461895e-05
2.138775e+01	-8.559928e-05
2.151128e+01	-8.659096e-05
2.163553e+01	-8.759413e-05
2.176050e+01	-8.860892e-05
2.188619e+01	-8.963547e-05
2.201260e+01	-9.067391e-05
2.213974e+01	-9.172438e-05
2.226762e+01	-9.278702e-05
2.239624e+01	-9.386198e-05
2.252560e+01	-9.494938e-05
2.265571e+01	-9.604938e-05
2.278656e+01	-9.716213e-05
2.291818e+01	-9.828777e-05
2.305055e+01	-9.942645e-05
2.318369e+01	-1.005783e-04
2.331760e+01	-1.017435e-04
2.345228e+01	-1.029222e-04
2.358774e+01	-1.041146e-04
2.372398e+01	-1.053208e-04
2.386101e+01	-1.065409e-04
2.399883e+01	-1.077752e-04
2.413745e+01	-1.090238e-04
2.427686e+01	-1.102869e-04
2.441709e+01	-1.115646e-04
2.455812e+01	-1.128571e-04
2.469997e+01	-1.141645e-04
2.484263e+01	-1.154871e-04
2.498612e+01	-1.168251e-04
2.513044e+01	-1.181785e-04
2.527559e+01	-1.195476e-04
2.542158e+01	-1.209326e-04
2.556842e+01	-1.223336e-04
2.571610e+01	-1.237509e-04
2.586463e+01	-1.251845e-04
2.601403e+01	-1.266348e-04
2.616428e+01	-1.281019e-04
2.631541e+01	-1.295860e-04
2.646740e+01	-1.310872e-04
2.662028e+01	-1.326059e-04
2.677404e+01	-1.341421e-04
2.692868e+01	-1.356962e-04
2.708422e+01	-1.372682e-04
2.724066e+01	-1.388585e-04
2.739800e+01	-1.404672e-04
2.755625e+01	-1.420945e-04
2.771541e+01	-1.437407e-04
2.787550e+01	-1.454059e-04
2.803650e+01	-1.470905e-04
2.819844e+01	-1.487945e-04
2.836131e+01	-1.505183e-04
2.852513e+01	-1.522621e-04
2.868989e+01	-1.540261e-04
2.885560e+01	-1.558105e-04
2.902227e+01	-1.576155e-04
2.918990e+01	-1.594415e-04
2.935850e+01	-1.612887e-04
2.952807e+01	-1.631572e-04
2.969863e+01	-1.650474e-04
2.987016e+01	-1.669595e-04
3.004269e+01	-1.688937e-04
3.021622e+01	-1.708504e-04
3.039075e+01	-1.728297e-04
3.056628e+01	-1.748319e-04
3.074283e+01	-1.768573e-04
3.092040e+01	-1.789062e-04
3.109900e+01	-1.809789e-04
3.127862e+01	-1.830755e-04
3.145929e+01	-1.851965e-04
3.164099e+01	-1.873420e-04
3.182375e+01	-1.895123e-04
3.200756e+01	-1.917078e-04
3.219244e+01	-1.939288e-04
3.237838e+01	-1.961754e-04
3.256540e+01	-1.984481e-04
3.275349e+01	-2.007472e-04
3.294268e+01	-2.030728e-04
3.313295e+01	-2.054254e-04
3.332433e+01	-2.078053e-04
3.351681e+01	-2.102127e-04
3.371040e+01	-2.126480e-04
3.390511e+01	-2.151115e-04
3.410094e+01	-2.176036e-04
3.429791e+01	-2.201245e-04
3.449601e+01	-2.226747e-04
3.469526e+01	-2.252543e-04
3.489566e+01	-2.278639e-04
3.509721e+01	-2.305037e-04
3.529993e+01	-2.331741e-04
3.550382e+01	-2.358754e-04
3.570889e+01	-2.386080e-04
3.591515e+01	-2.413723e-04
3.612259e+01	-2.441686e-04
3.633123e+01	-2.469972e-04
3.654108e+01	-2.498587e-04
3.675214e+01	-2.527533e-04
3.696442e+01	-2.556814e-04
3.717792e+01	-2.586435e-04
3.739266e+01	-2.616398e-04
3.760864e+01	-2.646709e-04
3.782587e+01	-2.677371e-04
3.804435e+01	-2.708388e-04
3.826409e+01	-2.739765e-04
3.848510e+01	-2.771505e-04
3.870739e+01	-2.803612e-04
3.893096e+01	-2.836092e-04
3.915583e+01	-2.868948e-04
3.938199e+01	-2.902184e-04
3.960946e+01	-2.935805e-04
3.983824e+01	-2.969816e-04
4.006834e+01	-3.004221e-04
4.029978e+01	-3.039025e-04
4.053255e+01	-3.074232e-04
4.076666e+01	-3.109846e-04
4.100213e+01	-3.145873e-04
4.123896e+01	-3.182318e-04
4.147715e+01	-3.219184e-04
4.171672e+01	-3.256478e-04
4.195767e+01	-3.294204e-04
4.220002e+01	-3.332367e-04
4.244377e+01	-3.370972e-04
4.268892e+01	-3.410024e-04
4.293549e+01	-3.449528e-04
4.318348e+01	-3.489490e-04
4.343291e+01	-3.529915e-04
4.368377e+01	-3.570809e-04
4.393609e+01	-3.612176e-04
4.418986e+01	-3.654022e-04
4.444510e+01	-3.696353e-04
4.470182e+01	-3.739175e-04
4.496001e+01	-3.782492e-04
4.521970e+01	-3.826312e-04
4.548089e+01	-3.870638e-04
4.574358e+01	-3.915479e-04
4.600779e+01	-3.960839e-04
4.627353e+01	-4.006724e-04
4.654081e+01	-4.053141e-04
4.680963e+01	-4.100095e-04
4.708000e+01	-4.147594e-04
4.735193e+01	-4.195643e-04
4.762543e+01	-4.244248e-04
4.790051e+01	-4.293416e-04
4.817719e+01	-4.343154e-04
4.845545e+01	-4.393468e-04
4.873533e+01	-4.444365e-04
4.901682e+01	-4.495852e-04
4.929994e+01	-4.547935e-04
4.958470e+01	-4.600621e-04
4.987110e+01	-4.653918e-04
5.015915e+01	-4.707832e-04
5.044887e+01	-4.762370e-04
5.074026e+01	-4.817540e-04
5.103333e+01	-4.873350e-04
5.132810e+01	-4.929806e-04
5.162457e+01	-4.986916e-04
5.192275e+01	-5.044687e-04
5.222265e+01	-5.103128e-04
5.252429e+01	-5.162245e-04
5.282767e+01	-5.222048e-04
5.313280e+01	-5.282543e-04
5.343969e+01	-5.343739e-04
5.374836e+01	-5.405644e-04
5.405880e+01	-5.468266e-04
5.437105e+01	-5.531613e-04
5.468509e+01	-5.595694e-04
5.500095e+01	-5.660518e-04
5.531863e+01	-5.726092e-04
5.563815e+01	-5.792426e-04
5.595951e+01	-5.859528e-04
5.628273e+01	-5.927408e-04
5.660782e+01	-5.996074e-04
5.693479e+01	-6.065535e-04
5.726364e+01	-6.135801e-04
5.759439e+01	-6.206881e-04
5.792705e+01	-6.278784e-04
5.826164e+01	-6.351520e-04
5.859815e+01	-6.425099e-04
5.893662e+01	-6.499530e-04
5.927703e+01	-6.574823e-04
5.961941e+01	-6.650988e-04
5.996377e+01	-6.728036e-04
6.031012e+01	-6.805976e-04
6.065847e+01	-6.884819e-04
6.100883e+01	-6.964575e-04
6.136121e+01	-7.045255e-04
6.171563e+01	-7.126869e-04
6.207210e+01	-7.209429e-04
6.243063e+01	-7.292945e-04
6.279122e+01	-7.377429e-04
6.315390e+01	-7.462891e-04
6.351868e+01	-7.549343e-04
6.388556e+01	-7.636797e-04
6.425456e+01	-7.725263e-04
6.462569e+01	-7.814755e-04
6.499897e+01	-7.905283e-04
6.537440e+01	-7.996859e-04
6.575200e+01	-8.089496e-04
6.613178e+01	-8.183206e-04
6.651375e+01	-8.278002e-04
6.689793e+01	-8.373896e-04
6.728433e+01	-8.470900e-04
6.767297e+01	-8.569028e-04
6.806384e+01	-8.668293e-04
6.845698e+01	-8.768707e-04
6.885238e+01	-8.870285e-04
6.925007e+01	-8.973039e-04
6.965005e+01	-9.076983e-04
7.005235e+01	-9.182131e-04
7.045697e+01	-9.288497e-04
7.086393e+01	-9.396095e-04
7.127323e+01	-9.504940e-04
7.168490e+01	-9.615045e-04
7.209895e+01	-9.726426e-04
7.251539e+01	-9.839096e-04
7.293424e+01	-9.953072e-04
7.335551e+01	-1.006837e-03
7.377920e+01	-1.018500e-03
7.420535e+01	-1.030298e-03
7.463396e+01	-1.042233e-03
7.506504e+01	-1.054306e-03
7.549861e+01	-1.066519e-03
7.593469e+01	-1.078873e-03
7.637328e+01	-1.091371e-03
7.681441e+01	-1.104013e-03
7.725809e+01	-1.116802e-03
7.770433e+01	-1.129738e-03
7.815315e+01	-1.142825e-03
7.860456e+01	-1.156063e-03
7.905857e+01	-1.169455e-03
7.951521e+01	-1.183001e-03
7.997449e+01	-1.196705e-03
8.043642e+01	-1.210567e-03
8.090102e+01	-1.224590e-03
8.136830e+01	-1.238775e-03
8.183828e+01	-1.253124e-03
8.231097e+01	-1.267640e-03
8.278640e+01	-1.282324e-03
8.326457e+01	-1.297178e-03
8.374550e+01	-1.312204e-03
8.422921e+01	-1.327404e-03
8.471572e+01	-1.342779e-03
8.520503e+01	-1.358334e-03
8.569717e+01	-1.374068e-03
8.619215e+01	-1.389984e-03
8.669000e+01	-1.406085e-03
8.719071e+01	-1.422372e-03
8.769432e+01	-1.438848e-03
8.820084e+01	-1.455514e-03
8.871029e+01	-1.472374e-03
8.922267e+01	-1.489429e-03
8.973802e+01	-1.506682e-03
9.025634e+01	-1.524134e-03
9.077766e+01	-1.541788e-03
9.130199e+01	-1.559647e-03
9.182935e+01	-1.577713e-03
9.235975e+01	-1.595987e-03
9.289321e+01	-1.614474e-03
9.342976e+01	-1.633175e-03
9.396941e+01	-1.652092e-03
9.451217e+01	-1.671228e-03
9.505807e+01	-1.690586e-03
9.560712e+01	-1.710168e-03
9.615934e+01	-1.729977e-03
9.671476e+01	-1.750015e-03
9.727338e+01	-1.770285e-03
9.783522e+01	-1.790790e-03
9.840032e+01	-1.811533e-03
9.896867e+01	-1.832515e-03
9.954031e+01	-1.853741e-03
1.001153e+02	-1.875212e-03
1.006935e+02	-1.896932e-03
1.012751e+02	-1.918904e-03
1.018601e+02	-1.941130e-03
1.024484e+02	-1.963614e-03
1.030402e+02	-1.986357e-03
1.036353e+02	-2.009365e-03
1.042339e+02	-2.032638e-03
1.048360e+02	-2.056181e-03
1.054415e+02	-2.079997e-03
1.060505e+02	-2.104088e-03
1.066631e+02	-2.128459e-03
1.072791e+02	-2.153111e-03
1.078988e+02	-2.178050e-03
1.085220e+02	-2.203276e-03
1.091488e+02	-2.228795e-03
1.097793e+02	-2.254610e-03
1.104133e+02	-2.280723e-03
1.110511e+02	-2.307139e-03
1.116925e+02	-2.333861e-03
1.123376e+02	-2.360892e-03
1.129865e+02	-2.388236e-03
1.136391e+02	-2.415896e-03
1.142955e+02	-2.443877e-03
1.149556e+02	-2.472182e-03
1.156196e+02	-2.500815e-03
1.162874e+02	-2.529779e-03
1.169591e+02	-2.559079e-03
1.176347e+02	-2.588717e-03
1.183141e+02	-2.618699e-03
1.189975e+02	-2.649028e-03
1.196848e+02	-2.679709e-03
1.203761e+02	-2.710744e-03
1.210714e+02	-2.742139e-03
1.217707e+02	-2.773897e-03
1.224740e+02	-2.806023e-03
1.231814e+02	-2.838521e-03
1.238929e+02	-2.871395e-03
1.246085e+02	-2.904650e-03
1.253283e+02	-2.938289e-03
1.260522e+02	-2.972319e-03
1.267802e+02	-3.006742e-03
1.275125e+02	-3.041563e-03
1.282490e+02	-3.076788e-03
1.289898e+02	-3.112421e-03
1.297348e+02	-3.148466e-03
1.304842e+02	-3.184928e-03
1.312378e+02	-3.221813e-03
1.319959e+02	-3.259124e-03
1.327583e+02	-3.296868e-03
1.335251e+02	-3.335048e-03
1.342963e+02	-3.373671e-03
1.350720e+02	-3.412740e-03
1.358522e+02	-3.452262e-03
1.366368e+02	-3.492241e-03
1.374260e+02	-3.532683e-03
1.382198e+02	-3.573593e-03
1.390182e+02	-3.614977e-03
1.398211e+02	-3.656840e-03
1.406287e+02	-3.699187e-03
1.414410e+02	-3.742025e-03
1.422579e+02	-3.785358e-03
1.430796e+02	-3.829193e-03
1.439060e+02	-3.873536e-03
1.447372e+02	-3.918391e-03
1.455732e+02	-3.963766e-03
1.464141e+02	-4.009666e-03
1.472597e+02	-4.056098e-03
1.481103e+02	-4.103066e-03
1.489658e+02	-4.150579e-03
1.498262e+02	-4.198641e-03
1.506916e+02	-4.247259e-03
1.515620e+02	-4.296441e-03
1.524374e+02	-4.346191e-03
1.533179e+02	-4.396517e-03
1.542034e+02	-4.447426e-03
1.550941e+02	-4.498924e-03
1.559899e+02	-4.551018e-03
1.568909e+02	-4.603714e-03
1.577971e+02	-4.657021e-03
1.587085e+02	-4.710945e-03
1.596252e+02	-4.765492e-03
1.605472e+02	-4.820671e-03
1.614745e+02	-4.876488e-03
1.624072e+02	-4.932951e-03
1.633453e+02	-4.990068e-03
1.642887e+02	-5.047846e-03
1.652377e+02	-5.106292e-03
1.661921e+02	-5.165414e-03
1.671520e+02	-5.225221e-03
1.681175e+02	-5.285719e-03
1.690885e+02	-5.346918e-03
1.700651e+02	-5.408825e-03
1.710474e+02	-5.471448e-03
1.720354e+02	-5.534796e-03
1.730291e+02	-5.598876e-03
1.740285e+02	-5.663698e-03
1.750337e+02	-5.729270e-03
1.760446e+02	-5.795601e-03
1.770615e+02	-5.862699e-03
1.780842e+02	-5.930574e-03
1.791128e+02	-5.999233e-03
1.801473e+02	-6.068687e-03
1.811878e+02	-6.138945e-03
1.822344e+02	-6.210015e-03
1.832870e+02	-6.281907e-03
1.843456e+02	-6.354632e-03
1.854104e+02	-6.428197e-03
1.864813e+02	-6.502614e-03
1.875584e+02	-6.577891e-03
1.886418e+02	-6.654039e-03
1.897313e+02	-6.731068e-03
1.908272e+02	-6.808988e-03
1.919294e+02	-6.887809e-03
1.930380e+02	-6.967542e-03
1.941530e+02	-7.048197e-03
1.952744e+02	-7.129785e-03
1.964023e+02	-7.212316e-03
1.975367e+02	-7.295803e-03
1.986777e+02	-7.380254e-03
1.998252e+02	-7.465683e-03
2.009794e+02	-7.552099e-03
2.021403e+02	-7.639515e-03
2.033078e+02	-7.727942e-03
2.044821e+02	-7.817391e-03
2.056632e+02	-7.907875e-03
2.068511e+02	-7.999405e-03
2.080459e+02	-8.091994e-03
2.092475e+02	-8.185653e-03
2.104561e+02	-8.280395e-03
2.116717e+02	-8.376233e-03
2.128943e+02	-8.473179e-03
2.141240e+02	-8.571246e-03
2.153608e+02	-8.670447e-03
2.166047e+02	-8.770794e-03
2.178558e+02	-8.872302e-03
2.191141e+02	-8.974983e-03
2.203797e+02	-9.078852e-03
2.216526e+02	-9.183921e-03
2.229329e+02	-9.290205e-03
2.242205e+02	-9.397718e-03
2.255156e+02	-9.506473e-03
2.268182e+02	-9.616486e-03
2.281283e+02	-9.727770e-03
2.294459e+02	-9.840341e-03
2.307712e+02	-9.954213e-03
2.321041e+02	-1.006940e-02
2.334447e+02	-1.018592e-02
2.347931e+02	-1.030379e-02
2.361493e+02	-1.042301e-02
2.375133e+02	-1.054362e-02
2.388851e+02	-1.066562e-02
2.402649e+02	-1.078903e-02
2.416527e+02	-1.091387e-02
2.430484e+02	-1.104015e-02
2.444523e+02	-1.116788e-02
2.458642e+02	-1.129710e-02
2.472843e+02	-1.142781e-02
2.487126e+02	-1.156002e-02
2.501492e+02	-1.169377e-02
2.515940e+02	-1.182906e-02
2.530472e+02	-1.196591e-02
2.545088e+02	-1.210435e-02
2.559789e+02	-1.224438e-02
2.574574e+02	-1.238603e-02
2.589444e+02	-1.252932e-02
2.604401e+02	-1.267426e-02
2.619444e+02	-1.282088e-02
2.634574e+02	-1.296919e-02
2.649791e+02	-1.311921e-02
2.665096e+02	-1.327097e-02
2.680489e+02	-1.342448e-02
2.695972e+02	-1.357976e-02
2.711544e+02	-1.373684e-02
2.727205e+02	-1.389573e-02
2.742958e+02	-1.405645e-02
2.758801e+02	-1.421903e-02
2.774736e+02	-1.438349e-02
2.790762e+02	-1.454984e-02
2.806882e+02	-1.471812e-02
2.823094e+02	-1.488834e-02
2.839400e+02	-1.506053e-02
2.855800e+02	-1.523470e-02
2.872295e+02	-1.541088e-02
2.888886e+02	-1.558910e-02
2.905572e+02	-1.576938e-02
2.922354e+02	-1.595173e-02
2.939234e+02	-1.613619e-02
2.956211e+02	-1.632278e-02
2.973286e+02	-1.651152e-02
2.990459e+02	-1.670245e-02
3.007732e+02	-1.689557e-02
3.025104e+02	-1.709092e-02
3.042577e+02	-1.728853e-02
3.060151e+02	-1.748842e-02
3.077826e+02	-1.769061e-02
3.095604e+02	-1.789514e-02
3.113484e+02	-1.810203e-02
3.131467e+02	-1.831130e-02
3.149554e+02	-1.852299e-02
3.167746e+02	-1.873712e-02
3.186043e+02	-1.895371e-02
3.204445e+02	-1.917281e-02
3.222954e+02	-1.939444e-02
3.241570e+02	-1.961862e-02
3.260293e+02	-1.984538e-02
3.279124e+02	-2.007476e-02
3.298064e+02	-2.030679e-02
3.317114e+02	-2.054149e-02
3.336273e+02	-2.077890e-02
3.355544e+02	-2.101904e-02
3.374925e+02	-2.126196e-02
3.394418e+02	-2.150767e-02
3.414024e+02	-2.175622e-02
3.433744e+02	-2.200763e-02
3.453577e+02	-2.226194e-02
3.473525e+02	-2.251918e-02
3.493588e+02	-2.277938e-02
3.513766e+02	-2.304258e-02
3.534062e+02	-2.330882e-02
3.554474e+02	-2.357812e-02
3.575005e+02	-2.385053e-02
3.595654e+02	-2.412607e-02
3.616422e+02	-2.440479e-02
3.637311e+02	-2.468672e-02
3.658320e+02	-2.497190e-02
3.679450e+02	-2.526036e-02
3.700702e+02	-2.555215e-02
3.722077e+02	-2.584729e-02
3.743576e+02	-2.614583e-02
3.765199e+02	-2.644782e-02
3.786946e+02	-2.675327e-02
3.808820e+02	-2.706225e-02
3.830819e+02	-2.737478e-02
3.852946e+02	-2.769091e-02
3.875200e+02	-2.801068e-02
3.897583e+02	-2.833413e-02
3.920096e+02	-2.866130e-02
3.942738e+02	-2.899224e-02
3.965511e+02	-2.932699e-02
3.988416e+02	-2.966558e-02
4.011452e+02	-3.000808e-02
4.034622e+02	-3.035451e-02
4.057926e+02	-3.070493e-02
4.081365e+02	-3.105938e-02
4.104938e+02	-3.141790e-02
4.128648e+02	-3.178055e-02
4.152495e+02	-3.214737e-02
4.176480e+02	-3.251841e-02
4.200603e+02	-3.289372e-02
4.224866e+02	-3.327333e-02
4.249268e+02	-3.365732e-02
4.273812e+02	-3.404571e-02
4.298497e+02	-3.443858e-02
4.323325e+02	-3.483595e-02
4.348297e+02	-3.523789e-02
4.373412e+02	-3.564445e-02
4.398673e+02	-3.605569e-02
4.424079e+02	-3.647164e-02
4.449633e+02	-3.689238e-02
4.475334e+02	-3.731795e-02
4.501183e+02	-3.774840e-02
4.527182e+02	-3.818380e-02
4.553330e+02	-3.862420e-02
4.579630e+02	-3.906965e-02
4.606082e+02	-3.952022e-02
4.632687e+02	-3.997596e-02
4.659445e+02	-4.043693e-02
4.686358e+02	-4.090320e-02
4.713426e+02	-4.137481e-02
4.740650e+02	-4.185183e-02
4.768032e+02	-4.233433e-02
4.795572e+02	-4.282236e-02
4.823271e+02	-4.331599e-02
4.851130e+02	-4.381528e-02
4.879150e+02	-4.432030e-02
4.907332e+02	-4.483111e-02
4.935676e+02	-4.534777e-02
4.964185e+02	-4.587036e-02
4.992858e+02	-4.639893e-02
5.021696e+02	-4.693357e-02
5.050701e+02	-4.747433e-02
5.079874e+02	-4.802129e-02
5.109215e+02	-4.857451e-02
5.138726e+02	-4.913407e-02
5.168407e+02	-4.970004e-02
5.198259e+02	-5.027249e-02
5.228284e+02	-5.085150e-02
5.258482e+02	-5.143713e-02
5.288855e+02	-5.202947e-02
5.319403e+02	-5.262859e-02
5.350128e+02	-5.323457e-02
5.381030e+02	-5.384748e-02
5.412111e+02	-5.446740e-02
5.443371e+02	-5.509441e-02
5.474812e+02	-5.572859e-02
5.506434e+02	-5.637003e-02
5.538239e+02	-5.701880e-02
5.570228e+02	-5.767499e-02
5.602401e+02	-5.833868e-02
5.634760e+02	-5.900995e-02
5.667306e+02	-5.968890e-02
5.700040e+02	-6.037560e-02
5.732964e+02	-6.107015e-02
5.766077e+02	-6.177263e-02
5.799382e+02	-6.248313e-02
5.832879e+02	-6.320174e-02
5.866569e+02	-6.392856e-02
5.900454e+02	-6.466368e-02
5.934535e+02	-6.540718e-02
5.968813e+02	-6.615917e-02
6.003288e+02	-6.691973e-02
6.037963e+02	-6.768897e-02
6.072838e+02	-6.846698e-02
6.107914e+02	-6.925387e-02
6.143194e+02	-7.004972e-02
6.178676e+02	-7.085465e-02
6.214364e+02	-7.166875e-02
6.250258e+02	-7.249212e-02
6.286359e+02	-7.332487e-02
6.322669e+02	-7.416711e-02
6.359189e+02	-7.501894e-02
6.395919e+02	-7.588046e-02
6.432862e+02	-7.675180e-02
6.470017e+02	-7.763304e-02
6.507388e+02	-7.852432e-02
6.544974e+02	-7.942573e-02
6.582778e+02	-8.033740e-02
6.620800e+02	-8.125943e-02
6.659041e+02	-8.219194e-02
6.697504e+02	-8.313505e-02
6.736188e+02	-8.408888e-02
6.775096e+02	-8.505354e-02
6.814229e+02	-8.602916e-02
6.853587e+02	-8.701586e-02
6.893173e+02	-8.801376e-02
6.932988e+02	-8.902299e-02
6.973033e+02	-9.004367e-02
7.013309e+02	-9.107593e-02
