Frequency(Hz)	Magnitude(dB)
1.000000e+01	-2.122219e+00
1.005776e+01	-2.141640e+00
1.011585e+01	-2.161318e+00
1.017428e+01	-2.180829e+00
1.023305e+01	-2.200585e+00
1.029215e+01	-2.220887e+00
1.035160e+01	-2.240701e+00
1.041139e+01	-2.260932e+00
1.047153e+01	-2.281412e+00
1.053201e+01	-2.301886e+00
1.059284e+01	-2.322690e+00
1.065403e+01	-2.343299e+00
1.071556e+01	-2.364318e+00
1.077746e+01	-2.385371e+00
1.083971e+01	-2.406740e+00
1.090232e+01	-2.427967e+00
1.096529e+01	-2.449443e+00
1.102862e+01	-2.471089e+00
1.109232e+01	-2.492770e+00
1.115639e+01	-2.514797e+00
1.122083e+01	-2.536779e+00
1.128564e+01	-2.558756e+00
1.135083e+01	-2.581532e+00
1.141639e+01	-2.603941e+00
1.148233e+01	-2.626514e+00
1.154865e+01	-2.649403e+00
1.161536e+01	-2.672341e+00
1.168245e+01	-2.695120e+00
1.174992e+01	-2.718501e+00
1.181779e+01	-2.741859e+00
1.188605e+01	-2.765365e+00
1.195470e+01	-2.789014e+00
1.202375e+01	-2.812640e+00
1.209320e+01	-2.836657e+00
1.216305e+01	-2.860511e+00
1.223330e+01	-2.884790e+00
1.230396e+01	-2.909287e+00
1.237503e+01	-2.933532e+00
1.244651e+01	-2.958364e+00
1.251840e+01	-2.983028e+00
1.259070e+01	-3.008209e+00
1.266343e+01	-3.033218e+00
1.273657e+01	-3.058355e+00
1.281014e+01	-3.083670e+00
1.288413e+01	-3.109405e+00
1.295855e+01	-3.135029e+00
1.303339e+01	-3.160778e+00
1.310867e+01	-3.186532e+00
1.318439e+01	-3.212742e+00
1.326054e+01	-3.238847e+00
1.333713e+01	-3.265205e+00
1.341417e+01	-3.291738e+00
1.349165e+01	-3.318443e+00
1.356958e+01	-3.345129e+00
1.364795e+01	-3.372311e+00
1.372678e+01	-3.399041e+00
1.380607e+01	-3.426332e+00
1.388581e+01	-3.453796e+00
1.396602e+01	-3.481158e+00
1.404668e+01	-3.509024e+00
1.412782e+01	-3.536825e+00
1.420942e+01	-3.564762e+00
1.429149e+01	-3.592811e+00
1.437404e+01	-3.621287e+00
1.445706e+01	-3.649249e+00
1.454057e+01	-3.678140e+00
1.462455e+01	-3.706637e+00
1.470902e+01	-3.735443e+00
1.479398e+01	-3.764320e+00
1.487943e+01	-3.793367e+00
1.496537e+01	-3.822389e+00
1.505181e+01	-3.851602e+00
1.513875e+01	-3.881185e+00
1.522619e+01	-3.911233e+00
1.531414e+01	-3.940705e+00
1.540259e+01	-3.970657e+00
1.549156e+01	-4.000692e+00
1.558103e+01	-4.031066e+00
1.567103e+01	-4.061047e+00
1.576155e+01	-4.091558e+00
1.585258e+01	-4.122250e+00
1.594415e+01	-4.153005e+00
1.603624e+01	-4.183622e+00
1.612886e+01	-4.214847e+00
1.622202e+01	-4.245940e+00
1.631572e+01	-4.277430e+00
1.640996e+01	-4.308948e+00
1.650474e+01	-4.340491e+00
1.660008e+01	-4.371904e+00
1.669596e+01	-4.403580e+00
1.679239e+01	-4.435716e+00
1.688938e+01	-4.467948e+00
1.698694e+01	-4.500128e+00
1.708505e+01	-4.532279e+00
1.718373e+01	-4.564673e+00
1.728299e+01	-4.597424e+00
1.738281e+01	-4.629927e+00
1.748322e+01	-4.663159e+00
1.758420e+01	-4.695895e+00
1.768576e+01	-4.729379e+00
1.778792e+01	-4.762246e+00
1.789066e+01	-4.795822e+00
1.799399e+01	-4.829246e+00
1.809793e+01	-4.862677e+00
1.820246e+01	-4.896710e+00
1.830760e+01	-4.930385e+00
1.841334e+01	-4.964652e+00
1.851969e+01	-4.998746e+00
1.862666e+01	-5.033257e+00
1.873425e+01	-5.067233e+00
1.884246e+01	-5.101865e+00
1.895129e+01	-5.136674e+00
1.906075e+01	-5.171068e+00
1.917085e+01	-5.205916e+00
1.928158e+01	-5.240960e+00
1.939295e+01	-5.276442e+00
1.950496e+01	-5.311246e+00
1.961762e+01	-5.346965e+00
1.973093e+01	-5.382346e+00
1.984490e+01	-5.417802e+00
1.995952e+01	-5.453938e+00
2.007480e+01	-5.489472e+00
2.019076e+01	-5.525487e+00
2.030738e+01	-5.561627e+00
2.042467e+01	-5.597812e+00
2.054264e+01	-5.633947e+00
2.066130e+01	-5.670590e+00
2.078064e+01	-5.706931e+00
2.090066e+01	-5.743727e+00
2.102139e+01	-5.780411e+00
2.114280e+01	-5.817409e+00
2.126492e+01	-5.854144e+00
2.138775e+01	-5.891145e+00
2.151128e+01	-5.928570e+00
2.163553e+01	-5.965967e+00
2.176050e+01	-6.002957e+00
2.188619e+01	-6.040410e+00
2.201260e+01	-6.078107e+00
2.213974e+01	-6.116428e+00
2.226762e+01	-6.154102e+00
2.239624e+01	-6.191750e+00
2.252560e+01	-6.229725e+00
2.265571e+01	-6.268212e+00
2.278656e+01	-6.306388e+00
2.291818e+01	-6.344305e+00
2.305055e+01	-6.383143e+00
2.318369e+01	-6.421842e+00
2.331760e+01	-6.460463e+00
2.345228e+01	-6.499281e+00
2.358774e+01	-6.538074e+00
2.372398e+01	-6.576991e+00
2.386101e+01	-6.616148e+00
2.399883e+01	-6.655281e+00
2.413745e+01	-6.694518e+00
2.427686e+01	-6.734153e+00
2.441709e+01	-6.773221e+00
2.455812e+01	-6.813185e+00
2.469997e+01	-6.852759e+00
2.484263e+01	-6.892711e+00
2.498612e+01	-6.932232e+00
2.513044e+01	-6.971752e+00
2.527559e+01	-7.012238e+00
2.542158e+01	-7.051841e+00
2.556842e+01	-7.092353e+00
2.571610e+01	-7.132298e+00
2.586463e+01	-7.172893e+00
2.601403e+01	-7.213822e+00
2.616428e+01	-7.254672e+00
2.631541e+01	-7.294716e+00
2.646740e+01	-7.335418e+00
2.662028e+01	-7.376952e+00
2.677404e+01	-7.417630e+00
2.692868e+01	-7.458630e+00
2.708422e+01	-7.499450e+00
2.724066e+01	-7.540424e+00
2.739800e+01	-7.582036e+00
2.755625e+01	-7.623133e+00
2.771541e+01	-7.664345e+00
2.787550e+01	-7.706238e+00
2.803650e+01	-7.747124e+00
2.819844e+01	-7.789680e+00
2.836131e+01	-7.830734e+00
2.852513e+01	-7.872958e+00
2.868989e+01	-7.914836e+00
2.885560e+01	-7.957016e+00
2.902227e+01	-7.998785e+00
2.918990e+01	-8.041140e+00
2.935850e+01	-8.083322e+00
2.952807e+01	-8.125476e+00
2.969863e+01	-8.167812e+00
2.987016e+01	-8.210321e+00
3.004269e+01	-8.252526e+00
3.021622e+01	-8.294765e+00
3.039075e+01	-8.337869e+00
3.056628e+01	-8.380991e+00
3.074283e+01	-8.423511e+00
3.092040e+01	-8.466513e+00
3.109900e+01	-8.509461e+00
3.127862e+01	-8.552473e+00
3.145929e+01	-8.595609e+00
3.164099e+01	-8.638825e+00
3.182375e+01	-8.682047e+00
3.200756e+01	-8.724865e+00
3.219244e+01	-8.768299e+00
3.237838e+01	-8.811746e+00
3.256540e+01	-8.855438e+00
3.275349e+01	-8.899313e+00
3.294268e+01	-8.942335e+00
3.313295e+01	-8.986518e+00
3.332433e+01	-9.029664e+00
3.351681e+01	-9.073530e+00
3.371040e+01	-9.117775e+00
3.390511e+01	-9.161798e+00
3.410094e+01	-9.205821e+00
3.429791e+01	-9.249951e+00
3.449601e+01	-9.293826e+00
3.469526e+01	-9.337984e+00
3.489566e+01	-9.381851e+00
3.509721e+01	-9.426687e+00
3.529993e+01	-9.470636e+00
3.550382e+01	-9.515334e+00
3.570889e+01	-9.559533e+00
3.591515e+01	-9.603967e+00
3.612259e+01	-9.648791e+00
3.633123e+01	-9.693096e+00
3.654108e+01	-9.737968e+00
3.675214e+01	-9.782234e+00
3.696442e+01	-9.827316e+00
3.717792e+01	-9.872341e+00
3.739266e+01	-9.917292e+00
3.760864e+01	-9.962036e+00
3.782587e+01	-1.000755e+01
3.804435e+01	-1.005204e+01
3.826409e+01	-1.009708e+01
3.848510e+01	-1.014270e+01
3.870739e+01	-1.018727e+01
3.893096e+01	-1.023298e+01
3.915583e+01	-1.027846e+01
3.938199e+01	-1.032400e+01
3.960946e+01	-1.036918e+01
3.983824e+01	-1.041474e+01
4.006834e+01	-1.046019e+01
4.029978e+01	-1.050618e+01
4.053255e+01	-1.055144e+01
4.076666e+01	-1.059682e+01
4.100213e+01	-1.064255e+01
4.123896e+01	-1.068891e+01
4.147715e+01	-1.073412e+01
4.171672e+01	-1.078030e+01
4.195767e+01	-1.082577e+01
4.220002e+01	-1.087192e+01
4.244377e+01	-1.091692e+01
4.268892e+01	-1.096365e+01
4.293549e+01	-1.100959e+01
4.318348e+01	-1.105580e+01
4.343291e+01	-1.110121e+01
4.368377e+01	-1.114813e+01
4.393609e+01	-1.119377e+01
4.418986e+01	-1.124080e+01
4.444510e+01	-1.128650e+01
4.470182e+01	-1.133274e+01
4.496001e+01	-1.137882e+01
4.521970e+01	-1.142585e+01
4.548089e+01	-1.147257e+01
4.574358e+01	-1.151855e+01
4.600779e+01	-1.156538e+01
4.627353e+01	-1.161148e+01
4.654081e+01	-1.165824e+01
4.680963e+01	-1.170552e+01
4.708000e+01	-1.175193e+01
4.735193e+01	-1.179842e+01
4.762543e+01	-1.184485e+01
4.790051e+01	-1.189202e+01
4.817719e+01	-1.193951e+01
4.845545e+01	-1.198554e+01
4.873533e+01	-1.203206e+01
4.901682e+01	-1.207977e+01
4.929994e+01	-1.212634e+01
4.958470e+01	-1.217342e+01
4.987110e+01	-1.221977e+01
5.015915e+01	-1.226749e+01
5.044887e+01	-1.231439e+01
5.074026e+01	-1.236102e+01
5.103333e+01	-1.240732e+01
5.132810e+01	-1.245644e+01
5.162457e+01	-1.250377e+01
5.192275e+01	-1.255038e+01
5.222265e+01	-1.259788e+01
5.252429e+01	-1.264530e+01
5.282767e+01	-1.269165e+01
5.313280e+01	-1.273949e+01
5.343969e+01	-1.278651e+01
5.374836e+01	-1.283416e+01
5.405880e+01	-1.288147e+01
5.437105e+01	-1.292976e+01
5.468509e+01	-1.297653e+01
5.500095e+01	-1.302340e+01
5.531863e+01	-1.307163e+01
5.563815e+01	-1.311957e+01
5.595951e+01	-1.316688e+01
5.628273e+01	-1.321523e+01
5.660782e+01	-1.326143e+01
5.693479e+01	-1.331005e+01
5.726364e+01	-1.335743e+01
5.759439e+01	-1.340560e+01
5.792705e+01	-1.345307e+01
5.826164e+01	-1.350108e+01
5.859815e+01	-1.354904e+01
5.893662e+01	-1.359632e+01
5.927703e+01	-1.364395e+01
5.961941e+01	-1.369199e+01
5.996377e+01	-1.373963e+01
6.031012e+01	-1.378858e+01
6.065847e+01	-1.383603e+01
6.100883e+01	-1.388379e+01
6.136121e+01	-1.393276e+01
6.171563e+01	-1.397967e+01
6.207210e+01	-1.402777e+01
6.243063e+01	-1.407600e+01
6.279122e+01	-1.412393e+01
6.315390e+01	-1.417225e+01
6.351868e+01	-1.422069e+01
6.388556e+01	-1.426855e+01
6.425456e+01	-1.431773e+01
6.462569e+01	-1.436471e+01
6.499897e+01	-1.441314e+01
6.537440e+01	-1.446126e+01
6.575200e+01	-1.450958e+01
6.613178e+01	-1.455796e+01
6.651375e+01	-1.460708e+01
6.689793e+01	-1.465464e+01
6.728433e+01	-1.470256e+01
6.767297e+01	-1.475108e+01
6.806384e+01	-1.479913e+01
6.845698e+01	-1.484723e+01
6.885238e+01	-1.489579e+01
6.925007e+01	-1.494506e+01
6.965005e+01	-1.499348e+01
7.005235e+01	-1.504190e+01
7.045697e+01	-1.509064e+01
7.086393e+01	-1.513806e+01
7.127323e+01	-1.518719e+01
7.168490e+01	-1.523425e+01
7.209895e+01	-1.528343e+01
7.251539e+01	-1.533278e+01
7.293424e+01	-1.538147e+01
7.335551e+01	-1.542969e+01
7.377920e+01	-1.547911e+01
7.420535e+01	-1.552683e+01
7.463396e+01	-1.557525e+01
7.506504e+01	-1.562389e+01
7.549861e+01	-1.567290e+01
7.593469e+01	-1.572107e+01
7.637328e+01	-1.577006e+01
7.681441e+01	-1.581868e+01
7.725809e+01	-1.586851e+01
7.770433e+01	-1.591691e+01
7.815315e+01	-1.596504e+01
7.860456e+01	-1.601436e+01
7.905857e+01	-1.606312e+01
7.951521e+01	-1.611294e+01
7.997449e+01	-1.616056e+01
8.043642e+01	-1.620991e+01
8.090102e+01	-1.625874e+01
8.136830e+01	-1.630608e+01
8.183828e+01	-1.635649e+01
8.231097e+01	-1.640518e+01
8.278640e+01	-1.645400e+01
8.326457e+01	-1.650236e+01
8.374550e+01	-1.655222e+01
8.422921e+01	-1.659959e+01
8.471572e+01	-1.664961e+01
8.520503e+01	-1.669980e+01
8.569717e+01	-1.674698e+01
8.619215e+01	-1.679582e+01
8.669000e+01	-1.684497e+01
8.719071e+01	-1.689329e+01
8.769432e+01	-1.694435e+01
8.820084e+01	-1.699270e+01
8.871029e+01	-1.704108e+01
8.922267e+01	-1.708981e+01
8.973802e+01	-1.713895e+01
9.025634e+01	-1.718843e+01
9.077766e+01	-1.723799e+01
9.130199e+01	-1.728731e+01
9.182935e+01	-1.733477e+01
9.235975e+01	-1.738630e+01
9.289321e+01	-1.743391e+01
9.342976e+01	-1.748258e+01
9.396941e+01	-1.753222e+01
9.451217e+01	-1.758095e+01
9.505807e+01	-1.763087e+01
9.560712e+01	-1.767977e+01
9.615934e+01	-1.772856e+01
9.671476e+01	-1.777707e+01
9.727338e+01	-1.782783e+01
9.783522e+01	-1.787712e+01
9.840032e+01	-1.792500e+01
9.896867e+01	-1.797455e+01
9.954031e+01	-1.802325e+01
1.001153e+02	-1.807301e+01
1.006935e+02	-1.812337e+01
1.012751e+02	-1.817236e+01
1.018601e+02	-1.822182e+01
1.024484e+02	-1.827037e+01
1.030402e+02	-1.831939e+01
1.036353e+02	-1.836943e+01
1.042339e+02	-1.841811e+01
1.048360e+02	-1.846759e+01
1.054415e+02	-1.851736e+01
1.060505e+02	-1.856522e+01
1.066631e+02	-1.861612e+01
1.072791e+02	-1.866516e+01
1.078988e+02	-1.871512e+01
1.085220e+02	-1.876232e+01
1.091488e+02	-1.881345e+01
1.097793e+02	-1.886182e+01
1.104133e+02	-1.891132e+01
1.110511e+02	-1.896156e+01
1.116925e+02	-1.901116e+01
1.123376e+02	-1.905961e+01
1.129865e+02	-1.911069e+01
1.136391e+02	-1.915850e+01
1.142955e+02	-1.920973e+01
1.149556e+02	-1.925810e+01
1.156196e+02	-1.930786e+01
1.162874e+02	-1.935724e+01
1.169591e+02	-1.940679e+01
1.176347e+02	-1.945491e+01
1.183141e+02	-1.950591e+01
1.189975e+02	-1.955495e+01
1.196848e+02	-1.960452e+01
1.203761e+02	-1.965363e+01
1.210714e+02	-1.970372e+01
1.217707e+02	-1.975181e+01
1.224740e+02	-1.980108e+01
1.231814e+02	-1.985053e+01
1.238929e+02	-1.990107e+01
1.246085e+02	-1.995176e+01
1.253283e+02	-1.999939e+01
1.260522e+02	-2.004936e+01
1.267802e+02	-2.009778e+01
1.275125e+02	-2.014801e+01
1.282490e+02	-2.019813e+01
1.289898e+02	-2.024834e+01
1.297348e+02	-2.029675e+01
1.304842e+02	-2.034726e+01
1.312378e+02	-2.039691e+01
1.319959e+02	-2.044649e+01
1.327583e+02	-2.049563e+01
1.335251e+02	-2.054592e+01
1.342963e+02	-2.059486e+01
1.350720e+02	-2.064475e+01
1.358522e+02	-2.069300e+01
1.366368e+02	-2.074388e+01
1.374260e+02	-2.079428e+01
1.382198e+02	-2.084300e+01
1.390182e+02	-2.089320e+01
1.398211e+02	-2.094343e+01
1.406287e+02	-2.099130e+01
1.414410e+02	-2.104303e+01
1.422579e+02	-2.109101e+01
1.430796e+02	-2.114089e+01
1.439060e+02	-2.118955e+01
1.447372e+02	-2.123893e+01
1.455732e+02	-2.129006e+01
1.464141e+02	-2.134009e+01
1.472597e+02	-2.138996e+01
1.481103e+02	-2.143961e+01
1.489658e+02	-2.148833e+01
1.498262e+02	-2.153840e+01
1.506916e+02	-2.158844e+01
1.515620e+02	-2.163587e+01
1.524374e+02	-2.168625e+01
1.533179e+02	-2.173585e+01
1.542034e+02	-2.178717e+01
1.550941e+02	-2.183377e+01
1.559899e+02	-2.188578e+01
1.568909e+02	-2.193794e+01
1.577971e+02	-2.198576e+01
1.587085e+02	-2.203546e+01
1.596252e+02	-2.208665e+01
1.605472e+02	-2.213431e+01
1.614745e+02	-2.218484e+01
1.624072e+02	-2.223525e+01
1.633453e+02	-2.228333e+01
1.642887e+02	-2.233560e+01
1.652377e+02	-2.238392e+01
1.661921e+02	-2.243378e+01
1.671520e+02	-2.248316e+01
1.681175e+02	-2.253327e+01
1.690885e+02	-2.258426e+01
1.700651e+02	-2.263143e+01
1.710474e+02	-2.268250e+01
1.720354e+02	-2.272997e+01
1.730291e+02	-2.278080e+01
1.740285e+02	-2.283099e+01
1.750337e+02	-2.288148e+01
1.760446e+02	-2.293054e+01
1.770615e+02	-2.297969e+01
1.780842e+02	-2.303126e+01
1.791128e+02	-2.308036e+01
1.801473e+02	-2.313138e+01
1.811878e+02	-2.318176e+01
1.822344e+02	-2.323215e+01
1.832870e+02	-2.328015e+01
1.843456e+02	-2.332996e+01
1.854104e+02	-2.338166e+01
1.864813e+02	-2.342956e+01
1.875584e+02	-2.348042e+01
1.886418e+02	-2.352846e+01
1.897313e+02	-2.358024e+01
1.908272e+02	-2.363134e+01
1.919294e+02	-2.367667e+01
1.930380e+02	-2.372907e+01
1.941530e+02	-2.377772e+01
1.952744e+02	-2.382776e+01
1.964023e+02	-2.388077e+01
1.975367e+02	-2.392918e+01
1.986777e+02	-2.397818e+01
1.998252e+02	-2.402563e+01
2.009794e+02	-2.407754e+01
2.021403e+02	-2.412779e+01
2.033078e+02	-2.418040e+01
2.044821e+02	-2.422858e+01
2.056632e+02	-2.427652e+01
2.068511e+02	-2.432526e+01
2.080459e+02	-2.437603e+01
2.092475e+02	-2.442764e+01
2.104561e+02	-2.447748e+01
2.116717e+02	-2.452985e+01
2.128943e+02	-2.457571e+01
2.141240e+02	-2.462669e+01
2.153608e+02	-2.467634e+01
2.166047e+02	-2.472564e+01
2.178558e+02	-2.477511e+01
2.191141e+02	-2.482395e+01
2.203797e+02	-2.487414e+01
2.216526e+02	-2.492468e+01
2.229329e+02	-2.497710e+01
2.242205e+02	-2.502645e+01
2.255156e+02	-2.507621e+01
2.268182e+02	-2.512641e+01
2.281283e+02	-2.517594e+01
2.294459e+02	-2.522585e+01
2.307712e+02	-2.527677e+01
2.321041e+02	-2.532493e+01
2.334447e+02	-2.537087e+01
2.347931e+02	-2.542174e+01
2.361493e+02	-2.547484e+01
2.375133e+02	-2.552503e+01
2.388851e+02	-2.557116e+01
2.402649e+02	-2.562408e+01
2.416527e+02	-2.567380e+01
2.430484e+02	-2.572334e+01
2.444523e+02	-2.577262e+01
2.458642e+02	-2.582307e+01
2.472843e+02	-2.587421e+01
2.487126e+02	-2.592593e+01
2.501492e+02	-2.597485e+01
2.515940e+02	-2.602304e+01
2.530472e+02	-2.606984e+01
2.545088e+02	-2.612305e+01
2.559789e+02	-2.617242e+01
2.574574e+02	-2.622252e+01
2.589444e+02	-2.627218e+01
2.604401e+02	-2.632231e+01
2.619444e+02	-2.637214e+01
2.634574e+02	-2.642108e+01
2.649791e+02	-2.647074e+01
2.665096e+02	-2.652400e+01
2.680489e+02	-2.657561e+01
2.695972e+02	-2.662163e+01
2.711544e+02	-2.667129e+01
2.727205e+02	-2.672254e+01
2.742958e+02	-2.677500e+01
2.758801e+02	-2.682582e+01
2.774736e+02	-2.687189e+01
2.790762e+02	-2.692293e+01
2.806882e+02	-2.697270e+01
2.823094e+02	-2.702414e+01
2.839400e+02	-2.707508e+01
2.855800e+02	-2.712125e+01
2.872295e+02	-2.717410e+01
2.888886e+02	-2.722218e+01
2.905572e+02	-2.727358e+01
2.922354e+02	-2.732276e+01
2.939234e+02	-2.737257e+01
2.956211e+02	-2.742447e+01
2.973286e+02	-2.747304e+01
2.990459e+02	-2.751955e+01
3.007732e+02	-2.757750e+01
3.025104e+02	-2.762560e+01
3.042577e+02	-2.767523e+01
3.060151e+02	-2.772266e+01
3.077826e+02	-2.777071e+01
3.095604e+02	-2.782409e+01
3.113484e+02	-2.787167e+01
3.131467e+02	-2.792286e+01
3.149554e+02	-2.797169e+01
3.167746e+02	-2.802949e+01
3.186043e+02	-2.807855e+01
3.204445e+02	-2.812506e+01
3.222954e+02	-2.817544e+01
3.241570e+02	-2.821991e+01
3.260293e+02	-2.827158e+01
3.279124e+02	-2.832031e+01
3.298064e+02	-2.837826e+01
3.317114e+02	-2.842428e+01
3.336273e+02	-2.847425e+01
3.355544e+02	-2.852502e+01
3.374925e+02	-2.857201e+01
3.394418e+02	-2.862192e+01
3.414024e+02	-2.867292e+01
3.433744e+02	-2.872733e+01
3.453577e+02	-2.877551e+01
3.473525e+02	-2.882484e+01
3.493588e+02	-2.887118e+01
3.513766e+02	-2.892565e+01
3.534062e+02	-2.897527e+01
3.554474e+02	-2.901978e+01
3.575005e+02	-2.907340e+01
3.595654e+02	-2.912621e+01
3.616422e+02	-2.917611e+01
3.637311e+02	-2.922285e+01
3.658320e+02	-2.927671e+01
3.679450e+02	-2.932170e+01
3.700702e+02	-2.937321e+01
3.722077e+02	-2.942236e+01
3.743576e+02	-2.947509e+01
3.765199e+02	-2.952438e+01
3.786946e+02	-2.957152e+01
3.808820e+02	-2.963049e+01
3.830819e+02	-2.967245e+01
3.852946e+02	-2.972527e+01
3.875200e+02	-2.977596e+01
3.897583e+02	-2.982619e+01
3.920096e+02	-2.987480e+01
3.942738e+02	-2.992675e+01
3.965511e+02	-2.997346e+01
3.988416e+02	-3.002493e+01
4.011452e+02	-3.007558e+01
4.034622e+02	-3.013060e+01
4.057926e+02	-3.016855e+01
4.081365e+02	-3.022328e+01
4.104938e+02	-3.027559e+01
4.128648e+02	-3.032332e+01
4.152495e+02	-3.037597e+01
4.176480e+02	-3.042641e+01
4.200603e+02	-3.047468e+01
4.224866e+02	-3.052652e+01
4.249268e+02	-3.057669e+01
4.273812e+02	-3.063495e+01
4.298497e+02	-3.068113e+01
4.323325e+02	-3.072888e+01
4.348297e+02	-3.077828e+01
4.373412e+02	-3.083131e+01
4.398673e+02	-3.087961e+01
4.424079e+02	-3.093255e+01
4.449633e+02	-3.097612e+01
4.475334e+02	-3.102586e+01
4.501183e+02	-3.107708e+01
4.527182e+02	-3.112820e+01
4.553330e+02	-3.117700e+01
4.579630e+02	-3.123140e+01
4.606082e+02	-3.128273e+01
4.632687e+02	-3.132989e+01
4.659445e+02	-3.137568e+01
4.686358e+02	-3.142232e+01
4.713426e+02	-3.148048e+01
4.740650e+02	-3.153222e+01
4.768032e+02	-3.157372e+01
4.795572e+02	-3.162390e+01
4.823271e+02	-3.167950e+01
4.851130e+02	-3.173152e+01
4.879150e+02	-3.177579e+01
4.907332e+02	-3.183029e+01
4.935676e+02	-3.187574e+01
4.964185e+02	-3.192773e+01
4.992858e+02	-3.197856e+01
5.021696e+02	-3.202782e+01
5.050701e+02	-3.207799e+01
5.079874e+02	-3.213184e+01
5.109215e+02	-3.218366e+01
5.138726e+02	-3.222506e+01
5.168407e+02	-3.228087e+01
5.198259e+02	-3.233333e+01
5.228284e+02	-3.238128e+01
5.258482e+02	-3.243243e+01
5.288855e+02	-3.248105e+01
5.319403e+02	-3.254149e+01
5.350128e+02	-3.258380e+01
5.381030e+02	-3.263608e+01
5.412111e+02	-3.267928e+01
5.443371e+02	-3.273779e+01
5.474812e+02	-3.278220e+01
5.506434e+02	-3.282934e+01
5.538239e+02	-3.288380e+01
5.570228e+02	-3.293511e+01
5.602401e+02	-3.298667e+01
5.634760e+02	-3.303284e+01
5.667306e+02	-3.309411e+01
5.700040e+02	-3.312893e+01
5.732964e+02	-3.318310e+01
5.766077e+02	-3.324279e+01
5.799382e+02	-3.328837e+01
5.832879e+02	-3.333637e+01
5.866569e+02	-3.338348e+01
5.900454e+02	-3.343801e+01
5.934535e+02	-3.348786e+01
5.968813e+02	-3.354673e+01
6.003288e+02	-3.358710e+01
6.037963e+02	-3.363149e+01
6.072838e+02	-3.369391e+01
6.107914e+02	-3.373990e+01
6.143194e+02	-3.379309e+01
6.178676e+02	-3.384090e+01
6.214364e+02	-3.388938e+01
6.250258e+02	-3.393647e+01
6.286359e+02	-3.399185e+01
6.322669e+02	-3.403854e+01
6.359189e+02	-3.409379e+01
6.395919e+02	-3.413597e+01
6.432862e+02	-3.418609e+01
6.470017e+02	-3.423916e+01
6.507388e+02	-3.429380e+01
6.544974e+02	-3.434783e+01
6.582778e+02	-3.439310e+01
6.620800e+02	-3.444607e+01
6.659041e+02	-3.449263e+01
6.697504e+02	-3.455283e+01
6.736188e+02	-3.459202e+01
6.775096e+02	-3.464467e+01
6.814229e+02	-3.470170e+01
6.853587e+02	-3.474518e+01
6.893173e+02	-3.479229e+01
6.932988e+02	-3.483971e+01
6.973033e+02	-3.489734e+01
7.013309e+02	-3.495082e+01
