Frequency(Hz)	Magnitude(dB)
1.000000e+01	-1.565524e-05
1.005776e+01	-1.583661e-05
1.011585e+01	-1.602008e-05
1.017428e+01	-1.620568e-05
1.023305e+01	-1.639343e-05
1.029215e+01	-1.658335e-05
1.035160e+01	-1.677547e-05
1.041139e+01	-1.696982e-05
1.047153e+01	-1.716642e-05
1.053201e+01	-1.736530e-05
1.059284e+01	-1.756648e-05
1.065403e+01	-1.776999e-05
1.071556e+01	-1.797586e-05
1.077746e+01	-1.818412e-05
1.083971e+01	-1.839478e-05
1.090232e+01	-1.860789e-05
1.096529e+01	-1.882347e-05
1.102862e+01	-1.904154e-05
1.109232e+01	-1.926215e-05
1.115639e+01	-1.948530e-05
1.122083e+01	-1.971105e-05
1.128564e+01	-1.993940e-05
1.135083e+01	-2.017041e-05
1.141639e+01	-2.040408e-05
1.148233e+01	-2.064047e-05
1.154865e+01	-2.087960e-05
1.161536e+01	-2.112149e-05
1.168245e+01	-2.136619e-05
1.174992e+01	-2.161372e-05
1.181779e+01	-2.186412e-05
1.188605e+01	-2.211742e-05
1.195470e+01	-2.237366e-05
1.202375e+01	-2.263286e-05
1.209320e+01	-2.289507e-05
1.216305e+01	-2.316032e-05
1.223330e+01	-2.342863e-05
1.230396e+01	-2.370006e-05
1.237503e+01	-2.397463e-05
1.244651e+01	-2.425238e-05
1.251840e+01	-2.453335e-05
1.259070e+01	-2.481758e-05
1.266343e+01	-2.510510e-05
1.273657e+01	-2.539595e-05
1.281014e+01	-2.569016e-05
1.288413e+01	-2.598779e-05
1.295855e+01	-2.628887e-05
1.303339e+01	-2.659343e-05
1.310867e+01	-2.690152e-05
1.318439e+01	-2.721318e-05
1.326054e+01	-2.752845e-05
1.333713e+01	-2.784738e-05
1.341417e+01	-2.816999e-05
1.349165e+01	-2.849635e-05
1.356958e+01	-2.882649e-05
1.364795e+01	-2.916045e-05
1.372678e+01	-2.949828e-05
1.380607e+01	-2.984003e-05
1.388581e+01	-3.018573e-05
1.396602e+01	-3.053544e-05
1.404668e+01	-3.088920e-05
1.412782e+01	-3.124706e-05
1.420942e+01	-3.160906e-05
1.429149e+01	-3.197526e-05
1.437404e+01	-3.234570e-05
1.445706e+01	-3.272043e-05
1.454057e+01	-3.309951e-05
1.462455e+01	-3.348297e-05
1.470902e+01	-3.387088e-05
1.479398e+01	-3.426328e-05
1.487943e+01	-3.466023e-05
1.496537e+01	-3.506178e-05
1.505181e+01	-3.546798e-05
1.513875e+01	-3.587888e-05
1.522619e+01	-3.629455e-05
1.531414e+01	-3.671503e-05
1.540259e+01	-3.714038e-05
1.549156e+01	-3.757066e-05
1.558103e+01	-3.800592e-05
1.567103e+01	-3.844623e-05
1.576155e+01	-3.889164e-05
1.585258e+01	-3.934221e-05
1.594415e+01	-3.979800e-05
1.603624e+01	-4.025907e-05
1.612886e+01	-4.072548e-05
1.622202e+01	-4.119729e-05
1.631572e+01	-4.167457e-05
1.640996e+01	-4.215738e-05
1.650474e+01	-4.264578e-05
1.660008e+01	-4.313984e-05
1.669596e+01	-4.363963e-05
1.679239e+01	-4.414520e-05
1.688938e+01	-4.465663e-05
1.698694e+01	-4.517399e-05
1.708505e+01	-4.569734e-05
1.718373e+01	-4.622676e-05
1.728299e+01	-4.676230e-05
1.738281e+01	-4.730405e-05
1.748322e+01	-4.785208e-05
1.758420e+01	-4.840646e-05
1.768576e+01	-4.896726e-05
1.778792e+01	-4.953455e-05
1.789066e+01	-5.010842e-05
1.799399e+01	-5.068894e-05
1.809793e+01	-5.127618e-05
1.820246e+01	-5.187023e-05
1.830760e+01	-5.247115e-05
1.841334e+01	-5.307904e-05
1.851969e+01	-5.369397e-05
1.862666e+01	-5.431603e-05
1.873425e+01	-5.494529e-05
1.884246e+01	-5.558184e-05
1.895129e+01	-5.622577e-05
1.906075e+01	-5.687716e-05
1.917085e+01	-5.753609e-05
1.928158e+01	-5.820266e-05
1.939295e+01	-5.887695e-05
1.950496e+01	-5.955905e-05
1.961762e+01	-6.024905e-05
1.973093e+01	-6.094705e-05
1.984490e+01	-6.165313e-05
1.995952e+01	-6.236740e-05
2.007480e+01	-6.308994e-05
2.019076e+01	-6.382085e-05
2.030738e+01	-6.456022e-05
2.042467e+01	-6.530817e-05
2.054264e+01	-6.606477e-05
2.066130e+01	-6.683015e-05
2.078064e+01	-6.760439e-05
2.090066e+01	-6.838760e-05
2.102139e+01	-6.917988e-05
2.114280e+01	-6.998134e-05
2.126492e+01	-7.079209e-05
2.138775e+01	-7.161223e-05
2.151128e+01	-7.244187e-05
2.163553e+01	-7.328112e-05
2.176050e+01	-7.413010e-05
2.188619e+01	-7.498891e-05
2.201260e+01	-7.585767e-05
2.213974e+01	-7.673649e-05
2.226762e+01	-7.762550e-05
2.239624e+01	-7.852480e-05
2.252560e+01	-7.943452e-05
2.265571e+01	-8.035479e-05
2.278656e+01	-8.128571e-05
2.291818e+01	-8.222742e-05
2.305055e+01	-8.318004e-05
2.318369e+01	-8.414369e-05
2.331760e+01	-8.511851e-05
2.345228e+01	-8.610462e-05
2.358774e+01	-8.710216e-05
2.372398e+01	-8.811125e-05
2.386101e+01	-8.913203e-05
2.399883e+01	-9.016464e-05
2.413745e+01	-9.120922e-05
2.427686e+01	-9.226589e-05
2.441709e+01	-9.333480e-05
2.455812e+01	-9.441610e-05
2.469997e+01	-9.550993e-05
2.484263e+01	-9.661642e-05
2.498612e+01	-9.773574e-05
2.513044e+01	-9.886802e-05
2.527559e+01	-1.000134e-04
2.542158e+01	-1.011721e-04
2.556842e+01	-1.023442e-04
2.571610e+01	-1.035299e-04
2.586463e+01	-1.047293e-04
2.601403e+01	-1.059426e-04
2.616428e+01	-1.071699e-04
2.631541e+01	-1.084115e-04
2.646740e+01	-1.096675e-04
2.662028e+01	-1.109380e-04
2.677404e+01	-1.122232e-04
2.692868e+01	-1.135233e-04
2.708422e+01	-1.148385e-04
2.724066e+01	-1.161689e-04
2.739800e+01	-1.175148e-04
2.755625e+01	-1.188762e-04
2.771541e+01	-1.202534e-04
2.787550e+01	-1.216465e-04
2.803650e+01	-1.230558e-04
2.819844e+01	-1.244814e-04
2.836131e+01	-1.259236e-04
2.852513e+01	-1.273824e-04
2.868989e+01	-1.288581e-04
2.885560e+01	-1.303510e-04
2.902227e+01	-1.318611e-04
2.918990e+01	-1.333887e-04
2.935850e+01	-1.349341e-04
2.952807e+01	-1.364973e-04
2.969863e+01	-1.380786e-04
2.987016e+01	-1.396783e-04
3.004269e+01	-1.412964e-04
3.021622e+01	-1.429334e-04
3.039075e+01	-1.445893e-04
3.056628e+01	-1.462644e-04
3.074283e+01	-1.479588e-04
3.092040e+01	-1.496730e-04
3.109900e+01	-1.514069e-04
3.127862e+01	-1.531610e-04
3.145929e+01	-1.549354e-04
3.164099e+01	-1.567303e-04
3.182375e+01	-1.585460e-04
3.200756e+01	-1.603828e-04
3.219244e+01	-1.622408e-04
3.237838e+01	-1.641204e-04
3.256540e+01	-1.660218e-04
3.275349e+01	-1.679451e-04
3.294268e+01	-1.698908e-04
3.313295e+01	-1.718590e-04
3.332433e+01	-1.738500e-04
3.351681e+01	-1.758640e-04
3.371040e+01	-1.779014e-04
3.390511e+01	-1.799624e-04
3.410094e+01	-1.820473e-04
3.429791e+01	-1.841563e-04
3.449601e+01	-1.862898e-04
3.469526e+01	-1.884479e-04
3.489566e+01	-1.906311e-04
3.509721e+01	-1.928396e-04
3.529993e+01	-1.950736e-04
3.550382e+01	-1.973336e-04
3.570889e+01	-1.996197e-04
3.591515e+01	-2.019323e-04
3.612259e+01	-2.042717e-04
3.633123e+01	-2.066381e-04
3.654108e+01	-2.090321e-04
3.675214e+01	-2.114537e-04
3.696442e+01	-2.139034e-04
3.717792e+01	-2.163814e-04
3.739266e+01	-2.188882e-04
3.760864e+01	-2.214240e-04
3.782587e+01	-2.239892e-04
3.804435e+01	-2.265841e-04
3.826409e+01	-2.292091e-04
3.848510e+01	-2.318645e-04
3.870739e+01	-2.345506e-04
3.893096e+01	-2.372679e-04
3.915583e+01	-2.400166e-04
3.938199e+01	-2.427972e-04
3.960946e+01	-2.456100e-04
3.983824e+01	-2.484554e-04
4.006834e+01	-2.513337e-04
4.029978e+01	-2.542454e-04
4.053255e+01	-2.571908e-04
4.076666e+01	-2.601704e-04
4.100213e+01	-2.631844e-04
4.123896e+01	-2.662334e-04
4.147715e+01	-2.693177e-04
4.171672e+01	-2.724377e-04
4.195767e+01	-2.755939e-04
4.220002e+01	-2.787866e-04
4.244377e+01	-2.820163e-04
4.268892e+01	-2.852835e-04
4.293549e+01	-2.885884e-04
4.318348e+01	-2.919317e-04
4.343291e+01	-2.953137e-04
4.368377e+01	-2.987349e-04
4.393609e+01	-3.021957e-04
4.418986e+01	-3.056966e-04
4.444510e+01	-3.092380e-04
4.470182e+01	-3.128205e-04
4.496001e+01	-3.164445e-04
4.521970e+01	-3.201104e-04
4.548089e+01	-3.238189e-04
4.574358e+01	-3.275703e-04
4.600779e+01	-3.313651e-04
4.627353e+01	-3.352039e-04
4.654081e+01	-3.390872e-04
4.680963e+01	-3.430155e-04
4.708000e+01	-3.469892e-04
4.735193e+01	-3.510090e-04
4.762543e+01	-3.550754e-04
4.790051e+01	-3.591889e-04
4.817719e+01	-3.633500e-04
4.845545e+01	-3.675593e-04
4.873533e+01	-3.718174e-04
4.901682e+01	-3.761249e-04
4.929994e+01	-3.804822e-04
4.958470e+01	-3.848900e-04
4.987110e+01	-3.893488e-04
5.015915e+01	-3.938593e-04
5.044887e+01	-3.984221e-04
5.074026e+01	-4.030377e-04
5.103333e+01	-4.077068e-04
5.132810e+01	-4.124300e-04
5.162457e+01	-4.172079e-04
5.192275e+01	-4.220411e-04
5.222265e+01	-4.269303e-04
5.252429e+01	-4.318762e-04
5.282767e+01	-4.368793e-04
5.313280e+01	-4.419405e-04
5.343969e+01	-4.470602e-04
5.374836e+01	-4.522392e-04
5.405880e+01	-4.574783e-04
5.437105e+01	-4.627780e-04
5.468509e+01	-4.681391e-04
5.500095e+01	-4.735624e-04
5.531863e+01	-4.790484e-04
5.563815e+01	-4.845980e-04
5.595951e+01	-4.902119e-04
5.628273e+01	-4.958908e-04
5.660782e+01	-5.016355e-04
5.693479e+01	-5.074467e-04
5.726364e+01	-5.133253e-04
5.759439e+01	-5.192720e-04
5.792705e+01	-5.252875e-04
5.826164e+01	-5.313727e-04
5.859815e+01	-5.375285e-04
5.893662e+01	-5.437555e-04
5.927703e+01	-5.500547e-04
5.961941e+01	-5.564268e-04
5.996377e+01	-5.628727e-04
6.031012e+01	-5.693933e-04
6.065847e+01	-5.759895e-04
6.100883e+01	-5.826620e-04
6.136121e+01	-5.894119e-04
6.171563e+01	-5.962399e-04
6.207210e+01	-6.031470e-04
6.243063e+01	-6.101341e-04
6.279122e+01	-6.172022e-04
6.315390e+01	-6.243522e-04
6.351868e+01	-6.315849e-04
6.388556e+01	-6.389015e-04
6.425456e+01	-6.463028e-04
6.462569e+01	-6.537898e-04
6.499897e+01	-6.613636e-04
6.537440e+01	-6.690250e-04
6.575200e+01	-6.767753e-04
6.613178e+01	-6.846153e-04
6.651375e+01	-6.925461e-04
6.689793e+01	-7.005688e-04
6.728433e+01	-7.086844e-04
6.767297e+01	-7.168941e-04
6.806384e+01	-7.251988e-04
6.845698e+01	-7.335997e-04
6.885238e+01	-7.420979e-04
6.925007e+01	-7.506946e-04
6.965005e+01	-7.593908e-04
7.005235e+01	-7.681878e-04
7.045697e+01	-7.770867e-04
7.086393e+01	-7.860886e-04
7.127323e+01	-7.951948e-04
7.168490e+01	-8.044065e-04
7.209895e+01	-8.137249e-04
7.251539e+01	-8.231513e-04
7.293424e+01	-8.326868e-04
7.335551e+01	-8.423328e-04
7.377920e+01	-8.520905e-04
7.420535e+01	-8.619612e-04
7.463396e+01	-8.719462e-04
7.506504e+01	-8.820469e-04
7.549861e+01	-8.922646e-04
7.593469e+01	-9.026007e-04
7.637328e+01	-9.130565e-04
7.681441e+01	-9.236334e-04
7.725809e+01	-9.343328e-04
7.770433e+01	-9.451561e-04
7.815315e+01	-9.561048e-04
7.860456e+01	-9.671803e-04
7.905857e+01	-9.783840e-04
7.951521e+01	-9.897176e-04
7.997449e+01	-1.001182e-03
8.043642e+01	-1.012780e-03
8.090102e+01	-1.024512e-03
8.136830e+01	-1.036380e-03
8.183828e+01	-1.048385e-03
8.231097e+01	-1.060529e-03
8.278640e+01	-1.072814e-03
8.326457e+01	-1.085242e-03
8.374550e+01	-1.097813e-03
8.422921e+01	-1.110530e-03
8.471572e+01	-1.123394e-03
8.520503e+01	-1.136407e-03
8.569717e+01	-1.149571e-03
8.619215e+01	-1.162887e-03
8.669000e+01	-1.176358e-03
8.719071e+01	-1.189984e-03
8.769432e+01	-1.203769e-03
8.820084e+01	-1.217713e-03
8.871029e+01	-1.231818e-03
8.922267e+01	-1.246087e-03
8.973802e+01	-1.260521e-03
9.025634e+01	-1.275123e-03
9.077766e+01	-1.289893e-03
9.130199e+01	-1.304835e-03
9.182935e+01	-1.319949e-03
9.235975e+01	-1.335239e-03
9.289321e+01	-1.350706e-03
9.342976e+01	-1.366351e-03
9.396941e+01	-1.382178e-03
9.451217e+01	-1.398189e-03
9.505807e+01	-1.414384e-03
9.560712e+01	-1.430768e-03
9.615934e+01	-1.447341e-03
9.671476e+01	-1.464106e-03
9.727338e+01	-1.481065e-03
9.783522e+01	-1.498221e-03
9.840032e+01	-1.515575e-03
9.896867e+01	-1.533130e-03
9.954031e+01	-1.550889e-03
1.001153e+02	-1.568853e-03
1.006935e+02	-1.587025e-03
1.012751e+02	-1.605408e-03
1.018601e+02	-1.624003e-03
1.024484e+02	-1.642814e-03
1.030402e+02	-1.661843e-03
1.036353e+02	-1.681092e-03
1.042339e+02	-1.700564e-03
1.048360e+02	-1.720262e-03
1.054415e+02	-1.740188e-03
1.060505e+02	-1.760344e-03
1.066631e+02	-1.780734e-03
1.072791e+02	-1.801360e-03
1.078988e+02	-1.822225e-03
1.085220e+02	-1.843331e-03
1.091488e+02	-1.864682e-03
1.097793e+02	-1.886281e-03
1.104133e+02	-1.908129e-03
1.110511e+02	-1.930230e-03
1.116925e+02	-1.952587e-03
1.123376e+02	-1.975203e-03
1.129865e+02	-1.998081e-03
1.136391e+02	-2.021224e-03
1.142955e+02	-2.044635e-03
1.149556e+02	-2.068317e-03
1.156196e+02	-2.092273e-03
1.162874e+02	-2.116507e-03
1.169591e+02	-2.141021e-03
1.176347e+02	-2.165819e-03
1.183141e+02	-2.190905e-03
1.189975e+02	-2.216280e-03
1.196848e+02	-2.241950e-03
1.203761e+02	-2.267917e-03
1.210714e+02	-2.294184e-03
1.217707e+02	-2.320756e-03
1.224740e+02	-2.347635e-03
1.231814e+02	-2.374826e-03
1.238929e+02	-2.402331e-03
1.246085e+02	-2.430155e-03
1.253283e+02	-2.458301e-03
1.260522e+02	-2.486773e-03
1.267802e+02	-2.515574e-03
1.275125e+02	-2.544709e-03
1.282490e+02	-2.574182e-03
1.289898e+02	-2.603995e-03
1.297348e+02	-2.634154e-03
1.304842e+02	-2.664662e-03
1.312378e+02	-2.695523e-03
1.319959e+02	-2.726742e-03
1.327583e+02	-2.758322e-03
1.335251e+02	-2.790268e-03
1.342963e+02	-2.822583e-03
1.350720e+02	-2.855273e-03
1.358522e+02	-2.888341e-03
1.366368e+02	-2.921792e-03
1.374260e+02	-2.955630e-03
1.382198e+02	-2.989860e-03
1.390182e+02	-3.024486e-03
1.398211e+02	-3.059513e-03
1.406287e+02	-3.094946e-03
1.414410e+02	-3.130789e-03
1.422579e+02	-3.167046e-03
1.430796e+02	-3.203724e-03
1.439060e+02	-3.240826e-03
1.447372e+02	-3.278358e-03
1.455732e+02	-3.316324e-03
1.464141e+02	-3.354729e-03
1.472597e+02	-3.393580e-03
1.481103e+02	-3.432879e-03
1.489658e+02	-3.472634e-03
1.498262e+02	-3.512849e-03
1.506916e+02	-3.553530e-03
1.515620e+02	-3.594682e-03
1.524374e+02	-3.636309e-03
1.533179e+02	-3.678419e-03
1.542034e+02	-3.721016e-03
1.550941e+02	-3.764107e-03
1.559899e+02	-3.807696e-03
1.568909e+02	-3.851789e-03
1.577971e+02	-3.896393e-03
1.587085e+02	-3.941513e-03
1.596252e+02	-3.987156e-03
1.605472e+02	-4.033326e-03
1.614745e+02	-4.080032e-03
1.624072e+02	-4.127277e-03
1.633453e+02	-4.175070e-03
1.642887e+02	-4.223416e-03
1.652377e+02	-4.272321e-03
1.661921e+02	-4.321792e-03
1.671520e+02	-4.371836e-03
1.681175e+02	-4.422459e-03
1.690885e+02	-4.473668e-03
1.700651e+02	-4.525469e-03
1.710474e+02	-4.577870e-03
1.720354e+02	-4.630878e-03
1.730291e+02	-4.684499e-03
1.740285e+02	-4.738740e-03
1.750337e+02	-4.793610e-03
1.760446e+02	-4.849114e-03
1.770615e+02	-4.905260e-03
1.780842e+02	-4.962056e-03
1.791128e+02	-5.019510e-03
1.801473e+02	-5.077628e-03
1.811878e+02	-5.136419e-03
1.822344e+02	-5.195890e-03
1.832870e+02	-5.256049e-03
1.843456e+02	-5.316904e-03
1.854104e+02	-5.378464e-03
1.864813e+02	-5.440736e-03
1.875584e+02	-5.503728e-03
1.886418e+02	-5.567449e-03
1.897313e+02	-5.631907e-03
1.908272e+02	-5.697112e-03
1.919294e+02	-5.763070e-03
1.930380e+02	-5.829792e-03
1.941530e+02	-5.897286e-03
1.952744e+02	-5.965560e-03
1.964023e+02	-6.034625e-03
1.975367e+02	-6.104488e-03
1.986777e+02	-6.175160e-03
1.998252e+02	-6.246649e-03
2.009794e+02	-6.318965e-03
2.021403e+02	-6.392118e-03
2.033078e+02	-6.466117e-03
2.044821e+02	-6.540972e-03
2.056632e+02	-6.616693e-03
2.068511e+02	-6.693290e-03
2.080459e+02	-6.770773e-03
2.092475e+02	-6.849152e-03
2.104561e+02	-6.928438e-03
2.116717e+02	-7.008641e-03
2.128943e+02	-7.089771e-03
2.141240e+02	-7.171840e-03
2.153608e+02	-7.254858e-03
2.166047e+02	-7.338836e-03
2.178558e+02	-7.423785e-03
2.191141e+02	-7.509717e-03
2.203797e+02	-7.596643e-03
2.216526e+02	-7.684574e-03
2.229329e+02	-7.773522e-03
2.242205e+02	-7.863498e-03
2.255156e+02	-7.954515e-03
2.268182e+02	-8.046585e-03
2.281283e+02	-8.139719e-03
2.294459e+02	-8.233930e-03
2.307712e+02	-8.329230e-03
2.321041e+02	-8.425633e-03
2.334447e+02	-8.523150e-03
2.347931e+02	-8.621794e-03
2.361493e+02	-8.721579e-03
2.375133e+02	-8.822518e-03
2.388851e+02	-8.924624e-03
2.402649e+02	-9.027910e-03
2.416527e+02	-9.132391e-03
2.430484e+02	-9.238079e-03
2.444523e+02	-9.344989e-03
2.458642e+02	-9.453135e-03
2.472843e+02	-9.562531e-03
2.487126e+02	-9.673191e-03
2.501492e+02	-9.785131e-03
2.515940e+02	-9.898365e-03
2.530472e+02	-1.001291e-02
2.545088e+02	-1.012877e-02
2.559789e+02	-1.024598e-02
2.574574e+02	-1.036454e-02
2.589444e+02	-1.048447e-02
2.604401e+02	-1.060579e-02
2.619444e+02	-1.072850e-02
2.634574e+02	-1.085264e-02
2.649791e+02	-1.097821e-02
2.665096e+02	-1.110524e-02
2.680489e+02	-1.123373e-02
2.695972e+02	-1.136370e-02
2.711544e+02	-1.149518e-02
2.727205e+02	-1.162817e-02
2.742958e+02	-1.176270e-02
2.758801e+02	-1.189879e-02
2.774736e+02	-1.203645e-02
2.790762e+02	-1.217570e-02
2.806882e+02	-1.231656e-02
2.823094e+02	-1.245904e-02
2.839400e+02	-1.260317e-02
2.855800e+02	-1.274897e-02
2.872295e+02	-1.289645e-02
2.888886e+02	-1.304563e-02
2.905572e+02	-1.319654e-02
2.922354e+02	-1.334919e-02
2.939234e+02	-1.350360e-02
2.956211e+02	-1.365980e-02
2.973286e+02	-1.381780e-02
2.990459e+02	-1.397762e-02
3.007732e+02	-1.413929e-02
3.025104e+02	-1.430283e-02
3.042577e+02	-1.446825e-02
3.060151e+02	-1.463559e-02
3.077826e+02	-1.480485e-02
3.095604e+02	-1.497608e-02
3.113484e+02	-1.514927e-02
3.131467e+02	-1.532447e-02
3.149554e+02	-1.550169e-02
3.167746e+02	-1.568096e-02
3.186043e+02	-1.586229e-02
3.204445e+02	-1.604572e-02
3.222954e+02	-1.623127e-02
3.241570e+02	-1.641895e-02
3.260293e+02	-1.660881e-02
3.279124e+02	-1.680085e-02
3.298064e+02	-1.699511e-02
3.317114e+02	-1.719161e-02
3.336273e+02	-1.739038e-02
3.355544e+02	-1.759144e-02
3.374925e+02	-1.779482e-02
3.394418e+02	-1.800055e-02
3.414024e+02	-1.820866e-02
3.433744e+02	-1.841916e-02
3.453577e+02	-1.863209e-02
3.473525e+02	-1.884748e-02
3.493588e+02	-1.906535e-02
3.513766e+02	-1.928573e-02
3.534062e+02	-1.950866e-02
3.554474e+02	-1.973416e-02
3.575005e+02	-1.996226e-02
3.595654e+02	-2.019299e-02
3.616422e+02	-2.042637e-02
3.637311e+02	-2.066245e-02
3.658320e+02	-2.090126e-02
3.679450e+02	-2.114281e-02
3.700702e+02	-2.138715e-02
3.722077e+02	-2.163431e-02
3.743576e+02	-2.188431e-02
3.765199e+02	-2.213720e-02
3.786946e+02	-2.239300e-02
3.808820e+02	-2.265175e-02
3.830819e+02	-2.291348e-02
3.852946e+02	-2.317823e-02
3.875200e+02	-2.344603e-02
3.897583e+02	-2.371691e-02
3.920096e+02	-2.399092e-02
3.942738e+02	-2.426808e-02
3.965511e+02	-2.454844e-02
3.988416e+02	-2.483202e-02
4.011452e+02	-2.511887e-02
4.034622e+02	-2.540903e-02
4.057926e+02	-2.570252e-02
4.081365e+02	-2.599940e-02
4.104938e+02	-2.629969e-02
4.128648e+02	-2.660345e-02
4.152495e+02	-2.691070e-02
4.176480e+02	-2.722148e-02
4.200603e+02	-2.753585e-02
4.224866e+02	-2.785383e-02
4.249268e+02	-2.817548e-02
4.273812e+02	-2.850082e-02
4.298497e+02	-2.882991e-02
4.323325e+02	-2.916279e-02
4.348297e+02	-2.949950e-02
4.373412e+02	-2.984008e-02
4.398673e+02	-3.018458e-02
4.424079e+02	-3.053304e-02
4.449633e+02	-3.088551e-02
4.475334e+02	-3.124204e-02
4.501183e+02	-3.160267e-02
4.527182e+02	-3.196744e-02
4.553330e+02	-3.233641e-02
4.579630e+02	-3.270962e-02
4.606082e+02	-3.308712e-02
4.632687e+02	-3.346896e-02
4.659445e+02	-3.385520e-02
4.686358e+02	-3.424587e-02
4.713426e+02	-3.464103e-02
4.740650e+02	-3.504073e-02
4.768032e+02	-3.544502e-02
4.795572e+02	-3.585396e-02
4.823271e+02	-3.626760e-02
4.851130e+02	-3.668599e-02
4.879150e+02	-3.710919e-02
4.907332e+02	-3.753725e-02
4.935676e+02	-3.797022e-02
4.964185e+02	-3.840817e-02
4.992858e+02	-3.885114e-02
5.021696e+02	-3.929920e-02
5.050701e+02	-3.975240e-02
5.079874e+02	-4.021081e-02
5.109215e+02	-4.067447e-02
5.138726e+02	-4.114346e-02
5.168407e+02	-4.161783e-02
5.198259e+02	-4.209764e-02
5.228284e+02	-4.258296e-02
5.258482e+02	-4.307384e-02
5.288855e+02	-4.357035e-02
5.319403e+02	-4.407256e-02
5.350128e+02	-4.458052e-02
5.381030e+02	-4.509432e-02
5.412111e+02	-4.561400e-02
5.443371e+02	-4.613963e-02
5.474812e+02	-4.667130e-02
5.506434e+02	-4.720905e-02
5.538239e+02	-4.775297e-02
5.570228e+02	-4.830312e-02
5.602401e+02	-4.885957e-02
5.634760e+02	-4.942239e-02
5.667306e+02	-4.999166e-02
5.700040e+02	-5.056745e-02
5.732964e+02	-5.114983e-02
5.766077e+02	-5.173888e-02
5.799382e+02	-5.233467e-02
5.832879e+02	-5.293728e-02
5.866569e+02	-5.354679e-02
5.900454e+02	-5.416327e-02
5.934535e+02	-5.478680e-02
5.968813e+02	-5.541747e-02
6.003288e+02	-5.605534e-02
6.037963e+02	-5.670052e-02
6.072838e+02	-5.735306e-02
6.107914e+02	-5.801307e-02
6.143194e+02	-5.868062e-02
6.178676e+02	-5.935580e-02
6.214364e+02	-6.003870e-02
6.250258e+02	-6.072939e-02
6.286359e+02	-6.142798e-02
6.322669e+02	-6.213454e-02
6.359189e+02	-6.284918e-02
6.395919e+02	-6.357197e-02
6.432862e+02	-6.430301e-02
6.470017e+02	-6.504239e-02
6.507388e+02	-6.579022e-02
6.544974e+02	-6.654657e-02
6.582778e+02	-6.731155e-02
6.620800e+02	-6.808526e-02
6.659041e+02	-6.886779e-02
6.697504e+02	-6.965924e-02
6.736188e+02	-7.045971e-02
6.775096e+02	-7.126931e-02
6.814229e+02	-7.208813e-02
6.853587e+02	-7.291628e-02
6.893173e+02	-7.375386e-02
6.932988e+02	-7.460098e-02
6.973033e+02	-7.545775e-02
7.013309e+02	-7.632426e-02
