Frequency(Hz)	Magnitude(dB)
1.000000e+01	-2.124771e+00
1.005776e+01	-2.144344e+00
1.011585e+01	-2.163696e+00
1.017428e+01	-2.183473e+00
1.023305e+01	-2.203426e+00
1.029215e+01	-2.223163e+00
1.035160e+01	-2.243542e+00
1.041139e+01	-2.263699e+00
1.047153e+01	-2.283978e+00
1.053201e+01	-2.304663e+00
1.059284e+01	-2.325136e+00
1.065403e+01	-2.346226e+00
1.071556e+01	-2.367076e+00
1.077746e+01	-2.388212e+00
1.083971e+01	-2.409301e+00
1.090232e+01	-2.430715e+00
1.096529e+01	-2.452357e+00
1.102862e+01	-2.473834e+00
1.109232e+01	-2.495579e+00
1.115639e+01	-2.517798e+00
1.122083e+01	-2.539655e+00
1.128564e+01	-2.562049e+00
1.135083e+01	-2.584123e+00
1.141639e+01	-2.606766e+00
1.148233e+01	-2.629520e+00
1.154865e+01	-2.652377e+00
1.161536e+01	-2.675150e+00
1.168245e+01	-2.698123e+00
1.174992e+01	-2.721360e+00
1.181779e+01	-2.744862e+00
1.188605e+01	-2.768287e+00
1.195470e+01	-2.791879e+00
1.202375e+01	-2.816168e+00
1.209320e+01	-2.839701e+00
1.216305e+01	-2.863774e+00
1.223330e+01	-2.887986e+00
1.230396e+01	-2.912511e+00
1.237503e+01	-2.936727e+00
1.244651e+01	-2.961711e+00
1.251840e+01	-2.986351e+00
1.259070e+01	-3.011386e+00
1.266343e+01	-3.036312e+00
1.273657e+01	-3.061834e+00
1.281014e+01	-3.087300e+00
1.288413e+01	-3.112346e+00
1.295855e+01	-3.138380e+00
1.303339e+01	-3.164225e+00
1.310867e+01	-3.190026e+00
1.318439e+01	-3.216147e+00
1.326054e+01	-3.242463e+00
1.333713e+01	-3.268648e+00
1.341417e+01	-3.295176e+00
1.349165e+01	-3.321729e+00
1.356958e+01	-3.348821e+00
1.364795e+01	-3.375886e+00
1.372678e+01	-3.402835e+00
1.380607e+01	-3.430122e+00
1.388581e+01	-3.457678e+00
1.396602e+01	-3.484939e+00
1.404668e+01	-3.512452e+00
1.412782e+01	-3.540543e+00
1.420942e+01	-3.568437e+00
1.429149e+01	-3.596410e+00
1.437404e+01	-3.624734e+00
1.445706e+01	-3.653375e+00
1.454057e+01	-3.681708e+00
1.462455e+01	-3.710448e+00
1.470902e+01	-3.739167e+00
1.479398e+01	-3.768019e+00
1.487943e+01	-3.797137e+00
1.496537e+01	-3.826412e+00
1.505181e+01	-3.855788e+00
1.513875e+01	-3.885171e+00
1.522619e+01	-3.914791e+00
1.531414e+01	-3.944535e+00
1.540259e+01	-3.974499e+00
1.549156e+01	-4.004743e+00
1.558103e+01	-4.034731e+00
1.567103e+01	-4.065321e+00
1.576155e+01	-4.095795e+00
1.585258e+01	-4.126518e+00
1.594415e+01	-4.156964e+00
1.603624e+01	-4.187845e+00
1.612886e+01	-4.218824e+00
1.622202e+01	-4.250175e+00
1.631572e+01	-4.281605e+00
1.640996e+01	-4.312871e+00
1.650474e+01	-4.344571e+00
1.660008e+01	-4.376507e+00
1.669596e+01	-4.407914e+00
1.679239e+01	-4.440101e+00
1.688938e+01	-4.471943e+00
1.698694e+01	-4.503927e+00
1.708505e+01	-4.536371e+00
1.718373e+01	-4.569256e+00
1.728299e+01	-4.601747e+00
1.738281e+01	-4.634582e+00
1.748322e+01	-4.667514e+00
1.758420e+01	-4.700273e+00
1.768576e+01	-4.733200e+00
1.778792e+01	-4.766694e+00
1.789066e+01	-4.800293e+00
1.799399e+01	-4.833485e+00
1.809793e+01	-4.867487e+00
1.820246e+01	-4.901033e+00
1.830760e+01	-4.935136e+00
1.841334e+01	-4.969322e+00
1.851969e+01	-5.003152e+00
1.862666e+01	-5.037471e+00
1.873425e+01	-5.072032e+00
1.884246e+01	-5.106401e+00
1.895129e+01	-5.140878e+00
1.906075e+01	-5.176046e+00
1.917085e+01	-5.210668e+00
1.928158e+01	-5.245845e+00
1.939295e+01	-5.280881e+00
1.950496e+01	-5.315601e+00
1.961762e+01	-5.351573e+00
1.973093e+01	-5.387084e+00
1.984490e+01	-5.422858e+00
1.995952e+01	-5.458269e+00
2.007480e+01	-5.494369e+00
2.019076e+01	-5.530065e+00
2.030738e+01	-5.566461e+00
2.042467e+01	-5.602458e+00
2.054264e+01	-5.638632e+00
2.066130e+01	-5.675250e+00
2.078064e+01	-5.711791e+00
2.090066e+01	-5.748649e+00
2.102139e+01	-5.785070e+00
2.114280e+01	-5.821985e+00
2.126492e+01	-5.859160e+00
2.138775e+01	-5.896244e+00
2.151128e+01	-5.933265e+00
2.163553e+01	-5.970617e+00
2.176050e+01	-6.008000e+00
2.188619e+01	-6.045790e+00
2.201260e+01	-6.083231e+00
2.213974e+01	-6.121126e+00
2.226762e+01	-6.158941e+00
2.239624e+01	-6.196682e+00
2.252560e+01	-6.234902e+00
2.265571e+01	-6.273324e+00
2.278656e+01	-6.311420e+00
2.291818e+01	-6.349781e+00
2.305055e+01	-6.388240e+00
2.318369e+01	-6.426952e+00
2.331760e+01	-6.465570e+00
2.345228e+01	-6.504565e+00
2.358774e+01	-6.543090e+00
2.372398e+01	-6.582568e+00
2.386101e+01	-6.621235e+00
2.399883e+01	-6.660358e+00
2.413745e+01	-6.699637e+00
2.427686e+01	-6.739026e+00
2.441709e+01	-6.778795e+00
2.455812e+01	-6.818281e+00
2.469997e+01	-6.857650e+00
2.484263e+01	-6.897553e+00
2.498612e+01	-6.937217e+00
2.513044e+01	-6.977711e+00
2.527559e+01	-7.017516e+00
2.542158e+01	-7.057387e+00
2.556842e+01	-7.098025e+00
2.571610e+01	-7.138346e+00
2.586463e+01	-7.178630e+00
2.601403e+01	-7.219158e+00
2.616428e+01	-7.259252e+00
2.631541e+01	-7.300653e+00
2.646740e+01	-7.341386e+00
2.662028e+01	-7.381776e+00
2.677404e+01	-7.422806e+00
2.692868e+01	-7.463683e+00
2.708422e+01	-7.504965e+00
2.724066e+01	-7.545911e+00
2.739800e+01	-7.587385e+00
2.755625e+01	-7.628655e+00
2.771541e+01	-7.669836e+00
2.787550e+01	-7.711395e+00
2.803650e+01	-7.753250e+00
2.819844e+01	-7.794961e+00
2.836131e+01	-7.836665e+00
2.852513e+01	-7.878376e+00
2.868989e+01	-7.920138e+00
2.885560e+01	-7.962391e+00
2.902227e+01	-8.004773e+00
2.918990e+01	-8.046285e+00
2.935850e+01	-8.088137e+00
2.952807e+01	-8.131150e+00
2.969863e+01	-8.173313e+00
2.987016e+01	-8.216175e+00
3.004269e+01	-8.258448e+00
3.021622e+01	-8.300908e+00
3.039075e+01	-8.343515e+00
3.056628e+01	-8.386110e+00
3.074283e+01	-8.429498e+00
3.092040e+01	-8.472534e+00
3.109900e+01	-8.515063e+00
3.127862e+01	-8.558189e+00
3.145929e+01	-8.600925e+00
3.164099e+01	-8.643836e+00
3.182375e+01	-8.687167e+00
3.200756e+01	-8.730427e+00
3.219244e+01	-8.773900e+00
3.237838e+01	-8.817411e+00
3.256540e+01	-8.861255e+00
3.275349e+01	-8.904513e+00
3.294268e+01	-8.948233e+00
3.313295e+01	-8.991643e+00
3.332433e+01	-9.035569e+00
3.351681e+01	-9.079843e+00
3.371040e+01	-9.123410e+00
3.390511e+01	-9.167047e+00
3.410094e+01	-9.211294e+00
3.429791e+01	-9.254783e+00
3.449601e+01	-9.298889e+00
3.469526e+01	-9.343350e+00
3.489566e+01	-9.387914e+00
3.509721e+01	-9.431922e+00
3.529993e+01	-9.476668e+00
3.550382e+01	-9.520661e+00
3.570889e+01	-9.565678e+00
3.591515e+01	-9.609602e+00
3.612259e+01	-9.654441e+00
3.633123e+01	-9.699312e+00
3.654108e+01	-9.744086e+00
3.675214e+01	-9.788537e+00
3.696442e+01	-9.833545e+00
3.717792e+01	-9.877858e+00
3.739266e+01	-9.923025e+00
3.760864e+01	-9.968531e+00
3.782587e+01	-1.001293e+01
3.804435e+01	-1.005789e+01
3.826409e+01	-1.010330e+01
3.848510e+01	-1.014843e+01
3.870739e+01	-1.019339e+01
3.893096e+01	-1.023881e+01
3.915583e+01	-1.028448e+01
3.938199e+01	-1.032954e+01
3.960946e+01	-1.037522e+01
3.983824e+01	-1.042091e+01
4.006834e+01	-1.046635e+01
4.029978e+01	-1.051174e+01
4.053255e+01	-1.055721e+01
4.076666e+01	-1.060285e+01
4.100213e+01	-1.064843e+01
4.123896e+01	-1.069430e+01
4.147715e+01	-1.073939e+01
4.171672e+01	-1.078593e+01
4.195767e+01	-1.083123e+01
4.220002e+01	-1.087713e+01
4.244377e+01	-1.092344e+01
4.268892e+01	-1.096978e+01
4.293549e+01	-1.101563e+01
4.318348e+01	-1.106143e+01
4.343291e+01	-1.110797e+01
4.368377e+01	-1.115426e+01
4.393609e+01	-1.120075e+01
4.418986e+01	-1.124640e+01
4.444510e+01	-1.129262e+01
4.470182e+01	-1.133906e+01
4.496001e+01	-1.138580e+01
4.521970e+01	-1.143238e+01
4.548089e+01	-1.147810e+01
4.574358e+01	-1.152476e+01
4.600779e+01	-1.157164e+01
4.627353e+01	-1.161768e+01
4.654081e+01	-1.166384e+01
4.680963e+01	-1.171097e+01
4.708000e+01	-1.175831e+01
4.735193e+01	-1.180486e+01
4.762543e+01	-1.185080e+01
4.790051e+01	-1.189777e+01
4.817719e+01	-1.194494e+01
4.845545e+01	-1.199134e+01
4.873533e+01	-1.203853e+01
4.901682e+01	-1.208595e+01
4.929994e+01	-1.213283e+01
4.958470e+01	-1.217962e+01
4.987110e+01	-1.222699e+01
5.015915e+01	-1.227385e+01
5.044887e+01	-1.232122e+01
5.074026e+01	-1.236692e+01
5.103333e+01	-1.241556e+01
5.132810e+01	-1.246234e+01
5.162457e+01	-1.250909e+01
5.192275e+01	-1.255698e+01
5.222265e+01	-1.260395e+01
5.252429e+01	-1.265134e+01
5.282767e+01	-1.269805e+01
5.313280e+01	-1.274593e+01
5.343969e+01	-1.279318e+01
5.374836e+01	-1.284108e+01
5.405880e+01	-1.288801e+01
5.437105e+01	-1.293501e+01
5.468509e+01	-1.298252e+01
5.500095e+01	-1.303080e+01
5.531863e+01	-1.307761e+01
5.563815e+01	-1.312491e+01
5.595951e+01	-1.317281e+01
5.628273e+01	-1.322145e+01
5.660782e+01	-1.326917e+01
5.693479e+01	-1.331589e+01
5.726364e+01	-1.336313e+01
5.759439e+01	-1.341152e+01
5.792705e+01	-1.345950e+01
5.826164e+01	-1.350763e+01
5.859815e+01	-1.355555e+01
5.893662e+01	-1.360215e+01
5.927703e+01	-1.365131e+01
5.961941e+01	-1.369829e+01
5.996377e+01	-1.374661e+01
6.031012e+01	-1.379381e+01
6.065847e+01	-1.384220e+01
6.100883e+01	-1.389011e+01
6.136121e+01	-1.393808e+01
6.171563e+01	-1.398620e+01
6.207210e+01	-1.403460e+01
6.243063e+01	-1.408312e+01
6.279122e+01	-1.413080e+01
6.315390e+01	-1.417831e+01
6.351868e+01	-1.422684e+01
6.388556e+01	-1.427411e+01
6.425456e+01	-1.432281e+01
6.462569e+01	-1.437123e+01
6.499897e+01	-1.441951e+01
6.537440e+01	-1.446730e+01
6.575200e+01	-1.451664e+01
6.613178e+01	-1.456386e+01
6.651375e+01	-1.461246e+01
6.689793e+01	-1.466121e+01
6.728433e+01	-1.470899e+01
6.767297e+01	-1.475753e+01
6.806384e+01	-1.480522e+01
6.845698e+01	-1.485412e+01
6.885238e+01	-1.490276e+01
6.925007e+01	-1.495054e+01
6.965005e+01	-1.499976e+01
7.005235e+01	-1.504867e+01
7.045697e+01	-1.509667e+01
7.086393e+01	-1.514479e+01
7.127323e+01	-1.519373e+01
7.168490e+01	-1.524239e+01
7.209895e+01	-1.529005e+01
7.251539e+01	-1.533922e+01
7.293424e+01	-1.538770e+01
7.335551e+01	-1.543656e+01
7.377920e+01	-1.548441e+01
7.420535e+01	-1.553331e+01
7.463396e+01	-1.558205e+01
7.506504e+01	-1.563185e+01
7.549861e+01	-1.568000e+01
7.593469e+01	-1.572892e+01
7.637328e+01	-1.577645e+01
7.681441e+01	-1.582648e+01
7.725809e+01	-1.587334e+01
7.770433e+01	-1.592337e+01
7.815315e+01	-1.597052e+01
7.860456e+01	-1.602105e+01
7.905857e+01	-1.607002e+01
7.951521e+01	-1.611752e+01
7.997449e+01	-1.616707e+01
8.043642e+01	-1.621583e+01
8.090102e+01	-1.626386e+01
8.136830e+01	-1.631246e+01
8.183828e+01	-1.636172e+01
8.231097e+01	-1.641131e+01
8.278640e+01	-1.645925e+01
8.326457e+01	-1.650824e+01
8.374550e+01	-1.655879e+01
8.422921e+01	-1.660757e+01
8.471572e+01	-1.665669e+01
8.520503e+01	-1.670451e+01
8.569717e+01	-1.675408e+01
8.619215e+01	-1.680236e+01
8.669000e+01	-1.685087e+01
8.719071e+01	-1.689998e+01
8.769432e+01	-1.695035e+01
8.820084e+01	-1.699926e+01
8.871029e+01	-1.704923e+01
8.922267e+01	-1.709568e+01
8.973802e+01	-1.714446e+01
9.025634e+01	-1.719408e+01
9.077766e+01	-1.724341e+01
9.130199e+01	-1.729293e+01
9.182935e+01	-1.734263e+01
9.235975e+01	-1.739148e+01
9.289321e+01	-1.744088e+01
9.342976e+01	-1.748938e+01
9.396941e+01	-1.753789e+01
9.451217e+01	-1.758803e+01
9.505807e+01	-1.763735e+01
9.560712e+01	-1.768534e+01
9.615934e+01	-1.773519e+01
9.671476e+01	-1.778391e+01
9.727338e+01	-1.783327e+01
9.783522e+01	-1.788266e+01
9.840032e+01	-1.793300e+01
9.896867e+01	-1.798168e+01
9.954031e+01	-1.803079e+01
1.001153e+02	-1.807996e+01
1.006935e+02	-1.813010e+01
1.012751e+02	-1.817775e+01
1.018601e+02	-1.822793e+01
1.024484e+02	-1.827755e+01
1.030402e+02	-1.832494e+01
1.036353e+02	-1.837540e+01
1.042339e+02	-1.842395e+01
1.048360e+02	-1.847464e+01
1.054415e+02	-1.852383e+01
1.060505e+02	-1.857334e+01
1.066631e+02	-1.862218e+01
1.072791e+02	-1.867232e+01
1.078988e+02	-1.872059e+01
1.085220e+02	-1.877146e+01
1.091488e+02	-1.881973e+01
1.097793e+02	-1.886989e+01
1.104133e+02	-1.891809e+01
1.110511e+02	-1.896763e+01
1.116925e+02	-1.901726e+01
1.123376e+02	-1.906621e+01
1.129865e+02	-1.911603e+01
1.136391e+02	-1.916491e+01
1.142955e+02	-1.921457e+01
1.149556e+02	-1.926259e+01
1.156196e+02	-1.931457e+01
1.162874e+02	-1.936375e+01
1.169591e+02	-1.941236e+01
1.176347e+02	-1.946339e+01
1.183141e+02	-1.951144e+01
1.189975e+02	-1.956198e+01
1.196848e+02	-1.961170e+01
1.203761e+02	-1.965898e+01
1.210714e+02	-1.970983e+01
1.217707e+02	-1.975979e+01
1.224740e+02	-1.980817e+01
1.231814e+02	-1.985731e+01
1.238929e+02	-1.990581e+01
1.246085e+02	-1.995771e+01
1.253283e+02	-2.000815e+01
1.260522e+02	-2.005796e+01
1.267802e+02	-2.010558e+01
1.275125e+02	-2.015590e+01
1.282490e+02	-2.020672e+01
1.289898e+02	-2.025282e+01
1.297348e+02	-2.030239e+01
1.304842e+02	-2.035315e+01
1.312378e+02	-2.040229e+01
1.319959e+02	-2.045141e+01
1.327583e+02	-2.050458e+01
1.335251e+02	-2.055282e+01
1.342963e+02	-2.060203e+01
1.350720e+02	-2.065064e+01
1.358522e+02	-2.070060e+01
1.366368e+02	-2.075170e+01
1.374260e+02	-2.080110e+01
1.382198e+02	-2.084942e+01
1.390182e+02	-2.089994e+01
1.398211e+02	-2.094870e+01
1.406287e+02	-2.099866e+01
1.414410e+02	-2.104738e+01
1.422579e+02	-2.109526e+01
1.430796e+02	-2.114752e+01
1.439060e+02	-2.119845e+01
1.447372e+02	-2.124480e+01
1.455732e+02	-2.129572e+01
1.464141e+02	-2.134788e+01
1.472597e+02	-2.139478e+01
1.481103e+02	-2.144830e+01
1.489658e+02	-2.149441e+01
1.498262e+02	-2.154426e+01
1.506916e+02	-2.159440e+01
1.515620e+02	-2.164240e+01
1.524374e+02	-2.169471e+01
1.533179e+02	-2.174444e+01
1.542034e+02	-2.179476e+01
1.550941e+02	-2.184372e+01
1.559899e+02	-2.189450e+01
1.568909e+02	-2.194368e+01
1.577971e+02	-2.199228e+01
1.587085e+02	-2.204263e+01
1.596252e+02	-2.209153e+01
1.605472e+02	-2.214158e+01
1.614745e+02	-2.219074e+01
1.624072e+02	-2.224225e+01
1.633453e+02	-2.228951e+01
1.642887e+02	-2.234105e+01
1.652377e+02	-2.238924e+01
1.661921e+02	-2.244263e+01
1.671520e+02	-2.249162e+01
1.681175e+02	-2.253922e+01
1.690885e+02	-2.258995e+01
1.700651e+02	-2.264007e+01
1.710474e+02	-2.268795e+01
1.720354e+02	-2.273868e+01
1.730291e+02	-2.278847e+01
1.740285e+02	-2.283949e+01
1.750337e+02	-2.288957e+01
1.760446e+02	-2.293752e+01
1.770615e+02	-2.298634e+01
1.780842e+02	-2.303896e+01
1.791128e+02	-2.308770e+01
1.801473e+02	-2.313841e+01
1.811878e+02	-2.318926e+01
1.822344e+02	-2.323811e+01
1.832870e+02	-2.328699e+01
1.843456e+02	-2.333558e+01
1.854104e+02	-2.338399e+01
1.864813e+02	-2.343478e+01
1.875584e+02	-2.348581e+01
1.886418e+02	-2.353492e+01
1.897313e+02	-2.358602e+01
1.908272e+02	-2.363647e+01
1.919294e+02	-2.368433e+01
1.930380e+02	-2.373639e+01
1.941530e+02	-2.378522e+01
1.952744e+02	-2.383595e+01
1.964023e+02	-2.388649e+01
1.975367e+02	-2.393393e+01
1.986777e+02	-2.398541e+01
1.998252e+02	-2.403229e+01
2.009794e+02	-2.408453e+01
2.021403e+02	-2.413443e+01
2.033078e+02	-2.418031e+01
2.044821e+02	-2.423474e+01
2.056632e+02	-2.428754e+01
2.068511e+02	-2.433374e+01
2.080459e+02	-2.438234e+01
2.092475e+02	-2.443325e+01
2.104561e+02	-2.448258e+01
2.116717e+02	-2.452973e+01
2.128943e+02	-2.458346e+01
2.141240e+02	-2.463256e+01
2.153608e+02	-2.468412e+01
2.166047e+02	-2.473311e+01
2.178558e+02	-2.478220e+01
2.191141e+02	-2.483109e+01
2.203797e+02	-2.488039e+01
2.216526e+02	-2.493312e+01
2.229329e+02	-2.498043e+01
2.242205e+02	-2.503262e+01
2.255156e+02	-2.508004e+01
2.268182e+02	-2.513291e+01
2.281283e+02	-2.517969e+01
2.294459e+02	-2.522801e+01
2.307712e+02	-2.528029e+01
2.321041e+02	-2.533159e+01
2.334447e+02	-2.537936e+01
2.347931e+02	-2.542996e+01
2.361493e+02	-2.548082e+01
2.375133e+02	-2.553151e+01
2.388851e+02	-2.558103e+01
2.402649e+02	-2.563177e+01
2.416527e+02	-2.568326e+01
2.430484e+02	-2.573207e+01
2.444523e+02	-2.578146e+01
2.458642e+02	-2.583143e+01
2.472843e+02	-2.588306e+01
2.487126e+02	-2.592889e+01
2.501492e+02	-2.598039e+01
2.515940e+02	-2.602947e+01
2.530472e+02	-2.607875e+01
2.545088e+02	-2.613303e+01
2.559789e+02	-2.618012e+01
2.574574e+02	-2.623017e+01
2.589444e+02	-2.628068e+01
2.604401e+02	-2.633175e+01
2.619444e+02	-2.637929e+01
2.634574e+02	-2.643212e+01
2.649791e+02	-2.648060e+01
2.665096e+02	-2.653150e+01
2.680489e+02	-2.657835e+01
2.695972e+02	-2.663061e+01
2.711544e+02	-2.668083e+01
2.727205e+02	-2.673024e+01
2.742958e+02	-2.677898e+01
2.758801e+02	-2.683279e+01
2.774736e+02	-2.687942e+01
2.790762e+02	-2.692534e+01
2.806882e+02	-2.698082e+01
2.823094e+02	-2.703013e+01
2.839400e+02	-2.707799e+01
2.855800e+02	-2.713124e+01
2.872295e+02	-2.718019e+01
2.888886e+02	-2.723082e+01
2.905572e+02	-2.728146e+01
2.922354e+02	-2.733125e+01
2.939234e+02	-2.737968e+01
2.956211e+02	-2.742924e+01
2.973286e+02	-2.748150e+01
2.990459e+02	-2.752504e+01
3.007732e+02	-2.757907e+01
3.025104e+02	-2.762934e+01
3.042577e+02	-2.767541e+01
3.060151e+02	-2.772557e+01
3.077826e+02	-2.777931e+01
3.095604e+02	-2.782871e+01
3.113484e+02	-2.788105e+01
3.131467e+02	-2.793067e+01
3.149554e+02	-2.797931e+01
3.167746e+02	-2.803003e+01
3.186043e+02	-2.807731e+01
3.204445e+02	-2.813071e+01
3.222954e+02	-2.817786e+01
3.241570e+02	-2.823344e+01
3.260293e+02	-2.828249e+01
3.279124e+02	-2.833087e+01
3.298064e+02	-2.837710e+01
3.317114e+02	-2.842894e+01
3.336273e+02	-2.847743e+01
3.355544e+02	-2.852846e+01
3.374925e+02	-2.858069e+01
3.394418e+02	-2.863271e+01
3.414024e+02	-2.868330e+01
3.433744e+02	-2.872976e+01
3.453577e+02	-2.878147e+01
3.473525e+02	-2.883199e+01
3.493588e+02	-2.888126e+01
3.513766e+02	-2.892912e+01
3.534062e+02	-2.898256e+01
3.554474e+02	-2.902980e+01
3.575005e+02	-2.908106e+01
3.595654e+02	-2.912914e+01
3.616422e+02	-2.918069e+01
3.637311e+02	-2.923147e+01
3.658320e+02	-2.928179e+01
3.679450e+02	-2.933431e+01
3.700702e+02	-2.938322e+01
3.722077e+02	-2.942969e+01
3.743576e+02	-2.948332e+01
3.765199e+02	-2.952963e+01
3.786946e+02	-2.958299e+01
3.808820e+02	-2.963033e+01
3.830819e+02	-2.967858e+01
3.852946e+02	-2.973207e+01
3.875200e+02	-2.978127e+01
3.897583e+02	-2.983284e+01
3.920096e+02	-2.988324e+01
3.942738e+02	-2.993482e+01
3.965511e+02	-2.998154e+01
3.988416e+02	-3.002785e+01
4.011452e+02	-3.008414e+01
4.034622e+02	-3.013330e+01
4.057926e+02	-3.018299e+01
4.081365e+02	-3.023214e+01
4.104938e+02	-3.028354e+01
4.128648e+02	-3.033247e+01
4.152495e+02	-3.038308e+01
4.176480e+02	-3.043550e+01
4.200603e+02	-3.048122e+01
4.224866e+02	-3.054062e+01
4.249268e+02	-3.058292e+01
4.273812e+02	-3.063355e+01
4.298497e+02	-3.068180e+01
4.323325e+02	-3.073328e+01
4.348297e+02	-3.078644e+01
4.373412e+02	-3.083312e+01
4.398673e+02	-3.089074e+01
4.424079e+02	-3.093275e+01
4.449633e+02	-3.098605e+01
4.475334e+02	-3.103884e+01
4.501183e+02	-3.108520e+01
4.527182e+02	-3.113484e+01
4.553330e+02	-3.118404e+01
4.579630e+02	-3.122997e+01
4.606082e+02	-3.128812e+01
4.632687e+02	-3.133305e+01
4.659445e+02	-3.138536e+01
4.686358e+02	-3.143614e+01
4.713426e+02	-3.148152e+01
4.740650e+02	-3.153666e+01
4.768032e+02	-3.159000e+01
4.795572e+02	-3.163848e+01
4.823271e+02	-3.169167e+01
4.851130e+02	-3.173984e+01
4.879150e+02	-3.178232e+01
4.907332e+02	-3.183671e+01
4.935676e+02	-3.188981e+01
4.964185e+02	-3.194257e+01
4.992858e+02	-3.198887e+01
5.021696e+02	-3.203308e+01
5.050701e+02	-3.208350e+01
5.079874e+02	-3.214151e+01
5.109215e+02	-3.219417e+01
5.138726e+02	-3.223880e+01
5.168407e+02	-3.228855e+01
5.198259e+02	-3.234191e+01
5.228284e+02	-3.238973e+01
5.258482e+02	-3.244274e+01
5.288855e+02	-3.248586e+01
5.319403e+02	-3.254632e+01
5.350128e+02	-3.258445e+01
5.381030e+02	-3.263937e+01
5.412111e+02	-3.269246e+01
5.443371e+02	-3.275247e+01
5.474812e+02	-3.278437e+01
5.506434e+02	-3.283558e+01
5.538239e+02	-3.289475e+01
5.570228e+02	-3.294561e+01
5.602401e+02	-3.299321e+01
5.634760e+02	-3.304237e+01
5.667306e+02	-3.309146e+01
5.700040e+02	-3.314856e+01
5.732964e+02	-3.319343e+01
5.766077e+02	-3.324195e+01
5.799382e+02	-3.329733e+01
5.832879e+02	-3.334676e+01
5.866569e+02	-3.339909e+01
5.900454e+02	-3.344972e+01
5.934535e+02	-3.349615e+01
5.968813e+02	-3.354427e+01
6.003288e+02	-3.360178e+01
6.037963e+02	-3.364452e+01
6.072838e+02	-3.369611e+01
6.107914e+02	-3.374404e+01
6.143194e+02	-3.380011e+01
6.178676e+02	-3.385033e+01
6.214364e+02	-3.390535e+01
6.250258e+02	-3.395038e+01
6.286359e+02	-3.400611e+01
6.322669e+02	-3.404479e+01
6.359189e+02	-3.410095e+01
6.395919e+02	-3.414385e+01
6.432862e+02	-3.419705e+01
6.470017e+02	-3.424628e+01
6.507388e+02	-3.430283e+01
6.544974e+02	-3.435020e+01
6.582778e+02	-3.440060e+01
6.620800e+02	-3.445609e+01
6.659041e+02	-3.450160e+01
6.697504e+02	-3.455237e+01
6.736188e+02	-3.460020e+01
6.775096e+02	-3.465676e+01
6.814229e+02	-3.470028e+01
6.853587e+02	-3.475526e+01
6.893173e+02	-3.480919e+01
6.932988e+02	-3.485943e+01
6.973033e+02	-3.490057e+01
7.013309e+02	-3.495452e+01
