Frequency(Hz)	Magnitude(dB)
1.000000e+01	-1.850010e-05
1.005776e+01	-1.871443e-05
1.011585e+01	-1.893124e-05
1.017428e+01	-1.915056e-05
1.023305e+01	-1.937243e-05
1.029215e+01	-1.959686e-05
1.035160e+01	-1.982390e-05
1.041139e+01	-2.005356e-05
1.047153e+01	-2.028589e-05
1.053201e+01	-2.052090e-05
1.059284e+01	-2.075864e-05
1.065403e+01	-2.099914e-05
1.071556e+01	-2.124242e-05
1.077746e+01	-2.148852e-05
1.083971e+01	-2.173747e-05
1.090232e+01	-2.198930e-05
1.096529e+01	-2.224405e-05
1.102862e+01	-2.250176e-05
1.109232e+01	-2.276244e-05
1.115639e+01	-2.302615e-05
1.122083e+01	-2.329292e-05
1.128564e+01	-2.356277e-05
1.135083e+01	-2.383575e-05
1.141639e+01	-2.411190e-05
1.148233e+01	-2.439124e-05
1.154865e+01	-2.467382e-05
1.161536e+01	-2.495967e-05
1.168245e+01	-2.524883e-05
1.174992e+01	-2.554135e-05
1.181779e+01	-2.583725e-05
1.188605e+01	-2.613658e-05
1.195470e+01	-2.643938e-05
1.202375e+01	-2.674569e-05
1.209320e+01	-2.705554e-05
1.216305e+01	-2.736899e-05
1.223330e+01	-2.768606e-05
1.230396e+01	-2.800681e-05
1.237503e+01	-2.833128e-05
1.244651e+01	-2.865950e-05
1.251840e+01	-2.899153e-05
1.259070e+01	-2.932740e-05
1.266343e+01	-2.966717e-05
1.273657e+01	-3.001087e-05
1.281014e+01	-3.035855e-05
1.288413e+01	-3.071026e-05
1.295855e+01	-3.106605e-05
1.303339e+01	-3.142596e-05
1.310867e+01	-3.179003e-05
1.318439e+01	-3.215833e-05
1.326054e+01	-3.253089e-05
1.333713e+01	-3.290777e-05
1.341417e+01	-3.328901e-05
1.349165e+01	-3.367467e-05
1.356958e+01	-3.406480e-05
1.364795e+01	-3.445945e-05
1.372678e+01	-3.485867e-05
1.380607e+01	-3.526252e-05
1.388581e+01	-3.567104e-05
1.396602e+01	-3.608430e-05
1.404668e+01	-3.650235e-05
1.412782e+01	-3.692523e-05
1.420942e+01	-3.735302e-05
1.429149e+01	-3.778576e-05
1.437404e+01	-3.822352e-05
1.445706e+01	-3.866635e-05
1.454057e+01	-3.911431e-05
1.462455e+01	-3.956746e-05
1.470902e+01	-4.002585e-05
1.479398e+01	-4.048956e-05
1.487943e+01	-4.095864e-05
1.496537e+01	-4.143316e-05
1.505181e+01	-4.191317e-05
1.513875e+01	-4.239874e-05
1.522619e+01	-4.288994e-05
1.531414e+01	-4.338683e-05
1.540259e+01	-4.388948e-05
1.549156e+01	-4.439795e-05
1.558103e+01	-4.491231e-05
1.567103e+01	-4.543263e-05
1.576155e+01	-4.595897e-05
1.585258e+01	-4.649142e-05
1.594415e+01	-4.703003e-05
1.603624e+01	-4.757488e-05
1.612886e+01	-4.812605e-05
1.622202e+01	-4.868360e-05
1.631572e+01	-4.924761e-05
1.640996e+01	-4.981815e-05
1.650474e+01	-5.039531e-05
1.660008e+01	-5.097915e-05
1.669596e+01	-5.156975e-05
1.679239e+01	-5.216720e-05
1.688938e+01	-5.277157e-05
1.698694e+01	-5.338294e-05
1.708505e+01	-5.400139e-05
1.718373e+01	-5.462701e-05
1.728299e+01	-5.525987e-05
1.738281e+01	-5.590007e-05
1.748322e+01	-5.654768e-05
1.758420e+01	-5.720280e-05
1.768576e+01	-5.786550e-05
1.778792e+01	-5.853589e-05
1.789066e+01	-5.921404e-05
1.799399e+01	-5.990004e-05
1.809793e+01	-6.059400e-05
1.820246e+01	-6.129599e-05
1.830760e+01	-6.200612e-05
1.841334e+01	-6.272447e-05
1.851969e+01	-6.345115e-05
1.862666e+01	-6.418624e-05
1.873425e+01	-6.492985e-05
1.884246e+01	-6.568208e-05
1.895129e+01	-6.644301e-05
1.906075e+01	-6.721277e-05
1.917085e+01	-6.799144e-05
1.928158e+01	-6.877914e-05
1.939295e+01	-6.957595e-05
1.950496e+01	-7.038201e-05
1.961762e+01	-7.119739e-05
1.973093e+01	-7.202223e-05
1.984490e+01	-7.285662e-05
1.995952e+01	-7.370068e-05
2.007480e+01	-7.455451e-05
2.019076e+01	-7.541824e-05
2.030738e+01	-7.629197e-05
2.042467e+01	-7.717583e-05
2.054264e+01	-7.806992e-05
2.066130e+01	-7.897438e-05
2.078064e+01	-7.988931e-05
2.090066e+01	-8.081484e-05
2.102139e+01	-8.175110e-05
2.114280e+01	-8.269820e-05
2.126492e+01	-8.365627e-05
2.138775e+01	-8.462544e-05
2.151128e+01	-8.560584e-05
2.163553e+01	-8.659760e-05
2.176050e+01	-8.760084e-05
2.188619e+01	-8.861571e-05
2.201260e+01	-8.964234e-05
2.213974e+01	-9.068086e-05
2.226762e+01	-9.173141e-05
2.239624e+01	-9.279414e-05
2.252560e+01	-9.386917e-05
2.265571e+01	-9.495666e-05
2.278656e+01	-9.605675e-05
2.291818e+01	-9.716958e-05
2.305055e+01	-9.829530e-05
2.318369e+01	-9.943407e-05
2.331760e+01	-1.005860e-04
2.345228e+01	-1.017513e-04
2.358774e+01	-1.029301e-04
2.372398e+01	-1.041226e-04
2.386101e+01	-1.053289e-04
2.399883e+01	-1.065491e-04
2.413745e+01	-1.077835e-04
2.427686e+01	-1.090322e-04
2.441709e+01	-1.102953e-04
2.455812e+01	-1.115731e-04
2.469997e+01	-1.128657e-04
2.484263e+01	-1.141733e-04
2.498612e+01	-1.154960e-04
2.513044e+01	-1.168340e-04
2.527559e+01	-1.181876e-04
2.542158e+01	-1.195568e-04
2.556842e+01	-1.209419e-04
2.571610e+01	-1.223430e-04
2.586463e+01	-1.237603e-04
2.601403e+01	-1.251941e-04
2.616428e+01	-1.266445e-04
2.631541e+01	-1.281117e-04
2.646740e+01	-1.295959e-04
2.662028e+01	-1.310973e-04
2.677404e+01	-1.326160e-04
2.692868e+01	-1.341524e-04
2.708422e+01	-1.357066e-04
2.724066e+01	-1.372788e-04
2.739800e+01	-1.388691e-04
2.755625e+01	-1.404780e-04
2.771541e+01	-1.421054e-04
2.787550e+01	-1.437517e-04
2.803650e+01	-1.454171e-04
2.819844e+01	-1.471018e-04
2.836131e+01	-1.488059e-04
2.852513e+01	-1.505299e-04
2.868989e+01	-1.522738e-04
2.885560e+01	-1.540379e-04
2.902227e+01	-1.558224e-04
2.918990e+01	-1.576276e-04
2.935850e+01	-1.594538e-04
2.952807e+01	-1.613010e-04
2.969863e+01	-1.631697e-04
2.987016e+01	-1.650600e-04
3.004269e+01	-1.669723e-04
3.021622e+01	-1.689067e-04
3.039075e+01	-1.708635e-04
3.056628e+01	-1.728429e-04
3.074283e+01	-1.748453e-04
3.092040e+01	-1.768709e-04
3.109900e+01	-1.789200e-04
3.127862e+01	-1.809927e-04
3.145929e+01	-1.830896e-04
3.164099e+01	-1.852107e-04
3.182375e+01	-1.873563e-04
3.200756e+01	-1.895269e-04
3.219244e+01	-1.917225e-04
3.237838e+01	-1.939436e-04
3.256540e+01	-1.961905e-04
3.275349e+01	-1.984633e-04
3.294268e+01	-2.007625e-04
3.313295e+01	-2.030884e-04
3.332433e+01	-2.054412e-04
3.351681e+01	-2.078212e-04
3.371040e+01	-2.102288e-04
3.390511e+01	-2.126643e-04
3.410094e+01	-2.151280e-04
3.429791e+01	-2.176203e-04
3.449601e+01	-2.201414e-04
3.469526e+01	-2.226917e-04
3.489566e+01	-2.252716e-04
3.509721e+01	-2.278814e-04
3.529993e+01	-2.305214e-04
3.550382e+01	-2.331920e-04
3.570889e+01	-2.358935e-04
3.591515e+01	-2.386263e-04
3.612259e+01	-2.413908e-04
3.633123e+01	-2.441873e-04
3.654108e+01	-2.470162e-04
3.675214e+01	-2.498778e-04
3.696442e+01	-2.527727e-04
3.717792e+01	-2.557010e-04
3.739266e+01	-2.586633e-04
3.760864e+01	-2.616599e-04
3.782587e+01	-2.646912e-04
3.804435e+01	-2.677576e-04
3.826409e+01	-2.708596e-04
3.848510e+01	-2.739975e-04
3.870739e+01	-2.771717e-04
3.893096e+01	-2.803827e-04
3.915583e+01	-2.836309e-04
3.938199e+01	-2.869167e-04
3.960946e+01	-2.902406e-04
3.983824e+01	-2.936031e-04
4.006834e+01	-2.970044e-04
4.029978e+01	-3.004452e-04
4.053255e+01	-3.039258e-04
4.076666e+01	-3.074467e-04
4.100213e+01	-3.110085e-04
4.123896e+01	-3.146114e-04
4.147715e+01	-3.182562e-04
4.171672e+01	-3.219431e-04
4.195767e+01	-3.256728e-04
4.220002e+01	-3.294456e-04
4.244377e+01	-3.332622e-04
4.268892e+01	-3.371230e-04
4.293549e+01	-3.410285e-04
4.318348e+01	-3.449793e-04
4.343291e+01	-3.489758e-04
4.368377e+01	-3.530186e-04
4.393609e+01	-3.571083e-04
4.418986e+01	-3.612453e-04
4.444510e+01	-3.654302e-04
4.470182e+01	-3.696637e-04
4.496001e+01	-3.739461e-04
4.521970e+01	-3.782782e-04
4.548089e+01	-3.826605e-04
4.574358e+01	-3.870935e-04
4.600779e+01	-3.915779e-04
4.627353e+01	-3.961142e-04
4.654081e+01	-4.007031e-04
4.680963e+01	-4.053452e-04
4.708000e+01	-4.100410e-04
4.735193e+01	-4.147912e-04
4.762543e+01	-4.195964e-04
4.790051e+01	-4.244573e-04
4.817719e+01	-4.293745e-04
4.845545e+01	-4.343487e-04
4.873533e+01	-4.393805e-04
4.901682e+01	-4.444706e-04
4.929994e+01	-4.496196e-04
4.958470e+01	-4.548283e-04
4.987110e+01	-4.600974e-04
5.015915e+01	-4.654274e-04
5.044887e+01	-4.708192e-04
5.074026e+01	-4.762735e-04
5.103333e+01	-4.817910e-04
5.132810e+01	-4.873723e-04
5.162457e+01	-4.930184e-04
5.192275e+01	-4.987298e-04
5.222265e+01	-5.045074e-04
5.252429e+01	-5.103519e-04
5.282767e+01	-5.162641e-04
5.313280e+01	-5.222448e-04
5.343969e+01	-5.282948e-04
5.374836e+01	-5.344149e-04
5.405880e+01	-5.406058e-04
5.437105e+01	-5.468685e-04
5.468509e+01	-5.532037e-04
5.500095e+01	-5.596123e-04
5.531863e+01	-5.660952e-04
5.563815e+01	-5.726531e-04
5.595951e+01	-5.792870e-04
5.628273e+01	-5.859977e-04
5.660782e+01	-5.927862e-04
5.693479e+01	-5.996533e-04
5.726364e+01	-6.066000e-04
5.759439e+01	-6.136271e-04
5.792705e+01	-6.207357e-04
5.826164e+01	-6.279265e-04
5.859815e+01	-6.352007e-04
5.893662e+01	-6.425591e-04
5.927703e+01	-6.500028e-04
5.961941e+01	-6.575327e-04
5.996377e+01	-6.651498e-04
6.031012e+01	-6.728552e-04
6.065847e+01	-6.806498e-04
6.100883e+01	-6.885346e-04
6.136121e+01	-6.965109e-04
6.171563e+01	-7.045795e-04
6.207210e+01	-7.127416e-04
6.243063e+01	-7.209982e-04
6.279122e+01	-7.293504e-04
6.315390e+01	-7.377995e-04
6.351868e+01	-7.463463e-04
6.388556e+01	-7.549922e-04
6.425456e+01	-7.637382e-04
6.462569e+01	-7.725856e-04
6.499897e+01	-7.815354e-04
6.537440e+01	-7.905888e-04
6.575200e+01	-7.997472e-04
6.613178e+01	-8.090116e-04
6.651375e+01	-8.183834e-04
6.689793e+01	-8.278636e-04
6.728433e+01	-8.374538e-04
6.767297e+01	-8.471549e-04
6.806384e+01	-8.569685e-04
6.845698e+01	-8.668957e-04
6.885238e+01	-8.769379e-04
6.925007e+01	-8.870965e-04
6.965005e+01	-8.973726e-04
7.005235e+01	-9.077679e-04
7.045697e+01	-9.182835e-04
7.086393e+01	-9.289209e-04
7.127323e+01	-9.396816e-04
7.168490e+01	-9.505668e-04
7.209895e+01	-9.615782e-04
7.251539e+01	-9.727171e-04
7.293424e+01	-9.839850e-04
7.335551e+01	-9.953834e-04
7.377920e+01	-1.006914e-03
7.420535e+01	-1.018578e-03
7.463396e+01	-1.030377e-03
7.506504e+01	-1.042313e-03
7.549861e+01	-1.054387e-03
7.593469e+01	-1.066601e-03
7.637328e+01	-1.078956e-03
7.681441e+01	-1.091454e-03
7.725809e+01	-1.104098e-03
7.770433e+01	-1.116887e-03
7.815315e+01	-1.129825e-03
7.860456e+01	-1.142913e-03
7.905857e+01	-1.156152e-03
7.951521e+01	-1.169544e-03
7.997449e+01	-1.183092e-03
8.043642e+01	-1.196796e-03
8.090102e+01	-1.210660e-03
8.136830e+01	-1.224684e-03
8.183828e+01	-1.238870e-03
8.231097e+01	-1.253220e-03
8.278640e+01	-1.267737e-03
8.326457e+01	-1.282422e-03
8.374550e+01	-1.297277e-03
8.422921e+01	-1.312304e-03
8.471572e+01	-1.327505e-03
8.520503e+01	-1.342882e-03
8.569717e+01	-1.358438e-03
8.619215e+01	-1.374173e-03
8.669000e+01	-1.390091e-03
8.719071e+01	-1.406193e-03
8.769432e+01	-1.422481e-03
8.820084e+01	-1.438958e-03
8.871029e+01	-1.455626e-03
8.922267e+01	-1.472487e-03
8.973802e+01	-1.489543e-03
9.025634e+01	-1.506797e-03
9.077766e+01	-1.524251e-03
9.130199e+01	-1.541906e-03
9.182935e+01	-1.559766e-03
9.235975e+01	-1.577833e-03
9.289321e+01	-1.596110e-03
9.342976e+01	-1.614598e-03
9.396941e+01	-1.633300e-03
9.451217e+01	-1.652218e-03
9.505807e+01	-1.671356e-03
9.560712e+01	-1.690715e-03
9.615934e+01	-1.710299e-03
9.671476e+01	-1.730109e-03
9.727338e+01	-1.750149e-03
9.783522e+01	-1.770421e-03
9.840032e+01	-1.790927e-03
9.896867e+01	-1.811671e-03
9.954031e+01	-1.832656e-03
1.001153e+02	-1.853883e-03
1.006935e+02	-1.875356e-03
1.012751e+02	-1.897078e-03
1.018601e+02	-1.919051e-03
1.024484e+02	-1.941279e-03
1.030402e+02	-1.963764e-03
1.036353e+02	-1.986509e-03
1.042339e+02	-2.009518e-03
1.048360e+02	-2.032794e-03
1.054415e+02	-2.056339e-03
1.060505e+02	-2.080156e-03
1.066631e+02	-2.104249e-03
1.072791e+02	-2.128622e-03
1.078988e+02	-2.153276e-03
1.085220e+02	-2.178216e-03
1.091488e+02	-2.203445e-03
1.097793e+02	-2.228966e-03
1.104133e+02	-2.254783e-03
1.110511e+02	-2.280898e-03
1.116925e+02	-2.307316e-03
1.123376e+02	-2.334039e-03
1.129865e+02	-2.361073e-03
1.136391e+02	-2.388419e-03
1.142955e+02	-2.416081e-03
1.149556e+02	-2.444064e-03
1.156196e+02	-2.472372e-03
1.162874e+02	-2.501006e-03
1.169591e+02	-2.529973e-03
1.176347e+02	-2.559274e-03
1.183141e+02	-2.588916e-03
1.189975e+02	-2.618900e-03
1.196848e+02	-2.649231e-03
1.203761e+02	-2.679914e-03
1.210714e+02	-2.710951e-03
1.217707e+02	-2.742349e-03
1.224740e+02	-2.774109e-03
1.231814e+02	-2.806238e-03
1.238929e+02	-2.838738e-03
1.246085e+02	-2.871615e-03
1.253283e+02	-2.904872e-03
1.260522e+02	-2.938514e-03
1.267802e+02	-2.972546e-03
1.275125e+02	-3.006972e-03
1.282490e+02	-3.041796e-03
1.289898e+02	-3.077024e-03
1.297348e+02	-3.112659e-03
1.304842e+02	-3.148707e-03
1.312378e+02	-3.185172e-03
1.319959e+02	-3.222060e-03
1.327583e+02	-3.259374e-03
1.335251e+02	-3.297120e-03
1.342963e+02	-3.335304e-03
1.350720e+02	-3.373929e-03
1.358522e+02	-3.413001e-03
1.366368e+02	-3.452526e-03
1.374260e+02	-3.492508e-03
1.382198e+02	-3.532954e-03
1.390182e+02	-3.573867e-03
1.398211e+02	-3.615254e-03
1.406287e+02	-3.657120e-03
1.414410e+02	-3.699470e-03
1.422579e+02	-3.742311e-03
1.430796e+02	-3.785648e-03
1.439060e+02	-3.829486e-03
1.447372e+02	-3.873832e-03
1.455732e+02	-3.918691e-03
1.464141e+02	-3.964070e-03
1.472597e+02	-4.009973e-03
1.481103e+02	-4.056408e-03
1.489658e+02	-4.103380e-03
1.498262e+02	-4.150896e-03
1.506916e+02	-4.198962e-03
1.515620e+02	-4.247584e-03
1.524374e+02	-4.296769e-03
1.533179e+02	-4.346524e-03
1.542034e+02	-4.396854e-03
1.550941e+02	-4.447766e-03
1.559899e+02	-4.499268e-03
1.568909e+02	-4.551366e-03
1.577971e+02	-4.604067e-03
1.587085e+02	-4.657377e-03
1.596252e+02	-4.711305e-03
1.605472e+02	-4.765857e-03
1.614745e+02	-4.821039e-03
1.624072e+02	-4.876861e-03
1.633453e+02	-4.933329e-03
1.642887e+02	-4.990450e-03
1.652377e+02	-5.048232e-03
1.661921e+02	-5.106682e-03
1.671520e+02	-5.165809e-03
1.681175e+02	-5.225620e-03
1.690885e+02	-5.286124e-03
1.700651e+02	-5.347327e-03
1.710474e+02	-5.409238e-03
1.720354e+02	-5.471866e-03
1.730291e+02	-5.535219e-03
1.740285e+02	-5.599304e-03
1.750337e+02	-5.664131e-03
1.760446e+02	-5.729708e-03
1.770615e+02	-5.796044e-03
1.780842e+02	-5.863147e-03
1.791128e+02	-5.931027e-03
1.801473e+02	-5.999692e-03
1.811878e+02	-6.069151e-03
1.822344e+02	-6.139414e-03
1.832870e+02	-6.210490e-03
1.843456e+02	-6.282387e-03
1.854104e+02	-6.355117e-03
1.864813e+02	-6.428688e-03
1.875584e+02	-6.503110e-03
1.886418e+02	-6.578393e-03
1.897313e+02	-6.654547e-03
1.908272e+02	-6.731582e-03
1.919294e+02	-6.809508e-03
1.930380e+02	-6.888335e-03
1.941530e+02	-6.968074e-03
1.952744e+02	-7.048735e-03
1.964023e+02	-7.130329e-03
1.975367e+02	-7.212867e-03
1.986777e+02	-7.296360e-03
1.998252e+02	-7.380818e-03
2.009794e+02	-7.466253e-03
2.021403e+02	-7.552676e-03
2.033078e+02	-7.640098e-03
2.044821e+02	-7.728532e-03
2.056632e+02	-7.817988e-03
2.068511e+02	-7.908479e-03
2.080459e+02	-8.000016e-03
2.092475e+02	-8.092612e-03
2.104561e+02	-8.186278e-03
2.116717e+02	-8.281027e-03
2.128943e+02	-8.376872e-03
2.141240e+02	-8.473826e-03
2.153608e+02	-8.571900e-03
2.166047e+02	-8.671108e-03
2.178558e+02	-8.771463e-03
2.191141e+02	-8.872979e-03
2.203797e+02	-8.975668e-03
2.216526e+02	-9.079545e-03
2.229329e+02	-9.184622e-03
2.242205e+02	-9.290914e-03
2.255156e+02	-9.398435e-03
2.268182e+02	-9.507198e-03
2.281283e+02	-9.617219e-03
2.294459e+02	-9.728512e-03
2.307712e+02	-9.841091e-03
2.321041e+02	-9.954972e-03
2.334447e+02	-1.007017e-02
2.347931e+02	-1.018670e-02
2.361493e+02	-1.030457e-02
2.375133e+02	-1.042381e-02
2.388851e+02	-1.054442e-02
2.402649e+02	-1.066643e-02
2.416527e+02	-1.078985e-02
2.430484e+02	-1.091470e-02
2.444523e+02	-1.104099e-02
2.458642e+02	-1.116874e-02
2.472843e+02	-1.129796e-02
2.487126e+02	-1.142868e-02
2.501492e+02	-1.156090e-02
2.515940e+02	-1.169466e-02
2.530472e+02	-1.182996e-02
2.545088e+02	-1.196682e-02
2.559789e+02	-1.210527e-02
2.574574e+02	-1.224531e-02
2.589444e+02	-1.238697e-02
2.604401e+02	-1.253027e-02
2.619444e+02	-1.267523e-02
2.634574e+02	-1.282185e-02
2.649791e+02	-1.297018e-02
2.665096e+02	-1.312021e-02
2.680489e+02	-1.327198e-02
2.695972e+02	-1.342550e-02
2.711544e+02	-1.358079e-02
2.727205e+02	-1.373788e-02
2.742958e+02	-1.389678e-02
2.758801e+02	-1.405752e-02
2.774736e+02	-1.422011e-02
2.790762e+02	-1.438458e-02
2.806882e+02	-1.455095e-02
2.823094e+02	-1.471924e-02
2.839400e+02	-1.488947e-02
2.855800e+02	-1.506167e-02
2.872295e+02	-1.523586e-02
2.888886e+02	-1.541205e-02
2.905572e+02	-1.559029e-02
2.922354e+02	-1.577057e-02
2.939234e+02	-1.595294e-02
2.956211e+02	-1.613742e-02
2.973286e+02	-1.632402e-02
2.990459e+02	-1.651278e-02
3.007732e+02	-1.670371e-02
3.025104e+02	-1.689685e-02
3.042577e+02	-1.709222e-02
3.060151e+02	-1.728984e-02
3.077826e+02	-1.748975e-02
3.095604e+02	-1.769196e-02
3.113484e+02	-1.789650e-02
3.131467e+02	-1.810340e-02
3.149554e+02	-1.831269e-02
3.167746e+02	-1.852439e-02
3.186043e+02	-1.873854e-02
3.204445e+02	-1.895515e-02
3.222954e+02	-1.917427e-02
3.241570e+02	-1.939591e-02
3.260293e+02	-1.962010e-02
3.279124e+02	-1.984689e-02
3.298064e+02	-2.007629e-02
3.317114e+02	-2.030833e-02
3.336273e+02	-2.054305e-02
3.355544e+02	-2.078047e-02
3.374925e+02	-2.102064e-02
3.394418e+02	-2.126357e-02
3.414024e+02	-2.150930e-02
3.433744e+02	-2.175786e-02
3.453577e+02	-2.200929e-02
3.473525e+02	-2.226362e-02
3.493588e+02	-2.252088e-02
3.513766e+02	-2.278110e-02
3.534062e+02	-2.304433e-02
3.554474e+02	-2.331058e-02
3.575005e+02	-2.357991e-02
3.595654e+02	-2.385233e-02
3.616422e+02	-2.412790e-02
3.637311e+02	-2.440664e-02
3.658320e+02	-2.468859e-02
3.679450e+02	-2.497379e-02
3.700702e+02	-2.526227e-02
3.722077e+02	-2.555408e-02
3.743576e+02	-2.584924e-02
3.765199e+02	-2.614781e-02
3.786946e+02	-2.644981e-02
3.808820e+02	-2.675529e-02
3.830819e+02	-2.706429e-02
3.852946e+02	-2.737685e-02
3.875200e+02	-2.769300e-02
3.897583e+02	-2.801279e-02
3.920096e+02	-2.833627e-02
3.942738e+02	-2.866346e-02
3.965511e+02	-2.899443e-02
3.988416e+02	-2.932920e-02
4.011452e+02	-2.966782e-02
4.034622e+02	-3.001034e-02
4.057926e+02	-3.035680e-02
4.081365e+02	-3.070724e-02
4.104938e+02	-3.106172e-02
4.128648e+02	-3.142027e-02
4.152495e+02	-3.178295e-02
4.176480e+02	-3.214979e-02
4.200603e+02	-3.252086e-02
4.224866e+02	-3.289619e-02
4.249268e+02	-3.327584e-02
4.273812e+02	-3.365985e-02
4.298497e+02	-3.404827e-02
4.323325e+02	-3.444116e-02
4.348297e+02	-3.483857e-02
4.373412e+02	-3.524054e-02
4.398673e+02	-3.564713e-02
4.424079e+02	-3.605839e-02
4.449633e+02	-3.647438e-02
4.475334e+02	-3.689515e-02
4.501183e+02	-3.732075e-02
4.527182e+02	-3.775123e-02
4.553330e+02	-3.818666e-02
4.579630e+02	-3.862709e-02
4.606082e+02	-3.907258e-02
4.632687e+02	-3.952318e-02
4.659445e+02	-3.997896e-02
4.686358e+02	-4.043996e-02
4.713426e+02	-4.090626e-02
4.740650e+02	-4.137791e-02
4.768032e+02	-4.185496e-02
4.795572e+02	-4.233750e-02
4.823271e+02	-4.282556e-02
4.851130e+02	-4.331923e-02
4.879150e+02	-4.381856e-02
4.907332e+02	-4.432361e-02
4.935676e+02	-4.483446e-02
4.964185e+02	-4.535116e-02
4.992858e+02	-4.587378e-02
5.021696e+02	-4.640240e-02
5.050701e+02	-4.693707e-02
5.079874e+02	-4.747787e-02
5.109215e+02	-4.802487e-02
5.138726e+02	-4.857813e-02
5.168407e+02	-4.913773e-02
5.198259e+02	-4.970375e-02
5.228284e+02	-5.027624e-02
5.258482e+02	-5.085529e-02
5.288855e+02	-5.144096e-02
5.319403e+02	-5.203334e-02
5.350128e+02	-5.263251e-02
5.381030e+02	-5.323853e-02
5.412111e+02	-5.385148e-02
5.443371e+02	-5.447144e-02
5.474812e+02	-5.509850e-02
5.506434e+02	-5.573273e-02
5.538239e+02	-5.637421e-02
5.570228e+02	-5.702303e-02
5.602401e+02	-5.767927e-02
5.634760e+02	-5.834300e-02
5.667306e+02	-5.901433e-02
5.700040e+02	-5.969332e-02
5.732964e+02	-6.038007e-02
5.766077e+02	-6.107467e-02
5.799382e+02	-6.177720e-02
5.832879e+02	-6.248775e-02
5.866569e+02	-6.320641e-02
5.900454e+02	-6.393328e-02
5.934535e+02	-6.466845e-02
5.968813e+02	-6.541201e-02
6.003288e+02	-6.616405e-02
6.037963e+02	-6.692467e-02
6.072838e+02	-6.769396e-02
6.107914e+02	-6.847203e-02
6.143194e+02	-6.925897e-02
6.178676e+02	-7.005488e-02
6.214364e+02	-7.085986e-02
6.250258e+02	-7.167402e-02
6.286359e+02	-7.249745e-02
6.322669e+02	-7.333026e-02
6.359189e+02	-7.417256e-02
6.395919e+02	-7.502444e-02
6.432862e+02	-7.588603e-02
6.470017e+02	-7.675742e-02
6.507388e+02	-7.763873e-02
6.544974e+02	-7.853007e-02
6.582778e+02	-7.943154e-02
6.620800e+02	-8.034327e-02
6.659041e+02	-8.126537e-02
6.697504e+02	-8.219795e-02
6.736188e+02	-8.314112e-02
6.775096e+02	-8.409502e-02
6.814229e+02	-8.505975e-02
6.853587e+02	-8.603544e-02
6.893173e+02	-8.702220e-02
6.932988e+02	-8.802017e-02
6.973033e+02	-8.902947e-02
7.013309e+02	-9.005022e-02
