Frequency(Hz)	Magnitude(dB)
1.000000e+01	-1.676754e-05
1.005776e+01	-1.696180e-05
1.011585e+01	-1.715831e-05
1.017428e+01	-1.735709e-05
1.023305e+01	-1.755818e-05
1.029215e+01	-1.776159e-05
1.035160e+01	-1.796737e-05
1.041139e+01	-1.817552e-05
1.047153e+01	-1.838609e-05
1.053201e+01	-1.859910e-05
1.059284e+01	-1.881457e-05
1.065403e+01	-1.903254e-05
1.071556e+01	-1.925304e-05
1.077746e+01	-1.947609e-05
1.083971e+01	-1.970173e-05
1.090232e+01	-1.992998e-05
1.096529e+01	-2.016087e-05
1.102862e+01	-2.039444e-05
1.109232e+01	-2.063071e-05
1.115639e+01	-2.086973e-05
1.122083e+01	-2.111151e-05
1.128564e+01	-2.135609e-05
1.135083e+01	-2.160351e-05
1.141639e+01	-2.185379e-05
1.148233e+01	-2.210697e-05
1.154865e+01	-2.236308e-05
1.161536e+01	-2.262217e-05
1.168245e+01	-2.288425e-05
1.174992e+01	-2.314937e-05
1.181779e+01	-2.341756e-05
1.188605e+01	-2.368886e-05
1.195470e+01	-2.396330e-05
1.202375e+01	-2.424092e-05
1.209320e+01	-2.452176e-05
1.216305e+01	-2.480585e-05
1.223330e+01	-2.509323e-05
1.230396e+01	-2.538394e-05
1.237503e+01	-2.567802e-05
1.244651e+01	-2.597551e-05
1.251840e+01	-2.627644e-05
1.259070e+01	-2.658086e-05
1.266343e+01	-2.688880e-05
1.273657e+01	-2.720032e-05
1.281014e+01	-2.751544e-05
1.288413e+01	-2.783421e-05
1.295855e+01	-2.815668e-05
1.303339e+01	-2.848288e-05
1.310867e+01	-2.881286e-05
1.318439e+01	-2.914667e-05
1.326054e+01	-2.948434e-05
1.333713e+01	-2.982592e-05
1.341417e+01	-3.017146e-05
1.349165e+01	-3.052100e-05
1.356958e+01	-3.087460e-05
1.364795e+01	-3.123229e-05
1.372678e+01	-3.159412e-05
1.380607e+01	-3.196015e-05
1.388581e+01	-3.233041e-05
1.396602e+01	-3.270497e-05
1.404668e+01	-3.308386e-05
1.412782e+01	-3.346715e-05
1.420942e+01	-3.385487e-05
1.429149e+01	-3.424709e-05
1.437404e+01	-3.464385e-05
1.445706e+01	-3.504521e-05
1.454057e+01	-3.545121e-05
1.462455e+01	-3.586192e-05
1.470902e+01	-3.627739e-05
1.479398e+01	-3.669767e-05
1.487943e+01	-3.712282e-05
1.496537e+01	-3.755290e-05
1.505181e+01	-3.798796e-05
1.513875e+01	-3.842806e-05
1.522619e+01	-3.887326e-05
1.531414e+01	-3.932361e-05
1.540259e+01	-3.977919e-05
1.549156e+01	-4.024004e-05
1.558103e+01	-4.070623e-05
1.567103e+01	-4.117782e-05
1.576155e+01	-4.165487e-05
1.585258e+01	-4.213745e-05
1.594415e+01	-4.262562e-05
1.603624e+01	-4.311945e-05
1.612886e+01	-4.361900e-05
1.622202e+01	-4.412434e-05
1.631572e+01	-4.463553e-05
1.640996e+01	-4.515264e-05
1.650474e+01	-4.567574e-05
1.660008e+01	-4.620490e-05
1.669596e+01	-4.674020e-05
1.679239e+01	-4.728169e-05
1.688938e+01	-4.782946e-05
1.698694e+01	-4.838358e-05
1.708505e+01	-4.894411e-05
1.718373e+01	-4.951114e-05
1.728299e+01	-5.008474e-05
1.738281e+01	-5.066498e-05
1.748322e+01	-5.125194e-05
1.758420e+01	-5.184571e-05
1.768576e+01	-5.244635e-05
1.778792e+01	-5.305395e-05
1.789066e+01	-5.366859e-05
1.799399e+01	-5.429036e-05
1.809793e+01	-5.491932e-05
1.820246e+01	-5.555557e-05
1.830760e+01	-5.619920e-05
1.841334e+01	-5.685027e-05
1.851969e+01	-5.750890e-05
1.862666e+01	-5.817515e-05
1.873425e+01	-5.884912e-05
1.884246e+01	-5.953090e-05
1.895129e+01	-6.022058e-05
1.906075e+01	-6.091824e-05
1.917085e+01	-6.162399e-05
1.928158e+01	-6.233792e-05
1.939295e+01	-6.306012e-05
1.950496e+01	-6.379068e-05
1.961762e+01	-6.452971e-05
1.973093e+01	-6.527730e-05
1.984490e+01	-6.603355e-05
1.995952e+01	-6.679856e-05
2.007480e+01	-6.757243e-05
2.019076e+01	-6.835527e-05
2.030738e+01	-6.914718e-05
2.042467e+01	-6.994826e-05
2.054264e+01	-7.075863e-05
2.066130e+01	-7.157838e-05
2.078064e+01	-7.240763e-05
2.090066e+01	-7.324648e-05
2.102139e+01	-7.409506e-05
2.114280e+01	-7.495346e-05
2.126492e+01	-7.582181e-05
2.138775e+01	-7.670022e-05
2.151128e+01	-7.758880e-05
2.163553e+01	-7.848768e-05
2.176050e+01	-7.939698e-05
2.188619e+01	-8.031681e-05
2.201260e+01	-8.124729e-05
2.213974e+01	-8.218855e-05
2.226762e+01	-8.314072e-05
2.239624e+01	-8.410392e-05
2.252560e+01	-8.507828e-05
2.265571e+01	-8.606392e-05
2.278656e+01	-8.706099e-05
2.291818e+01	-8.806960e-05
2.305055e+01	-8.908990e-05
2.318369e+01	-9.012203e-05
2.331760e+01	-9.116610e-05
2.345228e+01	-9.222228e-05
2.358774e+01	-9.329069e-05
2.372398e+01	-9.437147e-05
2.386101e+01	-9.546478e-05
2.399883e+01	-9.657075e-05
2.413745e+01	-9.768954e-05
2.427686e+01	-9.882129e-05
2.441709e+01	-9.996615e-05
2.455812e+01	-1.011243e-04
2.469997e+01	-1.022958e-04
2.484263e+01	-1.034809e-04
2.498612e+01	-1.046798e-04
2.513044e+01	-1.058925e-04
2.527559e+01	-1.071193e-04
2.542158e+01	-1.083603e-04
2.556842e+01	-1.096156e-04
2.571610e+01	-1.108855e-04
2.586463e+01	-1.121702e-04
2.601403e+01	-1.134697e-04
2.616428e+01	-1.147842e-04
2.631541e+01	-1.161140e-04
2.646740e+01	-1.174592e-04
2.662028e+01	-1.188200e-04
2.677404e+01	-1.201965e-04
2.692868e+01	-1.215890e-04
2.708422e+01	-1.229977e-04
2.724066e+01	-1.244226e-04
2.739800e+01	-1.258640e-04
2.755625e+01	-1.273222e-04
2.771541e+01	-1.287972e-04
2.787550e+01	-1.302894e-04
2.803650e+01	-1.317988e-04
2.819844e+01	-1.333257e-04
2.836131e+01	-1.348703e-04
2.852513e+01	-1.364328e-04
2.868989e+01	-1.380133e-04
2.885560e+01	-1.396122e-04
2.902227e+01	-1.412297e-04
2.918990e+01	-1.428658e-04
2.935850e+01	-1.445209e-04
2.952807e+01	-1.461952e-04
2.969863e+01	-1.478889e-04
2.987016e+01	-1.496022e-04
3.004269e+01	-1.513354e-04
3.021622e+01	-1.530886e-04
3.039075e+01	-1.548621e-04
3.056628e+01	-1.566562e-04
3.074283e+01	-1.584711e-04
3.092040e+01	-1.603070e-04
3.109900e+01	-1.621642e-04
3.127862e+01	-1.640428e-04
3.145929e+01	-1.659433e-04
3.164099e+01	-1.678658e-04
3.182375e+01	-1.698105e-04
3.200756e+01	-1.717777e-04
3.219244e+01	-1.737678e-04
3.237838e+01	-1.757809e-04
3.256540e+01	-1.778173e-04
3.275349e+01	-1.798774e-04
3.294268e+01	-1.819612e-04
3.313295e+01	-1.840693e-04
3.332433e+01	-1.862017e-04
3.351681e+01	-1.883589e-04
3.371040e+01	-1.905410e-04
3.390511e+01	-1.927484e-04
3.410094e+01	-1.949814e-04
3.429791e+01	-1.972403e-04
3.449601e+01	-1.995253e-04
3.469526e+01	-2.018368e-04
3.489566e+01	-2.041751e-04
3.509721e+01	-2.065405e-04
3.529993e+01	-2.089332e-04
3.550382e+01	-2.113537e-04
3.570889e+01	-2.138023e-04
3.591515e+01	-2.162792e-04
3.612259e+01	-2.187848e-04
3.633123e+01	-2.213194e-04
3.654108e+01	-2.238834e-04
3.675214e+01	-2.264770e-04
3.696442e+01	-2.291008e-04
3.717792e+01	-2.317549e-04
3.739266e+01	-2.344398e-04
3.760864e+01	-2.371557e-04
3.782587e+01	-2.399032e-04
3.804435e+01	-2.426825e-04
3.826409e+01	-2.454939e-04
3.848510e+01	-2.483380e-04
3.870739e+01	-2.512149e-04
3.893096e+01	-2.541252e-04
3.915583e+01	-2.570693e-04
3.938199e+01	-2.600474e-04
3.960946e+01	-2.630600e-04
3.983824e+01	-2.661076e-04
4.006834e+01	-2.691904e-04
4.029978e+01	-2.723089e-04
4.053255e+01	-2.754636e-04
4.076666e+01	-2.786548e-04
4.100213e+01	-2.818830e-04
4.123896e+01	-2.851486e-04
4.147715e+01	-2.884520e-04
4.171672e+01	-2.917937e-04
4.195767e+01	-2.951741e-04
4.220002e+01	-2.985937e-04
4.244377e+01	-3.020528e-04
4.268892e+01	-3.055521e-04
4.293549e+01	-3.090919e-04
4.318348e+01	-3.126726e-04
4.343291e+01	-3.162949e-04
4.368377e+01	-3.199591e-04
4.393609e+01	-3.236658e-04
4.418986e+01	-3.274154e-04
4.444510e+01	-3.312085e-04
4.470182e+01	-3.350455e-04
4.496001e+01	-3.389269e-04
4.521970e+01	-3.428533e-04
4.548089e+01	-3.468252e-04
4.574358e+01	-3.508431e-04
4.600779e+01	-3.549076e-04
4.627353e+01	-3.590191e-04
4.654081e+01	-3.631783e-04
4.680963e+01	-3.673856e-04
4.708000e+01	-3.716417e-04
4.735193e+01	-3.759471e-04
4.762543e+01	-3.803023e-04
4.790051e+01	-3.847081e-04
4.817719e+01	-3.891648e-04
4.845545e+01	-3.936732e-04
4.873533e+01	-3.982338e-04
4.901682e+01	-4.028472e-04
4.929994e+01	-4.075141e-04
4.958470e+01	-4.122350e-04
4.987110e+01	-4.170107e-04
5.015915e+01	-4.218416e-04
5.044887e+01	-4.267285e-04
5.074026e+01	-4.316721e-04
5.103333e+01	-4.366728e-04
5.132810e+01	-4.417316e-04
5.162457e+01	-4.468489e-04
5.192275e+01	-4.520255e-04
5.222265e+01	-4.572620e-04
5.252429e+01	-4.625593e-04
5.282767e+01	-4.679179e-04
5.313280e+01	-4.733385e-04
5.343969e+01	-4.788220e-04
5.374836e+01	-4.843690e-04
5.405880e+01	-4.899802e-04
5.437105e+01	-4.956564e-04
5.468509e+01	-5.013984e-04
5.500095e+01	-5.072069e-04
5.531863e+01	-5.130827e-04
5.563815e+01	-5.190265e-04
5.595951e+01	-5.250392e-04
5.628273e+01	-5.311216e-04
5.660782e+01	-5.372744e-04
5.693479e+01	-5.434985e-04
5.726364e+01	-5.497947e-04
5.759439e+01	-5.561638e-04
5.792705e+01	-5.626067e-04
5.826164e+01	-5.691242e-04
5.859815e+01	-5.757172e-04
5.893662e+01	-5.823866e-04
5.927703e+01	-5.891333e-04
5.961941e+01	-5.959581e-04
5.996377e+01	-6.028619e-04
6.031012e+01	-6.098458e-04
6.065847e+01	-6.169105e-04
6.100883e+01	-6.240571e-04
6.136121e+01	-6.312864e-04
6.171563e+01	-6.385995e-04
6.207210e+01	-6.459973e-04
6.243063e+01	-6.534808e-04
6.279122e+01	-6.610510e-04
6.315390e+01	-6.687088e-04
6.351868e+01	-6.764554e-04
6.388556e+01	-6.842917e-04
6.425456e+01	-6.922188e-04
6.462569e+01	-7.002377e-04
6.499897e+01	-7.083495e-04
6.537440e+01	-7.165552e-04
6.575200e+01	-7.248560e-04
6.613178e+01	-7.332530e-04
6.651375e+01	-7.417472e-04
6.689793e+01	-7.503398e-04
6.728433e+01	-7.590319e-04
6.767297e+01	-7.678247e-04
6.806384e+01	-7.767194e-04
6.845698e+01	-7.857171e-04
6.885238e+01	-7.948190e-04
6.925007e+01	-8.040263e-04
6.965005e+01	-8.133403e-04
7.005235e+01	-8.227622e-04
7.045697e+01	-8.322932e-04
7.086393e+01	-8.419346e-04
7.127323e+01	-8.516877e-04
7.168490e+01	-8.615538e-04
7.209895e+01	-8.715341e-04
7.251539e+01	-8.816301e-04
7.293424e+01	-8.918429e-04
7.335551e+01	-9.021741e-04
7.377920e+01	-9.126249e-04
7.420535e+01	-9.231968e-04
7.463396e+01	-9.338912e-04
7.506504e+01	-9.447094e-04
7.549861e+01	-9.556529e-04
7.593469e+01	-9.667232e-04
7.637328e+01	-9.779216e-04
7.681441e+01	-9.892498e-04
7.725809e+01	-1.000709e-03
7.770433e+01	-1.012301e-03
7.815315e+01	-1.024028e-03
7.860456e+01	-1.035890e-03
7.905857e+01	-1.047890e-03
7.951521e+01	-1.060028e-03
7.997449e+01	-1.072307e-03
8.043642e+01	-1.084729e-03
8.090102e+01	-1.097294e-03
8.136830e+01	-1.110005e-03
8.183828e+01	-1.122863e-03
8.231097e+01	-1.135870e-03
8.278640e+01	-1.149028e-03
8.326457e+01	-1.162338e-03
8.374550e+01	-1.175802e-03
8.422921e+01	-1.189422e-03
8.471572e+01	-1.203200e-03
8.520503e+01	-1.217137e-03
8.569717e+01	-1.231236e-03
8.619215e+01	-1.245498e-03
8.669000e+01	-1.259926e-03
8.719071e+01	-1.274520e-03
8.769432e+01	-1.289284e-03
8.820084e+01	-1.304218e-03
8.871029e+01	-1.319325e-03
8.922267e+01	-1.334608e-03
8.973802e+01	-1.350067e-03
9.025634e+01	-1.365706e-03
9.077766e+01	-1.381525e-03
9.130199e+01	-1.397528e-03
9.182935e+01	-1.413716e-03
9.235975e+01	-1.430092e-03
9.289321e+01	-1.446657e-03
9.342976e+01	-1.463414e-03
9.396941e+01	-1.480365e-03
9.451217e+01	-1.497513e-03
9.505807e+01	-1.514859e-03
9.560712e+01	-1.532406e-03
9.615934e+01	-1.550156e-03
9.671476e+01	-1.568111e-03
9.727338e+01	-1.586275e-03
9.783522e+01	-1.604649e-03
9.840032e+01	-1.623236e-03
9.896867e+01	-1.642038e-03
9.954031e+01	-1.661058e-03
1.001153e+02	-1.680298e-03
1.006935e+02	-1.699761e-03
1.012751e+02	-1.719449e-03
1.018601e+02	-1.739365e-03
1.024484e+02	-1.759512e-03
1.030402e+02	-1.779893e-03
1.036353e+02	-1.800509e-03
1.042339e+02	-1.821364e-03
1.048360e+02	-1.842460e-03
1.054415e+02	-1.863801e-03
1.060505e+02	-1.885389e-03
1.066631e+02	-1.907227e-03
1.072791e+02	-1.929318e-03
1.078988e+02	-1.951665e-03
1.085220e+02	-1.974270e-03
1.091488e+02	-1.997137e-03
1.097793e+02	-2.020269e-03
1.104133e+02	-2.043669e-03
1.110511e+02	-2.067340e-03
1.116925e+02	-2.091285e-03
1.123376e+02	-2.115507e-03
1.129865e+02	-2.140010e-03
1.136391e+02	-2.164796e-03
1.142955e+02	-2.189869e-03
1.149556e+02	-2.215233e-03
1.156196e+02	-2.240890e-03
1.162874e+02	-2.266845e-03
1.169591e+02	-2.293100e-03
1.176347e+02	-2.319659e-03
1.183141e+02	-2.346526e-03
1.189975e+02	-2.373703e-03
1.196848e+02	-2.401196e-03
1.203761e+02	-2.429007e-03
1.210714e+02	-2.457139e-03
1.217707e+02	-2.485598e-03
1.224740e+02	-2.514386e-03
1.231814e+02	-2.543507e-03
1.238929e+02	-2.572965e-03
1.246085e+02	-2.602765e-03
1.253283e+02	-2.632910e-03
1.260522e+02	-2.663403e-03
1.267802e+02	-2.694250e-03
1.275125e+02	-2.725454e-03
1.282490e+02	-2.757019e-03
1.289898e+02	-2.788949e-03
1.297348e+02	-2.821249e-03
1.304842e+02	-2.853924e-03
1.312378e+02	-2.886976e-03
1.319959e+02	-2.920411e-03
1.327583e+02	-2.954233e-03
1.335251e+02	-2.988447e-03
1.342963e+02	-3.023057e-03
1.350720e+02	-3.058068e-03
1.358522e+02	-3.093483e-03
1.366368e+02	-3.129309e-03
1.374260e+02	-3.165550e-03
1.382198e+02	-3.202210e-03
1.390182e+02	-3.239295e-03
1.398211e+02	-3.276809e-03
1.406287e+02	-3.314757e-03
1.414410e+02	-3.353144e-03
1.422579e+02	-3.391976e-03
1.430796e+02	-3.431258e-03
1.439060e+02	-3.470994e-03
1.447372e+02	-3.511190e-03
1.455732e+02	-3.551851e-03
1.464141e+02	-3.592983e-03
1.472597e+02	-3.634591e-03
1.481103e+02	-3.676681e-03
1.489658e+02	-3.719258e-03
1.498262e+02	-3.762328e-03
1.506916e+02	-3.805897e-03
1.515620e+02	-3.849969e-03
1.524374e+02	-3.894552e-03
1.533179e+02	-3.939651e-03
1.542034e+02	-3.985272e-03
1.550941e+02	-4.031421e-03
1.559899e+02	-4.078104e-03
1.568909e+02	-4.125327e-03
1.577971e+02	-4.173097e-03
1.587085e+02	-4.221420e-03
1.596252e+02	-4.270302e-03
1.605472e+02	-4.319750e-03
1.614745e+02	-4.369771e-03
1.624072e+02	-4.420370e-03
1.633453e+02	-4.471554e-03
1.642887e+02	-4.523332e-03
1.652377e+02	-4.575708e-03
1.661921e+02	-4.628690e-03
1.671520e+02	-4.682286e-03
1.681175e+02	-4.736502e-03
1.690885e+02	-4.791345e-03
1.700651e+02	-4.846823e-03
1.710474e+02	-4.902943e-03
1.720354e+02	-4.959712e-03
1.730291e+02	-5.017139e-03
1.740285e+02	-5.075229e-03
1.750337e+02	-5.133992e-03
1.760446e+02	-5.193435e-03
1.770615e+02	-5.253566e-03
1.780842e+02	-5.314393e-03
1.791128e+02	-5.375923e-03
1.801473e+02	-5.438166e-03
1.811878e+02	-5.501128e-03
1.822344e+02	-5.564819e-03
1.832870e+02	-5.629247e-03
1.843456e+02	-5.694421e-03
1.854104e+02	-5.760348e-03
1.864813e+02	-5.827038e-03
1.875584e+02	-5.894500e-03
1.886418e+02	-5.962742e-03
1.897313e+02	-6.031774e-03
1.908272e+02	-6.101605e-03
1.919294e+02	-6.172243e-03
1.930380e+02	-6.243699e-03
1.941530e+02	-6.315981e-03
1.952744e+02	-6.389099e-03
1.964023e+02	-6.463063e-03
1.975367e+02	-6.537883e-03
1.986777e+02	-6.613568e-03
1.998252e+02	-6.690129e-03
2.009794e+02	-6.767575e-03
2.021403e+02	-6.845917e-03
2.033078e+02	-6.925166e-03
2.044821e+02	-7.005331e-03
2.056632e+02	-7.086423e-03
2.068511e+02	-7.168453e-03
2.080459e+02	-7.251432e-03
2.092475e+02	-7.335370e-03
2.104561e+02	-7.420280e-03
2.116717e+02	-7.506171e-03
2.128943e+02	-7.593056e-03
2.141240e+02	-7.680945e-03
2.153608e+02	-7.769851e-03
2.166047e+02	-7.859785e-03
2.178558e+02	-7.950759e-03
2.191141e+02	-8.042785e-03
2.203797e+02	-8.135875e-03
2.216526e+02	-8.230042e-03
2.229329e+02	-8.325297e-03
2.242205e+02	-8.421654e-03
2.255156e+02	-8.519125e-03
2.268182e+02	-8.617723e-03
2.281283e+02	-8.717461e-03
2.294459e+02	-8.818353e-03
2.307712e+02	-8.920410e-03
2.321041e+02	-9.023648e-03
2.334447e+02	-9.128079e-03
2.347931e+02	-9.233717e-03
2.361493e+02	-9.340577e-03
2.375133e+02	-9.448672e-03
2.388851e+02	-9.558016e-03
2.402649e+02	-9.668625e-03
2.416527e+02	-9.780511e-03
2.430484e+02	-9.893692e-03
2.444523e+02	-1.000818e-02
2.458642e+02	-1.012399e-02
2.472843e+02	-1.024114e-02
2.487126e+02	-1.035965e-02
2.501492e+02	-1.047952e-02
2.515940e+02	-1.060078e-02
2.530472e+02	-1.072344e-02
2.545088e+02	-1.084752e-02
2.559789e+02	-1.097303e-02
2.574574e+02	-1.109999e-02
2.589444e+02	-1.122842e-02
2.604401e+02	-1.135834e-02
2.619444e+02	-1.148975e-02
2.634574e+02	-1.162268e-02
2.649791e+02	-1.175715e-02
2.665096e+02	-1.189317e-02
2.680489e+02	-1.203077e-02
2.695972e+02	-1.216995e-02
2.711544e+02	-1.231074e-02
2.727205e+02	-1.245316e-02
2.742958e+02	-1.259723e-02
2.758801e+02	-1.274295e-02
2.774736e+02	-1.289036e-02
2.790762e+02	-1.303948e-02
2.806882e+02	-1.319031e-02
2.823094e+02	-1.334289e-02
2.839400e+02	-1.349723e-02
2.855800e+02	-1.365335e-02
2.872295e+02	-1.381128e-02
2.888886e+02	-1.397103e-02
2.905572e+02	-1.413262e-02
2.922354e+02	-1.429608e-02
2.939234e+02	-1.446143e-02
2.956211e+02	-1.462868e-02
2.973286e+02	-1.479787e-02
2.990459e+02	-1.496901e-02
3.007732e+02	-1.514213e-02
3.025104e+02	-1.531724e-02
3.042577e+02	-1.549438e-02
3.060151e+02	-1.567356e-02
3.077826e+02	-1.585481e-02
3.095604e+02	-1.603815e-02
3.113484e+02	-1.622361e-02
3.131467e+02	-1.641121e-02
3.149554e+02	-1.660097e-02
3.167746e+02	-1.679292e-02
3.186043e+02	-1.698709e-02
3.204445e+02	-1.718350e-02
3.222954e+02	-1.738218e-02
3.241570e+02	-1.758314e-02
3.260293e+02	-1.778643e-02
3.279124e+02	-1.799206e-02
3.298064e+02	-1.820007e-02
3.317114e+02	-1.841047e-02
3.336273e+02	-1.862330e-02
3.355544e+02	-1.883859e-02
3.374925e+02	-1.905636e-02
3.394418e+02	-1.927664e-02
3.414024e+02	-1.949946e-02
3.433744e+02	-1.972485e-02
3.453577e+02	-1.995284e-02
3.473525e+02	-2.018346e-02
3.493588e+02	-2.041674e-02
3.513766e+02	-2.065271e-02
3.534062e+02	-2.089140e-02
3.554474e+02	-2.113284e-02
3.575005e+02	-2.137707e-02
3.595654e+02	-2.162411e-02
3.616422e+02	-2.187400e-02
3.637311e+02	-2.212676e-02
3.658320e+02	-2.238245e-02
3.679450e+02	-2.264107e-02
3.700702e+02	-2.290268e-02
3.722077e+02	-2.316731e-02
3.743576e+02	-2.343498e-02
3.765199e+02	-2.370574e-02
3.786946e+02	-2.397961e-02
3.808820e+02	-2.425664e-02
3.830819e+02	-2.453687e-02
3.852946e+02	-2.482032e-02
3.875200e+02	-2.510704e-02
3.897583e+02	-2.539705e-02
3.920096e+02	-2.569041e-02
3.942738e+02	-2.598715e-02
3.965511e+02	-2.628730e-02
3.988416e+02	-2.659091e-02
4.011452e+02	-2.689802e-02
4.034622e+02	-2.720866e-02
4.057926e+02	-2.752288e-02
4.081365e+02	-2.784071e-02
4.104938e+02	-2.816220e-02
4.128648e+02	-2.848740e-02
4.152495e+02	-2.881633e-02
4.176480e+02	-2.914905e-02
4.200603e+02	-2.948560e-02
4.224866e+02	-2.982603e-02
4.249268e+02	-3.017036e-02
4.273812e+02	-3.051866e-02
4.298497e+02	-3.087097e-02
4.323325e+02	-3.122733e-02
4.348297e+02	-3.158779e-02
4.373412e+02	-3.195239e-02
4.398673e+02	-3.232119e-02
4.424079e+02	-3.269422e-02
4.449633e+02	-3.307155e-02
4.475334e+02	-3.345321e-02
4.501183e+02	-3.383926e-02
4.527182e+02	-3.422975e-02
4.553330e+02	-3.462472e-02
4.579630e+02	-3.502424e-02
4.606082e+02	-3.542834e-02
4.632687e+02	-3.583709e-02
4.659445e+02	-3.625054e-02
4.686358e+02	-3.666873e-02
4.713426e+02	-3.709173e-02
4.740650e+02	-3.751959e-02
4.768032e+02	-3.795236e-02
4.795572e+02	-3.839010e-02
4.823271e+02	-3.883286e-02
4.851130e+02	-3.928071e-02
4.879150e+02	-3.973370e-02
4.907332e+02	-4.019189e-02
4.935676e+02	-4.065534e-02
4.964185e+02	-4.112411e-02
4.992858e+02	-4.159826e-02
5.021696e+02	-4.207784e-02
5.050701e+02	-4.256293e-02
5.079874e+02	-4.305358e-02
5.109215e+02	-4.354987e-02
5.138726e+02	-4.405184e-02
5.168407e+02	-4.455957e-02
5.198259e+02	-4.507312e-02
5.228284e+02	-4.559255e-02
5.258482e+02	-4.611795e-02
5.288855e+02	-4.664936e-02
5.319403e+02	-4.718686e-02
5.350128e+02	-4.773053e-02
5.381030e+02	-4.828042e-02
5.412111e+02	-4.883661e-02
5.443371e+02	-4.939917e-02
5.474812e+02	-4.996818e-02
5.506434e+02	-5.054370e-02
5.538239e+02	-5.112581e-02
5.570228e+02	-5.171458e-02
5.602401e+02	-5.231009e-02
5.634760e+02	-5.291242e-02
5.667306e+02	-5.352164e-02
5.700040e+02	-5.413784e-02
5.732964e+02	-5.476108e-02
5.766077e+02	-5.539145e-02
5.799382e+02	-5.602903e-02
5.832879e+02	-5.667390e-02
5.866569e+02	-5.732614e-02
5.900454e+02	-5.798584e-02
5.934535e+02	-5.865308e-02
5.968813e+02	-5.932795e-02
6.003288e+02	-6.001052e-02
6.037963e+02	-6.070090e-02
6.072838e+02	-6.139916e-02
6.107914e+02	-6.210540e-02
6.143194e+02	-6.281970e-02
6.178676e+02	-6.354215e-02
6.214364e+02	-6.427285e-02
6.250258e+02	-6.501189e-02
6.286359e+02	-6.575937e-02
6.322669e+02	-6.651537e-02
6.359189e+02	-6.728000e-02
6.395919e+02	-6.805334e-02
6.432862e+02	-6.883551e-02
6.470017e+02	-6.962659e-02
6.507388e+02	-7.042669e-02
6.544974e+02	-7.123591e-02
6.582778e+02	-7.205435e-02
6.620800e+02	-7.288212e-02
6.659041e+02	-7.371931e-02
6.697504e+02	-7.456604e-02
6.736188e+02	-7.542241e-02
6.775096e+02	-7.628852e-02
6.814229e+02	-7.716449e-02
6.853587e+02	-7.805044e-02
6.893173e+02	-7.894645e-02
6.932988e+02	-7.985267e-02
6.973033e+02	-8.076918e-02
7.013309e+02	-8.169612e-02
