Frequency(Hz)	Magnitude(dB)
1.000000e+01	-2.108270e+00
1.005776e+01	-2.127613e+00
1.011585e+01	-2.147024e+00
1.017428e+01	-2.166686e+00
1.023305e+01	-2.186377e+00
1.029215e+01	-2.206256e+00
1.035160e+01	-2.226263e+00
1.041139e+01	-2.246583e+00
1.047153e+01	-2.266602e+00
1.053201e+01	-2.287006e+00
1.059284e+01	-2.307521e+00
1.065403e+01	-2.328209e+00
1.071556e+01	-2.349033e+00
1.077746e+01	-2.370031e+00
1.083971e+01	-2.391309e+00
1.090232e+01	-2.412346e+00
1.096529e+01	-2.433798e+00
1.102862e+01	-2.455278e+00
1.109232e+01	-2.477045e+00
1.115639e+01	-2.498792e+00
1.122083e+01	-2.520642e+00
1.128564e+01	-2.542673e+00
1.135083e+01	-2.565093e+00
1.141639e+01	-2.587563e+00
1.148233e+01	-2.610099e+00
1.154865e+01	-2.632639e+00
1.161536e+01	-2.655600e+00
1.168245e+01	-2.678444e+00
1.174992e+01	-2.701312e+00
1.181779e+01	-2.724841e+00
1.188605e+01	-2.748302e+00
1.195470e+01	-2.771708e+00
1.202375e+01	-2.795310e+00
1.209320e+01	-2.819268e+00
1.216305e+01	-2.843100e+00
1.223330e+01	-2.867268e+00
1.230396e+01	-2.891481e+00
1.237503e+01	-2.916003e+00
1.244651e+01	-2.940464e+00
1.251840e+01	-2.964960e+00
1.259070e+01	-2.989664e+00
1.266343e+01	-3.014863e+00
1.273657e+01	-3.039946e+00
1.281014e+01	-3.065135e+00
1.288413e+01	-3.090688e+00
1.295855e+01	-3.116135e+00
1.303339e+01	-3.141912e+00
1.310867e+01	-3.167507e+00
1.318439e+01	-3.193530e+00
1.326054e+01	-3.219683e+00
1.333713e+01	-3.246077e+00
1.341417e+01	-3.272304e+00
1.349165e+01	-3.298905e+00
1.356958e+01	-3.325547e+00
1.364795e+01	-3.352598e+00
1.372678e+01	-3.379484e+00
1.380607e+01	-3.406687e+00
1.388581e+01	-3.433963e+00
1.396602e+01	-3.461323e+00
1.404668e+01	-3.488844e+00
1.412782e+01	-3.516844e+00
1.420942e+01	-3.544495e+00
1.429149e+01	-3.572445e+00
1.437404e+01	-3.600523e+00
1.445706e+01	-3.629006e+00
1.454057e+01	-3.657020e+00
1.462455e+01	-3.685592e+00
1.470902e+01	-3.714348e+00
1.479398e+01	-3.743038e+00
1.487943e+01	-3.772244e+00
1.496537e+01	-3.801278e+00
1.505181e+01	-3.830288e+00
1.513875e+01	-3.859997e+00
1.522619e+01	-3.889641e+00
1.531414e+01	-3.919146e+00
1.540259e+01	-3.948834e+00
1.549156e+01	-3.978887e+00
1.558103e+01	-4.009004e+00
1.567103e+01	-4.039194e+00
1.576155e+01	-4.069772e+00
1.585258e+01	-4.100215e+00
1.594415e+01	-4.130674e+00
1.603624e+01	-4.161402e+00
1.612886e+01	-4.192289e+00
1.622202e+01	-4.223037e+00
1.631572e+01	-4.254474e+00
1.640996e+01	-4.285842e+00
1.650474e+01	-4.317230e+00
1.660008e+01	-4.348846e+00
1.669596e+01	-4.380657e+00
1.679239e+01	-4.412418e+00
1.688938e+01	-4.444471e+00
1.698694e+01	-4.476378e+00
1.708505e+01	-4.508742e+00
1.718373e+01	-4.541232e+00
1.728299e+01	-4.573410e+00
1.738281e+01	-4.606257e+00
1.748322e+01	-4.639219e+00
1.758420e+01	-4.671947e+00
1.768576e+01	-4.704977e+00
1.778792e+01	-4.738087e+00
1.789066e+01	-4.771594e+00
1.799399e+01	-4.804783e+00
1.809793e+01	-4.838446e+00
1.820246e+01	-4.871781e+00
1.830760e+01	-4.905556e+00
1.841334e+01	-4.939682e+00
1.851969e+01	-4.973839e+00
1.862666e+01	-5.008012e+00
1.873425e+01	-5.042244e+00
1.884246e+01	-5.076590e+00
1.895129e+01	-5.110998e+00
1.906075e+01	-5.145831e+00
1.917085e+01	-5.180659e+00
1.928158e+01	-5.215571e+00
1.939295e+01	-5.250571e+00
1.950496e+01	-5.285747e+00
1.961762e+01	-5.320999e+00
1.973093e+01	-5.356631e+00
1.984490e+01	-5.392096e+00
1.995952e+01	-5.427457e+00
2.007480e+01	-5.463369e+00
2.019076e+01	-5.498952e+00
2.030738e+01	-5.535093e+00
2.042467e+01	-5.570965e+00
2.054264e+01	-5.607650e+00
2.066130e+01	-5.643635e+00
2.078064e+01	-5.680216e+00
2.090066e+01	-5.716608e+00
2.102139e+01	-5.753717e+00
2.114280e+01	-5.790586e+00
2.126492e+01	-5.827521e+00
2.138775e+01	-5.864628e+00
2.151128e+01	-5.901430e+00
2.163553e+01	-5.938234e+00
2.176050e+01	-5.976152e+00
2.188619e+01	-6.013188e+00
2.201260e+01	-6.050691e+00
2.213974e+01	-6.088269e+00
2.226762e+01	-6.126562e+00
2.239624e+01	-6.164129e+00
2.252560e+01	-6.202489e+00
2.265571e+01	-6.240359e+00
2.278656e+01	-6.278530e+00
2.291818e+01	-6.316605e+00
2.305055e+01	-6.355389e+00
2.318369e+01	-6.393852e+00
2.331760e+01	-6.432363e+00
2.345228e+01	-6.471060e+00
2.358774e+01	-6.510023e+00
2.372398e+01	-6.548321e+00
2.386101e+01	-6.587388e+00
2.399883e+01	-6.626440e+00
2.413745e+01	-6.665908e+00
2.427686e+01	-6.705054e+00
2.441709e+01	-6.744604e+00
2.455812e+01	-6.784114e+00
2.469997e+01	-6.823216e+00
2.484263e+01	-6.863374e+00
2.498612e+01	-6.902454e+00
2.513044e+01	-6.943072e+00
2.527559e+01	-6.982734e+00
2.542158e+01	-7.022961e+00
2.556842e+01	-7.063141e+00
2.571610e+01	-7.103389e+00
2.586463e+01	-7.143945e+00
2.601403e+01	-7.183979e+00
2.616428e+01	-7.224221e+00
2.631541e+01	-7.265510e+00
2.646740e+01	-7.305781e+00
2.662028e+01	-7.346774e+00
2.677404e+01	-7.387357e+00
2.692868e+01	-7.428779e+00
2.708422e+01	-7.469148e+00
2.724066e+01	-7.510614e+00
2.739800e+01	-7.552139e+00
2.755625e+01	-7.592945e+00
2.771541e+01	-7.634544e+00
2.787550e+01	-7.675745e+00
2.803650e+01	-7.717376e+00
2.819844e+01	-7.758541e+00
2.836131e+01	-7.800927e+00
2.852513e+01	-7.842246e+00
2.868989e+01	-7.884201e+00
2.885560e+01	-7.926403e+00
2.902227e+01	-7.967996e+00
2.918990e+01	-8.009848e+00
2.935850e+01	-8.052034e+00
2.952807e+01	-8.094667e+00
2.969863e+01	-8.137047e+00
2.987016e+01	-8.179306e+00
3.004269e+01	-8.222082e+00
3.021622e+01	-8.264621e+00
3.039075e+01	-8.306581e+00
3.056628e+01	-8.349480e+00
3.074283e+01	-8.392381e+00
3.092040e+01	-8.434649e+00
3.109900e+01	-8.477811e+00
3.127862e+01	-8.521219e+00
3.145929e+01	-8.563739e+00
3.164099e+01	-8.607150e+00
3.182375e+01	-8.650180e+00
3.200756e+01	-8.693387e+00
3.219244e+01	-8.737009e+00
3.237838e+01	-8.780234e+00
3.256540e+01	-8.823673e+00
3.275349e+01	-8.866705e+00
3.294268e+01	-8.910340e+00
3.313295e+01	-8.954578e+00
3.332433e+01	-8.998417e+00
3.351681e+01	-9.041549e+00
3.371040e+01	-9.085521e+00
3.390511e+01	-9.129316e+00
3.410094e+01	-9.173286e+00
3.429791e+01	-9.217113e+00
3.449601e+01	-9.261561e+00
3.469526e+01	-9.305277e+00
3.489566e+01	-9.349994e+00
3.509721e+01	-9.394061e+00
3.529993e+01	-9.438889e+00
3.550382e+01	-9.482366e+00
3.570889e+01	-9.526667e+00
3.591515e+01	-9.571308e+00
3.612259e+01	-9.616634e+00
3.633123e+01	-9.660495e+00
3.654108e+01	-9.705716e+00
3.675214e+01	-9.750173e+00
3.696442e+01	-9.794750e+00
3.717792e+01	-9.839223e+00
3.739266e+01	-9.884588e+00
3.760864e+01	-9.929610e+00
3.782587e+01	-9.974229e+00
3.804435e+01	-1.001921e+01
3.826409e+01	-1.006454e+01
3.848510e+01	-1.010964e+01
3.870739e+01	-1.015489e+01
3.893096e+01	-1.020054e+01
3.915583e+01	-1.024552e+01
3.938199e+01	-1.029038e+01
3.960946e+01	-1.033632e+01
3.983824e+01	-1.038123e+01
4.006834e+01	-1.042656e+01
4.029978e+01	-1.047234e+01
4.053255e+01	-1.051820e+01
4.076666e+01	-1.056384e+01
4.100213e+01	-1.060953e+01
4.123896e+01	-1.065469e+01
4.147715e+01	-1.070020e+01
4.171672e+01	-1.074629e+01
4.195767e+01	-1.079201e+01
4.220002e+01	-1.083822e+01
4.244377e+01	-1.088381e+01
4.268892e+01	-1.093065e+01
4.293549e+01	-1.097588e+01
4.318348e+01	-1.102231e+01
4.343291e+01	-1.106826e+01
4.368377e+01	-1.111429e+01
4.393609e+01	-1.116042e+01
4.418986e+01	-1.120726e+01
4.444510e+01	-1.125366e+01
4.470182e+01	-1.130027e+01
4.496001e+01	-1.134550e+01
4.521970e+01	-1.139242e+01
4.548089e+01	-1.143847e+01
4.574358e+01	-1.148507e+01
4.600779e+01	-1.153155e+01
4.627353e+01	-1.157781e+01
4.654081e+01	-1.162477e+01
4.680963e+01	-1.167110e+01
4.708000e+01	-1.171834e+01
4.735193e+01	-1.176455e+01
4.762543e+01	-1.181084e+01
4.790051e+01	-1.185762e+01
4.817719e+01	-1.190457e+01
4.845545e+01	-1.195159e+01
4.873533e+01	-1.199840e+01
4.901682e+01	-1.204516e+01
4.929994e+01	-1.209162e+01
4.958470e+01	-1.213876e+01
4.987110e+01	-1.218635e+01
5.015915e+01	-1.223271e+01
5.044887e+01	-1.228091e+01
5.074026e+01	-1.232697e+01
5.103333e+01	-1.237430e+01
5.132810e+01	-1.242182e+01
5.162457e+01	-1.246919e+01
5.192275e+01	-1.251643e+01
5.222265e+01	-1.256282e+01
5.252429e+01	-1.261033e+01
5.282767e+01	-1.265760e+01
5.313280e+01	-1.270535e+01
5.343969e+01	-1.275272e+01
5.374836e+01	-1.279986e+01
5.405880e+01	-1.284752e+01
5.437105e+01	-1.289403e+01
5.468509e+01	-1.294213e+01
5.500095e+01	-1.298960e+01
5.531863e+01	-1.303712e+01
5.563815e+01	-1.308415e+01
5.595951e+01	-1.313166e+01
5.628273e+01	-1.317995e+01
5.660782e+01	-1.322738e+01
5.693479e+01	-1.327560e+01
5.726364e+01	-1.332236e+01
5.759439e+01	-1.337040e+01
5.792705e+01	-1.341876e+01
5.826164e+01	-1.346657e+01
5.859815e+01	-1.351365e+01
5.893662e+01	-1.356249e+01
5.927703e+01	-1.360851e+01
5.961941e+01	-1.365687e+01
5.996377e+01	-1.370512e+01
6.031012e+01	-1.375250e+01
6.065847e+01	-1.380097e+01
6.100883e+01	-1.384882e+01
6.136121e+01	-1.389728e+01
6.171563e+01	-1.394492e+01
6.207210e+01	-1.399318e+01
6.243063e+01	-1.404030e+01
6.279122e+01	-1.408887e+01
6.315390e+01	-1.413602e+01
6.351868e+01	-1.418558e+01
6.388556e+01	-1.423370e+01
6.425456e+01	-1.428098e+01
6.462569e+01	-1.432979e+01
6.499897e+01	-1.437761e+01
6.537440e+01	-1.442667e+01
6.575200e+01	-1.447414e+01
6.613178e+01	-1.452233e+01
6.651375e+01	-1.457120e+01
6.689793e+01	-1.461866e+01
6.728433e+01	-1.466719e+01
6.767297e+01	-1.471607e+01
6.806384e+01	-1.476425e+01
6.845698e+01	-1.481253e+01
6.885238e+01	-1.486030e+01
6.925007e+01	-1.490937e+01
6.965005e+01	-1.495834e+01
7.005235e+01	-1.500617e+01
7.045697e+01	-1.505504e+01
7.086393e+01	-1.510260e+01
7.127323e+01	-1.515241e+01
7.168490e+01	-1.520035e+01
7.209895e+01	-1.524830e+01
7.251539e+01	-1.529709e+01
7.293424e+01	-1.534579e+01
7.335551e+01	-1.539458e+01
7.377920e+01	-1.544266e+01
7.420535e+01	-1.549120e+01
7.463396e+01	-1.554020e+01
7.506504e+01	-1.558898e+01
7.549861e+01	-1.563869e+01
7.593469e+01	-1.568615e+01
7.637328e+01	-1.573438e+01
7.681441e+01	-1.578409e+01
7.725809e+01	-1.583240e+01
7.770433e+01	-1.588158e+01
7.815315e+01	-1.592933e+01
7.860456e+01	-1.597784e+01
7.905857e+01	-1.602721e+01
7.951521e+01	-1.607561e+01
7.997449e+01	-1.612503e+01
8.043642e+01	-1.617402e+01
8.090102e+01	-1.622233e+01
8.136830e+01	-1.627198e+01
8.183828e+01	-1.631960e+01
8.231097e+01	-1.636987e+01
8.278640e+01	-1.641786e+01
8.326457e+01	-1.646692e+01
8.374550e+01	-1.651549e+01
8.422921e+01	-1.656488e+01
8.471572e+01	-1.661308e+01
8.520503e+01	-1.666304e+01
8.569717e+01	-1.671173e+01
8.619215e+01	-1.676135e+01
8.669000e+01	-1.680951e+01
8.719071e+01	-1.685898e+01
8.769432e+01	-1.690702e+01
8.820084e+01	-1.695720e+01
8.871029e+01	-1.700600e+01
8.922267e+01	-1.705523e+01
8.973802e+01	-1.710421e+01
9.025634e+01	-1.715150e+01
9.077766e+01	-1.720265e+01
9.130199e+01	-1.725175e+01
9.182935e+01	-1.730016e+01
9.235975e+01	-1.734782e+01
9.289321e+01	-1.739771e+01
9.342976e+01	-1.744608e+01
9.396941e+01	-1.749672e+01
9.451217e+01	-1.754513e+01
9.505807e+01	-1.759378e+01
9.560712e+01	-1.764414e+01
9.615934e+01	-1.769372e+01
9.671476e+01	-1.774262e+01
9.727338e+01	-1.779071e+01
9.783522e+01	-1.784082e+01
9.840032e+01	-1.789052e+01
9.896867e+01	-1.793819e+01
9.954031e+01	-1.798752e+01
1.001153e+02	-1.803902e+01
1.006935e+02	-1.808710e+01
1.012751e+02	-1.813683e+01
1.018601e+02	-1.818509e+01
1.024484e+02	-1.823466e+01
1.030402e+02	-1.828352e+01
1.036353e+02	-1.833286e+01
1.042339e+02	-1.838215e+01
1.048360e+02	-1.843253e+01
1.054415e+02	-1.848157e+01
1.060505e+02	-1.853068e+01
1.066631e+02	-1.858070e+01
1.072791e+02	-1.862965e+01
1.078988e+02	-1.867848e+01
1.085220e+02	-1.872724e+01
1.091488e+02	-1.877759e+01
1.097793e+02	-1.882662e+01
1.104133e+02	-1.887702e+01
1.110511e+02	-1.892739e+01
1.116925e+02	-1.897546e+01
1.123376e+02	-1.902331e+01
1.129865e+02	-1.907260e+01
1.136391e+02	-1.912326e+01
1.142955e+02	-1.917219e+01
1.149556e+02	-1.922150e+01
1.156196e+02	-1.927115e+01
1.162874e+02	-1.932079e+01
1.169591e+02	-1.937147e+01
1.176347e+02	-1.942032e+01
1.183141e+02	-1.946941e+01
1.189975e+02	-1.951830e+01
1.196848e+02	-1.956760e+01
1.203761e+02	-1.961876e+01
1.210714e+02	-1.966746e+01
1.217707e+02	-1.971594e+01
1.224740e+02	-1.976543e+01
1.231814e+02	-1.981713e+01
1.238929e+02	-1.986662e+01
1.246085e+02	-1.991421e+01
1.253283e+02	-1.996370e+01
1.260522e+02	-2.001292e+01
1.267802e+02	-2.006307e+01
1.275125e+02	-2.011245e+01
1.282490e+02	-2.016304e+01
1.289898e+02	-2.021115e+01
1.297348e+02	-2.026102e+01
1.304842e+02	-2.031254e+01
1.312378e+02	-2.036057e+01
1.319959e+02	-2.040965e+01
1.327583e+02	-2.046022e+01
1.335251e+02	-2.050951e+01
1.342963e+02	-2.056006e+01
1.350720e+02	-2.060938e+01
1.358522e+02	-2.065854e+01
1.366368e+02	-2.070887e+01
1.374260e+02	-2.075779e+01
1.382198e+02	-2.080704e+01
1.390182e+02	-2.085613e+01
1.398211e+02	-2.090724e+01
1.406287e+02	-2.095583e+01
1.414410e+02	-2.100416e+01
1.422579e+02	-2.105543e+01
1.430796e+02	-2.110512e+01
1.439060e+02	-2.115309e+01
1.447372e+02	-2.120398e+01
1.455732e+02	-2.125412e+01
1.464141e+02	-2.130493e+01
1.472597e+02	-2.135409e+01
1.481103e+02	-2.140112e+01
1.489658e+02	-2.145216e+01
1.498262e+02	-2.150426e+01
1.506916e+02	-2.155211e+01
1.515620e+02	-2.159984e+01
1.524374e+02	-2.165098e+01
1.533179e+02	-2.170040e+01
1.542034e+02	-2.175233e+01
1.550941e+02	-2.179899e+01
1.559899e+02	-2.184902e+01
1.568909e+02	-2.189934e+01
1.577971e+02	-2.195109e+01
1.587085e+02	-2.200014e+01
1.596252e+02	-2.205011e+01
1.605472e+02	-2.209953e+01
1.614745e+02	-2.214704e+01
1.624072e+02	-2.219808e+01
1.633453e+02	-2.224824e+01
1.642887e+02	-2.229663e+01
1.652377e+02	-2.234679e+01
1.661921e+02	-2.239735e+01
1.671520e+02	-2.244603e+01
1.681175e+02	-2.249729e+01
1.690885e+02	-2.254737e+01
1.700651e+02	-2.259492e+01
1.710474e+02	-2.264531e+01
1.720354e+02	-2.269528e+01
1.730291e+02	-2.274529e+01
1.740285e+02	-2.279689e+01
1.750337e+02	-2.284455e+01
1.760446e+02	-2.289364e+01
1.770615e+02	-2.294498e+01
1.780842e+02	-2.299431e+01
1.791128e+02	-2.304498e+01
1.801473e+02	-2.309361e+01
1.811878e+02	-2.314430e+01
1.822344e+02	-2.319408e+01
1.832870e+02	-2.324444e+01
1.843456e+02	-2.329218e+01
1.854104e+02	-2.334291e+01
1.864813e+02	-2.339077e+01
1.875584e+02	-2.344208e+01
1.886418e+02	-2.349415e+01
1.897313e+02	-2.354230e+01
1.908272e+02	-2.359264e+01
1.919294e+02	-2.364468e+01
1.930380e+02	-2.369350e+01
1.941530e+02	-2.374036e+01
1.952744e+02	-2.379357e+01
1.964023e+02	-2.384230e+01
1.975367e+02	-2.389104e+01
1.986777e+02	-2.394351e+01
1.998252e+02	-2.399145e+01
2.009794e+02	-2.404193e+01
2.021403e+02	-2.409216e+01
2.033078e+02	-2.414013e+01
2.044821e+02	-2.419092e+01
2.056632e+02	-2.424197e+01
2.068511e+02	-2.428887e+01
2.080459e+02	-2.434128e+01
2.092475e+02	-2.438837e+01
2.104561e+02	-2.444137e+01
2.116717e+02	-2.448977e+01
2.128943e+02	-2.453848e+01
2.141240e+02	-2.459015e+01
2.153608e+02	-2.464169e+01
2.166047e+02	-2.468755e+01
2.178558e+02	-2.473880e+01
2.191141e+02	-2.478978e+01
2.203797e+02	-2.483965e+01
2.216526e+02	-2.489120e+01
2.229329e+02	-2.493859e+01
2.242205e+02	-2.498787e+01
2.255156e+02	-2.503704e+01
2.268182e+02	-2.508728e+01
2.281283e+02	-2.513730e+01
2.294459e+02	-2.519078e+01
2.307712e+02	-2.523743e+01
2.321041e+02	-2.528940e+01
2.334447e+02	-2.534018e+01
2.347931e+02	-2.538770e+01
2.361493e+02	-2.543599e+01
2.375133e+02	-2.548768e+01
2.388851e+02	-2.554012e+01
2.402649e+02	-2.558829e+01
2.416527e+02	-2.563630e+01
2.430484e+02	-2.568499e+01
2.444523e+02	-2.573954e+01
2.458642e+02	-2.578647e+01
2.472843e+02	-2.583931e+01
2.487126e+02	-2.588939e+01
2.501492e+02	-2.593837e+01
2.515940e+02	-2.598467e+01
2.530472e+02	-2.603859e+01
2.545088e+02	-2.608653e+01
2.559789e+02	-2.613763e+01
2.574574e+02	-2.618646e+01
2.589444e+02	-2.623913e+01
2.604401e+02	-2.628672e+01
2.619444e+02	-2.633924e+01
2.634574e+02	-2.638855e+01
2.649791e+02	-2.643787e+01
2.665096e+02	-2.648620e+01
2.680489e+02	-2.653847e+01
2.695972e+02	-2.658513e+01
2.711544e+02	-2.663800e+01
2.727205e+02	-2.668636e+01
2.742958e+02	-2.673698e+01
2.758801e+02	-2.679151e+01
2.774736e+02	-2.683778e+01
2.790762e+02	-2.688431e+01
2.806882e+02	-2.693889e+01
2.823094e+02	-2.698947e+01
2.839400e+02	-2.703598e+01
2.855800e+02	-2.708820e+01
2.872295e+02	-2.713465e+01
2.888886e+02	-2.718674e+01
2.905572e+02	-2.723731e+01
2.922354e+02	-2.728893e+01
2.939234e+02	-2.733581e+01
2.956211e+02	-2.738626e+01
2.973286e+02	-2.744062e+01
2.990459e+02	-2.748834e+01
3.007732e+02	-2.754059e+01
3.025104e+02	-2.758488e+01
3.042577e+02	-2.763874e+01
3.060151e+02	-2.768595e+01
3.077826e+02	-2.773747e+01
3.095604e+02	-2.778527e+01
3.113484e+02	-2.783822e+01
3.131467e+02	-2.788791e+01
3.149554e+02	-2.793394e+01
3.167746e+02	-2.798420e+01
3.186043e+02	-2.803615e+01
3.204445e+02	-2.808582e+01
3.222954e+02	-2.813574e+01
3.241570e+02	-2.818555e+01
3.260293e+02	-2.823617e+01
3.279124e+02	-2.828735e+01
3.298064e+02	-2.833703e+01
3.317114e+02	-2.838864e+01
3.336273e+02	-2.843692e+01
3.355544e+02	-2.848738e+01
3.374925e+02	-2.853444e+01
3.394418e+02	-2.858355e+01
3.414024e+02	-2.863725e+01
3.433744e+02	-2.868800e+01
3.453577e+02	-2.873492e+01
3.473525e+02	-2.879001e+01
3.493588e+02	-2.883872e+01
3.513766e+02	-2.888667e+01
3.534062e+02	-2.894245e+01
3.554474e+02	-2.898686e+01
3.575005e+02	-2.903517e+01
3.595654e+02	-2.909230e+01
3.616422e+02	-2.913656e+01
3.637311e+02	-2.918884e+01
3.658320e+02	-2.923631e+01
3.679450e+02	-2.929025e+01
3.700702e+02	-2.934068e+01
3.722077e+02	-2.939283e+01
3.743576e+02	-2.943467e+01
3.765199e+02	-2.949077e+01
3.786946e+02	-2.954021e+01
3.808820e+02	-2.959099e+01
3.830819e+02	-2.963818e+01
3.852946e+02	-2.969363e+01
3.875200e+02	-2.973365e+01
3.897583e+02	-2.979270e+01
3.920096e+02	-2.983878e+01
3.942738e+02	-2.989043e+01
3.965511e+02	-2.994421e+01
3.988416e+02	-2.998802e+01
4.011452e+02	-3.003693e+01
4.034622e+02	-3.009176e+01
4.057926e+02	-3.013998e+01
4.081365e+02	-3.019510e+01
4.104938e+02	-3.024128e+01
4.128648e+02	-3.029051e+01
4.152495e+02	-3.034528e+01
4.176480e+02	-3.038928e+01
4.200603e+02	-3.044133e+01
4.224866e+02	-3.048801e+01
4.249268e+02	-3.054053e+01
4.273812e+02	-3.059239e+01
4.298497e+02	-3.063969e+01
4.323325e+02	-3.069043e+01
4.348297e+02	-3.074033e+01
4.373412e+02	-3.079195e+01
4.398673e+02	-3.083660e+01
4.424079e+02	-3.088967e+01
4.449633e+02	-3.093993e+01
4.475334e+02	-3.099558e+01
4.501183e+02	-3.104301e+01
4.527182e+02	-3.109414e+01
4.553330e+02	-3.114154e+01
4.579630e+02	-3.119385e+01
4.606082e+02	-3.124673e+01
4.632687e+02	-3.129752e+01
4.659445e+02	-3.134091e+01
4.686358e+02	-3.138542e+01
4.713426e+02	-3.144536e+01
4.740650e+02	-3.149152e+01
4.768032e+02	-3.154201e+01
4.795572e+02	-3.158643e+01
4.823271e+02	-3.164615e+01
4.851130e+02	-3.169497e+01
4.879150e+02	-3.174993e+01
4.907332e+02	-3.179578e+01
4.935676e+02	-3.184704e+01
4.964185e+02	-3.189443e+01
4.992858e+02	-3.194536e+01
5.021696e+02	-3.199406e+01
5.050701e+02	-3.204321e+01
5.079874e+02	-3.209949e+01
5.109215e+02	-3.214337e+01
5.138726e+02	-3.219303e+01
5.168407e+02	-3.224292e+01
5.198259e+02	-3.228900e+01
5.228284e+02	-3.235628e+01
5.258482e+02	-3.240501e+01
5.288855e+02	-3.244831e+01
5.319403e+02	-3.249917e+01
5.350128e+02	-3.254687e+01
5.381030e+02	-3.260015e+01
5.412111e+02	-3.265142e+01
5.443371e+02	-3.270334e+01
5.474812e+02	-3.275507e+01
5.506434e+02	-3.280302e+01
5.538239e+02	-3.285107e+01
5.570228e+02	-3.289599e+01
5.602401e+02	-3.294869e+01
5.634760e+02	-3.300233e+01
5.667306e+02	-3.304696e+01
5.700040e+02	-3.310457e+01
5.732964e+02	-3.315123e+01
5.766077e+02	-3.320097e+01
5.799382e+02	-3.325894e+01
5.832879e+02	-3.330072e+01
5.866569e+02	-3.335082e+01
5.900454e+02	-3.340330e+01
5.934535e+02	-3.345418e+01
5.968813e+02	-3.350712e+01
6.003288e+02	-3.354750e+01
6.037963e+02	-3.360344e+01
6.072838e+02	-3.366065e+01
6.107914e+02	-3.370853e+01
6.143194e+02	-3.375633e+01
6.178676e+02	-3.381412e+01
6.214364e+02	-3.385613e+01
6.250258e+02	-3.390327e+01
6.286359e+02	-3.395259e+01
6.322669e+02	-3.400008e+01
6.359189e+02	-3.405277e+01
6.395919e+02	-3.410982e+01
6.432862e+02	-3.416152e+01
6.470017e+02	-3.420714e+01
6.507388e+02	-3.424831e+01
6.544974e+02	-3.430339e+01
6.582778e+02	-3.435563e+01
6.620800e+02	-3.440330e+01
6.659041e+02	-3.445693e+01
6.697504e+02	-3.450560e+01
6.736188e+02	-3.456244e+01
6.775096e+02	-3.461499e+01
6.814229e+02	-3.465900e+01
6.853587e+02	-3.471243e+01
6.893173e+02	-3.476720e+01
6.932988e+02	-3.481046e+01
6.973033e+02	-3.486887e+01
7.013309e+02	-3.492204e+01
