Frequency(Hz)	Magnitude(dB)
1.000000e+01	-1.781044e-05
1.005776e+01	-1.801678e-05
1.011585e+01	-1.822551e-05
1.017428e+01	-1.843666e-05
1.023305e+01	-1.865025e-05
1.029215e+01	-1.886632e-05
1.035160e+01	-1.908489e-05
1.041139e+01	-1.930599e-05
1.047153e+01	-1.952966e-05
1.053201e+01	-1.975591e-05
1.059284e+01	-1.998479e-05
1.065403e+01	-2.021632e-05
1.071556e+01	-2.045053e-05
1.077746e+01	-2.068745e-05
1.083971e+01	-2.092712e-05
1.090232e+01	-2.116957e-05
1.096529e+01	-2.141482e-05
1.102862e+01	-2.166292e-05
1.109232e+01	-2.191389e-05
1.115639e+01	-2.216777e-05
1.122083e+01	-2.242459e-05
1.128564e+01	-2.268438e-05
1.135083e+01	-2.294719e-05
1.141639e+01	-2.321303e-05
1.148233e+01	-2.348196e-05
1.154865e+01	-2.375401e-05
1.161536e+01	-2.402920e-05
1.168245e+01	-2.430759e-05
1.174992e+01	-2.458920e-05
1.181779e+01	-2.487407e-05
1.188605e+01	-2.516224e-05
1.195470e+01	-2.545375e-05
1.202375e+01	-2.574864e-05
1.209320e+01	-2.604695e-05
1.216305e+01	-2.634871e-05
1.223330e+01	-2.665396e-05
1.230396e+01	-2.696275e-05
1.237503e+01	-2.727512e-05
1.244651e+01	-2.759111e-05
1.251840e+01	-2.791076e-05
1.259070e+01	-2.823412e-05
1.266343e+01	-2.856121e-05
1.273657e+01	-2.889210e-05
1.281014e+01	-2.922683e-05
1.288413e+01	-2.956543e-05
1.295855e+01	-2.990795e-05
1.303339e+01	-3.025444e-05
1.310867e+01	-3.060494e-05
1.318439e+01	-3.095951e-05
1.326054e+01	-3.131818e-05
1.333713e+01	-3.168101e-05
1.341417e+01	-3.204804e-05
1.349165e+01	-3.241933e-05
1.356958e+01	-3.279491e-05
1.364795e+01	-3.317485e-05
1.372678e+01	-3.355919e-05
1.380607e+01	-3.394798e-05
1.388581e+01	-3.434127e-05
1.396602e+01	-3.473913e-05
1.404668e+01	-3.514159e-05
1.412782e+01	-3.554871e-05
1.420942e+01	-3.596055e-05
1.429149e+01	-3.637716e-05
1.437404e+01	-3.679860e-05
1.445706e+01	-3.722492e-05
1.454057e+01	-3.765618e-05
1.462455e+01	-3.809243e-05
1.470902e+01	-3.853374e-05
1.479398e+01	-3.898017e-05
1.487943e+01	-3.943176e-05
1.496537e+01	-3.988859e-05
1.505181e+01	-4.035070e-05
1.513875e+01	-4.081818e-05
1.522619e+01	-4.129106e-05
1.531414e+01	-4.176943e-05
1.540259e+01	-4.225334e-05
1.549156e+01	-4.274285e-05
1.558103e+01	-4.323804e-05
1.567103e+01	-4.373896e-05
1.576155e+01	-4.424569e-05
1.585258e+01	-4.475828e-05
1.594415e+01	-4.527682e-05
1.603624e+01	-4.580136e-05
1.612886e+01	-4.633198e-05
1.622202e+01	-4.686874e-05
1.631572e+01	-4.741173e-05
1.640996e+01	-4.796100e-05
1.650474e+01	-4.851664e-05
1.660008e+01	-4.907872e-05
1.669596e+01	-4.964730e-05
1.679239e+01	-5.022248e-05
1.688938e+01	-5.080432e-05
1.698694e+01	-5.139290e-05
1.708505e+01	-5.198829e-05
1.718373e+01	-5.259059e-05
1.728299e+01	-5.319986e-05
1.738281e+01	-5.381619e-05
1.748322e+01	-5.443967e-05
1.758420e+01	-5.507036e-05
1.768576e+01	-5.570836e-05
1.778792e+01	-5.635375e-05
1.789066e+01	-5.700662e-05
1.799399e+01	-5.766706e-05
1.809793e+01	-5.833514e-05
1.820246e+01	-5.901097e-05
1.830760e+01	-5.969462e-05
1.841334e+01	-6.038619e-05
1.851969e+01	-6.108578e-05
1.862666e+01	-6.179347e-05
1.873425e+01	-6.250936e-05
1.884246e+01	-6.323354e-05
1.895129e+01	-6.396612e-05
1.906075e+01	-6.470718e-05
1.917085e+01	-6.545682e-05
1.928158e+01	-6.621515e-05
1.939295e+01	-6.698227e-05
1.950496e+01	-6.775827e-05
1.961762e+01	-6.854326e-05
1.973093e+01	-6.933735e-05
1.984490e+01	-7.014063e-05
1.995952e+01	-7.095323e-05
2.007480e+01	-7.177523e-05
2.019076e+01	-7.260676e-05
2.030738e+01	-7.344792e-05
2.042467e+01	-7.429883e-05
2.054264e+01	-7.515960e-05
2.066130e+01	-7.603033e-05
2.078064e+01	-7.691116e-05
2.090066e+01	-7.780219e-05
2.102139e+01	-7.870354e-05
2.114280e+01	-7.961533e-05
2.126492e+01	-8.053769e-05
2.138775e+01	-8.147073e-05
2.151128e+01	-8.241459e-05
2.163553e+01	-8.336937e-05
2.176050e+01	-8.433522e-05
2.188619e+01	-8.531226e-05
2.201260e+01	-8.630062e-05
2.213974e+01	-8.730042e-05
2.226762e+01	-8.831181e-05
2.239624e+01	-8.933492e-05
2.252560e+01	-9.036988e-05
2.265571e+01	-9.141683e-05
2.278656e+01	-9.247590e-05
2.291818e+01	-9.354725e-05
2.305055e+01	-9.463101e-05
2.318369e+01	-9.572733e-05
2.331760e+01	-9.683634e-05
2.345228e+01	-9.795820e-05
2.358774e+01	-9.909307e-05
2.372398e+01	-1.002411e-04
2.386101e+01	-1.014024e-04
2.399883e+01	-1.025771e-04
2.413745e+01	-1.037655e-04
2.427686e+01	-1.049677e-04
2.441709e+01	-1.061837e-04
2.455812e+01	-1.074139e-04
2.469997e+01	-1.086583e-04
2.484263e+01	-1.099171e-04
2.498612e+01	-1.111905e-04
2.513044e+01	-1.124787e-04
2.527559e+01	-1.137817e-04
2.542158e+01	-1.150999e-04
2.556842e+01	-1.164334e-04
2.571610e+01	-1.177822e-04
2.586463e+01	-1.191468e-04
2.601403e+01	-1.205271e-04
2.616428e+01	-1.219234e-04
2.631541e+01	-1.233359e-04
2.646740e+01	-1.247648e-04
2.662028e+01	-1.262102e-04
2.677404e+01	-1.276724e-04
2.692868e+01	-1.291514e-04
2.708422e+01	-1.306477e-04
2.724066e+01	-1.321612e-04
2.739800e+01	-1.336923e-04
2.755625e+01	-1.352412e-04
2.771541e+01	-1.368080e-04
2.787550e+01	-1.383929e-04
2.803650e+01	-1.399962e-04
2.819844e+01	-1.416181e-04
2.836131e+01	-1.432587e-04
2.852513e+01	-1.449184e-04
2.868989e+01	-1.465973e-04
2.885560e+01	-1.482956e-04
2.902227e+01	-1.500136e-04
2.918990e+01	-1.517516e-04
2.935850e+01	-1.535096e-04
2.952807e+01	-1.552880e-04
2.969863e+01	-1.570871e-04
2.987016e+01	-1.589069e-04
3.004269e+01	-1.607479e-04
3.021622e+01	-1.626101e-04
3.039075e+01	-1.644940e-04
3.056628e+01	-1.663997e-04
3.074283e+01	-1.683274e-04
3.092040e+01	-1.702775e-04
3.109900e+01	-1.722502e-04
3.127862e+01	-1.742457e-04
3.145929e+01	-1.762643e-04
3.164099e+01	-1.783064e-04
3.182375e+01	-1.803720e-04
3.200756e+01	-1.824617e-04
3.219244e+01	-1.845755e-04
3.237838e+01	-1.867138e-04
3.256540e+01	-1.888769e-04
3.275349e+01	-1.910650e-04
3.294268e+01	-1.932785e-04
3.313295e+01	-1.955177e-04
3.332433e+01	-1.977827e-04
3.351681e+01	-2.000740e-04
3.371040e+01	-2.023919e-04
3.390511e+01	-2.047366e-04
3.410094e+01	-2.071085e-04
3.429791e+01	-2.095078e-04
3.449601e+01	-2.119350e-04
3.469526e+01	-2.143903e-04
3.489566e+01	-2.168740e-04
3.509721e+01	-2.193864e-04
3.529993e+01	-2.219280e-04
3.550382e+01	-2.244991e-04
3.570889e+01	-2.270999e-04
3.591515e+01	-2.297308e-04
3.612259e+01	-2.323923e-04
3.633123e+01	-2.350845e-04
3.654108e+01	-2.378080e-04
3.675214e+01	-2.405630e-04
3.696442e+01	-2.433499e-04
3.717792e+01	-2.461691e-04
3.739266e+01	-2.490209e-04
3.760864e+01	-2.519058e-04
3.782587e+01	-2.548241e-04
3.804435e+01	-2.577762e-04
3.826409e+01	-2.607626e-04
3.848510e+01	-2.637835e-04
3.870739e+01	-2.668394e-04
3.893096e+01	-2.699307e-04
3.915583e+01	-2.730578e-04
3.938199e+01	-2.762212e-04
3.960946e+01	-2.794212e-04
3.983824e+01	-2.826582e-04
4.006834e+01	-2.859328e-04
4.029978e+01	-2.892453e-04
4.053255e+01	-2.925962e-04
4.076666e+01	-2.959859e-04
4.100213e+01	-2.994148e-04
4.123896e+01	-3.028835e-04
4.147715e+01	-3.063924e-04
4.171672e+01	-3.099419e-04
4.195767e+01	-3.135325e-04
4.220002e+01	-3.171648e-04
4.244377e+01	-3.208391e-04
4.268892e+01	-3.245559e-04
4.293549e+01	-3.283159e-04
4.318348e+01	-3.321193e-04
4.343291e+01	-3.359669e-04
4.368377e+01	-3.398590e-04
4.393609e+01	-3.437962e-04
4.418986e+01	-3.477790e-04
4.444510e+01	-3.518080e-04
4.470182e+01	-3.558836e-04
4.496001e+01	-3.600064e-04
4.521970e+01	-3.641770e-04
4.548089e+01	-3.683960e-04
4.574358e+01	-3.726637e-04
4.600779e+01	-3.769810e-04
4.627353e+01	-3.813482e-04
4.654081e+01	-3.857660e-04
4.680963e+01	-3.902350e-04
4.708000e+01	-3.947558e-04
4.735193e+01	-3.993290e-04
4.762543e+01	-4.039551e-04
4.790051e+01	-4.086348e-04
4.817719e+01	-4.133687e-04
4.845545e+01	-4.181575e-04
4.873533e+01	-4.230017e-04
4.901682e+01	-4.279021e-04
4.929994e+01	-4.328592e-04
4.958470e+01	-4.378737e-04
4.987110e+01	-4.429464e-04
5.015915e+01	-4.480777e-04
5.044887e+01	-4.532686e-04
5.074026e+01	-4.585195e-04
5.103333e+01	-4.638313e-04
5.132810e+01	-4.692047e-04
5.162457e+01	-4.746402e-04
5.192275e+01	-4.801388e-04
5.222265e+01	-4.857010e-04
5.252429e+01	-4.913277e-04
5.282767e+01	-4.970195e-04
5.313280e+01	-5.027773e-04
5.343969e+01	-5.086017e-04
5.374836e+01	-5.144937e-04
5.405880e+01	-5.204539e-04
5.437105e+01	-5.264831e-04
5.468509e+01	-5.325822e-04
5.500095e+01	-5.387519e-04
5.531863e+01	-5.449931e-04
5.563815e+01	-5.513066e-04
5.595951e+01	-5.576932e-04
5.628273e+01	-5.641539e-04
5.660782e+01	-5.706893e-04
5.693479e+01	-5.773005e-04
5.726364e+01	-5.839882e-04
5.759439e+01	-5.907534e-04
5.792705e+01	-5.975970e-04
5.826164e+01	-6.045198e-04
5.859815e+01	-6.115228e-04
5.893662e+01	-6.186070e-04
5.927703e+01	-6.257732e-04
5.961941e+01	-6.330224e-04
5.996377e+01	-6.403556e-04
6.031012e+01	-6.477738e-04
6.065847e+01	-6.552779e-04
6.100883e+01	-6.628689e-04
6.136121e+01	-6.705478e-04
6.171563e+01	-6.783157e-04
6.207210e+01	-6.861735e-04
6.243063e+01	-6.941224e-04
6.279122e+01	-7.021633e-04
6.315390e+01	-7.102974e-04
6.351868e+01	-7.185257e-04
6.388556e+01	-7.268494e-04
6.425456e+01	-7.352694e-04
6.462569e+01	-7.437870e-04
6.499897e+01	-7.524032e-04
6.537440e+01	-7.611192e-04
6.575200e+01	-7.699362e-04
6.613178e+01	-7.788553e-04
6.651375e+01	-7.878778e-04
6.689793e+01	-7.970047e-04
6.728433e+01	-8.062374e-04
6.767297e+01	-8.155770e-04
6.806384e+01	-8.250248e-04
6.845698e+01	-8.345820e-04
6.885238e+01	-8.442499e-04
6.925007e+01	-8.540298e-04
6.965005e+01	-8.639230e-04
7.005235e+01	-8.739308e-04
7.045697e+01	-8.840545e-04
7.086393e+01	-8.942954e-04
7.127323e+01	-9.046550e-04
7.168490e+01	-9.151346e-04
7.209895e+01	-9.257355e-04
7.251539e+01	-9.364593e-04
7.293424e+01	-9.473072e-04
7.335551e+01	-9.582808e-04
7.377920e+01	-9.693815e-04
7.420535e+01	-9.806108e-04
7.463396e+01	-9.919702e-04
7.506504e+01	-1.003461e-03
7.549861e+01	-1.015085e-03
7.593469e+01	-1.026844e-03
7.637328e+01	-1.038739e-03
7.681441e+01	-1.050771e-03
7.725809e+01	-1.062943e-03
7.770433e+01	-1.075256e-03
7.815315e+01	-1.087712e-03
7.860456e+01	-1.100312e-03
7.905857e+01	-1.113057e-03
7.951521e+01	-1.125951e-03
7.997449e+01	-1.138993e-03
8.043642e+01	-1.152187e-03
8.090102e+01	-1.165534e-03
8.136830e+01	-1.179035e-03
8.183828e+01	-1.192693e-03
8.231097e+01	-1.206508e-03
8.278640e+01	-1.220484e-03
8.326457e+01	-1.234622e-03
8.374550e+01	-1.248923e-03
8.422921e+01	-1.263390e-03
8.471572e+01	-1.278025e-03
8.520503e+01	-1.292829e-03
8.569717e+01	-1.307804e-03
8.619215e+01	-1.322953e-03
8.669000e+01	-1.338278e-03
8.719071e+01	-1.353780e-03
8.769432e+01	-1.369461e-03
8.820084e+01	-1.385324e-03
8.871029e+01	-1.401371e-03
8.922267e+01	-1.417603e-03
8.973802e+01	-1.434024e-03
9.025634e+01	-1.450635e-03
9.077766e+01	-1.467438e-03
9.130199e+01	-1.484436e-03
9.182935e+01	-1.501630e-03
9.235975e+01	-1.519024e-03
9.289321e+01	-1.536619e-03
9.342976e+01	-1.554418e-03
9.396941e+01	-1.572423e-03
9.451217e+01	-1.590637e-03
9.505807e+01	-1.609061e-03
9.560712e+01	-1.627699e-03
9.615934e+01	-1.646553e-03
9.671476e+01	-1.665625e-03
9.727338e+01	-1.684918e-03
9.783522e+01	-1.704435e-03
9.840032e+01	-1.724177e-03
9.896867e+01	-1.744148e-03
9.954031e+01	-1.764350e-03
1.001153e+02	-1.784787e-03
1.006935e+02	-1.805460e-03
1.012751e+02	-1.826372e-03
1.018601e+02	-1.847526e-03
1.024484e+02	-1.868926e-03
1.030402e+02	-1.890573e-03
1.036353e+02	-1.912471e-03
1.042339e+02	-1.934623e-03
1.048360e+02	-1.957031e-03
1.054415e+02	-1.979698e-03
1.060505e+02	-2.002628e-03
1.066631e+02	-2.025824e-03
1.072791e+02	-2.049288e-03
1.078988e+02	-2.073024e-03
1.085220e+02	-2.097035e-03
1.091488e+02	-2.121323e-03
1.097793e+02	-2.145893e-03
1.104133e+02	-2.170748e-03
1.110511e+02	-2.195890e-03
1.116925e+02	-2.221324e-03
1.123376e+02	-2.247052e-03
1.129865e+02	-2.273078e-03
1.136391e+02	-2.299405e-03
1.142955e+02	-2.326037e-03
1.149556e+02	-2.352977e-03
1.156196e+02	-2.380230e-03
1.162874e+02	-2.407798e-03
1.169591e+02	-2.435685e-03
1.176347e+02	-2.463895e-03
1.183141e+02	-2.492432e-03
1.189975e+02	-2.521299e-03
1.196848e+02	-2.550500e-03
1.203761e+02	-2.580039e-03
1.210714e+02	-2.609921e-03
1.217707e+02	-2.640148e-03
1.224740e+02	-2.670726e-03
1.231814e+02	-2.701657e-03
1.238929e+02	-2.732947e-03
1.246085e+02	-2.764598e-03
1.253283e+02	-2.796617e-03
1.260522e+02	-2.829006e-03
1.267802e+02	-2.861770e-03
1.275125e+02	-2.894913e-03
1.282490e+02	-2.928440e-03
1.289898e+02	-2.962355e-03
1.297348e+02	-2.996663e-03
1.304842e+02	-3.031368e-03
1.312378e+02	-3.066475e-03
1.319959e+02	-3.101988e-03
1.327583e+02	-3.137912e-03
1.335251e+02	-3.174252e-03
1.342963e+02	-3.211013e-03
1.350720e+02	-3.248200e-03
1.358522e+02	-3.285817e-03
1.366368e+02	-3.323869e-03
1.374260e+02	-3.362362e-03
1.382198e+02	-3.401301e-03
1.390182e+02	-3.440690e-03
1.398211e+02	-3.480536e-03
1.406287e+02	-3.520842e-03
1.414410e+02	-3.561615e-03
1.422579e+02	-3.602860e-03
1.430796e+02	-3.644583e-03
1.439060e+02	-3.686788e-03
1.447372e+02	-3.729482e-03
1.455732e+02	-3.772671e-03
1.464141e+02	-3.816359e-03
1.472597e+02	-3.860553e-03
1.481103e+02	-3.905258e-03
1.489658e+02	-3.950481e-03
1.498262e+02	-3.996227e-03
1.506916e+02	-4.042503e-03
1.515620e+02	-4.089314e-03
1.524374e+02	-4.136667e-03
1.533179e+02	-4.184568e-03
1.542034e+02	-4.233024e-03
1.550941e+02	-4.282041e-03
1.559899e+02	-4.331624e-03
1.568909e+02	-4.381782e-03
1.577971e+02	-4.432520e-03
1.587085e+02	-4.483845e-03
1.596252e+02	-4.535765e-03
1.605472e+02	-4.588285e-03
1.614745e+02	-4.641413e-03
1.624072e+02	-4.695156e-03
1.633453e+02	-4.749521e-03
1.642887e+02	-4.804514e-03
1.652377e+02	-4.860145e-03
1.661921e+02	-4.916419e-03
1.671520e+02	-4.973344e-03
1.681175e+02	-5.030928e-03
1.690885e+02	-5.089179e-03
1.700651e+02	-5.148103e-03
1.710474e+02	-5.207709e-03
1.720354e+02	-5.268005e-03
1.730291e+02	-5.328999e-03
1.740285e+02	-5.390698e-03
1.750337e+02	-5.453112e-03
1.760446e+02	-5.516247e-03
1.770615e+02	-5.580113e-03
1.780842e+02	-5.644718e-03
1.791128e+02	-5.710070e-03
1.801473e+02	-5.776179e-03
1.811878e+02	-5.843052e-03
1.822344e+02	-5.910699e-03
1.832870e+02	-5.979129e-03
1.843456e+02	-6.048351e-03
1.854104e+02	-6.118373e-03
1.864813e+02	-6.189205e-03
1.875584e+02	-6.260857e-03
1.886418e+02	-6.333337e-03
1.897313e+02	-6.406656e-03
1.908272e+02	-6.480824e-03
1.919294e+02	-6.555849e-03
1.930380e+02	-6.631742e-03
1.941530e+02	-6.708513e-03
1.952744e+02	-6.786172e-03
1.964023e+02	-6.864729e-03
1.975367e+02	-6.944195e-03
1.986777e+02	-7.024580e-03
1.998252e+02	-7.105895e-03
2.009794e+02	-7.188150e-03
2.021403e+02	-7.271357e-03
2.033078e+02	-7.355526e-03
2.044821e+02	-7.440668e-03
2.056632e+02	-7.526795e-03
2.068511e+02	-7.613918e-03
2.080459e+02	-7.702049e-03
2.092475e+02	-7.791199e-03
2.104561e+02	-7.881380e-03
2.116717e+02	-7.972604e-03
2.128943e+02	-8.064882e-03
2.141240e+02	-8.158228e-03
2.153608e+02	-8.252653e-03
2.166047e+02	-8.348170e-03
2.178558e+02	-8.444792e-03
2.191141e+02	-8.542530e-03
2.203797e+02	-8.641399e-03
2.216526e+02	-8.741410e-03
2.229329e+02	-8.842578e-03
2.242205e+02	-8.944916e-03
2.255156e+02	-9.048437e-03
2.268182e+02	-9.153155e-03
2.281283e+02	-9.259083e-03
2.294459e+02	-9.366236e-03
2.307712e+02	-9.474627e-03
2.321041e+02	-9.584272e-03
2.334447e+02	-9.695184e-03
2.347931e+02	-9.807378e-03
2.361493e+02	-9.920868e-03
2.375133e+02	-1.003567e-02
2.388851e+02	-1.015180e-02
2.402649e+02	-1.026927e-02
2.416527e+02	-1.038810e-02
2.430484e+02	-1.050830e-02
2.444523e+02	-1.062990e-02
2.458642e+02	-1.075289e-02
2.472843e+02	-1.087731e-02
2.487126e+02	-1.100317e-02
2.501492e+02	-1.113048e-02
2.515940e+02	-1.125926e-02
2.530472e+02	-1.138953e-02
2.545088e+02	-1.152130e-02
2.559789e+02	-1.165460e-02
2.574574e+02	-1.178944e-02
2.589444e+02	-1.192584e-02
2.604401e+02	-1.206381e-02
2.619444e+02	-1.220337e-02
2.634574e+02	-1.234455e-02
2.649791e+02	-1.248736e-02
2.665096e+02	-1.263182e-02
2.680489e+02	-1.277794e-02
2.695972e+02	-1.292576e-02
2.711544e+02	-1.307528e-02
2.727205e+02	-1.322653e-02
2.742958e+02	-1.337952e-02
2.758801e+02	-1.353429e-02
2.774736e+02	-1.369084e-02
2.790762e+02	-1.384920e-02
2.806882e+02	-1.400938e-02
2.823094e+02	-1.417142e-02
2.839400e+02	-1.433533e-02
2.855800e+02	-1.450113e-02
2.872295e+02	-1.466884e-02
2.888886e+02	-1.483849e-02
2.905572e+02	-1.501010e-02
2.922354e+02	-1.518369e-02
2.939234e+02	-1.535929e-02
2.956211e+02	-1.553691e-02
2.973286e+02	-1.571658e-02
2.990459e+02	-1.589833e-02
3.007732e+02	-1.608217e-02
3.025104e+02	-1.626814e-02
3.042577e+02	-1.645625e-02
3.060151e+02	-1.664653e-02
3.077826e+02	-1.683901e-02
3.095604e+02	-1.703371e-02
3.113484e+02	-1.723066e-02
3.131467e+02	-1.742988e-02
3.149554e+02	-1.763140e-02
3.167746e+02	-1.783524e-02
3.186043e+02	-1.804144e-02
3.204445e+02	-1.825001e-02
3.222954e+02	-1.846099e-02
3.241570e+02	-1.867440e-02
3.260293e+02	-1.889028e-02
3.279124e+02	-1.910865e-02
3.298064e+02	-1.932953e-02
3.317114e+02	-1.955296e-02
3.336273e+02	-1.977897e-02
3.355544e+02	-2.000758e-02
3.374925e+02	-2.023884e-02
3.394418e+02	-2.047275e-02
3.414024e+02	-2.070937e-02
3.433744e+02	-2.094871e-02
3.453577e+02	-2.119081e-02
3.473525e+02	-2.143571e-02
3.493588e+02	-2.168342e-02
3.513766e+02	-2.193399e-02
3.534062e+02	-2.218745e-02
3.554474e+02	-2.244383e-02
3.575005e+02	-2.270317e-02
3.595654e+02	-2.296549e-02
3.616422e+02	-2.323084e-02
3.637311e+02	-2.349924e-02
3.658320e+02	-2.377074e-02
3.679450e+02	-2.404537e-02
3.700702e+02	-2.432316e-02
3.722077e+02	-2.460415e-02
3.743576e+02	-2.488837e-02
3.765199e+02	-2.517587e-02
3.786946e+02	-2.546668e-02
3.808820e+02	-2.576084e-02
3.830819e+02	-2.605839e-02
3.852946e+02	-2.635936e-02
3.875200e+02	-2.666380e-02
3.897583e+02	-2.697175e-02
3.920096e+02	-2.728324e-02
3.942738e+02	-2.759831e-02
3.965511e+02	-2.791702e-02
3.988416e+02	-2.823939e-02
4.011452e+02	-2.856547e-02
4.034622e+02	-2.889530e-02
4.057926e+02	-2.922893e-02
4.081365e+02	-2.956640e-02
4.104938e+02	-2.990775e-02
4.128648e+02	-3.025303e-02
4.152495e+02	-3.060228e-02
4.176480e+02	-3.095555e-02
4.200603e+02	-3.131288e-02
4.224866e+02	-3.167432e-02
4.249268e+02	-3.203992e-02
4.273812e+02	-3.240972e-02
4.298497e+02	-3.278378e-02
4.323325e+02	-3.316213e-02
4.348297e+02	-3.354483e-02
4.373412e+02	-3.393194e-02
4.398673e+02	-3.432349e-02
4.424079e+02	-3.471954e-02
4.449633e+02	-3.512015e-02
4.475334e+02	-3.552535e-02
4.501183e+02	-3.593522e-02
4.527182e+02	-3.634979e-02
4.553330e+02	-3.676912e-02
4.579630e+02	-3.719327e-02
4.606082e+02	-3.762230e-02
4.632687e+02	-3.805624e-02
4.659445e+02	-3.849518e-02
4.686358e+02	-3.893915e-02
4.713426e+02	-3.938822e-02
4.740650e+02	-3.984244e-02
4.768032e+02	-4.030188e-02
4.795572e+02	-4.076659e-02
4.823271e+02	-4.123664e-02
4.851130e+02	-4.171207e-02
4.879150e+02	-4.219297e-02
4.907332e+02	-4.267938e-02
4.935676e+02	-4.317136e-02
4.964185e+02	-4.366900e-02
4.992858e+02	-4.417233e-02
5.021696e+02	-4.468144e-02
5.050701e+02	-4.519639e-02
5.079874e+02	-4.571724e-02
5.109215e+02	-4.624406e-02
5.138726e+02	-4.677692e-02
5.168407e+02	-4.731588e-02
5.198259e+02	-4.786102e-02
5.228284e+02	-4.841241e-02
5.258482e+02	-4.897011e-02
5.288855e+02	-4.953420e-02
5.319403e+02	-5.010475e-02
5.350128e+02	-5.068184e-02
5.381030e+02	-5.126553e-02
5.412111e+02	-5.185590e-02
5.443371e+02	-5.245303e-02
5.474812e+02	-5.305700e-02
5.506434e+02	-5.366787e-02
5.538239e+02	-5.428574e-02
5.570228e+02	-5.491067e-02
5.602401e+02	-5.554275e-02
5.634760e+02	-5.618206e-02
5.667306e+02	-5.682868e-02
5.700040e+02	-5.748269e-02
5.732964e+02	-5.814418e-02
5.766077e+02	-5.881323e-02
5.799382e+02	-5.948992e-02
5.832879e+02	-6.017435e-02
5.866569e+02	-6.086659e-02
5.900454e+02	-6.156675e-02
5.934535e+02	-6.227490e-02
5.968813e+02	-6.299113e-02
6.003288e+02	-6.371554e-02
6.037963e+02	-6.444822e-02
6.072838e+02	-6.518926e-02
6.107914e+02	-6.593876e-02
6.143194e+02	-6.669681e-02
6.178676e+02	-6.746350e-02
6.214364e+02	-6.823894e-02
6.250258e+02	-6.902322e-02
6.286359e+02	-6.981644e-02
6.322669e+02	-7.061871e-02
6.359189e+02	-7.143011e-02
6.395919e+02	-7.225077e-02
6.432862e+02	-7.308077e-02
6.470017e+02	-7.392022e-02
6.507388e+02	-7.476923e-02
6.544974e+02	-7.562791e-02
6.582778e+02	-7.649637e-02
6.620800e+02	-7.737470e-02
6.659041e+02	-7.826303e-02
6.697504e+02	-7.916147e-02
6.736188e+02	-8.007013e-02
6.775096e+02	-8.098911e-02
6.814229e+02	-8.191855e-02
6.853587e+02	-8.285855e-02
6.893173e+02	-8.380923e-02
6.932988e+02	-8.477071e-02
6.973033e+02	-8.574312e-02
7.013309e+02	-8.672656e-02
