Frequency(Hz)	Magnitude(dB)
1.000000e+01	-1.687187e-05
1.005776e+01	-1.706734e-05
1.011585e+01	-1.726507e-05
1.017428e+01	-1.746509e-05
1.023305e+01	-1.766742e-05
1.029215e+01	-1.787211e-05
1.035160e+01	-1.807916e-05
1.041139e+01	-1.828861e-05
1.047153e+01	-1.850049e-05
1.053201e+01	-1.871482e-05
1.059284e+01	-1.893164e-05
1.065403e+01	-1.915097e-05
1.071556e+01	-1.937283e-05
1.077746e+01	-1.959727e-05
1.083971e+01	-1.982431e-05
1.090232e+01	-2.005398e-05
1.096529e+01	-2.028631e-05
1.102862e+01	-2.052133e-05
1.109232e+01	-2.075908e-05
1.115639e+01	-2.099958e-05
1.122083e+01	-2.124286e-05
1.128564e+01	-2.148897e-05
1.135083e+01	-2.173792e-05
1.141639e+01	-2.198976e-05
1.148233e+01	-2.224452e-05
1.154865e+01	-2.250223e-05
1.161536e+01	-2.276292e-05
1.168245e+01	-2.302664e-05
1.174992e+01	-2.329341e-05
1.181779e+01	-2.356326e-05
1.188605e+01	-2.383625e-05
1.195470e+01	-2.411240e-05
1.202375e+01	-2.439175e-05
1.209320e+01	-2.467433e-05
1.216305e+01	-2.496019e-05
1.223330e+01	-2.524936e-05
1.230396e+01	-2.554188e-05
1.237503e+01	-2.583779e-05
1.244651e+01	-2.613713e-05
1.251840e+01	-2.643993e-05
1.259070e+01	-2.674625e-05
1.266343e+01	-2.705611e-05
1.273657e+01	-2.736956e-05
1.281014e+01	-2.768664e-05
1.288413e+01	-2.800740e-05
1.295855e+01	-2.833187e-05
1.303339e+01	-2.866010e-05
1.310867e+01	-2.899214e-05
1.318439e+01	-2.932802e-05
1.326054e+01	-2.966779e-05
1.333713e+01	-3.001150e-05
1.341417e+01	-3.035919e-05
1.349165e+01	-3.071091e-05
1.356958e+01	-3.106670e-05
1.364795e+01	-3.142661e-05
1.372678e+01	-3.179070e-05
1.380607e+01	-3.215900e-05
1.388581e+01	-3.253157e-05
1.396602e+01	-3.290846e-05
1.404668e+01	-3.328971e-05
1.412782e+01	-3.367538e-05
1.420942e+01	-3.406552e-05
1.429149e+01	-3.446017e-05
1.437404e+01	-3.485940e-05
1.445706e+01	-3.526326e-05
1.454057e+01	-3.567179e-05
1.462455e+01	-3.608506e-05
1.470902e+01	-3.650311e-05
1.479398e+01	-3.692601e-05
1.487943e+01	-3.735380e-05
1.496537e+01	-3.778656e-05
1.505181e+01	-3.822432e-05
1.513875e+01	-3.866716e-05
1.522619e+01	-3.911513e-05
1.531414e+01	-3.956828e-05
1.540259e+01	-4.002669e-05
1.549156e+01	-4.049041e-05
1.558103e+01	-4.095950e-05
1.567103e+01	-4.143403e-05
1.576155e+01	-4.191405e-05
1.585258e+01	-4.239963e-05
1.594415e+01	-4.289084e-05
1.603624e+01	-4.338774e-05
1.612886e+01	-4.389040e-05
1.622202e+01	-4.439888e-05
1.631572e+01	-4.491325e-05
1.640996e+01	-4.543358e-05
1.650474e+01	-4.595994e-05
1.660008e+01	-4.649239e-05
1.669596e+01	-4.703102e-05
1.679239e+01	-4.757588e-05
1.688938e+01	-4.812706e-05
1.698694e+01	-4.868462e-05
1.708505e+01	-4.924864e-05
1.718373e+01	-4.981920e-05
1.728299e+01	-5.039636e-05
1.738281e+01	-5.098022e-05
1.748322e+01	-5.157083e-05
1.758420e+01	-5.216829e-05
1.768576e+01	-5.277267e-05
1.778792e+01	-5.338405e-05
1.789066e+01	-5.400252e-05
1.799399e+01	-5.462815e-05
1.809793e+01	-5.526103e-05
1.820246e+01	-5.590124e-05
1.830760e+01	-5.654887e-05
1.841334e+01	-5.720400e-05
1.851969e+01	-5.786672e-05
1.862666e+01	-5.853711e-05
1.873425e+01	-5.921528e-05
1.884246e+01	-5.990130e-05
1.895129e+01	-6.059527e-05
1.906075e+01	-6.129728e-05
1.917085e+01	-6.200742e-05
1.928158e+01	-6.272578e-05
1.939295e+01	-6.345248e-05
1.950496e+01	-6.418758e-05
1.961762e+01	-6.493121e-05
1.973093e+01	-6.568345e-05
1.984490e+01	-6.644441e-05
1.995952e+01	-6.721418e-05
2.007480e+01	-6.799287e-05
2.019076e+01	-6.878058e-05
2.030738e+01	-6.957741e-05
2.042467e+01	-7.038348e-05
2.054264e+01	-7.119889e-05
2.066130e+01	-7.202374e-05
2.078064e+01	-7.285815e-05
2.090066e+01	-7.370222e-05
2.102139e+01	-7.455607e-05
2.114280e+01	-7.541982e-05
2.126492e+01	-7.629357e-05
2.138775e+01	-7.717745e-05
2.151128e+01	-7.807156e-05
2.163553e+01	-7.897603e-05
2.176050e+01	-7.989098e-05
2.188619e+01	-8.081653e-05
2.201260e+01	-8.175281e-05
2.213974e+01	-8.269993e-05
2.226762e+01	-8.365802e-05
2.239624e+01	-8.462721e-05
2.252560e+01	-8.560763e-05
2.265571e+01	-8.659941e-05
2.278656e+01	-8.760268e-05
2.291818e+01	-8.861757e-05
2.305055e+01	-8.964422e-05
2.318369e+01	-9.068276e-05
2.331760e+01	-9.173334e-05
2.345228e+01	-9.279608e-05
2.358774e+01	-9.387114e-05
2.372398e+01	-9.495865e-05
2.386101e+01	-9.605876e-05
2.399883e+01	-9.717161e-05
2.413745e+01	-9.829736e-05
2.427686e+01	-9.943615e-05
2.441709e+01	-1.005881e-04
2.455812e+01	-1.017535e-04
2.469997e+01	-1.029323e-04
2.484263e+01	-1.041248e-04
2.498612e+01	-1.053311e-04
2.513044e+01	-1.065514e-04
2.527559e+01	-1.077858e-04
2.542158e+01	-1.090345e-04
2.556842e+01	-1.102977e-04
2.571610e+01	-1.115755e-04
2.586463e+01	-1.128681e-04
2.601403e+01	-1.141757e-04
2.616428e+01	-1.154984e-04
2.631541e+01	-1.168365e-04
2.646740e+01	-1.181900e-04
2.662028e+01	-1.195593e-04
2.677404e+01	-1.209444e-04
2.692868e+01	-1.223456e-04
2.708422e+01	-1.237629e-04
2.724066e+01	-1.251967e-04
2.739800e+01	-1.266472e-04
2.755625e+01	-1.281144e-04
2.771541e+01	-1.295986e-04
2.787550e+01	-1.311000e-04
2.803650e+01	-1.326188e-04
2.819844e+01	-1.341552e-04
2.836131e+01	-1.357094e-04
2.852513e+01	-1.372816e-04
2.868989e+01	-1.388721e-04
2.885560e+01	-1.404809e-04
2.902227e+01	-1.421084e-04
2.918990e+01	-1.437547e-04
2.935850e+01	-1.454201e-04
2.952807e+01	-1.471048e-04
2.969863e+01	-1.488091e-04
2.987016e+01	-1.505330e-04
3.004269e+01	-1.522770e-04
3.021622e+01	-1.540411e-04
3.039075e+01	-1.558257e-04
3.056628e+01	-1.576309e-04
3.074283e+01	-1.594571e-04
3.092040e+01	-1.613044e-04
3.109900e+01	-1.631731e-04
3.127862e+01	-1.650635e-04
3.145929e+01	-1.669758e-04
3.164099e+01	-1.689102e-04
3.182375e+01	-1.708670e-04
3.200756e+01	-1.728465e-04
3.219244e+01	-1.748490e-04
3.237838e+01	-1.768746e-04
3.256540e+01	-1.789237e-04
3.275349e+01	-1.809965e-04
3.294268e+01	-1.830934e-04
3.313295e+01	-1.852145e-04
3.332433e+01	-1.873602e-04
3.351681e+01	-1.895308e-04
3.371040e+01	-1.917265e-04
3.390511e+01	-1.939477e-04
3.410094e+01	-1.961946e-04
3.429791e+01	-1.984675e-04
3.449601e+01	-2.007667e-04
3.469526e+01	-2.030926e-04
3.489566e+01	-2.054455e-04
3.509721e+01	-2.078255e-04
3.529993e+01	-2.102332e-04
3.550382e+01	-2.126688e-04
3.570889e+01	-2.151325e-04
3.591515e+01	-2.176248e-04
3.612259e+01	-2.201460e-04
3.633123e+01	-2.226964e-04
3.654108e+01	-2.252763e-04
3.675214e+01	-2.278862e-04
3.696442e+01	-2.305262e-04
3.717792e+01	-2.331968e-04
3.739266e+01	-2.358984e-04
3.760864e+01	-2.386313e-04
3.782587e+01	-2.413958e-04
3.804435e+01	-2.441924e-04
3.826409e+01	-2.470213e-04
3.848510e+01	-2.498831e-04
3.870739e+01	-2.527780e-04
3.893096e+01	-2.557064e-04
3.915583e+01	-2.586687e-04
3.938199e+01	-2.616654e-04
3.960946e+01	-2.646967e-04
3.983824e+01	-2.677632e-04
4.006834e+01	-2.708653e-04
4.029978e+01	-2.740032e-04
4.053255e+01	-2.771775e-04
4.076666e+01	-2.803886e-04
4.100213e+01	-2.836369e-04
4.123896e+01	-2.869228e-04
4.147715e+01	-2.902467e-04
4.171672e+01	-2.936092e-04
4.195767e+01	-2.970106e-04
4.220002e+01	-3.004515e-04
4.244377e+01	-3.039321e-04
4.268892e+01	-3.074532e-04
4.293549e+01	-3.110150e-04
4.318348e+01	-3.146180e-04
4.343291e+01	-3.182628e-04
4.368377e+01	-3.219499e-04
4.393609e+01	-3.256796e-04
4.418986e+01	-3.294525e-04
4.444510e+01	-3.332692e-04
4.470182e+01	-3.371301e-04
4.496001e+01	-3.410357e-04
4.521970e+01	-3.449865e-04
4.548089e+01	-3.489831e-04
4.574358e+01	-3.530260e-04
4.600779e+01	-3.571157e-04
4.627353e+01	-3.612528e-04
4.654081e+01	-3.654379e-04
4.680963e+01	-3.696714e-04
4.708000e+01	-3.739540e-04
4.735193e+01	-3.782861e-04
4.762543e+01	-3.826685e-04
4.790051e+01	-3.871016e-04
4.817719e+01	-3.915861e-04
4.845545e+01	-3.961225e-04
4.873533e+01	-4.007115e-04
4.901682e+01	-4.053536e-04
4.929994e+01	-4.100495e-04
4.958470e+01	-4.147999e-04
4.987110e+01	-4.196052e-04
5.015915e+01	-4.244662e-04
5.044887e+01	-4.293835e-04
5.074026e+01	-4.343578e-04
5.103333e+01	-4.393897e-04
5.132810e+01	-4.444799e-04
5.162457e+01	-4.496290e-04
5.192275e+01	-4.548378e-04
5.222265e+01	-4.601070e-04
5.252429e+01	-4.654372e-04
5.282767e+01	-4.708291e-04
5.313280e+01	-4.762835e-04
5.343969e+01	-4.818011e-04
5.374836e+01	-4.873825e-04
5.405880e+01	-4.930287e-04
5.437105e+01	-4.987402e-04
5.468509e+01	-5.045179e-04
5.500095e+01	-5.103626e-04
5.531863e+01	-5.162749e-04
5.563815e+01	-5.222557e-04
5.595951e+01	-5.283058e-04
5.628273e+01	-5.344260e-04
5.660782e+01	-5.406171e-04
5.693479e+01	-5.468799e-04
5.726364e+01	-5.532153e-04
5.759439e+01	-5.596240e-04
5.792705e+01	-5.661070e-04
5.826164e+01	-5.726651e-04
5.859815e+01	-5.792991e-04
5.893662e+01	-5.860100e-04
5.927703e+01	-5.927986e-04
5.961941e+01	-5.996659e-04
5.996377e+01	-6.066127e-04
6.031012e+01	-6.136400e-04
6.065847e+01	-6.207486e-04
6.100883e+01	-6.279397e-04
6.136121e+01	-6.352140e-04
6.171563e+01	-6.425726e-04
6.207210e+01	-6.500164e-04
6.243063e+01	-6.575464e-04
6.279122e+01	-6.651637e-04
6.315390e+01	-6.728692e-04
6.351868e+01	-6.806640e-04
6.388556e+01	-6.885490e-04
6.425456e+01	-6.965254e-04
6.462569e+01	-7.045942e-04
6.499897e+01	-7.127565e-04
6.537440e+01	-7.210133e-04
6.575200e+01	-7.293657e-04
6.613178e+01	-7.378149e-04
6.651375e+01	-7.463619e-04
6.689793e+01	-7.550080e-04
6.728433e+01	-7.637542e-04
6.767297e+01	-7.726017e-04
6.806384e+01	-7.815517e-04
6.845698e+01	-7.906054e-04
6.885238e+01	-7.997639e-04
6.925007e+01	-8.090285e-04
6.965005e+01	-8.184005e-04
7.005235e+01	-8.278810e-04
7.045697e+01	-8.374713e-04
7.086393e+01	-8.471726e-04
7.127323e+01	-8.569864e-04
7.168490e+01	-8.669138e-04
7.209895e+01	-8.769562e-04
7.251539e+01	-8.871150e-04
7.293424e+01	-8.973914e-04
7.335551e+01	-9.077868e-04
7.377920e+01	-9.183027e-04
7.420535e+01	-9.289403e-04
7.463396e+01	-9.397012e-04
7.506504e+01	-9.505867e-04
7.549861e+01	-9.615983e-04
7.593469e+01	-9.727374e-04
7.637328e+01	-9.840056e-04
7.681441e+01	-9.954042e-04
7.725809e+01	-1.006935e-03
7.770433e+01	-1.018599e-03
7.815315e+01	-1.030399e-03
7.860456e+01	-1.042335e-03
7.905857e+01	-1.054409e-03
7.951521e+01	-1.066623e-03
7.997449e+01	-1.078978e-03
8.043642e+01	-1.091477e-03
8.090102e+01	-1.104121e-03
8.136830e+01	-1.116911e-03
8.183828e+01	-1.129849e-03
8.231097e+01	-1.142936e-03
8.278640e+01	-1.156176e-03
8.326457e+01	-1.169569e-03
8.374550e+01	-1.183117e-03
8.422921e+01	-1.196821e-03
8.471572e+01	-1.210685e-03
8.520503e+01	-1.224709e-03
8.569717e+01	-1.238896e-03
8.619215e+01	-1.253247e-03
8.669000e+01	-1.267764e-03
8.719071e+01	-1.282449e-03
8.769432e+01	-1.297304e-03
8.820084e+01	-1.312332e-03
8.871029e+01	-1.327533e-03
8.922267e+01	-1.342910e-03
8.973802e+01	-1.358466e-03
9.025634e+01	-1.374202e-03
9.077766e+01	-1.390120e-03
9.130199e+01	-1.406222e-03
9.182935e+01	-1.422511e-03
9.235975e+01	-1.438988e-03
9.289321e+01	-1.455656e-03
9.342976e+01	-1.472518e-03
9.396941e+01	-1.489574e-03
9.451217e+01	-1.506828e-03
9.505807e+01	-1.524282e-03
9.560712e+01	-1.541938e-03
9.615934e+01	-1.559799e-03
9.671476e+01	-1.577866e-03
9.727338e+01	-1.596143e-03
9.783522e+01	-1.614631e-03
9.840032e+01	-1.633334e-03
9.896867e+01	-1.652253e-03
9.954031e+01	-1.671391e-03
1.001153e+02	-1.690751e-03
1.006935e+02	-1.710335e-03
1.012751e+02	-1.730145e-03
1.018601e+02	-1.750185e-03
1.024484e+02	-1.770458e-03
1.030402e+02	-1.790965e-03
1.036353e+02	-1.811709e-03
1.042339e+02	-1.832694e-03
1.048360e+02	-1.853922e-03
1.054415e+02	-1.875395e-03
1.060505e+02	-1.897117e-03
1.066631e+02	-1.919091e-03
1.072791e+02	-1.941319e-03
1.078988e+02	-1.963805e-03
1.085220e+02	-1.986551e-03
1.091488e+02	-2.009560e-03
1.097793e+02	-2.032836e-03
1.104133e+02	-2.056381e-03
1.110511e+02	-2.080199e-03
1.116925e+02	-2.104293e-03
1.123376e+02	-2.128666e-03
1.129865e+02	-2.153321e-03
1.136391e+02	-2.178262e-03
1.142955e+02	-2.203491e-03
1.149556e+02	-2.229012e-03
1.156196e+02	-2.254829e-03
1.162874e+02	-2.280945e-03
1.169591e+02	-2.307364e-03
1.176347e+02	-2.334088e-03
1.183141e+02	-2.361122e-03
1.189975e+02	-2.388468e-03
1.196848e+02	-2.416132e-03
1.203761e+02	-2.444115e-03
1.210714e+02	-2.472423e-03
1.217707e+02	-2.501058e-03
1.224740e+02	-2.530025e-03
1.231814e+02	-2.559328e-03
1.238929e+02	-2.588969e-03
1.246085e+02	-2.618954e-03
1.253283e+02	-2.649286e-03
1.260522e+02	-2.679969e-03
1.267802e+02	-2.711008e-03
1.275125e+02	-2.742406e-03
1.282490e+02	-2.774167e-03
1.289898e+02	-2.806296e-03
1.297348e+02	-2.838797e-03
1.304842e+02	-2.871674e-03
1.312378e+02	-2.904932e-03
1.319959e+02	-2.938575e-03
1.327583e+02	-2.972608e-03
1.335251e+02	-3.007034e-03
1.342963e+02	-3.041859e-03
1.350720e+02	-3.077088e-03
1.358522e+02	-3.112724e-03
1.366368e+02	-3.148772e-03
1.374260e+02	-3.185238e-03
1.382198e+02	-3.222126e-03
1.390182e+02	-3.259442e-03
1.398211e+02	-3.297189e-03
1.406287e+02	-3.335373e-03
1.414410e+02	-3.373999e-03
1.422579e+02	-3.413072e-03
1.430796e+02	-3.452598e-03
1.439060e+02	-3.492581e-03
1.447372e+02	-3.533027e-03
1.455732e+02	-3.573941e-03
1.464141e+02	-3.615329e-03
1.472597e+02	-3.657196e-03
1.481103e+02	-3.699547e-03
1.489658e+02	-3.742389e-03
1.498262e+02	-3.785726e-03
1.506916e+02	-3.829566e-03
1.515620e+02	-3.873912e-03
1.524374e+02	-3.918772e-03
1.533179e+02	-3.964152e-03
1.542034e+02	-4.010056e-03
1.550941e+02	-4.056492e-03
1.559899e+02	-4.103465e-03
1.568909e+02	-4.150982e-03
1.577971e+02	-4.199049e-03
1.587085e+02	-4.247672e-03
1.596252e+02	-4.296858e-03
1.605472e+02	-4.346613e-03
1.614745e+02	-4.396945e-03
1.624072e+02	-4.447858e-03
1.633453e+02	-4.499361e-03
1.642887e+02	-4.551460e-03
1.652377e+02	-4.604162e-03
1.661921e+02	-4.657473e-03
1.671520e+02	-4.711402e-03
1.681175e+02	-4.765955e-03
1.690885e+02	-4.821139e-03
1.700651e+02	-4.876962e-03
1.710474e+02	-4.933430e-03
1.720354e+02	-4.990553e-03
1.730291e+02	-5.048336e-03
1.740285e+02	-5.106788e-03
1.750337e+02	-5.165916e-03
1.760446e+02	-5.225728e-03
1.770615e+02	-5.286233e-03
1.780842e+02	-5.347437e-03
1.791128e+02	-5.409350e-03
1.801473e+02	-5.471979e-03
1.811878e+02	-5.535333e-03
1.822344e+02	-5.599420e-03
1.832870e+02	-5.664248e-03
1.843456e+02	-5.729826e-03
1.854104e+02	-5.796163e-03
1.864813e+02	-5.863268e-03
1.875584e+02	-5.931149e-03
1.886418e+02	-5.999815e-03
1.897313e+02	-6.069276e-03
1.908272e+02	-6.139540e-03
1.919294e+02	-6.210617e-03
1.930380e+02	-6.282517e-03
1.941530e+02	-6.355248e-03
1.952744e+02	-6.428820e-03
1.964023e+02	-6.503244e-03
1.975367e+02	-6.578528e-03
1.986777e+02	-6.654684e-03
1.998252e+02	-6.731720e-03
2.009794e+02	-6.809647e-03
2.021403e+02	-6.888476e-03
2.033078e+02	-6.968217e-03
2.044821e+02	-7.048880e-03
2.056632e+02	-7.130475e-03
2.068511e+02	-7.213015e-03
2.080459e+02	-7.296509e-03
2.092475e+02	-7.380969e-03
2.104561e+02	-7.466406e-03
2.116717e+02	-7.552831e-03
2.128943e+02	-7.640255e-03
2.141240e+02	-7.728690e-03
2.153608e+02	-7.818148e-03
2.166047e+02	-7.908641e-03
2.178558e+02	-8.000180e-03
2.191141e+02	-8.092777e-03
2.203797e+02	-8.186445e-03
2.216526e+02	-8.281197e-03
2.229329e+02	-8.377043e-03
2.242205e+02	-8.473999e-03
2.255156e+02	-8.572075e-03
2.268182e+02	-8.671285e-03
2.281283e+02	-8.771642e-03
2.294459e+02	-8.873160e-03
2.307712e+02	-8.975851e-03
2.321041e+02	-9.079730e-03
2.334447e+02	-9.184809e-03
2.347931e+02	-9.291103e-03
2.361493e+02	-9.398626e-03
2.375133e+02	-9.507392e-03
2.388851e+02	-9.617415e-03
2.402649e+02	-9.728710e-03
2.416527e+02	-9.841291e-03
2.430484e+02	-9.955174e-03
2.444523e+02	-1.007037e-02
2.458642e+02	-1.018690e-02
2.472843e+02	-1.030478e-02
2.487126e+02	-1.042402e-02
2.501492e+02	-1.054464e-02
2.515940e+02	-1.066665e-02
2.530472e+02	-1.079007e-02
2.545088e+02	-1.091492e-02
2.559789e+02	-1.104121e-02
2.574574e+02	-1.116896e-02
2.589444e+02	-1.129819e-02
2.604401e+02	-1.142891e-02
2.619444e+02	-1.156114e-02
2.634574e+02	-1.169489e-02
2.649791e+02	-1.183020e-02
2.665096e+02	-1.196706e-02
2.680489e+02	-1.210551e-02
2.695972e+02	-1.224556e-02
2.711544e+02	-1.238722e-02
2.727205e+02	-1.253052e-02
2.742958e+02	-1.267548e-02
2.758801e+02	-1.282211e-02
2.774736e+02	-1.297044e-02
2.790762e+02	-1.312048e-02
2.806882e+02	-1.327225e-02
2.823094e+02	-1.342577e-02
2.839400e+02	-1.358107e-02
2.855800e+02	-1.373816e-02
2.872295e+02	-1.389706e-02
2.888886e+02	-1.405780e-02
2.905572e+02	-1.422040e-02
2.922354e+02	-1.438487e-02
2.939234e+02	-1.455124e-02
2.956211e+02	-1.471954e-02
2.973286e+02	-1.488977e-02
2.990459e+02	-1.506197e-02
3.007732e+02	-1.523616e-02
3.025104e+02	-1.541236e-02
3.042577e+02	-1.559060e-02
3.060151e+02	-1.577089e-02
3.077826e+02	-1.595326e-02
3.095604e+02	-1.613774e-02
3.113484e+02	-1.632435e-02
3.131467e+02	-1.651311e-02
3.149554e+02	-1.670405e-02
3.167746e+02	-1.689719e-02
3.186043e+02	-1.709256e-02
3.204445e+02	-1.729019e-02
3.222954e+02	-1.749009e-02
3.241570e+02	-1.769231e-02
3.260293e+02	-1.789685e-02
3.279124e+02	-1.810376e-02
3.298064e+02	-1.831305e-02
3.317114e+02	-1.852476e-02
3.336273e+02	-1.873891e-02
3.355544e+02	-1.895553e-02
3.374925e+02	-1.917465e-02
3.394418e+02	-1.939629e-02
3.414024e+02	-1.962049e-02
3.433744e+02	-1.984728e-02
3.453577e+02	-2.007668e-02
3.473525e+02	-2.030873e-02
3.493588e+02	-2.054345e-02
3.513766e+02	-2.078088e-02
3.534062e+02	-2.102105e-02
3.554474e+02	-2.126398e-02
3.575005e+02	-2.150972e-02
3.595654e+02	-2.175829e-02
3.616422e+02	-2.200972e-02
3.637311e+02	-2.226406e-02
3.658320e+02	-2.252132e-02
3.679450e+02	-2.278155e-02
3.700702e+02	-2.304478e-02
3.722077e+02	-2.331104e-02
3.743576e+02	-2.358036e-02
3.765199e+02	-2.385280e-02
3.786946e+02	-2.412837e-02
3.808820e+02	-2.440711e-02
3.830819e+02	-2.468907e-02
3.852946e+02	-2.497427e-02
3.875200e+02	-2.526276e-02
3.897583e+02	-2.555457e-02
3.920096e+02	-2.584974e-02
3.942738e+02	-2.614831e-02
3.965511e+02	-2.645032e-02
3.988416e+02	-2.675581e-02
4.011452e+02	-2.706481e-02
4.034622e+02	-2.737738e-02
4.057926e+02	-2.769353e-02
4.081365e+02	-2.801333e-02
4.104938e+02	-2.833681e-02
4.128648e+02	-2.866401e-02
4.152495e+02	-2.899498e-02
4.176480e+02	-2.932976e-02
4.200603e+02	-2.966839e-02
4.224866e+02	-3.001091e-02
4.249268e+02	-3.035738e-02
4.273812e+02	-3.070783e-02
4.298497e+02	-3.106231e-02
4.323325e+02	-3.142087e-02
4.348297e+02	-3.178355e-02
4.373412e+02	-3.215040e-02
4.398673e+02	-3.252147e-02
4.424079e+02	-3.289681e-02
4.449633e+02	-3.327647e-02
4.475334e+02	-3.366048e-02
4.501183e+02	-3.404891e-02
4.527182e+02	-3.444181e-02
4.553330e+02	-3.483922e-02
4.579630e+02	-3.524120e-02
4.606082e+02	-3.564780e-02
4.632687e+02	-3.605907e-02
4.659445e+02	-3.647506e-02
4.686358e+02	-3.689584e-02
4.713426e+02	-3.732144e-02
4.740650e+02	-3.775194e-02
4.768032e+02	-3.818737e-02
4.795572e+02	-3.862781e-02
4.823271e+02	-3.907330e-02
4.851130e+02	-3.952391e-02
4.879150e+02	-3.997970e-02
4.907332e+02	-4.044071e-02
4.935676e+02	-4.090701e-02
4.964185e+02	-4.137867e-02
4.992858e+02	-4.185573e-02
5.021696e+02	-4.233827e-02
5.050701e+02	-4.282635e-02
5.079874e+02	-4.332002e-02
5.109215e+02	-4.381936e-02
5.138726e+02	-4.432442e-02
5.168407e+02	-4.483527e-02
5.198259e+02	-4.535198e-02
5.228284e+02	-4.587461e-02
5.258482e+02	-4.640324e-02
5.288855e+02	-4.693792e-02
5.319403e+02	-4.747873e-02
5.350128e+02	-4.802573e-02
5.381030e+02	-4.857900e-02
5.412111e+02	-4.913861e-02
5.443371e+02	-4.970463e-02
5.474812e+02	-5.027713e-02
5.506434e+02	-5.085619e-02
5.538239e+02	-5.144188e-02
5.570228e+02	-5.203427e-02
5.602401e+02	-5.263344e-02
5.634760e+02	-5.323946e-02
5.667306e+02	-5.385243e-02
5.700040e+02	-5.447240e-02
5.732964e+02	-5.509947e-02
5.766077e+02	-5.573371e-02
5.799382e+02	-5.637520e-02
5.832879e+02	-5.702402e-02
5.866569e+02	-5.768027e-02
5.900454e+02	-5.834401e-02
5.934535e+02	-5.901535e-02
5.968813e+02	-5.969435e-02
6.003288e+02	-6.038111e-02
6.037963e+02	-6.107571e-02
6.072838e+02	-6.177825e-02
6.107914e+02	-6.248881e-02
6.143194e+02	-6.320749e-02
6.178676e+02	-6.393437e-02
6.214364e+02	-6.466954e-02
6.250258e+02	-6.541311e-02
6.286359e+02	-6.616516e-02
6.322669e+02	-6.692579e-02
6.359189e+02	-6.769509e-02
6.395919e+02	-6.847317e-02
6.432862e+02	-6.926012e-02
6.470017e+02	-7.005604e-02
6.507388e+02	-7.086103e-02
6.544974e+02	-7.167520e-02
6.582778e+02	-7.249864e-02
6.620800e+02	-7.333146e-02
6.659041e+02	-7.417377e-02
6.697504e+02	-7.502567e-02
6.736188e+02	-7.588726e-02
6.775096e+02	-7.675866e-02
6.814229e+02	-7.763998e-02
6.853587e+02	-7.853133e-02
6.893173e+02	-7.943282e-02
6.932988e+02	-8.034455e-02
6.973033e+02	-8.126666e-02
7.013309e+02	-8.219925e-02
