Frequency(Hz)	Magnitude(dB)
1.000000e+01	-1.959219e+00
1.005776e+01	-1.977703e+00
1.011585e+01	-1.995961e+00
1.017428e+01	-2.014584e+00
1.023305e+01	-2.033166e+00
1.029215e+01	-2.051770e+00
1.035160e+01	-2.070695e+00
1.041139e+01	-2.090010e+00
1.047153e+01	-2.109134e+00
1.053201e+01	-2.128512e+00
1.059284e+01	-2.147558e+00
1.065403e+01	-2.167216e+00
1.071556e+01	-2.186953e+00
1.077746e+01	-2.206888e+00
1.083971e+01	-2.226817e+00
1.090232e+01	-2.247194e+00
1.096529e+01	-2.267348e+00
1.102862e+01	-2.287633e+00
1.109232e+01	-2.308088e+00
1.115639e+01	-2.328923e+00
1.122083e+01	-2.349876e+00
1.128564e+01	-2.370603e+00
1.135083e+01	-2.391980e+00
1.141639e+01	-2.413175e+00
1.148233e+01	-2.434482e+00
1.154865e+01	-2.456313e+00
1.161536e+01	-2.477774e+00
1.168245e+01	-2.499515e+00
1.174992e+01	-2.521642e+00
1.181779e+01	-2.543831e+00
1.188605e+01	-2.565960e+00
1.195470e+01	-2.588126e+00
1.202375e+01	-2.610971e+00
1.209320e+01	-2.633331e+00
1.216305e+01	-2.656280e+00
1.223330e+01	-2.679152e+00
1.230396e+01	-2.702671e+00
1.237503e+01	-2.725557e+00
1.244651e+01	-2.748993e+00
1.251840e+01	-2.772835e+00
1.259070e+01	-2.796085e+00
1.266343e+01	-2.820073e+00
1.273657e+01	-2.844085e+00
1.281014e+01	-2.868140e+00
1.288413e+01	-2.892222e+00
1.295855e+01	-2.916833e+00
1.303339e+01	-2.941496e+00
1.310867e+01	-2.965980e+00
1.318439e+01	-2.990841e+00
1.326054e+01	-3.015722e+00
1.333713e+01	-3.040890e+00
1.341417e+01	-3.066144e+00
1.349165e+01	-3.091616e+00
1.356958e+01	-3.116992e+00
1.364795e+01	-3.142576e+00
1.372678e+01	-3.168593e+00
1.380607e+01	-3.194630e+00
1.388581e+01	-3.220662e+00
1.396602e+01	-3.246942e+00
1.404668e+01	-3.273541e+00
1.412782e+01	-3.300225e+00
1.420942e+01	-3.326539e+00
1.429149e+01	-3.353403e+00
1.437404e+01	-3.380418e+00
1.445706e+01	-3.407527e+00
1.454057e+01	-3.435054e+00
1.462455e+01	-3.462264e+00
1.470902e+01	-3.489960e+00
1.479398e+01	-3.517479e+00
1.487943e+01	-3.545381e+00
1.496537e+01	-3.573431e+00
1.505181e+01	-3.601623e+00
1.513875e+01	-3.629699e+00
1.522619e+01	-3.658280e+00
1.531414e+01	-3.686909e+00
1.540259e+01	-3.715412e+00
1.549156e+01	-3.744127e+00
1.558103e+01	-3.773230e+00
1.567103e+01	-3.802240e+00
1.576155e+01	-3.831589e+00
1.585258e+01	-3.861259e+00
1.594415e+01	-3.890739e+00
1.603624e+01	-3.919964e+00
1.612886e+01	-3.949625e+00
1.622202e+01	-3.979993e+00
1.631572e+01	-4.009867e+00
1.640996e+01	-4.040143e+00
1.650474e+01	-4.070387e+00
1.660008e+01	-4.101158e+00
1.669596e+01	-4.131754e+00
1.679239e+01	-4.162589e+00
1.688938e+01	-4.193602e+00
1.698694e+01	-4.224476e+00
1.708505e+01	-4.255836e+00
1.718373e+01	-4.286765e+00
1.728299e+01	-4.318576e+00
1.738281e+01	-4.349998e+00
1.748322e+01	-4.381575e+00
1.758420e+01	-4.413760e+00
1.768576e+01	-4.445672e+00
1.778792e+01	-4.477903e+00
1.789066e+01	-4.509824e+00
1.799399e+01	-4.542399e+00
1.809793e+01	-4.574788e+00
1.820246e+01	-4.607693e+00
1.830760e+01	-4.640253e+00
1.841334e+01	-4.673504e+00
1.851969e+01	-4.706232e+00
1.862666e+01	-4.739435e+00
1.873425e+01	-4.772519e+00
1.884246e+01	-4.806362e+00
1.895129e+01	-4.839455e+00
1.906075e+01	-4.873216e+00
1.917085e+01	-4.907174e+00
1.928158e+01	-4.941024e+00
1.939295e+01	-4.975029e+00
1.950496e+01	-5.009389e+00
1.961762e+01	-5.043762e+00
1.973093e+01	-5.077815e+00
1.984490e+01	-5.112571e+00
1.995952e+01	-5.147207e+00
2.007480e+01	-5.181982e+00
2.019076e+01	-5.216893e+00
2.030738e+01	-5.252000e+00
2.042467e+01	-5.287025e+00
2.054264e+01	-5.322299e+00
2.066130e+01	-5.357444e+00
2.078064e+01	-5.393037e+00
2.090066e+01	-5.428698e+00
2.102139e+01	-5.464485e+00
2.114280e+01	-5.500477e+00
2.126492e+01	-5.536378e+00
2.138775e+01	-5.572976e+00
2.151128e+01	-5.608832e+00
2.163553e+01	-5.645066e+00
2.176050e+01	-5.681422e+00
2.188619e+01	-5.718374e+00
2.201260e+01	-5.755211e+00
2.213974e+01	-5.791548e+00
2.226762e+01	-5.828595e+00
2.239624e+01	-5.865586e+00
2.252560e+01	-5.902840e+00
2.265571e+01	-5.939726e+00
2.278656e+01	-5.977452e+00
2.291818e+01	-6.014727e+00
2.305055e+01	-6.052199e+00
2.318369e+01	-6.089894e+00
2.331760e+01	-6.127949e+00
2.345228e+01	-6.165523e+00
2.358774e+01	-6.203684e+00
2.372398e+01	-6.241636e+00
2.386101e+01	-6.279860e+00
2.399883e+01	-6.318214e+00
2.413745e+01	-6.356504e+00
2.427686e+01	-6.394962e+00
2.441709e+01	-6.433489e+00
2.455812e+01	-6.472500e+00
2.469997e+01	-6.511337e+00
2.484263e+01	-6.550622e+00
2.498612e+01	-6.588966e+00
2.513044e+01	-6.628352e+00
2.527559e+01	-6.667371e+00
2.542158e+01	-6.706583e+00
2.556842e+01	-6.745688e+00
2.571610e+01	-6.785547e+00
2.586463e+01	-6.825061e+00
2.601403e+01	-6.865066e+00
2.616428e+01	-6.904565e+00
2.631541e+01	-6.944299e+00
2.646740e+01	-6.984501e+00
2.662028e+01	-7.024327e+00
2.677404e+01	-7.064501e+00
2.692868e+01	-7.104886e+00
2.708422e+01	-7.145324e+00
2.724066e+01	-7.185822e+00
2.739800e+01	-7.225997e+00
2.755625e+01	-7.266871e+00
2.771541e+01	-7.307269e+00
2.787550e+01	-7.348322e+00
2.803650e+01	-7.388811e+00
2.819844e+01	-7.430039e+00
2.836131e+01	-7.470645e+00
2.852513e+01	-7.512184e+00
2.868989e+01	-7.553547e+00
2.885560e+01	-7.594606e+00
2.902227e+01	-7.635966e+00
2.918990e+01	-7.677387e+00
2.935850e+01	-7.718481e+00
2.952807e+01	-7.760190e+00
2.969863e+01	-7.802169e+00
2.987016e+01	-7.844050e+00
3.004269e+01	-7.885984e+00
3.021622e+01	-7.927784e+00
3.039075e+01	-7.970067e+00
3.056628e+01	-8.011641e+00
3.074283e+01	-8.054088e+00
3.092040e+01	-8.096238e+00
3.109900e+01	-8.138669e+00
3.127862e+01	-8.180698e+00
3.145929e+01	-8.223814e+00
3.164099e+01	-8.265799e+00
3.182375e+01	-8.308399e+00
3.200756e+01	-8.351370e+00
3.219244e+01	-8.393810e+00
3.237838e+01	-8.436634e+00
3.256540e+01	-8.479885e+00
3.275349e+01	-8.522631e+00
3.294268e+01	-8.565734e+00
3.313295e+01	-8.608792e+00
3.332433e+01	-8.651724e+00
3.351681e+01	-8.695107e+00
3.371040e+01	-8.738203e+00
3.390511e+01	-8.781890e+00
3.410094e+01	-8.825544e+00
3.429791e+01	-8.868844e+00
3.449601e+01	-8.912738e+00
3.469526e+01	-8.956060e+00
3.489566e+01	-8.999546e+00
3.509721e+01	-9.043604e+00
3.529993e+01	-9.087458e+00
3.550382e+01	-9.131198e+00
3.570889e+01	-9.175137e+00
3.591515e+01	-9.218928e+00
3.612259e+01	-9.263023e+00
3.633123e+01	-9.307506e+00
3.654108e+01	-9.351521e+00
3.675214e+01	-9.395225e+00
3.696442e+01	-9.440021e+00
3.717792e+01	-9.484397e+00
3.739266e+01	-9.528816e+00
3.760864e+01	-9.573000e+00
3.782587e+01	-9.617523e+00
3.804435e+01	-9.662532e+00
3.826409e+01	-9.707083e+00
3.848510e+01	-9.751445e+00
3.870739e+01	-9.796240e+00
3.893096e+01	-9.841015e+00
3.915583e+01	-9.886294e+00
3.938199e+01	-9.931070e+00
3.960946e+01	-9.976064e+00
3.983824e+01	-1.002109e+01
4.006834e+01	-1.006608e+01
4.029978e+01	-1.011151e+01
4.053255e+01	-1.015651e+01
4.076666e+01	-1.020123e+01
4.100213e+01	-1.024711e+01
4.123896e+01	-1.029279e+01
4.147715e+01	-1.033757e+01
4.171672e+01	-1.038289e+01
4.195767e+01	-1.042851e+01
4.220002e+01	-1.047449e+01
4.244377e+01	-1.051954e+01
4.268892e+01	-1.056495e+01
4.293549e+01	-1.061076e+01
4.318348e+01	-1.065684e+01
4.343291e+01	-1.070172e+01
4.368377e+01	-1.074847e+01
4.393609e+01	-1.079423e+01
4.418986e+01	-1.083997e+01
4.444510e+01	-1.088524e+01
4.470182e+01	-1.093119e+01
4.496001e+01	-1.097798e+01
4.521970e+01	-1.102378e+01
4.548089e+01	-1.106981e+01
4.574358e+01	-1.111603e+01
4.600779e+01	-1.116221e+01
4.627353e+01	-1.120852e+01
4.654081e+01	-1.125455e+01
4.680963e+01	-1.130135e+01
4.708000e+01	-1.134830e+01
4.735193e+01	-1.139412e+01
4.762543e+01	-1.144036e+01
4.790051e+01	-1.148677e+01
4.817719e+01	-1.153331e+01
4.845545e+01	-1.157908e+01
4.873533e+01	-1.162643e+01
4.901682e+01	-1.167205e+01
4.929994e+01	-1.171894e+01
4.958470e+01	-1.176574e+01
4.987110e+01	-1.181267e+01
5.015915e+01	-1.185875e+01
5.044887e+01	-1.190641e+01
5.074026e+01	-1.195303e+01
5.103333e+01	-1.200045e+01
5.132810e+01	-1.204662e+01
5.162457e+01	-1.209297e+01
5.192275e+01	-1.214088e+01
5.222265e+01	-1.218789e+01
5.252429e+01	-1.223486e+01
5.282767e+01	-1.228212e+01
5.313280e+01	-1.232897e+01
5.343969e+01	-1.237608e+01
5.374836e+01	-1.242292e+01
5.405880e+01	-1.246974e+01
5.437105e+01	-1.251733e+01
5.468509e+01	-1.256497e+01
5.500095e+01	-1.261259e+01
5.531863e+01	-1.265927e+01
5.563815e+01	-1.270680e+01
5.595951e+01	-1.275393e+01
5.628273e+01	-1.280206e+01
5.660782e+01	-1.284857e+01
5.693479e+01	-1.289685e+01
5.726364e+01	-1.294364e+01
5.759439e+01	-1.299178e+01
5.792705e+01	-1.303837e+01
5.826164e+01	-1.308611e+01
5.859815e+01	-1.313381e+01
5.893662e+01	-1.318144e+01
5.927703e+01	-1.322919e+01
5.961941e+01	-1.327680e+01
5.996377e+01	-1.332496e+01
6.031012e+01	-1.337256e+01
6.065847e+01	-1.342016e+01
6.100883e+01	-1.346806e+01
6.136121e+01	-1.351566e+01
6.171563e+01	-1.356339e+01
6.207210e+01	-1.361132e+01
6.243063e+01	-1.365981e+01
6.279122e+01	-1.370650e+01
6.315390e+01	-1.375493e+01
6.351868e+01	-1.380292e+01
6.388556e+01	-1.385113e+01
6.425456e+01	-1.389926e+01
6.462569e+01	-1.394731e+01
6.499897e+01	-1.399484e+01
6.537440e+01	-1.404307e+01
6.575200e+01	-1.409082e+01
6.613178e+01	-1.413928e+01
6.651375e+01	-1.418754e+01
6.689793e+01	-1.423618e+01
6.728433e+01	-1.428305e+01
6.767297e+01	-1.433167e+01
6.806384e+01	-1.437980e+01
6.845698e+01	-1.442862e+01
6.885238e+01	-1.447662e+01
6.925007e+01	-1.452416e+01
6.965005e+01	-1.457351e+01
7.005235e+01	-1.462013e+01
7.045697e+01	-1.466951e+01
7.086393e+01	-1.471805e+01
7.127323e+01	-1.476566e+01
7.168490e+01	-1.481468e+01
7.209895e+01	-1.486313e+01
7.251539e+01	-1.491116e+01
7.293424e+01	-1.495988e+01
7.335551e+01	-1.500770e+01
7.377920e+01	-1.505624e+01
7.420535e+01	-1.510573e+01
7.463396e+01	-1.515305e+01
7.506504e+01	-1.520274e+01
7.549861e+01	-1.525056e+01
7.593469e+01	-1.529896e+01
7.637328e+01	-1.534784e+01
7.681441e+01	-1.539702e+01
7.725809e+01	-1.544401e+01
7.770433e+01	-1.549298e+01
7.815315e+01	-1.554273e+01
7.860456e+01	-1.559072e+01
7.905857e+01	-1.563980e+01
7.951521e+01	-1.568794e+01
7.997449e+01	-1.573682e+01
8.043642e+01	-1.578660e+01
8.090102e+01	-1.583373e+01
8.136830e+01	-1.588315e+01
8.183828e+01	-1.593245e+01
8.231097e+01	-1.598124e+01
8.278640e+01	-1.602961e+01
8.326457e+01	-1.607856e+01
8.374550e+01	-1.612656e+01
8.422921e+01	-1.617569e+01
8.471572e+01	-1.622454e+01
8.520503e+01	-1.627275e+01
8.569717e+01	-1.632088e+01
8.619215e+01	-1.637112e+01
8.669000e+01	-1.642031e+01
8.719071e+01	-1.646867e+01
8.769432e+01	-1.651668e+01
8.820084e+01	-1.656631e+01
8.871029e+01	-1.661604e+01
8.922267e+01	-1.666383e+01
8.973802e+01	-1.671303e+01
9.025634e+01	-1.676296e+01
9.077766e+01	-1.681205e+01
9.130199e+01	-1.686020e+01
9.182935e+01	-1.691033e+01
9.235975e+01	-1.695859e+01
9.289321e+01	-1.700779e+01
9.342976e+01	-1.705708e+01
9.396941e+01	-1.710491e+01
9.451217e+01	-1.715604e+01
9.505807e+01	-1.720375e+01
9.560712e+01	-1.725266e+01
9.615934e+01	-1.730171e+01
9.671476e+01	-1.735138e+01
9.727338e+01	-1.739959e+01
9.783522e+01	-1.744915e+01
9.840032e+01	-1.749918e+01
9.896867e+01	-1.754625e+01
9.954031e+01	-1.759627e+01
1.001153e+02	-1.764462e+01
1.006935e+02	-1.769511e+01
1.012751e+02	-1.774328e+01
1.018601e+02	-1.779345e+01
1.024484e+02	-1.784204e+01
1.030402e+02	-1.789144e+01
1.036353e+02	-1.794116e+01
1.042339e+02	-1.799145e+01
1.048360e+02	-1.803982e+01
1.054415e+02	-1.809027e+01
1.060505e+02	-1.813764e+01
1.066631e+02	-1.818732e+01
1.072791e+02	-1.823509e+01
1.078988e+02	-1.828529e+01
1.085220e+02	-1.833608e+01
1.091488e+02	-1.838484e+01
1.097793e+02	-1.843320e+01
1.104133e+02	-1.848332e+01
1.110511e+02	-1.853238e+01
1.116925e+02	-1.858213e+01
1.123376e+02	-1.863155e+01
1.129865e+02	-1.867999e+01
1.136391e+02	-1.872845e+01
1.142955e+02	-1.877956e+01
1.149556e+02	-1.882864e+01
1.156196e+02	-1.887663e+01
1.162874e+02	-1.892782e+01
1.169591e+02	-1.897679e+01
1.176347e+02	-1.902613e+01
1.183141e+02	-1.907496e+01
1.189975e+02	-1.912422e+01
1.196848e+02	-1.917253e+01
1.203761e+02	-1.922419e+01
1.210714e+02	-1.927271e+01
1.217707e+02	-1.932151e+01
1.224740e+02	-1.937256e+01
1.231814e+02	-1.942066e+01
1.238929e+02	-1.947288e+01
1.246085e+02	-1.952047e+01
1.253283e+02	-1.956866e+01
1.260522e+02	-1.961820e+01
1.267802e+02	-1.966896e+01
1.275125e+02	-1.972031e+01
1.282490e+02	-1.976822e+01
1.289898e+02	-1.981668e+01
1.297348e+02	-1.986736e+01
1.304842e+02	-1.991666e+01
1.312378e+02	-1.996531e+01
1.319959e+02	-2.001491e+01
1.327583e+02	-2.006484e+01
1.335251e+02	-2.011632e+01
1.342963e+02	-2.016410e+01
1.350720e+02	-2.021442e+01
1.358522e+02	-2.026349e+01
1.366368e+02	-2.031251e+01
1.374260e+02	-2.036165e+01
1.382198e+02	-2.041350e+01
1.390182e+02	-2.046211e+01
1.398211e+02	-2.051076e+01
1.406287e+02	-2.056131e+01
1.414410e+02	-2.060997e+01
1.422579e+02	-2.066130e+01
1.430796e+02	-2.071036e+01
1.439060e+02	-2.076030e+01
1.447372e+02	-2.080999e+01
1.455732e+02	-2.085833e+01
1.464141e+02	-2.090876e+01
1.472597e+02	-2.095717e+01
1.481103e+02	-2.100710e+01
1.489658e+02	-2.105732e+01
1.498262e+02	-2.110743e+01
1.506916e+02	-2.115643e+01
1.515620e+02	-2.120739e+01
1.524374e+02	-2.125716e+01
1.533179e+02	-2.130588e+01
1.542034e+02	-2.135499e+01
1.550941e+02	-2.140429e+01
1.559899e+02	-2.145416e+01
1.568909e+02	-2.150266e+01
1.577971e+02	-2.155372e+01
1.587085e+02	-2.160330e+01
1.596252e+02	-2.165570e+01
1.605472e+02	-2.170295e+01
1.614745e+02	-2.175246e+01
1.624072e+02	-2.180345e+01
1.633453e+02	-2.185260e+01
1.642887e+02	-2.190000e+01
1.652377e+02	-2.195337e+01
1.661921e+02	-2.200153e+01
1.671520e+02	-2.205110e+01
1.681175e+02	-2.210150e+01
1.690885e+02	-2.215219e+01
1.700651e+02	-2.220132e+01
1.710474e+02	-2.225049e+01
1.720354e+02	-2.230113e+01
1.730291e+02	-2.234913e+01
1.740285e+02	-2.239837e+01
1.750337e+02	-2.244805e+01
1.760446e+02	-2.249771e+01
1.770615e+02	-2.254995e+01
1.780842e+02	-2.259924e+01
1.791128e+02	-2.264649e+01
1.801473e+02	-2.269958e+01
1.811878e+02	-2.274798e+01
1.822344e+02	-2.279640e+01
1.832870e+02	-2.284704e+01
1.843456e+02	-2.289739e+01
1.854104e+02	-2.294666e+01
1.864813e+02	-2.299480e+01
1.875584e+02	-2.304602e+01
1.886418e+02	-2.309642e+01
1.897313e+02	-2.314626e+01
1.908272e+02	-2.319612e+01
1.919294e+02	-2.324519e+01
1.930380e+02	-2.329526e+01
1.941530e+02	-2.334542e+01
1.952744e+02	-2.339606e+01
1.964023e+02	-2.344506e+01
1.975367e+02	-2.349566e+01
1.986777e+02	-2.354420e+01
1.998252e+02	-2.359449e+01
2.009794e+02	-2.364540e+01
2.021403e+02	-2.369366e+01
2.033078e+02	-2.374166e+01
2.044821e+02	-2.379363e+01
2.056632e+02	-2.384143e+01
2.068511e+02	-2.389431e+01
2.080459e+02	-2.394218e+01
2.092475e+02	-2.399193e+01
2.104561e+02	-2.404499e+01
2.116717e+02	-2.409294e+01
2.128943e+02	-2.414383e+01
2.141240e+02	-2.419253e+01
2.153608e+02	-2.424167e+01
2.166047e+02	-2.429424e+01
2.178558e+02	-2.434313e+01
2.191141e+02	-2.439154e+01
2.203797e+02	-2.444298e+01
2.216526e+02	-2.449148e+01
2.229329e+02	-2.454171e+01
2.242205e+02	-2.459011e+01
2.255156e+02	-2.464154e+01
2.268182e+02	-2.469128e+01
2.281283e+02	-2.474388e+01
2.294459e+02	-2.479075e+01
2.307712e+02	-2.484395e+01
2.321041e+02	-2.488969e+01
2.334447e+02	-2.493999e+01
2.347931e+02	-2.498738e+01
2.361493e+02	-2.503696e+01
2.375133e+02	-2.508963e+01
2.388851e+02	-2.514198e+01
2.402649e+02	-2.518950e+01
2.416527e+02	-2.523866e+01
2.430484e+02	-2.529213e+01
2.444523e+02	-2.534170e+01
2.458642e+02	-2.539068e+01
2.472843e+02	-2.543983e+01
2.487126e+02	-2.549165e+01
2.501492e+02	-2.553910e+01
2.515940e+02	-2.559010e+01
2.530472e+02	-2.564071e+01
2.545088e+02	-2.568876e+01
2.559789e+02	-2.574092e+01
2.574574e+02	-2.579294e+01
2.589444e+02	-2.583837e+01
2.604401e+02	-2.589037e+01
2.619444e+02	-2.593899e+01
2.634574e+02	-2.599033e+01
2.649791e+02	-2.603944e+01
2.665096e+02	-2.608966e+01
2.680489e+02	-2.613896e+01
2.695972e+02	-2.618665e+01
2.711544e+02	-2.624040e+01
2.727205e+02	-2.628728e+01
2.742958e+02	-2.633704e+01
2.758801e+02	-2.638777e+01
2.774736e+02	-2.643809e+01
2.790762e+02	-2.648918e+01
2.806882e+02	-2.653810e+01
2.823094e+02	-2.658753e+01
2.839400e+02	-2.663869e+01
2.855800e+02	-2.668817e+01
2.872295e+02	-2.674126e+01
2.888886e+02	-2.678982e+01
2.905572e+02	-2.683931e+01
2.922354e+02	-2.689019e+01
2.939234e+02	-2.693927e+01
2.956211e+02	-2.698927e+01
2.973286e+02	-2.703708e+01
2.990459e+02	-2.708910e+01
3.007732e+02	-2.714071e+01
3.025104e+02	-2.719027e+01
3.042577e+02	-2.724001e+01
3.060151e+02	-2.729363e+01
3.077826e+02	-2.734180e+01
3.095604e+02	-2.738623e+01
3.113484e+02	-2.744011e+01
3.131467e+02	-2.749050e+01
3.149554e+02	-2.753645e+01
3.167746e+02	-2.758840e+01
3.186043e+02	-2.763993e+01
3.204445e+02	-2.769058e+01
3.222954e+02	-2.773945e+01
3.241570e+02	-2.778976e+01
3.260293e+02	-2.783837e+01
3.279124e+02	-2.788913e+01
3.298064e+02	-2.793805e+01
3.317114e+02	-2.798898e+01
3.336273e+02	-2.803858e+01
3.355544e+02	-2.808958e+01
3.374925e+02	-2.813617e+01
3.394418e+02	-2.819307e+01
3.414024e+02	-2.824046e+01
3.433744e+02	-2.828728e+01
3.453577e+02	-2.833734e+01
3.473525e+02	-2.839034e+01
3.493588e+02	-2.843666e+01
3.513766e+02	-2.848759e+01
3.534062e+02	-2.854173e+01
3.554474e+02	-2.858895e+01
3.575005e+02	-2.863895e+01
3.595654e+02	-2.869247e+01
3.616422e+02	-2.874404e+01
3.637311e+02	-2.879048e+01
3.658320e+02	-2.883943e+01
3.679450e+02	-2.888614e+01
3.700702e+02	-2.894157e+01
3.722077e+02	-2.899208e+01
3.743576e+02	-2.904144e+01
3.765199e+02	-2.909625e+01
3.786946e+02	-2.913984e+01
3.808820e+02	-2.919141e+01
3.830819e+02	-2.924810e+01
3.852946e+02	-2.929157e+01
3.875200e+02	-2.934396e+01
3.897583e+02	-2.938988e+01
3.920096e+02	-2.944199e+01
3.942738e+02	-2.948776e+01
3.965511e+02	-2.953746e+01
3.988416e+02	-2.959273e+01
4.011452e+02	-2.963969e+01
4.034622e+02	-2.968983e+01
4.057926e+02	-2.974417e+01
4.081365e+02	-2.979168e+01
4.104938e+02	-2.984499e+01
4.128648e+02	-2.989190e+01
4.152495e+02	-2.994094e+01
4.176480e+02	-2.999878e+01
4.200603e+02	-3.004677e+01
4.224866e+02	-3.008988e+01
4.249268e+02	-3.014606e+01
4.273812e+02	-3.019481e+01
4.298497e+02	-3.024059e+01
4.323325e+02	-3.029698e+01
4.348297e+02	-3.033971e+01
4.373412e+02	-3.038640e+01
4.398673e+02	-3.044610e+01
4.424079e+02	-3.049006e+01
4.449633e+02	-3.054741e+01
4.475334e+02	-3.058995e+01
4.501183e+02	-3.064608e+01
4.527182e+02	-3.068853e+01
4.553330e+02	-3.074513e+01
4.579630e+02	-3.079324e+01
4.606082e+02	-3.084474e+01
4.632687e+02	-3.089636e+01
4.659445e+02	-3.094817e+01
4.686358e+02	-3.099192e+01
4.713426e+02	-3.103861e+01
4.740650e+02	-3.109440e+01
4.768032e+02	-3.114327e+01
4.795572e+02	-3.119661e+01
4.823271e+02	-3.123720e+01
4.851130e+02	-3.129825e+01
4.879150e+02	-3.133994e+01
4.907332e+02	-3.139246e+01
4.935676e+02	-3.144991e+01
4.964185e+02	-3.149464e+01
4.992858e+02	-3.155147e+01
5.021696e+02	-3.159879e+01
5.050701e+02	-3.164786e+01
5.079874e+02	-3.170449e+01
5.109215e+02	-3.175055e+01
5.138726e+02	-3.180066e+01
5.168407e+02	-3.185101e+01
5.198259e+02	-3.190107e+01
5.228284e+02	-3.195020e+01
5.258482e+02	-3.199512e+01
5.288855e+02	-3.204709e+01
5.319403e+02	-3.209265e+01
5.350128e+02	-3.214527e+01
5.381030e+02	-3.220167e+01
5.412111e+02	-3.224516e+01
5.443371e+02	-3.229981e+01
5.474812e+02	-3.234845e+01
5.506434e+02	-3.239875e+01
5.538239e+02	-3.244409e+01
5.570228e+02	-3.250355e+01
5.602401e+02	-3.255139e+01
5.634760e+02	-3.259998e+01
5.667306e+02	-3.265071e+01
5.700040e+02	-3.270345e+01
5.732964e+02	-3.275295e+01
5.766077e+02	-3.280677e+01
5.799382e+02	-3.285633e+01
5.832879e+02	-3.290103e+01
5.866569e+02	-3.294484e+01
5.900454e+02	-3.300085e+01
5.934535e+02	-3.305636e+01
5.968813e+02	-3.309834e+01
6.003288e+02	-3.315131e+01
6.037963e+02	-3.320220e+01
6.072838e+02	-3.324806e+01
6.107914e+02	-3.330001e+01
6.143194e+02	-3.335338e+01
6.178676e+02	-3.340937e+01
6.214364e+02	-3.345559e+01
6.250258e+02	-3.349799e+01
6.286359e+02	-3.355016e+01
6.322669e+02	-3.360187e+01
6.359189e+02	-3.365933e+01
6.395919e+02	-3.371152e+01
6.432862e+02	-3.375810e+01
6.470017e+02	-3.380921e+01
6.507388e+02	-3.386038e+01
6.544974e+02	-3.390889e+01
6.582778e+02	-3.395099e+01
6.620800e+02	-3.400968e+01
6.659041e+02	-3.405152e+01
6.697504e+02	-3.410344e+01
6.736188e+02	-3.416363e+01
6.775096e+02	-3.420365e+01
6.814229e+02	-3.426527e+01
6.853587e+02	-3.431200e+01
6.893173e+02	-3.436017e+01
6.932988e+02	-3.441643e+01
6.973033e+02	-3.446096e+01
7.013309e+02	-3.451704e+01
