Frequency(Hz)	Magnitude(dB)
1.000000e+01	-1.940314e+00
1.005776e+01	-1.958387e+00
1.011585e+01	-1.976642e+00
1.017428e+01	-1.994996e+00
1.023305e+01	-2.013450e+00
1.029215e+01	-2.032275e+00
1.035160e+01	-2.050793e+00
1.041139e+01	-2.069837e+00
1.047153e+01	-2.088884e+00
1.053201e+01	-2.107963e+00
1.059284e+01	-2.127335e+00
1.065403e+01	-2.146657e+00
1.071556e+01	-2.166153e+00
1.077746e+01	-2.185801e+00
1.083971e+01	-2.205928e+00
1.090232e+01	-2.226054e+00
1.096529e+01	-2.245950e+00
1.102862e+01	-2.266229e+00
1.109232e+01	-2.286769e+00
1.115639e+01	-2.307272e+00
1.122083e+01	-2.327847e+00
1.128564e+01	-2.348764e+00
1.135083e+01	-2.369808e+00
1.141639e+01	-2.390866e+00
1.148233e+01	-2.412181e+00
1.154865e+01	-2.433621e+00
1.161536e+01	-2.454991e+00
1.168245e+01	-2.476544e+00
1.174992e+01	-2.498381e+00
1.181779e+01	-2.520485e+00
1.188605e+01	-2.542471e+00
1.195470e+01	-2.564856e+00
1.202375e+01	-2.587104e+00
1.209320e+01	-2.609730e+00
1.216305e+01	-2.632407e+00
1.223330e+01	-2.654916e+00
1.230396e+01	-2.678158e+00
1.237503e+01	-2.701103e+00
1.244651e+01	-2.724325e+00
1.251840e+01	-2.747612e+00
1.259070e+01	-2.771296e+00
1.266343e+01	-2.794964e+00
1.273657e+01	-2.818512e+00
1.281014e+01	-2.842683e+00
1.288413e+01	-2.866960e+00
1.295855e+01	-2.891276e+00
1.303339e+01	-2.915643e+00
1.310867e+01	-2.940140e+00
1.318439e+01	-2.964791e+00
1.326054e+01	-2.989394e+00
1.333713e+01	-3.014865e+00
1.341417e+01	-3.039561e+00
1.349165e+01	-3.065026e+00
1.356958e+01	-3.090256e+00
1.364795e+01	-3.115896e+00
1.372678e+01	-3.141557e+00
1.380607e+01	-3.167267e+00
1.388581e+01	-3.193453e+00
1.396602e+01	-3.219281e+00
1.404668e+01	-3.245738e+00
1.412782e+01	-3.271976e+00
1.420942e+01	-3.298520e+00
1.429149e+01	-3.325490e+00
1.437404e+01	-3.351984e+00
1.445706e+01	-3.379034e+00
1.454057e+01	-3.406313e+00
1.462455e+01	-3.433270e+00
1.470902e+01	-3.460917e+00
1.479398e+01	-3.488499e+00
1.487943e+01	-3.516161e+00
1.496537e+01	-3.544160e+00
1.505181e+01	-3.571938e+00
1.513875e+01	-3.600259e+00
1.522619e+01	-3.628470e+00
1.531414e+01	-3.656829e+00
1.540259e+01	-3.685317e+00
1.549156e+01	-3.713836e+00
1.558103e+01	-3.742807e+00
1.567103e+01	-3.771834e+00
1.576155e+01	-3.800808e+00
1.585258e+01	-3.830237e+00
1.594415e+01	-3.859536e+00
1.603624e+01	-3.889078e+00
1.612886e+01	-3.918677e+00
1.622202e+01	-3.948388e+00
1.631572e+01	-3.978540e+00
1.640996e+01	-4.008455e+00
1.650474e+01	-4.038842e+00
1.660008e+01	-4.068925e+00
1.669596e+01	-4.099572e+00
1.679239e+01	-4.130130e+00
1.688938e+01	-4.160641e+00
1.698694e+01	-4.192189e+00
1.708505e+01	-4.222918e+00
1.718373e+01	-4.254446e+00
1.728299e+01	-4.285538e+00
1.738281e+01	-4.316783e+00
1.748322e+01	-4.348587e+00
1.758420e+01	-4.380135e+00
1.768576e+01	-4.411957e+00
1.778792e+01	-4.443831e+00
1.789066e+01	-4.476142e+00
1.799399e+01	-4.508411e+00
1.809793e+01	-4.540583e+00
1.820246e+01	-4.573072e+00
1.830760e+01	-4.605903e+00
1.841334e+01	-4.638459e+00
1.851969e+01	-4.671637e+00
1.862666e+01	-4.704502e+00
1.873425e+01	-4.737733e+00
1.884246e+01	-4.771277e+00
1.895129e+01	-4.804530e+00
1.906075e+01	-4.837959e+00
1.917085e+01	-4.871546e+00
1.928158e+01	-4.905502e+00
1.939295e+01	-4.939435e+00
1.950496e+01	-4.973456e+00
1.961762e+01	-5.007546e+00
1.973093e+01	-5.041949e+00
1.984490e+01	-5.076378e+00
1.995952e+01	-5.110923e+00
2.007480e+01	-5.145487e+00
2.019076e+01	-5.180609e+00
2.030738e+01	-5.215288e+00
2.042467e+01	-5.250633e+00
2.054264e+01	-5.285385e+00
2.066130e+01	-5.320505e+00
2.078064e+01	-5.355948e+00
2.090066e+01	-5.391643e+00
2.102139e+01	-5.427448e+00
2.114280e+01	-5.462710e+00
2.126492e+01	-5.498875e+00
2.138775e+01	-5.534426e+00
2.151128e+01	-5.571094e+00
2.163553e+01	-5.607380e+00
2.176050e+01	-5.643526e+00
2.188619e+01	-5.680083e+00
2.201260e+01	-5.716543e+00
2.213974e+01	-5.753281e+00
2.226762e+01	-5.789667e+00
2.239624e+01	-5.826895e+00
2.252560e+01	-5.863627e+00
2.265571e+01	-5.900666e+00
2.278656e+01	-5.938009e+00
2.291818e+01	-5.975380e+00
2.305055e+01	-6.013162e+00
2.318369e+01	-6.050460e+00
2.331760e+01	-6.087978e+00
2.345228e+01	-6.125650e+00
2.358774e+01	-6.163479e+00
2.372398e+01	-6.201781e+00
2.386101e+01	-6.239633e+00
2.399883e+01	-6.278148e+00
2.413745e+01	-6.316095e+00
2.427686e+01	-6.354445e+00
2.441709e+01	-6.392870e+00
2.455812e+01	-6.431547e+00
2.469997e+01	-6.470301e+00
2.484263e+01	-6.509309e+00
2.498612e+01	-6.548328e+00
2.513044e+01	-6.587209e+00
2.527559e+01	-6.626134e+00
2.542158e+01	-6.665596e+00
2.556842e+01	-6.704747e+00
2.571610e+01	-6.744280e+00
2.586463e+01	-6.783662e+00
2.601403e+01	-6.823148e+00
2.616428e+01	-6.862981e+00
2.631541e+01	-6.902477e+00
2.646740e+01	-6.942639e+00
2.662028e+01	-6.982463e+00
2.677404e+01	-7.022511e+00
2.692868e+01	-7.062669e+00
2.708422e+01	-7.103080e+00
2.724066e+01	-7.143045e+00
2.739800e+01	-7.183522e+00
2.755625e+01	-7.224006e+00
2.771541e+01	-7.264534e+00
2.787550e+01	-7.305460e+00
2.803650e+01	-7.346232e+00
2.819844e+01	-7.387170e+00
2.836131e+01	-7.427734e+00
2.852513e+01	-7.468829e+00
2.868989e+01	-7.510231e+00
2.885560e+01	-7.551313e+00
2.902227e+01	-7.591752e+00
2.918990e+01	-7.633379e+00
2.935850e+01	-7.675169e+00
2.952807e+01	-7.716735e+00
2.969863e+01	-7.758378e+00
2.987016e+01	-7.800255e+00
3.004269e+01	-7.841882e+00
3.021622e+01	-7.884205e+00
3.039075e+01	-7.925485e+00
3.056628e+01	-7.967238e+00
3.074283e+01	-8.009588e+00
3.092040e+01	-8.051687e+00
3.109900e+01	-8.094150e+00
3.127862e+01	-8.136353e+00
3.145929e+01	-8.179072e+00
3.164099e+01	-8.221425e+00
3.182375e+01	-8.263757e+00
3.200756e+01	-8.306531e+00
3.219244e+01	-8.348970e+00
3.237838e+01	-8.391992e+00
3.256540e+01	-8.434386e+00
3.275349e+01	-8.477407e+00
3.294268e+01	-8.520055e+00
3.313295e+01	-8.563381e+00
3.332433e+01	-8.606382e+00
3.351681e+01	-8.649800e+00
3.371040e+01	-8.692940e+00
3.390511e+01	-8.736489e+00
3.410094e+01	-8.779840e+00
3.429791e+01	-8.823311e+00
3.449601e+01	-8.866190e+00
3.469526e+01	-8.910149e+00
3.489566e+01	-8.953798e+00
3.509721e+01	-8.997094e+00
3.529993e+01	-9.040948e+00
3.550382e+01	-9.085043e+00
3.570889e+01	-9.129043e+00
3.591515e+01	-9.172649e+00
3.612259e+01	-9.217516e+00
3.633123e+01	-9.260650e+00
3.654108e+01	-9.305194e+00
3.675214e+01	-9.349303e+00
3.696442e+01	-9.393504e+00
3.717792e+01	-9.437779e+00
3.739266e+01	-9.482081e+00
3.760864e+01	-9.526199e+00
3.782587e+01	-9.570992e+00
3.804435e+01	-9.615611e+00
3.826409e+01	-9.660412e+00
3.848510e+01	-9.704936e+00
3.870739e+01	-9.748886e+00
3.893096e+01	-9.794179e+00
3.915583e+01	-9.838659e+00
3.938199e+01	-9.884275e+00
3.960946e+01	-9.928962e+00
3.983824e+01	-9.974463e+00
4.006834e+01	-1.001822e+01
4.029978e+01	-1.006401e+01
4.053255e+01	-1.010913e+01
4.076666e+01	-1.015413e+01
4.100213e+01	-1.019937e+01
4.123896e+01	-1.024504e+01
4.147715e+01	-1.028973e+01
4.171672e+01	-1.033516e+01
4.195767e+01	-1.038057e+01
4.220002e+01	-1.042609e+01
4.244377e+01	-1.047140e+01
4.268892e+01	-1.051707e+01
4.293549e+01	-1.056322e+01
4.318348e+01	-1.060884e+01
4.343291e+01	-1.065379e+01
4.368377e+01	-1.070037e+01
4.393609e+01	-1.074611e+01
4.418986e+01	-1.079158e+01
4.444510e+01	-1.083737e+01
4.470182e+01	-1.088311e+01
4.496001e+01	-1.093006e+01
4.521970e+01	-1.097615e+01
4.548089e+01	-1.102171e+01
4.574358e+01	-1.106745e+01
4.600779e+01	-1.111374e+01
4.627353e+01	-1.116028e+01
4.654081e+01	-1.120622e+01
4.680963e+01	-1.125202e+01
4.708000e+01	-1.129860e+01
4.735193e+01	-1.134491e+01
4.762543e+01	-1.139133e+01
4.790051e+01	-1.143798e+01
4.817719e+01	-1.148406e+01
4.845545e+01	-1.153067e+01
4.873533e+01	-1.157773e+01
4.901682e+01	-1.162420e+01
4.929994e+01	-1.167042e+01
4.958470e+01	-1.171669e+01
4.987110e+01	-1.176423e+01
5.015915e+01	-1.181099e+01
5.044887e+01	-1.185712e+01
5.074026e+01	-1.190409e+01
5.103333e+01	-1.195099e+01
5.132810e+01	-1.199774e+01
5.162457e+01	-1.204419e+01
5.192275e+01	-1.209110e+01
5.222265e+01	-1.213770e+01
5.252429e+01	-1.218520e+01
5.282767e+01	-1.223243e+01
5.313280e+01	-1.227977e+01
5.343969e+01	-1.232631e+01
5.374836e+01	-1.237424e+01
5.405880e+01	-1.242019e+01
5.437105e+01	-1.246824e+01
5.468509e+01	-1.251506e+01
5.500095e+01	-1.256194e+01
5.531863e+01	-1.260967e+01
5.563815e+01	-1.265709e+01
5.595951e+01	-1.270441e+01
5.628273e+01	-1.275164e+01
5.660782e+01	-1.279861e+01
5.693479e+01	-1.284686e+01
5.726364e+01	-1.289423e+01
5.759439e+01	-1.294179e+01
5.792705e+01	-1.298907e+01
5.826164e+01	-1.303601e+01
5.859815e+01	-1.308363e+01
5.893662e+01	-1.313163e+01
5.927703e+01	-1.317918e+01
5.961941e+01	-1.322753e+01
5.996377e+01	-1.327462e+01
6.031012e+01	-1.332236e+01
6.065847e+01	-1.336946e+01
6.100883e+01	-1.341713e+01
6.136121e+01	-1.346531e+01
6.171563e+01	-1.351241e+01
6.207210e+01	-1.356097e+01
6.243063e+01	-1.360884e+01
6.279122e+01	-1.365757e+01
6.315390e+01	-1.370416e+01
6.351868e+01	-1.375236e+01
6.388556e+01	-1.380036e+01
6.425456e+01	-1.384865e+01
6.462569e+01	-1.389691e+01
6.499897e+01	-1.394425e+01
6.537440e+01	-1.399241e+01
6.575200e+01	-1.404059e+01
6.613178e+01	-1.408893e+01
6.651375e+01	-1.413653e+01
6.689793e+01	-1.418553e+01
6.728433e+01	-1.423286e+01
6.767297e+01	-1.428130e+01
6.806384e+01	-1.432848e+01
6.845698e+01	-1.437775e+01
6.885238e+01	-1.442536e+01
6.925007e+01	-1.447371e+01
6.965005e+01	-1.452245e+01
7.005235e+01	-1.457009e+01
7.045697e+01	-1.461781e+01
7.086393e+01	-1.466753e+01
7.127323e+01	-1.471562e+01
7.168490e+01	-1.476348e+01
7.209895e+01	-1.481097e+01
7.251539e+01	-1.485959e+01
7.293424e+01	-1.490937e+01
7.335551e+01	-1.495744e+01
7.377920e+01	-1.500553e+01
7.420535e+01	-1.505463e+01
7.463396e+01	-1.510282e+01
7.506504e+01	-1.515028e+01
7.549861e+01	-1.519966e+01
7.593469e+01	-1.524814e+01
7.637328e+01	-1.529769e+01
7.681441e+01	-1.534556e+01
7.725809e+01	-1.539416e+01
7.770433e+01	-1.544238e+01
7.815315e+01	-1.549119e+01
7.860456e+01	-1.553942e+01
7.905857e+01	-1.558849e+01
7.951521e+01	-1.563577e+01
7.997449e+01	-1.568532e+01
8.043642e+01	-1.573429e+01
8.090102e+01	-1.578233e+01
8.136830e+01	-1.583145e+01
8.183828e+01	-1.588015e+01
8.231097e+01	-1.593025e+01
8.278640e+01	-1.597759e+01
8.326457e+01	-1.602659e+01
8.374550e+01	-1.607696e+01
8.422921e+01	-1.612458e+01
8.471572e+01	-1.617302e+01
8.520503e+01	-1.622228e+01
8.569717e+01	-1.627082e+01
8.619215e+01	-1.631989e+01
8.669000e+01	-1.636828e+01
8.719071e+01	-1.641705e+01
8.769432e+01	-1.646615e+01
8.820084e+01	-1.651602e+01
8.871029e+01	-1.656345e+01
8.922267e+01	-1.661203e+01
8.973802e+01	-1.666214e+01
9.025634e+01	-1.671118e+01
9.077766e+01	-1.675920e+01
9.130199e+01	-1.680993e+01
9.182935e+01	-1.685778e+01
9.235975e+01	-1.690649e+01
9.289321e+01	-1.695509e+01
9.342976e+01	-1.700414e+01
9.396941e+01	-1.705372e+01
9.451217e+01	-1.710373e+01
9.505807e+01	-1.715143e+01
9.560712e+01	-1.720166e+01
9.615934e+01	-1.725030e+01
9.671476e+01	-1.730010e+01
9.727338e+01	-1.734824e+01
9.783522e+01	-1.739693e+01
9.840032e+01	-1.744775e+01
9.896867e+01	-1.749568e+01
9.954031e+01	-1.754480e+01
1.001153e+02	-1.759432e+01
1.006935e+02	-1.764409e+01
1.012751e+02	-1.769107e+01
1.018601e+02	-1.774133e+01
1.024484e+02	-1.779135e+01
1.030402e+02	-1.784050e+01
1.036353e+02	-1.788892e+01
1.042339e+02	-1.793849e+01
1.048360e+02	-1.798707e+01
1.054415e+02	-1.803789e+01
1.060505e+02	-1.808675e+01
1.066631e+02	-1.813517e+01
1.072791e+02	-1.818557e+01
1.078988e+02	-1.823416e+01
1.085220e+02	-1.828344e+01
1.091488e+02	-1.833235e+01
1.097793e+02	-1.838226e+01
1.104133e+02	-1.843140e+01
1.110511e+02	-1.848075e+01
1.116925e+02	-1.852972e+01
1.123376e+02	-1.858025e+01
1.129865e+02	-1.862943e+01
1.136391e+02	-1.867846e+01
1.142955e+02	-1.872624e+01
1.149556e+02	-1.877757e+01
1.156196e+02	-1.882548e+01
1.162874e+02	-1.887459e+01
1.169591e+02	-1.892526e+01
1.176347e+02	-1.897449e+01
1.183141e+02	-1.902398e+01
1.189975e+02	-1.907391e+01
1.196848e+02	-1.912256e+01
1.203761e+02	-1.917134e+01
1.210714e+02	-1.922199e+01
1.217707e+02	-1.927192e+01
1.224740e+02	-1.931939e+01
1.231814e+02	-1.936989e+01
1.238929e+02	-1.941976e+01
1.246085e+02	-1.946810e+01
1.253283e+02	-1.951836e+01
1.260522e+02	-1.956663e+01
1.267802e+02	-1.961586e+01
1.275125e+02	-1.966536e+01
1.282490e+02	-1.971641e+01
1.289898e+02	-1.976641e+01
1.297348e+02	-1.981412e+01
1.304842e+02	-1.986497e+01
1.312378e+02	-1.991231e+01
1.319959e+02	-1.996462e+01
1.327583e+02	-2.001356e+01
1.335251e+02	-2.006263e+01
1.342963e+02	-2.011349e+01
1.350720e+02	-2.016182e+01
1.358522e+02	-2.021035e+01
1.366368e+02	-2.026176e+01
1.374260e+02	-2.030961e+01
1.382198e+02	-2.035956e+01
1.390182e+02	-2.040892e+01
1.398211e+02	-2.045826e+01
1.406287e+02	-2.050929e+01
1.414410e+02	-2.055697e+01
1.422579e+02	-2.060763e+01
1.430796e+02	-2.065736e+01
1.439060e+02	-2.070708e+01
1.447372e+02	-2.075684e+01
1.455732e+02	-2.080644e+01
1.464141e+02	-2.085616e+01
1.472597e+02	-2.090687e+01
1.481103e+02	-2.095434e+01
1.489658e+02	-2.100436e+01
1.498262e+02	-2.105552e+01
1.506916e+02	-2.110470e+01
1.515620e+02	-2.115392e+01
1.524374e+02	-2.120362e+01
1.533179e+02	-2.125383e+01
1.542034e+02	-2.130182e+01
1.550941e+02	-2.135201e+01
1.559899e+02	-2.140005e+01
1.568909e+02	-2.144944e+01
1.577971e+02	-2.149931e+01
1.587085e+02	-2.155190e+01
1.596252e+02	-2.160200e+01
1.605472e+02	-2.165074e+01
1.614745e+02	-2.170125e+01
1.624072e+02	-2.175027e+01
1.633453e+02	-2.180032e+01
1.642887e+02	-2.184980e+01
1.652377e+02	-2.189946e+01
1.661921e+02	-2.194944e+01
1.671520e+02	-2.199744e+01
1.681175e+02	-2.204902e+01
1.690885e+02	-2.209814e+01
1.700651e+02	-2.214715e+01
1.710474e+02	-2.219821e+01
1.720354e+02	-2.224707e+01
1.730291e+02	-2.229768e+01
1.740285e+02	-2.234614e+01
1.750337e+02	-2.239693e+01
1.760446e+02	-2.244455e+01
1.770615e+02	-2.249580e+01
1.780842e+02	-2.254440e+01
1.791128e+02	-2.259493e+01
1.801473e+02	-2.264577e+01
1.811878e+02	-2.269622e+01
1.822344e+02	-2.274562e+01
1.832870e+02	-2.279496e+01
1.843456e+02	-2.284605e+01
1.854104e+02	-2.289486e+01
1.864813e+02	-2.294437e+01
1.875584e+02	-2.299434e+01
1.886418e+02	-2.304531e+01
1.897313e+02	-2.309276e+01
1.908272e+02	-2.314480e+01
1.919294e+02	-2.319181e+01
1.930380e+02	-2.324261e+01
1.941530e+02	-2.329250e+01
1.952744e+02	-2.334391e+01
1.964023e+02	-2.339301e+01
1.975367e+02	-2.344228e+01
1.986777e+02	-2.348901e+01
1.998252e+02	-2.354418e+01
2.009794e+02	-2.359158e+01
2.021403e+02	-2.364232e+01
2.033078e+02	-2.369132e+01
2.044821e+02	-2.374123e+01
2.056632e+02	-2.379240e+01
2.068511e+02	-2.384072e+01
2.080459e+02	-2.389144e+01
2.092475e+02	-2.394067e+01
2.104561e+02	-2.399159e+01
2.116717e+02	-2.404302e+01
2.128943e+02	-2.409072e+01
2.141240e+02	-2.413974e+01
2.153608e+02	-2.418987e+01
2.166047e+02	-2.424083e+01
2.178558e+02	-2.429002e+01
2.191141e+02	-2.434216e+01
2.203797e+02	-2.439095e+01
2.216526e+02	-2.444048e+01
2.229329e+02	-2.448763e+01
2.242205e+02	-2.453804e+01
2.255156e+02	-2.459103e+01
2.268182e+02	-2.463909e+01
2.281283e+02	-2.468571e+01
2.294459e+02	-2.474003e+01
2.307712e+02	-2.478972e+01
2.321041e+02	-2.483896e+01
2.334447e+02	-2.488804e+01
2.347931e+02	-2.493969e+01
2.361493e+02	-2.498845e+01
2.375133e+02	-2.504039e+01
2.388851e+02	-2.508788e+01
2.402649e+02	-2.513858e+01
2.416527e+02	-2.518969e+01
2.430484e+02	-2.523828e+01
2.444523e+02	-2.528851e+01
2.458642e+02	-2.533778e+01
2.472843e+02	-2.538885e+01
2.487126e+02	-2.543633e+01
2.501492e+02	-2.548789e+01
2.515940e+02	-2.553839e+01
2.530472e+02	-2.558876e+01
2.545088e+02	-2.563586e+01
2.559789e+02	-2.568911e+01
2.574574e+02	-2.573917e+01
2.589444e+02	-2.578660e+01
2.604401e+02	-2.584015e+01
2.619444e+02	-2.588693e+01
2.634574e+02	-2.593940e+01
2.649791e+02	-2.598865e+01
2.665096e+02	-2.603585e+01
2.680489e+02	-2.608818e+01
2.695972e+02	-2.613807e+01
2.711544e+02	-2.618637e+01
2.727205e+02	-2.623937e+01
2.742958e+02	-2.628518e+01
2.758801e+02	-2.633501e+01
2.774736e+02	-2.638611e+01
2.790762e+02	-2.643969e+01
2.806882e+02	-2.648377e+01
2.823094e+02	-2.653719e+01
2.839400e+02	-2.658772e+01
2.855800e+02	-2.663478e+01
2.872295e+02	-2.668711e+01
2.888886e+02	-2.673584e+01
2.905572e+02	-2.678812e+01
2.922354e+02	-2.683871e+01
2.939234e+02	-2.688945e+01
2.956211e+02	-2.693651e+01
2.973286e+02	-2.698534e+01
2.990459e+02	-2.703717e+01
3.007732e+02	-2.708929e+01
3.025104e+02	-2.713494e+01
3.042577e+02	-2.718778e+01
3.060151e+02	-2.723674e+01
3.077826e+02	-2.728729e+01
3.095604e+02	-2.733402e+01
3.113484e+02	-2.738427e+01
3.131467e+02	-2.744122e+01
3.149554e+02	-2.748690e+01
3.167746e+02	-2.753593e+01
3.186043e+02	-2.758764e+01
3.204445e+02	-2.763637e+01
3.222954e+02	-2.768468e+01
3.241570e+02	-2.773681e+01
3.260293e+02	-2.778179e+01
3.279124e+02	-2.783592e+01
3.298064e+02	-2.788661e+01
3.317114e+02	-2.793657e+01
3.336273e+02	-2.798968e+01
3.355544e+02	-2.803562e+01
3.374925e+02	-2.808834e+01
3.394418e+02	-2.813722e+01
3.414024e+02	-2.818755e+01
3.433744e+02	-2.823638e+01
3.453577e+02	-2.828624e+01
3.473525e+02	-2.833490e+01
3.493588e+02	-2.838451e+01
3.513766e+02	-2.844000e+01
3.534062e+02	-2.849077e+01
3.554474e+02	-2.853670e+01
3.575005e+02	-2.858689e+01
3.595654e+02	-2.863646e+01
3.616422e+02	-2.869174e+01
3.637311e+02	-2.873705e+01
3.658320e+02	-2.878646e+01
3.679450e+02	-2.883859e+01
3.700702e+02	-2.888540e+01
3.722077e+02	-2.893746e+01
3.743576e+02	-2.898646e+01
3.765199e+02	-2.903608e+01
3.786946e+02	-2.909205e+01
3.808820e+02	-2.914207e+01
3.830819e+02	-2.918674e+01
3.852946e+02	-2.923909e+01
3.875200e+02	-2.928857e+01
3.897583e+02	-2.933515e+01
3.920096e+02	-2.938674e+01
3.942738e+02	-2.943773e+01
3.965511e+02	-2.948868e+01
3.988416e+02	-2.953635e+01
4.011452e+02	-2.958721e+01
4.034622e+02	-2.964128e+01
4.057926e+02	-2.969015e+01
4.081365e+02	-2.973901e+01
4.104938e+02	-2.979197e+01
4.128648e+02	-2.984137e+01
4.152495e+02	-2.989340e+01
4.176480e+02	-2.994197e+01
4.200603e+02	-2.999217e+01
4.224866e+02	-3.003814e+01
4.249268e+02	-3.009059e+01
4.273812e+02	-3.014104e+01
4.298497e+02	-3.018938e+01
4.323325e+02	-3.023371e+01
4.348297e+02	-3.029632e+01
4.373412e+02	-3.034137e+01
4.398673e+02	-3.039068e+01
4.424079e+02	-3.043567e+01
4.449633e+02	-3.049456e+01
4.475334e+02	-3.053812e+01
4.501183e+02	-3.059177e+01
4.527182e+02	-3.064014e+01
4.553330e+02	-3.068995e+01
4.579630e+02	-3.074460e+01
4.606082e+02	-3.079156e+01
4.632687e+02	-3.083984e+01
4.659445e+02	-3.089400e+01
4.686358e+02	-3.094740e+01
4.713426e+02	-3.099181e+01
4.740650e+02	-3.104272e+01
4.768032e+02	-3.109241e+01
4.795572e+02	-3.114070e+01
4.823271e+02	-3.119653e+01
4.851130e+02	-3.124523e+01
4.879150e+02	-3.129390e+01
4.907332e+02	-3.134282e+01
4.935676e+02	-3.139156e+01
4.964185e+02	-3.144557e+01
4.992858e+02	-3.149755e+01
5.021696e+02	-3.154468e+01
5.050701e+02	-3.159180e+01
5.079874e+02	-3.164427e+01
5.109215e+02	-3.169521e+01
5.138726e+02	-3.173941e+01
5.168407e+02	-3.179514e+01
5.198259e+02	-3.184645e+01
5.228284e+02	-3.189525e+01
5.258482e+02	-3.194424e+01
5.288855e+02	-3.199935e+01
5.319403e+02	-3.204178e+01
5.350128e+02	-3.209735e+01
5.381030e+02	-3.214700e+01
5.412111e+02	-3.219374e+01
5.443371e+02	-3.224377e+01
5.474812e+02	-3.229455e+01
5.506434e+02	-3.234732e+01
5.538239e+02	-3.240592e+01
5.570228e+02	-3.244924e+01
5.602401e+02	-3.249890e+01
5.634760e+02	-3.254826e+01
5.667306e+02	-3.260158e+01
5.700040e+02	-3.265226e+01
5.732964e+02	-3.270148e+01
5.766077e+02	-3.275559e+01
5.799382e+02	-3.280481e+01
5.832879e+02	-3.284684e+01
5.866569e+02	-3.289142e+01
5.900454e+02	-3.295361e+01
5.934535e+02	-3.300465e+01
5.968813e+02	-3.304984e+01
6.003288e+02	-3.310276e+01
6.037963e+02	-3.315316e+01
6.072838e+02	-3.320117e+01
6.107914e+02	-3.325587e+01
6.143194e+02	-3.330196e+01
6.178676e+02	-3.336079e+01
6.214364e+02	-3.340434e+01
6.250258e+02	-3.345159e+01
6.286359e+02	-3.350042e+01
6.322669e+02	-3.355204e+01
6.359189e+02	-3.360122e+01
6.395919e+02	-3.365680e+01
6.432862e+02	-3.369921e+01
6.470017e+02	-3.376001e+01
6.507388e+02	-3.380763e+01
6.544974e+02	-3.386424e+01
6.582778e+02	-3.390688e+01
6.620800e+02	-3.395600e+01
6.659041e+02	-3.400972e+01
6.697504e+02	-3.405052e+01
6.736188e+02	-3.410957e+01
6.775096e+02	-3.415516e+01
6.814229e+02	-3.419907e+01
6.853587e+02	-3.425847e+01
6.893173e+02	-3.430819e+01
6.932988e+02	-3.436161e+01
6.973033e+02	-3.440365e+01
7.013309e+02	-3.445442e+01
