Frequency(Hz)	Magnitude(dB)
1.000000e+01	-1.962244e+00
1.005776e+01	-1.980368e+00
1.011585e+01	-1.998839e+00
1.017428e+01	-2.017362e+00
1.023305e+01	-2.036116e+00
1.029215e+01	-2.054782e+00
1.035160e+01	-2.073606e+00
1.041139e+01	-2.092661e+00
1.047153e+01	-2.111948e+00
1.053201e+01	-2.131337e+00
1.059284e+01	-2.150591e+00
1.065403e+01	-2.170391e+00
1.071556e+01	-2.190083e+00
1.077746e+01	-2.210019e+00
1.083971e+01	-2.229962e+00
1.090232e+01	-2.250199e+00
1.096529e+01	-2.270410e+00
1.102862e+01	-2.291104e+00
1.109232e+01	-2.311504e+00
1.115639e+01	-2.332385e+00
1.122083e+01	-2.352837e+00
1.128564e+01	-2.374176e+00
1.135083e+01	-2.395245e+00
1.141639e+01	-2.416417e+00
1.148233e+01	-2.437711e+00
1.154865e+01	-2.459419e+00
1.161536e+01	-2.481177e+00
1.168245e+01	-2.502901e+00
1.174992e+01	-2.524978e+00
1.181779e+01	-2.547164e+00
1.188605e+01	-2.569362e+00
1.195470e+01	-2.591682e+00
1.202375e+01	-2.614397e+00
1.209320e+01	-2.636951e+00
1.216305e+01	-2.660115e+00
1.223330e+01	-2.682575e+00
1.230396e+01	-2.706120e+00
1.237503e+01	-2.729232e+00
1.244651e+01	-2.752707e+00
1.251840e+01	-2.776302e+00
1.259070e+01	-2.799911e+00
1.266343e+01	-2.823863e+00
1.273657e+01	-2.847682e+00
1.281014e+01	-2.871826e+00
1.288413e+01	-2.896201e+00
1.295855e+01	-2.920748e+00
1.303339e+01	-2.944943e+00
1.310867e+01	-2.969864e+00
1.318439e+01	-2.994705e+00
1.326054e+01	-3.019755e+00
1.333713e+01	-3.044839e+00
1.341417e+01	-3.069901e+00
1.349165e+01	-3.095589e+00
1.356958e+01	-3.121062e+00
1.364795e+01	-3.146659e+00
1.372678e+01	-3.172742e+00
1.380607e+01	-3.198686e+00
1.388581e+01	-3.224863e+00
1.396602e+01	-3.251175e+00
1.404668e+01	-3.277936e+00
1.412782e+01	-3.304105e+00
1.420942e+01	-3.330870e+00
1.429149e+01	-3.357841e+00
1.437404e+01	-3.384872e+00
1.445706e+01	-3.411786e+00
1.454057e+01	-3.439178e+00
1.462455e+01	-3.466755e+00
1.470902e+01	-3.494362e+00
1.479398e+01	-3.521983e+00
1.487943e+01	-3.549583e+00
1.496537e+01	-3.577701e+00
1.505181e+01	-3.605756e+00
1.513875e+01	-3.634457e+00
1.522619e+01	-3.662765e+00
1.531414e+01	-3.691097e+00
1.540259e+01	-3.720031e+00
1.549156e+01	-3.748708e+00
1.558103e+01	-3.777543e+00
1.567103e+01	-3.806881e+00
1.576155e+01	-3.836278e+00
1.585258e+01	-3.865626e+00
1.594415e+01	-3.895092e+00
1.603624e+01	-3.924816e+00
1.612886e+01	-3.954782e+00
1.622202e+01	-3.984447e+00
1.631572e+01	-4.014442e+00
1.640996e+01	-4.045028e+00
1.650474e+01	-4.075406e+00
1.660008e+01	-4.105862e+00
1.669596e+01	-4.136519e+00
1.679239e+01	-4.167242e+00
1.688938e+01	-4.198378e+00
1.698694e+01	-4.229192e+00
1.708505e+01	-4.260747e+00
1.718373e+01	-4.291712e+00
1.728299e+01	-4.323356e+00
1.738281e+01	-4.354777e+00
1.748322e+01	-4.386569e+00
1.758420e+01	-4.418478e+00
1.768576e+01	-4.450374e+00
1.778792e+01	-4.482588e+00
1.789066e+01	-4.515093e+00
1.799399e+01	-4.547389e+00
1.809793e+01	-4.580113e+00
1.820246e+01	-4.612712e+00
1.830760e+01	-4.645476e+00
1.841334e+01	-4.678321e+00
1.851969e+01	-4.711407e+00
1.862666e+01	-4.744699e+00
1.873425e+01	-4.777917e+00
1.884246e+01	-4.811637e+00
1.895129e+01	-4.844951e+00
1.906075e+01	-4.878783e+00
1.917085e+01	-4.912135e+00
1.928158e+01	-4.946357e+00
1.939295e+01	-4.980395e+00
1.950496e+01	-5.014604e+00
1.961762e+01	-5.048958e+00
1.973093e+01	-5.083451e+00
1.984490e+01	-5.117786e+00
1.995952e+01	-5.152520e+00
2.007480e+01	-5.187247e+00
2.019076e+01	-5.222574e+00
2.030738e+01	-5.257485e+00
2.042467e+01	-5.292353e+00
2.054264e+01	-5.328211e+00
2.066130e+01	-5.363351e+00
2.078064e+01	-5.398570e+00
2.090066e+01	-5.434574e+00
2.102139e+01	-5.470300e+00
2.114280e+01	-5.506235e+00
2.126492e+01	-5.542177e+00
2.138775e+01	-5.578136e+00
2.151128e+01	-5.614746e+00
2.163553e+01	-5.651112e+00
2.176050e+01	-5.687269e+00
2.188619e+01	-5.724003e+00
2.201260e+01	-5.760948e+00
2.213974e+01	-5.797489e+00
2.226762e+01	-5.834469e+00
2.239624e+01	-5.871379e+00
2.252560e+01	-5.908453e+00
2.265571e+01	-5.945753e+00
2.278656e+01	-5.983183e+00
2.291818e+01	-6.020452e+00
2.305055e+01	-6.058236e+00
2.318369e+01	-6.095787e+00
2.331760e+01	-6.133844e+00
2.345228e+01	-6.171405e+00
2.358774e+01	-6.209652e+00
2.372398e+01	-6.247777e+00
2.386101e+01	-6.285725e+00
2.399883e+01	-6.324020e+00
2.413745e+01	-6.362521e+00
2.427686e+01	-6.400923e+00
2.441709e+01	-6.439374e+00
2.455812e+01	-6.478320e+00
2.469997e+01	-6.517157e+00
2.484263e+01	-6.556086e+00
2.498612e+01	-6.595347e+00
2.513044e+01	-6.634226e+00
2.527559e+01	-6.673048e+00
2.542158e+01	-6.712661e+00
2.556842e+01	-6.752078e+00
2.571610e+01	-6.791876e+00
2.586463e+01	-6.831345e+00
2.601403e+01	-6.871010e+00
2.616428e+01	-6.910503e+00
2.631541e+01	-6.950923e+00
2.646740e+01	-6.990784e+00
2.662028e+01	-7.030827e+00
2.677404e+01	-7.071049e+00
2.692868e+01	-7.111068e+00
2.708422e+01	-7.151340e+00
2.724066e+01	-7.191835e+00
2.739800e+01	-7.232282e+00
2.755625e+01	-7.272882e+00
2.771541e+01	-7.313716e+00
2.787550e+01	-7.354441e+00
2.803650e+01	-7.395674e+00
2.819844e+01	-7.436083e+00
2.836131e+01	-7.476894e+00
2.852513e+01	-7.518653e+00
2.868989e+01	-7.559454e+00
2.885560e+01	-7.600951e+00
2.902227e+01	-7.642310e+00
2.918990e+01	-7.683980e+00
2.935850e+01	-7.725469e+00
2.952807e+01	-7.767013e+00
2.969863e+01	-7.808630e+00
2.987016e+01	-7.850390e+00
3.004269e+01	-7.892004e+00
3.021622e+01	-7.934379e+00
3.039075e+01	-7.976477e+00
3.056628e+01	-8.018107e+00
3.074283e+01	-8.060549e+00
3.092040e+01	-8.102823e+00
3.109900e+01	-8.145281e+00
3.127862e+01	-8.187225e+00
3.145929e+01	-8.229851e+00
3.164099e+01	-8.271879e+00
3.182375e+01	-8.315871e+00
3.200756e+01	-8.357923e+00
3.219244e+01	-8.400708e+00
3.237838e+01	-8.443369e+00
3.256540e+01	-8.485962e+00
3.275349e+01	-8.529574e+00
3.294268e+01	-8.572111e+00
3.313295e+01	-8.615130e+00
3.332433e+01	-8.658298e+00
3.351681e+01	-8.701747e+00
3.371040e+01	-8.745167e+00
3.390511e+01	-8.788379e+00
3.410094e+01	-8.832070e+00
3.429791e+01	-8.875498e+00
3.449601e+01	-8.918771e+00
3.469526e+01	-8.962683e+00
3.489566e+01	-9.006342e+00
3.509721e+01	-9.050251e+00
3.529993e+01	-9.093558e+00
3.550382e+01	-9.138195e+00
3.570889e+01	-9.181632e+00
3.591515e+01	-9.225827e+00
3.612259e+01	-9.270305e+00
3.633123e+01	-9.313724e+00
3.654108e+01	-9.357994e+00
3.675214e+01	-9.402728e+00
3.696442e+01	-9.446668e+00
3.717792e+01	-9.491155e+00
3.739266e+01	-9.535951e+00
3.760864e+01	-9.580173e+00
3.782587e+01	-9.624555e+00
3.804435e+01	-9.669313e+00
3.826409e+01	-9.714031e+00
3.848510e+01	-9.758763e+00
3.870739e+01	-9.802691e+00
3.893096e+01	-9.848271e+00
3.915583e+01	-9.893322e+00
3.938199e+01	-9.938108e+00
3.960946e+01	-9.983013e+00
3.983824e+01	-1.002802e+01
4.006834e+01	-1.007306e+01
4.029978e+01	-1.011808e+01
4.053255e+01	-1.016344e+01
4.076666e+01	-1.020879e+01
4.100213e+01	-1.025426e+01
4.123896e+01	-1.029946e+01
4.147715e+01	-1.034451e+01
4.171672e+01	-1.039037e+01
4.195767e+01	-1.043586e+01
4.220002e+01	-1.048101e+01
4.244377e+01	-1.052676e+01
4.268892e+01	-1.057250e+01
4.293549e+01	-1.061869e+01
4.318348e+01	-1.066349e+01
4.343291e+01	-1.070965e+01
4.368377e+01	-1.075517e+01
4.393609e+01	-1.080107e+01
4.418986e+01	-1.084677e+01
4.444510e+01	-1.089246e+01
4.470182e+01	-1.093861e+01
4.496001e+01	-1.098504e+01
4.521970e+01	-1.103075e+01
4.548089e+01	-1.107701e+01
4.574358e+01	-1.112384e+01
4.600779e+01	-1.116950e+01
4.627353e+01	-1.121539e+01
4.654081e+01	-1.126192e+01
4.680963e+01	-1.130807e+01
4.708000e+01	-1.135468e+01
4.735193e+01	-1.140061e+01
4.762543e+01	-1.144781e+01
4.790051e+01	-1.149390e+01
4.817719e+01	-1.154059e+01
4.845545e+01	-1.158624e+01
4.873533e+01	-1.163317e+01
4.901682e+01	-1.167979e+01
4.929994e+01	-1.172699e+01
4.958470e+01	-1.177383e+01
4.987110e+01	-1.181971e+01
5.015915e+01	-1.186673e+01
5.044887e+01	-1.191333e+01
5.074026e+01	-1.196052e+01
5.103333e+01	-1.200731e+01
5.132810e+01	-1.205458e+01
5.162457e+01	-1.210103e+01
5.192275e+01	-1.214810e+01
5.222265e+01	-1.219525e+01
5.252429e+01	-1.224197e+01
5.282767e+01	-1.228960e+01
5.313280e+01	-1.233644e+01
5.343969e+01	-1.238350e+01
5.374836e+01	-1.243005e+01
5.405880e+01	-1.247783e+01
5.437105e+01	-1.252522e+01
5.468509e+01	-1.257198e+01
5.500095e+01	-1.261940e+01
5.531863e+01	-1.266678e+01
5.563815e+01	-1.271431e+01
5.595951e+01	-1.276148e+01
5.628273e+01	-1.280819e+01
5.660782e+01	-1.285626e+01
5.693479e+01	-1.290404e+01
5.726364e+01	-1.295163e+01
5.759439e+01	-1.299879e+01
5.792705e+01	-1.304630e+01
5.826164e+01	-1.309431e+01
5.859815e+01	-1.314152e+01
5.893662e+01	-1.318867e+01
5.927703e+01	-1.323633e+01
5.961941e+01	-1.328426e+01
5.996377e+01	-1.333197e+01
6.031012e+01	-1.338031e+01
6.065847e+01	-1.342775e+01
6.100883e+01	-1.347477e+01
6.136121e+01	-1.352372e+01
6.171563e+01	-1.357040e+01
6.207210e+01	-1.361886e+01
6.243063e+01	-1.366656e+01
6.279122e+01	-1.371514e+01
6.315390e+01	-1.376263e+01
6.351868e+01	-1.381014e+01
6.388556e+01	-1.385800e+01
6.425456e+01	-1.390615e+01
6.462569e+01	-1.395410e+01
6.499897e+01	-1.400217e+01
6.537440e+01	-1.405039e+01
6.575200e+01	-1.409850e+01
6.613178e+01	-1.414666e+01
6.651375e+01	-1.419397e+01
6.689793e+01	-1.424220e+01
6.728433e+01	-1.429068e+01
6.767297e+01	-1.433969e+01
6.806384e+01	-1.438744e+01
6.845698e+01	-1.443547e+01
6.885238e+01	-1.448238e+01
6.925007e+01	-1.453186e+01
6.965005e+01	-1.458047e+01
7.005235e+01	-1.462806e+01
7.045697e+01	-1.467694e+01
7.086393e+01	-1.472576e+01
7.127323e+01	-1.477376e+01
7.168490e+01	-1.482092e+01
7.209895e+01	-1.486899e+01
7.251539e+01	-1.491788e+01
7.293424e+01	-1.496721e+01
7.335551e+01	-1.501531e+01
7.377920e+01	-1.506385e+01
7.420535e+01	-1.511245e+01
7.463396e+01	-1.516021e+01
7.506504e+01	-1.521002e+01
7.549861e+01	-1.525839e+01
7.593469e+01	-1.530643e+01
7.637328e+01	-1.535457e+01
7.681441e+01	-1.540300e+01
7.725809e+01	-1.545202e+01
7.770433e+01	-1.550080e+01
7.815315e+01	-1.554941e+01
7.860456e+01	-1.559853e+01
7.905857e+01	-1.564702e+01
7.951521e+01	-1.569664e+01
7.997449e+01	-1.574378e+01
8.043642e+01	-1.579342e+01
8.090102e+01	-1.584194e+01
8.136830e+01	-1.589080e+01
8.183828e+01	-1.593900e+01
8.231097e+01	-1.598846e+01
8.278640e+01	-1.603643e+01
8.326457e+01	-1.608571e+01
8.374550e+01	-1.613405e+01
8.422921e+01	-1.618282e+01
8.471572e+01	-1.623187e+01
8.520503e+01	-1.628116e+01
8.569717e+01	-1.633038e+01
8.619215e+01	-1.637877e+01
8.669000e+01	-1.642686e+01
8.719071e+01	-1.647617e+01
8.769432e+01	-1.652402e+01
8.820084e+01	-1.657429e+01
8.871029e+01	-1.662308e+01
8.922267e+01	-1.667184e+01
8.973802e+01	-1.672134e+01
9.025634e+01	-1.677050e+01
9.077766e+01	-1.681895e+01
9.130199e+01	-1.686781e+01
9.182935e+01	-1.691751e+01
9.235975e+01	-1.696570e+01
9.289321e+01	-1.701476e+01
9.342976e+01	-1.706483e+01
9.396941e+01	-1.711304e+01
9.451217e+01	-1.716298e+01
9.505807e+01	-1.721021e+01
9.560712e+01	-1.726109e+01
9.615934e+01	-1.730888e+01
9.671476e+01	-1.735907e+01
9.727338e+01	-1.740807e+01
9.783522e+01	-1.745684e+01
9.840032e+01	-1.750710e+01
9.896867e+01	-1.755566e+01
9.954031e+01	-1.760426e+01
1.001153e+02	-1.765363e+01
1.006935e+02	-1.770203e+01
1.012751e+02	-1.775248e+01
1.018601e+02	-1.780097e+01
1.024484e+02	-1.785031e+01
1.030402e+02	-1.790037e+01
1.036353e+02	-1.794908e+01
1.042339e+02	-1.799815e+01
1.048360e+02	-1.804689e+01
1.054415e+02	-1.809647e+01
1.060505e+02	-1.814603e+01
1.066631e+02	-1.819385e+01
1.072791e+02	-1.824470e+01
1.078988e+02	-1.829269e+01
1.085220e+02	-1.834270e+01
1.091488e+02	-1.839192e+01
1.097793e+02	-1.844108e+01
1.104133e+02	-1.849161e+01
1.110511e+02	-1.854010e+01
1.116925e+02	-1.858895e+01
1.123376e+02	-1.863898e+01
1.129865e+02	-1.868860e+01
1.136391e+02	-1.873809e+01
1.142955e+02	-1.878622e+01
1.149556e+02	-1.883670e+01
1.156196e+02	-1.888573e+01
1.162874e+02	-1.893555e+01
1.169591e+02	-1.898496e+01
1.176347e+02	-1.903244e+01
1.183141e+02	-1.908349e+01
1.189975e+02	-1.913274e+01
1.196848e+02	-1.918115e+01
1.203761e+02	-1.923215e+01
1.210714e+02	-1.928118e+01
1.217707e+02	-1.932997e+01
1.224740e+02	-1.937892e+01
1.231814e+02	-1.942981e+01
1.238929e+02	-1.947822e+01
1.246085e+02	-1.952798e+01
1.253283e+02	-1.957605e+01
1.260522e+02	-1.962643e+01
1.267802e+02	-1.967623e+01
1.275125e+02	-1.972647e+01
1.282490e+02	-1.977478e+01
1.289898e+02	-1.982541e+01
1.297348e+02	-1.987592e+01
1.304842e+02	-1.992296e+01
1.312378e+02	-1.997329e+01
1.319959e+02	-2.002290e+01
1.327583e+02	-2.007304e+01
1.335251e+02	-2.012223e+01
1.342963e+02	-2.017122e+01
1.350720e+02	-2.022138e+01
1.358522e+02	-2.027013e+01
1.366368e+02	-2.032071e+01
1.374260e+02	-2.037006e+01
1.382198e+02	-2.041869e+01
1.390182e+02	-2.046780e+01
1.398211e+02	-2.051881e+01
1.406287e+02	-2.056806e+01
1.414410e+02	-2.061817e+01
1.422579e+02	-2.066762e+01
1.430796e+02	-2.071775e+01
1.439060e+02	-2.076854e+01
1.447372e+02	-2.081578e+01
1.455732e+02	-2.086568e+01
1.464141e+02	-2.091415e+01
1.472597e+02	-2.096398e+01
1.481103e+02	-2.101570e+01
1.489658e+02	-2.106454e+01
1.498262e+02	-2.111486e+01
1.506916e+02	-2.116401e+01
1.515620e+02	-2.121293e+01
1.524374e+02	-2.126273e+01
1.533179e+02	-2.131274e+01
1.542034e+02	-2.136226e+01
1.550941e+02	-2.141275e+01
1.559899e+02	-2.146285e+01
1.568909e+02	-2.151257e+01
1.577971e+02	-2.156212e+01
1.587085e+02	-2.161186e+01
1.596252e+02	-2.166166e+01
1.605472e+02	-2.170995e+01
1.614745e+02	-2.176132e+01
1.624072e+02	-2.180822e+01
1.633453e+02	-2.185825e+01
1.642887e+02	-2.190892e+01
1.652377e+02	-2.195733e+01
1.661921e+02	-2.200928e+01
1.671520e+02	-2.205986e+01
1.681175e+02	-2.210741e+01
1.690885e+02	-2.215899e+01
1.700651e+02	-2.220573e+01
1.710474e+02	-2.225790e+01
1.720354e+02	-2.230624e+01
1.730291e+02	-2.235672e+01
1.740285e+02	-2.240702e+01
1.750337e+02	-2.245760e+01
1.760446e+02	-2.250516e+01
1.770615e+02	-2.255789e+01
1.780842e+02	-2.260609e+01
1.791128e+02	-2.265713e+01
1.801473e+02	-2.270610e+01
1.811878e+02	-2.275481e+01
1.822344e+02	-2.280603e+01
1.832870e+02	-2.285273e+01
1.843456e+02	-2.290541e+01
1.854104e+02	-2.295454e+01
1.864813e+02	-2.300295e+01
1.875584e+02	-2.305448e+01
1.886418e+02	-2.310591e+01
1.897313e+02	-2.315563e+01
1.908272e+02	-2.320376e+01
1.919294e+02	-2.325271e+01
1.930380e+02	-2.330137e+01
1.941530e+02	-2.335366e+01
1.952744e+02	-2.340409e+01
1.964023e+02	-2.345275e+01
1.975367e+02	-2.350161e+01
1.986777e+02	-2.355277e+01
1.998252e+02	-2.360203e+01
2.009794e+02	-2.365046e+01
2.021403e+02	-2.370256e+01
2.033078e+02	-2.375092e+01
2.044821e+02	-2.380380e+01
2.056632e+02	-2.385452e+01
2.068511e+02	-2.389970e+01
2.080459e+02	-2.395138e+01
2.092475e+02	-2.400243e+01
2.104561e+02	-2.405002e+01
2.116717e+02	-2.410341e+01
2.128943e+02	-2.414940e+01
2.141240e+02	-2.419918e+01
2.153608e+02	-2.424799e+01
2.166047e+02	-2.430131e+01
2.178558e+02	-2.435112e+01
2.191141e+02	-2.440105e+01
2.203797e+02	-2.444994e+01
2.216526e+02	-2.449888e+01
2.229329e+02	-2.455045e+01
2.242205e+02	-2.459741e+01
2.255156e+02	-2.464897e+01
2.268182e+02	-2.469827e+01
2.281283e+02	-2.474836e+01
2.294459e+02	-2.479929e+01
2.307712e+02	-2.484932e+01
2.321041e+02	-2.489705e+01
2.334447e+02	-2.494895e+01
2.347931e+02	-2.500019e+01
2.361493e+02	-2.504939e+01
2.375133e+02	-2.509925e+01
2.388851e+02	-2.514931e+01
2.402649e+02	-2.519796e+01
2.416527e+02	-2.524227e+01
2.430484e+02	-2.529955e+01
2.444523e+02	-2.534971e+01
2.458642e+02	-2.539767e+01
2.472843e+02	-2.544357e+01
2.487126e+02	-2.549878e+01
2.501492e+02	-2.554658e+01
2.515940e+02	-2.559674e+01
2.530472e+02	-2.564790e+01
2.545088e+02	-2.569643e+01
2.559789e+02	-2.574759e+01
2.574574e+02	-2.579752e+01
2.589444e+02	-2.584841e+01
2.604401e+02	-2.589806e+01
2.619444e+02	-2.594609e+01
2.634574e+02	-2.599790e+01
2.649791e+02	-2.604824e+01
2.665096e+02	-2.609970e+01
2.680489e+02	-2.614399e+01
2.695972e+02	-2.619645e+01
2.711544e+02	-2.624740e+01
2.727205e+02	-2.629627e+01
2.742958e+02	-2.634522e+01
2.758801e+02	-2.639762e+01
2.774736e+02	-2.644664e+01
2.790762e+02	-2.649831e+01
2.806882e+02	-2.654502e+01
2.823094e+02	-2.659714e+01
2.839400e+02	-2.664538e+01
2.855800e+02	-2.669787e+01
2.872295e+02	-2.674755e+01
2.888886e+02	-2.679306e+01
2.905572e+02	-2.684538e+01
2.922354e+02	-2.690050e+01
2.939234e+02	-2.695033e+01
2.956211e+02	-2.699825e+01
2.973286e+02	-2.704612e+01
2.990459e+02	-2.709356e+01
3.007732e+02	-2.714906e+01
3.025104e+02	-2.719881e+01
3.042577e+02	-2.724624e+01
3.060151e+02	-2.729459e+01
3.077826e+02	-2.734863e+01
3.095604e+02	-2.739470e+01
3.113484e+02	-2.744934e+01
3.131467e+02	-2.749412e+01
3.149554e+02	-2.754883e+01
3.167746e+02	-2.759427e+01
3.186043e+02	-2.764779e+01
3.204445e+02	-2.769505e+01
3.222954e+02	-2.774565e+01
3.241570e+02	-2.779449e+01
3.260293e+02	-2.784803e+01
3.279124e+02	-2.790090e+01
3.298064e+02	-2.794929e+01
3.317114e+02	-2.799544e+01
3.336273e+02	-2.804787e+01
3.355544e+02	-2.809639e+01
3.374925e+02	-2.814912e+01
3.394418e+02	-2.819558e+01
3.414024e+02	-2.824594e+01
3.433744e+02	-2.829608e+01
3.453577e+02	-2.834521e+01
3.473525e+02	-2.839754e+01
3.493588e+02	-2.844767e+01
3.513766e+02	-2.849629e+01
3.534062e+02	-2.854641e+01
3.554474e+02	-2.859631e+01
3.575005e+02	-2.864591e+01
3.595654e+02	-2.870459e+01
3.616422e+02	-2.875180e+01
3.637311e+02	-2.879519e+01
3.658320e+02	-2.885223e+01
3.679450e+02	-2.889530e+01
3.700702e+02	-2.894987e+01
3.722077e+02	-2.899224e+01
3.743576e+02	-2.904567e+01
3.765199e+02	-2.909646e+01
3.786946e+02	-2.914831e+01
3.808820e+02	-2.919920e+01
3.830819e+02	-2.924755e+01
3.852946e+02	-2.930246e+01
3.875200e+02	-2.935224e+01
3.897583e+02	-2.939656e+01
3.920096e+02	-2.944739e+01
3.942738e+02	-2.950136e+01
3.965511e+02	-2.955067e+01
3.988416e+02	-2.959895e+01
4.011452e+02	-2.965059e+01
4.034622e+02	-2.970668e+01
4.057926e+02	-2.975165e+01
4.081365e+02	-2.979931e+01
4.104938e+02	-2.984699e+01
4.128648e+02	-2.990293e+01
4.152495e+02	-2.995242e+01
4.176480e+02	-3.000062e+01
4.200603e+02	-3.005276e+01
4.224866e+02	-3.010217e+01
4.249268e+02	-3.014630e+01
4.273812e+02	-3.020424e+01
4.298497e+02	-3.025256e+01
4.323325e+02	-3.030033e+01
4.348297e+02	-3.034534e+01
4.373412e+02	-3.039955e+01
4.398673e+02	-3.044372e+01
4.424079e+02	-3.050220e+01
4.449633e+02	-3.054890e+01
4.475334e+02	-3.060284e+01
4.501183e+02	-3.065475e+01
4.527182e+02	-3.070339e+01
4.553330e+02	-3.075294e+01
4.579630e+02	-3.079818e+01
4.606082e+02	-3.084973e+01
4.632687e+02	-3.090372e+01
4.659445e+02	-3.095676e+01
4.686358e+02	-3.100314e+01
4.713426e+02	-3.105480e+01
4.740650e+02	-3.110105e+01
4.768032e+02	-3.114994e+01
4.795572e+02	-3.120156e+01
4.823271e+02	-3.124941e+01
4.851130e+02	-3.129977e+01
4.879150e+02	-3.135706e+01
4.907332e+02	-3.140492e+01
4.935676e+02	-3.145200e+01
4.964185e+02	-3.150193e+01
4.992858e+02	-3.155092e+01
5.021696e+02	-3.159937e+01
5.050701e+02	-3.165255e+01
5.079874e+02	-3.170593e+01
5.109215e+02	-3.175791e+01
5.138726e+02	-3.179764e+01
5.168407e+02	-3.185465e+01
5.198259e+02	-3.190630e+01
5.228284e+02	-3.195318e+01
5.258482e+02	-3.200596e+01
5.288855e+02	-3.206137e+01
5.319403e+02	-3.210617e+01
5.350128e+02	-3.216106e+01
5.381030e+02	-3.220639e+01
5.412111e+02	-3.225724e+01
5.443371e+02	-3.231236e+01
5.474812e+02	-3.235927e+01
5.506434e+02	-3.240907e+01
5.538239e+02	-3.245902e+01
5.570228e+02	-3.250798e+01
5.602401e+02	-3.255035e+01
5.634760e+02	-3.260779e+01
5.667306e+02	-3.265992e+01
5.700040e+02	-3.270659e+01
5.732964e+02	-3.276177e+01
5.766077e+02	-3.279938e+01
5.799382e+02	-3.286352e+01
5.832879e+02	-3.291642e+01
5.866569e+02	-3.296552e+01
5.900454e+02	-3.301298e+01
5.934535e+02	-3.306185e+01
5.968813e+02	-3.311144e+01
6.003288e+02	-3.316135e+01
6.037963e+02	-3.321888e+01
6.072838e+02	-3.326051e+01
6.107914e+02	-3.331241e+01
6.143194e+02	-3.335575e+01
6.178676e+02	-3.341837e+01
6.214364e+02	-3.347150e+01
6.250258e+02	-3.350934e+01
6.286359e+02	-3.356511e+01
6.322669e+02	-3.361427e+01
6.359189e+02	-3.366385e+01
6.395919e+02	-3.372266e+01
6.432862e+02	-3.375998e+01
6.470017e+02	-3.380736e+01
6.507388e+02	-3.386678e+01
6.544974e+02	-3.391715e+01
6.582778e+02	-3.395867e+01
6.620800e+02	-3.400317e+01
6.659041e+02	-3.406350e+01
6.697504e+02	-3.412728e+01
6.736188e+02	-3.416205e+01
6.775096e+02	-3.421425e+01
6.814229e+02	-3.427138e+01
6.853587e+02	-3.431738e+01
6.893173e+02	-3.437138e+01
6.932988e+02	-3.441866e+01
6.973033e+02	-3.447496e+01
7.013309e+02	-3.451847e+01
