Frequency(Hz)	Magnitude(dB)
1.000000e+01	-2.083545e-05
1.005776e+01	-2.107684e-05
1.011585e+01	-2.132102e-05
1.017428e+01	-2.156803e-05
1.023305e+01	-2.181790e-05
1.029215e+01	-2.207066e-05
1.035160e+01	-2.232636e-05
1.041139e+01	-2.258501e-05
1.047153e+01	-2.284667e-05
1.053201e+01	-2.311135e-05
1.059284e+01	-2.337910e-05
1.065403e+01	-2.364996e-05
1.071556e+01	-2.392395e-05
1.077746e+01	-2.420111e-05
1.083971e+01	-2.448149e-05
1.090232e+01	-2.476511e-05
1.096529e+01	-2.505202e-05
1.102862e+01	-2.534225e-05
1.109232e+01	-2.563585e-05
1.115639e+01	-2.593285e-05
1.122083e+01	-2.623329e-05
1.128564e+01	-2.653721e-05
1.135083e+01	-2.684465e-05
1.141639e+01	-2.715565e-05
1.148233e+01	-2.747025e-05
1.154865e+01	-2.778850e-05
1.161536e+01	-2.811044e-05
1.168245e+01	-2.843611e-05
1.174992e+01	-2.876554e-05
1.181779e+01	-2.909880e-05
1.188605e+01	-2.943592e-05
1.195470e+01	-2.977694e-05
1.202375e+01	-3.012191e-05
1.209320e+01	-3.047088e-05
1.216305e+01	-3.082389e-05
1.223330e+01	-3.118100e-05
1.230396e+01	-3.154224e-05
1.237503e+01	-3.190766e-05
1.244651e+01	-3.227732e-05
1.251840e+01	-3.265126e-05
1.259070e+01	-3.302953e-05
1.266343e+01	-3.341218e-05
1.273657e+01	-3.379927e-05
1.281014e+01	-3.419085e-05
1.288413e+01	-3.458695e-05
1.295855e+01	-3.498765e-05
1.303339e+01	-3.539299e-05
1.310867e+01	-3.580303e-05
1.318439e+01	-3.621781e-05
1.326054e+01	-3.663741e-05
1.333713e+01	-3.706186e-05
1.341417e+01	-3.749123e-05
1.349165e+01	-3.792557e-05
1.356958e+01	-3.836495e-05
1.364795e+01	-3.880942e-05
1.372678e+01	-3.925903e-05
1.380607e+01	-3.971386e-05
1.388581e+01	-4.017395e-05
1.396602e+01	-4.063938e-05
1.404668e+01	-4.111019e-05
1.412782e+01	-4.158646e-05
1.420942e+01	-4.206825e-05
1.429149e+01	-4.255562e-05
1.437404e+01	-4.304864e-05
1.445706e+01	-4.354737e-05
1.454057e+01	-4.405187e-05
1.462455e+01	-4.456222e-05
1.470902e+01	-4.507849e-05
1.479398e+01	-4.560073e-05
1.487943e+01	-4.612902e-05
1.496537e+01	-4.666344e-05
1.505181e+01	-4.720405e-05
1.513875e+01	-4.775091e-05
1.522619e+01	-4.830412e-05
1.531414e+01	-4.886373e-05
1.540259e+01	-4.942983e-05
1.549156e+01	-5.000248e-05
1.558103e+01	-5.058177e-05
1.567103e+01	-5.116777e-05
1.576155e+01	-5.176056e-05
1.585258e+01	-5.236022e-05
1.594415e+01	-5.296683e-05
1.603624e+01	-5.358046e-05
1.612886e+01	-5.420120e-05
1.622202e+01	-5.482913e-05
1.631572e+01	-5.546434e-05
1.640996e+01	-5.610690e-05
1.650474e+01	-5.675691e-05
1.660008e+01	-5.741445e-05
1.669596e+01	-5.807961e-05
1.679239e+01	-5.875247e-05
1.688938e+01	-5.943313e-05
1.698694e+01	-6.012168e-05
1.708505e+01	-6.081820e-05
1.718373e+01	-6.152279e-05
1.728299e+01	-6.223554e-05
1.738281e+01	-6.295656e-05
1.748322e+01	-6.368592e-05
1.758420e+01	-6.442373e-05
1.768576e+01	-6.517009e-05
1.778792e+01	-6.592510e-05
1.789066e+01	-6.668886e-05
1.799399e+01	-6.746146e-05
1.809793e+01	-6.824301e-05
1.820246e+01	-6.903362e-05
1.830760e+01	-6.983339e-05
1.841334e+01	-7.064242e-05
1.851969e+01	-7.146083e-05
1.862666e+01	-7.228872e-05
1.873425e+01	-7.312619e-05
1.884246e+01	-7.397337e-05
1.895129e+01	-7.483037e-05
1.906075e+01	-7.569729e-05
1.917085e+01	-7.657426e-05
1.928158e+01	-7.746138e-05
1.939295e+01	-7.835879e-05
1.950496e+01	-7.926659e-05
1.961762e+01	-8.018491e-05
1.973093e+01	-8.111386e-05
1.984490e+01	-8.205358e-05
1.995952e+01	-8.300418e-05
2.007480e+01	-8.396580e-05
2.019076e+01	-8.493856e-05
2.030738e+01	-8.592259e-05
2.042467e+01	-8.691801e-05
2.054264e+01	-8.792497e-05
2.066130e+01	-8.894360e-05
2.078064e+01	-8.997402e-05
2.090066e+01	-9.101639e-05
2.102139e+01	-9.207083e-05
2.114280e+01	-9.313748e-05
2.126492e+01	-9.421649e-05
2.138775e+01	-9.530801e-05
2.151128e+01	-9.641216e-05
2.163553e+01	-9.752911e-05
2.176050e+01	-9.865900e-05
2.188619e+01	-9.980198e-05
2.201260e+01	-1.009582e-04
2.213974e+01	-1.021278e-04
2.226762e+01	-1.033110e-04
2.239624e+01	-1.045079e-04
2.252560e+01	-1.057186e-04
2.265571e+01	-1.069434e-04
2.278656e+01	-1.081823e-04
2.291818e+01	-1.094356e-04
2.305055e+01	-1.107034e-04
2.318369e+01	-1.119860e-04
2.331760e+01	-1.132833e-04
2.345228e+01	-1.145957e-04
2.358774e+01	-1.159233e-04
2.372398e+01	-1.172663e-04
2.386101e+01	-1.186249e-04
2.399883e+01	-1.199991e-04
2.413745e+01	-1.213894e-04
2.427686e+01	-1.227957e-04
2.441709e+01	-1.242183e-04
2.455812e+01	-1.256573e-04
2.469997e+01	-1.271131e-04
2.484263e+01	-1.285857e-04
2.498612e+01	-1.300754e-04
2.513044e+01	-1.315823e-04
2.527559e+01	-1.331067e-04
2.542158e+01	-1.346488e-04
2.556842e+01	-1.362087e-04
2.571610e+01	-1.377867e-04
2.586463e+01	-1.393830e-04
2.601403e+01	-1.409977e-04
2.616428e+01	-1.426312e-04
2.631541e+01	-1.442836e-04
2.646740e+01	-1.459551e-04
2.662028e+01	-1.476460e-04
2.677404e+01	-1.493565e-04
2.692868e+01	-1.510868e-04
2.708422e+01	-1.528372e-04
2.724066e+01	-1.546078e-04
2.739800e+01	-1.563990e-04
2.755625e+01	-1.582109e-04
2.771541e+01	-1.600437e-04
2.787550e+01	-1.618979e-04
2.803650e+01	-1.637734e-04
2.819844e+01	-1.656708e-04
2.836131e+01	-1.675901e-04
2.852513e+01	-1.695316e-04
2.868989e+01	-1.714957e-04
2.885560e+01	-1.734824e-04
2.902227e+01	-1.754922e-04
2.918990e+01	-1.775253e-04
2.935850e+01	-1.795820e-04
2.952807e+01	-1.816624e-04
2.969863e+01	-1.837670e-04
2.987016e+01	-1.858959e-04
3.004269e+01	-1.880495e-04
3.021622e+01	-1.902281e-04
3.039075e+01	-1.924319e-04
3.056628e+01	-1.946612e-04
3.074283e+01	-1.969164e-04
3.092040e+01	-1.991977e-04
3.109900e+01	-2.015054e-04
3.127862e+01	-2.038398e-04
3.145929e+01	-2.062013e-04
3.164099e+01	-2.085901e-04
3.182375e+01	-2.110067e-04
3.200756e+01	-2.134512e-04
3.219244e+01	-2.159240e-04
3.237838e+01	-2.184255e-04
3.256540e+01	-2.209559e-04
3.275349e+01	-2.235157e-04
3.294268e+01	-2.261051e-04
3.313295e+01	-2.287245e-04
3.332433e+01	-2.313743e-04
3.351681e+01	-2.340548e-04
3.371040e+01	-2.367663e-04
3.390511e+01	-2.395092e-04
3.410094e+01	-2.422839e-04
3.429791e+01	-2.450908e-04
3.449601e+01	-2.479301e-04
3.469526e+01	-2.508024e-04
3.489566e+01	-2.537079e-04
3.509721e+01	-2.566471e-04
3.529993e+01	-2.596203e-04
3.550382e+01	-2.626280e-04
3.570889e+01	-2.656706e-04
3.591515e+01	-2.687483e-04
3.612259e+01	-2.718618e-04
3.633123e+01	-2.750113e-04
3.654108e+01	-2.781972e-04
3.675214e+01	-2.814201e-04
3.696442e+01	-2.846803e-04
3.717792e+01	-2.879783e-04
3.739266e+01	-2.913145e-04
3.760864e+01	-2.946894e-04
3.782587e+01	-2.981033e-04
3.804435e+01	-3.015568e-04
3.826409e+01	-3.050503e-04
3.848510e+01	-3.085843e-04
3.870739e+01	-3.121592e-04
3.893096e+01	-3.157755e-04
3.915583e+01	-3.194337e-04
3.938199e+01	-3.231343e-04
3.960946e+01	-3.268778e-04
3.983824e+01	-3.306646e-04
4.006834e+01	-3.344953e-04
4.029978e+01	-3.383703e-04
4.053255e+01	-3.422903e-04
4.076666e+01	-3.462557e-04
4.100213e+01	-3.502670e-04
4.123896e+01	-3.543248e-04
4.147715e+01	-3.584295e-04
4.171672e+01	-3.625819e-04
4.195767e+01	-3.667823e-04
4.220002e+01	-3.710314e-04
4.244377e+01	-3.753297e-04
4.268892e+01	-3.796778e-04
4.293549e+01	-3.840763e-04
4.318348e+01	-3.885257e-04
4.343291e+01	-3.930267e-04
4.368377e+01	-3.975798e-04
4.393609e+01	-4.021857e-04
4.418986e+01	-4.068449e-04
4.444510e+01	-4.115581e-04
4.470182e+01	-4.163259e-04
4.496001e+01	-4.211489e-04
4.521970e+01	-4.260278e-04
4.548089e+01	-4.309632e-04
4.574358e+01	-4.359558e-04
4.600779e+01	-4.410062e-04
4.627353e+01	-4.461151e-04
4.654081e+01	-4.512832e-04
4.680963e+01	-4.565112e-04
4.708000e+01	-4.617997e-04
4.735193e+01	-4.671495e-04
4.762543e+01	-4.725612e-04
4.790051e+01	-4.780357e-04
4.817719e+01	-4.835735e-04
4.845545e+01	-4.891756e-04
4.873533e+01	-4.948425e-04
4.901682e+01	-5.005750e-04
4.929994e+01	-5.063740e-04
4.958470e+01	-5.122401e-04
4.987110e+01	-5.181742e-04
5.015915e+01	-5.241771e-04
5.044887e+01	-5.302494e-04
5.074026e+01	-5.363921e-04
5.103333e+01	-5.426060e-04
5.132810e+01	-5.488918e-04
5.162457e+01	-5.552505e-04
5.192275e+01	-5.616828e-04
5.222265e+01	-5.681896e-04
5.252429e+01	-5.747718e-04
5.282767e+01	-5.814303e-04
5.313280e+01	-5.881658e-04
5.343969e+01	-5.949794e-04
5.374836e+01	-6.018720e-04
5.405880e+01	-6.088443e-04
5.437105e+01	-6.158975e-04
5.468509e+01	-6.230323e-04
5.500095e+01	-6.302498e-04
5.531863e+01	-6.375508e-04
5.563815e+01	-6.449365e-04
5.595951e+01	-6.524077e-04
5.628273e+01	-6.599655e-04
5.660782e+01	-6.676107e-04
5.693479e+01	-6.753446e-04
5.726364e+01	-6.831680e-04
5.759439e+01	-6.910821e-04
5.792705e+01	-6.990878e-04
5.826164e+01	-7.071863e-04
5.859815e+01	-7.153786e-04
5.893662e+01	-7.236657e-04
5.927703e+01	-7.320489e-04
5.961941e+01	-7.405292e-04
5.996377e+01	-7.491077e-04
6.031012e+01	-7.577855e-04
6.065847e+01	-7.665639e-04
6.100883e+01	-7.754440e-04
6.136121e+01	-7.844269e-04
6.171563e+01	-7.935138e-04
6.207210e+01	-8.027061e-04
6.243063e+01	-8.120048e-04
6.279122e+01	-8.214112e-04
6.315390e+01	-8.309265e-04
6.351868e+01	-8.405521e-04
6.388556e+01	-8.502892e-04
6.425456e+01	-8.601391e-04
6.462569e+01	-8.701030e-04
6.499897e+01	-8.801824e-04
6.537440e+01	-8.903785e-04
6.575200e+01	-9.006927e-04
6.613178e+01	-9.111264e-04
6.651375e+01	-9.216809e-04
6.689793e+01	-9.323577e-04
6.728433e+01	-9.431581e-04
6.767297e+01	-9.540836e-04
6.806384e+01	-9.651357e-04
6.845698e+01	-9.763158e-04
6.885238e+01	-9.876254e-04
6.925007e+01	-9.990660e-04
6.965005e+01	-1.010639e-03
7.005235e+01	-1.022346e-03
7.045697e+01	-1.034189e-03
7.086393e+01	-1.046169e-03
7.127323e+01	-1.058288e-03
7.168490e+01	-1.070547e-03
7.209895e+01	-1.082948e-03
7.251539e+01	-1.095492e-03
7.293424e+01	-1.108182e-03
7.335551e+01	-1.121019e-03
7.377920e+01	-1.134005e-03
7.420535e+01	-1.147141e-03
7.463396e+01	-1.160429e-03
7.506504e+01	-1.173871e-03
7.549861e+01	-1.187469e-03
7.593469e+01	-1.201224e-03
7.637328e+01	-1.215139e-03
7.681441e+01	-1.229214e-03
7.725809e+01	-1.243453e-03
7.770433e+01	-1.257857e-03
7.815315e+01	-1.272427e-03
7.860456e+01	-1.287167e-03
7.905857e+01	-1.302076e-03
7.951521e+01	-1.317159e-03
7.997449e+01	-1.332416e-03
8.043642e+01	-1.347850e-03
8.090102e+01	-1.363463e-03
8.136830e+01	-1.379257e-03
8.183828e+01	-1.395233e-03
8.231097e+01	-1.411395e-03
8.278640e+01	-1.427743e-03
8.326457e+01	-1.444282e-03
8.374550e+01	-1.461011e-03
8.422921e+01	-1.477934e-03
8.471572e+01	-1.495054e-03
8.520503e+01	-1.512371e-03
8.569717e+01	-1.529889e-03
8.619215e+01	-1.547610e-03
8.669000e+01	-1.565537e-03
8.719071e+01	-1.583671e-03
8.769432e+01	-1.602014e-03
8.820084e+01	-1.620571e-03
8.871029e+01	-1.639342e-03
8.922267e+01	-1.658331e-03
8.973802e+01	-1.677539e-03
9.025634e+01	-1.696970e-03
9.077766e+01	-1.716626e-03
9.130199e+01	-1.736510e-03
9.182935e+01	-1.756623e-03
9.235975e+01	-1.776970e-03
9.289321e+01	-1.797553e-03
9.342976e+01	-1.818373e-03
9.396941e+01	-1.839435e-03
9.451217e+01	-1.860741e-03
9.505807e+01	-1.882294e-03
9.560712e+01	-1.904096e-03
9.615934e+01	-1.926150e-03
9.671476e+01	-1.948460e-03
9.727338e+01	-1.971028e-03
9.783522e+01	-1.993858e-03
9.840032e+01	-2.016952e-03
9.896867e+01	-2.040314e-03
9.954031e+01	-2.063946e-03
1.001153e+02	-2.087851e-03
1.006935e+02	-2.112034e-03
1.012751e+02	-2.136496e-03
1.018601e+02	-2.161242e-03
1.024484e+02	-2.186274e-03
1.030402e+02	-2.211596e-03
1.036353e+02	-2.237211e-03
1.042339e+02	-2.263123e-03
1.048360e+02	-2.289335e-03
1.054415e+02	-2.315851e-03
1.060505e+02	-2.342673e-03
1.066631e+02	-2.369806e-03
1.072791e+02	-2.397254e-03
1.078988e+02	-2.425019e-03
1.085220e+02	-2.453105e-03
1.091488e+02	-2.481517e-03
1.097793e+02	-2.510258e-03
1.104133e+02	-2.539331e-03
1.110511e+02	-2.568741e-03
1.116925e+02	-2.598492e-03
1.123376e+02	-2.628587e-03
1.129865e+02	-2.659031e-03
1.136391e+02	-2.689827e-03
1.142955e+02	-2.720979e-03
1.149556e+02	-2.752493e-03
1.156196e+02	-2.784371e-03
1.162874e+02	-2.816618e-03
1.169591e+02	-2.849238e-03
1.176347e+02	-2.882237e-03
1.183141e+02	-2.915617e-03
1.189975e+02	-2.949384e-03
1.196848e+02	-2.983541e-03
1.203761e+02	-3.018094e-03
1.210714e+02	-3.053047e-03
1.217707e+02	-3.088405e-03
1.224740e+02	-3.124172e-03
1.231814e+02	-3.160353e-03
1.238929e+02	-3.196953e-03
1.246085e+02	-3.233977e-03
1.253283e+02	-3.271430e-03
1.260522e+02	-3.309315e-03
1.267802e+02	-3.347640e-03
1.275125e+02	-3.386408e-03
1.282490e+02	-3.425625e-03
1.289898e+02	-3.465296e-03
1.297348e+02	-3.505426e-03
1.304842e+02	-3.546021e-03
1.312378e+02	-3.587085e-03
1.319959e+02	-3.628625e-03
1.327583e+02	-3.670646e-03
1.335251e+02	-3.713153e-03
1.342963e+02	-3.756152e-03
1.350720e+02	-3.799649e-03
1.358522e+02	-3.843650e-03
1.366368e+02	-3.888160e-03
1.374260e+02	-3.933184e-03
1.382198e+02	-3.978731e-03
1.390182e+02	-4.024804e-03
1.398211e+02	-4.071410e-03
1.406287e+02	-4.118556e-03
1.414410e+02	-4.166248e-03
1.422579e+02	-4.214491e-03
1.430796e+02	-4.263293e-03
1.439060e+02	-4.312660e-03
1.447372e+02	-4.362598e-03
1.455732e+02	-4.413114e-03
1.464141e+02	-4.464215e-03
1.472597e+02	-4.515907e-03
1.481103e+02	-4.568198e-03
1.489658e+02	-4.621093e-03
1.498262e+02	-4.674601e-03
1.506916e+02	-4.728728e-03
1.515620e+02	-4.783481e-03
1.524374e+02	-4.838868e-03
1.533179e+02	-4.894896e-03
1.542034e+02	-4.951572e-03
1.550941e+02	-5.008904e-03
1.559899e+02	-5.066900e-03
1.568909e+02	-5.125567e-03
1.577971e+02	-5.184912e-03
1.587085e+02	-5.244944e-03
1.596252e+02	-5.305671e-03
1.605472e+02	-5.367101e-03
1.614745e+02	-5.429241e-03
1.624072e+02	-5.492100e-03
1.633453e+02	-5.555687e-03
1.642887e+02	-5.620009e-03
1.652377e+02	-5.685076e-03
1.661921e+02	-5.750895e-03
1.671520e+02	-5.817476e-03
1.681175e+02	-5.884827e-03
1.690885e+02	-5.952958e-03
1.700651e+02	-6.021876e-03
1.710474e+02	-6.091592e-03
1.720354e+02	-6.162115e-03
1.730291e+02	-6.233453e-03
1.740285e+02	-6.305617e-03
1.750337e+02	-6.378615e-03
1.760446e+02	-6.452458e-03
1.770615e+02	-6.527155e-03
1.780842e+02	-6.602716e-03
1.791128e+02	-6.679151e-03
1.801473e+02	-6.756471e-03
1.811878e+02	-6.834684e-03
1.822344e+02	-6.913803e-03
1.832870e+02	-6.993836e-03
1.843456e+02	-7.074796e-03
1.854104e+02	-7.156691e-03
1.864813e+02	-7.239534e-03
1.875584e+02	-7.323335e-03
1.886418e+02	-7.408105e-03
1.897313e+02	-7.493856e-03
1.908272e+02	-7.580598e-03
1.919294e+02	-7.668343e-03
1.930380e+02	-7.757104e-03
1.941530e+02	-7.846890e-03
1.952744e+02	-7.937715e-03
1.964023e+02	-8.029590e-03
1.975367e+02	-8.122528e-03
1.986777e+02	-8.216540e-03
1.998252e+02	-8.311640e-03
2.009794e+02	-8.407839e-03
2.021403e+02	-8.505150e-03
2.033078e+02	-8.603587e-03
2.044821e+02	-8.703161e-03
2.056632e+02	-8.803887e-03
2.068511e+02	-8.905777e-03
2.080459e+02	-9.008846e-03
2.092475e+02	-9.113106e-03
2.104561e+02	-9.218571e-03
2.116717e+02	-9.325256e-03
2.128943e+02	-9.433173e-03
2.141240e+02	-9.542339e-03
2.153608e+02	-9.652766e-03
2.166047e+02	-9.764470e-03
2.178558e+02	-9.877465e-03
2.191141e+02	-9.991765e-03
2.203797e+02	-1.010739e-02
2.216526e+02	-1.022435e-02
2.229329e+02	-1.034266e-02
2.242205e+02	-1.046233e-02
2.255156e+02	-1.058339e-02
2.268182e+02	-1.070585e-02
2.281283e+02	-1.082973e-02
2.294459e+02	-1.095504e-02
2.307712e+02	-1.108179e-02
2.321041e+02	-1.121001e-02
2.334447e+02	-1.133971e-02
2.347931e+02	-1.147091e-02
2.361493e+02	-1.160362e-02
2.375133e+02	-1.173787e-02
2.388851e+02	-1.187367e-02
2.402649e+02	-1.201104e-02
2.416527e+02	-1.215000e-02
2.430484e+02	-1.229056e-02
2.444523e+02	-1.243274e-02
2.458642e+02	-1.257657e-02
2.472843e+02	-1.272206e-02
2.487126e+02	-1.286923e-02
2.501492e+02	-1.301810e-02
2.515940e+02	-1.316869e-02
2.530472e+02	-1.332101e-02
2.545088e+02	-1.347510e-02
2.559789e+02	-1.363097e-02
2.574574e+02	-1.378864e-02
2.589444e+02	-1.394812e-02
2.604401e+02	-1.410945e-02
2.619444e+02	-1.427264e-02
2.634574e+02	-1.443772e-02
2.649791e+02	-1.460470e-02
2.665096e+02	-1.477361e-02
2.680489e+02	-1.494447e-02
2.695972e+02	-1.511731e-02
2.711544e+02	-1.529214e-02
2.727205e+02	-1.546898e-02
2.742958e+02	-1.564787e-02
2.758801e+02	-1.582882e-02
2.774736e+02	-1.601187e-02
2.790762e+02	-1.619702e-02
2.806882e+02	-1.638431e-02
2.823094e+02	-1.657377e-02
2.839400e+02	-1.676541e-02
2.855800e+02	-1.695926e-02
2.872295e+02	-1.715534e-02
2.888886e+02	-1.735370e-02
2.905572e+02	-1.755433e-02
2.922354e+02	-1.775729e-02
2.939234e+02	-1.796258e-02
2.956211e+02	-1.817025e-02
2.973286e+02	-1.838031e-02
2.990459e+02	-1.859279e-02
3.007732e+02	-1.880773e-02
3.025104e+02	-1.902514e-02
3.042577e+02	-1.924506e-02
3.060151e+02	-1.946752e-02
3.077826e+02	-1.969254e-02
3.095604e+02	-1.992016e-02
3.113484e+02	-2.015040e-02
3.131467e+02	-2.038330e-02
3.149554e+02	-2.061889e-02
3.167746e+02	-2.085719e-02
3.186043e+02	-2.109823e-02
3.204445e+02	-2.134206e-02
3.222954e+02	-2.158870e-02
3.241570e+02	-2.183818e-02
3.260293e+02	-2.209053e-02
3.279124e+02	-2.234580e-02
3.298064e+02	-2.260400e-02
3.317114e+02	-2.286518e-02
3.336273e+02	-2.312937e-02
3.355544e+02	-2.339661e-02
3.374925e+02	-2.366693e-02
3.394418e+02	-2.394035e-02
3.414024e+02	-2.421693e-02
3.433744e+02	-2.449670e-02
3.453577e+02	-2.477969e-02
3.473525e+02	-2.506594e-02
3.493588e+02	-2.535548e-02
3.513766e+02	-2.564836e-02
3.534062e+02	-2.594461e-02
3.554474e+02	-2.624428e-02
3.575005e+02	-2.654739e-02
3.595654e+02	-2.685400e-02
3.616422e+02	-2.716413e-02
3.637311e+02	-2.747784e-02
3.658320e+02	-2.779515e-02
3.679450e+02	-2.811612e-02
3.700702e+02	-2.844079e-02
3.722077e+02	-2.876919e-02
3.743576e+02	-2.910136e-02
3.765199e+02	-2.943737e-02
3.786946e+02	-2.977723e-02
3.808820e+02	-3.012101e-02
3.830819e+02	-3.046874e-02
3.852946e+02	-3.082047e-02
3.875200e+02	-3.117625e-02
3.897583e+02	-3.153612e-02
3.920096e+02	-3.190013e-02
3.942738e+02	-3.226833e-02
3.965511e+02	-3.264076e-02
3.988416e+02	-3.301747e-02
4.011452e+02	-3.339851e-02
4.034622e+02	-3.378393e-02
4.057926e+02	-3.417378e-02
4.081365e+02	-3.456811e-02
4.104938e+02	-3.496698e-02
4.128648e+02	-3.537043e-02
4.152495e+02	-3.577851e-02
4.176480e+02	-3.619128e-02
4.200603e+02	-3.660880e-02
4.224866e+02	-3.703111e-02
4.249268e+02	-3.745827e-02
4.273812e+02	-3.789033e-02
4.298497e+02	-3.832736e-02
4.323325e+02	-3.876941e-02
4.348297e+02	-3.921653e-02
4.373412e+02	-3.966878e-02
4.398673e+02	-4.012623e-02
4.424079e+02	-4.058892e-02
4.449633e+02	-4.105693e-02
4.475334e+02	-4.153031e-02
4.501183e+02	-4.200911e-02
4.527182e+02	-4.249342e-02
4.553330e+02	-4.298327e-02
4.579630e+02	-4.347875e-02
4.606082e+02	-4.397990e-02
4.632687e+02	-4.448681e-02
4.659445e+02	-4.499953e-02
4.686358e+02	-4.551812e-02
4.713426e+02	-4.604266e-02
4.740650e+02	-4.657321e-02
4.768032e+02	-4.710984e-02
4.795572e+02	-4.765262e-02
4.823271e+02	-4.820162e-02
4.851130e+02	-4.875691e-02
4.879150e+02	-4.931856e-02
4.907332e+02	-4.988664e-02
4.935676e+02	-5.046123e-02
4.964185e+02	-5.104240e-02
4.992858e+02	-5.163022e-02
5.021696e+02	-5.222477e-02
5.050701e+02	-5.282612e-02
5.079874e+02	-5.343435e-02
5.109215e+02	-5.404955e-02
5.138726e+02	-5.467178e-02
5.168407e+02	-5.530113e-02
5.198259e+02	-5.593768e-02
5.228284e+02	-5.658151e-02
5.258482e+02	-5.723269e-02
5.288855e+02	-5.789133e-02
5.319403e+02	-5.855749e-02
5.350128e+02	-5.923126e-02
5.381030e+02	-5.991273e-02
5.412111e+02	-6.060199e-02
5.443371e+02	-6.129912e-02
5.474812e+02	-6.200422e-02
5.506434e+02	-6.271736e-02
5.538239e+02	-6.343865e-02
5.570228e+02	-6.416817e-02
5.602401e+02	-6.490602e-02
5.634760e+02	-6.565229e-02
5.667306e+02	-6.640707e-02
5.700040e+02	-6.717046e-02
5.732964e+02	-6.794256e-02
5.766077e+02	-6.872347e-02
5.799382e+02	-6.951327e-02
5.832879e+02	-7.031208e-02
5.866569e+02	-7.112000e-02
5.900454e+02	-7.193712e-02
5.934535e+02	-7.276355e-02
5.968813e+02	-7.359939e-02
6.003288e+02	-7.444476e-02
6.037963e+02	-7.529974e-02
6.072838e+02	-7.616447e-02
6.107914e+02	-7.703903e-02
6.143194e+02	-7.792354e-02
6.178676e+02	-7.881812e-02
6.214364e+02	-7.972287e-02
6.250258e+02	-8.063792e-02
6.286359e+02	-8.156336e-02
6.322669e+02	-8.249933e-02
6.359189e+02	-8.344593e-02
6.395919e+02	-8.440329e-02
6.432862e+02	-8.537153e-02
6.470017e+02	-8.635076e-02
6.507388e+02	-8.734111e-02
6.544974e+02	-8.834270e-02
6.582778e+02	-8.935566e-02
6.620800e+02	-9.038011e-02
6.659041e+02	-9.141618e-02
6.697504e+02	-9.246401e-02
6.736188e+02	-9.352371e-02
6.775096e+02	-9.459543e-02
6.814229e+02	-9.567930e-02
6.853587e+02	-9.677544e-02
6.893173e+02	-9.788400e-02
6.932988e+02	-9.900511e-02
6.973033e+02	-1.001389e-01
7.013309e+02	-1.012856e-01
