Frequency(Hz)	Magnitude(dB)
1.000000e+01	-2.118136e+00
1.005776e+01	-2.137368e+00
1.011585e+01	-2.156959e+00
1.017428e+01	-2.176598e+00
1.023305e+01	-2.196312e+00
1.029215e+01	-2.216240e+00
1.035160e+01	-2.236309e+00
1.041139e+01	-2.256536e+00
1.047153e+01	-2.276775e+00
1.053201e+01	-2.297433e+00
1.059284e+01	-2.317944e+00
1.065403e+01	-2.338707e+00
1.071556e+01	-2.359635e+00
1.077746e+01	-2.380601e+00
1.083971e+01	-2.401884e+00
1.090232e+01	-2.422918e+00
1.096529e+01	-2.444462e+00
1.102862e+01	-2.466283e+00
1.109232e+01	-2.487956e+00
1.115639e+01	-2.509849e+00
1.122083e+01	-2.531923e+00
1.128564e+01	-2.553703e+00
1.135083e+01	-2.576317e+00
1.141639e+01	-2.598720e+00
1.148233e+01	-2.621512e+00
1.154865e+01	-2.644126e+00
1.161536e+01	-2.667059e+00
1.168245e+01	-2.690079e+00
1.174992e+01	-2.713362e+00
1.181779e+01	-2.736525e+00
1.188605e+01	-2.760102e+00
1.195470e+01	-2.783765e+00
1.202375e+01	-2.807290e+00
1.209320e+01	-2.831309e+00
1.216305e+01	-2.855431e+00
1.223330e+01	-2.879257e+00
1.230396e+01	-2.903622e+00
1.237503e+01	-2.928097e+00
1.244651e+01	-2.952799e+00
1.251840e+01	-2.977728e+00
1.259070e+01	-3.002549e+00
1.266343e+01	-3.027755e+00
1.273657e+01	-3.052671e+00
1.281014e+01	-3.078109e+00
1.288413e+01	-3.103537e+00
1.295855e+01	-3.129131e+00
1.303339e+01	-3.155040e+00
1.310867e+01	-3.180874e+00
1.318439e+01	-3.206802e+00
1.326054e+01	-3.232953e+00
1.333713e+01	-3.259550e+00
1.341417e+01	-3.285706e+00
1.349165e+01	-3.312391e+00
1.356958e+01	-3.339413e+00
1.364795e+01	-3.366260e+00
1.372678e+01	-3.393136e+00
1.380607e+01	-3.420318e+00
1.388581e+01	-3.447708e+00
1.396602e+01	-3.475348e+00
1.404668e+01	-3.502941e+00
1.412782e+01	-3.530653e+00
1.420942e+01	-3.558580e+00
1.429149e+01	-3.586561e+00
1.437404e+01	-3.614858e+00
1.445706e+01	-3.642967e+00
1.454057e+01	-3.671278e+00
1.462455e+01	-3.699952e+00
1.470902e+01	-3.728893e+00
1.479398e+01	-3.757946e+00
1.487943e+01	-3.786940e+00
1.496537e+01	-3.816094e+00
1.505181e+01	-3.845444e+00
1.513875e+01	-3.874685e+00
1.522619e+01	-3.904501e+00
1.531414e+01	-3.933972e+00
1.540259e+01	-3.964042e+00
1.549156e+01	-3.993877e+00
1.558103e+01	-4.024313e+00
1.567103e+01	-4.054430e+00
1.576155e+01	-4.084805e+00
1.585258e+01	-4.115367e+00
1.594415e+01	-4.146148e+00
1.603624e+01	-4.177171e+00
1.612886e+01	-4.207832e+00
1.622202e+01	-4.239192e+00
1.631572e+01	-4.270395e+00
1.640996e+01	-4.301837e+00
1.650474e+01	-4.333260e+00
1.660008e+01	-4.364809e+00
1.669596e+01	-4.396791e+00
1.679239e+01	-4.428538e+00
1.688938e+01	-4.460536e+00
1.698694e+01	-4.492727e+00
1.708505e+01	-4.524976e+00
1.718373e+01	-4.557798e+00
1.728299e+01	-4.590040e+00
1.738281e+01	-4.623185e+00
1.748322e+01	-4.655617e+00
1.758420e+01	-4.688729e+00
1.768576e+01	-4.721944e+00
1.778792e+01	-4.754881e+00
1.789066e+01	-4.788275e+00
1.799399e+01	-4.822004e+00
1.809793e+01	-4.855557e+00
1.820246e+01	-4.889326e+00
1.830760e+01	-4.923089e+00
1.841334e+01	-4.956768e+00
1.851969e+01	-4.991144e+00
1.862666e+01	-5.025363e+00
1.873425e+01	-5.059515e+00
1.884246e+01	-5.094052e+00
1.895129e+01	-5.128639e+00
1.906075e+01	-5.163487e+00
1.917085e+01	-5.198191e+00
1.928158e+01	-5.233455e+00
1.939295e+01	-5.268295e+00
1.950496e+01	-5.303656e+00
1.961762e+01	-5.338856e+00
1.973093e+01	-5.374224e+00
1.984490e+01	-5.409886e+00
1.995952e+01	-5.445709e+00
2.007480e+01	-5.481501e+00
2.019076e+01	-5.517146e+00
2.030738e+01	-5.553428e+00
2.042467e+01	-5.589429e+00
2.054264e+01	-5.625964e+00
2.066130e+01	-5.662334e+00
2.078064e+01	-5.698839e+00
2.090066e+01	-5.735592e+00
2.102139e+01	-5.772340e+00
2.114280e+01	-5.808933e+00
2.126492e+01	-5.845909e+00
2.138775e+01	-5.883208e+00
2.151128e+01	-5.920264e+00
2.163553e+01	-5.957674e+00
2.176050e+01	-5.994871e+00
2.188619e+01	-6.032339e+00
2.201260e+01	-6.069882e+00
2.213974e+01	-6.107321e+00
2.226762e+01	-6.145631e+00
2.239624e+01	-6.183348e+00
2.252560e+01	-6.221249e+00
2.265571e+01	-6.259697e+00
2.278656e+01	-6.297852e+00
2.291818e+01	-6.336042e+00
2.305055e+01	-6.374372e+00
2.318369e+01	-6.412868e+00
2.331760e+01	-6.451731e+00
2.345228e+01	-6.490289e+00
2.358774e+01	-6.529685e+00
2.372398e+01	-6.568237e+00
2.386101e+01	-6.607759e+00
2.399883e+01	-6.646615e+00
2.413745e+01	-6.686130e+00
2.427686e+01	-6.725125e+00
2.441709e+01	-6.764319e+00
2.455812e+01	-6.804145e+00
2.469997e+01	-6.843262e+00
2.484263e+01	-6.883355e+00
2.498612e+01	-6.923382e+00
2.513044e+01	-6.963356e+00
2.527559e+01	-7.002922e+00
2.542158e+01	-7.043208e+00
2.556842e+01	-7.083496e+00
2.571610e+01	-7.123543e+00
2.586463e+01	-7.163980e+00
2.601403e+01	-7.204308e+00
2.616428e+01	-7.245080e+00
2.631541e+01	-7.285904e+00
2.646740e+01	-7.326423e+00
2.662028e+01	-7.367167e+00
2.677404e+01	-7.408069e+00
2.692868e+01	-7.449234e+00
2.708422e+01	-7.490093e+00
2.724066e+01	-7.531222e+00
2.739800e+01	-7.572214e+00
2.755625e+01	-7.614059e+00
2.771541e+01	-7.655198e+00
2.787550e+01	-7.696897e+00
2.803650e+01	-7.738308e+00
2.819844e+01	-7.780034e+00
2.836131e+01	-7.821738e+00
2.852513e+01	-7.863562e+00
2.868989e+01	-7.905759e+00
2.885560e+01	-7.947662e+00
2.902227e+01	-7.989380e+00
2.918990e+01	-8.031950e+00
2.935850e+01	-8.073455e+00
2.952807e+01	-8.115990e+00
2.969863e+01	-8.158212e+00
2.987016e+01	-8.200578e+00
3.004269e+01	-8.243278e+00
3.021622e+01	-8.285941e+00
3.039075e+01	-8.328413e+00
3.056628e+01	-8.371287e+00
3.074283e+01	-8.413867e+00
3.092040e+01	-8.456573e+00
3.109900e+01	-8.499269e+00
3.127862e+01	-8.542789e+00
3.145929e+01	-8.585796e+00
3.164099e+01	-8.629073e+00
3.182375e+01	-8.672271e+00
3.200756e+01	-8.715206e+00
3.219244e+01	-8.759147e+00
3.237838e+01	-8.802509e+00
3.256540e+01	-8.845600e+00
3.275349e+01	-8.889372e+00
3.294268e+01	-8.932351e+00
3.313295e+01	-8.976486e+00
3.332433e+01	-9.020117e+00
3.351681e+01	-9.064355e+00
3.371040e+01	-9.107742e+00
3.390511e+01	-9.151839e+00
3.410094e+01	-9.195736e+00
3.429791e+01	-9.239461e+00
3.449601e+01	-9.283473e+00
3.469526e+01	-9.328376e+00
3.489566e+01	-9.372768e+00
3.509721e+01	-9.416639e+00
3.529993e+01	-9.461123e+00
3.550382e+01	-9.505344e+00
3.570889e+01	-9.549591e+00
3.591515e+01	-9.594256e+00
3.612259e+01	-9.638550e+00
3.633123e+01	-9.683571e+00
3.654108e+01	-9.727787e+00
3.675214e+01	-9.772639e+00
3.696442e+01	-9.817536e+00
3.717792e+01	-9.862290e+00
3.739266e+01	-9.906484e+00
3.760864e+01	-9.952367e+00
3.782587e+01	-9.997337e+00
3.804435e+01	-1.004188e+01
3.826409e+01	-1.008782e+01
3.848510e+01	-1.013252e+01
3.870739e+01	-1.017771e+01
3.893096e+01	-1.022277e+01
3.915583e+01	-1.026806e+01
3.938199e+01	-1.031344e+01
3.960946e+01	-1.035904e+01
3.983824e+01	-1.040419e+01
4.006834e+01	-1.045021e+01
4.029978e+01	-1.049542e+01
4.053255e+01	-1.054056e+01
4.076666e+01	-1.058649e+01
4.100213e+01	-1.063246e+01
4.123896e+01	-1.067764e+01
4.147715e+01	-1.072312e+01
4.171672e+01	-1.076956e+01
4.195767e+01	-1.081531e+01
4.220002e+01	-1.086162e+01
4.244377e+01	-1.090750e+01
4.268892e+01	-1.095343e+01
4.293549e+01	-1.099913e+01
4.318348e+01	-1.104564e+01
4.343291e+01	-1.109146e+01
4.368377e+01	-1.113772e+01
4.393609e+01	-1.118365e+01
4.418986e+01	-1.122989e+01
4.444510e+01	-1.127648e+01
4.470182e+01	-1.132222e+01
4.496001e+01	-1.136882e+01
4.521970e+01	-1.141507e+01
4.548089e+01	-1.146270e+01
4.574358e+01	-1.150859e+01
4.600779e+01	-1.155494e+01
4.627353e+01	-1.160139e+01
4.654081e+01	-1.164809e+01
4.680963e+01	-1.169457e+01
4.708000e+01	-1.174155e+01
4.735193e+01	-1.178748e+01
4.762543e+01	-1.183443e+01
4.790051e+01	-1.188174e+01
4.817719e+01	-1.192795e+01
4.845545e+01	-1.197456e+01
4.873533e+01	-1.202169e+01
4.901682e+01	-1.206842e+01
4.929994e+01	-1.211616e+01
4.958470e+01	-1.216304e+01
4.987110e+01	-1.220984e+01
5.015915e+01	-1.225753e+01
5.044887e+01	-1.230406e+01
5.074026e+01	-1.235116e+01
5.103333e+01	-1.239792e+01
5.132810e+01	-1.244524e+01
5.162457e+01	-1.249306e+01
5.192275e+01	-1.254028e+01
5.222265e+01	-1.258751e+01
5.252429e+01	-1.263413e+01
5.282767e+01	-1.268186e+01
5.313280e+01	-1.272794e+01
5.343969e+01	-1.277599e+01
5.374836e+01	-1.282320e+01
5.405880e+01	-1.287135e+01
5.437105e+01	-1.291868e+01
5.468509e+01	-1.296573e+01
5.500095e+01	-1.301307e+01
5.531863e+01	-1.306141e+01
5.563815e+01	-1.310869e+01
5.595951e+01	-1.315644e+01
5.628273e+01	-1.320342e+01
5.660782e+01	-1.325171e+01
5.693479e+01	-1.329939e+01
5.726364e+01	-1.334711e+01
5.759439e+01	-1.339523e+01
5.792705e+01	-1.344245e+01
5.826164e+01	-1.349025e+01
5.859815e+01	-1.353825e+01
5.893662e+01	-1.358570e+01
5.927703e+01	-1.363355e+01
5.961941e+01	-1.368156e+01
5.996377e+01	-1.372891e+01
6.031012e+01	-1.377736e+01
6.065847e+01	-1.382540e+01
6.100883e+01	-1.387299e+01
6.136121e+01	-1.392088e+01
6.171563e+01	-1.396955e+01
6.207210e+01	-1.401791e+01
6.243063e+01	-1.406562e+01
6.279122e+01	-1.411361e+01
6.315390e+01	-1.416190e+01
6.351868e+01	-1.420982e+01
6.388556e+01	-1.425678e+01
6.425456e+01	-1.430606e+01
6.462569e+01	-1.435461e+01
6.499897e+01	-1.440296e+01
6.537440e+01	-1.445133e+01
6.575200e+01	-1.449866e+01
6.613178e+01	-1.454644e+01
6.651375e+01	-1.459604e+01
6.689793e+01	-1.464389e+01
6.728433e+01	-1.469226e+01
6.767297e+01	-1.474026e+01
6.806384e+01	-1.478840e+01
6.845698e+01	-1.483751e+01
6.885238e+01	-1.488564e+01
6.925007e+01	-1.493353e+01
6.965005e+01	-1.498254e+01
7.005235e+01	-1.503088e+01
7.045697e+01	-1.507919e+01
7.086393e+01	-1.512745e+01
7.127323e+01	-1.517680e+01
7.168490e+01	-1.522414e+01
7.209895e+01	-1.527262e+01
7.251539e+01	-1.532224e+01
7.293424e+01	-1.536987e+01
7.335551e+01	-1.541893e+01
7.377920e+01	-1.546782e+01
7.420535e+01	-1.551710e+01
7.463396e+01	-1.556517e+01
7.506504e+01	-1.561366e+01
7.549861e+01	-1.566221e+01
7.593469e+01	-1.571088e+01
7.637328e+01	-1.576008e+01
7.681441e+01	-1.580748e+01
7.725809e+01	-1.585729e+01
7.770433e+01	-1.590530e+01
7.815315e+01	-1.595467e+01
7.860456e+01	-1.600340e+01
7.905857e+01	-1.605140e+01
7.951521e+01	-1.610053e+01
7.997449e+01	-1.614995e+01
8.043642e+01	-1.619843e+01
8.090102e+01	-1.624743e+01
8.136830e+01	-1.629647e+01
8.183828e+01	-1.634378e+01
8.231097e+01	-1.639344e+01
8.278640e+01	-1.644243e+01
8.326457e+01	-1.649156e+01
8.374550e+01	-1.654156e+01
8.422921e+01	-1.658990e+01
8.471572e+01	-1.663820e+01
8.520503e+01	-1.668741e+01
8.569717e+01	-1.673524e+01
8.619215e+01	-1.678531e+01
8.669000e+01	-1.683418e+01
8.719071e+01	-1.688311e+01
8.769432e+01	-1.693222e+01
8.820084e+01	-1.698061e+01
8.871029e+01	-1.702956e+01
8.922267e+01	-1.707955e+01
8.973802e+01	-1.712820e+01
9.025634e+01	-1.717699e+01
9.077766e+01	-1.722593e+01
9.130199e+01	-1.727612e+01
9.182935e+01	-1.732444e+01
9.235975e+01	-1.737481e+01
9.289321e+01	-1.742400e+01
9.342976e+01	-1.747169e+01
9.396941e+01	-1.752234e+01
9.451217e+01	-1.756999e+01
9.505807e+01	-1.761928e+01
9.560712e+01	-1.767007e+01
9.615934e+01	-1.771809e+01
9.671476e+01	-1.776743e+01
9.727338e+01	-1.781631e+01
9.783522e+01	-1.786519e+01
9.840032e+01	-1.791510e+01
9.896867e+01	-1.796377e+01
9.954031e+01	-1.801393e+01
1.001153e+02	-1.806192e+01
1.006935e+02	-1.811059e+01
1.012751e+02	-1.816087e+01
1.018601e+02	-1.820972e+01
1.024484e+02	-1.825960e+01
1.030402e+02	-1.830778e+01
1.036353e+02	-1.835967e+01
1.042339e+02	-1.840719e+01
1.048360e+02	-1.845709e+01
1.054415e+02	-1.850620e+01
1.060505e+02	-1.855568e+01
1.066631e+02	-1.860436e+01
1.072791e+02	-1.865279e+01
1.078988e+02	-1.870365e+01
1.085220e+02	-1.875219e+01
1.091488e+02	-1.880191e+01
1.097793e+02	-1.885194e+01
1.104133e+02	-1.890143e+01
1.110511e+02	-1.895168e+01
1.116925e+02	-1.900154e+01
1.123376e+02	-1.904976e+01
1.129865e+02	-1.909858e+01
1.136391e+02	-1.914865e+01
1.142955e+02	-1.919781e+01
1.149556e+02	-1.924739e+01
1.156196e+02	-1.929611e+01
1.162874e+02	-1.934573e+01
1.169591e+02	-1.939642e+01
1.176347e+02	-1.944391e+01
1.183141e+02	-1.949451e+01
1.189975e+02	-1.954439e+01
1.196848e+02	-1.959318e+01
1.203761e+02	-1.964354e+01
1.210714e+02	-1.969021e+01
1.217707e+02	-1.974105e+01
1.224740e+02	-1.979156e+01
1.231814e+02	-1.984014e+01
1.238929e+02	-1.988979e+01
1.246085e+02	-1.993960e+01
1.253283e+02	-1.998772e+01
1.260522e+02	-2.003839e+01
1.267802e+02	-2.008887e+01
1.275125e+02	-2.013780e+01
1.282490e+02	-2.018658e+01
1.289898e+02	-2.023606e+01
1.297348e+02	-2.028655e+01
1.304842e+02	-2.033611e+01
1.312378e+02	-2.038535e+01
1.319959e+02	-2.043515e+01
1.327583e+02	-2.048422e+01
1.335251e+02	-2.053473e+01
1.342963e+02	-2.058542e+01
1.350720e+02	-2.063382e+01
1.358522e+02	-2.068416e+01
1.366368e+02	-2.073301e+01
1.374260e+02	-2.078355e+01
1.382198e+02	-2.083123e+01
1.390182e+02	-2.088227e+01
1.398211e+02	-2.093038e+01
1.406287e+02	-2.098116e+01
1.414410e+02	-2.103229e+01
1.422579e+02	-2.108091e+01
1.430796e+02	-2.113103e+01
1.439060e+02	-2.117782e+01
1.447372e+02	-2.123087e+01
1.455732e+02	-2.127881e+01
1.464141e+02	-2.132752e+01
1.472597e+02	-2.137846e+01
1.481103e+02	-2.142868e+01
1.489658e+02	-2.147749e+01
1.498262e+02	-2.152596e+01
1.506916e+02	-2.157718e+01
1.515620e+02	-2.162660e+01
1.524374e+02	-2.167770e+01
1.533179e+02	-2.172596e+01
1.542034e+02	-2.177535e+01
1.550941e+02	-2.182606e+01
1.559899e+02	-2.187511e+01
1.568909e+02	-2.192442e+01
1.577971e+02	-2.197260e+01
1.587085e+02	-2.202585e+01
1.596252e+02	-2.207402e+01
1.605472e+02	-2.212446e+01
1.614745e+02	-2.217458e+01
1.624072e+02	-2.222398e+01
1.633453e+02	-2.227368e+01
1.642887e+02	-2.232300e+01
1.652377e+02	-2.237186e+01
1.661921e+02	-2.242111e+01
1.671520e+02	-2.247321e+01
1.681175e+02	-2.252253e+01
1.690885e+02	-2.257356e+01
1.700651e+02	-2.262068e+01
1.710474e+02	-2.267080e+01
1.720354e+02	-2.272048e+01
1.730291e+02	-2.277104e+01
1.740285e+02	-2.281876e+01
1.750337e+02	-2.287087e+01
1.760446e+02	-2.291973e+01
1.770615e+02	-2.296819e+01
1.780842e+02	-2.301966e+01
1.791128e+02	-2.306849e+01
1.801473e+02	-2.311883e+01
1.811878e+02	-2.316828e+01
1.822344e+02	-2.321713e+01
1.832870e+02	-2.326712e+01
1.843456e+02	-2.332130e+01
1.854104e+02	-2.336901e+01
1.864813e+02	-2.341900e+01
1.875584e+02	-2.346768e+01
1.886418e+02	-2.351633e+01
1.897313e+02	-2.356838e+01
1.908272e+02	-2.361587e+01
1.919294e+02	-2.366497e+01
1.930380e+02	-2.371549e+01
1.941530e+02	-2.376704e+01
1.952744e+02	-2.381667e+01
1.964023e+02	-2.386784e+01
1.975367e+02	-2.391434e+01
1.986777e+02	-2.396570e+01
1.998252e+02	-2.401738e+01
2.009794e+02	-2.406387e+01
2.021403e+02	-2.411795e+01
2.033078e+02	-2.416531e+01
2.044821e+02	-2.421794e+01
2.056632e+02	-2.426522e+01
2.068511e+02	-2.431704e+01
2.080459e+02	-2.436502e+01
2.092475e+02	-2.441499e+01
2.104561e+02	-2.446647e+01
2.116717e+02	-2.451304e+01
2.128943e+02	-2.456598e+01
2.141240e+02	-2.461562e+01
2.153608e+02	-2.466735e+01
2.166047e+02	-2.471493e+01
2.178558e+02	-2.476496e+01
2.191141e+02	-2.481603e+01
2.203797e+02	-2.486257e+01
2.216526e+02	-2.491189e+01
2.229329e+02	-2.496347e+01
2.242205e+02	-2.501580e+01
2.255156e+02	-2.506359e+01
2.268182e+02	-2.511567e+01
2.281283e+02	-2.516567e+01
2.294459e+02	-2.521755e+01
2.307712e+02	-2.526416e+01
2.321041e+02	-2.531227e+01
2.334447e+02	-2.536591e+01
2.347931e+02	-2.541247e+01
2.361493e+02	-2.546376e+01
2.375133e+02	-2.551294e+01
2.388851e+02	-2.556173e+01
2.402649e+02	-2.561377e+01
2.416527e+02	-2.565896e+01
2.430484e+02	-2.571437e+01
2.444523e+02	-2.576273e+01
2.458642e+02	-2.581410e+01
2.472843e+02	-2.586065e+01
2.487126e+02	-2.591221e+01
2.501492e+02	-2.596454e+01
2.515940e+02	-2.601217e+01
2.530472e+02	-2.606437e+01
2.545088e+02	-2.611262e+01
2.559789e+02	-2.616025e+01
2.574574e+02	-2.621091e+01
2.589444e+02	-2.626465e+01
2.604401e+02	-2.631225e+01
2.619444e+02	-2.636068e+01
2.634574e+02	-2.641063e+01
2.649791e+02	-2.646353e+01
2.665096e+02	-2.651148e+01
2.680489e+02	-2.656461e+01
2.695972e+02	-2.661359e+01
2.711544e+02	-2.666015e+01
2.727205e+02	-2.671251e+01
2.742958e+02	-2.676072e+01
2.758801e+02	-2.681129e+01
2.774736e+02	-2.686409e+01
2.790762e+02	-2.691140e+01
2.806882e+02	-2.696055e+01
2.823094e+02	-2.701330e+01
2.839400e+02	-2.706159e+01
2.855800e+02	-2.711369e+01
2.872295e+02	-2.716255e+01
2.888886e+02	-2.721220e+01
2.905572e+02	-2.726314e+01
2.922354e+02	-2.731028e+01
2.939234e+02	-2.736250e+01
2.956211e+02	-2.741424e+01
2.973286e+02	-2.746188e+01
2.990459e+02	-2.751507e+01
3.007732e+02	-2.756099e+01
3.025104e+02	-2.761469e+01
3.042577e+02	-2.766186e+01
3.060151e+02	-2.770866e+01
3.077826e+02	-2.776458e+01
3.095604e+02	-2.781308e+01
3.113484e+02	-2.786471e+01
3.131467e+02	-2.791381e+01
3.149554e+02	-2.795824e+01
3.167746e+02	-2.801410e+01
3.186043e+02	-2.805703e+01
3.204445e+02	-2.811334e+01
3.222954e+02	-2.816183e+01
3.241570e+02	-2.821195e+01
3.260293e+02	-2.826308e+01
3.279124e+02	-2.831384e+01
3.298064e+02	-2.836259e+01
3.317114e+02	-2.841539e+01
3.336273e+02	-2.846177e+01
3.355544e+02	-2.850971e+01
3.374925e+02	-2.856127e+01
3.394418e+02	-2.861305e+01
3.414024e+02	-2.866533e+01
3.433744e+02	-2.871477e+01
3.453577e+02	-2.876716e+01
3.473525e+02	-2.881051e+01
3.493588e+02	-2.886564e+01
3.513766e+02	-2.891212e+01
3.534062e+02	-2.896809e+01
3.554474e+02	-2.901087e+01
3.575005e+02	-2.906673e+01
3.595654e+02	-2.911013e+01
3.616422e+02	-2.915999e+01
3.637311e+02	-2.921269e+01
3.658320e+02	-2.926360e+01
3.679450e+02	-2.931757e+01
3.700702e+02	-2.936170e+01
3.722077e+02	-2.941540e+01
3.743576e+02	-2.946613e+01
3.765199e+02	-2.951748e+01
3.786946e+02	-2.956420e+01
3.808820e+02	-2.961379e+01
3.830819e+02	-2.966362e+01
3.852946e+02	-2.971887e+01
3.875200e+02	-2.976594e+01
3.897583e+02	-2.981677e+01
3.920096e+02	-2.986281e+01
3.942738e+02	-2.991060e+01
3.965511e+02	-2.996198e+01
3.988416e+02	-3.001425e+01
4.011452e+02	-3.006124e+01
4.034622e+02	-3.011644e+01
4.057926e+02	-3.016295e+01
4.081365e+02	-3.021070e+01
4.104938e+02	-3.026093e+01
4.128648e+02	-3.031505e+01
4.152495e+02	-3.036476e+01
4.176480e+02	-3.041600e+01
4.200603e+02	-3.046792e+01
4.224866e+02	-3.051990e+01
4.249268e+02	-3.056354e+01
4.273812e+02	-3.061108e+01
4.298497e+02	-3.066690e+01
4.323325e+02	-3.071481e+01
4.348297e+02	-3.076759e+01
4.373412e+02	-3.082194e+01
4.398673e+02	-3.086749e+01
4.424079e+02	-3.092228e+01
4.449633e+02	-3.096787e+01
4.475334e+02	-3.101461e+01
4.501183e+02	-3.107057e+01
4.527182e+02	-3.112125e+01
4.553330e+02	-3.116687e+01
4.579630e+02	-3.121653e+01
4.606082e+02	-3.126878e+01
4.632687e+02	-3.132054e+01
4.659445e+02	-3.137522e+01
4.686358e+02	-3.142147e+01
4.713426e+02	-3.146677e+01
4.740650e+02	-3.151909e+01
4.768032e+02	-3.157072e+01
4.795572e+02	-3.161656e+01
4.823271e+02	-3.166622e+01
4.851130e+02	-3.171931e+01
4.879150e+02	-3.176635e+01
4.907332e+02	-3.182315e+01
4.935676e+02	-3.186705e+01
4.964185e+02	-3.191808e+01
4.992858e+02	-3.197310e+01
5.021696e+02	-3.202308e+01
5.050701e+02	-3.207090e+01
5.079874e+02	-3.212384e+01
5.109215e+02	-3.217259e+01
5.138726e+02	-3.222136e+01
5.168407e+02	-3.227772e+01
5.198259e+02	-3.232310e+01
5.228284e+02	-3.238406e+01
5.258482e+02	-3.243030e+01
5.288855e+02	-3.247381e+01
5.319403e+02	-3.252472e+01
5.350128e+02	-3.257650e+01
5.381030e+02	-3.261803e+01
5.412111e+02	-3.266901e+01
5.443371e+02	-3.272451e+01
5.474812e+02	-3.276798e+01
5.506434e+02	-3.282548e+01
5.538239e+02	-3.287356e+01
5.570228e+02	-3.293138e+01
5.602401e+02	-3.297524e+01
5.634760e+02	-3.302753e+01
5.667306e+02	-3.307870e+01
5.700040e+02	-3.312421e+01
5.732964e+02	-3.317788e+01
5.766077e+02	-3.323052e+01
5.799382e+02	-3.327330e+01
5.832879e+02	-3.332859e+01
5.866569e+02	-3.338251e+01
5.900454e+02	-3.343183e+01
5.934535e+02	-3.347802e+01
5.968813e+02	-3.352667e+01
6.003288e+02	-3.357442e+01
6.037963e+02	-3.362947e+01
6.072838e+02	-3.367899e+01
6.107914e+02	-3.372404e+01
6.143194e+02	-3.377661e+01
6.178676e+02	-3.383911e+01
6.214364e+02	-3.387276e+01
6.250258e+02	-3.393333e+01
6.286359e+02	-3.397972e+01
6.322669e+02	-3.402809e+01
6.359189e+02	-3.407621e+01
6.395919e+02	-3.413371e+01
6.432862e+02	-3.417805e+01
6.470017e+02	-3.422844e+01
6.507388e+02	-3.428639e+01
6.544974e+02	-3.432964e+01
6.582778e+02	-3.438482e+01
6.620800e+02	-3.443326e+01
6.659041e+02	-3.449153e+01
6.697504e+02	-3.454100e+01
6.736188e+02	-3.458015e+01
6.775096e+02	-3.463682e+01
6.814229e+02	-3.469078e+01
6.853587e+02	-3.473400e+01
6.893173e+02	-3.478386e+01
6.932988e+02	-3.484337e+01
6.973033e+02	-3.488708e+01
7.013309e+02	-3.494312e+01
