Frequency(Hz)	Magnitude(dB)
1.000000e+01	-2.199624e+00
1.005776e+01	-2.219497e+00
1.011585e+01	-2.239784e+00
1.017428e+01	-2.259978e+00
1.023305e+01	-2.280313e+00
1.029215e+01	-2.300905e+00
1.035160e+01	-2.321192e+00
1.041139e+01	-2.342190e+00
1.047153e+01	-2.363245e+00
1.053201e+01	-2.384039e+00
1.059284e+01	-2.405464e+00
1.065403e+01	-2.426948e+00
1.071556e+01	-2.448348e+00
1.077746e+01	-2.469909e+00
1.083971e+01	-2.491645e+00
1.090232e+01	-2.513743e+00
1.096529e+01	-2.535875e+00
1.102862e+01	-2.557799e+00
1.109232e+01	-2.580589e+00
1.115639e+01	-2.602601e+00
1.122083e+01	-2.625307e+00
1.128564e+01	-2.647926e+00
1.135083e+01	-2.671023e+00
1.141639e+01	-2.694089e+00
1.148233e+01	-2.717429e+00
1.154865e+01	-2.740634e+00
1.161536e+01	-2.764041e+00
1.168245e+01	-2.787830e+00
1.174992e+01	-2.811687e+00
1.181779e+01	-2.835627e+00
1.188605e+01	-2.859474e+00
1.195470e+01	-2.883836e+00
1.202375e+01	-2.907981e+00
1.209320e+01	-2.932525e+00
1.216305e+01	-2.957172e+00
1.223330e+01	-2.982084e+00
1.230396e+01	-3.006900e+00
1.237503e+01	-3.031923e+00
1.244651e+01	-3.057160e+00
1.251840e+01	-3.082273e+00
1.259070e+01	-3.108072e+00
1.266343e+01	-3.133654e+00
1.273657e+01	-3.159404e+00
1.281014e+01	-3.185325e+00
1.288413e+01	-3.211309e+00
1.295855e+01	-3.237594e+00
1.303339e+01	-3.263825e+00
1.310867e+01	-3.290602e+00
1.318439e+01	-3.317200e+00
1.326054e+01	-3.344007e+00
1.333713e+01	-3.371077e+00
1.341417e+01	-3.397828e+00
1.349165e+01	-3.425372e+00
1.356958e+01	-3.452436e+00
1.364795e+01	-3.479738e+00
1.372678e+01	-3.507801e+00
1.380607e+01	-3.535562e+00
1.388581e+01	-3.563348e+00
1.396602e+01	-3.591397e+00
1.404668e+01	-3.619634e+00
1.412782e+01	-3.648058e+00
1.420942e+01	-3.676481e+00
1.429149e+01	-3.704920e+00
1.437404e+01	-3.734108e+00
1.445706e+01	-3.762945e+00
1.454057e+01	-3.791992e+00
1.462455e+01	-3.821155e+00
1.470902e+01	-3.850364e+00
1.479398e+01	-3.879979e+00
1.487943e+01	-3.909447e+00
1.496537e+01	-3.939583e+00
1.505181e+01	-3.969205e+00
1.513875e+01	-3.999339e+00
1.522619e+01	-4.029410e+00
1.531414e+01	-4.059880e+00
1.540259e+01	-4.090010e+00
1.549156e+01	-4.120686e+00
1.558103e+01	-4.151509e+00
1.567103e+01	-4.182501e+00
1.576155e+01	-4.213299e+00
1.585258e+01	-4.244475e+00
1.594415e+01	-4.275844e+00
1.603624e+01	-4.307279e+00
1.612886e+01	-4.338671e+00
1.622202e+01	-4.370510e+00
1.631572e+01	-4.402138e+00
1.640996e+01	-4.434221e+00
1.650474e+01	-4.466135e+00
1.660008e+01	-4.498491e+00
1.669596e+01	-4.530862e+00
1.679239e+01	-4.563306e+00
1.688938e+01	-4.595717e+00
1.698694e+01	-4.628735e+00
1.708505e+01	-4.661427e+00
1.718373e+01	-4.694635e+00
1.728299e+01	-4.727327e+00
1.738281e+01	-4.760684e+00
1.748322e+01	-4.794083e+00
1.758420e+01	-4.827799e+00
1.768576e+01	-4.861272e+00
1.778792e+01	-4.894996e+00
1.789066e+01	-4.929059e+00
1.799399e+01	-4.962803e+00
1.809793e+01	-4.996764e+00
1.820246e+01	-5.031514e+00
1.830760e+01	-5.065593e+00
1.841334e+01	-5.099929e+00
1.851969e+01	-5.134865e+00
1.862666e+01	-5.169541e+00
1.873425e+01	-5.204385e+00
1.884246e+01	-5.239278e+00
1.895129e+01	-5.274691e+00
1.906075e+01	-5.309645e+00
1.917085e+01	-5.345331e+00
1.928158e+01	-5.380619e+00
1.939295e+01	-5.416289e+00
1.950496e+01	-5.451766e+00
1.961762e+01	-5.487753e+00
1.973093e+01	-5.523828e+00
1.984490e+01	-5.559974e+00
1.995952e+01	-5.595851e+00
2.007480e+01	-5.632209e+00
2.019076e+01	-5.668416e+00
2.030738e+01	-5.704990e+00
2.042467e+01	-5.742027e+00
2.054264e+01	-5.778749e+00
2.066130e+01	-5.815027e+00
2.078064e+01	-5.852116e+00
2.090066e+01	-5.889561e+00
2.102139e+01	-5.926815e+00
2.114280e+01	-5.963983e+00
2.126492e+01	-6.001144e+00
2.138775e+01	-6.038832e+00
2.151128e+01	-6.076500e+00
2.163553e+01	-6.114134e+00
2.176050e+01	-6.151992e+00
2.188619e+01	-6.190043e+00
2.201260e+01	-6.228198e+00
2.213974e+01	-6.265887e+00
2.226762e+01	-6.304178e+00
2.239624e+01	-6.342518e+00
2.252560e+01	-6.381463e+00
2.265571e+01	-6.419929e+00
2.278656e+01	-6.458690e+00
2.291818e+01	-6.497113e+00
2.305055e+01	-6.536526e+00
2.318369e+01	-6.575112e+00
2.331760e+01	-6.614003e+00
2.345228e+01	-6.653293e+00
2.358774e+01	-6.692505e+00
2.372398e+01	-6.731901e+00
2.386101e+01	-6.771540e+00
2.399883e+01	-6.810944e+00
2.413745e+01	-6.850696e+00
2.427686e+01	-6.890417e+00
2.441709e+01	-6.930046e+00
2.455812e+01	-6.970321e+00
2.469997e+01	-7.010095e+00
2.484263e+01	-7.050118e+00
2.498612e+01	-7.090590e+00
2.513044e+01	-7.130763e+00
2.527559e+01	-7.171329e+00
2.542158e+01	-7.211997e+00
2.556842e+01	-7.252234e+00
2.571610e+01	-7.292868e+00
2.586463e+01	-7.333769e+00
2.601403e+01	-7.374207e+00
2.616428e+01	-7.415200e+00
2.631541e+01	-7.456066e+00
2.646740e+01	-7.497523e+00
2.662028e+01	-7.538387e+00
2.677404e+01	-7.579995e+00
2.692868e+01	-7.621226e+00
2.708422e+01	-7.662671e+00
2.724066e+01	-7.704064e+00
2.739800e+01	-7.745571e+00
2.755625e+01	-7.786899e+00
2.771541e+01	-7.828807e+00
2.787550e+01	-7.870602e+00
2.803650e+01	-7.912738e+00
2.819844e+01	-7.954363e+00
2.836131e+01	-7.996654e+00
2.852513e+01	-8.039065e+00
2.868989e+01	-8.080755e+00
2.885560e+01	-8.123618e+00
2.902227e+01	-8.165695e+00
2.918990e+01	-8.208170e+00
2.935850e+01	-8.250623e+00
2.952807e+01	-8.293202e+00
2.969863e+01	-8.335576e+00
2.987016e+01	-8.378443e+00
3.004269e+01	-8.421262e+00
3.021622e+01	-8.464212e+00
3.039075e+01	-8.506944e+00
3.056628e+01	-8.550387e+00
3.074283e+01	-8.593062e+00
3.092040e+01	-8.636597e+00
3.109900e+01	-8.679555e+00
3.127862e+01	-8.723030e+00
3.145929e+01	-8.766367e+00
3.164099e+01	-8.809925e+00
3.182375e+01	-8.853009e+00
3.200756e+01	-8.897067e+00
3.219244e+01	-8.940155e+00
3.237838e+01	-8.984043e+00
3.256540e+01	-9.027735e+00
3.275349e+01	-9.071647e+00
3.294268e+01	-9.114909e+00
3.313295e+01	-9.159387e+00
3.332433e+01	-9.203407e+00
3.351681e+01	-9.246828e+00
3.371040e+01	-9.291936e+00
3.390511e+01	-9.335751e+00
3.410094e+01	-9.379850e+00
3.429791e+01	-9.423665e+00
3.449601e+01	-9.468082e+00
3.469526e+01	-9.512755e+00
3.489566e+01	-9.557492e+00
3.509721e+01	-9.601801e+00
3.529993e+01	-9.646026e+00
3.550382e+01	-9.690898e+00
3.570889e+01	-9.735775e+00
3.591515e+01	-9.780388e+00
3.612259e+01	-9.825144e+00
3.633123e+01	-9.870106e+00
3.654108e+01	-9.915130e+00
3.675214e+01	-9.959546e+00
3.696442e+01	-1.000506e+01
3.717792e+01	-1.005004e+01
3.739266e+01	-1.009488e+01
3.760864e+01	-1.014022e+01
3.782587e+01	-1.018553e+01
3.804435e+01	-1.023007e+01
3.826409e+01	-1.027595e+01
3.848510e+01	-1.032153e+01
3.870739e+01	-1.036684e+01
3.893096e+01	-1.041263e+01
3.915583e+01	-1.045791e+01
3.938199e+01	-1.050352e+01
3.960946e+01	-1.054867e+01
3.983824e+01	-1.059413e+01
4.006834e+01	-1.064034e+01
4.029978e+01	-1.068602e+01
4.053255e+01	-1.073216e+01
4.076666e+01	-1.077732e+01
4.100213e+01	-1.082350e+01
4.123896e+01	-1.086912e+01
4.147715e+01	-1.091473e+01
4.171672e+01	-1.096128e+01
4.195767e+01	-1.100772e+01
4.220002e+01	-1.105354e+01
4.244377e+01	-1.109955e+01
4.268892e+01	-1.114576e+01
4.293549e+01	-1.119189e+01
4.318348e+01	-1.123739e+01
4.343291e+01	-1.128420e+01
4.368377e+01	-1.133021e+01
4.393609e+01	-1.137716e+01
4.418986e+01	-1.142316e+01
4.444510e+01	-1.146995e+01
4.470182e+01	-1.151597e+01
4.496001e+01	-1.156277e+01
4.521970e+01	-1.160947e+01
4.548089e+01	-1.165620e+01
4.574358e+01	-1.170274e+01
4.600779e+01	-1.174927e+01
4.627353e+01	-1.179598e+01
4.654081e+01	-1.184390e+01
4.680963e+01	-1.189024e+01
4.708000e+01	-1.193621e+01
4.735193e+01	-1.198309e+01
4.762543e+01	-1.203069e+01
4.790051e+01	-1.207726e+01
4.817719e+01	-1.212380e+01
4.845545e+01	-1.217076e+01
4.873533e+01	-1.221792e+01
4.901682e+01	-1.226536e+01
4.929994e+01	-1.231220e+01
4.958470e+01	-1.235938e+01
4.987110e+01	-1.240637e+01
5.015915e+01	-1.245341e+01
5.044887e+01	-1.250051e+01
5.074026e+01	-1.254844e+01
5.103333e+01	-1.259472e+01
5.132810e+01	-1.264256e+01
5.162457e+01	-1.268996e+01
5.192275e+01	-1.273699e+01
5.222265e+01	-1.278481e+01
5.252429e+01	-1.283233e+01
5.282767e+01	-1.287906e+01
5.313280e+01	-1.292660e+01
5.343969e+01	-1.297466e+01
5.374836e+01	-1.302184e+01
5.405880e+01	-1.306895e+01
5.437105e+01	-1.311695e+01
5.468509e+01	-1.316502e+01
5.500095e+01	-1.321149e+01
5.531863e+01	-1.326002e+01
5.563815e+01	-1.330751e+01
5.595951e+01	-1.335521e+01
5.628273e+01	-1.340271e+01
5.660782e+01	-1.345073e+01
5.693479e+01	-1.349931e+01
5.726364e+01	-1.354601e+01
5.759439e+01	-1.359371e+01
5.792705e+01	-1.364177e+01
5.826164e+01	-1.368969e+01
5.859815e+01	-1.373738e+01
5.893662e+01	-1.378584e+01
5.927703e+01	-1.383368e+01
5.961941e+01	-1.388103e+01
5.996377e+01	-1.392987e+01
6.031012e+01	-1.397800e+01
6.065847e+01	-1.402482e+01
6.100883e+01	-1.407357e+01
6.136121e+01	-1.412118e+01
6.171563e+01	-1.416978e+01
6.207210e+01	-1.421810e+01
6.243063e+01	-1.426595e+01
6.279122e+01	-1.431397e+01
6.315390e+01	-1.436258e+01
6.351868e+01	-1.441078e+01
6.388556e+01	-1.445886e+01
6.425456e+01	-1.450757e+01
6.462569e+01	-1.455532e+01
6.499897e+01	-1.460441e+01
6.537440e+01	-1.465151e+01
6.575200e+01	-1.470108e+01
6.613178e+01	-1.474830e+01
6.651375e+01	-1.479673e+01
6.689793e+01	-1.484557e+01
6.728433e+01	-1.489397e+01
6.767297e+01	-1.494186e+01
6.806384e+01	-1.499048e+01
6.845698e+01	-1.503874e+01
6.885238e+01	-1.508824e+01
6.925007e+01	-1.513631e+01
6.965005e+01	-1.518430e+01
7.005235e+01	-1.523341e+01
7.045697e+01	-1.528044e+01
7.086393e+01	-1.532969e+01
7.127323e+01	-1.537836e+01
7.168490e+01	-1.542683e+01
7.209895e+01	-1.547566e+01
7.251539e+01	-1.552495e+01
7.293424e+01	-1.557305e+01
7.335551e+01	-1.562247e+01
7.377920e+01	-1.567029e+01
7.420535e+01	-1.571885e+01
7.463396e+01	-1.576740e+01
7.506504e+01	-1.581716e+01
7.549861e+01	-1.586680e+01
7.593469e+01	-1.591409e+01
7.637328e+01	-1.596192e+01
7.681441e+01	-1.601137e+01
7.725809e+01	-1.605983e+01
7.770433e+01	-1.610958e+01
7.815315e+01	-1.615785e+01
7.860456e+01	-1.620734e+01
7.905857e+01	-1.625548e+01
7.951521e+01	-1.630481e+01
7.997449e+01	-1.635319e+01
8.043642e+01	-1.640284e+01
8.090102e+01	-1.645243e+01
8.136830e+01	-1.650082e+01
8.183828e+01	-1.654954e+01
8.231097e+01	-1.659795e+01
8.278640e+01	-1.664659e+01
8.326457e+01	-1.669764e+01
8.374550e+01	-1.674452e+01
8.422921e+01	-1.679308e+01
8.471572e+01	-1.684212e+01
8.520503e+01	-1.689067e+01
8.569717e+01	-1.694050e+01
8.619215e+01	-1.698948e+01
8.669000e+01	-1.703816e+01
8.719071e+01	-1.708753e+01
8.769432e+01	-1.713804e+01
8.820084e+01	-1.718602e+01
8.871029e+01	-1.723480e+01
8.922267e+01	-1.728408e+01
8.973802e+01	-1.733335e+01
9.025634e+01	-1.738200e+01
9.077766e+01	-1.743267e+01
9.130199e+01	-1.748005e+01
9.182935e+01	-1.753132e+01
9.235975e+01	-1.758107e+01
9.289321e+01	-1.762744e+01
9.342976e+01	-1.767698e+01
9.396941e+01	-1.772644e+01
9.451217e+01	-1.777477e+01
9.505807e+01	-1.782333e+01
9.560712e+01	-1.787266e+01
9.615934e+01	-1.792370e+01
9.671476e+01	-1.797251e+01
9.727338e+01	-1.802234e+01
9.783522e+01	-1.807148e+01
9.840032e+01	-1.812144e+01
9.896867e+01	-1.816891e+01
9.954031e+01	-1.821840e+01
1.001153e+02	-1.826783e+01
1.006935e+02	-1.831717e+01
1.012751e+02	-1.836850e+01
1.018601e+02	-1.841697e+01
1.024484e+02	-1.846534e+01
1.030402e+02	-1.851391e+01
1.036353e+02	-1.856381e+01
1.042339e+02	-1.861374e+01
1.048360e+02	-1.866236e+01
1.054415e+02	-1.871287e+01
1.060505e+02	-1.876120e+01
1.066631e+02	-1.881017e+01
1.072791e+02	-1.885855e+01
1.078988e+02	-1.890927e+01
1.085220e+02	-1.895830e+01
1.091488e+02	-1.900818e+01
1.097793e+02	-1.905855e+01
1.104133e+02	-1.910783e+01
1.110511e+02	-1.915499e+01
1.116925e+02	-1.920542e+01
1.123376e+02	-1.925605e+01
1.129865e+02	-1.930506e+01
1.136391e+02	-1.935399e+01
1.142955e+02	-1.940401e+01
1.149556e+02	-1.945437e+01
1.156196e+02	-1.950266e+01
1.162874e+02	-1.955117e+01
1.169591e+02	-1.960119e+01
1.176347e+02	-1.965173e+01
1.183141e+02	-1.970060e+01
1.189975e+02	-1.974949e+01
1.196848e+02	-1.979788e+01
1.203761e+02	-1.984861e+01
1.210714e+02	-1.989939e+01
1.217707e+02	-1.994843e+01
1.224740e+02	-1.999817e+01
1.231814e+02	-2.004745e+01
1.238929e+02	-2.009725e+01
1.246085e+02	-2.014583e+01
1.253283e+02	-2.019621e+01
1.260522e+02	-2.024545e+01
1.267802e+02	-2.029501e+01
1.275125e+02	-2.034472e+01
1.282490e+02	-2.039440e+01
1.289898e+02	-2.044480e+01
1.297348e+02	-2.049297e+01
1.304842e+02	-2.054207e+01
1.312378e+02	-2.059429e+01
1.319959e+02	-2.064300e+01
1.327583e+02	-2.069253e+01
1.335251e+02	-2.074274e+01
1.342963e+02	-2.079140e+01
1.350720e+02	-2.084087e+01
1.358522e+02	-2.088912e+01
1.366368e+02	-2.093958e+01
1.374260e+02	-2.098891e+01
1.382198e+02	-2.103866e+01
1.390182e+02	-2.108885e+01
1.398211e+02	-2.113812e+01
1.406287e+02	-2.118736e+01
1.414410e+02	-2.123696e+01
1.422579e+02	-2.128660e+01
1.430796e+02	-2.133755e+01
1.439060e+02	-2.138653e+01
1.447372e+02	-2.143580e+01
1.455732e+02	-2.148664e+01
1.464141e+02	-2.153640e+01
1.472597e+02	-2.158403e+01
1.481103e+02	-2.163578e+01
1.489658e+02	-2.168506e+01
1.498262e+02	-2.173479e+01
1.506916e+02	-2.178504e+01
1.515620e+02	-2.183408e+01
1.524374e+02	-2.188432e+01
1.533179e+02	-2.193354e+01
1.542034e+02	-2.198669e+01
1.550941e+02	-2.203288e+01
1.559899e+02	-2.208390e+01
1.568909e+02	-2.213253e+01
1.577971e+02	-2.218029e+01
1.587085e+02	-2.223288e+01
1.596252e+02	-2.227954e+01
1.605472e+02	-2.233107e+01
1.614745e+02	-2.238061e+01
1.624072e+02	-2.243245e+01
1.633453e+02	-2.247997e+01
1.642887e+02	-2.253068e+01
1.652377e+02	-2.258024e+01
1.661921e+02	-2.262888e+01
1.671520e+02	-2.268110e+01
1.681175e+02	-2.272975e+01
1.690885e+02	-2.277919e+01
1.700651e+02	-2.282845e+01
1.710474e+02	-2.288037e+01
1.720354e+02	-2.292701e+01
1.730291e+02	-2.298017e+01
1.740285e+02	-2.302883e+01
1.750337e+02	-2.307809e+01
1.760446e+02	-2.312943e+01
1.770615e+02	-2.317847e+01
1.780842e+02	-2.322729e+01
1.791128e+02	-2.327742e+01
1.801473e+02	-2.332678e+01
1.811878e+02	-2.337652e+01
1.822344e+02	-2.342658e+01
1.832870e+02	-2.347641e+01
1.843456e+02	-2.352603e+01
1.854104e+02	-2.357812e+01
1.864813e+02	-2.362572e+01
1.875584e+02	-2.367549e+01
1.886418e+02	-2.372339e+01
1.897313e+02	-2.377725e+01
1.908272e+02	-2.382696e+01
1.919294e+02	-2.387446e+01
1.930380e+02	-2.392565e+01
1.941530e+02	-2.397426e+01
1.952744e+02	-2.402381e+01
1.964023e+02	-2.407556e+01
1.975367e+02	-2.412527e+01
1.986777e+02	-2.417673e+01
1.998252e+02	-2.422389e+01
2.009794e+02	-2.427395e+01
2.021403e+02	-2.432621e+01
2.033078e+02	-2.437528e+01
2.044821e+02	-2.442399e+01
2.056632e+02	-2.447552e+01
2.068511e+02	-2.452624e+01
2.080459e+02	-2.457423e+01
2.092475e+02	-2.462337e+01
2.104561e+02	-2.467236e+01
2.116717e+02	-2.472174e+01
2.128943e+02	-2.477298e+01
2.141240e+02	-2.482290e+01
2.153608e+02	-2.487605e+01
2.166047e+02	-2.492097e+01
2.178558e+02	-2.497276e+01
2.191141e+02	-2.502288e+01
2.203797e+02	-2.507230e+01
2.216526e+02	-2.512269e+01
2.229329e+02	-2.517313e+01
2.242205e+02	-2.521958e+01
2.255156e+02	-2.526953e+01
2.268182e+02	-2.532205e+01
2.281283e+02	-2.537435e+01
2.294459e+02	-2.542135e+01
2.307712e+02	-2.547262e+01
2.321041e+02	-2.552374e+01
2.334447e+02	-2.557257e+01
2.347931e+02	-2.562120e+01
2.361493e+02	-2.567581e+01
2.375133e+02	-2.572430e+01
2.388851e+02	-2.577039e+01
2.402649e+02	-2.582207e+01
2.416527e+02	-2.587264e+01
2.430484e+02	-2.592288e+01
2.444523e+02	-2.597409e+01
2.458642e+02	-2.602258e+01
2.472843e+02	-2.607044e+01
2.487126e+02	-2.611958e+01
2.501492e+02	-2.617315e+01
2.515940e+02	-2.622591e+01
2.530472e+02	-2.627076e+01
2.545088e+02	-2.632139e+01
2.559789e+02	-2.637249e+01
2.574574e+02	-2.642034e+01
2.589444e+02	-2.646994e+01
2.604401e+02	-2.652187e+01
2.619444e+02	-2.656911e+01
2.634574e+02	-2.662122e+01
2.649791e+02	-2.667236e+01
2.665096e+02	-2.671825e+01
2.680489e+02	-2.677098e+01
2.695972e+02	-2.682311e+01
2.711544e+02	-2.687054e+01
2.727205e+02	-2.692058e+01
2.742958e+02	-2.696893e+01
2.758801e+02	-2.702479e+01
2.774736e+02	-2.707097e+01
2.790762e+02	-2.711829e+01
2.806882e+02	-2.717143e+01
2.823094e+02	-2.722077e+01
2.839400e+02	-2.726937e+01
2.855800e+02	-2.732062e+01
2.872295e+02	-2.737116e+01
2.888886e+02	-2.742038e+01
2.905572e+02	-2.747016e+01
2.922354e+02	-2.752107e+01
2.939234e+02	-2.757048e+01
2.956211e+02	-2.762274e+01
2.973286e+02	-2.766977e+01
2.990459e+02	-2.772167e+01
3.007732e+02	-2.777127e+01
3.025104e+02	-2.782197e+01
3.042577e+02	-2.787253e+01
3.060151e+02	-2.792462e+01
3.077826e+02	-2.797042e+01
3.095604e+02	-2.802260e+01
3.113484e+02	-2.807331e+01
3.131467e+02	-2.812102e+01
3.149554e+02	-2.816658e+01
3.167746e+02	-2.821829e+01
3.186043e+02	-2.827034e+01
3.204445e+02	-2.832271e+01
3.222954e+02	-2.837528e+01
3.241570e+02	-2.842365e+01
3.260293e+02	-2.847364e+01
3.279124e+02	-2.851785e+01
3.298064e+02	-2.857293e+01
3.317114e+02	-2.861919e+01
3.336273e+02	-2.866873e+01
3.355544e+02	-2.872308e+01
3.374925e+02	-2.877515e+01
3.394418e+02	-2.882491e+01
3.414024e+02	-2.887212e+01
3.433744e+02	-2.892710e+01
3.453577e+02	-2.896774e+01
3.473525e+02	-2.902200e+01
3.493588e+02	-2.907035e+01
3.513766e+02	-2.912431e+01
3.534062e+02	-2.916878e+01
3.554474e+02	-2.922113e+01
3.575005e+02	-2.927244e+01
3.595654e+02	-2.932142e+01
3.616422e+02	-2.936939e+01
3.637311e+02	-2.942341e+01
3.658320e+02	-2.947261e+01
3.679450e+02	-2.952403e+01
3.700702e+02	-2.957263e+01
3.722077e+02	-2.962606e+01
3.743576e+02	-2.967198e+01
3.765199e+02	-2.972233e+01
3.786946e+02	-2.976990e+01
3.808820e+02	-2.982700e+01
3.830819e+02	-2.987426e+01
3.852946e+02	-2.992152e+01
3.875200e+02	-2.997244e+01
3.897583e+02	-3.002195e+01
3.920096e+02	-3.008109e+01
3.942738e+02	-3.011722e+01
3.965511e+02	-3.017273e+01
3.988416e+02	-3.022198e+01
4.011452e+02	-3.027137e+01
4.034622e+02	-3.032222e+01
4.057926e+02	-3.037345e+01
4.081365e+02	-3.042896e+01
4.104938e+02	-3.047411e+01
4.128648e+02	-3.052878e+01
4.152495e+02	-3.057213e+01
4.176480e+02	-3.062885e+01
4.200603e+02	-3.067843e+01
4.224866e+02	-3.072632e+01
4.249268e+02	-3.077954e+01
4.273812e+02	-3.082635e+01
4.298497e+02	-3.087616e+01
4.323325e+02	-3.092536e+01
4.348297e+02	-3.097351e+01
4.373412e+02	-3.102405e+01
4.398673e+02	-3.107993e+01
4.424079e+02	-3.112700e+01
4.449633e+02	-3.118152e+01
4.475334e+02	-3.122477e+01
4.501183e+02	-3.127203e+01
4.527182e+02	-3.132903e+01
4.553330e+02	-3.137026e+01
4.579630e+02	-3.142428e+01
4.606082e+02	-3.147999e+01
4.632687e+02	-3.152785e+01
4.659445e+02	-3.158258e+01
4.686358e+02	-3.163163e+01
4.713426e+02	-3.168164e+01
4.740650e+02	-3.173404e+01
4.768032e+02	-3.178037e+01
4.795572e+02	-3.182576e+01
4.823271e+02	-3.188061e+01
4.851130e+02	-3.192548e+01
4.879150e+02	-3.198138e+01
4.907332e+02	-3.202707e+01
4.935676e+02	-3.208142e+01
4.964185e+02	-3.213611e+01
4.992858e+02	-3.218447e+01
5.021696e+02	-3.222907e+01
5.050701e+02	-3.228162e+01
5.079874e+02	-3.233137e+01
5.109215e+02	-3.238104e+01
5.138726e+02	-3.242844e+01
5.168407e+02	-3.247645e+01
5.198259e+02	-3.253186e+01
5.228284e+02	-3.257590e+01
5.258482e+02	-3.262822e+01
5.288855e+02	-3.268171e+01
5.319403e+02	-3.273056e+01
5.350128e+02	-3.278139e+01
5.381030e+02	-3.283159e+01
5.412111e+02	-3.288448e+01
5.443371e+02	-3.293387e+01
5.474812e+02	-3.298239e+01
5.506434e+02	-3.303199e+01
5.538239e+02	-3.308234e+01
5.570228e+02	-3.313219e+01
5.602401e+02	-3.318861e+01
5.634760e+02	-3.323413e+01
5.667306e+02	-3.328261e+01
5.700040e+02	-3.333386e+01
5.732964e+02	-3.338487e+01
5.766077e+02	-3.344015e+01
5.799382e+02	-3.348749e+01
5.832879e+02	-3.353296e+01
5.866569e+02	-3.358899e+01
5.900454e+02	-3.364181e+01
5.934535e+02	-3.368936e+01
5.968813e+02	-3.373317e+01
6.003288e+02	-3.378908e+01
6.037963e+02	-3.383993e+01
6.072838e+02	-3.389078e+01
6.107914e+02	-3.393403e+01
6.143194e+02	-3.398910e+01
6.178676e+02	-3.404773e+01
6.214364e+02	-3.409378e+01
6.250258e+02	-3.413415e+01
6.286359e+02	-3.419033e+01
6.322669e+02	-3.424793e+01
6.359189e+02	-3.430114e+01
6.395919e+02	-3.434199e+01
6.432862e+02	-3.439995e+01
6.470017e+02	-3.444626e+01
6.507388e+02	-3.449260e+01
6.544974e+02	-3.454070e+01
6.582778e+02	-3.459485e+01
6.620800e+02	-3.465698e+01
6.659041e+02	-3.469210e+01
6.697504e+02	-3.474166e+01
6.736188e+02	-3.479937e+01
6.775096e+02	-3.484190e+01
6.814229e+02	-3.489190e+01
6.853587e+02	-3.495295e+01
6.893173e+02	-3.500112e+01
6.932988e+02	-3.504228e+01
6.973033e+02	-3.509831e+01
7.013309e+02	-3.515950e+01
