Frequency(Hz)	Magnitude(dB)
1.000000e+01	-2.080654e+00
1.005776e+01	-2.099597e+00
1.011585e+01	-2.119119e+00
1.017428e+01	-2.137984e+00
1.023305e+01	-2.157752e+00
1.029215e+01	-2.177385e+00
1.035160e+01	-2.197378e+00
1.041139e+01	-2.217306e+00
1.047153e+01	-2.237279e+00
1.053201e+01	-2.257427e+00
1.059284e+01	-2.277876e+00
1.065403e+01	-2.298129e+00
1.071556e+01	-2.318830e+00
1.077746e+01	-2.339791e+00
1.083971e+01	-2.360428e+00
1.090232e+01	-2.381680e+00
1.096529e+01	-2.402690e+00
1.102862e+01	-2.423967e+00
1.109232e+01	-2.445692e+00
1.115639e+01	-2.467097e+00
1.122083e+01	-2.488777e+00
1.128564e+01	-2.510934e+00
1.135083e+01	-2.532783e+00
1.141639e+01	-2.555122e+00
1.148233e+01	-2.577309e+00
1.154865e+01	-2.599864e+00
1.161536e+01	-2.622411e+00
1.168245e+01	-2.645221e+00
1.174992e+01	-2.668004e+00
1.181779e+01	-2.691062e+00
1.188605e+01	-2.714140e+00
1.195470e+01	-2.737604e+00
1.202375e+01	-2.761120e+00
1.209320e+01	-2.785011e+00
1.216305e+01	-2.808279e+00
1.223330e+01	-2.832331e+00
1.230396e+01	-2.856274e+00
1.237503e+01	-2.880330e+00
1.244651e+01	-2.904835e+00
1.251840e+01	-2.929343e+00
1.259070e+01	-2.954124e+00
1.266343e+01	-2.978790e+00
1.273657e+01	-3.003572e+00
1.281014e+01	-3.028711e+00
1.288413e+01	-3.053765e+00
1.295855e+01	-3.079376e+00
1.303339e+01	-3.104776e+00
1.310867e+01	-3.130078e+00
1.318439e+01	-3.155918e+00
1.326054e+01	-3.181897e+00
1.333713e+01	-3.208011e+00
1.341417e+01	-3.234088e+00
1.349165e+01	-3.260567e+00
1.356958e+01	-3.287191e+00
1.364795e+01	-3.313541e+00
1.372678e+01	-3.340464e+00
1.380607e+01	-3.367105e+00
1.388581e+01	-3.394323e+00
1.396602e+01	-3.421554e+00
1.404668e+01	-3.449039e+00
1.412782e+01	-3.476397e+00
1.420942e+01	-3.504075e+00
1.429149e+01	-3.531910e+00
1.437404e+01	-3.559673e+00
1.445706e+01	-3.587932e+00
1.454057e+01	-3.615914e+00
1.462455e+01	-3.644629e+00
1.470902e+01	-3.672543e+00
1.479398e+01	-3.701538e+00
1.487943e+01	-3.730162e+00
1.496537e+01	-3.759031e+00
1.505181e+01	-3.788035e+00
1.513875e+01	-3.817417e+00
1.522619e+01	-3.846638e+00
1.531414e+01	-3.876112e+00
1.540259e+01	-3.905749e+00
1.549156e+01	-3.935641e+00
1.558103e+01	-3.965268e+00
1.567103e+01	-3.995402e+00
1.576155e+01	-4.025535e+00
1.585258e+01	-4.055827e+00
1.594415e+01	-4.086340e+00
1.603624e+01	-4.116683e+00
1.612886e+01	-4.147688e+00
1.622202e+01	-4.178220e+00
1.631572e+01	-4.209206e+00
1.640996e+01	-4.240385e+00
1.650474e+01	-4.271661e+00
1.660008e+01	-4.303294e+00
1.669596e+01	-4.334562e+00
1.679239e+01	-4.366331e+00
1.688938e+01	-4.397929e+00
1.698694e+01	-4.430089e+00
1.708505e+01	-4.461968e+00
1.718373e+01	-4.494163e+00
1.728299e+01	-4.526495e+00
1.738281e+01	-4.559111e+00
1.748322e+01	-4.591251e+00
1.758420e+01	-4.624453e+00
1.768576e+01	-4.657079e+00
1.778792e+01	-4.690098e+00
1.789066e+01	-4.723223e+00
1.799399e+01	-4.756433e+00
1.809793e+01	-4.789798e+00
1.820246e+01	-4.823342e+00
1.830760e+01	-4.857109e+00
1.841334e+01	-4.890743e+00
1.851969e+01	-4.924476e+00
1.862666e+01	-4.958314e+00
1.873425e+01	-4.992441e+00
1.884246e+01	-5.026958e+00
1.895129e+01	-5.061438e+00
1.906075e+01	-5.095872e+00
1.917085e+01	-5.130067e+00
1.928158e+01	-5.164748e+00
1.939295e+01	-5.199707e+00
1.950496e+01	-5.234915e+00
1.961762e+01	-5.269869e+00
1.973093e+01	-5.305229e+00
1.984490e+01	-5.340608e+00
1.995952e+01	-5.376068e+00
2.007480e+01	-5.411657e+00
2.019076e+01	-5.447409e+00
2.030738e+01	-5.482875e+00
2.042467e+01	-5.519002e+00
2.054264e+01	-5.555110e+00
2.066130e+01	-5.591006e+00
2.078064e+01	-5.627682e+00
2.090066e+01	-5.663872e+00
2.102139e+01	-5.700318e+00
2.114280e+01	-5.737055e+00
2.126492e+01	-5.773686e+00
2.138775e+01	-5.810787e+00
2.151128e+01	-5.847600e+00
2.163553e+01	-5.884674e+00
2.176050e+01	-5.921754e+00
2.188619e+01	-5.958985e+00
2.201260e+01	-5.996182e+00
2.213974e+01	-6.033788e+00
2.226762e+01	-6.071510e+00
2.239624e+01	-6.109403e+00
2.252560e+01	-6.147532e+00
2.265571e+01	-6.184825e+00
2.278656e+01	-6.223301e+00
2.291818e+01	-6.261272e+00
2.305055e+01	-6.299243e+00
2.318369e+01	-6.337483e+00
2.331760e+01	-6.376538e+00
2.345228e+01	-6.414852e+00
2.358774e+01	-6.453447e+00
2.372398e+01	-6.492029e+00
2.386101e+01	-6.530968e+00
2.399883e+01	-6.569767e+00
2.413745e+01	-6.609149e+00
2.427686e+01	-6.648301e+00
2.441709e+01	-6.687410e+00
2.455812e+01	-6.726646e+00
2.469997e+01	-6.765957e+00
2.484263e+01	-6.805826e+00
2.498612e+01	-6.845439e+00
2.513044e+01	-6.885044e+00
2.527559e+01	-6.925177e+00
2.542158e+01	-6.964911e+00
2.556842e+01	-7.004605e+00
2.571610e+01	-7.045021e+00
2.586463e+01	-7.085495e+00
2.601403e+01	-7.125690e+00
2.616428e+01	-7.165902e+00
2.631541e+01	-7.206026e+00
2.646740e+01	-7.246956e+00
2.662028e+01	-7.287451e+00
2.677404e+01	-7.328005e+00
2.692868e+01	-7.369145e+00
2.708422e+01	-7.410397e+00
2.724066e+01	-7.450791e+00
2.739800e+01	-7.492400e+00
2.755625e+01	-7.532815e+00
2.771541e+01	-7.574652e+00
2.787550e+01	-7.615597e+00
2.803650e+01	-7.657178e+00
2.819844e+01	-7.698751e+00
2.836131e+01	-7.740300e+00
2.852513e+01	-7.781693e+00
2.868989e+01	-7.822977e+00
2.885560e+01	-7.865324e+00
2.902227e+01	-7.907246e+00
2.918990e+01	-7.949464e+00
2.935850e+01	-7.991598e+00
2.952807e+01	-8.033516e+00
2.969863e+01	-8.076052e+00
2.987016e+01	-8.117964e+00
3.004269e+01	-8.160336e+00
3.021622e+01	-8.202622e+00
3.039075e+01	-8.245195e+00
3.056628e+01	-8.287479e+00
3.074283e+01	-8.329969e+00
3.092040e+01	-8.373185e+00
3.109900e+01	-8.415640e+00
3.127862e+01	-8.458818e+00
3.145929e+01	-8.501658e+00
3.164099e+01	-8.544564e+00
3.182375e+01	-8.587954e+00
3.200756e+01	-8.631140e+00
3.219244e+01	-8.673877e+00
3.237838e+01	-8.717534e+00
3.256540e+01	-8.760595e+00
3.275349e+01	-8.803992e+00
3.294268e+01	-8.847641e+00
3.313295e+01	-8.891225e+00
3.332433e+01	-8.934605e+00
3.351681e+01	-8.978478e+00
3.371040e+01	-9.022371e+00
3.390511e+01	-9.066132e+00
3.410094e+01	-9.109392e+00
3.429791e+01	-9.153957e+00
3.449601e+01	-9.197454e+00
3.469526e+01	-9.241331e+00
3.489566e+01	-9.286031e+00
3.509721e+01	-9.329641e+00
3.529993e+01	-9.374262e+00
3.550382e+01	-9.418132e+00
3.570889e+01	-9.462816e+00
3.591515e+01	-9.507513e+00
3.612259e+01	-9.551406e+00
3.633123e+01	-9.596357e+00
3.654108e+01	-9.640854e+00
3.675214e+01	-9.685158e+00
3.696442e+01	-9.729998e+00
3.717792e+01	-9.774678e+00
3.739266e+01	-9.819622e+00
3.760864e+01	-9.864139e+00
3.782587e+01	-9.909703e+00
3.804435e+01	-9.953976e+00
3.826409e+01	-9.999334e+00
3.848510e+01	-1.004411e+01
3.870739e+01	-1.008922e+01
3.893096e+01	-1.013383e+01
3.915583e+01	-1.017977e+01
3.938199e+01	-1.022494e+01
3.960946e+01	-1.027041e+01
3.983824e+01	-1.031527e+01
4.006834e+01	-1.036115e+01
4.029978e+01	-1.040653e+01
4.053255e+01	-1.045257e+01
4.076666e+01	-1.049772e+01
4.100213e+01	-1.054308e+01
4.123896e+01	-1.058901e+01
4.147715e+01	-1.063506e+01
4.171672e+01	-1.067976e+01
4.195767e+01	-1.072594e+01
4.220002e+01	-1.077175e+01
4.244377e+01	-1.081778e+01
4.268892e+01	-1.086297e+01
4.293549e+01	-1.090906e+01
4.318348e+01	-1.095441e+01
4.343291e+01	-1.100138e+01
4.368377e+01	-1.104754e+01
4.393609e+01	-1.109344e+01
4.418986e+01	-1.113928e+01
4.444510e+01	-1.118633e+01
4.470182e+01	-1.123249e+01
4.496001e+01	-1.127820e+01
4.521970e+01	-1.132505e+01
4.548089e+01	-1.137056e+01
4.574358e+01	-1.141763e+01
4.600779e+01	-1.146421e+01
4.627353e+01	-1.151063e+01
4.654081e+01	-1.155693e+01
4.680963e+01	-1.160395e+01
4.708000e+01	-1.164947e+01
4.735193e+01	-1.169680e+01
4.762543e+01	-1.174334e+01
4.790051e+01	-1.179007e+01
4.817719e+01	-1.183650e+01
4.845545e+01	-1.188349e+01
4.873533e+01	-1.192996e+01
4.901682e+01	-1.197758e+01
4.929994e+01	-1.202421e+01
4.958470e+01	-1.207091e+01
4.987110e+01	-1.211776e+01
5.015915e+01	-1.216544e+01
5.044887e+01	-1.221156e+01
5.074026e+01	-1.225928e+01
5.103333e+01	-1.230612e+01
5.132810e+01	-1.235253e+01
5.162457e+01	-1.239958e+01
5.192275e+01	-1.244719e+01
5.222265e+01	-1.249397e+01
5.252429e+01	-1.254193e+01
5.282767e+01	-1.258815e+01
5.313280e+01	-1.263662e+01
5.343969e+01	-1.268294e+01
5.374836e+01	-1.273141e+01
5.405880e+01	-1.277758e+01
5.437105e+01	-1.282648e+01
5.468509e+01	-1.287293e+01
5.500095e+01	-1.292095e+01
5.531863e+01	-1.296815e+01
5.563815e+01	-1.301609e+01
5.595951e+01	-1.306285e+01
5.628273e+01	-1.311005e+01
5.660782e+01	-1.315887e+01
5.693479e+01	-1.320599e+01
5.726364e+01	-1.325356e+01
5.759439e+01	-1.330126e+01
5.792705e+01	-1.334868e+01
5.826164e+01	-1.339733e+01
5.859815e+01	-1.344510e+01
5.893662e+01	-1.349159e+01
5.927703e+01	-1.354046e+01
5.961941e+01	-1.358776e+01
5.996377e+01	-1.363552e+01
6.031012e+01	-1.368407e+01
6.065847e+01	-1.373107e+01
6.100883e+01	-1.377955e+01
6.136121e+01	-1.382723e+01
6.171563e+01	-1.387526e+01
6.207210e+01	-1.392337e+01
6.243063e+01	-1.397080e+01
6.279122e+01	-1.401928e+01
6.315390e+01	-1.406723e+01
6.351868e+01	-1.411540e+01
6.388556e+01	-1.416361e+01
6.425456e+01	-1.421129e+01
6.462569e+01	-1.425979e+01
6.499897e+01	-1.430856e+01
6.537440e+01	-1.435600e+01
6.575200e+01	-1.440399e+01
6.613178e+01	-1.445324e+01
6.651375e+01	-1.450079e+01
6.689793e+01	-1.454940e+01
6.728433e+01	-1.459680e+01
6.767297e+01	-1.464555e+01
6.806384e+01	-1.469409e+01
6.845698e+01	-1.474295e+01
6.885238e+01	-1.479109e+01
6.925007e+01	-1.483784e+01
6.965005e+01	-1.488811e+01
7.005235e+01	-1.493557e+01
7.045697e+01	-1.498420e+01
7.086393e+01	-1.503175e+01
7.127323e+01	-1.508080e+01
7.168490e+01	-1.512978e+01
7.209895e+01	-1.517849e+01
7.251539e+01	-1.522753e+01
7.293424e+01	-1.527511e+01
7.335551e+01	-1.532335e+01
7.377920e+01	-1.537191e+01
7.420535e+01	-1.542068e+01
7.463396e+01	-1.546967e+01
7.506504e+01	-1.551726e+01
7.549861e+01	-1.556768e+01
7.593469e+01	-1.561533e+01
7.637328e+01	-1.566389e+01
7.681441e+01	-1.571222e+01
7.725809e+01	-1.576121e+01
7.770433e+01	-1.581012e+01
7.815315e+01	-1.585968e+01
7.860456e+01	-1.590782e+01
7.905857e+01	-1.595684e+01
7.951521e+01	-1.600620e+01
7.997449e+01	-1.605371e+01
8.043642e+01	-1.610334e+01
8.090102e+01	-1.615091e+01
8.136830e+01	-1.620098e+01
8.183828e+01	-1.624902e+01
8.231097e+01	-1.629765e+01
8.278640e+01	-1.634704e+01
8.326457e+01	-1.639498e+01
8.374550e+01	-1.644485e+01
8.422921e+01	-1.649410e+01
8.471572e+01	-1.654210e+01
8.520503e+01	-1.659115e+01
8.569717e+01	-1.664162e+01
8.619215e+01	-1.668970e+01
8.669000e+01	-1.673733e+01
8.719071e+01	-1.678815e+01
8.769432e+01	-1.683604e+01
8.820084e+01	-1.688655e+01
8.871029e+01	-1.693379e+01
8.922267e+01	-1.698339e+01
8.973802e+01	-1.703268e+01
9.025634e+01	-1.708113e+01
9.077766e+01	-1.712982e+01
9.130199e+01	-1.718003e+01
9.182935e+01	-1.722981e+01
9.235975e+01	-1.727659e+01
9.289321e+01	-1.732766e+01
9.342976e+01	-1.737587e+01
9.396941e+01	-1.742445e+01
9.451217e+01	-1.747503e+01
9.505807e+01	-1.752323e+01
9.560712e+01	-1.757210e+01
9.615934e+01	-1.762201e+01
9.671476e+01	-1.767067e+01
9.727338e+01	-1.772034e+01
9.783522e+01	-1.776962e+01
9.840032e+01	-1.781897e+01
9.896867e+01	-1.786755e+01
9.954031e+01	-1.791745e+01
1.001153e+02	-1.796564e+01
1.006935e+02	-1.801514e+01
1.012751e+02	-1.806584e+01
1.018601e+02	-1.811337e+01
1.024484e+02	-1.816094e+01
1.030402e+02	-1.821185e+01
1.036353e+02	-1.826211e+01
1.042339e+02	-1.830989e+01
1.048360e+02	-1.836026e+01
1.054415e+02	-1.840960e+01
1.060505e+02	-1.845883e+01
1.066631e+02	-1.850874e+01
1.072791e+02	-1.855734e+01
1.078988e+02	-1.860686e+01
1.085220e+02	-1.865721e+01
1.091488e+02	-1.870539e+01
1.097793e+02	-1.875591e+01
1.104133e+02	-1.880428e+01
1.110511e+02	-1.885283e+01
1.116925e+02	-1.890378e+01
1.123376e+02	-1.895396e+01
1.129865e+02	-1.900134e+01
1.136391e+02	-1.904944e+01
1.142955e+02	-1.910158e+01
1.149556e+02	-1.915015e+01
1.156196e+02	-1.920070e+01
1.162874e+02	-1.924835e+01
1.169591e+02	-1.929901e+01
1.176347e+02	-1.934971e+01
1.183141e+02	-1.939633e+01
1.189975e+02	-1.944817e+01
1.196848e+02	-1.949668e+01
1.203761e+02	-1.954636e+01
1.210714e+02	-1.959486e+01
1.217707e+02	-1.964555e+01
1.224740e+02	-1.969526e+01
1.231814e+02	-1.974423e+01
1.238929e+02	-1.979267e+01
1.246085e+02	-1.984197e+01
1.253283e+02	-1.989127e+01
1.260522e+02	-1.994324e+01
1.267802e+02	-1.999184e+01
1.275125e+02	-2.003987e+01
1.282490e+02	-2.009012e+01
1.289898e+02	-2.013977e+01
1.297348e+02	-2.019010e+01
1.304842e+02	-2.023983e+01
1.312378e+02	-2.028912e+01
1.319959e+02	-2.033929e+01
1.327583e+02	-2.038774e+01
1.335251e+02	-2.043771e+01
1.342963e+02	-2.048749e+01
1.350720e+02	-2.053699e+01
1.358522e+02	-2.058572e+01
1.366368e+02	-2.063666e+01
1.374260e+02	-2.068531e+01
1.382198e+02	-2.073403e+01
1.390182e+02	-2.078456e+01
1.398211e+02	-2.083286e+01
1.406287e+02	-2.088415e+01
1.414410e+02	-2.093518e+01
1.422579e+02	-2.098236e+01
1.430796e+02	-2.103191e+01
1.439060e+02	-2.108212e+01
1.447372e+02	-2.113282e+01
1.455732e+02	-2.118282e+01
1.464141e+02	-2.122997e+01
1.472597e+02	-2.128066e+01
1.481103e+02	-2.133117e+01
1.489658e+02	-2.137986e+01
1.498262e+02	-2.142843e+01
1.506916e+02	-2.148025e+01
1.515620e+02	-2.152890e+01
1.524374e+02	-2.158114e+01
1.533179e+02	-2.162896e+01
1.542034e+02	-2.167635e+01
1.550941e+02	-2.172794e+01
1.559899e+02	-2.177792e+01
1.568909e+02	-2.182684e+01
1.577971e+02	-2.187739e+01
1.587085e+02	-2.192927e+01
1.596252e+02	-2.197701e+01
1.605472e+02	-2.202748e+01
1.614745e+02	-2.207556e+01
1.624072e+02	-2.212744e+01
1.633453e+02	-2.217511e+01
1.642887e+02	-2.222478e+01
1.652377e+02	-2.227493e+01
1.661921e+02	-2.232465e+01
1.671520e+02	-2.237484e+01
1.681175e+02	-2.242280e+01
1.690885e+02	-2.247460e+01
1.700651e+02	-2.252395e+01
1.710474e+02	-2.257285e+01
1.720354e+02	-2.262253e+01
1.730291e+02	-2.267410e+01
1.740285e+02	-2.272447e+01
1.750337e+02	-2.277381e+01
1.760446e+02	-2.282324e+01
1.770615e+02	-2.287274e+01
1.780842e+02	-2.292376e+01
1.791128e+02	-2.297098e+01
1.801473e+02	-2.302153e+01
1.811878e+02	-2.307195e+01
1.822344e+02	-2.312129e+01
1.832870e+02	-2.317237e+01
1.843456e+02	-2.321890e+01
1.854104e+02	-2.327214e+01
1.864813e+02	-2.332116e+01
1.875584e+02	-2.337168e+01
1.886418e+02	-2.342165e+01
1.897313e+02	-2.347102e+01
1.908272e+02	-2.352136e+01
1.919294e+02	-2.356969e+01
1.930380e+02	-2.361768e+01
1.941530e+02	-2.367073e+01
1.952744e+02	-2.371938e+01
1.964023e+02	-2.377023e+01
1.975367e+02	-2.381939e+01
1.986777e+02	-2.386869e+01
1.998252e+02	-2.392020e+01
2.009794e+02	-2.396848e+01
2.021403e+02	-2.401779e+01
2.033078e+02	-2.406901e+01
2.044821e+02	-2.411755e+01
2.056632e+02	-2.417007e+01
2.068511e+02	-2.421693e+01
2.080459e+02	-2.426979e+01
2.092475e+02	-2.431975e+01
2.104561e+02	-2.436827e+01
2.116717e+02	-2.441595e+01
2.128943e+02	-2.446591e+01
2.141240e+02	-2.451604e+01
2.153608e+02	-2.456891e+01
2.166047e+02	-2.461901e+01
2.178558e+02	-2.466841e+01
2.191141e+02	-2.471671e+01
2.203797e+02	-2.476406e+01
2.216526e+02	-2.481549e+01
2.229329e+02	-2.486791e+01
2.242205e+02	-2.491501e+01
2.255156e+02	-2.496930e+01
2.268182e+02	-2.501524e+01
2.281283e+02	-2.506519e+01
2.294459e+02	-2.511568e+01
2.307712e+02	-2.516744e+01
2.321041e+02	-2.521455e+01
2.334447e+02	-2.526379e+01
2.347931e+02	-2.531774e+01
2.361493e+02	-2.536418e+01
2.375133e+02	-2.541371e+01
2.388851e+02	-2.546683e+01
2.402649e+02	-2.551484e+01
2.416527e+02	-2.556649e+01
2.430484e+02	-2.561783e+01
2.444523e+02	-2.566475e+01
2.458642e+02	-2.571436e+01
2.472843e+02	-2.576733e+01
2.487126e+02	-2.581304e+01
2.501492e+02	-2.586440e+01
2.515940e+02	-2.591534e+01
2.530472e+02	-2.596592e+01
2.545088e+02	-2.601554e+01
2.559789e+02	-2.606585e+01
2.574574e+02	-2.611597e+01
2.589444e+02	-2.616537e+01
2.604401e+02	-2.621363e+01
2.619444e+02	-2.626630e+01
2.634574e+02	-2.631534e+01
2.649791e+02	-2.636377e+01
2.665096e+02	-2.641594e+01
2.680489e+02	-2.646664e+01
2.695972e+02	-2.651782e+01
2.711544e+02	-2.656612e+01
2.727205e+02	-2.661759e+01
2.742958e+02	-2.666636e+01
2.758801e+02	-2.671542e+01
2.774736e+02	-2.676383e+01
2.790762e+02	-2.681299e+01
2.806882e+02	-2.686354e+01
2.823094e+02	-2.691311e+01
2.839400e+02	-2.696162e+01
2.855800e+02	-2.701716e+01
2.872295e+02	-2.706297e+01
2.888886e+02	-2.711570e+01
2.905572e+02	-2.716779e+01
2.922354e+02	-2.721347e+01
2.939234e+02	-2.726359e+01
2.956211e+02	-2.731617e+01
2.973286e+02	-2.736803e+01
2.990459e+02	-2.741761e+01
3.007732e+02	-2.746391e+01
3.025104e+02	-2.751620e+01
3.042577e+02	-2.756491e+01
3.060151e+02	-2.761726e+01
3.077826e+02	-2.765990e+01
3.095604e+02	-2.771701e+01
3.113484e+02	-2.776868e+01
3.131467e+02	-2.781435e+01
3.149554e+02	-2.786647e+01
3.167746e+02	-2.791667e+01
3.186043e+02	-2.796475e+01
3.204445e+02	-2.801150e+01
3.222954e+02	-2.806591e+01
3.241570e+02	-2.811417e+01
3.260293e+02	-2.816550e+01
3.279124e+02	-2.821370e+01
3.298064e+02	-2.826929e+01
3.317114e+02	-2.831598e+01
3.336273e+02	-2.836569e+01
3.355544e+02	-2.841654e+01
3.374925e+02	-2.846402e+01
3.394418e+02	-2.852025e+01
3.414024e+02	-2.856301e+01
3.433744e+02	-2.861737e+01
3.453577e+02	-2.866527e+01
3.473525e+02	-2.871524e+01
3.493588e+02	-2.876893e+01
3.513766e+02	-2.881852e+01
3.534062e+02	-2.886863e+01
3.554474e+02	-2.891753e+01
3.575005e+02	-2.896209e+01
3.595654e+02	-2.901423e+01
3.616422e+02	-2.906891e+01
3.637311e+02	-2.911404e+01
3.658320e+02	-2.916631e+01
3.679450e+02	-2.921493e+01
3.700702e+02	-2.926314e+01
3.722077e+02	-2.931491e+01
3.743576e+02	-2.936853e+01
3.765199e+02	-2.941713e+01
3.786946e+02	-2.946798e+01
3.808820e+02	-2.952010e+01
3.830819e+02	-2.956609e+01
3.852946e+02	-2.961986e+01
3.875200e+02	-2.966866e+01
3.897583e+02	-2.971274e+01
3.920096e+02	-2.977189e+01
3.942738e+02	-2.982244e+01
3.965511e+02	-2.986705e+01
3.988416e+02	-2.991688e+01
4.011452e+02	-2.996382e+01
4.034622e+02	-3.001469e+01
4.057926e+02	-3.007092e+01
4.081365e+02	-3.011983e+01
4.104938e+02	-3.016289e+01
4.128648e+02	-3.021905e+01
4.152495e+02	-3.027423e+01
4.176480e+02	-3.031726e+01
4.200603e+02	-3.037014e+01
4.224866e+02	-3.041860e+01
4.249268e+02	-3.046834e+01
4.273812e+02	-3.051748e+01
4.298497e+02	-3.057182e+01
4.323325e+02	-3.061629e+01
4.348297e+02	-3.066962e+01
4.373412e+02	-3.072255e+01
4.398673e+02	-3.076873e+01
4.424079e+02	-3.081881e+01
4.449633e+02	-3.086822e+01
4.475334e+02	-3.091649e+01
4.501183e+02	-3.097032e+01
4.527182e+02	-3.101747e+01
4.553330e+02	-3.107400e+01
4.579630e+02	-3.112170e+01
4.606082e+02	-3.116572e+01
4.632687e+02	-3.122119e+01
4.659445e+02	-3.127299e+01
4.686358e+02	-3.132296e+01
4.713426e+02	-3.137301e+01
4.740650e+02	-3.141705e+01
4.768032e+02	-3.147141e+01
4.795572e+02	-3.152251e+01
4.823271e+02	-3.157042e+01
4.851130e+02	-3.162031e+01
4.879150e+02	-3.167065e+01
4.907332e+02	-3.172390e+01
4.935676e+02	-3.177405e+01
4.964185e+02	-3.182271e+01
4.992858e+02	-3.186933e+01
5.021696e+02	-3.191633e+01
5.050701e+02	-3.197833e+01
5.079874e+02	-3.202755e+01
5.109215e+02	-3.207652e+01
5.138726e+02	-3.212037e+01
5.168407e+02	-3.217691e+01
5.198259e+02	-3.222675e+01
5.228284e+02	-3.227767e+01
5.258482e+02	-3.232965e+01
5.288855e+02	-3.237053e+01
5.319403e+02	-3.242647e+01
5.350128e+02	-3.247628e+01
5.381030e+02	-3.252495e+01
5.412111e+02	-3.257107e+01
5.443371e+02	-3.262465e+01
5.474812e+02	-3.268698e+01
5.506434e+02	-3.272900e+01
5.538239e+02	-3.277237e+01
5.570228e+02	-3.282552e+01
5.602401e+02	-3.287612e+01
5.634760e+02	-3.292524e+01
5.667306e+02	-3.297629e+01
5.700040e+02	-3.302779e+01
5.732964e+02	-3.308038e+01
5.766077e+02	-3.312576e+01
5.799382e+02	-3.317390e+01
5.832879e+02	-3.322361e+01
5.866569e+02	-3.327798e+01
5.900454e+02	-3.333185e+01
5.934535e+02	-3.338642e+01
5.968813e+02	-3.342583e+01
6.003288e+02	-3.348000e+01
6.037963e+02	-3.352802e+01
6.072838e+02	-3.358434e+01
6.107914e+02	-3.362837e+01
6.143194e+02	-3.368483e+01
6.178676e+02	-3.372871e+01
6.214364e+02	-3.378245e+01
6.250258e+02	-3.383686e+01
6.286359e+02	-3.388547e+01
6.322669e+02	-3.393806e+01
6.359189e+02	-3.398631e+01
6.395919e+02	-3.403404e+01
6.432862e+02	-3.409236e+01
6.470017e+02	-3.413549e+01
6.507388e+02	-3.419126e+01
6.544974e+02	-3.423649e+01
6.582778e+02	-3.429055e+01
6.620800e+02	-3.434398e+01
6.659041e+02	-3.438105e+01
6.697504e+02	-3.444486e+01
6.736188e+02	-3.448673e+01
6.775096e+02	-3.453963e+01
6.814229e+02	-3.458843e+01
6.853587e+02	-3.464796e+01
6.893173e+02	-3.469252e+01
6.932988e+02	-3.473688e+01
6.973033e+02	-3.479979e+01
7.013309e+02	-3.484342e+01
