Frequency(Hz)	Magnitude(dB)
1.000000e+01	-2.157676e+00
1.005776e+01	-2.177332e+00
1.011585e+01	-2.197022e+00
1.017428e+01	-2.216865e+00
1.023305e+01	-2.237075e+00
1.029215e+01	-2.257327e+00
1.035160e+01	-2.277479e+00
1.041139e+01	-2.298309e+00
1.047153e+01	-2.318644e+00
1.053201e+01	-2.339458e+00
1.059284e+01	-2.360374e+00
1.065403e+01	-2.381460e+00
1.071556e+01	-2.402610e+00
1.077746e+01	-2.423936e+00
1.083971e+01	-2.445396e+00
1.090232e+01	-2.467136e+00
1.096529e+01	-2.488880e+00
1.102862e+01	-2.510488e+00
1.109232e+01	-2.533051e+00
1.115639e+01	-2.554933e+00
1.122083e+01	-2.577330e+00
1.128564e+01	-2.599717e+00
1.135083e+01	-2.622345e+00
1.141639e+01	-2.644965e+00
1.148233e+01	-2.667795e+00
1.154865e+01	-2.690880e+00
1.161536e+01	-2.714004e+00
1.168245e+01	-2.737335e+00
1.174992e+01	-2.760823e+00
1.181779e+01	-2.784440e+00
1.188605e+01	-2.808285e+00
1.195470e+01	-2.832162e+00
1.202375e+01	-2.856352e+00
1.209320e+01	-2.880208e+00
1.216305e+01	-2.904706e+00
1.223330e+01	-2.929142e+00
1.230396e+01	-2.953996e+00
1.237503e+01	-2.978553e+00
1.244651e+01	-3.003517e+00
1.251840e+01	-3.028486e+00
1.259070e+01	-3.053456e+00
1.266343e+01	-3.078756e+00
1.273657e+01	-3.104309e+00
1.281014e+01	-3.130373e+00
1.288413e+01	-3.155946e+00
1.295855e+01	-3.181598e+00
1.303339e+01	-3.207844e+00
1.310867e+01	-3.233875e+00
1.318439e+01	-3.260341e+00
1.326054e+01	-3.286495e+00
1.333713e+01	-3.313561e+00
1.341417e+01	-3.340120e+00
1.349165e+01	-3.367032e+00
1.356958e+01	-3.394145e+00
1.364795e+01	-3.421270e+00
1.372678e+01	-3.448933e+00
1.380607e+01	-3.476086e+00
1.388581e+01	-3.503991e+00
1.396602e+01	-3.531559e+00
1.404668e+01	-3.559365e+00
1.412782e+01	-3.587695e+00
1.420942e+01	-3.616006e+00
1.429149e+01	-3.644047e+00
1.437404e+01	-3.672482e+00
1.445706e+01	-3.701215e+00
1.454057e+01	-3.729806e+00
1.462455e+01	-3.758728e+00
1.470902e+01	-3.788069e+00
1.479398e+01	-3.816988e+00
1.487943e+01	-3.846334e+00
1.496537e+01	-3.875669e+00
1.505181e+01	-3.905310e+00
1.513875e+01	-3.935121e+00
1.522619e+01	-3.965013e+00
1.531414e+01	-3.995062e+00
1.540259e+01	-4.025404e+00
1.549156e+01	-4.055403e+00
1.558103e+01	-4.086196e+00
1.567103e+01	-4.116671e+00
1.576155e+01	-4.147486e+00
1.585258e+01	-4.178014e+00
1.594415e+01	-4.209324e+00
1.603624e+01	-4.240382e+00
1.612886e+01	-4.271299e+00
1.622202e+01	-4.302685e+00
1.631572e+01	-4.334513e+00
1.640996e+01	-4.365720e+00
1.650474e+01	-4.397850e+00
1.660008e+01	-4.429515e+00
1.669596e+01	-4.461691e+00
1.679239e+01	-4.493926e+00
1.688938e+01	-4.526467e+00
1.698694e+01	-4.558675e+00
1.708505e+01	-4.591391e+00
1.718373e+01	-4.624224e+00
1.728299e+01	-4.657036e+00
1.738281e+01	-4.689792e+00
1.748322e+01	-4.722953e+00
1.758420e+01	-4.756115e+00
1.768576e+01	-4.789686e+00
1.778792e+01	-4.822872e+00
1.789066e+01	-4.856524e+00
1.799399e+01	-4.890344e+00
1.809793e+01	-4.923865e+00
1.820246e+01	-4.957851e+00
1.830760e+01	-4.992341e+00
1.841334e+01	-5.026797e+00
1.851969e+01	-5.060962e+00
1.862666e+01	-5.095284e+00
1.873425e+01	-5.129713e+00
1.884246e+01	-5.165336e+00
1.895129e+01	-5.199551e+00
1.906075e+01	-5.234656e+00
1.917085e+01	-5.269767e+00
1.928158e+01	-5.304815e+00
1.939295e+01	-5.340081e+00
1.950496e+01	-5.375837e+00
1.961762e+01	-5.411345e+00
1.973093e+01	-5.447073e+00
1.984490e+01	-5.482846e+00
1.995952e+01	-5.518514e+00
2.007480e+01	-5.554817e+00
2.019076e+01	-5.590995e+00
2.030738e+01	-5.627059e+00
2.042467e+01	-5.663554e+00
2.054264e+01	-5.699933e+00
2.066130e+01	-5.736482e+00
2.078064e+01	-5.773495e+00
2.090066e+01	-5.810577e+00
2.102139e+01	-5.847318e+00
2.114280e+01	-5.884445e+00
2.126492e+01	-5.921394e+00
2.138775e+01	-5.958785e+00
2.151128e+01	-5.996222e+00
2.163553e+01	-6.033611e+00
2.176050e+01	-6.071399e+00
2.188619e+01	-6.108655e+00
2.201260e+01	-6.146958e+00
2.213974e+01	-6.185066e+00
2.226762e+01	-6.222981e+00
2.239624e+01	-6.261010e+00
2.252560e+01	-6.299166e+00
2.265571e+01	-6.337918e+00
2.278656e+01	-6.375991e+00
2.291818e+01	-6.414479e+00
2.305055e+01	-6.453479e+00
2.318369e+01	-6.491832e+00
2.331760e+01	-6.530852e+00
2.345228e+01	-6.569626e+00
2.358774e+01	-6.608932e+00
2.372398e+01	-6.648003e+00
2.386101e+01	-6.687092e+00
2.399883e+01	-6.726785e+00
2.413745e+01	-6.765952e+00
2.427686e+01	-6.805646e+00
2.441709e+01	-6.845197e+00
2.455812e+01	-6.885053e+00
2.469997e+01	-6.924861e+00
2.484263e+01	-6.964238e+00
2.498612e+01	-7.004351e+00
2.513044e+01	-7.044880e+00
2.527559e+01	-7.084792e+00
2.542158e+01	-7.125100e+00
2.556842e+01	-7.165453e+00
2.571610e+01	-7.206186e+00
2.586463e+01	-7.246584e+00
2.601403e+01	-7.287059e+00
2.616428e+01	-7.327500e+00
2.631541e+01	-7.368632e+00
2.646740e+01	-7.409301e+00
2.662028e+01	-7.450382e+00
2.677404e+01	-7.491530e+00
2.692868e+01	-7.532767e+00
2.708422e+01	-7.573921e+00
2.724066e+01	-7.615607e+00
2.739800e+01	-7.656975e+00
2.755625e+01	-7.698386e+00
2.771541e+01	-7.739658e+00
2.787550e+01	-7.781880e+00
2.803650e+01	-7.823259e+00
2.819844e+01	-7.864887e+00
2.836131e+01	-7.907440e+00
2.852513e+01	-7.948584e+00
2.868989e+01	-7.991216e+00
2.885560e+01	-8.033066e+00
2.902227e+01	-8.075499e+00
2.918990e+01	-8.117696e+00
2.935850e+01	-8.159657e+00
2.952807e+01	-8.202242e+00
2.969863e+01	-8.244651e+00
2.987016e+01	-8.287601e+00
3.004269e+01	-8.329638e+00
3.021622e+01	-8.372550e+00
3.039075e+01	-8.415508e+00
3.056628e+01	-8.458439e+00
3.074283e+01	-8.501271e+00
3.092040e+01	-8.544028e+00
3.109900e+01	-8.587491e+00
3.127862e+01	-8.630566e+00
3.145929e+01	-8.673557e+00
3.164099e+01	-8.716780e+00
3.182375e+01	-8.760374e+00
3.200756e+01	-8.803602e+00
3.219244e+01	-8.847153e+00
3.237838e+01	-8.890644e+00
3.256540e+01	-8.934426e+00
3.275349e+01	-8.977819e+00
3.294268e+01	-9.021376e+00
3.313295e+01	-9.065572e+00
3.332433e+01	-9.108703e+00
3.351681e+01	-9.153627e+00
3.371040e+01	-9.197450e+00
3.390511e+01	-9.241298e+00
3.410094e+01	-9.285254e+00
3.429791e+01	-9.329659e+00
3.449601e+01	-9.373754e+00
3.469526e+01	-9.417919e+00
3.489566e+01	-9.462188e+00
3.509721e+01	-9.506885e+00
3.529993e+01	-9.551564e+00
3.550382e+01	-9.595831e+00
3.570889e+01	-9.639893e+00
3.591515e+01	-9.684846e+00
3.612259e+01	-9.729505e+00
3.633123e+01	-9.774564e+00
3.654108e+01	-9.818544e+00
3.675214e+01	-9.863422e+00
3.696442e+01	-9.908870e+00
3.717792e+01	-9.953394e+00
3.739266e+01	-9.998485e+00
3.760864e+01	-1.004380e+01
3.782587e+01	-1.008887e+01
3.804435e+01	-1.013407e+01
3.826409e+01	-1.017961e+01
3.848510e+01	-1.022436e+01
3.870739e+01	-1.026937e+01
3.893096e+01	-1.031468e+01
3.915583e+01	-1.036010e+01
3.938199e+01	-1.040587e+01
3.960946e+01	-1.045166e+01
3.983824e+01	-1.049696e+01
4.006834e+01	-1.054224e+01
4.029978e+01	-1.058804e+01
4.053255e+01	-1.063378e+01
4.076666e+01	-1.067986e+01
4.100213e+01	-1.072514e+01
4.123896e+01	-1.077118e+01
4.147715e+01	-1.081734e+01
4.171672e+01	-1.086341e+01
4.195767e+01	-1.090922e+01
4.220002e+01	-1.095483e+01
4.244377e+01	-1.100066e+01
4.268892e+01	-1.104731e+01
4.293549e+01	-1.109311e+01
4.318348e+01	-1.113967e+01
4.343291e+01	-1.118598e+01
4.368377e+01	-1.123178e+01
4.393609e+01	-1.127820e+01
4.418986e+01	-1.132498e+01
4.444510e+01	-1.137056e+01
4.470182e+01	-1.141749e+01
4.496001e+01	-1.146417e+01
4.521970e+01	-1.151017e+01
4.548089e+01	-1.155617e+01
4.574358e+01	-1.160322e+01
4.600779e+01	-1.164921e+01
4.627353e+01	-1.169670e+01
4.654081e+01	-1.174338e+01
4.680963e+01	-1.178978e+01
4.708000e+01	-1.183649e+01
4.735193e+01	-1.188339e+01
4.762543e+01	-1.193000e+01
4.790051e+01	-1.197615e+01
4.817719e+01	-1.202369e+01
4.845545e+01	-1.207072e+01
4.873533e+01	-1.211742e+01
4.901682e+01	-1.216404e+01
4.929994e+01	-1.221122e+01
4.958470e+01	-1.225816e+01
4.987110e+01	-1.230568e+01
5.015915e+01	-1.235221e+01
5.044887e+01	-1.239936e+01
5.074026e+01	-1.244708e+01
5.103333e+01	-1.249454e+01
5.132810e+01	-1.254131e+01
5.162457e+01	-1.258855e+01
5.192275e+01	-1.263642e+01
5.222265e+01	-1.268316e+01
5.252429e+01	-1.273018e+01
5.282767e+01	-1.277760e+01
5.313280e+01	-1.282507e+01
5.343969e+01	-1.287217e+01
5.374836e+01	-1.292048e+01
5.405880e+01	-1.296803e+01
5.437105e+01	-1.301542e+01
5.468509e+01	-1.306288e+01
5.500095e+01	-1.311081e+01
5.531863e+01	-1.315764e+01
5.563815e+01	-1.320492e+01
5.595951e+01	-1.325274e+01
5.628273e+01	-1.330131e+01
5.660782e+01	-1.334859e+01
5.693479e+01	-1.339710e+01
5.726364e+01	-1.344431e+01
5.759439e+01	-1.349186e+01
5.792705e+01	-1.353971e+01
5.826164e+01	-1.358717e+01
5.859815e+01	-1.363651e+01
5.893662e+01	-1.368309e+01
5.927703e+01	-1.373025e+01
5.961941e+01	-1.377873e+01
5.996377e+01	-1.382747e+01
6.031012e+01	-1.387501e+01
6.065847e+01	-1.392294e+01
6.100883e+01	-1.397088e+01
6.136121e+01	-1.401967e+01
6.171563e+01	-1.406765e+01
6.207210e+01	-1.411490e+01
6.243063e+01	-1.416277e+01
6.279122e+01	-1.421125e+01
6.315390e+01	-1.426072e+01
6.351868e+01	-1.430711e+01
6.388556e+01	-1.435544e+01
6.425456e+01	-1.440427e+01
6.462569e+01	-1.445225e+01
6.499897e+01	-1.450113e+01
6.537440e+01	-1.454882e+01
6.575200e+01	-1.459720e+01
6.613178e+01	-1.464614e+01
6.651375e+01	-1.469404e+01
6.689793e+01	-1.474228e+01
6.728433e+01	-1.479061e+01
6.767297e+01	-1.483890e+01
6.806384e+01	-1.488725e+01
6.845698e+01	-1.493555e+01
6.885238e+01	-1.498356e+01
6.925007e+01	-1.503282e+01
6.965005e+01	-1.508176e+01
7.005235e+01	-1.512915e+01
7.045697e+01	-1.517728e+01
7.086393e+01	-1.522657e+01
7.127323e+01	-1.527550e+01
7.168490e+01	-1.532351e+01
7.209895e+01	-1.537269e+01
7.251539e+01	-1.542069e+01
7.293424e+01	-1.546999e+01
7.335551e+01	-1.551781e+01
7.377920e+01	-1.556592e+01
7.420535e+01	-1.561431e+01
7.463396e+01	-1.566306e+01
7.506504e+01	-1.571203e+01
7.549861e+01	-1.576047e+01
7.593469e+01	-1.581091e+01
7.637328e+01	-1.585775e+01
7.681441e+01	-1.590723e+01
7.725809e+01	-1.595566e+01
7.770433e+01	-1.600493e+01
7.815315e+01	-1.605417e+01
7.860456e+01	-1.610256e+01
7.905857e+01	-1.615172e+01
7.951521e+01	-1.619902e+01
7.997449e+01	-1.624865e+01
8.043642e+01	-1.629749e+01
8.090102e+01	-1.634647e+01
8.136830e+01	-1.639535e+01
8.183828e+01	-1.644327e+01
8.231097e+01	-1.649413e+01
8.278640e+01	-1.654210e+01
8.326457e+01	-1.659115e+01
8.374550e+01	-1.664011e+01
8.422921e+01	-1.668857e+01
8.471572e+01	-1.673755e+01
8.520503e+01	-1.678669e+01
8.569717e+01	-1.683574e+01
8.619215e+01	-1.688519e+01
8.669000e+01	-1.693355e+01
8.719071e+01	-1.698312e+01
8.769432e+01	-1.703204e+01
8.820084e+01	-1.708193e+01
8.871029e+01	-1.713068e+01
8.922267e+01	-1.717963e+01
8.973802e+01	-1.722832e+01
9.025634e+01	-1.727757e+01
9.077766e+01	-1.732780e+01
9.130199e+01	-1.737578e+01
9.182935e+01	-1.742477e+01
9.235975e+01	-1.747459e+01
9.289321e+01	-1.752259e+01
9.342976e+01	-1.757245e+01
9.396941e+01	-1.762155e+01
9.451217e+01	-1.767007e+01
9.505807e+01	-1.771860e+01
9.560712e+01	-1.776902e+01
9.615934e+01	-1.781762e+01
9.671476e+01	-1.786769e+01
9.727338e+01	-1.791683e+01
9.783522e+01	-1.796434e+01
9.840032e+01	-1.801523e+01
9.896867e+01	-1.806411e+01
9.954031e+01	-1.811394e+01
1.001153e+02	-1.816375e+01
1.006935e+02	-1.821235e+01
1.012751e+02	-1.826182e+01
1.018601e+02	-1.831029e+01
1.024484e+02	-1.835932e+01
1.030402e+02	-1.840859e+01
1.036353e+02	-1.845801e+01
1.042339e+02	-1.850842e+01
1.048360e+02	-1.855608e+01
1.054415e+02	-1.860705e+01
1.060505e+02	-1.865615e+01
1.066631e+02	-1.870483e+01
1.072791e+02	-1.875452e+01
1.078988e+02	-1.880423e+01
1.085220e+02	-1.885401e+01
1.091488e+02	-1.890301e+01
1.097793e+02	-1.895122e+01
1.104133e+02	-1.900105e+01
1.110511e+02	-1.905141e+01
1.116925e+02	-1.909982e+01
1.123376e+02	-1.914922e+01
1.129865e+02	-1.919835e+01
1.136391e+02	-1.924779e+01
1.142955e+02	-1.929915e+01
1.149556e+02	-1.934826e+01
1.156196e+02	-1.939758e+01
1.162874e+02	-1.944662e+01
1.169591e+02	-1.949585e+01
1.176347e+02	-1.954399e+01
1.183141e+02	-1.959559e+01
1.189975e+02	-1.964527e+01
1.196848e+02	-1.969411e+01
1.203761e+02	-1.974200e+01
1.210714e+02	-1.979355e+01
1.217707e+02	-1.984167e+01
1.224740e+02	-1.989218e+01
1.231814e+02	-1.994226e+01
1.238929e+02	-1.999119e+01
1.246085e+02	-2.004086e+01
1.253283e+02	-2.008923e+01
1.260522e+02	-2.013976e+01
1.267802e+02	-2.018874e+01
1.275125e+02	-2.023912e+01
1.282490e+02	-2.028843e+01
1.289898e+02	-2.033633e+01
1.297348e+02	-2.038860e+01
1.304842e+02	-2.043710e+01
1.312378e+02	-2.048541e+01
1.319959e+02	-2.053734e+01
1.327583e+02	-2.058595e+01
1.335251e+02	-2.063613e+01
1.342963e+02	-2.068508e+01
1.350720e+02	-2.073479e+01
1.358522e+02	-2.078411e+01
1.366368e+02	-2.083402e+01
1.374260e+02	-2.088280e+01
1.382198e+02	-2.093334e+01
1.390182e+02	-2.098195e+01
1.398211e+02	-2.103249e+01
1.406287e+02	-2.108089e+01
1.414410e+02	-2.113220e+01
1.422579e+02	-2.118088e+01
1.430796e+02	-2.123157e+01
1.439060e+02	-2.128021e+01
1.447372e+02	-2.132968e+01
1.455732e+02	-2.138022e+01
1.464141e+02	-2.143123e+01
1.472597e+02	-2.148133e+01
1.481103e+02	-2.152714e+01
1.489658e+02	-2.157856e+01
1.498262e+02	-2.162867e+01
1.506916e+02	-2.167887e+01
1.515620e+02	-2.172738e+01
1.524374e+02	-2.177760e+01
1.533179e+02	-2.182697e+01
1.542034e+02	-2.187856e+01
1.550941e+02	-2.192633e+01
1.559899e+02	-2.197509e+01
1.568909e+02	-2.202517e+01
1.577971e+02	-2.207510e+01
1.587085e+02	-2.212585e+01
1.596252e+02	-2.217542e+01
1.605472e+02	-2.222425e+01
1.614745e+02	-2.227687e+01
1.624072e+02	-2.232629e+01
1.633453e+02	-2.237307e+01
1.642887e+02	-2.242469e+01
1.652377e+02	-2.247491e+01
1.661921e+02	-2.252509e+01
1.671520e+02	-2.257417e+01
1.681175e+02	-2.262223e+01
1.690885e+02	-2.267494e+01
1.700651e+02	-2.272299e+01
1.710474e+02	-2.277157e+01
1.720354e+02	-2.282258e+01
1.730291e+02	-2.287353e+01
1.740285e+02	-2.292324e+01
1.750337e+02	-2.297293e+01
1.760446e+02	-2.302169e+01
1.770615e+02	-2.307322e+01
1.780842e+02	-2.312122e+01
1.791128e+02	-2.317144e+01
1.801473e+02	-2.322012e+01
1.811878e+02	-2.326867e+01
1.822344e+02	-2.332226e+01
1.832870e+02	-2.336940e+01
1.843456e+02	-2.342121e+01
1.854104e+02	-2.346949e+01
1.864813e+02	-2.352215e+01
1.875584e+02	-2.356819e+01
1.886418e+02	-2.362085e+01
1.897313e+02	-2.366984e+01
1.908272e+02	-2.371753e+01
1.919294e+02	-2.376847e+01
1.930380e+02	-2.381799e+01
1.941530e+02	-2.386763e+01
1.952744e+02	-2.391899e+01
1.964023e+02	-2.396779e+01
1.975367e+02	-2.401825e+01
1.986777e+02	-2.406894e+01
1.998252e+02	-2.411794e+01
2.009794e+02	-2.416541e+01
2.021403e+02	-2.421739e+01
2.033078e+02	-2.426861e+01
2.044821e+02	-2.431803e+01
2.056632e+02	-2.437063e+01
2.068511e+02	-2.441525e+01
2.080459e+02	-2.446884e+01
2.092475e+02	-2.451579e+01
2.104561e+02	-2.456783e+01
2.116717e+02	-2.461817e+01
2.128943e+02	-2.466418e+01
2.141240e+02	-2.471249e+01
2.153608e+02	-2.476614e+01
2.166047e+02	-2.481576e+01
2.178558e+02	-2.486764e+01
2.191141e+02	-2.491634e+01
2.203797e+02	-2.496542e+01
2.216526e+02	-2.501289e+01
2.229329e+02	-2.506454e+01
2.242205e+02	-2.511915e+01
2.255156e+02	-2.516535e+01
2.268182e+02	-2.521529e+01
2.281283e+02	-2.526428e+01
2.294459e+02	-2.531581e+01
2.307712e+02	-2.536460e+01
2.321041e+02	-2.541430e+01
2.334447e+02	-2.546545e+01
2.347931e+02	-2.551730e+01
2.361493e+02	-2.556766e+01
2.375133e+02	-2.561819e+01
2.388851e+02	-2.566417e+01
2.402649e+02	-2.571682e+01
2.416527e+02	-2.576434e+01
2.430484e+02	-2.581241e+01
2.444523e+02	-2.586497e+01
2.458642e+02	-2.591273e+01
2.472843e+02	-2.596482e+01
2.487126e+02	-2.601311e+01
2.501492e+02	-2.606430e+01
2.515940e+02	-2.611010e+01
2.530472e+02	-2.616545e+01
2.545088e+02	-2.621552e+01
2.559789e+02	-2.626085e+01
2.574574e+02	-2.631336e+01
2.589444e+02	-2.636347e+01
2.604401e+02	-2.641210e+01
2.619444e+02	-2.646019e+01
2.634574e+02	-2.651484e+01
2.649791e+02	-2.656296e+01
2.665096e+02	-2.661242e+01
2.680489e+02	-2.666586e+01
2.695972e+02	-2.671466e+01
2.711544e+02	-2.676294e+01
2.727205e+02	-2.681201e+01
2.742958e+02	-2.686195e+01
2.758801e+02	-2.691171e+01
2.774736e+02	-2.696319e+01
2.790762e+02	-2.701078e+01
2.806882e+02	-2.706191e+01
2.823094e+02	-2.711304e+01
2.839400e+02	-2.716444e+01
2.855800e+02	-2.721386e+01
2.872295e+02	-2.726249e+01
2.888886e+02	-2.730672e+01
2.905572e+02	-2.736574e+01
2.922354e+02	-2.741463e+01
2.939234e+02	-2.746141e+01
2.956211e+02	-2.751051e+01
2.973286e+02	-2.755666e+01
2.990459e+02	-2.761107e+01
3.007732e+02	-2.766035e+01
3.025104e+02	-2.771582e+01
3.042577e+02	-2.776333e+01
3.060151e+02	-2.781729e+01
3.077826e+02	-2.786412e+01
3.095604e+02	-2.791341e+01
3.113484e+02	-2.796100e+01
3.131467e+02	-2.801051e+01
3.149554e+02	-2.806678e+01
3.167746e+02	-2.811218e+01
3.186043e+02	-2.815939e+01
3.204445e+02	-2.821062e+01
3.222954e+02	-2.826390e+01
3.241570e+02	-2.831210e+01
3.260293e+02	-2.836288e+01
3.279124e+02	-2.841462e+01
3.298064e+02	-2.846294e+01
3.317114e+02	-2.851701e+01
3.336273e+02	-2.856514e+01
3.355544e+02	-2.861443e+01
3.374925e+02	-2.866760e+01
3.394418e+02	-2.871637e+01
3.414024e+02	-2.875982e+01
3.433744e+02	-2.881947e+01
3.453577e+02	-2.886454e+01
3.473525e+02	-2.891430e+01
3.493588e+02	-2.896229e+01
3.513766e+02	-2.901557e+01
3.534062e+02	-2.906371e+01
3.554474e+02	-2.911550e+01
3.575005e+02	-2.916363e+01
3.595654e+02	-2.921423e+01
3.616422e+02	-2.926450e+01
3.637311e+02	-2.931187e+01
3.658320e+02	-2.936570e+01
3.679450e+02	-2.941712e+01
3.700702e+02	-2.946644e+01
3.722077e+02	-2.951343e+01
3.743576e+02	-2.956507e+01
3.765199e+02	-2.961828e+01
3.786946e+02	-2.966051e+01
3.808820e+02	-2.971866e+01
3.830819e+02	-2.976371e+01
3.852946e+02	-2.981327e+01
3.875200e+02	-2.986333e+01
3.897583e+02	-2.992348e+01
3.920096e+02	-2.996915e+01
3.942738e+02	-3.001483e+01
3.965511e+02	-3.006779e+01
3.988416e+02	-3.010922e+01
4.011452e+02	-3.016980e+01
4.034622e+02	-3.021766e+01
4.057926e+02	-3.026726e+01
4.081365e+02	-3.031915e+01
4.104938e+02	-3.036642e+01
4.128648e+02	-3.041935e+01
4.152495e+02	-3.047039e+01
4.176480e+02	-3.051849e+01
4.200603e+02	-3.057146e+01
4.224866e+02	-3.061256e+01
4.249268e+02	-3.066793e+01
4.273812e+02	-3.071393e+01
4.298497e+02	-3.076680e+01
4.323325e+02	-3.081266e+01
4.348297e+02	-3.087196e+01
4.373412e+02	-3.091820e+01
4.398673e+02	-3.096252e+01
4.424079e+02	-3.101843e+01
4.449633e+02	-3.106641e+01
4.475334e+02	-3.111597e+01
4.501183e+02	-3.117492e+01
4.527182e+02	-3.122155e+01
4.553330e+02	-3.127798e+01
4.579630e+02	-3.131756e+01
4.606082e+02	-3.136732e+01
4.632687e+02	-3.141834e+01
4.659445e+02	-3.147327e+01
4.686358e+02	-3.151914e+01
4.713426e+02	-3.157082e+01
4.740650e+02	-3.161167e+01
4.768032e+02	-3.167412e+01
4.795572e+02	-3.171894e+01
4.823271e+02	-3.176630e+01
4.851130e+02	-3.181807e+01
4.879150e+02	-3.186444e+01
4.907332e+02	-3.191799e+01
4.935676e+02	-3.196964e+01
4.964185e+02	-3.202131e+01
4.992858e+02	-3.207431e+01
5.021696e+02	-3.212230e+01
5.050701e+02	-3.217249e+01
5.079874e+02	-3.222255e+01
5.109215e+02	-3.227361e+01
5.138726e+02	-3.231435e+01
5.168407e+02	-3.236855e+01
5.198259e+02	-3.242071e+01
5.228284e+02	-3.247298e+01
5.258482e+02	-3.251818e+01
5.288855e+02	-3.257536e+01
5.319403e+02	-3.262417e+01
5.350128e+02	-3.267252e+01
5.381030e+02	-3.271931e+01
5.412111e+02	-3.277089e+01
5.443371e+02	-3.282051e+01
5.474812e+02	-3.287277e+01
5.506434e+02	-3.292945e+01
5.538239e+02	-3.296740e+01
5.570228e+02	-3.302554e+01
5.602401e+02	-3.307850e+01
5.634760e+02	-3.312304e+01
5.667306e+02	-3.317281e+01
5.700040e+02	-3.322728e+01
5.732964e+02	-3.327252e+01
5.766077e+02	-3.333061e+01
5.799382e+02	-3.338586e+01
5.832879e+02	-3.342857e+01
5.866569e+02	-3.348273e+01
5.900454e+02	-3.353137e+01
5.934535e+02	-3.358194e+01
5.968813e+02	-3.363143e+01
6.003288e+02	-3.368130e+01
6.037963e+02	-3.372374e+01
6.072838e+02	-3.377729e+01
6.107914e+02	-3.382430e+01
6.143194e+02	-3.388349e+01
6.178676e+02	-3.392475e+01
6.214364e+02	-3.398290e+01
6.250258e+02	-3.402758e+01
6.286359e+02	-3.408546e+01
6.322669e+02	-3.413178e+01
6.359189e+02	-3.417930e+01
6.395919e+02	-3.422728e+01
6.432862e+02	-3.428630e+01
6.470017e+02	-3.433485e+01
6.507388e+02	-3.438676e+01
6.544974e+02	-3.443048e+01
6.582778e+02	-3.448131e+01
6.620800e+02	-3.452847e+01
6.659041e+02	-3.457509e+01
6.697504e+02	-3.463578e+01
6.736188e+02	-3.468279e+01
6.775096e+02	-3.473196e+01
6.814229e+02	-3.478794e+01
6.853587e+02	-3.483526e+01
6.893173e+02	-3.488969e+01
6.932988e+02	-3.493925e+01
6.973033e+02	-3.498351e+01
7.013309e+02	-3.503635e+01
