Frequency(Hz)	Magnitude(dB)
1.000000e+01	-1.768637e-05
1.005776e+01	-1.789127e-05
1.011585e+01	-1.809854e-05
1.017428e+01	-1.830822e-05
1.023305e+01	-1.852032e-05
1.029215e+01	-1.873489e-05
1.035160e+01	-1.895194e-05
1.041139e+01	-1.917150e-05
1.047153e+01	-1.939361e-05
1.053201e+01	-1.961829e-05
1.059284e+01	-1.984557e-05
1.065403e+01	-2.007548e-05
1.071556e+01	-2.030806e-05
1.077746e+01	-2.054334e-05
1.083971e+01	-2.078134e-05
1.090232e+01	-2.102209e-05
1.096529e+01	-2.126564e-05
1.102862e+01	-2.151201e-05
1.109232e+01	-2.176123e-05
1.115639e+01	-2.201334e-05
1.122083e+01	-2.226837e-05
1.128564e+01	-2.252635e-05
1.135083e+01	-2.278733e-05
1.141639e+01	-2.305132e-05
1.148233e+01	-2.331838e-05
1.154865e+01	-2.358853e-05
1.161536e+01	-2.386181e-05
1.168245e+01	-2.413825e-05
1.174992e+01	-2.441790e-05
1.181779e+01	-2.470079e-05
1.188605e+01	-2.498695e-05
1.195470e+01	-2.527643e-05
1.202375e+01	-2.556927e-05
1.209320e+01	-2.586549e-05
1.216305e+01	-2.616515e-05
1.223330e+01	-2.646828e-05
1.230396e+01	-2.677492e-05
1.237503e+01	-2.708512e-05
1.244651e+01	-2.739890e-05
1.251840e+01	-2.771633e-05
1.259070e+01	-2.803743e-05
1.266343e+01	-2.836225e-05
1.273657e+01	-2.869083e-05
1.281014e+01	-2.902322e-05
1.288413e+01	-2.935946e-05
1.295855e+01	-2.969960e-05
1.303339e+01	-3.004368e-05
1.310867e+01	-3.039174e-05
1.318439e+01	-3.074383e-05
1.326054e+01	-3.110001e-05
1.333713e+01	-3.146031e-05
1.341417e+01	-3.182479e-05
1.349165e+01	-3.219348e-05
1.356958e+01	-3.256645e-05
1.364795e+01	-3.294374e-05
1.372678e+01	-3.332540e-05
1.380607e+01	-3.371149e-05
1.388581e+01	-3.410204e-05
1.396602e+01	-3.449712e-05
1.404668e+01	-3.489678e-05
1.412782e+01	-3.530107e-05
1.420942e+01	-3.571004e-05
1.429149e+01	-3.612375e-05
1.437404e+01	-3.654225e-05
1.445706e+01	-3.696560e-05
1.454057e+01	-3.739385e-05
1.462455e+01	-3.782707e-05
1.470902e+01	-3.826531e-05
1.479398e+01	-3.870862e-05
1.487943e+01	-3.915707e-05
1.496537e+01	-3.961071e-05
1.505181e+01	-4.006961e-05
1.513875e+01	-4.053382e-05
1.522619e+01	-4.100342e-05
1.531414e+01	-4.147845e-05
1.540259e+01	-4.195899e-05
1.549156e+01	-4.244509e-05
1.558103e+01	-4.293683e-05
1.567103e+01	-4.343426e-05
1.576155e+01	-4.393746e-05
1.585258e+01	-4.444648e-05
1.594415e+01	-4.496140e-05
1.603624e+01	-4.548229e-05
1.612886e+01	-4.600921e-05
1.622202e+01	-4.654224e-05
1.631572e+01	-4.708144e-05
1.640996e+01	-4.762689e-05
1.650474e+01	-4.817866e-05
1.660008e+01	-4.873682e-05
1.669596e+01	-4.930145e-05
1.679239e+01	-4.987261e-05
1.688938e+01	-5.045040e-05
1.698694e+01	-5.103488e-05
1.708505e+01	-5.162613e-05
1.718373e+01	-5.222423e-05
1.728299e+01	-5.282925e-05
1.738281e+01	-5.344129e-05
1.748322e+01	-5.406042e-05
1.758420e+01	-5.468672e-05
1.768576e+01	-5.532028e-05
1.778792e+01	-5.596118e-05
1.789066e+01	-5.660950e-05
1.799399e+01	-5.726533e-05
1.809793e+01	-5.792876e-05
1.820246e+01	-5.859988e-05
1.830760e+01	-5.927877e-05
1.841334e+01	-5.996552e-05
1.851969e+01	-6.066024e-05
1.862666e+01	-6.136300e-05
1.873425e+01	-6.207390e-05
1.884246e+01	-6.279304e-05
1.895129e+01	-6.352051e-05
1.906075e+01	-6.425641e-05
1.917085e+01	-6.500083e-05
1.928158e+01	-6.575388e-05
1.939295e+01	-6.651565e-05
1.950496e+01	-6.728624e-05
1.961762e+01	-6.806577e-05
1.973093e+01	-6.885432e-05
1.984490e+01	-6.965201e-05
1.995952e+01	-7.045894e-05
2.007480e+01	-7.127522e-05
2.019076e+01	-7.210096e-05
2.030738e+01	-7.293626e-05
2.042467e+01	-7.378124e-05
2.054264e+01	-7.463601e-05
2.066130e+01	-7.550068e-05
2.078064e+01	-7.637537e-05
2.090066e+01	-7.726019e-05
2.102139e+01	-7.815527e-05
2.114280e+01	-7.906071e-05
2.126492e+01	-7.997664e-05
2.138775e+01	-8.090318e-05
2.151128e+01	-8.184046e-05
2.163553e+01	-8.278860e-05
2.176050e+01	-8.374772e-05
2.188619e+01	-8.471795e-05
2.201260e+01	-8.569942e-05
2.213974e+01	-8.669226e-05
2.226762e+01	-8.769661e-05
2.239624e+01	-8.871258e-05
2.252560e+01	-8.974033e-05
2.265571e+01	-9.077999e-05
2.278656e+01	-9.183169e-05
2.291818e+01	-9.289557e-05
2.305055e+01	-9.397178e-05
2.318369e+01	-9.506046e-05
2.331760e+01	-9.616175e-05
2.345228e+01	-9.727580e-05
2.358774e+01	-9.840275e-05
2.372398e+01	-9.954277e-05
2.386101e+01	-1.006960e-04
2.399883e+01	-1.018626e-04
2.413745e+01	-1.030427e-04
2.427686e+01	-1.042364e-04
2.441709e+01	-1.054440e-04
2.455812e+01	-1.066656e-04
2.469997e+01	-1.079013e-04
2.484263e+01	-1.091514e-04
2.498612e+01	-1.104159e-04
2.513044e+01	-1.116951e-04
2.527559e+01	-1.129891e-04
2.542158e+01	-1.142981e-04
2.556842e+01	-1.156222e-04
2.571610e+01	-1.169617e-04
2.586463e+01	-1.183168e-04
2.601403e+01	-1.196875e-04
2.616428e+01	-1.210741e-04
2.631541e+01	-1.224767e-04
2.646740e+01	-1.238956e-04
2.662028e+01	-1.253310e-04
2.677404e+01	-1.267830e-04
2.692868e+01	-1.282517e-04
2.708422e+01	-1.297376e-04
2.724066e+01	-1.312406e-04
2.739800e+01	-1.327610e-04
2.755625e+01	-1.342991e-04
2.771541e+01	-1.358549e-04
2.787550e+01	-1.374288e-04
2.803650e+01	-1.390209e-04
2.819844e+01	-1.406315e-04
2.836131e+01	-1.422607e-04
2.852513e+01	-1.439089e-04
2.868989e+01	-1.455760e-04
2.885560e+01	-1.472626e-04
2.902227e+01	-1.489686e-04
2.918990e+01	-1.506944e-04
2.935850e+01	-1.524402e-04
2.952807e+01	-1.542063e-04
2.969863e+01	-1.559927e-04
2.987016e+01	-1.577999e-04
3.004269e+01	-1.596281e-04
3.021622e+01	-1.614774e-04
3.039075e+01	-1.633481e-04
3.056628e+01	-1.652405e-04
3.074283e+01	-1.671548e-04
3.092040e+01	-1.690913e-04
3.109900e+01	-1.710502e-04
3.127862e+01	-1.730319e-04
3.145929e+01	-1.750364e-04
3.164099e+01	-1.770642e-04
3.182375e+01	-1.791155e-04
3.200756e+01	-1.811906e-04
3.219244e+01	-1.832897e-04
3.237838e+01	-1.854131e-04
3.256540e+01	-1.875611e-04
3.275349e+01	-1.897340e-04
3.294268e+01	-1.919321e-04
3.313295e+01	-1.941556e-04
3.332433e+01	-1.964049e-04
3.351681e+01	-1.986803e-04
3.371040e+01	-2.009820e-04
3.390511e+01	-2.033104e-04
3.410094e+01	-2.056657e-04
3.429791e+01	-2.080484e-04
3.449601e+01	-2.104586e-04
3.469526e+01	-2.128968e-04
3.489566e+01	-2.153632e-04
3.509721e+01	-2.178582e-04
3.529993e+01	-2.203820e-04
3.550382e+01	-2.229352e-04
3.570889e+01	-2.255179e-04
3.591515e+01	-2.281305e-04
3.612259e+01	-2.307734e-04
3.633123e+01	-2.334469e-04
3.654108e+01	-2.361513e-04
3.675214e+01	-2.388871e-04
3.696442e+01	-2.416546e-04
3.717792e+01	-2.444542e-04
3.739266e+01	-2.472862e-04
3.760864e+01	-2.501510e-04
3.782587e+01	-2.530490e-04
3.804435e+01	-2.559805e-04
3.826409e+01	-2.589460e-04
3.848510e+01	-2.619459e-04
3.870739e+01	-2.649805e-04
3.893096e+01	-2.680503e-04
3.915583e+01	-2.711557e-04
3.938199e+01	-2.742970e-04
3.960946e+01	-2.774747e-04
3.983824e+01	-2.806892e-04
4.006834e+01	-2.839410e-04
4.029978e+01	-2.872304e-04
4.053255e+01	-2.905579e-04
4.076666e+01	-2.939240e-04
4.100213e+01	-2.973291e-04
4.123896e+01	-3.007736e-04
4.147715e+01	-3.042580e-04
4.171672e+01	-3.077828e-04
4.195767e+01	-3.113484e-04
4.220002e+01	-3.149554e-04
4.244377e+01	-3.186041e-04
4.268892e+01	-3.222950e-04
4.293549e+01	-3.260288e-04
4.318348e+01	-3.298058e-04
4.343291e+01	-3.336265e-04
4.368377e+01	-3.374915e-04
4.393609e+01	-3.414013e-04
4.418986e+01	-3.453564e-04
4.444510e+01	-3.493573e-04
4.470182e+01	-3.534045e-04
4.496001e+01	-3.574986e-04
4.521970e+01	-3.616402e-04
4.548089e+01	-3.658297e-04
4.574358e+01	-3.700677e-04
4.600779e+01	-3.743549e-04
4.627353e+01	-3.786917e-04
4.654081e+01	-3.830788e-04
4.680963e+01	-3.875166e-04
4.708000e+01	-3.920059e-04
4.735193e+01	-3.965472e-04
4.762543e+01	-4.011411e-04
4.790051e+01	-4.057882e-04
4.817719e+01	-4.104892e-04
4.845545e+01	-4.152446e-04
4.873533e+01	-4.200551e-04
4.901682e+01	-4.249213e-04
4.929994e+01	-4.298439e-04
4.958470e+01	-4.348235e-04
4.987110e+01	-4.398608e-04
5.015915e+01	-4.449564e-04
5.044887e+01	-4.501111e-04
5.074026e+01	-4.553255e-04
5.103333e+01	-4.606003e-04
5.132810e+01	-4.659362e-04
5.162457e+01	-4.713339e-04
5.192275e+01	-4.767941e-04
5.222265e+01	-4.823176e-04
5.252429e+01	-4.879051e-04
5.282767e+01	-4.935573e-04
5.313280e+01	-4.992749e-04
5.343969e+01	-5.050588e-04
5.374836e+01	-5.109098e-04
5.405880e+01	-5.168284e-04
5.437105e+01	-5.228157e-04
5.468509e+01	-5.288723e-04
5.500095e+01	-5.349990e-04
5.531863e+01	-5.411967e-04
5.563815e+01	-5.474663e-04
5.595951e+01	-5.538084e-04
5.628273e+01	-5.602240e-04
5.660782e+01	-5.667139e-04
5.693479e+01	-5.732790e-04
5.726364e+01	-5.799202e-04
5.759439e+01	-5.866383e-04
5.792705e+01	-5.934342e-04
5.826164e+01	-6.003088e-04
5.859815e+01	-6.072631e-04
5.893662e+01	-6.142979e-04
5.927703e+01	-6.214142e-04
5.961941e+01	-6.286129e-04
5.996377e+01	-6.358950e-04
6.031012e+01	-6.432615e-04
6.065847e+01	-6.507133e-04
6.100883e+01	-6.582514e-04
6.136121e+01	-6.658769e-04
6.171563e+01	-6.735906e-04
6.207210e+01	-6.813938e-04
6.243063e+01	-6.892873e-04
6.279122e+01	-6.972722e-04
6.315390e+01	-7.053496e-04
6.351868e+01	-7.135206e-04
6.388556e+01	-7.217863e-04
6.425456e+01	-7.301477e-04
6.462569e+01	-7.386059e-04
6.499897e+01	-7.471621e-04
6.537440e+01	-7.558175e-04
6.575200e+01	-7.645730e-04
6.613178e+01	-7.734300e-04
6.651375e+01	-7.823896e-04
6.689793e+01	-7.914530e-04
6.728433e+01	-8.006214e-04
6.767297e+01	-8.098959e-04
6.806384e+01	-8.192779e-04
6.845698e+01	-8.287685e-04
6.885238e+01	-8.383691e-04
6.925007e+01	-8.480809e-04
6.965005e+01	-8.579052e-04
7.005235e+01	-8.678433e-04
7.045697e+01	-8.778965e-04
7.086393e+01	-8.880661e-04
7.127323e+01	-8.983535e-04
7.168490e+01	-9.087601e-04
7.209895e+01	-9.192872e-04
7.251539e+01	-9.299363e-04
7.293424e+01	-9.407087e-04
7.335551e+01	-9.516058e-04
7.377920e+01	-9.626292e-04
7.420535e+01	-9.737803e-04
7.463396e+01	-9.850605e-04
7.506504e+01	-9.964714e-04
7.549861e+01	-1.008014e-03
7.593469e+01	-1.019691e-03
7.637328e+01	-1.031503e-03
7.681441e+01	-1.043452e-03
7.725809e+01	-1.055539e-03
7.770433e+01	-1.067766e-03
7.815315e+01	-1.080135e-03
7.860456e+01	-1.092647e-03
7.905857e+01	-1.105304e-03
7.951521e+01	-1.118108e-03
7.997449e+01	-1.131060e-03
8.043642e+01	-1.144162e-03
8.090102e+01	-1.157415e-03
8.136830e+01	-1.170823e-03
8.183828e+01	-1.184385e-03
8.231097e+01	-1.198105e-03
8.278640e+01	-1.211983e-03
8.326457e+01	-1.226022e-03
8.374550e+01	-1.240224e-03
8.422921e+01	-1.254590e-03
8.471572e+01	-1.269123e-03
8.520503e+01	-1.283824e-03
8.569717e+01	-1.298695e-03
8.619215e+01	-1.313738e-03
8.669000e+01	-1.328956e-03
8.719071e+01	-1.344350e-03
8.769432e+01	-1.359922e-03
8.820084e+01	-1.375675e-03
8.871029e+01	-1.391610e-03
8.922267e+01	-1.407729e-03
8.973802e+01	-1.424036e-03
9.025634e+01	-1.440531e-03
9.077766e+01	-1.457217e-03
9.130199e+01	-1.474096e-03
9.182935e+01	-1.491171e-03
9.235975e+01	-1.508444e-03
9.289321e+01	-1.525916e-03
9.342976e+01	-1.543591e-03
9.396941e+01	-1.561471e-03
9.451217e+01	-1.579558e-03
9.505807e+01	-1.597854e-03
9.560712e+01	-1.616362e-03
9.615934e+01	-1.635085e-03
9.671476e+01	-1.654024e-03
9.727338e+01	-1.673183e-03
9.783522e+01	-1.692563e-03
9.840032e+01	-1.712168e-03
9.896867e+01	-1.732000e-03
9.954031e+01	-1.752062e-03
1.001153e+02	-1.772356e-03
1.006935e+02	-1.792885e-03
1.012751e+02	-1.813651e-03
1.018601e+02	-1.834659e-03
1.024484e+02	-1.855909e-03
1.030402e+02	-1.877406e-03
1.036353e+02	-1.899151e-03
1.042339e+02	-1.921148e-03
1.048360e+02	-1.943400e-03
1.054415e+02	-1.965910e-03
1.060505e+02	-1.988681e-03
1.066631e+02	-2.011715e-03
1.072791e+02	-2.035015e-03
1.078988e+02	-2.058586e-03
1.085220e+02	-2.082430e-03
1.091488e+02	-2.106549e-03
1.097793e+02	-2.130948e-03
1.104133e+02	-2.155630e-03
1.110511e+02	-2.180597e-03
1.116925e+02	-2.205853e-03
1.123376e+02	-2.231402e-03
1.129865e+02	-2.257247e-03
1.136391e+02	-2.283391e-03
1.142955e+02	-2.309837e-03
1.149556e+02	-2.336590e-03
1.156196e+02	-2.363653e-03
1.162874e+02	-2.391029e-03
1.169591e+02	-2.418722e-03
1.176347e+02	-2.446735e-03
1.183141e+02	-2.475073e-03
1.189975e+02	-2.503739e-03
1.196848e+02	-2.532738e-03
1.203761e+02	-2.562071e-03
1.210714e+02	-2.591745e-03
1.217707e+02	-2.621762e-03
1.224740e+02	-2.652126e-03
1.231814e+02	-2.682842e-03
1.238929e+02	-2.713914e-03
1.246085e+02	-2.745345e-03
1.253283e+02	-2.777141e-03
1.260522e+02	-2.809304e-03
1.267802e+02	-2.841840e-03
1.275125e+02	-2.874753e-03
1.282490e+02	-2.908046e-03
1.289898e+02	-2.941725e-03
1.297348e+02	-2.975794e-03
1.304842e+02	-3.010258e-03
1.312378e+02	-3.045120e-03
1.319959e+02	-3.080386e-03
1.327583e+02	-3.116060e-03
1.335251e+02	-3.152148e-03
1.342963e+02	-3.188653e-03
1.350720e+02	-3.225580e-03
1.358522e+02	-3.262935e-03
1.366368e+02	-3.300723e-03
1.374260e+02	-3.338948e-03
1.382198e+02	-3.377616e-03
1.390182e+02	-3.416731e-03
1.398211e+02	-3.456299e-03
1.406287e+02	-3.496325e-03
1.414410e+02	-3.536814e-03
1.422579e+02	-3.577772e-03
1.430796e+02	-3.619204e-03
1.439060e+02	-3.661116e-03
1.447372e+02	-3.703513e-03
1.455732e+02	-3.746400e-03
1.464141e+02	-3.789784e-03
1.472597e+02	-3.833671e-03
1.481103e+02	-3.878065e-03
1.489658e+02	-3.922973e-03
1.498262e+02	-3.968401e-03
1.506916e+02	-4.014354e-03
1.515620e+02	-4.060840e-03
1.524374e+02	-4.107864e-03
1.533179e+02	-4.155431e-03
1.542034e+02	-4.203550e-03
1.550941e+02	-4.252225e-03
1.559899e+02	-4.301464e-03
1.568909e+02	-4.351272e-03
1.577971e+02	-4.401657e-03
1.587085e+02	-4.452626e-03
1.596252e+02	-4.504184e-03
1.605472e+02	-4.556338e-03
1.614745e+02	-4.609097e-03
1.624072e+02	-4.662466e-03
1.633453e+02	-4.716452e-03
1.642887e+02	-4.771063e-03
1.652377e+02	-4.826306e-03
1.661921e+02	-4.882189e-03
1.671520e+02	-4.938718e-03
1.681175e+02	-4.995902e-03
1.690885e+02	-5.053747e-03
1.700651e+02	-5.112261e-03
1.710474e+02	-5.171453e-03
1.720354e+02	-5.231329e-03
1.730291e+02	-5.291898e-03
1.740285e+02	-5.353168e-03
1.750337e+02	-5.415148e-03
1.760446e+02	-5.477844e-03
1.770615e+02	-5.541265e-03
1.780842e+02	-5.605421e-03
1.791128e+02	-5.670319e-03
1.801473e+02	-5.735967e-03
1.811878e+02	-5.802375e-03
1.822344e+02	-5.869552e-03
1.832870e+02	-5.937506e-03
1.843456e+02	-6.006245e-03
1.854104e+02	-6.075780e-03
1.864813e+02	-6.146120e-03
1.875584e+02	-6.217273e-03
1.886418e+02	-6.289250e-03
1.897313e+02	-6.362059e-03
1.908272e+02	-6.435710e-03
1.919294e+02	-6.510213e-03
1.930380e+02	-6.585579e-03
1.941530e+02	-6.661816e-03
1.952744e+02	-6.738934e-03
1.964023e+02	-6.816945e-03
1.975367e+02	-6.895858e-03
1.986777e+02	-6.975684e-03
1.998252e+02	-7.056434e-03
2.009794e+02	-7.138117e-03
2.021403e+02	-7.220745e-03
2.033078e+02	-7.304328e-03
2.044821e+02	-7.388879e-03
2.056632e+02	-7.474407e-03
2.068511e+02	-7.560924e-03
2.080459e+02	-7.648442e-03
2.092475e+02	-7.736972e-03
2.104561e+02	-7.826526e-03
2.116717e+02	-7.917115e-03
2.128943e+02	-8.008752e-03
2.141240e+02	-8.101449e-03
2.153608e+02	-8.195218e-03
2.166047e+02	-8.290070e-03
2.178558e+02	-8.386020e-03
2.191141e+02	-8.483079e-03
2.203797e+02	-8.581260e-03
2.216526e+02	-8.680577e-03
2.229329e+02	-8.781041e-03
2.242205e+02	-8.882668e-03
2.255156e+02	-8.985469e-03
2.268182e+02	-9.089459e-03
2.281283e+02	-9.194651e-03
2.294459e+02	-9.301058e-03
2.307712e+02	-9.408697e-03
2.321041e+02	-9.517579e-03
2.334447e+02	-9.627720e-03
2.347931e+02	-9.739134e-03
2.361493e+02	-9.851836e-03
2.375133e+02	-9.965841e-03
2.388851e+02	-1.008116e-02
2.402649e+02	-1.019782e-02
2.416527e+02	-1.031582e-02
2.430484e+02	-1.043519e-02
2.444523e+02	-1.055594e-02
2.458642e+02	-1.067808e-02
2.472843e+02	-1.080163e-02
2.487126e+02	-1.092661e-02
2.501492e+02	-1.105304e-02
2.515940e+02	-1.118093e-02
2.530472e+02	-1.131029e-02
2.545088e+02	-1.144115e-02
2.559789e+02	-1.157352e-02
2.574574e+02	-1.170742e-02
2.589444e+02	-1.184287e-02
2.604401e+02	-1.197988e-02
2.619444e+02	-1.211848e-02
2.634574e+02	-1.225868e-02
2.649791e+02	-1.240049e-02
2.665096e+02	-1.254395e-02
2.680489e+02	-1.268906e-02
2.695972e+02	-1.283585e-02
2.711544e+02	-1.298433e-02
2.727205e+02	-1.313453e-02
2.742958e+02	-1.328646e-02
2.758801e+02	-1.344015e-02
2.774736e+02	-1.359561e-02
2.790762e+02	-1.375287e-02
2.806882e+02	-1.391195e-02
2.823094e+02	-1.407286e-02
2.839400e+02	-1.423563e-02
2.855800e+02	-1.440028e-02
2.872295e+02	-1.456683e-02
2.888886e+02	-1.473530e-02
2.905572e+02	-1.490572e-02
2.922354e+02	-1.507811e-02
2.939234e+02	-1.525248e-02
2.956211e+02	-1.542887e-02
2.973286e+02	-1.560730e-02
2.990459e+02	-1.578778e-02
3.007732e+02	-1.597035e-02
3.025104e+02	-1.615502e-02
3.042577e+02	-1.634183e-02
3.060151e+02	-1.653079e-02
3.077826e+02	-1.672194e-02
3.095604e+02	-1.691529e-02
3.113484e+02	-1.711087e-02
3.131467e+02	-1.730870e-02
3.149554e+02	-1.750882e-02
3.167746e+02	-1.771125e-02
3.186043e+02	-1.791602e-02
3.204445e+02	-1.812314e-02
3.222954e+02	-1.833266e-02
3.241570e+02	-1.854459e-02
3.260293e+02	-1.875897e-02
3.279124e+02	-1.897582e-02
3.298064e+02	-1.919518e-02
3.317114e+02	-1.941706e-02
3.336273e+02	-1.964150e-02
3.355544e+02	-1.986853e-02
3.374925e+02	-2.009818e-02
3.394418e+02	-2.033047e-02
3.414024e+02	-2.056545e-02
3.433744e+02	-2.080313e-02
3.453577e+02	-2.104355e-02
3.473525e+02	-2.128675e-02
3.493588e+02	-2.153275e-02
3.513766e+02	-2.178158e-02
3.534062e+02	-2.203329e-02
3.554474e+02	-2.228789e-02
3.575005e+02	-2.254543e-02
3.595654e+02	-2.280594e-02
3.616422e+02	-2.306944e-02
3.637311e+02	-2.333599e-02
3.658320e+02	-2.360561e-02
3.679450e+02	-2.387833e-02
3.700702e+02	-2.415419e-02
3.722077e+02	-2.443324e-02
3.743576e+02	-2.471549e-02
3.765199e+02	-2.500100e-02
3.786946e+02	-2.528980e-02
3.808820e+02	-2.558192e-02
3.830819e+02	-2.587741e-02
3.852946e+02	-2.617630e-02
3.875200e+02	-2.647863e-02
3.897583e+02	-2.678444e-02
3.920096e+02	-2.709378e-02
3.942738e+02	-2.740667e-02
3.965511e+02	-2.772317e-02
3.988416e+02	-2.804331e-02
4.011452e+02	-2.836713e-02
4.034622e+02	-2.869469e-02
4.057926e+02	-2.902601e-02
4.081365e+02	-2.936114e-02
4.104938e+02	-2.970013e-02
4.128648e+02	-3.004302e-02
4.152495e+02	-3.038986e-02
4.176480e+02	-3.074068e-02
4.200603e+02	-3.109554e-02
4.224866e+02	-3.145448e-02
4.249268e+02	-3.181755e-02
4.273812e+02	-3.218480e-02
4.298497e+02	-3.255626e-02
4.323325e+02	-3.293200e-02
4.348297e+02	-3.331206e-02
4.373412e+02	-3.369649e-02
4.398673e+02	-3.408534e-02
4.424079e+02	-3.447865e-02
4.449633e+02	-3.487649e-02
4.475334e+02	-3.527890e-02
4.501183e+02	-3.568593e-02
4.527182e+02	-3.609763e-02
4.553330e+02	-3.651407e-02
4.579630e+02	-3.693529e-02
4.606082e+02	-3.736135e-02
4.632687e+02	-3.779231e-02
4.659445e+02	-3.822821e-02
4.686358e+02	-3.866912e-02
4.713426e+02	-3.911509e-02
4.740650e+02	-3.956618e-02
4.768032e+02	-4.002244e-02
4.795572e+02	-4.048395e-02
4.823271e+02	-4.095075e-02
4.851130e+02	-4.142290e-02
4.879150e+02	-4.190048e-02
4.907332e+02	-4.238353e-02
4.935676e+02	-4.287213e-02
4.964185e+02	-4.336633e-02
4.992858e+02	-4.386620e-02
5.021696e+02	-4.437180e-02
5.050701e+02	-4.488319e-02
5.079874e+02	-4.540045e-02
5.109215e+02	-4.592364e-02
5.138726e+02	-4.645283e-02
5.168407e+02	-4.698808e-02
5.198259e+02	-4.752947e-02
5.228284e+02	-4.807705e-02
5.258482e+02	-4.863092e-02
5.288855e+02	-4.919112e-02
5.319403e+02	-4.975774e-02
5.350128e+02	-5.033085e-02
5.381030e+02	-5.091053e-02
5.412111e+02	-5.149684e-02
5.443371e+02	-5.208986e-02
5.474812e+02	-5.268966e-02
5.506434e+02	-5.329634e-02
5.538239e+02	-5.390995e-02
5.570228e+02	-5.453059e-02
5.602401e+02	-5.515832e-02
5.634760e+02	-5.579323e-02
5.667306e+02	-5.643541e-02
5.700040e+02	-5.708492e-02
5.732964e+02	-5.774187e-02
5.766077e+02	-5.840632e-02
5.799382e+02	-5.907836e-02
5.832879e+02	-5.975809e-02
5.866569e+02	-6.044558e-02
5.900454e+02	-6.114092e-02
5.934535e+02	-6.184421e-02
5.968813e+02	-6.255553e-02
6.003288e+02	-6.327496e-02
6.037963e+02	-6.400262e-02
6.072838e+02	-6.473857e-02
6.107914e+02	-6.548293e-02
6.143194e+02	-6.623578e-02
6.178676e+02	-6.699722e-02
6.214364e+02	-6.776734e-02
6.250258e+02	-6.854624e-02
6.286359e+02	-6.933403e-02
6.322669e+02	-7.013079e-02
6.359189e+02	-7.093664e-02
6.395919e+02	-7.175167e-02
6.432862e+02	-7.257598e-02
6.470017e+02	-7.340969e-02
6.507388e+02	-7.425289e-02
6.544974e+02	-7.510569e-02
6.582778e+02	-7.596820e-02
6.620800e+02	-7.684053e-02
6.659041e+02	-7.772278e-02
6.697504e+02	-7.861508e-02
6.736188e+02	-7.951752e-02
6.775096e+02	-8.043022e-02
6.814229e+02	-8.135331e-02
6.853587e+02	-8.228688e-02
6.893173e+02	-8.323107e-02
6.932988e+02	-8.418598e-02
6.973033e+02	-8.515175e-02
7.013309e+02	-8.612848e-02
