Frequency(Hz)	Magnitude(dB)
1.000000e+01	-1.570852e-05
1.005776e+01	-1.589051e-05
1.011585e+01	-1.607460e-05
1.017428e+01	-1.626083e-05
1.023305e+01	-1.644922e-05
1.029215e+01	-1.663979e-05
1.035160e+01	-1.683256e-05
1.041139e+01	-1.702757e-05
1.047153e+01	-1.722484e-05
1.053201e+01	-1.742439e-05
1.059284e+01	-1.762626e-05
1.065403e+01	-1.783047e-05
1.071556e+01	-1.803704e-05
1.077746e+01	-1.824600e-05
1.083971e+01	-1.845738e-05
1.090232e+01	-1.867122e-05
1.096529e+01	-1.888753e-05
1.102862e+01	-1.910635e-05
1.109232e+01	-1.932770e-05
1.115639e+01	-1.955161e-05
1.122083e+01	-1.977812e-05
1.128564e+01	-2.000726e-05
1.135083e+01	-2.023905e-05
1.141639e+01	-2.047352e-05
1.148233e+01	-2.071071e-05
1.154865e+01	-2.095065e-05
1.161536e+01	-2.119337e-05
1.168245e+01	-2.143890e-05
1.174992e+01	-2.168728e-05
1.181779e+01	-2.193853e-05
1.188605e+01	-2.219269e-05
1.195470e+01	-2.244980e-05
1.202375e+01	-2.270989e-05
1.209320e+01	-2.297299e-05
1.216305e+01	-2.323913e-05
1.223330e+01	-2.350837e-05
1.230396e+01	-2.378072e-05
1.237503e+01	-2.405622e-05
1.244651e+01	-2.433492e-05
1.251840e+01	-2.461684e-05
1.259070e+01	-2.490204e-05
1.266343e+01	-2.519053e-05
1.273657e+01	-2.548237e-05
1.281014e+01	-2.577759e-05
1.288413e+01	-2.607623e-05
1.295855e+01	-2.637833e-05
1.303339e+01	-2.668393e-05
1.310867e+01	-2.699307e-05
1.318439e+01	-2.730579e-05
1.326054e+01	-2.762214e-05
1.333713e+01	-2.794214e-05
1.341417e+01	-2.826586e-05
1.349165e+01	-2.859333e-05
1.356958e+01	-2.892459e-05
1.364795e+01	-2.925969e-05
1.372678e+01	-2.959867e-05
1.380607e+01	-2.994157e-05
1.388581e+01	-3.028845e-05
1.396602e+01	-3.063935e-05
1.404668e+01	-3.099432e-05
1.412782e+01	-3.135339e-05
1.420942e+01	-3.171663e-05
1.429149e+01	-3.208408e-05
1.437404e+01	-3.245578e-05
1.445706e+01	-3.283179e-05
1.454057e+01	-3.321215e-05
1.462455e+01	-3.359692e-05
1.470902e+01	-3.398615e-05
1.479398e+01	-3.437989e-05
1.487943e+01	-3.477818e-05
1.496537e+01	-3.518110e-05
1.505181e+01	-3.558868e-05
1.513875e+01	-3.600098e-05
1.522619e+01	-3.641806e-05
1.531414e+01	-3.683997e-05
1.540259e+01	-3.726677e-05
1.549156e+01	-3.769852e-05
1.558103e+01	-3.813526e-05
1.567103e+01	-3.857707e-05
1.576155e+01	-3.902399e-05
1.585258e+01	-3.947609e-05
1.594415e+01	-3.993343e-05
1.603624e+01	-4.039607e-05
1.612886e+01	-4.086407e-05
1.622202e+01	-4.133749e-05
1.631572e+01	-4.181639e-05
1.640996e+01	-4.230085e-05
1.650474e+01	-4.279091e-05
1.660008e+01	-4.328665e-05
1.669596e+01	-4.378814e-05
1.679239e+01	-4.429543e-05
1.688938e+01	-4.480861e-05
1.698694e+01	-4.532772e-05
1.708505e+01	-4.585285e-05
1.718373e+01	-4.638407e-05
1.728299e+01	-4.692144e-05
1.738281e+01	-4.746503e-05
1.748322e+01	-4.801493e-05
1.758420e+01	-4.857119e-05
1.768576e+01	-4.913390e-05
1.778792e+01	-4.970313e-05
1.789066e+01	-5.027895e-05
1.799399e+01	-5.086144e-05
1.809793e+01	-5.145068e-05
1.820246e+01	-5.204675e-05
1.830760e+01	-5.264972e-05
1.841334e+01	-5.325968e-05
1.851969e+01	-5.387670e-05
1.862666e+01	-5.450087e-05
1.873425e+01	-5.513228e-05
1.884246e+01	-5.577100e-05
1.895129e+01	-5.641711e-05
1.906075e+01	-5.707072e-05
1.917085e+01	-5.773189e-05
1.928158e+01	-5.840073e-05
1.939295e+01	-5.907731e-05
1.950496e+01	-5.976174e-05
1.961762e+01	-6.045409e-05
1.973093e+01	-6.115446e-05
1.984490e+01	-6.186295e-05
1.995952e+01	-6.257964e-05
2.007480e+01	-6.330464e-05
2.019076e+01	-6.403804e-05
2.030738e+01	-6.477993e-05
2.042467e+01	-6.553042e-05
2.054264e+01	-6.628960e-05
2.066130e+01	-6.705758e-05
2.078064e+01	-6.783445e-05
2.090066e+01	-6.862033e-05
2.102139e+01	-6.941531e-05
2.114280e+01	-7.021949e-05
2.126492e+01	-7.103300e-05
2.138775e+01	-7.185593e-05
2.151128e+01	-7.268840e-05
2.163553e+01	-7.353050e-05
2.176050e+01	-7.438237e-05
2.188619e+01	-7.524410e-05
2.201260e+01	-7.611582e-05
2.213974e+01	-7.699763e-05
2.226762e+01	-7.788966e-05
2.239624e+01	-7.879203e-05
2.252560e+01	-7.970485e-05
2.265571e+01	-8.062824e-05
2.278656e+01	-8.156233e-05
2.291818e+01	-8.250725e-05
2.305055e+01	-8.346311e-05
2.318369e+01	-8.443004e-05
2.331760e+01	-8.540818e-05
2.345228e+01	-8.639765e-05
2.358774e+01	-8.739858e-05
2.372398e+01	-8.841110e-05
2.386101e+01	-8.943536e-05
2.399883e+01	-9.047148e-05
2.413745e+01	-9.151961e-05
2.427686e+01	-9.257988e-05
2.441709e+01	-9.365243e-05
2.455812e+01	-9.473741e-05
2.469997e+01	-9.583496e-05
2.484263e+01	-9.694522e-05
2.498612e+01	-9.806834e-05
2.513044e+01	-9.920448e-05
2.527559e+01	-1.003538e-04
2.542158e+01	-1.015164e-04
2.556842e+01	-1.026925e-04
2.571610e+01	-1.038822e-04
2.586463e+01	-1.050857e-04
2.601403e+01	-1.063031e-04
2.616428e+01	-1.075346e-04
2.631541e+01	-1.087804e-04
2.646740e+01	-1.100407e-04
2.662028e+01	-1.113155e-04
2.677404e+01	-1.126051e-04
2.692868e+01	-1.139097e-04
2.708422e+01	-1.152293e-04
2.724066e+01	-1.165643e-04
2.739800e+01	-1.179147e-04
2.755625e+01	-1.192807e-04
2.771541e+01	-1.206626e-04
2.787550e+01	-1.220605e-04
2.803650e+01	-1.234746e-04
2.819844e+01	-1.249051e-04
2.836131e+01	-1.263521e-04
2.852513e+01	-1.278159e-04
2.868989e+01	-1.292967e-04
2.885560e+01	-1.307946e-04
2.902227e+01	-1.323098e-04
2.918990e+01	-1.338427e-04
2.935850e+01	-1.353932e-04
2.952807e+01	-1.369618e-04
2.969863e+01	-1.385485e-04
2.987016e+01	-1.401536e-04
3.004269e+01	-1.417773e-04
3.021622e+01	-1.434198e-04
3.039075e+01	-1.450813e-04
3.056628e+01	-1.467621e-04
3.074283e+01	-1.484624e-04
3.092040e+01	-1.501823e-04
3.109900e+01	-1.519222e-04
3.127862e+01	-1.536822e-04
3.145929e+01	-1.554626e-04
3.164099e+01	-1.572637e-04
3.182375e+01	-1.590856e-04
3.200756e+01	-1.609286e-04
3.219244e+01	-1.627930e-04
3.237838e+01	-1.646789e-04
3.256540e+01	-1.665867e-04
3.275349e+01	-1.685167e-04
3.294268e+01	-1.704689e-04
3.313295e+01	-1.724438e-04
3.332433e+01	-1.744416e-04
3.351681e+01	-1.764625e-04
3.371040e+01	-1.785068e-04
3.390511e+01	-1.805748e-04
3.410094e+01	-1.826668e-04
3.429791e+01	-1.847830e-04
3.449601e+01	-1.869237e-04
3.469526e+01	-1.890892e-04
3.489566e+01	-1.912798e-04
3.509721e+01	-1.934958e-04
3.529993e+01	-1.957375e-04
3.550382e+01	-1.980051e-04
3.570889e+01	-2.002990e-04
3.591515e+01	-2.026195e-04
3.612259e+01	-2.049668e-04
3.633123e+01	-2.073413e-04
3.654108e+01	-2.097434e-04
3.675214e+01	-2.121733e-04
3.696442e+01	-2.146313e-04
3.717792e+01	-2.171178e-04
3.739266e+01	-2.196331e-04
3.760864e+01	-2.221776e-04
3.782587e+01	-2.247515e-04
3.804435e+01	-2.273552e-04
3.826409e+01	-2.299891e-04
3.848510e+01	-2.326535e-04
3.870739e+01	-2.353488e-04
3.893096e+01	-2.380753e-04
3.915583e+01	-2.408334e-04
3.938199e+01	-2.436235e-04
3.960946e+01	-2.464458e-04
3.983824e+01	-2.493009e-04
4.006834e+01	-2.521890e-04
4.029978e+01	-2.551106e-04
4.053255e+01	-2.580661e-04
4.076666e+01	-2.610557e-04
4.100213e+01	-2.640800e-04
4.123896e+01	-2.671394e-04
4.147715e+01	-2.702342e-04
4.171672e+01	-2.733648e-04
4.195767e+01	-2.765317e-04
4.220002e+01	-2.797353e-04
4.244377e+01	-2.829760e-04
4.268892e+01	-2.862543e-04
4.293549e+01	-2.895705e-04
4.318348e+01	-2.929251e-04
4.343291e+01	-2.963186e-04
4.368377e+01	-2.997515e-04
4.393609e+01	-3.032240e-04
4.418986e+01	-3.067369e-04
4.444510e+01	-3.102904e-04
4.470182e+01	-3.138850e-04
4.496001e+01	-3.175213e-04
4.521970e+01	-3.211998e-04
4.548089e+01	-3.249208e-04
4.574358e+01	-3.286850e-04
4.600779e+01	-3.324927e-04
4.627353e+01	-3.363446e-04
4.654081e+01	-3.402411e-04
4.680963e+01	-3.441827e-04
4.708000e+01	-3.481700e-04
4.735193e+01	-3.522035e-04
4.762543e+01	-3.562837e-04
4.790051e+01	-3.604112e-04
4.817719e+01	-3.645865e-04
4.845545e+01	-3.688101e-04
4.873533e+01	-3.730827e-04
4.901682e+01	-3.774048e-04
4.929994e+01	-3.817770e-04
4.958470e+01	-3.861998e-04
4.987110e+01	-3.906738e-04
5.015915e+01	-3.951996e-04
5.044887e+01	-3.997779e-04
5.074026e+01	-4.044093e-04
5.103333e+01	-4.090942e-04
5.132810e+01	-4.138335e-04
5.162457e+01	-4.186276e-04
5.192275e+01	-4.234773e-04
5.222265e+01	-4.283832e-04
5.252429e+01	-4.333458e-04
5.282767e+01	-4.383660e-04
5.313280e+01	-4.434444e-04
5.343969e+01	-4.485815e-04
5.374836e+01	-4.537782e-04
5.405880e+01	-4.590350e-04
5.437105e+01	-4.643528e-04
5.468509e+01	-4.697322e-04
5.500095e+01	-4.751739e-04
5.531863e+01	-4.806786e-04
5.563815e+01	-4.862471e-04
5.595951e+01	-4.918800e-04
5.628273e+01	-4.975783e-04
5.660782e+01	-5.033425e-04
5.693479e+01	-5.091736e-04
5.726364e+01	-5.150721e-04
5.759439e+01	-5.210390e-04
5.792705e+01	-5.270750e-04
5.826164e+01	-5.331810e-04
5.859815e+01	-5.393576e-04
5.893662e+01	-5.456058e-04
5.927703e+01	-5.519264e-04
5.961941e+01	-5.583202e-04
5.996377e+01	-5.647881e-04
6.031012e+01	-5.713309e-04
6.065847e+01	-5.779495e-04
6.100883e+01	-5.846448e-04
6.136121e+01	-5.914176e-04
6.171563e+01	-5.982688e-04
6.207210e+01	-6.051994e-04
6.243063e+01	-6.122104e-04
6.279122e+01	-6.193025e-04
6.315390e+01	-6.264768e-04
6.351868e+01	-6.337341e-04
6.388556e+01	-6.410756e-04
6.425456e+01	-6.485021e-04
6.462569e+01	-6.560146e-04
6.499897e+01	-6.636141e-04
6.537440e+01	-6.713016e-04
6.575200e+01	-6.790783e-04
6.613178e+01	-6.869449e-04
6.651375e+01	-6.949027e-04
6.689793e+01	-7.029527e-04
6.728433e+01	-7.110960e-04
6.767297e+01	-7.193335e-04
6.806384e+01	-7.276665e-04
6.845698e+01	-7.360960e-04
6.885238e+01	-7.446231e-04
6.925007e+01	-7.532491e-04
6.965005e+01	-7.619749e-04
7.005235e+01	-7.708018e-04
7.045697e+01	-7.797309e-04
7.086393e+01	-7.887635e-04
7.127323e+01	-7.979007e-04
7.168490e+01	-8.071438e-04
7.209895e+01	-8.164939e-04
7.251539e+01	-8.259523e-04
7.293424e+01	-8.355202e-04
7.335551e+01	-8.451990e-04
7.377920e+01	-8.549899e-04
7.420535e+01	-8.648942e-04
7.463396e+01	-8.749133e-04
7.506504e+01	-8.850483e-04
7.549861e+01	-8.953008e-04
7.593469e+01	-9.056720e-04
7.637328e+01	-9.161634e-04
7.681441e+01	-9.267762e-04
7.725809e+01	-9.375120e-04
7.770433e+01	-9.483722e-04
7.815315e+01	-9.593581e-04
7.860456e+01	-9.704713e-04
7.905857e+01	-9.817132e-04
7.951521e+01	-9.930853e-04
7.997449e+01	-1.004589e-03
8.043642e+01	-1.016226e-03
8.090102e+01	-1.027998e-03
8.136830e+01	-1.039906e-03
8.183828e+01	-1.051952e-03
8.231097e+01	-1.064138e-03
8.278640e+01	-1.076465e-03
8.326457e+01	-1.088934e-03
8.374550e+01	-1.101548e-03
8.422921e+01	-1.114309e-03
8.471572e+01	-1.127216e-03
8.520503e+01	-1.140274e-03
8.569717e+01	-1.153483e-03
8.619215e+01	-1.166844e-03
8.669000e+01	-1.180360e-03
8.719071e+01	-1.194033e-03
8.769432e+01	-1.207865e-03
8.820084e+01	-1.221856e-03
8.871029e+01	-1.236010e-03
8.922267e+01	-1.250327e-03
8.973802e+01	-1.264810e-03
9.025634e+01	-1.279461e-03
9.077766e+01	-1.294282e-03
9.130199e+01	-1.309274e-03
9.182935e+01	-1.324440e-03
9.235975e+01	-1.339782e-03
9.289321e+01	-1.355301e-03
9.342976e+01	-1.371000e-03
9.396941e+01	-1.386881e-03
9.451217e+01	-1.402946e-03
9.505807e+01	-1.419197e-03
9.560712e+01	-1.435636e-03
9.615934e+01	-1.452265e-03
9.671476e+01	-1.469088e-03
9.727338e+01	-1.486104e-03
9.783522e+01	-1.503318e-03
9.840032e+01	-1.520732e-03
9.896867e+01	-1.538347e-03
9.954031e+01	-1.556166e-03
1.001153e+02	-1.574191e-03
1.006935e+02	-1.592425e-03
1.012751e+02	-1.610870e-03
1.018601e+02	-1.629529e-03
1.024484e+02	-1.648404e-03
1.030402e+02	-1.667498e-03
1.036353e+02	-1.686812e-03
1.042339e+02	-1.706351e-03
1.048360e+02	-1.726115e-03
1.054415e+02	-1.746109e-03
1.060505e+02	-1.766334e-03
1.066631e+02	-1.786793e-03
1.072791e+02	-1.807489e-03
1.078988e+02	-1.828425e-03
1.085220e+02	-1.849603e-03
1.091488e+02	-1.871027e-03
1.097793e+02	-1.892698e-03
1.104133e+02	-1.914621e-03
1.110511e+02	-1.936797e-03
1.116925e+02	-1.959231e-03
1.123376e+02	-1.981924e-03
1.129865e+02	-2.004879e-03
1.136391e+02	-2.028101e-03
1.142955e+02	-2.051592e-03
1.149556e+02	-2.075354e-03
1.156196e+02	-2.099392e-03
1.162874e+02	-2.123708e-03
1.169591e+02	-2.148305e-03
1.176347e+02	-2.173188e-03
1.183141e+02	-2.198359e-03
1.189975e+02	-2.223821e-03
1.196848e+02	-2.249577e-03
1.203761e+02	-2.275633e-03
1.210714e+02	-2.301989e-03
1.217707e+02	-2.328651e-03
1.224740e+02	-2.355622e-03
1.231814e+02	-2.382905e-03
1.238929e+02	-2.410504e-03
1.246085e+02	-2.438423e-03
1.253283e+02	-2.466664e-03
1.260522e+02	-2.495233e-03
1.267802e+02	-2.524133e-03
1.275125e+02	-2.553367e-03
1.282490e+02	-2.582939e-03
1.289898e+02	-2.612854e-03
1.297348e+02	-2.643116e-03
1.304842e+02	-2.673727e-03
1.312378e+02	-2.704694e-03
1.319959e+02	-2.736018e-03
1.327583e+02	-2.767706e-03
1.335251e+02	-2.799760e-03
1.342963e+02	-2.832185e-03
1.350720e+02	-2.864986e-03
1.358522e+02	-2.898167e-03
1.366368e+02	-2.931731e-03
1.374260e+02	-2.965685e-03
1.382198e+02	-3.000031e-03
1.390182e+02	-3.034775e-03
1.398211e+02	-3.069921e-03
1.406287e+02	-3.105474e-03
1.414410e+02	-3.141439e-03
1.422579e+02	-3.177820e-03
1.430796e+02	-3.214622e-03
1.439060e+02	-3.251850e-03
1.447372e+02	-3.289510e-03
1.455732e+02	-3.327605e-03
1.464141e+02	-3.366141e-03
1.472597e+02	-3.405123e-03
1.481103e+02	-3.444557e-03
1.489658e+02	-3.484447e-03
1.498262e+02	-3.524799e-03
1.506916e+02	-3.565618e-03
1.515620e+02	-3.606909e-03
1.524374e+02	-3.648679e-03
1.533179e+02	-3.690932e-03
1.542034e+02	-3.733674e-03
1.550941e+02	-3.776910e-03
1.559899e+02	-3.820648e-03
1.568909e+02	-3.864891e-03
1.577971e+02	-3.909647e-03
1.587085e+02	-3.954920e-03
1.596252e+02	-4.000718e-03
1.605472e+02	-4.047046e-03
1.614745e+02	-4.093909e-03
1.624072e+02	-4.141316e-03
1.633453e+02	-4.189271e-03
1.642887e+02	-4.237781e-03
1.652377e+02	-4.286852e-03
1.661921e+02	-4.336492e-03
1.671520e+02	-4.386706e-03
1.681175e+02	-4.437501e-03
1.690885e+02	-4.488884e-03
1.700651e+02	-4.540862e-03
1.710474e+02	-4.593441e-03
1.720354e+02	-4.646628e-03
1.730291e+02	-4.700432e-03
1.740285e+02	-4.754857e-03
1.750337e+02	-4.809913e-03
1.760446e+02	-4.865606e-03
1.770615e+02	-4.921943e-03
1.780842e+02	-4.978932e-03
1.791128e+02	-5.036581e-03
1.801473e+02	-5.094897e-03
1.811878e+02	-5.153887e-03
1.822344e+02	-5.213561e-03
1.832870e+02	-5.273924e-03
1.843456e+02	-5.334986e-03
1.854104e+02	-5.396755e-03
1.864813e+02	-5.459239e-03
1.875584e+02	-5.522445e-03
1.886418e+02	-5.586383e-03
1.897313e+02	-5.651060e-03
1.908272e+02	-5.716486e-03
1.919294e+02	-5.782669e-03
1.930380e+02	-5.849617e-03
1.941530e+02	-5.917340e-03
1.952744e+02	-5.985847e-03
1.964023e+02	-6.055146e-03
1.975367e+02	-6.125247e-03
1.986777e+02	-6.196158e-03
1.998252e+02	-6.267891e-03
2.009794e+02	-6.340452e-03
2.021403e+02	-6.413854e-03
2.033078e+02	-6.488104e-03
2.044821e+02	-6.563214e-03
2.056632e+02	-6.639192e-03
2.068511e+02	-6.716049e-03
2.080459e+02	-6.793795e-03
2.092475e+02	-6.872441e-03
2.104561e+02	-6.951996e-03
2.116717e+02	-7.032471e-03
2.128943e+02	-7.113877e-03
2.141240e+02	-7.196225e-03
2.153608e+02	-7.279525e-03
2.166047e+02	-7.363788e-03
2.178558e+02	-7.449026e-03
2.191141e+02	-7.535250e-03
2.203797e+02	-7.622471e-03
2.216526e+02	-7.710700e-03
2.229329e+02	-7.799950e-03
2.242205e+02	-7.890232e-03
2.255156e+02	-7.981559e-03
2.268182e+02	-8.073941e-03
2.281283e+02	-8.167391e-03
2.294459e+02	-8.261922e-03
2.307712e+02	-8.357546e-03
2.321041e+02	-8.454276e-03
2.334447e+02	-8.552124e-03
2.347931e+02	-8.651104e-03
2.361493e+02	-8.751228e-03
2.375133e+02	-8.852509e-03
2.388851e+02	-8.954962e-03
2.402649e+02	-9.058599e-03
2.416527e+02	-9.163434e-03
2.430484e+02	-9.269481e-03
2.444523e+02	-9.376754e-03
2.458642e+02	-9.485267e-03
2.472843e+02	-9.595034e-03
2.487126e+02	-9.706071e-03
2.501492e+02	-9.818391e-03
2.515940e+02	-9.932009e-03
2.530472e+02	-1.004694e-02
2.545088e+02	-1.016320e-02
2.559789e+02	-1.028080e-02
2.574574e+02	-1.039977e-02
2.589444e+02	-1.052010e-02
2.604401e+02	-1.064183e-02
2.619444e+02	-1.076497e-02
2.634574e+02	-1.088952e-02
2.649791e+02	-1.101552e-02
2.665096e+02	-1.114298e-02
2.680489e+02	-1.127190e-02
2.695972e+02	-1.140232e-02
2.711544e+02	-1.153424e-02
2.727205e+02	-1.166769e-02
2.742958e+02	-1.180268e-02
2.758801e+02	-1.193922e-02
2.774736e+02	-1.207735e-02
2.790762e+02	-1.221707e-02
2.806882e+02	-1.235841e-02
2.823094e+02	-1.250138e-02
2.839400e+02	-1.264600e-02
2.855800e+02	-1.279229e-02
2.872295e+02	-1.294027e-02
2.888886e+02	-1.308996e-02
2.905572e+02	-1.324137e-02
2.922354e+02	-1.339454e-02
2.939234e+02	-1.354948e-02
2.956211e+02	-1.370620e-02
2.973286e+02	-1.386474e-02
2.990459e+02	-1.402511e-02
3.007732e+02	-1.418732e-02
3.025104e+02	-1.435141e-02
3.042577e+02	-1.451740e-02
3.060151e+02	-1.468530e-02
3.077826e+02	-1.485514e-02
3.095604e+02	-1.502695e-02
3.113484e+02	-1.520073e-02
3.131467e+02	-1.537652e-02
3.149554e+02	-1.555434e-02
3.167746e+02	-1.573422e-02
3.186043e+02	-1.591617e-02
3.204445e+02	-1.610022e-02
3.222954e+02	-1.628639e-02
3.241570e+02	-1.647471e-02
3.260293e+02	-1.666521e-02
3.279124e+02	-1.685790e-02
3.298064e+02	-1.705282e-02
3.317114e+02	-1.724999e-02
3.336273e+02	-1.744943e-02
3.355544e+02	-1.765118e-02
3.374925e+02	-1.785525e-02
3.394418e+02	-1.806167e-02
3.414024e+02	-1.827048e-02
3.433744e+02	-1.848170e-02
3.453577e+02	-1.869535e-02
3.473525e+02	-1.891147e-02
3.493588e+02	-1.913008e-02
3.513766e+02	-1.935121e-02
3.534062e+02	-1.957489e-02
3.554474e+02	-1.980115e-02
3.575005e+02	-2.003002e-02
3.595654e+02	-2.026153e-02
3.616422e+02	-2.049571e-02
3.637311e+02	-2.073259e-02
3.658320e+02	-2.097220e-02
3.679450e+02	-2.121457e-02
3.700702e+02	-2.145974e-02
3.722077e+02	-2.170773e-02
3.743576e+02	-2.195858e-02
3.765199e+02	-2.221233e-02
3.786946e+02	-2.246900e-02
3.808820e+02	-2.272862e-02
3.830819e+02	-2.299124e-02
3.852946e+02	-2.325688e-02
3.875200e+02	-2.352559e-02
3.897583e+02	-2.379739e-02
3.920096e+02	-2.407232e-02
3.942738e+02	-2.435042e-02
3.965511e+02	-2.463172e-02
3.988416e+02	-2.491627e-02
4.011452e+02	-2.520409e-02
4.034622e+02	-2.549522e-02
4.057926e+02	-2.578971e-02
4.081365e+02	-2.608759e-02
4.104938e+02	-2.638890e-02
4.128648e+02	-2.669368e-02
4.152495e+02	-2.700197e-02
4.176480e+02	-2.731381e-02
4.200603e+02	-2.762923e-02
4.224866e+02	-2.794829e-02
4.249268e+02	-2.827102e-02
4.273812e+02	-2.859747e-02
4.298497e+02	-2.892767e-02
4.323325e+02	-2.926167e-02
4.348297e+02	-2.959952e-02
4.373412e+02	-2.994125e-02
4.398673e+02	-3.028691e-02
4.424079e+02	-3.063655e-02
4.449633e+02	-3.099022e-02
4.475334e+02	-3.134795e-02
4.501183e+02	-3.170979e-02
4.527182e+02	-3.207580e-02
4.553330e+02	-3.244601e-02
4.579630e+02	-3.282048e-02
4.606082e+02	-3.319926e-02
4.632687e+02	-3.358239e-02
4.659445e+02	-3.396992e-02
4.686358e+02	-3.436191e-02
4.713426e+02	-3.475840e-02
4.740650e+02	-3.515945e-02
4.768032e+02	-3.556511e-02
4.795572e+02	-3.597543e-02
4.823271e+02	-3.639047e-02
4.851130e+02	-3.681027e-02
4.879150e+02	-3.723489e-02
4.907332e+02	-3.766439e-02
4.935676e+02	-3.809882e-02
4.964185e+02	-3.853825e-02
4.992858e+02	-3.898271e-02
5.021696e+02	-3.943228e-02
5.050701e+02	-3.988701e-02
5.079874e+02	-4.034696e-02
5.109215e+02	-4.081219e-02
5.138726e+02	-4.128276e-02
5.168407e+02	-4.175872e-02
5.198259e+02	-4.224015e-02
5.228284e+02	-4.272710e-02
5.258482e+02	-4.321963e-02
5.288855e+02	-4.371782e-02
5.319403e+02	-4.422172e-02
5.350128e+02	-4.473139e-02
5.381030e+02	-4.524691e-02
5.412111e+02	-4.576834e-02
5.443371e+02	-4.629575e-02
5.474812e+02	-4.682920e-02
5.506434e+02	-4.736876e-02
5.538239e+02	-4.791451e-02
5.570228e+02	-4.846651e-02
5.602401e+02	-4.902483e-02
5.634760e+02	-4.958954e-02
5.667306e+02	-5.016073e-02
5.700040e+02	-5.073845e-02
5.732964e+02	-5.132279e-02
5.766077e+02	-5.191382e-02
5.799382e+02	-5.251161e-02
5.832879e+02	-5.311624e-02
5.866569e+02	-5.372780e-02
5.900454e+02	-5.434635e-02
5.934535e+02	-5.497197e-02
5.968813e+02	-5.560475e-02
6.003288e+02	-5.624477e-02
6.037963e+02	-5.689211e-02
6.072838e+02	-5.754685e-02
6.107914e+02	-5.820907e-02
6.143194e+02	-5.887886e-02
6.178676e+02	-5.955630e-02
6.214364e+02	-6.024148e-02
6.250258e+02	-6.093450e-02
6.286359e+02	-6.163542e-02
6.322669e+02	-6.234436e-02
6.359189e+02	-6.306138e-02
6.395919e+02	-6.378659e-02
6.432862e+02	-6.452008e-02
6.470017e+02	-6.526195e-02
6.507388e+02	-6.601227e-02
6.544974e+02	-6.677116e-02
6.582778e+02	-6.753870e-02
6.620800e+02	-6.831500e-02
6.659041e+02	-6.910014e-02
6.697504e+02	-6.989424e-02
6.736188e+02	-7.069739e-02
6.775096e+02	-7.150969e-02
6.814229e+02	-7.233125e-02
6.853587e+02	-7.316217e-02
6.893173e+02	-7.400255e-02
6.932988e+02	-7.485250e-02
6.973033e+02	-7.571212e-02
7.013309e+02	-7.658153e-02
