Frequency(Hz)	Magnitude(dB)
1.000000e+01	-1.785286e-05
1.005776e+01	-1.805969e-05
1.011585e+01	-1.826892e-05
1.017428e+01	-1.848057e-05
1.023305e+01	-1.869467e-05
1.029215e+01	-1.891125e-05
1.035160e+01	-1.913034e-05
1.041139e+01	-1.935197e-05
1.047153e+01	-1.957617e-05
1.053201e+01	-1.980296e-05
1.059284e+01	-2.003239e-05
1.065403e+01	-2.026447e-05
1.071556e+01	-2.049924e-05
1.077746e+01	-2.073673e-05
1.083971e+01	-2.097697e-05
1.090232e+01	-2.121999e-05
1.096529e+01	-2.146583e-05
1.102862e+01	-2.171451e-05
1.109232e+01	-2.196608e-05
1.115639e+01	-2.222057e-05
1.122083e+01	-2.247800e-05
1.128564e+01	-2.273841e-05
1.135083e+01	-2.300184e-05
1.141639e+01	-2.326832e-05
1.148233e+01	-2.353789e-05
1.154865e+01	-2.381058e-05
1.161536e+01	-2.408643e-05
1.168245e+01	-2.436548e-05
1.174992e+01	-2.464776e-05
1.181779e+01	-2.493331e-05
1.188605e+01	-2.522217e-05
1.195470e+01	-2.551438e-05
1.202375e+01	-2.580997e-05
1.209320e+01	-2.610898e-05
1.216305e+01	-2.641146e-05
1.223330e+01	-2.671744e-05
1.230396e+01	-2.702697e-05
1.237503e+01	-2.734009e-05
1.244651e+01	-2.765683e-05
1.251840e+01	-2.797724e-05
1.259070e+01	-2.830136e-05
1.266343e+01	-2.862924e-05
1.273657e+01	-2.896092e-05
1.281014e+01	-2.929644e-05
1.288413e+01	-2.963584e-05
1.295855e+01	-2.997918e-05
1.303339e+01	-3.032650e-05
1.310867e+01	-3.067784e-05
1.318439e+01	-3.103325e-05
1.326054e+01	-3.139277e-05
1.333713e+01	-3.175647e-05
1.341417e+01	-3.212437e-05
1.349165e+01	-3.249654e-05
1.356958e+01	-3.287302e-05
1.364795e+01	-3.325386e-05
1.372678e+01	-3.363912e-05
1.380607e+01	-3.402883e-05
1.388581e+01	-3.442307e-05
1.396602e+01	-3.482186e-05
1.404668e+01	-3.522528e-05
1.412782e+01	-3.563338e-05
1.420942e+01	-3.604620e-05
1.429149e+01	-3.646380e-05
1.437404e+01	-3.688624e-05
1.445706e+01	-3.731358e-05
1.454057e+01	-3.774586e-05
1.462455e+01	-3.818316e-05
1.470902e+01	-3.862552e-05
1.479398e+01	-3.907301e-05
1.487943e+01	-3.952568e-05
1.496537e+01	-3.998359e-05
1.505181e+01	-4.044681e-05
1.513875e+01	-4.091539e-05
1.522619e+01	-4.138941e-05
1.531414e+01	-4.186891e-05
1.540259e+01	-4.235397e-05
1.549156e+01	-4.284465e-05
1.558103e+01	-4.334102e-05
1.567103e+01	-4.384313e-05
1.576155e+01	-4.435107e-05
1.585258e+01	-4.486488e-05
1.594415e+01	-4.538465e-05
1.603624e+01	-4.591044e-05
1.612886e+01	-4.644233e-05
1.622202e+01	-4.698037e-05
1.631572e+01	-4.752465e-05
1.640996e+01	-4.807523e-05
1.650474e+01	-4.863219e-05
1.660008e+01	-4.919561e-05
1.669596e+01	-4.976555e-05
1.679239e+01	-5.034209e-05
1.688938e+01	-5.092532e-05
1.698694e+01	-5.151530e-05
1.708505e+01	-5.211211e-05
1.718373e+01	-5.271584e-05
1.728299e+01	-5.332657e-05
1.738281e+01	-5.394437e-05
1.748322e+01	-5.456932e-05
1.758420e+01	-5.520152e-05
1.768576e+01	-5.584104e-05
1.778792e+01	-5.648797e-05
1.789066e+01	-5.714240e-05
1.799399e+01	-5.780440e-05
1.809793e+01	-5.847408e-05
1.820246e+01	-5.915151e-05
1.830760e+01	-5.983679e-05
1.841334e+01	-6.053002e-05
1.851969e+01	-6.123127e-05
1.862666e+01	-6.194064e-05
1.873425e+01	-6.265824e-05
1.884246e+01	-6.338415e-05
1.895129e+01	-6.411846e-05
1.906075e+01	-6.486129e-05
1.917085e+01	-6.561272e-05
1.928158e+01	-6.637286e-05
1.939295e+01	-6.714180e-05
1.950496e+01	-6.791965e-05
1.961762e+01	-6.870651e-05
1.973093e+01	-6.950249e-05
1.984490e+01	-7.030769e-05
1.995952e+01	-7.112221e-05
2.007480e+01	-7.194618e-05
2.019076e+01	-7.277969e-05
2.030738e+01	-7.362285e-05
2.042467e+01	-7.447579e-05
2.054264e+01	-7.533860e-05
2.066130e+01	-7.621141e-05
2.078064e+01	-7.709434e-05
2.090066e+01	-7.798749e-05
2.102139e+01	-7.889099e-05
2.114280e+01	-7.980495e-05
2.126492e+01	-8.072951e-05
2.138775e+01	-8.166477e-05
2.151128e+01	-8.261087e-05
2.163553e+01	-8.356793e-05
2.176050e+01	-8.453608e-05
2.188619e+01	-8.551545e-05
2.201260e+01	-8.650616e-05
2.213974e+01	-8.750835e-05
2.226762e+01	-8.852214e-05
2.239624e+01	-8.954769e-05
2.252560e+01	-9.058511e-05
2.265571e+01	-9.163455e-05
2.278656e+01	-9.269615e-05
2.291818e+01	-9.377005e-05
2.305055e+01	-9.485639e-05
2.318369e+01	-9.595532e-05
2.331760e+01	-9.706698e-05
2.345228e+01	-9.819151e-05
2.358774e+01	-9.932907e-05
2.372398e+01	-1.004798e-04
2.386101e+01	-1.016439e-04
2.399883e+01	-1.028214e-04
2.413745e+01	-1.040126e-04
2.427686e+01	-1.052177e-04
2.441709e+01	-1.064366e-04
2.455812e+01	-1.076697e-04
2.469997e+01	-1.089171e-04
2.484263e+01	-1.101789e-04
2.498612e+01	-1.114553e-04
2.513044e+01	-1.127465e-04
2.527559e+01	-1.140527e-04
2.542158e+01	-1.153740e-04
2.556842e+01	-1.167107e-04
2.571610e+01	-1.180628e-04
2.586463e+01	-1.194305e-04
2.601403e+01	-1.208142e-04
2.616428e+01	-1.222138e-04
2.631541e+01	-1.236297e-04
2.646740e+01	-1.250619e-04
2.662028e+01	-1.265108e-04
2.677404e+01	-1.279764e-04
2.692868e+01	-1.294590e-04
2.708422e+01	-1.309588e-04
2.724066e+01	-1.324760e-04
2.739800e+01	-1.340108e-04
2.755625e+01	-1.355633e-04
2.771541e+01	-1.371338e-04
2.787550e+01	-1.387225e-04
2.803650e+01	-1.403296e-04
2.819844e+01	-1.419554e-04
2.836131e+01	-1.435999e-04
2.852513e+01	-1.452635e-04
2.868989e+01	-1.469464e-04
2.885560e+01	-1.486488e-04
2.902227e+01	-1.503709e-04
2.918990e+01	-1.521130e-04
2.935850e+01	-1.538752e-04
2.952807e+01	-1.556579e-04
2.969863e+01	-1.574612e-04
2.987016e+01	-1.592854e-04
3.004269e+01	-1.611307e-04
3.021622e+01	-1.629974e-04
3.039075e+01	-1.648858e-04
3.056628e+01	-1.667960e-04
3.074283e+01	-1.687283e-04
3.092040e+01	-1.706830e-04
3.109900e+01	-1.726604e-04
3.127862e+01	-1.746607e-04
3.145929e+01	-1.766841e-04
3.164099e+01	-1.787310e-04
3.182375e+01	-1.808016e-04
3.200756e+01	-1.828962e-04
3.219244e+01	-1.850151e-04
3.237838e+01	-1.871585e-04
3.256540e+01	-1.893267e-04
3.275349e+01	-1.915201e-04
3.294268e+01	-1.937388e-04
3.313295e+01	-1.959833e-04
3.332433e+01	-1.982538e-04
3.351681e+01	-2.005506e-04
3.371040e+01	-2.028739e-04
3.390511e+01	-2.052242e-04
3.410094e+01	-2.076018e-04
3.429791e+01	-2.100068e-04
3.449601e+01	-2.124398e-04
3.469526e+01	-2.149009e-04
3.489566e+01	-2.173905e-04
3.509721e+01	-2.199090e-04
3.529993e+01	-2.224566e-04
3.550382e+01	-2.250338e-04
3.570889e+01	-2.276408e-04
3.591515e+01	-2.302780e-04
3.612259e+01	-2.329457e-04
3.633123e+01	-2.356444e-04
3.654108e+01	-2.383743e-04
3.675214e+01	-2.411359e-04
3.696442e+01	-2.439294e-04
3.717792e+01	-2.467553e-04
3.739266e+01	-2.496140e-04
3.760864e+01	-2.525058e-04
3.782587e+01	-2.554310e-04
3.804435e+01	-2.583902e-04
3.826409e+01	-2.613836e-04
3.848510e+01	-2.644117e-04
3.870739e+01	-2.674749e-04
3.893096e+01	-2.705736e-04
3.915583e+01	-2.737082e-04
3.938199e+01	-2.768790e-04
3.960946e+01	-2.800867e-04
3.983824e+01	-2.833314e-04
4.006834e+01	-2.866138e-04
4.029978e+01	-2.899342e-04
4.053255e+01	-2.932930e-04
4.076666e+01	-2.966908e-04
4.100213e+01	-3.001279e-04
4.123896e+01	-3.036049e-04
4.147715e+01	-3.071221e-04
4.171672e+01	-3.106801e-04
4.195767e+01	-3.142792e-04
4.220002e+01	-3.179201e-04
4.244377e+01	-3.216032e-04
4.268892e+01	-3.253289e-04
4.293549e+01	-3.290978e-04
4.318348e+01	-3.329103e-04
4.343291e+01	-3.367670e-04
4.368377e+01	-3.406684e-04
4.393609e+01	-3.446150e-04
4.418986e+01	-3.486073e-04
4.444510e+01	-3.526459e-04
4.470182e+01	-3.567312e-04
4.496001e+01	-3.608639e-04
4.521970e+01	-3.650444e-04
4.548089e+01	-3.692733e-04
4.574358e+01	-3.735513e-04
4.600779e+01	-3.778788e-04
4.627353e+01	-3.822564e-04
4.654081e+01	-3.866848e-04
4.680963e+01	-3.911644e-04
4.708000e+01	-3.956960e-04
4.735193e+01	-4.002800e-04
4.762543e+01	-4.049172e-04
4.790051e+01	-4.096080e-04
4.817719e+01	-4.143532e-04
4.845545e+01	-4.191534e-04
4.873533e+01	-4.240091e-04
4.901682e+01	-4.289212e-04
4.929994e+01	-4.338901e-04
4.958470e+01	-4.389166e-04
4.987110e+01	-4.440013e-04
5.015915e+01	-4.491449e-04
5.044887e+01	-4.543481e-04
5.074026e+01	-4.596116e-04
5.103333e+01	-4.649360e-04
5.132810e+01	-4.703221e-04
5.162457e+01	-4.757706e-04
5.192275e+01	-4.812823e-04
5.222265e+01	-4.868577e-04
5.252429e+01	-4.924978e-04
5.282767e+01	-4.982032e-04
5.313280e+01	-5.039747e-04
5.343969e+01	-5.098130e-04
5.374836e+01	-5.157190e-04
5.405880e+01	-5.216934e-04
5.437105e+01	-5.277370e-04
5.468509e+01	-5.338506e-04
5.500095e+01	-5.400350e-04
5.531863e+01	-5.462911e-04
5.563815e+01	-5.526196e-04
5.595951e+01	-5.590214e-04
5.628273e+01	-5.654974e-04
5.660782e+01	-5.720484e-04
5.693479e+01	-5.786753e-04
5.726364e+01	-5.853790e-04
5.759439e+01	-5.921603e-04
5.792705e+01	-5.990202e-04
5.826164e+01	-6.059595e-04
5.859815e+01	-6.129792e-04
5.893662e+01	-6.200803e-04
5.927703e+01	-6.272635e-04
5.961941e+01	-6.345300e-04
5.996377e+01	-6.418807e-04
6.031012e+01	-6.493165e-04
6.065847e+01	-6.568384e-04
6.100883e+01	-6.644475e-04
6.136121e+01	-6.721447e-04
6.171563e+01	-6.799311e-04
6.207210e+01	-6.878077e-04
6.243063e+01	-6.957755e-04
6.279122e+01	-7.038356e-04
6.315390e+01	-7.119890e-04
6.351868e+01	-7.202369e-04
6.388556e+01	-7.285804e-04
6.425456e+01	-7.370205e-04
6.462569e+01	-7.455583e-04
6.499897e+01	-7.541951e-04
6.537440e+01	-7.629318e-04
6.575200e+01	-7.717698e-04
6.613178e+01	-7.807102e-04
6.651375e+01	-7.897541e-04
6.689793e+01	-7.989028e-04
6.728433e+01	-8.081574e-04
6.767297e+01	-8.175193e-04
6.806384e+01	-8.269896e-04
6.845698e+01	-8.365695e-04
6.885238e+01	-8.462605e-04
6.925007e+01	-8.560637e-04
6.965005e+01	-8.659804e-04
7.005235e+01	-8.760120e-04
7.045697e+01	-8.861598e-04
7.086393e+01	-8.964252e-04
7.127323e+01	-9.068094e-04
7.168490e+01	-9.173140e-04
7.209895e+01	-9.279402e-04
7.251539e+01	-9.386894e-04
7.293424e+01	-9.495632e-04
7.335551e+01	-9.605630e-04
7.377920e+01	-9.716901e-04
7.420535e+01	-9.829461e-04
7.463396e+01	-9.943325e-04
7.506504e+01	-1.005851e-03
7.549861e+01	-1.017502e-03
7.593469e+01	-1.029289e-03
7.637328e+01	-1.041212e-03
7.681441e+01	-1.053274e-03
7.725809e+01	-1.065475e-03
7.770433e+01	-1.077817e-03
7.815315e+01	-1.090302e-03
7.860456e+01	-1.102932e-03
7.905857e+01	-1.115708e-03
7.951521e+01	-1.128632e-03
7.997449e+01	-1.141706e-03
8.043642e+01	-1.154931e-03
8.090102e+01	-1.168309e-03
8.136830e+01	-1.181843e-03
8.183828e+01	-1.195533e-03
8.231097e+01	-1.209382e-03
8.278640e+01	-1.223391e-03
8.326457e+01	-1.237562e-03
8.374550e+01	-1.251897e-03
8.422921e+01	-1.266399e-03
8.471572e+01	-1.281068e-03
8.520503e+01	-1.295907e-03
8.569717e+01	-1.310919e-03
8.619215e+01	-1.326104e-03
8.669000e+01	-1.341465e-03
8.719071e+01	-1.357003e-03
8.769432e+01	-1.372722e-03
8.820084e+01	-1.388623e-03
8.871029e+01	-1.404708e-03
8.922267e+01	-1.420979e-03
8.973802e+01	-1.437439e-03
9.025634e+01	-1.454089e-03
9.077766e+01	-1.470932e-03
9.130199e+01	-1.487971e-03
9.182935e+01	-1.505206e-03
9.235975e+01	-1.522641e-03
9.289321e+01	-1.540278e-03
9.342976e+01	-1.558120e-03
9.396941e+01	-1.576168e-03
9.451217e+01	-1.594425e-03
9.505807e+01	-1.612893e-03
9.560712e+01	-1.631575e-03
9.615934e+01	-1.650474e-03
9.671476e+01	-1.669592e-03
9.727338e+01	-1.688930e-03
9.783522e+01	-1.708493e-03
9.840032e+01	-1.728283e-03
9.896867e+01	-1.748301e-03
9.954031e+01	-1.768552e-03
1.001153e+02	-1.789037e-03
1.006935e+02	-1.809759e-03
1.012751e+02	-1.830721e-03
1.018601e+02	-1.851926e-03
1.024484e+02	-1.873376e-03
1.030402e+02	-1.895075e-03
1.036353e+02	-1.917025e-03
1.042339e+02	-1.939229e-03
1.048360e+02	-1.961691e-03
1.054415e+02	-1.984412e-03
1.060505e+02	-2.007397e-03
1.066631e+02	-2.030648e-03
1.072791e+02	-2.054168e-03
1.078988e+02	-2.077960e-03
1.085220e+02	-2.102028e-03
1.091488e+02	-2.126375e-03
1.097793e+02	-2.151003e-03
1.104133e+02	-2.175917e-03
1.110511e+02	-2.201119e-03
1.116925e+02	-2.226613e-03
1.123376e+02	-2.252402e-03
1.129865e+02	-2.278490e-03
1.136391e+02	-2.304880e-03
1.142955e+02	-2.331576e-03
1.149556e+02	-2.358580e-03
1.156196e+02	-2.385897e-03
1.162874e+02	-2.413531e-03
1.169591e+02	-2.441484e-03
1.176347e+02	-2.469762e-03
1.183141e+02	-2.498366e-03
1.189975e+02	-2.527302e-03
1.196848e+02	-2.556573e-03
1.203761e+02	-2.586183e-03
1.210714e+02	-2.616135e-03
1.217707e+02	-2.646435e-03
1.224740e+02	-2.677085e-03
1.231814e+02	-2.708090e-03
1.238929e+02	-2.739454e-03
1.246085e+02	-2.771181e-03
1.253283e+02	-2.803276e-03
1.260522e+02	-2.835742e-03
1.267802e+02	-2.868584e-03
1.275125e+02	-2.901806e-03
1.282490e+02	-2.935413e-03
1.289898e+02	-2.969408e-03
1.297348e+02	-3.003798e-03
1.304842e+02	-3.038586e-03
1.312378e+02	-3.073776e-03
1.319959e+02	-3.109374e-03
1.327583e+02	-3.145383e-03
1.335251e+02	-3.181810e-03
1.342963e+02	-3.218659e-03
1.350720e+02	-3.255934e-03
1.358522e+02	-3.293640e-03
1.366368e+02	-3.331783e-03
1.374260e+02	-3.370368e-03
1.382198e+02	-3.409399e-03
1.390182e+02	-3.448882e-03
1.398211e+02	-3.488822e-03
1.406287e+02	-3.529225e-03
1.414410e+02	-3.570095e-03
1.422579e+02	-3.611438e-03
1.430796e+02	-3.653260e-03
1.439060e+02	-3.695566e-03
1.447372e+02	-3.738362e-03
1.455732e+02	-3.781653e-03
1.464141e+02	-3.825445e-03
1.472597e+02	-3.869744e-03
1.481103e+02	-3.914555e-03
1.489658e+02	-3.959886e-03
1.498262e+02	-4.005741e-03
1.506916e+02	-4.052127e-03
1.515620e+02	-4.099050e-03
1.524374e+02	-4.146515e-03
1.533179e+02	-4.194531e-03
1.542034e+02	-4.243102e-03
1.550941e+02	-4.292235e-03
1.559899e+02	-4.341936e-03
1.568909e+02	-4.392213e-03
1.577971e+02	-4.443072e-03
1.587085e+02	-4.494520e-03
1.596252e+02	-4.546563e-03
1.605472e+02	-4.599208e-03
1.614745e+02	-4.652462e-03
1.624072e+02	-4.706333e-03
1.633453e+02	-4.760827e-03
1.642887e+02	-4.815952e-03
1.652377e+02	-4.871714e-03
1.661921e+02	-4.928122e-03
1.671520e+02	-4.985183e-03
1.681175e+02	-5.042904e-03
1.690885e+02	-5.101293e-03
1.700651e+02	-5.160358e-03
1.710474e+02	-5.220106e-03
1.720354e+02	-5.280545e-03
1.730291e+02	-5.341684e-03
1.740285e+02	-5.403530e-03
1.750337e+02	-5.466092e-03
1.760446e+02	-5.529378e-03
1.770615e+02	-5.593396e-03
1.780842e+02	-5.658154e-03
1.791128e+02	-5.723662e-03
1.801473e+02	-5.789928e-03
1.811878e+02	-5.856961e-03
1.822344e+02	-5.924769e-03
1.832870e+02	-5.993361e-03
1.843456e+02	-6.062747e-03
1.854104e+02	-6.132936e-03
1.864813e+02	-6.203937e-03
1.875584e+02	-6.275759e-03
1.886418e+02	-6.348412e-03
1.897313e+02	-6.421905e-03
1.908272e+02	-6.496249e-03
1.919294e+02	-6.571453e-03
1.930380e+02	-6.647526e-03
1.941530e+02	-6.724480e-03
1.952744e+02	-6.802323e-03
1.964023e+02	-6.881067e-03
1.975367e+02	-6.960722e-03
1.986777e+02	-7.041298e-03
1.998252e+02	-7.122807e-03
2.009794e+02	-7.205258e-03
2.021403e+02	-7.288662e-03
2.033078e+02	-7.373031e-03
2.044821e+02	-7.458376e-03
2.056632e+02	-7.544708e-03
2.068511e+02	-7.632038e-03
2.080459e+02	-7.720379e-03
2.092475e+02	-7.809741e-03
2.104561e+02	-7.900136e-03
2.116717e+02	-7.991577e-03
2.128943e+02	-8.084075e-03
2.141240e+02	-8.177642e-03
2.153608e+02	-8.272292e-03
2.166047e+02	-8.368036e-03
2.178558e+02	-8.464887e-03
2.191141e+02	-8.562858e-03
2.203797e+02	-8.661962e-03
2.216526e+02	-8.762211e-03
2.229329e+02	-8.863620e-03
2.242205e+02	-8.966201e-03
2.255156e+02	-9.069968e-03
2.268182e+02	-9.174934e-03
2.281283e+02	-9.281114e-03
2.294459e+02	-9.388522e-03
2.307712e+02	-9.497171e-03
2.321041e+02	-9.607076e-03
2.334447e+02	-9.718252e-03
2.347931e+02	-9.830712e-03
2.361493e+02	-9.944473e-03
2.375133e+02	-1.005955e-02
2.388851e+02	-1.017595e-02
2.402649e+02	-1.029370e-02
2.416527e+02	-1.041282e-02
2.430484e+02	-1.053330e-02
2.444523e+02	-1.065519e-02
2.458642e+02	-1.077848e-02
2.472843e+02	-1.090319e-02
2.487126e+02	-1.102934e-02
2.501492e+02	-1.115696e-02
2.515940e+02	-1.128605e-02
2.530472e+02	-1.141662e-02
2.545088e+02	-1.154871e-02
2.559789e+02	-1.168233e-02
2.574574e+02	-1.181749e-02
2.589444e+02	-1.195420e-02
2.604401e+02	-1.209250e-02
2.619444e+02	-1.223240e-02
2.634574e+02	-1.237391e-02
2.649791e+02	-1.251706e-02
2.665096e+02	-1.266186e-02
2.680489e+02	-1.280834e-02
2.695972e+02	-1.295650e-02
2.711544e+02	-1.310638e-02
2.727205e+02	-1.325799e-02
2.742958e+02	-1.341135e-02
2.758801e+02	-1.356648e-02
2.774736e+02	-1.372340e-02
2.790762e+02	-1.388213e-02
2.806882e+02	-1.404270e-02
2.823094e+02	-1.420512e-02
2.839400e+02	-1.436942e-02
2.855800e+02	-1.453561e-02
2.872295e+02	-1.470373e-02
2.888886e+02	-1.487378e-02
2.905572e+02	-1.504580e-02
2.922354e+02	-1.521980e-02
2.939234e+02	-1.539581e-02
2.956211e+02	-1.557385e-02
2.973286e+02	-1.575395e-02
2.990459e+02	-1.593613e-02
3.007732e+02	-1.612041e-02
3.025104e+02	-1.630682e-02
3.042577e+02	-1.649538e-02
3.060151e+02	-1.668611e-02
3.077826e+02	-1.687905e-02
3.095604e+02	-1.707421e-02
3.113484e+02	-1.727163e-02
3.131467e+02	-1.747132e-02
3.149554e+02	-1.767331e-02
3.167746e+02	-1.787764e-02
3.186043e+02	-1.808433e-02
3.204445e+02	-1.829339e-02
3.222954e+02	-1.850488e-02
3.241570e+02	-1.871880e-02
3.260293e+02	-1.893518e-02
3.279124e+02	-1.915407e-02
3.298064e+02	-1.937548e-02
3.317114e+02	-1.959944e-02
3.336273e+02	-1.982598e-02
3.355544e+02	-2.005514e-02
3.374925e+02	-2.028694e-02
3.394418e+02	-2.052141e-02
3.414024e+02	-2.075859e-02
3.433744e+02	-2.099850e-02
3.453577e+02	-2.124117e-02
3.473525e+02	-2.148665e-02
3.493588e+02	-2.173495e-02
3.513766e+02	-2.198612e-02
3.534062e+02	-2.224018e-02
3.554474e+02	-2.249716e-02
3.575005e+02	-2.275712e-02
3.595654e+02	-2.302006e-02
3.616422e+02	-2.328604e-02
3.637311e+02	-2.355508e-02
3.658320e+02	-2.382722e-02
3.679450e+02	-2.410250e-02
3.700702e+02	-2.438094e-02
3.722077e+02	-2.466260e-02
3.743576e+02	-2.494750e-02
3.765199e+02	-2.523568e-02
3.786946e+02	-2.552718e-02
3.808820e+02	-2.582204e-02
3.830819e+02	-2.612029e-02
3.852946e+02	-2.642197e-02
3.875200e+02	-2.672714e-02
3.897583e+02	-2.703581e-02
3.920096e+02	-2.734804e-02
3.942738e+02	-2.766386e-02
3.965511e+02	-2.798332e-02
3.988416e+02	-2.830645e-02
4.011452e+02	-2.863330e-02
4.034622e+02	-2.896392e-02
4.057926e+02	-2.929834e-02
4.081365e+02	-2.963661e-02
4.104938e+02	-2.997877e-02
4.128648e+02	-3.032486e-02
4.152495e+02	-3.067494e-02
4.176480e+02	-3.102904e-02
4.200603e+02	-3.138722e-02
4.224866e+02	-3.174952e-02
4.249268e+02	-3.211598e-02
4.273812e+02	-3.248666e-02
4.298497e+02	-3.286159e-02
4.323325e+02	-3.324084e-02
4.348297e+02	-3.362445e-02
4.373412e+02	-3.401247e-02
4.398673e+02	-3.440495e-02
4.424079e+02	-3.480194e-02
4.449633e+02	-3.520349e-02
4.475334e+02	-3.560966e-02
4.501183e+02	-3.602049e-02
4.527182e+02	-3.643604e-02
4.553330e+02	-3.685637e-02
4.579630e+02	-3.728152e-02
4.606082e+02	-3.771156e-02
4.632687e+02	-3.814653e-02
4.659445e+02	-3.858650e-02
4.686358e+02	-3.903152e-02
4.713426e+02	-3.948165e-02
4.740650e+02	-3.993695e-02
4.768032e+02	-4.039747e-02
4.795572e+02	-4.086328e-02
4.823271e+02	-4.133443e-02
4.851130e+02	-4.181100e-02
4.879150e+02	-4.229302e-02
4.907332e+02	-4.278058e-02
4.935676e+02	-4.327373e-02
4.964185e+02	-4.377254e-02
4.992858e+02	-4.427706e-02
5.021696e+02	-4.478737e-02
5.050701e+02	-4.530354e-02
5.079874e+02	-4.582562e-02
5.109215e+02	-4.635368e-02
5.138726e+02	-4.688779e-02
5.168407e+02	-4.742803e-02
5.198259e+02	-4.797446e-02
5.228284e+02	-4.852714e-02
5.258482e+02	-4.908616e-02
5.288855e+02	-4.965158e-02
5.319403e+02	-5.022348e-02
5.350128e+02	-5.080192e-02
5.381030e+02	-5.138699e-02
5.412111e+02	-5.197875e-02
5.443371e+02	-5.257729e-02
5.474812e+02	-5.318268e-02
5.506434e+02	-5.379499e-02
5.538239e+02	-5.441431e-02
5.570228e+02	-5.504071e-02
5.602401e+02	-5.567428e-02
5.634760e+02	-5.631510e-02
5.667306e+02	-5.696324e-02
5.700040e+02	-5.761879e-02
5.732964e+02	-5.828184e-02
5.766077e+02	-5.895246e-02
5.799382e+02	-5.963075e-02
5.832879e+02	-6.031678e-02
5.866569e+02	-6.101066e-02
5.900454e+02	-6.171246e-02
5.934535e+02	-6.242227e-02
5.968813e+02	-6.314019e-02
6.003288e+02	-6.386630e-02
6.037963e+02	-6.460070e-02
6.072838e+02	-6.534349e-02
6.107914e+02	-6.609475e-02
6.143194e+02	-6.685458e-02
6.178676e+02	-6.762307e-02
6.214364e+02	-6.840033e-02
6.250258e+02	-6.918645e-02
6.286359e+02	-6.998154e-02
6.322669e+02	-7.078569e-02
6.359189e+02	-7.159900e-02
6.395919e+02	-7.242157e-02
6.432862e+02	-7.325352e-02
6.470017e+02	-7.409495e-02
6.507388e+02	-7.494595e-02
6.544974e+02	-7.580664e-02
6.582778e+02	-7.667713e-02
6.620800e+02	-7.755753e-02
6.659041e+02	-7.844794e-02
6.697504e+02	-7.934848e-02
6.736188e+02	-8.025927e-02
6.775096e+02	-8.118041e-02
6.814229e+02	-8.211202e-02
6.853587e+02	-8.305422e-02
6.893173e+02	-8.400713e-02
6.932988e+02	-8.497086e-02
6.973033e+02	-8.594554e-02
7.013309e+02	-8.693129e-02
