Frequency(Hz)	Magnitude(dB)
1.000000e+01	-2.128889e+00
1.005776e+01	-2.148144e+00
1.011585e+01	-2.167864e+00
1.017428e+01	-2.187453e+00
1.023305e+01	-2.207290e+00
1.029215e+01	-2.227484e+00
1.035160e+01	-2.247301e+00
1.041139e+01	-2.267818e+00
1.047153e+01	-2.288090e+00
1.053201e+01	-2.308764e+00
1.059284e+01	-2.329415e+00
1.065403e+01	-2.350137e+00
1.071556e+01	-2.371201e+00
1.077746e+01	-2.392483e+00
1.083971e+01	-2.413634e+00
1.090232e+01	-2.435133e+00
1.096529e+01	-2.456616e+00
1.102862e+01	-2.478274e+00
1.109232e+01	-2.500137e+00
1.115639e+01	-2.522148e+00
1.122083e+01	-2.544301e+00
1.128564e+01	-2.566409e+00
1.135083e+01	-2.588767e+00
1.141639e+01	-2.611357e+00
1.148233e+01	-2.634124e+00
1.154865e+01	-2.656824e+00
1.161536e+01	-2.679766e+00
1.168245e+01	-2.702965e+00
1.174992e+01	-2.726071e+00
1.181779e+01	-2.749614e+00
1.188605e+01	-2.772943e+00
1.195470e+01	-2.796772e+00
1.202375e+01	-2.820528e+00
1.209320e+01	-2.844409e+00
1.216305e+01	-2.868660e+00
1.223330e+01	-2.892727e+00
1.230396e+01	-2.917296e+00
1.237503e+01	-2.941955e+00
1.244651e+01	-2.966703e+00
1.251840e+01	-2.991396e+00
1.259070e+01	-3.016457e+00
1.266343e+01	-3.041563e+00
1.273657e+01	-3.066626e+00
1.281014e+01	-3.092291e+00
1.288413e+01	-3.117627e+00
1.295855e+01	-3.143473e+00
1.303339e+01	-3.169079e+00
1.310867e+01	-3.195441e+00
1.318439e+01	-3.221208e+00
1.326054e+01	-3.247573e+00
1.333713e+01	-3.273853e+00
1.341417e+01	-3.300796e+00
1.349165e+01	-3.327483e+00
1.356958e+01	-3.354199e+00
1.364795e+01	-3.381274e+00
1.372678e+01	-3.408082e+00
1.380607e+01	-3.435638e+00
1.388581e+01	-3.463106e+00
1.396602e+01	-3.490688e+00
1.404668e+01	-3.518143e+00
1.412782e+01	-3.546058e+00
1.420942e+01	-3.574135e+00
1.429149e+01	-3.602103e+00
1.437404e+01	-3.630601e+00
1.445706e+01	-3.658886e+00
1.454057e+01	-3.687435e+00
1.462455e+01	-3.716011e+00
1.470902e+01	-3.745053e+00
1.479398e+01	-3.773987e+00
1.487943e+01	-3.802884e+00
1.496537e+01	-3.832137e+00
1.505181e+01	-3.861649e+00
1.513875e+01	-3.891232e+00
1.522619e+01	-3.920739e+00
1.531414e+01	-3.950886e+00
1.540259e+01	-3.980650e+00
1.549156e+01	-4.010894e+00
1.558103e+01	-4.041138e+00
1.567103e+01	-4.071311e+00
1.576155e+01	-4.101853e+00
1.585258e+01	-4.132638e+00
1.594415e+01	-4.163473e+00
1.603624e+01	-4.194189e+00
1.612886e+01	-4.225007e+00
1.622202e+01	-4.256539e+00
1.631572e+01	-4.287844e+00
1.640996e+01	-4.319235e+00
1.650474e+01	-4.350755e+00
1.660008e+01	-4.382370e+00
1.669596e+01	-4.414303e+00
1.679239e+01	-4.446304e+00
1.688938e+01	-4.478538e+00
1.698694e+01	-4.510839e+00
1.708505e+01	-4.543114e+00
1.718373e+01	-4.575569e+00
1.728299e+01	-4.608325e+00
1.738281e+01	-4.640973e+00
1.748322e+01	-4.674163e+00
1.758420e+01	-4.707224e+00
1.768576e+01	-4.740017e+00
1.778792e+01	-4.773535e+00
1.789066e+01	-4.806700e+00
1.799399e+01	-4.840661e+00
1.809793e+01	-4.874075e+00
1.820246e+01	-4.908059e+00
1.830760e+01	-4.941826e+00
1.841334e+01	-4.976008e+00
1.851969e+01	-5.010147e+00
1.862666e+01	-5.044384e+00
1.873425e+01	-5.078569e+00
1.884246e+01	-5.113252e+00
1.895129e+01	-5.147927e+00
1.906075e+01	-5.182821e+00
1.917085e+01	-5.217595e+00
1.928158e+01	-5.252723e+00
1.939295e+01	-5.287927e+00
1.950496e+01	-5.323266e+00
1.961762e+01	-5.358421e+00
1.973093e+01	-5.394255e+00
1.984490e+01	-5.429435e+00
1.995952e+01	-5.465356e+00
2.007480e+01	-5.501359e+00
2.019076e+01	-5.537496e+00
2.030738e+01	-5.573600e+00
2.042467e+01	-5.609744e+00
2.054264e+01	-5.646298e+00
2.066130e+01	-5.682340e+00
2.078064e+01	-5.718986e+00
2.090066e+01	-5.755970e+00
2.102139e+01	-5.792671e+00
2.114280e+01	-5.829402e+00
2.126492e+01	-5.866434e+00
2.138775e+01	-5.903590e+00
2.151128e+01	-5.940808e+00
2.163553e+01	-5.978121e+00
2.176050e+01	-6.015590e+00
2.188619e+01	-6.053080e+00
2.201260e+01	-6.090803e+00
2.213974e+01	-6.128323e+00
2.226762e+01	-6.166555e+00
2.239624e+01	-6.204573e+00
2.252560e+01	-6.242161e+00
2.265571e+01	-6.280548e+00
2.278656e+01	-6.319112e+00
2.291818e+01	-6.357413e+00
2.305055e+01	-6.395640e+00
2.318369e+01	-6.434562e+00
2.331760e+01	-6.473234e+00
2.345228e+01	-6.511942e+00
2.358774e+01	-6.551135e+00
2.372398e+01	-6.590295e+00
2.386101e+01	-6.629133e+00
2.399883e+01	-6.668287e+00
2.413745e+01	-6.707224e+00
2.427686e+01	-6.747000e+00
2.441709e+01	-6.786355e+00
2.455812e+01	-6.826447e+00
2.469997e+01	-6.865574e+00
2.484263e+01	-6.905560e+00
2.498612e+01	-6.945706e+00
2.513044e+01	-6.985302e+00
2.527559e+01	-7.025347e+00
2.542158e+01	-7.065648e+00
2.556842e+01	-7.105926e+00
2.571610e+01	-7.146287e+00
2.586463e+01	-7.186429e+00
2.601403e+01	-7.227214e+00
2.616428e+01	-7.267672e+00
2.631541e+01	-7.308434e+00
2.646740e+01	-7.349054e+00
2.662028e+01	-7.390011e+00
2.677404e+01	-7.430854e+00
2.692868e+01	-7.472066e+00
2.708422e+01	-7.513079e+00
2.724066e+01	-7.554380e+00
2.739800e+01	-7.595504e+00
2.755625e+01	-7.636973e+00
2.771541e+01	-7.678032e+00
2.787550e+01	-7.719942e+00
2.803650e+01	-7.761454e+00
2.819844e+01	-7.803129e+00
2.836131e+01	-7.845172e+00
2.852513e+01	-7.887029e+00
2.868989e+01	-7.928732e+00
2.885560e+01	-7.970612e+00
2.902227e+01	-8.012647e+00
2.918990e+01	-8.055373e+00
2.935850e+01	-8.096964e+00
2.952807e+01	-8.139393e+00
2.969863e+01	-8.182087e+00
2.987016e+01	-8.224103e+00
3.004269e+01	-8.266683e+00
3.021622e+01	-8.309912e+00
3.039075e+01	-8.352328e+00
3.056628e+01	-8.395099e+00
3.074283e+01	-8.437865e+00
3.092040e+01	-8.480990e+00
3.109900e+01	-8.523182e+00
3.127862e+01	-8.566264e+00
3.145929e+01	-8.609466e+00
3.164099e+01	-8.652554e+00
3.182375e+01	-8.696207e+00
3.200756e+01	-8.739443e+00
3.219244e+01	-8.782395e+00
3.237838e+01	-8.826474e+00
3.256540e+01	-8.869562e+00
3.275349e+01	-8.913731e+00
3.294268e+01	-8.956844e+00
3.313295e+01	-9.000486e+00
3.332433e+01	-9.044485e+00
3.351681e+01	-9.088509e+00
3.371040e+01	-9.131730e+00
3.390511e+01	-9.176229e+00
3.410094e+01	-9.220561e+00
3.429791e+01	-9.264310e+00
3.449601e+01	-9.308415e+00
3.469526e+01	-9.352270e+00
3.489566e+01	-9.396761e+00
3.509721e+01	-9.441361e+00
3.529993e+01	-9.485063e+00
3.550382e+01	-9.530319e+00
3.570889e+01	-9.573910e+00
3.591515e+01	-9.619135e+00
3.612259e+01	-9.663045e+00
3.633123e+01	-9.707843e+00
3.654108e+01	-9.752686e+00
3.675214e+01	-9.797519e+00
3.696442e+01	-9.842248e+00
3.717792e+01	-9.887079e+00
3.739266e+01	-9.932311e+00
3.760864e+01	-9.977543e+00
3.782587e+01	-1.002196e+01
3.804435e+01	-1.006728e+01
3.826409e+01	-1.011194e+01
3.848510e+01	-1.015772e+01
3.870739e+01	-1.020281e+01
3.893096e+01	-1.024823e+01
3.915583e+01	-1.029333e+01
3.938199e+01	-1.033851e+01
3.960946e+01	-1.038404e+01
3.983824e+01	-1.042990e+01
4.006834e+01	-1.047463e+01
4.029978e+01	-1.052081e+01
4.053255e+01	-1.056596e+01
4.076666e+01	-1.061197e+01
4.100213e+01	-1.065709e+01
4.123896e+01	-1.070291e+01
4.147715e+01	-1.074874e+01
4.171672e+01	-1.079573e+01
4.195767e+01	-1.084109e+01
4.220002e+01	-1.088683e+01
4.244377e+01	-1.093348e+01
4.268892e+01	-1.097896e+01
4.293549e+01	-1.102496e+01
4.318348e+01	-1.107091e+01
4.343291e+01	-1.111750e+01
4.368377e+01	-1.116338e+01
4.393609e+01	-1.120940e+01
4.418986e+01	-1.125571e+01
4.444510e+01	-1.130180e+01
4.470182e+01	-1.134765e+01
4.496001e+01	-1.139476e+01
4.521970e+01	-1.144144e+01
4.548089e+01	-1.148779e+01
4.574358e+01	-1.153492e+01
4.600779e+01	-1.158102e+01
4.627353e+01	-1.162706e+01
4.654081e+01	-1.167344e+01
4.680963e+01	-1.172080e+01
4.708000e+01	-1.176747e+01
4.735193e+01	-1.181392e+01
4.762543e+01	-1.186049e+01
4.790051e+01	-1.190735e+01
4.817719e+01	-1.195468e+01
4.845545e+01	-1.200117e+01
4.873533e+01	-1.204788e+01
4.901682e+01	-1.209510e+01
4.929994e+01	-1.214198e+01
4.958470e+01	-1.218919e+01
4.987110e+01	-1.223600e+01
5.015915e+01	-1.228277e+01
5.044887e+01	-1.233013e+01
5.074026e+01	-1.237656e+01
5.103333e+01	-1.242445e+01
5.132810e+01	-1.247166e+01
5.162457e+01	-1.251922e+01
5.192275e+01	-1.256659e+01
5.222265e+01	-1.261267e+01
5.252429e+01	-1.266061e+01
5.282767e+01	-1.270853e+01
5.313280e+01	-1.275557e+01
5.343969e+01	-1.280255e+01
5.374836e+01	-1.285009e+01
5.405880e+01	-1.289741e+01
5.437105e+01	-1.294449e+01
5.468509e+01	-1.299268e+01
5.500095e+01	-1.303960e+01
5.531863e+01	-1.308793e+01
5.563815e+01	-1.313500e+01
5.595951e+01	-1.318263e+01
5.628273e+01	-1.323090e+01
5.660782e+01	-1.327853e+01
5.693479e+01	-1.332627e+01
5.726364e+01	-1.337325e+01
5.759439e+01	-1.342163e+01
5.792705e+01	-1.346849e+01
5.826164e+01	-1.351686e+01
5.859815e+01	-1.356368e+01
5.893662e+01	-1.361306e+01
5.927703e+01	-1.365995e+01
5.961941e+01	-1.370777e+01
5.996377e+01	-1.375549e+01
6.031012e+01	-1.380412e+01
6.065847e+01	-1.385187e+01
6.100883e+01	-1.390072e+01
6.136121e+01	-1.394810e+01
6.171563e+01	-1.399513e+01
6.207210e+01	-1.404374e+01
6.243063e+01	-1.409211e+01
6.279122e+01	-1.414018e+01
6.315390e+01	-1.418822e+01
6.351868e+01	-1.423635e+01
6.388556e+01	-1.428418e+01
6.425456e+01	-1.433369e+01
6.462569e+01	-1.438153e+01
6.499897e+01	-1.442843e+01
6.537440e+01	-1.447794e+01
6.575200e+01	-1.452617e+01
6.613178e+01	-1.457371e+01
6.651375e+01	-1.462179e+01
6.689793e+01	-1.467049e+01
6.728433e+01	-1.472010e+01
6.767297e+01	-1.476694e+01
6.806384e+01	-1.481628e+01
6.845698e+01	-1.486392e+01
6.885238e+01	-1.491185e+01
6.925007e+01	-1.496043e+01
6.965005e+01	-1.500921e+01
7.005235e+01	-1.505713e+01
7.045697e+01	-1.510598e+01
7.086393e+01	-1.515402e+01
7.127323e+01	-1.520246e+01
7.168490e+01	-1.525256e+01
7.209895e+01	-1.530020e+01
7.251539e+01	-1.534838e+01
7.293424e+01	-1.539751e+01
7.335551e+01	-1.544544e+01
7.377920e+01	-1.549451e+01
7.420535e+01	-1.554251e+01
7.463396e+01	-1.559159e+01
7.506504e+01	-1.564087e+01
7.549861e+01	-1.568871e+01
7.593469e+01	-1.573724e+01
7.637328e+01	-1.578702e+01
7.681441e+01	-1.583532e+01
7.725809e+01	-1.588391e+01
7.770433e+01	-1.593304e+01
7.815315e+01	-1.598067e+01
7.860456e+01	-1.602961e+01
7.905857e+01	-1.607873e+01
7.951521e+01	-1.612858e+01
7.997449e+01	-1.617664e+01
8.043642e+01	-1.622509e+01
8.090102e+01	-1.627406e+01
8.136830e+01	-1.632380e+01
8.183828e+01	-1.637130e+01
8.231097e+01	-1.642091e+01
8.278640e+01	-1.646925e+01
8.326457e+01	-1.651889e+01
8.374550e+01	-1.656831e+01
8.422921e+01	-1.661683e+01
8.471572e+01	-1.666495e+01
8.520503e+01	-1.671440e+01
8.569717e+01	-1.676332e+01
8.619215e+01	-1.681160e+01
8.669000e+01	-1.686037e+01
8.719071e+01	-1.691042e+01
8.769432e+01	-1.695929e+01
8.820084e+01	-1.700779e+01
8.871029e+01	-1.705869e+01
8.922267e+01	-1.710723e+01
8.973802e+01	-1.715543e+01
9.025634e+01	-1.720510e+01
9.077766e+01	-1.725290e+01
9.130199e+01	-1.730273e+01
9.182935e+01	-1.735258e+01
9.235975e+01	-1.740190e+01
9.289321e+01	-1.744999e+01
9.342976e+01	-1.749960e+01
9.396941e+01	-1.754898e+01
9.451217e+01	-1.759802e+01
9.505807e+01	-1.764766e+01
9.560712e+01	-1.769629e+01
9.615934e+01	-1.774528e+01
9.671476e+01	-1.779483e+01
9.727338e+01	-1.784383e+01
9.783522e+01	-1.789219e+01
9.840032e+01	-1.794251e+01
9.896867e+01	-1.799163e+01
9.954031e+01	-1.803910e+01
1.001153e+02	-1.809014e+01
1.006935e+02	-1.813898e+01
1.012751e+02	-1.818822e+01
1.018601e+02	-1.823702e+01
1.024484e+02	-1.828717e+01
1.030402e+02	-1.833635e+01
1.036353e+02	-1.838537e+01
1.042339e+02	-1.843409e+01
1.048360e+02	-1.848435e+01
1.054415e+02	-1.853211e+01
1.060505e+02	-1.858349e+01
1.066631e+02	-1.863273e+01
1.072791e+02	-1.868054e+01
1.078988e+02	-1.873058e+01
1.085220e+02	-1.877920e+01
1.091488e+02	-1.882998e+01
1.097793e+02	-1.887831e+01
1.104133e+02	-1.892922e+01
1.110511e+02	-1.897792e+01
1.116925e+02	-1.902703e+01
1.123376e+02	-1.907472e+01
1.129865e+02	-1.912669e+01
1.136391e+02	-1.917649e+01
1.142955e+02	-1.922455e+01
1.149556e+02	-1.927420e+01
1.156196e+02	-1.932364e+01
1.162874e+02	-1.937368e+01
1.169591e+02	-1.942201e+01
1.176347e+02	-1.947196e+01
1.183141e+02	-1.952125e+01
1.189975e+02	-1.957169e+01
1.196848e+02	-1.962130e+01
1.203761e+02	-1.966843e+01
1.210714e+02	-1.972012e+01
1.217707e+02	-1.976914e+01
1.224740e+02	-1.981846e+01
1.231814e+02	-1.987018e+01
1.238929e+02	-1.991751e+01
1.246085e+02	-1.996783e+01
1.253283e+02	-2.001668e+01
1.260522e+02	-2.006675e+01
1.267802e+02	-2.011629e+01
1.275125e+02	-2.016513e+01
1.282490e+02	-2.021375e+01
1.289898e+02	-2.026526e+01
1.297348e+02	-2.031328e+01
1.304842e+02	-2.036332e+01
1.312378e+02	-2.041335e+01
1.319959e+02	-2.046217e+01
1.327583e+02	-2.051304e+01
1.335251e+02	-2.056288e+01
1.342963e+02	-2.061178e+01
1.350720e+02	-2.066053e+01
1.358522e+02	-2.071195e+01
1.366368e+02	-2.076179e+01
1.374260e+02	-2.080939e+01
1.382198e+02	-2.085844e+01
1.390182e+02	-2.090949e+01
1.398211e+02	-2.095954e+01
1.406287e+02	-2.100997e+01
1.414410e+02	-2.105894e+01
1.422579e+02	-2.110745e+01
1.430796e+02	-2.115565e+01
1.439060e+02	-2.120820e+01
1.447372e+02	-2.125864e+01
1.455732e+02	-2.130499e+01
1.464141e+02	-2.135476e+01
1.472597e+02	-2.140695e+01
1.481103e+02	-2.145655e+01
1.489658e+02	-2.150530e+01
1.498262e+02	-2.155658e+01
1.506916e+02	-2.160500e+01
1.515620e+02	-2.165549e+01
1.524374e+02	-2.170213e+01
1.533179e+02	-2.175430e+01
1.542034e+02	-2.180351e+01
1.550941e+02	-2.185329e+01
1.559899e+02	-2.190372e+01
1.568909e+02	-2.195229e+01
1.577971e+02	-2.200313e+01
1.587085e+02	-2.205194e+01
1.596252e+02	-2.210304e+01
1.605472e+02	-2.215193e+01
1.614745e+02	-2.220159e+01
1.624072e+02	-2.225060e+01
1.633453e+02	-2.229962e+01
1.642887e+02	-2.235173e+01
1.652377e+02	-2.240039e+01
1.661921e+02	-2.245087e+01
1.671520e+02	-2.250092e+01
1.681175e+02	-2.254913e+01
1.690885e+02	-2.259832e+01
1.700651e+02	-2.264912e+01
1.710474e+02	-2.269986e+01
1.720354e+02	-2.274833e+01
1.730291e+02	-2.280003e+01
1.740285e+02	-2.284936e+01
1.750337e+02	-2.289924e+01
1.760446e+02	-2.294646e+01
1.770615e+02	-2.299746e+01
1.780842e+02	-2.304744e+01
1.791128e+02	-2.309674e+01
1.801473e+02	-2.314837e+01
1.811878e+02	-2.319928e+01
1.822344e+02	-2.324593e+01
1.832870e+02	-2.329936e+01
1.843456e+02	-2.334699e+01
1.854104e+02	-2.339670e+01
1.864813e+02	-2.344611e+01
1.875584e+02	-2.349596e+01
1.886418e+02	-2.354603e+01
1.897313e+02	-2.359623e+01
1.908272e+02	-2.364580e+01
1.919294e+02	-2.369564e+01
1.930380e+02	-2.374565e+01
1.941530e+02	-2.379551e+01
1.952744e+02	-2.384462e+01
1.964023e+02	-2.389556e+01
1.975367e+02	-2.394675e+01
1.986777e+02	-2.399556e+01
1.998252e+02	-2.404301e+01
2.009794e+02	-2.409421e+01
2.021403e+02	-2.414591e+01
2.033078e+02	-2.419425e+01
2.044821e+02	-2.424412e+01
2.056632e+02	-2.429266e+01
2.068511e+02	-2.434369e+01
2.080459e+02	-2.439136e+01
2.092475e+02	-2.444219e+01
2.104561e+02	-2.449244e+01
2.116717e+02	-2.454373e+01
2.128943e+02	-2.459260e+01
2.141240e+02	-2.464251e+01
2.153608e+02	-2.469214e+01
2.166047e+02	-2.474345e+01
2.178558e+02	-2.479332e+01
2.191141e+02	-2.484297e+01
2.203797e+02	-2.489463e+01
2.216526e+02	-2.494128e+01
2.229329e+02	-2.499265e+01
2.242205e+02	-2.504196e+01
2.255156e+02	-2.509280e+01
2.268182e+02	-2.514233e+01
2.281283e+02	-2.519041e+01
2.294459e+02	-2.524028e+01
2.307712e+02	-2.529266e+01
2.321041e+02	-2.534616e+01
2.334447e+02	-2.538951e+01
2.347931e+02	-2.543961e+01
2.361493e+02	-2.549327e+01
2.375133e+02	-2.554222e+01
2.388851e+02	-2.558970e+01
2.402649e+02	-2.564485e+01
2.416527e+02	-2.569102e+01
2.430484e+02	-2.573882e+01
2.444523e+02	-2.578910e+01
2.458642e+02	-2.584111e+01
2.472843e+02	-2.589249e+01
2.487126e+02	-2.594014e+01
2.501492e+02	-2.599230e+01
2.515940e+02	-2.604118e+01
2.530472e+02	-2.609141e+01
2.545088e+02	-2.613849e+01
2.559789e+02	-2.618932e+01
2.574574e+02	-2.623986e+01
2.589444e+02	-2.629459e+01
2.604401e+02	-2.634251e+01
2.619444e+02	-2.639079e+01
2.634574e+02	-2.644213e+01
2.649791e+02	-2.649077e+01
2.665096e+02	-2.654067e+01
2.680489e+02	-2.659133e+01
2.695972e+02	-2.664227e+01
2.711544e+02	-2.669058e+01
2.727205e+02	-2.673841e+01
2.742958e+02	-2.679125e+01
2.758801e+02	-2.683998e+01
2.774736e+02	-2.689105e+01
2.790762e+02	-2.694062e+01
2.806882e+02	-2.698856e+01
2.823094e+02	-2.704109e+01
2.839400e+02	-2.709110e+01
2.855800e+02	-2.713944e+01
2.872295e+02	-2.719174e+01
2.888886e+02	-2.724202e+01
2.905572e+02	-2.729037e+01
2.922354e+02	-2.734109e+01
2.939234e+02	-2.738988e+01
2.956211e+02	-2.744264e+01
2.973286e+02	-2.749431e+01
2.990459e+02	-2.754262e+01
3.007732e+02	-2.758827e+01
3.025104e+02	-2.764004e+01
3.042577e+02	-2.768699e+01
3.060151e+02	-2.773980e+01
3.077826e+02	-2.778937e+01
3.095604e+02	-2.784036e+01
3.113484e+02	-2.789038e+01
3.131467e+02	-2.794336e+01
3.149554e+02	-2.799366e+01
3.167746e+02	-2.803860e+01
3.186043e+02	-2.808927e+01
3.204445e+02	-2.813746e+01
3.222954e+02	-2.819242e+01
3.241570e+02	-2.824057e+01
3.260293e+02	-2.828780e+01
3.279124e+02	-2.833693e+01
3.298064e+02	-2.839156e+01
3.317114e+02	-2.844258e+01
3.336273e+02	-2.848981e+01
3.355544e+02	-2.853834e+01
3.374925e+02	-2.859052e+01
3.394418e+02	-2.864294e+01
3.414024e+02	-2.869105e+01
3.433744e+02	-2.873833e+01
3.453577e+02	-2.879247e+01
3.473525e+02	-2.884354e+01
3.493588e+02	-2.889161e+01
3.513766e+02	-2.894047e+01
3.534062e+02	-2.898835e+01
3.554474e+02	-2.904184e+01
3.575005e+02	-2.909036e+01
3.595654e+02	-2.914581e+01
3.616422e+02	-2.919224e+01
3.637311e+02	-2.924525e+01
3.658320e+02	-2.929101e+01
3.679450e+02	-2.934156e+01
3.700702e+02	-2.939073e+01
3.722077e+02	-2.944198e+01
3.743576e+02	-2.949518e+01
3.765199e+02	-2.954582e+01
3.786946e+02	-2.959066e+01
3.808820e+02	-2.964338e+01
3.830819e+02	-2.969528e+01
3.852946e+02	-2.974331e+01
3.875200e+02	-2.979651e+01
3.897583e+02	-2.984318e+01
3.920096e+02	-2.989848e+01
3.942738e+02	-2.994330e+01
3.965511e+02	-2.999022e+01
3.988416e+02	-3.004148e+01
4.011452e+02	-3.009371e+01
4.034622e+02	-3.014539e+01
4.057926e+02	-3.019124e+01
4.081365e+02	-3.024408e+01
4.104938e+02	-3.029309e+01
4.128648e+02	-3.034402e+01
4.152495e+02	-3.039353e+01
4.176480e+02	-3.044625e+01
4.200603e+02	-3.049340e+01
4.224866e+02	-3.054503e+01
4.249268e+02	-3.059508e+01
4.273812e+02	-3.064541e+01
4.298497e+02	-3.069749e+01
4.323325e+02	-3.074472e+01
4.348297e+02	-3.079699e+01
4.373412e+02	-3.084146e+01
4.398673e+02	-3.089831e+01
4.424079e+02	-3.094672e+01
4.449633e+02	-3.099446e+01
4.475334e+02	-3.104518e+01
4.501183e+02	-3.109873e+01
4.527182e+02	-3.114424e+01
4.553330e+02	-3.119372e+01
4.579630e+02	-3.124708e+01
4.606082e+02	-3.129602e+01
4.632687e+02	-3.134967e+01
4.659445e+02	-3.139784e+01
4.686358e+02	-3.144850e+01
4.713426e+02	-3.149432e+01
4.740650e+02	-3.154793e+01
4.768032e+02	-3.160459e+01
4.795572e+02	-3.164013e+01
4.823271e+02	-3.169523e+01
4.851130e+02	-3.174586e+01
4.879150e+02	-3.180230e+01
4.907332e+02	-3.184756e+01
4.935676e+02	-3.189682e+01
4.964185e+02	-3.195535e+01
4.992858e+02	-3.200025e+01
5.021696e+02	-3.204705e+01
5.050701e+02	-3.210880e+01
5.079874e+02	-3.215012e+01
5.109215e+02	-3.220730e+01
5.138726e+02	-3.224684e+01
5.168407e+02	-3.229993e+01
5.198259e+02	-3.234963e+01
5.228284e+02	-3.240522e+01
5.258482e+02	-3.244737e+01
5.288855e+02	-3.250264e+01
5.319403e+02	-3.255003e+01
5.350128e+02	-3.259986e+01
5.381030e+02	-3.265362e+01
5.412111e+02	-3.270379e+01
5.443371e+02	-3.275785e+01
5.474812e+02	-3.280219e+01
5.506434e+02	-3.285651e+01
5.538239e+02	-3.290660e+01
5.570228e+02	-3.295867e+01
5.602401e+02	-3.300513e+01
5.634760e+02	-3.305449e+01
5.667306e+02	-3.310705e+01
5.700040e+02	-3.315430e+01
5.732964e+02	-3.320564e+01
5.766077e+02	-3.325752e+01
5.799382e+02	-3.330323e+01
5.832879e+02	-3.335246e+01
5.866569e+02	-3.341009e+01
5.900454e+02	-3.345950e+01
5.934535e+02	-3.351617e+01
5.968813e+02	-3.356471e+01
6.003288e+02	-3.360463e+01
6.037963e+02	-3.365699e+01
6.072838e+02	-3.371203e+01
6.107914e+02	-3.375733e+01
6.143194e+02	-3.381771e+01
6.178676e+02	-3.385625e+01
6.214364e+02	-3.391132e+01
6.250258e+02	-3.395914e+01
6.286359e+02	-3.401241e+01
6.322669e+02	-3.405274e+01
6.359189e+02	-3.411218e+01
6.395919e+02	-3.416289e+01
6.432862e+02	-3.421796e+01
6.470017e+02	-3.426584e+01
6.507388e+02	-3.431235e+01
6.544974e+02	-3.436091e+01
6.582778e+02	-3.440421e+01
6.620800e+02	-3.446517e+01
6.659041e+02	-3.450864e+01
6.697504e+02	-3.456713e+01
6.736188e+02	-3.461114e+01
6.775096e+02	-3.467377e+01
6.814229e+02	-3.471673e+01
6.853587e+02	-3.477099e+01
6.893173e+02	-3.481455e+01
6.932988e+02	-3.486917e+01
6.973033e+02	-3.492646e+01
7.013309e+02	-3.497006e+01
