Frequency(Hz)	Magnitude(dB)
1.000000e+01	-1.643116e-05
1.005776e+01	-1.662152e-05
1.011585e+01	-1.681408e-05
1.017428e+01	-1.700888e-05
1.023305e+01	-1.720593e-05
1.029215e+01	-1.740527e-05
1.035160e+01	-1.760691e-05
1.041139e+01	-1.781089e-05
1.047153e+01	-1.801724e-05
1.053201e+01	-1.822597e-05
1.059284e+01	-1.843712e-05
1.065403e+01	-1.865072e-05
1.071556e+01	-1.886680e-05
1.077746e+01	-1.908537e-05
1.083971e+01	-1.930648e-05
1.090232e+01	-1.953015e-05
1.096529e+01	-1.975641e-05
1.102862e+01	-1.998530e-05
1.109232e+01	-2.021683e-05
1.115639e+01	-2.045105e-05
1.122083e+01	-2.068798e-05
1.128564e+01	-2.092765e-05
1.135083e+01	-2.117011e-05
1.141639e+01	-2.141537e-05
1.148233e+01	-2.166347e-05
1.154865e+01	-2.191445e-05
1.161536e+01	-2.216833e-05
1.168245e+01	-2.242516e-05
1.174992e+01	-2.268496e-05
1.181779e+01	-2.294777e-05
1.188605e+01	-2.321362e-05
1.195470e+01	-2.348256e-05
1.202375e+01	-2.375461e-05
1.209320e+01	-2.402981e-05
1.216305e+01	-2.430820e-05
1.223330e+01	-2.458982e-05
1.230396e+01	-2.487470e-05
1.237503e+01	-2.516288e-05
1.244651e+01	-2.545440e-05
1.251840e+01	-2.574929e-05
1.259070e+01	-2.604761e-05
1.266343e+01	-2.634937e-05
1.273657e+01	-2.665464e-05
1.281014e+01	-2.696344e-05
1.288413e+01	-2.727582e-05
1.295855e+01	-2.759181e-05
1.303339e+01	-2.791147e-05
1.310867e+01	-2.823483e-05
1.318439e+01	-2.856194e-05
1.326054e+01	-2.889284e-05
1.333713e+01	-2.922757e-05
1.341417e+01	-2.956617e-05
1.349165e+01	-2.990871e-05
1.356958e+01	-3.025521e-05
1.364795e+01	-3.060572e-05
1.372678e+01	-3.096029e-05
1.380607e+01	-3.131898e-05
1.388581e+01	-3.168181e-05
1.396602e+01	-3.204886e-05
1.404668e+01	-3.242015e-05
1.412782e+01	-3.279574e-05
1.420942e+01	-3.317569e-05
1.429149e+01	-3.356004e-05
1.437404e+01	-3.394884e-05
1.445706e+01	-3.434215e-05
1.454057e+01	-3.474001e-05
1.462455e+01	-3.514248e-05
1.470902e+01	-3.554961e-05
1.479398e+01	-3.596146e-05
1.487943e+01	-3.637808e-05
1.496537e+01	-3.679953e-05
1.505181e+01	-3.722586e-05
1.513875e+01	-3.765713e-05
1.522619e+01	-3.809340e-05
1.531414e+01	-3.853472e-05
1.540259e+01	-3.898115e-05
1.549156e+01	-3.943276e-05
1.558103e+01	-3.988960e-05
1.567103e+01	-4.035173e-05
1.576155e+01	-4.081921e-05
1.585258e+01	-4.129211e-05
1.594415e+01	-4.177049e-05
1.603624e+01	-4.225441e-05
1.612886e+01	-4.274394e-05
1.622202e+01	-4.323913e-05
1.631572e+01	-4.374007e-05
1.640996e+01	-4.424681e-05
1.650474e+01	-4.475942e-05
1.660008e+01	-4.527797e-05
1.669596e+01	-4.580252e-05
1.679239e+01	-4.633315e-05
1.688938e+01	-4.686993e-05
1.698694e+01	-4.741293e-05
1.708505e+01	-4.796222e-05
1.718373e+01	-4.851787e-05
1.728299e+01	-4.907996e-05
1.738281e+01	-4.964856e-05
1.748322e+01	-5.022375e-05
1.758420e+01	-5.080561e-05
1.768576e+01	-5.139420e-05
1.778792e+01	-5.198961e-05
1.789066e+01	-5.259192e-05
1.799399e+01	-5.320121e-05
1.809793e+01	-5.381756e-05
1.820246e+01	-5.444105e-05
1.830760e+01	-5.507176e-05
1.841334e+01	-5.570977e-05
1.851969e+01	-5.635518e-05
1.862666e+01	-5.700807e-05
1.873425e+01	-5.766852e-05
1.884246e+01	-5.833662e-05
1.895129e+01	-5.901246e-05
1.906075e+01	-5.969613e-05
1.917085e+01	-6.038773e-05
1.928158e+01	-6.108733e-05
1.939295e+01	-6.179504e-05
1.950496e+01	-6.251095e-05
1.961762e+01	-6.323515e-05
1.973093e+01	-6.396774e-05
1.984490e+01	-6.470882e-05
1.995952e+01	-6.545848e-05
2.007480e+01	-6.621683e-05
2.019076e+01	-6.698396e-05
2.030738e+01	-6.775999e-05
2.042467e+01	-6.854500e-05
2.054264e+01	-6.933911e-05
2.066130e+01	-7.014241e-05
2.078064e+01	-7.095502e-05
2.090066e+01	-7.177705e-05
2.102139e+01	-7.260860e-05
2.114280e+01	-7.344979e-05
2.126492e+01	-7.430071e-05
2.138775e+01	-7.516150e-05
2.151128e+01	-7.603226e-05
2.163553e+01	-7.691311e-05
2.176050e+01	-7.780416e-05
2.188619e+01	-7.870554e-05
2.201260e+01	-7.961735e-05
2.213974e+01	-8.053973e-05
2.226762e+01	-8.147280e-05
2.239624e+01	-8.241668e-05
2.252560e+01	-8.337149e-05
2.265571e+01	-8.433736e-05
2.278656e+01	-8.531442e-05
2.291818e+01	-8.630280e-05
2.305055e+01	-8.730264e-05
2.318369e+01	-8.831405e-05
2.331760e+01	-8.933718e-05
2.345228e+01	-9.037217e-05
2.358774e+01	-9.141914e-05
2.372398e+01	-9.247825e-05
2.386101e+01	-9.354962e-05
2.399883e+01	-9.463341e-05
2.413745e+01	-9.572975e-05
2.427686e+01	-9.683880e-05
2.441709e+01	-9.796069e-05
2.455812e+01	-9.909558e-05
2.469997e+01	-1.002436e-04
2.484263e+01	-1.014050e-04
2.498612e+01	-1.025797e-04
2.513044e+01	-1.037681e-04
2.527559e+01	-1.049703e-04
2.542158e+01	-1.061864e-04
2.556842e+01	-1.074166e-04
2.571610e+01	-1.086610e-04
2.586463e+01	-1.099199e-04
2.601403e+01	-1.111933e-04
2.616428e+01	-1.124815e-04
2.631541e+01	-1.137846e-04
2.646740e+01	-1.151028e-04
2.662028e+01	-1.164363e-04
2.677404e+01	-1.177852e-04
2.692868e+01	-1.191498e-04
2.708422e+01	-1.205302e-04
2.724066e+01	-1.219265e-04
2.739800e+01	-1.233390e-04
2.755625e+01	-1.247679e-04
2.771541e+01	-1.262134e-04
2.787550e+01	-1.276756e-04
2.803650e+01	-1.291547e-04
2.819844e+01	-1.306510e-04
2.836131e+01	-1.321646e-04
2.852513e+01	-1.336957e-04
2.868989e+01	-1.352446e-04
2.885560e+01	-1.368114e-04
2.902227e+01	-1.383964e-04
2.918990e+01	-1.399997e-04
2.935850e+01	-1.416217e-04
2.952807e+01	-1.432624e-04
2.969863e+01	-1.449221e-04
2.987016e+01	-1.466010e-04
3.004269e+01	-1.482994e-04
3.021622e+01	-1.500174e-04
3.039075e+01	-1.517554e-04
3.056628e+01	-1.535135e-04
3.074283e+01	-1.552920e-04
3.092040e+01	-1.570910e-04
3.109900e+01	-1.589109e-04
3.127862e+01	-1.607519e-04
3.145929e+01	-1.626143e-04
3.164099e+01	-1.644982e-04
3.182375e+01	-1.664039e-04
3.200756e+01	-1.683317e-04
3.219244e+01	-1.702818e-04
3.237838e+01	-1.722545e-04
3.256540e+01	-1.742501e-04
3.275349e+01	-1.762688e-04
3.294268e+01	-1.783109e-04
3.313295e+01	-1.803766e-04
3.332433e+01	-1.824663e-04
3.351681e+01	-1.845802e-04
3.371040e+01	-1.867185e-04
3.390511e+01	-1.888817e-04
3.410094e+01	-1.910699e-04
3.429791e+01	-1.932834e-04
3.449601e+01	-1.955226e-04
3.469526e+01	-1.977877e-04
3.489566e+01	-2.000791e-04
3.509721e+01	-2.023970e-04
3.529993e+01	-2.047418e-04
3.550382e+01	-2.071137e-04
3.570889e+01	-2.095132e-04
3.591515e+01	-2.119404e-04
3.612259e+01	-2.143957e-04
3.633123e+01	-2.168795e-04
3.654108e+01	-2.193920e-04
3.675214e+01	-2.219337e-04
3.696442e+01	-2.245048e-04
3.717792e+01	-2.271056e-04
3.739266e+01	-2.297367e-04
3.760864e+01	-2.323981e-04
3.782587e+01	-2.350905e-04
3.804435e+01	-2.378140e-04
3.826409e+01	-2.405691e-04
3.848510e+01	-2.433560e-04
3.870739e+01	-2.461753e-04
3.893096e+01	-2.490272e-04
3.915583e+01	-2.519122e-04
3.938199e+01	-2.548306e-04
3.960946e+01	-2.577828e-04
3.983824e+01	-2.607692e-04
4.006834e+01	-2.637902e-04
4.029978e+01	-2.668462e-04
4.053255e+01	-2.699375e-04
4.076666e+01	-2.730647e-04
4.100213e+01	-2.762282e-04
4.123896e+01	-2.794283e-04
4.147715e+01	-2.826654e-04
4.171672e+01	-2.859401e-04
4.195767e+01	-2.892526e-04
4.220002e+01	-2.926036e-04
4.244377e+01	-2.959934e-04
4.268892e+01	-2.994224e-04
4.293549e+01	-3.028912e-04
4.318348e+01	-3.064002e-04
4.343291e+01	-3.099498e-04
4.368377e+01	-3.135405e-04
4.393609e+01	-3.171728e-04
4.418986e+01	-3.208472e-04
4.444510e+01	-3.245642e-04
4.470182e+01	-3.283242e-04
4.496001e+01	-3.321278e-04
4.521970e+01	-3.359754e-04
4.548089e+01	-3.398676e-04
4.574358e+01	-3.438049e-04
4.600779e+01	-3.477879e-04
4.627353e+01	-3.518169e-04
4.654081e+01	-3.558926e-04
4.680963e+01	-3.600156e-04
4.708000e+01	-3.641863e-04
4.735193e+01	-3.684053e-04
4.762543e+01	-3.726732e-04
4.790051e+01	-3.769905e-04
4.817719e+01	-3.813579e-04
4.845545e+01	-3.857758e-04
4.873533e+01	-3.902449e-04
4.901682e+01	-3.947658e-04
4.929994e+01	-3.993391e-04
4.958470e+01	-4.039653e-04
4.987110e+01	-4.086452e-04
5.015915e+01	-4.133792e-04
5.044887e+01	-4.181681e-04
5.074026e+01	-4.230124e-04
5.103333e+01	-4.279129e-04
5.132810e+01	-4.328702e-04
5.162457e+01	-4.378848e-04
5.192275e+01	-4.429576e-04
5.222265e+01	-4.480891e-04
5.252429e+01	-4.532801e-04
5.282767e+01	-4.585312e-04
5.313280e+01	-4.638431e-04
5.343969e+01	-4.692166e-04
5.374836e+01	-4.746523e-04
5.405880e+01	-4.801509e-04
5.437105e+01	-4.857133e-04
5.468509e+01	-4.913401e-04
5.500095e+01	-4.970321e-04
5.531863e+01	-5.027900e-04
5.563815e+01	-5.086146e-04
5.595951e+01	-5.145067e-04
5.628273e+01	-5.204671e-04
5.660782e+01	-5.264965e-04
5.693479e+01	-5.325957e-04
5.726364e+01	-5.387656e-04
5.759439e+01	-5.450069e-04
5.792705e+01	-5.513206e-04
5.826164e+01	-5.577074e-04
5.859815e+01	-5.641682e-04
5.893662e+01	-5.707038e-04
5.927703e+01	-5.773151e-04
5.961941e+01	-5.840030e-04
5.996377e+01	-5.907684e-04
6.031012e+01	-5.976121e-04
6.065847e+01	-6.045351e-04
6.100883e+01	-6.115384e-04
6.136121e+01	-6.186227e-04
6.171563e+01	-6.257891e-04
6.207210e+01	-6.330385e-04
6.243063e+01	-6.403719e-04
6.279122e+01	-6.477902e-04
6.315390e+01	-6.552945e-04
6.351868e+01	-6.628857e-04
6.388556e+01	-6.705648e-04
6.425456e+01	-6.783329e-04
6.462569e+01	-6.861909e-04
6.499897e+01	-6.941400e-04
6.537440e+01	-7.021811e-04
6.575200e+01	-7.103154e-04
6.613178e+01	-7.185440e-04
6.651375e+01	-7.268678e-04
6.689793e+01	-7.352880e-04
6.728433e+01	-7.438058e-04
6.767297e+01	-7.524223e-04
6.806384e+01	-7.611385e-04
6.845698e+01	-7.699557e-04
6.885238e+01	-7.788751e-04
6.925007e+01	-7.878978e-04
6.965005e+01	-7.970249e-04
7.005235e+01	-8.062578e-04
7.045697e+01	-8.155977e-04
7.086393e+01	-8.250457e-04
7.127323e+01	-8.346032e-04
7.168490e+01	-8.442713e-04
7.209895e+01	-8.540515e-04
7.251539e+01	-8.639449e-04
7.293424e+01	-8.739529e-04
7.335551e+01	-8.840769e-04
7.377920e+01	-8.943181e-04
7.420535e+01	-9.046779e-04
7.463396e+01	-9.151578e-04
7.506504e+01	-9.257590e-04
7.549861e+01	-9.364830e-04
7.593469e+01	-9.473313e-04
7.637328e+01	-9.583051e-04
7.681441e+01	-9.694061e-04
7.725809e+01	-9.806357e-04
7.770433e+01	-9.919953e-04
7.815315e+01	-1.003487e-03
7.860456e+01	-1.015111e-03
7.905857e+01	-1.026870e-03
7.951521e+01	-1.038765e-03
7.997449e+01	-1.050798e-03
8.043642e+01	-1.062970e-03
8.090102e+01	-1.075283e-03
8.136830e+01	-1.087739e-03
8.183828e+01	-1.100339e-03
8.231097e+01	-1.113086e-03
8.278640e+01	-1.125979e-03
8.326457e+01	-1.139022e-03
8.374550e+01	-1.152216e-03
8.422921e+01	-1.165563e-03
8.471572e+01	-1.179065e-03
8.520503e+01	-1.192723e-03
8.569717e+01	-1.206539e-03
8.619215e+01	-1.220515e-03
8.669000e+01	-1.234653e-03
8.719071e+01	-1.248955e-03
8.769432e+01	-1.263422e-03
8.820084e+01	-1.278057e-03
8.871029e+01	-1.292862e-03
8.922267e+01	-1.307837e-03
8.973802e+01	-1.322987e-03
9.025634e+01	-1.338312e-03
9.077766e+01	-1.353814e-03
9.130199e+01	-1.369496e-03
9.182935e+01	-1.385359e-03
9.235975e+01	-1.401406e-03
9.289321e+01	-1.417639e-03
9.342976e+01	-1.434060e-03
9.396941e+01	-1.450672e-03
9.451217e+01	-1.467475e-03
9.505807e+01	-1.484473e-03
9.560712e+01	-1.501668e-03
9.615934e+01	-1.519063e-03
9.671476e+01	-1.536658e-03
9.727338e+01	-1.554458e-03
9.783522e+01	-1.572463e-03
9.840032e+01	-1.590677e-03
9.896867e+01	-1.609102e-03
9.954031e+01	-1.627741e-03
1.001153e+02	-1.646595e-03
1.006935e+02	-1.665667e-03
1.012751e+02	-1.684961e-03
1.018601e+02	-1.704478e-03
1.024484e+02	-1.724221e-03
1.030402e+02	-1.744192e-03
1.036353e+02	-1.764395e-03
1.042339e+02	-1.784832e-03
1.048360e+02	-1.805505e-03
1.054415e+02	-1.826418e-03
1.060505e+02	-1.847573e-03
1.066631e+02	-1.868973e-03
1.072791e+02	-1.890621e-03
1.078988e+02	-1.912520e-03
1.085220e+02	-1.934672e-03
1.091488e+02	-1.957080e-03
1.097793e+02	-1.979749e-03
1.104133e+02	-2.002679e-03
1.110511e+02	-2.025875e-03
1.116925e+02	-2.049340e-03
1.123376e+02	-2.073077e-03
1.129865e+02	-2.097088e-03
1.136391e+02	-2.121377e-03
1.142955e+02	-2.145948e-03
1.149556e+02	-2.170803e-03
1.156196e+02	-2.195946e-03
1.162874e+02	-2.221380e-03
1.169591e+02	-2.247109e-03
1.176347e+02	-2.273135e-03
1.183141e+02	-2.299463e-03
1.189975e+02	-2.326096e-03
1.196848e+02	-2.353037e-03
1.203761e+02	-2.380290e-03
1.210714e+02	-2.407859e-03
1.217707e+02	-2.435747e-03
1.224740e+02	-2.463957e-03
1.231814e+02	-2.492495e-03
1.238929e+02	-2.521363e-03
1.246085e+02	-2.550565e-03
1.253283e+02	-2.580105e-03
1.260522e+02	-2.609987e-03
1.267802e+02	-2.640215e-03
1.275125e+02	-2.670793e-03
1.282490e+02	-2.701726e-03
1.289898e+02	-2.733016e-03
1.297348e+02	-2.764669e-03
1.304842e+02	-2.796688e-03
1.312378e+02	-2.829078e-03
1.319959e+02	-2.861842e-03
1.327583e+02	-2.894986e-03
1.335251e+02	-2.928514e-03
1.342963e+02	-2.962430e-03
1.350720e+02	-2.996739e-03
1.358522e+02	-3.031445e-03
1.366368e+02	-3.066553e-03
1.374260e+02	-3.102067e-03
1.382198e+02	-3.137992e-03
1.390182e+02	-3.174333e-03
1.398211e+02	-3.211095e-03
1.406287e+02	-3.248282e-03
1.414410e+02	-3.285900e-03
1.422579e+02	-3.323954e-03
1.430796e+02	-3.362448e-03
1.439060e+02	-3.401387e-03
1.447372e+02	-3.440778e-03
1.455732e+02	-3.480624e-03
1.464141e+02	-3.520931e-03
1.472597e+02	-3.561706e-03
1.481103e+02	-3.602952e-03
1.489658e+02	-3.644675e-03
1.498262e+02	-3.686882e-03
1.506916e+02	-3.729577e-03
1.515620e+02	-3.772766e-03
1.524374e+02	-3.816456e-03
1.533179e+02	-3.860651e-03
1.542034e+02	-3.905357e-03
1.550941e+02	-3.950581e-03
1.559899e+02	-3.996328e-03
1.568909e+02	-4.042605e-03
1.577971e+02	-4.089418e-03
1.587085e+02	-4.136772e-03
1.596252e+02	-4.184675e-03
1.605472e+02	-4.233132e-03
1.614745e+02	-4.282149e-03
1.624072e+02	-4.331734e-03
1.633453e+02	-4.381893e-03
1.642887e+02	-4.432633e-03
1.652377e+02	-4.483959e-03
1.661921e+02	-4.535880e-03
1.671520e+02	-4.588401e-03
1.681175e+02	-4.641531e-03
1.690885e+02	-4.695275e-03
1.700651e+02	-4.749641e-03
1.710474e+02	-4.804637e-03
1.720354e+02	-4.860268e-03
1.730291e+02	-4.916544e-03
1.740285e+02	-4.973471e-03
1.750337e+02	-5.031056e-03
1.760446e+02	-5.089308e-03
1.770615e+02	-5.148234e-03
1.780842e+02	-5.207842e-03
1.791128e+02	-5.268139e-03
1.801473e+02	-5.329134e-03
1.811878e+02	-5.390835e-03
1.822344e+02	-5.453250e-03
1.832870e+02	-5.516387e-03
1.843456e+02	-5.580255e-03
1.854104e+02	-5.644862e-03
1.864813e+02	-5.710216e-03
1.875584e+02	-5.776326e-03
1.886418e+02	-5.843201e-03
1.897313e+02	-5.910850e-03
1.908272e+02	-5.979281e-03
1.919294e+02	-6.048504e-03
1.930380e+02	-6.118528e-03
1.941530e+02	-6.189362e-03
1.952744e+02	-6.261016e-03
1.964023e+02	-6.333498e-03
1.975367e+02	-6.406819e-03
1.986777e+02	-6.480989e-03
1.998252e+02	-6.556016e-03
2.009794e+02	-6.631911e-03
2.021403e+02	-6.708684e-03
2.033078e+02	-6.786344e-03
2.044821e+02	-6.864904e-03
2.056632e+02	-6.944372e-03
2.068511e+02	-7.024759e-03
2.080459e+02	-7.106076e-03
2.092475e+02	-7.188333e-03
2.104561e+02	-7.271542e-03
2.116717e+02	-7.355713e-03
2.128943e+02	-7.440857e-03
2.141240e+02	-7.526987e-03
2.153608e+02	-7.614112e-03
2.166047e+02	-7.702245e-03
2.178558e+02	-7.791397e-03
2.191141e+02	-7.881581e-03
2.203797e+02	-7.972807e-03
2.216526e+02	-8.065088e-03
2.229329e+02	-8.158436e-03
2.242205e+02	-8.252863e-03
2.255156e+02	-8.348383e-03
2.268182e+02	-8.445006e-03
2.281283e+02	-8.542748e-03
2.294459e+02	-8.641619e-03
2.307712e+02	-8.741633e-03
2.321041e+02	-8.842804e-03
2.334447e+02	-8.945144e-03
2.347931e+02	-9.048667e-03
2.361493e+02	-9.153388e-03
2.375133e+02	-9.259319e-03
2.388851e+02	-9.366474e-03
2.402649e+02	-9.474868e-03
2.416527e+02	-9.584516e-03
2.430484e+02	-9.695430e-03
2.444523e+02	-9.807627e-03
2.458642e+02	-9.921121e-03
2.472843e+02	-1.003593e-02
2.487126e+02	-1.015206e-02
2.501492e+02	-1.026953e-02
2.515940e+02	-1.038837e-02
2.530472e+02	-1.050857e-02
2.545088e+02	-1.063017e-02
2.559789e+02	-1.075317e-02
2.574574e+02	-1.087759e-02
2.589444e+02	-1.100345e-02
2.604401e+02	-1.113076e-02
2.619444e+02	-1.125955e-02
2.634574e+02	-1.138982e-02
2.649791e+02	-1.152160e-02
2.665096e+02	-1.165490e-02
2.680489e+02	-1.178974e-02
2.695972e+02	-1.192614e-02
2.711544e+02	-1.206411e-02
2.727205e+02	-1.220368e-02
2.742958e+02	-1.234486e-02
2.758801e+02	-1.248768e-02
2.774736e+02	-1.263214e-02
2.790762e+02	-1.277827e-02
2.806882e+02	-1.292609e-02
2.823094e+02	-1.307561e-02
2.839400e+02	-1.322687e-02
2.855800e+02	-1.337987e-02
2.872295e+02	-1.353463e-02
2.888886e+02	-1.369119e-02
2.905572e+02	-1.384955e-02
2.922354e+02	-1.400974e-02
2.939234e+02	-1.417178e-02
2.956211e+02	-1.433569e-02
2.973286e+02	-1.450150e-02
2.990459e+02	-1.466922e-02
3.007732e+02	-1.483887e-02
3.025104e+02	-1.501049e-02
3.042577e+02	-1.518408e-02
3.060151e+02	-1.535968e-02
3.077826e+02	-1.553731e-02
3.095604e+02	-1.571698e-02
3.113484e+02	-1.589873e-02
3.131467e+02	-1.608258e-02
3.149554e+02	-1.626855e-02
3.167746e+02	-1.645667e-02
3.186043e+02	-1.664696e-02
3.204445e+02	-1.683944e-02
3.222954e+02	-1.703415e-02
3.241570e+02	-1.723110e-02
3.260293e+02	-1.743032e-02
3.279124e+02	-1.763185e-02
3.298064e+02	-1.783570e-02
3.317114e+02	-1.804190e-02
3.336273e+02	-1.825048e-02
3.355544e+02	-1.846146e-02
3.374925e+02	-1.867488e-02
3.394418e+02	-1.889076e-02
3.414024e+02	-1.910913e-02
3.433744e+02	-1.933002e-02
3.453577e+02	-1.955346e-02
3.473525e+02	-1.977948e-02
3.493588e+02	-2.000810e-02
3.513766e+02	-2.023935e-02
3.534062e+02	-2.047328e-02
3.554474e+02	-2.070990e-02
3.575005e+02	-2.094925e-02
3.595654e+02	-2.119135e-02
3.616422e+02	-2.143625e-02
3.637311e+02	-2.168398e-02
3.658320e+02	-2.193455e-02
3.679450e+02	-2.218802e-02
3.700702e+02	-2.244441e-02
3.722077e+02	-2.270375e-02
3.743576e+02	-2.296608e-02
3.765199e+02	-2.323144e-02
3.786946e+02	-2.349985e-02
3.808820e+02	-2.377135e-02
3.830819e+02	-2.404598e-02
3.852946e+02	-2.432378e-02
3.875200e+02	-2.460478e-02
3.897583e+02	-2.488901e-02
3.920096e+02	-2.517652e-02
3.942738e+02	-2.546734e-02
3.965511e+02	-2.576150e-02
3.988416e+02	-2.605906e-02
4.011452e+02	-2.636004e-02
4.034622e+02	-2.666449e-02
4.057926e+02	-2.697244e-02
4.081365e+02	-2.728394e-02
4.104938e+02	-2.759902e-02
4.128648e+02	-2.791773e-02
4.152495e+02	-2.824011e-02
4.176480e+02	-2.856620e-02
4.200603e+02	-2.889605e-02
4.224866e+02	-2.922968e-02
4.249268e+02	-2.956716e-02
4.273812e+02	-2.990852e-02
4.298497e+02	-3.025381e-02
4.323325e+02	-3.060307e-02
4.348297e+02	-3.095635e-02
4.373412e+02	-3.131369e-02
4.398673e+02	-3.167514e-02
4.424079e+02	-3.204074e-02
4.449633e+02	-3.241056e-02
4.475334e+02	-3.278462e-02
4.501183e+02	-3.316298e-02
4.527182e+02	-3.354570e-02
4.553330e+02	-3.393281e-02
4.579630e+02	-3.432437e-02
4.606082e+02	-3.472044e-02
4.632687e+02	-3.512105e-02
4.659445e+02	-3.552627e-02
4.686358e+02	-3.593614e-02
4.713426e+02	-3.635072e-02
4.740650e+02	-3.677007e-02
4.768032e+02	-3.719423e-02
4.795572e+02	-3.762327e-02
4.823271e+02	-3.805723e-02
4.851130e+02	-3.849617e-02
4.879150e+02	-3.894015e-02
4.907332e+02	-3.938924e-02
4.935676e+02	-3.984347e-02
4.964185e+02	-4.030292e-02
4.992858e+02	-4.076765e-02
5.021696e+02	-4.123770e-02
5.050701e+02	-4.171315e-02
5.079874e+02	-4.219406e-02
5.109215e+02	-4.268048e-02
5.138726e+02	-4.317248e-02
5.168407e+02	-4.367012e-02
5.198259e+02	-4.417348e-02
5.228284e+02	-4.468260e-02
5.258482e+02	-4.519756e-02
5.288855e+02	-4.571842e-02
5.319403e+02	-4.624526e-02
5.350128e+02	-4.677813e-02
5.381030e+02	-4.731711e-02
5.412111e+02	-4.786226e-02
5.443371e+02	-4.841367e-02
5.474812e+02	-4.897138e-02
5.506434e+02	-4.953549e-02
5.538239e+02	-5.010605e-02
5.570228e+02	-5.068315e-02
5.602401e+02	-5.126686e-02
5.634760e+02	-5.185725e-02
5.667306e+02	-5.245439e-02
5.700040e+02	-5.305837e-02
5.732964e+02	-5.366926e-02
5.766077e+02	-5.428715e-02
5.799382e+02	-5.491210e-02
5.832879e+02	-5.554419e-02
5.866569e+02	-5.618352e-02
5.900454e+02	-5.683016e-02
5.934535e+02	-5.748419e-02
5.968813e+02	-5.814569e-02
6.003288e+02	-5.881476e-02
6.037963e+02	-5.949147e-02
6.072838e+02	-6.017592e-02
6.107914e+02	-6.086818e-02
6.143194e+02	-6.156835e-02
6.178676e+02	-6.227652e-02
6.214364e+02	-6.299277e-02
6.250258e+02	-6.371720e-02
6.286359e+02	-6.444990e-02
6.322669e+02	-6.519096e-02
6.359189e+02	-6.594048e-02
6.395919e+02	-6.669855e-02
6.432862e+02	-6.746527e-02
6.470017e+02	-6.824073e-02
6.507388e+02	-6.902503e-02
6.544974e+02	-6.981827e-02
6.582778e+02	-7.062056e-02
6.620800e+02	-7.143198e-02
6.659041e+02	-7.225266e-02
6.697504e+02	-7.308268e-02
6.736188e+02	-7.392216e-02
6.775096e+02	-7.477119e-02
6.814229e+02	-7.562990e-02
6.853587e+02	-7.649837e-02
6.893173e+02	-7.737673e-02
6.932988e+02	-7.826509e-02
6.973033e+02	-7.916355e-02
7.013309e+02	-8.007223e-02
