Frequency(Hz)	Magnitude(dB)
1.000000e+01	-1.778796e-05
1.005776e+01	-1.799403e-05
1.011585e+01	-1.820250e-05
1.017428e+01	-1.841338e-05
1.023305e+01	-1.862670e-05
1.029215e+01	-1.884250e-05
1.035160e+01	-1.906079e-05
1.041139e+01	-1.928162e-05
1.047153e+01	-1.950500e-05
1.053201e+01	-1.973097e-05
1.059284e+01	-1.995956e-05
1.065403e+01	-2.019079e-05
1.071556e+01	-2.042471e-05
1.077746e+01	-2.066134e-05
1.083971e+01	-2.090070e-05
1.090232e+01	-2.114284e-05
1.096529e+01	-2.138779e-05
1.102862e+01	-2.163557e-05
1.109232e+01	-2.188622e-05
1.115639e+01	-2.213978e-05
1.122083e+01	-2.239628e-05
1.128564e+01	-2.265574e-05
1.135083e+01	-2.291822e-05
1.141639e+01	-2.318373e-05
1.148233e+01	-2.345232e-05
1.154865e+01	-2.372402e-05
1.161536e+01	-2.399887e-05
1.168245e+01	-2.427690e-05
1.174992e+01	-2.455815e-05
1.181779e+01	-2.484267e-05
1.188605e+01	-2.513047e-05
1.195470e+01	-2.542162e-05
1.202375e+01	-2.571613e-05
1.209320e+01	-2.601406e-05
1.216305e+01	-2.631544e-05
1.223330e+01	-2.662031e-05
1.230396e+01	-2.692871e-05
1.237503e+01	-2.724069e-05
1.244651e+01	-2.755628e-05
1.251840e+01	-2.787553e-05
1.259070e+01	-2.819847e-05
1.266343e+01	-2.852516e-05
1.273657e+01	-2.885563e-05
1.281014e+01	-2.918993e-05
1.288413e+01	-2.952810e-05
1.295855e+01	-2.987019e-05
1.303339e+01	-3.021624e-05
1.310867e+01	-3.056631e-05
1.318439e+01	-3.092042e-05
1.326054e+01	-3.127864e-05
1.333713e+01	-3.164101e-05
1.341417e+01	-3.200758e-05
1.349165e+01	-3.237840e-05
1.356958e+01	-3.275351e-05
1.364795e+01	-3.313297e-05
1.372678e+01	-3.351682e-05
1.380607e+01	-3.390512e-05
1.388581e+01	-3.429792e-05
1.396602e+01	-3.469527e-05
1.404668e+01	-3.509722e-05
1.412782e+01	-3.550383e-05
1.420942e+01	-3.591515e-05
1.429149e+01	-3.633124e-05
1.437404e+01	-3.675214e-05
1.445706e+01	-3.717792e-05
1.454057e+01	-3.760864e-05
1.462455e+01	-3.804434e-05
1.470902e+01	-3.848510e-05
1.479398e+01	-3.893095e-05
1.487943e+01	-3.938198e-05
1.496537e+01	-3.983823e-05
1.505181e+01	-4.029976e-05
1.513875e+01	-4.076664e-05
1.522619e+01	-4.123893e-05
1.531414e+01	-4.171670e-05
1.540259e+01	-4.219999e-05
1.549156e+01	-4.268889e-05
1.558103e+01	-4.318345e-05
1.567103e+01	-4.368374e-05
1.576155e+01	-4.418983e-05
1.585258e+01	-4.470178e-05
1.594415e+01	-4.521966e-05
1.603624e+01	-4.574354e-05
1.612886e+01	-4.627348e-05
1.622202e+01	-4.680957e-05
1.631572e+01	-4.735187e-05
1.640996e+01	-4.790045e-05
1.650474e+01	-4.845539e-05
1.660008e+01	-4.901676e-05
1.669596e+01	-4.958463e-05
1.679239e+01	-5.015907e-05
1.688938e+01	-5.074018e-05
1.698694e+01	-5.132801e-05
1.708505e+01	-5.192266e-05
1.718373e+01	-5.252419e-05
1.728299e+01	-5.313270e-05
1.738281e+01	-5.374825e-05
1.748322e+01	-5.437094e-05
1.758420e+01	-5.500083e-05
1.768576e+01	-5.563803e-05
1.778792e+01	-5.628261e-05
1.789066e+01	-5.693465e-05
1.799399e+01	-5.759425e-05
1.809793e+01	-5.826149e-05
1.820246e+01	-5.893647e-05
1.830760e+01	-5.961926e-05
1.841334e+01	-6.030996e-05
1.851969e+01	-6.100866e-05
1.862666e+01	-6.171546e-05
1.873425e+01	-6.243044e-05
1.884246e+01	-6.315371e-05
1.895129e+01	-6.388536e-05
1.906075e+01	-6.462548e-05
1.917085e+01	-6.537418e-05
1.928158e+01	-6.613156e-05
1.939295e+01	-6.689770e-05
1.950496e+01	-6.767272e-05
1.961762e+01	-6.845673e-05
1.973093e+01	-6.924981e-05
1.984490e+01	-7.005208e-05
1.995952e+01	-7.086365e-05
2.007480e+01	-7.168462e-05
2.019076e+01	-7.251510e-05
2.030738e+01	-7.335520e-05
2.042467e+01	-7.420503e-05
2.054264e+01	-7.506471e-05
2.066130e+01	-7.593435e-05
2.078064e+01	-7.681406e-05
2.090066e+01	-7.770396e-05
2.102139e+01	-7.860418e-05
2.114280e+01	-7.951482e-05
2.126492e+01	-8.043601e-05
2.138775e+01	-8.136788e-05
2.151128e+01	-8.231054e-05
2.163553e+01	-8.326412e-05
2.176050e+01	-8.422875e-05
2.188619e+01	-8.520455e-05
2.201260e+01	-8.619166e-05
2.213974e+01	-8.719021e-05
2.226762e+01	-8.820032e-05
2.239624e+01	-8.922213e-05
2.252560e+01	-9.025579e-05
2.265571e+01	-9.130142e-05
2.278656e+01	-9.235916e-05
2.291818e+01	-9.342915e-05
2.305055e+01	-9.451154e-05
2.318369e+01	-9.560647e-05
2.331760e+01	-9.671409e-05
2.345228e+01	-9.783454e-05
2.358774e+01	-9.896796e-05
2.372398e+01	-1.001145e-04
2.386101e+01	-1.012744e-04
2.399883e+01	-1.024476e-04
2.413745e+01	-1.036345e-04
2.427686e+01	-1.048351e-04
2.441709e+01	-1.060497e-04
2.455812e+01	-1.072783e-04
2.469997e+01	-1.085211e-04
2.484263e+01	-1.097783e-04
2.498612e+01	-1.110501e-04
2.513044e+01	-1.123367e-04
2.527559e+01	-1.136381e-04
2.542158e+01	-1.149546e-04
2.556842e+01	-1.162864e-04
2.571610e+01	-1.176336e-04
2.586463e+01	-1.189964e-04
2.601403e+01	-1.203749e-04
2.616428e+01	-1.217695e-04
2.631541e+01	-1.231802e-04
2.646740e+01	-1.246073e-04
2.662028e+01	-1.260509e-04
2.677404e+01	-1.275112e-04
2.692868e+01	-1.289884e-04
2.708422e+01	-1.304827e-04
2.724066e+01	-1.319944e-04
2.739800e+01	-1.335236e-04
2.755625e+01	-1.350705e-04
2.771541e+01	-1.366353e-04
2.787550e+01	-1.382182e-04
2.803650e+01	-1.398195e-04
2.819844e+01	-1.414393e-04
2.836131e+01	-1.430779e-04
2.852513e+01	-1.447354e-04
2.868989e+01	-1.464122e-04
2.885560e+01	-1.481084e-04
2.902227e+01	-1.498243e-04
2.918990e+01	-1.515600e-04
2.935850e+01	-1.533158e-04
2.952807e+01	-1.550920e-04
2.969863e+01	-1.568887e-04
2.987016e+01	-1.587063e-04
3.004269e+01	-1.605449e-04
3.021622e+01	-1.624049e-04
3.039075e+01	-1.642863e-04
3.056628e+01	-1.661896e-04
3.074283e+01	-1.681149e-04
3.092040e+01	-1.700625e-04
3.109900e+01	-1.720327e-04
3.127862e+01	-1.740257e-04
3.145929e+01	-1.760418e-04
3.164099e+01	-1.780813e-04
3.182375e+01	-1.801443e-04
3.200756e+01	-1.822313e-04
3.219244e+01	-1.843425e-04
3.237838e+01	-1.864781e-04
3.256540e+01	-1.886384e-04
3.275349e+01	-1.908238e-04
3.294268e+01	-1.930345e-04
3.313295e+01	-1.952708e-04
3.332433e+01	-1.975330e-04
3.351681e+01	-1.998215e-04
3.371040e+01	-2.021364e-04
3.390511e+01	-2.044781e-04
3.410094e+01	-2.068470e-04
3.429791e+01	-2.092434e-04
3.449601e+01	-2.116674e-04
3.469526e+01	-2.141196e-04
3.489566e+01	-2.166002e-04
3.509721e+01	-2.191095e-04
3.529993e+01	-2.216479e-04
3.550382e+01	-2.242157e-04
3.570889e+01	-2.268132e-04
3.591515e+01	-2.294408e-04
3.612259e+01	-2.320989e-04
3.633123e+01	-2.347877e-04
3.654108e+01	-2.375077e-04
3.675214e+01	-2.402593e-04
3.696442e+01	-2.430426e-04
3.717792e+01	-2.458583e-04
3.739266e+01	-2.487065e-04
3.760864e+01	-2.515878e-04
3.782587e+01	-2.545024e-04
3.804435e+01	-2.574508e-04
3.826409e+01	-2.604334e-04
3.848510e+01	-2.634505e-04
3.870739e+01	-2.665025e-04
3.893096e+01	-2.695899e-04
3.915583e+01	-2.727131e-04
3.938199e+01	-2.758725e-04
3.960946e+01	-2.790684e-04
3.983824e+01	-2.823014e-04
4.006834e+01	-2.855718e-04
4.029978e+01	-2.888801e-04
4.053255e+01	-2.922268e-04
4.076666e+01	-2.956122e-04
4.100213e+01	-2.990368e-04
4.123896e+01	-3.025011e-04
4.147715e+01	-3.060056e-04
4.171672e+01	-3.095506e-04
4.195767e+01	-3.131367e-04
4.220002e+01	-3.167644e-04
4.244377e+01	-3.204340e-04
4.268892e+01	-3.241462e-04
4.293549e+01	-3.279014e-04
4.318348e+01	-3.317001e-04
4.343291e+01	-3.355428e-04
4.368377e+01	-3.394300e-04
4.393609e+01	-3.433622e-04
4.418986e+01	-3.473400e-04
4.444510e+01	-3.513639e-04
4.470182e+01	-3.554343e-04
4.496001e+01	-3.595520e-04
4.521970e+01	-3.637173e-04
4.548089e+01	-3.679309e-04
4.574358e+01	-3.721933e-04
4.600779e+01	-3.765051e-04
4.627353e+01	-3.808668e-04
4.654081e+01	-3.852790e-04
4.680963e+01	-3.897424e-04
4.708000e+01	-3.942575e-04
4.735193e+01	-3.988248e-04
4.762543e+01	-4.034451e-04
4.790051e+01	-4.081189e-04
4.817719e+01	-4.128469e-04
4.845545e+01	-4.176296e-04
4.873533e+01	-4.224677e-04
4.901682e+01	-4.273619e-04
4.929994e+01	-4.323127e-04
4.958470e+01	-4.373209e-04
4.987110e+01	-4.423872e-04
5.015915e+01	-4.475121e-04
5.044887e+01	-4.526964e-04
5.074026e+01	-4.579407e-04
5.103333e+01	-4.632458e-04
5.132810e+01	-4.686123e-04
5.162457e+01	-4.740410e-04
5.192275e+01	-4.795326e-04
5.222265e+01	-4.850878e-04
5.252429e+01	-4.907074e-04
5.282767e+01	-4.963921e-04
5.313280e+01	-5.021426e-04
5.343969e+01	-5.079597e-04
5.374836e+01	-5.138442e-04
5.405880e+01	-5.197969e-04
5.437105e+01	-5.258185e-04
5.468509e+01	-5.319099e-04
5.500095e+01	-5.380718e-04
5.531863e+01	-5.443051e-04
5.563815e+01	-5.506107e-04
5.595951e+01	-5.569892e-04
5.628273e+01	-5.634417e-04
5.660782e+01	-5.699689e-04
5.693479e+01	-5.765717e-04
5.726364e+01	-5.832510e-04
5.759439e+01	-5.900076e-04
5.792705e+01	-5.968426e-04
5.826164e+01	-6.037567e-04
5.859815e+01	-6.107509e-04
5.893662e+01	-6.178261e-04
5.927703e+01	-6.249833e-04
5.961941e+01	-6.322233e-04
5.996377e+01	-6.395473e-04
6.031012e+01	-6.469561e-04
6.065847e+01	-6.544507e-04
6.100883e+01	-6.620321e-04
6.136121e+01	-6.697013e-04
6.171563e+01	-6.774594e-04
6.207210e+01	-6.853073e-04
6.243063e+01	-6.932461e-04
6.279122e+01	-7.012769e-04
6.315390e+01	-7.094008e-04
6.351868e+01	-7.176187e-04
6.388556e+01	-7.259318e-04
6.425456e+01	-7.343412e-04
6.462569e+01	-7.428480e-04
6.499897e+01	-7.514534e-04
6.537440e+01	-7.601584e-04
6.575200e+01	-7.689643e-04
6.613178e+01	-7.778721e-04
6.651375e+01	-7.868832e-04
6.689793e+01	-7.959986e-04
6.728433e+01	-8.052196e-04
6.767297e+01	-8.145474e-04
6.806384e+01	-8.239833e-04
6.845698e+01	-8.335285e-04
6.885238e+01	-8.431842e-04
6.925007e+01	-8.529517e-04
6.965005e+01	-8.628324e-04
7.005235e+01	-8.728276e-04
7.045697e+01	-8.829385e-04
7.086393e+01	-8.931665e-04
7.127323e+01	-9.035130e-04
7.168490e+01	-9.139794e-04
7.209895e+01	-9.245669e-04
7.251539e+01	-9.352772e-04
7.293424e+01	-9.461114e-04
7.335551e+01	-9.570712e-04
7.377920e+01	-9.681579e-04
7.420535e+01	-9.793730e-04
7.463396e+01	-9.907180e-04
7.506504e+01	-1.002194e-03
7.549861e+01	-1.013804e-03
7.593469e+01	-1.025548e-03
7.637328e+01	-1.037427e-03
7.681441e+01	-1.049445e-03
7.725809e+01	-1.061601e-03
7.770433e+01	-1.073899e-03
7.815315e+01	-1.086339e-03
7.860456e+01	-1.098923e-03
7.905857e+01	-1.111652e-03
7.951521e+01	-1.124529e-03
7.997449e+01	-1.137556e-03
8.043642e+01	-1.150733e-03
8.090102e+01	-1.164063e-03
8.136830e+01	-1.177547e-03
8.183828e+01	-1.191187e-03
8.231097e+01	-1.204985e-03
8.278640e+01	-1.218944e-03
8.326457e+01	-1.233063e-03
8.374550e+01	-1.247347e-03
8.422921e+01	-1.261795e-03
8.471572e+01	-1.276411e-03
8.520503e+01	-1.291197e-03
8.569717e+01	-1.306153e-03
8.619215e+01	-1.321283e-03
8.669000e+01	-1.336588e-03
8.719071e+01	-1.352071e-03
8.769432e+01	-1.367732e-03
8.820084e+01	-1.383575e-03
8.871029e+01	-1.399602e-03
8.922267e+01	-1.415814e-03
8.973802e+01	-1.432214e-03
9.025634e+01	-1.448804e-03
9.077766e+01	-1.465586e-03
9.130199e+01	-1.482562e-03
9.182935e+01	-1.499735e-03
9.235975e+01	-1.517107e-03
9.289321e+01	-1.534680e-03
9.342976e+01	-1.552456e-03
9.396941e+01	-1.570439e-03
9.451217e+01	-1.588629e-03
9.505807e+01	-1.607030e-03
9.560712e+01	-1.625645e-03
9.615934e+01	-1.644475e-03
9.671476e+01	-1.663523e-03
9.727338e+01	-1.682791e-03
9.783522e+01	-1.702283e-03
9.840032e+01	-1.722001e-03
9.896867e+01	-1.741947e-03
9.954031e+01	-1.762123e-03
1.001153e+02	-1.782534e-03
1.006935e+02	-1.803181e-03
1.012751e+02	-1.824067e-03
1.018601e+02	-1.845194e-03
1.024484e+02	-1.866567e-03
1.030402e+02	-1.888187e-03
1.036353e+02	-1.910057e-03
1.042339e+02	-1.932181e-03
1.048360e+02	-1.954561e-03
1.054415e+02	-1.977200e-03
1.060505e+02	-2.000101e-03
1.066631e+02	-2.023267e-03
1.072791e+02	-2.046702e-03
1.078988e+02	-2.070408e-03
1.085220e+02	-2.094388e-03
1.091488e+02	-2.118646e-03
1.097793e+02	-2.143185e-03
1.104133e+02	-2.168008e-03
1.110511e+02	-2.193119e-03
1.116925e+02	-2.218520e-03
1.123376e+02	-2.244216e-03
1.129865e+02	-2.270209e-03
1.136391e+02	-2.296503e-03
1.142955e+02	-2.323101e-03
1.149556e+02	-2.350008e-03
1.156196e+02	-2.377226e-03
1.162874e+02	-2.404759e-03
1.169591e+02	-2.432611e-03
1.176347e+02	-2.460785e-03
1.183141e+02	-2.489286e-03
1.189975e+02	-2.518117e-03
1.196848e+02	-2.547281e-03
1.203761e+02	-2.576783e-03
1.210714e+02	-2.606627e-03
1.217707e+02	-2.636816e-03
1.224740e+02	-2.667355e-03
1.231814e+02	-2.698248e-03
1.238929e+02	-2.729498e-03
1.246085e+02	-2.761110e-03
1.253283e+02	-2.793087e-03
1.260522e+02	-2.825436e-03
1.267802e+02	-2.858158e-03
1.275125e+02	-2.891260e-03
1.282490e+02	-2.924744e-03
1.289898e+02	-2.958617e-03
1.297348e+02	-2.992881e-03
1.304842e+02	-3.027542e-03
1.312378e+02	-3.062605e-03
1.319959e+02	-3.098073e-03
1.327583e+02	-3.133952e-03
1.335251e+02	-3.170247e-03
1.342963e+02	-3.206961e-03
1.350720e+02	-3.244101e-03
1.358522e+02	-3.281671e-03
1.366368e+02	-3.319675e-03
1.374260e+02	-3.358119e-03
1.382198e+02	-3.397009e-03
1.390182e+02	-3.436349e-03
1.398211e+02	-3.476144e-03
1.406287e+02	-3.516399e-03
1.414410e+02	-3.557121e-03
1.422579e+02	-3.598314e-03
1.430796e+02	-3.639984e-03
1.439060e+02	-3.682136e-03
1.447372e+02	-3.724776e-03
1.455732e+02	-3.767910e-03
1.464141e+02	-3.811543e-03
1.472597e+02	-3.855681e-03
1.481103e+02	-3.900330e-03
1.489658e+02	-3.945496e-03
1.498262e+02	-3.991185e-03
1.506916e+02	-4.037402e-03
1.515620e+02	-4.084154e-03
1.524374e+02	-4.131448e-03
1.533179e+02	-4.179289e-03
1.542034e+02	-4.227683e-03
1.550941e+02	-4.276638e-03
1.559899e+02	-4.326159e-03
1.568909e+02	-4.376253e-03
1.577971e+02	-4.426928e-03
1.587085e+02	-4.478188e-03
1.596252e+02	-4.530042e-03
1.605472e+02	-4.582496e-03
1.614745e+02	-4.635557e-03
1.624072e+02	-4.689232e-03
1.633453e+02	-4.743528e-03
1.642887e+02	-4.798453e-03
1.652377e+02	-4.854013e-03
1.661921e+02	-4.910216e-03
1.671520e+02	-4.967070e-03
1.681175e+02	-5.024581e-03
1.690885e+02	-5.082758e-03
1.700651e+02	-5.141608e-03
1.710474e+02	-5.201140e-03
1.720354e+02	-5.261359e-03
1.730291e+02	-5.322276e-03
1.740285e+02	-5.383898e-03
1.750337e+02	-5.446233e-03
1.760446e+02	-5.509288e-03
1.770615e+02	-5.573074e-03
1.780842e+02	-5.637597e-03
1.791128e+02	-5.702867e-03
1.801473e+02	-5.768893e-03
1.811878e+02	-5.835682e-03
1.822344e+02	-5.903244e-03
1.832870e+02	-5.971587e-03
1.843456e+02	-6.040721e-03
1.854104e+02	-6.110655e-03
1.864813e+02	-6.181398e-03
1.875584e+02	-6.252960e-03
1.886418e+02	-6.325349e-03
1.897313e+02	-6.398576e-03
1.908272e+02	-6.472649e-03
1.919294e+02	-6.547580e-03
1.930380e+02	-6.623377e-03
1.941530e+02	-6.700052e-03
1.952744e+02	-6.777613e-03
1.964023e+02	-6.856071e-03
1.975367e+02	-6.935437e-03
1.986777e+02	-7.015720e-03
1.998252e+02	-7.096933e-03
2.009794e+02	-7.179084e-03
2.021403e+02	-7.262186e-03
2.033078e+02	-7.346249e-03
2.044821e+02	-7.431284e-03
2.056632e+02	-7.517303e-03
2.068511e+02	-7.604316e-03
2.080459e+02	-7.692336e-03
2.092475e+02	-7.781374e-03
2.104561e+02	-7.871441e-03
2.116717e+02	-7.962550e-03
2.128943e+02	-8.054712e-03
2.141240e+02	-8.147941e-03
2.153608e+02	-8.242247e-03
2.166047e+02	-8.337643e-03
2.178558e+02	-8.434143e-03
2.191141e+02	-8.531758e-03
2.203797e+02	-8.630503e-03
2.216526e+02	-8.730388e-03
2.229329e+02	-8.831429e-03
2.242205e+02	-8.933638e-03
2.255156e+02	-9.037028e-03
2.268182e+02	-9.141614e-03
2.281283e+02	-9.247409e-03
2.294459e+02	-9.354427e-03
2.307712e+02	-9.462682e-03
2.321041e+02	-9.572188e-03
2.334447e+02	-9.682961e-03
2.347931e+02	-9.795013e-03
2.361493e+02	-9.908361e-03
2.375133e+02	-1.002302e-02
2.388851e+02	-1.013900e-02
2.402649e+02	-1.025633e-02
2.416527e+02	-1.037501e-02
2.430484e+02	-1.049506e-02
2.444523e+02	-1.061650e-02
2.458642e+02	-1.073934e-02
2.472843e+02	-1.086360e-02
2.487126e+02	-1.098930e-02
2.501492e+02	-1.111645e-02
2.515940e+02	-1.124507e-02
2.530472e+02	-1.137517e-02
2.545088e+02	-1.150678e-02
2.559789e+02	-1.163991e-02
2.574574e+02	-1.177458e-02
2.589444e+02	-1.191081e-02
2.604401e+02	-1.204860e-02
2.619444e+02	-1.218799e-02
2.634574e+02	-1.232899e-02
2.649791e+02	-1.247162e-02
2.665096e+02	-1.261590e-02
2.680489e+02	-1.276184e-02
2.695972e+02	-1.290947e-02
2.711544e+02	-1.305880e-02
2.727205e+02	-1.320986e-02
2.742958e+02	-1.336267e-02
2.758801e+02	-1.351723e-02
2.774736e+02	-1.367359e-02
2.790762e+02	-1.383175e-02
2.806882e+02	-1.399173e-02
2.823094e+02	-1.415356e-02
2.839400e+02	-1.431727e-02
2.855800e+02	-1.448286e-02
2.872295e+02	-1.465036e-02
2.888886e+02	-1.481980e-02
2.905572e+02	-1.499119e-02
2.922354e+02	-1.516457e-02
2.939234e+02	-1.533994e-02
2.956211e+02	-1.551734e-02
2.973286e+02	-1.569678e-02
2.990459e+02	-1.587830e-02
3.007732e+02	-1.606192e-02
3.025104e+02	-1.624765e-02
3.042577e+02	-1.643552e-02
3.060151e+02	-1.662557e-02
3.077826e+02	-1.681780e-02
3.095604e+02	-1.701226e-02
3.113484e+02	-1.720896e-02
3.131467e+02	-1.740793e-02
3.149554e+02	-1.760919e-02
3.167746e+02	-1.781278e-02
3.186043e+02	-1.801872e-02
3.204445e+02	-1.822703e-02
3.222954e+02	-1.843775e-02
3.241570e+02	-1.865089e-02
3.260293e+02	-1.886650e-02
3.279124e+02	-1.908459e-02
3.298064e+02	-1.930519e-02
3.317114e+02	-1.952834e-02
3.336273e+02	-1.975407e-02
3.355544e+02	-1.998240e-02
3.374925e+02	-2.021336e-02
3.394418e+02	-2.044698e-02
3.414024e+02	-2.068330e-02
3.433744e+02	-2.092234e-02
3.453577e+02	-2.116414e-02
3.473525e+02	-2.140873e-02
3.493588e+02	-2.165613e-02
3.513766e+02	-2.190639e-02
3.534062e+02	-2.215953e-02
3.554474e+02	-2.241559e-02
3.575005e+02	-2.267460e-02
3.595654e+02	-2.293660e-02
3.616422e+02	-2.320161e-02
3.637311e+02	-2.346968e-02
3.658320e+02	-2.374083e-02
3.679450e+02	-2.401512e-02
3.700702e+02	-2.429256e-02
3.722077e+02	-2.457319e-02
3.743576e+02	-2.485706e-02
3.765199e+02	-2.514420e-02
3.786946e+02	-2.543465e-02
3.808820e+02	-2.572844e-02
3.830819e+02	-2.602561e-02
3.852946e+02	-2.632621e-02
3.875200e+02	-2.663027e-02
3.897583e+02	-2.693783e-02
3.920096e+02	-2.724893e-02
3.942738e+02	-2.756361e-02
3.965511e+02	-2.788191e-02
3.988416e+02	-2.820388e-02
4.011452e+02	-2.852955e-02
4.034622e+02	-2.885897e-02
4.057926e+02	-2.919219e-02
4.081365e+02	-2.952923e-02
4.104938e+02	-2.987016e-02
4.128648e+02	-3.021500e-02
4.152495e+02	-3.056382e-02
4.176480e+02	-3.091664e-02
4.200603e+02	-3.127353e-02
4.224866e+02	-3.163452e-02
4.249268e+02	-3.199966e-02
4.273812e+02	-3.236899e-02
4.298497e+02	-3.274258e-02
4.323325e+02	-3.312046e-02
4.348297e+02	-3.350269e-02
4.373412e+02	-3.388931e-02
4.398673e+02	-3.428037e-02
4.424079e+02	-3.467593e-02
4.449633e+02	-3.507603e-02
4.475334e+02	-3.548073e-02
4.501183e+02	-3.589008e-02
4.527182e+02	-3.630414e-02
4.553330e+02	-3.672295e-02
4.579630e+02	-3.714657e-02
4.606082e+02	-3.757505e-02
4.632687e+02	-3.800846e-02
4.659445e+02	-3.844685e-02
4.686358e+02	-3.889026e-02
4.713426e+02	-3.933877e-02
4.740650e+02	-3.979243e-02
4.768032e+02	-4.025129e-02
4.795572e+02	-4.071543e-02
4.823271e+02	-4.118488e-02
4.851130e+02	-4.165973e-02
4.879150e+02	-4.214002e-02
4.907332e+02	-4.262582e-02
4.935676e+02	-4.311720e-02
4.964185e+02	-4.361421e-02
4.992858e+02	-4.411692e-02
5.021696e+02	-4.462539e-02
5.050701e+02	-4.513970e-02
5.079874e+02	-4.565990e-02
5.109215e+02	-4.618607e-02
5.138726e+02	-4.671826e-02
5.168407e+02	-4.725655e-02
5.198259e+02	-4.780102e-02
5.228284e+02	-4.835171e-02
5.258482e+02	-4.890872e-02
5.288855e+02	-4.947211e-02
5.319403e+02	-5.004195e-02
5.350128e+02	-5.061832e-02
5.381030e+02	-5.120128e-02
5.412111e+02	-5.179092e-02
5.443371e+02	-5.238731e-02
5.474812e+02	-5.299052e-02
5.506434e+02	-5.360064e-02
5.538239e+02	-5.421773e-02
5.570228e+02	-5.484189e-02
5.602401e+02	-5.547319e-02
5.634760e+02	-5.611170e-02
5.667306e+02	-5.675752e-02
5.700040e+02	-5.741072e-02
5.732964e+02	-5.807138e-02
5.766077e+02	-5.873960e-02
5.799382e+02	-5.941546e-02
5.832879e+02	-6.009903e-02
5.866569e+02	-6.079042e-02
5.900454e+02	-6.148971e-02
5.934535e+02	-6.219698e-02
5.968813e+02	-6.291232e-02
6.003288e+02	-6.363583e-02
6.037963e+02	-6.436761e-02
6.072838e+02	-6.510773e-02
6.107914e+02	-6.585630e-02
6.143194e+02	-6.661341e-02
6.178676e+02	-6.737915e-02
6.214364e+02	-6.815363e-02
6.250258e+02	-6.893694e-02
6.286359e+02	-6.972918e-02
6.322669e+02	-7.053045e-02
6.359189e+02	-7.134086e-02
6.395919e+02	-7.216049e-02
6.432862e+02	-7.298947e-02
6.470017e+02	-7.382788e-02
6.507388e+02	-7.467585e-02
6.544974e+02	-7.553347e-02
6.582778e+02	-7.640085e-02
6.620800e+02	-7.727810e-02
6.659041e+02	-7.816533e-02
6.697504e+02	-7.906266e-02
6.736188e+02	-7.997020e-02
6.775096e+02	-8.088805e-02
6.814229e+02	-8.181634e-02
6.853587e+02	-8.275518e-02
6.893173e+02	-8.370469e-02
6.932988e+02	-8.466499e-02
6.973033e+02	-8.563619e-02
7.013309e+02	-8.661843e-02
