Frequency(Hz)	Magnitude(dB)
1.000000e+01	-1.571503e-05
1.005776e+01	-1.589710e-05
1.011585e+01	-1.608127e-05
1.017428e+01	-1.626757e-05
1.023305e+01	-1.645604e-05
1.029215e+01	-1.664669e-05
1.035160e+01	-1.683954e-05
1.041139e+01	-1.703463e-05
1.047153e+01	-1.723198e-05
1.053201e+01	-1.743162e-05
1.059284e+01	-1.763357e-05
1.065403e+01	-1.783786e-05
1.071556e+01	-1.804452e-05
1.077746e+01	-1.825357e-05
1.083971e+01	-1.846504e-05
1.090232e+01	-1.867896e-05
1.096529e+01	-1.889536e-05
1.102862e+01	-1.911427e-05
1.109232e+01	-1.933571e-05
1.115639e+01	-1.955972e-05
1.122083e+01	-1.978633e-05
1.128564e+01	-2.001555e-05
1.135083e+01	-2.024744e-05
1.141639e+01	-2.048201e-05
1.148233e+01	-2.071930e-05
1.154865e+01	-2.095934e-05
1.161536e+01	-2.120216e-05
1.168245e+01	-2.144779e-05
1.174992e+01	-2.169627e-05
1.181779e+01	-2.194763e-05
1.188605e+01	-2.220189e-05
1.195470e+01	-2.245911e-05
1.202375e+01	-2.271930e-05
1.209320e+01	-2.298251e-05
1.216305e+01	-2.324877e-05
1.223330e+01	-2.351811e-05
1.230396e+01	-2.379058e-05
1.237503e+01	-2.406620e-05
1.244651e+01	-2.434501e-05
1.251840e+01	-2.462705e-05
1.259070e+01	-2.491236e-05
1.266343e+01	-2.520098e-05
1.273657e+01	-2.549294e-05
1.281014e+01	-2.578828e-05
1.288413e+01	-2.608704e-05
1.295855e+01	-2.638927e-05
1.303339e+01	-2.669499e-05
1.310867e+01	-2.700426e-05
1.318439e+01	-2.731711e-05
1.326054e+01	-2.763359e-05
1.333713e+01	-2.795373e-05
1.341417e+01	-2.827758e-05
1.349165e+01	-2.860518e-05
1.356958e+01	-2.893658e-05
1.364795e+01	-2.927182e-05
1.372678e+01	-2.961094e-05
1.380607e+01	-2.995399e-05
1.388581e+01	-3.030101e-05
1.396602e+01	-3.065206e-05
1.404668e+01	-3.100717e-05
1.412782e+01	-3.136640e-05
1.420942e+01	-3.172978e-05
1.429149e+01	-3.209738e-05
1.437404e+01	-3.246924e-05
1.445706e+01	-3.284540e-05
1.454057e+01	-3.322592e-05
1.462455e+01	-3.361085e-05
1.470902e+01	-3.400024e-05
1.479398e+01	-3.439414e-05
1.487943e+01	-3.479261e-05
1.496537e+01	-3.519569e-05
1.505181e+01	-3.560344e-05
1.513875e+01	-3.601591e-05
1.522619e+01	-3.643316e-05
1.531414e+01	-3.685525e-05
1.540259e+01	-3.728223e-05
1.549156e+01	-3.771415e-05
1.558103e+01	-3.815108e-05
1.567103e+01	-3.859306e-05
1.576155e+01	-3.904017e-05
1.585258e+01	-3.949246e-05
1.594415e+01	-3.994999e-05
1.603624e+01	-4.041282e-05
1.612886e+01	-4.088101e-05
1.622202e+01	-4.135463e-05
1.631572e+01	-4.183373e-05
1.640996e+01	-4.231839e-05
1.650474e+01	-4.280865e-05
1.660008e+01	-4.330460e-05
1.669596e+01	-4.380629e-05
1.679239e+01	-4.431380e-05
1.688938e+01	-4.482719e-05
1.698694e+01	-4.534652e-05
1.708505e+01	-4.587187e-05
1.718373e+01	-4.640330e-05
1.728299e+01	-4.694090e-05
1.738281e+01	-4.748472e-05
1.748322e+01	-4.803484e-05
1.758420e+01	-4.859133e-05
1.768576e+01	-4.915427e-05
1.778792e+01	-4.972373e-05
1.789066e+01	-5.029979e-05
1.799399e+01	-5.088253e-05
1.809793e+01	-5.147201e-05
1.820246e+01	-5.206833e-05
1.830760e+01	-5.267155e-05
1.841334e+01	-5.328176e-05
1.851969e+01	-5.389904e-05
1.862666e+01	-5.452347e-05
1.873425e+01	-5.515514e-05
1.884246e+01	-5.579412e-05
1.895129e+01	-5.644051e-05
1.906075e+01	-5.709438e-05
1.917085e+01	-5.775583e-05
1.928158e+01	-5.842495e-05
1.939295e+01	-5.910181e-05
1.950496e+01	-5.978652e-05
1.961762e+01	-6.047916e-05
1.973093e+01	-6.117982e-05
1.984490e+01	-6.188860e-05
1.995952e+01	-6.260559e-05
2.007480e+01	-6.333089e-05
2.019076e+01	-6.406459e-05
2.030738e+01	-6.480679e-05
2.042467e+01	-6.555759e-05
2.054264e+01	-6.631709e-05
2.066130e+01	-6.708538e-05
2.078064e+01	-6.786258e-05
2.090066e+01	-6.864878e-05
2.102139e+01	-6.944409e-05
2.114280e+01	-7.024861e-05
2.126492e+01	-7.106245e-05
2.138775e+01	-7.188573e-05
2.151128e+01	-7.271854e-05
2.163553e+01	-7.356099e-05
2.176050e+01	-7.441321e-05
2.188619e+01	-7.527530e-05
2.201260e+01	-7.614738e-05
2.213974e+01	-7.702956e-05
2.226762e+01	-7.792196e-05
2.239624e+01	-7.882470e-05
2.252560e+01	-7.973790e-05
2.265571e+01	-8.066167e-05
2.278656e+01	-8.159615e-05
2.291818e+01	-8.254146e-05
2.305055e+01	-8.349772e-05
2.318369e+01	-8.446505e-05
2.331760e+01	-8.544359e-05
2.345228e+01	-8.643347e-05
2.358774e+01	-8.743482e-05
2.372398e+01	-8.844776e-05
2.386101e+01	-8.947244e-05
2.399883e+01	-9.050900e-05
2.413745e+01	-9.155756e-05
2.427686e+01	-9.261827e-05
2.441709e+01	-9.369126e-05
2.455812e+01	-9.477669e-05
2.469997e+01	-9.587469e-05
2.484263e+01	-9.698542e-05
2.498612e+01	-9.810901e-05
2.513044e+01	-9.924561e-05
2.527559e+01	-1.003954e-04
2.542158e+01	-1.015585e-04
2.556842e+01	-1.027351e-04
2.571610e+01	-1.039253e-04
2.586463e+01	-1.051292e-04
2.601403e+01	-1.063472e-04
2.616428e+01	-1.075792e-04
2.631541e+01	-1.088255e-04
2.646740e+01	-1.100863e-04
2.662028e+01	-1.113617e-04
2.677404e+01	-1.126518e-04
2.692868e+01	-1.139569e-04
2.708422e+01	-1.152771e-04
2.724066e+01	-1.166126e-04
2.739800e+01	-1.179636e-04
2.755625e+01	-1.193302e-04
2.771541e+01	-1.207126e-04
2.787550e+01	-1.221111e-04
2.803650e+01	-1.235258e-04
2.819844e+01	-1.249568e-04
2.836131e+01	-1.264045e-04
2.852513e+01	-1.278689e-04
2.868989e+01	-1.293503e-04
2.885560e+01	-1.308488e-04
2.902227e+01	-1.323647e-04
2.918990e+01	-1.338982e-04
2.935850e+01	-1.354494e-04
2.952807e+01	-1.370186e-04
2.969863e+01	-1.386060e-04
2.987016e+01	-1.402117e-04
3.004269e+01	-1.418361e-04
3.021622e+01	-1.434793e-04
3.039075e+01	-1.451415e-04
3.056628e+01	-1.468230e-04
3.074283e+01	-1.485239e-04
3.092040e+01	-1.502446e-04
3.109900e+01	-1.519852e-04
3.127862e+01	-1.537459e-04
3.145929e+01	-1.555271e-04
3.164099e+01	-1.573289e-04
3.182375e+01	-1.591515e-04
3.200756e+01	-1.609953e-04
3.219244e+01	-1.628605e-04
3.237838e+01	-1.647472e-04
3.256540e+01	-1.666558e-04
3.275349e+01	-1.685865e-04
3.294268e+01	-1.705396e-04
3.313295e+01	-1.725153e-04
3.332433e+01	-1.745139e-04
3.351681e+01	-1.765357e-04
3.371040e+01	-1.785809e-04
3.390511e+01	-1.806497e-04
3.410094e+01	-1.827426e-04
3.429791e+01	-1.848596e-04
3.449601e+01	-1.870012e-04
3.469526e+01	-1.891677e-04
3.489566e+01	-1.913592e-04
3.509721e+01	-1.935761e-04
3.529993e+01	-1.958186e-04
3.550382e+01	-1.980872e-04
3.570889e+01	-2.003820e-04
3.591515e+01	-2.027035e-04
3.612259e+01	-2.050518e-04
3.633123e+01	-2.074273e-04
3.654108e+01	-2.098304e-04
3.675214e+01	-2.122613e-04
3.696442e+01	-2.147203e-04
3.717792e+01	-2.172078e-04
3.739266e+01	-2.197242e-04
3.760864e+01	-2.222697e-04
3.782587e+01	-2.248447e-04
3.804435e+01	-2.274495e-04
3.826409e+01	-2.300845e-04
3.848510e+01	-2.327500e-04
3.870739e+01	-2.354464e-04
3.893096e+01	-2.381740e-04
3.915583e+01	-2.409333e-04
3.938199e+01	-2.437245e-04
3.960946e+01	-2.465480e-04
3.983824e+01	-2.494043e-04
4.006834e+01	-2.522936e-04
4.029978e+01	-2.552164e-04
4.053255e+01	-2.581731e-04
4.076666e+01	-2.611640e-04
4.100213e+01	-2.641895e-04
4.123896e+01	-2.672502e-04
4.147715e+01	-2.703462e-04
4.171672e+01	-2.734782e-04
4.195767e+01	-2.766464e-04
4.220002e+01	-2.798513e-04
4.244377e+01	-2.830934e-04
4.268892e+01	-2.863730e-04
4.293549e+01	-2.896906e-04
4.318348e+01	-2.930466e-04
4.343291e+01	-2.964415e-04
4.368377e+01	-2.998758e-04
4.393609e+01	-3.033498e-04
4.418986e+01	-3.068640e-04
4.444510e+01	-3.104190e-04
4.470182e+01	-3.140152e-04
4.496001e+01	-3.176530e-04
4.521970e+01	-3.213330e-04
4.548089e+01	-3.250556e-04
4.574358e+01	-3.288213e-04
4.600779e+01	-3.326306e-04
4.627353e+01	-3.364841e-04
4.654081e+01	-3.403822e-04
4.680963e+01	-3.443255e-04
4.708000e+01	-3.483144e-04
4.735193e+01	-3.523496e-04
4.762543e+01	-3.564315e-04
4.790051e+01	-3.605606e-04
4.817719e+01	-3.647377e-04
4.845545e+01	-3.689631e-04
4.873533e+01	-3.732374e-04
4.901682e+01	-3.775613e-04
4.929994e+01	-3.819353e-04
4.958470e+01	-3.863599e-04
4.987110e+01	-3.908358e-04
5.015915e+01	-3.953635e-04
5.044887e+01	-3.999437e-04
5.074026e+01	-4.045769e-04
5.103333e+01	-4.092638e-04
5.132810e+01	-4.140051e-04
5.162457e+01	-4.188012e-04
5.192275e+01	-4.236529e-04
5.222265e+01	-4.285608e-04
5.252429e+01	-4.335255e-04
5.282767e+01	-4.385478e-04
5.313280e+01	-4.436282e-04
5.343969e+01	-4.487675e-04
5.374836e+01	-4.539663e-04
5.405880e+01	-4.592254e-04
5.437105e+01	-4.645453e-04
5.468509e+01	-4.699269e-04
5.500095e+01	-4.753709e-04
5.531863e+01	-4.808779e-04
5.563815e+01	-4.864487e-04
5.595951e+01	-4.920840e-04
5.628273e+01	-4.977846e-04
5.660782e+01	-5.035512e-04
5.693479e+01	-5.093847e-04
5.726364e+01	-5.152857e-04
5.759439e+01	-5.212550e-04
5.792705e+01	-5.272936e-04
5.826164e+01	-5.334020e-04
5.859815e+01	-5.395813e-04
5.893662e+01	-5.458321e-04
5.927703e+01	-5.521553e-04
5.961941e+01	-5.585517e-04
5.996377e+01	-5.650223e-04
6.031012e+01	-5.715678e-04
6.065847e+01	-5.781891e-04
6.100883e+01	-5.848872e-04
6.136121e+01	-5.916628e-04
6.171563e+01	-5.985169e-04
6.207210e+01	-6.054504e-04
6.243063e+01	-6.124642e-04
6.279122e+01	-6.195593e-04
6.315390e+01	-6.267365e-04
6.351868e+01	-6.339969e-04
6.388556e+01	-6.413414e-04
6.425456e+01	-6.487709e-04
6.462569e+01	-6.562866e-04
6.499897e+01	-6.638892e-04
6.537440e+01	-6.715800e-04
6.575200e+01	-6.793598e-04
6.613178e+01	-6.872298e-04
6.651375e+01	-6.951909e-04
6.689793e+01	-7.032442e-04
6.728433e+01	-7.113908e-04
6.767297e+01	-7.196318e-04
6.806384e+01	-7.279682e-04
6.845698e+01	-7.364012e-04
6.885238e+01	-7.449319e-04
6.925007e+01	-7.535614e-04
6.965005e+01	-7.622908e-04
7.005235e+01	-7.711214e-04
7.045697e+01	-7.800542e-04
7.086393e+01	-7.890906e-04
7.127323e+01	-7.982315e-04
7.168490e+01	-8.074784e-04
7.209895e+01	-8.168324e-04
7.251539e+01	-8.262947e-04
7.293424e+01	-8.358666e-04
7.335551e+01	-8.455494e-04
7.377920e+01	-8.553444e-04
7.420535e+01	-8.652528e-04
7.463396e+01	-8.752760e-04
7.506504e+01	-8.854153e-04
7.549861e+01	-8.956720e-04
7.593469e+01	-9.060475e-04
7.637328e+01	-9.165432e-04
7.681441e+01	-9.271605e-04
7.725809e+01	-9.379007e-04
7.770433e+01	-9.487654e-04
7.815315e+01	-9.597559e-04
7.860456e+01	-9.708737e-04
7.905857e+01	-9.821202e-04
7.951521e+01	-9.934971e-04
7.997449e+01	-1.005006e-03
8.043642e+01	-1.016648e-03
8.090102e+01	-1.028424e-03
8.136830e+01	-1.040337e-03
8.183828e+01	-1.052389e-03
8.231097e+01	-1.064579e-03
8.278640e+01	-1.076911e-03
8.326457e+01	-1.089386e-03
8.374550e+01	-1.102005e-03
8.422921e+01	-1.114771e-03
8.471572e+01	-1.127684e-03
8.520503e+01	-1.140747e-03
8.569717e+01	-1.153961e-03
8.619215e+01	-1.167328e-03
8.669000e+01	-1.180850e-03
8.719071e+01	-1.194528e-03
8.769432e+01	-1.208365e-03
8.820084e+01	-1.222363e-03
8.871029e+01	-1.236522e-03
8.922267e+01	-1.250845e-03
8.973802e+01	-1.265335e-03
9.025634e+01	-1.279992e-03
9.077766e+01	-1.294819e-03
9.130199e+01	-1.309817e-03
9.182935e+01	-1.324990e-03
9.235975e+01	-1.340338e-03
9.289321e+01	-1.355863e-03
9.342976e+01	-1.371569e-03
9.396941e+01	-1.387456e-03
9.451217e+01	-1.403528e-03
9.505807e+01	-1.419785e-03
9.560712e+01	-1.436231e-03
9.615934e+01	-1.452868e-03
9.671476e+01	-1.469697e-03
9.727338e+01	-1.486720e-03
9.783522e+01	-1.503942e-03
9.840032e+01	-1.521362e-03
9.896867e+01	-1.538984e-03
9.954031e+01	-1.556811e-03
1.001153e+02	-1.574843e-03
1.006935e+02	-1.593085e-03
1.012751e+02	-1.611538e-03
1.018601e+02	-1.630205e-03
1.024484e+02	-1.649087e-03
1.030402e+02	-1.668189e-03
1.036353e+02	-1.687511e-03
1.042339e+02	-1.707058e-03
1.048360e+02	-1.726831e-03
1.054415e+02	-1.746832e-03
1.060505e+02	-1.767066e-03
1.066631e+02	-1.787534e-03
1.072791e+02	-1.808238e-03
1.078988e+02	-1.829183e-03
1.085220e+02	-1.850370e-03
1.091488e+02	-1.871802e-03
1.097793e+02	-1.893483e-03
1.104133e+02	-1.915415e-03
1.110511e+02	-1.937600e-03
1.116925e+02	-1.960043e-03
1.123376e+02	-1.982745e-03
1.129865e+02	-2.005710e-03
1.136391e+02	-2.028942e-03
1.142955e+02	-2.052442e-03
1.149556e+02	-2.076214e-03
1.156196e+02	-2.100262e-03
1.162874e+02	-2.124588e-03
1.169591e+02	-2.149196e-03
1.176347e+02	-2.174089e-03
1.183141e+02	-2.199270e-03
1.189975e+02	-2.224742e-03
1.196848e+02	-2.250510e-03
1.203761e+02	-2.276576e-03
1.210714e+02	-2.302944e-03
1.217707e+02	-2.329617e-03
1.224740e+02	-2.356599e-03
1.231814e+02	-2.383893e-03
1.238929e+02	-2.411503e-03
1.246085e+02	-2.439433e-03
1.253283e+02	-2.467687e-03
1.260522e+02	-2.496267e-03
1.267802e+02	-2.525179e-03
1.275125e+02	-2.554425e-03
1.282490e+02	-2.584010e-03
1.289898e+02	-2.613937e-03
1.297348e+02	-2.644211e-03
1.304842e+02	-2.674836e-03
1.312378e+02	-2.705815e-03
1.319959e+02	-2.737152e-03
1.327583e+02	-2.768853e-03
1.335251e+02	-2.800920e-03
1.342963e+02	-2.833359e-03
1.350720e+02	-2.866174e-03
1.358522e+02	-2.899368e-03
1.366368e+02	-2.932946e-03
1.374260e+02	-2.966914e-03
1.382198e+02	-3.001274e-03
1.390182e+02	-3.036033e-03
1.398211e+02	-3.071194e-03
1.406287e+02	-3.106761e-03
1.414410e+02	-3.142741e-03
1.422579e+02	-3.179137e-03
1.430796e+02	-3.215955e-03
1.439060e+02	-3.253198e-03
1.447372e+02	-3.290873e-03
1.455732e+02	-3.328984e-03
1.464141e+02	-3.367536e-03
1.472597e+02	-3.406535e-03
1.481103e+02	-3.445985e-03
1.489658e+02	-3.485891e-03
1.498262e+02	-3.526260e-03
1.506916e+02	-3.567096e-03
1.515620e+02	-3.608404e-03
1.524374e+02	-3.650191e-03
1.533179e+02	-3.692461e-03
1.542034e+02	-3.735221e-03
1.550941e+02	-3.778476e-03
1.559899e+02	-3.822231e-03
1.568909e+02	-3.866493e-03
1.577971e+02	-3.911267e-03
1.587085e+02	-3.956559e-03
1.596252e+02	-4.002376e-03
1.605472e+02	-4.048723e-03
1.614745e+02	-4.095606e-03
1.624072e+02	-4.143032e-03
1.633453e+02	-4.191007e-03
1.642887e+02	-4.239537e-03
1.652377e+02	-4.288629e-03
1.661921e+02	-4.338289e-03
1.671520e+02	-4.388524e-03
1.681175e+02	-4.439340e-03
1.690885e+02	-4.490744e-03
1.700651e+02	-4.542743e-03
1.710474e+02	-4.595344e-03
1.720354e+02	-4.648554e-03
1.730291e+02	-4.702379e-03
1.740285e+02	-4.756828e-03
1.750337e+02	-4.811906e-03
1.760446e+02	-4.867622e-03
1.770615e+02	-4.923983e-03
1.780842e+02	-4.980995e-03
1.791128e+02	-5.038668e-03
1.801473e+02	-5.097008e-03
1.811878e+02	-5.156023e-03
1.822344e+02	-5.215721e-03
1.832870e+02	-5.276110e-03
1.843456e+02	-5.337197e-03
1.854104e+02	-5.398991e-03
1.864813e+02	-5.461501e-03
1.875584e+02	-5.524733e-03
1.886418e+02	-5.588697e-03
1.897313e+02	-5.653401e-03
1.908272e+02	-5.718854e-03
1.919294e+02	-5.785064e-03
1.930380e+02	-5.852041e-03
1.941530e+02	-5.919792e-03
1.952744e+02	-5.988327e-03
1.964023e+02	-6.057654e-03
1.975367e+02	-6.127784e-03
1.986777e+02	-6.198725e-03
1.998252e+02	-6.270487e-03
2.009794e+02	-6.343079e-03
2.021403e+02	-6.416511e-03
2.033078e+02	-6.490792e-03
2.044821e+02	-6.565933e-03
2.056632e+02	-6.641942e-03
2.068511e+02	-6.718831e-03
2.080459e+02	-6.796610e-03
2.092475e+02	-6.875288e-03
2.104561e+02	-6.954876e-03
2.116717e+02	-7.035384e-03
2.128943e+02	-7.116824e-03
2.141240e+02	-7.199205e-03
2.153608e+02	-7.282540e-03
2.166047e+02	-7.366838e-03
2.178558e+02	-7.452112e-03
2.191141e+02	-7.538371e-03
2.203797e+02	-7.625628e-03
2.216526e+02	-7.713894e-03
2.229329e+02	-7.803181e-03
2.242205e+02	-7.893501e-03
2.255156e+02	-7.984864e-03
2.268182e+02	-8.077285e-03
2.281283e+02	-8.170774e-03
2.294459e+02	-8.265344e-03
2.307712e+02	-8.361008e-03
2.321041e+02	-8.457777e-03
2.334447e+02	-8.555666e-03
2.347931e+02	-8.654687e-03
2.361493e+02	-8.754852e-03
2.375133e+02	-8.856175e-03
2.388851e+02	-8.958670e-03
2.402649e+02	-9.062350e-03
2.416527e+02	-9.167229e-03
2.430484e+02	-9.273320e-03
2.444523e+02	-9.380637e-03
2.458642e+02	-9.489195e-03
2.472843e+02	-9.599008e-03
2.487126e+02	-9.710090e-03
2.501492e+02	-9.822456e-03
2.515940e+02	-9.936121e-03
2.530472e+02	-1.005110e-02
2.545088e+02	-1.016741e-02
2.559789e+02	-1.028506e-02
2.574574e+02	-1.040407e-02
2.589444e+02	-1.052446e-02
2.604401e+02	-1.064624e-02
2.619444e+02	-1.076942e-02
2.634574e+02	-1.089403e-02
2.649791e+02	-1.102008e-02
2.665096e+02	-1.114759e-02
2.680489e+02	-1.127657e-02
2.695972e+02	-1.140704e-02
2.711544e+02	-1.153901e-02
2.727205e+02	-1.167252e-02
2.742958e+02	-1.180756e-02
2.758801e+02	-1.194417e-02
2.774736e+02	-1.208235e-02
2.790762e+02	-1.222213e-02
2.806882e+02	-1.236352e-02
2.823094e+02	-1.250655e-02
2.839400e+02	-1.265123e-02
2.855800e+02	-1.279758e-02
2.872295e+02	-1.294562e-02
2.888886e+02	-1.309537e-02
2.905572e+02	-1.324686e-02
2.922354e+02	-1.340009e-02
2.939234e+02	-1.355509e-02
2.956211e+02	-1.371188e-02
2.973286e+02	-1.387048e-02
2.990459e+02	-1.403091e-02
3.007732e+02	-1.419319e-02
3.025104e+02	-1.435735e-02
3.042577e+02	-1.452341e-02
3.060151e+02	-1.469138e-02
3.077826e+02	-1.486129e-02
3.095604e+02	-1.503316e-02
3.113484e+02	-1.520702e-02
3.131467e+02	-1.538288e-02
3.149554e+02	-1.556078e-02
3.167746e+02	-1.574073e-02
3.186043e+02	-1.592275e-02
3.204445e+02	-1.610688e-02
3.222954e+02	-1.629313e-02
3.241570e+02	-1.648153e-02
3.260293e+02	-1.667210e-02
3.279124e+02	-1.686488e-02
3.298064e+02	-1.705988e-02
3.317114e+02	-1.725713e-02
3.336273e+02	-1.745665e-02
3.355544e+02	-1.765848e-02
3.374925e+02	-1.786263e-02
3.394418e+02	-1.806914e-02
3.414024e+02	-1.827804e-02
3.433744e+02	-1.848934e-02
3.453577e+02	-1.870308e-02
3.473525e+02	-1.891929e-02
3.493588e+02	-1.913799e-02
3.513766e+02	-1.935921e-02
3.534062e+02	-1.958298e-02
3.554474e+02	-1.980934e-02
3.575005e+02	-2.003830e-02
3.595654e+02	-2.026991e-02
3.616422e+02	-2.050418e-02
3.637311e+02	-2.074116e-02
3.658320e+02	-2.098087e-02
3.679450e+02	-2.122334e-02
3.700702e+02	-2.146861e-02
3.722077e+02	-2.171671e-02
3.743576e+02	-2.196766e-02
3.765199e+02	-2.222151e-02
3.786946e+02	-2.247828e-02
3.808820e+02	-2.273801e-02
3.830819e+02	-2.300074e-02
3.852946e+02	-2.326649e-02
3.875200e+02	-2.353531e-02
3.897583e+02	-2.380722e-02
3.920096e+02	-2.408227e-02
3.942738e+02	-2.436048e-02
3.965511e+02	-2.464190e-02
3.988416e+02	-2.492656e-02
4.011452e+02	-2.521450e-02
4.034622e+02	-2.550576e-02
4.057926e+02	-2.580037e-02
4.081365e+02	-2.609837e-02
4.104938e+02	-2.639980e-02
4.128648e+02	-2.670471e-02
4.152495e+02	-2.701312e-02
4.176480e+02	-2.732509e-02
4.200603e+02	-2.764065e-02
4.224866e+02	-2.795984e-02
4.249268e+02	-2.828270e-02
4.273812e+02	-2.860928e-02
4.298497e+02	-2.893962e-02
4.323325e+02	-2.927376e-02
4.348297e+02	-2.961174e-02
4.373412e+02	-2.995361e-02
4.398673e+02	-3.029942e-02
4.424079e+02	-3.064920e-02
4.449633e+02	-3.100301e-02
4.475334e+02	-3.136089e-02
4.501183e+02	-3.172288e-02
4.527182e+02	-3.208904e-02
4.553330e+02	-3.245940e-02
4.579630e+02	-3.283403e-02
4.606082e+02	-3.321296e-02
4.632687e+02	-3.359625e-02
4.659445e+02	-3.398394e-02
4.686358e+02	-3.437609e-02
4.713426e+02	-3.477275e-02
4.740650e+02	-3.517396e-02
4.768032e+02	-3.557979e-02
4.795572e+02	-3.599028e-02
4.823271e+02	-3.640548e-02
4.851130e+02	-3.682545e-02
4.879150e+02	-3.725025e-02
4.907332e+02	-3.767993e-02
4.935676e+02	-3.811454e-02
4.964185e+02	-3.855414e-02
4.992858e+02	-3.899879e-02
5.021696e+02	-3.944854e-02
5.050701e+02	-3.990346e-02
5.079874e+02	-4.036360e-02
5.109215e+02	-4.082901e-02
5.138726e+02	-4.129977e-02
5.168407e+02	-4.177594e-02
5.198259e+02	-4.225756e-02
5.228284e+02	-4.274471e-02
5.258482e+02	-4.323745e-02
5.288855e+02	-4.373584e-02
5.319403e+02	-4.423994e-02
5.350128e+02	-4.474982e-02
5.381030e+02	-4.526555e-02
5.412111e+02	-4.578720e-02
5.443371e+02	-4.631482e-02
5.474812e+02	-4.684849e-02
5.506434e+02	-4.738827e-02
5.538239e+02	-4.793424e-02
5.570228e+02	-4.848647e-02
5.602401e+02	-4.904502e-02
5.634760e+02	-4.960996e-02
5.667306e+02	-5.018138e-02
5.700040e+02	-5.075934e-02
5.732964e+02	-5.134392e-02
5.766077e+02	-5.193519e-02
5.799382e+02	-5.253322e-02
5.832879e+02	-5.313810e-02
5.866569e+02	-5.374991e-02
5.900454e+02	-5.436871e-02
5.934535e+02	-5.499459e-02
5.968813e+02	-5.562763e-02
6.003288e+02	-5.626791e-02
6.037963e+02	-5.691551e-02
6.072838e+02	-5.757051e-02
6.107914e+02	-5.823301e-02
6.143194e+02	-5.890307e-02
6.178676e+02	-5.958079e-02
6.214364e+02	-6.026625e-02
6.250258e+02	-6.095955e-02
6.286359e+02	-6.166076e-02
6.322669e+02	-6.236998e-02
6.359189e+02	-6.308730e-02
6.395919e+02	-6.381281e-02
6.432862e+02	-6.454660e-02
6.470017e+02	-6.528876e-02
6.507388e+02	-6.603939e-02
6.544974e+02	-6.679858e-02
6.582778e+02	-6.756644e-02
6.620800e+02	-6.834305e-02
6.659041e+02	-6.912852e-02
6.697504e+02	-6.992294e-02
6.736188e+02	-7.072641e-02
6.775096e+02	-7.153905e-02
6.814229e+02	-7.236094e-02
6.853587e+02	-7.319219e-02
6.893173e+02	-7.403291e-02
6.932988e+02	-7.488321e-02
6.973033e+02	-7.574318e-02
7.013309e+02	-7.661295e-02
