Frequency(Hz)	Magnitude(dB)
1.000000e+01	-1.744561e-05
1.005776e+01	-1.764772e-05
1.011585e+01	-1.785217e-05
1.017428e+01	-1.805899e-05
1.023305e+01	-1.826821e-05
1.029215e+01	-1.847985e-05
1.035160e+01	-1.869395e-05
1.041139e+01	-1.891052e-05
1.047153e+01	-1.912960e-05
1.053201e+01	-1.935123e-05
1.059284e+01	-1.957541e-05
1.065403e+01	-1.980220e-05
1.071556e+01	-2.003161e-05
1.077746e+01	-2.026369e-05
1.083971e+01	-2.049845e-05
1.090232e+01	-2.073593e-05
1.096529e+01	-2.097616e-05
1.102862e+01	-2.121917e-05
1.109232e+01	-2.146500e-05
1.115639e+01	-2.171368e-05
1.122083e+01	-2.196524e-05
1.128564e+01	-2.221971e-05
1.135083e+01	-2.247713e-05
1.141639e+01	-2.273753e-05
1.148233e+01	-2.300095e-05
1.154865e+01	-2.326742e-05
1.161536e+01	-2.353698e-05
1.168245e+01	-2.380966e-05
1.174992e+01	-2.408551e-05
1.181779e+01	-2.436454e-05
1.188605e+01	-2.464681e-05
1.195470e+01	-2.493235e-05
1.202375e+01	-2.522120e-05
1.209320e+01	-2.551339e-05
1.216305e+01	-2.580897e-05
1.223330e+01	-2.610797e-05
1.230396e+01	-2.641044e-05
1.237503e+01	-2.671641e-05
1.244651e+01	-2.702593e-05
1.251840e+01	-2.733903e-05
1.259070e+01	-2.765576e-05
1.266343e+01	-2.797616e-05
1.273657e+01	-2.830027e-05
1.281014e+01	-2.862813e-05
1.288413e+01	-2.895980e-05
1.295855e+01	-2.929531e-05
1.303339e+01	-2.963470e-05
1.310867e+01	-2.997802e-05
1.318439e+01	-3.032533e-05
1.326054e+01	-3.067665e-05
1.333713e+01	-3.103205e-05
1.341417e+01	-3.139156e-05
1.349165e+01	-3.175524e-05
1.356958e+01	-3.212313e-05
1.364795e+01	-3.249529e-05
1.372678e+01	-3.287175e-05
1.380607e+01	-3.325258e-05
1.388581e+01	-3.363782e-05
1.396602e+01	-3.402752e-05
1.404668e+01	-3.442174e-05
1.412782e+01	-3.482052e-05
1.420942e+01	-3.522392e-05
1.429149e+01	-3.563200e-05
1.437404e+01	-3.604481e-05
1.445706e+01	-3.646239e-05
1.454057e+01	-3.688482e-05
1.462455e+01	-3.731214e-05
1.470902e+01	-3.774441e-05
1.479398e+01	-3.818169e-05
1.487943e+01	-3.862403e-05
1.496537e+01	-3.907150e-05
1.505181e+01	-3.952415e-05
1.513875e+01	-3.998205e-05
1.522619e+01	-4.044525e-05
1.531414e+01	-4.091382e-05
1.540259e+01	-4.138781e-05
1.549156e+01	-4.186730e-05
1.558103e+01	-4.235234e-05
1.567103e+01	-4.284300e-05
1.576155e+01	-4.333935e-05
1.585258e+01	-4.384144e-05
1.594415e+01	-4.434936e-05
1.603624e+01	-4.486315e-05
1.612886e+01	-4.538290e-05
1.622202e+01	-4.590867e-05
1.631572e+01	-4.644054e-05
1.640996e+01	-4.697856e-05
1.650474e+01	-4.752282e-05
1.660008e+01	-4.807338e-05
1.669596e+01	-4.863032e-05
1.679239e+01	-4.919371e-05
1.688938e+01	-4.976363e-05
1.698694e+01	-5.034015e-05
1.708505e+01	-5.092335e-05
1.718373e+01	-5.151331e-05
1.728299e+01	-5.211010e-05
1.738281e+01	-5.271381e-05
1.748322e+01	-5.332451e-05
1.758420e+01	-5.394229e-05
1.768576e+01	-5.456722e-05
1.778792e+01	-5.519939e-05
1.789066e+01	-5.583889e-05
1.799399e+01	-5.648579e-05
1.809793e+01	-5.714019e-05
1.820246e+01	-5.780217e-05
1.830760e+01	-5.847182e-05
1.841334e+01	-5.914923e-05
1.851969e+01	-5.983449e-05
1.862666e+01	-6.052768e-05
1.873425e+01	-6.122891e-05
1.884246e+01	-6.193826e-05
1.895129e+01	-6.265582e-05
1.906075e+01	-6.338170e-05
1.917085e+01	-6.411599e-05
1.928158e+01	-6.485879e-05
1.939295e+01	-6.561019e-05
1.950496e+01	-6.637030e-05
1.961762e+01	-6.713921e-05
1.973093e+01	-6.791703e-05
1.984490e+01	-6.870386e-05
1.995952e+01	-6.949981e-05
2.007480e+01	-7.030498e-05
2.019076e+01	-7.111947e-05
2.030738e+01	-7.194340e-05
2.042467e+01	-7.277688e-05
2.054264e+01	-7.362001e-05
2.066130e+01	-7.447292e-05
2.078064e+01	-7.533570e-05
2.090066e+01	-7.620847e-05
2.102139e+01	-7.709136e-05
2.114280e+01	-7.798448e-05
2.126492e+01	-7.888794e-05
2.138775e+01	-7.980187e-05
2.151128e+01	-8.072639e-05
2.163553e+01	-8.166162e-05
2.176050e+01	-8.260769e-05
2.188619e+01	-8.356471e-05
2.201260e+01	-8.453282e-05
2.213974e+01	-8.551215e-05
2.226762e+01	-8.650282e-05
2.239624e+01	-8.750497e-05
2.252560e+01	-8.851873e-05
2.265571e+01	-8.954423e-05
2.278656e+01	-9.058162e-05
2.291818e+01	-9.163102e-05
2.305055e+01	-9.269258e-05
2.318369e+01	-9.376644e-05
2.331760e+01	-9.485273e-05
2.345228e+01	-9.595162e-05
2.358774e+01	-9.706323e-05
2.372398e+01	-9.818772e-05
2.386101e+01	-9.932524e-05
2.399883e+01	-1.004759e-04
2.413745e+01	-1.016400e-04
2.427686e+01	-1.028175e-04
2.441709e+01	-1.040086e-04
2.455812e+01	-1.052136e-04
2.469997e+01	-1.064325e-04
2.484263e+01	-1.076655e-04
2.498612e+01	-1.089129e-04
2.513044e+01	-1.101746e-04
2.527559e+01	-1.114510e-04
2.542158e+01	-1.127422e-04
2.556842e+01	-1.140483e-04
2.571610e+01	-1.153696e-04
2.586463e+01	-1.167062e-04
2.601403e+01	-1.180582e-04
2.616428e+01	-1.194259e-04
2.631541e+01	-1.208095e-04
2.646740e+01	-1.222091e-04
2.662028e+01	-1.236249e-04
2.677404e+01	-1.250571e-04
2.692868e+01	-1.265059e-04
2.708422e+01	-1.279715e-04
2.724066e+01	-1.294541e-04
2.739800e+01	-1.309538e-04
2.755625e+01	-1.324709e-04
2.771541e+01	-1.340056e-04
2.787550e+01	-1.355581e-04
2.803650e+01	-1.371285e-04
2.819844e+01	-1.387172e-04
2.836131e+01	-1.403242e-04
2.852513e+01	-1.419499e-04
2.868989e+01	-1.435944e-04
2.885560e+01	-1.452579e-04
2.902227e+01	-1.469408e-04
2.918990e+01	-1.486431e-04
2.935850e+01	-1.503651e-04
2.952807e+01	-1.521071e-04
2.969863e+01	-1.538693e-04
2.987016e+01	-1.556519e-04
3.004269e+01	-1.574551e-04
3.021622e+01	-1.592792e-04
3.039075e+01	-1.611245e-04
3.056628e+01	-1.629911e-04
3.074283e+01	-1.648794e-04
3.092040e+01	-1.667895e-04
3.109900e+01	-1.687218e-04
3.127862e+01	-1.706765e-04
3.145929e+01	-1.726537e-04
3.164099e+01	-1.746539e-04
3.182375e+01	-1.766773e-04
3.200756e+01	-1.787241e-04
3.219244e+01	-1.807947e-04
3.237838e+01	-1.828892e-04
3.256540e+01	-1.850080e-04
3.275349e+01	-1.871513e-04
3.294268e+01	-1.893194e-04
3.313295e+01	-1.915127e-04
3.332433e+01	-1.937314e-04
3.351681e+01	-1.959758e-04
3.371040e+01	-1.982461e-04
3.390511e+01	-2.005428e-04
3.410094e+01	-2.028661e-04
3.429791e+01	-2.052163e-04
3.449601e+01	-2.075937e-04
3.469526e+01	-2.099987e-04
3.489566e+01	-2.124316e-04
3.509721e+01	-2.148926e-04
3.529993e+01	-2.173821e-04
3.550382e+01	-2.199005e-04
3.570889e+01	-2.224480e-04
3.591515e+01	-2.250251e-04
3.612259e+01	-2.276320e-04
3.633123e+01	-2.302691e-04
3.654108e+01	-2.329367e-04
3.675214e+01	-2.356353e-04
3.696442e+01	-2.383651e-04
3.717792e+01	-2.411266e-04
3.739266e+01	-2.439200e-04
3.760864e+01	-2.467458e-04
3.782587e+01	-2.496044e-04
3.804435e+01	-2.524960e-04
3.826409e+01	-2.554212e-04
3.848510e+01	-2.583802e-04
3.870739e+01	-2.613735e-04
3.893096e+01	-2.644015e-04
3.915583e+01	-2.674646e-04
3.938199e+01	-2.705631e-04
3.960946e+01	-2.736976e-04
3.983824e+01	-2.768684e-04
4.006834e+01	-2.800758e-04
4.029978e+01	-2.833205e-04
4.053255e+01	-2.866027e-04
4.076666e+01	-2.899230e-04
4.100213e+01	-2.932817e-04
4.123896e+01	-2.966794e-04
4.147715e+01	-3.001163e-04
4.171672e+01	-3.035932e-04
4.195767e+01	-3.071102e-04
4.220002e+01	-3.106681e-04
4.244377e+01	-3.142671e-04
4.268892e+01	-3.179079e-04
4.293549e+01	-3.215908e-04
4.318348e+01	-3.253164e-04
4.343291e+01	-3.290851e-04
4.368377e+01	-3.328975e-04
4.393609e+01	-3.367540e-04
4.418986e+01	-3.406553e-04
4.444510e+01	-3.446017e-04
4.470182e+01	-3.485939e-04
4.496001e+01	-3.526322e-04
4.521970e+01	-3.567174e-04
4.548089e+01	-3.608499e-04
4.574358e+01	-3.650303e-04
4.600779e+01	-3.692591e-04
4.627353e+01	-3.735369e-04
4.654081e+01	-3.778642e-04
4.680963e+01	-3.822417e-04
4.708000e+01	-3.866699e-04
4.735193e+01	-3.911493e-04
4.762543e+01	-3.956807e-04
4.790051e+01	-4.002646e-04
4.817719e+01	-4.049015e-04
4.845545e+01	-4.095922e-04
4.873533e+01	-4.143372e-04
4.901682e+01	-4.191372e-04
4.929994e+01	-4.239928e-04
4.958470e+01	-4.289046e-04
4.987110e+01	-4.338733e-04
5.015915e+01	-4.388996e-04
5.044887e+01	-4.439841e-04
5.074026e+01	-4.491276e-04
5.103333e+01	-4.543305e-04
5.132810e+01	-4.595938e-04
5.162457e+01	-4.649181e-04
5.192275e+01	-4.703040e-04
5.222265e+01	-4.757523e-04
5.252429e+01	-4.812637e-04
5.282767e+01	-4.868389e-04
5.313280e+01	-4.924788e-04
5.343969e+01	-4.981840e-04
5.374836e+01	-5.039552e-04
5.405880e+01	-5.097933e-04
5.437105e+01	-5.156991e-04
5.468509e+01	-5.216732e-04
5.500095e+01	-5.277166e-04
5.531863e+01	-5.338300e-04
5.563815e+01	-5.400142e-04
5.595951e+01	-5.462700e-04
5.628273e+01	-5.525983e-04
5.660782e+01	-5.589999e-04
5.693479e+01	-5.654756e-04
5.726364e+01	-5.720264e-04
5.759439e+01	-5.786530e-04
5.792705e+01	-5.853564e-04
5.826164e+01	-5.921375e-04
5.859815e+01	-5.989971e-04
5.893662e+01	-6.059361e-04
5.927703e+01	-6.129556e-04
5.961941e+01	-6.200563e-04
5.996377e+01	-6.272393e-04
6.031012e+01	-6.345055e-04
6.065847e+01	-6.418559e-04
6.100883e+01	-6.492914e-04
6.136121e+01	-6.568131e-04
6.171563e+01	-6.644219e-04
6.207210e+01	-6.721188e-04
6.243063e+01	-6.799048e-04
6.279122e+01	-6.877811e-04
6.315390e+01	-6.957486e-04
6.351868e+01	-7.038084e-04
6.388556e+01	-7.119615e-04
6.425456e+01	-7.202091e-04
6.462569e+01	-7.285522e-04
6.499897e+01	-7.369920e-04
6.537440e+01	-7.455295e-04
6.575200e+01	-7.541659e-04
6.613178e+01	-7.629024e-04
6.651375e+01	-7.717400e-04
6.689793e+01	-7.806800e-04
6.728433e+01	-7.897236e-04
6.767297e+01	-7.988719e-04
6.806384e+01	-8.081262e-04
6.845698e+01	-8.174877e-04
6.885238e+01	-8.269576e-04
6.925007e+01	-8.365372e-04
6.965005e+01	-8.462278e-04
7.005235e+01	-8.560306e-04
7.045697e+01	-8.659470e-04
7.086393e+01	-8.759782e-04
7.127323e+01	-8.861256e-04
7.168490e+01	-8.963906e-04
7.209895e+01	-9.067744e-04
7.251539e+01	-9.172785e-04
7.293424e+01	-9.279043e-04
7.335551e+01	-9.386532e-04
7.377920e+01	-9.495265e-04
7.420535e+01	-9.605258e-04
7.463396e+01	-9.716525e-04
7.506504e+01	-9.829081e-04
7.549861e+01	-9.942941e-04
7.593469e+01	-1.005812e-03
7.637328e+01	-1.017463e-03
7.681441e+01	-1.029249e-03
7.725809e+01	-1.041172e-03
7.770433e+01	-1.053233e-03
7.815315e+01	-1.065433e-03
7.860456e+01	-1.077775e-03
7.905857e+01	-1.090260e-03
7.951521e+01	-1.102889e-03
7.997449e+01	-1.115665e-03
8.043642e+01	-1.128588e-03
8.090102e+01	-1.141662e-03
8.136830e+01	-1.154886e-03
8.183828e+01	-1.168264e-03
8.231097e+01	-1.181797e-03
8.278640e+01	-1.195487e-03
8.326457e+01	-1.209335e-03
8.374550e+01	-1.223343e-03
8.422921e+01	-1.237514e-03
8.471572e+01	-1.251849e-03
8.520503e+01	-1.266350e-03
8.569717e+01	-1.281019e-03
8.619215e+01	-1.295857e-03
8.669000e+01	-1.310868e-03
8.719071e+01	-1.326052e-03
8.769432e+01	-1.341413e-03
8.820084e+01	-1.356951e-03
8.871029e+01	-1.372669e-03
8.922267e+01	-1.388569e-03
8.973802e+01	-1.404654e-03
9.025634e+01	-1.420924e-03
9.077766e+01	-1.437383e-03
9.130199e+01	-1.454033e-03
9.182935e+01	-1.470876e-03
9.235975e+01	-1.487913e-03
9.289321e+01	-1.505148e-03
9.342976e+01	-1.522582e-03
9.396941e+01	-1.540219e-03
9.451217e+01	-1.558059e-03
9.505807e+01	-1.576107e-03
9.560712e+01	-1.594363e-03
9.615934e+01	-1.612831e-03
9.671476e+01	-1.631512e-03
9.727338e+01	-1.650410e-03
9.783522e+01	-1.669527e-03
9.840032e+01	-1.688865e-03
9.896867e+01	-1.708427e-03
9.954031e+01	-1.728216e-03
1.001153e+02	-1.748234e-03
1.006935e+02	-1.768483e-03
1.012751e+02	-1.788967e-03
1.018601e+02	-1.809689e-03
1.024484e+02	-1.830650e-03
1.030402e+02	-1.851854e-03
1.036353e+02	-1.873304e-03
1.042339e+02	-1.895002e-03
1.048360e+02	-1.916951e-03
1.054415e+02	-1.939154e-03
1.060505e+02	-1.961615e-03
1.066631e+02	-1.984336e-03
1.072791e+02	-2.007319e-03
1.078988e+02	-2.030569e-03
1.085220e+02	-2.054088e-03
1.091488e+02	-2.077880e-03
1.097793e+02	-2.101947e-03
1.104133e+02	-2.126292e-03
1.110511e+02	-2.150920e-03
1.116925e+02	-2.175833e-03
1.123376e+02	-2.201034e-03
1.129865e+02	-2.226527e-03
1.136391e+02	-2.252315e-03
1.142955e+02	-2.278402e-03
1.149556e+02	-2.304791e-03
1.156196e+02	-2.331485e-03
1.162874e+02	-2.358489e-03
1.169591e+02	-2.385805e-03
1.176347e+02	-2.413437e-03
1.183141e+02	-2.441390e-03
1.189975e+02	-2.469666e-03
1.196848e+02	-2.498269e-03
1.203761e+02	-2.527204e-03
1.210714e+02	-2.556474e-03
1.217707e+02	-2.586082e-03
1.224740e+02	-2.616034e-03
1.231814e+02	-2.646332e-03
1.238929e+02	-2.676981e-03
1.246085e+02	-2.707985e-03
1.253283e+02	-2.739348e-03
1.260522e+02	-2.771074e-03
1.267802e+02	-2.803167e-03
1.275125e+02	-2.835632e-03
1.282490e+02	-2.868472e-03
1.289898e+02	-2.901693e-03
1.297348e+02	-2.935299e-03
1.304842e+02	-2.969293e-03
1.312378e+02	-3.003681e-03
1.319959e+02	-3.038468e-03
1.327583e+02	-3.073657e-03
1.335251e+02	-3.109253e-03
1.342963e+02	-3.145261e-03
1.350720e+02	-3.181687e-03
1.358522e+02	-3.218534e-03
1.366368e+02	-3.255807e-03
1.374260e+02	-3.293512e-03
1.382198e+02	-3.331654e-03
1.390182e+02	-3.370237e-03
1.398211e+02	-3.409267e-03
1.406287e+02	-3.448748e-03
1.414410e+02	-3.488687e-03
1.422579e+02	-3.529088e-03
1.430796e+02	-3.569956e-03
1.439060e+02	-3.611298e-03
1.447372e+02	-3.653118e-03
1.455732e+02	-3.695422e-03
1.464141e+02	-3.738216e-03
1.472597e+02	-3.781506e-03
1.481103e+02	-3.825296e-03
1.489658e+02	-3.869593e-03
1.498262e+02	-3.914403e-03
1.506916e+02	-3.959732e-03
1.515620e+02	-4.005585e-03
1.524374e+02	-4.051969e-03
1.533179e+02	-4.098890e-03
1.542034e+02	-4.146354e-03
1.550941e+02	-4.194368e-03
1.559899e+02	-4.242937e-03
1.568909e+02	-4.292068e-03
1.577971e+02	-4.341768e-03
1.587085e+02	-4.392043e-03
1.596252e+02	-4.442899e-03
1.605472e+02	-4.494345e-03
1.614745e+02	-4.546386e-03
1.624072e+02	-4.599029e-03
1.633453e+02	-4.652281e-03
1.642887e+02	-4.706150e-03
1.652377e+02	-4.760642e-03
1.661921e+02	-4.815764e-03
1.671520e+02	-4.871525e-03
1.681175e+02	-4.927931e-03
1.690885e+02	-4.984989e-03
1.700651e+02	-5.042708e-03
1.710474e+02	-5.101095e-03
1.720354e+02	-5.160157e-03
1.730291e+02	-5.219903e-03
1.740285e+02	-5.280340e-03
1.750337e+02	-5.341476e-03
1.760446e+02	-5.403320e-03
1.770615e+02	-5.465879e-03
1.780842e+02	-5.529162e-03
1.791128e+02	-5.593178e-03
1.801473e+02	-5.657934e-03
1.811878e+02	-5.723439e-03
1.822344e+02	-5.789702e-03
1.832870e+02	-5.856732e-03
1.843456e+02	-5.924538e-03
1.854104e+02	-5.993127e-03
1.864813e+02	-6.062511e-03
1.875584e+02	-6.132697e-03
1.886418e+02	-6.203695e-03
1.897313e+02	-6.275514e-03
1.908272e+02	-6.348164e-03
1.919294e+02	-6.421655e-03
1.930380e+02	-6.495995e-03
1.941530e+02	-6.571196e-03
1.952744e+02	-6.647267e-03
1.964023e+02	-6.724217e-03
1.975367e+02	-6.802058e-03
1.986777e+02	-6.880799e-03
1.998252e+02	-6.960450e-03
2.009794e+02	-7.041023e-03
2.021403e+02	-7.122528e-03
2.033078e+02	-7.204976e-03
2.044821e+02	-7.288377e-03
2.056632e+02	-7.372743e-03
2.068511e+02	-7.458085e-03
2.080459e+02	-7.544413e-03
2.092475e+02	-7.631740e-03
2.104561e+02	-7.720077e-03
2.116717e+02	-7.809435e-03
2.128943e+02	-7.899827e-03
2.141240e+02	-7.991264e-03
2.153608e+02	-8.083758e-03
2.166047e+02	-8.177322e-03
2.178558e+02	-8.271968e-03
2.191141e+02	-8.367708e-03
2.203797e+02	-8.464556e-03
2.216526e+02	-8.562523e-03
2.229329e+02	-8.661622e-03
2.242205e+02	-8.761868e-03
2.255156e+02	-8.863272e-03
2.268182e+02	-8.965849e-03
2.281283e+02	-9.069612e-03
2.294459e+02	-9.174575e-03
2.307712e+02	-9.280750e-03
2.321041e+02	-9.388154e-03
2.334447e+02	-9.496798e-03
2.347931e+02	-9.606699e-03
2.361493e+02	-9.717870e-03
2.375133e+02	-9.830326e-03
2.388851e+02	-9.944082e-03
2.402649e+02	-1.005915e-02
2.416527e+02	-1.017555e-02
2.430484e+02	-1.029330e-02
2.444523e+02	-1.041241e-02
2.458642e+02	-1.053289e-02
2.472843e+02	-1.065477e-02
2.487126e+02	-1.077805e-02
2.501492e+02	-1.090276e-02
2.515940e+02	-1.102891e-02
2.530472e+02	-1.115652e-02
2.545088e+02	-1.128560e-02
2.559789e+02	-1.141618e-02
2.574574e+02	-1.154826e-02
2.589444e+02	-1.168187e-02
2.604401e+02	-1.181702e-02
2.619444e+02	-1.195373e-02
2.634574e+02	-1.209203e-02
2.649791e+02	-1.223192e-02
2.665096e+02	-1.237343e-02
2.680489e+02	-1.251657e-02
2.695972e+02	-1.266136e-02
2.711544e+02	-1.280783e-02
2.727205e+02	-1.295599e-02
2.742958e+02	-1.310586e-02
2.758801e+02	-1.325746e-02
2.774736e+02	-1.341082e-02
2.790762e+02	-1.356594e-02
2.806882e+02	-1.372286e-02
2.823094e+02	-1.388158e-02
2.839400e+02	-1.404215e-02
2.855800e+02	-1.420456e-02
2.872295e+02	-1.436885e-02
2.888886e+02	-1.453504e-02
2.905572e+02	-1.470314e-02
2.922354e+02	-1.487319e-02
2.939234e+02	-1.504520e-02
2.956211e+02	-1.521920e-02
2.973286e+02	-1.539520e-02
2.990459e+02	-1.557324e-02
3.007732e+02	-1.575333e-02
3.025104e+02	-1.593550e-02
3.042577e+02	-1.611977e-02
3.060151e+02	-1.630617e-02
3.077826e+02	-1.649472e-02
3.095604e+02	-1.668545e-02
3.113484e+02	-1.687838e-02
3.131467e+02	-1.707353e-02
3.149554e+02	-1.727094e-02
3.167746e+02	-1.747062e-02
3.186043e+02	-1.767261e-02
3.204445e+02	-1.787693e-02
3.222954e+02	-1.808361e-02
3.241570e+02	-1.829267e-02
3.260293e+02	-1.850414e-02
3.279124e+02	-1.871805e-02
3.298064e+02	-1.893443e-02
3.317114e+02	-1.915330e-02
3.336273e+02	-1.937470e-02
3.355544e+02	-1.959865e-02
3.374925e+02	-1.982519e-02
3.394418e+02	-2.005434e-02
3.414024e+02	-2.028613e-02
3.433744e+02	-2.052059e-02
3.453577e+02	-2.075775e-02
3.473525e+02	-2.099766e-02
3.493588e+02	-2.124032e-02
3.513766e+02	-2.148578e-02
3.534062e+02	-2.173408e-02
3.554474e+02	-2.198523e-02
3.575005e+02	-2.223928e-02
3.595654e+02	-2.249626e-02
3.616422e+02	-2.275620e-02
3.637311e+02	-2.301914e-02
3.658320e+02	-2.328510e-02
3.679450e+02	-2.355413e-02
3.700702e+02	-2.382626e-02
3.722077e+02	-2.410152e-02
3.743576e+02	-2.437996e-02
3.765199e+02	-2.466160e-02
3.786946e+02	-2.494649e-02
3.808820e+02	-2.523466e-02
3.830819e+02	-2.552615e-02
3.852946e+02	-2.582099e-02
3.875200e+02	-2.611923e-02
3.897583e+02	-2.642091e-02
3.920096e+02	-2.672605e-02
3.942738e+02	-2.703471e-02
3.965511e+02	-2.734693e-02
3.988416e+02	-2.766274e-02
4.011452e+02	-2.798218e-02
4.034622e+02	-2.830530e-02
4.057926e+02	-2.863214e-02
4.081365e+02	-2.896274e-02
4.104938e+02	-2.929715e-02
4.128648e+02	-2.963540e-02
4.152495e+02	-2.997755e-02
4.176480e+02	-3.032363e-02
4.200603e+02	-3.067369e-02
4.224866e+02	-3.102778e-02
4.249268e+02	-3.138594e-02
4.273812e+02	-3.174822e-02
4.298497e+02	-3.211467e-02
4.323325e+02	-3.248533e-02
4.348297e+02	-3.286025e-02
4.373412e+02	-3.323948e-02
4.398673e+02	-3.362308e-02
4.424079e+02	-3.401108e-02
4.449633e+02	-3.440354e-02
4.475334e+02	-3.480051e-02
4.501183e+02	-3.520204e-02
4.527182e+02	-3.560819e-02
4.553330e+02	-3.601901e-02
4.579630e+02	-3.643454e-02
4.606082e+02	-3.685485e-02
4.632687e+02	-3.727998e-02
4.659445e+02	-3.771000e-02
4.686358e+02	-3.814496e-02
4.713426e+02	-3.858491e-02
4.740650e+02	-3.902991e-02
4.768032e+02	-3.948002e-02
4.795572e+02	-3.993529e-02
4.823271e+02	-4.039580e-02
4.851130e+02	-4.086159e-02
4.879150e+02	-4.133272e-02
4.907332e+02	-4.180926e-02
4.935676e+02	-4.229126e-02
4.964185e+02	-4.277880e-02
4.992858e+02	-4.327193e-02
5.021696e+02	-4.377071e-02
5.050701e+02	-4.427522e-02
5.079874e+02	-4.478550e-02
5.109215e+02	-4.530164e-02
5.138726e+02	-4.582370e-02
5.168407e+02	-4.635174e-02
5.198259e+02	-4.688583e-02
5.228284e+02	-4.742604e-02
5.258482e+02	-4.797244e-02
5.288855e+02	-4.852510e-02
5.319403e+02	-4.908410e-02
5.350128e+02	-4.964949e-02
5.381030e+02	-5.022136e-02
5.412111e+02	-5.079978e-02
5.443371e+02	-5.138482e-02
5.474812e+02	-5.197655e-02
5.506434e+02	-5.257506e-02
5.538239e+02	-5.318042e-02
5.570228e+02	-5.379271e-02
5.602401e+02	-5.441200e-02
5.634760e+02	-5.503838e-02
5.667306e+02	-5.567192e-02
5.700040e+02	-5.631270e-02
5.732964e+02	-5.696081e-02
5.766077e+02	-5.761633e-02
5.799382e+02	-5.827935e-02
5.832879e+02	-5.894994e-02
5.866569e+02	-5.962819e-02
5.900454e+02	-6.031420e-02
5.934535e+02	-6.100804e-02
5.968813e+02	-6.170981e-02
6.003288e+02	-6.241959e-02
6.037963e+02	-6.313747e-02
6.072838e+02	-6.386355e-02
6.107914e+02	-6.459792e-02
6.143194e+02	-6.534066e-02
6.178676e+02	-6.609189e-02
6.214364e+02	-6.685168e-02
6.250258e+02	-6.762014e-02
6.286359e+02	-6.839736e-02
6.322669e+02	-6.918345e-02
6.359189e+02	-6.997849e-02
6.395919e+02	-7.078260e-02
6.432862e+02	-7.159587e-02
6.470017e+02	-7.241841e-02
6.507388e+02	-7.325032e-02
6.544974e+02	-7.409170e-02
6.582778e+02	-7.494266e-02
6.620800e+02	-7.580331e-02
6.659041e+02	-7.667376e-02
6.697504e+02	-7.755411e-02
6.736188e+02	-7.844448e-02
6.775096e+02	-7.934498e-02
6.814229e+02	-8.025571e-02
6.853587e+02	-8.117681e-02
6.893173e+02	-8.210837e-02
6.932988e+02	-8.305053e-02
6.973033e+02	-8.400339e-02
7.013309e+02	-8.496707e-02
