Frequency(Hz)	Magnitude(dB)
1.000000e+01	-1.794269e-05
1.005776e+01	-1.815056e-05
1.011585e+01	-1.836084e-05
1.017428e+01	-1.857355e-05
1.023305e+01	-1.878873e-05
1.029215e+01	-1.900641e-05
1.035160e+01	-1.922660e-05
1.041139e+01	-1.944935e-05
1.047153e+01	-1.967467e-05
1.053201e+01	-1.990261e-05
1.059284e+01	-2.013318e-05
1.065403e+01	-2.036643e-05
1.071556e+01	-2.060238e-05
1.077746e+01	-2.084107e-05
1.083971e+01	-2.108252e-05
1.090232e+01	-2.132676e-05
1.096529e+01	-2.157384e-05
1.102862e+01	-2.182378e-05
1.109232e+01	-2.207661e-05
1.115639e+01	-2.233237e-05
1.122083e+01	-2.259110e-05
1.128564e+01	-2.285282e-05
1.135083e+01	-2.311758e-05
1.141639e+01	-2.338540e-05
1.148233e+01	-2.365633e-05
1.154865e+01	-2.393039e-05
1.161536e+01	-2.420763e-05
1.168245e+01	-2.448808e-05
1.174992e+01	-2.477178e-05
1.181779e+01	-2.505877e-05
1.188605e+01	-2.534908e-05
1.195470e+01	-2.564276e-05
1.202375e+01	-2.593983e-05
1.209320e+01	-2.624035e-05
1.216305e+01	-2.654435e-05
1.223330e+01	-2.685188e-05
1.230396e+01	-2.716296e-05
1.237503e+01	-2.747765e-05
1.244651e+01	-2.779599e-05
1.251840e+01	-2.811801e-05
1.259070e+01	-2.844377e-05
1.266343e+01	-2.877329e-05
1.273657e+01	-2.910664e-05
1.281014e+01	-2.944385e-05
1.288413e+01	-2.978496e-05
1.295855e+01	-3.013003e-05
1.303339e+01	-3.047909e-05
1.310867e+01	-3.083220e-05
1.318439e+01	-3.118940e-05
1.326054e+01	-3.155073e-05
1.333713e+01	-3.191625e-05
1.341417e+01	-3.228601e-05
1.349165e+01	-3.266005e-05
1.356958e+01	-3.303843e-05
1.364795e+01	-3.342119e-05
1.372678e+01	-3.380838e-05
1.380607e+01	-3.420006e-05
1.388581e+01	-3.459627e-05
1.396602e+01	-3.499708e-05
1.404668e+01	-3.540253e-05
1.412782e+01	-3.581267e-05
1.420942e+01	-3.622757e-05
1.429149e+01	-3.664728e-05
1.437404e+01	-3.707184e-05
1.445706e+01	-3.750133e-05
1.454057e+01	-3.793579e-05
1.462455e+01	-3.837529e-05
1.470902e+01	-3.881987e-05
1.479398e+01	-3.926961e-05
1.487943e+01	-3.972456e-05
1.496537e+01	-4.018477e-05
1.505181e+01	-4.065032e-05
1.513875e+01	-4.112127e-05
1.522619e+01	-4.159767e-05
1.531414e+01	-4.207958e-05
1.540259e+01	-4.256709e-05
1.549156e+01	-4.306024e-05
1.558103e+01	-4.355910e-05
1.567103e+01	-4.406374e-05
1.576155e+01	-4.457423e-05
1.585258e+01	-4.509063e-05
1.594415e+01	-4.561301e-05
1.603624e+01	-4.614145e-05
1.612886e+01	-4.667601e-05
1.622202e+01	-4.721676e-05
1.631572e+01	-4.776378e-05
1.640996e+01	-4.831713e-05
1.650474e+01	-4.887690e-05
1.660008e+01	-4.944315e-05
1.669596e+01	-5.001595e-05
1.679239e+01	-5.059540e-05
1.688938e+01	-5.118156e-05
1.698694e+01	-5.177451e-05
1.708505e+01	-5.237433e-05
1.718373e+01	-5.298109e-05
1.728299e+01	-5.359489e-05
1.738281e+01	-5.421580e-05
1.748322e+01	-5.484390e-05
1.758420e+01	-5.547928e-05
1.768576e+01	-5.612202e-05
1.778792e+01	-5.677220e-05
1.789066e+01	-5.742992e-05
1.799399e+01	-5.809526e-05
1.809793e+01	-5.876830e-05
1.820246e+01	-5.944914e-05
1.830760e+01	-6.013787e-05
1.841334e+01	-6.083458e-05
1.851969e+01	-6.153936e-05
1.862666e+01	-6.225231e-05
1.873425e+01	-6.297352e-05
1.884246e+01	-6.370308e-05
1.895129e+01	-6.444109e-05
1.906075e+01	-6.518765e-05
1.917085e+01	-6.594286e-05
1.928158e+01	-6.670682e-05
1.939295e+01	-6.747963e-05
1.950496e+01	-6.826140e-05
1.961762e+01	-6.905222e-05
1.973093e+01	-6.985220e-05
1.984490e+01	-7.066145e-05
1.995952e+01	-7.148008e-05
2.007480e+01	-7.230819e-05
2.019076e+01	-7.314589e-05
2.030738e+01	-7.399330e-05
2.042467e+01	-7.485053e-05
2.054264e+01	-7.571768e-05
2.066130e+01	-7.659489e-05
2.078064e+01	-7.748225e-05
2.090066e+01	-7.837990e-05
2.102139e+01	-7.928794e-05
2.114280e+01	-8.020651e-05
2.126492e+01	-8.113571e-05
2.138775e+01	-8.207568e-05
2.151128e+01	-8.302654e-05
2.163553e+01	-8.398842e-05
2.176050e+01	-8.496144e-05
2.188619e+01	-8.594573e-05
2.201260e+01	-8.694143e-05
2.213974e+01	-8.794866e-05
2.226762e+01	-8.896756e-05
2.239624e+01	-8.999826e-05
2.252560e+01	-9.104091e-05
2.265571e+01	-9.209563e-05
2.278656e+01	-9.316257e-05
2.291818e+01	-9.424187e-05
2.305055e+01	-9.533368e-05
2.318369e+01	-9.643813e-05
2.331760e+01	-9.755538e-05
2.345228e+01	-9.868558e-05
2.358774e+01	-9.982887e-05
2.372398e+01	-1.009854e-04
2.386101e+01	-1.021553e-04
2.399883e+01	-1.033388e-04
2.413745e+01	-1.045360e-04
2.427686e+01	-1.057471e-04
2.441709e+01	-1.069722e-04
2.455812e+01	-1.082115e-04
2.469997e+01	-1.094651e-04
2.484263e+01	-1.107333e-04
2.498612e+01	-1.120161e-04
2.513044e+01	-1.133138e-04
2.527559e+01	-1.146266e-04
2.542158e+01	-1.159546e-04
2.556842e+01	-1.172979e-04
2.571610e+01	-1.186568e-04
2.586463e+01	-1.200315e-04
2.601403e+01	-1.214221e-04
2.616428e+01	-1.228287e-04
2.631541e+01	-1.242517e-04
2.646740e+01	-1.256912e-04
2.662028e+01	-1.271473e-04
2.677404e+01	-1.286204e-04
2.692868e+01	-1.301104e-04
2.708422e+01	-1.316178e-04
2.724066e+01	-1.331426e-04
2.739800e+01	-1.346851e-04
2.755625e+01	-1.362454e-04
2.771541e+01	-1.378238e-04
2.787550e+01	-1.394205e-04
2.803650e+01	-1.410357e-04
2.819844e+01	-1.426696e-04
2.836131e+01	-1.443225e-04
2.852513e+01	-1.459945e-04
2.868989e+01	-1.476858e-04
2.885560e+01	-1.493968e-04
2.902227e+01	-1.511275e-04
2.918990e+01	-1.528784e-04
2.935850e+01	-1.546495e-04
2.952807e+01	-1.564411e-04
2.969863e+01	-1.582535e-04
2.987016e+01	-1.600868e-04
3.004269e+01	-1.619415e-04
3.021622e+01	-1.638176e-04
3.039075e+01	-1.657154e-04
3.056628e+01	-1.676352e-04
3.074283e+01	-1.695773e-04
3.092040e+01	-1.715418e-04
3.109900e+01	-1.735292e-04
3.127862e+01	-1.755395e-04
3.145929e+01	-1.775731e-04
3.164099e+01	-1.796303e-04
3.182375e+01	-1.817114e-04
3.200756e+01	-1.838165e-04
3.219244e+01	-1.859460e-04
3.237838e+01	-1.881002e-04
3.256540e+01	-1.902793e-04
3.275349e+01	-1.924837e-04
3.294268e+01	-1.947137e-04
3.313295e+01	-1.969694e-04
3.332433e+01	-1.992513e-04
3.351681e+01	-2.015597e-04
3.371040e+01	-2.038947e-04
3.390511e+01	-2.062568e-04
3.410094e+01	-2.086463e-04
3.429791e+01	-2.110635e-04
3.449601e+01	-2.135087e-04
3.469526e+01	-2.159822e-04
3.489566e+01	-2.184843e-04
3.509721e+01	-2.210154e-04
3.529993e+01	-2.235759e-04
3.550382e+01	-2.261660e-04
3.570889e+01	-2.287862e-04
3.591515e+01	-2.314366e-04
3.612259e+01	-2.341178e-04
3.633123e+01	-2.368301e-04
3.654108e+01	-2.395737e-04
3.675214e+01	-2.423492e-04
3.696442e+01	-2.451568e-04
3.717792e+01	-2.479969e-04
3.739266e+01	-2.508700e-04
3.760864e+01	-2.537763e-04
3.782587e+01	-2.567162e-04
3.804435e+01	-2.596903e-04
3.826409e+01	-2.626988e-04
3.848510e+01	-2.657421e-04
3.870739e+01	-2.688207e-04
3.893096e+01	-2.719350e-04
3.915583e+01	-2.750853e-04
3.938199e+01	-2.782722e-04
3.960946e+01	-2.814959e-04
3.983824e+01	-2.847570e-04
4.006834e+01	-2.880559e-04
4.029978e+01	-2.913930e-04
4.053255e+01	-2.947688e-04
4.076666e+01	-2.981836e-04
4.100213e+01	-3.016380e-04
4.123896e+01	-3.051325e-04
4.147715e+01	-3.086674e-04
4.171672e+01	-3.122433e-04
4.195767e+01	-3.158606e-04
4.220002e+01	-3.195198e-04
4.244377e+01	-3.232213e-04
4.268892e+01	-3.269658e-04
4.293549e+01	-3.307537e-04
4.318348e+01	-3.345854e-04
4.343291e+01	-3.384615e-04
4.368377e+01	-3.423825e-04
4.393609e+01	-3.463490e-04
4.418986e+01	-3.503613e-04
4.444510e+01	-3.544202e-04
4.470182e+01	-3.585261e-04
4.496001e+01	-3.626795e-04
4.521970e+01	-3.668811e-04
4.548089e+01	-3.711314e-04
4.574358e+01	-3.754308e-04
4.600779e+01	-3.797801e-04
4.627353e+01	-3.841798e-04
4.654081e+01	-3.886304e-04
4.680963e+01	-3.931326e-04
4.708000e+01	-3.976869e-04
4.735193e+01	-4.022940e-04
4.762543e+01	-4.069545e-04
4.790051e+01	-4.116690e-04
4.817719e+01	-4.164380e-04
4.845545e+01	-4.212623e-04
4.873533e+01	-4.261425e-04
4.901682e+01	-4.310793e-04
4.929994e+01	-4.360732e-04
4.958470e+01	-4.411250e-04
4.987110e+01	-4.462353e-04
5.015915e+01	-4.514048e-04
5.044887e+01	-4.566341e-04
5.074026e+01	-4.619241e-04
5.103333e+01	-4.672753e-04
5.132810e+01	-4.726885e-04
5.162457e+01	-4.781645e-04
5.192275e+01	-4.837038e-04
5.222265e+01	-4.893073e-04
5.252429e+01	-4.949758e-04
5.282767e+01	-5.007099e-04
5.313280e+01	-5.065104e-04
5.343969e+01	-5.123781e-04
5.374836e+01	-5.183138e-04
5.405880e+01	-5.243183e-04
5.437105e+01	-5.303923e-04
5.468509e+01	-5.365366e-04
5.500095e+01	-5.427522e-04
5.531863e+01	-5.490397e-04
5.563815e+01	-5.554001e-04
5.595951e+01	-5.618341e-04
5.628273e+01	-5.683427e-04
5.660782e+01	-5.749267e-04
5.693479e+01	-5.815869e-04
5.726364e+01	-5.883243e-04
5.759439e+01	-5.951397e-04
5.792705e+01	-6.020341e-04
5.826164e+01	-6.090083e-04
5.859815e+01	-6.160634e-04
5.893662e+01	-6.232001e-04
5.927703e+01	-6.304195e-04
5.961941e+01	-6.377226e-04
5.996377e+01	-6.451102e-04
6.031012e+01	-6.525835e-04
6.065847e+01	-6.601432e-04
6.100883e+01	-6.677906e-04
6.136121e+01	-6.755265e-04
6.171563e+01	-6.833521e-04
6.207210e+01	-6.912683e-04
6.243063e+01	-6.992762e-04
6.279122e+01	-7.073768e-04
6.315390e+01	-7.155713e-04
6.351868e+01	-7.238607e-04
6.388556e+01	-7.322461e-04
6.425456e+01	-7.407286e-04
6.462569e+01	-7.493095e-04
6.499897e+01	-7.579897e-04
6.537440e+01	-7.667704e-04
6.575200e+01	-7.756528e-04
6.613178e+01	-7.846382e-04
6.651375e+01	-7.937276e-04
6.689793e+01	-8.029223e-04
6.728433e+01	-8.122235e-04
6.767297e+01	-8.216325e-04
6.806384e+01	-8.311504e-04
6.845698e+01	-8.407786e-04
6.885238e+01	-8.505183e-04
6.925007e+01	-8.603708e-04
6.965005e+01	-8.703374e-04
7.005235e+01	-8.804195e-04
7.045697e+01	-8.906183e-04
7.086393e+01	-9.009353e-04
7.127323e+01	-9.113718e-04
7.168490e+01	-9.219292e-04
7.209895e+01	-9.326088e-04
7.251539e+01	-9.434122e-04
7.293424e+01	-9.543407e-04
7.335551e+01	-9.653957e-04
7.377920e+01	-9.765789e-04
7.420535e+01	-9.878915e-04
7.463396e+01	-9.993352e-04
7.506504e+01	-1.010911e-03
7.549861e+01	-1.022622e-03
7.593469e+01	-1.034468e-03
7.637328e+01	-1.046451e-03
7.681441e+01	-1.058573e-03
7.725809e+01	-1.070835e-03
7.770433e+01	-1.083239e-03
7.815315e+01	-1.095787e-03
7.860456e+01	-1.108481e-03
7.905857e+01	-1.121321e-03
7.951521e+01	-1.134310e-03
7.997449e+01	-1.147450e-03
8.043642e+01	-1.160742e-03
8.090102e+01	-1.174187e-03
8.136830e+01	-1.187789e-03
8.183828e+01	-1.201548e-03
8.231097e+01	-1.215466e-03
8.278640e+01	-1.229546e-03
8.326457e+01	-1.243788e-03
8.374550e+01	-1.258196e-03
8.422921e+01	-1.272770e-03
8.471572e+01	-1.287513e-03
8.520503e+01	-1.302427e-03
8.569717e+01	-1.317514e-03
8.619215e+01	-1.332775e-03
8.669000e+01	-1.348214e-03
8.719071e+01	-1.363830e-03
8.769432e+01	-1.379628e-03
8.820084e+01	-1.395609e-03
8.871029e+01	-1.411775e-03
8.922267e+01	-1.428128e-03
8.973802e+01	-1.444671e-03
9.025634e+01	-1.461405e-03
9.077766e+01	-1.478333e-03
9.130199e+01	-1.495456e-03
9.182935e+01	-1.512779e-03
9.235975e+01	-1.530302e-03
9.289321e+01	-1.548027e-03
9.342976e+01	-1.565958e-03
9.396941e+01	-1.584097e-03
9.451217e+01	-1.602446e-03
9.505807e+01	-1.621007e-03
9.560712e+01	-1.639784e-03
9.615934e+01	-1.658777e-03
9.671476e+01	-1.677991e-03
9.727338e+01	-1.697427e-03
9.783522e+01	-1.717088e-03
9.840032e+01	-1.736977e-03
9.896867e+01	-1.757097e-03
9.954031e+01	-1.777449e-03
1.001153e+02	-1.798037e-03
1.006935e+02	-1.818863e-03
1.012751e+02	-1.839931e-03
1.018601e+02	-1.861242e-03
1.024484e+02	-1.882801e-03
1.030402e+02	-1.904609e-03
1.036353e+02	-1.926669e-03
1.042339e+02	-1.948985e-03
1.048360e+02	-1.971559e-03
1.054415e+02	-1.994395e-03
1.060505e+02	-2.017496e-03
1.066631e+02	-2.040863e-03
1.072791e+02	-2.064502e-03
1.078988e+02	-2.088414e-03
1.085220e+02	-2.112603e-03
1.091488e+02	-2.137072e-03
1.097793e+02	-2.161824e-03
1.104133e+02	-2.186863e-03
1.110511e+02	-2.212192e-03
1.116925e+02	-2.237814e-03
1.123376e+02	-2.263733e-03
1.129865e+02	-2.289952e-03
1.136391e+02	-2.316475e-03
1.142955e+02	-2.343304e-03
1.149556e+02	-2.370445e-03
1.156196e+02	-2.397899e-03
1.162874e+02	-2.425672e-03
1.169591e+02	-2.453766e-03
1.176347e+02	-2.482186e-03
1.183141e+02	-2.510934e-03
1.189975e+02	-2.540015e-03
1.196848e+02	-2.569433e-03
1.203761e+02	-2.599192e-03
1.210714e+02	-2.629295e-03
1.217707e+02	-2.659747e-03
1.224740e+02	-2.690551e-03
1.231814e+02	-2.721712e-03
1.238929e+02	-2.753234e-03
1.246085e+02	-2.785121e-03
1.253283e+02	-2.817377e-03
1.260522e+02	-2.850006e-03
1.267802e+02	-2.883013e-03
1.275125e+02	-2.916402e-03
1.282490e+02	-2.950178e-03
1.289898e+02	-2.984345e-03
1.297348e+02	-3.018907e-03
1.304842e+02	-3.053870e-03
1.312378e+02	-3.089237e-03
1.319959e+02	-3.125014e-03
1.327583e+02	-3.161205e-03
1.335251e+02	-3.197815e-03
1.342963e+02	-3.234848e-03
1.350720e+02	-3.272311e-03
1.358522e+02	-3.310207e-03
1.366368e+02	-3.348542e-03
1.374260e+02	-3.387320e-03
1.382198e+02	-3.426548e-03
1.390182e+02	-3.466230e-03
1.398211e+02	-3.506370e-03
1.406287e+02	-3.546976e-03
1.414410e+02	-3.588052e-03
1.422579e+02	-3.629603e-03
1.430796e+02	-3.671635e-03
1.439060e+02	-3.714154e-03
1.447372e+02	-3.757164e-03
1.455732e+02	-3.800673e-03
1.464141e+02	-3.844685e-03
1.472597e+02	-3.889207e-03
1.481103e+02	-3.934244e-03
1.489658e+02	-3.979802e-03
1.498262e+02	-4.025888e-03
1.506916e+02	-4.072507e-03
1.515620e+02	-4.119666e-03
1.524374e+02	-4.167370e-03
1.533179e+02	-4.215627e-03
1.542034e+02	-4.264442e-03
1.550941e+02	-4.313822e-03
1.559899e+02	-4.363774e-03
1.568909e+02	-4.414303e-03
1.577971e+02	-4.465418e-03
1.587085e+02	-4.517124e-03
1.596252e+02	-4.569429e-03
1.605472e+02	-4.622338e-03
1.614745e+02	-4.675861e-03
1.624072e+02	-4.730002e-03
1.633453e+02	-4.784770e-03
1.642887e+02	-4.840172e-03
1.652377e+02	-4.896215e-03
1.661921e+02	-4.952906e-03
1.671520e+02	-5.010254e-03
1.681175e+02	-5.068265e-03
1.690885e+02	-5.126948e-03
1.700651e+02	-5.186309e-03
1.710474e+02	-5.246358e-03
1.720354e+02	-5.307101e-03
1.730291e+02	-5.368547e-03
1.740285e+02	-5.430704e-03
1.750337e+02	-5.493580e-03
1.760446e+02	-5.557184e-03
1.770615e+02	-5.621523e-03
1.780842e+02	-5.686608e-03
1.791128e+02	-5.752445e-03
1.801473e+02	-5.819044e-03
1.811878e+02	-5.886413e-03
1.822344e+02	-5.954562e-03
1.832870e+02	-6.023499e-03
1.843456e+02	-6.093234e-03
1.854104e+02	-6.163775e-03
1.864813e+02	-6.235133e-03
1.875584e+02	-6.307316e-03
1.886418e+02	-6.380334e-03
1.897313e+02	-6.454197e-03
1.908272e+02	-6.528914e-03
1.919294e+02	-6.604495e-03
1.930380e+02	-6.680951e-03
1.941530e+02	-6.758291e-03
1.952744e+02	-6.836526e-03
1.964023e+02	-6.915666e-03
1.975367e+02	-6.995721e-03
1.986777e+02	-7.076702e-03
1.998252e+02	-7.158620e-03
2.009794e+02	-7.241485e-03
2.021403e+02	-7.325308e-03
2.033078e+02	-7.410101e-03
2.044821e+02	-7.495875e-03
2.056632e+02	-7.582641e-03
2.068511e+02	-7.670410e-03
2.080459e+02	-7.759194e-03
2.092475e+02	-7.849005e-03
2.104561e+02	-7.939854e-03
2.116717e+02	-8.031754e-03
2.128943e+02	-8.124717e-03
2.141240e+02	-8.218754e-03
2.153608e+02	-8.313879e-03
2.166047e+02	-8.410104e-03
2.178558e+02	-8.507442e-03
2.191141e+02	-8.605905e-03
2.203797e+02	-8.705506e-03
2.216526e+02	-8.806259e-03
2.229329e+02	-8.908177e-03
2.242205e+02	-9.011273e-03
2.255156e+02	-9.115562e-03
2.268182e+02	-9.221055e-03
2.281283e+02	-9.327769e-03
2.294459e+02	-9.435715e-03
2.307712e+02	-9.544910e-03
2.321041e+02	-9.655367e-03
2.334447e+02	-9.767101e-03
2.347931e+02	-9.880126e-03
2.361493e+02	-9.994458e-03
2.375133e+02	-1.011011e-02
2.388851e+02	-1.022710e-02
2.402649e+02	-1.034544e-02
2.416527e+02	-1.046515e-02
2.430484e+02	-1.058625e-02
2.444523e+02	-1.070874e-02
2.458642e+02	-1.083265e-02
2.472843e+02	-1.095799e-02
2.487126e+02	-1.108478e-02
2.501492e+02	-1.121303e-02
2.515940e+02	-1.134277e-02
2.530472e+02	-1.147400e-02
2.545088e+02	-1.160675e-02
2.559789e+02	-1.174104e-02
2.574574e+02	-1.187687e-02
2.589444e+02	-1.201428e-02
2.604401e+02	-1.215327e-02
2.619444e+02	-1.229387e-02
2.634574e+02	-1.243609e-02
2.649791e+02	-1.257996e-02
2.665096e+02	-1.272549e-02
2.680489e+02	-1.287270e-02
2.695972e+02	-1.302161e-02
2.711544e+02	-1.317224e-02
2.727205e+02	-1.332460e-02
2.742958e+02	-1.347873e-02
2.758801e+02	-1.363464e-02
2.774736e+02	-1.379235e-02
2.790762e+02	-1.395188e-02
2.806882e+02	-1.411325e-02
2.823094e+02	-1.427649e-02
2.839400e+02	-1.444161e-02
2.855800e+02	-1.460864e-02
2.872295e+02	-1.477760e-02
2.888886e+02	-1.494850e-02
2.905572e+02	-1.512138e-02
2.922354e+02	-1.529626e-02
2.939234e+02	-1.547315e-02
2.956211e+02	-1.565209e-02
2.973286e+02	-1.583309e-02
2.990459e+02	-1.601618e-02
3.007732e+02	-1.620139e-02
3.025104e+02	-1.638873e-02
3.042577e+02	-1.657823e-02
3.060151e+02	-1.676992e-02
3.077826e+02	-1.696383e-02
3.095604e+02	-1.715997e-02
3.113484e+02	-1.735837e-02
3.131467e+02	-1.755907e-02
3.149554e+02	-1.776208e-02
3.167746e+02	-1.796743e-02
3.186043e+02	-1.817515e-02
3.204445e+02	-1.838526e-02
3.222954e+02	-1.859780e-02
3.241570e+02	-1.881280e-02
3.260293e+02	-1.903027e-02
3.279124e+02	-1.925025e-02
3.298064e+02	-1.947277e-02
3.317114e+02	-1.969785e-02
3.336273e+02	-1.992553e-02
3.355544e+02	-2.015584e-02
3.374925e+02	-2.038880e-02
3.394418e+02	-2.062444e-02
3.414024e+02	-2.086281e-02
3.433744e+02	-2.110392e-02
3.453577e+02	-2.134781e-02
3.473525e+02	-2.159452e-02
3.493588e+02	-2.184406e-02
3.513766e+02	-2.209649e-02
3.534062e+02	-2.235182e-02
3.554474e+02	-2.261009e-02
3.575005e+02	-2.287135e-02
3.595654e+02	-2.313561e-02
3.616422e+02	-2.340292e-02
3.637311e+02	-2.367331e-02
3.658320e+02	-2.394681e-02
3.679450e+02	-2.422346e-02
3.700702e+02	-2.450330e-02
3.722077e+02	-2.478637e-02
3.743576e+02	-2.507269e-02
3.765199e+02	-2.536232e-02
3.786946e+02	-2.565528e-02
3.808820e+02	-2.595161e-02
3.830819e+02	-2.625135e-02
3.852946e+02	-2.655455e-02
3.875200e+02	-2.686124e-02
3.897583e+02	-2.717146e-02
3.920096e+02	-2.748525e-02
3.942738e+02	-2.780265e-02
3.965511e+02	-2.812370e-02
3.988416e+02	-2.844846e-02
4.011452e+02	-2.877694e-02
4.034622e+02	-2.910921e-02
4.057926e+02	-2.944530e-02
4.081365e+02	-2.978526e-02
4.104938e+02	-3.012913e-02
4.128648e+02	-3.047696e-02
4.152495e+02	-3.082879e-02
4.176480e+02	-3.118466e-02
4.200603e+02	-3.154463e-02
4.224866e+02	-3.190873e-02
4.249268e+02	-3.227703e-02
4.273812e+02	-3.264956e-02
4.298497e+02	-3.302637e-02
4.323325e+02	-3.340751e-02
4.348297e+02	-3.379304e-02
4.373412e+02	-3.418300e-02
4.398673e+02	-3.457744e-02
4.424079e+02	-3.497641e-02
4.449633e+02	-3.537997e-02
4.475334e+02	-3.578816e-02
4.501183e+02	-3.620104e-02
4.527182e+02	-3.661867e-02
4.553330e+02	-3.704109e-02
4.579630e+02	-3.746837e-02
4.606082e+02	-3.790055e-02
4.632687e+02	-3.833770e-02
4.659445e+02	-3.877987e-02
4.686358e+02	-3.922711e-02
4.713426e+02	-3.967948e-02
4.740650e+02	-4.013705e-02
4.768032e+02	-4.059987e-02
4.795572e+02	-4.106801e-02
4.823271e+02	-4.154151e-02
4.851130e+02	-4.202045e-02
4.879150e+02	-4.250488e-02
4.907332e+02	-4.299487e-02
4.935676e+02	-4.349048e-02
4.964185e+02	-4.399177e-02
4.992858e+02	-4.449881e-02
5.021696e+02	-4.501167e-02
5.050701e+02	-4.553040e-02
5.079874e+02	-4.605508e-02
5.109215e+02	-4.658578e-02
5.138726e+02	-4.712255e-02
5.168407e+02	-4.766548e-02
5.198259e+02	-4.821463e-02
5.228284e+02	-4.877007e-02
5.258482e+02	-4.933187e-02
5.288855e+02	-4.990010e-02
5.319403e+02	-5.047485e-02
5.350128e+02	-5.105617e-02
5.381030e+02	-5.164415e-02
5.412111e+02	-5.223886e-02
5.443371e+02	-5.284038e-02
5.474812e+02	-5.344877e-02
5.506434e+02	-5.406414e-02
5.538239e+02	-5.468654e-02
5.570228e+02	-5.531606e-02
5.602401e+02	-5.595278e-02
5.634760e+02	-5.659678e-02
5.667306e+02	-5.724814e-02
5.700040e+02	-5.790695e-02
5.732964e+02	-5.857329e-02
5.766077e+02	-5.924725e-02
5.799382e+02	-5.992891e-02
5.832879e+02	-6.061835e-02
5.866569e+02	-6.131567e-02
5.900454e+02	-6.202096e-02
5.934535e+02	-6.273430e-02
5.968813e+02	-6.345578e-02
6.003288e+02	-6.418550e-02
6.037963e+02	-6.492354e-02
6.072838e+02	-6.567001e-02
6.107914e+02	-6.642500e-02
6.143194e+02	-6.718860e-02
6.178676e+02	-6.796091e-02
6.214364e+02	-6.874202e-02
6.250258e+02	-6.953204e-02
6.286359e+02	-7.033107e-02
6.322669e+02	-7.113920e-02
6.359189e+02	-7.195655e-02
6.395919e+02	-7.278320e-02
6.432862e+02	-7.361927e-02
6.470017e+02	-7.446486e-02
6.507388e+02	-7.532008e-02
6.544974e+02	-7.618504e-02
6.582778e+02	-7.705984e-02
6.620800e+02	-7.794459e-02
6.659041e+02	-7.883941e-02
6.697504e+02	-7.974441e-02
6.736188e+02	-8.065970e-02
6.775096e+02	-8.158540e-02
6.814229e+02	-8.252162e-02
6.853587e+02	-8.346848e-02
6.893173e+02	-8.442609e-02
6.932988e+02	-8.539459e-02
6.973033e+02	-8.637409e-02
7.013309e+02	-8.736470e-02
