Frequency(Hz)	Magnitude(dB)
1.000000e+01	-1.837349e-05
1.005776e+01	-1.858635e-05
1.011585e+01	-1.880168e-05
1.017428e+01	-1.901950e-05
1.023305e+01	-1.923984e-05
1.029215e+01	-1.946274e-05
1.035160e+01	-1.968822e-05
1.041139e+01	-1.991632e-05
1.047153e+01	-2.014705e-05
1.053201e+01	-2.038046e-05
1.059284e+01	-2.061657e-05
1.065403e+01	-2.085542e-05
1.071556e+01	-2.109704e-05
1.077746e+01	-2.134145e-05
1.083971e+01	-2.158870e-05
1.090232e+01	-2.183881e-05
1.096529e+01	-2.209182e-05
1.102862e+01	-2.234776e-05
1.109232e+01	-2.260666e-05
1.115639e+01	-2.286856e-05
1.122083e+01	-2.313350e-05
1.128564e+01	-2.340151e-05
1.135083e+01	-2.367262e-05
1.141639e+01	-2.394687e-05
1.148233e+01	-2.422431e-05
1.154865e+01	-2.450495e-05
1.161536e+01	-2.478885e-05
1.168245e+01	-2.507603e-05
1.174992e+01	-2.536654e-05
1.181779e+01	-2.566042e-05
1.188605e+01	-2.595770e-05
1.195470e+01	-2.625843e-05
1.202375e+01	-2.656264e-05
1.209320e+01	-2.687037e-05
1.216305e+01	-2.718167e-05
1.223330e+01	-2.749658e-05
1.230396e+01	-2.781513e-05
1.237503e+01	-2.813738e-05
1.244651e+01	-2.846336e-05
1.251840e+01	-2.879311e-05
1.259070e+01	-2.912669e-05
1.266343e+01	-2.946413e-05
1.273657e+01	-2.980548e-05
1.281014e+01	-3.015078e-05
1.288413e+01	-3.050008e-05
1.295855e+01	-3.085343e-05
1.303339e+01	-3.121088e-05
1.310867e+01	-3.157246e-05
1.318439e+01	-3.193824e-05
1.326054e+01	-3.230825e-05
1.333713e+01	-3.268255e-05
1.341417e+01	-3.306119e-05
1.349165e+01	-3.344421e-05
1.356958e+01	-3.383167e-05
1.364795e+01	-3.422361e-05
1.372678e+01	-3.462010e-05
1.380607e+01	-3.502118e-05
1.388581e+01	-3.542691e-05
1.396602e+01	-3.583734e-05
1.404668e+01	-3.625253e-05
1.412782e+01	-3.667252e-05
1.420942e+01	-3.709738e-05
1.429149e+01	-3.752716e-05
1.437404e+01	-3.796192e-05
1.445706e+01	-3.840172e-05
1.454057e+01	-3.884661e-05
1.462455e+01	-3.929666e-05
1.470902e+01	-3.975192e-05
1.479398e+01	-4.021245e-05
1.487943e+01	-4.067832e-05
1.496537e+01	-4.114959e-05
1.505181e+01	-4.162632e-05
1.513875e+01	-4.210857e-05
1.522619e+01	-4.259641e-05
1.531414e+01	-4.308990e-05
1.540259e+01	-4.358910e-05
1.549156e+01	-4.409409e-05
1.558103e+01	-4.460493e-05
1.567103e+01	-4.512169e-05
1.576155e+01	-4.564443e-05
1.585258e+01	-4.617323e-05
1.594415e+01	-4.670816e-05
1.603624e+01	-4.724929e-05
1.612886e+01	-4.779668e-05
1.622202e+01	-4.835041e-05
1.631572e+01	-4.891056e-05
1.640996e+01	-4.947720e-05
1.650474e+01	-5.005041e-05
1.660008e+01	-5.063025e-05
1.669596e+01	-5.121681e-05
1.679239e+01	-5.181017e-05
1.688938e+01	-5.241040e-05
1.698694e+01	-5.301759e-05
1.708505e+01	-5.363181e-05
1.718373e+01	-5.425314e-05
1.728299e+01	-5.488168e-05
1.738281e+01	-5.551749e-05
1.748322e+01	-5.616067e-05
1.758420e+01	-5.681131e-05
1.768576e+01	-5.746948e-05
1.778792e+01	-5.813527e-05
1.789066e+01	-5.880878e-05
1.799399e+01	-5.949009e-05
1.809793e+01	-6.017930e-05
1.820246e+01	-6.087649e-05
1.830760e+01	-6.158175e-05
1.841334e+01	-6.229519e-05
1.851969e+01	-6.301689e-05
1.862666e+01	-6.374696e-05
1.873425e+01	-6.448548e-05
1.884246e+01	-6.523255e-05
1.895129e+01	-6.598828e-05
1.906075e+01	-6.675277e-05
1.917085e+01	-6.752611e-05
1.928158e+01	-6.830842e-05
1.939295e+01	-6.909978e-05
1.950496e+01	-6.990032e-05
1.961762e+01	-7.071013e-05
1.973093e+01	-7.152932e-05
1.984490e+01	-7.235800e-05
1.995952e+01	-7.319628e-05
2.007480e+01	-7.404427e-05
2.019076e+01	-7.490208e-05
2.030738e+01	-7.576984e-05
2.042467e+01	-7.664765e-05
2.054264e+01	-7.753562e-05
2.066130e+01	-7.843389e-05
2.078064e+01	-7.934256e-05
2.090066e+01	-8.026175e-05
2.102139e+01	-8.119160e-05
2.114280e+01	-8.213222e-05
2.126492e+01	-8.308373e-05
2.138775e+01	-8.404627e-05
2.151128e+01	-8.501996e-05
2.163553e+01	-8.600493e-05
2.176050e+01	-8.700131e-05
2.188619e+01	-8.800924e-05
2.201260e+01	-8.902884e-05
2.213974e+01	-9.006025e-05
2.226762e+01	-9.110362e-05
2.239624e+01	-9.215906e-05
2.252560e+01	-9.322674e-05
2.265571e+01	-9.430679e-05
2.278656e+01	-9.539935e-05
2.291818e+01	-9.650456e-05
2.305055e+01	-9.762258e-05
2.318369e+01	-9.875355e-05
2.331760e+01	-9.989763e-05
2.345228e+01	-1.010550e-04
2.358774e+01	-1.022257e-04
2.372398e+01	-1.034100e-04
2.386101e+01	-1.046080e-04
2.399883e+01	-1.058199e-04
2.413745e+01	-1.070458e-04
2.427686e+01	-1.082860e-04
2.441709e+01	-1.095405e-04
2.455812e+01	-1.108095e-04
2.469997e+01	-1.120933e-04
2.484263e+01	-1.133919e-04
2.498612e+01	-1.147056e-04
2.513044e+01	-1.160344e-04
2.527559e+01	-1.173787e-04
2.542158e+01	-1.187386e-04
2.556842e+01	-1.201142e-04
2.571610e+01	-1.215057e-04
2.586463e+01	-1.229133e-04
2.601403e+01	-1.243373e-04
2.616428e+01	-1.257778e-04
2.631541e+01	-1.272349e-04
2.646740e+01	-1.287090e-04
2.662028e+01	-1.302001e-04
2.677404e+01	-1.317084e-04
2.692868e+01	-1.332343e-04
2.708422e+01	-1.347778e-04
2.724066e+01	-1.363392e-04
2.739800e+01	-1.379187e-04
2.755625e+01	-1.395165e-04
2.771541e+01	-1.411329e-04
2.787550e+01	-1.427679e-04
2.803650e+01	-1.444219e-04
2.819844e+01	-1.460950e-04
2.836131e+01	-1.477875e-04
2.852513e+01	-1.494997e-04
2.868989e+01	-1.512316e-04
2.885560e+01	-1.529837e-04
2.902227e+01	-1.547560e-04
2.918990e+01	-1.565488e-04
2.935850e+01	-1.583625e-04
2.952807e+01	-1.601971e-04
2.969863e+01	-1.620530e-04
2.987016e+01	-1.639304e-04
3.004269e+01	-1.658295e-04
3.021622e+01	-1.677507e-04
3.039075e+01	-1.696941e-04
3.056628e+01	-1.716600e-04
3.074283e+01	-1.736487e-04
3.092040e+01	-1.756604e-04
3.109900e+01	-1.776955e-04
3.127862e+01	-1.797541e-04
3.145929e+01	-1.818365e-04
3.164099e+01	-1.839431e-04
3.182375e+01	-1.860741e-04
3.200756e+01	-1.882298e-04
3.219244e+01	-1.904104e-04
3.237838e+01	-1.926163e-04
3.256540e+01	-1.948478e-04
3.275349e+01	-1.971051e-04
3.294268e+01	-1.993886e-04
3.313295e+01	-2.016985e-04
3.332433e+01	-2.040352e-04
3.351681e+01	-2.063989e-04
3.371040e+01	-2.087900e-04
3.390511e+01	-2.112089e-04
3.410094e+01	-2.136557e-04
3.429791e+01	-2.161309e-04
3.449601e+01	-2.186348e-04
3.469526e+01	-2.211677e-04
3.489566e+01	-2.237299e-04
3.509721e+01	-2.263218e-04
3.529993e+01	-2.289437e-04
3.550382e+01	-2.315960e-04
3.570889e+01	-2.342791e-04
3.591515e+01	-2.369932e-04
3.612259e+01	-2.397388e-04
3.633123e+01	-2.425161e-04
3.654108e+01	-2.453257e-04
3.675214e+01	-2.481677e-04
3.696442e+01	-2.510427e-04
3.717792e+01	-2.539511e-04
3.739266e+01	-2.568931e-04
3.760864e+01	-2.598692e-04
3.782587e+01	-2.628797e-04
3.804435e+01	-2.659252e-04
3.826409e+01	-2.690059e-04
3.848510e+01	-2.721223e-04
3.870739e+01	-2.752748e-04
3.893096e+01	-2.784638e-04
3.915583e+01	-2.816898e-04
3.938199e+01	-2.849532e-04
3.960946e+01	-2.882543e-04
3.983824e+01	-2.915937e-04
4.006834e+01	-2.949718e-04
4.029978e+01	-2.983890e-04
4.053255e+01	-3.018458e-04
4.076666e+01	-3.053426e-04
4.100213e+01	-3.088800e-04
4.123896e+01	-3.124583e-04
4.147715e+01	-3.160781e-04
4.171672e+01	-3.197398e-04
4.195767e+01	-3.234440e-04
4.220002e+01	-3.271910e-04
4.244377e+01	-3.309815e-04
4.268892e+01	-3.348158e-04
4.293549e+01	-3.386946e-04
4.318348e+01	-3.426183e-04
4.343291e+01	-3.465875e-04
4.368377e+01	-3.506027e-04
4.393609e+01	-3.546643e-04
4.418986e+01	-3.587730e-04
4.444510e+01	-3.629293e-04
4.470182e+01	-3.671338e-04
4.496001e+01	-3.713870e-04
4.521970e+01	-3.756894e-04
4.548089e+01	-3.800417e-04
4.574358e+01	-3.844444e-04
4.600779e+01	-3.888981e-04
4.627353e+01	-3.934034e-04
4.654081e+01	-3.979608e-04
4.680963e+01	-4.025711e-04
4.708000e+01	-4.072348e-04
4.735193e+01	-4.119525e-04
4.762543e+01	-4.167248e-04
4.790051e+01	-4.215525e-04
4.817719e+01	-4.264361e-04
4.845545e+01	-4.313762e-04
4.873533e+01	-4.363735e-04
4.901682e+01	-4.414288e-04
4.929994e+01	-4.465426e-04
4.958470e+01	-4.517157e-04
4.987110e+01	-4.569486e-04
5.015915e+01	-4.622422e-04
5.044887e+01	-4.675971e-04
5.074026e+01	-4.730141e-04
5.103333e+01	-4.784938e-04
5.132810e+01	-4.840370e-04
5.162457e+01	-4.896444e-04
5.192275e+01	-4.953167e-04
5.222265e+01	-5.010547e-04
5.252429e+01	-5.068593e-04
5.282767e+01	-5.127310e-04
5.313280e+01	-5.186708e-04
5.343969e+01	-5.246794e-04
5.374836e+01	-5.307576e-04
5.405880e+01	-5.369062e-04
5.437105e+01	-5.431260e-04
5.468509e+01	-5.494178e-04
5.500095e+01	-5.557826e-04
5.531863e+01	-5.622211e-04
5.563815e+01	-5.687341e-04
5.595951e+01	-5.753226e-04
5.628273e+01	-5.819875e-04
5.660782e+01	-5.887295e-04
5.693479e+01	-5.955496e-04
5.726364e+01	-6.024487e-04
5.759439e+01	-6.094278e-04
5.792705e+01	-6.164877e-04
5.826164e+01	-6.236293e-04
5.859815e+01	-6.308537e-04
5.893662e+01	-6.381618e-04
5.927703e+01	-6.455545e-04
5.961941e+01	-6.530329e-04
5.996377e+01	-6.605979e-04
6.031012e+01	-6.682505e-04
6.065847e+01	-6.759918e-04
6.100883e+01	-6.838227e-04
6.136121e+01	-6.917444e-04
6.171563e+01	-6.997578e-04
6.207210e+01	-7.078640e-04
6.243063e+01	-7.160641e-04
6.279122e+01	-7.243592e-04
6.315390e+01	-7.327504e-04
6.351868e+01	-7.412388e-04
6.388556e+01	-7.498255e-04
6.425456e+01	-7.585117e-04
6.462569e+01	-7.672985e-04
6.499897e+01	-7.761870e-04
6.537440e+01	-7.851786e-04
6.575200e+01	-7.942742e-04
6.613178e+01	-8.034753e-04
6.651375e+01	-8.127829e-04
6.689793e+01	-8.221983e-04
6.728433e+01	-8.317228e-04
6.767297e+01	-8.413576e-04
6.806384e+01	-8.511040e-04
6.845698e+01	-8.609633e-04
6.885238e+01	-8.709368e-04
6.925007e+01	-8.810258e-04
6.965005e+01	-8.912317e-04
7.005235e+01	-9.015558e-04
7.045697e+01	-9.119994e-04
7.086393e+01	-9.225641e-04
7.127323e+01	-9.332511e-04
7.168490e+01	-9.440619e-04
7.209895e+01	-9.549979e-04
7.251539e+01	-9.660606e-04
7.293424e+01	-9.772514e-04
7.335551e+01	-9.885718e-04
7.377920e+01	-1.000023e-03
7.420535e+01	-1.011608e-03
7.463396e+01	-1.023326e-03
7.506504e+01	-1.035180e-03
7.549861e+01	-1.047171e-03
7.593469e+01	-1.059302e-03
7.637328e+01	-1.071573e-03
7.681441e+01	-1.083985e-03
7.725809e+01	-1.096542e-03
7.770433e+01	-1.109244e-03
7.815315e+01	-1.122093e-03
7.860456e+01	-1.135092e-03
7.905857e+01	-1.148240e-03
7.951521e+01	-1.161541e-03
7.997449e+01	-1.174996e-03
8.043642e+01	-1.188607e-03
8.090102e+01	-1.202375e-03
8.136830e+01	-1.216303e-03
8.183828e+01	-1.230392e-03
8.231097e+01	-1.244645e-03
8.278640e+01	-1.259062e-03
8.326457e+01	-1.273647e-03
8.374550e+01	-1.288400e-03
8.422921e+01	-1.303324e-03
8.471572e+01	-1.318421e-03
8.520503e+01	-1.333693e-03
8.569717e+01	-1.349142e-03
8.619215e+01	-1.364770e-03
8.669000e+01	-1.380578e-03
8.719071e+01	-1.396570e-03
8.769432e+01	-1.412747e-03
8.820084e+01	-1.429112e-03
8.871029e+01	-1.445665e-03
8.922267e+01	-1.462411e-03
8.973802e+01	-1.479351e-03
9.025634e+01	-1.496486e-03
9.077766e+01	-1.513820e-03
9.130199e+01	-1.531355e-03
9.182935e+01	-1.549093e-03
9.235975e+01	-1.567037e-03
9.289321e+01	-1.585188e-03
9.342976e+01	-1.603549e-03
9.396941e+01	-1.622124e-03
9.451217e+01	-1.640913e-03
9.505807e+01	-1.659919e-03
9.560712e+01	-1.679146e-03
9.615934e+01	-1.698596e-03
9.671476e+01	-1.718271e-03
9.727338e+01	-1.738173e-03
9.783522e+01	-1.758306e-03
9.840032e+01	-1.778673e-03
9.896867e+01	-1.799275e-03
9.954031e+01	-1.820116e-03
1.001153e+02	-1.841198e-03
1.006935e+02	-1.862524e-03
1.012751e+02	-1.884097e-03
1.018601e+02	-1.905920e-03
1.024484e+02	-1.927996e-03
1.030402e+02	-1.950327e-03
1.036353e+02	-1.972917e-03
1.042339e+02	-1.995768e-03
1.048360e+02	-2.018885e-03
1.054415e+02	-2.042268e-03
1.060505e+02	-2.065923e-03
1.066631e+02	-2.089851e-03
1.072791e+02	-2.114057e-03
1.078988e+02	-2.138543e-03
1.085220e+02	-2.163312e-03
1.091488e+02	-2.188369e-03
1.097793e+02	-2.213715e-03
1.104133e+02	-2.239355e-03
1.110511e+02	-2.265292e-03
1.116925e+02	-2.291529e-03
1.123376e+02	-2.318070e-03
1.129865e+02	-2.344918e-03
1.136391e+02	-2.372077e-03
1.142955e+02	-2.399550e-03
1.149556e+02	-2.427342e-03
1.156196e+02	-2.455455e-03
1.162874e+02	-2.483894e-03
1.169591e+02	-2.512663e-03
1.176347e+02	-2.541764e-03
1.183141e+02	-2.571202e-03
1.189975e+02	-2.600981e-03
1.196848e+02	-2.631105e-03
1.203761e+02	-2.661578e-03
1.210714e+02	-2.692403e-03
1.217707e+02	-2.723586e-03
1.224740e+02	-2.755129e-03
1.231814e+02	-2.787038e-03
1.238929e+02	-2.819316e-03
1.246085e+02	-2.851968e-03
1.253283e+02	-2.884998e-03
1.260522e+02	-2.918410e-03
1.267802e+02	-2.952209e-03
1.275125e+02	-2.986399e-03
1.282490e+02	-3.020985e-03
1.289898e+02	-3.055972e-03
1.297348e+02	-3.091364e-03
1.304842e+02	-3.127165e-03
1.312378e+02	-3.163381e-03
1.319959e+02	-3.200016e-03
1.327583e+02	-3.237075e-03
1.335251e+02	-3.274563e-03
1.342963e+02	-3.312485e-03
1.350720e+02	-3.350847e-03
1.358522e+02	-3.389652e-03
1.366368e+02	-3.428906e-03
1.374260e+02	-3.468615e-03
1.382198e+02	-3.508784e-03
1.390182e+02	-3.549417e-03
1.398211e+02	-3.590521e-03
1.406287e+02	-3.632101e-03
1.414410e+02	-3.674162e-03
1.422579e+02	-3.716710e-03
1.430796e+02	-3.759750e-03
1.439060e+02	-3.803289e-03
1.447372e+02	-3.847331e-03
1.455732e+02	-3.891884e-03
1.464141e+02	-3.936952e-03
1.472597e+02	-3.982541e-03
1.481103e+02	-4.028659e-03
1.489658e+02	-4.075310e-03
1.498262e+02	-4.122501e-03
1.506916e+02	-4.170238e-03
1.515620e+02	-4.218528e-03
1.524374e+02	-4.267377e-03
1.533179e+02	-4.316791e-03
1.542034e+02	-4.366777e-03
1.550941e+02	-4.417341e-03
1.559899e+02	-4.468491e-03
1.568909e+02	-4.520232e-03
1.577971e+02	-4.572573e-03
1.587085e+02	-4.625519e-03
1.596252e+02	-4.679078e-03
1.605472e+02	-4.733257e-03
1.614745e+02	-4.788062e-03
1.624072e+02	-4.843502e-03
1.633453e+02	-4.899584e-03
1.642887e+02	-4.956314e-03
1.652377e+02	-5.013701e-03
1.661921e+02	-5.071752e-03
1.671520e+02	-5.130475e-03
1.681175e+02	-5.189877e-03
1.690885e+02	-5.249967e-03
1.700651e+02	-5.310752e-03
1.710474e+02	-5.372240e-03
1.720354e+02	-5.434440e-03
1.730291e+02	-5.497359e-03
1.740285e+02	-5.561007e-03
1.750337e+02	-5.625391e-03
1.760446e+02	-5.690520e-03
1.770615e+02	-5.756402e-03
1.780842e+02	-5.823046e-03
1.791128e+02	-5.890462e-03
1.801473e+02	-5.958658e-03
1.811878e+02	-6.027642e-03
1.822344e+02	-6.097425e-03
1.832870e+02	-6.168015e-03
1.843456e+02	-6.239421e-03
1.854104e+02	-6.311654e-03
1.864813e+02	-6.384722e-03
1.875584e+02	-6.458636e-03
1.886418e+02	-6.533404e-03
1.897313e+02	-6.609038e-03
1.908272e+02	-6.685546e-03
1.919294e+02	-6.762939e-03
1.930380e+02	-6.841228e-03
1.941530e+02	-6.920422e-03
1.952744e+02	-7.000532e-03
1.964023e+02	-7.081569e-03
1.975367e+02	-7.163543e-03
1.986777e+02	-7.246465e-03
1.998252e+02	-7.330346e-03
2.009794e+02	-7.415197e-03
2.021403e+02	-7.501029e-03
2.033078e+02	-7.587855e-03
2.044821e+02	-7.675684e-03
2.056632e+02	-7.764529e-03
2.068511e+02	-7.854401e-03
2.080459e+02	-7.945313e-03
2.092475e+02	-8.037276e-03
2.104561e+02	-8.130303e-03
2.116717e+02	-8.224405e-03
2.128943e+02	-8.319595e-03
2.141240e+02	-8.415886e-03
2.153608e+02	-8.513291e-03
2.166047e+02	-8.611821e-03
2.178558e+02	-8.711491e-03
2.191141e+02	-8.812313e-03
2.203797e+02	-8.914301e-03
2.216526e+02	-9.017468e-03
2.229329e+02	-9.121827e-03
2.242205e+02	-9.227393e-03
2.255156e+02	-9.334180e-03
2.268182e+02	-9.442201e-03
2.281283e+02	-9.551471e-03
2.294459e+02	-9.662003e-03
2.307712e+02	-9.773814e-03
2.321041e+02	-9.886916e-03
2.334447e+02	-1.000133e-02
2.347931e+02	-1.011706e-02
2.361493e+02	-1.023413e-02
2.375133e+02	-1.035255e-02
2.388851e+02	-1.047234e-02
2.402649e+02	-1.059352e-02
2.416527e+02	-1.071610e-02
2.430484e+02	-1.084009e-02
2.444523e+02	-1.096552e-02
2.458642e+02	-1.109239e-02
2.472843e+02	-1.122073e-02
2.487126e+02	-1.135056e-02
2.501492e+02	-1.148188e-02
2.515940e+02	-1.161473e-02
2.530472e+02	-1.174910e-02
2.545088e+02	-1.188503e-02
2.559789e+02	-1.202253e-02
2.574574e+02	-1.216162e-02
2.589444e+02	-1.230232e-02
2.604401e+02	-1.244464e-02
2.619444e+02	-1.258860e-02
2.634574e+02	-1.273423e-02
2.649791e+02	-1.288154e-02
2.665096e+02	-1.303055e-02
2.680489e+02	-1.318128e-02
2.695972e+02	-1.333375e-02
2.711544e+02	-1.348799e-02
2.727205e+02	-1.364400e-02
2.742958e+02	-1.380182e-02
2.758801e+02	-1.396146e-02
2.774736e+02	-1.412294e-02
2.790762e+02	-1.428629e-02
2.806882e+02	-1.445153e-02
2.823094e+02	-1.461867e-02
2.839400e+02	-1.478774e-02
2.855800e+02	-1.495876e-02
2.872295e+02	-1.513176e-02
2.888886e+02	-1.530676e-02
2.905572e+02	-1.548377e-02
2.922354e+02	-1.566283e-02
2.939234e+02	-1.584396e-02
2.956211e+02	-1.602717e-02
2.973286e+02	-1.621251e-02
2.990459e+02	-1.639998e-02
3.007732e+02	-1.658961e-02
3.025104e+02	-1.678143e-02
3.042577e+02	-1.697547e-02
3.060151e+02	-1.717174e-02
3.077826e+02	-1.737028e-02
3.095604e+02	-1.757111e-02
3.113484e+02	-1.777426e-02
3.131467e+02	-1.797975e-02
3.149554e+02	-1.818761e-02
3.167746e+02	-1.839787e-02
3.186043e+02	-1.861056e-02
3.204445e+02	-1.882570e-02
3.222954e+02	-1.904332e-02
3.241570e+02	-1.926345e-02
3.260293e+02	-1.948612e-02
3.279124e+02	-1.971136e-02
3.298064e+02	-1.993919e-02
3.317114e+02	-2.016966e-02
3.336273e+02	-2.040278e-02
3.355544e+02	-2.063858e-02
3.374925e+02	-2.087711e-02
3.394418e+02	-2.111839e-02
3.414024e+02	-2.136245e-02
3.433744e+02	-2.160932e-02
3.453577e+02	-2.185903e-02
3.473525e+02	-2.211163e-02
3.493588e+02	-2.236714e-02
3.513766e+02	-2.262559e-02
3.534062e+02	-2.288702e-02
3.554474e+02	-2.315146e-02
3.575005e+02	-2.341895e-02
3.595654e+02	-2.368952e-02
3.616422e+02	-2.396321e-02
3.637311e+02	-2.424006e-02
3.658320e+02	-2.452009e-02
3.679450e+02	-2.480335e-02
3.700702e+02	-2.508987e-02
3.722077e+02	-2.537969e-02
3.743576e+02	-2.567284e-02
3.765199e+02	-2.596938e-02
3.786946e+02	-2.626933e-02
3.808820e+02	-2.657273e-02
3.830819e+02	-2.687963e-02
3.852946e+02	-2.719006e-02
3.875200e+02	-2.750406e-02
3.897583e+02	-2.782168e-02
3.920096e+02	-2.814295e-02
3.942738e+02	-2.846792e-02
3.965511e+02	-2.879663e-02
3.988416e+02	-2.912913e-02
4.011452e+02	-2.946545e-02
4.034622e+02	-2.980564e-02
4.057926e+02	-3.014974e-02
4.081365e+02	-3.049781e-02
4.104938e+02	-3.084987e-02
4.128648e+02	-3.120599e-02
4.152495e+02	-3.156620e-02
4.176480e+02	-3.193055e-02
4.200603e+02	-3.229910e-02
4.224866e+02	-3.267188e-02
4.249268e+02	-3.304895e-02
4.273812e+02	-3.343035e-02
4.298497e+02	-3.381614e-02
4.323325e+02	-3.420636e-02
4.348297e+02	-3.460107e-02
4.373412e+02	-3.500031e-02
4.398673e+02	-3.540414e-02
4.424079e+02	-3.581261e-02
4.449633e+02	-3.622577e-02
4.475334e+02	-3.664368e-02
4.501183e+02	-3.706639e-02
4.527182e+02	-3.749396e-02
4.553330e+02	-3.792643e-02
4.579630e+02	-3.836388e-02
4.606082e+02	-3.880634e-02
4.632687e+02	-3.925388e-02
4.659445e+02	-3.970657e-02
4.686358e+02	-4.016445e-02
4.713426e+02	-4.062758e-02
4.740650e+02	-4.109603e-02
4.768032e+02	-4.156985e-02
4.795572e+02	-4.204911e-02
4.823271e+02	-4.253387e-02
4.851130e+02	-4.302419e-02
4.879150e+02	-4.352014e-02
4.907332e+02	-4.402177e-02
4.935676e+02	-4.452915e-02
4.964185e+02	-4.504235e-02
4.992858e+02	-4.556144e-02
5.021696e+02	-4.608647e-02
5.050701e+02	-4.661752e-02
5.079874e+02	-4.715466e-02
5.109215e+02	-4.769796e-02
5.138726e+02	-4.824747e-02
5.168407e+02	-4.880329e-02
5.198259e+02	-4.936547e-02
5.228284e+02	-4.993408e-02
5.258482e+02	-5.050921e-02
5.288855e+02	-5.109093e-02
5.319403e+02	-5.167930e-02
5.350128e+02	-5.227441e-02
5.381030e+02	-5.287633e-02
5.412111e+02	-5.348514e-02
5.443371e+02	-5.410091e-02
5.474812e+02	-5.472373e-02
5.506434e+02	-5.535368e-02
5.538239e+02	-5.599082e-02
5.570228e+02	-5.663526e-02
5.602401e+02	-5.728706e-02
5.634760e+02	-5.794631e-02
5.667306e+02	-5.861310e-02
5.700040e+02	-5.928751e-02
5.732964e+02	-5.996962e-02
5.766077e+02	-6.065953e-02
5.799382e+02	-6.135731e-02
5.832879e+02	-6.206307e-02
5.866569e+02	-6.277689e-02
5.900454e+02	-6.349885e-02
5.934535e+02	-6.422906e-02
5.968813e+02	-6.496760e-02
6.003288e+02	-6.571457e-02
6.037963e+02	-6.647006e-02
6.072838e+02	-6.723417e-02
6.107914e+02	-6.800699e-02
6.143194e+02	-6.878863e-02
6.178676e+02	-6.957918e-02
6.214364e+02	-7.037874e-02
6.250258e+02	-7.118741e-02
6.286359e+02	-7.200530e-02
6.322669e+02	-7.283250e-02
6.359189e+02	-7.366913e-02
6.395919e+02	-7.451528e-02
6.432862e+02	-7.537107e-02
6.470017e+02	-7.623660e-02
6.507388e+02	-7.711198e-02
6.544974e+02	-7.799732e-02
6.582778e+02	-7.889274e-02
6.620800e+02	-7.979834e-02
6.659041e+02	-8.071423e-02
6.697504e+02	-8.164055e-02
6.736188e+02	-8.257739e-02
6.775096e+02	-8.352487e-02
6.814229e+02	-8.448313e-02
6.853587e+02	-8.545226e-02
6.893173e+02	-8.643241e-02
6.932988e+02	-8.742368e-02
6.973033e+02	-8.842621e-02
7.013309e+02	-8.944011e-02
