Frequency(Hz)	Magnitude(dB)
1.000000e+01	-1.691170e-05
1.005776e+01	-1.710762e-05
1.011585e+01	-1.730582e-05
1.017428e+01	-1.750631e-05
1.023305e+01	-1.770913e-05
1.029215e+01	-1.791429e-05
1.035160e+01	-1.812183e-05
1.041139e+01	-1.833178e-05
1.047153e+01	-1.854416e-05
1.053201e+01	-1.875900e-05
1.059284e+01	-1.897632e-05
1.065403e+01	-1.919617e-05
1.071556e+01	-1.941856e-05
1.077746e+01	-1.964353e-05
1.083971e+01	-1.987111e-05
1.090232e+01	-2.010132e-05
1.096529e+01	-2.033420e-05
1.102862e+01	-2.056977e-05
1.109232e+01	-2.080808e-05
1.115639e+01	-2.104915e-05
1.122083e+01	-2.129301e-05
1.128564e+01	-2.153969e-05
1.135083e+01	-2.178923e-05
1.141639e+01	-2.204167e-05
1.148233e+01	-2.229703e-05
1.154865e+01	-2.255534e-05
1.161536e+01	-2.281665e-05
1.168245e+01	-2.308099e-05
1.174992e+01	-2.334839e-05
1.181779e+01	-2.361888e-05
1.188605e+01	-2.389251e-05
1.195470e+01	-2.416932e-05
1.202375e+01	-2.444932e-05
1.209320e+01	-2.473257e-05
1.216305e+01	-2.501911e-05
1.223330e+01	-2.530896e-05
1.230396e+01	-2.560217e-05
1.237503e+01	-2.589878e-05
1.244651e+01	-2.619882e-05
1.251840e+01	-2.650234e-05
1.259070e+01	-2.680938e-05
1.266343e+01	-2.711997e-05
1.273657e+01	-2.743416e-05
1.281014e+01	-2.775199e-05
1.288413e+01	-2.807351e-05
1.295855e+01	-2.839874e-05
1.303339e+01	-2.872775e-05
1.310867e+01	-2.906057e-05
1.318439e+01	-2.939724e-05
1.326054e+01	-2.973782e-05
1.333713e+01	-3.008234e-05
1.341417e+01	-3.043085e-05
1.349165e+01	-3.078340e-05
1.356958e+01	-3.114003e-05
1.364795e+01	-3.150079e-05
1.372678e+01	-3.186574e-05
1.380607e+01	-3.223491e-05
1.388581e+01	-3.260836e-05
1.396602e+01	-3.298613e-05
1.404668e+01	-3.336829e-05
1.412782e+01	-3.375487e-05
1.420942e+01	-3.414592e-05
1.429149e+01	-3.454151e-05
1.437404e+01	-3.494168e-05
1.445706e+01	-3.534649e-05
1.454057e+01	-3.575599e-05
1.462455e+01	-3.617023e-05
1.470902e+01	-3.658927e-05
1.479398e+01	-3.701317e-05
1.487943e+01	-3.744197e-05
1.496537e+01	-3.787575e-05
1.505181e+01	-3.831455e-05
1.513875e+01	-3.875843e-05
1.522619e+01	-3.920745e-05
1.531414e+01	-3.966168e-05
1.540259e+01	-4.012117e-05
1.549156e+01	-4.058598e-05
1.558103e+01	-4.105618e-05
1.567103e+01	-4.153183e-05
1.576155e+01	-4.201298e-05
1.585258e+01	-4.249971e-05
1.594415e+01	-4.299208e-05
1.603624e+01	-4.349015e-05
1.612886e+01	-4.399400e-05
1.622202e+01	-4.450368e-05
1.631572e+01	-4.501926e-05
1.640996e+01	-4.554082e-05
1.650474e+01	-4.606842e-05
1.660008e+01	-4.660213e-05
1.669596e+01	-4.714203e-05
1.679239e+01	-4.768818e-05
1.688938e+01	-4.824066e-05
1.698694e+01	-4.879953e-05
1.708505e+01	-4.936489e-05
1.718373e+01	-4.993679e-05
1.728299e+01	-5.051532e-05
1.738281e+01	-5.110055e-05
1.748322e+01	-5.169256e-05
1.758420e+01	-5.229143e-05
1.768576e+01	-5.289724e-05
1.778792e+01	-5.351006e-05
1.789066e+01	-5.412999e-05
1.799399e+01	-5.475709e-05
1.809793e+01	-5.539147e-05
1.820246e+01	-5.603319e-05
1.830760e+01	-5.668234e-05
1.841334e+01	-5.733902e-05
1.851969e+01	-5.800330e-05
1.862666e+01	-5.867528e-05
1.873425e+01	-5.935505e-05
1.884246e+01	-6.004269e-05
1.895129e+01	-6.073830e-05
1.906075e+01	-6.144196e-05
1.917085e+01	-6.215378e-05
1.928158e+01	-6.287384e-05
1.939295e+01	-6.360225e-05
1.950496e+01	-6.433909e-05
1.961762e+01	-6.508447e-05
1.973093e+01	-6.583849e-05
1.984490e+01	-6.660124e-05
1.995952e+01	-6.737283e-05
2.007480e+01	-6.815336e-05
2.019076e+01	-6.894292e-05
2.030738e+01	-6.974164e-05
2.042467e+01	-7.054961e-05
2.054264e+01	-7.136694e-05
2.066130e+01	-7.219374e-05
2.078064e+01	-7.303012e-05
2.090066e+01	-7.387619e-05
2.102139e+01	-7.473205e-05
2.114280e+01	-7.559784e-05
2.126492e+01	-7.647365e-05
2.138775e+01	-7.735961e-05
2.151128e+01	-7.825584e-05
2.163553e+01	-7.916245e-05
2.176050e+01	-8.007956e-05
2.188619e+01	-8.100729e-05
2.201260e+01	-8.194578e-05
2.213974e+01	-8.289513e-05
2.226762e+01	-8.385548e-05
2.239624e+01	-8.482696e-05
2.252560e+01	-8.580970e-05
2.265571e+01	-8.680382e-05
2.278656e+01	-8.780945e-05
2.291818e+01	-8.882674e-05
2.305055e+01	-8.985581e-05
2.318369e+01	-9.089681e-05
2.331760e+01	-9.194986e-05
2.345228e+01	-9.301511e-05
2.358774e+01	-9.409271e-05
2.372398e+01	-9.518279e-05
2.386101e+01	-9.628549e-05
2.399883e+01	-9.740098e-05
2.413745e+01	-9.852938e-05
2.427686e+01	-9.967086e-05
2.441709e+01	-1.008256e-04
2.455812e+01	-1.019936e-04
2.469997e+01	-1.031752e-04
2.484263e+01	-1.043705e-04
2.498612e+01	-1.055797e-04
2.513044e+01	-1.068029e-04
2.527559e+01	-1.080402e-04
2.542158e+01	-1.092918e-04
2.556842e+01	-1.105580e-04
2.571610e+01	-1.118388e-04
2.586463e+01	-1.131345e-04
2.601403e+01	-1.144452e-04
2.616428e+01	-1.157710e-04
2.631541e+01	-1.171123e-04
2.646740e+01	-1.184690e-04
2.662028e+01	-1.198415e-04
2.677404e+01	-1.212299e-04
2.692868e+01	-1.226343e-04
2.708422e+01	-1.240551e-04
2.724066e+01	-1.254923e-04
2.739800e+01	-1.269461e-04
2.755625e+01	-1.284168e-04
2.771541e+01	-1.299045e-04
2.787550e+01	-1.314095e-04
2.803650e+01	-1.329319e-04
2.819844e+01	-1.344719e-04
2.836131e+01	-1.360298e-04
2.852513e+01	-1.376057e-04
2.868989e+01	-1.391998e-04
2.885560e+01	-1.408125e-04
2.902227e+01	-1.424438e-04
2.918990e+01	-1.440940e-04
2.935850e+01	-1.457634e-04
2.952807e+01	-1.474521e-04
2.969863e+01	-1.491603e-04
2.987016e+01	-1.508883e-04
3.004269e+01	-1.526364e-04
3.021622e+01	-1.544047e-04
3.039075e+01	-1.561935e-04
3.056628e+01	-1.580030e-04
3.074283e+01	-1.598335e-04
3.092040e+01	-1.616851e-04
3.109900e+01	-1.635583e-04
3.127862e+01	-1.654531e-04
3.145929e+01	-1.673699e-04
3.164099e+01	-1.693089e-04
3.182375e+01	-1.712703e-04
3.200756e+01	-1.732545e-04
3.219244e+01	-1.752617e-04
3.237838e+01	-1.772921e-04
3.256540e+01	-1.793460e-04
3.275349e+01	-1.814238e-04
3.294268e+01	-1.835256e-04
3.313295e+01	-1.856517e-04
3.332433e+01	-1.878025e-04
3.351681e+01	-1.899782e-04
3.371040e+01	-1.921791e-04
3.390511e+01	-1.944055e-04
3.410094e+01	-1.966577e-04
3.429791e+01	-1.989360e-04
3.449601e+01	-2.012406e-04
3.469526e+01	-2.035720e-04
3.489566e+01	-2.059304e-04
3.509721e+01	-2.083161e-04
3.529993e+01	-2.107294e-04
3.550382e+01	-2.131707e-04
3.570889e+01	-2.156403e-04
3.591515e+01	-2.181385e-04
3.612259e+01	-2.206656e-04
3.633123e+01	-2.232220e-04
3.654108e+01	-2.258081e-04
3.675214e+01	-2.284240e-04
3.696442e+01	-2.310703e-04
3.717792e+01	-2.337473e-04
3.739266e+01	-2.364552e-04
3.760864e+01	-2.391945e-04
3.782587e+01	-2.419656e-04
3.804435e+01	-2.447688e-04
3.826409e+01	-2.476044e-04
3.848510e+01	-2.504729e-04
3.870739e+01	-2.533746e-04
3.893096e+01	-2.563099e-04
3.915583e+01	-2.592793e-04
3.938199e+01	-2.622830e-04
3.960946e+01	-2.653215e-04
3.983824e+01	-2.683952e-04
4.006834e+01	-2.715046e-04
4.029978e+01	-2.746499e-04
4.053255e+01	-2.778317e-04
4.076666e+01	-2.810504e-04
4.100213e+01	-2.843063e-04
4.123896e+01	-2.876000e-04
4.147715e+01	-2.909318e-04
4.171672e+01	-2.943022e-04
4.195767e+01	-2.977117e-04
4.220002e+01	-3.011606e-04
4.244377e+01	-3.046495e-04
4.268892e+01	-3.081789e-04
4.293549e+01	-3.117491e-04
4.318348e+01	-3.153606e-04
4.343291e+01	-3.190140e-04
4.368377e+01	-3.227098e-04
4.393609e+01	-3.264483e-04
4.418986e+01	-3.302302e-04
4.444510e+01	-3.340558e-04
4.470182e+01	-3.379258e-04
4.496001e+01	-3.418406e-04
4.521970e+01	-3.458008e-04
4.548089e+01	-3.498068e-04
4.574358e+01	-3.538592e-04
4.600779e+01	-3.579586e-04
4.627353e+01	-3.621055e-04
4.654081e+01	-3.663004e-04
4.680963e+01	-3.705439e-04
4.708000e+01	-3.748366e-04
4.735193e+01	-3.791790e-04
4.762543e+01	-3.835717e-04
4.790051e+01	-3.880153e-04
4.817719e+01	-3.925104e-04
4.845545e+01	-3.970575e-04
4.873533e+01	-4.016573e-04
4.901682e+01	-4.063104e-04
4.929994e+01	-4.110174e-04
4.958470e+01	-4.157789e-04
4.987110e+01	-4.205956e-04
5.015915e+01	-4.254681e-04
5.044887e+01	-4.303970e-04
5.074026e+01	-4.353830e-04
5.103333e+01	-4.404268e-04
5.132810e+01	-4.455290e-04
5.162457e+01	-4.506903e-04
5.192275e+01	-4.559114e-04
5.222265e+01	-4.611930e-04
5.252429e+01	-4.665357e-04
5.282767e+01	-4.719404e-04
5.313280e+01	-4.774076e-04
5.343969e+01	-4.829382e-04
5.374836e+01	-4.885329e-04
5.405880e+01	-4.941924e-04
5.437105e+01	-4.999174e-04
5.468509e+01	-5.057087e-04
5.500095e+01	-5.115672e-04
5.531863e+01	-5.174935e-04
5.563815e+01	-5.234884e-04
5.595951e+01	-5.295528e-04
5.628273e+01	-5.356874e-04
5.660782e+01	-5.418931e-04
5.693479e+01	-5.481707e-04
5.726364e+01	-5.545210e-04
5.759439e+01	-5.609449e-04
5.792705e+01	-5.674432e-04
5.826164e+01	-5.740167e-04
5.859815e+01	-5.806664e-04
5.893662e+01	-5.873931e-04
5.927703e+01	-5.941978e-04
5.961941e+01	-6.010812e-04
5.996377e+01	-6.080444e-04
6.031012e+01	-6.150883e-04
6.065847e+01	-6.222138e-04
6.100883e+01	-6.294218e-04
6.136121e+01	-6.367133e-04
6.171563e+01	-6.440892e-04
6.207210e+01	-6.515506e-04
6.243063e+01	-6.590984e-04
6.279122e+01	-6.667337e-04
6.315390e+01	-6.744574e-04
6.351868e+01	-6.822705e-04
6.388556e+01	-6.901742e-04
6.425456e+01	-6.981694e-04
6.462569e+01	-7.062572e-04
6.499897e+01	-7.144387e-04
6.537440e+01	-7.227150e-04
6.575200e+01	-7.310872e-04
6.613178e+01	-7.395563e-04
6.651375e+01	-7.481235e-04
6.689793e+01	-7.567900e-04
6.728433e+01	-7.655568e-04
6.767297e+01	-7.744252e-04
6.806384e+01	-7.833963e-04
6.845698e+01	-7.924714e-04
6.885238e+01	-8.016515e-04
6.925007e+01	-8.109380e-04
6.965005e+01	-8.203321e-04
7.005235e+01	-8.298349e-04
7.045697e+01	-8.394479e-04
7.086393e+01	-8.491721e-04
7.127323e+01	-8.590091e-04
7.168490e+01	-8.689599e-04
7.209895e+01	-8.790260e-04
7.251539e+01	-8.892088e-04
7.293424e+01	-8.995094e-04
7.335551e+01	-9.099294e-04
7.377920e+01	-9.204700e-04
7.420535e+01	-9.311328e-04
7.463396e+01	-9.419191e-04
7.506504e+01	-9.528302e-04
7.549861e+01	-9.638678e-04
7.593469e+01	-9.750332e-04
7.637328e+01	-9.863280e-04
7.681441e+01	-9.977536e-04
7.725809e+01	-1.009311e-03
7.770433e+01	-1.021003e-03
7.815315e+01	-1.032830e-03
7.860456e+01	-1.044795e-03
7.905857e+01	-1.056897e-03
7.951521e+01	-1.069140e-03
7.997449e+01	-1.081525e-03
8.043642e+01	-1.094053e-03
8.090102e+01	-1.106727e-03
8.136830e+01	-1.119547e-03
8.183828e+01	-1.132515e-03
8.231097e+01	-1.145634e-03
8.278640e+01	-1.158905e-03
8.326457e+01	-1.172329e-03
8.374550e+01	-1.185909e-03
8.422921e+01	-1.199646e-03
8.471572e+01	-1.213542e-03
8.520503e+01	-1.227600e-03
8.569717e+01	-1.241820e-03
8.619215e+01	-1.256204e-03
8.669000e+01	-1.270756e-03
8.719071e+01	-1.285476e-03
8.769432e+01	-1.300366e-03
8.820084e+01	-1.315429e-03
8.871029e+01	-1.330666e-03
8.922267e+01	-1.346080e-03
8.973802e+01	-1.361672e-03
9.025634e+01	-1.377445e-03
9.077766e+01	-1.393400e-03
9.130199e+01	-1.409541e-03
9.182935e+01	-1.425868e-03
9.235975e+01	-1.442384e-03
9.289321e+01	-1.459092e-03
9.342976e+01	-1.475993e-03
9.396941e+01	-1.493090e-03
9.451217e+01	-1.510385e-03
9.505807e+01	-1.527880e-03
9.560712e+01	-1.545577e-03
9.615934e+01	-1.563480e-03
9.671476e+01	-1.581590e-03
9.727338e+01	-1.599910e-03
9.783522e+01	-1.618442e-03
9.840032e+01	-1.637188e-03
9.896867e+01	-1.656152e-03
9.954031e+01	-1.675335e-03
1.001153e+02	-1.694741e-03
1.006935e+02	-1.714371e-03
1.012751e+02	-1.734228e-03
1.018601e+02	-1.754316e-03
1.024484e+02	-1.774636e-03
1.030402e+02	-1.795191e-03
1.036353e+02	-1.815985e-03
1.042339e+02	-1.837019e-03
1.048360e+02	-1.858297e-03
1.054415e+02	-1.879821e-03
1.060505e+02	-1.901594e-03
1.066631e+02	-1.923620e-03
1.072791e+02	-1.945901e-03
1.078988e+02	-1.968439e-03
1.085220e+02	-1.991239e-03
1.091488e+02	-2.014303e-03
1.097793e+02	-2.037633e-03
1.104133e+02	-2.061234e-03
1.110511e+02	-2.085109e-03
1.116925e+02	-2.109259e-03
1.123376e+02	-2.133690e-03
1.129865e+02	-2.158403e-03
1.136391e+02	-2.183402e-03
1.142955e+02	-2.208691e-03
1.149556e+02	-2.234273e-03
1.156196e+02	-2.260151e-03
1.162874e+02	-2.286328e-03
1.169591e+02	-2.312809e-03
1.176347e+02	-2.339596e-03
1.183141e+02	-2.366694e-03
1.189975e+02	-2.394105e-03
1.196848e+02	-2.421833e-03
1.203761e+02	-2.449883e-03
1.210714e+02	-2.478257e-03
1.217707e+02	-2.506960e-03
1.224740e+02	-2.535996e-03
1.231814e+02	-2.565367e-03
1.238929e+02	-2.595079e-03
1.246085e+02	-2.625134e-03
1.253283e+02	-2.655538e-03
1.260522e+02	-2.686294e-03
1.267802e+02	-2.717405e-03
1.275125e+02	-2.748877e-03
1.282490e+02	-2.780713e-03
1.289898e+02	-2.812918e-03
1.297348e+02	-2.845496e-03
1.304842e+02	-2.878451e-03
1.312378e+02	-2.911787e-03
1.319959e+02	-2.945510e-03
1.327583e+02	-2.979622e-03
1.335251e+02	-3.014130e-03
1.342963e+02	-3.049037e-03
1.350720e+02	-3.084349e-03
1.358522e+02	-3.120069e-03
1.366368e+02	-3.156202e-03
1.374260e+02	-3.192754e-03
1.382198e+02	-3.229730e-03
1.390182e+02	-3.267133e-03
1.398211e+02	-3.304969e-03
1.406287e+02	-3.343243e-03
1.414410e+02	-3.381960e-03
1.422579e+02	-3.421126e-03
1.430796e+02	-3.460745e-03
1.439060e+02	-3.500822e-03
1.447372e+02	-3.541363e-03
1.455732e+02	-3.582374e-03
1.464141e+02	-3.623859e-03
1.472597e+02	-3.665825e-03
1.481103e+02	-3.708276e-03
1.489658e+02	-3.751219e-03
1.498262e+02	-3.794659e-03
1.506916e+02	-3.838602e-03
1.515620e+02	-3.883053e-03
1.524374e+02	-3.928019e-03
1.533179e+02	-3.973505e-03
1.542034e+02	-4.019518e-03
1.550941e+02	-4.066063e-03
1.559899e+02	-4.113147e-03
1.568909e+02	-4.160776e-03
1.577971e+02	-4.208956e-03
1.587085e+02	-4.257694e-03
1.596252e+02	-4.306996e-03
1.605472e+02	-4.356869e-03
1.614745e+02	-4.407319e-03
1.624072e+02	-4.458352e-03
1.633453e+02	-4.509977e-03
1.642887e+02	-4.562198e-03
1.652377e+02	-4.615025e-03
1.661921e+02	-4.668462e-03
1.671520e+02	-4.722518e-03
1.681175e+02	-4.777199e-03
1.690885e+02	-4.832514e-03
1.700651e+02	-4.888468e-03
1.710474e+02	-4.945070e-03
1.720354e+02	-5.002327e-03
1.730291e+02	-5.060246e-03
1.740285e+02	-5.118836e-03
1.750337e+02	-5.178103e-03
1.760446e+02	-5.238057e-03
1.770615e+02	-5.298704e-03
1.780842e+02	-5.360053e-03
1.791128e+02	-5.422111e-03
1.801473e+02	-5.484888e-03
1.811878e+02	-5.548391e-03
1.822344e+02	-5.612629e-03
1.832870e+02	-5.677610e-03
1.843456e+02	-5.743343e-03
1.854104e+02	-5.809837e-03
1.864813e+02	-5.877100e-03
1.875584e+02	-5.945141e-03
1.886418e+02	-6.013969e-03
1.897313e+02	-6.083593e-03
1.908272e+02	-6.154023e-03
1.919294e+02	-6.225268e-03
1.930380e+02	-6.297337e-03
1.941530e+02	-6.370240e-03
1.952744e+02	-6.443985e-03
1.964023e+02	-6.518585e-03
1.975367e+02	-6.594047e-03
1.986777e+02	-6.670381e-03
1.998252e+02	-6.747599e-03
2.009794e+02	-6.825710e-03
2.021403e+02	-6.904725e-03
2.033078e+02	-6.984653e-03
2.044821e+02	-7.065506e-03
2.056632e+02	-7.147295e-03
2.068511e+02	-7.230029e-03
2.080459e+02	-7.313720e-03
2.092475e+02	-7.398379e-03
2.104561e+02	-7.484017e-03
2.116717e+02	-7.570645e-03
2.128943e+02	-7.658276e-03
2.141240e+02	-7.746919e-03
2.153608e+02	-7.836588e-03
2.166047e+02	-7.927294e-03
2.178558e+02	-8.019049e-03
2.191141e+02	-8.111864e-03
2.203797e+02	-8.205753e-03
2.216526e+02	-8.300728e-03
2.229329e+02	-8.396801e-03
2.242205e+02	-8.493984e-03
2.255156e+02	-8.592292e-03
2.268182e+02	-8.691736e-03
2.281283e+02	-8.792329e-03
2.294459e+02	-8.894086e-03
2.307712e+02	-8.997019e-03
2.321041e+02	-9.101143e-03
2.334447e+02	-9.206470e-03
2.347931e+02	-9.313014e-03
2.361493e+02	-9.420790e-03
2.375133e+02	-9.529813e-03
2.388851e+02	-9.640095e-03
2.402649e+02	-9.751652e-03
2.416527e+02	-9.864499e-03
2.430484e+02	-9.978650e-03
2.444523e+02	-1.009412e-02
2.458642e+02	-1.021093e-02
2.472843e+02	-1.032908e-02
2.487126e+02	-1.044860e-02
2.501492e+02	-1.056950e-02
2.515940e+02	-1.069180e-02
2.530472e+02	-1.081551e-02
2.545088e+02	-1.094066e-02
2.559789e+02	-1.106725e-02
2.574574e+02	-1.119530e-02
2.589444e+02	-1.132483e-02
2.604401e+02	-1.145585e-02
2.619444e+02	-1.158840e-02
2.634574e+02	-1.172247e-02
2.649791e+02	-1.185809e-02
2.665096e+02	-1.199528e-02
2.680489e+02	-1.213405e-02
2.695972e+02	-1.227443e-02
2.711544e+02	-1.241643e-02
2.727205e+02	-1.256007e-02
2.742958e+02	-1.270536e-02
2.758801e+02	-1.285234e-02
2.774736e+02	-1.300101e-02
2.790762e+02	-1.315141e-02
2.806882e+02	-1.330353e-02
2.823094e+02	-1.345742e-02
2.839400e+02	-1.361308e-02
2.855800e+02	-1.377054e-02
2.872295e+02	-1.392982e-02
2.888886e+02	-1.409094e-02
2.905572e+02	-1.425392e-02
2.922354e+02	-1.441878e-02
2.939234e+02	-1.458554e-02
2.956211e+02	-1.475423e-02
2.973286e+02	-1.492487e-02
2.990459e+02	-1.509747e-02
3.007732e+02	-1.527207e-02
3.025104e+02	-1.544869e-02
3.042577e+02	-1.562734e-02
3.060151e+02	-1.580806e-02
3.077826e+02	-1.599086e-02
3.095604e+02	-1.617577e-02
3.113484e+02	-1.636282e-02
3.131467e+02	-1.655202e-02
3.149554e+02	-1.674341e-02
3.167746e+02	-1.693701e-02
3.186043e+02	-1.713284e-02
3.204445e+02	-1.733093e-02
3.222954e+02	-1.753131e-02
3.241570e+02	-1.773400e-02
3.260293e+02	-1.793902e-02
3.279124e+02	-1.814642e-02
3.298064e+02	-1.835620e-02
3.317114e+02	-1.856841e-02
3.336273e+02	-1.878306e-02
3.355544e+02	-1.900019e-02
3.374925e+02	-1.921982e-02
3.394418e+02	-1.944199e-02
3.414024e+02	-1.966672e-02
3.433744e+02	-1.989404e-02
3.453577e+02	-2.012398e-02
3.473525e+02	-2.035657e-02
3.493588e+02	-2.059185e-02
3.513766e+02	-2.082983e-02
3.534062e+02	-2.107057e-02
3.554474e+02	-2.131407e-02
3.575005e+02	-2.156039e-02
3.595654e+02	-2.180954e-02
3.616422e+02	-2.206157e-02
3.637311e+02	-2.231650e-02
3.658320e+02	-2.257436e-02
3.679450e+02	-2.283520e-02
3.700702e+02	-2.309905e-02
3.722077e+02	-2.336594e-02
3.743576e+02	-2.363590e-02
3.765199e+02	-2.390897e-02
3.786946e+02	-2.418519e-02
3.808820e+02	-2.446459e-02
3.830819e+02	-2.474721e-02
3.852946e+02	-2.503308e-02
3.875200e+02	-2.532225e-02
3.897583e+02	-2.561474e-02
3.920096e+02	-2.591061e-02
3.942738e+02	-2.620988e-02
3.965511e+02	-2.651260e-02
3.988416e+02	-2.681880e-02
4.011452e+02	-2.712853e-02
4.034622e+02	-2.744183e-02
4.057926e+02	-2.775873e-02
4.081365e+02	-2.807928e-02
4.104938e+02	-2.840352e-02
4.128648e+02	-2.873149e-02
4.152495e+02	-2.906323e-02
4.176480e+02	-2.939879e-02
4.200603e+02	-2.973822e-02
4.224866e+02	-3.008154e-02
4.249268e+02	-3.042882e-02
4.273812e+02	-3.078010e-02
4.298497e+02	-3.113541e-02
4.323325e+02	-3.149481e-02
4.348297e+02	-3.185834e-02
4.373412e+02	-3.222606e-02
4.398673e+02	-3.259800e-02
4.424079e+02	-3.297422e-02
4.449633e+02	-3.335476e-02
4.475334e+02	-3.373968e-02
4.501183e+02	-3.412902e-02
4.527182e+02	-3.452284e-02
4.553330e+02	-3.492118e-02
4.579630e+02	-3.532410e-02
4.606082e+02	-3.573166e-02
4.632687e+02	-3.614389e-02
4.659445e+02	-3.656086e-02
4.686358e+02	-3.698262e-02
4.713426e+02	-3.740922e-02
4.740650e+02	-3.784072e-02
4.768032e+02	-3.827718e-02
4.795572e+02	-3.871865e-02
4.823271e+02	-3.916519e-02
4.851130e+02	-3.961685e-02
4.879150e+02	-4.007370e-02
4.907332e+02	-4.053579e-02
4.935676e+02	-4.100319e-02
4.964185e+02	-4.147595e-02
4.992858e+02	-4.195413e-02
5.021696e+02	-4.243780e-02
5.050701e+02	-4.292702e-02
5.079874e+02	-4.342185e-02
5.109215e+02	-4.392235e-02
5.138726e+02	-4.442860e-02
5.168407e+02	-4.494065e-02
5.198259e+02	-4.545856e-02
5.228284e+02	-4.598242e-02
5.258482e+02	-4.651228e-02
5.288855e+02	-4.704821e-02
5.319403e+02	-4.759029e-02
5.350128e+02	-4.813857e-02
5.381030e+02	-4.869314e-02
5.412111e+02	-4.925406e-02
5.443371e+02	-4.982140e-02
5.474812e+02	-5.039524e-02
5.506434e+02	-5.097565e-02
5.538239e+02	-5.156270e-02
5.570228e+02	-5.215648e-02
5.602401e+02	-5.275705e-02
5.634760e+02	-5.336449e-02
5.667306e+02	-5.397888e-02
5.700040e+02	-5.460031e-02
5.732964e+02	-5.522884e-02
5.766077e+02	-5.586456e-02
5.799382e+02	-5.650755e-02
5.832879e+02	-5.715789e-02
5.866569e+02	-5.781567e-02
5.900454e+02	-5.848096e-02
5.934535e+02	-5.915386e-02
5.968813e+02	-5.983445e-02
6.003288e+02	-6.052281e-02
6.037963e+02	-6.121904e-02
6.072838e+02	-6.192321e-02
6.107914e+02	-6.263543e-02
6.143194e+02	-6.335578e-02
6.178676e+02	-6.408436e-02
6.214364e+02	-6.482125e-02
6.250258e+02	-6.556655e-02
6.286359e+02	-6.632035e-02
6.322669e+02	-6.708275e-02
6.359189e+02	-6.785385e-02
6.395919e+02	-6.863374e-02
6.432862e+02	-6.942252e-02
6.470017e+02	-7.022030e-02
6.507388e+02	-7.102716e-02
6.544974e+02	-7.184322e-02
6.582778e+02	-7.266858e-02
6.620800e+02	-7.350334e-02
6.659041e+02	-7.434761e-02
6.697504e+02	-7.520149e-02
6.736188e+02	-7.606509e-02
6.775096e+02	-7.693852e-02
6.814229e+02	-7.782189e-02
6.853587e+02	-7.871531e-02
6.893173e+02	-7.961889e-02
6.932988e+02	-8.053275e-02
6.973033e+02	-8.145699e-02
7.013309e+02	-8.239175e-02
