Frequency(Hz)	Magnitude(dB)
1.000000e+01	-1.480246e-05
1.005776e+01	-1.497395e-05
1.011585e+01	-1.514743e-05
1.017428e+01	-1.532292e-05
1.023305e+01	-1.550044e-05
1.029215e+01	-1.568001e-05
1.035160e+01	-1.586167e-05
1.041139e+01	-1.604543e-05
1.047153e+01	-1.623132e-05
1.053201e+01	-1.641937e-05
1.059284e+01	-1.660959e-05
1.065403e+01	-1.680202e-05
1.071556e+01	-1.699667e-05
1.077746e+01	-1.719358e-05
1.083971e+01	-1.739278e-05
1.090232e+01	-1.759428e-05
1.096529e+01	-1.779811e-05
1.102862e+01	-1.800431e-05
1.109232e+01	-1.821289e-05
1.115639e+01	-1.842389e-05
1.122083e+01	-1.863734e-05
1.128564e+01	-1.885325e-05
1.135083e+01	-1.907167e-05
1.141639e+01	-1.929262e-05
1.148233e+01	-1.951613e-05
1.154865e+01	-1.974223e-05
1.161536e+01	-1.997095e-05
1.168245e+01	-2.020232e-05
1.174992e+01	-2.043637e-05
1.181779e+01	-2.067313e-05
1.188605e+01	-2.091263e-05
1.195470e+01	-2.115491e-05
1.202375e+01	-2.140000e-05
1.209320e+01	-2.164792e-05
1.216305e+01	-2.189872e-05
1.223330e+01	-2.215242e-05
1.230396e+01	-2.240906e-05
1.237503e+01	-2.266868e-05
1.244651e+01	-2.293130e-05
1.251840e+01	-2.319696e-05
1.259070e+01	-2.346571e-05
1.266343e+01	-2.373756e-05
1.273657e+01	-2.401257e-05
1.281014e+01	-2.429076e-05
1.288413e+01	-2.457217e-05
1.295855e+01	-2.485685e-05
1.303339e+01	-2.514482e-05
1.310867e+01	-2.543613e-05
1.318439e+01	-2.573081e-05
1.326054e+01	-2.602891e-05
1.333713e+01	-2.633046e-05
1.341417e+01	-2.663551e-05
1.349165e+01	-2.694409e-05
1.356958e+01	-2.725624e-05
1.364795e+01	-2.757201e-05
1.372678e+01	-2.789144e-05
1.380607e+01	-2.821457e-05
1.388581e+01	-2.854144e-05
1.396602e+01	-2.887210e-05
1.404668e+01	-2.920659e-05
1.412782e+01	-2.954496e-05
1.420942e+01	-2.988724e-05
1.429149e+01	-3.023349e-05
1.437404e+01	-3.058375e-05
1.445706e+01	-3.093807e-05
1.454057e+01	-3.129650e-05
1.462455e+01	-3.165908e-05
1.470902e+01	-3.202585e-05
1.479398e+01	-3.239688e-05
1.487943e+01	-3.277221e-05
1.496537e+01	-3.315188e-05
1.505181e+01	-3.353595e-05
1.513875e+01	-3.392448e-05
1.522619e+01	-3.431750e-05
1.531414e+01	-3.471507e-05
1.540259e+01	-3.511726e-05
1.549156e+01	-3.552410e-05
1.558103e+01	-3.593565e-05
1.567103e+01	-3.635198e-05
1.576155e+01	-3.677312e-05
1.585258e+01	-3.719915e-05
1.594415e+01	-3.763011e-05
1.603624e+01	-3.806606e-05
1.612886e+01	-3.850707e-05
1.622202e+01	-3.895318e-05
1.631572e+01	-3.940446e-05
1.640996e+01	-3.986097e-05
1.650474e+01	-4.032277e-05
1.660008e+01	-4.078992e-05
1.669596e+01	-4.126248e-05
1.679239e+01	-4.174051e-05
1.688938e+01	-4.222408e-05
1.698694e+01	-4.271326e-05
1.708505e+01	-4.320810e-05
1.718373e+01	-4.370868e-05
1.728299e+01	-4.421505e-05
1.738281e+01	-4.472729e-05
1.748322e+01	-4.524547e-05
1.758420e+01	-4.576965e-05
1.768576e+01	-4.629990e-05
1.778792e+01	-4.683629e-05
1.789066e+01	-4.737890e-05
1.799399e+01	-4.792780e-05
1.809793e+01	-4.848305e-05
1.820246e+01	-4.904474e-05
1.830760e+01	-4.961293e-05
1.841334e+01	-5.018771e-05
1.851969e+01	-5.076914e-05
1.862666e+01	-5.135731e-05
1.873425e+01	-5.195230e-05
1.884246e+01	-5.255418e-05
1.895129e+01	-5.316303e-05
1.906075e+01	-5.377893e-05
1.917085e+01	-5.440197e-05
1.928158e+01	-5.503223e-05
1.939295e+01	-5.566979e-05
1.950496e+01	-5.631474e-05
1.961762e+01	-5.696716e-05
1.973093e+01	-5.762713e-05
1.984490e+01	-5.829475e-05
1.995952e+01	-5.897011e-05
2.007480e+01	-5.965329e-05
2.019076e+01	-6.034439e-05
2.030738e+01	-6.104349e-05
2.042467e+01	-6.175069e-05
2.054264e+01	-6.246608e-05
2.066130e+01	-6.318976e-05
2.078064e+01	-6.392183e-05
2.090066e+01	-6.466238e-05
2.102139e+01	-6.541150e-05
2.114280e+01	-6.616931e-05
2.126492e+01	-6.693589e-05
2.138775e+01	-6.771136e-05
2.151128e+01	-6.849581e-05
2.163553e+01	-6.928934e-05
2.176050e+01	-7.009207e-05
2.188619e+01	-7.090410e-05
2.201260e+01	-7.172554e-05
2.213974e+01	-7.255649e-05
2.226762e+01	-7.339707e-05
2.239624e+01	-7.424739e-05
2.252560e+01	-7.510756e-05
2.265571e+01	-7.597769e-05
2.278656e+01	-7.685791e-05
2.291818e+01	-7.774832e-05
2.305055e+01	-7.864905e-05
2.318369e+01	-7.956021e-05
2.331760e+01	-8.048193e-05
2.345228e+01	-8.141433e-05
2.358774e+01	-8.235753e-05
2.372398e+01	-8.331165e-05
2.386101e+01	-8.427683e-05
2.399883e+01	-8.525319e-05
2.413745e+01	-8.624087e-05
2.427686e+01	-8.723998e-05
2.441709e+01	-8.825067e-05
2.455812e+01	-8.927307e-05
2.469997e+01	-9.030731e-05
2.484263e+01	-9.135353e-05
2.498612e+01	-9.241188e-05
2.513044e+01	-9.348249e-05
2.527559e+01	-9.456549e-05
2.542158e+01	-9.566105e-05
2.556842e+01	-9.676930e-05
2.571610e+01	-9.789038e-05
2.586463e+01	-9.902446e-05
2.601403e+01	-1.001717e-04
2.616428e+01	-1.013322e-04
2.631541e+01	-1.025061e-04
2.646740e+01	-1.036937e-04
2.662028e+01	-1.048950e-04
2.677404e+01	-1.061102e-04
2.692868e+01	-1.073395e-04
2.708422e+01	-1.085830e-04
2.724066e+01	-1.098410e-04
2.739800e+01	-1.111135e-04
2.755625e+01	-1.124008e-04
2.771541e+01	-1.137030e-04
2.787550e+01	-1.150202e-04
2.803650e+01	-1.163527e-04
2.819844e+01	-1.177007e-04
2.836131e+01	-1.190643e-04
2.852513e+01	-1.204437e-04
2.868989e+01	-1.218390e-04
2.885560e+01	-1.232505e-04
2.902227e+01	-1.246784e-04
2.918990e+01	-1.261228e-04
2.935850e+01	-1.275840e-04
2.952807e+01	-1.290620e-04
2.969863e+01	-1.305572e-04
2.987016e+01	-1.320697e-04
3.004269e+01	-1.335998e-04
3.021622e+01	-1.351476e-04
3.039075e+01	-1.367133e-04
3.056628e+01	-1.382971e-04
3.074283e+01	-1.398993e-04
3.092040e+01	-1.415200e-04
3.109900e+01	-1.431595e-04
3.127862e+01	-1.448181e-04
3.145929e+01	-1.464958e-04
3.164099e+01	-1.481930e-04
3.182375e+01	-1.499098e-04
3.200756e+01	-1.516465e-04
3.219244e+01	-1.534033e-04
3.237838e+01	-1.551805e-04
3.256540e+01	-1.569783e-04
3.275349e+01	-1.587969e-04
3.294268e+01	-1.606366e-04
3.313295e+01	-1.624976e-04
3.332433e+01	-1.643801e-04
3.351681e+01	-1.662845e-04
3.371040e+01	-1.682109e-04
3.390511e+01	-1.701596e-04
3.410094e+01	-1.721309e-04
3.429791e+01	-1.741251e-04
3.449601e+01	-1.761423e-04
3.469526e+01	-1.781829e-04
3.489566e+01	-1.802472e-04
3.509721e+01	-1.823353e-04
3.529993e+01	-1.844477e-04
3.550382e+01	-1.865845e-04
3.570889e+01	-1.887461e-04
3.591515e+01	-1.909327e-04
3.612259e+01	-1.931447e-04
3.633123e+01	-1.953823e-04
3.654108e+01	-1.976458e-04
3.675214e+01	-1.999355e-04
3.696442e+01	-2.022518e-04
3.717792e+01	-2.045949e-04
3.739266e+01	-2.069651e-04
3.760864e+01	-2.093628e-04
3.782587e+01	-2.117883e-04
3.804435e+01	-2.142418e-04
3.826409e+01	-2.167238e-04
3.848510e+01	-2.192346e-04
3.870739e+01	-2.217744e-04
3.893096e+01	-2.243436e-04
3.915583e+01	-2.269427e-04
3.938199e+01	-2.295718e-04
3.960946e+01	-2.322314e-04
3.983824e+01	-2.349218e-04
4.006834e+01	-2.376433e-04
4.029978e+01	-2.403964e-04
4.053255e+01	-2.431814e-04
4.076666e+01	-2.459986e-04
4.100213e+01	-2.488485e-04
4.123896e+01	-2.517314e-04
4.147715e+01	-2.546477e-04
4.171672e+01	-2.575978e-04
4.195767e+01	-2.605820e-04
4.220002e+01	-2.636008e-04
4.244377e+01	-2.666546e-04
4.268892e+01	-2.697438e-04
4.293549e+01	-2.728688e-04
4.318348e+01	-2.760299e-04
4.343291e+01	-2.792277e-04
4.368377e+01	-2.824625e-04
4.393609e+01	-2.857348e-04
4.418986e+01	-2.890450e-04
4.444510e+01	-2.923936e-04
4.470182e+01	-2.957809e-04
4.496001e+01	-2.992075e-04
4.521970e+01	-3.026738e-04
4.548089e+01	-3.061803e-04
4.574358e+01	-3.097273e-04
4.600779e+01	-3.133155e-04
4.627353e+01	-3.169452e-04
4.654081e+01	-3.206169e-04
4.680963e+01	-3.243312e-04
4.708000e+01	-3.280886e-04
4.735193e+01	-3.318894e-04
4.762543e+01	-3.357343e-04
4.790051e+01	-3.396237e-04
4.817719e+01	-3.435582e-04
4.845545e+01	-3.475382e-04
4.873533e+01	-3.515644e-04
4.901682e+01	-3.556372e-04
4.929994e+01	-3.597572e-04
4.958470e+01	-3.639249e-04
4.987110e+01	-3.681409e-04
5.015915e+01	-3.724057e-04
5.044887e+01	-3.767200e-04
5.074026e+01	-3.810842e-04
5.103333e+01	-3.854990e-04
5.132810e+01	-3.899649e-04
5.162457e+01	-3.944825e-04
5.192275e+01	-3.990525e-04
5.222265e+01	-4.036754e-04
5.252429e+01	-4.083519e-04
5.282767e+01	-4.130825e-04
5.313280e+01	-4.178680e-04
5.343969e+01	-4.227089e-04
5.374836e+01	-4.276058e-04
5.405880e+01	-4.325595e-04
5.437105e+01	-4.375706e-04
5.468509e+01	-4.426397e-04
5.500095e+01	-4.477675e-04
5.531863e+01	-4.529548e-04
5.563815e+01	-4.582021e-04
5.595951e+01	-4.635102e-04
5.628273e+01	-4.688798e-04
5.660782e+01	-4.743116e-04
5.693479e+01	-4.798063e-04
5.726364e+01	-4.853647e-04
5.759439e+01	-4.909875e-04
5.792705e+01	-4.966754e-04
5.826164e+01	-5.024292e-04
5.859815e+01	-5.082496e-04
5.893662e+01	-5.141375e-04
5.927703e+01	-5.200936e-04
5.961941e+01	-5.261186e-04
5.996377e+01	-5.322135e-04
6.031012e+01	-5.383789e-04
6.065847e+01	-5.446158e-04
6.100883e+01	-5.509249e-04
6.136121e+01	-5.573071e-04
6.171563e+01	-5.637633e-04
6.207210e+01	-5.702942e-04
6.243063e+01	-5.769008e-04
6.279122e+01	-5.835839e-04
6.315390e+01	-5.903444e-04
6.351868e+01	-5.971832e-04
6.388556e+01	-6.041013e-04
6.425456e+01	-6.110995e-04
6.462569e+01	-6.181787e-04
6.499897e+01	-6.253400e-04
6.537440e+01	-6.325842e-04
6.575200e+01	-6.399123e-04
6.613178e+01	-6.473253e-04
6.651375e+01	-6.548242e-04
6.689793e+01	-6.624099e-04
6.728433e+01	-6.700835e-04
6.767297e+01	-6.778460e-04
6.806384e+01	-6.856984e-04
6.845698e+01	-6.936418e-04
6.885238e+01	-7.016772e-04
6.925007e+01	-7.098057e-04
6.965005e+01	-7.180283e-04
7.005235e+01	-7.263461e-04
7.045697e+01	-7.347603e-04
7.086393e+01	-7.432720e-04
7.127323e+01	-7.518823e-04
7.168490e+01	-7.605923e-04
7.209895e+01	-7.694032e-04
7.251539e+01	-7.783161e-04
7.293424e+01	-7.873323e-04
7.335551e+01	-7.964529e-04
7.377920e+01	-8.056792e-04
7.420535e+01	-8.150123e-04
7.463396e+01	-8.244536e-04
7.506504e+01	-8.340042e-04
7.549861e+01	-8.436654e-04
7.593469e+01	-8.534385e-04
7.637328e+01	-8.633249e-04
7.681441e+01	-8.733257e-04
7.725809e+01	-8.834424e-04
7.770433e+01	-8.936763e-04
7.815315e+01	-9.040287e-04
7.860456e+01	-9.145010e-04
7.905857e+01	-9.250946e-04
7.951521e+01	-9.358109e-04
7.997449e+01	-9.466514e-04
8.043642e+01	-9.576174e-04
8.090102e+01	-9.687104e-04
8.136830e+01	-9.799319e-04
8.183828e+01	-9.912834e-04
8.231097e+01	-1.002766e-03
8.278640e+01	-1.014382e-03
8.326457e+01	-1.026133e-03
8.374550e+01	-1.038019e-03
8.422921e+01	-1.050044e-03
8.471572e+01	-1.062207e-03
8.520503e+01	-1.074512e-03
8.569717e+01	-1.086959e-03
8.619215e+01	-1.099550e-03
8.669000e+01	-1.112287e-03
8.719071e+01	-1.125171e-03
8.769432e+01	-1.138205e-03
8.820084e+01	-1.151390e-03
8.871029e+01	-1.164727e-03
8.922267e+01	-1.178219e-03
8.973802e+01	-1.191867e-03
9.025634e+01	-1.205673e-03
9.077766e+01	-1.219639e-03
9.130199e+01	-1.233767e-03
9.182935e+01	-1.248058e-03
9.235975e+01	-1.262515e-03
9.289321e+01	-1.277140e-03
9.342976e+01	-1.291934e-03
9.396941e+01	-1.306899e-03
9.451217e+01	-1.322037e-03
9.505807e+01	-1.337351e-03
9.560712e+01	-1.352842e-03
9.615934e+01	-1.368513e-03
9.671476e+01	-1.384365e-03
9.727338e+01	-1.400401e-03
9.783522e+01	-1.416622e-03
9.840032e+01	-1.433031e-03
9.896867e+01	-1.449630e-03
9.954031e+01	-1.466422e-03
1.001153e+02	-1.483408e-03
1.006935e+02	-1.500591e-03
1.012751e+02	-1.517972e-03
1.018601e+02	-1.535555e-03
1.024484e+02	-1.553342e-03
1.030402e+02	-1.571335e-03
1.036353e+02	-1.589536e-03
1.042339e+02	-1.607947e-03
1.048360e+02	-1.626572e-03
1.054415e+02	-1.645413e-03
1.060505e+02	-1.664472e-03
1.066631e+02	-1.683752e-03
1.072791e+02	-1.703255e-03
1.078988e+02	-1.722983e-03
1.085220e+02	-1.742941e-03
1.091488e+02	-1.763129e-03
1.097793e+02	-1.783551e-03
1.104133e+02	-1.804210e-03
1.110511e+02	-1.825107e-03
1.116925e+02	-1.846247e-03
1.123376e+02	-1.867632e-03
1.129865e+02	-1.889264e-03
1.136391e+02	-1.911147e-03
1.142955e+02	-1.933283e-03
1.149556e+02	-1.955676e-03
1.156196e+02	-1.978328e-03
1.162874e+02	-2.001242e-03
1.169591e+02	-2.024421e-03
1.176347e+02	-2.047869e-03
1.183141e+02	-2.071589e-03
1.189975e+02	-2.095583e-03
1.196848e+02	-2.119855e-03
1.203761e+02	-2.144408e-03
1.210714e+02	-2.169245e-03
1.217707e+02	-2.194370e-03
1.224740e+02	-2.219786e-03
1.231814e+02	-2.245496e-03
1.238929e+02	-2.271504e-03
1.246085e+02	-2.297813e-03
1.253283e+02	-2.324427e-03
1.260522e+02	-2.351348e-03
1.267802e+02	-2.378582e-03
1.275125e+02	-2.406131e-03
1.282490e+02	-2.433999e-03
1.289898e+02	-2.462189e-03
1.297348e+02	-2.490706e-03
1.304842e+02	-2.519553e-03
1.312378e+02	-2.548734e-03
1.319959e+02	-2.578253e-03
1.327583e+02	-2.608114e-03
1.335251e+02	-2.638321e-03
1.342963e+02	-2.668877e-03
1.350720e+02	-2.699787e-03
1.358522e+02	-2.731055e-03
1.366368e+02	-2.762685e-03
1.374260e+02	-2.794681e-03
1.382198e+02	-2.827047e-03
1.390182e+02	-2.859789e-03
1.398211e+02	-2.892909e-03
1.406287e+02	-2.926413e-03
1.414410e+02	-2.960304e-03
1.422579e+02	-2.994588e-03
1.430796e+02	-3.029269e-03
1.439060e+02	-3.064352e-03
1.447372e+02	-3.099840e-03
1.455732e+02	-3.135740e-03
1.464141e+02	-3.172055e-03
1.472597e+02	-3.208791e-03
1.481103e+02	-3.245951e-03
1.489658e+02	-3.283542e-03
1.498262e+02	-3.321568e-03
1.506916e+02	-3.360035e-03
1.515620e+02	-3.398946e-03
1.524374e+02	-3.438308e-03
1.533179e+02	-3.478126e-03
1.542034e+02	-3.518405e-03
1.550941e+02	-3.559150e-03
1.559899e+02	-3.600366e-03
1.568909e+02	-3.642060e-03
1.577971e+02	-3.684236e-03
1.587085e+02	-3.726901e-03
1.596252e+02	-3.770059e-03
1.605472e+02	-3.813717e-03
1.614745e+02	-3.857880e-03
1.624072e+02	-3.902554e-03
1.633453e+02	-3.947746e-03
1.642887e+02	-3.993461e-03
1.652377e+02	-4.039704e-03
1.661921e+02	-4.086483e-03
1.671520e+02	-4.133804e-03
1.681175e+02	-4.181672e-03
1.690885e+02	-4.230094e-03
1.700651e+02	-4.279076e-03
1.710474e+02	-4.328626e-03
1.720354e+02	-4.378749e-03
1.730291e+02	-4.429452e-03
1.740285e+02	-4.480741e-03
1.750337e+02	-4.532625e-03
1.760446e+02	-4.585109e-03
1.770615e+02	-4.638200e-03
1.780842e+02	-4.691906e-03
1.791128e+02	-4.746233e-03
1.801473e+02	-4.801189e-03
1.811878e+02	-4.856780e-03
1.822344e+02	-4.913016e-03
1.832870e+02	-4.969901e-03
1.843456e+02	-5.027446e-03
1.854104e+02	-5.085656e-03
1.864813e+02	-5.144539e-03
1.875584e+02	-5.204104e-03
1.886418e+02	-5.264359e-03
1.897313e+02	-5.325310e-03
1.908272e+02	-5.386967e-03
1.919294e+02	-5.449337e-03
1.930380e+02	-5.512429e-03
1.941530e+02	-5.576251e-03
1.952744e+02	-5.640811e-03
1.964023e+02	-5.706118e-03
1.975367e+02	-5.772181e-03
1.986777e+02	-5.839008e-03
1.998252e+02	-5.906608e-03
2.009794e+02	-5.974990e-03
2.021403e+02	-6.044164e-03
2.033078e+02	-6.114138e-03
2.044821e+02	-6.184921e-03
2.056632e+02	-6.256523e-03
2.068511e+02	-6.328954e-03
2.080459e+02	-6.402222e-03
2.092475e+02	-6.476338e-03
2.104561e+02	-6.551311e-03
2.116717e+02	-6.627152e-03
2.128943e+02	-6.703869e-03
2.141240e+02	-6.781475e-03
2.153608e+02	-6.859977e-03
2.166047e+02	-6.939388e-03
2.178558e+02	-7.019718e-03
2.191141e+02	-7.100976e-03
2.203797e+02	-7.183175e-03
2.216526e+02	-7.266324e-03
2.229329e+02	-7.350434e-03
2.242205e+02	-7.435518e-03
2.255156e+02	-7.521585e-03
2.268182e+02	-7.608648e-03
2.281283e+02	-7.696718e-03
2.294459e+02	-7.785806e-03
2.307712e+02	-7.875925e-03
2.321041e+02	-7.967085e-03
2.334447e+02	-8.059300e-03
2.347931e+02	-8.152581e-03
2.361493e+02	-8.246941e-03
2.375133e+02	-8.342392e-03
2.388851e+02	-8.438946e-03
2.402649e+02	-8.536617e-03
2.416527e+02	-8.635418e-03
2.430484e+02	-8.735360e-03
2.444523e+02	-8.836458e-03
2.458642e+02	-8.938725e-03
2.472843e+02	-9.042174e-03
2.487126e+02	-9.146820e-03
2.501492e+02	-9.252674e-03
2.515940e+02	-9.359753e-03
2.530472e+02	-9.468070e-03
2.545088e+02	-9.577638e-03
2.559789e+02	-9.688473e-03
2.574574e+02	-9.800590e-03
2.589444e+02	-9.914002e-03
2.604401e+02	-1.002873e-02
2.619444e+02	-1.014477e-02
2.634574e+02	-1.026216e-02
2.649791e+02	-1.038091e-02
2.665096e+02	-1.050103e-02
2.680489e+02	-1.062254e-02
2.695972e+02	-1.074545e-02
2.711544e+02	-1.086978e-02
2.727205e+02	-1.099555e-02
2.742958e+02	-1.112278e-02
2.758801e+02	-1.125147e-02
2.774736e+02	-1.138165e-02
2.790762e+02	-1.151333e-02
2.806882e+02	-1.164654e-02
2.823094e+02	-1.178128e-02
2.839400e+02	-1.191758e-02
2.855800e+02	-1.205546e-02
2.872295e+02	-1.219493e-02
2.888886e+02	-1.233601e-02
2.905572e+02	-1.247872e-02
2.922354e+02	-1.262307e-02
2.939234e+02	-1.276910e-02
2.956211e+02	-1.291681e-02
2.973286e+02	-1.306623e-02
2.990459e+02	-1.321738e-02
3.007732e+02	-1.337027e-02
3.025104e+02	-1.352492e-02
3.042577e+02	-1.368136e-02
3.060151e+02	-1.383961e-02
3.077826e+02	-1.399969e-02
3.095604e+02	-1.416161e-02
3.113484e+02	-1.432541e-02
3.131467e+02	-1.449109e-02
3.149554e+02	-1.465869e-02
3.167746e+02	-1.482822e-02
3.186043e+02	-1.499972e-02
3.204445e+02	-1.517319e-02
3.222954e+02	-1.534866e-02
3.241570e+02	-1.552616e-02
3.260293e+02	-1.570571e-02
3.279124e+02	-1.588733e-02
3.298064e+02	-1.607104e-02
3.317114e+02	-1.625688e-02
3.336273e+02	-1.644486e-02
3.355544e+02	-1.663501e-02
3.374925e+02	-1.682736e-02
3.394418e+02	-1.702193e-02
3.414024e+02	-1.721874e-02
3.433744e+02	-1.741782e-02
3.453577e+02	-1.761920e-02
3.473525e+02	-1.782290e-02
3.493588e+02	-1.802895e-02
3.513766e+02	-1.823738e-02
3.534062e+02	-1.844822e-02
3.554474e+02	-1.866148e-02
3.575005e+02	-1.887721e-02
3.595654e+02	-1.909542e-02
3.616422e+02	-1.931616e-02
3.637311e+02	-1.953943e-02
3.658320e+02	-1.976528e-02
3.679450e+02	-1.999374e-02
3.700702e+02	-2.022483e-02
3.722077e+02	-2.045859e-02
3.743576e+02	-2.069504e-02
3.765199e+02	-2.093422e-02
3.786946e+02	-2.117615e-02
3.808820e+02	-2.142088e-02
3.830819e+02	-2.166842e-02
3.852946e+02	-2.191882e-02
3.875200e+02	-2.217210e-02
3.897583e+02	-2.242831e-02
3.920096e+02	-2.268746e-02
3.942738e+02	-2.294961e-02
3.965511e+02	-2.321477e-02
3.988416e+02	-2.348299e-02
4.011452e+02	-2.375430e-02
4.034622e+02	-2.402873e-02
4.057926e+02	-2.430633e-02
4.081365e+02	-2.458713e-02
4.104938e+02	-2.487115e-02
4.128648e+02	-2.515846e-02
4.152495e+02	-2.544907e-02
4.176480e+02	-2.574302e-02
4.200603e+02	-2.604036e-02
4.224866e+02	-2.634113e-02
4.249268e+02	-2.664536e-02
4.273812e+02	-2.695309e-02
4.298497e+02	-2.726437e-02
4.323325e+02	-2.757922e-02
4.348297e+02	-2.789771e-02
4.373412e+02	-2.821986e-02
4.398673e+02	-2.854571e-02
4.424079e+02	-2.887532e-02
4.449633e+02	-2.920872e-02
4.475334e+02	-2.954595e-02
4.501183e+02	-2.988707e-02
4.527182e+02	-3.023211e-02
4.553330e+02	-3.058112e-02
4.579630e+02	-3.093414e-02
4.606082e+02	-3.129122e-02
4.632687e+02	-3.165242e-02
4.659445e+02	-3.201776e-02
4.686358e+02	-3.238731e-02
4.713426e+02	-3.276110e-02
4.740650e+02	-3.313920e-02
4.768032e+02	-3.352164e-02
4.795572e+02	-3.390847e-02
4.823271e+02	-3.429975e-02
4.851130e+02	-3.469553e-02
4.879150e+02	-3.509586e-02
4.907332e+02	-3.550079e-02
4.935676e+02	-3.591037e-02
4.964185e+02	-3.632465e-02
4.992858e+02	-3.674370e-02
5.021696e+02	-3.716755e-02
5.050701e+02	-3.759628e-02
5.079874e+02	-3.802993e-02
5.109215e+02	-3.846856e-02
5.138726e+02	-3.891223e-02
5.168407e+02	-3.936098e-02
5.198259e+02	-3.981490e-02
5.228284e+02	-4.027402e-02
5.258482e+02	-4.073841e-02
5.288855e+02	-4.120813e-02
5.319403e+02	-4.168324e-02
5.350128e+02	-4.216380e-02
5.381030e+02	-4.264987e-02
5.412111e+02	-4.314152e-02
5.443371e+02	-4.363881e-02
5.474812e+02	-4.414180e-02
5.506434e+02	-4.465056e-02
5.538239e+02	-4.516515e-02
5.570228e+02	-4.568564e-02
5.602401e+02	-4.621209e-02
5.634760e+02	-4.674458e-02
5.667306e+02	-4.728318e-02
5.700040e+02	-4.782794e-02
5.732964e+02	-4.837895e-02
5.766077e+02	-4.893627e-02
5.799382e+02	-4.949997e-02
5.832879e+02	-5.007012e-02
5.866569e+02	-5.064681e-02
5.900454e+02	-5.123010e-02
5.934535e+02	-5.182006e-02
5.968813e+02	-5.241678e-02
6.003288e+02	-5.302033e-02
6.037963e+02	-5.363078e-02
6.072838e+02	-5.424822e-02
6.107914e+02	-5.487272e-02
6.143194e+02	-5.550437e-02
6.178676e+02	-5.614323e-02
6.214364e+02	-5.678941e-02
6.250258e+02	-5.744297e-02
6.286359e+02	-5.810400e-02
6.322669e+02	-5.877259e-02
6.359189e+02	-5.944882e-02
6.395919e+02	-6.013277e-02
6.432862e+02	-6.082454e-02
6.470017e+02	-6.152421e-02
6.507388e+02	-6.223187e-02
6.544974e+02	-6.294761e-02
6.582778e+02	-6.367152e-02
6.620800e+02	-6.440370e-02
6.659041e+02	-6.514423e-02
6.697504e+02	-6.589321e-02
6.736188e+02	-6.665073e-02
6.775096e+02	-6.741690e-02
6.814229e+02	-6.819181e-02
6.853587e+02	-6.897555e-02
6.893173e+02	-6.976822e-02
6.932988e+02	-7.056993e-02
6.973033e+02	-7.138078e-02
7.013309e+02	-7.220086e-02
