Frequency(Hz)	Magnitude(dB)
1.000000e+01	-2.026609e+00
1.005776e+01	-2.045172e+00
1.011585e+01	-2.064114e+00
1.017428e+01	-2.082943e+00
1.023305e+01	-2.102101e+00
1.029215e+01	-2.121522e+00
1.035160e+01	-2.140529e+00
1.041139e+01	-2.160441e+00
1.047153e+01	-2.180211e+00
1.053201e+01	-2.199873e+00
1.059284e+01	-2.219795e+00
1.065403e+01	-2.239719e+00
1.071556e+01	-2.260213e+00
1.077746e+01	-2.280690e+00
1.083971e+01	-2.301059e+00
1.090232e+01	-2.321664e+00
1.096529e+01	-2.342497e+00
1.102862e+01	-2.363373e+00
1.109232e+01	-2.384573e+00
1.115639e+01	-2.405727e+00
1.122083e+01	-2.427067e+00
1.128564e+01	-2.448461e+00
1.135083e+01	-2.470124e+00
1.141639e+01	-2.491839e+00
1.148233e+01	-2.513911e+00
1.154865e+01	-2.535792e+00
1.161536e+01	-2.558060e+00
1.168245e+01	-2.580327e+00
1.174992e+01	-2.602827e+00
1.181779e+01	-2.625591e+00
1.188605e+01	-2.648321e+00
1.195470e+01	-2.670969e+00
1.202375e+01	-2.694177e+00
1.209320e+01	-2.717444e+00
1.216305e+01	-2.740871e+00
1.223330e+01	-2.764041e+00
1.230396e+01	-2.787847e+00
1.237503e+01	-2.811703e+00
1.244651e+01	-2.835384e+00
1.251840e+01	-2.859643e+00
1.259070e+01	-2.883806e+00
1.266343e+01	-2.908038e+00
1.273657e+01	-2.932558e+00
1.281014e+01	-2.957343e+00
1.288413e+01	-2.982156e+00
1.295855e+01	-3.006913e+00
1.303339e+01	-3.031624e+00
1.310867e+01	-3.057308e+00
1.318439e+01	-3.082660e+00
1.326054e+01	-3.108120e+00
1.333713e+01	-3.133708e+00
1.341417e+01	-3.159431e+00
1.349165e+01	-3.185350e+00
1.356958e+01	-3.211534e+00
1.364795e+01	-3.237979e+00
1.372678e+01	-3.264008e+00
1.380607e+01	-3.290691e+00
1.388581e+01	-3.317181e+00
1.396602e+01	-3.344035e+00
1.404668e+01	-3.371232e+00
1.412782e+01	-3.397948e+00
1.420942e+01	-3.425295e+00
1.429149e+01	-3.452657e+00
1.437404e+01	-3.480116e+00
1.445706e+01	-3.507961e+00
1.454057e+01	-3.535629e+00
1.462455e+01	-3.563672e+00
1.470902e+01	-3.591463e+00
1.479398e+01	-3.619734e+00
1.487943e+01	-3.648126e+00
1.496537e+01	-3.676664e+00
1.505181e+01	-3.705385e+00
1.513875e+01	-3.733941e+00
1.522619e+01	-3.762922e+00
1.531414e+01	-3.792028e+00
1.540259e+01	-3.821107e+00
1.549156e+01	-3.850818e+00
1.558103e+01	-3.880113e+00
1.567103e+01	-3.909704e+00
1.576155e+01	-3.939184e+00
1.585258e+01	-3.969374e+00
1.594415e+01	-3.999174e+00
1.603624e+01	-4.029794e+00
1.612886e+01	-4.060090e+00
1.622202e+01	-4.090516e+00
1.631572e+01	-4.120999e+00
1.640996e+01	-4.151379e+00
1.650474e+01	-4.182468e+00
1.660008e+01	-4.213813e+00
1.669596e+01	-4.244598e+00
1.679239e+01	-4.275892e+00
1.688938e+01	-4.307298e+00
1.698694e+01	-4.338770e+00
1.708505e+01	-4.370690e+00
1.718373e+01	-4.402136e+00
1.728299e+01	-4.434246e+00
1.738281e+01	-4.466166e+00
1.748322e+01	-4.498683e+00
1.758420e+01	-4.531009e+00
1.768576e+01	-4.563332e+00
1.778792e+01	-4.595872e+00
1.789066e+01	-4.628679e+00
1.799399e+01	-4.661439e+00
1.809793e+01	-4.694351e+00
1.820246e+01	-4.727890e+00
1.830760e+01	-4.761061e+00
1.841334e+01	-4.794123e+00
1.851969e+01	-4.827694e+00
1.862666e+01	-4.861445e+00
1.873425e+01	-4.895070e+00
1.884246e+01	-4.929119e+00
1.895129e+01	-4.963107e+00
1.906075e+01	-4.997164e+00
1.917085e+01	-5.031428e+00
1.928158e+01	-5.065526e+00
1.939295e+01	-5.100573e+00
1.950496e+01	-5.134888e+00
1.961762e+01	-5.169875e+00
1.973093e+01	-5.204588e+00
1.984490e+01	-5.239401e+00
1.995952e+01	-5.274226e+00
2.007480e+01	-5.310104e+00
2.019076e+01	-5.345284e+00
2.030738e+01	-5.380837e+00
2.042467e+01	-5.416398e+00
2.054264e+01	-5.451971e+00
2.066130e+01	-5.487757e+00
2.078064e+01	-5.523594e+00
2.090066e+01	-5.560124e+00
2.102139e+01	-5.595898e+00
2.114280e+01	-5.632168e+00
2.126492e+01	-5.668594e+00
2.138775e+01	-5.705522e+00
2.151128e+01	-5.741694e+00
2.163553e+01	-5.778680e+00
2.176050e+01	-5.815498e+00
2.188619e+01	-5.852720e+00
2.201260e+01	-5.889521e+00
2.213974e+01	-5.926801e+00
2.226762e+01	-5.964018e+00
2.239624e+01	-6.001343e+00
2.252560e+01	-6.038980e+00
2.265571e+01	-6.076579e+00
2.278656e+01	-6.114309e+00
2.291818e+01	-6.152343e+00
2.305055e+01	-6.189943e+00
2.318369e+01	-6.228241e+00
2.331760e+01	-6.266429e+00
2.345228e+01	-6.304041e+00
2.358774e+01	-6.342753e+00
2.372398e+01	-6.381502e+00
2.386101e+01	-6.419859e+00
2.399883e+01	-6.458517e+00
2.413745e+01	-6.497368e+00
2.427686e+01	-6.536215e+00
2.441709e+01	-6.575308e+00
2.455812e+01	-6.614453e+00
2.469997e+01	-6.653198e+00
2.484263e+01	-6.692700e+00
2.498612e+01	-6.732387e+00
2.513044e+01	-6.771672e+00
2.527559e+01	-6.811124e+00
2.542158e+01	-6.850719e+00
2.556842e+01	-6.890543e+00
2.571610e+01	-6.930119e+00
2.586463e+01	-6.970076e+00
2.601403e+01	-7.010445e+00
2.616428e+01	-7.050559e+00
2.631541e+01	-7.090750e+00
2.646740e+01	-7.130913e+00
2.662028e+01	-7.170910e+00
2.677404e+01	-7.211786e+00
2.692868e+01	-7.252267e+00
2.708422e+01	-7.292491e+00
2.724066e+01	-7.333587e+00
2.739800e+01	-7.374622e+00
2.755625e+01	-7.415279e+00
2.771541e+01	-7.456763e+00
2.787550e+01	-7.497807e+00
2.803650e+01	-7.538357e+00
2.819844e+01	-7.580029e+00
2.836131e+01	-7.621337e+00
2.852513e+01	-7.662232e+00
2.868989e+01	-7.704444e+00
2.885560e+01	-7.745602e+00
2.902227e+01	-7.787185e+00
2.918990e+01	-7.829580e+00
2.935850e+01	-7.870813e+00
2.952807e+01	-7.913084e+00
2.969863e+01	-7.954947e+00
2.987016e+01	-7.996423e+00
3.004269e+01	-8.039144e+00
3.021622e+01	-8.081147e+00
3.039075e+01	-8.123654e+00
3.056628e+01	-8.165780e+00
3.074283e+01	-8.208379e+00
3.092040e+01	-8.250609e+00
3.109900e+01	-8.293407e+00
3.127862e+01	-8.336075e+00
3.145929e+01	-8.378915e+00
3.164099e+01	-8.421666e+00
3.182375e+01	-8.464204e+00
3.200756e+01	-8.507298e+00
3.219244e+01	-8.550265e+00
3.237838e+01	-8.593798e+00
3.256540e+01	-8.636922e+00
3.275349e+01	-8.680570e+00
3.294268e+01	-8.722925e+00
3.313295e+01	-8.767051e+00
3.332433e+01	-8.809769e+00
3.351681e+01	-8.853356e+00
3.371040e+01	-8.896936e+00
3.390511e+01	-8.940370e+00
3.410094e+01	-8.984347e+00
3.429791e+01	-9.028063e+00
3.449601e+01	-9.072152e+00
3.469526e+01	-9.115779e+00
3.489566e+01	-9.159721e+00
3.509721e+01	-9.203607e+00
3.529993e+01	-9.247508e+00
3.550382e+01	-9.291642e+00
3.570889e+01	-9.335504e+00
3.591515e+01	-9.380198e+00
3.612259e+01	-9.424212e+00
3.633123e+01	-9.469126e+00
3.654108e+01	-9.512816e+00
3.675214e+01	-9.557977e+00
3.696442e+01	-9.602054e+00
3.717792e+01	-9.646728e+00
3.739266e+01	-9.691071e+00
3.760864e+01	-9.735773e+00
3.782587e+01	-9.780223e+00
3.804435e+01	-9.825351e+00
3.826409e+01	-9.870440e+00
3.848510e+01	-9.914572e+00
3.870739e+01	-9.960380e+00
3.893096e+01	-1.000544e+01
3.915583e+01	-1.005043e+01
3.938199e+01	-1.009527e+01
3.960946e+01	-1.014104e+01
3.983824e+01	-1.018561e+01
4.006834e+01	-1.023095e+01
4.029978e+01	-1.027594e+01
4.053255e+01	-1.032137e+01
4.076666e+01	-1.036722e+01
4.100213e+01	-1.041325e+01
4.123896e+01	-1.045882e+01
4.147715e+01	-1.050330e+01
4.171672e+01	-1.054898e+01
4.195767e+01	-1.059455e+01
4.220002e+01	-1.064033e+01
4.244377e+01	-1.068634e+01
4.268892e+01	-1.073172e+01
4.293549e+01	-1.077765e+01
4.318348e+01	-1.082360e+01
4.343291e+01	-1.086993e+01
4.368377e+01	-1.091589e+01
4.393609e+01	-1.096154e+01
4.418986e+01	-1.100744e+01
4.444510e+01	-1.105358e+01
4.470182e+01	-1.110015e+01
4.496001e+01	-1.114594e+01
4.521970e+01	-1.119246e+01
4.548089e+01	-1.123891e+01
4.574358e+01	-1.128464e+01
4.600779e+01	-1.133137e+01
4.627353e+01	-1.137780e+01
4.654081e+01	-1.142361e+01
4.680963e+01	-1.147022e+01
4.708000e+01	-1.151613e+01
4.735193e+01	-1.156259e+01
4.762543e+01	-1.160970e+01
4.790051e+01	-1.165623e+01
4.817719e+01	-1.170331e+01
4.845545e+01	-1.174965e+01
4.873533e+01	-1.179639e+01
4.901682e+01	-1.184290e+01
4.929994e+01	-1.188923e+01
4.958470e+01	-1.193649e+01
4.987110e+01	-1.198385e+01
5.015915e+01	-1.203110e+01
5.044887e+01	-1.207719e+01
5.074026e+01	-1.212428e+01
5.103333e+01	-1.217082e+01
5.132810e+01	-1.221845e+01
5.162457e+01	-1.226615e+01
5.192275e+01	-1.231241e+01
5.222265e+01	-1.235930e+01
5.252429e+01	-1.240675e+01
5.282767e+01	-1.245338e+01
5.313280e+01	-1.250098e+01
5.343969e+01	-1.254771e+01
5.374836e+01	-1.259508e+01
5.405880e+01	-1.264279e+01
5.437105e+01	-1.268952e+01
5.468509e+01	-1.273710e+01
5.500095e+01	-1.278450e+01
5.531863e+01	-1.283211e+01
5.563815e+01	-1.287890e+01
5.595951e+01	-1.292684e+01
5.628273e+01	-1.297448e+01
5.660782e+01	-1.302160e+01
5.693479e+01	-1.306969e+01
5.726364e+01	-1.311686e+01
5.759439e+01	-1.316424e+01
5.792705e+01	-1.321319e+01
5.826164e+01	-1.326024e+01
5.859815e+01	-1.330795e+01
5.893662e+01	-1.335543e+01
5.927703e+01	-1.340318e+01
5.961941e+01	-1.345104e+01
5.996377e+01	-1.349840e+01
6.031012e+01	-1.354693e+01
6.065847e+01	-1.359409e+01
6.100883e+01	-1.364150e+01
6.136121e+01	-1.369000e+01
6.171563e+01	-1.373768e+01
6.207210e+01	-1.378650e+01
6.243063e+01	-1.383390e+01
6.279122e+01	-1.388182e+01
6.315390e+01	-1.392994e+01
6.351868e+01	-1.397785e+01
6.388556e+01	-1.402634e+01
6.425456e+01	-1.407385e+01
6.462569e+01	-1.412221e+01
6.499897e+01	-1.417006e+01
6.537440e+01	-1.421832e+01
6.575200e+01	-1.426683e+01
6.613178e+01	-1.431527e+01
6.651375e+01	-1.436260e+01
6.689793e+01	-1.441148e+01
6.728433e+01	-1.445943e+01
6.767297e+01	-1.450727e+01
6.806384e+01	-1.455588e+01
6.845698e+01	-1.460431e+01
6.885238e+01	-1.465248e+01
6.925007e+01	-1.470048e+01
6.965005e+01	-1.474844e+01
7.005235e+01	-1.479680e+01
7.045697e+01	-1.484565e+01
7.086393e+01	-1.489431e+01
7.127323e+01	-1.494258e+01
7.168490e+01	-1.499133e+01
7.209895e+01	-1.503913e+01
7.251539e+01	-1.508727e+01
7.293424e+01	-1.513575e+01
7.335551e+01	-1.518484e+01
7.377920e+01	-1.523235e+01
7.420535e+01	-1.528101e+01
7.463396e+01	-1.533023e+01
7.506504e+01	-1.537964e+01
7.549861e+01	-1.542681e+01
7.593469e+01	-1.547661e+01
7.637328e+01	-1.552456e+01
7.681441e+01	-1.557347e+01
7.725809e+01	-1.562190e+01
7.770433e+01	-1.567055e+01
7.815315e+01	-1.571947e+01
7.860456e+01	-1.576835e+01
7.905857e+01	-1.581653e+01
7.951521e+01	-1.586517e+01
7.997449e+01	-1.591487e+01
8.043642e+01	-1.596334e+01
8.090102e+01	-1.601119e+01
8.136830e+01	-1.605989e+01
8.183828e+01	-1.610964e+01
8.231097e+01	-1.615800e+01
8.278640e+01	-1.620636e+01
8.326457e+01	-1.625619e+01
8.374550e+01	-1.630467e+01
8.422921e+01	-1.635324e+01
8.471572e+01	-1.640249e+01
8.520503e+01	-1.645215e+01
8.569717e+01	-1.649994e+01
8.619215e+01	-1.654847e+01
8.669000e+01	-1.659730e+01
8.719071e+01	-1.664704e+01
8.769432e+01	-1.669667e+01
8.820084e+01	-1.674563e+01
8.871029e+01	-1.679434e+01
8.922267e+01	-1.684328e+01
8.973802e+01	-1.689201e+01
9.025634e+01	-1.694154e+01
9.077766e+01	-1.698976e+01
9.130199e+01	-1.703935e+01
9.182935e+01	-1.708827e+01
9.235975e+01	-1.713737e+01
9.289321e+01	-1.718728e+01
9.342976e+01	-1.723563e+01
9.396941e+01	-1.728465e+01
9.451217e+01	-1.733399e+01
9.505807e+01	-1.738163e+01
9.560712e+01	-1.743256e+01
9.615934e+01	-1.748080e+01
9.671476e+01	-1.753017e+01
9.727338e+01	-1.757840e+01
9.783522e+01	-1.762887e+01
9.840032e+01	-1.767632e+01
9.896867e+01	-1.772661e+01
9.954031e+01	-1.777516e+01
1.001153e+02	-1.782561e+01
1.006935e+02	-1.787302e+01
1.012751e+02	-1.792326e+01
1.018601e+02	-1.797347e+01
1.024484e+02	-1.802289e+01
1.030402e+02	-1.807110e+01
1.036353e+02	-1.812093e+01
1.042339e+02	-1.816874e+01
1.048360e+02	-1.821892e+01
1.054415e+02	-1.826799e+01
1.060505e+02	-1.831731e+01
1.066631e+02	-1.836781e+01
1.072791e+02	-1.841660e+01
1.078988e+02	-1.846513e+01
1.085220e+02	-1.851537e+01
1.091488e+02	-1.856386e+01
1.097793e+02	-1.861223e+01
1.104133e+02	-1.866361e+01
1.110511e+02	-1.871314e+01
1.116925e+02	-1.876147e+01
1.123376e+02	-1.881041e+01
1.129865e+02	-1.886048e+01
1.136391e+02	-1.890983e+01
1.142955e+02	-1.895970e+01
1.149556e+02	-1.900802e+01
1.156196e+02	-1.905831e+01
1.162874e+02	-1.910766e+01
1.169591e+02	-1.915614e+01
1.176347e+02	-1.920550e+01
1.183141e+02	-1.925405e+01
1.189975e+02	-1.930506e+01
1.196848e+02	-1.935409e+01
1.203761e+02	-1.940428e+01
1.210714e+02	-1.945357e+01
1.217707e+02	-1.950225e+01
1.224740e+02	-1.955183e+01
1.231814e+02	-1.960266e+01
1.238929e+02	-1.964984e+01
1.246085e+02	-1.970106e+01
1.253283e+02	-1.975099e+01
1.260522e+02	-1.980089e+01
1.267802e+02	-1.985051e+01
1.275125e+02	-1.989855e+01
1.282490e+02	-1.994790e+01
1.289898e+02	-1.999921e+01
1.297348e+02	-2.004834e+01
1.304842e+02	-2.009701e+01
1.312378e+02	-2.014722e+01
1.319959e+02	-2.019682e+01
1.327583e+02	-2.024474e+01
1.335251e+02	-2.029409e+01
1.342963e+02	-2.034532e+01
1.350720e+02	-2.039397e+01
1.358522e+02	-2.044540e+01
1.366368e+02	-2.049442e+01
1.374260e+02	-2.054348e+01
1.382198e+02	-2.059211e+01
1.390182e+02	-2.064276e+01
1.398211e+02	-2.069410e+01
1.406287e+02	-2.074209e+01
1.414410e+02	-2.079174e+01
1.422579e+02	-2.083938e+01
1.430796e+02	-2.088914e+01
1.439060e+02	-2.094156e+01
1.447372e+02	-2.099082e+01
1.455732e+02	-2.104065e+01
1.464141e+02	-2.109066e+01
1.472597e+02	-2.113864e+01
1.481103e+02	-2.118889e+01
1.489658e+02	-2.123930e+01
1.498262e+02	-2.128904e+01
1.506916e+02	-2.133778e+01
1.515620e+02	-2.138830e+01
1.524374e+02	-2.143448e+01
1.533179e+02	-2.148749e+01
1.542034e+02	-2.153638e+01
1.550941e+02	-2.158603e+01
1.559899e+02	-2.163482e+01
1.568909e+02	-2.168623e+01
1.577971e+02	-2.173424e+01
1.587085e+02	-2.178330e+01
1.596252e+02	-2.183385e+01
1.605472e+02	-2.188358e+01
1.614745e+02	-2.193308e+01
1.624072e+02	-2.198344e+01
1.633453e+02	-2.203211e+01
1.642887e+02	-2.208440e+01
1.652377e+02	-2.213381e+01
1.661921e+02	-2.218199e+01
1.671520e+02	-2.223109e+01
1.681175e+02	-2.228367e+01
1.690885e+02	-2.233292e+01
1.700651e+02	-2.238067e+01
1.710474e+02	-2.243100e+01
1.720354e+02	-2.247985e+01
1.730291e+02	-2.253093e+01
1.740285e+02	-2.258108e+01
1.750337e+02	-2.263060e+01
1.760446e+02	-2.267967e+01
1.770615e+02	-2.273045e+01
1.780842e+02	-2.277999e+01
1.791128e+02	-2.282925e+01
1.801473e+02	-2.287768e+01
1.811878e+02	-2.293095e+01
1.822344e+02	-2.297697e+01
1.832870e+02	-2.303061e+01
1.843456e+02	-2.307874e+01
1.854104e+02	-2.312832e+01
1.864813e+02	-2.317721e+01
1.875584e+02	-2.322689e+01
1.886418e+02	-2.327598e+01
1.897313e+02	-2.332713e+01
1.908272e+02	-2.337632e+01
1.919294e+02	-2.342703e+01
1.930380e+02	-2.347792e+01
1.941530e+02	-2.352792e+01
1.952744e+02	-2.357626e+01
1.964023e+02	-2.362491e+01
1.975367e+02	-2.367806e+01
1.986777e+02	-2.372665e+01
1.998252e+02	-2.377671e+01
2.009794e+02	-2.382663e+01
2.021403e+02	-2.387554e+01
2.033078e+02	-2.392405e+01
2.044821e+02	-2.397602e+01
2.056632e+02	-2.402470e+01
2.068511e+02	-2.407441e+01
2.080459e+02	-2.412540e+01
2.092475e+02	-2.417678e+01
2.104561e+02	-2.422539e+01
2.116717e+02	-2.427743e+01
2.128943e+02	-2.432350e+01
2.141240e+02	-2.437393e+01
2.153608e+02	-2.442478e+01
2.166047e+02	-2.447439e+01
2.178558e+02	-2.452464e+01
2.191141e+02	-2.457466e+01
2.203797e+02	-2.462076e+01
2.216526e+02	-2.467610e+01
2.229329e+02	-2.472150e+01
2.242205e+02	-2.477017e+01
2.255156e+02	-2.482678e+01
2.268182e+02	-2.487268e+01
2.281283e+02	-2.492098e+01
2.294459e+02	-2.497209e+01
2.307712e+02	-2.502400e+01
2.321041e+02	-2.507489e+01
2.334447e+02	-2.512220e+01
2.347931e+02	-2.517084e+01
2.361493e+02	-2.522151e+01
2.375133e+02	-2.527040e+01
2.388851e+02	-2.532231e+01
2.402649e+02	-2.537330e+01
2.416527e+02	-2.542202e+01
2.430484e+02	-2.547055e+01
2.444523e+02	-2.552023e+01
2.458642e+02	-2.557277e+01
2.472843e+02	-2.562196e+01
2.487126e+02	-2.566916e+01
2.501492e+02	-2.572246e+01
2.515940e+02	-2.577207e+01
2.530472e+02	-2.582274e+01
2.545088e+02	-2.587338e+01
2.559789e+02	-2.592211e+01
2.574574e+02	-2.597001e+01
2.589444e+02	-2.602171e+01
2.604401e+02	-2.607188e+01
2.619444e+02	-2.612338e+01
2.634574e+02	-2.617321e+01
2.649791e+02	-2.621897e+01
2.665096e+02	-2.627424e+01
2.680489e+02	-2.632035e+01
2.695972e+02	-2.637259e+01
2.711544e+02	-2.642195e+01
2.727205e+02	-2.647342e+01
2.742958e+02	-2.652194e+01
2.758801e+02	-2.657109e+01
2.774736e+02	-2.662222e+01
2.790762e+02	-2.667379e+01
2.806882e+02	-2.671998e+01
2.823094e+02	-2.677222e+01
2.839400e+02	-2.681927e+01
2.855800e+02	-2.687138e+01
2.872295e+02	-2.692169e+01
2.888886e+02	-2.697080e+01
2.905572e+02	-2.702190e+01
2.922354e+02	-2.707193e+01
2.939234e+02	-2.712267e+01
2.956211e+02	-2.717072e+01
2.973286e+02	-2.721988e+01
2.990459e+02	-2.727346e+01
3.007732e+02	-2.731928e+01
3.025104e+02	-2.737115e+01
3.042577e+02	-2.741976e+01
3.060151e+02	-2.747270e+01
3.077826e+02	-2.752172e+01
3.095604e+02	-2.756831e+01
3.113484e+02	-2.761854e+01
3.131467e+02	-2.767362e+01
3.149554e+02	-2.772030e+01
3.167746e+02	-2.776918e+01
3.186043e+02	-2.782079e+01
3.204445e+02	-2.787351e+01
3.222954e+02	-2.792186e+01
3.241570e+02	-2.796939e+01
3.260293e+02	-2.802036e+01
3.279124e+02	-2.807298e+01
3.298064e+02	-2.812257e+01
3.317114e+02	-2.817177e+01
3.336273e+02	-2.822160e+01
3.355544e+02	-2.826974e+01
3.374925e+02	-2.832363e+01
3.394418e+02	-2.837089e+01
3.414024e+02	-2.842102e+01
3.433744e+02	-2.847116e+01
3.453577e+02	-2.852159e+01
3.473525e+02	-2.857459e+01
3.493588e+02	-2.862400e+01
3.513766e+02	-2.867191e+01
3.534062e+02	-2.872094e+01
3.554474e+02	-2.877242e+01
3.575005e+02	-2.882070e+01
3.595654e+02	-2.887479e+01
3.616422e+02	-2.892236e+01
3.637311e+02	-2.896848e+01
3.658320e+02	-2.902604e+01
3.679450e+02	-2.907330e+01
3.700702e+02	-2.912365e+01
3.722077e+02	-2.916950e+01
3.743576e+02	-2.922648e+01
3.765199e+02	-2.927325e+01
3.786946e+02	-2.932315e+01
3.808820e+02	-2.937331e+01
3.830819e+02	-2.942602e+01
3.852946e+02	-2.947060e+01
3.875200e+02	-2.952459e+01
3.897583e+02	-2.957666e+01
3.920096e+02	-2.962440e+01
3.942738e+02	-2.967516e+01
3.965511e+02	-2.972410e+01
3.988416e+02	-2.976846e+01
4.011452e+02	-2.982328e+01
4.034622e+02	-2.987338e+01
4.057926e+02	-2.992229e+01
4.081365e+02	-2.996810e+01
4.104938e+02	-3.002497e+01
4.128648e+02	-3.007543e+01
4.152495e+02	-3.012225e+01
4.176480e+02	-3.017784e+01
4.200603e+02	-3.022683e+01
4.224866e+02	-3.027393e+01
4.249268e+02	-3.032582e+01
4.273812e+02	-3.037496e+01
4.298497e+02	-3.042337e+01
4.323325e+02	-3.047619e+01
4.348297e+02	-3.052421e+01
4.373412e+02	-3.057542e+01
4.398673e+02	-3.062387e+01
4.424079e+02	-3.067700e+01
4.449633e+02	-3.072889e+01
4.475334e+02	-3.077704e+01
4.501183e+02	-3.082329e+01
4.527182e+02	-3.088078e+01
4.553330e+02	-3.092780e+01
4.579630e+02	-3.097846e+01
4.606082e+02	-3.102320e+01
4.632687e+02	-3.108090e+01
4.659445e+02	-3.112372e+01
4.686358e+02	-3.117693e+01
4.713426e+02	-3.122926e+01
4.740650e+02	-3.127689e+01
4.768032e+02	-3.132583e+01
4.795572e+02	-3.137431e+01
4.823271e+02	-3.142818e+01
4.851130e+02	-3.148047e+01
4.879150e+02	-3.152365e+01
4.907332e+02	-3.157800e+01
4.935676e+02	-3.162971e+01
4.964185e+02	-3.168463e+01
4.992858e+02	-3.172818e+01
5.021696e+02	-3.177620e+01
5.050701e+02	-3.183064e+01
5.079874e+02	-3.188663e+01
5.109215e+02	-3.192955e+01
5.138726e+02	-3.198153e+01
5.168407e+02	-3.203301e+01
5.198259e+02	-3.207477e+01
5.228284e+02	-3.213401e+01
5.258482e+02	-3.217782e+01
5.288855e+02	-3.223160e+01
5.319403e+02	-3.228148e+01
5.350128e+02	-3.232916e+01
5.381030e+02	-3.238504e+01
5.412111e+02	-3.243154e+01
5.443371e+02	-3.248198e+01
5.474812e+02	-3.253257e+01
5.506434e+02	-3.258776e+01
5.538239e+02	-3.263494e+01
5.570228e+02	-3.268360e+01
5.602401e+02	-3.273395e+01
5.634760e+02	-3.278849e+01
5.667306e+02	-3.284301e+01
5.700040e+02	-3.287373e+01
5.732964e+02	-3.293347e+01
5.766077e+02	-3.298074e+01
5.799382e+02	-3.303570e+01
5.832879e+02	-3.308629e+01
5.866569e+02	-3.313680e+01
5.900454e+02	-3.318452e+01
5.934535e+02	-3.324551e+01
5.968813e+02	-3.329030e+01
6.003288e+02	-3.333726e+01
6.037963e+02	-3.339070e+01
6.072838e+02	-3.344326e+01
6.107914e+02	-3.348391e+01
6.143194e+02	-3.353363e+01
6.178676e+02	-3.359171e+01
6.214364e+02	-3.363859e+01
6.250258e+02	-3.368735e+01
6.286359e+02	-3.374266e+01
6.322669e+02	-3.378879e+01
6.359189e+02	-3.383909e+01
6.395919e+02	-3.388956e+01
6.432862e+02	-3.393856e+01
6.470017e+02	-3.399245e+01
6.507388e+02	-3.403248e+01
6.544974e+02	-3.409324e+01
6.582778e+02	-3.413986e+01
6.620800e+02	-3.419239e+01
6.659041e+02	-3.423946e+01
6.697504e+02	-3.429295e+01
6.736188e+02	-3.434629e+01
6.775096e+02	-3.439556e+01
6.814229e+02	-3.444556e+01
6.853587e+02	-3.448997e+01
6.893173e+02	-3.454865e+01
6.932988e+02	-3.458399e+01
6.973033e+02	-3.464177e+01
7.013309e+02	-3.469688e+01
