Frequency(Hz)	Magnitude(dB)
1.000000e+01	-2.170825e+00
1.005776e+01	-2.190356e+00
1.011585e+01	-2.210349e+00
1.017428e+01	-2.230314e+00
1.023305e+01	-2.250595e+00
1.029215e+01	-2.270765e+00
1.035160e+01	-2.291303e+00
1.041139e+01	-2.311864e+00
1.047153e+01	-2.332554e+00
1.053201e+01	-2.353403e+00
1.059284e+01	-2.374434e+00
1.065403e+01	-2.395615e+00
1.071556e+01	-2.416811e+00
1.077746e+01	-2.438105e+00
1.083971e+01	-2.459598e+00
1.090232e+01	-2.481725e+00
1.096529e+01	-2.503513e+00
1.102862e+01	-2.525139e+00
1.109232e+01	-2.547626e+00
1.115639e+01	-2.569996e+00
1.122083e+01	-2.592204e+00
1.128564e+01	-2.614930e+00
1.135083e+01	-2.637113e+00
1.141639e+01	-2.660340e+00
1.148233e+01	-2.683027e+00
1.154865e+01	-2.706492e+00
1.161536e+01	-2.729588e+00
1.168245e+01	-2.753294e+00
1.174992e+01	-2.776734e+00
1.181779e+01	-2.800498e+00
1.188605e+01	-2.824297e+00
1.195470e+01	-2.848220e+00
1.202375e+01	-2.872428e+00
1.209320e+01	-2.896546e+00
1.216305e+01	-2.920945e+00
1.223330e+01	-2.945540e+00
1.230396e+01	-2.970266e+00
1.237503e+01	-2.995161e+00
1.244651e+01	-3.020088e+00
1.251840e+01	-3.045214e+00
1.259070e+01	-3.070624e+00
1.266343e+01	-3.095913e+00
1.273657e+01	-3.121542e+00
1.281014e+01	-3.147197e+00
1.288413e+01	-3.173376e+00
1.295855e+01	-3.199165e+00
1.303339e+01	-3.225437e+00
1.310867e+01	-3.251678e+00
1.318439e+01	-3.278234e+00
1.326054e+01	-3.304549e+00
1.333713e+01	-3.331110e+00
1.341417e+01	-3.358316e+00
1.349165e+01	-3.385465e+00
1.356958e+01	-3.412420e+00
1.364795e+01	-3.439617e+00
1.372678e+01	-3.467026e+00
1.380607e+01	-3.494609e+00
1.388581e+01	-3.522455e+00
1.396602e+01	-3.550214e+00
1.404668e+01	-3.578289e+00
1.412782e+01	-3.606528e+00
1.420942e+01	-3.634501e+00
1.429149e+01	-3.663048e+00
1.437404e+01	-3.691687e+00
1.445706e+01	-3.720544e+00
1.454057e+01	-3.749038e+00
1.462455e+01	-3.778499e+00
1.470902e+01	-3.807229e+00
1.479398e+01	-3.836468e+00
1.487943e+01	-3.866052e+00
1.496537e+01	-3.896009e+00
1.505181e+01	-3.925482e+00
1.513875e+01	-3.955453e+00
1.522619e+01	-3.984979e+00
1.531414e+01	-4.015111e+00
1.540259e+01	-4.045685e+00
1.549156e+01	-4.075876e+00
1.558103e+01	-4.106501e+00
1.567103e+01	-4.137329e+00
1.576155e+01	-4.168105e+00
1.585258e+01	-4.198950e+00
1.594415e+01	-4.230137e+00
1.603624e+01	-4.261100e+00
1.612886e+01	-4.292421e+00
1.622202e+01	-4.323935e+00
1.631572e+01	-4.355377e+00
1.640996e+01	-4.387117e+00
1.650474e+01	-4.419111e+00
1.660008e+01	-4.450895e+00
1.669596e+01	-4.483416e+00
1.679239e+01	-4.515646e+00
1.688938e+01	-4.547969e+00
1.698694e+01	-4.580628e+00
1.708505e+01	-4.613308e+00
1.718373e+01	-4.645949e+00
1.728299e+01	-4.679028e+00
1.738281e+01	-4.711941e+00
1.748322e+01	-4.745449e+00
1.758420e+01	-4.778795e+00
1.768576e+01	-4.811811e+00
1.778792e+01	-4.845517e+00
1.789066e+01	-4.879185e+00
1.799399e+01	-4.913014e+00
1.809793e+01	-4.946960e+00
1.820246e+01	-4.980780e+00
1.830760e+01	-5.015431e+00
1.841334e+01	-5.049586e+00
1.851969e+01	-5.083958e+00
1.862666e+01	-5.118632e+00
1.873425e+01	-5.153109e+00
1.884246e+01	-5.187837e+00
1.895129e+01	-5.223219e+00
1.906075e+01	-5.257797e+00
1.917085e+01	-5.293347e+00
1.928158e+01	-5.328766e+00
1.939295e+01	-5.363976e+00
1.950496e+01	-5.399756e+00
1.961762e+01	-5.435128e+00
1.973093e+01	-5.470868e+00
1.984490e+01	-5.506649e+00
1.995952e+01	-5.543120e+00
2.007480e+01	-5.579224e+00
2.019076e+01	-5.615090e+00
2.030738e+01	-5.651615e+00
2.042467e+01	-5.688164e+00
2.054264e+01	-5.724416e+00
2.066130e+01	-5.761288e+00
2.078064e+01	-5.798203e+00
2.090066e+01	-5.835180e+00
2.102139e+01	-5.871837e+00
2.114280e+01	-5.908989e+00
2.126492e+01	-5.946453e+00
2.138775e+01	-5.984150e+00
2.151128e+01	-6.021291e+00
2.163553e+01	-6.059056e+00
2.176050e+01	-6.096502e+00
2.188619e+01	-6.134155e+00
2.201260e+01	-6.172408e+00
2.213974e+01	-6.210365e+00
2.226762e+01	-6.248405e+00
2.239624e+01	-6.286666e+00
2.252560e+01	-6.324887e+00
2.265571e+01	-6.362935e+00
2.278656e+01	-6.401810e+00
2.291818e+01	-6.440066e+00
2.305055e+01	-6.478856e+00
2.318369e+01	-6.518063e+00
2.331760e+01	-6.556934e+00
2.345228e+01	-6.596012e+00
2.358774e+01	-6.635034e+00
2.372398e+01	-6.673934e+00
2.386101e+01	-6.713718e+00
2.399883e+01	-6.752820e+00
2.413745e+01	-6.792452e+00
2.427686e+01	-6.831812e+00
2.441709e+01	-6.871854e+00
2.455812e+01	-6.911269e+00
2.469997e+01	-6.951196e+00
2.484263e+01	-6.991229e+00
2.498612e+01	-7.031861e+00
2.513044e+01	-7.071350e+00
2.527559e+01	-7.111529e+00
2.542158e+01	-7.152351e+00
2.556842e+01	-7.192504e+00
2.571610e+01	-7.233054e+00
2.586463e+01	-7.273494e+00
2.601403e+01	-7.314333e+00
2.616428e+01	-7.355272e+00
2.631541e+01	-7.396469e+00
2.646740e+01	-7.436820e+00
2.662028e+01	-7.478254e+00
2.677404e+01	-7.519385e+00
2.692868e+01	-7.560900e+00
2.708422e+01	-7.602188e+00
2.724066e+01	-7.643153e+00
2.739800e+01	-7.684180e+00
2.755625e+01	-7.726160e+00
2.771541e+01	-7.767552e+00
2.787550e+01	-7.809335e+00
2.803650e+01	-7.851594e+00
2.819844e+01	-7.893070e+00
2.836131e+01	-7.935019e+00
2.852513e+01	-7.976702e+00
2.868989e+01	-8.019300e+00
2.885560e+01	-8.061706e+00
2.902227e+01	-8.103305e+00
2.918990e+01	-8.145641e+00
2.935850e+01	-8.188263e+00
2.952807e+01	-8.230972e+00
2.969863e+01	-8.273334e+00
2.987016e+01	-8.315654e+00
3.004269e+01	-8.358958e+00
3.021622e+01	-8.401417e+00
3.039075e+01	-8.444085e+00
3.056628e+01	-8.487167e+00
3.074283e+01	-8.529877e+00
3.092040e+01	-8.572870e+00
3.109900e+01	-8.616379e+00
3.127862e+01	-8.659707e+00
3.145929e+01	-8.702989e+00
3.164099e+01	-8.746183e+00
3.182375e+01	-8.789511e+00
3.200756e+01	-8.832964e+00
3.219244e+01	-8.876477e+00
3.237838e+01	-8.920149e+00
3.256540e+01	-8.963556e+00
3.275349e+01	-9.006838e+00
3.294268e+01	-9.050861e+00
3.313295e+01	-9.095061e+00
3.332433e+01	-9.138885e+00
3.351681e+01	-9.183086e+00
3.371040e+01	-9.226700e+00
3.390511e+01	-9.270736e+00
3.410094e+01	-9.315318e+00
3.429791e+01	-9.359479e+00
3.449601e+01	-9.403573e+00
3.469526e+01	-9.447387e+00
3.489566e+01	-9.492077e+00
3.509721e+01	-9.536260e+00
3.529993e+01	-9.580987e+00
3.550382e+01	-9.625490e+00
3.570889e+01	-9.670275e+00
3.591515e+01	-9.714871e+00
3.612259e+01	-9.759690e+00
3.633123e+01	-9.804369e+00
3.654108e+01	-9.849514e+00
3.675214e+01	-9.894244e+00
3.696442e+01	-9.939387e+00
3.717792e+01	-9.983912e+00
3.739266e+01	-1.002861e+01
3.760864e+01	-1.007383e+01
3.782587e+01	-1.011973e+01
3.804435e+01	-1.016485e+01
3.826409e+01	-1.020965e+01
3.848510e+01	-1.025470e+01
3.870739e+01	-1.030007e+01
3.893096e+01	-1.034561e+01
3.915583e+01	-1.039123e+01
3.938199e+01	-1.043665e+01
3.960946e+01	-1.048207e+01
3.983824e+01	-1.052784e+01
4.006834e+01	-1.057320e+01
4.029978e+01	-1.061879e+01
4.053255e+01	-1.066400e+01
4.076666e+01	-1.071041e+01
4.100213e+01	-1.075590e+01
4.123896e+01	-1.080213e+01
4.147715e+01	-1.084816e+01
4.171672e+01	-1.089346e+01
4.195767e+01	-1.093932e+01
4.220002e+01	-1.098610e+01
4.244377e+01	-1.103186e+01
4.268892e+01	-1.107814e+01
4.293549e+01	-1.112410e+01
4.318348e+01	-1.117027e+01
4.343291e+01	-1.121627e+01
4.368377e+01	-1.126283e+01
4.393609e+01	-1.130910e+01
4.418986e+01	-1.135532e+01
4.444510e+01	-1.140217e+01
4.470182e+01	-1.144819e+01
4.496001e+01	-1.149493e+01
4.521970e+01	-1.154098e+01
4.548089e+01	-1.158701e+01
4.574358e+01	-1.163413e+01
4.600779e+01	-1.168084e+01
4.627353e+01	-1.172694e+01
4.654081e+01	-1.177435e+01
4.680963e+01	-1.182122e+01
4.708000e+01	-1.186817e+01
4.735193e+01	-1.191488e+01
4.762543e+01	-1.196182e+01
4.790051e+01	-1.200881e+01
4.817719e+01	-1.205561e+01
4.845545e+01	-1.210188e+01
4.873533e+01	-1.214909e+01
4.901682e+01	-1.219589e+01
4.929994e+01	-1.224287e+01
4.958470e+01	-1.229029e+01
4.987110e+01	-1.233781e+01
5.015915e+01	-1.238455e+01
5.044887e+01	-1.243211e+01
5.074026e+01	-1.247864e+01
5.103333e+01	-1.252587e+01
5.132810e+01	-1.257280e+01
5.162457e+01	-1.262040e+01
5.192275e+01	-1.266859e+01
5.222265e+01	-1.271410e+01
5.252429e+01	-1.276242e+01
5.282767e+01	-1.280987e+01
5.313280e+01	-1.285693e+01
5.343969e+01	-1.290457e+01
5.374836e+01	-1.295195e+01
5.405880e+01	-1.299976e+01
5.437105e+01	-1.304769e+01
5.468509e+01	-1.309471e+01
5.500095e+01	-1.314185e+01
5.531863e+01	-1.319054e+01
5.563815e+01	-1.323785e+01
5.595951e+01	-1.328478e+01
5.628273e+01	-1.333295e+01
5.660782e+01	-1.338043e+01
5.693479e+01	-1.342857e+01
5.726364e+01	-1.347650e+01
5.759439e+01	-1.352430e+01
5.792705e+01	-1.357166e+01
5.826164e+01	-1.361937e+01
5.859815e+01	-1.366695e+01
5.893662e+01	-1.371510e+01
5.927703e+01	-1.376349e+01
5.961941e+01	-1.381070e+01
5.996377e+01	-1.385855e+01
6.031012e+01	-1.390682e+01
6.065847e+01	-1.395483e+01
6.100883e+01	-1.400266e+01
6.136121e+01	-1.405041e+01
6.171563e+01	-1.409943e+01
6.207210e+01	-1.414717e+01
6.243063e+01	-1.419584e+01
6.279122e+01	-1.424333e+01
6.315390e+01	-1.429179e+01
6.351868e+01	-1.434034e+01
6.388556e+01	-1.438774e+01
6.425456e+01	-1.443634e+01
6.462569e+01	-1.448372e+01
6.499897e+01	-1.453245e+01
6.537440e+01	-1.458102e+01
6.575200e+01	-1.462916e+01
6.613178e+01	-1.467807e+01
6.651375e+01	-1.472529e+01
6.689793e+01	-1.477486e+01
6.728433e+01	-1.482286e+01
6.767297e+01	-1.487137e+01
6.806384e+01	-1.491932e+01
6.845698e+01	-1.496759e+01
6.885238e+01	-1.501533e+01
6.925007e+01	-1.506513e+01
6.965005e+01	-1.511311e+01
7.005235e+01	-1.516193e+01
7.045697e+01	-1.521073e+01
7.086393e+01	-1.525915e+01
7.127323e+01	-1.530690e+01
7.168490e+01	-1.535596e+01
7.209895e+01	-1.540406e+01
7.251539e+01	-1.545286e+01
7.293424e+01	-1.550262e+01
7.335551e+01	-1.555043e+01
7.377920e+01	-1.559877e+01
7.420535e+01	-1.564776e+01
7.463396e+01	-1.569612e+01
7.506504e+01	-1.574524e+01
7.549861e+01	-1.579411e+01
7.593469e+01	-1.584232e+01
7.637328e+01	-1.589045e+01
7.681441e+01	-1.594018e+01
7.725809e+01	-1.598958e+01
7.770433e+01	-1.603734e+01
7.815315e+01	-1.608684e+01
7.860456e+01	-1.613526e+01
7.905857e+01	-1.618450e+01
7.951521e+01	-1.623267e+01
7.997449e+01	-1.628257e+01
8.043642e+01	-1.633074e+01
8.090102e+01	-1.637946e+01
8.136830e+01	-1.642781e+01
8.183828e+01	-1.647669e+01
8.231097e+01	-1.652545e+01
8.278640e+01	-1.657599e+01
8.326457e+01	-1.662447e+01
8.374550e+01	-1.667280e+01
8.422921e+01	-1.672054e+01
8.471572e+01	-1.677208e+01
8.520503e+01	-1.681968e+01
8.569717e+01	-1.686842e+01
8.619215e+01	-1.691801e+01
8.669000e+01	-1.696637e+01
8.719071e+01	-1.701483e+01
8.769432e+01	-1.706425e+01
8.820084e+01	-1.711455e+01
8.871029e+01	-1.716336e+01
8.922267e+01	-1.721165e+01
8.973802e+01	-1.726077e+01
9.025634e+01	-1.730986e+01
9.077766e+01	-1.735891e+01
9.130199e+01	-1.740907e+01
9.182935e+01	-1.745796e+01
9.235975e+01	-1.750676e+01
9.289321e+01	-1.755605e+01
9.342976e+01	-1.760347e+01
9.396941e+01	-1.765471e+01
9.451217e+01	-1.770375e+01
9.505807e+01	-1.775250e+01
9.560712e+01	-1.780121e+01
9.615934e+01	-1.785080e+01
9.671476e+01	-1.789977e+01
9.727338e+01	-1.794896e+01
9.783522e+01	-1.799809e+01
9.840032e+01	-1.804832e+01
9.896867e+01	-1.809814e+01
9.954031e+01	-1.814666e+01
1.001153e+02	-1.819657e+01
1.006935e+02	-1.824544e+01
1.012751e+02	-1.829391e+01
1.018601e+02	-1.834355e+01
1.024484e+02	-1.839395e+01
1.030402e+02	-1.844076e+01
1.036353e+02	-1.849246e+01
1.042339e+02	-1.854190e+01
1.048360e+02	-1.858952e+01
1.054415e+02	-1.863838e+01
1.060505e+02	-1.868913e+01
1.066631e+02	-1.873778e+01
1.072791e+02	-1.878868e+01
1.078988e+02	-1.883478e+01
1.085220e+02	-1.888791e+01
1.091488e+02	-1.893696e+01
1.097793e+02	-1.898586e+01
1.104133e+02	-1.903450e+01
1.110511e+02	-1.908397e+01
1.116925e+02	-1.913319e+01
1.123376e+02	-1.918370e+01
1.129865e+02	-1.923332e+01
1.136391e+02	-1.928246e+01
1.142955e+02	-1.933089e+01
1.149556e+02	-1.938192e+01
1.156196e+02	-1.943051e+01
1.162874e+02	-1.947888e+01
1.169591e+02	-1.952779e+01
1.176347e+02	-1.957870e+01
1.183141e+02	-1.962817e+01
1.189975e+02	-1.967593e+01
1.196848e+02	-1.972804e+01
1.203761e+02	-1.977674e+01
1.210714e+02	-1.982669e+01
1.217707e+02	-1.987625e+01
1.224740e+02	-1.992606e+01
1.231814e+02	-1.997447e+01
1.238929e+02	-2.002368e+01
1.246085e+02	-2.007433e+01
1.253283e+02	-2.012247e+01
1.260522e+02	-2.017333e+01
1.267802e+02	-2.022141e+01
1.275125e+02	-2.026976e+01
1.282490e+02	-2.032066e+01
1.289898e+02	-2.037101e+01
1.297348e+02	-2.042124e+01
1.304842e+02	-2.046876e+01
1.312378e+02	-2.052197e+01
1.319959e+02	-2.056784e+01
1.327583e+02	-2.061972e+01
1.335251e+02	-2.066859e+01
1.342963e+02	-2.071834e+01
1.350720e+02	-2.076676e+01
1.358522e+02	-2.081829e+01
1.366368e+02	-2.086801e+01
1.374260e+02	-2.091550e+01
1.382198e+02	-2.096615e+01
1.390182e+02	-2.101596e+01
1.398211e+02	-2.106670e+01
1.406287e+02	-2.111596e+01
1.414410e+02	-2.116484e+01
1.422579e+02	-2.121444e+01
1.430796e+02	-2.126496e+01
1.439060e+02	-2.131290e+01
1.447372e+02	-2.136386e+01
1.455732e+02	-2.141150e+01
1.464141e+02	-2.146335e+01
1.472597e+02	-2.151399e+01
1.481103e+02	-2.156269e+01
1.489658e+02	-2.161392e+01
1.498262e+02	-2.166287e+01
1.506916e+02	-2.171101e+01
1.515620e+02	-2.176285e+01
1.524374e+02	-2.181080e+01
1.533179e+02	-2.186204e+01
1.542034e+02	-2.190842e+01
1.550941e+02	-2.196129e+01
1.559899e+02	-2.200767e+01
1.568909e+02	-2.205837e+01
1.577971e+02	-2.210866e+01
1.587085e+02	-2.215852e+01
1.596252e+02	-2.220882e+01
1.605472e+02	-2.225821e+01
1.614745e+02	-2.230675e+01
1.624072e+02	-2.235869e+01
1.633453e+02	-2.240882e+01
1.642887e+02	-2.245690e+01
1.652377e+02	-2.250948e+01
1.661921e+02	-2.255898e+01
1.671520e+02	-2.260770e+01
1.681175e+02	-2.265318e+01
1.690885e+02	-2.270707e+01
1.700651e+02	-2.275688e+01
1.710474e+02	-2.280496e+01
1.720354e+02	-2.285560e+01
1.730291e+02	-2.290595e+01
1.740285e+02	-2.295530e+01
1.750337e+02	-2.300498e+01
1.760446e+02	-2.305579e+01
1.770615e+02	-2.310349e+01
1.780842e+02	-2.315519e+01
1.791128e+02	-2.320511e+01
1.801473e+02	-2.325326e+01
1.811878e+02	-2.330337e+01
1.822344e+02	-2.335466e+01
1.832870e+02	-2.340669e+01
1.843456e+02	-2.345352e+01
1.854104e+02	-2.350260e+01
1.864813e+02	-2.355363e+01
1.875584e+02	-2.360218e+01
1.886418e+02	-2.365213e+01
1.897313e+02	-2.370254e+01
1.908272e+02	-2.375326e+01
1.919294e+02	-2.380082e+01
1.930380e+02	-2.385317e+01
1.941530e+02	-2.390430e+01
1.952744e+02	-2.395260e+01
1.964023e+02	-2.400004e+01
1.975367e+02	-2.405156e+01
1.986777e+02	-2.410274e+01
1.998252e+02	-2.415253e+01
2.009794e+02	-2.419925e+01
2.021403e+02	-2.425185e+01
2.033078e+02	-2.430177e+01
2.044821e+02	-2.434950e+01
2.056632e+02	-2.440023e+01
2.068511e+02	-2.444950e+01
2.080459e+02	-2.449986e+01
2.092475e+02	-2.454952e+01
2.104561e+02	-2.460195e+01
2.116717e+02	-2.464986e+01
2.128943e+02	-2.470060e+01
2.141240e+02	-2.474920e+01
2.153608e+02	-2.479946e+01
2.166047e+02	-2.484990e+01
2.178558e+02	-2.489642e+01
2.191141e+02	-2.494915e+01
2.203797e+02	-2.500404e+01
2.216526e+02	-2.505227e+01
2.229329e+02	-2.509762e+01
2.242205e+02	-2.514783e+01
2.255156e+02	-2.519701e+01
2.268182e+02	-2.525057e+01
2.281283e+02	-2.529860e+01
2.294459e+02	-2.535152e+01
2.307712e+02	-2.540039e+01
2.321041e+02	-2.545033e+01
2.334447e+02	-2.549948e+01
2.347931e+02	-2.554805e+01
2.361493e+02	-2.559343e+01
2.375133e+02	-2.564919e+01
2.388851e+02	-2.569970e+01
2.402649e+02	-2.574633e+01
2.416527e+02	-2.579557e+01
2.430484e+02	-2.584867e+01
2.444523e+02	-2.589845e+01
2.458642e+02	-2.594950e+01
2.472843e+02	-2.600170e+01
2.487126e+02	-2.604671e+01
2.501492e+02	-2.609906e+01
2.515940e+02	-2.614869e+01
2.530472e+02	-2.619876e+01
2.545088e+02	-2.624960e+01
2.559789e+02	-2.629709e+01
2.574574e+02	-2.635153e+01
2.589444e+02	-2.639847e+01
2.604401e+02	-2.644557e+01
2.619444e+02	-2.649914e+01
2.634574e+02	-2.654710e+01
2.649791e+02	-2.659641e+01
2.665096e+02	-2.664823e+01
2.680489e+02	-2.669801e+01
2.695972e+02	-2.674797e+01
2.711544e+02	-2.679904e+01
2.727205e+02	-2.684720e+01
2.742958e+02	-2.689448e+01
2.758801e+02	-2.694811e+01
2.774736e+02	-2.699305e+01
2.790762e+02	-2.704745e+01
2.806882e+02	-2.709598e+01
2.823094e+02	-2.714864e+01
2.839400e+02	-2.719620e+01
2.855800e+02	-2.724800e+01
2.872295e+02	-2.729830e+01
2.888886e+02	-2.734801e+01
2.905572e+02	-2.739653e+01
2.922354e+02	-2.744821e+01
2.939234e+02	-2.749658e+01
2.956211e+02	-2.754766e+01
2.973286e+02	-2.759579e+01
2.990459e+02	-2.764572e+01
3.007732e+02	-2.768713e+01
3.025104e+02	-2.774710e+01
3.042577e+02	-2.779943e+01
3.060151e+02	-2.784365e+01
3.077826e+02	-2.789844e+01
3.095604e+02	-2.794365e+01
3.113484e+02	-2.799557e+01
3.131467e+02	-2.805157e+01
3.149554e+02	-2.809716e+01
3.167746e+02	-2.814961e+01
3.186043e+02	-2.819747e+01
3.204445e+02	-2.824620e+01
3.222954e+02	-2.829695e+01
3.241570e+02	-2.834644e+01
3.260293e+02	-2.839930e+01
3.279124e+02	-2.844693e+01
3.298064e+02	-2.849996e+01
3.317114e+02	-2.854892e+01
3.336273e+02	-2.859725e+01
3.355544e+02	-2.864709e+01
3.374925e+02	-2.869529e+01
3.394418e+02	-2.874734e+01
3.414024e+02	-2.879972e+01
3.433744e+02	-2.884255e+01
3.453577e+02	-2.889824e+01
3.473525e+02	-2.894460e+01
3.493588e+02	-2.899523e+01
3.513766e+02	-2.905125e+01
3.534062e+02	-2.909854e+01
3.554474e+02	-2.914693e+01
3.575005e+02	-2.920148e+01
3.595654e+02	-2.925320e+01
3.616422e+02	-2.929723e+01
3.637311e+02	-2.934866e+01
3.658320e+02	-2.940220e+01
3.679450e+02	-2.945011e+01
3.700702e+02	-2.949688e+01
3.722077e+02	-2.954815e+01
3.743576e+02	-2.959792e+01
3.765199e+02	-2.964853e+01
3.786946e+02	-2.969974e+01
3.808820e+02	-2.975271e+01
3.830819e+02	-2.979394e+01
3.852946e+02	-2.984892e+01
3.875200e+02	-2.990061e+01
3.897583e+02	-2.995176e+01
3.920096e+02	-3.000357e+01
3.942738e+02	-3.004827e+01
3.965511e+02	-3.009728e+01
3.988416e+02	-3.015182e+01
4.011452e+02	-3.020298e+01
4.034622e+02	-3.025744e+01
4.057926e+02	-3.029994e+01
4.081365e+02	-3.035050e+01
4.104938e+02	-3.039800e+01
4.128648e+02	-3.044840e+01
4.152495e+02	-3.050706e+01
4.176480e+02	-3.055598e+01
4.200603e+02	-3.059605e+01
4.224866e+02	-3.065281e+01
4.249268e+02	-3.069930e+01
4.273812e+02	-3.075204e+01
4.298497e+02	-3.080119e+01
4.323325e+02	-3.085258e+01
4.348297e+02	-3.090417e+01
4.373412e+02	-3.095219e+01
4.398673e+02	-3.100166e+01
4.424079e+02	-3.105056e+01
4.449633e+02	-3.110242e+01
4.475334e+02	-3.115585e+01
4.501183e+02	-3.120374e+01
4.527182e+02	-3.125135e+01
4.553330e+02	-3.130919e+01
4.579630e+02	-3.135605e+01
4.606082e+02	-3.140205e+01
4.632687e+02	-3.145924e+01
4.659445e+02	-3.150165e+01
4.686358e+02	-3.155279e+01
4.713426e+02	-3.160346e+01
4.740650e+02	-3.165428e+01
4.768032e+02	-3.170738e+01
4.795572e+02	-3.175567e+01
4.823271e+02	-3.181158e+01
4.851130e+02	-3.185526e+01
4.879150e+02	-3.190991e+01
4.907332e+02	-3.194974e+01
4.935676e+02	-3.201367e+01
4.964185e+02	-3.205689e+01
4.992858e+02	-3.211205e+01
5.021696e+02	-3.215236e+01
5.050701e+02	-3.220679e+01
5.079874e+02	-3.225948e+01
5.109215e+02	-3.230553e+01
5.138726e+02	-3.235660e+01
5.168407e+02	-3.240892e+01
5.198259e+02	-3.245272e+01
5.228284e+02	-3.250524e+01
5.258482e+02	-3.255890e+01
5.288855e+02	-3.261350e+01
5.319403e+02	-3.265725e+01
5.350128e+02	-3.270394e+01
5.381030e+02	-3.276293e+01
5.412111e+02	-3.280845e+01
5.443371e+02	-3.284881e+01
5.474812e+02	-3.291284e+01
5.506434e+02	-3.295533e+01
5.538239e+02	-3.301131e+01
5.570228e+02	-3.305945e+01
5.602401e+02	-3.311323e+01
5.634760e+02	-3.316806e+01
5.667306e+02	-3.321044e+01
5.700040e+02	-3.326481e+01
5.732964e+02	-3.331662e+01
5.766077e+02	-3.336246e+01
5.799382e+02	-3.341874e+01
5.832879e+02	-3.346562e+01
5.866569e+02	-3.350722e+01
5.900454e+02	-3.355455e+01
5.934535e+02	-3.360694e+01
5.968813e+02	-3.365856e+01
6.003288e+02	-3.371023e+01
6.037963e+02	-3.376091e+01
6.072838e+02	-3.381494e+01
6.107914e+02	-3.386907e+01
6.143194e+02	-3.392317e+01
6.178676e+02	-3.396451e+01
6.214364e+02	-3.401456e+01
6.250258e+02	-3.407164e+01
6.286359e+02	-3.411605e+01
6.322669e+02	-3.417204e+01
6.359189e+02	-3.421645e+01
6.395919e+02	-3.427138e+01
6.432862e+02	-3.431668e+01
6.470017e+02	-3.437339e+01
6.507388e+02	-3.442252e+01
6.544974e+02	-3.447851e+01
6.582778e+02	-3.451892e+01
6.620800e+02	-3.456334e+01
6.659041e+02	-3.462434e+01
6.697504e+02	-3.467038e+01
6.736188e+02	-3.472520e+01
6.775096e+02	-3.476740e+01
6.814229e+02	-3.482026e+01
6.853587e+02	-3.487804e+01
6.893173e+02	-3.492622e+01
6.932988e+02	-3.497212e+01
6.973033e+02	-3.502548e+01
7.013309e+02	-3.507177e+01
