Frequency(Hz)	Magnitude(dB)
1.000000e+01	-1.789502e-05
1.005776e+01	-1.810234e-05
1.011585e+01	-1.831206e-05
1.017428e+01	-1.852421e-05
1.023305e+01	-1.873882e-05
1.029215e+01	-1.895591e-05
1.035160e+01	-1.917552e-05
1.041139e+01	-1.939767e-05
1.047153e+01	-1.962240e-05
1.053201e+01	-1.984973e-05
1.059284e+01	-2.007970e-05
1.065403e+01	-2.031232e-05
1.071556e+01	-2.054765e-05
1.077746e+01	-2.078570e-05
1.083971e+01	-2.102651e-05
1.090232e+01	-2.127010e-05
1.096529e+01	-2.151652e-05
1.102862e+01	-2.176580e-05
1.109232e+01	-2.201796e-05
1.115639e+01	-2.227304e-05
1.122083e+01	-2.253108e-05
1.128564e+01	-2.279211e-05
1.135083e+01	-2.305616e-05
1.141639e+01	-2.332327e-05
1.148233e+01	-2.359348e-05
1.154865e+01	-2.386682e-05
1.161536e+01	-2.414332e-05
1.168245e+01	-2.442302e-05
1.174992e+01	-2.470597e-05
1.181779e+01	-2.499220e-05
1.188605e+01	-2.528174e-05
1.195470e+01	-2.557463e-05
1.202375e+01	-2.587092e-05
1.209320e+01	-2.617064e-05
1.216305e+01	-2.647383e-05
1.223330e+01	-2.678054e-05
1.230396e+01	-2.709080e-05
1.237503e+01	-2.740465e-05
1.244651e+01	-2.772214e-05
1.251840e+01	-2.804331e-05
1.259070e+01	-2.836820e-05
1.266343e+01	-2.869685e-05
1.273657e+01	-2.902931e-05
1.281014e+01	-2.936562e-05
1.288413e+01	-2.970583e-05
1.295855e+01	-3.004998e-05
1.303339e+01	-3.039812e-05
1.310867e+01	-3.075029e-05
1.318439e+01	-3.110653e-05
1.326054e+01	-3.146691e-05
1.333713e+01	-3.183146e-05
1.341417e+01	-3.220024e-05
1.349165e+01	-3.257329e-05
1.356958e+01	-3.295065e-05
1.364795e+01	-3.333240e-05
1.372678e+01	-3.371856e-05
1.380607e+01	-3.410920e-05
1.388581e+01	-3.450436e-05
1.396602e+01	-3.490410e-05
1.404668e+01	-3.530847e-05
1.412782e+01	-3.571753e-05
1.420942e+01	-3.613133e-05
1.429149e+01	-3.654992e-05
1.437404e+01	-3.697335e-05
1.445706e+01	-3.740170e-05
1.454057e+01	-3.783501e-05
1.462455e+01	-3.827333e-05
1.470902e+01	-3.871674e-05
1.479398e+01	-3.916528e-05
1.487943e+01	-3.961902e-05
1.496537e+01	-4.007802e-05
1.505181e+01	-4.054233e-05
1.513875e+01	-4.101202e-05
1.522619e+01	-4.148715e-05
1.531414e+01	-4.196779e-05
1.540259e+01	-4.245400e-05
1.549156e+01	-4.294584e-05
1.558103e+01	-4.344337e-05
1.567103e+01	-4.394668e-05
1.576155e+01	-4.445581e-05
1.585258e+01	-4.497084e-05
1.594415e+01	-4.549183e-05
1.603624e+01	-4.601887e-05
1.612886e+01	-4.655201e-05
1.622202e+01	-4.709132e-05
1.631572e+01	-4.763688e-05
1.640996e+01	-4.818877e-05
1.650474e+01	-4.874705e-05
1.660008e+01	-4.931179e-05
1.669596e+01	-4.988308e-05
1.679239e+01	-5.046098e-05
1.688938e+01	-5.104559e-05
1.698694e+01	-5.163696e-05
1.708505e+01	-5.223518e-05
1.718373e+01	-5.284034e-05
1.728299e+01	-5.345251e-05
1.738281e+01	-5.407176e-05
1.748322e+01	-5.469820e-05
1.758420e+01	-5.533189e-05
1.768576e+01	-5.597292e-05
1.778792e+01	-5.662138e-05
1.789066e+01	-5.727735e-05
1.799399e+01	-5.794092e-05
1.809793e+01	-5.861217e-05
1.820246e+01	-5.929121e-05
1.830760e+01	-5.997811e-05
1.841334e+01	-6.067297e-05
1.851969e+01	-6.137587e-05
1.862666e+01	-6.208693e-05
1.873425e+01	-6.280621e-05
1.884246e+01	-6.353384e-05
1.895129e+01	-6.426989e-05
1.906075e+01	-6.501447e-05
1.917085e+01	-6.576767e-05
1.928158e+01	-6.652960e-05
1.939295e+01	-6.730036e-05
1.950496e+01	-6.808005e-05
1.961762e+01	-6.886877e-05
1.973093e+01	-6.966663e-05
1.984490e+01	-7.047373e-05
1.995952e+01	-7.129018e-05
2.007480e+01	-7.211609e-05
2.019076e+01	-7.295157e-05
2.030738e+01	-7.379672e-05
2.042467e+01	-7.465167e-05
2.054264e+01	-7.551653e-05
2.066130e+01	-7.639140e-05
2.078064e+01	-7.727641e-05
2.090066e+01	-7.817167e-05
2.102139e+01	-7.907730e-05
2.114280e+01	-7.999342e-05
2.126492e+01	-8.092016e-05
2.138775e+01	-8.185763e-05
2.151128e+01	-8.280597e-05
2.163553e+01	-8.376529e-05
2.176050e+01	-8.473572e-05
2.188619e+01	-8.571740e-05
2.201260e+01	-8.671045e-05
2.213974e+01	-8.771501e-05
2.226762e+01	-8.873120e-05
2.239624e+01	-8.975916e-05
2.252560e+01	-9.079904e-05
2.265571e+01	-9.185096e-05
2.278656e+01	-9.291507e-05
2.291818e+01	-9.399150e-05
2.305055e+01	-9.508041e-05
2.318369e+01	-9.618193e-05
2.331760e+01	-9.729621e-05
2.345228e+01	-9.842340e-05
2.358774e+01	-9.956365e-05
2.372398e+01	-1.007171e-04
2.386101e+01	-1.018839e-04
2.399883e+01	-1.030643e-04
2.413745e+01	-1.042583e-04
2.427686e+01	-1.054661e-04
2.441709e+01	-1.066880e-04
2.455812e+01	-1.079240e-04
2.469997e+01	-1.091743e-04
2.484263e+01	-1.104391e-04
2.498612e+01	-1.117185e-04
2.513044e+01	-1.130128e-04
2.527559e+01	-1.143221e-04
2.542158e+01	-1.156465e-04
2.556842e+01	-1.169863e-04
2.571610e+01	-1.183416e-04
2.586463e+01	-1.197126e-04
2.601403e+01	-1.210995e-04
2.616428e+01	-1.225024e-04
2.631541e+01	-1.239216e-04
2.646740e+01	-1.253573e-04
2.662028e+01	-1.268096e-04
2.677404e+01	-1.282787e-04
2.692868e+01	-1.297648e-04
2.708422e+01	-1.312681e-04
2.724066e+01	-1.327889e-04
2.739800e+01	-1.343272e-04
2.755625e+01	-1.358834e-04
2.771541e+01	-1.374577e-04
2.787550e+01	-1.390501e-04
2.803650e+01	-1.406610e-04
2.819844e+01	-1.422906e-04
2.836131e+01	-1.439390e-04
2.852513e+01	-1.456066e-04
2.868989e+01	-1.472935e-04
2.885560e+01	-1.489999e-04
2.902227e+01	-1.507260e-04
2.918990e+01	-1.524722e-04
2.935850e+01	-1.542386e-04
2.952807e+01	-1.560255e-04
2.969863e+01	-1.578330e-04
2.987016e+01	-1.596616e-04
3.004269e+01	-1.615112e-04
3.021622e+01	-1.633824e-04
3.039075e+01	-1.652752e-04
3.056628e+01	-1.671899e-04
3.074283e+01	-1.691268e-04
3.092040e+01	-1.710861e-04
3.109900e+01	-1.730682e-04
3.127862e+01	-1.750732e-04
3.145929e+01	-1.771014e-04
3.164099e+01	-1.791531e-04
3.182375e+01	-1.812286e-04
3.200756e+01	-1.833282e-04
3.219244e+01	-1.854520e-04
3.237838e+01	-1.876005e-04
3.256540e+01	-1.897738e-04
3.275349e+01	-1.919724e-04
3.294268e+01	-1.941964e-04
3.313295e+01	-1.964461e-04
3.332433e+01	-1.987220e-04
3.351681e+01	-2.010242e-04
3.371040e+01	-2.033530e-04
3.390511e+01	-2.057089e-04
3.410094e+01	-2.080920e-04
3.429791e+01	-2.105028e-04
3.449601e+01	-2.129414e-04
3.469526e+01	-2.154084e-04
3.489566e+01	-2.179039e-04
3.509721e+01	-2.204283e-04
3.529993e+01	-2.229819e-04
3.550382e+01	-2.255652e-04
3.570889e+01	-2.281784e-04
3.591515e+01	-2.308218e-04
3.612259e+01	-2.334959e-04
3.633123e+01	-2.362009e-04
3.654108e+01	-2.389373e-04
3.675214e+01	-2.417054e-04
3.696442e+01	-2.445055e-04
3.717792e+01	-2.473381e-04
3.739266e+01	-2.502035e-04
3.760864e+01	-2.531021e-04
3.782587e+01	-2.560342e-04
3.804435e+01	-2.590004e-04
3.826409e+01	-2.620009e-04
3.848510e+01	-2.650361e-04
3.870739e+01	-2.681066e-04
3.893096e+01	-2.712126e-04
3.915583e+01	-2.743545e-04
3.938199e+01	-2.775329e-04
3.960946e+01	-2.807481e-04
3.983824e+01	-2.840005e-04
4.006834e+01	-2.872907e-04
4.029978e+01	-2.906189e-04
4.053255e+01	-2.939857e-04
4.076666e+01	-2.973915e-04
4.100213e+01	-3.008367e-04
4.123896e+01	-3.043219e-04
4.147715e+01	-3.078474e-04
4.171672e+01	-3.114138e-04
4.195767e+01	-3.150214e-04
4.220002e+01	-3.186709e-04
4.244377e+01	-3.223627e-04
4.268892e+01	-3.260972e-04
4.293549e+01	-3.298750e-04
4.318348e+01	-3.336965e-04
4.343291e+01	-3.375623e-04
4.368377e+01	-3.414729e-04
4.393609e+01	-3.454288e-04
4.418986e+01	-3.494306e-04
4.444510e+01	-3.534786e-04
4.470182e+01	-3.575736e-04
4.496001e+01	-3.617160e-04
4.521970e+01	-3.659065e-04
4.548089e+01	-3.701454e-04
4.574358e+01	-3.744335e-04
4.600779e+01	-3.787712e-04
4.627353e+01	-3.831592e-04
4.654081e+01	-3.875980e-04
4.680963e+01	-3.920882e-04
4.708000e+01	-3.966304e-04
4.735193e+01	-4.012253e-04
4.762543e+01	-4.058734e-04
4.790051e+01	-4.105753e-04
4.817719e+01	-4.153317e-04
4.845545e+01	-4.201432e-04
4.873533e+01	-4.250105e-04
4.901682e+01	-4.299341e-04
4.929994e+01	-4.349147e-04
4.958470e+01	-4.399531e-04
4.987110e+01	-4.450498e-04
5.015915e+01	-4.502056e-04
5.044887e+01	-4.554210e-04
5.074026e+01	-4.606969e-04
5.103333e+01	-4.660340e-04
5.132810e+01	-4.714328e-04
5.162457e+01	-4.768942e-04
5.192275e+01	-4.824188e-04
5.222265e+01	-4.880075e-04
5.252429e+01	-4.936608e-04
5.282767e+01	-4.993797e-04
5.313280e+01	-5.051648e-04
5.343969e+01	-5.110169e-04
5.374836e+01	-5.169369e-04
5.405880e+01	-5.229254e-04
5.437105e+01	-5.289832e-04
5.468509e+01	-5.351113e-04
5.500095e+01	-5.413103e-04
5.531863e+01	-5.475811e-04
5.563815e+01	-5.539246e-04
5.595951e+01	-5.603416e-04
5.628273e+01	-5.668328e-04
5.660782e+01	-5.733993e-04
5.693479e+01	-5.800419e-04
5.726364e+01	-5.867614e-04
5.759439e+01	-5.935587e-04
5.792705e+01	-6.004348e-04
5.826164e+01	-6.073905e-04
5.859815e+01	-6.144268e-04
5.893662e+01	-6.215446e-04
5.927703e+01	-6.287448e-04
5.961941e+01	-6.360284e-04
5.996377e+01	-6.433965e-04
6.031012e+01	-6.508498e-04
6.065847e+01	-6.583895e-04
6.100883e+01	-6.660166e-04
6.136121e+01	-6.737320e-04
6.171563e+01	-6.815367e-04
6.207210e+01	-6.894319e-04
6.243063e+01	-6.974185e-04
6.279122e+01	-7.054976e-04
6.315390e+01	-7.136703e-04
6.351868e+01	-7.219377e-04
6.388556e+01	-7.303009e-04
6.425456e+01	-7.387609e-04
6.462569e+01	-7.473189e-04
6.499897e+01	-7.559760e-04
6.537440e+01	-7.647335e-04
6.575200e+01	-7.735923e-04
6.613178e+01	-7.825538e-04
6.651375e+01	-7.916191e-04
6.689793e+01	-8.007893e-04
6.728433e+01	-8.100658e-04
6.767297e+01	-8.194498e-04
6.806384e+01	-8.289424e-04
6.845698e+01	-8.385450e-04
6.885238e+01	-8.482588e-04
6.925007e+01	-8.580852e-04
6.965005e+01	-8.680253e-04
7.005235e+01	-8.780806e-04
7.045697e+01	-8.882524e-04
7.086393e+01	-8.985420e-04
7.127323e+01	-9.089508e-04
7.168490e+01	-9.194801e-04
7.209895e+01	-9.301314e-04
7.251539e+01	-9.409060e-04
7.293424e+01	-9.518055e-04
7.335551e+01	-9.628312e-04
7.377920e+01	-9.739846e-04
7.420535e+01	-9.852672e-04
7.463396e+01	-9.966805e-04
7.506504e+01	-1.008226e-03
7.549861e+01	-1.019905e-03
7.593469e+01	-1.031720e-03
7.637328e+01	-1.043671e-03
7.681441e+01	-1.055761e-03
7.725809e+01	-1.067990e-03
7.770433e+01	-1.080362e-03
7.815315e+01	-1.092877e-03
7.860456e+01	-1.105536e-03
7.905857e+01	-1.118343e-03
7.951521e+01	-1.131297e-03
7.997449e+01	-1.144402e-03
8.043642e+01	-1.157658e-03
8.090102e+01	-1.171068e-03
8.136830e+01	-1.184634e-03
8.183828e+01	-1.198356e-03
8.231097e+01	-1.212237e-03
8.278640e+01	-1.226279e-03
8.326457e+01	-1.240484e-03
8.374550e+01	-1.254853e-03
8.422921e+01	-1.269389e-03
8.471572e+01	-1.284093e-03
8.520503e+01	-1.298967e-03
8.569717e+01	-1.314014e-03
8.619215e+01	-1.329235e-03
8.669000e+01	-1.344632e-03
8.719071e+01	-1.360208e-03
8.769432e+01	-1.375963e-03
8.820084e+01	-1.391902e-03
8.871029e+01	-1.408025e-03
8.922267e+01	-1.424334e-03
8.973802e+01	-1.440833e-03
9.025634e+01	-1.457523e-03
9.077766e+01	-1.474406e-03
9.130199e+01	-1.491484e-03
9.182935e+01	-1.508760e-03
9.235975e+01	-1.526237e-03
9.289321e+01	-1.543915e-03
9.342976e+01	-1.561799e-03
9.396941e+01	-1.579889e-03
9.451217e+01	-1.598189e-03
9.505807e+01	-1.616701e-03
9.560712e+01	-1.635428e-03
9.615934e+01	-1.654371e-03
9.671476e+01	-1.673534e-03
9.727338e+01	-1.692918e-03
9.783522e+01	-1.712527e-03
9.840032e+01	-1.732363e-03
9.896867e+01	-1.752429e-03
9.954031e+01	-1.772728e-03
1.001153e+02	-1.793261e-03
1.006935e+02	-1.814032e-03
1.012751e+02	-1.835043e-03
1.018601e+02	-1.856298e-03
1.024484e+02	-1.877799e-03
1.030402e+02	-1.899549e-03
1.036353e+02	-1.921551e-03
1.042339e+02	-1.943808e-03
1.048360e+02	-1.966323e-03
1.054415e+02	-1.989098e-03
1.060505e+02	-2.012137e-03
1.066631e+02	-2.035442e-03
1.072791e+02	-2.059018e-03
1.078988e+02	-2.082866e-03
1.085220e+02	-2.106991e-03
1.091488e+02	-2.131395e-03
1.097793e+02	-2.156082e-03
1.104133e+02	-2.181054e-03
1.110511e+02	-2.206316e-03
1.116925e+02	-2.231870e-03
1.123376e+02	-2.257720e-03
1.129865e+02	-2.283870e-03
1.136391e+02	-2.310322e-03
1.142955e+02	-2.337080e-03
1.149556e+02	-2.364149e-03
1.156196e+02	-2.391530e-03
1.162874e+02	-2.419229e-03
1.169591e+02	-2.447249e-03
1.176347e+02	-2.475593e-03
1.183141e+02	-2.504265e-03
1.189975e+02	-2.533269e-03
1.196848e+02	-2.562609e-03
1.203761e+02	-2.592288e-03
1.210714e+02	-2.622312e-03
1.217707e+02	-2.652682e-03
1.224740e+02	-2.683405e-03
1.231814e+02	-2.714483e-03
1.238929e+02	-2.745921e-03
1.246085e+02	-2.777723e-03
1.253283e+02	-2.809894e-03
1.260522e+02	-2.842436e-03
1.267802e+02	-2.875356e-03
1.275125e+02	-2.908656e-03
1.282490e+02	-2.942342e-03
1.289898e+02	-2.976419e-03
1.297348e+02	-3.010889e-03
1.304842e+02	-3.045759e-03
1.312378e+02	-3.081032e-03
1.319959e+02	-3.116714e-03
1.327583e+02	-3.152809e-03
1.335251e+02	-3.189322e-03
1.342963e+02	-3.226257e-03
1.350720e+02	-3.263620e-03
1.358522e+02	-3.301415e-03
1.366368e+02	-3.339648e-03
1.374260e+02	-3.378324e-03
1.382198e+02	-3.417447e-03
1.390182e+02	-3.457024e-03
1.398211e+02	-3.497058e-03
1.406287e+02	-3.537556e-03
1.414410e+02	-3.578522e-03
1.422579e+02	-3.619963e-03
1.430796e+02	-3.661884e-03
1.439060e+02	-3.704289e-03
1.447372e+02	-3.747186e-03
1.455732e+02	-3.790579e-03
1.464141e+02	-3.834475e-03
1.472597e+02	-3.878878e-03
1.481103e+02	-3.923796e-03
1.489658e+02	-3.969233e-03
1.498262e+02	-4.015196e-03
1.506916e+02	-4.061692e-03
1.515620e+02	-4.108725e-03
1.524374e+02	-4.156303e-03
1.533179e+02	-4.204431e-03
1.542034e+02	-4.253117e-03
1.550941e+02	-4.302366e-03
1.559899e+02	-4.352185e-03
1.568909e+02	-4.402581e-03
1.577971e+02	-4.453559e-03
1.587085e+02	-4.505128e-03
1.596252e+02	-4.557294e-03
1.605472e+02	-4.610063e-03
1.614745e+02	-4.663443e-03
1.624072e+02	-4.717441e-03
1.633453e+02	-4.772064e-03
1.642887e+02	-4.827319e-03
1.652377e+02	-4.883213e-03
1.661921e+02	-4.939754e-03
1.671520e+02	-4.996949e-03
1.681175e+02	-5.054806e-03
1.690885e+02	-5.113333e-03
1.700651e+02	-5.172537e-03
1.710474e+02	-5.232426e-03
1.720354e+02	-5.293008e-03
1.730291e+02	-5.354291e-03
1.740285e+02	-5.416283e-03
1.750337e+02	-5.478992e-03
1.760446e+02	-5.542427e-03
1.770615e+02	-5.606596e-03
1.780842e+02	-5.671508e-03
1.791128e+02	-5.737170e-03
1.801473e+02	-5.803592e-03
1.811878e+02	-5.870783e-03
1.822344e+02	-5.938750e-03
1.832870e+02	-6.007505e-03
1.843456e+02	-6.077054e-03
1.854104e+02	-6.147409e-03
1.864813e+02	-6.218577e-03
1.875584e+02	-6.290568e-03
1.886418e+02	-6.363393e-03
1.897313e+02	-6.437059e-03
1.908272e+02	-6.511578e-03
1.919294e+02	-6.586959e-03
1.930380e+02	-6.663212e-03
1.941530e+02	-6.740347e-03
1.952744e+02	-6.818374e-03
1.964023e+02	-6.897304e-03
1.975367e+02	-6.977147e-03
1.986777e+02	-7.057913e-03
1.998252e+02	-7.139613e-03
2.009794e+02	-7.222259e-03
2.021403e+02	-7.305860e-03
2.033078e+02	-7.390428e-03
2.044821e+02	-7.475974e-03
2.056632e+02	-7.562509e-03
2.068511e+02	-7.650045e-03
2.080459e+02	-7.738594e-03
2.092475e+02	-7.828167e-03
2.104561e+02	-7.918775e-03
2.116717e+02	-8.010431e-03
2.128943e+02	-8.103147e-03
2.141240e+02	-8.196935e-03
2.153608e+02	-8.291808e-03
2.166047e+02	-8.387778e-03
2.178558e+02	-8.484857e-03
2.191141e+02	-8.583059e-03
2.203797e+02	-8.682396e-03
2.216526e+02	-8.782882e-03
2.229329e+02	-8.884529e-03
2.242205e+02	-8.987352e-03
2.255156e+02	-9.091364e-03
2.268182e+02	-9.196578e-03
2.281283e+02	-9.303008e-03
2.294459e+02	-9.410668e-03
2.307712e+02	-9.519573e-03
2.321041e+02	-9.629738e-03
2.334447e+02	-9.741175e-03
2.347931e+02	-9.853901e-03
2.361493e+02	-9.967929e-03
2.375133e+02	-1.008328e-02
2.388851e+02	-1.019996e-02
2.402649e+02	-1.031798e-02
2.416527e+02	-1.043738e-02
2.430484e+02	-1.055815e-02
2.444523e+02	-1.068032e-02
2.458642e+02	-1.080390e-02
2.472843e+02	-1.092890e-02
2.487126e+02	-1.105536e-02
2.501492e+02	-1.118327e-02
2.515940e+02	-1.131266e-02
2.530472e+02	-1.144355e-02
2.545088e+02	-1.157595e-02
2.559789e+02	-1.170988e-02
2.574574e+02	-1.184535e-02
2.589444e+02	-1.198239e-02
2.604401e+02	-1.212102e-02
2.619444e+02	-1.226125e-02
2.634574e+02	-1.240309e-02
2.649791e+02	-1.254658e-02
2.665096e+02	-1.269172e-02
2.680489e+02	-1.283854e-02
2.695972e+02	-1.298705e-02
2.711544e+02	-1.313728e-02
2.727205e+02	-1.328925e-02
2.742958e+02	-1.344297e-02
2.758801e+02	-1.359846e-02
2.774736e+02	-1.375575e-02
2.790762e+02	-1.391486e-02
2.806882e+02	-1.407581e-02
2.823094e+02	-1.423861e-02
2.839400e+02	-1.440329e-02
2.855800e+02	-1.456988e-02
2.872295e+02	-1.473839e-02
2.888886e+02	-1.490884e-02
2.905572e+02	-1.508126e-02
2.922354e+02	-1.525568e-02
2.939234e+02	-1.543210e-02
2.956211e+02	-1.561056e-02
2.973286e+02	-1.579109e-02
2.990459e+02	-1.597369e-02
3.007732e+02	-1.615841e-02
3.025104e+02	-1.634525e-02
3.042577e+02	-1.653425e-02
3.060151e+02	-1.672544e-02
3.077826e+02	-1.691883e-02
3.095604e+02	-1.711445e-02
3.113484e+02	-1.731233e-02
3.131467e+02	-1.751249e-02
3.149554e+02	-1.771496e-02
3.167746e+02	-1.791977e-02
3.186043e+02	-1.812694e-02
3.204445e+02	-1.833650e-02
3.222954e+02	-1.854848e-02
3.241570e+02	-1.876290e-02
3.260293e+02	-1.897980e-02
3.279124e+02	-1.919919e-02
3.298064e+02	-1.942112e-02
3.317114e+02	-1.964561e-02
3.336273e+02	-1.987269e-02
3.355544e+02	-2.010238e-02
3.374925e+02	-2.033473e-02
3.394418e+02	-2.056975e-02
3.414024e+02	-2.080748e-02
3.433744e+02	-2.104796e-02
3.453577e+02	-2.129120e-02
3.473525e+02	-2.153725e-02
3.493588e+02	-2.178614e-02
3.513766e+02	-2.203790e-02
3.534062e+02	-2.229255e-02
3.554474e+02	-2.255015e-02
3.575005e+02	-2.281071e-02
3.595654e+02	-2.307427e-02
3.616422e+02	-2.334087e-02
3.637311e+02	-2.361054e-02
3.658320e+02	-2.388332e-02
3.679450e+02	-2.415925e-02
3.700702e+02	-2.443835e-02
3.722077e+02	-2.472066e-02
3.743576e+02	-2.500623e-02
3.765199e+02	-2.529509e-02
3.786946e+02	-2.558727e-02
3.808820e+02	-2.588282e-02
3.830819e+02	-2.618177e-02
3.852946e+02	-2.648417e-02
3.875200e+02	-2.679005e-02
3.897583e+02	-2.709944e-02
3.920096e+02	-2.741240e-02
3.942738e+02	-2.772897e-02
3.965511e+02	-2.804917e-02
3.988416e+02	-2.837307e-02
4.011452e+02	-2.870068e-02
4.034622e+02	-2.903208e-02
4.057926e+02	-2.936728e-02
4.081365e+02	-2.970634e-02
4.104938e+02	-3.004930e-02
4.128648e+02	-3.039621e-02
4.152495e+02	-3.074711e-02
4.176480e+02	-3.110204e-02
4.200603e+02	-3.146106e-02
4.224866e+02	-3.182420e-02
4.249268e+02	-3.219152e-02
4.273812e+02	-3.256307e-02
4.298497e+02	-3.293888e-02
4.323325e+02	-3.331902e-02
4.348297e+02	-3.370353e-02
4.373412e+02	-3.409246e-02
4.398673e+02	-3.448585e-02
4.424079e+02	-3.488377e-02
4.449633e+02	-3.528626e-02
4.475334e+02	-3.569338e-02
4.501183e+02	-3.610517e-02
4.527182e+02	-3.652170e-02
4.553330e+02	-3.694301e-02
4.579630e+02	-3.736916e-02
4.606082e+02	-3.780020e-02
4.632687e+02	-3.823619e-02
4.659445e+02	-3.867719e-02
4.686358e+02	-3.912325e-02
4.713426e+02	-3.957443e-02
4.740650e+02	-4.003080e-02
4.768032e+02	-4.049240e-02
4.795572e+02	-4.095929e-02
4.823271e+02	-4.143155e-02
4.851130e+02	-4.190922e-02
4.879150e+02	-4.239238e-02
4.907332e+02	-4.288107e-02
4.935676e+02	-4.337538e-02
4.964185e+02	-4.387535e-02
4.992858e+02	-4.438105e-02
5.021696e+02	-4.489256e-02
5.050701e+02	-4.540992e-02
5.079874e+02	-4.593322e-02
5.109215e+02	-4.646252e-02
5.138726e+02	-4.699788e-02
5.168407e+02	-4.753938e-02
5.198259e+02	-4.808708e-02
5.228284e+02	-4.864105e-02
5.258482e+02	-4.920138e-02
5.288855e+02	-4.976812e-02
5.319403e+02	-5.034134e-02
5.350128e+02	-5.092114e-02
5.381030e+02	-5.150757e-02
5.412111e+02	-5.210071e-02
5.443371e+02	-5.270064e-02
5.474812e+02	-5.330744e-02
5.506434e+02	-5.392118e-02
5.538239e+02	-5.454195e-02
5.570228e+02	-5.516981e-02
5.602401e+02	-5.580486e-02
5.634760e+02	-5.644716e-02
5.667306e+02	-5.709681e-02
5.700040e+02	-5.775389e-02
5.732964e+02	-5.841848e-02
5.766077e+02	-5.909066e-02
5.799382e+02	-5.977053e-02
5.832879e+02	-6.045816e-02
5.866569e+02	-6.115365e-02
5.900454e+02	-6.185708e-02
5.934535e+02	-6.256855e-02
5.968813e+02	-6.328813e-02
6.003288e+02	-6.401593e-02
6.037963e+02	-6.475204e-02
6.072838e+02	-6.549655e-02
6.107914e+02	-6.624956e-02
6.143194e+02	-6.701115e-02
6.178676e+02	-6.778143e-02
6.214364e+02	-6.856050e-02
6.250258e+02	-6.934844e-02
6.286359e+02	-7.014537e-02
6.322669e+02	-7.095139e-02
6.359189e+02	-7.176658e-02
6.395919e+02	-7.259107e-02
6.432862e+02	-7.342495e-02
6.470017e+02	-7.426832e-02
6.507388e+02	-7.512130e-02
6.544974e+02	-7.598399e-02
6.582778e+02	-7.685649e-02
6.620800e+02	-7.773893e-02
6.659041e+02	-7.863140e-02
6.697504e+02	-7.953403e-02
6.736188e+02	-8.044692e-02
6.775096e+02	-8.137020e-02
6.814229e+02	-8.230396e-02
6.853587e+02	-8.324834e-02
6.893173e+02	-8.420345e-02
6.932988e+02	-8.516942e-02
6.973033e+02	-8.614635e-02
7.013309e+02	-8.713437e-02
