Frequency(Hz)	Magnitude(dB)
1.000000e+01	-2.188402e+00
1.005776e+01	-2.208122e+00
1.011585e+01	-2.228145e+00
1.017428e+01	-2.248500e+00
1.023305e+01	-2.268673e+00
1.029215e+01	-2.289163e+00
1.035160e+01	-2.309966e+00
1.041139e+01	-2.330389e+00
1.047153e+01	-2.351149e+00
1.053201e+01	-2.372031e+00
1.059284e+01	-2.393346e+00
1.065403e+01	-2.414602e+00
1.071556e+01	-2.436047e+00
1.077746e+01	-2.457574e+00
1.083971e+01	-2.479065e+00
1.090232e+01	-2.501009e+00
1.096529e+01	-2.523070e+00
1.102862e+01	-2.544909e+00
1.109232e+01	-2.567392e+00
1.115639e+01	-2.589812e+00
1.122083e+01	-2.612392e+00
1.128564e+01	-2.635128e+00
1.135083e+01	-2.657794e+00
1.141639e+01	-2.680687e+00
1.148233e+01	-2.703882e+00
1.154865e+01	-2.727133e+00
1.161536e+01	-2.750482e+00
1.168245e+01	-2.774162e+00
1.174992e+01	-2.797626e+00
1.181779e+01	-2.821828e+00
1.188605e+01	-2.845539e+00
1.195470e+01	-2.869642e+00
1.202375e+01	-2.893813e+00
1.209320e+01	-2.918294e+00
1.216305e+01	-2.943043e+00
1.223330e+01	-2.967483e+00
1.230396e+01	-2.992211e+00
1.237503e+01	-3.017503e+00
1.244651e+01	-3.042642e+00
1.251840e+01	-3.067875e+00
1.259070e+01	-3.093141e+00
1.266343e+01	-3.118583e+00
1.273657e+01	-3.144041e+00
1.281014e+01	-3.170430e+00
1.288413e+01	-3.196134e+00
1.295855e+01	-3.222387e+00
1.303339e+01	-3.248621e+00
1.310867e+01	-3.275264e+00
1.318439e+01	-3.301732e+00
1.326054e+01	-3.328432e+00
1.333713e+01	-3.355310e+00
1.341417e+01	-3.382516e+00
1.349165e+01	-3.409404e+00
1.356958e+01	-3.436648e+00
1.364795e+01	-3.464143e+00
1.372678e+01	-3.491725e+00
1.380607e+01	-3.519410e+00
1.388581e+01	-3.547291e+00
1.396602e+01	-3.575199e+00
1.404668e+01	-3.603242e+00
1.412782e+01	-3.631793e+00
1.420942e+01	-3.659825e+00
1.429149e+01	-3.688746e+00
1.437404e+01	-3.717412e+00
1.445706e+01	-3.746382e+00
1.454057e+01	-3.775027e+00
1.462455e+01	-3.804435e+00
1.470902e+01	-3.833589e+00
1.479398e+01	-3.862770e+00
1.487943e+01	-3.892198e+00
1.496537e+01	-3.922371e+00
1.505181e+01	-3.951924e+00
1.513875e+01	-3.981968e+00
1.522619e+01	-4.012160e+00
1.531414e+01	-4.042214e+00
1.540259e+01	-4.072637e+00
1.549156e+01	-4.103180e+00
1.558103e+01	-4.133783e+00
1.567103e+01	-4.164747e+00
1.576155e+01	-4.195588e+00
1.585258e+01	-4.226490e+00
1.594415e+01	-4.257896e+00
1.603624e+01	-4.289003e+00
1.612886e+01	-4.320775e+00
1.622202e+01	-4.352021e+00
1.631572e+01	-4.383586e+00
1.640996e+01	-4.415851e+00
1.650474e+01	-4.447787e+00
1.660008e+01	-4.479411e+00
1.669596e+01	-4.512034e+00
1.679239e+01	-4.544461e+00
1.688938e+01	-4.577093e+00
1.698694e+01	-4.609757e+00
1.708505e+01	-4.642371e+00
1.718373e+01	-4.675405e+00
1.728299e+01	-4.708153e+00
1.738281e+01	-4.741368e+00
1.748322e+01	-4.774654e+00
1.758420e+01	-4.808275e+00
1.768576e+01	-4.841766e+00
1.778792e+01	-4.875547e+00
1.789066e+01	-4.909615e+00
1.799399e+01	-4.943136e+00
1.809793e+01	-4.977457e+00
1.820246e+01	-5.011603e+00
1.830760e+01	-5.045747e+00
1.841334e+01	-5.080022e+00
1.851969e+01	-5.114680e+00
1.862666e+01	-5.149614e+00
1.873425e+01	-5.184204e+00
1.884246e+01	-5.219462e+00
1.895129e+01	-5.254314e+00
1.906075e+01	-5.289373e+00
1.917085e+01	-5.324691e+00
1.928158e+01	-5.359702e+00
1.939295e+01	-5.395633e+00
1.950496e+01	-5.431368e+00
1.961762e+01	-5.467188e+00
1.973093e+01	-5.502594e+00
1.984490e+01	-5.539099e+00
1.995952e+01	-5.575144e+00
2.007480e+01	-5.611013e+00
2.019076e+01	-5.647398e+00
2.030738e+01	-5.684051e+00
2.042467e+01	-5.720731e+00
2.054264e+01	-5.757094e+00
2.066130e+01	-5.794090e+00
2.078064e+01	-5.831349e+00
2.090066e+01	-5.868093e+00
2.102139e+01	-5.905314e+00
2.114280e+01	-5.942471e+00
2.126492e+01	-5.979819e+00
2.138775e+01	-6.016851e+00
2.151128e+01	-6.054783e+00
2.163553e+01	-6.092443e+00
2.176050e+01	-6.130092e+00
2.188619e+01	-6.167904e+00
2.201260e+01	-6.205787e+00
2.213974e+01	-6.244123e+00
2.226762e+01	-6.282455e+00
2.239624e+01	-6.320665e+00
2.252560e+01	-6.358916e+00
2.265571e+01	-6.397586e+00
2.278656e+01	-6.436158e+00
2.291818e+01	-6.474771e+00
2.305055e+01	-6.513861e+00
2.318369e+01	-6.552738e+00
2.331760e+01	-6.591673e+00
2.345228e+01	-6.630645e+00
2.358774e+01	-6.669847e+00
2.372398e+01	-6.709368e+00
2.386101e+01	-6.748606e+00
2.399883e+01	-6.788078e+00
2.413745e+01	-6.827822e+00
2.427686e+01	-6.867301e+00
2.441709e+01	-6.907297e+00
2.455812e+01	-6.947071e+00
2.469997e+01	-6.987158e+00
2.484263e+01	-7.027066e+00
2.498612e+01	-7.067172e+00
2.513044e+01	-7.107828e+00
2.527559e+01	-7.148106e+00
2.542158e+01	-7.188228e+00
2.556842e+01	-7.229064e+00
2.571610e+01	-7.269144e+00
2.586463e+01	-7.309987e+00
2.601403e+01	-7.351012e+00
2.616428e+01	-7.391852e+00
2.631541e+01	-7.432621e+00
2.646740e+01	-7.473668e+00
2.662028e+01	-7.514874e+00
2.677404e+01	-7.555711e+00
2.692868e+01	-7.597252e+00
2.708422e+01	-7.638781e+00
2.724066e+01	-7.679806e+00
2.739800e+01	-7.721540e+00
2.755625e+01	-7.763451e+00
2.771541e+01	-7.804965e+00
2.787550e+01	-7.846654e+00
2.803650e+01	-7.888271e+00
2.819844e+01	-7.930761e+00
2.836131e+01	-7.972600e+00
2.852513e+01	-8.014539e+00
2.868989e+01	-8.056813e+00
2.885560e+01	-8.098751e+00
2.902227e+01	-8.140968e+00
2.918990e+01	-8.183817e+00
2.935850e+01	-8.226301e+00
2.952807e+01	-8.268617e+00
2.969863e+01	-8.311163e+00
2.987016e+01	-8.353755e+00
3.004269e+01	-8.396304e+00
3.021622e+01	-8.439715e+00
3.039075e+01	-8.482297e+00
3.056628e+01	-8.525046e+00
3.074283e+01	-8.568181e+00
3.092040e+01	-8.611410e+00
3.109900e+01	-8.654515e+00
3.127862e+01	-8.697878e+00
3.145929e+01	-8.741398e+00
3.164099e+01	-8.784658e+00
3.182375e+01	-8.827938e+00
3.200756e+01	-8.871480e+00
3.219244e+01	-8.915466e+00
3.237838e+01	-8.959097e+00
3.256540e+01	-9.002568e+00
3.275349e+01	-9.045947e+00
3.294268e+01	-9.089942e+00
3.313295e+01	-9.134135e+00
3.332433e+01	-9.177823e+00
3.351681e+01	-9.222299e+00
3.371040e+01	-9.266377e+00
3.390511e+01	-9.310235e+00
3.410094e+01	-9.354586e+00
3.429791e+01	-9.398652e+00
3.449601e+01	-9.442882e+00
3.469526e+01	-9.487129e+00
3.489566e+01	-9.531474e+00
3.509721e+01	-9.576018e+00
3.529993e+01	-9.620787e+00
3.550382e+01	-9.664993e+00
3.570889e+01	-9.710047e+00
3.591515e+01	-9.754487e+00
3.612259e+01	-9.799192e+00
3.633123e+01	-9.844118e+00
3.654108e+01	-9.889128e+00
3.675214e+01	-9.934151e+00
3.696442e+01	-9.979295e+00
3.717792e+01	-1.002389e+01
3.739266e+01	-1.006882e+01
3.760864e+01	-1.011445e+01
3.782587e+01	-1.015938e+01
3.804435e+01	-1.020388e+01
3.826409e+01	-1.025002e+01
3.848510e+01	-1.029486e+01
3.870739e+01	-1.034092e+01
3.893096e+01	-1.038585e+01
3.915583e+01	-1.043162e+01
3.938199e+01	-1.047723e+01
3.960946e+01	-1.052246e+01
3.983824e+01	-1.056824e+01
4.006834e+01	-1.061416e+01
4.029978e+01	-1.065912e+01
4.053255e+01	-1.070548e+01
4.076666e+01	-1.075123e+01
4.100213e+01	-1.079711e+01
4.123896e+01	-1.084284e+01
4.147715e+01	-1.088849e+01
4.171672e+01	-1.093489e+01
4.195767e+01	-1.098036e+01
4.220002e+01	-1.102656e+01
4.244377e+01	-1.107186e+01
4.268892e+01	-1.111875e+01
4.293549e+01	-1.116540e+01
4.318348e+01	-1.121149e+01
4.343291e+01	-1.125755e+01
4.368377e+01	-1.130383e+01
4.393609e+01	-1.135049e+01
4.418986e+01	-1.139694e+01
4.444510e+01	-1.144266e+01
4.470182e+01	-1.149031e+01
4.496001e+01	-1.153603e+01
4.521970e+01	-1.158263e+01
4.548089e+01	-1.162990e+01
4.574358e+01	-1.167581e+01
4.600779e+01	-1.172288e+01
4.627353e+01	-1.176865e+01
4.654081e+01	-1.181541e+01
4.680963e+01	-1.186237e+01
4.708000e+01	-1.190900e+01
4.735193e+01	-1.195543e+01
4.762543e+01	-1.200237e+01
4.790051e+01	-1.204997e+01
4.817719e+01	-1.209706e+01
4.845545e+01	-1.214437e+01
4.873533e+01	-1.219110e+01
4.901682e+01	-1.223745e+01
4.929994e+01	-1.228558e+01
4.958470e+01	-1.233181e+01
4.987110e+01	-1.237971e+01
5.015915e+01	-1.242640e+01
5.044887e+01	-1.247353e+01
5.074026e+01	-1.252102e+01
5.103333e+01	-1.256751e+01
5.132810e+01	-1.261483e+01
5.162457e+01	-1.266242e+01
5.192275e+01	-1.270943e+01
5.222265e+01	-1.275714e+01
5.252429e+01	-1.280463e+01
5.282767e+01	-1.285237e+01
5.313280e+01	-1.289925e+01
5.343969e+01	-1.294690e+01
5.374836e+01	-1.299478e+01
5.405880e+01	-1.304277e+01
5.437105e+01	-1.308923e+01
5.468509e+01	-1.313743e+01
5.500095e+01	-1.318457e+01
5.531863e+01	-1.323250e+01
5.563815e+01	-1.327979e+01
5.595951e+01	-1.332758e+01
5.628273e+01	-1.337630e+01
5.660782e+01	-1.342290e+01
5.693479e+01	-1.347064e+01
5.726364e+01	-1.351828e+01
5.759439e+01	-1.356648e+01
5.792705e+01	-1.361480e+01
5.826164e+01	-1.366194e+01
5.859815e+01	-1.370996e+01
5.893662e+01	-1.375721e+01
5.927703e+01	-1.380536e+01
5.961941e+01	-1.385351e+01
5.996377e+01	-1.390109e+01
6.031012e+01	-1.394953e+01
6.065847e+01	-1.399740e+01
6.100883e+01	-1.404588e+01
6.136121e+01	-1.409380e+01
6.171563e+01	-1.414175e+01
6.207210e+01	-1.419044e+01
6.243063e+01	-1.423834e+01
6.279122e+01	-1.428605e+01
6.315390e+01	-1.433477e+01
6.351868e+01	-1.438297e+01
6.388556e+01	-1.443147e+01
6.425456e+01	-1.447814e+01
6.462569e+01	-1.452851e+01
6.499897e+01	-1.457459e+01
6.537440e+01	-1.462394e+01
6.575200e+01	-1.467282e+01
6.613178e+01	-1.472056e+01
6.651375e+01	-1.476927e+01
6.689793e+01	-1.481775e+01
6.728433e+01	-1.486515e+01
6.767297e+01	-1.491444e+01
6.806384e+01	-1.496253e+01
6.845698e+01	-1.501231e+01
6.885238e+01	-1.505978e+01
6.925007e+01	-1.510808e+01
6.965005e+01	-1.515694e+01
7.005235e+01	-1.520454e+01
7.045697e+01	-1.525409e+01
7.086393e+01	-1.530222e+01
7.127323e+01	-1.535127e+01
7.168490e+01	-1.539900e+01
7.209895e+01	-1.544720e+01
7.251539e+01	-1.549560e+01
7.293424e+01	-1.554566e+01
7.335551e+01	-1.559316e+01
7.377920e+01	-1.564203e+01
7.420535e+01	-1.569187e+01
7.463396e+01	-1.573995e+01
7.506504e+01	-1.578800e+01
7.549861e+01	-1.583721e+01
7.593469e+01	-1.588650e+01
7.637328e+01	-1.593485e+01
7.681441e+01	-1.598395e+01
7.725809e+01	-1.603252e+01
7.770433e+01	-1.608180e+01
7.815315e+01	-1.612922e+01
7.860456e+01	-1.617791e+01
7.905857e+01	-1.622695e+01
7.951521e+01	-1.627698e+01
7.997449e+01	-1.632577e+01
8.043642e+01	-1.637504e+01
8.090102e+01	-1.642336e+01
8.136830e+01	-1.647179e+01
8.183828e+01	-1.652189e+01
8.231097e+01	-1.657013e+01
8.278640e+01	-1.661875e+01
8.326457e+01	-1.666750e+01
8.374550e+01	-1.671581e+01
8.422921e+01	-1.676600e+01
8.471572e+01	-1.681526e+01
8.520503e+01	-1.686337e+01
8.569717e+01	-1.691325e+01
8.619215e+01	-1.696219e+01
8.669000e+01	-1.701116e+01
8.719071e+01	-1.706020e+01
8.769432e+01	-1.710892e+01
8.820084e+01	-1.715681e+01
8.871029e+01	-1.720689e+01
8.922267e+01	-1.725518e+01
8.973802e+01	-1.730416e+01
9.025634e+01	-1.735384e+01
9.077766e+01	-1.740371e+01
9.130199e+01	-1.745251e+01
9.182935e+01	-1.750171e+01
9.235975e+01	-1.755169e+01
9.289321e+01	-1.760047e+01
9.342976e+01	-1.764830e+01
9.396941e+01	-1.769810e+01
9.451217e+01	-1.774648e+01
9.505807e+01	-1.779822e+01
9.560712e+01	-1.784550e+01
9.615934e+01	-1.789439e+01
9.671476e+01	-1.794425e+01
9.727338e+01	-1.799420e+01
9.783522e+01	-1.804327e+01
9.840032e+01	-1.809288e+01
9.896867e+01	-1.814084e+01
9.954031e+01	-1.819101e+01
1.001153e+02	-1.823938e+01
1.006935e+02	-1.828826e+01
1.012751e+02	-1.833812e+01
1.018601e+02	-1.838633e+01
1.024484e+02	-1.843736e+01
1.030402e+02	-1.848525e+01
1.036353e+02	-1.853558e+01
1.042339e+02	-1.858389e+01
1.048360e+02	-1.863486e+01
1.054415e+02	-1.868338e+01
1.060505e+02	-1.873471e+01
1.066631e+02	-1.878368e+01
1.072791e+02	-1.883089e+01
1.078988e+02	-1.888098e+01
1.085220e+02	-1.893044e+01
1.091488e+02	-1.897942e+01
1.097793e+02	-1.902878e+01
1.104133e+02	-1.907877e+01
1.110511e+02	-1.912887e+01
1.116925e+02	-1.917666e+01
1.123376e+02	-1.922758e+01
1.129865e+02	-1.927658e+01
1.136391e+02	-1.932608e+01
1.142955e+02	-1.937586e+01
1.149556e+02	-1.942576e+01
1.156196e+02	-1.947397e+01
1.162874e+02	-1.952237e+01
1.169591e+02	-1.957277e+01
1.176347e+02	-1.962287e+01
1.183141e+02	-1.967211e+01
1.189975e+02	-1.972219e+01
1.196848e+02	-1.977033e+01
1.203761e+02	-1.982113e+01
1.210714e+02	-1.987044e+01
1.217707e+02	-1.992013e+01
1.224740e+02	-1.997026e+01
1.231814e+02	-2.001789e+01
1.238929e+02	-2.006817e+01
1.246085e+02	-2.011944e+01
1.253283e+02	-2.016925e+01
1.260522e+02	-2.021780e+01
1.267802e+02	-2.026536e+01
1.275125e+02	-2.031751e+01
1.282490e+02	-2.036629e+01
1.289898e+02	-2.041505e+01
1.297348e+02	-2.046407e+01
1.304842e+02	-2.051540e+01
1.312378e+02	-2.056524e+01
1.319959e+02	-2.061435e+01
1.327583e+02	-2.066588e+01
1.335251e+02	-2.071199e+01
1.342963e+02	-2.076245e+01
1.350720e+02	-2.081207e+01
1.358522e+02	-2.086094e+01
1.366368e+02	-2.091199e+01
1.374260e+02	-2.096212e+01
1.382198e+02	-2.100993e+01
1.390182e+02	-2.105989e+01
1.398211e+02	-2.111020e+01
1.406287e+02	-2.115960e+01
1.414410e+02	-2.120850e+01
1.422579e+02	-2.125952e+01
1.430796e+02	-2.130881e+01
1.439060e+02	-2.135687e+01
1.447372e+02	-2.140786e+01
1.455732e+02	-2.145798e+01
1.464141e+02	-2.150798e+01
1.472597e+02	-2.155678e+01
1.481103e+02	-2.160772e+01
1.489658e+02	-2.165692e+01
1.498262e+02	-2.170394e+01
1.506916e+02	-2.175554e+01
1.515620e+02	-2.180650e+01
1.524374e+02	-2.185618e+01
1.533179e+02	-2.190415e+01
1.542034e+02	-2.195383e+01
1.550941e+02	-2.200086e+01
1.559899e+02	-2.205442e+01
1.568909e+02	-2.210367e+01
1.577971e+02	-2.215210e+01
1.587085e+02	-2.220230e+01
1.596252e+02	-2.225283e+01
1.605472e+02	-2.230242e+01
1.614745e+02	-2.235203e+01
1.624072e+02	-2.240097e+01
1.633453e+02	-2.245060e+01
1.642887e+02	-2.250146e+01
1.652377e+02	-2.255013e+01
1.661921e+02	-2.260063e+01
1.671520e+02	-2.265133e+01
1.681175e+02	-2.269978e+01
1.690885e+02	-2.275216e+01
1.700651e+02	-2.280024e+01
1.710474e+02	-2.285279e+01
1.720354e+02	-2.289986e+01
1.730291e+02	-2.295040e+01
1.740285e+02	-2.299954e+01
1.750337e+02	-2.304766e+01
1.760446e+02	-2.310160e+01
1.770615e+02	-2.314879e+01
1.780842e+02	-2.319796e+01
1.791128e+02	-2.324907e+01
1.801473e+02	-2.329769e+01
1.811878e+02	-2.334818e+01
1.822344e+02	-2.339679e+01
1.832870e+02	-2.344749e+01
1.843456e+02	-2.349940e+01
1.854104e+02	-2.354575e+01
1.864813e+02	-2.359813e+01
1.875584e+02	-2.364593e+01
1.886418e+02	-2.370053e+01
1.897313e+02	-2.374653e+01
1.908272e+02	-2.379778e+01
1.919294e+02	-2.384770e+01
1.930380e+02	-2.389753e+01
1.941530e+02	-2.394645e+01
1.952744e+02	-2.399537e+01
1.964023e+02	-2.404755e+01
1.975367e+02	-2.409716e+01
1.986777e+02	-2.414594e+01
1.998252e+02	-2.419735e+01
2.009794e+02	-2.424688e+01
2.021403e+02	-2.429602e+01
2.033078e+02	-2.434308e+01
2.044821e+02	-2.439449e+01
2.056632e+02	-2.444356e+01
2.068511e+02	-2.449712e+01
2.080459e+02	-2.454548e+01
2.092475e+02	-2.459703e+01
2.104561e+02	-2.464186e+01
2.116717e+02	-2.469725e+01
2.128943e+02	-2.474518e+01
2.141240e+02	-2.479049e+01
2.153608e+02	-2.484641e+01
2.166047e+02	-2.489081e+01
2.178558e+02	-2.494376e+01
2.191141e+02	-2.499431e+01
2.203797e+02	-2.504626e+01
2.216526e+02	-2.509190e+01
2.229329e+02	-2.514465e+01
2.242205e+02	-2.519422e+01
2.255156e+02	-2.524411e+01
2.268182e+02	-2.529386e+01
2.281283e+02	-2.534423e+01
2.294459e+02	-2.539377e+01
2.307712e+02	-2.544339e+01
2.321041e+02	-2.549130e+01
2.334447e+02	-2.554594e+01
2.347931e+02	-2.559334e+01
2.361493e+02	-2.564280e+01
2.375133e+02	-2.569193e+01
2.388851e+02	-2.574227e+01
2.402649e+02	-2.579236e+01
2.416527e+02	-2.584261e+01
2.430484e+02	-2.589249e+01
2.444523e+02	-2.594362e+01
2.458642e+02	-2.599128e+01
2.472843e+02	-2.604262e+01
2.487126e+02	-2.609272e+01
2.501492e+02	-2.614044e+01
2.515940e+02	-2.619342e+01
2.530472e+02	-2.624635e+01
2.545088e+02	-2.629110e+01
2.559789e+02	-2.634113e+01
2.574574e+02	-2.639343e+01
2.589444e+02	-2.644390e+01
2.604401e+02	-2.649475e+01
2.619444e+02	-2.654428e+01
2.634574e+02	-2.659187e+01
2.649791e+02	-2.664319e+01
2.665096e+02	-2.669478e+01
2.680489e+02	-2.674136e+01
2.695972e+02	-2.679213e+01
2.711544e+02	-2.684081e+01
2.727205e+02	-2.689159e+01
2.742958e+02	-2.694374e+01
2.758801e+02	-2.698964e+01
2.774736e+02	-2.704517e+01
2.790762e+02	-2.709019e+01
2.806882e+02	-2.714166e+01
2.823094e+02	-2.719132e+01
2.839400e+02	-2.724091e+01
2.855800e+02	-2.729175e+01
2.872295e+02	-2.734286e+01
2.888886e+02	-2.739122e+01
2.905572e+02	-2.744476e+01
2.922354e+02	-2.749136e+01
2.939234e+02	-2.754060e+01
2.956211e+02	-2.759194e+01
2.973286e+02	-2.764191e+01
2.990459e+02	-2.769013e+01
3.007732e+02	-2.774197e+01
3.025104e+02	-2.779604e+01
3.042577e+02	-2.784537e+01
3.060151e+02	-2.789698e+01
3.077826e+02	-2.794507e+01
3.095604e+02	-2.798855e+01
3.113484e+02	-2.803914e+01
3.131467e+02	-2.809137e+01
3.149554e+02	-2.814155e+01
3.167746e+02	-2.819827e+01
3.186043e+02	-2.824434e+01
3.204445e+02	-2.829614e+01
3.222954e+02	-2.834110e+01
3.241570e+02	-2.839562e+01
3.260293e+02	-2.844602e+01
3.279124e+02	-2.848867e+01
3.298064e+02	-2.854458e+01
3.317114e+02	-2.859219e+01
3.336273e+02	-2.864114e+01
3.355544e+02	-2.869460e+01
3.374925e+02	-2.873918e+01
3.394418e+02	-2.879448e+01
3.414024e+02	-2.884375e+01
3.433744e+02	-2.888997e+01
3.453577e+02	-2.894515e+01
3.473525e+02	-2.899707e+01
3.493588e+02	-2.903965e+01
3.513766e+02	-2.909334e+01
3.534062e+02	-2.914631e+01
3.554474e+02	-2.919639e+01
3.575005e+02	-2.924731e+01
3.595654e+02	-2.929585e+01
3.616422e+02	-2.934692e+01
3.637311e+02	-2.938702e+01
3.658320e+02	-2.944535e+01
3.679450e+02	-2.949427e+01
3.700702e+02	-2.954305e+01
3.722077e+02	-2.959177e+01
3.743576e+02	-2.963946e+01
3.765199e+02	-2.969415e+01
3.786946e+02	-2.974382e+01
3.808820e+02	-2.979654e+01
3.830819e+02	-2.984558e+01
3.852946e+02	-2.989665e+01
3.875200e+02	-2.994469e+01
3.897583e+02	-2.999429e+01
3.920096e+02	-3.004386e+01
3.942738e+02	-3.009524e+01
3.965511e+02	-3.014703e+01
3.988416e+02	-3.019579e+01
4.011452e+02	-3.024405e+01
4.034622e+02	-3.029689e+01
4.057926e+02	-3.035003e+01
4.081365e+02	-3.039146e+01
4.104938e+02	-3.045193e+01
4.128648e+02	-3.049483e+01
4.152495e+02	-3.054224e+01
4.176480e+02	-3.059769e+01
4.200603e+02	-3.064193e+01
4.224866e+02	-3.069837e+01
4.249268e+02	-3.074957e+01
4.273812e+02	-3.079742e+01
4.298497e+02	-3.084604e+01
4.323325e+02	-3.090138e+01
4.348297e+02	-3.094523e+01
4.373412e+02	-3.100001e+01
4.398673e+02	-3.104717e+01
4.424079e+02	-3.109705e+01
4.449633e+02	-3.114845e+01
4.475334e+02	-3.119612e+01
4.501183e+02	-3.125235e+01
4.527182e+02	-3.129733e+01
4.553330e+02	-3.134822e+01
4.579630e+02	-3.140098e+01
4.606082e+02	-3.144446e+01
4.632687e+02	-3.150434e+01
4.659445e+02	-3.154558e+01
4.686358e+02	-3.160290e+01
4.713426e+02	-3.164872e+01
4.740650e+02	-3.169588e+01
4.768032e+02	-3.174896e+01
4.795572e+02	-3.180738e+01
4.823271e+02	-3.185011e+01
4.851130e+02	-3.189724e+01
4.879150e+02	-3.194772e+01
4.907332e+02	-3.199998e+01
4.935676e+02	-3.205027e+01
4.964185e+02	-3.210300e+01
4.992858e+02	-3.214991e+01
5.021696e+02	-3.220050e+01
5.050701e+02	-3.224715e+01
5.079874e+02	-3.230578e+01
5.109215e+02	-3.235069e+01
5.138726e+02	-3.239901e+01
5.168407e+02	-3.245759e+01
5.198259e+02	-3.250142e+01
5.228284e+02	-3.255436e+01
5.258482e+02	-3.259836e+01
5.288855e+02	-3.265695e+01
5.319403e+02	-3.271166e+01
5.350128e+02	-3.275102e+01
5.381030e+02	-3.280896e+01
5.412111e+02	-3.284925e+01
5.443371e+02	-3.291181e+01
5.474812e+02	-3.295801e+01
5.506434e+02	-3.300149e+01
5.538239e+02	-3.305438e+01
5.570228e+02	-3.311009e+01
5.602401e+02	-3.316192e+01
5.634760e+02	-3.321519e+01
5.667306e+02	-3.326156e+01
5.700040e+02	-3.330746e+01
5.732964e+02	-3.336255e+01
5.766077e+02	-3.341174e+01
5.799382e+02	-3.346034e+01
5.832879e+02	-3.350735e+01
5.866569e+02	-3.356359e+01
5.900454e+02	-3.361104e+01
5.934535e+02	-3.365172e+01
5.968813e+02	-3.370768e+01
6.003288e+02	-3.376103e+01
6.037963e+02	-3.381161e+01
6.072838e+02	-3.385512e+01
6.107914e+02	-3.391063e+01
6.143194e+02	-3.395704e+01
6.178676e+02	-3.401126e+01
6.214364e+02	-3.406286e+01
6.250258e+02	-3.411546e+01
6.286359e+02	-3.416330e+01
6.322669e+02	-3.421628e+01
6.359189e+02	-3.425976e+01
6.395919e+02	-3.431812e+01
6.432862e+02	-3.436226e+01
6.470017e+02	-3.441733e+01
6.507388e+02	-3.447232e+01
6.544974e+02	-3.450900e+01
6.582778e+02	-3.456656e+01
6.620800e+02	-3.461322e+01
6.659041e+02	-3.466936e+01
6.697504e+02	-3.471550e+01
6.736188e+02	-3.476264e+01
6.775096e+02	-3.482120e+01
6.814229e+02	-3.486296e+01
6.853587e+02	-3.491957e+01
6.893173e+02	-3.496454e+01
6.932988e+02	-3.501457e+01
6.973033e+02	-3.506521e+01
7.013309e+02	-3.512655e+01
