Frequency(Hz)	Magnitude(dB)
1.000000e+01	-1.762452e-05
1.005776e+01	-1.782870e-05
1.011585e+01	-1.803525e-05
1.017428e+01	-1.824420e-05
1.023305e+01	-1.845556e-05
1.029215e+01	-1.866937e-05
1.035160e+01	-1.888566e-05
1.041139e+01	-1.910446e-05
1.047153e+01	-1.932579e-05
1.053201e+01	-1.954968e-05
1.059284e+01	-1.977617e-05
1.065403e+01	-2.000528e-05
1.071556e+01	-2.023705e-05
1.077746e+01	-2.047150e-05
1.083971e+01	-2.070867e-05
1.090232e+01	-2.094858e-05
1.096529e+01	-2.119128e-05
1.102862e+01	-2.143678e-05
1.109232e+01	-2.168513e-05
1.115639e+01	-2.193636e-05
1.122083e+01	-2.219050e-05
1.128564e+01	-2.244758e-05
1.135083e+01	-2.270764e-05
1.141639e+01	-2.297072e-05
1.148233e+01	-2.323684e-05
1.154865e+01	-2.350604e-05
1.161536e+01	-2.377837e-05
1.168245e+01	-2.405384e-05
1.174992e+01	-2.433251e-05
1.181779e+01	-2.461441e-05
1.188605e+01	-2.489958e-05
1.195470e+01	-2.518804e-05
1.202375e+01	-2.547985e-05
1.209320e+01	-2.577504e-05
1.216305e+01	-2.607365e-05
1.223330e+01	-2.637572e-05
1.230396e+01	-2.668129e-05
1.237503e+01	-2.699040e-05
1.244651e+01	-2.730309e-05
1.251840e+01	-2.761941e-05
1.259070e+01	-2.793938e-05
1.266343e+01	-2.826307e-05
1.273657e+01	-2.859050e-05
1.281014e+01	-2.892173e-05
1.288413e+01	-2.925680e-05
1.295855e+01	-2.959574e-05
1.303339e+01	-2.993862e-05
1.310867e+01	-3.028546e-05
1.318439e+01	-3.063633e-05
1.326054e+01	-3.099126e-05
1.333713e+01	-3.135030e-05
1.341417e+01	-3.171350e-05
1.349165e+01	-3.208091e-05
1.356958e+01	-3.245257e-05
1.364795e+01	-3.282854e-05
1.372678e+01	-3.320887e-05
1.380607e+01	-3.359360e-05
1.388581e+01	-3.398279e-05
1.396602e+01	-3.437649e-05
1.404668e+01	-3.477475e-05
1.412782e+01	-3.517762e-05
1.420942e+01	-3.558516e-05
1.429149e+01	-3.599742e-05
1.437404e+01	-3.641446e-05
1.445706e+01	-3.683633e-05
1.454057e+01	-3.726309e-05
1.462455e+01	-3.769479e-05
1.470902e+01	-3.813149e-05
1.479398e+01	-3.857326e-05
1.487943e+01	-3.902014e-05
1.496537e+01	-3.947219e-05
1.505181e+01	-3.992949e-05
1.513875e+01	-4.039208e-05
1.522619e+01	-4.086003e-05
1.531414e+01	-4.133340e-05
1.540259e+01	-4.181226e-05
1.549156e+01	-4.229667e-05
1.558103e+01	-4.278668e-05
1.567103e+01	-4.328238e-05
1.576155e+01	-4.378381e-05
1.585258e+01	-4.429106e-05
1.594415e+01	-4.480418e-05
1.603624e+01	-4.532324e-05
1.612886e+01	-4.584832e-05
1.622202e+01	-4.637949e-05
1.631572e+01	-4.691680e-05
1.640996e+01	-4.746034e-05
1.650474e+01	-4.801018e-05
1.660008e+01	-4.856639e-05
1.669596e+01	-4.912904e-05
1.679239e+01	-4.969821e-05
1.688938e+01	-5.027398e-05
1.698694e+01	-5.085641e-05
1.708505e+01	-5.144560e-05
1.718373e+01	-5.204160e-05
1.728299e+01	-5.264452e-05
1.738281e+01	-5.325441e-05
1.748322e+01	-5.387138e-05
1.758420e+01	-5.449549e-05
1.768576e+01	-5.512683e-05
1.778792e+01	-5.576549e-05
1.789066e+01	-5.641154e-05
1.799399e+01	-5.706508e-05
1.809793e+01	-5.772619e-05
1.820246e+01	-5.839496e-05
1.830760e+01	-5.907148e-05
1.841334e+01	-5.975583e-05
1.851969e+01	-6.044811e-05
1.862666e+01	-6.114842e-05
1.873425e+01	-6.185683e-05
1.884246e+01	-6.257346e-05
1.895129e+01	-6.329838e-05
1.906075e+01	-6.403171e-05
1.917085e+01	-6.477353e-05
1.928158e+01	-6.552394e-05
1.939295e+01	-6.628305e-05
1.950496e+01	-6.705095e-05
1.961762e+01	-6.782775e-05
1.973093e+01	-6.861355e-05
1.984490e+01	-6.940845e-05
1.995952e+01	-7.021256e-05
2.007480e+01	-7.102598e-05
2.019076e+01	-7.184883e-05
2.030738e+01	-7.268121e-05
2.042467e+01	-7.352324e-05
2.054264e+01	-7.437502e-05
2.066130e+01	-7.523667e-05
2.078064e+01	-7.610830e-05
2.090066e+01	-7.699002e-05
2.102139e+01	-7.788197e-05
2.114280e+01	-7.878424e-05
2.126492e+01	-7.969697e-05
2.138775e+01	-8.062028e-05
2.151128e+01	-8.155428e-05
2.163553e+01	-8.249910e-05
2.176050e+01	-8.345486e-05
2.188619e+01	-8.442170e-05
2.201260e+01	-8.539974e-05
2.213974e+01	-8.638911e-05
2.226762e+01	-8.738994e-05
2.239624e+01	-8.840237e-05
2.252560e+01	-8.942652e-05
2.265571e+01	-9.046254e-05
2.278656e+01	-9.151057e-05
2.291818e+01	-9.257073e-05
2.305055e+01	-9.364318e-05
2.318369e+01	-9.472805e-05
2.331760e+01	-9.582549e-05
2.345228e+01	-9.693564e-05
2.358774e+01	-9.805865e-05
2.372398e+01	-9.919468e-05
2.386101e+01	-1.003439e-04
2.399883e+01	-1.015064e-04
2.413745e+01	-1.026823e-04
2.427686e+01	-1.038719e-04
2.441709e+01	-1.050753e-04
2.455812e+01	-1.062926e-04
2.469997e+01	-1.075240e-04
2.484263e+01	-1.087697e-04
2.498612e+01	-1.100298e-04
2.513044e+01	-1.113045e-04
2.527559e+01	-1.125940e-04
2.542158e+01	-1.138984e-04
2.556842e+01	-1.152179e-04
2.571610e+01	-1.165527e-04
2.586463e+01	-1.179030e-04
2.601403e+01	-1.192689e-04
2.616428e+01	-1.206507e-04
2.631541e+01	-1.220484e-04
2.646740e+01	-1.234624e-04
2.662028e+01	-1.248927e-04
2.677404e+01	-1.263396e-04
2.692868e+01	-1.278033e-04
2.708422e+01	-1.292839e-04
2.724066e+01	-1.307816e-04
2.739800e+01	-1.322968e-04
2.755625e+01	-1.338294e-04
2.771541e+01	-1.353799e-04
2.787550e+01	-1.369483e-04
2.803650e+01	-1.385348e-04
2.819844e+01	-1.401398e-04
2.836131e+01	-1.417633e-04
2.852513e+01	-1.434056e-04
2.868989e+01	-1.450670e-04
2.885560e+01	-1.467476e-04
2.902227e+01	-1.484477e-04
2.918990e+01	-1.501675e-04
2.935850e+01	-1.519072e-04
2.952807e+01	-1.536670e-04
2.969863e+01	-1.554473e-04
2.987016e+01	-1.572481e-04
3.004269e+01	-1.590699e-04
3.021622e+01	-1.609127e-04
3.039075e+01	-1.627769e-04
3.056628e+01	-1.646627e-04
3.074283e+01	-1.665703e-04
3.092040e+01	-1.685000e-04
3.109900e+01	-1.704521e-04
3.127862e+01	-1.724268e-04
3.145929e+01	-1.744244e-04
3.164099e+01	-1.764451e-04
3.182375e+01	-1.784892e-04
3.200756e+01	-1.805570e-04
3.219244e+01	-1.826488e-04
3.237838e+01	-1.847648e-04
3.256540e+01	-1.869053e-04
3.275349e+01	-1.890706e-04
3.294268e+01	-1.912610e-04
3.313295e+01	-1.934767e-04
3.332433e+01	-1.957181e-04
3.351681e+01	-1.979855e-04
3.371040e+01	-2.002792e-04
3.390511e+01	-2.025994e-04
3.410094e+01	-2.049466e-04
3.429791e+01	-2.073209e-04
3.449601e+01	-2.097227e-04
3.469526e+01	-2.121523e-04
3.489566e+01	-2.146101e-04
3.509721e+01	-2.170964e-04
3.529993e+01	-2.196114e-04
3.550382e+01	-2.221556e-04
3.570889e+01	-2.247293e-04
3.591515e+01	-2.273328e-04
3.612259e+01	-2.299664e-04
3.633123e+01	-2.326306e-04
3.654108e+01	-2.353256e-04
3.675214e+01	-2.380518e-04
3.696442e+01	-2.408096e-04
3.717792e+01	-2.435994e-04
3.739266e+01	-2.464215e-04
3.760864e+01	-2.492763e-04
3.782587e+01	-2.521641e-04
3.804435e+01	-2.550854e-04
3.826409e+01	-2.580406e-04
3.848510e+01	-2.610299e-04
3.870739e+01	-2.640540e-04
3.893096e+01	-2.671130e-04
3.915583e+01	-2.702075e-04
3.938199e+01	-2.733378e-04
3.960946e+01	-2.765044e-04
3.983824e+01	-2.797077e-04
4.006834e+01	-2.829481e-04
4.029978e+01	-2.862260e-04
4.053255e+01	-2.895419e-04
4.076666e+01	-2.928962e-04
4.100213e+01	-2.962894e-04
4.123896e+01	-2.997219e-04
4.147715e+01	-3.031941e-04
4.171672e+01	-3.067066e-04
4.195767e+01	-3.102597e-04
4.220002e+01	-3.138540e-04
4.244377e+01	-3.174900e-04
4.268892e+01	-3.211680e-04
4.293549e+01	-3.248887e-04
4.318348e+01	-3.286525e-04
4.343291e+01	-3.324599e-04
4.368377e+01	-3.363114e-04
4.393609e+01	-3.402075e-04
4.418986e+01	-3.441487e-04
4.444510e+01	-3.481356e-04
4.470182e+01	-3.521687e-04
4.496001e+01	-3.562485e-04
4.521970e+01	-3.603756e-04
4.548089e+01	-3.645505e-04
4.574358e+01	-3.687737e-04
4.600779e+01	-3.730459e-04
4.627353e+01	-3.773675e-04
4.654081e+01	-3.817392e-04
4.680963e+01	-3.861616e-04
4.708000e+01	-3.906352e-04
4.735193e+01	-3.951606e-04
4.762543e+01	-3.997384e-04
4.790051e+01	-4.043693e-04
4.817719e+01	-4.090538e-04
4.845545e+01	-4.137926e-04
4.873533e+01	-4.185863e-04
4.901682e+01	-4.234355e-04
4.929994e+01	-4.283408e-04
4.958470e+01	-4.333030e-04
4.987110e+01	-4.383227e-04
5.015915e+01	-4.434005e-04
5.044887e+01	-4.485372e-04
5.074026e+01	-4.537334e-04
5.103333e+01	-4.589897e-04
5.132810e+01	-4.643069e-04
5.162457e+01	-4.696858e-04
5.192275e+01	-4.751269e-04
5.222265e+01	-4.806311e-04
5.252429e+01	-4.861990e-04
5.282767e+01	-4.918315e-04
5.313280e+01	-4.975291e-04
5.343969e+01	-5.032928e-04
5.374836e+01	-5.091233e-04
5.405880e+01	-5.150212e-04
5.437105e+01	-5.209875e-04
5.468509e+01	-5.270230e-04
5.500095e+01	-5.331283e-04
5.531863e+01	-5.393043e-04
5.563815e+01	-5.455519e-04
5.595951e+01	-5.518719e-04
5.628273e+01	-5.582651e-04
5.660782e+01	-5.647323e-04
5.693479e+01	-5.712745e-04
5.726364e+01	-5.778924e-04
5.759439e+01	-5.845870e-04
5.792705e+01	-5.913591e-04
5.826164e+01	-5.982097e-04
5.859815e+01	-6.051397e-04
5.893662e+01	-6.121499e-04
5.927703e+01	-6.192413e-04
5.961941e+01	-6.264149e-04
5.996377e+01	-6.336715e-04
6.031012e+01	-6.410122e-04
6.065847e+01	-6.484380e-04
6.100883e+01	-6.559498e-04
6.136121e+01	-6.635485e-04
6.171563e+01	-6.712353e-04
6.207210e+01	-6.790112e-04
6.243063e+01	-6.868771e-04
6.279122e+01	-6.948341e-04
6.315390e+01	-7.028833e-04
6.351868e+01	-7.110257e-04
6.388556e+01	-7.192625e-04
6.425456e+01	-7.275946e-04
6.462569e+01	-7.360233e-04
6.499897e+01	-7.445496e-04
6.537440e+01	-7.531747e-04
6.575200e+01	-7.618996e-04
6.613178e+01	-7.707257e-04
6.651375e+01	-7.796539e-04
6.689793e+01	-7.886856e-04
6.728433e+01	-7.978219e-04
6.767297e+01	-8.070641e-04
6.806384e+01	-8.164132e-04
6.845698e+01	-8.258707e-04
6.885238e+01	-8.354377e-04
6.925007e+01	-8.451156e-04
6.965005e+01	-8.549055e-04
7.005235e+01	-8.648088e-04
7.045697e+01	-8.748269e-04
7.086393e+01	-8.849609e-04
7.127323e+01	-8.952124e-04
7.168490e+01	-9.055826e-04
7.209895e+01	-9.160729e-04
7.251539e+01	-9.266847e-04
7.293424e+01	-9.374195e-04
7.335551e+01	-9.482785e-04
7.377920e+01	-9.592634e-04
7.420535e+01	-9.703755e-04
7.463396e+01	-9.816163e-04
7.506504e+01	-9.929873e-04
7.549861e+01	-1.004490e-03
7.593469e+01	-1.016126e-03
7.637328e+01	-1.027897e-03
7.681441e+01	-1.039804e-03
7.725809e+01	-1.051849e-03
7.770433e+01	-1.064033e-03
7.815315e+01	-1.076359e-03
7.860456e+01	-1.088827e-03
7.905857e+01	-1.101440e-03
7.951521e+01	-1.114199e-03
7.997449e+01	-1.127105e-03
8.043642e+01	-1.140161e-03
8.090102e+01	-1.153369e-03
8.136830e+01	-1.166729e-03
8.183828e+01	-1.180244e-03
8.231097e+01	-1.193916e-03
8.278640e+01	-1.207745e-03
8.326457e+01	-1.221736e-03
8.374550e+01	-1.235888e-03
8.422921e+01	-1.250204e-03
8.471572e+01	-1.264686e-03
8.520503e+01	-1.279335e-03
8.569717e+01	-1.294154e-03
8.619215e+01	-1.309145e-03
8.669000e+01	-1.324310e-03
8.719071e+01	-1.339650e-03
8.769432e+01	-1.355168e-03
8.820084e+01	-1.370865e-03
8.871029e+01	-1.386744e-03
8.922267e+01	-1.402808e-03
8.973802e+01	-1.419057e-03
9.025634e+01	-1.435494e-03
9.077766e+01	-1.452122e-03
9.130199e+01	-1.468942e-03
9.182935e+01	-1.485958e-03
9.235975e+01	-1.503170e-03
9.289321e+01	-1.520581e-03
9.342976e+01	-1.538195e-03
9.396941e+01	-1.556012e-03
9.451217e+01	-1.574035e-03
9.505807e+01	-1.592268e-03
9.560712e+01	-1.610711e-03
9.615934e+01	-1.629368e-03
9.671476e+01	-1.648241e-03
9.727338e+01	-1.667333e-03
9.783522e+01	-1.686646e-03
9.840032e+01	-1.706182e-03
9.896867e+01	-1.725945e-03
9.954031e+01	-1.745936e-03
1.001153e+02	-1.766159e-03
1.006935e+02	-1.786616e-03
1.012751e+02	-1.807311e-03
1.018601e+02	-1.828244e-03
1.024484e+02	-1.849421e-03
1.030402e+02	-1.870842e-03
1.036353e+02	-1.892511e-03
1.042339e+02	-1.914432e-03
1.048360e+02	-1.936606e-03
1.054415e+02	-1.959037e-03
1.060505e+02	-1.981728e-03
1.066631e+02	-2.004682e-03
1.072791e+02	-2.027901e-03
1.078988e+02	-2.051389e-03
1.085220e+02	-2.075149e-03
1.091488e+02	-2.099185e-03
1.097793e+02	-2.123498e-03
1.104133e+02	-2.148094e-03
1.110511e+02	-2.172974e-03
1.116925e+02	-2.198142e-03
1.123376e+02	-2.223601e-03
1.129865e+02	-2.249355e-03
1.136391e+02	-2.275408e-03
1.142955e+02	-2.301762e-03
1.149556e+02	-2.328422e-03
1.156196e+02	-2.355390e-03
1.162874e+02	-2.382670e-03
1.169591e+02	-2.410266e-03
1.176347e+02	-2.438182e-03
1.183141e+02	-2.466421e-03
1.189975e+02	-2.494987e-03
1.196848e+02	-2.523884e-03
1.203761e+02	-2.553115e-03
1.210714e+02	-2.582684e-03
1.217707e+02	-2.612597e-03
1.224740e+02	-2.642855e-03
1.231814e+02	-2.673464e-03
1.238929e+02	-2.704427e-03
1.246085e+02	-2.735748e-03
1.253283e+02	-2.767433e-03
1.260522e+02	-2.799484e-03
1.267802e+02	-2.831906e-03
1.275125e+02	-2.864704e-03
1.282490e+02	-2.897881e-03
1.289898e+02	-2.931442e-03
1.297348e+02	-2.965392e-03
1.304842e+02	-2.999735e-03
1.312378e+02	-3.034476e-03
1.319959e+02	-3.069618e-03
1.327583e+02	-3.105168e-03
1.335251e+02	-3.141129e-03
1.342963e+02	-3.177507e-03
1.350720e+02	-3.214305e-03
1.358522e+02	-3.251530e-03
1.366368e+02	-3.289185e-03
1.374260e+02	-3.327277e-03
1.382198e+02	-3.365809e-03
1.390182e+02	-3.404788e-03
1.398211e+02	-3.444217e-03
1.406287e+02	-3.484104e-03
1.414410e+02	-3.524451e-03
1.422579e+02	-3.565266e-03
1.430796e+02	-3.606554e-03
1.439060e+02	-3.648319e-03
1.447372e+02	-3.690568e-03
1.455732e+02	-3.733306e-03
1.464141e+02	-3.776538e-03
1.472597e+02	-3.820271e-03
1.481103e+02	-3.864510e-03
1.489658e+02	-3.909261e-03
1.498262e+02	-3.954530e-03
1.506916e+02	-4.000324e-03
1.515620e+02	-4.046647e-03
1.524374e+02	-4.093506e-03
1.533179e+02	-4.140908e-03
1.542034e+02	-4.188858e-03
1.550941e+02	-4.237363e-03
1.559899e+02	-4.286430e-03
1.568909e+02	-4.336065e-03
1.577971e+02	-4.386274e-03
1.587085e+02	-4.437064e-03
1.596252e+02	-4.488442e-03
1.605472e+02	-4.540414e-03
1.614745e+02	-4.592988e-03
1.624072e+02	-4.646171e-03
1.633453e+02	-4.699969e-03
1.642887e+02	-4.754389e-03
1.652377e+02	-4.809439e-03
1.661921e+02	-4.865127e-03
1.671520e+02	-4.921458e-03
1.681175e+02	-4.978442e-03
1.690885e+02	-5.036085e-03
1.700651e+02	-5.094395e-03
1.710474e+02	-5.153380e-03
1.720354e+02	-5.213047e-03
1.730291e+02	-5.273405e-03
1.740285e+02	-5.334461e-03
1.750337e+02	-5.396224e-03
1.760446e+02	-5.458701e-03
1.770615e+02	-5.521901e-03
1.780842e+02	-5.585833e-03
1.791128e+02	-5.650504e-03
1.801473e+02	-5.715923e-03
1.811878e+02	-5.782099e-03
1.822344e+02	-5.849041e-03
1.832870e+02	-5.916758e-03
1.843456e+02	-5.985258e-03
1.854104e+02	-6.054550e-03
1.864813e+02	-6.124644e-03
1.875584e+02	-6.195549e-03
1.886418e+02	-6.267274e-03
1.897313e+02	-6.339829e-03
1.908272e+02	-6.413223e-03
1.919294e+02	-6.487466e-03
1.930380e+02	-6.562568e-03
1.941530e+02	-6.638539e-03
1.952744e+02	-6.715388e-03
1.964023e+02	-6.793127e-03
1.975367e+02	-6.871765e-03
1.986777e+02	-6.951312e-03
1.998252e+02	-7.031779e-03
2.009794e+02	-7.113177e-03
2.021403e+02	-7.195517e-03
2.033078e+02	-7.278809e-03
2.044821e+02	-7.363064e-03
2.056632e+02	-7.448294e-03
2.068511e+02	-7.534509e-03
2.080459e+02	-7.621721e-03
2.092475e+02	-7.709942e-03
2.104561e+02	-7.799184e-03
2.116717e+02	-7.889457e-03
2.128943e+02	-7.980774e-03
2.141240e+02	-8.073147e-03
2.153608e+02	-8.166589e-03
2.166047e+02	-8.261110e-03
2.178558e+02	-8.356725e-03
2.191141e+02	-8.453445e-03
2.203797e+02	-8.551284e-03
2.216526e+02	-8.650254e-03
2.229329e+02	-8.750368e-03
2.242205e+02	-8.851640e-03
2.255156e+02	-8.954082e-03
2.268182e+02	-9.057709e-03
2.281283e+02	-9.162534e-03
2.294459e+02	-9.268571e-03
2.307712e+02	-9.375833e-03
2.321041e+02	-9.484336e-03
2.334447e+02	-9.594092e-03
2.347931e+02	-9.705118e-03
2.361493e+02	-9.817427e-03
2.375133e+02	-9.931034e-03
2.388851e+02	-1.004595e-02
2.402649e+02	-1.016220e-02
2.416527e+02	-1.027979e-02
2.430484e+02	-1.039875e-02
2.444523e+02	-1.051907e-02
2.458642e+02	-1.064079e-02
2.472843e+02	-1.076391e-02
2.487126e+02	-1.088846e-02
2.501492e+02	-1.101444e-02
2.515940e+02	-1.114188e-02
2.530472e+02	-1.127080e-02
2.545088e+02	-1.140120e-02
2.559789e+02	-1.153311e-02
2.574574e+02	-1.166654e-02
2.589444e+02	-1.180152e-02
2.604401e+02	-1.193805e-02
2.619444e+02	-1.207617e-02
2.634574e+02	-1.221587e-02
2.649791e+02	-1.235720e-02
2.665096e+02	-1.250015e-02
2.680489e+02	-1.264476e-02
2.695972e+02	-1.279103e-02
2.711544e+02	-1.293900e-02
2.727205e+02	-1.308867e-02
2.742958e+02	-1.324008e-02
2.758801e+02	-1.339323e-02
2.774736e+02	-1.354815e-02
2.790762e+02	-1.370486e-02
2.806882e+02	-1.386338e-02
2.823094e+02	-1.402373e-02
2.839400e+02	-1.418594e-02
2.855800e+02	-1.435001e-02
2.872295e+02	-1.451598e-02
2.888886e+02	-1.468387e-02
2.905572e+02	-1.485369e-02
2.922354e+02	-1.502548e-02
2.939234e+02	-1.519924e-02
2.956211e+02	-1.537502e-02
2.973286e+02	-1.555282e-02
2.990459e+02	-1.573268e-02
3.007732e+02	-1.591461e-02
3.025104e+02	-1.609864e-02
3.042577e+02	-1.628480e-02
3.060151e+02	-1.647310e-02
3.077826e+02	-1.666358e-02
3.095604e+02	-1.685626e-02
3.113484e+02	-1.705116e-02
3.131467e+02	-1.724831e-02
3.149554e+02	-1.744773e-02
3.167746e+02	-1.764945e-02
3.186043e+02	-1.785350e-02
3.204445e+02	-1.805991e-02
3.222954e+02	-1.826870e-02
3.241570e+02	-1.847989e-02
3.260293e+02	-1.869353e-02
3.279124e+02	-1.890962e-02
3.298064e+02	-1.912821e-02
3.317114e+02	-1.934932e-02
3.336273e+02	-1.957298e-02
3.355544e+02	-1.979922e-02
3.374925e+02	-2.002807e-02
3.394418e+02	-2.025956e-02
3.414024e+02	-2.049371e-02
3.433744e+02	-2.073057e-02
3.453577e+02	-2.097016e-02
3.473525e+02	-2.121251e-02
3.493588e+02	-2.145765e-02
3.513766e+02	-2.170562e-02
3.534062e+02	-2.195645e-02
3.554474e+02	-2.221017e-02
3.575005e+02	-2.246681e-02
3.595654e+02	-2.272641e-02
3.616422e+02	-2.298900e-02
3.637311e+02	-2.325462e-02
3.658320e+02	-2.352330e-02
3.679450e+02	-2.379507e-02
3.700702e+02	-2.406998e-02
3.722077e+02	-2.434805e-02
3.743576e+02	-2.462933e-02
3.765199e+02	-2.491384e-02
3.786946e+02	-2.520164e-02
3.808820e+02	-2.549275e-02
3.830819e+02	-2.578721e-02
3.852946e+02	-2.608506e-02
3.875200e+02	-2.638634e-02
3.897583e+02	-2.669109e-02
3.920096e+02	-2.699935e-02
3.942738e+02	-2.731116e-02
3.965511e+02	-2.762656e-02
3.988416e+02	-2.794558e-02
4.011452e+02	-2.826828e-02
4.034622e+02	-2.859470e-02
4.057926e+02	-2.892487e-02
4.081365e+02	-2.925884e-02
4.104938e+02	-2.959665e-02
4.128648e+02	-2.993835e-02
4.152495e+02	-3.028398e-02
4.176480e+02	-3.063359e-02
4.200603e+02	-3.098722e-02
4.224866e+02	-3.134491e-02
4.249268e+02	-3.170672e-02
4.273812e+02	-3.207269e-02
4.298497e+02	-3.244287e-02
4.323325e+02	-3.281731e-02
4.348297e+02	-3.319605e-02
4.373412e+02	-3.357914e-02
4.398673e+02	-3.396664e-02
4.424079e+02	-3.435859e-02
4.449633e+02	-3.475505e-02
4.475334e+02	-3.515606e-02
4.501183e+02	-3.556168e-02
4.527182e+02	-3.597196e-02
4.553330e+02	-3.638696e-02
4.579630e+02	-3.680672e-02
4.606082e+02	-3.723130e-02
4.632687e+02	-3.766076e-02
4.659445e+02	-3.809516e-02
4.686358e+02	-3.853454e-02
4.713426e+02	-3.897896e-02
4.740650e+02	-3.942849e-02
4.768032e+02	-3.988318e-02
4.795572e+02	-4.034308e-02
4.823271e+02	-4.080827e-02
4.851130e+02	-4.127879e-02
4.879150e+02	-4.175471e-02
4.907332e+02	-4.223609e-02
4.935676e+02	-4.272300e-02
4.964185e+02	-4.321549e-02
4.992858e+02	-4.371363e-02
5.021696e+02	-4.421748e-02
5.050701e+02	-4.472711e-02
5.079874e+02	-4.524258e-02
5.109215e+02	-4.576396e-02
5.138726e+02	-4.629131e-02
5.168407e+02	-4.682472e-02
5.198259e+02	-4.736423e-02
5.228284e+02	-4.790993e-02
5.258482e+02	-4.846187e-02
5.288855e+02	-4.902014e-02
5.319403e+02	-4.958481e-02
5.350128e+02	-5.015594e-02
5.381030e+02	-5.073361e-02
5.412111e+02	-5.131789e-02
5.443371e+02	-5.190887e-02
5.474812e+02	-5.250660e-02
5.506434e+02	-5.311118e-02
5.538239e+02	-5.372268e-02
5.570228e+02	-5.434117e-02
5.602401e+02	-5.496674e-02
5.634760e+02	-5.559947e-02
5.667306e+02	-5.623942e-02
5.700040e+02	-5.688670e-02
5.732964e+02	-5.754138e-02
5.766077e+02	-5.820354e-02
5.799382e+02	-5.887327e-02
5.832879e+02	-5.955065e-02
5.866569e+02	-6.023577e-02
5.900454e+02	-6.092872e-02
5.934535e+02	-6.162959e-02
5.968813e+02	-6.233845e-02
6.003288e+02	-6.305541e-02
6.037963e+02	-6.378056e-02
6.072838e+02	-6.451399e-02
6.107914e+02	-6.525578e-02
6.143194e+02	-6.600604e-02
6.178676e+02	-6.676486e-02
6.214364e+02	-6.753233e-02
6.250258e+02	-6.830856e-02
6.286359e+02	-6.909363e-02
6.322669e+02	-6.988766e-02
6.359189e+02	-7.069074e-02
6.395919e+02	-7.150297e-02
6.432862e+02	-7.232445e-02
6.470017e+02	-7.315529e-02
6.507388e+02	-7.399560e-02
6.544974e+02	-7.484547e-02
6.582778e+02	-7.570502e-02
6.620800e+02	-7.657436e-02
6.659041e+02	-7.745358e-02
6.697504e+02	-7.834281e-02
6.736188e+02	-7.924216e-02
6.775096e+02	-8.015174e-02
6.814229e+02	-8.107166e-02
6.853587e+02	-8.200203e-02
6.893173e+02	-8.294298e-02
6.932988e+02	-8.389463e-02
6.973033e+02	-8.485708e-02
7.013309e+02	-8.583047e-02
