Frequency(Hz)	Magnitude(dB)
1.000000e+01	-2.118873e+00
1.005776e+01	-2.138062e+00
1.011585e+01	-2.157634e+00
1.017428e+01	-2.177387e+00
1.023305e+01	-2.197257e+00
1.029215e+01	-2.217330e+00
1.035160e+01	-2.237046e+00
1.041139e+01	-2.257348e+00
1.047153e+01	-2.277874e+00
1.053201e+01	-2.298244e+00
1.059284e+01	-2.318963e+00
1.065403e+01	-2.339807e+00
1.071556e+01	-2.360460e+00
1.077746e+01	-2.381704e+00
1.083971e+01	-2.403049e+00
1.090232e+01	-2.424082e+00
1.096529e+01	-2.445630e+00
1.102862e+01	-2.466984e+00
1.109232e+01	-2.488855e+00
1.115639e+01	-2.510776e+00
1.122083e+01	-2.532647e+00
1.128564e+01	-2.555114e+00
1.135083e+01	-2.577651e+00
1.141639e+01	-2.599898e+00
1.148233e+01	-2.622411e+00
1.154865e+01	-2.645119e+00
1.161536e+01	-2.667944e+00
1.168245e+01	-2.691110e+00
1.174992e+01	-2.714188e+00
1.181779e+01	-2.737565e+00
1.188605e+01	-2.761047e+00
1.195470e+01	-2.784697e+00
1.202375e+01	-2.808458e+00
1.209320e+01	-2.832031e+00
1.216305e+01	-2.856309e+00
1.223330e+01	-2.880574e+00
1.230396e+01	-2.905014e+00
1.237503e+01	-2.929593e+00
1.244651e+01	-2.953878e+00
1.251840e+01	-2.978894e+00
1.259070e+01	-3.003511e+00
1.266343e+01	-3.028683e+00
1.273657e+01	-3.053728e+00
1.281014e+01	-3.079084e+00
1.288413e+01	-3.104686e+00
1.295855e+01	-3.130233e+00
1.303339e+01	-3.156216e+00
1.310867e+01	-3.181863e+00
1.318439e+01	-3.208137e+00
1.326054e+01	-3.234040e+00
1.333713e+01	-3.260448e+00
1.341417e+01	-3.287196e+00
1.349165e+01	-3.313757e+00
1.356958e+01	-3.340456e+00
1.364795e+01	-3.367310e+00
1.372678e+01	-3.394501e+00
1.380607e+01	-3.421589e+00
1.388581e+01	-3.449003e+00
1.396602e+01	-3.476321e+00
1.404668e+01	-3.503935e+00
1.412782e+01	-3.532272e+00
1.420942e+01	-3.559970e+00
1.429149e+01	-3.587859e+00
1.437404e+01	-3.615921e+00
1.445706e+01	-3.644170e+00
1.454057e+01	-3.672506e+00
1.462455e+01	-3.701509e+00
1.470902e+01	-3.730120e+00
1.479398e+01	-3.759135e+00
1.487943e+01	-3.787931e+00
1.496537e+01	-3.817368e+00
1.505181e+01	-3.846698e+00
1.513875e+01	-3.875855e+00
1.522619e+01	-3.905771e+00
1.531414e+01	-3.935670e+00
1.540259e+01	-3.965401e+00
1.549156e+01	-3.995507e+00
1.558103e+01	-4.025552e+00
1.567103e+01	-4.055682e+00
1.576155e+01	-4.086258e+00
1.585258e+01	-4.116804e+00
1.594415e+01	-4.147382e+00
1.603624e+01	-4.178598e+00
1.612886e+01	-4.209522e+00
1.622202e+01	-4.240294e+00
1.631572e+01	-4.271910e+00
1.640996e+01	-4.303171e+00
1.650474e+01	-4.334692e+00
1.660008e+01	-4.366278e+00
1.669596e+01	-4.398023e+00
1.679239e+01	-4.429986e+00
1.688938e+01	-4.461934e+00
1.698694e+01	-4.494135e+00
1.708505e+01	-4.526735e+00
1.718373e+01	-4.559223e+00
1.728299e+01	-4.591585e+00
1.738281e+01	-4.624231e+00
1.748322e+01	-4.657292e+00
1.758420e+01	-4.690127e+00
1.768576e+01	-4.723250e+00
1.778792e+01	-4.756738e+00
1.789066e+01	-4.789696e+00
1.799399e+01	-4.823294e+00
1.809793e+01	-4.856605e+00
1.820246e+01	-4.890524e+00
1.830760e+01	-4.924466e+00
1.841334e+01	-4.958407e+00
1.851969e+01	-4.992521e+00
1.862666e+01	-5.026740e+00
1.873425e+01	-5.061165e+00
1.884246e+01	-5.095806e+00
1.895129e+01	-5.130508e+00
1.906075e+01	-5.165122e+00
1.917085e+01	-5.199871e+00
1.928158e+01	-5.234670e+00
1.939295e+01	-5.269931e+00
1.950496e+01	-5.305104e+00
1.961762e+01	-5.340430e+00
1.973093e+01	-5.375833e+00
1.984490e+01	-5.411440e+00
1.995952e+01	-5.447434e+00
2.007480e+01	-5.483117e+00
2.019076e+01	-5.519308e+00
2.030738e+01	-5.555198e+00
2.042467e+01	-5.591228e+00
2.054264e+01	-5.627586e+00
2.066130e+01	-5.663770e+00
2.078064e+01	-5.700437e+00
2.090066e+01	-5.737033e+00
2.102139e+01	-5.774011e+00
2.114280e+01	-5.810503e+00
2.126492e+01	-5.847617e+00
2.138775e+01	-5.884595e+00
2.151128e+01	-5.921651e+00
2.163553e+01	-5.958937e+00
2.176050e+01	-5.996541e+00
2.188619e+01	-6.033904e+00
2.201260e+01	-6.071600e+00
2.213974e+01	-6.109445e+00
2.226762e+01	-6.147158e+00
2.239624e+01	-6.185149e+00
2.252560e+01	-6.223108e+00
2.265571e+01	-6.261655e+00
2.278656e+01	-6.299406e+00
2.291818e+01	-6.338100e+00
2.305055e+01	-6.376423e+00
2.318369e+01	-6.414733e+00
2.331760e+01	-6.453613e+00
2.345228e+01	-6.492317e+00
2.358774e+01	-6.531213e+00
2.372398e+01	-6.570011e+00
2.386101e+01	-6.609485e+00
2.399883e+01	-6.648298e+00
2.413745e+01	-6.687248e+00
2.427686e+01	-6.726820e+00
2.441709e+01	-6.766220e+00
2.455812e+01	-6.805958e+00
2.469997e+01	-6.845532e+00
2.484263e+01	-6.885389e+00
2.498612e+01	-6.925034e+00
2.513044e+01	-6.964924e+00
2.527559e+01	-7.005045e+00
2.542158e+01	-7.044801e+00
2.556842e+01	-7.085442e+00
2.571610e+01	-7.125774e+00
2.586463e+01	-7.165949e+00
2.601403e+01	-7.206352e+00
2.616428e+01	-7.247014e+00
2.631541e+01	-7.287393e+00
2.646740e+01	-7.328382e+00
2.662028e+01	-7.368906e+00
2.677404e+01	-7.409998e+00
2.692868e+01	-7.450811e+00
2.708422e+01	-7.492448e+00
2.724066e+01	-7.533298e+00
2.739800e+01	-7.574095e+00
2.755625e+01	-7.616007e+00
2.771541e+01	-7.657277e+00
2.787550e+01	-7.698698e+00
2.803650e+01	-7.740213e+00
2.819844e+01	-7.782084e+00
2.836131e+01	-7.823981e+00
2.852513e+01	-7.865162e+00
2.868989e+01	-7.907572e+00
2.885560e+01	-7.949738e+00
2.902227e+01	-7.991087e+00
2.918990e+01	-8.033706e+00
2.935850e+01	-8.076059e+00
2.952807e+01	-8.118071e+00
2.969863e+01	-8.160228e+00
2.987016e+01	-8.202747e+00
3.004269e+01	-8.245315e+00
3.021622e+01	-8.287673e+00
3.039075e+01	-8.330596e+00
3.056628e+01	-8.373223e+00
3.074283e+01	-8.415810e+00
3.092040e+01	-8.458636e+00
3.109900e+01	-8.501408e+00
3.127862e+01	-8.544898e+00
3.145929e+01	-8.587542e+00
3.164099e+01	-8.630719e+00
3.182375e+01	-8.674201e+00
3.200756e+01	-8.717358e+00
3.219244e+01	-8.760461e+00
3.237838e+01	-8.804424e+00
3.256540e+01	-8.847284e+00
3.275349e+01	-8.891036e+00
3.294268e+01	-8.934836e+00
3.313295e+01	-8.978330e+00
3.332433e+01	-9.022307e+00
3.351681e+01	-9.066004e+00
3.371040e+01	-9.109859e+00
3.390511e+01	-9.153609e+00
3.410094e+01	-9.197528e+00
3.429791e+01	-9.241704e+00
3.449601e+01	-9.286121e+00
3.469526e+01	-9.330410e+00
3.489566e+01	-9.374100e+00
3.509721e+01	-9.418735e+00
3.529993e+01	-9.462681e+00
3.550382e+01	-9.506985e+00
3.570889e+01	-9.551585e+00
3.591515e+01	-9.596234e+00
3.612259e+01	-9.640344e+00
3.633123e+01	-9.685297e+00
3.654108e+01	-9.729731e+00
3.675214e+01	-9.774444e+00
3.696442e+01	-9.819660e+00
3.717792e+01	-9.864268e+00
3.739266e+01	-9.909226e+00
3.760864e+01	-9.953585e+00
3.782587e+01	-9.999393e+00
3.804435e+01	-1.004399e+01
3.826409e+01	-1.008940e+01
3.848510e+01	-1.013430e+01
3.870739e+01	-1.017918e+01
3.893096e+01	-1.022499e+01
3.915583e+01	-1.027003e+01
3.938199e+01	-1.031556e+01
3.960946e+01	-1.036056e+01
3.983824e+01	-1.040631e+01
4.006834e+01	-1.045127e+01
4.029978e+01	-1.049755e+01
4.053255e+01	-1.054278e+01
4.076666e+01	-1.058877e+01
4.100213e+01	-1.063401e+01
4.123896e+01	-1.067990e+01
4.147715e+01	-1.072545e+01
4.171672e+01	-1.077138e+01
4.195767e+01	-1.081789e+01
4.220002e+01	-1.086397e+01
4.244377e+01	-1.090960e+01
4.268892e+01	-1.095575e+01
4.293549e+01	-1.100189e+01
4.318348e+01	-1.104697e+01
4.343291e+01	-1.109402e+01
4.368377e+01	-1.113963e+01
4.393609e+01	-1.118666e+01
4.418986e+01	-1.123222e+01
4.444510e+01	-1.127906e+01
4.470182e+01	-1.132488e+01
4.496001e+01	-1.137162e+01
4.521970e+01	-1.141735e+01
4.548089e+01	-1.146400e+01
4.574358e+01	-1.151051e+01
4.600779e+01	-1.155675e+01
4.627353e+01	-1.160366e+01
4.654081e+01	-1.165047e+01
4.680963e+01	-1.169742e+01
4.708000e+01	-1.174365e+01
4.735193e+01	-1.178969e+01
4.762543e+01	-1.183661e+01
4.790051e+01	-1.188379e+01
4.817719e+01	-1.193021e+01
4.845545e+01	-1.197801e+01
4.873533e+01	-1.202412e+01
4.901682e+01	-1.207121e+01
4.929994e+01	-1.211727e+01
4.958470e+01	-1.216451e+01
4.987110e+01	-1.221221e+01
5.015915e+01	-1.225879e+01
5.044887e+01	-1.230632e+01
5.074026e+01	-1.235285e+01
5.103333e+01	-1.240066e+01
5.132810e+01	-1.244697e+01
5.162457e+01	-1.249432e+01
5.192275e+01	-1.254188e+01
5.222265e+01	-1.258889e+01
5.252429e+01	-1.263619e+01
5.282767e+01	-1.268479e+01
5.313280e+01	-1.273108e+01
5.343969e+01	-1.277830e+01
5.374836e+01	-1.282585e+01
5.405880e+01	-1.287337e+01
5.437105e+01	-1.292025e+01
5.468509e+01	-1.296780e+01
5.500095e+01	-1.301551e+01
5.531863e+01	-1.306330e+01
5.563815e+01	-1.311081e+01
5.595951e+01	-1.315876e+01
5.628273e+01	-1.320638e+01
5.660782e+01	-1.325370e+01
5.693479e+01	-1.330163e+01
5.726364e+01	-1.334878e+01
5.759439e+01	-1.339676e+01
5.792705e+01	-1.344341e+01
5.826164e+01	-1.349222e+01
5.859815e+01	-1.354023e+01
5.893662e+01	-1.358723e+01
5.927703e+01	-1.363560e+01
5.961941e+01	-1.368346e+01
5.996377e+01	-1.373193e+01
6.031012e+01	-1.377917e+01
6.065847e+01	-1.382720e+01
6.100883e+01	-1.387520e+01
6.136121e+01	-1.392424e+01
6.171563e+01	-1.397142e+01
6.207210e+01	-1.401928e+01
6.243063e+01	-1.406754e+01
6.279122e+01	-1.411471e+01
6.315390e+01	-1.416466e+01
6.351868e+01	-1.421200e+01
6.388556e+01	-1.425981e+01
6.425456e+01	-1.430923e+01
6.462569e+01	-1.435631e+01
6.499897e+01	-1.440514e+01
6.537440e+01	-1.445188e+01
6.575200e+01	-1.450079e+01
6.613178e+01	-1.454863e+01
6.651375e+01	-1.459740e+01
6.689793e+01	-1.464541e+01
6.728433e+01	-1.469475e+01
6.767297e+01	-1.474298e+01
6.806384e+01	-1.479054e+01
6.845698e+01	-1.483915e+01
6.885238e+01	-1.488795e+01
6.925007e+01	-1.493530e+01
6.965005e+01	-1.498502e+01
7.005235e+01	-1.503276e+01
7.045697e+01	-1.508136e+01
7.086393e+01	-1.513018e+01
7.127323e+01	-1.517817e+01
7.168490e+01	-1.522565e+01
7.209895e+01	-1.527669e+01
7.251539e+01	-1.532408e+01
7.293424e+01	-1.537264e+01
7.335551e+01	-1.542144e+01
7.377920e+01	-1.546945e+01
7.420535e+01	-1.551778e+01
7.463396e+01	-1.556758e+01
7.506504e+01	-1.561568e+01
7.549861e+01	-1.566432e+01
7.593469e+01	-1.571227e+01
7.637328e+01	-1.576186e+01
7.681441e+01	-1.581087e+01
7.725809e+01	-1.585795e+01
7.770433e+01	-1.590855e+01
7.815315e+01	-1.595612e+01
7.860456e+01	-1.600506e+01
7.905857e+01	-1.605399e+01
7.951521e+01	-1.610308e+01
7.997449e+01	-1.615280e+01
8.043642e+01	-1.620030e+01
8.090102e+01	-1.624912e+01
8.136830e+01	-1.629818e+01
8.183828e+01	-1.634655e+01
8.231097e+01	-1.639607e+01
8.278640e+01	-1.644445e+01
8.326457e+01	-1.649559e+01
8.374550e+01	-1.654331e+01
8.422921e+01	-1.659150e+01
8.471572e+01	-1.664111e+01
8.520503e+01	-1.668948e+01
8.569717e+01	-1.673928e+01
8.619215e+01	-1.678751e+01
8.669000e+01	-1.683756e+01
8.719071e+01	-1.688464e+01
8.769432e+01	-1.693377e+01
8.820084e+01	-1.698421e+01
8.871029e+01	-1.703194e+01
8.922267e+01	-1.708142e+01
8.973802e+01	-1.712955e+01
9.025634e+01	-1.717974e+01
9.077766e+01	-1.722886e+01
9.130199e+01	-1.727852e+01
9.182935e+01	-1.732645e+01
9.235975e+01	-1.737449e+01
9.289321e+01	-1.742598e+01
9.342976e+01	-1.747337e+01
9.396941e+01	-1.752358e+01
9.451217e+01	-1.757222e+01
9.505807e+01	-1.762014e+01
9.560712e+01	-1.766960e+01
9.615934e+01	-1.771938e+01
9.671476e+01	-1.776796e+01
9.727338e+01	-1.781722e+01
9.783522e+01	-1.786728e+01
9.840032e+01	-1.791719e+01
9.896867e+01	-1.796617e+01
9.954031e+01	-1.801359e+01
1.001153e+02	-1.806435e+01
1.006935e+02	-1.811394e+01
1.012751e+02	-1.816297e+01
1.018601e+02	-1.821164e+01
1.024484e+02	-1.826092e+01
1.030402e+02	-1.830987e+01
1.036353e+02	-1.835953e+01
1.042339e+02	-1.841040e+01
1.048360e+02	-1.845873e+01
1.054415e+02	-1.850778e+01
1.060505e+02	-1.855802e+01
1.066631e+02	-1.860680e+01
1.072791e+02	-1.865614e+01
1.078988e+02	-1.870486e+01
1.085220e+02	-1.875468e+01
1.091488e+02	-1.880374e+01
1.097793e+02	-1.885383e+01
1.104133e+02	-1.890349e+01
1.110511e+02	-1.895044e+01
1.116925e+02	-1.900252e+01
1.123376e+02	-1.905137e+01
1.129865e+02	-1.909989e+01
1.136391e+02	-1.915172e+01
1.142955e+02	-1.919912e+01
1.149556e+02	-1.924938e+01
1.156196e+02	-1.929660e+01
1.162874e+02	-1.934797e+01
1.169591e+02	-1.939693e+01
1.176347e+02	-1.944600e+01
1.183141e+02	-1.949690e+01
1.189975e+02	-1.954616e+01
1.196848e+02	-1.959524e+01
1.203761e+02	-1.964510e+01
1.210714e+02	-1.969414e+01
1.217707e+02	-1.974365e+01
1.224740e+02	-1.979264e+01
1.231814e+02	-1.984325e+01
1.238929e+02	-1.989182e+01
1.246085e+02	-1.994224e+01
1.253283e+02	-1.999009e+01
1.260522e+02	-2.004089e+01
1.267802e+02	-2.008917e+01
1.275125e+02	-2.013869e+01
1.282490e+02	-2.018882e+01
1.289898e+02	-2.023854e+01
1.297348e+02	-2.028889e+01
1.304842e+02	-2.033704e+01
1.312378e+02	-2.038860e+01
1.319959e+02	-2.043602e+01
1.327583e+02	-2.048627e+01
1.335251e+02	-2.053597e+01
1.342963e+02	-2.058659e+01
1.350720e+02	-2.063552e+01
1.358522e+02	-2.068656e+01
1.366368e+02	-2.073467e+01
1.374260e+02	-2.078522e+01
1.382198e+02	-2.083336e+01
1.390182e+02	-2.088282e+01
1.398211e+02	-2.093370e+01
1.406287e+02	-2.098293e+01
1.414410e+02	-2.103227e+01
1.422579e+02	-2.108305e+01
1.430796e+02	-2.113158e+01
1.439060e+02	-2.118080e+01
1.447372e+02	-2.123168e+01
1.455732e+02	-2.128049e+01
1.464141e+02	-2.132985e+01
1.472597e+02	-2.138056e+01
1.481103e+02	-2.143219e+01
1.489658e+02	-2.147992e+01
1.498262e+02	-2.152856e+01
1.506916e+02	-2.158003e+01
1.515620e+02	-2.162966e+01
1.524374e+02	-2.167599e+01
1.533179e+02	-2.172714e+01
1.542034e+02	-2.177574e+01
1.550941e+02	-2.182708e+01
1.559899e+02	-2.187733e+01
1.568909e+02	-2.192643e+01
1.577971e+02	-2.197591e+01
1.587085e+02	-2.202615e+01
1.596252e+02	-2.207436e+01
1.605472e+02	-2.212708e+01
1.614745e+02	-2.217543e+01
1.624072e+02	-2.222497e+01
1.633453e+02	-2.227321e+01
1.642887e+02	-2.232480e+01
1.652377e+02	-2.237543e+01
1.661921e+02	-2.242382e+01
1.671520e+02	-2.247387e+01
1.681175e+02	-2.252282e+01
1.690885e+02	-2.257293e+01
1.700651e+02	-2.262534e+01
1.710474e+02	-2.267296e+01
1.720354e+02	-2.272378e+01
1.730291e+02	-2.277183e+01
1.740285e+02	-2.282152e+01
1.750337e+02	-2.287106e+01
1.760446e+02	-2.292131e+01
1.770615e+02	-2.297160e+01
1.780842e+02	-2.301887e+01
1.791128e+02	-2.307195e+01
1.801473e+02	-2.312217e+01
1.811878e+02	-2.317130e+01
1.822344e+02	-2.322228e+01
1.832870e+02	-2.327124e+01
1.843456e+02	-2.331927e+01
1.854104e+02	-2.337070e+01
1.864813e+02	-2.342169e+01
1.875584e+02	-2.346921e+01
1.886418e+02	-2.352094e+01
1.897313e+02	-2.356934e+01
1.908272e+02	-2.361683e+01
1.919294e+02	-2.366874e+01
1.930380e+02	-2.371575e+01
1.941530e+02	-2.377241e+01
1.952744e+02	-2.381732e+01
1.964023e+02	-2.386698e+01
1.975367e+02	-2.392062e+01
1.986777e+02	-2.396681e+01
1.998252e+02	-2.402112e+01
2.009794e+02	-2.406700e+01
2.021403e+02	-2.411878e+01
2.033078e+02	-2.416783e+01
2.044821e+02	-2.421785e+01
2.056632e+02	-2.426899e+01
2.068511e+02	-2.431619e+01
2.080459e+02	-2.436814e+01
2.092475e+02	-2.441655e+01
2.104561e+02	-2.446875e+01
2.116717e+02	-2.451399e+01
2.128943e+02	-2.456475e+01
2.141240e+02	-2.461475e+01
2.153608e+02	-2.466573e+01
2.166047e+02	-2.471491e+01
2.178558e+02	-2.476860e+01
2.191141e+02	-2.481682e+01
2.203797e+02	-2.486562e+01
2.216526e+02	-2.491714e+01
2.229329e+02	-2.496338e+01
2.242205e+02	-2.501735e+01
2.255156e+02	-2.506557e+01
2.268182e+02	-2.511717e+01
2.281283e+02	-2.516779e+01
2.294459e+02	-2.521578e+01
2.307712e+02	-2.526148e+01
2.321041e+02	-2.531295e+01
2.334447e+02	-2.536496e+01
2.347931e+02	-2.541512e+01
2.361493e+02	-2.546878e+01
2.375133e+02	-2.551266e+01
2.388851e+02	-2.556469e+01
2.402649e+02	-2.561359e+01
2.416527e+02	-2.566257e+01
2.430484e+02	-2.571482e+01
2.444523e+02	-2.576461e+01
2.458642e+02	-2.581833e+01
2.472843e+02	-2.586324e+01
2.487126e+02	-2.591754e+01
2.501492e+02	-2.596530e+01
2.515940e+02	-2.601571e+01
2.530472e+02	-2.606302e+01
2.545088e+02	-2.611343e+01
2.559789e+02	-2.616363e+01
2.574574e+02	-2.621440e+01
2.589444e+02	-2.626125e+01
2.604401e+02	-2.631629e+01
2.619444e+02	-2.636240e+01
2.634574e+02	-2.641375e+01
2.649791e+02	-2.646525e+01
2.665096e+02	-2.651012e+01
2.680489e+02	-2.656302e+01
2.695972e+02	-2.661357e+01
2.711544e+02	-2.666055e+01
2.727205e+02	-2.671179e+01
2.742958e+02	-2.676402e+01
2.758801e+02	-2.681507e+01
2.774736e+02	-2.686395e+01
2.790762e+02	-2.691581e+01
2.806882e+02	-2.696533e+01
2.823094e+02	-2.700855e+01
2.839400e+02	-2.706717e+01
2.855800e+02	-2.711368e+01
2.872295e+02	-2.716136e+01
2.888886e+02	-2.721861e+01
2.905572e+02	-2.726600e+01
2.922354e+02	-2.731174e+01
2.939234e+02	-2.736056e+01
2.956211e+02	-2.741879e+01
2.973286e+02	-2.746455e+01
2.990459e+02	-2.751526e+01
3.007732e+02	-2.756554e+01
3.025104e+02	-2.761492e+01
3.042577e+02	-2.766492e+01
3.060151e+02	-2.771365e+01
3.077826e+02	-2.776253e+01
3.095604e+02	-2.781565e+01
3.113484e+02	-2.786710e+01
3.131467e+02	-2.791458e+01
3.149554e+02	-2.796657e+01
3.167746e+02	-2.801586e+01
3.186043e+02	-2.806452e+01
3.204445e+02	-2.811717e+01
3.222954e+02	-2.816569e+01
3.241570e+02	-2.821730e+01
3.260293e+02	-2.827002e+01
3.279124e+02	-2.831331e+01
3.298064e+02	-2.836847e+01
3.317114e+02	-2.841577e+01
3.336273e+02	-2.846074e+01
3.355544e+02	-2.851357e+01
3.374925e+02	-2.856270e+01
3.394418e+02	-2.861216e+01
3.414024e+02	-2.866523e+01
3.433744e+02	-2.871539e+01
3.453577e+02	-2.875966e+01
3.473525e+02	-2.881229e+01
3.493588e+02	-2.886037e+01
3.513766e+02	-2.891302e+01
3.534062e+02	-2.895930e+01
3.554474e+02	-2.901153e+01
3.575005e+02	-2.906650e+01
3.595654e+02	-2.911134e+01
3.616422e+02	-2.916711e+01
3.637311e+02	-2.921303e+01
3.658320e+02	-2.926457e+01
3.679450e+02	-2.931558e+01
3.700702e+02	-2.936734e+01
3.722077e+02	-2.941664e+01
3.743576e+02	-2.946307e+01
3.765199e+02	-2.950922e+01
3.786946e+02	-2.956721e+01
3.808820e+02	-2.961033e+01
3.830819e+02	-2.966658e+01
3.852946e+02	-2.971528e+01
3.875200e+02	-2.976878e+01
3.897583e+02	-2.981278e+01
3.920096e+02	-2.986467e+01
3.942738e+02	-2.991851e+01
3.965511e+02	-2.996501e+01
3.988416e+02	-3.001761e+01
4.011452e+02	-3.006735e+01
4.034622e+02	-3.011515e+01
4.057926e+02	-3.016316e+01
4.081365e+02	-3.021564e+01
4.104938e+02	-3.026942e+01
4.128648e+02	-3.031497e+01
4.152495e+02	-3.037167e+01
4.176480e+02	-3.041627e+01
4.200603e+02	-3.046419e+01
4.224866e+02	-3.051709e+01
4.249268e+02	-3.056363e+01
4.273812e+02	-3.061548e+01
4.298497e+02	-3.066796e+01
4.323325e+02	-3.071490e+01
4.348297e+02	-3.076864e+01
4.373412e+02	-3.081910e+01
4.398673e+02	-3.086287e+01
4.424079e+02	-3.091525e+01
4.449633e+02	-3.097035e+01
4.475334e+02	-3.101711e+01
4.501183e+02	-3.107237e+01
4.527182e+02	-3.111526e+01
4.553330e+02	-3.116308e+01
4.579630e+02	-3.121908e+01
4.606082e+02	-3.126848e+01
4.632687e+02	-3.132397e+01
4.659445e+02	-3.137218e+01
4.686358e+02	-3.142180e+01
4.713426e+02	-3.146604e+01
4.740650e+02	-3.151907e+01
4.768032e+02	-3.157271e+01
4.795572e+02	-3.161990e+01
4.823271e+02	-3.167450e+01
4.851130e+02	-3.172180e+01
4.879150e+02	-3.176676e+01
4.907332e+02	-3.182489e+01
4.935676e+02	-3.186669e+01
4.964185e+02	-3.192171e+01
4.992858e+02	-3.197054e+01
5.021696e+02	-3.202379e+01
5.050701e+02	-3.206645e+01
5.079874e+02	-3.211745e+01
5.109215e+02	-3.217229e+01
5.138726e+02	-3.222813e+01
5.168407e+02	-3.227032e+01
5.198259e+02	-3.231792e+01
5.228284e+02	-3.237594e+01
5.258482e+02	-3.241962e+01
5.288855e+02	-3.247202e+01
5.319403e+02	-3.252517e+01
5.350128e+02	-3.257829e+01
5.381030e+02	-3.263131e+01
5.412111e+02	-3.266640e+01
5.443371e+02	-3.271834e+01
5.474812e+02	-3.277363e+01
5.506434e+02	-3.282374e+01
5.538239e+02	-3.288197e+01
5.570228e+02	-3.293245e+01
5.602401e+02	-3.297533e+01
5.634760e+02	-3.302499e+01
5.667306e+02	-3.307593e+01
5.700040e+02	-3.312312e+01
5.732964e+02	-3.317479e+01
5.766077e+02	-3.322474e+01
5.799382e+02	-3.327365e+01
5.832879e+02	-3.333065e+01
5.866569e+02	-3.337996e+01
5.900454e+02	-3.342520e+01
5.934535e+02	-3.347845e+01
5.968813e+02	-3.353173e+01
6.003288e+02	-3.357313e+01
6.037963e+02	-3.362324e+01
6.072838e+02	-3.367985e+01
6.107914e+02	-3.372482e+01
6.143194e+02	-3.377984e+01
6.178676e+02	-3.383316e+01
6.214364e+02	-3.387340e+01
6.250258e+02	-3.392834e+01
6.286359e+02	-3.398296e+01
6.322669e+02	-3.403233e+01
6.359189e+02	-3.407923e+01
6.395919e+02	-3.412917e+01
6.432862e+02	-3.419058e+01
6.470017e+02	-3.423060e+01
6.507388e+02	-3.427819e+01
6.544974e+02	-3.432691e+01
6.582778e+02	-3.438632e+01
6.620800e+02	-3.443523e+01
6.659041e+02	-3.448333e+01
6.697504e+02	-3.453003e+01
6.736188e+02	-3.458694e+01
6.775096e+02	-3.462574e+01
6.814229e+02	-3.467962e+01
6.853587e+02	-3.474518e+01
6.893173e+02	-3.478822e+01
6.932988e+02	-3.482839e+01
6.973033e+02	-3.488334e+01
7.013309e+02	-3.493861e+01
