Frequency(Hz)	Magnitude(dB)
1.000000e+01	-1.610003e-05
1.005776e+01	-1.628655e-05
1.011585e+01	-1.647524e-05
1.017428e+01	-1.666611e-05
1.023305e+01	-1.685919e-05
1.029215e+01	-1.705451e-05
1.035160e+01	-1.725209e-05
1.041139e+01	-1.745196e-05
1.047153e+01	-1.765414e-05
1.053201e+01	-1.785867e-05
1.059284e+01	-1.806557e-05
1.065403e+01	-1.827486e-05
1.071556e+01	-1.848658e-05
1.077746e+01	-1.870075e-05
1.083971e+01	-1.891740e-05
1.090232e+01	-1.913657e-05
1.096529e+01	-1.935827e-05
1.102862e+01	-1.958254e-05
1.109232e+01	-1.980941e-05
1.115639e+01	-2.003891e-05
1.122083e+01	-2.027106e-05
1.128564e+01	-2.050591e-05
1.135083e+01	-2.074347e-05
1.141639e+01	-2.098379e-05
1.148233e+01	-2.122689e-05
1.154865e+01	-2.147281e-05
1.161536e+01	-2.172158e-05
1.168245e+01	-2.197323e-05
1.174992e+01	-2.222780e-05
1.181779e+01	-2.248531e-05
1.188605e+01	-2.274581e-05
1.195470e+01	-2.300932e-05
1.202375e+01	-2.327589e-05
1.209320e+01	-2.354555e-05
1.216305e+01	-2.381833e-05
1.223330e+01	-2.409427e-05
1.230396e+01	-2.437341e-05
1.237503e+01	-2.465578e-05
1.244651e+01	-2.494143e-05
1.251840e+01	-2.523038e-05
1.259070e+01	-2.552268e-05
1.266343e+01	-2.581837e-05
1.273657e+01	-2.611748e-05
1.281014e+01	-2.642006e-05
1.288413e+01	-2.672614e-05
1.295855e+01	-2.703577e-05
1.303339e+01	-2.734898e-05
1.310867e+01	-2.766583e-05
1.318439e+01	-2.798634e-05
1.326054e+01	-2.831057e-05
1.333713e+01	-2.863856e-05
1.341417e+01	-2.897034e-05
1.349165e+01	-2.930597e-05
1.356958e+01	-2.964549e-05
1.364795e+01	-2.998894e-05
1.372678e+01	-3.033636e-05
1.380607e+01	-3.068782e-05
1.388581e+01	-3.104334e-05
1.396602e+01	-3.140299e-05
1.404668e+01	-3.176680e-05
1.412782e+01	-3.213483e-05
1.420942e+01	-3.250712e-05
1.429149e+01	-3.288372e-05
1.437404e+01	-3.326468e-05
1.445706e+01	-3.365006e-05
1.454057e+01	-3.403991e-05
1.462455e+01	-3.443427e-05
1.470902e+01	-3.483320e-05
1.479398e+01	-3.523675e-05
1.487943e+01	-3.564497e-05
1.496537e+01	-3.605793e-05
1.505181e+01	-3.647567e-05
1.513875e+01	-3.689825e-05
1.522619e+01	-3.732572e-05
1.531414e+01	-3.775815e-05
1.540259e+01	-3.819559e-05
1.549156e+01	-3.863809e-05
1.558103e+01	-3.908572e-05
1.567103e+01	-3.953854e-05
1.576155e+01	-3.999660e-05
1.585258e+01	-4.045997e-05
1.594415e+01	-4.092871e-05
1.603624e+01	-4.140288e-05
1.612886e+01	-4.188254e-05
1.622202e+01	-4.236776e-05
1.631572e+01	-4.285860e-05
1.640996e+01	-4.335512e-05
1.650474e+01	-4.385740e-05
1.660008e+01	-4.436550e-05
1.669596e+01	-4.487948e-05
1.679239e+01	-4.539942e-05
1.688938e+01	-4.592538e-05
1.698694e+01	-4.645744e-05
1.708505e+01	-4.699566e-05
1.718373e+01	-4.754011e-05
1.728299e+01	-4.809088e-05
1.738281e+01	-4.864802e-05
1.748322e+01	-4.921162e-05
1.758420e+01	-4.978174e-05
1.768576e+01	-5.035848e-05
1.778792e+01	-5.094189e-05
1.789066e+01	-5.153206e-05
1.799399e+01	-5.212907e-05
1.809793e+01	-5.273300e-05
1.820246e+01	-5.334392e-05
1.830760e+01	-5.396192e-05
1.841334e+01	-5.458708e-05
1.851969e+01	-5.521948e-05
1.862666e+01	-5.585921e-05
1.873425e+01	-5.650635e-05
1.884246e+01	-5.716099e-05
1.895129e+01	-5.782321e-05
1.906075e+01	-5.849311e-05
1.917085e+01	-5.917076e-05
1.928158e+01	-5.985627e-05
1.939295e+01	-6.054971e-05
1.950496e+01	-6.125119e-05
1.961762e+01	-6.196080e-05
1.973093e+01	-6.267863e-05
1.984490e+01	-6.340477e-05
1.995952e+01	-6.413933e-05
2.007480e+01	-6.488240e-05
2.019076e+01	-6.563407e-05
2.030738e+01	-6.639445e-05
2.042467e+01	-6.716365e-05
2.054264e+01	-6.794175e-05
2.066130e+01	-6.872887e-05
2.078064e+01	-6.952511e-05
2.090066e+01	-7.033057e-05
2.102139e+01	-7.114536e-05
2.114280e+01	-7.196959e-05
2.126492e+01	-7.280337e-05
2.138775e+01	-7.364681e-05
2.151128e+01	-7.450002e-05
2.163553e+01	-7.536312e-05
2.176050e+01	-7.623622e-05
2.188619e+01	-7.711943e-05
2.201260e+01	-7.801287e-05
2.213974e+01	-7.891666e-05
2.226762e+01	-7.983092e-05
2.239624e+01	-8.075578e-05
2.252560e+01	-8.169135e-05
2.265571e+01	-8.263776e-05
2.278656e+01	-8.359513e-05
2.291818e+01	-8.456359e-05
2.305055e+01	-8.554328e-05
2.318369e+01	-8.653431e-05
2.331760e+01	-8.753682e-05
2.345228e+01	-8.855095e-05
2.358774e+01	-8.957683e-05
2.372398e+01	-9.061459e-05
2.386101e+01	-9.166437e-05
2.399883e+01	-9.272632e-05
2.413745e+01	-9.380057e-05
2.427686e+01	-9.488726e-05
2.441709e+01	-9.598655e-05
2.455812e+01	-9.709856e-05
2.469997e+01	-9.822347e-05
2.484263e+01	-9.936140e-05
2.498612e+01	-1.005125e-04
2.513044e+01	-1.016770e-04
2.527559e+01	-1.028549e-04
2.542158e+01	-1.040465e-04
2.556842e+01	-1.052519e-04
2.571610e+01	-1.064712e-04
2.586463e+01	-1.077047e-04
2.601403e+01	-1.089525e-04
2.616428e+01	-1.102147e-04
2.631541e+01	-1.114916e-04
2.646740e+01	-1.127832e-04
2.662028e+01	-1.140898e-04
2.677404e+01	-1.154116e-04
2.692868e+01	-1.167486e-04
2.708422e+01	-1.181012e-04
2.724066e+01	-1.194694e-04
2.739800e+01	-1.208535e-04
2.755625e+01	-1.222536e-04
2.771541e+01	-1.236699e-04
2.787550e+01	-1.251026e-04
2.803650e+01	-1.265520e-04
2.819844e+01	-1.280181e-04
2.836131e+01	-1.295012e-04
2.852513e+01	-1.310015e-04
2.868989e+01	-1.325191e-04
2.885560e+01	-1.340544e-04
2.902227e+01	-1.356074e-04
2.918990e+01	-1.371784e-04
2.935850e+01	-1.387677e-04
2.952807e+01	-1.403753e-04
2.969863e+01	-1.420016e-04
2.987016e+01	-1.436467e-04
3.004269e+01	-1.453108e-04
3.021622e+01	-1.469942e-04
3.039075e+01	-1.486972e-04
3.056628e+01	-1.504199e-04
3.074283e+01	-1.521625e-04
3.092040e+01	-1.539253e-04
3.109900e+01	-1.557085e-04
3.127862e+01	-1.575124e-04
3.145929e+01	-1.593372e-04
3.164099e+01	-1.611831e-04
3.182375e+01	-1.630505e-04
3.200756e+01	-1.649394e-04
3.219244e+01	-1.668502e-04
3.237838e+01	-1.687832e-04
3.256540e+01	-1.707386e-04
3.275349e+01	-1.727166e-04
3.294268e+01	-1.747175e-04
3.313295e+01	-1.767416e-04
3.332433e+01	-1.787892e-04
3.351681e+01	-1.808605e-04
3.371040e+01	-1.829557e-04
3.390511e+01	-1.850753e-04
3.410094e+01	-1.872194e-04
3.429791e+01	-1.893883e-04
3.449601e+01	-1.915824e-04
3.469526e+01	-1.938019e-04
3.489566e+01	-1.960471e-04
3.509721e+01	-1.983183e-04
3.529993e+01	-2.006158e-04
3.550382e+01	-2.029400e-04
3.570889e+01	-2.052910e-04
3.591515e+01	-2.076693e-04
3.612259e+01	-2.100752e-04
3.633123e+01	-2.125089e-04
3.654108e+01	-2.149708e-04
3.675214e+01	-2.174612e-04
3.696442e+01	-2.199805e-04
3.717792e+01	-2.225290e-04
3.739266e+01	-2.251070e-04
3.760864e+01	-2.277148e-04
3.782587e+01	-2.303529e-04
3.804435e+01	-2.330215e-04
3.826409e+01	-2.357211e-04
3.848510e+01	-2.384519e-04
3.870739e+01	-2.412144e-04
3.893096e+01	-2.440088e-04
3.915583e+01	-2.468356e-04
3.938199e+01	-2.496952e-04
3.960946e+01	-2.525879e-04
3.983824e+01	-2.555141e-04
4.006834e+01	-2.584743e-04
4.029978e+01	-2.614687e-04
4.053255e+01	-2.644978e-04
4.076666e+01	-2.675619e-04
4.100213e+01	-2.706616e-04
4.123896e+01	-2.737972e-04
4.147715e+01	-2.769691e-04
4.171672e+01	-2.801778e-04
4.195767e+01	-2.834236e-04
4.220002e+01	-2.867071e-04
4.244377e+01	-2.900285e-04
4.268892e+01	-2.933885e-04
4.293549e+01	-2.967873e-04
4.318348e+01	-3.002256e-04
4.343291e+01	-3.037037e-04
4.368377e+01	-3.072220e-04
4.393609e+01	-3.107812e-04
4.418986e+01	-3.143815e-04
4.444510e+01	-3.180236e-04
4.470182e+01	-3.217078e-04
4.496001e+01	-3.254348e-04
4.521970e+01	-3.292049e-04
4.548089e+01	-3.330187e-04
4.574358e+01	-3.368766e-04
4.600779e+01	-3.407793e-04
4.627353e+01	-3.447271e-04
4.654081e+01	-3.487207e-04
4.680963e+01	-3.527606e-04
4.708000e+01	-3.568473e-04
4.735193e+01	-3.609813e-04
4.762543e+01	-3.651632e-04
4.790051e+01	-3.693935e-04
4.817719e+01	-3.736728e-04
4.845545e+01	-3.780018e-04
4.873533e+01	-3.823808e-04
4.901682e+01	-3.868106e-04
4.929994e+01	-3.912917e-04
4.958470e+01	-3.958247e-04
4.987110e+01	-4.004103e-04
5.015915e+01	-4.050489e-04
5.044887e+01	-4.097413e-04
5.074026e+01	-4.144880e-04
5.103333e+01	-4.192898e-04
5.132810e+01	-4.241471e-04
5.162457e+01	-4.290607e-04
5.192275e+01	-4.340313e-04
5.222265e+01	-4.390594e-04
5.252429e+01	-4.441457e-04
5.282767e+01	-4.492910e-04
5.313280e+01	-4.544959e-04
5.343969e+01	-4.597611e-04
5.374836e+01	-4.650873e-04
5.405880e+01	-4.704752e-04
5.437105e+01	-4.759254e-04
5.468509e+01	-4.814389e-04
5.500095e+01	-4.870161e-04
5.531863e+01	-4.926580e-04
5.563815e+01	-4.983653e-04
5.595951e+01	-5.041387e-04
5.628273e+01	-5.099789e-04
5.660782e+01	-5.158868e-04
5.693479e+01	-5.218631e-04
5.726364e+01	-5.279087e-04
5.759439e+01	-5.340243e-04
5.792705e+01	-5.402107e-04
5.826164e+01	-5.464688e-04
5.859815e+01	-5.527994e-04
5.893662e+01	-5.592033e-04
5.927703e+01	-5.656814e-04
5.961941e+01	-5.722346e-04
5.996377e+01	-5.788636e-04
6.031012e+01	-5.855695e-04
6.065847e+01	-5.923530e-04
6.100883e+01	-5.992151e-04
6.136121e+01	-6.061567e-04
6.171563e+01	-6.131787e-04
6.207210e+01	-6.202820e-04
6.243063e+01	-6.274676e-04
6.279122e+01	-6.347365e-04
6.315390e+01	-6.420895e-04
6.351868e+01	-6.495278e-04
6.388556e+01	-6.570521e-04
6.425456e+01	-6.646637e-04
6.462569e+01	-6.723634e-04
6.499897e+01	-6.801523e-04
6.537440e+01	-6.880314e-04
6.575200e+01	-6.960018e-04
6.613178e+01	-7.040646e-04
6.651375e+01	-7.122207e-04
6.689793e+01	-7.204713e-04
6.728433e+01	-7.288174e-04
6.767297e+01	-7.372602e-04
6.806384e+01	-7.458009e-04
6.845698e+01	-7.544404e-04
6.885238e+01	-7.631801e-04
6.925007e+01	-7.720209e-04
6.965005e+01	-7.809642e-04
7.005235e+01	-7.900111e-04
7.045697e+01	-7.991627e-04
7.086393e+01	-8.084204e-04
7.127323e+01	-8.177853e-04
7.168490e+01	-8.272586e-04
7.209895e+01	-8.368417e-04
7.251539e+01	-8.465358e-04
7.293424e+01	-8.563422e-04
7.335551e+01	-8.662622e-04
7.377920e+01	-8.762970e-04
7.420535e+01	-8.864481e-04
7.463396e+01	-8.967168e-04
7.506504e+01	-9.071044e-04
7.549861e+01	-9.176124e-04
7.593469e+01	-9.282420e-04
7.637328e+01	-9.389948e-04
7.681441e+01	-9.498721e-04
7.725809e+01	-9.608754e-04
7.770433e+01	-9.720062e-04
7.815315e+01	-9.832659e-04
7.860456e+01	-9.946560e-04
7.905857e+01	-1.006178e-03
7.951521e+01	-1.017833e-03
7.997449e+01	-1.029624e-03
8.043642e+01	-1.041551e-03
8.090102e+01	-1.053616e-03
8.136830e+01	-1.065821e-03
8.183828e+01	-1.078167e-03
8.231097e+01	-1.090657e-03
8.278640e+01	-1.103291e-03
8.326457e+01	-1.116071e-03
8.374550e+01	-1.128999e-03
8.422921e+01	-1.142077e-03
8.471572e+01	-1.155307e-03
8.520503e+01	-1.168690e-03
8.569717e+01	-1.182227e-03
8.619215e+01	-1.195922e-03
8.669000e+01	-1.209775e-03
8.719071e+01	-1.223789e-03
8.769432e+01	-1.237964e-03
8.820084e+01	-1.252305e-03
8.871029e+01	-1.266811e-03
8.922267e+01	-1.281485e-03
8.973802e+01	-1.296329e-03
9.025634e+01	-1.311345e-03
9.077766e+01	-1.326535e-03
9.130199e+01	-1.341901e-03
9.182935e+01	-1.357445e-03
9.235975e+01	-1.373169e-03
9.289321e+01	-1.389075e-03
9.342976e+01	-1.405165e-03
9.396941e+01	-1.421441e-03
9.451217e+01	-1.437906e-03
9.505807e+01	-1.454562e-03
9.560712e+01	-1.471411e-03
9.615934e+01	-1.488455e-03
9.671476e+01	-1.505696e-03
9.727338e+01	-1.523137e-03
9.783522e+01	-1.540779e-03
9.840032e+01	-1.558627e-03
9.896867e+01	-1.576680e-03
9.954031e+01	-1.594943e-03
1.001153e+02	-1.613418e-03
1.006935e+02	-1.632106e-03
1.012751e+02	-1.651011e-03
1.018601e+02	-1.670135e-03
1.024484e+02	-1.689480e-03
1.030402e+02	-1.709049e-03
1.036353e+02	-1.728845e-03
1.042339e+02	-1.748870e-03
1.048360e+02	-1.769127e-03
1.054415e+02	-1.789619e-03
1.060505e+02	-1.810347e-03
1.066631e+02	-1.831316e-03
1.072791e+02	-1.852528e-03
1.078988e+02	-1.873985e-03
1.085220e+02	-1.895691e-03
1.091488e+02	-1.917649e-03
1.097793e+02	-1.939860e-03
1.104133e+02	-1.962329e-03
1.110511e+02	-1.985058e-03
1.116925e+02	-2.008050e-03
1.123376e+02	-2.031308e-03
1.129865e+02	-2.054836e-03
1.136391e+02	-2.078636e-03
1.142955e+02	-2.102712e-03
1.149556e+02	-2.127066e-03
1.156196e+02	-2.151703e-03
1.162874e+02	-2.176624e-03
1.169591e+02	-2.201835e-03
1.176347e+02	-2.227337e-03
1.183141e+02	-2.253135e-03
1.189975e+02	-2.279231e-03
1.196848e+02	-2.305630e-03
1.203761e+02	-2.332334e-03
1.210714e+02	-2.359347e-03
1.217707e+02	-2.386673e-03
1.224740e+02	-2.414316e-03
1.231814e+02	-2.442278e-03
1.238929e+02	-2.470565e-03
1.246085e+02	-2.499179e-03
1.253283e+02	-2.528124e-03
1.260522e+02	-2.557404e-03
1.267802e+02	-2.587024e-03
1.275125e+02	-2.616986e-03
1.282490e+02	-2.647295e-03
1.289898e+02	-2.677955e-03
1.297348e+02	-2.708970e-03
1.304842e+02	-2.740345e-03
1.312378e+02	-2.772082e-03
1.319959e+02	-2.804187e-03
1.327583e+02	-2.836664e-03
1.335251e+02	-2.869516e-03
1.342963e+02	-2.902749e-03
1.350720e+02	-2.936367e-03
1.358522e+02	-2.970374e-03
1.366368e+02	-3.004774e-03
1.374260e+02	-3.039573e-03
1.382198e+02	-3.074775e-03
1.390182e+02	-3.110384e-03
1.398211e+02	-3.146406e-03
1.406287e+02	-3.182845e-03
1.414410e+02	-3.219705e-03
1.422579e+02	-3.256992e-03
1.430796e+02	-3.294711e-03
1.439060e+02	-3.332866e-03
1.447372e+02	-3.371463e-03
1.455732e+02	-3.410507e-03
1.464141e+02	-3.450003e-03
1.472597e+02	-3.489956e-03
1.481103e+02	-3.530372e-03
1.489658e+02	-3.571255e-03
1.498262e+02	-3.612612e-03
1.506916e+02	-3.654447e-03
1.515620e+02	-3.696767e-03
1.524374e+02	-3.739577e-03
1.533179e+02	-3.782882e-03
1.542034e+02	-3.826688e-03
1.550941e+02	-3.871001e-03
1.559899e+02	-3.915828e-03
1.568909e+02	-3.961173e-03
1.577971e+02	-4.007043e-03
1.587085e+02	-4.053444e-03
1.596252e+02	-4.100382e-03
1.605472e+02	-4.147863e-03
1.614745e+02	-4.195894e-03
1.624072e+02	-4.244480e-03
1.633453e+02	-4.293629e-03
1.642887e+02	-4.343347e-03
1.652377e+02	-4.393641e-03
1.661921e+02	-4.444516e-03
1.671520e+02	-4.495980e-03
1.681175e+02	-4.548040e-03
1.690885e+02	-4.600702e-03
1.700651e+02	-4.653974e-03
1.710474e+02	-4.707862e-03
1.720354e+02	-4.762374e-03
1.730291e+02	-4.817517e-03
1.740285e+02	-4.873297e-03
1.750337e+02	-4.929724e-03
1.760446e+02	-4.986803e-03
1.770615e+02	-5.044543e-03
1.780842e+02	-5.102950e-03
1.791128e+02	-5.162034e-03
1.801473e+02	-5.221802e-03
1.811878e+02	-5.282261e-03
1.822344e+02	-5.343419e-03
1.832870e+02	-5.405286e-03
1.843456e+02	-5.467868e-03
1.854104e+02	-5.531174e-03
1.864813e+02	-5.595213e-03
1.875584e+02	-5.659992e-03
1.886418e+02	-5.725521e-03
1.897313e+02	-5.791809e-03
1.908272e+02	-5.858863e-03
1.919294e+02	-5.926693e-03
1.930380e+02	-5.995308e-03
1.941530e+02	-6.064716e-03
1.952744e+02	-6.134928e-03
1.964023e+02	-6.205951e-03
1.975367e+02	-6.277797e-03
1.986777e+02	-6.350473e-03
1.998252e+02	-6.423991e-03
2.009794e+02	-6.498358e-03
2.021403e+02	-6.573586e-03
2.033078e+02	-6.649685e-03
2.044821e+02	-6.726663e-03
2.056632e+02	-6.804532e-03
2.068511e+02	-6.883301e-03
2.080459e+02	-6.962982e-03
2.092475e+02	-7.043584e-03
2.104561e+02	-7.125119e-03
2.116717e+02	-7.207597e-03
2.128943e+02	-7.291028e-03
2.141240e+02	-7.375425e-03
2.153608e+02	-7.460797e-03
2.166047e+02	-7.547157e-03
2.178558e+02	-7.634516e-03
2.191141e+02	-7.722885e-03
2.203797e+02	-7.812276e-03
2.216526e+02	-7.902700e-03
2.229329e+02	-7.994170e-03
2.242205e+02	-8.086698e-03
2.255156e+02	-8.180296e-03
2.268182e+02	-8.274977e-03
2.281283e+02	-8.370752e-03
2.294459e+02	-8.467634e-03
2.307712e+02	-8.565637e-03
2.321041e+02	-8.664772e-03
2.334447e+02	-8.765054e-03
2.347931e+02	-8.866496e-03
2.361493e+02	-8.969110e-03
2.375133e+02	-9.072910e-03
2.388851e+02	-9.177911e-03
2.402649e+02	-9.284125e-03
2.416527e+02	-9.391568e-03
2.430484e+02	-9.500252e-03
2.444523e+02	-9.610192e-03
2.458642e+02	-9.721404e-03
2.472843e+02	-9.833901e-03
2.487126e+02	-9.947698e-03
2.501492e+02	-1.006281e-02
2.515940e+02	-1.017925e-02
2.530472e+02	-1.029704e-02
2.545088e+02	-1.041619e-02
2.559789e+02	-1.053672e-02
2.574574e+02	-1.065864e-02
2.589444e+02	-1.078197e-02
2.604401e+02	-1.090672e-02
2.619444e+02	-1.103292e-02
2.634574e+02	-1.116057e-02
2.649791e+02	-1.128970e-02
2.665096e+02	-1.142033e-02
2.680489e+02	-1.155246e-02
2.695972e+02	-1.168611e-02
2.711544e+02	-1.182132e-02
2.727205e+02	-1.195808e-02
2.742958e+02	-1.209642e-02
2.758801e+02	-1.223637e-02
2.774736e+02	-1.237792e-02
2.790762e+02	-1.252112e-02
2.806882e+02	-1.266597e-02
2.823094e+02	-1.281249e-02
2.839400e+02	-1.296070e-02
2.855800e+02	-1.311063e-02
2.872295e+02	-1.326228e-02
2.888886e+02	-1.341569e-02
2.905572e+02	-1.357087e-02
2.922354e+02	-1.372784e-02
2.939234e+02	-1.388663e-02
2.956211e+02	-1.404725e-02
2.973286e+02	-1.420972e-02
2.990459e+02	-1.437407e-02
3.007732e+02	-1.454032e-02
3.025104e+02	-1.470849e-02
3.042577e+02	-1.487860e-02
3.060151e+02	-1.505067e-02
3.077826e+02	-1.522473e-02
3.095604e+02	-1.540080e-02
3.113484e+02	-1.557890e-02
3.131467e+02	-1.575905e-02
3.149554e+02	-1.594129e-02
3.167746e+02	-1.612563e-02
3.186043e+02	-1.631210e-02
3.204445e+02	-1.650072e-02
3.222954e+02	-1.669151e-02
3.241570e+02	-1.688451e-02
3.260293e+02	-1.707974e-02
3.279124e+02	-1.727721e-02
3.298064e+02	-1.747697e-02
3.317114e+02	-1.767903e-02
3.336273e+02	-1.788342e-02
3.355544e+02	-1.809018e-02
3.374925e+02	-1.829931e-02
3.394418e+02	-1.851086e-02
3.414024e+02	-1.872485e-02
3.433744e+02	-1.894131e-02
3.453577e+02	-1.916026e-02
3.473525e+02	-1.938174e-02
3.493588e+02	-1.960577e-02
3.513766e+02	-1.983239e-02
3.534062e+02	-2.006162e-02
3.554474e+02	-2.029349e-02
3.575005e+02	-2.052804e-02
3.595654e+02	-2.076529e-02
3.616422e+02	-2.100528e-02
3.637311e+02	-2.124804e-02
3.658320e+02	-2.149359e-02
3.679450e+02	-2.174197e-02
3.700702e+02	-2.199322e-02
3.722077e+02	-2.224736e-02
3.743576e+02	-2.250443e-02
3.765199e+02	-2.276446e-02
3.786946e+02	-2.302749e-02
3.808820e+02	-2.329356e-02
3.830819e+02	-2.356268e-02
3.852946e+02	-2.383491e-02
3.875200e+02	-2.411028e-02
3.897583e+02	-2.438881e-02
3.920096e+02	-2.467056e-02
3.942738e+02	-2.495555e-02
3.965511e+02	-2.524382e-02
3.988416e+02	-2.553541e-02
4.011452e+02	-2.583037e-02
4.034622e+02	-2.612871e-02
4.057926e+02	-2.643050e-02
4.081365e+02	-2.673575e-02
4.104938e+02	-2.704453e-02
4.128648e+02	-2.735686e-02
4.152495e+02	-2.767278e-02
4.176480e+02	-2.799234e-02
4.200603e+02	-2.831558e-02
4.224866e+02	-2.864253e-02
4.249268e+02	-2.897325e-02
4.273812e+02	-2.930778e-02
4.298497e+02	-2.964615e-02
4.323325e+02	-2.998842e-02
4.348297e+02	-3.033463e-02
4.373412e+02	-3.068482e-02
4.398673e+02	-3.103904e-02
4.424079e+02	-3.139733e-02
4.449633e+02	-3.175974e-02
4.475334e+02	-3.212632e-02
4.501183e+02	-3.249711e-02
4.527182e+02	-3.287217e-02
4.553330e+02	-3.325154e-02
4.579630e+02	-3.363527e-02
4.606082e+02	-3.402341e-02
4.632687e+02	-3.441602e-02
4.659445e+02	-3.481313e-02
4.686358e+02	-3.521481e-02
4.713426e+02	-3.562110e-02
4.740650e+02	-3.603207e-02
4.768032e+02	-3.644775e-02
4.795572e+02	-3.686821e-02
4.823271e+02	-3.729350e-02
4.851130e+02	-3.772367e-02
4.879150e+02	-3.815878e-02
4.907332e+02	-3.859889e-02
4.935676e+02	-3.904406e-02
4.964185e+02	-3.949433e-02
4.992858e+02	-3.994977e-02
5.021696e+02	-4.041044e-02
5.050701e+02	-4.087640e-02
5.079874e+02	-4.134770e-02
5.109215e+02	-4.182441e-02
5.138726e+02	-4.230659e-02
5.168407e+02	-4.279430e-02
5.198259e+02	-4.328761e-02
5.228284e+02	-4.378657e-02
5.258482e+02	-4.429126e-02
5.288855e+02	-4.480173e-02
5.319403e+02	-4.531805e-02
5.350128e+02	-4.584030e-02
5.381030e+02	-4.636853e-02
5.412111e+02	-4.690281e-02
5.443371e+02	-4.744322e-02
5.474812e+02	-4.798982e-02
5.506434e+02	-4.854268e-02
5.538239e+02	-4.910187e-02
5.570228e+02	-4.966747e-02
5.602401e+02	-5.023954e-02
5.634760e+02	-5.081817e-02
5.667306e+02	-5.140342e-02
5.700040e+02	-5.199537e-02
5.732964e+02	-5.259410e-02
5.766077e+02	-5.319967e-02
5.799382e+02	-5.381218e-02
5.832879e+02	-5.443169e-02
5.866569e+02	-5.505829e-02
5.900454e+02	-5.569206e-02
5.934535e+02	-5.633308e-02
5.968813e+02	-5.698142e-02
6.003288e+02	-5.763718e-02
6.037963e+02	-5.830043e-02
6.072838e+02	-5.897126e-02
6.107914e+02	-5.964976e-02
6.143194e+02	-6.033601e-02
6.178676e+02	-6.103010e-02
6.214364e+02	-6.173212e-02
6.250258e+02	-6.244216e-02
6.286359e+02	-6.316030e-02
6.322669e+02	-6.388664e-02
6.359189e+02	-6.462127e-02
6.395919e+02	-6.536428e-02
6.432862e+02	-6.611578e-02
6.470017e+02	-6.687584e-02
6.507388e+02	-6.764458e-02
6.544974e+02	-6.842208e-02
6.582778e+02	-6.920845e-02
6.620800e+02	-7.000378e-02
6.659041e+02	-7.080817e-02
6.697504e+02	-7.162174e-02
6.736188e+02	-7.244457e-02
6.775096e+02	-7.327677e-02
6.814229e+02	-7.411846e-02
6.853587e+02	-7.496972e-02
6.893173e+02	-7.583068e-02
6.932988e+02	-7.670144e-02
6.973033e+02	-7.758211e-02
7.013309e+02	-7.847280e-02
