Frequency(Hz)	Magnitude(dB)
1.000000e+01	-2.155895e+00
1.005776e+01	-2.175332e+00
1.011585e+01	-2.195358e+00
1.017428e+01	-2.215139e+00
1.023305e+01	-2.235325e+00
1.029215e+01	-2.255545e+00
1.035160e+01	-2.275981e+00
1.041139e+01	-2.296331e+00
1.047153e+01	-2.317070e+00
1.053201e+01	-2.337709e+00
1.059284e+01	-2.358270e+00
1.065403e+01	-2.379572e+00
1.071556e+01	-2.400866e+00
1.077746e+01	-2.421949e+00
1.083971e+01	-2.443516e+00
1.090232e+01	-2.465295e+00
1.096529e+01	-2.486786e+00
1.102862e+01	-2.508845e+00
1.109232e+01	-2.530811e+00
1.115639e+01	-2.553009e+00
1.122083e+01	-2.575473e+00
1.128564e+01	-2.597745e+00
1.135083e+01	-2.620235e+00
1.141639e+01	-2.642847e+00
1.148233e+01	-2.665915e+00
1.154865e+01	-2.688913e+00
1.161536e+01	-2.712141e+00
1.168245e+01	-2.735364e+00
1.174992e+01	-2.758796e+00
1.181779e+01	-2.782417e+00
1.188605e+01	-2.805994e+00
1.195470e+01	-2.830018e+00
1.202375e+01	-2.854070e+00
1.209320e+01	-2.878341e+00
1.216305e+01	-2.902421e+00
1.223330e+01	-2.926753e+00
1.230396e+01	-2.951726e+00
1.237503e+01	-2.976206e+00
1.244651e+01	-3.001188e+00
1.251840e+01	-3.026558e+00
1.259070e+01	-3.051398e+00
1.266343e+01	-3.076775e+00
1.273657e+01	-3.102110e+00
1.281014e+01	-3.127680e+00
1.288413e+01	-3.153524e+00
1.295855e+01	-3.179501e+00
1.303339e+01	-3.205350e+00
1.310867e+01	-3.231701e+00
1.318439e+01	-3.258123e+00
1.326054e+01	-3.284489e+00
1.333713e+01	-3.311155e+00
1.341417e+01	-3.337914e+00
1.349165e+01	-3.364735e+00
1.356958e+01	-3.391746e+00
1.364795e+01	-3.419077e+00
1.372678e+01	-3.446436e+00
1.380607e+01	-3.473915e+00
1.388581e+01	-3.501468e+00
1.396602e+01	-3.529211e+00
1.404668e+01	-3.557108e+00
1.412782e+01	-3.585041e+00
1.420942e+01	-3.613254e+00
1.429149e+01	-3.641624e+00
1.437404e+01	-3.670148e+00
1.445706e+01	-3.698707e+00
1.454057e+01	-3.727648e+00
1.462455e+01	-3.756347e+00
1.470902e+01	-3.785489e+00
1.479398e+01	-3.814691e+00
1.487943e+01	-3.843791e+00
1.496537e+01	-3.873313e+00
1.505181e+01	-3.903005e+00
1.513875e+01	-3.932528e+00
1.522619e+01	-3.962359e+00
1.531414e+01	-3.992563e+00
1.540259e+01	-4.022403e+00
1.549156e+01	-4.052746e+00
1.558103e+01	-4.083306e+00
1.567103e+01	-4.113974e+00
1.576155e+01	-4.144467e+00
1.585258e+01	-4.175413e+00
1.594415e+01	-4.206378e+00
1.603624e+01	-4.237274e+00
1.612886e+01	-4.268892e+00
1.622202e+01	-4.300065e+00
1.631572e+01	-4.331660e+00
1.640996e+01	-4.363231e+00
1.650474e+01	-4.394956e+00
1.660008e+01	-4.426976e+00
1.669596e+01	-4.459166e+00
1.679239e+01	-4.491119e+00
1.688938e+01	-4.523411e+00
1.698694e+01	-4.555788e+00
1.708505e+01	-4.588470e+00
1.718373e+01	-4.621129e+00
1.728299e+01	-4.653778e+00
1.738281e+01	-4.687085e+00
1.748322e+01	-4.720284e+00
1.758420e+01	-4.753276e+00
1.768576e+01	-4.786592e+00
1.778792e+01	-4.819775e+00
1.789066e+01	-4.853700e+00
1.799399e+01	-4.887315e+00
1.809793e+01	-4.921123e+00
1.820246e+01	-4.955015e+00
1.830760e+01	-4.989516e+00
1.841334e+01	-5.023635e+00
1.851969e+01	-5.057871e+00
1.862666e+01	-5.092411e+00
1.873425e+01	-5.127199e+00
1.884246e+01	-5.162072e+00
1.895129e+01	-5.196396e+00
1.906075e+01	-5.231449e+00
1.917085e+01	-5.266598e+00
1.928158e+01	-5.301728e+00
1.939295e+01	-5.337215e+00
1.950496e+01	-5.372914e+00
1.961762e+01	-5.408123e+00
1.973093e+01	-5.443787e+00
1.984490e+01	-5.479548e+00
1.995952e+01	-5.515536e+00
2.007480e+01	-5.551523e+00
2.019076e+01	-5.587757e+00
2.030738e+01	-5.623751e+00
2.042467e+01	-5.660533e+00
2.054264e+01	-5.696925e+00
2.066130e+01	-5.733321e+00
2.078064e+01	-5.770277e+00
2.090066e+01	-5.806908e+00
2.102139e+01	-5.844004e+00
2.114280e+01	-5.880694e+00
2.126492e+01	-5.917866e+00
2.138775e+01	-5.955215e+00
2.151128e+01	-5.992768e+00
2.163553e+01	-6.030339e+00
2.176050e+01	-6.067999e+00
2.188619e+01	-6.105984e+00
2.201260e+01	-6.143220e+00
2.213974e+01	-6.181516e+00
2.226762e+01	-6.219391e+00
2.239624e+01	-6.257377e+00
2.252560e+01	-6.295668e+00
2.265571e+01	-6.333772e+00
2.278656e+01	-6.372350e+00
2.291818e+01	-6.411080e+00
2.305055e+01	-6.449612e+00
2.318369e+01	-6.488798e+00
2.331760e+01	-6.527125e+00
2.345228e+01	-6.566136e+00
2.358774e+01	-6.605318e+00
2.372398e+01	-6.644848e+00
2.386101e+01	-6.683517e+00
2.399883e+01	-6.723224e+00
2.413745e+01	-6.762435e+00
2.427686e+01	-6.802035e+00
2.441709e+01	-6.842008e+00
2.455812e+01	-6.881249e+00
2.469997e+01	-6.921482e+00
2.484263e+01	-6.961291e+00
2.498612e+01	-7.001100e+00
2.513044e+01	-7.041442e+00
2.527559e+01	-7.081325e+00
2.542158e+01	-7.121919e+00
2.556842e+01	-7.161793e+00
2.571610e+01	-7.202320e+00
2.586463e+01	-7.243450e+00
2.601403e+01	-7.283868e+00
2.616428e+01	-7.324590e+00
2.631541e+01	-7.365049e+00
2.646740e+01	-7.406107e+00
2.662028e+01	-7.446886e+00
2.677404e+01	-7.488214e+00
2.692868e+01	-7.529308e+00
2.708422e+01	-7.570997e+00
2.724066e+01	-7.611722e+00
2.739800e+01	-7.652941e+00
2.755625e+01	-7.694686e+00
2.771541e+01	-7.736475e+00
2.787550e+01	-7.777922e+00
2.803650e+01	-7.819512e+00
2.819844e+01	-7.861475e+00
2.836131e+01	-7.903192e+00
2.852513e+01	-7.945595e+00
2.868989e+01	-7.987210e+00
2.885560e+01	-8.029551e+00
2.902227e+01	-8.071562e+00
2.918990e+01	-8.113785e+00
2.935850e+01	-8.155954e+00
2.952807e+01	-8.198341e+00
2.969863e+01	-8.241436e+00
2.987016e+01	-8.283864e+00
3.004269e+01	-8.326489e+00
3.021622e+01	-8.369094e+00
3.039075e+01	-8.411576e+00
3.056628e+01	-8.454643e+00
3.074283e+01	-8.497471e+00
3.092040e+01	-8.540394e+00
3.109900e+01	-8.583693e+00
3.127862e+01	-8.627118e+00
3.145929e+01	-8.670138e+00
3.164099e+01	-8.712995e+00
3.182375e+01	-8.756378e+00
3.200756e+01	-8.800232e+00
3.219244e+01	-8.843273e+00
3.237838e+01	-8.886931e+00
3.256540e+01	-8.930818e+00
3.275349e+01	-8.974085e+00
3.294268e+01	-9.017609e+00
3.313295e+01	-9.061638e+00
3.332433e+01	-9.105254e+00
3.351681e+01	-9.149416e+00
3.371040e+01	-9.193782e+00
3.390511e+01	-9.237808e+00
3.410094e+01	-9.281820e+00
3.429791e+01	-9.325573e+00
3.449601e+01	-9.369840e+00
3.469526e+01	-9.413795e+00
3.489566e+01	-9.458452e+00
3.509721e+01	-9.502433e+00
3.529993e+01	-9.547065e+00
3.550382e+01	-9.591948e+00
3.570889e+01	-9.636045e+00
3.591515e+01	-9.680892e+00
3.612259e+01	-9.725910e+00
3.633123e+01	-9.770540e+00
3.654108e+01	-9.814966e+00
3.675214e+01	-9.859910e+00
3.696442e+01	-9.904783e+00
3.717792e+01	-9.949851e+00
3.739266e+01	-9.994682e+00
3.760864e+01	-1.003977e+01
3.782587e+01	-1.008542e+01
3.804435e+01	-1.013054e+01
3.826409e+01	-1.017520e+01
3.848510e+01	-1.022106e+01
3.870739e+01	-1.026616e+01
3.893096e+01	-1.031102e+01
3.915583e+01	-1.035736e+01
3.938199e+01	-1.040221e+01
3.960946e+01	-1.044763e+01
3.983824e+01	-1.049353e+01
4.006834e+01	-1.053913e+01
4.029978e+01	-1.058432e+01
4.053255e+01	-1.063006e+01
4.076666e+01	-1.067558e+01
4.100213e+01	-1.072177e+01
4.123896e+01	-1.076759e+01
4.147715e+01	-1.081270e+01
4.171672e+01	-1.085953e+01
4.195767e+01	-1.090491e+01
4.220002e+01	-1.095114e+01
4.244377e+01	-1.099702e+01
4.268892e+01	-1.104285e+01
4.293549e+01	-1.108921e+01
4.318348e+01	-1.113585e+01
4.343291e+01	-1.118147e+01
4.368377e+01	-1.122771e+01
4.393609e+01	-1.127389e+01
4.418986e+01	-1.132032e+01
4.444510e+01	-1.136705e+01
4.470182e+01	-1.141290e+01
4.496001e+01	-1.145953e+01
4.521970e+01	-1.150624e+01
4.548089e+01	-1.155218e+01
4.574358e+01	-1.159869e+01
4.600779e+01	-1.164582e+01
4.627353e+01	-1.169215e+01
4.654081e+01	-1.173911e+01
4.680963e+01	-1.178485e+01
4.708000e+01	-1.183244e+01
4.735193e+01	-1.187880e+01
4.762543e+01	-1.192574e+01
4.790051e+01	-1.197307e+01
4.817719e+01	-1.201972e+01
4.845545e+01	-1.206681e+01
4.873533e+01	-1.211355e+01
4.901682e+01	-1.216000e+01
4.929994e+01	-1.220746e+01
4.958470e+01	-1.225460e+01
4.987110e+01	-1.230050e+01
5.015915e+01	-1.234854e+01
5.044887e+01	-1.239580e+01
5.074026e+01	-1.244310e+01
5.103333e+01	-1.249025e+01
5.132810e+01	-1.253686e+01
5.162457e+01	-1.258511e+01
5.192275e+01	-1.263225e+01
5.222265e+01	-1.267905e+01
5.252429e+01	-1.272631e+01
5.282767e+01	-1.277397e+01
5.313280e+01	-1.282130e+01
5.343969e+01	-1.286907e+01
5.374836e+01	-1.291584e+01
5.405880e+01	-1.296382e+01
5.437105e+01	-1.301098e+01
5.468509e+01	-1.305924e+01
5.500095e+01	-1.310636e+01
5.531863e+01	-1.315385e+01
5.563815e+01	-1.320132e+01
5.595951e+01	-1.324978e+01
5.628273e+01	-1.329669e+01
5.660782e+01	-1.334437e+01
5.693479e+01	-1.339212e+01
5.726364e+01	-1.343981e+01
5.759439e+01	-1.348749e+01
5.792705e+01	-1.353563e+01
5.826164e+01	-1.358331e+01
5.859815e+01	-1.363121e+01
5.893662e+01	-1.367866e+01
5.927703e+01	-1.372673e+01
5.961941e+01	-1.377536e+01
5.996377e+01	-1.382274e+01
6.031012e+01	-1.387083e+01
6.065847e+01	-1.391894e+01
6.100883e+01	-1.396764e+01
6.136121e+01	-1.401526e+01
6.171563e+01	-1.406319e+01
6.207210e+01	-1.411097e+01
6.243063e+01	-1.415886e+01
6.279122e+01	-1.420646e+01
6.315390e+01	-1.425510e+01
6.351868e+01	-1.430381e+01
6.388556e+01	-1.435083e+01
6.425456e+01	-1.439935e+01
6.462569e+01	-1.444781e+01
6.499897e+01	-1.449608e+01
6.537440e+01	-1.454399e+01
6.575200e+01	-1.459243e+01
6.613178e+01	-1.464098e+01
6.651375e+01	-1.468894e+01
6.689793e+01	-1.473750e+01
6.728433e+01	-1.478575e+01
6.767297e+01	-1.483421e+01
6.806384e+01	-1.488253e+01
6.845698e+01	-1.493167e+01
6.885238e+01	-1.497931e+01
6.925007e+01	-1.502814e+01
6.965005e+01	-1.507634e+01
7.005235e+01	-1.512462e+01
7.045697e+01	-1.517393e+01
7.086393e+01	-1.522221e+01
7.127323e+01	-1.527092e+01
7.168490e+01	-1.531907e+01
7.209895e+01	-1.536727e+01
7.251539e+01	-1.541716e+01
7.293424e+01	-1.546536e+01
7.335551e+01	-1.551313e+01
7.377920e+01	-1.556209e+01
7.420535e+01	-1.561042e+01
7.463396e+01	-1.566081e+01
7.506504e+01	-1.570875e+01
7.549861e+01	-1.575659e+01
7.593469e+01	-1.580526e+01
7.637328e+01	-1.585505e+01
7.681441e+01	-1.590227e+01
7.725809e+01	-1.595241e+01
7.770433e+01	-1.600132e+01
7.815315e+01	-1.604943e+01
7.860456e+01	-1.609823e+01
7.905857e+01	-1.614705e+01
7.951521e+01	-1.619670e+01
7.997449e+01	-1.624498e+01
8.043642e+01	-1.629299e+01
8.090102e+01	-1.634160e+01
8.136830e+01	-1.639155e+01
8.183828e+01	-1.643966e+01
8.231097e+01	-1.648896e+01
8.278640e+01	-1.653685e+01
8.326457e+01	-1.658615e+01
8.374550e+01	-1.663574e+01
8.422921e+01	-1.668269e+01
8.471572e+01	-1.673362e+01
8.520503e+01	-1.678324e+01
8.569717e+01	-1.683154e+01
8.619215e+01	-1.688045e+01
8.669000e+01	-1.692909e+01
8.719071e+01	-1.697865e+01
8.769432e+01	-1.702810e+01
8.820084e+01	-1.707677e+01
8.871029e+01	-1.712501e+01
8.922267e+01	-1.717519e+01
8.973802e+01	-1.722383e+01
9.025634e+01	-1.727309e+01
9.077766e+01	-1.732121e+01
9.130199e+01	-1.737192e+01
9.182935e+01	-1.742019e+01
9.235975e+01	-1.746950e+01
9.289321e+01	-1.751786e+01
9.342976e+01	-1.756800e+01
9.396941e+01	-1.761756e+01
9.451217e+01	-1.766541e+01
9.505807e+01	-1.771523e+01
9.560712e+01	-1.776497e+01
9.615934e+01	-1.781214e+01
9.671476e+01	-1.786324e+01
9.727338e+01	-1.791055e+01
9.783522e+01	-1.796097e+01
9.840032e+01	-1.800909e+01
9.896867e+01	-1.805989e+01
9.954031e+01	-1.810921e+01
1.001153e+02	-1.815744e+01
1.006935e+02	-1.820866e+01
1.012751e+02	-1.825642e+01
1.018601e+02	-1.830689e+01
1.024484e+02	-1.835574e+01
1.030402e+02	-1.840528e+01
1.036353e+02	-1.845438e+01
1.042339e+02	-1.850347e+01
1.048360e+02	-1.855337e+01
1.054415e+02	-1.860145e+01
1.060505e+02	-1.865132e+01
1.066631e+02	-1.870167e+01
1.072791e+02	-1.875034e+01
1.078988e+02	-1.879912e+01
1.085220e+02	-1.884809e+01
1.091488e+02	-1.889823e+01
1.097793e+02	-1.894660e+01
1.104133e+02	-1.899702e+01
1.110511e+02	-1.904734e+01
1.116925e+02	-1.909701e+01
1.123376e+02	-1.914508e+01
1.129865e+02	-1.919539e+01
1.136391e+02	-1.924312e+01
1.142955e+02	-1.929429e+01
1.149556e+02	-1.934160e+01
1.156196e+02	-1.939262e+01
1.162874e+02	-1.944282e+01
1.169591e+02	-1.949119e+01
1.176347e+02	-1.954004e+01
1.183141e+02	-1.958996e+01
1.189975e+02	-1.964001e+01
1.196848e+02	-1.968881e+01
1.203761e+02	-1.973848e+01
1.210714e+02	-1.978907e+01
1.217707e+02	-1.983797e+01
1.224740e+02	-1.988689e+01
1.231814e+02	-1.993827e+01
1.238929e+02	-1.998567e+01
1.246085e+02	-2.003660e+01
1.253283e+02	-2.008529e+01
1.260522e+02	-2.013540e+01
1.267802e+02	-2.018440e+01
1.275125e+02	-2.023271e+01
1.282490e+02	-2.028561e+01
1.289898e+02	-2.033516e+01
1.297348e+02	-2.038284e+01
1.304842e+02	-2.043147e+01
1.312378e+02	-2.048311e+01
1.319959e+02	-2.053055e+01
1.327583e+02	-2.058184e+01
1.335251e+02	-2.063097e+01
1.342963e+02	-2.067895e+01
1.350720e+02	-2.073118e+01
1.358522e+02	-2.078085e+01
1.366368e+02	-2.082840e+01
1.374260e+02	-2.087957e+01
1.382198e+02	-2.092892e+01
1.390182e+02	-2.097827e+01
1.398211e+02	-2.102792e+01
1.406287e+02	-2.107786e+01
1.414410e+02	-2.112737e+01
1.422579e+02	-2.117701e+01
1.430796e+02	-2.122638e+01
1.439060e+02	-2.127528e+01
1.447372e+02	-2.132503e+01
1.455732e+02	-2.137616e+01
1.464141e+02	-2.142543e+01
1.472597e+02	-2.147526e+01
1.481103e+02	-2.152521e+01
1.489658e+02	-2.157309e+01
1.498262e+02	-2.162207e+01
1.506916e+02	-2.167413e+01
1.515620e+02	-2.172400e+01
1.524374e+02	-2.177309e+01
1.533179e+02	-2.182296e+01
1.542034e+02	-2.187285e+01
1.550941e+02	-2.192405e+01
1.559899e+02	-2.197098e+01
1.568909e+02	-2.202222e+01
1.577971e+02	-2.207049e+01
1.587085e+02	-2.212231e+01
1.596252e+02	-2.216978e+01
1.605472e+02	-2.222234e+01
1.614745e+02	-2.227157e+01
1.624072e+02	-2.231791e+01
1.633453e+02	-2.236833e+01
1.642887e+02	-2.242056e+01
1.652377e+02	-2.246810e+01
1.661921e+02	-2.251962e+01
1.671520e+02	-2.257043e+01
1.681175e+02	-2.261730e+01
1.690885e+02	-2.266991e+01
1.700651e+02	-2.271782e+01
1.710474e+02	-2.276896e+01
1.720354e+02	-2.281841e+01
1.730291e+02	-2.286721e+01
1.740285e+02	-2.291767e+01
1.750337e+02	-2.296823e+01
1.760446e+02	-2.301614e+01
1.770615e+02	-2.306612e+01
1.780842e+02	-2.312030e+01
1.791128e+02	-2.316720e+01
1.801473e+02	-2.321399e+01
1.811878e+02	-2.326584e+01
1.822344e+02	-2.331768e+01
1.832870e+02	-2.336456e+01
1.843456e+02	-2.341468e+01
1.854104e+02	-2.346460e+01
1.864813e+02	-2.351709e+01
1.875584e+02	-2.356493e+01
1.886418e+02	-2.361514e+01
1.897313e+02	-2.366274e+01
1.908272e+02	-2.371666e+01
1.919294e+02	-2.376316e+01
1.930380e+02	-2.381572e+01
1.941530e+02	-2.386204e+01
1.952744e+02	-2.391323e+01
1.964023e+02	-2.396340e+01
1.975367e+02	-2.401237e+01
1.986777e+02	-2.406372e+01
1.998252e+02	-2.411459e+01
2.009794e+02	-2.416216e+01
2.021403e+02	-2.421374e+01
2.033078e+02	-2.426371e+01
2.044821e+02	-2.431360e+01
2.056632e+02	-2.436328e+01
2.068511e+02	-2.441229e+01
2.080459e+02	-2.446297e+01
2.092475e+02	-2.451103e+01
2.104561e+02	-2.456276e+01
2.116717e+02	-2.461354e+01
2.128943e+02	-2.466374e+01
2.141240e+02	-2.471361e+01
2.153608e+02	-2.476196e+01
2.166047e+02	-2.481032e+01
2.178558e+02	-2.486129e+01
2.191141e+02	-2.491168e+01
2.203797e+02	-2.496147e+01
2.216526e+02	-2.501349e+01
2.229329e+02	-2.506327e+01
2.242205e+02	-2.510913e+01
2.255156e+02	-2.516208e+01
2.268182e+02	-2.520950e+01
2.281283e+02	-2.526340e+01
2.294459e+02	-2.530978e+01
2.307712e+02	-2.536097e+01
2.321041e+02	-2.541004e+01
2.334447e+02	-2.546078e+01
2.347931e+02	-2.551110e+01
2.361493e+02	-2.555960e+01
2.375133e+02	-2.561053e+01
2.388851e+02	-2.565818e+01
2.402649e+02	-2.571174e+01
2.416527e+02	-2.575934e+01
2.430484e+02	-2.581103e+01
2.444523e+02	-2.586068e+01
2.458642e+02	-2.590768e+01
2.472843e+02	-2.596269e+01
2.487126e+02	-2.600926e+01
2.501492e+02	-2.605870e+01
2.515940e+02	-2.611102e+01
2.530472e+02	-2.616016e+01
2.545088e+02	-2.620740e+01
2.559789e+02	-2.625992e+01
2.574574e+02	-2.630810e+01
2.589444e+02	-2.636160e+01
2.604401e+02	-2.641048e+01
2.619444e+02	-2.645788e+01
2.634574e+02	-2.650989e+01
2.649791e+02	-2.656233e+01
2.665096e+02	-2.660748e+01
2.680489e+02	-2.666104e+01
2.695972e+02	-2.671197e+01
2.711544e+02	-2.676236e+01
2.727205e+02	-2.680857e+01
2.742958e+02	-2.685653e+01
2.758801e+02	-2.691255e+01
2.774736e+02	-2.695933e+01
2.790762e+02	-2.701038e+01
2.806882e+02	-2.706006e+01
2.823094e+02	-2.711031e+01
2.839400e+02	-2.715870e+01
2.855800e+02	-2.720916e+01
2.872295e+02	-2.725879e+01
2.888886e+02	-2.731221e+01
2.905572e+02	-2.735982e+01
2.922354e+02	-2.740644e+01
2.939234e+02	-2.746077e+01
2.956211e+02	-2.751040e+01
2.973286e+02	-2.756033e+01
2.990459e+02	-2.761094e+01
3.007732e+02	-2.765927e+01
3.025104e+02	-2.770782e+01
3.042577e+02	-2.776085e+01
3.060151e+02	-2.781358e+01
3.077826e+02	-2.785862e+01
3.095604e+02	-2.791256e+01
3.113484e+02	-2.795812e+01
3.131467e+02	-2.801442e+01
3.149554e+02	-2.805831e+01
3.167746e+02	-2.810722e+01
3.186043e+02	-2.815729e+01
3.204445e+02	-2.821038e+01
3.222954e+02	-2.825912e+01
3.241570e+02	-2.831034e+01
3.260293e+02	-2.836001e+01
3.279124e+02	-2.840487e+01
3.298064e+02	-2.846332e+01
3.317114e+02	-2.850986e+01
3.336273e+02	-2.856236e+01
3.355544e+02	-2.861307e+01
3.374925e+02	-2.866118e+01
3.394418e+02	-2.871233e+01
3.414024e+02	-2.875778e+01
3.433744e+02	-2.880906e+01
3.453577e+02	-2.885441e+01
3.473525e+02	-2.891248e+01
3.493588e+02	-2.896220e+01
3.513766e+02	-2.901564e+01
3.534062e+02	-2.906238e+01
3.554474e+02	-2.911140e+01
3.575005e+02	-2.916567e+01
3.595654e+02	-2.920847e+01
3.616422e+02	-2.926058e+01
3.637311e+02	-2.931430e+01
3.658320e+02	-2.936280e+01
3.679450e+02	-2.941145e+01
3.700702e+02	-2.946023e+01
3.722077e+02	-2.951251e+01
3.743576e+02	-2.956018e+01
3.765199e+02	-2.961061e+01
3.786946e+02	-2.966704e+01
3.808820e+02	-2.970686e+01
3.830819e+02	-2.976349e+01
3.852946e+02	-2.981349e+01
3.875200e+02	-2.986153e+01
3.897583e+02	-2.991413e+01
3.920096e+02	-2.996548e+01
3.942738e+02	-3.001623e+01
3.965511e+02	-3.007067e+01
3.988416e+02	-3.011569e+01
4.011452e+02	-3.016401e+01
4.034622e+02	-3.020727e+01
4.057926e+02	-3.026135e+01
4.081365e+02	-3.031329e+01
4.104938e+02	-3.036274e+01
4.128648e+02	-3.041199e+01
4.152495e+02	-3.046540e+01
4.176480e+02	-3.051047e+01
4.200603e+02	-3.056604e+01
4.224866e+02	-3.061408e+01
4.249268e+02	-3.066585e+01
4.273812e+02	-3.070969e+01
4.298497e+02	-3.076455e+01
4.323325e+02	-3.081868e+01
4.348297e+02	-3.085813e+01
4.373412e+02	-3.091003e+01
4.398673e+02	-3.095850e+01
4.424079e+02	-3.101842e+01
4.449633e+02	-3.106237e+01
4.475334e+02	-3.111691e+01
4.501183e+02	-3.116510e+01
4.527182e+02	-3.121761e+01
4.553330e+02	-3.126203e+01
4.579630e+02	-3.131597e+01
4.606082e+02	-3.136932e+01
4.632687e+02	-3.141834e+01
4.659445e+02	-3.146757e+01
4.686358e+02	-3.152180e+01
4.713426e+02	-3.156822e+01
4.740650e+02	-3.161526e+01
4.768032e+02	-3.166633e+01
4.795572e+02	-3.171895e+01
4.823271e+02	-3.177208e+01
4.851130e+02	-3.181807e+01
4.879150e+02	-3.186894e+01
4.907332e+02	-3.192187e+01
4.935676e+02	-3.197468e+01
4.964185e+02	-3.201993e+01
4.992858e+02	-3.206680e+01
5.021696e+02	-3.212219e+01
5.050701e+02	-3.216454e+01
5.079874e+02	-3.222543e+01
5.109215e+02	-3.227597e+01
5.138726e+02	-3.231843e+01
5.168407e+02	-3.236690e+01
5.198259e+02	-3.241400e+01
5.228284e+02	-3.247453e+01
5.258482e+02	-3.252071e+01
5.288855e+02	-3.257518e+01
5.319403e+02	-3.262120e+01
5.350128e+02	-3.267101e+01
5.381030e+02	-3.272187e+01
5.412111e+02	-3.277086e+01
5.443371e+02	-3.282288e+01
5.474812e+02	-3.286497e+01
5.506434e+02	-3.291863e+01
5.538239e+02	-3.297383e+01
5.570228e+02	-3.302116e+01
5.602401e+02	-3.307407e+01
5.634760e+02	-3.312984e+01
5.667306e+02	-3.317251e+01
5.700040e+02	-3.322782e+01
5.732964e+02	-3.327470e+01
5.766077e+02	-3.333092e+01
5.799382e+02	-3.337264e+01
5.832879e+02	-3.341717e+01
5.866569e+02	-3.347539e+01
5.900454e+02	-3.352503e+01
5.934535e+02	-3.357802e+01
5.968813e+02	-3.362861e+01
6.003288e+02	-3.368035e+01
6.037963e+02	-3.372957e+01
6.072838e+02	-3.377364e+01
6.107914e+02	-3.383365e+01
6.143194e+02	-3.388263e+01
6.178676e+02	-3.392550e+01
6.214364e+02	-3.398234e+01
6.250258e+02	-3.403735e+01
6.286359e+02	-3.408471e+01
6.322669e+02	-3.413264e+01
6.359189e+02	-3.418949e+01
6.395919e+02	-3.423636e+01
6.432862e+02	-3.428573e+01
6.470017e+02	-3.432961e+01
6.507388e+02	-3.438193e+01
6.544974e+02	-3.442805e+01
6.582778e+02	-3.448255e+01
6.620800e+02	-3.453097e+01
6.659041e+02	-3.458519e+01
6.697504e+02	-3.463842e+01
6.736188e+02	-3.468362e+01
6.775096e+02	-3.473661e+01
6.814229e+02	-3.479050e+01
6.853587e+02	-3.483769e+01
6.893173e+02	-3.488649e+01
6.932988e+02	-3.493482e+01
6.973033e+02	-3.497893e+01
7.013309e+02	-3.503911e+01
