Frequency(Hz)	Magnitude(dB)
1.000000e+01	-1.984948e-05
1.005776e+01	-2.007944e-05
1.011585e+01	-2.031207e-05
1.017428e+01	-2.054739e-05
1.023305e+01	-2.078543e-05
1.029215e+01	-2.102624e-05
1.035160e+01	-2.126983e-05
1.041139e+01	-2.151625e-05
1.047153e+01	-2.176552e-05
1.053201e+01	-2.201768e-05
1.059284e+01	-2.227276e-05
1.065403e+01	-2.253079e-05
1.071556e+01	-2.279182e-05
1.077746e+01	-2.305587e-05
1.083971e+01	-2.332297e-05
1.090232e+01	-2.359318e-05
1.096529e+01	-2.386651e-05
1.102862e+01	-2.414301e-05
1.109232e+01	-2.442271e-05
1.115639e+01	-2.470566e-05
1.122083e+01	-2.499188e-05
1.128564e+01	-2.528141e-05
1.135083e+01	-2.557430e-05
1.141639e+01	-2.587059e-05
1.148233e+01	-2.617031e-05
1.154865e+01	-2.647350e-05
1.161536e+01	-2.678020e-05
1.168245e+01	-2.709045e-05
1.174992e+01	-2.740430e-05
1.181779e+01	-2.772179e-05
1.188605e+01	-2.804295e-05
1.195470e+01	-2.836784e-05
1.202375e+01	-2.869648e-05
1.209320e+01	-2.902894e-05
1.216305e+01	-2.936525e-05
1.223330e+01	-2.970545e-05
1.230396e+01	-3.004960e-05
1.237503e+01	-3.039773e-05
1.244651e+01	-3.074989e-05
1.251840e+01	-3.110614e-05
1.259070e+01	-3.146651e-05
1.266343e+01	-3.183106e-05
1.273657e+01	-3.219983e-05
1.281014e+01	-3.257287e-05
1.288413e+01	-3.295023e-05
1.295855e+01	-3.333197e-05
1.303339e+01	-3.371813e-05
1.310867e+01	-3.410876e-05
1.318439e+01	-3.450392e-05
1.326054e+01	-3.490365e-05
1.333713e+01	-3.530802e-05
1.341417e+01	-3.571707e-05
1.349165e+01	-3.613086e-05
1.356958e+01	-3.654945e-05
1.364795e+01	-3.697288e-05
1.372678e+01	-3.740122e-05
1.380607e+01	-3.783452e-05
1.388581e+01	-3.827284e-05
1.396602e+01	-3.871624e-05
1.404668e+01	-3.916478e-05
1.412782e+01	-3.961851e-05
1.420942e+01	-4.007750e-05
1.429149e+01	-4.054181e-05
1.437404e+01	-4.101150e-05
1.445706e+01	-4.148662e-05
1.454057e+01	-4.196726e-05
1.462455e+01	-4.245346e-05
1.470902e+01	-4.294529e-05
1.479398e+01	-4.344282e-05
1.487943e+01	-4.394611e-05
1.496537e+01	-4.445524e-05
1.505181e+01	-4.497026e-05
1.513875e+01	-4.549125e-05
1.522619e+01	-4.601828e-05
1.531414e+01	-4.655141e-05
1.540259e+01	-4.709072e-05
1.549156e+01	-4.763628e-05
1.558103e+01	-4.818815e-05
1.567103e+01	-4.874642e-05
1.576155e+01	-4.931116e-05
1.585258e+01	-4.988244e-05
1.594415e+01	-5.046034e-05
1.603624e+01	-5.104493e-05
1.612886e+01	-5.163630e-05
1.622202e+01	-5.223452e-05
1.631572e+01	-5.283966e-05
1.640996e+01	-5.345182e-05
1.650474e+01	-5.407107e-05
1.660008e+01	-5.469750e-05
1.669596e+01	-5.533118e-05
1.679239e+01	-5.597220e-05
1.688938e+01	-5.662065e-05
1.698694e+01	-5.727661e-05
1.708505e+01	-5.794017e-05
1.718373e+01	-5.861142e-05
1.728299e+01	-5.929045e-05
1.738281e+01	-5.997734e-05
1.748322e+01	-6.067219e-05
1.758420e+01	-6.137509e-05
1.768576e+01	-6.208613e-05
1.778792e+01	-6.280541e-05
1.789066e+01	-6.353302e-05
1.799399e+01	-6.426907e-05
1.809793e+01	-6.501364e-05
1.820246e+01	-6.576683e-05
1.830760e+01	-6.652875e-05
1.841334e+01	-6.729950e-05
1.851969e+01	-6.807918e-05
1.862666e+01	-6.886789e-05
1.873425e+01	-6.966574e-05
1.884246e+01	-7.047283e-05
1.895129e+01	-7.128927e-05
1.906075e+01	-7.211517e-05
1.917085e+01	-7.295063e-05
1.928158e+01	-7.379578e-05
1.939295e+01	-7.465072e-05
1.950496e+01	-7.551556e-05
1.961762e+01	-7.639042e-05
1.973093e+01	-7.727542e-05
1.984490e+01	-7.817067e-05
1.995952e+01	-7.907629e-05
2.007480e+01	-7.999240e-05
2.019076e+01	-8.091913e-05
2.030738e+01	-8.185659e-05
2.042467e+01	-8.280491e-05
2.054264e+01	-8.376422e-05
2.066130e+01	-8.473464e-05
2.078064e+01	-8.571631e-05
2.090066e+01	-8.670934e-05
2.102139e+01	-8.771389e-05
2.114280e+01	-8.873007e-05
2.126492e+01	-8.975802e-05
2.138775e+01	-9.079788e-05
2.151128e+01	-9.184979e-05
2.163553e+01	-9.291388e-05
2.176050e+01	-9.399030e-05
2.188619e+01	-9.507919e-05
2.201260e+01	-9.618070e-05
2.213974e+01	-9.729497e-05
2.226762e+01	-9.842214e-05
2.239624e+01	-9.956238e-05
2.252560e+01	-1.007158e-04
2.265571e+01	-1.018826e-04
2.278656e+01	-1.030630e-04
2.291818e+01	-1.042570e-04
2.305055e+01	-1.054648e-04
2.318369e+01	-1.066866e-04
2.331760e+01	-1.079226e-04
2.345228e+01	-1.091729e-04
2.358774e+01	-1.104377e-04
2.372398e+01	-1.117171e-04
2.386101e+01	-1.130114e-04
2.399883e+01	-1.143206e-04
2.413745e+01	-1.156450e-04
2.427686e+01	-1.169848e-04
2.441709e+01	-1.183401e-04
2.455812e+01	-1.197111e-04
2.469997e+01	-1.210979e-04
2.484263e+01	-1.225009e-04
2.498612e+01	-1.239200e-04
2.513044e+01	-1.253557e-04
2.527559e+01	-1.268079e-04
2.542158e+01	-1.282770e-04
2.556842e+01	-1.297631e-04
2.571610e+01	-1.312664e-04
2.586463e+01	-1.327872e-04
2.601403e+01	-1.343255e-04
2.616428e+01	-1.358817e-04
2.631541e+01	-1.374559e-04
2.646740e+01	-1.390483e-04
2.662028e+01	-1.406592e-04
2.677404e+01	-1.422888e-04
2.692868e+01	-1.439372e-04
2.708422e+01	-1.456047e-04
2.724066e+01	-1.472916e-04
2.739800e+01	-1.489980e-04
2.755625e+01	-1.507241e-04
2.771541e+01	-1.524703e-04
2.787550e+01	-1.542366e-04
2.803650e+01	-1.560235e-04
2.819844e+01	-1.578310e-04
2.836131e+01	-1.596595e-04
2.852513e+01	-1.615092e-04
2.868989e+01	-1.633803e-04
2.885560e+01	-1.652730e-04
2.902227e+01	-1.671877e-04
2.918990e+01	-1.691246e-04
2.935850e+01	-1.710839e-04
2.952807e+01	-1.730660e-04
2.969863e+01	-1.750709e-04
2.987016e+01	-1.770991e-04
3.004269e+01	-1.791508e-04
3.021622e+01	-1.812263e-04
3.039075e+01	-1.833258e-04
3.056628e+01	-1.854496e-04
3.074283e+01	-1.875981e-04
3.092040e+01	-1.897714e-04
3.109900e+01	-1.919699e-04
3.127862e+01	-1.941939e-04
3.145929e+01	-1.964436e-04
3.164099e+01	-1.987194e-04
3.182375e+01	-2.010216e-04
3.200756e+01	-2.033504e-04
3.219244e+01	-2.057063e-04
3.237838e+01	-2.080894e-04
3.256540e+01	-2.105001e-04
3.275349e+01	-2.129387e-04
3.294268e+01	-2.154056e-04
3.313295e+01	-2.179011e-04
3.332433e+01	-2.204255e-04
3.351681e+01	-2.229791e-04
3.371040e+01	-2.255623e-04
3.390511e+01	-2.281754e-04
3.410094e+01	-2.308188e-04
3.429791e+01	-2.334929e-04
3.449601e+01	-2.361979e-04
3.469526e+01	-2.389342e-04
3.489566e+01	-2.417023e-04
3.509721e+01	-2.445024e-04
3.529993e+01	-2.473349e-04
3.550382e+01	-2.502003e-04
3.570889e+01	-2.530988e-04
3.591515e+01	-2.560310e-04
3.612259e+01	-2.589971e-04
3.633123e+01	-2.619975e-04
3.654108e+01	-2.650328e-04
3.675214e+01	-2.681031e-04
3.696442e+01	-2.712091e-04
3.717792e+01	-2.743510e-04
3.739266e+01	-2.775294e-04
3.760864e+01	-2.807445e-04
3.782587e+01	-2.839969e-04
3.804435e+01	-2.872870e-04
3.826409e+01	-2.906152e-04
3.848510e+01	-2.939819e-04
3.870739e+01	-2.973877e-04
3.893096e+01	-3.008329e-04
3.915583e+01	-3.043180e-04
3.938199e+01	-3.078435e-04
3.960946e+01	-3.114098e-04
3.983824e+01	-3.150174e-04
4.006834e+01	-3.186668e-04
4.029978e+01	-3.223586e-04
4.053255e+01	-3.260930e-04
4.076666e+01	-3.298708e-04
4.100213e+01	-3.336923e-04
4.123896e+01	-3.375580e-04
4.147715e+01	-3.414686e-04
4.171672e+01	-3.454244e-04
4.195767e+01	-3.494261e-04
4.220002e+01	-3.534741e-04
4.244377e+01	-3.575691e-04
4.268892e+01	-3.617114e-04
4.293549e+01	-3.659018e-04
4.318348e+01	-3.701407e-04
4.343291e+01	-3.744287e-04
4.368377e+01	-3.787663e-04
4.393609e+01	-3.831543e-04
4.418986e+01	-3.875930e-04
4.444510e+01	-3.920832e-04
4.470182e+01	-3.966254e-04
4.496001e+01	-4.012202e-04
4.521970e+01	-4.058682e-04
4.548089e+01	-4.105701e-04
4.574358e+01	-4.153264e-04
4.600779e+01	-4.201379e-04
4.627353e+01	-4.250050e-04
4.654081e+01	-4.299286e-04
4.680963e+01	-4.349092e-04
4.708000e+01	-4.399475e-04
4.735193e+01	-4.450441e-04
4.762543e+01	-4.501998e-04
4.790051e+01	-4.554152e-04
4.817719e+01	-4.606911e-04
4.845545e+01	-4.660280e-04
4.873533e+01	-4.714268e-04
4.901682e+01	-4.768881e-04
4.929994e+01	-4.824127e-04
4.958470e+01	-4.880012e-04
4.987110e+01	-4.936545e-04
5.015915e+01	-4.993733e-04
5.044887e+01	-5.051584e-04
5.074026e+01	-5.110104e-04
5.103333e+01	-5.169303e-04
5.132810e+01	-5.229187e-04
5.162457e+01	-5.289765e-04
5.192275e+01	-5.351044e-04
5.222265e+01	-5.413034e-04
5.252429e+01	-5.475741e-04
5.282767e+01	-5.539175e-04
5.313280e+01	-5.603344e-04
5.343969e+01	-5.668256e-04
5.374836e+01	-5.733920e-04
5.405880e+01	-5.800345e-04
5.437105e+01	-5.867539e-04
5.468509e+01	-5.935511e-04
5.500095e+01	-6.004271e-04
5.531863e+01	-6.073827e-04
5.563815e+01	-6.144189e-04
5.595951e+01	-6.215366e-04
5.628273e+01	-6.287368e-04
5.660782e+01	-6.360203e-04
5.693479e+01	-6.433883e-04
5.726364e+01	-6.508415e-04
5.759439e+01	-6.583811e-04
5.792705e+01	-6.660081e-04
5.826164e+01	-6.737234e-04
5.859815e+01	-6.815280e-04
5.893662e+01	-6.894231e-04
5.927703e+01	-6.974096e-04
5.961941e+01	-7.054886e-04
5.996377e+01	-7.136612e-04
6.031012e+01	-7.219285e-04
6.065847e+01	-7.302916e-04
6.100883e+01	-7.387515e-04
6.136121e+01	-7.473094e-04
6.171563e+01	-7.559664e-04
6.207210e+01	-7.647237e-04
6.243063e+01	-7.735824e-04
6.279122e+01	-7.825438e-04
6.315390e+01	-7.916090e-04
6.351868e+01	-8.007791e-04
6.388556e+01	-8.100555e-04
6.425456e+01	-8.194393e-04
6.462569e+01	-8.289319e-04
6.499897e+01	-8.385343e-04
6.537440e+01	-8.482480e-04
6.575200e+01	-8.580743e-04
6.613178e+01	-8.680143e-04
6.651375e+01	-8.780695e-04
6.689793e+01	-8.882411e-04
6.728433e+01	-8.985305e-04
6.767297e+01	-9.089392e-04
6.806384e+01	-9.194684e-04
6.845698e+01	-9.301195e-04
6.885238e+01	-9.408940e-04
6.925007e+01	-9.517934e-04
6.965005e+01	-9.628189e-04
7.005235e+01	-9.739722e-04
7.045697e+01	-9.852546e-04
7.086393e+01	-9.966678e-04
7.127323e+01	-1.008213e-03
7.168490e+01	-1.019892e-03
7.209895e+01	-1.031706e-03
7.251539e+01	-1.043658e-03
7.293424e+01	-1.055747e-03
7.335551e+01	-1.067977e-03
7.377920e+01	-1.080348e-03
7.420535e+01	-1.092863e-03
7.463396e+01	-1.105522e-03
7.506504e+01	-1.118328e-03
7.549861e+01	-1.131283e-03
7.593469e+01	-1.144387e-03
7.637328e+01	-1.157644e-03
7.681441e+01	-1.171053e-03
7.725809e+01	-1.184618e-03
7.770433e+01	-1.198341e-03
7.815315e+01	-1.212222e-03
7.860456e+01	-1.226264e-03
7.905857e+01	-1.240468e-03
7.951521e+01	-1.254837e-03
7.997449e+01	-1.269373e-03
8.043642e+01	-1.284077e-03
8.090102e+01	-1.298951e-03
8.136830e+01	-1.313997e-03
8.183828e+01	-1.329218e-03
8.231097e+01	-1.344615e-03
8.278640e+01	-1.360190e-03
8.326457e+01	-1.375946e-03
8.374550e+01	-1.391884e-03
8.422921e+01	-1.408007e-03
8.471572e+01	-1.424316e-03
8.520503e+01	-1.440815e-03
8.569717e+01	-1.457504e-03
8.619215e+01	-1.474387e-03
8.669000e+01	-1.491465e-03
8.719071e+01	-1.508741e-03
8.769432e+01	-1.526217e-03
8.820084e+01	-1.543896e-03
8.871029e+01	-1.561779e-03
8.922267e+01	-1.579869e-03
8.973802e+01	-1.598169e-03
9.025634e+01	-1.616681e-03
9.077766e+01	-1.635407e-03
9.130199e+01	-1.654350e-03
9.182935e+01	-1.673512e-03
9.235975e+01	-1.692897e-03
9.289321e+01	-1.712506e-03
9.342976e+01	-1.732341e-03
9.396941e+01	-1.752407e-03
9.451217e+01	-1.772705e-03
9.505807e+01	-1.793238e-03
9.560712e+01	-1.814009e-03
9.615934e+01	-1.835020e-03
9.671476e+01	-1.856275e-03
9.727338e+01	-1.877776e-03
9.783522e+01	-1.899525e-03
9.840032e+01	-1.921527e-03
9.896867e+01	-1.943783e-03
9.954031e+01	-1.966298e-03
1.001153e+02	-1.989072e-03
1.006935e+02	-2.012111e-03
1.012751e+02	-2.035416e-03
1.018601e+02	-2.058992e-03
1.024484e+02	-2.082840e-03
1.030402e+02	-2.106964e-03
1.036353e+02	-2.131368e-03
1.042339e+02	-2.156054e-03
1.048360e+02	-2.181027e-03
1.054415e+02	-2.206288e-03
1.060505e+02	-2.231842e-03
1.066631e+02	-2.257692e-03
1.072791e+02	-2.283841e-03
1.078988e+02	-2.310293e-03
1.085220e+02	-2.337051e-03
1.091488e+02	-2.364119e-03
1.097793e+02	-2.391500e-03
1.104133e+02	-2.419198e-03
1.110511e+02	-2.447218e-03
1.116925e+02	-2.475561e-03
1.123376e+02	-2.504233e-03
1.129865e+02	-2.533237e-03
1.136391e+02	-2.562576e-03
1.142955e+02	-2.592256e-03
1.149556e+02	-2.622278e-03
1.156196e+02	-2.652649e-03
1.162874e+02	-2.683371e-03
1.169591e+02	-2.714449e-03
1.176347e+02	-2.745887e-03
1.183141e+02	-2.777688e-03
1.189975e+02	-2.809858e-03
1.196848e+02	-2.842400e-03
1.203761e+02	-2.875319e-03
1.210714e+02	-2.908620e-03
1.217707e+02	-2.942305e-03
1.224740e+02	-2.976381e-03
1.231814e+02	-3.010851e-03
1.238929e+02	-3.045720e-03
1.246085e+02	-3.080993e-03
1.253283e+02	-3.116675e-03
1.260522e+02	-3.152769e-03
1.267802e+02	-3.189281e-03
1.275125e+02	-3.226216e-03
1.282490e+02	-3.263579e-03
1.289898e+02	-3.301374e-03
1.297348e+02	-3.339606e-03
1.304842e+02	-3.378281e-03
1.312378e+02	-3.417404e-03
1.319959e+02	-3.456980e-03
1.327583e+02	-3.497014e-03
1.335251e+02	-3.537511e-03
1.342963e+02	-3.578477e-03
1.350720e+02	-3.619918e-03
1.358522e+02	-3.661838e-03
1.366368e+02	-3.704243e-03
1.374260e+02	-3.747139e-03
1.382198e+02	-3.790531e-03
1.390182e+02	-3.834426e-03
1.398211e+02	-3.878829e-03
1.406287e+02	-3.923746e-03
1.414410e+02	-3.969183e-03
1.422579e+02	-4.015146e-03
1.430796e+02	-4.061641e-03
1.439060e+02	-4.108673e-03
1.447372e+02	-4.156251e-03
1.455732e+02	-4.204379e-03
1.464141e+02	-4.253064e-03
1.472597e+02	-4.302312e-03
1.481103e+02	-4.352130e-03
1.489658e+02	-4.402525e-03
1.498262e+02	-4.453503e-03
1.506916e+02	-4.505072e-03
1.515620e+02	-4.557237e-03
1.524374e+02	-4.610005e-03
1.533179e+02	-4.663385e-03
1.542034e+02	-4.717382e-03
1.550941e+02	-4.772004e-03
1.559899e+02	-4.827258e-03
1.568909e+02	-4.883152e-03
1.577971e+02	-4.939692e-03
1.587085e+02	-4.996887e-03
1.596252e+02	-5.054743e-03
1.605472e+02	-5.113269e-03
1.614745e+02	-5.172472e-03
1.624072e+02	-5.232360e-03
1.633453e+02	-5.292942e-03
1.642887e+02	-5.354224e-03
1.652377e+02	-5.416215e-03
1.661921e+02	-5.478924e-03
1.671520e+02	-5.542358e-03
1.681175e+02	-5.606526e-03
1.690885e+02	-5.671437e-03
1.700651e+02	-5.737098e-03
1.710474e+02	-5.803519e-03
1.720354e+02	-5.870709e-03
1.730291e+02	-5.938676e-03
1.740285e+02	-6.007430e-03
1.750337e+02	-6.076979e-03
1.760446e+02	-6.147332e-03
1.770615e+02	-6.218499e-03
1.780842e+02	-6.290490e-03
1.791128e+02	-6.363313e-03
1.801473e+02	-6.436979e-03
1.811878e+02	-6.511497e-03
1.822344e+02	-6.586877e-03
1.832870e+02	-6.663129e-03
1.843456e+02	-6.740263e-03
1.854104e+02	-6.818290e-03
1.864813e+02	-6.897218e-03
1.875584e+02	-6.977060e-03
1.886418e+02	-7.057825e-03
1.897313e+02	-7.139525e-03
1.908272e+02	-7.222169e-03
1.919294e+02	-7.305769e-03
1.930380e+02	-7.390336e-03
1.941530e+02	-7.475881e-03
1.952744e+02	-7.562416e-03
1.964023e+02	-7.649951e-03
1.975367e+02	-7.738498e-03
1.986777e+02	-7.828070e-03
1.998252e+02	-7.918677e-03
2.009794e+02	-8.010332e-03
2.021403e+02	-8.103047e-03
2.033078e+02	-8.196834e-03
2.044821e+02	-8.291706e-03
2.056632e+02	-8.387674e-03
2.068511e+02	-8.484752e-03
2.080459e+02	-8.582953e-03
2.092475e+02	-8.682289e-03
2.104561e+02	-8.782774e-03
2.116717e+02	-8.884420e-03
2.128943e+02	-8.987241e-03
2.141240e+02	-9.091252e-03
2.153608e+02	-9.196464e-03
2.166047e+02	-9.302893e-03
2.178558e+02	-9.410553e-03
2.191141e+02	-9.519456e-03
2.203797e+02	-9.629619e-03
2.216526e+02	-9.741055e-03
2.229329e+02	-9.853780e-03
2.242205e+02	-9.967807e-03
2.255156e+02	-1.008315e-02
2.268182e+02	-1.019983e-02
2.281283e+02	-1.031786e-02
2.294459e+02	-1.043725e-02
2.307712e+02	-1.055802e-02
2.321041e+02	-1.068019e-02
2.334447e+02	-1.080376e-02
2.347931e+02	-1.092877e-02
2.361493e+02	-1.105522e-02
2.375133e+02	-1.118313e-02
2.388851e+02	-1.131252e-02
2.402649e+02	-1.144341e-02
2.416527e+02	-1.157581e-02
2.430484e+02	-1.170973e-02
2.444523e+02	-1.184521e-02
2.458642e+02	-1.198225e-02
2.472843e+02	-1.212087e-02
2.487126e+02	-1.226110e-02
2.501492e+02	-1.240294e-02
2.515940e+02	-1.254642e-02
2.530472e+02	-1.269156e-02
2.545088e+02	-1.283838e-02
2.559789e+02	-1.298689e-02
2.574574e+02	-1.313712e-02
2.589444e+02	-1.328909e-02
2.604401e+02	-1.344280e-02
2.619444e+02	-1.359830e-02
2.634574e+02	-1.375559e-02
2.649791e+02	-1.391469e-02
2.665096e+02	-1.407564e-02
2.680489e+02	-1.423844e-02
2.695972e+02	-1.440312e-02
2.711544e+02	-1.456970e-02
2.727205e+02	-1.473821e-02
2.742958e+02	-1.490866e-02
2.758801e+02	-1.508108e-02
2.774736e+02	-1.525549e-02
2.790762e+02	-1.543192e-02
2.806882e+02	-1.561038e-02
2.823094e+02	-1.579090e-02
2.839400e+02	-1.597350e-02
2.855800e+02	-1.615821e-02
2.872295e+02	-1.634506e-02
2.888886e+02	-1.653406e-02
2.905572e+02	-1.672524e-02
2.922354e+02	-1.691863e-02
2.939234e+02	-1.711424e-02
2.956211e+02	-1.731212e-02
2.973286e+02	-1.751228e-02
2.990459e+02	-1.771475e-02
3.007732e+02	-1.791956e-02
3.025104e+02	-1.812672e-02
3.042577e+02	-1.833628e-02
3.060151e+02	-1.854826e-02
3.077826e+02	-1.876268e-02
3.095604e+02	-1.897957e-02
3.113484e+02	-1.919897e-02
3.131467e+02	-1.942089e-02
3.149554e+02	-1.964538e-02
3.167746e+02	-1.987245e-02
3.186043e+02	-2.010215e-02
3.204445e+02	-2.033449e-02
3.222954e+02	-2.056951e-02
3.241570e+02	-2.080724e-02
3.260293e+02	-2.104771e-02
3.279124e+02	-2.129096e-02
3.298064e+02	-2.153700e-02
3.317114e+02	-2.178589e-02
3.336273e+02	-2.203764e-02
3.355544e+02	-2.229229e-02
3.374925e+02	-2.254988e-02
3.394418e+02	-2.281044e-02
3.414024e+02	-2.307400e-02
3.433744e+02	-2.334060e-02
3.453577e+02	-2.361027e-02
3.473525e+02	-2.388305e-02
3.493588e+02	-2.415897e-02
3.513766e+02	-2.443807e-02
3.534062e+02	-2.472038e-02
3.554474e+02	-2.500594e-02
3.575005e+02	-2.529480e-02
3.595654e+02	-2.558698e-02
3.616422e+02	-2.588252e-02
3.637311e+02	-2.618147e-02
3.658320e+02	-2.648387e-02
3.679450e+02	-2.678974e-02
3.700702e+02	-2.709913e-02
3.722077e+02	-2.741209e-02
3.743576e+02	-2.772865e-02
3.765199e+02	-2.804886e-02
3.786946e+02	-2.837274e-02
3.808820e+02	-2.870036e-02
3.830819e+02	-2.903175e-02
3.852946e+02	-2.936695e-02
3.875200e+02	-2.970600e-02
3.897583e+02	-3.004896e-02
3.920096e+02	-3.039587e-02
3.942738e+02	-3.074676e-02
3.965511e+02	-3.110169e-02
3.988416e+02	-3.146070e-02
4.011452e+02	-3.182385e-02
4.034622e+02	-3.219116e-02
4.057926e+02	-3.256271e-02
4.081365e+02	-3.293852e-02
4.104938e+02	-3.331865e-02
4.128648e+02	-3.370316e-02
4.152495e+02	-3.409208e-02
4.176480e+02	-3.448547e-02
4.200603e+02	-3.488339e-02
4.224866e+02	-3.528588e-02
4.249268e+02	-3.569299e-02
4.273812e+02	-3.610478e-02
4.298497e+02	-3.652130e-02
4.323325e+02	-3.694261e-02
4.348297e+02	-3.736875e-02
4.373412e+02	-3.779979e-02
4.398673e+02	-3.823578e-02
4.424079e+02	-3.867677e-02
4.449633e+02	-3.912283e-02
4.475334e+02	-3.957401e-02
4.501183e+02	-4.003037e-02
4.527182e+02	-4.049196e-02
4.553330e+02	-4.095886e-02
4.579630e+02	-4.143111e-02
4.606082e+02	-4.190878e-02
4.632687e+02	-4.239193e-02
4.659445e+02	-4.288062e-02
4.686358e+02	-4.337492e-02
4.713426e+02	-4.387489e-02
4.740650e+02	-4.438059e-02
4.768032e+02	-4.489209e-02
4.795572e+02	-4.540945e-02
4.823271e+02	-4.593274e-02
4.851130e+02	-4.646204e-02
4.879150e+02	-4.699739e-02
4.907332e+02	-4.753889e-02
4.935676e+02	-4.808658e-02
4.964185e+02	-4.864056e-02
4.992858e+02	-4.920087e-02
5.021696e+02	-4.976761e-02
5.050701e+02	-5.034083e-02
5.079874e+02	-5.092062e-02
5.109215e+02	-5.150705e-02
5.138726e+02	-5.210019e-02
5.168407e+02	-5.270011e-02
5.198259e+02	-5.330691e-02
5.228284e+02	-5.392064e-02
5.258482e+02	-5.454140e-02
5.288855e+02	-5.516926e-02
5.319403e+02	-5.580430e-02
5.350128e+02	-5.644661e-02
5.381030e+02	-5.709625e-02
5.412111e+02	-5.775333e-02
5.443371e+02	-5.841791e-02
5.474812e+02	-5.909009e-02
5.506434e+02	-5.976995e-02
5.538239e+02	-6.045758e-02
5.570228e+02	-6.115306e-02
5.602401e+02	-6.185649e-02
5.634760e+02	-6.256795e-02
5.667306e+02	-6.328753e-02
5.700040e+02	-6.401533e-02
5.732964e+02	-6.475143e-02
5.766077e+02	-6.549594e-02
5.799382e+02	-6.624894e-02
5.832879e+02	-6.701053e-02
5.866569e+02	-6.778080e-02
5.900454e+02	-6.855986e-02
5.934535e+02	-6.934781e-02
5.968813e+02	-7.014473e-02
6.003288e+02	-7.095074e-02
6.037963e+02	-7.176593e-02
6.072838e+02	-7.259041e-02
6.107914e+02	-7.342429e-02
6.143194e+02	-7.426766e-02
6.178676e+02	-7.512063e-02
6.214364e+02	-7.598331e-02
6.250258e+02	-7.685581e-02
6.286359e+02	-7.773825e-02
6.322669e+02	-7.863072e-02
6.359189e+02	-7.953334e-02
6.395919e+02	-8.044623e-02
6.432862e+02	-8.136950e-02
6.470017e+02	-8.230326e-02
6.507388e+02	-8.324764e-02
6.544974e+02	-8.420275e-02
6.582778e+02	-8.516870e-02
6.620800e+02	-8.614563e-02
6.659041e+02	-8.713365e-02
6.697504e+02	-8.813289e-02
6.736188e+02	-8.914347e-02
6.775096e+02	-9.016552e-02
6.814229e+02	-9.119916e-02
6.853587e+02	-9.224453e-02
6.893173e+02	-9.330175e-02
6.932988e+02	-9.437095e-02
6.973033e+02	-9.545227e-02
7.013309e+02	-9.654585e-02
