Frequency(Hz)	Magnitude(dB)
1.000000e+01	-2.339559e+00
1.005776e+01	-2.360391e+00
1.011585e+01	-2.381295e+00
1.017428e+01	-2.402595e+00
1.023305e+01	-2.423883e+00
1.029215e+01	-2.445498e+00
1.035160e+01	-2.466835e+00
1.041139e+01	-2.488603e+00
1.047153e+01	-2.510433e+00
1.053201e+01	-2.532564e+00
1.059284e+01	-2.554951e+00
1.065403e+01	-2.577181e+00
1.071556e+01	-2.599718e+00
1.077746e+01	-2.622311e+00
1.083971e+01	-2.645056e+00
1.090232e+01	-2.668067e+00
1.096529e+01	-2.690971e+00
1.102862e+01	-2.714072e+00
1.109232e+01	-2.737407e+00
1.115639e+01	-2.760959e+00
1.122083e+01	-2.784334e+00
1.128564e+01	-2.808097e+00
1.135083e+01	-2.832093e+00
1.141639e+01	-2.855925e+00
1.148233e+01	-2.880264e+00
1.154865e+01	-2.904594e+00
1.161536e+01	-2.929136e+00
1.168245e+01	-2.953702e+00
1.174992e+01	-2.978505e+00
1.181779e+01	-3.003525e+00
1.188605e+01	-3.028300e+00
1.195470e+01	-3.053866e+00
1.202375e+01	-3.079013e+00
1.209320e+01	-3.104226e+00
1.216305e+01	-3.130020e+00
1.223330e+01	-3.155980e+00
1.230396e+01	-3.181755e+00
1.237503e+01	-3.207738e+00
1.244651e+01	-3.234045e+00
1.251840e+01	-3.260278e+00
1.259070e+01	-3.286639e+00
1.266343e+01	-3.313487e+00
1.273657e+01	-3.340293e+00
1.281014e+01	-3.367064e+00
1.288413e+01	-3.394337e+00
1.295855e+01	-3.421576e+00
1.303339e+01	-3.448822e+00
1.310867e+01	-3.476089e+00
1.318439e+01	-3.503825e+00
1.326054e+01	-3.531670e+00
1.333713e+01	-3.559591e+00
1.341417e+01	-3.587808e+00
1.349165e+01	-3.615867e+00
1.356958e+01	-3.643944e+00
1.364795e+01	-3.672602e+00
1.372678e+01	-3.701149e+00
1.380607e+01	-3.729993e+00
1.388581e+01	-3.758589e+00
1.396602e+01	-3.788020e+00
1.404668e+01	-3.817336e+00
1.412782e+01	-3.846470e+00
1.420942e+01	-3.875773e+00
1.429149e+01	-3.905434e+00
1.437404e+01	-3.935062e+00
1.445706e+01	-3.965178e+00
1.454057e+01	-3.995061e+00
1.462455e+01	-4.025394e+00
1.470902e+01	-4.055476e+00
1.479398e+01	-4.085944e+00
1.487943e+01	-4.116419e+00
1.496537e+01	-4.147412e+00
1.505181e+01	-4.178165e+00
1.513875e+01	-4.209062e+00
1.522619e+01	-4.240288e+00
1.531414e+01	-4.271493e+00
1.540259e+01	-4.302789e+00
1.549156e+01	-4.334237e+00
1.558103e+01	-4.365967e+00
1.567103e+01	-4.397756e+00
1.576155e+01	-4.429733e+00
1.585258e+01	-4.461646e+00
1.594415e+01	-4.493944e+00
1.603624e+01	-4.526030e+00
1.612886e+01	-4.558568e+00
1.622202e+01	-4.591310e+00
1.631572e+01	-4.623958e+00
1.640996e+01	-4.656769e+00
1.650474e+01	-4.689983e+00
1.660008e+01	-4.723098e+00
1.669596e+01	-4.756012e+00
1.679239e+01	-4.789477e+00
1.688938e+01	-4.823452e+00
1.698694e+01	-4.856654e+00
1.708505e+01	-4.890359e+00
1.718373e+01	-4.924306e+00
1.728299e+01	-4.958416e+00
1.738281e+01	-4.992465e+00
1.748322e+01	-5.026421e+00
1.758420e+01	-5.060740e+00
1.768576e+01	-5.095313e+00
1.778792e+01	-5.130001e+00
1.789066e+01	-5.164524e+00
1.799399e+01	-5.199577e+00
1.809793e+01	-5.234835e+00
1.820246e+01	-5.269721e+00
1.830760e+01	-5.305131e+00
1.841334e+01	-5.340083e+00
1.851969e+01	-5.375597e+00
1.862666e+01	-5.411231e+00
1.873425e+01	-5.447203e+00
1.884246e+01	-5.482797e+00
1.895129e+01	-5.518892e+00
1.906075e+01	-5.554951e+00
1.917085e+01	-5.590774e+00
1.928158e+01	-5.627043e+00
1.939295e+01	-5.663363e+00
1.950496e+01	-5.700253e+00
1.961762e+01	-5.736768e+00
1.973093e+01	-5.773464e+00
1.984490e+01	-5.810116e+00
1.995952e+01	-5.847342e+00
2.007480e+01	-5.884188e+00
2.019076e+01	-5.921157e+00
2.030738e+01	-5.958626e+00
2.042467e+01	-5.996276e+00
2.054264e+01	-6.033558e+00
2.066130e+01	-6.071685e+00
2.078064e+01	-6.108643e+00
2.090066e+01	-6.146824e+00
2.102139e+01	-6.184230e+00
2.114280e+01	-6.222454e+00
2.126492e+01	-6.260723e+00
2.138775e+01	-6.298985e+00
2.151128e+01	-6.337437e+00
2.163553e+01	-6.375749e+00
2.176050e+01	-6.414135e+00
2.188619e+01	-6.452995e+00
2.201260e+01	-6.491880e+00
2.213974e+01	-6.530870e+00
2.226762e+01	-6.569732e+00
2.239624e+01	-6.608815e+00
2.252560e+01	-6.647769e+00
2.265571e+01	-6.687009e+00
2.278656e+01	-6.726640e+00
2.291818e+01	-6.766107e+00
2.305055e+01	-6.805452e+00
2.318369e+01	-6.845192e+00
2.331760e+01	-6.884792e+00
2.345228e+01	-6.924546e+00
2.358774e+01	-6.964502e+00
2.372398e+01	-7.004875e+00
2.386101e+01	-7.044743e+00
2.399883e+01	-7.084630e+00
2.413745e+01	-7.125170e+00
2.427686e+01	-7.165846e+00
2.441709e+01	-7.206088e+00
2.455812e+01	-7.246385e+00
2.469997e+01	-7.286809e+00
2.484263e+01	-7.328161e+00
2.498612e+01	-7.368993e+00
2.513044e+01	-7.409839e+00
2.527559e+01	-7.450318e+00
2.542158e+01	-7.491567e+00
2.556842e+01	-7.533080e+00
2.571610e+01	-7.573792e+00
2.586463e+01	-7.615668e+00
2.601403e+01	-7.657052e+00
2.616428e+01	-7.698622e+00
2.631541e+01	-7.739575e+00
2.646740e+01	-7.781035e+00
2.662028e+01	-7.822770e+00
2.677404e+01	-7.865251e+00
2.692868e+01	-7.906895e+00
2.708422e+01	-7.948459e+00
2.724066e+01	-7.990813e+00
2.739800e+01	-8.033302e+00
2.755625e+01	-8.075080e+00
2.771541e+01	-8.117586e+00
2.787550e+01	-8.159952e+00
2.803650e+01	-8.202471e+00
2.819844e+01	-8.244633e+00
2.836131e+01	-8.287409e+00
2.852513e+01	-8.330242e+00
2.868989e+01	-8.372725e+00
2.885560e+01	-8.415410e+00
2.902227e+01	-8.458160e+00
2.918990e+01	-8.501483e+00
2.935850e+01	-8.544035e+00
2.952807e+01	-8.587171e+00
2.969863e+01	-8.630696e+00
2.987016e+01	-8.673956e+00
3.004269e+01	-8.716683e+00
3.021622e+01	-8.760364e+00
3.039075e+01	-8.803179e+00
3.056628e+01	-8.846993e+00
3.074283e+01	-8.890426e+00
3.092040e+01	-8.934362e+00
3.109900e+01	-8.978029e+00
3.127862e+01	-9.022037e+00
3.145929e+01	-9.065385e+00
3.164099e+01	-9.109432e+00
3.182375e+01	-9.153124e+00
3.200756e+01	-9.197154e+00
3.219244e+01	-9.241358e+00
3.237838e+01	-9.285462e+00
3.256540e+01	-9.329081e+00
3.275349e+01	-9.373856e+00
3.294268e+01	-9.418286e+00
3.313295e+01	-9.462184e+00
3.332433e+01	-9.506701e+00
3.351681e+01	-9.551451e+00
3.371040e+01	-9.595407e+00
3.390511e+01	-9.639933e+00
3.410094e+01	-9.685493e+00
3.429791e+01	-9.729688e+00
3.449601e+01	-9.774186e+00
3.469526e+01	-9.819057e+00
3.489566e+01	-9.864104e+00
3.509721e+01	-9.908746e+00
3.529993e+01	-9.953889e+00
3.550382e+01	-9.998435e+00
3.570889e+01	-1.004391e+01
3.591515e+01	-1.008888e+01
3.612259e+01	-1.013417e+01
3.633123e+01	-1.017900e+01
3.654108e+01	-1.022493e+01
3.675214e+01	-1.026948e+01
3.696442e+01	-1.031471e+01
3.717792e+01	-1.036069e+01
3.739266e+01	-1.040653e+01
3.760864e+01	-1.045211e+01
3.782587e+01	-1.049680e+01
3.804435e+01	-1.054229e+01
3.826409e+01	-1.058827e+01
3.848510e+01	-1.063413e+01
3.870739e+01	-1.067987e+01
3.893096e+01	-1.072542e+01
3.915583e+01	-1.077143e+01
3.938199e+01	-1.081729e+01
3.960946e+01	-1.086364e+01
3.983824e+01	-1.090933e+01
4.006834e+01	-1.095464e+01
4.029978e+01	-1.100093e+01
4.053255e+01	-1.104649e+01
4.076666e+01	-1.109296e+01
4.100213e+01	-1.113988e+01
4.123896e+01	-1.118577e+01
4.147715e+01	-1.123231e+01
4.171672e+01	-1.127860e+01
4.195767e+01	-1.132446e+01
4.220002e+01	-1.137101e+01
4.244377e+01	-1.141664e+01
4.268892e+01	-1.146360e+01
4.293549e+01	-1.151002e+01
4.318348e+01	-1.155627e+01
4.343291e+01	-1.160297e+01
4.368377e+01	-1.164954e+01
4.393609e+01	-1.169591e+01
4.418986e+01	-1.174322e+01
4.444510e+01	-1.178990e+01
4.470182e+01	-1.183657e+01
4.496001e+01	-1.188292e+01
4.521970e+01	-1.192971e+01
4.548089e+01	-1.197665e+01
4.574358e+01	-1.202338e+01
4.600779e+01	-1.207137e+01
4.627353e+01	-1.211713e+01
4.654081e+01	-1.216415e+01
4.680963e+01	-1.221127e+01
4.708000e+01	-1.225805e+01
4.735193e+01	-1.230612e+01
4.762543e+01	-1.235259e+01
4.790051e+01	-1.239971e+01
4.817719e+01	-1.244697e+01
4.845545e+01	-1.249378e+01
4.873533e+01	-1.254163e+01
4.901682e+01	-1.258827e+01
4.929994e+01	-1.263628e+01
4.958470e+01	-1.268352e+01
4.987110e+01	-1.273036e+01
5.015915e+01	-1.277802e+01
5.044887e+01	-1.282462e+01
5.074026e+01	-1.287324e+01
5.103333e+01	-1.291943e+01
5.132810e+01	-1.296757e+01
5.162457e+01	-1.301510e+01
5.192275e+01	-1.306313e+01
5.222265e+01	-1.311055e+01
5.252429e+01	-1.315761e+01
5.282767e+01	-1.320563e+01
5.313280e+01	-1.325337e+01
5.343969e+01	-1.330071e+01
5.374836e+01	-1.334796e+01
5.405880e+01	-1.339698e+01
5.437105e+01	-1.344374e+01
5.468509e+01	-1.349240e+01
5.500095e+01	-1.353935e+01
5.531863e+01	-1.358703e+01
5.563815e+01	-1.363505e+01
5.595951e+01	-1.368346e+01
5.628273e+01	-1.373098e+01
5.660782e+01	-1.377934e+01
5.693479e+01	-1.382732e+01
5.726364e+01	-1.387558e+01
5.759439e+01	-1.392332e+01
5.792705e+01	-1.397047e+01
5.826164e+01	-1.401917e+01
5.859815e+01	-1.406718e+01
5.893662e+01	-1.411471e+01
5.927703e+01	-1.416377e+01
5.961941e+01	-1.421186e+01
5.996377e+01	-1.426005e+01
6.031012e+01	-1.430746e+01
6.065847e+01	-1.435620e+01
6.100883e+01	-1.440319e+01
6.136121e+01	-1.445260e+01
6.171563e+01	-1.449991e+01
6.207210e+01	-1.454894e+01
6.243063e+01	-1.459740e+01
6.279122e+01	-1.464526e+01
6.315390e+01	-1.469377e+01
6.351868e+01	-1.474158e+01
6.388556e+01	-1.479072e+01
6.425456e+01	-1.483862e+01
6.462569e+01	-1.488732e+01
6.499897e+01	-1.493562e+01
6.537440e+01	-1.498418e+01
6.575200e+01	-1.503252e+01
6.613178e+01	-1.508092e+01
6.651375e+01	-1.512831e+01
6.689793e+01	-1.517779e+01
6.728433e+01	-1.522675e+01
6.767297e+01	-1.527524e+01
6.806384e+01	-1.532285e+01
6.845698e+01	-1.537163e+01
6.885238e+01	-1.542039e+01
6.925007e+01	-1.546933e+01
6.965005e+01	-1.551801e+01
7.005235e+01	-1.556621e+01
7.045697e+01	-1.561506e+01
7.086393e+01	-1.566390e+01
7.127323e+01	-1.571150e+01
7.168490e+01	-1.576079e+01
7.209895e+01	-1.580921e+01
7.251539e+01	-1.585883e+01
7.293424e+01	-1.590716e+01
7.335551e+01	-1.595627e+01
7.377920e+01	-1.600502e+01
7.420535e+01	-1.605321e+01
7.463396e+01	-1.610219e+01
7.506504e+01	-1.615254e+01
7.549861e+01	-1.620009e+01
7.593469e+01	-1.624852e+01
7.637328e+01	-1.629892e+01
7.681441e+01	-1.634661e+01
7.725809e+01	-1.639574e+01
7.770433e+01	-1.644341e+01
7.815315e+01	-1.649397e+01
7.860456e+01	-1.654205e+01
7.905857e+01	-1.659026e+01
7.951521e+01	-1.664141e+01
7.997449e+01	-1.668845e+01
8.043642e+01	-1.673778e+01
8.090102e+01	-1.678745e+01
8.136830e+01	-1.683490e+01
8.183828e+01	-1.688404e+01
8.231097e+01	-1.693340e+01
8.278640e+01	-1.698435e+01
8.326457e+01	-1.703230e+01
8.374550e+01	-1.708185e+01
8.422921e+01	-1.713005e+01
8.471572e+01	-1.717937e+01
8.520503e+01	-1.722827e+01
8.569717e+01	-1.727580e+01
8.619215e+01	-1.732545e+01
8.669000e+01	-1.737455e+01
8.719071e+01	-1.742364e+01
8.769432e+01	-1.747377e+01
8.820084e+01	-1.752294e+01
8.871029e+01	-1.757222e+01
8.922267e+01	-1.762122e+01
8.973802e+01	-1.767019e+01
9.025634e+01	-1.771870e+01
9.077766e+01	-1.776933e+01
9.130199e+01	-1.781678e+01
9.182935e+01	-1.786715e+01
9.235975e+01	-1.791724e+01
9.289321e+01	-1.796566e+01
9.342976e+01	-1.801442e+01
9.396941e+01	-1.806457e+01
9.451217e+01	-1.811328e+01
9.505807e+01	-1.816246e+01
9.560712e+01	-1.821214e+01
9.615934e+01	-1.826085e+01
9.671476e+01	-1.830986e+01
9.727338e+01	-1.835883e+01
9.783522e+01	-1.841032e+01
9.840032e+01	-1.845957e+01
9.896867e+01	-1.850823e+01
9.954031e+01	-1.855731e+01
1.001153e+02	-1.860547e+01
1.006935e+02	-1.865599e+01
1.012751e+02	-1.870560e+01
1.018601e+02	-1.875507e+01
1.024484e+02	-1.880353e+01
1.030402e+02	-1.885271e+01
1.036353e+02	-1.890056e+01
1.042339e+02	-1.895229e+01
1.048360e+02	-1.900136e+01
1.054415e+02	-1.905025e+01
1.060505e+02	-1.910060e+01
1.066631e+02	-1.914906e+01
1.072791e+02	-1.919894e+01
1.078988e+02	-1.925070e+01
1.085220e+02	-1.929780e+01
1.091488e+02	-1.934756e+01
1.097793e+02	-1.939742e+01
1.104133e+02	-1.944700e+01
1.110511e+02	-1.949719e+01
1.116925e+02	-1.954468e+01
1.123376e+02	-1.959458e+01
1.129865e+02	-1.964301e+01
1.136391e+02	-1.969404e+01
1.142955e+02	-1.974202e+01
1.149556e+02	-1.979304e+01
1.156196e+02	-1.984279e+01
1.162874e+02	-1.989200e+01
1.169591e+02	-1.994209e+01
1.176347e+02	-1.999107e+01
1.183141e+02	-2.003886e+01
1.189975e+02	-2.008892e+01
1.196848e+02	-2.013844e+01
1.203761e+02	-2.018871e+01
1.210714e+02	-2.023810e+01
1.217707e+02	-2.028794e+01
1.224740e+02	-2.033969e+01
1.231814e+02	-2.038678e+01
1.238929e+02	-2.043639e+01
1.246085e+02	-2.048724e+01
1.253283e+02	-2.053729e+01
1.260522e+02	-2.058467e+01
1.267802e+02	-2.063623e+01
1.275125e+02	-2.068396e+01
1.282490e+02	-2.073347e+01
1.289898e+02	-2.078419e+01
1.297348e+02	-2.083450e+01
1.304842e+02	-2.088224e+01
1.312378e+02	-2.093309e+01
1.319959e+02	-2.098345e+01
1.327583e+02	-2.103291e+01
1.335251e+02	-2.107972e+01
1.342963e+02	-2.113173e+01
1.350720e+02	-2.118126e+01
1.358522e+02	-2.122925e+01
1.366368e+02	-2.128001e+01
1.374260e+02	-2.133085e+01
1.382198e+02	-2.137983e+01
1.390182e+02	-2.142979e+01
1.398211e+02	-2.147923e+01
1.406287e+02	-2.152930e+01
1.414410e+02	-2.157944e+01
1.422579e+02	-2.162778e+01
1.430796e+02	-2.167902e+01
1.439060e+02	-2.172783e+01
1.447372e+02	-2.177574e+01
1.455732e+02	-2.182668e+01
1.464141e+02	-2.187750e+01
1.472597e+02	-2.192739e+01
1.481103e+02	-2.197744e+01
1.489658e+02	-2.202645e+01
1.498262e+02	-2.207616e+01
1.506916e+02	-2.212593e+01
1.515620e+02	-2.217728e+01
1.524374e+02	-2.222431e+01
1.533179e+02	-2.227461e+01
1.542034e+02	-2.232321e+01
1.550941e+02	-2.237264e+01
1.559899e+02	-2.242578e+01
1.568909e+02	-2.247314e+01
1.577971e+02	-2.252270e+01
1.587085e+02	-2.257444e+01
1.596252e+02	-2.262284e+01
1.605472e+02	-2.267101e+01
1.614745e+02	-2.272342e+01
1.624072e+02	-2.277276e+01
1.633453e+02	-2.282293e+01
1.642887e+02	-2.286991e+01
1.652377e+02	-2.292108e+01
1.661921e+02	-2.297015e+01
1.671520e+02	-2.302170e+01
1.681175e+02	-2.307052e+01
1.690885e+02	-2.311864e+01
1.700651e+02	-2.317177e+01
1.710474e+02	-2.321908e+01
1.720354e+02	-2.326740e+01
1.730291e+02	-2.331913e+01
1.740285e+02	-2.336962e+01
1.750337e+02	-2.341881e+01
1.760446e+02	-2.346995e+01
1.770615e+02	-2.351831e+01
1.780842e+02	-2.357133e+01
1.791128e+02	-2.362094e+01
1.801473e+02	-2.366823e+01
1.811878e+02	-2.372173e+01
1.822344e+02	-2.376803e+01
1.832870e+02	-2.381961e+01
1.843456e+02	-2.386810e+01
1.854104e+02	-2.391896e+01
1.864813e+02	-2.396620e+01
1.875584e+02	-2.402174e+01
1.886418e+02	-2.406583e+01
1.897313e+02	-2.411922e+01
1.908272e+02	-2.416740e+01
1.919294e+02	-2.421826e+01
1.930380e+02	-2.426911e+01
1.941530e+02	-2.431692e+01
1.952744e+02	-2.436863e+01
1.964023e+02	-2.441619e+01
1.975367e+02	-2.446464e+01
1.986777e+02	-2.451711e+01
1.998252e+02	-2.456676e+01
2.009794e+02	-2.461672e+01
2.021403e+02	-2.466886e+01
2.033078e+02	-2.471713e+01
2.044821e+02	-2.476640e+01
2.056632e+02	-2.481682e+01
2.068511e+02	-2.486737e+01
2.080459e+02	-2.491685e+01
2.092475e+02	-2.496644e+01
2.104561e+02	-2.501386e+01
2.116717e+02	-2.506586e+01
2.128943e+02	-2.511699e+01
2.141240e+02	-2.516548e+01
2.153608e+02	-2.521466e+01
2.166047e+02	-2.526419e+01
2.178558e+02	-2.531585e+01
2.191141e+02	-2.536656e+01
2.203797e+02	-2.541533e+01
2.216526e+02	-2.546603e+01
2.229329e+02	-2.551535e+01
2.242205e+02	-2.556252e+01
2.255156e+02	-2.561798e+01
2.268182e+02	-2.566393e+01
2.281283e+02	-2.571351e+01
2.294459e+02	-2.576425e+01
2.307712e+02	-2.581486e+01
2.321041e+02	-2.586710e+01
2.334447e+02	-2.591454e+01
2.347931e+02	-2.596274e+01
2.361493e+02	-2.601315e+01
2.375133e+02	-2.606445e+01
2.388851e+02	-2.611449e+01
2.402649e+02	-2.616265e+01
2.416527e+02	-2.621428e+01
2.430484e+02	-2.626503e+01
2.444523e+02	-2.631604e+01
2.458642e+02	-2.636529e+01
2.472843e+02	-2.641209e+01
2.487126e+02	-2.646003e+01
2.501492e+02	-2.651478e+01
2.515940e+02	-2.656561e+01
2.530472e+02	-2.661481e+01
2.545088e+02	-2.666387e+01
2.559789e+02	-2.671368e+01
2.574574e+02	-2.676069e+01
2.589444e+02	-2.681212e+01
2.604401e+02	-2.686638e+01
2.619444e+02	-2.691246e+01
2.634574e+02	-2.696415e+01
2.649791e+02	-2.701441e+01
2.665096e+02	-2.706503e+01
2.680489e+02	-2.711127e+01
2.695972e+02	-2.716358e+01
2.711544e+02	-2.720895e+01
2.727205e+02	-2.726213e+01
2.742958e+02	-2.731477e+01
2.758801e+02	-2.736317e+01
2.774736e+02	-2.741254e+01
2.790762e+02	-2.746422e+01
2.806882e+02	-2.751553e+01
2.823094e+02	-2.756563e+01
2.839400e+02	-2.761397e+01
2.855800e+02	-2.766269e+01
2.872295e+02	-2.771019e+01
2.888886e+02	-2.775961e+01
2.905572e+02	-2.781529e+01
2.922354e+02	-2.786434e+01
2.939234e+02	-2.791147e+01
2.956211e+02	-2.796427e+01
2.973286e+02	-2.801360e+01
2.990459e+02	-2.806302e+01
3.007732e+02	-2.811620e+01
3.025104e+02	-2.816369e+01
3.042577e+02	-2.821118e+01
3.060151e+02	-2.826262e+01
3.077826e+02	-2.831475e+01
3.095604e+02	-2.836257e+01
3.113484e+02	-2.841385e+01
3.131467e+02	-2.846088e+01
3.149554e+02	-2.851299e+01
3.167746e+02	-2.856824e+01
3.186043e+02	-2.861235e+01
3.204445e+02	-2.866658e+01
3.222954e+02	-2.871594e+01
3.241570e+02	-2.876681e+01
3.260293e+02	-2.881356e+01
3.279124e+02	-2.886243e+01
3.298064e+02	-2.891155e+01
3.317114e+02	-2.896381e+01
3.336273e+02	-2.901455e+01
3.355544e+02	-2.906816e+01
3.374925e+02	-2.911724e+01
3.394418e+02	-2.916263e+01
3.414024e+02	-2.921454e+01
3.433744e+02	-2.926519e+01
3.453577e+02	-2.930896e+01
3.473525e+02	-2.936661e+01
3.493588e+02	-2.941496e+01
3.513766e+02	-2.946276e+01
3.534062e+02	-2.951517e+01
3.554474e+02	-2.956152e+01
3.575005e+02	-2.961349e+01
3.595654e+02	-2.966314e+01
3.616422e+02	-2.971425e+01
3.637311e+02	-2.976800e+01
3.658320e+02	-2.981328e+01
3.679450e+02	-2.986427e+01
3.700702e+02	-2.991136e+01
3.722077e+02	-2.996528e+01
3.743576e+02	-3.001062e+01
3.765199e+02	-3.006560e+01
3.786946e+02	-3.010921e+01
3.808820e+02	-3.016612e+01
3.830819e+02	-3.022083e+01
3.852946e+02	-3.026594e+01
3.875200e+02	-3.031542e+01
3.897583e+02	-3.037065e+01
3.920096e+02	-3.041716e+01
3.942738e+02	-3.046648e+01
3.965511e+02	-3.052049e+01
3.988416e+02	-3.056222e+01
4.011452e+02	-3.061333e+01
4.034622e+02	-3.066623e+01
4.057926e+02	-3.072157e+01
4.081365e+02	-3.077058e+01
4.104938e+02	-3.081585e+01
4.128648e+02	-3.087011e+01
4.152495e+02	-3.091673e+01
4.176480e+02	-3.096205e+01
4.200603e+02	-3.101855e+01
4.224866e+02	-3.106408e+01
4.249268e+02	-3.111867e+01
4.273812e+02	-3.116491e+01
4.298497e+02	-3.121846e+01
4.323325e+02	-3.127372e+01
4.348297e+02	-3.131632e+01
4.373412e+02	-3.136836e+01
4.398673e+02	-3.142678e+01
4.424079e+02	-3.146419e+01
4.449633e+02	-3.152239e+01
4.475334e+02	-3.156384e+01
4.501183e+02	-3.162267e+01
4.527182e+02	-3.167196e+01
4.553330e+02	-3.171625e+01
4.579630e+02	-3.177011e+01
4.606082e+02	-3.181544e+01
4.632687e+02	-3.187326e+01
4.659445e+02	-3.191643e+01
4.686358e+02	-3.197282e+01
4.713426e+02	-3.202049e+01
4.740650e+02	-3.207637e+01
4.768032e+02	-3.211797e+01
4.795572e+02	-3.217012e+01
4.823271e+02	-3.222574e+01
4.851130e+02	-3.227605e+01
4.879150e+02	-3.232096e+01
4.907332e+02	-3.236940e+01
4.935676e+02	-3.242685e+01
4.964185e+02	-3.247608e+01
4.992858e+02	-3.251777e+01
5.021696e+02	-3.258260e+01
5.050701e+02	-3.262742e+01
5.079874e+02	-3.267768e+01
5.109215e+02	-3.272333e+01
5.138726e+02	-3.277732e+01
5.168407e+02	-3.282670e+01
5.198259e+02	-3.287943e+01
5.228284e+02	-3.292860e+01
5.258482e+02	-3.297849e+01
5.288855e+02	-3.302848e+01
5.319403e+02	-3.307480e+01
5.350128e+02	-3.312507e+01
5.381030e+02	-3.316760e+01
5.412111e+02	-3.322194e+01
5.443371e+02	-3.328054e+01
5.474812e+02	-3.332591e+01
5.506434e+02	-3.337510e+01
5.538239e+02	-3.342548e+01
5.570228e+02	-3.347131e+01
5.602401e+02	-3.353203e+01
5.634760e+02	-3.357935e+01
5.667306e+02	-3.363274e+01
5.700040e+02	-3.367839e+01
5.732964e+02	-3.373122e+01
5.766077e+02	-3.378149e+01
5.799382e+02	-3.382751e+01
5.832879e+02	-3.388024e+01
5.866569e+02	-3.392993e+01
5.900454e+02	-3.397834e+01
5.934535e+02	-3.402654e+01
5.968813e+02	-3.407834e+01
6.003288e+02	-3.413332e+01
6.037963e+02	-3.418460e+01
6.072838e+02	-3.423150e+01
6.107914e+02	-3.428588e+01
6.143194e+02	-3.433406e+01
6.178676e+02	-3.438344e+01
6.214364e+02	-3.443588e+01
6.250258e+02	-3.447904e+01
6.286359e+02	-3.452688e+01
6.322669e+02	-3.458623e+01
6.359189e+02	-3.463038e+01
6.395919e+02	-3.467678e+01
6.432862e+02	-3.473696e+01
6.470017e+02	-3.478938e+01
6.507388e+02	-3.483730e+01
6.544974e+02	-3.488209e+01
6.582778e+02	-3.493551e+01
6.620800e+02	-3.498686e+01
6.659041e+02	-3.504062e+01
6.697504e+02	-3.508930e+01
6.736188e+02	-3.513676e+01
6.775096e+02	-3.518430e+01
6.814229e+02	-3.524285e+01
6.853587e+02	-3.529627e+01
6.893173e+02	-3.533865e+01
6.932988e+02	-3.538572e+01
6.973033e+02	-3.543750e+01
7.013309e+02	-3.549580e+01
