Frequency(Hz)	Magnitude(dB)
1.000000e+01	-2.187836e+00
1.005776e+01	-2.207830e+00
1.011585e+01	-2.227617e+00
1.017428e+01	-2.247882e+00
1.023305e+01	-2.268290e+00
1.029215e+01	-2.288696e+00
1.035160e+01	-2.309072e+00
1.041139e+01	-2.329720e+00
1.047153e+01	-2.350770e+00
1.053201e+01	-2.371664e+00
1.059284e+01	-2.392977e+00
1.065403e+01	-2.414204e+00
1.071556e+01	-2.435451e+00
1.077746e+01	-2.456883e+00
1.083971e+01	-2.478666e+00
1.090232e+01	-2.500347e+00
1.096529e+01	-2.522412e+00
1.102862e+01	-2.544431e+00
1.109232e+01	-2.566836e+00
1.115639e+01	-2.589361e+00
1.122083e+01	-2.611819e+00
1.128564e+01	-2.634593e+00
1.135083e+01	-2.657220e+00
1.141639e+01	-2.680174e+00
1.148233e+01	-2.703243e+00
1.154865e+01	-2.726450e+00
1.161536e+01	-2.750110e+00
1.168245e+01	-2.773490e+00
1.174992e+01	-2.797307e+00
1.181779e+01	-2.820971e+00
1.188605e+01	-2.845143e+00
1.195470e+01	-2.869356e+00
1.202375e+01	-2.893386e+00
1.209320e+01	-2.917732e+00
1.216305e+01	-2.942426e+00
1.223330e+01	-2.967044e+00
1.230396e+01	-2.991722e+00
1.237503e+01	-3.016924e+00
1.244651e+01	-3.041861e+00
1.251840e+01	-3.067057e+00
1.259070e+01	-3.092634e+00
1.266343e+01	-3.118145e+00
1.273657e+01	-3.143841e+00
1.281014e+01	-3.169739e+00
1.288413e+01	-3.195539e+00
1.295855e+01	-3.221988e+00
1.303339e+01	-3.248343e+00
1.310867e+01	-3.274343e+00
1.318439e+01	-3.301120e+00
1.326054e+01	-3.327968e+00
1.333713e+01	-3.354517e+00
1.341417e+01	-3.381687e+00
1.349165e+01	-3.408618e+00
1.356958e+01	-3.435750e+00
1.364795e+01	-3.463573e+00
1.372678e+01	-3.490927e+00
1.380607e+01	-3.518840e+00
1.388581e+01	-3.546534e+00
1.396602e+01	-3.574423e+00
1.404668e+01	-3.602495e+00
1.412782e+01	-3.630970e+00
1.420942e+01	-3.659486e+00
1.429149e+01	-3.687998e+00
1.437404e+01	-3.716667e+00
1.445706e+01	-3.745479e+00
1.454057e+01	-3.774491e+00
1.462455e+01	-3.803795e+00
1.470902e+01	-3.832933e+00
1.479398e+01	-3.862171e+00
1.487943e+01	-3.891622e+00
1.496537e+01	-3.921528e+00
1.505181e+01	-3.951371e+00
1.513875e+01	-3.981423e+00
1.522619e+01	-4.011161e+00
1.531414e+01	-4.041587e+00
1.540259e+01	-4.072049e+00
1.549156e+01	-4.102425e+00
1.558103e+01	-4.132781e+00
1.567103e+01	-4.163913e+00
1.576155e+01	-4.194771e+00
1.585258e+01	-4.225841e+00
1.594415e+01	-4.257066e+00
1.603624e+01	-4.288627e+00
1.612886e+01	-4.319512e+00
1.622202e+01	-4.351176e+00
1.631572e+01	-4.383068e+00
1.640996e+01	-4.414962e+00
1.650474e+01	-4.446968e+00
1.660008e+01	-4.479103e+00
1.669596e+01	-4.511644e+00
1.679239e+01	-4.543658e+00
1.688938e+01	-4.576104e+00
1.698694e+01	-4.609011e+00
1.708505e+01	-4.641754e+00
1.718373e+01	-4.674395e+00
1.728299e+01	-4.707538e+00
1.738281e+01	-4.740617e+00
1.748322e+01	-4.774023e+00
1.758420e+01	-4.807427e+00
1.768576e+01	-4.841023e+00
1.778792e+01	-4.874860e+00
1.789066e+01	-4.908405e+00
1.799399e+01	-4.942462e+00
1.809793e+01	-4.976425e+00
1.820246e+01	-5.010787e+00
1.830760e+01	-5.045001e+00
1.841334e+01	-5.079370e+00
1.851969e+01	-5.114039e+00
1.862666e+01	-5.148519e+00
1.873425e+01	-5.183484e+00
1.884246e+01	-5.218304e+00
1.895129e+01	-5.253640e+00
1.906075e+01	-5.288557e+00
1.917085e+01	-5.323759e+00
1.928158e+01	-5.359257e+00
1.939295e+01	-5.394878e+00
1.950496e+01	-5.430654e+00
1.961762e+01	-5.465787e+00
1.973093e+01	-5.502000e+00
1.984490e+01	-5.538053e+00
1.995952e+01	-5.574178e+00
2.007480e+01	-5.610172e+00
2.019076e+01	-5.646651e+00
2.030738e+01	-5.683333e+00
2.042467e+01	-5.719697e+00
2.054264e+01	-5.756365e+00
2.066130e+01	-5.793157e+00
2.078064e+01	-5.830072e+00
2.090066e+01	-5.867094e+00
2.102139e+01	-5.904348e+00
2.114280e+01	-5.941310e+00
2.126492e+01	-5.978516e+00
2.138775e+01	-6.016338e+00
2.151128e+01	-6.054108e+00
2.163553e+01	-6.091483e+00
2.176050e+01	-6.129380e+00
2.188619e+01	-6.167325e+00
2.201260e+01	-6.205082e+00
2.213974e+01	-6.242782e+00
2.226762e+01	-6.281308e+00
2.239624e+01	-6.319704e+00
2.252560e+01	-6.357915e+00
2.265571e+01	-6.396698e+00
2.278656e+01	-6.435412e+00
2.291818e+01	-6.473975e+00
2.305055e+01	-6.512935e+00
2.318369e+01	-6.551509e+00
2.331760e+01	-6.590760e+00
2.345228e+01	-6.629882e+00
2.358774e+01	-6.668875e+00
2.372398e+01	-6.708258e+00
2.386101e+01	-6.747866e+00
2.399883e+01	-6.787154e+00
2.413745e+01	-6.826821e+00
2.427686e+01	-6.866341e+00
2.441709e+01	-6.906206e+00
2.455812e+01	-6.945887e+00
2.469997e+01	-6.986133e+00
2.484263e+01	-7.026135e+00
2.498612e+01	-7.066699e+00
2.513044e+01	-7.106292e+00
2.527559e+01	-7.146759e+00
2.542158e+01	-7.187225e+00
2.556842e+01	-7.227673e+00
2.571610e+01	-7.268458e+00
2.586463e+01	-7.309066e+00
2.601403e+01	-7.349670e+00
2.616428e+01	-7.390505e+00
2.631541e+01	-7.431849e+00
2.646740e+01	-7.473064e+00
2.662028e+01	-7.513872e+00
2.677404e+01	-7.555181e+00
2.692868e+01	-7.596445e+00
2.708422e+01	-7.637507e+00
2.724066e+01	-7.679151e+00
2.739800e+01	-7.720827e+00
2.755625e+01	-7.762652e+00
2.771541e+01	-7.804019e+00
2.787550e+01	-7.845446e+00
2.803650e+01	-7.887509e+00
2.819844e+01	-7.929796e+00
2.836131e+01	-7.971209e+00
2.852513e+01	-8.013431e+00
2.868989e+01	-8.055637e+00
2.885560e+01	-8.098092e+00
2.902227e+01	-8.140431e+00
2.918990e+01	-8.182518e+00
2.935850e+01	-8.224999e+00
2.952807e+01	-8.267879e+00
2.969863e+01	-8.310679e+00
2.987016e+01	-8.353222e+00
3.004269e+01	-8.395555e+00
3.021622e+01	-8.438835e+00
3.039075e+01	-8.481257e+00
3.056628e+01	-8.524321e+00
3.074283e+01	-8.567142e+00
3.092040e+01	-8.610638e+00
3.109900e+01	-8.653665e+00
3.127862e+01	-8.697209e+00
3.145929e+01	-8.740345e+00
3.164099e+01	-8.783463e+00
3.182375e+01	-8.827164e+00
3.200756e+01	-8.870387e+00
3.219244e+01	-8.914442e+00
3.237838e+01	-8.957961e+00
3.256540e+01	-9.001227e+00
3.275349e+01	-9.045091e+00
3.294268e+01	-9.089180e+00
3.313295e+01	-9.132713e+00
3.332433e+01	-9.176896e+00
3.351681e+01	-9.220517e+00
3.371040e+01	-9.264547e+00
3.390511e+01	-9.309420e+00
3.410094e+01	-9.353836e+00
3.429791e+01	-9.397587e+00
3.449601e+01	-9.442176e+00
3.469526e+01	-9.486027e+00
3.489566e+01	-9.531043e+00
3.509721e+01	-9.574966e+00
3.529993e+01	-9.619406e+00
3.550382e+01	-9.664234e+00
3.570889e+01	-9.708737e+00
3.591515e+01	-9.753913e+00
3.612259e+01	-9.798056e+00
3.633123e+01	-9.843227e+00
3.654108e+01	-9.888114e+00
3.675214e+01	-9.933571e+00
3.696442e+01	-9.978111e+00
3.717792e+01	-1.002280e+01
3.739266e+01	-1.006744e+01
3.760864e+01	-1.011371e+01
3.782587e+01	-1.015831e+01
3.804435e+01	-1.020314e+01
3.826409e+01	-1.024913e+01
3.848510e+01	-1.029401e+01
3.870739e+01	-1.033964e+01
3.893096e+01	-1.038456e+01
3.915583e+01	-1.043064e+01
3.938199e+01	-1.047567e+01
3.960946e+01	-1.052150e+01
3.983824e+01	-1.056695e+01
4.006834e+01	-1.061256e+01
4.029978e+01	-1.065883e+01
4.053255e+01	-1.070369e+01
4.076666e+01	-1.074966e+01
4.100213e+01	-1.079623e+01
4.123896e+01	-1.084191e+01
4.147715e+01	-1.088751e+01
4.171672e+01	-1.093322e+01
4.195767e+01	-1.097971e+01
4.220002e+01	-1.102612e+01
4.244377e+01	-1.107203e+01
4.268892e+01	-1.111796e+01
4.293549e+01	-1.116399e+01
4.318348e+01	-1.120985e+01
4.343291e+01	-1.125641e+01
4.368377e+01	-1.130257e+01
4.393609e+01	-1.134864e+01
4.418986e+01	-1.139563e+01
4.444510e+01	-1.144165e+01
4.470182e+01	-1.148883e+01
4.496001e+01	-1.153512e+01
4.521970e+01	-1.158140e+01
4.548089e+01	-1.162836e+01
4.574358e+01	-1.167524e+01
4.600779e+01	-1.172195e+01
4.627353e+01	-1.176867e+01
4.654081e+01	-1.181507e+01
4.680963e+01	-1.186124e+01
4.708000e+01	-1.190810e+01
4.735193e+01	-1.195546e+01
4.762543e+01	-1.200187e+01
4.790051e+01	-1.204869e+01
4.817719e+01	-1.209570e+01
4.845545e+01	-1.214228e+01
4.873533e+01	-1.218960e+01
4.901682e+01	-1.223690e+01
4.929994e+01	-1.228321e+01
4.958470e+01	-1.233037e+01
4.987110e+01	-1.237820e+01
5.015915e+01	-1.242582e+01
5.044887e+01	-1.247185e+01
5.074026e+01	-1.251902e+01
5.103333e+01	-1.256677e+01
5.132810e+01	-1.261425e+01
5.162457e+01	-1.266074e+01
5.192275e+01	-1.270901e+01
5.222265e+01	-1.275703e+01
5.252429e+01	-1.280302e+01
5.282767e+01	-1.285056e+01
5.313280e+01	-1.289859e+01
5.343969e+01	-1.294640e+01
5.374836e+01	-1.299286e+01
5.405880e+01	-1.304058e+01
5.437105e+01	-1.308855e+01
5.468509e+01	-1.313550e+01
5.500095e+01	-1.318362e+01
5.531863e+01	-1.323086e+01
5.563815e+01	-1.327880e+01
5.595951e+01	-1.332639e+01
5.628273e+01	-1.337450e+01
5.660782e+01	-1.342206e+01
5.693479e+01	-1.346968e+01
5.726364e+01	-1.351800e+01
5.759439e+01	-1.356504e+01
5.792705e+01	-1.361296e+01
5.826164e+01	-1.366125e+01
5.859815e+01	-1.370906e+01
5.893662e+01	-1.375745e+01
5.927703e+01	-1.380439e+01
5.961941e+01	-1.385248e+01
5.996377e+01	-1.390154e+01
6.031012e+01	-1.394872e+01
6.065847e+01	-1.399739e+01
6.100883e+01	-1.404483e+01
6.136121e+01	-1.409339e+01
6.171563e+01	-1.414042e+01
6.207210e+01	-1.418872e+01
6.243063e+01	-1.423708e+01
6.279122e+01	-1.428450e+01
6.315390e+01	-1.433388e+01
6.351868e+01	-1.438153e+01
6.388556e+01	-1.442956e+01
6.425456e+01	-1.447848e+01
6.462569e+01	-1.452633e+01
6.499897e+01	-1.457527e+01
6.537440e+01	-1.462303e+01
6.575200e+01	-1.467177e+01
6.613178e+01	-1.471946e+01
6.651375e+01	-1.476794e+01
6.689793e+01	-1.481590e+01
6.728433e+01	-1.486503e+01
6.767297e+01	-1.491320e+01
6.806384e+01	-1.496107e+01
6.845698e+01	-1.500979e+01
6.885238e+01	-1.505916e+01
6.925007e+01	-1.510819e+01
6.965005e+01	-1.515524e+01
7.005235e+01	-1.520428e+01
7.045697e+01	-1.525359e+01
7.086393e+01	-1.530094e+01
7.127323e+01	-1.534926e+01
7.168490e+01	-1.539833e+01
7.209895e+01	-1.544597e+01
7.251539e+01	-1.549556e+01
7.293424e+01	-1.554405e+01
7.335551e+01	-1.559253e+01
7.377920e+01	-1.564227e+01
7.420535e+01	-1.568944e+01
7.463396e+01	-1.573847e+01
7.506504e+01	-1.578732e+01
7.549861e+01	-1.583609e+01
7.593469e+01	-1.588531e+01
7.637328e+01	-1.593302e+01
7.681441e+01	-1.598288e+01
7.725809e+01	-1.603126e+01
7.770433e+01	-1.608003e+01
7.815315e+01	-1.612890e+01
7.860456e+01	-1.617848e+01
7.905857e+01	-1.622645e+01
7.951521e+01	-1.627591e+01
7.997449e+01	-1.632408e+01
8.043642e+01	-1.637331e+01
8.090102e+01	-1.642294e+01
8.136830e+01	-1.647032e+01
8.183828e+01	-1.651990e+01
8.231097e+01	-1.656887e+01
8.278640e+01	-1.661814e+01
8.326457e+01	-1.666662e+01
8.374550e+01	-1.671511e+01
8.422921e+01	-1.676489e+01
8.471572e+01	-1.681380e+01
8.520503e+01	-1.686220e+01
8.569717e+01	-1.691138e+01
8.619215e+01	-1.695990e+01
8.669000e+01	-1.701008e+01
8.719071e+01	-1.705883e+01
8.769432e+01	-1.710735e+01
8.820084e+01	-1.715663e+01
8.871029e+01	-1.720654e+01
8.922267e+01	-1.725478e+01
8.973802e+01	-1.730320e+01
9.025634e+01	-1.735208e+01
9.077766e+01	-1.740312e+01
9.130199e+01	-1.745004e+01
9.182935e+01	-1.749952e+01
9.235975e+01	-1.754875e+01
9.289321e+01	-1.759788e+01
9.342976e+01	-1.764693e+01
9.396941e+01	-1.769662e+01
9.451217e+01	-1.774644e+01
9.505807e+01	-1.779418e+01
9.560712e+01	-1.784270e+01
9.615934e+01	-1.789372e+01
9.671476e+01	-1.794282e+01
9.727338e+01	-1.799364e+01
9.783522e+01	-1.804100e+01
9.840032e+01	-1.809006e+01
9.896867e+01	-1.813968e+01
9.954031e+01	-1.818959e+01
1.001153e+02	-1.823824e+01
1.006935e+02	-1.828717e+01
1.012751e+02	-1.833795e+01
1.018601e+02	-1.838548e+01
1.024484e+02	-1.843559e+01
1.030402e+02	-1.848538e+01
1.036353e+02	-1.853447e+01
1.042339e+02	-1.858422e+01
1.048360e+02	-1.863289e+01
1.054415e+02	-1.868202e+01
1.060505e+02	-1.873331e+01
1.066631e+02	-1.878109e+01
1.072791e+02	-1.883049e+01
1.078988e+02	-1.888053e+01
1.085220e+02	-1.892927e+01
1.091488e+02	-1.897823e+01
1.097793e+02	-1.902807e+01
1.104133e+02	-1.907683e+01
1.110511e+02	-1.912632e+01
1.116925e+02	-1.917640e+01
1.123376e+02	-1.922563e+01
1.129865e+02	-1.927402e+01
1.136391e+02	-1.932445e+01
1.142955e+02	-1.937316e+01
1.149556e+02	-1.942442e+01
1.156196e+02	-1.947324e+01
1.162874e+02	-1.952296e+01
1.169591e+02	-1.957209e+01
1.176347e+02	-1.962162e+01
1.183141e+02	-1.967014e+01
1.189975e+02	-1.971991e+01
1.196848e+02	-1.976987e+01
1.203761e+02	-1.981898e+01
1.210714e+02	-1.986955e+01
1.217707e+02	-1.991876e+01
1.224740e+02	-1.996692e+01
1.231814e+02	-2.001735e+01
1.238929e+02	-2.006572e+01
1.246085e+02	-2.011814e+01
1.253283e+02	-2.016620e+01
1.260522e+02	-2.021730e+01
1.267802e+02	-2.026549e+01
1.275125e+02	-2.031575e+01
1.282490e+02	-2.036601e+01
1.289898e+02	-2.041303e+01
1.297348e+02	-2.046406e+01
1.304842e+02	-2.051368e+01
1.312378e+02	-2.056334e+01
1.319959e+02	-2.061216e+01
1.327583e+02	-2.066326e+01
1.335251e+02	-2.071080e+01
1.342963e+02	-2.076144e+01
1.350720e+02	-2.081156e+01
1.358522e+02	-2.086205e+01
1.366368e+02	-2.091027e+01
1.374260e+02	-2.095958e+01
1.382198e+02	-2.101056e+01
1.390182e+02	-2.105912e+01
1.398211e+02	-2.110972e+01
1.406287e+02	-2.115902e+01
1.414410e+02	-2.120902e+01
1.422579e+02	-2.125667e+01
1.430796e+02	-2.130693e+01
1.439060e+02	-2.135563e+01
1.447372e+02	-2.140696e+01
1.455732e+02	-2.145612e+01
1.464141e+02	-2.150732e+01
1.472597e+02	-2.155549e+01
1.481103e+02	-2.160352e+01
1.489658e+02	-2.165686e+01
1.498262e+02	-2.170555e+01
1.506916e+02	-2.175517e+01
1.515620e+02	-2.180253e+01
1.524374e+02	-2.185537e+01
1.533179e+02	-2.190448e+01
1.542034e+02	-2.195412e+01
1.550941e+02	-2.200210e+01
1.559899e+02	-2.205333e+01
1.568909e+02	-2.210352e+01
1.577971e+02	-2.215208e+01
1.587085e+02	-2.220263e+01
1.596252e+02	-2.225138e+01
1.605472e+02	-2.230261e+01
1.614745e+02	-2.235300e+01
1.624072e+02	-2.240137e+01
1.633453e+02	-2.245232e+01
1.642887e+02	-2.250312e+01
1.652377e+02	-2.255199e+01
1.661921e+02	-2.260106e+01
1.671520e+02	-2.264930e+01
1.681175e+02	-2.270089e+01
1.690885e+02	-2.274829e+01
1.700651e+02	-2.280015e+01
1.710474e+02	-2.284955e+01
1.720354e+02	-2.290013e+01
1.730291e+02	-2.295061e+01
1.740285e+02	-2.299785e+01
1.750337e+02	-2.304653e+01
1.760446e+02	-2.310073e+01
1.770615e+02	-2.314632e+01
1.780842e+02	-2.320057e+01
1.791128e+02	-2.324691e+01
1.801473e+02	-2.329721e+01
1.811878e+02	-2.334710e+01
1.822344e+02	-2.339975e+01
1.832870e+02	-2.344507e+01
1.843456e+02	-2.349685e+01
1.854104e+02	-2.354656e+01
1.864813e+02	-2.359602e+01
1.875584e+02	-2.364789e+01
1.886418e+02	-2.369963e+01
1.897313e+02	-2.374611e+01
1.908272e+02	-2.379818e+01
1.919294e+02	-2.384565e+01
1.930380e+02	-2.389738e+01
1.941530e+02	-2.394676e+01
1.952744e+02	-2.399436e+01
1.964023e+02	-2.404296e+01
1.975367e+02	-2.409527e+01
1.986777e+02	-2.414617e+01
1.998252e+02	-2.419455e+01
2.009794e+02	-2.424594e+01
2.021403e+02	-2.429593e+01
2.033078e+02	-2.434446e+01
2.044821e+02	-2.439388e+01
2.056632e+02	-2.444253e+01
2.068511e+02	-2.449124e+01
2.080459e+02	-2.454591e+01
2.092475e+02	-2.459289e+01
2.104561e+02	-2.464004e+01
2.116717e+02	-2.469443e+01
2.128943e+02	-2.474396e+01
2.141240e+02	-2.479701e+01
2.153608e+02	-2.484363e+01
2.166047e+02	-2.489277e+01
2.178558e+02	-2.494217e+01
2.191141e+02	-2.499172e+01
2.203797e+02	-2.504564e+01
2.216526e+02	-2.509211e+01
2.229329e+02	-2.513976e+01
2.242205e+02	-2.519479e+01
2.255156e+02	-2.524440e+01
2.268182e+02	-2.529236e+01
2.281283e+02	-2.534302e+01
2.294459e+02	-2.539275e+01
2.307712e+02	-2.544081e+01
2.321041e+02	-2.549367e+01
2.334447e+02	-2.554296e+01
2.347931e+02	-2.559246e+01
2.361493e+02	-2.564328e+01
2.375133e+02	-2.569213e+01
2.388851e+02	-2.574230e+01
2.402649e+02	-2.578908e+01
2.416527e+02	-2.584227e+01
2.430484e+02	-2.589188e+01
2.444523e+02	-2.594160e+01
2.458642e+02	-2.598993e+01
2.472843e+02	-2.604192e+01
2.487126e+02	-2.609229e+01
2.501492e+02	-2.614208e+01
2.515940e+02	-2.619214e+01
2.530472e+02	-2.624259e+01
2.545088e+02	-2.629123e+01
2.559789e+02	-2.634174e+01
2.574574e+02	-2.639222e+01
2.589444e+02	-2.643698e+01
2.604401e+02	-2.648727e+01
2.619444e+02	-2.654176e+01
2.634574e+02	-2.658803e+01
2.649791e+02	-2.664376e+01
2.665096e+02	-2.669252e+01
2.680489e+02	-2.674420e+01
2.695972e+02	-2.678661e+01
2.711544e+02	-2.683760e+01
2.727205e+02	-2.688856e+01
2.742958e+02	-2.694283e+01
2.758801e+02	-2.698994e+01
2.774736e+02	-2.704122e+01
2.790762e+02	-2.708918e+01
2.806882e+02	-2.713700e+01
2.823094e+02	-2.718891e+01
2.839400e+02	-2.724052e+01
2.855800e+02	-2.729138e+01
2.872295e+02	-2.734293e+01
2.888886e+02	-2.739360e+01
2.905572e+02	-2.744109e+01
2.922354e+02	-2.748769e+01
2.939234e+02	-2.753674e+01
2.956211e+02	-2.759157e+01
2.973286e+02	-2.763932e+01
2.990459e+02	-2.769157e+01
3.007732e+02	-2.774279e+01
3.025104e+02	-2.779294e+01
3.042577e+02	-2.784283e+01
3.060151e+02	-2.789155e+01
3.077826e+02	-2.794316e+01
3.095604e+02	-2.799448e+01
3.113484e+02	-2.803771e+01
3.131467e+02	-2.809152e+01
3.149554e+02	-2.814237e+01
3.167746e+02	-2.819216e+01
3.186043e+02	-2.824210e+01
3.204445e+02	-2.829450e+01
3.222954e+02	-2.834323e+01
3.241570e+02	-2.838740e+01
3.260293e+02	-2.844218e+01
3.279124e+02	-2.849328e+01
3.298064e+02	-2.853991e+01
3.317114e+02	-2.859555e+01
3.336273e+02	-2.864024e+01
3.355544e+02	-2.868899e+01
3.374925e+02	-2.873948e+01
3.394418e+02	-2.879663e+01
3.414024e+02	-2.884346e+01
3.433744e+02	-2.888982e+01
3.453577e+02	-2.893960e+01
3.473525e+02	-2.899137e+01
3.493588e+02	-2.904451e+01
3.513766e+02	-2.909142e+01
3.534062e+02	-2.914379e+01
3.554474e+02	-2.919196e+01
3.575005e+02	-2.924384e+01
3.595654e+02	-2.929095e+01
3.616422e+02	-2.933819e+01
3.637311e+02	-2.939315e+01
3.658320e+02	-2.944435e+01
3.679450e+02	-2.949070e+01
3.700702e+02	-2.954086e+01
3.722077e+02	-2.959075e+01
3.743576e+02	-2.963958e+01
3.765199e+02	-2.969827e+01
3.786946e+02	-2.974664e+01
3.808820e+02	-2.979164e+01
3.830819e+02	-2.984724e+01
3.852946e+02	-2.988951e+01
3.875200e+02	-2.994327e+01
3.897583e+02	-2.998913e+01
3.920096e+02	-3.004312e+01
3.942738e+02	-3.010027e+01
3.965511e+02	-3.014555e+01
3.988416e+02	-3.019400e+01
4.011452e+02	-3.024237e+01
4.034622e+02	-3.029548e+01
4.057926e+02	-3.034927e+01
4.081365e+02	-3.039372e+01
4.104938e+02	-3.045096e+01
4.128648e+02	-3.049616e+01
4.152495e+02	-3.054504e+01
4.176480e+02	-3.059698e+01
4.200603e+02	-3.064239e+01
4.224866e+02	-3.069199e+01
4.249268e+02	-3.074499e+01
4.273812e+02	-3.079676e+01
4.298497e+02	-3.084646e+01
4.323325e+02	-3.090061e+01
4.348297e+02	-3.094594e+01
4.373412e+02	-3.099584e+01
4.398673e+02	-3.105002e+01
4.424079e+02	-3.109759e+01
4.449633e+02	-3.114520e+01
4.475334e+02	-3.119771e+01
4.501183e+02	-3.124582e+01
4.527182e+02	-3.129279e+01
4.553330e+02	-3.134751e+01
4.579630e+02	-3.139699e+01
4.606082e+02	-3.145011e+01
4.632687e+02	-3.149940e+01
4.659445e+02	-3.154691e+01
4.686358e+02	-3.160176e+01
4.713426e+02	-3.164684e+01
4.740650e+02	-3.169461e+01
4.768032e+02	-3.174429e+01
4.795572e+02	-3.179716e+01
4.823271e+02	-3.184375e+01
4.851130e+02	-3.189665e+01
4.879150e+02	-3.195071e+01
4.907332e+02	-3.200261e+01
4.935676e+02	-3.205255e+01
4.964185e+02	-3.209638e+01
4.992858e+02	-3.214891e+01
5.021696e+02	-3.220484e+01
5.050701e+02	-3.224502e+01
5.079874e+02	-3.229997e+01
5.109215e+02	-3.234702e+01
5.138726e+02	-3.240647e+01
5.168407e+02	-3.245408e+01
5.198259e+02	-3.250406e+01
5.228284e+02	-3.255214e+01
5.258482e+02	-3.260165e+01
5.288855e+02	-3.264905e+01
5.319403e+02	-3.270569e+01
5.350128e+02	-3.274873e+01
5.381030e+02	-3.280063e+01
5.412111e+02	-3.285506e+01
5.443371e+02	-3.290576e+01
5.474812e+02	-3.295566e+01
5.506434e+02	-3.301014e+01
5.538239e+02	-3.305729e+01
5.570228e+02	-3.310452e+01
5.602401e+02	-3.315293e+01
5.634760e+02	-3.320422e+01
5.667306e+02	-3.325457e+01
5.700040e+02	-3.330788e+01
5.732964e+02	-3.336895e+01
5.766077e+02	-3.341167e+01
5.799382e+02	-3.345190e+01
5.832879e+02	-3.351028e+01
5.866569e+02	-3.355847e+01
5.900454e+02	-3.360443e+01
5.934535e+02	-3.365951e+01
5.968813e+02	-3.371403e+01
6.003288e+02	-3.375534e+01
6.037963e+02	-3.380186e+01
6.072838e+02	-3.386140e+01
6.107914e+02	-3.391008e+01
6.143194e+02	-3.395821e+01
6.178676e+02	-3.401134e+01
6.214364e+02	-3.406661e+01
6.250258e+02	-3.410044e+01
6.286359e+02	-3.416106e+01
6.322669e+02	-3.421150e+01
6.359189e+02	-3.425120e+01
6.395919e+02	-3.432391e+01
6.432862e+02	-3.435992e+01
6.470017e+02	-3.440771e+01
6.507388e+02	-3.445963e+01
6.544974e+02	-3.452006e+01
6.582778e+02	-3.456672e+01
6.620800e+02	-3.461784e+01
6.659041e+02	-3.467641e+01
6.697504e+02	-3.471054e+01
6.736188e+02	-3.476010e+01
6.775096e+02	-3.482229e+01
6.814229e+02	-3.486651e+01
6.853587e+02	-3.491022e+01
6.893173e+02	-3.496927e+01
6.932988e+02	-3.502050e+01
6.973033e+02	-3.507703e+01
7.013309e+02	-3.511651e+01
