Frequency(Hz)	Magnitude(dB)
1.000000e+01	-2.092063e+00
1.005776e+01	-2.111359e+00
1.011585e+01	-2.130611e+00
1.017428e+01	-2.149981e+00
1.023305e+01	-2.169573e+00
1.029215e+01	-2.189314e+00
1.035160e+01	-2.209372e+00
1.041139e+01	-2.229255e+00
1.047153e+01	-2.249365e+00
1.053201e+01	-2.269801e+00
1.059284e+01	-2.290306e+00
1.065403e+01	-2.310524e+00
1.071556e+01	-2.331445e+00
1.077746e+01	-2.352357e+00
1.083971e+01	-2.373383e+00
1.090232e+01	-2.394188e+00
1.096529e+01	-2.415475e+00
1.102862e+01	-2.437035e+00
1.109232e+01	-2.458643e+00
1.115639e+01	-2.480240e+00
1.122083e+01	-2.501983e+00
1.128564e+01	-2.524178e+00
1.135083e+01	-2.546151e+00
1.141639e+01	-2.568357e+00
1.148233e+01	-2.590915e+00
1.154865e+01	-2.613443e+00
1.161536e+01	-2.636387e+00
1.168245e+01	-2.659216e+00
1.174992e+01	-2.682135e+00
1.181779e+01	-2.705270e+00
1.188605e+01	-2.728642e+00
1.195470e+01	-2.751734e+00
1.202375e+01	-2.775281e+00
1.209320e+01	-2.799151e+00
1.216305e+01	-2.822828e+00
1.223330e+01	-2.846820e+00
1.230396e+01	-2.871060e+00
1.237503e+01	-2.895376e+00
1.244651e+01	-2.919719e+00
1.251840e+01	-2.944235e+00
1.259070e+01	-2.968994e+00
1.266343e+01	-2.993910e+00
1.273657e+01	-3.018647e+00
1.281014e+01	-3.043974e+00
1.288413e+01	-3.069028e+00
1.295855e+01	-3.094642e+00
1.303339e+01	-3.120260e+00
1.310867e+01	-3.145768e+00
1.318439e+01	-3.171784e+00
1.326054e+01	-3.197742e+00
1.333713e+01	-3.224164e+00
1.341417e+01	-3.250205e+00
1.349165e+01	-3.276393e+00
1.356958e+01	-3.302999e+00
1.364795e+01	-3.330158e+00
1.372678e+01	-3.356961e+00
1.380607e+01	-3.383722e+00
1.388581e+01	-3.410947e+00
1.396602e+01	-3.438178e+00
1.404668e+01	-3.465603e+00
1.412782e+01	-3.493118e+00
1.420942e+01	-3.521083e+00
1.429149e+01	-3.548842e+00
1.437404e+01	-3.576610e+00
1.445706e+01	-3.604784e+00
1.454057e+01	-3.632944e+00
1.462455e+01	-3.661399e+00
1.470902e+01	-3.690337e+00
1.479398e+01	-3.718649e+00
1.487943e+01	-3.747634e+00
1.496537e+01	-3.776764e+00
1.505181e+01	-3.806085e+00
1.513875e+01	-3.835123e+00
1.522619e+01	-3.864603e+00
1.531414e+01	-3.894113e+00
1.540259e+01	-3.923796e+00
1.549156e+01	-3.953368e+00
1.558103e+01	-3.983402e+00
1.567103e+01	-4.013695e+00
1.576155e+01	-4.043720e+00
1.585258e+01	-4.074575e+00
1.594415e+01	-4.104878e+00
1.603624e+01	-4.135523e+00
1.612886e+01	-4.166262e+00
1.622202e+01	-4.197110e+00
1.631572e+01	-4.228364e+00
1.640996e+01	-4.259359e+00
1.650474e+01	-4.290708e+00
1.660008e+01	-4.322311e+00
1.669596e+01	-4.354030e+00
1.679239e+01	-4.385398e+00
1.688938e+01	-4.417287e+00
1.698694e+01	-4.449495e+00
1.708505e+01	-4.481470e+00
1.718373e+01	-4.514052e+00
1.728299e+01	-4.546540e+00
1.738281e+01	-4.578831e+00
1.748322e+01	-4.611216e+00
1.758420e+01	-4.644134e+00
1.768576e+01	-4.677056e+00
1.778792e+01	-4.710625e+00
1.789066e+01	-4.743437e+00
1.799399e+01	-4.776678e+00
1.809793e+01	-4.809906e+00
1.820246e+01	-4.843854e+00
1.830760e+01	-4.877222e+00
1.841334e+01	-4.911058e+00
1.851969e+01	-4.945245e+00
1.862666e+01	-4.979137e+00
1.873425e+01	-5.013155e+00
1.884246e+01	-5.047464e+00
1.895129e+01	-5.082341e+00
1.906075e+01	-5.116614e+00
1.917085e+01	-5.151356e+00
1.928158e+01	-5.186218e+00
1.939295e+01	-5.221268e+00
1.950496e+01	-5.256068e+00
1.961762e+01	-5.291151e+00
1.973093e+01	-5.326431e+00
1.984490e+01	-5.361958e+00
1.995952e+01	-5.397729e+00
2.007480e+01	-5.433129e+00
2.019076e+01	-5.469090e+00
2.030738e+01	-5.505078e+00
2.042467e+01	-5.540941e+00
2.054264e+01	-5.576934e+00
2.066130e+01	-5.613518e+00
2.078064e+01	-5.649547e+00
2.090066e+01	-5.686198e+00
2.102139e+01	-5.722758e+00
2.114280e+01	-5.759274e+00
2.126492e+01	-5.796129e+00
2.138775e+01	-5.833018e+00
2.151128e+01	-5.869909e+00
2.163553e+01	-5.907214e+00
2.176050e+01	-5.944505e+00
2.188619e+01	-5.981635e+00
2.201260e+01	-6.019393e+00
2.213974e+01	-6.056690e+00
2.226762e+01	-6.094639e+00
2.239624e+01	-6.132263e+00
2.252560e+01	-6.170205e+00
2.265571e+01	-6.208230e+00
2.278656e+01	-6.246133e+00
2.291818e+01	-6.284454e+00
2.305055e+01	-6.322498e+00
2.318369e+01	-6.361285e+00
2.331760e+01	-6.399574e+00
2.345228e+01	-6.438460e+00
2.358774e+01	-6.476988e+00
2.372398e+01	-6.515691e+00
2.386101e+01	-6.554818e+00
2.399883e+01	-6.593584e+00
2.413745e+01	-6.632959e+00
2.427686e+01	-6.672317e+00
2.441709e+01	-6.711173e+00
2.455812e+01	-6.750877e+00
2.469997e+01	-6.790390e+00
2.484263e+01	-6.829864e+00
2.498612e+01	-6.869746e+00
2.513044e+01	-6.909387e+00
2.527559e+01	-6.949118e+00
2.542158e+01	-6.989397e+00
2.556842e+01	-7.029610e+00
2.571610e+01	-7.069426e+00
2.586463e+01	-7.109863e+00
2.601403e+01	-7.149775e+00
2.616428e+01	-7.190219e+00
2.631541e+01	-7.230922e+00
2.646740e+01	-7.271477e+00
2.662028e+01	-7.312134e+00
2.677404e+01	-7.353058e+00
2.692868e+01	-7.393810e+00
2.708422e+01	-7.434797e+00
2.724066e+01	-7.475996e+00
2.739800e+01	-7.517221e+00
2.755625e+01	-7.558528e+00
2.771541e+01	-7.599699e+00
2.787550e+01	-7.640576e+00
2.803650e+01	-7.682277e+00
2.819844e+01	-7.723361e+00
2.836131e+01	-7.765672e+00
2.852513e+01	-7.806744e+00
2.868989e+01	-7.849001e+00
2.885560e+01	-7.890542e+00
2.902227e+01	-7.932742e+00
2.918990e+01	-7.975006e+00
2.935850e+01	-8.017235e+00
2.952807e+01	-8.059252e+00
2.969863e+01	-8.101089e+00
2.987016e+01	-8.143734e+00
3.004269e+01	-8.186211e+00
3.021622e+01	-8.228453e+00
3.039075e+01	-8.271109e+00
3.056628e+01	-8.313489e+00
3.074283e+01	-8.356166e+00
3.092040e+01	-8.399261e+00
3.109900e+01	-8.441688e+00
3.127862e+01	-8.484723e+00
3.145929e+01	-8.528099e+00
3.164099e+01	-8.570583e+00
3.182375e+01	-8.614397e+00
3.200756e+01	-8.657236e+00
3.219244e+01	-8.700224e+00
3.237838e+01	-8.743452e+00
3.256540e+01	-8.786958e+00
3.275349e+01	-8.830716e+00
3.294268e+01	-8.873374e+00
3.313295e+01	-8.917789e+00
3.332433e+01	-8.961158e+00
3.351681e+01	-9.005055e+00
3.371040e+01	-9.048824e+00
3.390511e+01	-9.092600e+00
3.410094e+01	-9.136460e+00
3.429791e+01	-9.180283e+00
3.449601e+01	-9.224349e+00
3.469526e+01	-9.268460e+00
3.489566e+01	-9.312407e+00
3.509721e+01	-9.356862e+00
3.529993e+01	-9.401247e+00
3.550382e+01	-9.445291e+00
3.570889e+01	-9.489330e+00
3.591515e+01	-9.534031e+00
3.612259e+01	-9.578269e+00
3.633123e+01	-9.622812e+00
3.654108e+01	-9.667692e+00
3.675214e+01	-9.712417e+00
3.696442e+01	-9.757145e+00
3.717792e+01	-9.801919e+00
3.739266e+01	-9.846709e+00
3.760864e+01	-9.891725e+00
3.782587e+01	-9.936409e+00
3.804435e+01	-9.981572e+00
3.826409e+01	-1.002625e+01
3.848510e+01	-1.007185e+01
3.870739e+01	-1.011676e+01
3.893096e+01	-1.016219e+01
3.915583e+01	-1.020706e+01
3.938199e+01	-1.025200e+01
3.960946e+01	-1.029793e+01
3.983824e+01	-1.034325e+01
4.006834e+01	-1.038841e+01
4.029978e+01	-1.043380e+01
4.053255e+01	-1.047926e+01
4.076666e+01	-1.052496e+01
4.100213e+01	-1.057091e+01
4.123896e+01	-1.061701e+01
4.147715e+01	-1.066225e+01
4.171672e+01	-1.070764e+01
4.195767e+01	-1.075397e+01
4.220002e+01	-1.079947e+01
4.244377e+01	-1.084517e+01
4.268892e+01	-1.089124e+01
4.293549e+01	-1.093748e+01
4.318348e+01	-1.098344e+01
4.343291e+01	-1.102961e+01
4.368377e+01	-1.107579e+01
4.393609e+01	-1.112158e+01
4.418986e+01	-1.116827e+01
4.444510e+01	-1.121414e+01
4.470182e+01	-1.125980e+01
4.496001e+01	-1.130596e+01
4.521970e+01	-1.135307e+01
4.548089e+01	-1.139949e+01
4.574358e+01	-1.144592e+01
4.600779e+01	-1.149190e+01
4.627353e+01	-1.153858e+01
4.654081e+01	-1.158524e+01
4.680963e+01	-1.163206e+01
4.708000e+01	-1.167843e+01
4.735193e+01	-1.172558e+01
4.762543e+01	-1.177117e+01
4.790051e+01	-1.181856e+01
4.817719e+01	-1.186483e+01
4.845545e+01	-1.191202e+01
4.873533e+01	-1.195877e+01
4.901682e+01	-1.200581e+01
4.929994e+01	-1.205276e+01
4.958470e+01	-1.209902e+01
4.987110e+01	-1.214668e+01
5.015915e+01	-1.219353e+01
5.044887e+01	-1.224076e+01
5.074026e+01	-1.228787e+01
5.103333e+01	-1.233458e+01
5.132810e+01	-1.238168e+01
5.162457e+01	-1.242850e+01
5.192275e+01	-1.247593e+01
5.222265e+01	-1.252354e+01
5.252429e+01	-1.257082e+01
5.282767e+01	-1.261824e+01
5.313280e+01	-1.266515e+01
5.343969e+01	-1.271276e+01
5.374836e+01	-1.275992e+01
5.405880e+01	-1.280680e+01
5.437105e+01	-1.285462e+01
5.468509e+01	-1.290244e+01
5.500095e+01	-1.294921e+01
5.531863e+01	-1.299693e+01
5.563815e+01	-1.304425e+01
5.595951e+01	-1.309194e+01
5.628273e+01	-1.313917e+01
5.660782e+01	-1.318763e+01
5.693479e+01	-1.323448e+01
5.726364e+01	-1.328243e+01
5.759439e+01	-1.333072e+01
5.792705e+01	-1.337836e+01
5.826164e+01	-1.342539e+01
5.859815e+01	-1.347409e+01
5.893662e+01	-1.352121e+01
5.927703e+01	-1.356900e+01
5.961941e+01	-1.361774e+01
5.996377e+01	-1.366419e+01
6.031012e+01	-1.371236e+01
6.065847e+01	-1.376063e+01
6.100883e+01	-1.380854e+01
6.136121e+01	-1.385725e+01
6.171563e+01	-1.390512e+01
6.207210e+01	-1.395194e+01
6.243063e+01	-1.400151e+01
6.279122e+01	-1.404806e+01
6.315390e+01	-1.409665e+01
6.351868e+01	-1.414496e+01
6.388556e+01	-1.419196e+01
6.425456e+01	-1.424032e+01
6.462569e+01	-1.428870e+01
6.499897e+01	-1.433762e+01
6.537440e+01	-1.438598e+01
6.575200e+01	-1.443365e+01
6.613178e+01	-1.448164e+01
6.651375e+01	-1.453065e+01
6.689793e+01	-1.457931e+01
6.728433e+01	-1.462650e+01
6.767297e+01	-1.467442e+01
6.806384e+01	-1.472249e+01
6.845698e+01	-1.477097e+01
6.885238e+01	-1.481968e+01
6.925007e+01	-1.486872e+01
6.965005e+01	-1.491725e+01
7.005235e+01	-1.496397e+01
7.045697e+01	-1.501360e+01
7.086393e+01	-1.506242e+01
7.127323e+01	-1.511170e+01
7.168490e+01	-1.515918e+01
7.209895e+01	-1.520829e+01
7.251539e+01	-1.525684e+01
7.293424e+01	-1.530418e+01
7.335551e+01	-1.535292e+01
7.377920e+01	-1.540165e+01
7.420535e+01	-1.545086e+01
7.463396e+01	-1.550035e+01
7.506504e+01	-1.554705e+01
7.549861e+01	-1.559719e+01
7.593469e+01	-1.564464e+01
7.637328e+01	-1.569452e+01
7.681441e+01	-1.574180e+01
7.725809e+01	-1.579174e+01
7.770433e+01	-1.584000e+01
7.815315e+01	-1.588855e+01
7.860456e+01	-1.593776e+01
7.905857e+01	-1.598733e+01
7.951521e+01	-1.603371e+01
7.997449e+01	-1.608279e+01
8.043642e+01	-1.613286e+01
8.090102e+01	-1.618183e+01
8.136830e+01	-1.622976e+01
8.183828e+01	-1.627925e+01
8.231097e+01	-1.632846e+01
8.278640e+01	-1.637756e+01
8.326457e+01	-1.642578e+01
8.374550e+01	-1.647450e+01
8.422921e+01	-1.652302e+01
8.471572e+01	-1.657201e+01
8.520503e+01	-1.662133e+01
8.569717e+01	-1.666955e+01
8.619215e+01	-1.671959e+01
8.669000e+01	-1.676802e+01
8.719071e+01	-1.681677e+01
8.769432e+01	-1.686506e+01
8.820084e+01	-1.691469e+01
8.871029e+01	-1.696373e+01
8.922267e+01	-1.701321e+01
8.973802e+01	-1.706290e+01
9.025634e+01	-1.711071e+01
9.077766e+01	-1.716050e+01
9.130199e+01	-1.720999e+01
9.182935e+01	-1.725830e+01
9.235975e+01	-1.730805e+01
9.289321e+01	-1.735732e+01
9.342976e+01	-1.740574e+01
9.396941e+01	-1.745461e+01
9.451217e+01	-1.750460e+01
9.505807e+01	-1.755274e+01
9.560712e+01	-1.760184e+01
9.615934e+01	-1.765134e+01
9.671476e+01	-1.769991e+01
9.727338e+01	-1.774917e+01
9.783522e+01	-1.780009e+01
9.840032e+01	-1.784757e+01
9.896867e+01	-1.789769e+01
9.954031e+01	-1.794596e+01
1.001153e+02	-1.799515e+01
1.006935e+02	-1.804564e+01
1.012751e+02	-1.809454e+01
1.018601e+02	-1.814412e+01
1.024484e+02	-1.819269e+01
1.030402e+02	-1.824156e+01
1.036353e+02	-1.829161e+01
1.042339e+02	-1.834124e+01
1.048360e+02	-1.839034e+01
1.054415e+02	-1.843788e+01
1.060505e+02	-1.848900e+01
1.066631e+02	-1.853777e+01
1.072791e+02	-1.858812e+01
1.078988e+02	-1.863529e+01
1.085220e+02	-1.868608e+01
1.091488e+02	-1.873527e+01
1.097793e+02	-1.878501e+01
1.104133e+02	-1.883453e+01
1.110511e+02	-1.888342e+01
1.116925e+02	-1.893317e+01
1.123376e+02	-1.898265e+01
1.129865e+02	-1.903262e+01
1.136391e+02	-1.908165e+01
1.142955e+02	-1.913009e+01
1.149556e+02	-1.917896e+01
1.156196e+02	-1.923008e+01
1.162874e+02	-1.928007e+01
1.169591e+02	-1.932859e+01
1.176347e+02	-1.937803e+01
1.183141e+02	-1.942837e+01
1.189975e+02	-1.947653e+01
1.196848e+02	-1.952698e+01
1.203761e+02	-1.957606e+01
1.210714e+02	-1.962481e+01
1.217707e+02	-1.967403e+01
1.224740e+02	-1.972430e+01
1.231814e+02	-1.977290e+01
1.238929e+02	-1.982514e+01
1.246085e+02	-1.987206e+01
1.253283e+02	-1.992327e+01
1.260522e+02	-1.997254e+01
1.267802e+02	-2.002172e+01
1.275125e+02	-2.007182e+01
1.282490e+02	-2.012003e+01
1.289898e+02	-2.016959e+01
1.297348e+02	-2.021953e+01
1.304842e+02	-2.026719e+01
1.312378e+02	-2.031967e+01
1.319959e+02	-2.036716e+01
1.327583e+02	-2.041824e+01
1.335251e+02	-2.046770e+01
1.342963e+02	-2.051840e+01
1.350720e+02	-2.056639e+01
1.358522e+02	-2.061693e+01
1.366368e+02	-2.066554e+01
1.374260e+02	-2.071592e+01
1.382198e+02	-2.076382e+01
1.390182e+02	-2.081435e+01
1.398211e+02	-2.086399e+01
1.406287e+02	-2.091413e+01
1.414410e+02	-2.096330e+01
1.422579e+02	-2.101404e+01
1.430796e+02	-2.106386e+01
1.439060e+02	-2.111182e+01
1.447372e+02	-2.116153e+01
1.455732e+02	-2.121130e+01
1.464141e+02	-2.126181e+01
1.472597e+02	-2.131100e+01
1.481103e+02	-2.136014e+01
1.489658e+02	-2.141163e+01
1.498262e+02	-2.145935e+01
1.506916e+02	-2.150999e+01
1.515620e+02	-2.155993e+01
1.524374e+02	-2.160927e+01
1.533179e+02	-2.165888e+01
1.542034e+02	-2.170960e+01
1.550941e+02	-2.175748e+01
1.559899e+02	-2.180720e+01
1.568909e+02	-2.186026e+01
1.577971e+02	-2.190640e+01
1.587085e+02	-2.195734e+01
1.596252e+02	-2.200630e+01
1.605472e+02	-2.205584e+01
1.614745e+02	-2.210635e+01
1.624072e+02	-2.215723e+01
1.633453e+02	-2.220717e+01
1.642887e+02	-2.225482e+01
1.652377e+02	-2.230537e+01
1.661921e+02	-2.235412e+01
1.671520e+02	-2.240487e+01
1.681175e+02	-2.245425e+01
1.690885e+02	-2.250518e+01
1.700651e+02	-2.255475e+01
1.710474e+02	-2.260458e+01
1.720354e+02	-2.265473e+01
1.730291e+02	-2.270354e+01
1.740285e+02	-2.275268e+01
1.750337e+02	-2.280309e+01
1.760446e+02	-2.285417e+01
1.770615e+02	-2.290316e+01
1.780842e+02	-2.295309e+01
1.791128e+02	-2.300267e+01
1.801473e+02	-2.305373e+01
1.811878e+02	-2.310042e+01
1.822344e+02	-2.315474e+01
1.832870e+02	-2.320170e+01
1.843456e+02	-2.325093e+01
1.854104e+02	-2.330030e+01
1.864813e+02	-2.335399e+01
1.875584e+02	-2.340233e+01
1.886418e+02	-2.345008e+01
1.897313e+02	-2.349895e+01
1.908272e+02	-2.354876e+01
1.919294e+02	-2.359805e+01
1.930380e+02	-2.365036e+01
1.941530e+02	-2.369819e+01
1.952744e+02	-2.375229e+01
1.964023e+02	-2.379752e+01
1.975367e+02	-2.385019e+01
1.986777e+02	-2.389824e+01
1.998252e+02	-2.395013e+01
2.009794e+02	-2.399856e+01
2.021403e+02	-2.404909e+01
2.033078e+02	-2.410050e+01
2.044821e+02	-2.414845e+01
2.056632e+02	-2.419912e+01
2.068511e+02	-2.424817e+01
2.080459e+02	-2.429606e+01
2.092475e+02	-2.434805e+01
2.104561e+02	-2.439615e+01
2.116717e+02	-2.445030e+01
2.128943e+02	-2.449646e+01
2.141240e+02	-2.454771e+01
2.153608e+02	-2.459765e+01
2.166047e+02	-2.464705e+01
2.178558e+02	-2.469394e+01
2.191141e+02	-2.474863e+01
2.203797e+02	-2.479899e+01
2.216526e+02	-2.484858e+01
2.229329e+02	-2.489746e+01
2.242205e+02	-2.494595e+01
2.255156e+02	-2.499631e+01
2.268182e+02	-2.504552e+01
2.281283e+02	-2.509685e+01
2.294459e+02	-2.514819e+01
2.307712e+02	-2.519609e+01
2.321041e+02	-2.524756e+01
2.334447e+02	-2.529533e+01
2.347931e+02	-2.534674e+01
2.361493e+02	-2.539567e+01
2.375133e+02	-2.544615e+01
2.388851e+02	-2.549609e+01
2.402649e+02	-2.554544e+01
2.416527e+02	-2.559689e+01
2.430484e+02	-2.564391e+01
2.444523e+02	-2.569768e+01
2.458642e+02	-2.574588e+01
2.472843e+02	-2.579363e+01
2.487126e+02	-2.584333e+01
2.501492e+02	-2.589384e+01
2.515940e+02	-2.594478e+01
2.530472e+02	-2.599338e+01
2.545088e+02	-2.604373e+01
2.559789e+02	-2.609535e+01
2.574574e+02	-2.614470e+01
2.589444e+02	-2.619344e+01
2.604401e+02	-2.624288e+01
2.619444e+02	-2.629449e+01
2.634574e+02	-2.634461e+01
2.649791e+02	-2.639605e+01
2.665096e+02	-2.644192e+01
2.680489e+02	-2.649440e+01
2.695972e+02	-2.654690e+01
2.711544e+02	-2.659466e+01
2.727205e+02	-2.664577e+01
2.742958e+02	-2.669444e+01
2.758801e+02	-2.674469e+01
2.774736e+02	-2.679733e+01
2.790762e+02	-2.684645e+01
2.806882e+02	-2.689341e+01
2.823094e+02	-2.694406e+01
2.839400e+02	-2.699323e+01
2.855800e+02	-2.704484e+01
2.872295e+02	-2.709226e+01
2.888886e+02	-2.714533e+01
2.905572e+02	-2.719362e+01
2.922354e+02	-2.724498e+01
2.939234e+02	-2.729315e+01
2.956211e+02	-2.734578e+01
2.973286e+02	-2.739603e+01
2.990459e+02	-2.744157e+01
3.007732e+02	-2.749477e+01
3.025104e+02	-2.753950e+01
3.042577e+02	-2.759533e+01
3.060151e+02	-2.764640e+01
3.077826e+02	-2.769818e+01
3.095604e+02	-2.774661e+01
3.113484e+02	-2.779393e+01
3.131467e+02	-2.784729e+01
3.149554e+02	-2.789424e+01
3.167746e+02	-2.794873e+01
3.186043e+02	-2.799298e+01
3.204445e+02	-2.804392e+01
3.222954e+02	-2.809652e+01
3.241570e+02	-2.814008e+01
3.260293e+02	-2.819340e+01
3.279124e+02	-2.824573e+01
3.298064e+02	-2.829172e+01
3.317114e+02	-2.834675e+01
3.336273e+02	-2.839516e+01
3.355544e+02	-2.844596e+01
3.374925e+02	-2.849490e+01
3.394418e+02	-2.854552e+01
3.414024e+02	-2.859242e+01
3.433744e+02	-2.864478e+01
3.453577e+02	-2.869558e+01
3.473525e+02	-2.874384e+01
3.493588e+02	-2.879674e+01
3.513766e+02	-2.884658e+01
3.534062e+02	-2.889696e+01
3.554474e+02	-2.894653e+01
3.575005e+02	-2.899531e+01
3.595654e+02	-2.904390e+01
3.616422e+02	-2.909748e+01
3.637311e+02	-2.914688e+01
3.658320e+02	-2.919651e+01
3.679450e+02	-2.924282e+01
3.700702e+02	-2.929385e+01
3.722077e+02	-2.934280e+01
3.743576e+02	-2.939625e+01
3.765199e+02	-2.944478e+01
3.786946e+02	-2.949823e+01
3.808820e+02	-2.954244e+01
3.830819e+02	-2.959815e+01
3.852946e+02	-2.964707e+01
3.875200e+02	-2.970048e+01
3.897583e+02	-2.974673e+01
3.920096e+02	-2.979740e+01
3.942738e+02	-2.984232e+01
3.965511e+02	-2.989420e+01
3.988416e+02	-2.994325e+01
4.011452e+02	-2.999166e+01
4.034622e+02	-3.005228e+01
4.057926e+02	-3.009371e+01
4.081365e+02	-3.014435e+01
4.104938e+02	-3.019463e+01
4.128648e+02	-3.024966e+01
4.152495e+02	-3.029645e+01
4.176480e+02	-3.034989e+01
4.200603e+02	-3.039821e+01
4.224866e+02	-3.044895e+01
4.249268e+02	-3.049050e+01
4.273812e+02	-3.055090e+01
4.298497e+02	-3.060263e+01
4.323325e+02	-3.064905e+01
4.348297e+02	-3.070197e+01
4.373412e+02	-3.075417e+01
4.398673e+02	-3.080037e+01
4.424079e+02	-3.085174e+01
4.449633e+02	-3.089572e+01
4.475334e+02	-3.094869e+01
4.501183e+02	-3.099622e+01
4.527182e+02	-3.105509e+01
4.553330e+02	-3.110433e+01
4.579630e+02	-3.114873e+01
4.606082e+02	-3.119967e+01
4.632687e+02	-3.124655e+01
4.659445e+02	-3.130024e+01
4.686358e+02	-3.135551e+01
4.713426e+02	-3.139899e+01
4.740650e+02	-3.144729e+01
4.768032e+02	-3.150173e+01
4.795572e+02	-3.154903e+01
4.823271e+02	-3.159872e+01
4.851130e+02	-3.165428e+01
4.879150e+02	-3.170275e+01
4.907332e+02	-3.174867e+01
4.935676e+02	-3.179879e+01
4.964185e+02	-3.185598e+01
4.992858e+02	-3.190081e+01
5.021696e+02	-3.195112e+01
5.050701e+02	-3.200187e+01
5.079874e+02	-3.205247e+01
5.109215e+02	-3.210461e+01
5.138726e+02	-3.214698e+01
5.168407e+02	-3.220942e+01
5.198259e+02	-3.226048e+01
5.228284e+02	-3.230038e+01
5.258482e+02	-3.234695e+01
5.288855e+02	-3.240340e+01
5.319403e+02	-3.245057e+01
5.350128e+02	-3.250338e+01
5.381030e+02	-3.255533e+01
5.412111e+02	-3.260191e+01
5.443371e+02	-3.266043e+01
5.474812e+02	-3.270034e+01
5.506434e+02	-3.275743e+01
5.538239e+02	-3.280568e+01
5.570228e+02	-3.285752e+01
5.602401e+02	-3.290750e+01
5.634760e+02	-3.295668e+01
5.667306e+02	-3.300853e+01
5.700040e+02	-3.305782e+01
5.732964e+02	-3.311057e+01
5.766077e+02	-3.315994e+01
5.799382e+02	-3.320947e+01
5.832879e+02	-3.325896e+01
5.866569e+02	-3.331058e+01
5.900454e+02	-3.336489e+01
5.934535e+02	-3.341023e+01
5.968813e+02	-3.345530e+01
6.003288e+02	-3.350786e+01
6.037963e+02	-3.356095e+01
6.072838e+02	-3.361127e+01
6.107914e+02	-3.366953e+01
6.143194e+02	-3.370584e+01
6.178676e+02	-3.375949e+01
6.214364e+02	-3.381236e+01
6.250258e+02	-3.385673e+01
6.286359e+02	-3.390618e+01
6.322669e+02	-3.395663e+01
6.359189e+02	-3.401679e+01
6.395919e+02	-3.406979e+01
6.432862e+02	-3.411394e+01
6.470017e+02	-3.417249e+01
6.507388e+02	-3.421769e+01
6.544974e+02	-3.426580e+01
6.582778e+02	-3.431496e+01
6.620800e+02	-3.436378e+01
6.659041e+02	-3.442074e+01
6.697504e+02	-3.446723e+01
6.736188e+02	-3.451171e+01
6.775096e+02	-3.457439e+01
6.814229e+02	-3.461949e+01
6.853587e+02	-3.466679e+01
6.893173e+02	-3.471741e+01
6.932988e+02	-3.478075e+01
6.973033e+02	-3.482052e+01
7.013309e+02	-3.487422e+01
