Frequency(Hz)	Magnitude(dB)
1.000000e+01	-2.225159e+00
1.005776e+01	-2.245274e+00
1.011585e+01	-2.265335e+00
1.017428e+01	-2.286056e+00
1.023305e+01	-2.306362e+00
1.029215e+01	-2.327257e+00
1.035160e+01	-2.348030e+00
1.041139e+01	-2.368880e+00
1.047153e+01	-2.389879e+00
1.053201e+01	-2.411199e+00
1.059284e+01	-2.432700e+00
1.065403e+01	-2.453851e+00
1.071556e+01	-2.475640e+00
1.077746e+01	-2.497679e+00
1.083971e+01	-2.519564e+00
1.090232e+01	-2.541771e+00
1.096529e+01	-2.563982e+00
1.102862e+01	-2.586044e+00
1.109232e+01	-2.608961e+00
1.115639e+01	-2.631180e+00
1.122083e+01	-2.654402e+00
1.128564e+01	-2.677284e+00
1.135083e+01	-2.700103e+00
1.141639e+01	-2.723735e+00
1.148233e+01	-2.746969e+00
1.154865e+01	-2.770551e+00
1.161536e+01	-2.793907e+00
1.168245e+01	-2.818138e+00
1.174992e+01	-2.841918e+00
1.181779e+01	-2.866008e+00
1.188605e+01	-2.890176e+00
1.195470e+01	-2.914686e+00
1.202375e+01	-2.939172e+00
1.209320e+01	-2.963832e+00
1.216305e+01	-2.988624e+00
1.223330e+01	-3.013603e+00
1.230396e+01	-3.038405e+00
1.237503e+01	-3.063957e+00
1.244651e+01	-3.089058e+00
1.251840e+01	-3.114887e+00
1.259070e+01	-3.140378e+00
1.266343e+01	-3.166095e+00
1.273657e+01	-3.192372e+00
1.281014e+01	-3.218501e+00
1.288413e+01	-3.244837e+00
1.295855e+01	-3.270915e+00
1.303339e+01	-3.297569e+00
1.310867e+01	-3.324286e+00
1.318439e+01	-3.351365e+00
1.326054e+01	-3.378225e+00
1.333713e+01	-3.405218e+00
1.341417e+01	-3.432720e+00
1.349165e+01	-3.459818e+00
1.356958e+01	-3.487251e+00
1.364795e+01	-3.515138e+00
1.372678e+01	-3.542995e+00
1.380607e+01	-3.570737e+00
1.388581e+01	-3.599001e+00
1.396602e+01	-3.627333e+00
1.404668e+01	-3.656015e+00
1.412782e+01	-3.684277e+00
1.420942e+01	-3.712764e+00
1.429149e+01	-3.741577e+00
1.437404e+01	-3.770672e+00
1.445706e+01	-3.799572e+00
1.454057e+01	-3.829111e+00
1.462455e+01	-3.858487e+00
1.470902e+01	-3.887921e+00
1.479398e+01	-3.917839e+00
1.487943e+01	-3.947174e+00
1.496537e+01	-3.977234e+00
1.505181e+01	-4.007171e+00
1.513875e+01	-4.037455e+00
1.522619e+01	-4.067868e+00
1.531414e+01	-4.098547e+00
1.540259e+01	-4.129163e+00
1.549156e+01	-4.159841e+00
1.558103e+01	-4.190631e+00
1.567103e+01	-4.221541e+00
1.576155e+01	-4.253043e+00
1.585258e+01	-4.284259e+00
1.594415e+01	-4.315622e+00
1.603624e+01	-4.347084e+00
1.612886e+01	-4.378978e+00
1.622202e+01	-4.410616e+00
1.631572e+01	-4.443039e+00
1.640996e+01	-4.475029e+00
1.650474e+01	-4.507124e+00
1.660008e+01	-4.539309e+00
1.669596e+01	-4.571940e+00
1.679239e+01	-4.604737e+00
1.688938e+01	-4.637343e+00
1.698694e+01	-4.670211e+00
1.708505e+01	-4.703290e+00
1.718373e+01	-4.736457e+00
1.728299e+01	-4.769825e+00
1.738281e+01	-4.803136e+00
1.748322e+01	-4.836633e+00
1.758420e+01	-4.870123e+00
1.768576e+01	-4.904140e+00
1.778792e+01	-4.937961e+00
1.789066e+01	-4.972035e+00
1.799399e+01	-5.006260e+00
1.809793e+01	-5.040641e+00
1.820246e+01	-5.074994e+00
1.830760e+01	-5.109463e+00
1.841334e+01	-5.143816e+00
1.851969e+01	-5.178889e+00
1.862666e+01	-5.213894e+00
1.873425e+01	-5.248766e+00
1.884246e+01	-5.284002e+00
1.895129e+01	-5.319230e+00
1.906075e+01	-5.354609e+00
1.917085e+01	-5.390228e+00
1.928158e+01	-5.425856e+00
1.939295e+01	-5.461495e+00
1.950496e+01	-5.497452e+00
1.961762e+01	-5.533052e+00
1.973093e+01	-5.569431e+00
1.984490e+01	-5.605772e+00
1.995952e+01	-5.642452e+00
2.007480e+01	-5.678521e+00
2.019076e+01	-5.714912e+00
2.030738e+01	-5.751590e+00
2.042467e+01	-5.788676e+00
2.054264e+01	-5.825351e+00
2.066130e+01	-5.862281e+00
2.078064e+01	-5.899373e+00
2.090066e+01	-5.937183e+00
2.102139e+01	-5.974086e+00
2.114280e+01	-6.011260e+00
2.126492e+01	-6.048932e+00
2.138775e+01	-6.086553e+00
2.151128e+01	-6.124800e+00
2.163553e+01	-6.162202e+00
2.176050e+01	-6.199980e+00
2.188619e+01	-6.238367e+00
2.201260e+01	-6.276364e+00
2.213974e+01	-6.315013e+00
2.226762e+01	-6.353124e+00
2.239624e+01	-6.391953e+00
2.252560e+01	-6.430088e+00
2.265571e+01	-6.468833e+00
2.278656e+01	-6.507912e+00
2.291818e+01	-6.546610e+00
2.305055e+01	-6.585472e+00
2.318369e+01	-6.624612e+00
2.331760e+01	-6.663691e+00
2.345228e+01	-6.703097e+00
2.358774e+01	-6.742355e+00
2.372398e+01	-6.781980e+00
2.386101e+01	-6.821852e+00
2.399883e+01	-6.861327e+00
2.413745e+01	-6.900877e+00
2.427686e+01	-6.940759e+00
2.441709e+01	-6.980653e+00
2.455812e+01	-7.020773e+00
2.469997e+01	-7.060949e+00
2.484263e+01	-7.101327e+00
2.498612e+01	-7.141399e+00
2.513044e+01	-7.181985e+00
2.527559e+01	-7.222351e+00
2.542158e+01	-7.263041e+00
2.556842e+01	-7.303712e+00
2.571610e+01	-7.344686e+00
2.586463e+01	-7.385726e+00
2.601403e+01	-7.426434e+00
2.616428e+01	-7.467169e+00
2.631541e+01	-7.508301e+00
2.646740e+01	-7.549297e+00
2.662028e+01	-7.590928e+00
2.677404e+01	-7.632562e+00
2.692868e+01	-7.673457e+00
2.708422e+01	-7.715229e+00
2.724066e+01	-7.756712e+00
2.739800e+01	-7.799169e+00
2.755625e+01	-7.840630e+00
2.771541e+01	-7.882372e+00
2.787550e+01	-7.924116e+00
2.803650e+01	-7.965867e+00
2.819844e+01	-8.007960e+00
2.836131e+01	-8.050353e+00
2.852513e+01	-8.092335e+00
2.868989e+01	-8.134654e+00
2.885560e+01	-8.177308e+00
2.902227e+01	-8.219448e+00
2.918990e+01	-8.261625e+00
2.935850e+01	-8.304741e+00
2.952807e+01	-8.347246e+00
2.969863e+01	-8.390366e+00
2.987016e+01	-8.432484e+00
3.004269e+01	-8.475899e+00
3.021622e+01	-8.518854e+00
3.039075e+01	-8.561826e+00
3.056628e+01	-8.604580e+00
3.074283e+01	-8.648189e+00
3.092040e+01	-8.691264e+00
3.109900e+01	-8.734557e+00
3.127862e+01	-8.778255e+00
3.145929e+01	-8.821709e+00
3.164099e+01	-8.864944e+00
3.182375e+01	-8.908219e+00
3.200756e+01	-8.952180e+00
3.219244e+01	-8.995212e+00
3.237838e+01	-9.039538e+00
3.256540e+01	-9.083178e+00
3.275349e+01	-9.127547e+00
3.294268e+01	-9.171328e+00
3.313295e+01	-9.215121e+00
3.332433e+01	-9.259471e+00
3.351681e+01	-9.303795e+00
3.371040e+01	-9.347631e+00
3.390511e+01	-9.391899e+00
3.410094e+01	-9.436023e+00
3.429791e+01	-9.480590e+00
3.449601e+01	-9.525100e+00
3.469526e+01	-9.569691e+00
3.489566e+01	-9.614105e+00
3.509721e+01	-9.658613e+00
3.529993e+01	-9.703181e+00
3.550382e+01	-9.747624e+00
3.570889e+01	-9.792140e+00
3.591515e+01	-9.837394e+00
3.612259e+01	-9.882258e+00
3.633123e+01	-9.927181e+00
3.654108e+01	-9.971959e+00
3.675214e+01	-1.001734e+01
3.696442e+01	-1.006259e+01
3.717792e+01	-1.010751e+01
3.739266e+01	-1.015238e+01
3.760864e+01	-1.019718e+01
3.782587e+01	-1.024300e+01
3.804435e+01	-1.028836e+01
3.826409e+01	-1.033346e+01
3.848510e+01	-1.037911e+01
3.870739e+01	-1.042480e+01
3.893096e+01	-1.047019e+01
3.915583e+01	-1.051598e+01
3.938199e+01	-1.056081e+01
3.960946e+01	-1.060697e+01
3.983824e+01	-1.065260e+01
4.006834e+01	-1.069803e+01
4.029978e+01	-1.074394e+01
4.053255e+01	-1.079006e+01
4.076666e+01	-1.083608e+01
4.100213e+01	-1.088211e+01
4.123896e+01	-1.092780e+01
4.147715e+01	-1.097381e+01
4.171672e+01	-1.101960e+01
4.195767e+01	-1.106609e+01
4.220002e+01	-1.111183e+01
4.244377e+01	-1.115845e+01
4.268892e+01	-1.120399e+01
4.293549e+01	-1.125060e+01
4.318348e+01	-1.129756e+01
4.343291e+01	-1.134330e+01
4.368377e+01	-1.138956e+01
4.393609e+01	-1.143674e+01
4.418986e+01	-1.148200e+01
4.444510e+01	-1.152892e+01
4.470182e+01	-1.157553e+01
4.496001e+01	-1.162201e+01
4.521970e+01	-1.166886e+01
4.548089e+01	-1.171491e+01
4.574358e+01	-1.176143e+01
4.600779e+01	-1.180793e+01
4.627353e+01	-1.185533e+01
4.654081e+01	-1.190211e+01
4.680963e+01	-1.194935e+01
4.708000e+01	-1.199587e+01
4.735193e+01	-1.204282e+01
4.762543e+01	-1.208932e+01
4.790051e+01	-1.213631e+01
4.817719e+01	-1.218403e+01
4.845545e+01	-1.223056e+01
4.873533e+01	-1.227711e+01
4.901682e+01	-1.232475e+01
4.929994e+01	-1.237199e+01
4.958470e+01	-1.241964e+01
4.987110e+01	-1.246590e+01
5.015915e+01	-1.251360e+01
5.044887e+01	-1.256059e+01
5.074026e+01	-1.260716e+01
5.103333e+01	-1.265530e+01
5.132810e+01	-1.270277e+01
5.162457e+01	-1.274942e+01
5.192275e+01	-1.279821e+01
5.222265e+01	-1.284469e+01
5.252429e+01	-1.289191e+01
5.282767e+01	-1.293919e+01
5.313280e+01	-1.298737e+01
5.343969e+01	-1.303478e+01
5.374836e+01	-1.308237e+01
5.405880e+01	-1.312952e+01
5.437105e+01	-1.317770e+01
5.468509e+01	-1.322554e+01
5.500095e+01	-1.327231e+01
5.531863e+01	-1.331975e+01
5.563815e+01	-1.336791e+01
5.595951e+01	-1.341625e+01
5.628273e+01	-1.346422e+01
5.660782e+01	-1.351143e+01
5.693479e+01	-1.355978e+01
5.726364e+01	-1.360759e+01
5.759439e+01	-1.365531e+01
5.792705e+01	-1.370219e+01
5.826164e+01	-1.375048e+01
5.859815e+01	-1.379870e+01
5.893662e+01	-1.384705e+01
5.927703e+01	-1.389519e+01
5.961941e+01	-1.394251e+01
5.996377e+01	-1.399118e+01
6.031012e+01	-1.403917e+01
6.065847e+01	-1.408666e+01
6.100883e+01	-1.413539e+01
6.136121e+01	-1.418333e+01
6.171563e+01	-1.423135e+01
6.207210e+01	-1.427896e+01
6.243063e+01	-1.432810e+01
6.279122e+01	-1.437611e+01
6.315390e+01	-1.442314e+01
6.351868e+01	-1.447155e+01
6.388556e+01	-1.452016e+01
6.425456e+01	-1.456767e+01
6.462569e+01	-1.461668e+01
6.499897e+01	-1.466497e+01
6.537440e+01	-1.471312e+01
6.575200e+01	-1.476107e+01
6.613178e+01	-1.481003e+01
6.651375e+01	-1.485881e+01
6.689793e+01	-1.490723e+01
6.728433e+01	-1.495524e+01
6.767297e+01	-1.500347e+01
6.806384e+01	-1.505215e+01
6.845698e+01	-1.510045e+01
6.885238e+01	-1.514984e+01
6.925007e+01	-1.519738e+01
6.965005e+01	-1.524614e+01
7.005235e+01	-1.529474e+01
7.045697e+01	-1.534267e+01
7.086393e+01	-1.539122e+01
7.127323e+01	-1.544087e+01
7.168490e+01	-1.548892e+01
7.209895e+01	-1.553790e+01
7.251539e+01	-1.558625e+01
7.293424e+01	-1.563439e+01
7.335551e+01	-1.568256e+01
7.377920e+01	-1.573151e+01
7.420535e+01	-1.578046e+01
7.463396e+01	-1.582999e+01
7.506504e+01	-1.587821e+01
7.549861e+01	-1.592714e+01
7.593469e+01	-1.597538e+01
7.637328e+01	-1.602481e+01
7.681441e+01	-1.607439e+01
7.725809e+01	-1.612173e+01
7.770433e+01	-1.617128e+01
7.815315e+01	-1.622066e+01
7.860456e+01	-1.626951e+01
7.905857e+01	-1.631762e+01
7.951521e+01	-1.636722e+01
7.997449e+01	-1.641546e+01
8.043642e+01	-1.646492e+01
8.090102e+01	-1.651249e+01
8.136830e+01	-1.656235e+01
8.183828e+01	-1.661075e+01
8.231097e+01	-1.666066e+01
8.278640e+01	-1.671051e+01
8.326457e+01	-1.675681e+01
8.374550e+01	-1.680629e+01
8.422921e+01	-1.685636e+01
8.471572e+01	-1.690525e+01
8.520503e+01	-1.695327e+01
8.569717e+01	-1.700347e+01
8.619215e+01	-1.705221e+01
8.669000e+01	-1.710126e+01
8.719071e+01	-1.715021e+01
8.769432e+01	-1.719967e+01
8.820084e+01	-1.724783e+01
8.871029e+01	-1.729711e+01
8.922267e+01	-1.734696e+01
8.973802e+01	-1.739683e+01
9.025634e+01	-1.744331e+01
9.077766e+01	-1.749490e+01
9.130199e+01	-1.754302e+01
9.182935e+01	-1.759206e+01
9.235975e+01	-1.764106e+01
9.289321e+01	-1.769027e+01
9.342976e+01	-1.774026e+01
9.396941e+01	-1.778831e+01
9.451217e+01	-1.783704e+01
9.505807e+01	-1.788686e+01
9.560712e+01	-1.793582e+01
9.615934e+01	-1.798489e+01
9.671476e+01	-1.803582e+01
9.727338e+01	-1.808435e+01
9.783522e+01	-1.813435e+01
9.840032e+01	-1.818295e+01
9.896867e+01	-1.823129e+01
9.954031e+01	-1.828110e+01
1.001153e+02	-1.833117e+01
1.006935e+02	-1.838020e+01
1.012751e+02	-1.843111e+01
1.018601e+02	-1.847909e+01
1.024484e+02	-1.852827e+01
1.030402e+02	-1.857780e+01
1.036353e+02	-1.862651e+01
1.042339e+02	-1.867682e+01
1.048360e+02	-1.872697e+01
1.054415e+02	-1.877686e+01
1.060505e+02	-1.882402e+01
1.066631e+02	-1.887305e+01
1.072791e+02	-1.892251e+01
1.078988e+02	-1.897146e+01
1.085220e+02	-1.902295e+01
1.091488e+02	-1.907081e+01
1.097793e+02	-1.912204e+01
1.104133e+02	-1.917050e+01
1.110511e+02	-1.922015e+01
1.116925e+02	-1.926649e+01
1.123376e+02	-1.931841e+01
1.129865e+02	-1.936943e+01
1.136391e+02	-1.941693e+01
1.142955e+02	-1.946727e+01
1.149556e+02	-1.951685e+01
1.156196e+02	-1.956591e+01
1.162874e+02	-1.961428e+01
1.169591e+02	-1.966397e+01
1.176347e+02	-1.971346e+01
1.183141e+02	-1.976454e+01
1.189975e+02	-1.981387e+01
1.196848e+02	-1.986102e+01
1.203761e+02	-1.991072e+01
1.210714e+02	-1.996202e+01
1.217707e+02	-2.000946e+01
1.224740e+02	-2.005899e+01
1.231814e+02	-2.011006e+01
1.238929e+02	-2.015954e+01
1.246085e+02	-2.020885e+01
1.253283e+02	-2.025920e+01
1.260522e+02	-2.030809e+01
1.267802e+02	-2.035795e+01
1.275125e+02	-2.040753e+01
1.282490e+02	-2.045707e+01
1.289898e+02	-2.050786e+01
1.297348e+02	-2.055771e+01
1.304842e+02	-2.060532e+01
1.312378e+02	-2.065454e+01
1.319959e+02	-2.070619e+01
1.327583e+02	-2.075414e+01
1.335251e+02	-2.080455e+01
1.342963e+02	-2.085463e+01
1.350720e+02	-2.090301e+01
1.358522e+02	-2.095498e+01
1.366368e+02	-2.100320e+01
1.374260e+02	-2.105162e+01
1.382198e+02	-2.110219e+01
1.390182e+02	-2.115230e+01
1.398211e+02	-2.120232e+01
1.406287e+02	-2.125258e+01
1.414410e+02	-2.130011e+01
1.422579e+02	-2.134999e+01
1.430796e+02	-2.139795e+01
1.439060e+02	-2.144921e+01
1.447372e+02	-2.149930e+01
1.455732e+02	-2.154886e+01
1.464141e+02	-2.159918e+01
1.472597e+02	-2.164650e+01
1.481103e+02	-2.169985e+01
1.489658e+02	-2.174832e+01
1.498262e+02	-2.179799e+01
1.506916e+02	-2.184797e+01
1.515620e+02	-2.189578e+01
1.524374e+02	-2.194502e+01
1.533179e+02	-2.199753e+01
1.542034e+02	-2.204674e+01
1.550941e+02	-2.209756e+01
1.559899e+02	-2.214790e+01
1.568909e+02	-2.219454e+01
1.577971e+02	-2.224556e+01
1.587085e+02	-2.229563e+01
1.596252e+02	-2.234329e+01
1.605472e+02	-2.239409e+01
1.614745e+02	-2.244397e+01
1.624072e+02	-2.249407e+01
1.633453e+02	-2.254555e+01
1.642887e+02	-2.259272e+01
1.652377e+02	-2.264335e+01
1.661921e+02	-2.269291e+01
1.671520e+02	-2.274249e+01
1.681175e+02	-2.279130e+01
1.690885e+02	-2.284217e+01
1.700651e+02	-2.289408e+01
1.710474e+02	-2.294060e+01
1.720354e+02	-2.299044e+01
1.730291e+02	-2.304238e+01
1.740285e+02	-2.309059e+01
1.750337e+02	-2.314265e+01
1.760446e+02	-2.318966e+01
1.770615e+02	-2.323939e+01
1.780842e+02	-2.328802e+01
1.791128e+02	-2.334393e+01
1.801473e+02	-2.338945e+01
1.811878e+02	-2.344005e+01
1.822344e+02	-2.348958e+01
1.832870e+02	-2.353868e+01
1.843456e+02	-2.359046e+01
1.854104e+02	-2.364020e+01
1.864813e+02	-2.368892e+01
1.875584e+02	-2.373621e+01
1.886418e+02	-2.378930e+01
1.897313e+02	-2.383989e+01
1.908272e+02	-2.388798e+01
1.919294e+02	-2.394043e+01
1.930380e+02	-2.398859e+01
1.941530e+02	-2.403818e+01
1.952744e+02	-2.408706e+01
1.964023e+02	-2.413783e+01
1.975367e+02	-2.418936e+01
1.986777e+02	-2.423811e+01
1.998252e+02	-2.428874e+01
2.009794e+02	-2.433729e+01
2.021403e+02	-2.438753e+01
2.033078e+02	-2.443852e+01
2.044821e+02	-2.448935e+01
2.056632e+02	-2.453600e+01
2.068511e+02	-2.458856e+01
2.080459e+02	-2.464171e+01
2.092475e+02	-2.468942e+01
2.104561e+02	-2.474019e+01
2.116717e+02	-2.478644e+01
2.128943e+02	-2.483889e+01
2.141240e+02	-2.488570e+01
2.153608e+02	-2.493440e+01
2.166047e+02	-2.498739e+01
2.178558e+02	-2.503479e+01
2.191141e+02	-2.508618e+01
2.203797e+02	-2.513517e+01
2.216526e+02	-2.518463e+01
2.229329e+02	-2.523486e+01
2.242205e+02	-2.528852e+01
2.255156e+02	-2.533357e+01
2.268182e+02	-2.538622e+01
2.281283e+02	-2.543543e+01
2.294459e+02	-2.548680e+01
2.307712e+02	-2.553575e+01
2.321041e+02	-2.558198e+01
2.334447e+02	-2.563604e+01
2.347931e+02	-2.568680e+01
2.361493e+02	-2.573550e+01
2.375133e+02	-2.578288e+01
2.388851e+02	-2.583193e+01
2.402649e+02	-2.588316e+01
2.416527e+02	-2.593220e+01
2.430484e+02	-2.598485e+01
2.444523e+02	-2.603748e+01
2.458642e+02	-2.608413e+01
2.472843e+02	-2.613285e+01
2.487126e+02	-2.618737e+01
2.501492e+02	-2.623242e+01
2.515940e+02	-2.628387e+01
2.530472e+02	-2.633631e+01
2.545088e+02	-2.638604e+01
2.559789e+02	-2.643382e+01
2.574574e+02	-2.647948e+01
2.589444e+02	-2.653325e+01
2.604401e+02	-2.658068e+01
2.619444e+02	-2.663567e+01
2.634574e+02	-2.668397e+01
2.649791e+02	-2.673454e+01
2.665096e+02	-2.678457e+01
2.680489e+02	-2.683821e+01
2.695972e+02	-2.688585e+01
2.711544e+02	-2.693282e+01
2.727205e+02	-2.698372e+01
2.742958e+02	-2.703311e+01
2.758801e+02	-2.708078e+01
2.774736e+02	-2.713493e+01
2.790762e+02	-2.718398e+01
2.806882e+02	-2.723215e+01
2.823094e+02	-2.728345e+01
2.839400e+02	-2.733581e+01
2.855800e+02	-2.738516e+01
2.872295e+02	-2.743713e+01
2.888886e+02	-2.748381e+01
2.905572e+02	-2.753328e+01
2.922354e+02	-2.758305e+01
2.939234e+02	-2.763160e+01
2.956211e+02	-2.768614e+01
2.973286e+02	-2.773321e+01
2.990459e+02	-2.778593e+01
3.007732e+02	-2.783383e+01
3.025104e+02	-2.788557e+01
3.042577e+02	-2.793415e+01
3.060151e+02	-2.798586e+01
3.077826e+02	-2.803437e+01
3.095604e+02	-2.808272e+01
3.113484e+02	-2.813048e+01
3.131467e+02	-2.818541e+01
3.149554e+02	-2.823412e+01
3.167746e+02	-2.827960e+01
3.186043e+02	-2.833225e+01
3.204445e+02	-2.838407e+01
3.222954e+02	-2.843312e+01
3.241570e+02	-2.848905e+01
3.260293e+02	-2.853730e+01
3.279124e+02	-2.858402e+01
3.298064e+02	-2.863432e+01
3.317114e+02	-2.869075e+01
3.336273e+02	-2.873763e+01
3.355544e+02	-2.878109e+01
3.374925e+02	-2.883710e+01
3.394418e+02	-2.888327e+01
3.414024e+02	-2.893401e+01
3.433744e+02	-2.898368e+01
3.453577e+02	-2.903204e+01
3.473525e+02	-2.908943e+01
3.493588e+02	-2.913679e+01
3.513766e+02	-2.918592e+01
3.534062e+02	-2.923733e+01
3.554474e+02	-2.929034e+01
3.575005e+02	-2.933382e+01
3.595654e+02	-2.938733e+01
3.616422e+02	-2.944124e+01
3.637311e+02	-2.948472e+01
3.658320e+02	-2.953160e+01
3.679450e+02	-2.959229e+01
3.700702e+02	-2.963727e+01
3.722077e+02	-2.968959e+01
3.743576e+02	-2.973750e+01
3.765199e+02	-2.978791e+01
3.786946e+02	-2.983413e+01
3.808820e+02	-2.988323e+01
3.830819e+02	-2.993379e+01
3.852946e+02	-2.998613e+01
3.875200e+02	-3.003646e+01
3.897583e+02	-3.008967e+01
3.920096e+02	-3.013986e+01
3.942738e+02	-3.018370e+01
3.965511e+02	-3.023546e+01
3.988416e+02	-3.028626e+01
4.011452e+02	-3.033644e+01
4.034622e+02	-3.038353e+01
4.057926e+02	-3.043702e+01
4.081365e+02	-3.048662e+01
4.104938e+02	-3.053747e+01
4.128648e+02	-3.059701e+01
4.152495e+02	-3.063595e+01
4.176480e+02	-3.068796e+01
4.200603e+02	-3.074171e+01
4.224866e+02	-3.078688e+01
4.249268e+02	-3.083593e+01
4.273812e+02	-3.088957e+01
4.298497e+02	-3.094276e+01
4.323325e+02	-3.098704e+01
4.348297e+02	-3.104651e+01
4.373412e+02	-3.109226e+01
4.398673e+02	-3.113725e+01
4.424079e+02	-3.118910e+01
4.449633e+02	-3.124202e+01
4.475334e+02	-3.129037e+01
4.501183e+02	-3.134060e+01
4.527182e+02	-3.139484e+01
4.553330e+02	-3.143992e+01
4.579630e+02	-3.148906e+01
4.606082e+02	-3.154207e+01
4.632687e+02	-3.159215e+01
4.659445e+02	-3.164538e+01
4.686358e+02	-3.169347e+01
4.713426e+02	-3.174830e+01
4.740650e+02	-3.179435e+01
4.768032e+02	-3.184227e+01
4.795572e+02	-3.189136e+01
4.823271e+02	-3.194378e+01
4.851130e+02	-3.199519e+01
4.879150e+02	-3.204873e+01
4.907332e+02	-3.209492e+01
4.935676e+02	-3.214937e+01
4.964185e+02	-3.218921e+01
4.992858e+02	-3.224577e+01
5.021696e+02	-3.229432e+01
5.050701e+02	-3.234354e+01
5.079874e+02	-3.239961e+01
5.109215e+02	-3.244188e+01
5.138726e+02	-3.250026e+01
5.168407e+02	-3.254471e+01
5.198259e+02	-3.259396e+01
5.228284e+02	-3.264722e+01
5.258482e+02	-3.269439e+01
5.288855e+02	-3.275273e+01
5.319403e+02	-3.280203e+01
5.350128e+02	-3.285119e+01
5.381030e+02	-3.289569e+01
5.412111e+02	-3.294968e+01
5.443371e+02	-3.300304e+01
5.474812e+02	-3.304682e+01
5.506434e+02	-3.309145e+01
5.538239e+02	-3.314800e+01
5.570228e+02	-3.320006e+01
5.602401e+02	-3.325152e+01
5.634760e+02	-3.329834e+01
5.667306e+02	-3.335587e+01
5.700040e+02	-3.339705e+01
5.732964e+02	-3.344942e+01
5.766077e+02	-3.349997e+01
5.799382e+02	-3.354716e+01
5.832879e+02	-3.360007e+01
5.866569e+02	-3.365417e+01
5.900454e+02	-3.370044e+01
5.934535e+02	-3.375162e+01
5.968813e+02	-3.380002e+01
6.003288e+02	-3.384857e+01
6.037963e+02	-3.390650e+01
6.072838e+02	-3.395569e+01
6.107914e+02	-3.400219e+01
6.143194e+02	-3.404980e+01
6.178676e+02	-3.410652e+01
6.214364e+02	-3.415047e+01
6.250258e+02	-3.420241e+01
6.286359e+02	-3.425239e+01
6.322669e+02	-3.429840e+01
6.359189e+02	-3.435170e+01
6.395919e+02	-3.440781e+01
6.432862e+02	-3.445983e+01
6.470017e+02	-3.450958e+01
6.507388e+02	-3.455860e+01
6.544974e+02	-3.461468e+01
6.582778e+02	-3.465624e+01
6.620800e+02	-3.471017e+01
6.659041e+02	-3.475257e+01
6.697504e+02	-3.480518e+01
6.736188e+02	-3.486345e+01
6.775096e+02	-3.490645e+01
6.814229e+02	-3.495884e+01
6.853587e+02	-3.500794e+01
6.893173e+02	-3.505907e+01
6.932988e+02	-3.511552e+01
6.973033e+02	-3.515919e+01
7.013309e+02	-3.520869e+01
