Frequency(Hz)	Magnitude(dB)
1.000000e+01	-1.689519e-05
1.005776e+01	-1.709092e-05
1.011585e+01	-1.728893e-05
1.017428e+01	-1.748922e-05
1.023305e+01	-1.769184e-05
1.029215e+01	-1.789681e-05
1.035160e+01	-1.810414e-05
1.041139e+01	-1.831389e-05
1.047153e+01	-1.852606e-05
1.053201e+01	-1.874069e-05
1.059284e+01	-1.895780e-05
1.065403e+01	-1.917743e-05
1.071556e+01	-1.939961e-05
1.077746e+01	-1.962436e-05
1.083971e+01	-1.985171e-05
1.090232e+01	-2.008170e-05
1.096529e+01	-2.031435e-05
1.102862e+01	-2.054970e-05
1.109232e+01	-2.078777e-05
1.115639e+01	-2.102860e-05
1.122083e+01	-2.127222e-05
1.128564e+01	-2.151867e-05
1.135083e+01	-2.176797e-05
1.141639e+01	-2.202015e-05
1.148233e+01	-2.227526e-05
1.154865e+01	-2.253333e-05
1.161536e+01	-2.279438e-05
1.168245e+01	-2.305846e-05
1.174992e+01	-2.332560e-05
1.181779e+01	-2.359583e-05
1.188605e+01	-2.386919e-05
1.195470e+01	-2.414572e-05
1.202375e+01	-2.442546e-05
1.209320e+01	-2.470843e-05
1.216305e+01	-2.499469e-05
1.223330e+01	-2.528426e-05
1.230396e+01	-2.557718e-05
1.237503e+01	-2.587350e-05
1.244651e+01	-2.617325e-05
1.251840e+01	-2.647647e-05
1.259070e+01	-2.678321e-05
1.266343e+01	-2.709350e-05
1.273657e+01	-2.740738e-05
1.281014e+01	-2.772491e-05
1.288413e+01	-2.804611e-05
1.295855e+01	-2.837103e-05
1.303339e+01	-2.869971e-05
1.310867e+01	-2.903220e-05
1.318439e+01	-2.936855e-05
1.326054e+01	-2.970879e-05
1.333713e+01	-3.005297e-05
1.341417e+01	-3.040115e-05
1.349165e+01	-3.075335e-05
1.356958e+01	-3.110963e-05
1.364795e+01	-3.147005e-05
1.372678e+01	-3.183464e-05
1.380607e+01	-3.220345e-05
1.388581e+01	-3.257653e-05
1.396602e+01	-3.295394e-05
1.404668e+01	-3.333572e-05
1.412782e+01	-3.372192e-05
1.420942e+01	-3.411260e-05
1.429149e+01	-3.450780e-05
1.437404e+01	-3.490758e-05
1.445706e+01	-3.531199e-05
1.454057e+01	-3.572109e-05
1.462455e+01	-3.613493e-05
1.470902e+01	-3.655356e-05
1.479398e+01	-3.697704e-05
1.487943e+01	-3.740543e-05
1.496537e+01	-3.783878e-05
1.505181e+01	-3.827715e-05
1.513875e+01	-3.872060e-05
1.522619e+01	-3.916918e-05
1.531414e+01	-3.962297e-05
1.540259e+01	-4.008201e-05
1.549156e+01	-4.054637e-05
1.558103e+01	-4.101611e-05
1.567103e+01	-4.149129e-05
1.576155e+01	-4.197197e-05
1.585258e+01	-4.245823e-05
1.594415e+01	-4.295012e-05
1.603624e+01	-4.344770e-05
1.612886e+01	-4.395105e-05
1.622202e+01	-4.446024e-05
1.631572e+01	-4.497532e-05
1.640996e+01	-4.549637e-05
1.650474e+01	-4.602345e-05
1.660008e+01	-4.655665e-05
1.669596e+01	-4.709601e-05
1.679239e+01	-4.764163e-05
1.688938e+01	-4.819357e-05
1.698694e+01	-4.875190e-05
1.708505e+01	-4.931670e-05
1.718373e+01	-4.988805e-05
1.728299e+01	-5.046601e-05
1.738281e+01	-5.105067e-05
1.748322e+01	-5.164210e-05
1.758420e+01	-5.224039e-05
1.768576e+01	-5.284561e-05
1.778792e+01	-5.345783e-05
1.789066e+01	-5.407715e-05
1.799399e+01	-5.470365e-05
1.809793e+01	-5.533740e-05
1.820246e+01	-5.597850e-05
1.830760e+01	-5.662702e-05
1.841334e+01	-5.728305e-05
1.851969e+01	-5.794669e-05
1.862666e+01	-5.861801e-05
1.873425e+01	-5.929712e-05
1.884246e+01	-5.998408e-05
1.895129e+01	-6.067901e-05
1.906075e+01	-6.138199e-05
1.917085e+01	-6.209311e-05
1.928158e+01	-6.281247e-05
1.939295e+01	-6.354017e-05
1.950496e+01	-6.427629e-05
1.961762e+01	-6.502095e-05
1.973093e+01	-6.577423e-05
1.984490e+01	-6.653623e-05
1.995952e+01	-6.730707e-05
2.007480e+01	-6.808683e-05
2.019076e+01	-6.887563e-05
2.030738e+01	-6.967357e-05
2.042467e+01	-7.048075e-05
2.054264e+01	-7.129728e-05
2.066130e+01	-7.212328e-05
2.078064e+01	-7.295884e-05
2.090066e+01	-7.380408e-05
2.102139e+01	-7.465911e-05
2.114280e+01	-7.552405e-05
2.126492e+01	-7.639901e-05
2.138775e+01	-7.728411e-05
2.151128e+01	-7.817946e-05
2.163553e+01	-7.908518e-05
2.176050e+01	-8.000139e-05
2.188619e+01	-8.092822e-05
2.201260e+01	-8.186579e-05
2.213974e+01	-8.281422e-05
2.226762e+01	-8.377364e-05
2.239624e+01	-8.474417e-05
2.252560e+01	-8.572594e-05
2.265571e+01	-8.671909e-05
2.278656e+01	-8.772375e-05
2.291818e+01	-8.874004e-05
2.305055e+01	-8.976811e-05
2.318369e+01	-9.080809e-05
2.331760e+01	-9.186011e-05
2.345228e+01	-9.292433e-05
2.358774e+01	-9.400087e-05
2.372398e+01	-9.508988e-05
2.386101e+01	-9.619151e-05
2.399883e+01	-9.730591e-05
2.413745e+01	-9.843321e-05
2.427686e+01	-9.957357e-05
2.441709e+01	-1.007271e-04
2.455812e+01	-1.018941e-04
2.469997e+01	-1.030745e-04
2.484263e+01	-1.042687e-04
2.498612e+01	-1.054766e-04
2.513044e+01	-1.066986e-04
2.527559e+01	-1.079347e-04
2.542158e+01	-1.091852e-04
2.556842e+01	-1.104501e-04
2.571610e+01	-1.117297e-04
2.586463e+01	-1.130241e-04
2.601403e+01	-1.143335e-04
2.616428e+01	-1.156580e-04
2.631541e+01	-1.169979e-04
2.646740e+01	-1.183534e-04
2.662028e+01	-1.197245e-04
2.677404e+01	-1.211115e-04
2.692868e+01	-1.225146e-04
2.708422e+01	-1.239340e-04
2.724066e+01	-1.253698e-04
2.739800e+01	-1.268222e-04
2.755625e+01	-1.282914e-04
2.771541e+01	-1.297777e-04
2.787550e+01	-1.312812e-04
2.803650e+01	-1.328021e-04
2.819844e+01	-1.343406e-04
2.836131e+01	-1.358970e-04
2.852513e+01	-1.374714e-04
2.868989e+01	-1.390640e-04
2.885560e+01	-1.406750e-04
2.902227e+01	-1.423048e-04
2.918990e+01	-1.439534e-04
2.935850e+01	-1.456211e-04
2.952807e+01	-1.473081e-04
2.969863e+01	-1.490147e-04
2.987016e+01	-1.507411e-04
3.004269e+01	-1.524874e-04
3.021622e+01	-1.542540e-04
3.039075e+01	-1.560410e-04
3.056628e+01	-1.578488e-04
3.074283e+01	-1.596775e-04
3.092040e+01	-1.615273e-04
3.109900e+01	-1.633986e-04
3.127862e+01	-1.652916e-04
3.145929e+01	-1.672065e-04
3.164099e+01	-1.691436e-04
3.182375e+01	-1.711032e-04
3.200756e+01	-1.730854e-04
3.219244e+01	-1.750906e-04
3.237838e+01	-1.771190e-04
3.256540e+01	-1.791710e-04
3.275349e+01	-1.812467e-04
3.294268e+01	-1.833464e-04
3.313295e+01	-1.854705e-04
3.332433e+01	-1.876192e-04
3.351681e+01	-1.897928e-04
3.371040e+01	-1.919915e-04
3.390511e+01	-1.942157e-04
3.410094e+01	-1.964657e-04
3.429791e+01	-1.987418e-04
3.449601e+01	-2.010442e-04
3.469526e+01	-2.033733e-04
3.489566e+01	-2.057294e-04
3.509721e+01	-2.081128e-04
3.529993e+01	-2.105238e-04
3.550382e+01	-2.129627e-04
3.570889e+01	-2.154298e-04
3.591515e+01	-2.179256e-04
3.612259e+01	-2.204503e-04
3.633123e+01	-2.230042e-04
3.654108e+01	-2.255877e-04
3.675214e+01	-2.282011e-04
3.696442e+01	-2.308448e-04
3.717792e+01	-2.335191e-04
3.739266e+01	-2.362244e-04
3.760864e+01	-2.389611e-04
3.782587e+01	-2.417294e-04
3.804435e+01	-2.445299e-04
3.826409e+01	-2.473627e-04
3.848510e+01	-2.502284e-04
3.870739e+01	-2.531273e-04
3.893096e+01	-2.560598e-04
3.915583e+01	-2.590262e-04
3.938199e+01	-2.620270e-04
3.960946e+01	-2.650626e-04
3.983824e+01	-2.681333e-04
4.006834e+01	-2.712396e-04
4.029978e+01	-2.743819e-04
4.053255e+01	-2.775606e-04
4.076666e+01	-2.807761e-04
4.100213e+01	-2.840288e-04
4.123896e+01	-2.873193e-04
4.147715e+01	-2.906478e-04
4.171672e+01	-2.940150e-04
4.195767e+01	-2.974211e-04
4.220002e+01	-3.008667e-04
4.244377e+01	-3.043522e-04
4.268892e+01	-3.078781e-04
4.293549e+01	-3.114448e-04
4.318348e+01	-3.150528e-04
4.343291e+01	-3.187027e-04
4.368377e+01	-3.223948e-04
4.393609e+01	-3.261297e-04
4.418986e+01	-3.299078e-04
4.444510e+01	-3.337298e-04
4.470182e+01	-3.375960e-04
4.496001e+01	-3.415070e-04
4.521970e+01	-3.454633e-04
4.548089e+01	-3.494654e-04
4.574358e+01	-3.535139e-04
4.600779e+01	-3.576093e-04
4.627353e+01	-3.617521e-04
4.654081e+01	-3.659429e-04
4.680963e+01	-3.701823e-04
4.708000e+01	-3.744708e-04
4.735193e+01	-3.788089e-04
4.762543e+01	-3.831973e-04
4.790051e+01	-3.876366e-04
4.817719e+01	-3.921273e-04
4.845545e+01	-3.966700e-04
4.873533e+01	-4.012653e-04
4.901682e+01	-4.059138e-04
4.929994e+01	-4.106162e-04
4.958470e+01	-4.153731e-04
4.987110e+01	-4.201851e-04
5.015915e+01	-4.250528e-04
5.044887e+01	-4.299769e-04
5.074026e+01	-4.349581e-04
5.103333e+01	-4.399969e-04
5.132810e+01	-4.450942e-04
5.162457e+01	-4.502504e-04
5.192275e+01	-4.554664e-04
5.222265e+01	-4.607428e-04
5.252429e+01	-4.660804e-04
5.282767e+01	-4.714798e-04
5.313280e+01	-4.769417e-04
5.343969e+01	-4.824669e-04
5.374836e+01	-4.880561e-04
5.405880e+01	-4.937100e-04
5.437105e+01	-4.994295e-04
5.468509e+01	-5.052152e-04
5.500095e+01	-5.110679e-04
5.531863e+01	-5.169884e-04
5.563815e+01	-5.229775e-04
5.595951e+01	-5.290360e-04
5.628273e+01	-5.351646e-04
5.660782e+01	-5.413642e-04
5.693479e+01	-5.476357e-04
5.726364e+01	-5.539798e-04
5.759439e+01	-5.603974e-04
5.792705e+01	-5.668893e-04
5.826164e+01	-5.734565e-04
5.859815e+01	-5.800997e-04
5.893662e+01	-5.868198e-04
5.927703e+01	-5.936178e-04
5.961941e+01	-6.004946e-04
5.996377e+01	-6.074510e-04
6.031012e+01	-6.144880e-04
6.065847e+01	-6.216065e-04
6.100883e+01	-6.288075e-04
6.136121e+01	-6.360918e-04
6.171563e+01	-6.434606e-04
6.207210e+01	-6.509147e-04
6.243063e+01	-6.584552e-04
6.279122e+01	-6.660830e-04
6.315390e+01	-6.737991e-04
6.351868e+01	-6.816046e-04
6.388556e+01	-6.895006e-04
6.425456e+01	-6.974880e-04
6.462569e+01	-7.055679e-04
6.499897e+01	-7.137415e-04
6.537440e+01	-7.220097e-04
6.575200e+01	-7.303737e-04
6.613178e+01	-7.388345e-04
6.651375e+01	-7.473934e-04
6.689793e+01	-7.560514e-04
6.728433e+01	-7.648097e-04
6.767297e+01	-7.736694e-04
6.806384e+01	-7.826318e-04
6.845698e+01	-7.916980e-04
6.885238e+01	-8.008691e-04
6.925007e+01	-8.101466e-04
6.965005e+01	-8.195315e-04
7.005235e+01	-8.290250e-04
7.045697e+01	-8.386286e-04
7.086393e+01	-8.483434e-04
7.127323e+01	-8.581707e-04
7.168490e+01	-8.681119e-04
7.209895e+01	-8.781682e-04
7.251539e+01	-8.883409e-04
7.293424e+01	-8.986315e-04
7.335551e+01	-9.090413e-04
7.377920e+01	-9.195717e-04
7.420535e+01	-9.302241e-04
7.463396e+01	-9.409998e-04
7.506504e+01	-9.519004e-04
7.549861e+01	-9.629272e-04
7.593469e+01	-9.740817e-04
7.637328e+01	-9.853654e-04
7.681441e+01	-9.967798e-04
7.725809e+01	-1.008326e-03
7.770433e+01	-1.020007e-03
7.815315e+01	-1.031822e-03
7.860456e+01	-1.043775e-03
7.905857e+01	-1.055866e-03
7.951521e+01	-1.068097e-03
7.997449e+01	-1.080470e-03
8.043642e+01	-1.092986e-03
8.090102e+01	-1.105646e-03
8.136830e+01	-1.118454e-03
8.183828e+01	-1.131410e-03
8.231097e+01	-1.144516e-03
8.278640e+01	-1.157774e-03
8.326457e+01	-1.171185e-03
8.374550e+01	-1.184752e-03
8.422921e+01	-1.198475e-03
8.471572e+01	-1.212358e-03
8.520503e+01	-1.226402e-03
8.569717e+01	-1.240608e-03
8.619215e+01	-1.254978e-03
8.669000e+01	-1.269516e-03
8.719071e+01	-1.284221e-03
8.769432e+01	-1.299097e-03
8.820084e+01	-1.314145e-03
8.871029e+01	-1.329367e-03
8.922267e+01	-1.344766e-03
8.973802e+01	-1.360343e-03
9.025634e+01	-1.376101e-03
9.077766e+01	-1.392041e-03
9.130199e+01	-1.408165e-03
9.182935e+01	-1.424476e-03
9.235975e+01	-1.440977e-03
9.289321e+01	-1.457668e-03
9.342976e+01	-1.474553e-03
9.396941e+01	-1.491633e-03
9.451217e+01	-1.508911e-03
9.505807e+01	-1.526389e-03
9.560712e+01	-1.544069e-03
9.615934e+01	-1.561954e-03
9.671476e+01	-1.580047e-03
9.727338e+01	-1.598349e-03
9.783522e+01	-1.616863e-03
9.840032e+01	-1.635591e-03
9.896867e+01	-1.654536e-03
9.954031e+01	-1.673701e-03
1.001153e+02	-1.693087e-03
1.006935e+02	-1.712698e-03
1.012751e+02	-1.732536e-03
1.018601e+02	-1.752604e-03
1.024484e+02	-1.772904e-03
1.030402e+02	-1.793440e-03
1.036353e+02	-1.814213e-03
1.042339e+02	-1.835226e-03
1.048360e+02	-1.856483e-03
1.054415e+02	-1.877987e-03
1.060505e+02	-1.899739e-03
1.066631e+02	-1.921743e-03
1.072791e+02	-1.944002e-03
1.078988e+02	-1.966519e-03
1.085220e+02	-1.989296e-03
1.091488e+02	-2.012337e-03
1.097793e+02	-2.035645e-03
1.104133e+02	-2.059223e-03
1.110511e+02	-2.083074e-03
1.116925e+02	-2.107201e-03
1.123376e+02	-2.131608e-03
1.129865e+02	-2.156297e-03
1.136391e+02	-2.181272e-03
1.142955e+02	-2.206536e-03
1.149556e+02	-2.232093e-03
1.156196e+02	-2.257945e-03
1.162874e+02	-2.284097e-03
1.169591e+02	-2.310552e-03
1.176347e+02	-2.337313e-03
1.183141e+02	-2.364384e-03
1.189975e+02	-2.391769e-03
1.196848e+02	-2.419470e-03
1.203761e+02	-2.447493e-03
1.210714e+02	-2.475839e-03
1.217707e+02	-2.504514e-03
1.224740e+02	-2.533521e-03
1.231814e+02	-2.562864e-03
1.238929e+02	-2.592547e-03
1.246085e+02	-2.622573e-03
1.253283e+02	-2.652947e-03
1.260522e+02	-2.683673e-03
1.267802e+02	-2.714754e-03
1.275125e+02	-2.746195e-03
1.282490e+02	-2.778000e-03
1.289898e+02	-2.810174e-03
1.297348e+02	-2.842720e-03
1.304842e+02	-2.875642e-03
1.312378e+02	-2.908946e-03
1.319959e+02	-2.942636e-03
1.327583e+02	-2.976715e-03
1.335251e+02	-3.011189e-03
1.342963e+02	-3.046063e-03
1.350720e+02	-3.081339e-03
1.358522e+02	-3.117025e-03
1.366368e+02	-3.153123e-03
1.374260e+02	-3.189639e-03
1.382198e+02	-3.226579e-03
1.390182e+02	-3.263945e-03
1.398211e+02	-3.301744e-03
1.406287e+02	-3.339981e-03
1.414410e+02	-3.378661e-03
1.422579e+02	-3.417788e-03
1.430796e+02	-3.457368e-03
1.439060e+02	-3.497407e-03
1.447372e+02	-3.537908e-03
1.455732e+02	-3.578879e-03
1.464141e+02	-3.620324e-03
1.472597e+02	-3.662249e-03
1.481103e+02	-3.704659e-03
1.489658e+02	-3.747560e-03
1.498262e+02	-3.790957e-03
1.506916e+02	-3.834857e-03
1.515620e+02	-3.879265e-03
1.524374e+02	-3.924187e-03
1.533179e+02	-3.969629e-03
1.542034e+02	-4.015597e-03
1.550941e+02	-4.062097e-03
1.559899e+02	-4.109135e-03
1.568909e+02	-4.156717e-03
1.577971e+02	-4.204851e-03
1.587085e+02	-4.253541e-03
1.596252e+02	-4.302795e-03
1.605472e+02	-4.352619e-03
1.614745e+02	-4.403020e-03
1.624072e+02	-4.454003e-03
1.633453e+02	-4.505577e-03
1.642887e+02	-4.557748e-03
1.652377e+02	-4.610523e-03
1.661921e+02	-4.663908e-03
1.671520e+02	-4.717911e-03
1.681175e+02	-4.772540e-03
1.690885e+02	-4.827800e-03
1.700651e+02	-4.883700e-03
1.710474e+02	-4.940246e-03
1.720354e+02	-4.997447e-03
1.730291e+02	-5.055310e-03
1.740285e+02	-5.113843e-03
1.750337e+02	-5.173053e-03
1.760446e+02	-5.232948e-03
1.770615e+02	-5.293536e-03
1.780842e+02	-5.354825e-03
1.791128e+02	-5.416823e-03
1.801473e+02	-5.479539e-03
1.811878e+02	-5.542980e-03
1.822344e+02	-5.607155e-03
1.832870e+02	-5.672073e-03
1.843456e+02	-5.737742e-03
1.854104e+02	-5.804171e-03
1.864813e+02	-5.871368e-03
1.875584e+02	-5.939343e-03
1.886418e+02	-6.008104e-03
1.897313e+02	-6.077660e-03
1.908272e+02	-6.148022e-03
1.919294e+02	-6.219197e-03
1.930380e+02	-6.291196e-03
1.941530e+02	-6.364027e-03
1.952744e+02	-6.437701e-03
1.964023e+02	-6.512228e-03
1.975367e+02	-6.587616e-03
1.986777e+02	-6.663877e-03
1.998252e+02	-6.741019e-03
2.009794e+02	-6.819054e-03
2.021403e+02	-6.897992e-03
2.033078e+02	-6.977843e-03
2.044821e+02	-7.058617e-03
2.056632e+02	-7.140325e-03
2.068511e+02	-7.222979e-03
2.080459e+02	-7.306588e-03
2.092475e+02	-7.391165e-03
2.104561e+02	-7.476720e-03
2.116717e+02	-7.563264e-03
2.128943e+02	-7.650809e-03
2.141240e+02	-7.739366e-03
2.153608e+02	-7.828947e-03
2.166047e+02	-7.919565e-03
2.178558e+02	-8.011230e-03
2.191141e+02	-8.103956e-03
2.203797e+02	-8.197753e-03
2.216526e+02	-8.292635e-03
2.229329e+02	-8.388615e-03
2.242205e+02	-8.485704e-03
2.255156e+02	-8.583915e-03
2.268182e+02	-8.683262e-03
2.281283e+02	-8.783758e-03
2.294459e+02	-8.885416e-03
2.307712e+02	-8.988249e-03
2.321041e+02	-9.092271e-03
2.334447e+02	-9.197495e-03
2.347931e+02	-9.303936e-03
2.361493e+02	-9.411607e-03
2.375133e+02	-9.520523e-03
2.388851e+02	-9.630698e-03
2.402649e+02	-9.742147e-03
2.416527e+02	-9.854884e-03
2.430484e+02	-9.968924e-03
2.444523e+02	-1.008428e-02
2.458642e+02	-1.020097e-02
2.472843e+02	-1.031901e-02
2.487126e+02	-1.043842e-02
2.501492e+02	-1.055920e-02
2.515940e+02	-1.068138e-02
2.530472e+02	-1.080497e-02
2.545088e+02	-1.092999e-02
2.559789e+02	-1.105646e-02
2.574574e+02	-1.118439e-02
2.589444e+02	-1.131379e-02
2.604401e+02	-1.144469e-02
2.619444e+02	-1.157710e-02
2.634574e+02	-1.171105e-02
2.649791e+02	-1.184654e-02
2.665096e+02	-1.198359e-02
2.680489e+02	-1.212223e-02
2.695972e+02	-1.226247e-02
2.711544e+02	-1.240433e-02
2.727205e+02	-1.254783e-02
2.742958e+02	-1.269299e-02
2.758801e+02	-1.283982e-02
2.774736e+02	-1.298835e-02
2.790762e+02	-1.313859e-02
2.806882e+02	-1.329057e-02
2.823094e+02	-1.344431e-02
2.839400e+02	-1.359982e-02
2.855800e+02	-1.375713e-02
2.872295e+02	-1.391625e-02
2.888886e+02	-1.407721e-02
2.905572e+02	-1.424003e-02
2.922354e+02	-1.440473e-02
2.939234e+02	-1.457133e-02
2.956211e+02	-1.473986e-02
2.973286e+02	-1.491033e-02
2.990459e+02	-1.508277e-02
3.007732e+02	-1.525720e-02
3.025104e+02	-1.543364e-02
3.042577e+02	-1.561212e-02
3.060151e+02	-1.579266e-02
3.077826e+02	-1.597529e-02
3.095604e+02	-1.616002e-02
3.113484e+02	-1.634688e-02
3.131467e+02	-1.653590e-02
3.149554e+02	-1.672711e-02
3.167746e+02	-1.692052e-02
3.186043e+02	-1.711616e-02
3.204445e+02	-1.731406e-02
3.222954e+02	-1.751424e-02
3.241570e+02	-1.771673e-02
3.260293e+02	-1.792156e-02
3.279124e+02	-1.812875e-02
3.298064e+02	-1.833833e-02
3.317114e+02	-1.855033e-02
3.336273e+02	-1.876477e-02
3.355544e+02	-1.898169e-02
3.374925e+02	-1.920111e-02
3.394418e+02	-1.942306e-02
3.414024e+02	-1.964757e-02
3.433744e+02	-1.987467e-02
3.453577e+02	-2.010439e-02
3.473525e+02	-2.033676e-02
3.493588e+02	-2.057181e-02
3.513766e+02	-2.080956e-02
3.534062e+02	-2.105006e-02
3.554474e+02	-2.129333e-02
3.575005e+02	-2.153941e-02
3.595654e+02	-2.178832e-02
3.616422e+02	-2.204010e-02
3.637311e+02	-2.229478e-02
3.658320e+02	-2.255240e-02
3.679450e+02	-2.281299e-02
3.700702e+02	-2.307658e-02
3.722077e+02	-2.334320e-02
3.743576e+02	-2.361290e-02
3.765199e+02	-2.388571e-02
3.786946e+02	-2.416166e-02
3.808820e+02	-2.444079e-02
3.830819e+02	-2.472313e-02
3.852946e+02	-2.500873e-02
3.875200e+02	-2.529762e-02
3.897583e+02	-2.558983e-02
3.920096e+02	-2.588541e-02
3.942738e+02	-2.618439e-02
3.965511e+02	-2.648682e-02
3.988416e+02	-2.679272e-02
4.011452e+02	-2.710215e-02
4.034622e+02	-2.741514e-02
4.057926e+02	-2.773174e-02
4.081365e+02	-2.805198e-02
4.104938e+02	-2.837590e-02
4.128648e+02	-2.870356e-02
4.152495e+02	-2.903498e-02
4.176480e+02	-2.937022e-02
4.200603e+02	-2.970931e-02
4.224866e+02	-3.005231e-02
4.249268e+02	-3.039925e-02
4.273812e+02	-3.075018e-02
4.298497e+02	-3.110515e-02
4.323325e+02	-3.146420e-02
4.348297e+02	-3.182738e-02
4.373412e+02	-3.219474e-02
4.398673e+02	-3.256633e-02
4.424079e+02	-3.294218e-02
4.449633e+02	-3.332236e-02
4.475334e+02	-3.370690e-02
4.501183e+02	-3.409587e-02
4.527182e+02	-3.448931e-02
4.553330e+02	-3.488726e-02
4.579630e+02	-3.528980e-02
4.606082e+02	-3.569695e-02
4.632687e+02	-3.610879e-02
4.659445e+02	-3.652535e-02
4.686358e+02	-3.694671e-02
4.713426e+02	-3.737290e-02
4.740650e+02	-3.780398e-02
4.768032e+02	-3.824002e-02
4.795572e+02	-3.868106e-02
4.823271e+02	-3.912717e-02
4.851130e+02	-3.957840e-02
4.879150e+02	-4.003481e-02
4.907332e+02	-4.049645e-02
4.935676e+02	-4.096340e-02
4.964185e+02	-4.143570e-02
4.992858e+02	-4.191342e-02
5.021696e+02	-4.239663e-02
5.050701e+02	-4.288537e-02
5.079874e+02	-4.337972e-02
5.109215e+02	-4.387975e-02
5.138726e+02	-4.438550e-02
5.168407e+02	-4.489706e-02
5.198259e+02	-4.541448e-02
5.228284e+02	-4.593783e-02
5.258482e+02	-4.646718e-02
5.288855e+02	-4.700259e-02
5.319403e+02	-4.754414e-02
5.350128e+02	-4.809190e-02
5.381030e+02	-4.864593e-02
5.412111e+02	-4.920631e-02
5.443371e+02	-4.977311e-02
5.474812e+02	-5.034639e-02
5.506434e+02	-5.092624e-02
5.538239e+02	-5.151273e-02
5.570228e+02	-5.210594e-02
5.602401e+02	-5.270593e-02
5.634760e+02	-5.331279e-02
5.667306e+02	-5.392659e-02
5.700040e+02	-5.454742e-02
5.732964e+02	-5.517535e-02
5.766077e+02	-5.581046e-02
5.799382e+02	-5.645283e-02
5.832879e+02	-5.710254e-02
5.866569e+02	-5.775969e-02
5.900454e+02	-5.842435e-02
5.934535e+02	-5.909660e-02
5.968813e+02	-5.977653e-02
6.003288e+02	-6.046423e-02
6.037963e+02	-6.115979e-02
6.072838e+02	-6.186329e-02
6.107914e+02	-6.257483e-02
6.143194e+02	-6.329449e-02
6.178676e+02	-6.402237e-02
6.214364e+02	-6.475855e-02
6.250258e+02	-6.550313e-02
6.286359e+02	-6.625621e-02
6.322669e+02	-6.701789e-02
6.359189e+02	-6.778824e-02
6.395919e+02	-6.856739e-02
6.432862e+02	-6.935542e-02
6.470017e+02	-7.015243e-02
6.507388e+02	-7.095852e-02
6.544974e+02	-7.177380e-02
6.582778e+02	-7.259837e-02
6.620800e+02	-7.343233e-02
6.659041e+02	-7.427579e-02
6.697504e+02	-7.512886e-02
6.736188e+02	-7.599163e-02
6.775096e+02	-7.686423e-02
6.814229e+02	-7.774675e-02
6.853587e+02	-7.863932e-02
6.893173e+02	-7.954204e-02
6.932988e+02	-8.045502e-02
6.973033e+02	-8.137839e-02
7.013309e+02	-8.231225e-02
