Frequency(Hz)	Magnitude(dB)
1.000000e+01	-2.410112e+00
1.005776e+01	-2.431468e+00
1.011585e+01	-2.453233e+00
1.017428e+01	-2.474699e+00
1.023305e+01	-2.496652e+00
1.029215e+01	-2.518568e+00
1.035160e+01	-2.540244e+00
1.041139e+01	-2.562640e+00
1.047153e+01	-2.585283e+00
1.053201e+01	-2.607505e+00
1.059284e+01	-2.630092e+00
1.065403e+01	-2.652997e+00
1.071556e+01	-2.676121e+00
1.077746e+01	-2.699198e+00
1.083971e+01	-2.722293e+00
1.090232e+01	-2.745886e+00
1.096529e+01	-2.769165e+00
1.102862e+01	-2.792978e+00
1.109232e+01	-2.816714e+00
1.115639e+01	-2.840532e+00
1.122083e+01	-2.864700e+00
1.128564e+01	-2.888788e+00
1.135083e+01	-2.913108e+00
1.141639e+01	-2.937879e+00
1.148233e+01	-2.962313e+00
1.154865e+01	-2.987235e+00
1.161536e+01	-3.012004e+00
1.168245e+01	-3.037412e+00
1.174992e+01	-3.062690e+00
1.181779e+01	-3.088055e+00
1.188605e+01	-3.113401e+00
1.195470e+01	-3.138976e+00
1.202375e+01	-3.165096e+00
1.209320e+01	-3.191055e+00
1.216305e+01	-3.217125e+00
1.223330e+01	-3.243108e+00
1.230396e+01	-3.269598e+00
1.237503e+01	-3.296050e+00
1.244651e+01	-3.322934e+00
1.251840e+01	-3.349708e+00
1.259070e+01	-3.376547e+00
1.266343e+01	-3.403863e+00
1.273657e+01	-3.431312e+00
1.281014e+01	-3.458460e+00
1.288413e+01	-3.486035e+00
1.295855e+01	-3.513601e+00
1.303339e+01	-3.541416e+00
1.310867e+01	-3.569549e+00
1.318439e+01	-3.597741e+00
1.326054e+01	-3.625544e+00
1.333713e+01	-3.654260e+00
1.341417e+01	-3.682660e+00
1.349165e+01	-3.711416e+00
1.356958e+01	-3.740371e+00
1.364795e+01	-3.768985e+00
1.372678e+01	-3.798085e+00
1.380607e+01	-3.827187e+00
1.388581e+01	-3.856794e+00
1.396602e+01	-3.886421e+00
1.404668e+01	-3.915883e+00
1.412782e+01	-3.945524e+00
1.420942e+01	-3.975672e+00
1.429149e+01	-4.005671e+00
1.437404e+01	-4.036275e+00
1.445706e+01	-4.066371e+00
1.454057e+01	-4.096804e+00
1.462455e+01	-4.127404e+00
1.470902e+01	-4.158015e+00
1.479398e+01	-4.189322e+00
1.487943e+01	-4.220112e+00
1.496537e+01	-4.251173e+00
1.505181e+01	-4.282609e+00
1.513875e+01	-4.313858e+00
1.522619e+01	-4.345758e+00
1.531414e+01	-4.377309e+00
1.540259e+01	-4.409130e+00
1.549156e+01	-4.440891e+00
1.558103e+01	-4.473062e+00
1.567103e+01	-4.505442e+00
1.576155e+01	-4.537726e+00
1.585258e+01	-4.570410e+00
1.594415e+01	-4.602838e+00
1.603624e+01	-4.635369e+00
1.612886e+01	-4.668575e+00
1.622202e+01	-4.701500e+00
1.631572e+01	-4.734642e+00
1.640996e+01	-4.767966e+00
1.650474e+01	-4.801191e+00
1.660008e+01	-4.834827e+00
1.669596e+01	-4.868646e+00
1.679239e+01	-4.902152e+00
1.688938e+01	-4.936161e+00
1.698694e+01	-4.970196e+00
1.708505e+01	-5.004501e+00
1.718373e+01	-5.039093e+00
1.728299e+01	-5.073123e+00
1.738281e+01	-5.107457e+00
1.748322e+01	-5.142134e+00
1.758420e+01	-5.177076e+00
1.768576e+01	-5.212201e+00
1.778792e+01	-5.246969e+00
1.789066e+01	-5.282478e+00
1.799399e+01	-5.317606e+00
1.809793e+01	-5.352458e+00
1.820246e+01	-5.387938e+00
1.830760e+01	-5.423847e+00
1.841334e+01	-5.459382e+00
1.851969e+01	-5.495593e+00
1.862666e+01	-5.531486e+00
1.873425e+01	-5.567767e+00
1.884246e+01	-5.603936e+00
1.895129e+01	-5.640264e+00
1.906075e+01	-5.676523e+00
1.917085e+01	-5.713067e+00
1.928158e+01	-5.749680e+00
1.939295e+01	-5.786470e+00
1.950496e+01	-5.823410e+00
1.961762e+01	-5.860128e+00
1.973093e+01	-5.897531e+00
1.984490e+01	-5.934609e+00
1.995952e+01	-5.972084e+00
2.007480e+01	-6.009438e+00
2.019076e+01	-6.046767e+00
2.030738e+01	-6.084808e+00
2.042467e+01	-6.122190e+00
2.054264e+01	-6.160277e+00
2.066130e+01	-6.197953e+00
2.078064e+01	-6.236265e+00
2.090066e+01	-6.274165e+00
2.102139e+01	-6.312590e+00
2.114280e+01	-6.351369e+00
2.126492e+01	-6.389782e+00
2.138775e+01	-6.428161e+00
2.151128e+01	-6.467018e+00
2.163553e+01	-6.505760e+00
2.176050e+01	-6.544565e+00
2.188619e+01	-6.583747e+00
2.201260e+01	-6.622397e+00
2.213974e+01	-6.662057e+00
2.226762e+01	-6.700990e+00
2.239624e+01	-6.740568e+00
2.252560e+01	-6.779751e+00
2.265571e+01	-6.819575e+00
2.278656e+01	-6.858927e+00
2.291818e+01	-6.898989e+00
2.305055e+01	-6.939029e+00
2.318369e+01	-6.978721e+00
2.331760e+01	-7.018717e+00
2.345228e+01	-7.059109e+00
2.358774e+01	-7.098949e+00
2.372398e+01	-7.139191e+00
2.386101e+01	-7.179846e+00
2.399883e+01	-7.220403e+00
2.413745e+01	-7.260930e+00
2.427686e+01	-7.301300e+00
2.441709e+01	-7.342601e+00
2.455812e+01	-7.383607e+00
2.469997e+01	-7.424289e+00
2.484263e+01	-7.465156e+00
2.498612e+01	-7.506385e+00
2.513044e+01	-7.547692e+00
2.527559e+01	-7.589193e+00
2.542158e+01	-7.630128e+00
2.556842e+01	-7.671801e+00
2.571610e+01	-7.713085e+00
2.586463e+01	-7.754500e+00
2.601403e+01	-7.795909e+00
2.616428e+01	-7.838081e+00
2.631541e+01	-7.880147e+00
2.646740e+01	-7.921624e+00
2.662028e+01	-7.963911e+00
2.677404e+01	-8.005696e+00
2.692868e+01	-8.048031e+00
2.708422e+01	-8.090320e+00
2.724066e+01	-8.131980e+00
2.739800e+01	-8.174540e+00
2.755625e+01	-8.217089e+00
2.771541e+01	-8.260000e+00
2.787550e+01	-8.302851e+00
2.803650e+01	-8.345238e+00
2.819844e+01	-8.388156e+00
2.836131e+01	-8.430471e+00
2.852513e+01	-8.473612e+00
2.868989e+01	-8.516525e+00
2.885560e+01	-8.559694e+00
2.902227e+01	-8.602546e+00
2.918990e+01	-8.645901e+00
2.935850e+01	-8.689157e+00
2.952807e+01	-8.731897e+00
2.969863e+01	-8.775827e+00
2.987016e+01	-8.819001e+00
3.004269e+01	-8.862873e+00
3.021622e+01	-8.906272e+00
3.039075e+01	-8.949807e+00
3.056628e+01	-8.993568e+00
3.074283e+01	-9.037210e+00
3.092040e+01	-9.081443e+00
3.109900e+01	-9.125152e+00
3.127862e+01	-9.168874e+00
3.145929e+01	-9.213487e+00
3.164099e+01	-9.256977e+00
3.182375e+01	-9.301147e+00
3.200756e+01	-9.345319e+00
3.219244e+01	-9.389680e+00
3.237838e+01	-9.434020e+00
3.256540e+01	-9.478174e+00
3.275349e+01	-9.522491e+00
3.294268e+01	-9.566574e+00
3.313295e+01	-9.611669e+00
3.332433e+01	-9.655692e+00
3.351681e+01	-9.700636e+00
3.371040e+01	-9.745270e+00
3.390511e+01	-9.790061e+00
3.410094e+01	-9.834816e+00
3.429791e+01	-9.880200e+00
3.449601e+01	-9.924575e+00
3.469526e+01	-9.969939e+00
3.489566e+01	-1.001497e+01
3.509721e+01	-1.006006e+01
3.529993e+01	-1.010486e+01
3.550382e+01	-1.015001e+01
3.570889e+01	-1.019511e+01
3.591515e+01	-1.024084e+01
3.612259e+01	-1.028622e+01
3.633123e+01	-1.033057e+01
3.654108e+01	-1.037677e+01
3.675214e+01	-1.042212e+01
3.696442e+01	-1.046731e+01
3.717792e+01	-1.051332e+01
3.739266e+01	-1.055878e+01
3.760864e+01	-1.060473e+01
3.782587e+01	-1.065022e+01
3.804435e+01	-1.069557e+01
3.826409e+01	-1.074144e+01
3.848510e+01	-1.078748e+01
3.870739e+01	-1.083306e+01
3.893096e+01	-1.087949e+01
3.915583e+01	-1.092535e+01
3.938199e+01	-1.097106e+01
3.960946e+01	-1.101700e+01
3.983824e+01	-1.106367e+01
4.006834e+01	-1.110976e+01
4.029978e+01	-1.115582e+01
4.053255e+01	-1.120208e+01
4.076666e+01	-1.124790e+01
4.100213e+01	-1.129444e+01
4.123896e+01	-1.134091e+01
4.147715e+01	-1.138688e+01
4.171672e+01	-1.143438e+01
4.195767e+01	-1.147929e+01
4.220002e+01	-1.152626e+01
4.244377e+01	-1.157284e+01
4.268892e+01	-1.161922e+01
4.293549e+01	-1.166646e+01
4.318348e+01	-1.171249e+01
4.343291e+01	-1.175976e+01
4.368377e+01	-1.180590e+01
4.393609e+01	-1.185285e+01
4.418986e+01	-1.190007e+01
4.444510e+01	-1.194629e+01
4.470182e+01	-1.199296e+01
4.496001e+01	-1.203961e+01
4.521970e+01	-1.208709e+01
4.548089e+01	-1.213408e+01
4.574358e+01	-1.218208e+01
4.600779e+01	-1.222815e+01
4.627353e+01	-1.227530e+01
4.654081e+01	-1.232229e+01
4.680963e+01	-1.236953e+01
4.708000e+01	-1.241608e+01
4.735193e+01	-1.246361e+01
4.762543e+01	-1.251073e+01
4.790051e+01	-1.255817e+01
4.817719e+01	-1.260500e+01
4.845545e+01	-1.265272e+01
4.873533e+01	-1.270057e+01
4.901682e+01	-1.274698e+01
4.929994e+01	-1.279454e+01
4.958470e+01	-1.284214e+01
4.987110e+01	-1.289033e+01
5.015915e+01	-1.293635e+01
5.044887e+01	-1.298482e+01
5.074026e+01	-1.303202e+01
5.103333e+01	-1.308028e+01
5.132810e+01	-1.312709e+01
5.162457e+01	-1.317420e+01
5.192275e+01	-1.322254e+01
5.222265e+01	-1.327040e+01
5.252429e+01	-1.331826e+01
5.282767e+01	-1.336538e+01
5.313280e+01	-1.341338e+01
5.343969e+01	-1.346057e+01
5.374836e+01	-1.350847e+01
5.405880e+01	-1.355687e+01
5.437105e+01	-1.360411e+01
5.468509e+01	-1.365279e+01
5.500095e+01	-1.369979e+01
5.531863e+01	-1.374775e+01
5.563815e+01	-1.379577e+01
5.595951e+01	-1.384362e+01
5.628273e+01	-1.389205e+01
5.660782e+01	-1.394031e+01
5.693479e+01	-1.398814e+01
5.726364e+01	-1.403602e+01
5.759439e+01	-1.408441e+01
5.792705e+01	-1.413234e+01
5.826164e+01	-1.418030e+01
5.859815e+01	-1.422860e+01
5.893662e+01	-1.427502e+01
5.927703e+01	-1.432476e+01
5.961941e+01	-1.437273e+01
5.996377e+01	-1.442087e+01
6.031012e+01	-1.447081e+01
6.065847e+01	-1.451772e+01
6.100883e+01	-1.456558e+01
6.136121e+01	-1.461393e+01
6.171563e+01	-1.466146e+01
6.207210e+01	-1.470992e+01
6.243063e+01	-1.475988e+01
6.279122e+01	-1.480699e+01
6.315390e+01	-1.485539e+01
6.351868e+01	-1.490411e+01
6.388556e+01	-1.495269e+01
6.425456e+01	-1.500106e+01
6.462569e+01	-1.504916e+01
6.499897e+01	-1.509786e+01
6.537440e+01	-1.514759e+01
6.575200e+01	-1.519426e+01
6.613178e+01	-1.524353e+01
6.651375e+01	-1.529238e+01
6.689793e+01	-1.534073e+01
6.728433e+01	-1.538888e+01
6.767297e+01	-1.543727e+01
6.806384e+01	-1.548738e+01
6.845698e+01	-1.553527e+01
6.885238e+01	-1.558305e+01
6.925007e+01	-1.563197e+01
6.965005e+01	-1.568027e+01
7.005235e+01	-1.573043e+01
7.045697e+01	-1.577887e+01
7.086393e+01	-1.582744e+01
7.127323e+01	-1.587551e+01
7.168490e+01	-1.592435e+01
7.209895e+01	-1.597267e+01
7.251539e+01	-1.602072e+01
7.293424e+01	-1.607140e+01
7.335551e+01	-1.611949e+01
7.377920e+01	-1.616804e+01
7.420535e+01	-1.621677e+01
7.463396e+01	-1.626704e+01
7.506504e+01	-1.631521e+01
7.549861e+01	-1.636355e+01
7.593469e+01	-1.641327e+01
7.637328e+01	-1.646143e+01
7.681441e+01	-1.651066e+01
7.725809e+01	-1.655938e+01
7.770433e+01	-1.660800e+01
7.815315e+01	-1.665788e+01
7.860456e+01	-1.670524e+01
7.905857e+01	-1.675581e+01
7.951521e+01	-1.680449e+01
7.997449e+01	-1.685394e+01
8.043642e+01	-1.690176e+01
8.090102e+01	-1.695040e+01
8.136830e+01	-1.700078e+01
8.183828e+01	-1.704863e+01
8.231097e+01	-1.709845e+01
8.278640e+01	-1.714783e+01
8.326457e+01	-1.719658e+01
8.374550e+01	-1.724612e+01
8.422921e+01	-1.729445e+01
8.471572e+01	-1.734398e+01
8.520503e+01	-1.739244e+01
8.569717e+01	-1.744197e+01
8.619215e+01	-1.749102e+01
8.669000e+01	-1.754178e+01
8.719071e+01	-1.758969e+01
8.769432e+01	-1.763839e+01
8.820084e+01	-1.768732e+01
8.871029e+01	-1.773742e+01
8.922267e+01	-1.778642e+01
8.973802e+01	-1.783541e+01
9.025634e+01	-1.788468e+01
9.077766e+01	-1.793480e+01
9.130199e+01	-1.798332e+01
9.182935e+01	-1.803073e+01
9.235975e+01	-1.808115e+01
9.289321e+01	-1.813053e+01
9.342976e+01	-1.817911e+01
9.396941e+01	-1.823068e+01
9.451217e+01	-1.827826e+01
9.505807e+01	-1.832669e+01
9.560712e+01	-1.837733e+01
9.615934e+01	-1.842642e+01
9.671476e+01	-1.847667e+01
9.727338e+01	-1.852483e+01
9.783522e+01	-1.857492e+01
9.840032e+01	-1.862277e+01
9.896867e+01	-1.867429e+01
9.954031e+01	-1.872200e+01
1.001153e+02	-1.877177e+01
1.006935e+02	-1.882128e+01
1.012751e+02	-1.887027e+01
1.018601e+02	-1.891924e+01
1.024484e+02	-1.896929e+01
1.030402e+02	-1.901952e+01
1.036353e+02	-1.906768e+01
1.042339e+02	-1.911895e+01
1.048360e+02	-1.916834e+01
1.054415e+02	-1.921677e+01
1.060505e+02	-1.926511e+01
1.066631e+02	-1.931622e+01
1.072791e+02	-1.936617e+01
1.078988e+02	-1.941437e+01
1.085220e+02	-1.946617e+01
1.091488e+02	-1.951458e+01
1.097793e+02	-1.956225e+01
1.104133e+02	-1.961204e+01
1.110511e+02	-1.966144e+01
1.116925e+02	-1.971060e+01
1.123376e+02	-1.976051e+01
1.129865e+02	-1.981096e+01
1.136391e+02	-1.986124e+01
1.142955e+02	-1.991085e+01
1.149556e+02	-1.995764e+01
1.156196e+02	-2.000792e+01
1.162874e+02	-2.005841e+01
1.169591e+02	-2.010785e+01
1.176347e+02	-2.015729e+01
1.183141e+02	-2.020612e+01
1.189975e+02	-2.025638e+01
1.196848e+02	-2.030606e+01
1.203761e+02	-2.035368e+01
1.210714e+02	-2.040652e+01
1.217707e+02	-2.045490e+01
1.224740e+02	-2.050581e+01
1.231814e+02	-2.055424e+01
1.238929e+02	-2.060427e+01
1.246085e+02	-2.065357e+01
1.253283e+02	-2.070222e+01
1.260522e+02	-2.075015e+01
1.267802e+02	-2.080166e+01
1.275125e+02	-2.085387e+01
1.282490e+02	-2.090074e+01
1.289898e+02	-2.095035e+01
1.297348e+02	-2.099889e+01
1.304842e+02	-2.104981e+01
1.312378e+02	-2.109909e+01
1.319959e+02	-2.114955e+01
1.327583e+02	-2.120067e+01
1.335251e+02	-2.124796e+01
1.342963e+02	-2.129828e+01
1.350720e+02	-2.134842e+01
1.358522e+02	-2.139759e+01
1.366368e+02	-2.144841e+01
1.374260e+02	-2.149529e+01
1.382198e+02	-2.154633e+01
1.390182e+02	-2.159699e+01
1.398211e+02	-2.164475e+01
1.406287e+02	-2.169678e+01
1.414410e+02	-2.174453e+01
1.422579e+02	-2.179558e+01
1.430796e+02	-2.184569e+01
1.439060e+02	-2.189409e+01
1.447372e+02	-2.194483e+01
1.455732e+02	-2.199442e+01
1.464141e+02	-2.204315e+01
1.472597e+02	-2.209349e+01
1.481103e+02	-2.214398e+01
1.489658e+02	-2.219468e+01
1.498262e+02	-2.224318e+01
1.506916e+02	-2.229181e+01
1.515620e+02	-2.234492e+01
1.524374e+02	-2.239097e+01
1.533179e+02	-2.244204e+01
1.542034e+02	-2.249180e+01
1.550941e+02	-2.254148e+01
1.559899e+02	-2.259045e+01
1.568909e+02	-2.264075e+01
1.577971e+02	-2.269077e+01
1.587085e+02	-2.274125e+01
1.596252e+02	-2.279042e+01
1.605472e+02	-2.284217e+01
1.614745e+02	-2.289000e+01
1.624072e+02	-2.293961e+01
1.633453e+02	-2.299125e+01
1.642887e+02	-2.303857e+01
1.652377e+02	-2.308731e+01
1.661921e+02	-2.313636e+01
1.671520e+02	-2.318833e+01
1.681175e+02	-2.323927e+01
1.690885e+02	-2.328805e+01
1.700651e+02	-2.333620e+01
1.710474e+02	-2.338723e+01
1.720354e+02	-2.343838e+01
1.730291e+02	-2.348575e+01
1.740285e+02	-2.353657e+01
1.750337e+02	-2.358699e+01
1.760446e+02	-2.363747e+01
1.770615e+02	-2.368742e+01
1.780842e+02	-2.373737e+01
1.791128e+02	-2.378935e+01
1.801473e+02	-2.383423e+01
1.811878e+02	-2.388585e+01
1.822344e+02	-2.393489e+01
1.832870e+02	-2.398828e+01
1.843456e+02	-2.403738e+01
1.854104e+02	-2.408419e+01
1.864813e+02	-2.413319e+01
1.875584e+02	-2.418295e+01
1.886418e+02	-2.423711e+01
1.897313e+02	-2.428311e+01
1.908272e+02	-2.433551e+01
1.919294e+02	-2.438463e+01
1.930380e+02	-2.443362e+01
1.941530e+02	-2.448400e+01
1.952744e+02	-2.453488e+01
1.964023e+02	-2.458513e+01
1.975367e+02	-2.463310e+01
1.986777e+02	-2.468356e+01
1.998252e+02	-2.473297e+01
2.009794e+02	-2.478074e+01
2.021403e+02	-2.483554e+01
2.033078e+02	-2.488453e+01
2.044821e+02	-2.493389e+01
2.056632e+02	-2.498475e+01
2.068511e+02	-2.503325e+01
2.080459e+02	-2.508242e+01
2.092475e+02	-2.513457e+01
2.104561e+02	-2.518439e+01
2.116717e+02	-2.523384e+01
2.128943e+02	-2.528274e+01
2.141240e+02	-2.533205e+01
2.153608e+02	-2.538471e+01
2.166047e+02	-2.543536e+01
2.178558e+02	-2.548221e+01
2.191141e+02	-2.553304e+01
2.203797e+02	-2.558366e+01
2.216526e+02	-2.563452e+01
2.229329e+02	-2.568500e+01
2.242205e+02	-2.573231e+01
2.255156e+02	-2.578172e+01
2.268182e+02	-2.583393e+01
2.281283e+02	-2.588180e+01
2.294459e+02	-2.593088e+01
2.307712e+02	-2.598417e+01
2.321041e+02	-2.603033e+01
2.334447e+02	-2.608078e+01
2.347931e+02	-2.612990e+01
2.361493e+02	-2.618004e+01
2.375133e+02	-2.623255e+01
2.388851e+02	-2.627918e+01
2.402649e+02	-2.633011e+01
2.416527e+02	-2.638084e+01
2.430484e+02	-2.643581e+01
2.444523e+02	-2.648375e+01
2.458642e+02	-2.653277e+01
2.472843e+02	-2.658158e+01
2.487126e+02	-2.662872e+01
2.501492e+02	-2.668132e+01
2.515940e+02	-2.673130e+01
2.530472e+02	-2.678060e+01
2.545088e+02	-2.682928e+01
2.559789e+02	-2.688225e+01
2.574574e+02	-2.693151e+01
2.589444e+02	-2.698066e+01
2.604401e+02	-2.703017e+01
2.619444e+02	-2.708096e+01
2.634574e+02	-2.713116e+01
2.649791e+02	-2.718089e+01
2.665096e+02	-2.722909e+01
2.680489e+02	-2.728198e+01
2.695972e+02	-2.733205e+01
2.711544e+02	-2.737993e+01
2.727205e+02	-2.743402e+01
2.742958e+02	-2.748100e+01
2.758801e+02	-2.753159e+01
2.774736e+02	-2.757953e+01
2.790762e+02	-2.763191e+01
2.806882e+02	-2.768364e+01
2.823094e+02	-2.772847e+01
2.839400e+02	-2.778137e+01
2.855800e+02	-2.782883e+01
2.872295e+02	-2.787822e+01
2.888886e+02	-2.793298e+01
2.905572e+02	-2.798296e+01
2.922354e+02	-2.803317e+01
2.939234e+02	-2.807922e+01
2.956211e+02	-2.813099e+01
2.973286e+02	-2.817556e+01
2.990459e+02	-2.823347e+01
3.007732e+02	-2.827878e+01
3.025104e+02	-2.833334e+01
3.042577e+02	-2.838310e+01
3.060151e+02	-2.843124e+01
3.077826e+02	-2.848321e+01
3.095604e+02	-2.853063e+01
3.113484e+02	-2.858237e+01
3.131467e+02	-2.863162e+01
3.149554e+02	-2.868323e+01
3.167746e+02	-2.873067e+01
3.186043e+02	-2.878163e+01
3.204445e+02	-2.883214e+01
3.222954e+02	-2.888553e+01
3.241570e+02	-2.893154e+01
3.260293e+02	-2.898246e+01
3.279124e+02	-2.902736e+01
3.298064e+02	-2.908157e+01
3.317114e+02	-2.913168e+01
3.336273e+02	-2.918207e+01
3.355544e+02	-2.923050e+01
3.374925e+02	-2.928602e+01
3.394418e+02	-2.933998e+01
3.414024e+02	-2.938119e+01
3.433744e+02	-2.943367e+01
3.453577e+02	-2.948569e+01
3.473525e+02	-2.953107e+01
3.493588e+02	-2.958355e+01
3.513766e+02	-2.963432e+01
3.534062e+02	-2.968146e+01
3.554474e+02	-2.973484e+01
3.575005e+02	-2.977952e+01
3.595654e+02	-2.983488e+01
3.616422e+02	-2.988667e+01
3.637311e+02	-2.992994e+01
3.658320e+02	-2.998411e+01
3.679450e+02	-3.002908e+01
3.700702e+02	-3.008223e+01
3.722077e+02	-3.013443e+01
3.743576e+02	-3.018822e+01
3.765199e+02	-3.023279e+01
3.786946e+02	-3.028712e+01
3.808820e+02	-3.033444e+01
3.830819e+02	-3.038514e+01
3.852946e+02	-3.043631e+01
3.875200e+02	-3.048962e+01
3.897583e+02	-3.053413e+01
3.920096e+02	-3.058269e+01
3.942738e+02	-3.063951e+01
3.965511e+02	-3.068347e+01
3.988416e+02	-3.073724e+01
4.011452e+02	-3.078535e+01
4.034622e+02	-3.083315e+01
4.057926e+02	-3.088963e+01
4.081365e+02	-3.093225e+01
4.104938e+02	-3.098351e+01
4.128648e+02	-3.103857e+01
4.152495e+02	-3.108624e+01
4.176480e+02	-3.113326e+01
4.200603e+02	-3.118471e+01
4.224866e+02	-3.123516e+01
4.249268e+02	-3.128455e+01
4.273812e+02	-3.134053e+01
4.298497e+02	-3.138883e+01
4.323325e+02	-3.143674e+01
4.348297e+02	-3.148886e+01
4.373412e+02	-3.153545e+01
4.398673e+02	-3.158942e+01
4.424079e+02	-3.164168e+01
4.449633e+02	-3.168740e+01
4.475334e+02	-3.174385e+01
4.501183e+02	-3.178912e+01
4.527182e+02	-3.184256e+01
4.553330e+02	-3.188830e+01
4.579630e+02	-3.193892e+01
4.606082e+02	-3.198616e+01
4.632687e+02	-3.203892e+01
4.659445e+02	-3.209228e+01
4.686358e+02	-3.213886e+01
4.713426e+02	-3.218647e+01
4.740650e+02	-3.223581e+01
4.768032e+02	-3.228406e+01
4.795572e+02	-3.234693e+01
4.823271e+02	-3.238866e+01
4.851130e+02	-3.244014e+01
4.879150e+02	-3.249788e+01
4.907332e+02	-3.253740e+01
4.935676e+02	-3.258962e+01
4.964185e+02	-3.263602e+01
4.992858e+02	-3.269858e+01
5.021696e+02	-3.274605e+01
5.050701e+02	-3.279636e+01
5.079874e+02	-3.284877e+01
5.109215e+02	-3.289628e+01
5.138726e+02	-3.294068e+01
5.168407e+02	-3.300077e+01
5.198259e+02	-3.303542e+01
5.228284e+02	-3.310445e+01
5.258482e+02	-3.313450e+01
5.288855e+02	-3.319552e+01
5.319403e+02	-3.324680e+01
5.350128e+02	-3.329494e+01
5.381030e+02	-3.334316e+01
5.412111e+02	-3.340080e+01
5.443371e+02	-3.344563e+01
5.474812e+02	-3.349176e+01
5.506434e+02	-3.354707e+01
5.538239e+02	-3.360004e+01
5.570228e+02	-3.364818e+01
5.602401e+02	-3.369741e+01
5.634760e+02	-3.374911e+01
5.667306e+02	-3.379852e+01
5.700040e+02	-3.384094e+01
5.732964e+02	-3.389803e+01
5.766077e+02	-3.395040e+01
5.799382e+02	-3.399336e+01
5.832879e+02	-3.404968e+01
5.866569e+02	-3.409406e+01
5.900454e+02	-3.414976e+01
5.934535e+02	-3.420611e+01
5.968813e+02	-3.425301e+01
6.003288e+02	-3.430927e+01
6.037963e+02	-3.435436e+01
6.072838e+02	-3.440154e+01
6.107914e+02	-3.445441e+01
6.143194e+02	-3.449910e+01
6.178676e+02	-3.456084e+01
6.214364e+02	-3.460888e+01
6.250258e+02	-3.465514e+01
6.286359e+02	-3.470068e+01
6.322669e+02	-3.475062e+01
6.359189e+02	-3.480060e+01
6.395919e+02	-3.486413e+01
6.432862e+02	-3.489966e+01
6.470017e+02	-3.495621e+01
6.507388e+02	-3.500351e+01
6.544974e+02	-3.505201e+01
6.582778e+02	-3.511227e+01
6.620800e+02	-3.515743e+01
6.659041e+02	-3.520949e+01
6.697504e+02	-3.525863e+01
6.736188e+02	-3.531466e+01
6.775096e+02	-3.535202e+01
6.814229e+02	-3.540198e+01
6.853587e+02	-3.546127e+01
6.893173e+02	-3.551028e+01
6.932988e+02	-3.556943e+01
6.973033e+02	-3.561176e+01
7.013309e+02	-3.566383e+01
