Frequency(Hz)	Magnitude(dB)
1.000000e+01	-1.763188e-05
1.005776e+01	-1.783615e-05
1.011585e+01	-1.804279e-05
1.017428e+01	-1.825182e-05
1.023305e+01	-1.846327e-05
1.029215e+01	-1.867717e-05
1.035160e+01	-1.889355e-05
1.041139e+01	-1.911244e-05
1.047153e+01	-1.933386e-05
1.053201e+01	-1.955785e-05
1.059284e+01	-1.978443e-05
1.065403e+01	-2.001364e-05
1.071556e+01	-2.024550e-05
1.077746e+01	-2.048005e-05
1.083971e+01	-2.071732e-05
1.090232e+01	-2.095734e-05
1.096529e+01	-2.120013e-05
1.102862e+01	-2.144574e-05
1.109232e+01	-2.169420e-05
1.115639e+01	-2.194553e-05
1.122083e+01	-2.219977e-05
1.128564e+01	-2.245696e-05
1.135083e+01	-2.271713e-05
1.141639e+01	-2.298032e-05
1.148233e+01	-2.324655e-05
1.154865e+01	-2.351587e-05
1.161536e+01	-2.378830e-05
1.168245e+01	-2.406390e-05
1.174992e+01	-2.434268e-05
1.181779e+01	-2.462470e-05
1.188605e+01	-2.490998e-05
1.195470e+01	-2.519857e-05
1.202375e+01	-2.549050e-05
1.209320e+01	-2.578581e-05
1.216305e+01	-2.608455e-05
1.223330e+01	-2.638675e-05
1.230396e+01	-2.669244e-05
1.237503e+01	-2.700168e-05
1.244651e+01	-2.731450e-05
1.251840e+01	-2.763095e-05
1.259070e+01	-2.795106e-05
1.266343e+01	-2.827488e-05
1.273657e+01	-2.860245e-05
1.281014e+01	-2.893382e-05
1.288413e+01	-2.926902e-05
1.295855e+01	-2.960811e-05
1.303339e+01	-2.995113e-05
1.310867e+01	-3.029812e-05
1.318439e+01	-3.064913e-05
1.326054e+01	-3.100421e-05
1.333713e+01	-3.136340e-05
1.341417e+01	-3.172675e-05
1.349165e+01	-3.209431e-05
1.356958e+01	-3.246613e-05
1.364795e+01	-3.284226e-05
1.372678e+01	-3.322274e-05
1.380607e+01	-3.360764e-05
1.388581e+01	-3.399699e-05
1.396602e+01	-3.439085e-05
1.404668e+01	-3.478928e-05
1.412782e+01	-3.519232e-05
1.420942e+01	-3.560003e-05
1.429149e+01	-3.601247e-05
1.437404e+01	-3.642968e-05
1.445706e+01	-3.685173e-05
1.454057e+01	-3.727866e-05
1.462455e+01	-3.771054e-05
1.470902e+01	-3.814743e-05
1.479398e+01	-3.858938e-05
1.487943e+01	-3.903644e-05
1.496537e+01	-3.948869e-05
1.505181e+01	-3.994617e-05
1.513875e+01	-4.040896e-05
1.522619e+01	-4.087711e-05
1.531414e+01	-4.135068e-05
1.540259e+01	-4.182973e-05
1.549156e+01	-4.231434e-05
1.558103e+01	-4.280456e-05
1.567103e+01	-4.330046e-05
1.576155e+01	-4.380211e-05
1.585258e+01	-4.430956e-05
1.594415e+01	-4.482290e-05
1.603624e+01	-4.534218e-05
1.612886e+01	-4.586748e-05
1.622202e+01	-4.639887e-05
1.631572e+01	-4.693641e-05
1.640996e+01	-4.748018e-05
1.650474e+01	-4.803025e-05
1.660008e+01	-4.858669e-05
1.669596e+01	-4.914957e-05
1.679239e+01	-4.971898e-05
1.688938e+01	-5.029499e-05
1.698694e+01	-5.087766e-05
1.708505e+01	-5.146709e-05
1.718373e+01	-5.206335e-05
1.728299e+01	-5.266652e-05
1.738281e+01	-5.327667e-05
1.748322e+01	-5.389389e-05
1.758420e+01	-5.451826e-05
1.768576e+01	-5.514987e-05
1.778792e+01	-5.578879e-05
1.789066e+01	-5.643511e-05
1.799399e+01	-5.708893e-05
1.809793e+01	-5.775031e-05
1.820246e+01	-5.841936e-05
1.830760e+01	-5.909616e-05
1.841334e+01	-5.978080e-05
1.851969e+01	-6.047337e-05
1.862666e+01	-6.117397e-05
1.873425e+01	-6.188268e-05
1.884246e+01	-6.259961e-05
1.895129e+01	-6.332484e-05
1.906075e+01	-6.405847e-05
1.917085e+01	-6.480060e-05
1.928158e+01	-6.555132e-05
1.939295e+01	-6.631075e-05
1.950496e+01	-6.707897e-05
1.961762e+01	-6.785609e-05
1.973093e+01	-6.864222e-05
1.984490e+01	-6.943745e-05
1.995952e+01	-7.024190e-05
2.007480e+01	-7.105566e-05
2.019076e+01	-7.187886e-05
2.030738e+01	-7.271158e-05
2.042467e+01	-7.355396e-05
2.054264e+01	-7.440610e-05
2.066130e+01	-7.526811e-05
2.078064e+01	-7.614010e-05
2.090066e+01	-7.702220e-05
2.102139e+01	-7.791451e-05
2.114280e+01	-7.881717e-05
2.126492e+01	-7.973028e-05
2.138775e+01	-8.065397e-05
2.151128e+01	-8.158835e-05
2.163553e+01	-8.253357e-05
2.176050e+01	-8.348974e-05
2.188619e+01	-8.445698e-05
2.201260e+01	-8.543543e-05
2.213974e+01	-8.642521e-05
2.226762e+01	-8.742646e-05
2.239624e+01	-8.843931e-05
2.252560e+01	-8.946389e-05
2.265571e+01	-9.050035e-05
2.278656e+01	-9.154881e-05
2.291818e+01	-9.260941e-05
2.305055e+01	-9.368231e-05
2.318369e+01	-9.476763e-05
2.331760e+01	-9.586553e-05
2.345228e+01	-9.697615e-05
2.358774e+01	-9.809963e-05
2.372398e+01	-9.923613e-05
2.386101e+01	-1.003858e-04
2.399883e+01	-1.015488e-04
2.413745e+01	-1.027252e-04
2.427686e+01	-1.039153e-04
2.441709e+01	-1.051192e-04
2.455812e+01	-1.063370e-04
2.469997e+01	-1.075689e-04
2.484263e+01	-1.088151e-04
2.498612e+01	-1.100758e-04
2.513044e+01	-1.113510e-04
2.527559e+01	-1.126410e-04
2.542158e+01	-1.139460e-04
2.556842e+01	-1.152661e-04
2.571610e+01	-1.166015e-04
2.586463e+01	-1.179523e-04
2.601403e+01	-1.193188e-04
2.616428e+01	-1.207011e-04
2.631541e+01	-1.220994e-04
2.646740e+01	-1.235140e-04
2.662028e+01	-1.249449e-04
2.677404e+01	-1.263924e-04
2.692868e+01	-1.278567e-04
2.708422e+01	-1.293379e-04
2.724066e+01	-1.308363e-04
2.739800e+01	-1.323521e-04
2.755625e+01	-1.338854e-04
2.771541e+01	-1.354364e-04
2.787550e+01	-1.370055e-04
2.803650e+01	-1.385927e-04
2.819844e+01	-1.401983e-04
2.836131e+01	-1.418225e-04
2.852513e+01	-1.434655e-04
2.868989e+01	-1.451276e-04
2.885560e+01	-1.468089e-04
2.902227e+01	-1.485097e-04
2.918990e+01	-1.502302e-04
2.935850e+01	-1.519706e-04
2.952807e+01	-1.537312e-04
2.969863e+01	-1.555122e-04
2.987016e+01	-1.573138e-04
3.004269e+01	-1.591363e-04
3.021622e+01	-1.609799e-04
3.039075e+01	-1.628449e-04
3.056628e+01	-1.647315e-04
3.074283e+01	-1.666399e-04
3.092040e+01	-1.685704e-04
3.109900e+01	-1.705233e-04
3.127862e+01	-1.724988e-04
3.145929e+01	-1.744973e-04
3.164099e+01	-1.765188e-04
3.182375e+01	-1.785638e-04
3.200756e+01	-1.806325e-04
3.219244e+01	-1.827251e-04
3.237838e+01	-1.848420e-04
3.256540e+01	-1.869834e-04
3.275349e+01	-1.891496e-04
3.294268e+01	-1.913409e-04
3.313295e+01	-1.935576e-04
3.332433e+01	-1.957999e-04
3.351681e+01	-1.980683e-04
3.371040e+01	-2.003629e-04
3.390511e+01	-2.026841e-04
3.410094e+01	-2.050322e-04
3.429791e+01	-2.074075e-04
3.449601e+01	-2.098103e-04
3.469526e+01	-2.122410e-04
3.489566e+01	-2.146998e-04
3.509721e+01	-2.171871e-04
3.529993e+01	-2.197032e-04
3.550382e+01	-2.222484e-04
3.570889e+01	-2.248232e-04
3.591515e+01	-2.274278e-04
3.612259e+01	-2.300625e-04
3.633123e+01	-2.327278e-04
3.654108e+01	-2.354239e-04
3.675214e+01	-2.381513e-04
3.696442e+01	-2.409103e-04
3.717792e+01	-2.437012e-04
3.739266e+01	-2.465245e-04
3.760864e+01	-2.493804e-04
3.782587e+01	-2.522695e-04
3.804435e+01	-2.551920e-04
3.826409e+01	-2.581484e-04
3.848510e+01	-2.611390e-04
3.870739e+01	-2.641643e-04
3.893096e+01	-2.672246e-04
3.915583e+01	-2.703204e-04
3.938199e+01	-2.734520e-04
3.960946e+01	-2.766200e-04
3.983824e+01	-2.798246e-04
4.006834e+01	-2.830663e-04
4.029978e+01	-2.863456e-04
4.053255e+01	-2.896629e-04
4.076666e+01	-2.930186e-04
4.100213e+01	-2.964132e-04
4.123896e+01	-2.998471e-04
4.147715e+01	-3.033208e-04
4.171672e+01	-3.068347e-04
4.195767e+01	-3.103894e-04
4.220002e+01	-3.139852e-04
4.244377e+01	-3.176226e-04
4.268892e+01	-3.213023e-04
4.293549e+01	-3.250245e-04
4.318348e+01	-3.287898e-04
4.343291e+01	-3.325988e-04
4.368377e+01	-3.364519e-04
4.393609e+01	-3.403497e-04
4.418986e+01	-3.442925e-04
4.444510e+01	-3.482811e-04
4.470182e+01	-3.523159e-04
4.496001e+01	-3.563974e-04
4.521970e+01	-3.605262e-04
4.548089e+01	-3.647028e-04
4.574358e+01	-3.689278e-04
4.600779e+01	-3.732018e-04
4.627353e+01	-3.775252e-04
4.654081e+01	-3.818988e-04
4.680963e+01	-3.863230e-04
4.708000e+01	-3.907984e-04
4.735193e+01	-3.953257e-04
4.762543e+01	-3.999055e-04
4.790051e+01	-4.045383e-04
4.817719e+01	-4.092247e-04
4.845545e+01	-4.139655e-04
4.873533e+01	-4.187612e-04
4.901682e+01	-4.236124e-04
4.929994e+01	-4.285198e-04
4.958470e+01	-4.334841e-04
4.987110e+01	-4.385059e-04
5.015915e+01	-4.435858e-04
5.044887e+01	-4.487246e-04
5.074026e+01	-4.539230e-04
5.103333e+01	-4.591815e-04
5.132810e+01	-4.645010e-04
5.162457e+01	-4.698820e-04
5.192275e+01	-4.753255e-04
5.222265e+01	-4.808319e-04
5.252429e+01	-4.864022e-04
5.282767e+01	-4.920370e-04
5.313280e+01	-4.977370e-04
5.343969e+01	-5.035031e-04
5.374836e+01	-5.093360e-04
5.405880e+01	-5.152364e-04
5.437105e+01	-5.212052e-04
5.468509e+01	-5.272432e-04
5.500095e+01	-5.333511e-04
5.531863e+01	-5.395297e-04
5.563815e+01	-5.457799e-04
5.595951e+01	-5.521025e-04
5.628273e+01	-5.584984e-04
5.660782e+01	-5.649683e-04
5.693479e+01	-5.715132e-04
5.726364e+01	-5.781339e-04
5.759439e+01	-5.848313e-04
5.792705e+01	-5.916062e-04
5.826164e+01	-5.984597e-04
5.859815e+01	-6.053925e-04
5.893662e+01	-6.124057e-04
5.927703e+01	-6.195001e-04
5.961941e+01	-6.266766e-04
5.996377e+01	-6.339363e-04
6.031012e+01	-6.412801e-04
6.065847e+01	-6.487089e-04
6.100883e+01	-6.562238e-04
6.136121e+01	-6.638258e-04
6.171563e+01	-6.715158e-04
6.207210e+01	-6.792949e-04
6.243063e+01	-6.871641e-04
6.279122e+01	-6.951244e-04
6.315390e+01	-7.031770e-04
6.351868e+01	-7.113228e-04
6.388556e+01	-7.195630e-04
6.425456e+01	-7.278987e-04
6.462569e+01	-7.363308e-04
6.499897e+01	-7.448607e-04
6.537440e+01	-7.534894e-04
6.575200e+01	-7.622180e-04
6.613178e+01	-7.710477e-04
6.651375e+01	-7.799797e-04
6.689793e+01	-7.890152e-04
6.728433e+01	-7.981553e-04
6.767297e+01	-8.074013e-04
6.806384e+01	-8.167544e-04
6.845698e+01	-8.262158e-04
6.885238e+01	-8.357868e-04
6.925007e+01	-8.454687e-04
6.965005e+01	-8.552627e-04
7.005235e+01	-8.651702e-04
7.045697e+01	-8.751924e-04
7.086393e+01	-8.853307e-04
7.127323e+01	-8.955864e-04
7.168490e+01	-9.059610e-04
7.209895e+01	-9.164557e-04
7.251539e+01	-9.270719e-04
7.293424e+01	-9.378111e-04
7.335551e+01	-9.486748e-04
7.377920e+01	-9.596642e-04
7.420535e+01	-9.707809e-04
7.463396e+01	-9.820264e-04
7.506504e+01	-9.934022e-04
7.549861e+01	-1.004910e-03
7.593469e+01	-1.016550e-03
7.637328e+01	-1.028326e-03
7.681441e+01	-1.040238e-03
7.725809e+01	-1.052288e-03
7.770433e+01	-1.064478e-03
7.815315e+01	-1.076808e-03
7.860456e+01	-1.089282e-03
7.905857e+01	-1.101900e-03
7.951521e+01	-1.114664e-03
7.997449e+01	-1.127576e-03
8.043642e+01	-1.140638e-03
8.090102e+01	-1.153851e-03
8.136830e+01	-1.167216e-03
8.183828e+01	-1.180737e-03
8.231097e+01	-1.194414e-03
8.278640e+01	-1.208250e-03
8.326457e+01	-1.222246e-03
8.374550e+01	-1.236404e-03
8.422921e+01	-1.250726e-03
8.471572e+01	-1.265214e-03
8.520503e+01	-1.279870e-03
8.569717e+01	-1.294695e-03
8.619215e+01	-1.309692e-03
8.669000e+01	-1.324863e-03
8.719071e+01	-1.340210e-03
8.769432e+01	-1.355734e-03
8.820084e+01	-1.371438e-03
8.871029e+01	-1.387324e-03
8.922267e+01	-1.403394e-03
8.973802e+01	-1.419650e-03
9.025634e+01	-1.436094e-03
9.077766e+01	-1.452729e-03
9.130199e+01	-1.469556e-03
9.182935e+01	-1.486578e-03
9.235975e+01	-1.503798e-03
9.289321e+01	-1.521217e-03
9.342976e+01	-1.538837e-03
9.396941e+01	-1.556662e-03
9.451217e+01	-1.574693e-03
9.505807e+01	-1.592933e-03
9.560712e+01	-1.611384e-03
9.615934e+01	-1.630049e-03
9.671476e+01	-1.648930e-03
9.727338e+01	-1.668030e-03
9.783522e+01	-1.687350e-03
9.840032e+01	-1.706895e-03
9.896867e+01	-1.726666e-03
9.954031e+01	-1.746666e-03
1.001153e+02	-1.766897e-03
1.006935e+02	-1.787363e-03
1.012751e+02	-1.808066e-03
1.018601e+02	-1.829008e-03
1.024484e+02	-1.850193e-03
1.030402e+02	-1.871624e-03
1.036353e+02	-1.893302e-03
1.042339e+02	-1.915232e-03
1.048360e+02	-1.937415e-03
1.054415e+02	-1.959856e-03
1.060505e+02	-1.982556e-03
1.066631e+02	-2.005519e-03
1.072791e+02	-2.028748e-03
1.078988e+02	-2.052246e-03
1.085220e+02	-2.076016e-03
1.091488e+02	-2.100062e-03
1.097793e+02	-2.124385e-03
1.104133e+02	-2.148991e-03
1.110511e+02	-2.173881e-03
1.116925e+02	-2.199060e-03
1.123376e+02	-2.224530e-03
1.129865e+02	-2.250295e-03
1.136391e+02	-2.276359e-03
1.142955e+02	-2.302724e-03
1.149556e+02	-2.329394e-03
1.156196e+02	-2.356374e-03
1.162874e+02	-2.383665e-03
1.169591e+02	-2.411273e-03
1.176347e+02	-2.439200e-03
1.183141e+02	-2.467451e-03
1.189975e+02	-2.496029e-03
1.196848e+02	-2.524938e-03
1.203761e+02	-2.554181e-03
1.210714e+02	-2.583763e-03
1.217707e+02	-2.613688e-03
1.224740e+02	-2.643959e-03
1.231814e+02	-2.674580e-03
1.238929e+02	-2.705557e-03
1.246085e+02	-2.736891e-03
1.253283e+02	-2.768589e-03
1.260522e+02	-2.800653e-03
1.267802e+02	-2.833089e-03
1.275125e+02	-2.865900e-03
1.282490e+02	-2.899091e-03
1.289898e+02	-2.932667e-03
1.297348e+02	-2.966631e-03
1.304842e+02	-3.000988e-03
1.312378e+02	-3.035743e-03
1.319959e+02	-3.070901e-03
1.327583e+02	-3.106465e-03
1.335251e+02	-3.142441e-03
1.342963e+02	-3.178834e-03
1.350720e+02	-3.215648e-03
1.358522e+02	-3.252888e-03
1.366368e+02	-3.290559e-03
1.374260e+02	-3.328667e-03
1.382198e+02	-3.367215e-03
1.390182e+02	-3.406210e-03
1.398211e+02	-3.445656e-03
1.406287e+02	-3.485559e-03
1.414410e+02	-3.525924e-03
1.422579e+02	-3.566755e-03
1.430796e+02	-3.608060e-03
1.439060e+02	-3.649843e-03
1.447372e+02	-3.692109e-03
1.455732e+02	-3.734865e-03
1.464141e+02	-3.778115e-03
1.472597e+02	-3.821866e-03
1.481103e+02	-3.866124e-03
1.489658e+02	-3.910894e-03
1.498262e+02	-3.956182e-03
1.506916e+02	-4.001994e-03
1.515620e+02	-4.048337e-03
1.524374e+02	-4.095216e-03
1.533179e+02	-4.142637e-03
1.542034e+02	-4.190607e-03
1.550941e+02	-4.239133e-03
1.559899e+02	-4.288220e-03
1.568909e+02	-4.337875e-03
1.577971e+02	-4.388105e-03
1.587085e+02	-4.438917e-03
1.596252e+02	-4.490316e-03
1.605472e+02	-4.542310e-03
1.614745e+02	-4.594906e-03
1.624072e+02	-4.648111e-03
1.633453e+02	-4.701931e-03
1.642887e+02	-4.756374e-03
1.652377e+02	-4.811448e-03
1.661921e+02	-4.867158e-03
1.671520e+02	-4.923514e-03
1.681175e+02	-4.980521e-03
1.690885e+02	-5.038188e-03
1.700651e+02	-5.096522e-03
1.710474e+02	-5.155532e-03
1.720354e+02	-5.215224e-03
1.730291e+02	-5.275607e-03
1.740285e+02	-5.336689e-03
1.750337e+02	-5.398477e-03
1.760446e+02	-5.460980e-03
1.770615e+02	-5.524207e-03
1.780842e+02	-5.588165e-03
1.791128e+02	-5.652863e-03
1.801473e+02	-5.718310e-03
1.811878e+02	-5.784514e-03
1.822344e+02	-5.851484e-03
1.832870e+02	-5.919228e-03
1.843456e+02	-5.987757e-03
1.854104e+02	-6.057078e-03
1.864813e+02	-6.127201e-03
1.875584e+02	-6.198135e-03
1.886418e+02	-6.269890e-03
1.897313e+02	-6.342476e-03
1.908272e+02	-6.415900e-03
1.919294e+02	-6.490175e-03
1.930380e+02	-6.565308e-03
1.941530e+02	-6.641310e-03
1.952744e+02	-6.718192e-03
1.964023e+02	-6.795963e-03
1.975367e+02	-6.874633e-03
1.986777e+02	-6.954214e-03
1.998252e+02	-7.034715e-03
2.009794e+02	-7.116147e-03
2.021403e+02	-7.198521e-03
2.033078e+02	-7.281847e-03
2.044821e+02	-7.366138e-03
2.056632e+02	-7.451403e-03
2.068511e+02	-7.537654e-03
2.080459e+02	-7.624903e-03
2.092475e+02	-7.713161e-03
2.104561e+02	-7.802439e-03
2.116717e+02	-7.892750e-03
2.128943e+02	-7.984105e-03
2.141240e+02	-8.076517e-03
2.153608e+02	-8.169997e-03
2.166047e+02	-8.264558e-03
2.178558e+02	-8.360213e-03
2.191141e+02	-8.456974e-03
2.203797e+02	-8.554853e-03
2.216526e+02	-8.653864e-03
2.229329e+02	-8.754020e-03
2.242205e+02	-8.855334e-03
2.255156e+02	-8.957819e-03
2.268182e+02	-9.061489e-03
2.281283e+02	-9.166358e-03
2.294459e+02	-9.272439e-03
2.307712e+02	-9.379746e-03
2.321041e+02	-9.488294e-03
2.334447e+02	-9.598096e-03
2.347931e+02	-9.709168e-03
2.361493e+02	-9.821524e-03
2.375133e+02	-9.935178e-03
2.388851e+02	-1.005015e-02
2.402649e+02	-1.016644e-02
2.416527e+02	-1.028408e-02
2.430484e+02	-1.040308e-02
2.444523e+02	-1.052346e-02
2.458642e+02	-1.064523e-02
2.472843e+02	-1.076840e-02
2.487126e+02	-1.089300e-02
2.501492e+02	-1.101904e-02
2.515940e+02	-1.114653e-02
2.530472e+02	-1.127550e-02
2.545088e+02	-1.140596e-02
2.559789e+02	-1.153792e-02
2.574574e+02	-1.167141e-02
2.589444e+02	-1.180644e-02
2.604401e+02	-1.194303e-02
2.619444e+02	-1.208120e-02
2.634574e+02	-1.222097e-02
2.649791e+02	-1.236235e-02
2.665096e+02	-1.250537e-02
2.680489e+02	-1.265003e-02
2.695972e+02	-1.279637e-02
2.711544e+02	-1.294440e-02
2.727205e+02	-1.309413e-02
2.742958e+02	-1.324560e-02
2.758801e+02	-1.339882e-02
2.774736e+02	-1.355380e-02
2.790762e+02	-1.371058e-02
2.806882e+02	-1.386916e-02
2.823094e+02	-1.402958e-02
2.839400e+02	-1.419185e-02
2.855800e+02	-1.435599e-02
2.872295e+02	-1.452203e-02
2.888886e+02	-1.468999e-02
2.905572e+02	-1.485988e-02
2.922354e+02	-1.503174e-02
2.939234e+02	-1.520558e-02
2.956211e+02	-1.538143e-02
2.973286e+02	-1.555931e-02
2.990459e+02	-1.573924e-02
3.007732e+02	-1.592125e-02
3.025104e+02	-1.610535e-02
3.042577e+02	-1.629159e-02
3.060151e+02	-1.647997e-02
3.077826e+02	-1.667053e-02
3.095604e+02	-1.686328e-02
3.113484e+02	-1.705826e-02
3.131467e+02	-1.725550e-02
3.149554e+02	-1.745500e-02
3.167746e+02	-1.765681e-02
3.186043e+02	-1.786095e-02
3.204445e+02	-1.806744e-02
3.222954e+02	-1.827631e-02
3.241570e+02	-1.848760e-02
3.260293e+02	-1.870132e-02
3.279124e+02	-1.891750e-02
3.298064e+02	-1.913618e-02
3.317114e+02	-1.935738e-02
3.336273e+02	-1.958114e-02
3.355544e+02	-1.980747e-02
3.374925e+02	-2.003641e-02
3.394418e+02	-2.026800e-02
3.414024e+02	-2.050225e-02
3.433744e+02	-2.073921e-02
3.453577e+02	-2.097889e-02
3.473525e+02	-2.122134e-02
3.493588e+02	-2.146659e-02
3.513766e+02	-2.171466e-02
3.534062e+02	-2.196559e-02
3.554474e+02	-2.221942e-02
3.575005e+02	-2.247617e-02
3.595654e+02	-2.273588e-02
3.616422e+02	-2.299858e-02
3.637311e+02	-2.326431e-02
3.658320e+02	-2.353310e-02
3.679450e+02	-2.380498e-02
3.700702e+02	-2.408000e-02
3.722077e+02	-2.435819e-02
3.743576e+02	-2.463958e-02
3.765199e+02	-2.492422e-02
3.786946e+02	-2.521213e-02
3.808820e+02	-2.550336e-02
3.830819e+02	-2.579794e-02
3.852946e+02	-2.609592e-02
3.875200e+02	-2.639732e-02
3.897583e+02	-2.670220e-02
3.920096e+02	-2.701059e-02
3.942738e+02	-2.732253e-02
3.965511e+02	-2.763805e-02
3.988416e+02	-2.795721e-02
4.011452e+02	-2.828005e-02
4.034622e+02	-2.860660e-02
4.057926e+02	-2.893691e-02
4.081365e+02	-2.927101e-02
4.104938e+02	-2.960897e-02
4.128648e+02	-2.995081e-02
4.152495e+02	-3.029658e-02
4.176480e+02	-3.064633e-02
4.200603e+02	-3.100011e-02
4.224866e+02	-3.135795e-02
4.249268e+02	-3.171991e-02
4.273812e+02	-3.208604e-02
4.298497e+02	-3.245637e-02
4.323325e+02	-3.283096e-02
4.348297e+02	-3.320986e-02
4.373412e+02	-3.359311e-02
4.398673e+02	-3.398077e-02
4.424079e+02	-3.437288e-02
4.449633e+02	-3.476950e-02
4.475334e+02	-3.517068e-02
4.501183e+02	-3.557647e-02
4.527182e+02	-3.598692e-02
4.553330e+02	-3.640209e-02
4.579630e+02	-3.682202e-02
4.606082e+02	-3.724678e-02
4.632687e+02	-3.767642e-02
4.659445e+02	-3.811099e-02
4.686358e+02	-3.855055e-02
4.713426e+02	-3.899516e-02
4.740650e+02	-3.944487e-02
4.768032e+02	-3.989975e-02
4.795572e+02	-4.035984e-02
4.823271e+02	-4.082522e-02
4.851130e+02	-4.129594e-02
4.879150e+02	-4.177206e-02
4.907332e+02	-4.225364e-02
4.935676e+02	-4.274074e-02
4.964185e+02	-4.323344e-02
4.992858e+02	-4.373178e-02
5.021696e+02	-4.423584e-02
5.050701e+02	-4.474568e-02
5.079874e+02	-4.526136e-02
5.109215e+02	-4.578296e-02
5.138726e+02	-4.631053e-02
5.168407e+02	-4.684415e-02
5.198259e+02	-4.738389e-02
5.228284e+02	-4.792981e-02
5.258482e+02	-4.848198e-02
5.288855e+02	-4.904048e-02
5.319403e+02	-4.960538e-02
5.350128e+02	-5.017675e-02
5.381030e+02	-5.075466e-02
5.412111e+02	-5.133918e-02
5.443371e+02	-5.193040e-02
5.474812e+02	-5.252838e-02
5.506434e+02	-5.313321e-02
5.538239e+02	-5.374496e-02
5.570228e+02	-5.436371e-02
5.602401e+02	-5.498953e-02
5.634760e+02	-5.562251e-02
5.667306e+02	-5.626274e-02
5.700040e+02	-5.691028e-02
5.732964e+02	-5.756523e-02
5.766077e+02	-5.822766e-02
5.799382e+02	-5.889766e-02
5.832879e+02	-5.957533e-02
5.866569e+02	-6.026073e-02
5.900454e+02	-6.095396e-02
5.934535e+02	-6.165511e-02
5.968813e+02	-6.236427e-02
6.003288e+02	-6.308153e-02
6.037963e+02	-6.380697e-02
6.072838e+02	-6.454070e-02
6.107914e+02	-6.528280e-02
6.143194e+02	-6.603336e-02
6.178676e+02	-6.679249e-02
6.214364e+02	-6.756028e-02
6.250258e+02	-6.833682e-02
6.286359e+02	-6.912222e-02
6.322669e+02	-6.991657e-02
6.359189e+02	-7.071998e-02
6.395919e+02	-7.153254e-02
6.432862e+02	-7.235436e-02
6.470017e+02	-7.318554e-02
6.507388e+02	-7.402619e-02
6.544974e+02	-7.487641e-02
6.582778e+02	-7.573632e-02
6.620800e+02	-7.660600e-02
6.659041e+02	-7.748559e-02
6.697504e+02	-7.837519e-02
6.736188e+02	-7.927490e-02
6.775096e+02	-8.018485e-02
6.814229e+02	-8.110514e-02
6.853587e+02	-8.203590e-02
6.893173e+02	-8.297723e-02
6.932988e+02	-8.392927e-02
6.973033e+02	-8.489212e-02
7.013309e+02	-8.586590e-02
