Frequency(Hz)	Magnitude(dB)
1.000000e+01	-2.108811e+00
1.005776e+01	-2.127872e+00
1.011585e+01	-2.147493e+00
1.017428e+01	-2.167176e+00
1.023305e+01	-2.186990e+00
1.029215e+01	-2.206619e+00
1.035160e+01	-2.226624e+00
1.041139e+01	-2.246828e+00
1.047153e+01	-2.267089e+00
1.053201e+01	-2.287588e+00
1.059284e+01	-2.308085e+00
1.065403e+01	-2.328832e+00
1.071556e+01	-2.349643e+00
1.077746e+01	-2.370654e+00
1.083971e+01	-2.391689e+00
1.090232e+01	-2.412899e+00
1.096529e+01	-2.434398e+00
1.102862e+01	-2.455950e+00
1.109232e+01	-2.477471e+00
1.115639e+01	-2.499340e+00
1.122083e+01	-2.521283e+00
1.128564e+01	-2.543450e+00
1.135083e+01	-2.565652e+00
1.141639e+01	-2.588123e+00
1.148233e+01	-2.610499e+00
1.154865e+01	-2.633403e+00
1.161536e+01	-2.656153e+00
1.168245e+01	-2.679010e+00
1.174992e+01	-2.702153e+00
1.181779e+01	-2.725474e+00
1.188605e+01	-2.748783e+00
1.195470e+01	-2.772259e+00
1.202375e+01	-2.796301e+00
1.209320e+01	-2.819729e+00
1.216305e+01	-2.843724e+00
1.223330e+01	-2.867867e+00
1.230396e+01	-2.892139e+00
1.237503e+01	-2.916807e+00
1.244651e+01	-2.941060e+00
1.251840e+01	-2.965704e+00
1.259070e+01	-2.990572e+00
1.266343e+01	-3.015631e+00
1.273657e+01	-3.040750e+00
1.281014e+01	-3.065895e+00
1.288413e+01	-3.091263e+00
1.295855e+01	-3.116859e+00
1.303339e+01	-3.142429e+00
1.310867e+01	-3.168094e+00
1.318439e+01	-3.194455e+00
1.326054e+01	-3.220503e+00
1.333713e+01	-3.246658e+00
1.341417e+01	-3.273333e+00
1.349165e+01	-3.299633e+00
1.356958e+01	-3.326447e+00
1.364795e+01	-3.353330e+00
1.372678e+01	-3.380130e+00
1.380607e+01	-3.407122e+00
1.388581e+01	-3.434809e+00
1.396602e+01	-3.462078e+00
1.404668e+01	-3.489725e+00
1.412782e+01	-3.517473e+00
1.420942e+01	-3.545084e+00
1.429149e+01	-3.573207e+00
1.437404e+01	-3.601272e+00
1.445706e+01	-3.629504e+00
1.454057e+01	-3.658040e+00
1.462455e+01	-3.686710e+00
1.470902e+01	-3.715373e+00
1.479398e+01	-3.743891e+00
1.487943e+01	-3.773045e+00
1.496537e+01	-3.802104e+00
1.505181e+01	-3.831374e+00
1.513875e+01	-3.860537e+00
1.522619e+01	-3.890321e+00
1.531414e+01	-3.919958e+00
1.540259e+01	-3.949817e+00
1.549156e+01	-3.979610e+00
1.558103e+01	-4.009802e+00
1.567103e+01	-4.040077e+00
1.576155e+01	-4.070403e+00
1.585258e+01	-4.100791e+00
1.594415e+01	-4.131461e+00
1.603624e+01	-4.162381e+00
1.612886e+01	-4.193150e+00
1.622202e+01	-4.224155e+00
1.631572e+01	-4.255386e+00
1.640996e+01	-4.286730e+00
1.650474e+01	-4.318282e+00
1.660008e+01	-4.349699e+00
1.669596e+01	-4.381363e+00
1.679239e+01	-4.413395e+00
1.688938e+01	-4.445263e+00
1.698694e+01	-4.477303e+00
1.708505e+01	-4.509834e+00
1.718373e+01	-4.542031e+00
1.728299e+01	-4.574413e+00
1.738281e+01	-4.607437e+00
1.748322e+01	-4.639634e+00
1.758420e+01	-4.672831e+00
1.768576e+01	-4.705938e+00
1.778792e+01	-4.738871e+00
1.789066e+01	-4.772434e+00
1.799399e+01	-4.805770e+00
1.809793e+01	-4.839364e+00
1.820246e+01	-4.872982e+00
1.830760e+01	-4.906725e+00
1.841334e+01	-4.940839e+00
1.851969e+01	-4.974727e+00
1.862666e+01	-5.008906e+00
1.873425e+01	-5.043441e+00
1.884246e+01	-5.077927e+00
1.895129e+01	-5.112200e+00
1.906075e+01	-5.147021e+00
1.917085e+01	-5.181576e+00
1.928158e+01	-5.216664e+00
1.939295e+01	-5.251778e+00
1.950496e+01	-5.286863e+00
1.961762e+01	-5.322030e+00
1.973093e+01	-5.357483e+00
1.984490e+01	-5.393080e+00
1.995952e+01	-5.428451e+00
2.007480e+01	-5.464327e+00
2.019076e+01	-5.500140e+00
2.030738e+01	-5.536132e+00
2.042467e+01	-5.572461e+00
2.054264e+01	-5.608518e+00
2.066130e+01	-5.645260e+00
2.078064e+01	-5.681286e+00
2.090066e+01	-5.717795e+00
2.102139e+01	-5.754450e+00
2.114280e+01	-5.791202e+00
2.126492e+01	-5.828080e+00
2.138775e+01	-5.865167e+00
2.151128e+01	-5.902329e+00
2.163553e+01	-5.939704e+00
2.176050e+01	-5.976959e+00
2.188619e+01	-6.014311e+00
2.201260e+01	-6.051670e+00
2.213974e+01	-6.089655e+00
2.226762e+01	-6.127563e+00
2.239624e+01	-6.165182e+00
2.252560e+01	-6.203368e+00
2.265571e+01	-6.241578e+00
2.278656e+01	-6.279615e+00
2.291818e+01	-6.317968e+00
2.305055e+01	-6.356117e+00
2.318369e+01	-6.394862e+00
2.331760e+01	-6.432976e+00
2.345228e+01	-6.471766e+00
2.358774e+01	-6.510843e+00
2.372398e+01	-6.549551e+00
2.386101e+01	-6.588611e+00
2.399883e+01	-6.627820e+00
2.413745e+01	-6.667081e+00
2.427686e+01	-6.706456e+00
2.441709e+01	-6.745950e+00
2.455812e+01	-6.785241e+00
2.469997e+01	-6.824513e+00
2.484263e+01	-6.864310e+00
2.498612e+01	-6.904701e+00
2.513044e+01	-6.944108e+00
2.527559e+01	-6.984078e+00
2.542158e+01	-7.024096e+00
2.556842e+01	-7.064294e+00
2.571610e+01	-7.104495e+00
2.586463e+01	-7.144929e+00
2.601403e+01	-7.185571e+00
2.616428e+01	-7.225445e+00
2.631541e+01	-7.266488e+00
2.646740e+01	-7.307126e+00
2.662028e+01	-7.347952e+00
2.677404e+01	-7.388444e+00
2.692868e+01	-7.429204e+00
2.708422e+01	-7.470709e+00
2.724066e+01	-7.511644e+00
2.739800e+01	-7.552924e+00
2.755625e+01	-7.594066e+00
2.771541e+01	-7.635520e+00
2.787550e+01	-7.677108e+00
2.803650e+01	-7.718483e+00
2.819844e+01	-7.760191e+00
2.836131e+01	-7.801873e+00
2.852513e+01	-7.843360e+00
2.868989e+01	-7.885288e+00
2.885560e+01	-7.927107e+00
2.902227e+01	-7.969045e+00
2.918990e+01	-8.011256e+00
2.935850e+01	-8.053494e+00
2.952807e+01	-8.096150e+00
2.969863e+01	-8.138006e+00
2.987016e+01	-8.180540e+00
3.004269e+01	-8.222546e+00
3.021622e+01	-8.265518e+00
3.039075e+01	-8.307928e+00
3.056628e+01	-8.351039e+00
3.074283e+01	-8.393661e+00
3.092040e+01	-8.436550e+00
3.109900e+01	-8.479359e+00
3.127862e+01	-8.521877e+00
3.145929e+01	-8.565309e+00
3.164099e+01	-8.607894e+00
3.182375e+01	-8.651157e+00
3.200756e+01	-8.694741e+00
3.219244e+01	-8.737832e+00
3.237838e+01	-8.781510e+00
3.256540e+01	-8.825052e+00
3.275349e+01	-8.868408e+00
3.294268e+01	-8.911856e+00
3.313295e+01	-8.955573e+00
3.332433e+01	-8.999457e+00
3.351681e+01	-9.042955e+00
3.371040e+01	-9.086381e+00
3.390511e+01	-9.130934e+00
3.410094e+01	-9.174995e+00
3.429791e+01	-9.218868e+00
3.449601e+01	-9.262442e+00
3.469526e+01	-9.306970e+00
3.489566e+01	-9.350987e+00
3.509721e+01	-9.395281e+00
3.529993e+01	-9.439576e+00
3.550382e+01	-9.483895e+00
3.570889e+01	-9.528063e+00
3.591515e+01	-9.572861e+00
3.612259e+01	-9.617103e+00
3.633123e+01	-9.662107e+00
3.654108e+01	-9.706576e+00
3.675214e+01	-9.751205e+00
3.696442e+01	-9.795684e+00
3.717792e+01	-9.841069e+00
3.739266e+01	-9.886239e+00
3.760864e+01	-9.930848e+00
3.782587e+01	-9.975735e+00
3.804435e+01	-1.002039e+01
3.826409e+01	-1.006571e+01
3.848510e+01	-1.011096e+01
3.870739e+01	-1.015619e+01
3.893096e+01	-1.020143e+01
3.915583e+01	-1.024650e+01
3.938199e+01	-1.029147e+01
3.960946e+01	-1.033711e+01
3.983824e+01	-1.038308e+01
4.006834e+01	-1.042867e+01
4.029978e+01	-1.047344e+01
4.053255e+01	-1.051927e+01
4.076666e+01	-1.056504e+01
4.100213e+01	-1.061042e+01
4.123896e+01	-1.065647e+01
4.147715e+01	-1.070173e+01
4.171672e+01	-1.074790e+01
4.195767e+01	-1.079366e+01
4.220002e+01	-1.083935e+01
4.244377e+01	-1.088550e+01
4.268892e+01	-1.093157e+01
4.293549e+01	-1.097714e+01
4.318348e+01	-1.102339e+01
4.343291e+01	-1.106979e+01
4.368377e+01	-1.111551e+01
4.393609e+01	-1.116167e+01
4.418986e+01	-1.120845e+01
4.444510e+01	-1.125420e+01
4.470182e+01	-1.130055e+01
4.496001e+01	-1.134749e+01
4.521970e+01	-1.139307e+01
4.548089e+01	-1.143945e+01
4.574358e+01	-1.148584e+01
4.600779e+01	-1.153336e+01
4.627353e+01	-1.157899e+01
4.654081e+01	-1.162536e+01
4.680963e+01	-1.167299e+01
4.708000e+01	-1.171939e+01
4.735193e+01	-1.176535e+01
4.762543e+01	-1.181198e+01
4.790051e+01	-1.185904e+01
4.817719e+01	-1.190568e+01
4.845545e+01	-1.195235e+01
4.873533e+01	-1.200033e+01
4.901682e+01	-1.204668e+01
4.929994e+01	-1.209340e+01
4.958470e+01	-1.214035e+01
4.987110e+01	-1.218731e+01
5.015915e+01	-1.223446e+01
5.044887e+01	-1.228131e+01
5.074026e+01	-1.232845e+01
5.103333e+01	-1.237499e+01
5.132810e+01	-1.242269e+01
5.162457e+01	-1.246980e+01
5.192275e+01	-1.251688e+01
5.222265e+01	-1.256482e+01
5.252429e+01	-1.261143e+01
5.282767e+01	-1.265912e+01
5.313280e+01	-1.270632e+01
5.343969e+01	-1.275414e+01
5.374836e+01	-1.280129e+01
5.405880e+01	-1.284865e+01
5.437105e+01	-1.289605e+01
5.468509e+01	-1.294395e+01
5.500095e+01	-1.299081e+01
5.531863e+01	-1.303805e+01
5.563815e+01	-1.308582e+01
5.595951e+01	-1.313303e+01
5.628273e+01	-1.318138e+01
5.660782e+01	-1.322921e+01
5.693479e+01	-1.327542e+01
5.726364e+01	-1.332437e+01
5.759439e+01	-1.337168e+01
5.792705e+01	-1.341981e+01
5.826164e+01	-1.346776e+01
5.859815e+01	-1.351540e+01
5.893662e+01	-1.356338e+01
5.927703e+01	-1.361140e+01
5.961941e+01	-1.365899e+01
5.996377e+01	-1.370643e+01
6.031012e+01	-1.375486e+01
6.065847e+01	-1.380253e+01
6.100883e+01	-1.384996e+01
6.136121e+01	-1.389857e+01
6.171563e+01	-1.394611e+01
6.207210e+01	-1.399436e+01
6.243063e+01	-1.404287e+01
6.279122e+01	-1.409051e+01
6.315390e+01	-1.413857e+01
6.351868e+01	-1.418711e+01
6.388556e+01	-1.423528e+01
6.425456e+01	-1.428259e+01
6.462569e+01	-1.433096e+01
6.499897e+01	-1.437955e+01
6.537440e+01	-1.442760e+01
6.575200e+01	-1.447572e+01
6.613178e+01	-1.452363e+01
6.651375e+01	-1.457191e+01
6.689793e+01	-1.462074e+01
6.728433e+01	-1.466959e+01
6.767297e+01	-1.471651e+01
6.806384e+01	-1.476581e+01
6.845698e+01	-1.481321e+01
6.885238e+01	-1.486213e+01
6.925007e+01	-1.491113e+01
6.965005e+01	-1.495854e+01
7.005235e+01	-1.500793e+01
7.045697e+01	-1.505505e+01
7.086393e+01	-1.510348e+01
7.127323e+01	-1.515285e+01
7.168490e+01	-1.520084e+01
7.209895e+01	-1.525073e+01
7.251539e+01	-1.529832e+01
7.293424e+01	-1.534731e+01
7.335551e+01	-1.539579e+01
7.377920e+01	-1.544528e+01
7.420535e+01	-1.549208e+01
7.463396e+01	-1.554185e+01
7.506504e+01	-1.559061e+01
7.549861e+01	-1.563872e+01
7.593469e+01	-1.568732e+01
7.637328e+01	-1.573620e+01
7.681441e+01	-1.578495e+01
7.725809e+01	-1.583360e+01
7.770433e+01	-1.588266e+01
7.815315e+01	-1.593045e+01
7.860456e+01	-1.597972e+01
7.905857e+01	-1.602867e+01
7.951521e+01	-1.607780e+01
7.997449e+01	-1.612604e+01
8.043642e+01	-1.617478e+01
8.090102e+01	-1.622341e+01
8.136830e+01	-1.627141e+01
8.183828e+01	-1.632166e+01
8.231097e+01	-1.637007e+01
8.278640e+01	-1.641977e+01
8.326457e+01	-1.646877e+01
8.374550e+01	-1.651689e+01
8.422921e+01	-1.656728e+01
8.471572e+01	-1.661516e+01
8.520503e+01	-1.666383e+01
8.569717e+01	-1.671316e+01
8.619215e+01	-1.676093e+01
8.669000e+01	-1.681058e+01
8.719071e+01	-1.686084e+01
8.769432e+01	-1.690818e+01
8.820084e+01	-1.695773e+01
8.871029e+01	-1.700690e+01
8.922267e+01	-1.705640e+01
8.973802e+01	-1.710604e+01
9.025634e+01	-1.715443e+01
9.077766e+01	-1.720343e+01
9.130199e+01	-1.725240e+01
9.182935e+01	-1.730193e+01
9.235975e+01	-1.735105e+01
9.289321e+01	-1.740132e+01
9.342976e+01	-1.744892e+01
9.396941e+01	-1.749760e+01
9.451217e+01	-1.754708e+01
9.505807e+01	-1.759574e+01
9.560712e+01	-1.764486e+01
9.615934e+01	-1.769431e+01
9.671476e+01	-1.774313e+01
9.727338e+01	-1.779288e+01
9.783522e+01	-1.784189e+01
9.840032e+01	-1.789174e+01
9.896867e+01	-1.794072e+01
9.954031e+01	-1.798993e+01
1.001153e+02	-1.803819e+01
1.006935e+02	-1.808815e+01
1.012751e+02	-1.813894e+01
1.018601e+02	-1.818655e+01
1.024484e+02	-1.823606e+01
1.030402e+02	-1.828537e+01
1.036353e+02	-1.833501e+01
1.042339e+02	-1.838400e+01
1.048360e+02	-1.843318e+01
1.054415e+02	-1.848246e+01
1.060505e+02	-1.853178e+01
1.066631e+02	-1.858141e+01
1.072791e+02	-1.863108e+01
1.078988e+02	-1.868033e+01
1.085220e+02	-1.872944e+01
1.091488e+02	-1.877693e+01
1.097793e+02	-1.882861e+01
1.104133e+02	-1.887735e+01
1.110511e+02	-1.892631e+01
1.116925e+02	-1.897599e+01
1.123376e+02	-1.902515e+01
1.129865e+02	-1.907542e+01
1.136391e+02	-1.912403e+01
1.142955e+02	-1.917296e+01
1.149556e+02	-1.922245e+01
1.156196e+02	-1.927156e+01
1.162874e+02	-1.932137e+01
1.169591e+02	-1.937255e+01
1.176347e+02	-1.942070e+01
1.183141e+02	-1.947002e+01
1.189975e+02	-1.951916e+01
1.196848e+02	-1.956932e+01
1.203761e+02	-1.961937e+01
1.210714e+02	-1.966864e+01
1.217707e+02	-1.971936e+01
1.224740e+02	-1.976762e+01
1.231814e+02	-1.981703e+01
1.238929e+02	-1.986784e+01
1.246085e+02	-1.991601e+01
1.253283e+02	-1.996452e+01
1.260522e+02	-2.001398e+01
1.267802e+02	-2.006412e+01
1.275125e+02	-2.011352e+01
1.282490e+02	-2.016388e+01
1.289898e+02	-2.021245e+01
1.297348e+02	-2.026288e+01
1.304842e+02	-2.031272e+01
1.312378e+02	-2.036156e+01
1.319959e+02	-2.041300e+01
1.327583e+02	-2.046132e+01
1.335251e+02	-2.050902e+01
1.342963e+02	-2.056157e+01
1.350720e+02	-2.061039e+01
1.358522e+02	-2.065833e+01
1.366368e+02	-2.070920e+01
1.374260e+02	-2.075743e+01
1.382198e+02	-2.080761e+01
1.390182e+02	-2.085978e+01
1.398211e+02	-2.090615e+01
1.406287e+02	-2.095816e+01
1.414410e+02	-2.100832e+01
1.422579e+02	-2.105679e+01
1.430796e+02	-2.110579e+01
1.439060e+02	-2.115579e+01
1.447372e+02	-2.120588e+01
1.455732e+02	-2.125546e+01
1.464141e+02	-2.130562e+01
1.472597e+02	-2.135734e+01
1.481103e+02	-2.140397e+01
1.489658e+02	-2.145524e+01
1.498262e+02	-2.150463e+01
1.506916e+02	-2.155481e+01
1.515620e+02	-2.160228e+01
1.524374e+02	-2.165249e+01
1.533179e+02	-2.170281e+01
1.542034e+02	-2.175033e+01
1.550941e+02	-2.180036e+01
1.559899e+02	-2.185076e+01
1.568909e+02	-2.190056e+01
1.577971e+02	-2.195181e+01
1.587085e+02	-2.200301e+01
1.596252e+02	-2.204869e+01
1.605472e+02	-2.209906e+01
1.614745e+02	-2.214998e+01
1.624072e+02	-2.220077e+01
1.633453e+02	-2.224870e+01
1.642887e+02	-2.229867e+01
1.652377e+02	-2.234741e+01
1.661921e+02	-2.239867e+01
1.671520e+02	-2.244891e+01
1.681175e+02	-2.249747e+01
1.690885e+02	-2.254848e+01
1.700651e+02	-2.259879e+01
1.710474e+02	-2.264654e+01
1.720354e+02	-2.269693e+01
1.730291e+02	-2.274721e+01
1.740285e+02	-2.279669e+01
1.750337e+02	-2.284744e+01
1.760446e+02	-2.289363e+01
1.770615e+02	-2.294548e+01
1.780842e+02	-2.299560e+01
1.791128e+02	-2.304510e+01
1.801473e+02	-2.309391e+01
1.811878e+02	-2.314654e+01
1.822344e+02	-2.319527e+01
1.832870e+02	-2.324567e+01
1.843456e+02	-2.329305e+01
1.854104e+02	-2.334747e+01
1.864813e+02	-2.339560e+01
1.875584e+02	-2.344249e+01
1.886418e+02	-2.349571e+01
1.897313e+02	-2.354396e+01
1.908272e+02	-2.359437e+01
1.919294e+02	-2.364482e+01
1.930380e+02	-2.369315e+01
1.941530e+02	-2.374594e+01
1.952744e+02	-2.379420e+01
1.964023e+02	-2.384422e+01
1.975367e+02	-2.389241e+01
1.986777e+02	-2.394342e+01
1.998252e+02	-2.399441e+01
2.009794e+02	-2.404101e+01
2.021403e+02	-2.409253e+01
2.033078e+02	-2.414144e+01
2.044821e+02	-2.419346e+01
2.056632e+02	-2.423993e+01
2.068511e+02	-2.429399e+01
2.080459e+02	-2.434356e+01
2.092475e+02	-2.438930e+01
2.104561e+02	-2.444161e+01
2.116717e+02	-2.449107e+01
2.128943e+02	-2.454236e+01
2.141240e+02	-2.458771e+01
2.153608e+02	-2.463943e+01
2.166047e+02	-2.469076e+01
2.178558e+02	-2.474197e+01
2.191141e+02	-2.479034e+01
2.203797e+02	-2.484043e+01
2.216526e+02	-2.489161e+01
2.229329e+02	-2.493971e+01
2.242205e+02	-2.498863e+01
2.255156e+02	-2.504009e+01
2.268182e+02	-2.508996e+01
2.281283e+02	-2.513909e+01
2.294459e+02	-2.519128e+01
2.307712e+02	-2.523976e+01
2.321041e+02	-2.528833e+01
2.334447e+02	-2.533955e+01
2.347931e+02	-2.538844e+01
2.361493e+02	-2.543714e+01
2.375133e+02	-2.549044e+01
2.388851e+02	-2.553693e+01
2.402649e+02	-2.558972e+01
2.416527e+02	-2.564338e+01
2.430484e+02	-2.568740e+01
2.444523e+02	-2.573594e+01
2.458642e+02	-2.578837e+01
2.472843e+02	-2.583651e+01
2.487126e+02	-2.588917e+01
2.501492e+02	-2.593996e+01
2.515940e+02	-2.599014e+01
2.530472e+02	-2.603921e+01
2.545088e+02	-2.608996e+01
2.559789e+02	-2.613768e+01
2.574574e+02	-2.618626e+01
2.589444e+02	-2.623851e+01
2.604401e+02	-2.629140e+01
2.619444e+02	-2.633788e+01
2.634574e+02	-2.639306e+01
2.649791e+02	-2.644142e+01
2.665096e+02	-2.648750e+01
2.680489e+02	-2.653792e+01
2.695972e+02	-2.659107e+01
2.711544e+02	-2.664050e+01
2.727205e+02	-2.669191e+01
2.742958e+02	-2.673732e+01
2.758801e+02	-2.678800e+01
2.774736e+02	-2.683902e+01
2.790762e+02	-2.688756e+01
2.806882e+02	-2.693602e+01
2.823094e+02	-2.699055e+01
2.839400e+02	-2.703686e+01
2.855800e+02	-2.708754e+01
2.872295e+02	-2.713585e+01
2.888886e+02	-2.718952e+01
2.905572e+02	-2.723649e+01
2.922354e+02	-2.728842e+01
2.939234e+02	-2.733781e+01
2.956211e+02	-2.738518e+01
2.973286e+02	-2.743747e+01
2.990459e+02	-2.748910e+01
3.007732e+02	-2.753586e+01
3.025104e+02	-2.758819e+01
3.042577e+02	-2.763375e+01
3.060151e+02	-2.768870e+01
3.077826e+02	-2.773606e+01
3.095604e+02	-2.778762e+01
3.113484e+02	-2.784224e+01
3.131467e+02	-2.788643e+01
3.149554e+02	-2.793851e+01
3.167746e+02	-2.799060e+01
3.186043e+02	-2.803719e+01
3.204445e+02	-2.808711e+01
3.222954e+02	-2.813619e+01
3.241570e+02	-2.818856e+01
3.260293e+02	-2.823828e+01
3.279124e+02	-2.828578e+01
3.298064e+02	-2.833733e+01
3.317114e+02	-2.838685e+01
3.336273e+02	-2.843796e+01
3.355544e+02	-2.848796e+01
3.374925e+02	-2.853553e+01
3.394418e+02	-2.858775e+01
3.414024e+02	-2.864172e+01
3.433744e+02	-2.868644e+01
3.453577e+02	-2.873894e+01
3.473525e+02	-2.878846e+01
3.493588e+02	-2.883972e+01
3.513766e+02	-2.889007e+01
3.534062e+02	-2.893979e+01
3.554474e+02	-2.898797e+01
3.575005e+02	-2.903494e+01
3.595654e+02	-2.909064e+01
3.616422e+02	-2.913368e+01
3.637311e+02	-2.919281e+01
3.658320e+02	-2.923459e+01
3.679450e+02	-2.929223e+01
3.700702e+02	-2.933682e+01
3.722077e+02	-2.938667e+01
3.743576e+02	-2.943729e+01
3.765199e+02	-2.948727e+01
3.786946e+02	-2.954237e+01
3.808820e+02	-2.959035e+01
3.830819e+02	-2.964350e+01
3.852946e+02	-2.969038e+01
3.875200e+02	-2.974047e+01
3.897583e+02	-2.979434e+01
3.920096e+02	-2.983933e+01
3.942738e+02	-2.988769e+01
3.965511e+02	-2.994014e+01
3.988416e+02	-2.998832e+01
4.011452e+02	-3.003960e+01
4.034622e+02	-3.009359e+01
4.057926e+02	-3.014152e+01
4.081365e+02	-3.019278e+01
4.104938e+02	-3.024661e+01
4.128648e+02	-3.029254e+01
4.152495e+02	-3.033527e+01
4.176480e+02	-3.039099e+01
4.200603e+02	-3.044150e+01
4.224866e+02	-3.049078e+01
4.249268e+02	-3.054604e+01
4.273812e+02	-3.059489e+01
4.298497e+02	-3.064040e+01
4.323325e+02	-3.069383e+01
4.348297e+02	-3.074303e+01
4.373412e+02	-3.079432e+01
4.398673e+02	-3.083574e+01
4.424079e+02	-3.089253e+01
4.449633e+02	-3.094144e+01
4.475334e+02	-3.099189e+01
4.501183e+02	-3.104825e+01
4.527182e+02	-3.108611e+01
4.553330e+02	-3.114553e+01
4.579630e+02	-3.119967e+01
4.606082e+02	-3.123972e+01
4.632687e+02	-3.129250e+01
4.659445e+02	-3.134365e+01
4.686358e+02	-3.139552e+01
4.713426e+02	-3.144824e+01
4.740650e+02	-3.149409e+01
4.768032e+02	-3.154774e+01
4.795572e+02	-3.160025e+01
4.823271e+02	-3.164132e+01
4.851130e+02	-3.169374e+01
4.879150e+02	-3.174475e+01
4.907332e+02	-3.178839e+01
4.935676e+02	-3.185104e+01
4.964185e+02	-3.188829e+01
4.992858e+02	-3.194813e+01
5.021696e+02	-3.199577e+01
5.050701e+02	-3.204994e+01
5.079874e+02	-3.210016e+01
5.109215e+02	-3.214341e+01
5.138726e+02	-3.219428e+01
5.168407e+02	-3.224578e+01
5.198259e+02	-3.230939e+01
5.228284e+02	-3.234936e+01
5.258482e+02	-3.239333e+01
5.288855e+02	-3.244489e+01
5.319403e+02	-3.249709e+01
5.350128e+02	-3.255104e+01
5.381030e+02	-3.260636e+01
5.412111e+02	-3.265236e+01
5.443371e+02	-3.269994e+01
5.474812e+02	-3.274737e+01
5.506434e+02	-3.279923e+01
5.538239e+02	-3.285350e+01
5.570228e+02	-3.289923e+01
5.602401e+02	-3.295414e+01
5.634760e+02	-3.299868e+01
5.667306e+02	-3.304830e+01
5.700040e+02	-3.309515e+01
5.732964e+02	-3.315037e+01
5.766077e+02	-3.320751e+01
5.799382e+02	-3.325163e+01
5.832879e+02	-3.330362e+01
5.866569e+02	-3.335027e+01
5.900454e+02	-3.340873e+01
5.934535e+02	-3.345848e+01
5.968813e+02	-3.350506e+01
6.003288e+02	-3.355460e+01
6.037963e+02	-3.361794e+01
6.072838e+02	-3.365456e+01
6.107914e+02	-3.371075e+01
6.143194e+02	-3.375374e+01
6.178676e+02	-3.380747e+01
6.214364e+02	-3.385513e+01
6.250258e+02	-3.391051e+01
6.286359e+02	-3.395974e+01
6.322669e+02	-3.400560e+01
6.359189e+02	-3.404872e+01
6.395919e+02	-3.410951e+01
6.432862e+02	-3.415172e+01
6.470017e+02	-3.420820e+01
6.507388e+02	-3.426171e+01
6.544974e+02	-3.431044e+01
6.582778e+02	-3.436549e+01
6.620800e+02	-3.441823e+01
6.659041e+02	-3.445769e+01
6.697504e+02	-3.451033e+01
6.736188e+02	-3.456136e+01
6.775096e+02	-3.461263e+01
6.814229e+02	-3.466556e+01
6.853587e+02	-3.471591e+01
6.893173e+02	-3.477005e+01
6.932988e+02	-3.481869e+01
6.973033e+02	-3.486382e+01
7.013309e+02	-3.491734e+01
