Frequency(Hz)	Magnitude(dB)
1.000000e+01	-1.574839e-05
1.005776e+01	-1.593084e-05
1.011585e+01	-1.611540e-05
1.017428e+01	-1.630210e-05
1.023305e+01	-1.649097e-05
1.029215e+01	-1.668202e-05
1.035160e+01	-1.687529e-05
1.041139e+01	-1.707079e-05
1.047153e+01	-1.726856e-05
1.053201e+01	-1.746862e-05
1.059284e+01	-1.767100e-05
1.065403e+01	-1.787572e-05
1.071556e+01	-1.808282e-05
1.077746e+01	-1.829231e-05
1.083971e+01	-1.850423e-05
1.090232e+01	-1.871861e-05
1.096529e+01	-1.893547e-05
1.102862e+01	-1.915484e-05
1.109232e+01	-1.937675e-05
1.115639e+01	-1.960124e-05
1.122083e+01	-1.982832e-05
1.128564e+01	-2.005804e-05
1.135083e+01	-2.029042e-05
1.141639e+01	-2.052549e-05
1.148233e+01	-2.076328e-05
1.154865e+01	-2.100383e-05
1.161536e+01	-2.124716e-05
1.168245e+01	-2.149332e-05
1.174992e+01	-2.174232e-05
1.181779e+01	-2.199421e-05
1.188605e+01	-2.224902e-05
1.195470e+01	-2.250678e-05
1.202375e+01	-2.276753e-05
1.209320e+01	-2.303130e-05
1.216305e+01	-2.329812e-05
1.223330e+01	-2.356803e-05
1.230396e+01	-2.384107e-05
1.237503e+01	-2.411728e-05
1.244651e+01	-2.439668e-05
1.251840e+01	-2.467933e-05
1.259070e+01	-2.496524e-05
1.266343e+01	-2.525447e-05
1.273657e+01	-2.554705e-05
1.281014e+01	-2.584302e-05
1.288413e+01	-2.614242e-05
1.295855e+01	-2.644528e-05
1.303339e+01	-2.675166e-05
1.310867e+01	-2.706158e-05
1.318439e+01	-2.737510e-05
1.326054e+01	-2.769224e-05
1.333713e+01	-2.801307e-05
1.341417e+01	-2.833760e-05
1.349165e+01	-2.866590e-05
1.356958e+01	-2.899800e-05
1.364795e+01	-2.933395e-05
1.372678e+01	-2.967379e-05
1.380607e+01	-3.001757e-05
1.388581e+01	-3.036533e-05
1.396602e+01	-3.071712e-05
1.404668e+01	-3.107299e-05
1.412782e+01	-3.143297e-05
1.420942e+01	-3.179713e-05
1.429149e+01	-3.216551e-05
1.437404e+01	-3.253816e-05
1.445706e+01	-3.291512e-05
1.454057e+01	-3.329645e-05
1.462455e+01	-3.368219e-05
1.470902e+01	-3.407241e-05
1.479398e+01	-3.446715e-05
1.487943e+01	-3.486646e-05
1.496537e+01	-3.527039e-05
1.505181e+01	-3.567901e-05
1.513875e+01	-3.609236e-05
1.522619e+01	-3.651050e-05
1.531414e+01	-3.693348e-05
1.540259e+01	-3.736136e-05
1.549156e+01	-3.779420e-05
1.558103e+01	-3.823206e-05
1.567103e+01	-3.867498e-05
1.576155e+01	-3.912304e-05
1.585258e+01	-3.957629e-05
1.594415e+01	-4.003479e-05
1.603624e+01	-4.049860e-05
1.612886e+01	-4.096779e-05
1.622202e+01	-4.144241e-05
1.631572e+01	-4.192253e-05
1.640996e+01	-4.240821e-05
1.650474e+01	-4.289952e-05
1.660008e+01	-4.339652e-05
1.669596e+01	-4.389928e-05
1.679239e+01	-4.440786e-05
1.688938e+01	-4.492234e-05
1.698694e+01	-4.544277e-05
1.708505e+01	-4.596924e-05
1.718373e+01	-4.650180e-05
1.728299e+01	-4.704053e-05
1.738281e+01	-4.758551e-05
1.748322e+01	-4.813680e-05
1.758420e+01	-4.869447e-05
1.768576e+01	-4.925861e-05
1.778792e+01	-4.982928e-05
1.789066e+01	-5.040656e-05
1.799399e+01	-5.099053e-05
1.809793e+01	-5.158127e-05
1.820246e+01	-5.217885e-05
1.830760e+01	-5.278335e-05
1.841334e+01	-5.339486e-05
1.851969e+01	-5.401345e-05
1.862666e+01	-5.463920e-05
1.873425e+01	-5.527221e-05
1.884246e+01	-5.591255e-05
1.895129e+01	-5.656031e-05
1.906075e+01	-5.721557e-05
1.917085e+01	-5.787843e-05
1.928158e+01	-5.854896e-05
1.939295e+01	-5.922726e-05
1.950496e+01	-5.991342e-05
1.961762e+01	-6.060753e-05
1.973093e+01	-6.130968e-05
1.984490e+01	-6.201996e-05
1.995952e+01	-6.273848e-05
2.007480e+01	-6.346532e-05
2.019076e+01	-6.420057e-05
2.030738e+01	-6.494435e-05
2.042467e+01	-6.569674e-05
2.054264e+01	-6.645785e-05
2.066130e+01	-6.722778e-05
2.078064e+01	-6.800662e-05
2.090066e+01	-6.879449e-05
2.102139e+01	-6.959149e-05
2.114280e+01	-7.039772e-05
2.126492e+01	-7.121329e-05
2.138775e+01	-7.203831e-05
2.151128e+01	-7.287289e-05
2.163553e+01	-7.371713e-05
2.176050e+01	-7.457116e-05
2.188619e+01	-7.543508e-05
2.201260e+01	-7.630901e-05
2.213974e+01	-7.719306e-05
2.226762e+01	-7.808736e-05
2.239624e+01	-7.899201e-05
2.252560e+01	-7.990715e-05
2.265571e+01	-8.083289e-05
2.278656e+01	-8.176935e-05
2.291818e+01	-8.271666e-05
2.305055e+01	-8.367495e-05
2.318369e+01	-8.464434e-05
2.331760e+01	-8.562496e-05
2.345228e+01	-8.661693e-05
2.358774e+01	-8.762041e-05
2.372398e+01	-8.863550e-05
2.386101e+01	-8.966236e-05
2.399883e+01	-9.070111e-05
2.413745e+01	-9.175190e-05
2.427686e+01	-9.281486e-05
2.441709e+01	-9.389013e-05
2.455812e+01	-9.497786e-05
2.469997e+01	-9.607820e-05
2.484263e+01	-9.719128e-05
2.498612e+01	-9.831725e-05
2.513044e+01	-9.945627e-05
2.527559e+01	-1.006085e-04
2.542158e+01	-1.017741e-04
2.556842e+01	-1.029531e-04
2.571610e+01	-1.041458e-04
2.586463e+01	-1.053524e-04
2.601403e+01	-1.065729e-04
2.616428e+01	-1.078076e-04
2.631541e+01	-1.090565e-04
2.646740e+01	-1.103200e-04
2.662028e+01	-1.115980e-04
2.677404e+01	-1.128909e-04
2.692868e+01	-1.141988e-04
2.708422e+01	-1.155218e-04
2.724066e+01	-1.168601e-04
2.739800e+01	-1.182140e-04
2.755625e+01	-1.195835e-04
2.771541e+01	-1.209689e-04
2.787550e+01	-1.223703e-04
2.803650e+01	-1.237880e-04
2.819844e+01	-1.252221e-04
2.836131e+01	-1.266728e-04
2.852513e+01	-1.281403e-04
2.868989e+01	-1.296248e-04
2.885560e+01	-1.311265e-04
2.902227e+01	-1.326457e-04
2.918990e+01	-1.341824e-04
2.935850e+01	-1.357369e-04
2.952807e+01	-1.373094e-04
2.969863e+01	-1.389002e-04
2.987016e+01	-1.405093e-04
3.004269e+01	-1.421371e-04
3.021622e+01	-1.437838e-04
3.039075e+01	-1.454496e-04
3.056628e+01	-1.471346e-04
3.074283e+01	-1.488392e-04
3.092040e+01	-1.505635e-04
3.109900e+01	-1.523078e-04
3.127862e+01	-1.540723e-04
3.145929e+01	-1.558572e-04
3.164099e+01	-1.576628e-04
3.182375e+01	-1.594894e-04
3.200756e+01	-1.613371e-04
3.219244e+01	-1.632062e-04
3.237838e+01	-1.650969e-04
3.256540e+01	-1.670096e-04
3.275349e+01	-1.689444e-04
3.294268e+01	-1.709016e-04
3.313295e+01	-1.728815e-04
3.332433e+01	-1.748844e-04
3.351681e+01	-1.769104e-04
3.371040e+01	-1.789599e-04
3.390511e+01	-1.810332e-04
3.410094e+01	-1.831304e-04
3.429791e+01	-1.852520e-04
3.449601e+01	-1.873982e-04
3.469526e+01	-1.895692e-04
3.489566e+01	-1.917653e-04
3.509721e+01	-1.939869e-04
3.529993e+01	-1.962343e-04
3.550382e+01	-1.985077e-04
3.570889e+01	-2.008074e-04
3.591515e+01	-2.031337e-04
3.612259e+01	-2.054870e-04
3.633123e+01	-2.078676e-04
3.654108e+01	-2.102757e-04
3.675214e+01	-2.127118e-04
3.696442e+01	-2.151761e-04
3.717792e+01	-2.176689e-04
3.739266e+01	-2.201906e-04
3.760864e+01	-2.227415e-04
3.782587e+01	-2.253219e-04
3.804435e+01	-2.279323e-04
3.826409e+01	-2.305729e-04
3.848510e+01	-2.332440e-04
3.870739e+01	-2.359462e-04
3.893096e+01	-2.386796e-04
3.915583e+01	-2.414447e-04
3.938199e+01	-2.442418e-04
3.960946e+01	-2.470713e-04
3.983824e+01	-2.499336e-04
4.006834e+01	-2.528291e-04
4.029978e+01	-2.557581e-04
4.053255e+01	-2.587211e-04
4.076666e+01	-2.617183e-04
4.100213e+01	-2.647503e-04
4.123896e+01	-2.678174e-04
4.147715e+01	-2.709201e-04
4.171672e+01	-2.740586e-04
4.195767e+01	-2.772336e-04
4.220002e+01	-2.804453e-04
4.244377e+01	-2.836942e-04
4.268892e+01	-2.869808e-04
4.293549e+01	-2.903055e-04
4.318348e+01	-2.936686e-04
4.343291e+01	-2.970707e-04
4.368377e+01	-3.005123e-04
4.393609e+01	-3.039937e-04
4.418986e+01	-3.075154e-04
4.444510e+01	-3.110779e-04
4.470182e+01	-3.146817e-04
4.496001e+01	-3.183272e-04
4.521970e+01	-3.220150e-04
4.548089e+01	-3.257455e-04
4.574358e+01	-3.295192e-04
4.600779e+01	-3.333366e-04
4.627353e+01	-3.371983e-04
4.654081e+01	-3.411047e-04
4.680963e+01	-3.450563e-04
4.708000e+01	-3.490537e-04
4.735193e+01	-3.530974e-04
4.762543e+01	-3.571880e-04
4.790051e+01	-3.613260e-04
4.817719e+01	-3.655118e-04
4.845545e+01	-3.697462e-04
4.873533e+01	-3.740296e-04
4.901682e+01	-3.783627e-04
4.929994e+01	-3.827459e-04
4.958470e+01	-3.871800e-04
4.987110e+01	-3.916653e-04
5.015915e+01	-3.962027e-04
5.044887e+01	-4.007926e-04
5.074026e+01	-4.054357e-04
5.103333e+01	-4.101325e-04
5.132810e+01	-4.148838e-04
5.162457e+01	-4.196901e-04
5.192275e+01	-4.245521e-04
5.222265e+01	-4.294704e-04
5.252429e+01	-4.344457e-04
5.282767e+01	-4.394786e-04
5.313280e+01	-4.445698e-04
5.343969e+01	-4.497200e-04
5.374836e+01	-4.549299e-04
5.405880e+01	-4.602001e-04
5.437105e+01	-4.655314e-04
5.468509e+01	-4.709244e-04
5.500095e+01	-4.763799e-04
5.531863e+01	-4.818986e-04
5.563815e+01	-4.874812e-04
5.595951e+01	-4.931285e-04
5.628273e+01	-4.988412e-04
5.660782e+01	-5.046200e-04
5.693479e+01	-5.104658e-04
5.726364e+01	-5.163794e-04
5.759439e+01	-5.223614e-04
5.792705e+01	-5.284128e-04
5.826164e+01	-5.345342e-04
5.859815e+01	-5.407265e-04
5.893662e+01	-5.469906e-04
5.927703e+01	-5.533272e-04
5.961941e+01	-5.597373e-04
5.996377e+01	-5.662216e-04
6.031012e+01	-5.727810e-04
6.065847e+01	-5.794163e-04
6.100883e+01	-5.861286e-04
6.136121e+01	-5.929186e-04
6.171563e+01	-5.997872e-04
6.207210e+01	-6.067354e-04
6.243063e+01	-6.137642e-04
6.279122e+01	-6.208743e-04
6.315390e+01	-6.280667e-04
6.351868e+01	-6.353425e-04
6.388556e+01	-6.427026e-04
6.425456e+01	-6.501479e-04
6.462569e+01	-6.576795e-04
6.499897e+01	-6.652983e-04
6.537440e+01	-6.730054e-04
6.575200e+01	-6.808017e-04
6.613178e+01	-6.886884e-04
6.651375e+01	-6.966664e-04
6.689793e+01	-7.047368e-04
6.728433e+01	-7.129007e-04
6.767297e+01	-7.211592e-04
6.806384e+01	-7.295133e-04
6.845698e+01	-7.379642e-04
6.885238e+01	-7.465130e-04
6.925007e+01	-7.551608e-04
6.965005e+01	-7.639088e-04
7.005235e+01	-7.727581e-04
7.045697e+01	-7.817099e-04
7.086393e+01	-7.907654e-04
7.127323e+01	-7.999258e-04
7.168490e+01	-8.091923e-04
7.209895e+01	-8.185661e-04
7.251539e+01	-8.280485e-04
7.293424e+01	-8.376407e-04
7.335551e+01	-8.473441e-04
7.377920e+01	-8.571598e-04
7.420535e+01	-8.670893e-04
7.463396e+01	-8.771337e-04
7.506504e+01	-8.872945e-04
7.549861e+01	-8.975730e-04
7.593469e+01	-9.079706e-04
7.637328e+01	-9.184885e-04
7.681441e+01	-9.291283e-04
7.725809e+01	-9.398914e-04
7.770433e+01	-9.507791e-04
7.815315e+01	-9.617929e-04
7.860456e+01	-9.729343e-04
7.905857e+01	-9.842047e-04
7.951521e+01	-9.956057e-04
7.997449e+01	-1.007139e-03
8.043642e+01	-1.018805e-03
8.090102e+01	-1.030607e-03
8.136830e+01	-1.042545e-03
8.183828e+01	-1.054622e-03
8.231097e+01	-1.066839e-03
8.278640e+01	-1.079197e-03
8.326457e+01	-1.091698e-03
8.374550e+01	-1.104344e-03
8.422921e+01	-1.117137e-03
8.471572e+01	-1.130077e-03
8.520503e+01	-1.143168e-03
8.569717e+01	-1.156410e-03
8.619215e+01	-1.169805e-03
8.669000e+01	-1.183356e-03
8.719071e+01	-1.197064e-03
8.769432e+01	-1.210930e-03
8.820084e+01	-1.224957e-03
8.871029e+01	-1.239146e-03
8.922267e+01	-1.253500e-03
8.973802e+01	-1.268020e-03
9.025634e+01	-1.282708e-03
9.077766e+01	-1.297567e-03
9.130199e+01	-1.312597e-03
9.182935e+01	-1.327802e-03
9.235975e+01	-1.343182e-03
9.289321e+01	-1.358741e-03
9.342976e+01	-1.374480e-03
9.396941e+01	-1.390401e-03
9.451217e+01	-1.406507e-03
9.505807e+01	-1.422799e-03
9.560712e+01	-1.439279e-03
9.615934e+01	-1.455951e-03
9.671476e+01	-1.472816e-03
9.727338e+01	-1.489876e-03
9.783522e+01	-1.507133e-03
9.840032e+01	-1.524591e-03
9.896867e+01	-1.542251e-03
9.954031e+01	-1.560115e-03
1.001153e+02	-1.578186e-03
1.006935e+02	-1.596466e-03
1.012751e+02	-1.614958e-03
1.018601e+02	-1.633664e-03
1.024484e+02	-1.652587e-03
1.030402e+02	-1.671729e-03
1.036353e+02	-1.691093e-03
1.042339e+02	-1.710681e-03
1.048360e+02	-1.730496e-03
1.054415e+02	-1.750540e-03
1.060505e+02	-1.770816e-03
1.066631e+02	-1.791327e-03
1.072791e+02	-1.812076e-03
1.078988e+02	-1.833065e-03
1.085220e+02	-1.854297e-03
1.091488e+02	-1.875775e-03
1.097793e+02	-1.897501e-03
1.104133e+02	-1.919480e-03
1.110511e+02	-1.941712e-03
1.116925e+02	-1.964202e-03
1.123376e+02	-1.986953e-03
1.129865e+02	-2.009967e-03
1.136391e+02	-2.033248e-03
1.142955e+02	-2.056798e-03
1.149556e+02	-2.080621e-03
1.156196e+02	-2.104719e-03
1.162874e+02	-2.129097e-03
1.169591e+02	-2.153757e-03
1.176347e+02	-2.178703e-03
1.183141e+02	-2.203937e-03
1.189975e+02	-2.229464e-03
1.196848e+02	-2.255286e-03
1.203761e+02	-2.281407e-03
1.210714e+02	-2.307831e-03
1.217707e+02	-2.334560e-03
1.224740e+02	-2.361600e-03
1.231814e+02	-2.388952e-03
1.238929e+02	-2.416621e-03
1.246085e+02	-2.444610e-03
1.253283e+02	-2.472923e-03
1.260522e+02	-2.501565e-03
1.267802e+02	-2.530538e-03
1.275125e+02	-2.559846e-03
1.282490e+02	-2.589493e-03
1.289898e+02	-2.619484e-03
1.297348e+02	-2.649823e-03
1.304842e+02	-2.680512e-03
1.312378e+02	-2.711557e-03
1.319959e+02	-2.742961e-03
1.327583e+02	-2.774729e-03
1.335251e+02	-2.806864e-03
1.342963e+02	-2.839372e-03
1.350720e+02	-2.872256e-03
1.358522e+02	-2.905520e-03
1.366368e+02	-2.939170e-03
1.374260e+02	-2.973210e-03
1.382198e+02	-3.007643e-03
1.390182e+02	-3.042475e-03
1.398211e+02	-3.077711e-03
1.406287e+02	-3.113354e-03
1.414410e+02	-3.149410e-03
1.422579e+02	-3.185883e-03
1.430796e+02	-3.222779e-03
1.439060e+02	-3.260102e-03
1.447372e+02	-3.297856e-03
1.455732e+02	-3.336048e-03
1.464141e+02	-3.374682e-03
1.472597e+02	-3.413763e-03
1.481103e+02	-3.453297e-03
1.489658e+02	-3.493288e-03
1.498262e+02	-3.533742e-03
1.506916e+02	-3.574665e-03
1.515620e+02	-3.616061e-03
1.524374e+02	-3.657936e-03
1.533179e+02	-3.700296e-03
1.542034e+02	-3.743147e-03
1.550941e+02	-3.786493e-03
1.559899e+02	-3.830341e-03
1.568909e+02	-3.874697e-03
1.577971e+02	-3.919566e-03
1.587085e+02	-3.964954e-03
1.596252e+02	-4.010868e-03
1.605472e+02	-4.057313e-03
1.614745e+02	-4.104296e-03
1.624072e+02	-4.151823e-03
1.633453e+02	-4.199899e-03
1.642887e+02	-4.248532e-03
1.652377e+02	-4.297728e-03
1.661921e+02	-4.347494e-03
1.671520e+02	-4.397835e-03
1.681175e+02	-4.448759e-03
1.690885e+02	-4.500272e-03
1.700651e+02	-4.552382e-03
1.710474e+02	-4.605094e-03
1.720354e+02	-4.658417e-03
1.730291e+02	-4.712356e-03
1.740285e+02	-4.766920e-03
1.750337e+02	-4.822116e-03
1.760446e+02	-4.877950e-03
1.770615e+02	-4.934430e-03
1.780842e+02	-4.991563e-03
1.791128e+02	-5.049358e-03
1.801473e+02	-5.107822e-03
1.811878e+02	-5.166962e-03
1.822344e+02	-5.226787e-03
1.832870e+02	-5.287303e-03
1.843456e+02	-5.348520e-03
1.854104e+02	-5.410446e-03
1.864813e+02	-5.473087e-03
1.875584e+02	-5.536454e-03
1.886418e+02	-5.600554e-03
1.897313e+02	-5.665395e-03
1.908272e+02	-5.730987e-03
1.919294e+02	-5.797337e-03
1.930380e+02	-5.864456e-03
1.941530e+02	-5.932350e-03
1.952744e+02	-6.001031e-03
1.964023e+02	-6.070505e-03
1.975367e+02	-6.140784e-03
1.986777e+02	-6.211875e-03
1.998252e+02	-6.283789e-03
2.009794e+02	-6.356535e-03
2.021403e+02	-6.430123e-03
2.033078e+02	-6.504562e-03
2.044821e+02	-6.579861e-03
2.056632e+02	-6.656032e-03
2.068511e+02	-6.733084e-03
2.080459e+02	-6.811027e-03
2.092475e+02	-6.889872e-03
2.104561e+02	-6.969629e-03
2.116717e+02	-7.050308e-03
2.128943e+02	-7.131920e-03
2.141240e+02	-7.214477e-03
2.153608e+02	-7.297988e-03
2.166047e+02	-7.382465e-03
2.178558e+02	-7.467919e-03
2.191141e+02	-7.554361e-03
2.203797e+02	-7.641803e-03
2.216526e+02	-7.730256e-03
2.229329e+02	-7.819733e-03
2.242205e+02	-7.910243e-03
2.255156e+02	-8.001801e-03
2.268182e+02	-8.094417e-03
2.281283e+02	-8.188104e-03
2.294459e+02	-8.282875e-03
2.307712e+02	-8.378741e-03
2.321041e+02	-8.475716e-03
2.334447e+02	-8.573812e-03
2.347931e+02	-8.673043e-03
2.361493e+02	-8.773420e-03
2.375133e+02	-8.874959e-03
2.388851e+02	-8.977671e-03
2.402649e+02	-9.081570e-03
2.416527e+02	-9.186671e-03
2.430484e+02	-9.292987e-03
2.444523e+02	-9.400531e-03
2.458642e+02	-9.509319e-03
2.472843e+02	-9.619365e-03
2.487126e+02	-9.730682e-03
2.501492e+02	-9.843287e-03
2.515940e+02	-9.957193e-03
2.530472e+02	-1.007242e-02
2.545088e+02	-1.018897e-02
2.559789e+02	-1.030687e-02
2.574574e+02	-1.042613e-02
2.589444e+02	-1.054678e-02
2.604401e+02	-1.066881e-02
2.619444e+02	-1.079226e-02
2.634574e+02	-1.091713e-02
2.649791e+02	-1.104345e-02
2.665096e+02	-1.117123e-02
2.680489e+02	-1.130048e-02
2.695972e+02	-1.143123e-02
2.711544e+02	-1.156348e-02
2.727205e+02	-1.169727e-02
2.742958e+02	-1.183260e-02
2.758801e+02	-1.196949e-02
2.774736e+02	-1.210797e-02
2.790762e+02	-1.224804e-02
2.806882e+02	-1.238974e-02
2.823094e+02	-1.253307e-02
2.839400e+02	-1.267805e-02
2.855800e+02	-1.282471e-02
2.872295e+02	-1.297307e-02
2.888886e+02	-1.312314e-02
2.905572e+02	-1.327494e-02
2.922354e+02	-1.342849e-02
2.939234e+02	-1.358382e-02
2.956211e+02	-1.374094e-02
2.973286e+02	-1.389988e-02
2.990459e+02	-1.406065e-02
3.007732e+02	-1.422328e-02
3.025104e+02	-1.438779e-02
3.042577e+02	-1.455419e-02
3.060151e+02	-1.472252e-02
3.077826e+02	-1.489279e-02
3.095604e+02	-1.506503e-02
3.113484e+02	-1.523925e-02
3.131467e+02	-1.541549e-02
3.149554e+02	-1.559376e-02
3.167746e+02	-1.577409e-02
3.186043e+02	-1.595650e-02
3.204445e+02	-1.614102e-02
3.222954e+02	-1.632766e-02
3.241570e+02	-1.651646e-02
3.260293e+02	-1.670744e-02
3.279124e+02	-1.690062e-02
3.298064e+02	-1.709603e-02
3.317114e+02	-1.729370e-02
3.336273e+02	-1.749365e-02
3.355544e+02	-1.769590e-02
3.374925e+02	-1.790049e-02
3.394418e+02	-1.810743e-02
3.414024e+02	-1.831677e-02
3.433744e+02	-1.852852e-02
3.453577e+02	-1.874271e-02
3.473525e+02	-1.895938e-02
3.493588e+02	-1.917854e-02
3.513766e+02	-1.940023e-02
3.534062e+02	-1.962448e-02
3.554474e+02	-1.985131e-02
3.575005e+02	-2.008076e-02
3.595654e+02	-2.031285e-02
3.616422e+02	-2.054763e-02
3.637311e+02	-2.078510e-02
3.658320e+02	-2.102532e-02
3.679450e+02	-2.126831e-02
3.700702e+02	-2.151409e-02
3.722077e+02	-2.176271e-02
3.743576e+02	-2.201420e-02
3.765199e+02	-2.226858e-02
3.786946e+02	-2.252590e-02
3.808820e+02	-2.278618e-02
3.830819e+02	-2.304946e-02
3.852946e+02	-2.331577e-02
3.875200e+02	-2.358516e-02
3.897583e+02	-2.385765e-02
3.920096e+02	-2.413327e-02
3.942738e+02	-2.441207e-02
3.965511e+02	-2.469409e-02
3.988416e+02	-2.497935e-02
4.011452e+02	-2.526790e-02
4.034622e+02	-2.555977e-02
4.057926e+02	-2.585500e-02
4.081365e+02	-2.615363e-02
4.104938e+02	-2.645570e-02
4.128648e+02	-2.676125e-02
4.152495e+02	-2.707032e-02
4.176480e+02	-2.738295e-02
4.200603e+02	-2.769917e-02
4.224866e+02	-2.801903e-02
4.249268e+02	-2.834258e-02
4.273812e+02	-2.866985e-02
4.298497e+02	-2.900088e-02
4.323325e+02	-2.933573e-02
4.348297e+02	-2.967443e-02
4.373412e+02	-3.001702e-02
4.398673e+02	-3.036356e-02
4.424079e+02	-3.071408e-02
4.449633e+02	-3.106863e-02
4.475334e+02	-3.142726e-02
4.501183e+02	-3.179002e-02
4.527182e+02	-3.215695e-02
4.553330e+02	-3.252810e-02
4.579630e+02	-3.290351e-02
4.606082e+02	-3.328324e-02
4.632687e+02	-3.366734e-02
4.659445e+02	-3.405585e-02
4.686358e+02	-3.444883e-02
4.713426e+02	-3.484632e-02
4.740650e+02	-3.524838e-02
4.768032e+02	-3.565506e-02
4.795572e+02	-3.606642e-02
4.823271e+02	-3.648250e-02
4.851130e+02	-3.690336e-02
4.879150e+02	-3.732905e-02
4.907332e+02	-3.775963e-02
4.935676e+02	-3.819516e-02
4.964185e+02	-3.863569e-02
4.992858e+02	-3.908127e-02
5.021696e+02	-3.953197e-02
5.050701e+02	-3.998785e-02
5.079874e+02	-4.044896e-02
5.109215e+02	-4.091536e-02
5.138726e+02	-4.138711e-02
5.168407e+02	-4.186427e-02
5.198259e+02	-4.234691e-02
5.228284e+02	-4.283509e-02
5.258482e+02	-4.332886e-02
5.288855e+02	-4.382830e-02
5.319403e+02	-4.433347e-02
5.350128e+02	-4.484442e-02
5.381030e+02	-4.536124e-02
5.412111e+02	-4.588398e-02
5.443371e+02	-4.641271e-02
5.474812e+02	-4.694750e-02
5.506434e+02	-4.748842e-02
5.538239e+02	-4.803554e-02
5.570228e+02	-4.858893e-02
5.602401e+02	-4.914865e-02
5.634760e+02	-4.971479e-02
5.667306e+02	-5.028741e-02
5.700040e+02	-5.086658e-02
5.732964e+02	-5.145239e-02
5.766077e+02	-5.204490e-02
5.799382e+02	-5.264420e-02
5.832879e+02	-5.325035e-02
5.866569e+02	-5.386344e-02
5.900454e+02	-5.448354e-02
5.934535e+02	-5.511074e-02
5.968813e+02	-5.574511e-02
6.003288e+02	-5.638673e-02
6.037963e+02	-5.703569e-02
6.072838e+02	-5.769207e-02
6.107914e+02	-5.835596e-02
6.143194e+02	-5.902743e-02
6.178676e+02	-5.970657e-02
6.214364e+02	-6.039347e-02
6.250258e+02	-6.108822e-02
6.286359e+02	-6.179091e-02
6.322669e+02	-6.250162e-02
6.359189e+02	-6.322044e-02
6.395919e+02	-6.394747e-02
6.432862e+02	-6.468280e-02
6.470017e+02	-6.542652e-02
6.507388e+02	-6.617872e-02
6.544974e+02	-6.693951e-02
6.582778e+02	-6.770898e-02
6.620800e+02	-6.848722e-02
6.659041e+02	-6.927433e-02
6.697504e+02	-7.007041e-02
6.736188e+02	-7.087557e-02
6.775096e+02	-7.168991e-02
6.814229e+02	-7.251352e-02
6.853587e+02	-7.334652e-02
6.893173e+02	-7.418900e-02
6.932988e+02	-7.504107e-02
6.973033e+02	-7.590285e-02
7.013309e+02	-7.677443e-02
