Frequency(Hz)	Magnitude(dB)
1.000000e+01	-1.828294e-05
1.005776e+01	-1.849475e-05
1.011585e+01	-1.870902e-05
1.017428e+01	-1.892576e-05
1.023305e+01	-1.914502e-05
1.029215e+01	-1.936682e-05
1.035160e+01	-1.959119e-05
1.041139e+01	-1.981816e-05
1.047153e+01	-2.004776e-05
1.053201e+01	-2.028002e-05
1.059284e+01	-2.051497e-05
1.065403e+01	-2.075264e-05
1.071556e+01	-2.099306e-05
1.077746e+01	-2.123627e-05
1.083971e+01	-2.148230e-05
1.090232e+01	-2.173118e-05
1.096529e+01	-2.198294e-05
1.102862e+01	-2.223762e-05
1.109232e+01	-2.249525e-05
1.115639e+01	-2.275586e-05
1.122083e+01	-2.301949e-05
1.128564e+01	-2.328618e-05
1.135083e+01	-2.355596e-05
1.141639e+01	-2.382886e-05
1.148233e+01	-2.410492e-05
1.154865e+01	-2.438418e-05
1.161536e+01	-2.466668e-05
1.168245e+01	-2.495245e-05
1.174992e+01	-2.524153e-05
1.181779e+01	-2.553396e-05
1.188605e+01	-2.582978e-05
1.195470e+01	-2.612902e-05
1.202375e+01	-2.643173e-05
1.209320e+01	-2.673795e-05
1.216305e+01	-2.704771e-05
1.223330e+01	-2.736107e-05
1.230396e+01	-2.767805e-05
1.237503e+01	-2.799871e-05
1.244651e+01	-2.832308e-05
1.251840e+01	-2.865121e-05
1.259070e+01	-2.898314e-05
1.266343e+01	-2.931892e-05
1.273657e+01	-2.965859e-05
1.281014e+01	-3.000219e-05
1.288413e+01	-3.034977e-05
1.295855e+01	-3.070138e-05
1.303339e+01	-3.105706e-05
1.310867e+01	-3.141687e-05
1.318439e+01	-3.178084e-05
1.326054e+01	-3.214903e-05
1.333713e+01	-3.252148e-05
1.341417e+01	-3.289825e-05
1.349165e+01	-3.327938e-05
1.356958e+01	-3.366493e-05
1.364795e+01	-3.405495e-05
1.372678e+01	-3.444948e-05
1.380607e+01	-3.484859e-05
1.388581e+01	-3.525232e-05
1.396602e+01	-3.566072e-05
1.404668e+01	-3.607386e-05
1.412782e+01	-3.649179e-05
1.420942e+01	-3.691455e-05
1.429149e+01	-3.734222e-05
1.437404e+01	-3.777483e-05
1.445706e+01	-3.821246e-05
1.454057e+01	-3.865516e-05
1.462455e+01	-3.910299e-05
1.470902e+01	-3.955601e-05
1.479398e+01	-4.001428e-05
1.487943e+01	-4.047785e-05
1.496537e+01	-4.094680e-05
1.505181e+01	-4.142117e-05
1.513875e+01	-4.190105e-05
1.522619e+01	-4.238648e-05
1.531414e+01	-4.287754e-05
1.540259e+01	-4.337428e-05
1.549156e+01	-4.387678e-05
1.558103e+01	-4.438511e-05
1.567103e+01	-4.489932e-05
1.576155e+01	-4.541948e-05
1.585258e+01	-4.594568e-05
1.594415e+01	-4.647797e-05
1.603624e+01	-4.701643e-05
1.612886e+01	-4.756112e-05
1.622202e+01	-4.811213e-05
1.631572e+01	-4.866952e-05
1.640996e+01	-4.923337e-05
1.650474e+01	-4.980374e-05
1.660008e+01	-5.038073e-05
1.669596e+01	-5.096440e-05
1.679239e+01	-5.155484e-05
1.688938e+01	-5.215211e-05
1.698694e+01	-5.275630e-05
1.708505e+01	-5.336750e-05
1.718373e+01	-5.398577e-05
1.728299e+01	-5.461121e-05
1.738281e+01	-5.524389e-05
1.748322e+01	-5.588390e-05
1.758420e+01	-5.653133e-05
1.768576e+01	-5.718625e-05
1.778792e+01	-5.784877e-05
1.789066e+01	-5.851896e-05
1.799399e+01	-5.919691e-05
1.809793e+01	-5.988272e-05
1.820246e+01	-6.057647e-05
1.830760e+01	-6.127826e-05
1.841334e+01	-6.198818e-05
1.851969e+01	-6.270633e-05
1.862666e+01	-6.343279e-05
1.873425e+01	-6.416767e-05
1.884246e+01	-6.491107e-05
1.895129e+01	-6.566308e-05
1.906075e+01	-6.642380e-05
1.917085e+01	-6.719333e-05
1.928158e+01	-6.797178e-05
1.939295e+01	-6.875924e-05
1.950496e+01	-6.955583e-05
1.961762e+01	-7.036165e-05
1.973093e+01	-7.117680e-05
1.984490e+01	-7.200140e-05
1.995952e+01	-7.283555e-05
2.007480e+01	-7.367936e-05
2.019076e+01	-7.453295e-05
2.030738e+01	-7.539642e-05
2.042467e+01	-7.626991e-05
2.054264e+01	-7.715351e-05
2.066130e+01	-7.804734e-05
2.078064e+01	-7.895154e-05
2.090066e+01	-7.986620e-05
2.102139e+01	-8.079147e-05
2.114280e+01	-8.172745e-05
2.126492e+01	-8.267428e-05
2.138775e+01	-8.363207e-05
2.151128e+01	-8.460096e-05
2.163553e+01	-8.558108e-05
2.176050e+01	-8.657255e-05
2.188619e+01	-8.757551e-05
2.201260e+01	-8.859008e-05
2.213974e+01	-8.961641e-05
2.226762e+01	-9.065463e-05
2.239624e+01	-9.170488e-05
2.252560e+01	-9.276730e-05
2.265571e+01	-9.384202e-05
2.278656e+01	-9.492919e-05
2.291818e+01	-9.602896e-05
2.305055e+01	-9.714147e-05
2.318369e+01	-9.826687e-05
2.331760e+01	-9.940531e-05
2.345228e+01	-1.005569e-04
2.358774e+01	-1.017219e-04
2.372398e+01	-1.029004e-04
2.386101e+01	-1.040925e-04
2.399883e+01	-1.052984e-04
2.413745e+01	-1.065183e-04
2.427686e+01	-1.077523e-04
2.441709e+01	-1.090007e-04
2.455812e+01	-1.102634e-04
2.469997e+01	-1.115409e-04
2.484263e+01	-1.128331e-04
2.498612e+01	-1.141403e-04
2.513044e+01	-1.154626e-04
2.527559e+01	-1.168002e-04
2.542158e+01	-1.181534e-04
2.556842e+01	-1.195222e-04
2.571610e+01	-1.209069e-04
2.586463e+01	-1.223076e-04
2.601403e+01	-1.237245e-04
2.616428e+01	-1.251579e-04
2.631541e+01	-1.266079e-04
2.646740e+01	-1.280746e-04
2.662028e+01	-1.295584e-04
2.677404e+01	-1.310594e-04
2.692868e+01	-1.325777e-04
2.708422e+01	-1.341136e-04
2.724066e+01	-1.356673e-04
2.739800e+01	-1.372391e-04
2.755625e+01	-1.388290e-04
2.771541e+01	-1.404373e-04
2.787550e+01	-1.420643e-04
2.803650e+01	-1.437101e-04
2.819844e+01	-1.453750e-04
2.836131e+01	-1.470592e-04
2.852513e+01	-1.487629e-04
2.868989e+01	-1.504863e-04
2.885560e+01	-1.522297e-04
2.902227e+01	-1.539933e-04
2.918990e+01	-1.557773e-04
2.935850e+01	-1.575820e-04
2.952807e+01	-1.594076e-04
2.969863e+01	-1.612544e-04
2.987016e+01	-1.631225e-04
3.004269e+01	-1.650123e-04
3.021622e+01	-1.669240e-04
3.039075e+01	-1.688578e-04
3.056628e+01	-1.708140e-04
3.074283e+01	-1.727929e-04
3.092040e+01	-1.747947e-04
3.109900e+01	-1.768197e-04
3.127862e+01	-1.788682e-04
3.145929e+01	-1.809404e-04
3.164099e+01	-1.830366e-04
3.182375e+01	-1.851571e-04
3.200756e+01	-1.873021e-04
3.219244e+01	-1.894720e-04
3.237838e+01	-1.916671e-04
3.256540e+01	-1.938875e-04
3.275349e+01	-1.961337e-04
3.294268e+01	-1.984059e-04
3.313295e+01	-2.007045e-04
3.332433e+01	-2.030296e-04
3.351681e+01	-2.053817e-04
3.371040e+01	-2.077611e-04
3.390511e+01	-2.101680e-04
3.410094e+01	-2.126028e-04
3.429791e+01	-2.150658e-04
3.449601e+01	-2.175573e-04
3.469526e+01	-2.200777e-04
3.489566e+01	-2.226273e-04
3.509721e+01	-2.252065e-04
3.529993e+01	-2.278155e-04
3.550382e+01	-2.304547e-04
3.570889e+01	-2.331245e-04
3.591515e+01	-2.358253e-04
3.612259e+01	-2.385573e-04
3.633123e+01	-2.413210e-04
3.654108e+01	-2.441166e-04
3.675214e+01	-2.469447e-04
3.696442e+01	-2.498056e-04
3.717792e+01	-2.526995e-04
3.739266e+01	-2.556271e-04
3.760864e+01	-2.585885e-04
3.782587e+01	-2.615842e-04
3.804435e+01	-2.646146e-04
3.826409e+01	-2.676802e-04
3.848510e+01	-2.707812e-04
3.870739e+01	-2.739182e-04
3.893096e+01	-2.770915e-04
3.915583e+01	-2.803016e-04
3.938199e+01	-2.835489e-04
3.960946e+01	-2.868338e-04
3.983824e+01	-2.901567e-04
4.006834e+01	-2.935181e-04
4.029978e+01	-2.969185e-04
4.053255e+01	-3.003583e-04
4.076666e+01	-3.038379e-04
4.100213e+01	-3.073578e-04
4.123896e+01	-3.109185e-04
4.147715e+01	-3.145204e-04
4.171672e+01	-3.181641e-04
4.195767e+01	-3.218500e-04
4.220002e+01	-3.255786e-04
4.244377e+01	-3.293504e-04
4.268892e+01	-3.331658e-04
4.293549e+01	-3.370255e-04
4.318348e+01	-3.409299e-04
4.343291e+01	-3.448795e-04
4.368377e+01	-3.488749e-04
4.393609e+01	-3.529165e-04
4.418986e+01	-3.570050e-04
4.444510e+01	-3.611408e-04
4.470182e+01	-3.653245e-04
4.496001e+01	-3.695567e-04
4.521970e+01	-3.738380e-04
4.548089e+01	-3.781688e-04
4.574358e+01	-3.825498e-04
4.600779e+01	-3.869816e-04
4.627353e+01	-3.914646e-04
4.654081e+01	-3.959997e-04
4.680963e+01	-4.005872e-04
4.708000e+01	-4.052279e-04
4.735193e+01	-4.099224e-04
4.762543e+01	-4.146712e-04
4.790051e+01	-4.194751e-04
4.817719e+01	-4.243345e-04
4.845545e+01	-4.292503e-04
4.873533e+01	-4.342231e-04
4.901682e+01	-4.392534e-04
4.929994e+01	-4.443420e-04
4.958470e+01	-4.494896e-04
4.987110e+01	-4.546968e-04
5.015915e+01	-4.599643e-04
5.044887e+01	-4.652928e-04
5.074026e+01	-4.706831e-04
5.103333e+01	-4.761358e-04
5.132810e+01	-4.816516e-04
5.162457e+01	-4.872314e-04
5.192275e+01	-4.928758e-04
5.222265e+01	-4.985855e-04
5.252429e+01	-5.043615e-04
5.282767e+01	-5.102043e-04
5.313280e+01	-5.161148e-04
5.343969e+01	-5.220938e-04
5.374836e+01	-5.281420e-04
5.405880e+01	-5.342603e-04
5.437105e+01	-5.404495e-04
5.468509e+01	-5.467103e-04
5.500095e+01	-5.530437e-04
5.531863e+01	-5.594505e-04
5.563815e+01	-5.659314e-04
5.595951e+01	-5.724875e-04
5.628273e+01	-5.791194e-04
5.660782e+01	-5.858282e-04
5.693479e+01	-5.926148e-04
5.726364e+01	-5.994799e-04
5.759439e+01	-6.064246e-04
5.792705e+01	-6.134497e-04
5.826164e+01	-6.205561e-04
5.859815e+01	-6.277449e-04
5.893662e+01	-6.350170e-04
5.927703e+01	-6.423733e-04
5.961941e+01	-6.498148e-04
5.996377e+01	-6.573425e-04
6.031012e+01	-6.649574e-04
6.065847e+01	-6.726605e-04
6.100883e+01	-6.804529e-04
6.136121e+01	-6.883355e-04
6.171563e+01	-6.963094e-04
6.207210e+01	-7.043757e-04
6.243063e+01	-7.125354e-04
6.279122e+01	-7.207897e-04
6.315390e+01	-7.291395e-04
6.351868e+01	-7.375861e-04
6.388556e+01	-7.461305e-04
6.425456e+01	-7.547738e-04
6.462569e+01	-7.635173e-04
6.499897e+01	-7.723621e-04
6.537440e+01	-7.813093e-04
6.575200e+01	-7.903602e-04
6.613178e+01	-7.995159e-04
6.651375e+01	-8.087776e-04
6.689793e+01	-8.181467e-04
6.728433e+01	-8.276242e-04
6.767297e+01	-8.372115e-04
6.806384e+01	-8.469099e-04
6.845698e+01	-8.567206e-04
6.885238e+01	-8.666450e-04
6.925007e+01	-8.766843e-04
6.965005e+01	-8.868399e-04
7.005235e+01	-8.971131e-04
7.045697e+01	-9.075053e-04
7.086393e+01	-9.180179e-04
7.127323e+01	-9.286523e-04
7.168490e+01	-9.394098e-04
7.209895e+01	-9.502919e-04
7.251539e+01	-9.613001e-04
7.293424e+01	-9.724358e-04
7.335551e+01	-9.837004e-04
7.377920e+01	-9.950956e-04
7.420535e+01	-1.006623e-03
7.463396e+01	-1.018283e-03
7.506504e+01	-1.030079e-03
7.549861e+01	-1.042011e-03
7.593469e+01	-1.054082e-03
7.637328e+01	-1.066292e-03
7.681441e+01	-1.078644e-03
7.725809e+01	-1.091139e-03
7.770433e+01	-1.103778e-03
7.815315e+01	-1.116564e-03
7.860456e+01	-1.129498e-03
7.905857e+01	-1.142582e-03
7.951521e+01	-1.155817e-03
7.997449e+01	-1.169206e-03
8.043642e+01	-1.182750e-03
8.090102e+01	-1.196450e-03
8.136830e+01	-1.210310e-03
8.183828e+01	-1.224329e-03
8.231097e+01	-1.238512e-03
8.278640e+01	-1.252858e-03
8.326457e+01	-1.267371e-03
8.374550e+01	-1.282051e-03
8.422921e+01	-1.296902e-03
8.471572e+01	-1.311925e-03
8.520503e+01	-1.327121e-03
8.569717e+01	-1.342494e-03
8.619215e+01	-1.358045e-03
8.669000e+01	-1.373776e-03
8.719071e+01	-1.389689e-03
8.769432e+01	-1.405786e-03
8.820084e+01	-1.422070e-03
8.871029e+01	-1.438542e-03
8.922267e+01	-1.455205e-03
8.973802e+01	-1.472061e-03
9.025634e+01	-1.489112e-03
9.077766e+01	-1.506361e-03
9.130199e+01	-1.523810e-03
9.182935e+01	-1.541460e-03
9.235975e+01	-1.559315e-03
9.289321e+01	-1.577377e-03
9.342976e+01	-1.595648e-03
9.396941e+01	-1.614131e-03
9.451217e+01	-1.632827e-03
9.505807e+01	-1.651741e-03
9.560712e+01	-1.670873e-03
9.615934e+01	-1.690226e-03
9.671476e+01	-1.709804e-03
9.727338e+01	-1.729609e-03
9.783522e+01	-1.749643e-03
9.840032e+01	-1.769909e-03
9.896867e+01	-1.790409e-03
9.954031e+01	-1.811147e-03
1.001153e+02	-1.832126e-03
1.006935e+02	-1.853347e-03
1.012751e+02	-1.874814e-03
1.018601e+02	-1.896529e-03
1.024484e+02	-1.918496e-03
1.030402e+02	-1.940717e-03
1.036353e+02	-1.963196e-03
1.042339e+02	-1.985935e-03
1.048360e+02	-2.008937e-03
1.054415e+02	-2.032206e-03
1.060505e+02	-2.055744e-03
1.066631e+02	-2.079555e-03
1.072791e+02	-2.103641e-03
1.078988e+02	-2.128006e-03
1.085220e+02	-2.152654e-03
1.091488e+02	-2.177586e-03
1.097793e+02	-2.202808e-03
1.104133e+02	-2.228322e-03
1.110511e+02	-2.254131e-03
1.116925e+02	-2.280238e-03
1.123376e+02	-2.306649e-03
1.129865e+02	-2.333364e-03
1.136391e+02	-2.360390e-03
1.142955e+02	-2.387728e-03
1.149556e+02	-2.415383e-03
1.156196e+02	-2.443358e-03
1.162874e+02	-2.471657e-03
1.169591e+02	-2.500283e-03
1.176347e+02	-2.529241e-03
1.183141e+02	-2.558534e-03
1.189975e+02	-2.588167e-03
1.196848e+02	-2.618142e-03
1.203761e+02	-2.648465e-03
1.210714e+02	-2.679139e-03
1.217707e+02	-2.710168e-03
1.224740e+02	-2.741556e-03
1.231814e+02	-2.773307e-03
1.238929e+02	-2.805426e-03
1.246085e+02	-2.837917e-03
1.253283e+02	-2.870784e-03
1.260522e+02	-2.904032e-03
1.267802e+02	-2.937665e-03
1.275125e+02	-2.971687e-03
1.282490e+02	-3.006102e-03
1.289898e+02	-3.040917e-03
1.297348e+02	-3.076134e-03
1.304842e+02	-3.111759e-03
1.312378e+02	-3.147797e-03
1.319959e+02	-3.184251e-03
1.327583e+02	-3.221128e-03
1.335251e+02	-3.258432e-03
1.342963e+02	-3.296167e-03
1.350720e+02	-3.334339e-03
1.358522e+02	-3.372953e-03
1.366368e+02	-3.412015e-03
1.374260e+02	-3.451528e-03
1.382198e+02	-3.491499e-03
1.390182e+02	-3.531932e-03
1.398211e+02	-3.572834e-03
1.406287e+02	-3.614209e-03
1.414410e+02	-3.656063e-03
1.422579e+02	-3.698401e-03
1.430796e+02	-3.741229e-03
1.439060e+02	-3.784554e-03
1.447372e+02	-3.828379e-03
1.455732e+02	-3.872712e-03
1.464141e+02	-3.917558e-03
1.472597e+02	-3.962924e-03
1.481103e+02	-4.008814e-03
1.489658e+02	-4.055235e-03
1.498262e+02	-4.102194e-03
1.506916e+02	-4.149696e-03
1.515620e+02	-4.197748e-03
1.524374e+02	-4.246356e-03
1.533179e+02	-4.295527e-03
1.542034e+02	-4.345267e-03
1.550941e+02	-4.395583e-03
1.559899e+02	-4.446480e-03
1.568909e+02	-4.497967e-03
1.577971e+02	-4.550050e-03
1.587085e+02	-4.602736e-03
1.596252e+02	-4.656031e-03
1.605472e+02	-4.709943e-03
1.614745e+02	-4.764479e-03
1.624072e+02	-4.819646e-03
1.633453e+02	-4.875451e-03
1.642887e+02	-4.931903e-03
1.652377e+02	-4.989007e-03
1.661921e+02	-5.046772e-03
1.671520e+02	-5.105206e-03
1.681175e+02	-5.164316e-03
1.690885e+02	-5.224110e-03
1.700651e+02	-5.284596e-03
1.710474e+02	-5.345781e-03
1.720354e+02	-5.407675e-03
1.730291e+02	-5.470285e-03
1.740285e+02	-5.533619e-03
1.750337e+02	-5.597686e-03
1.760446e+02	-5.662494e-03
1.770615e+02	-5.728052e-03
1.780842e+02	-5.794369e-03
1.791128e+02	-5.861453e-03
1.801473e+02	-5.929313e-03
1.811878e+02	-5.997958e-03
1.822344e+02	-6.067397e-03
1.832870e+02	-6.137639e-03
1.843456e+02	-6.208695e-03
1.854104e+02	-6.280572e-03
1.864813e+02	-6.353280e-03
1.875584e+02	-6.426830e-03
1.886418e+02	-6.501231e-03
1.897313e+02	-6.576492e-03
1.908272e+02	-6.652624e-03
1.919294e+02	-6.729637e-03
1.930380e+02	-6.807540e-03
1.941530e+02	-6.886344e-03
1.952744e+02	-6.966060e-03
1.964023e+02	-7.046698e-03
1.975367e+02	-7.128269e-03
1.986777e+02	-7.210783e-03
1.998252e+02	-7.294251e-03
2.009794e+02	-7.378685e-03
2.021403e+02	-7.464095e-03
2.033078e+02	-7.550493e-03
2.044821e+02	-7.637891e-03
2.056632e+02	-7.726299e-03
2.068511e+02	-7.815729e-03
2.080459e+02	-7.906194e-03
2.092475e+02	-7.997704e-03
2.104561e+02	-8.090273e-03
2.116717e+02	-8.183913e-03
2.128943e+02	-8.278635e-03
2.141240e+02	-8.374452e-03
2.153608e+02	-8.471377e-03
2.166047e+02	-8.569423e-03
2.178558e+02	-8.668603e-03
2.191141e+02	-8.768929e-03
2.203797e+02	-8.870415e-03
2.216526e+02	-8.973075e-03
2.229329e+02	-9.076921e-03
2.242205e+02	-9.181968e-03
2.255156e+02	-9.288230e-03
2.268182e+02	-9.395720e-03
2.281283e+02	-9.504452e-03
2.294459e+02	-9.614441e-03
2.307712e+02	-9.725702e-03
2.321041e+02	-9.838249e-03
2.334447e+02	-9.952096e-03
2.347931e+02	-1.006726e-02
2.361493e+02	-1.018375e-02
2.375133e+02	-1.030160e-02
2.388851e+02	-1.042080e-02
2.402649e+02	-1.054138e-02
2.416527e+02	-1.066335e-02
2.430484e+02	-1.078674e-02
2.444523e+02	-1.091155e-02
2.458642e+02	-1.103780e-02
2.472843e+02	-1.116551e-02
2.487126e+02	-1.129470e-02
2.501492e+02	-1.142538e-02
2.515940e+02	-1.155756e-02
2.530472e+02	-1.169128e-02
2.545088e+02	-1.182654e-02
2.559789e+02	-1.196337e-02
2.574574e+02	-1.210177e-02
2.589444e+02	-1.224178e-02
2.604401e+02	-1.238340e-02
2.619444e+02	-1.252665e-02
2.634574e+02	-1.267157e-02
2.649791e+02	-1.281815e-02
2.665096e+02	-1.296643e-02
2.680489e+02	-1.311642e-02
2.695972e+02	-1.326815e-02
2.711544e+02	-1.342162e-02
2.727205e+02	-1.357687e-02
2.742958e+02	-1.373392e-02
2.758801e+02	-1.389277e-02
2.774736e+02	-1.405346e-02
2.790762e+02	-1.421601e-02
2.806882e+02	-1.438043e-02
2.823094e+02	-1.454675e-02
2.839400e+02	-1.471499e-02
2.855800e+02	-1.488517e-02
2.872295e+02	-1.505732e-02
2.888886e+02	-1.523146e-02
2.905572e+02	-1.540761e-02
2.922354e+02	-1.558579e-02
2.939234e+02	-1.576602e-02
2.956211e+02	-1.594834e-02
2.973286e+02	-1.613276e-02
2.990459e+02	-1.631931e-02
3.007732e+02	-1.650801e-02
3.025104e+02	-1.669889e-02
3.042577e+02	-1.689198e-02
3.060151e+02	-1.708729e-02
3.077826e+02	-1.728485e-02
3.095604e+02	-1.748470e-02
3.113484e+02	-1.768685e-02
3.131467e+02	-1.789133e-02
3.149554e+02	-1.809818e-02
3.167746e+02	-1.830740e-02
3.186043e+02	-1.851905e-02
3.204445e+02	-1.873313e-02
3.222954e+02	-1.894968e-02
3.241570e+02	-1.916873e-02
3.260293e+02	-1.939031e-02
3.279124e+02	-1.961444e-02
3.298064e+02	-1.984116e-02
3.317114e+02	-2.007049e-02
3.336273e+02	-2.030247e-02
3.355544e+02	-2.053712e-02
3.374925e+02	-2.077448e-02
3.394418e+02	-2.101457e-02
3.414024e+02	-2.125743e-02
3.433744e+02	-2.150310e-02
3.453577e+02	-2.175159e-02
3.473525e+02	-2.200295e-02
3.493588e+02	-2.225720e-02
3.513766e+02	-2.251439e-02
3.534062e+02	-2.277453e-02
3.554474e+02	-2.303768e-02
3.575005e+02	-2.330386e-02
3.595654e+02	-2.357311e-02
3.616422e+02	-2.384545e-02
3.637311e+02	-2.412094e-02
3.658320e+02	-2.439960e-02
3.679450e+02	-2.468147e-02
3.700702e+02	-2.496659e-02
3.722077e+02	-2.525499e-02
3.743576e+02	-2.554671e-02
3.765199e+02	-2.584179e-02
3.786946e+02	-2.614027e-02
3.808820e+02	-2.644219e-02
3.830819e+02	-2.674758e-02
3.852946e+02	-2.705649e-02
3.875200e+02	-2.736896e-02
3.897583e+02	-2.768502e-02
3.920096e+02	-2.800472e-02
3.942738e+02	-2.832810e-02
3.965511e+02	-2.865521e-02
3.988416e+02	-2.898607e-02
4.011452e+02	-2.932075e-02
4.034622e+02	-2.965927e-02
4.057926e+02	-3.000169e-02
4.081365e+02	-3.034805e-02
4.104938e+02	-3.069840e-02
4.128648e+02	-3.105277e-02
4.152495e+02	-3.141122e-02
4.176480e+02	-3.177379e-02
4.200603e+02	-3.214053e-02
4.224866e+02	-3.251149e-02
4.249268e+02	-3.288672e-02
4.273812e+02	-3.326626e-02
4.298497e+02	-3.365016e-02
4.323325e+02	-3.403847e-02
4.348297e+02	-3.443125e-02
4.373412e+02	-3.482854e-02
4.398673e+02	-3.523040e-02
4.424079e+02	-3.563687e-02
4.449633e+02	-3.604802e-02
4.475334e+02	-3.646388e-02
4.501183e+02	-3.688453e-02
4.527182e+02	-3.731001e-02
4.553330e+02	-3.774037e-02
4.579630e+02	-3.817568e-02
4.606082e+02	-3.861598e-02
4.632687e+02	-3.906134e-02
4.659445e+02	-3.951181e-02
4.686358e+02	-3.996746e-02
4.713426e+02	-4.042833e-02
4.740650e+02	-4.089449e-02
4.768032e+02	-4.136600e-02
4.795572e+02	-4.184293e-02
4.823271e+02	-4.232532e-02
4.851130e+02	-4.281325e-02
4.879150e+02	-4.330677e-02
4.907332e+02	-4.380596e-02
4.935676e+02	-4.431087e-02
4.964185e+02	-4.482157e-02
4.992858e+02	-4.533812e-02
5.021696e+02	-4.586060e-02
5.050701e+02	-4.638906e-02
5.079874e+02	-4.692358e-02
5.109215e+02	-4.746423e-02
5.138726e+02	-4.801107e-02
5.168407e+02	-4.856417e-02
5.198259e+02	-4.912362e-02
5.228284e+02	-4.968947e-02
5.258482e+02	-5.026179e-02
5.288855e+02	-5.084068e-02
5.319403e+02	-5.142619e-02
5.350128e+02	-5.201840e-02
5.381030e+02	-5.261739e-02
5.412111e+02	-5.322324e-02
5.443371e+02	-5.383602e-02
5.474812e+02	-5.445581e-02
5.506434e+02	-5.508268e-02
5.538239e+02	-5.571673e-02
5.570228e+02	-5.635803e-02
5.602401e+02	-5.700667e-02
5.634760e+02	-5.766271e-02
5.667306e+02	-5.832626e-02
5.700040e+02	-5.899739e-02
5.732964e+02	-5.967619e-02
5.766077e+02	-6.036275e-02
5.799382e+02	-6.105715e-02
5.832879e+02	-6.175948e-02
5.866569e+02	-6.246983e-02
5.900454e+02	-6.318829e-02
5.934535e+02	-6.391495e-02
5.968813e+02	-6.464991e-02
6.003288e+02	-6.539325e-02
6.037963e+02	-6.614508e-02
6.072838e+02	-6.690548e-02
6.107914e+02	-6.767456e-02
6.143194e+02	-6.845241e-02
6.178676e+02	-6.923912e-02
6.214364e+02	-7.003481e-02
6.250258e+02	-7.083956e-02
6.286359e+02	-7.165349e-02
6.322669e+02	-7.247669e-02
6.359189e+02	-7.330926e-02
6.395919e+02	-7.415132e-02
6.432862e+02	-7.500296e-02
6.470017e+02	-7.586431e-02
6.507388e+02	-7.673545e-02
6.544974e+02	-7.761651e-02
6.582778e+02	-7.850760e-02
6.620800e+02	-7.940882e-02
6.659041e+02	-8.032029e-02
6.697504e+02	-8.124212e-02
6.736188e+02	-8.217444e-02
6.775096e+02	-8.311735e-02
6.814229e+02	-8.407097e-02
6.853587e+02	-8.503543e-02
6.893173e+02	-8.601084e-02
6.932988e+02	-8.699733e-02
6.973033e+02	-8.799502e-02
7.013309e+02	-8.900403e-02
