Frequency(Hz)	Magnitude(dB)
1.000000e+01	-2.174510e+00
1.005776e+01	-2.194233e+00
1.011585e+01	-2.214201e+00
1.017428e+01	-2.234107e+00
1.023305e+01	-2.254190e+00
1.029215e+01	-2.274669e+00
1.035160e+01	-2.295206e+00
1.041139e+01	-2.315403e+00
1.047153e+01	-2.336665e+00
1.053201e+01	-2.357291e+00
1.059284e+01	-2.378286e+00
1.065403e+01	-2.399544e+00
1.071556e+01	-2.420883e+00
1.077746e+01	-2.442435e+00
1.083971e+01	-2.463877e+00
1.090232e+01	-2.485517e+00
1.096529e+01	-2.507390e+00
1.102862e+01	-2.529705e+00
1.109232e+01	-2.551703e+00
1.115639e+01	-2.573950e+00
1.122083e+01	-2.596395e+00
1.128564e+01	-2.618765e+00
1.135083e+01	-2.641739e+00
1.141639e+01	-2.664477e+00
1.148233e+01	-2.687592e+00
1.154865e+01	-2.710723e+00
1.161536e+01	-2.733872e+00
1.168245e+01	-2.757504e+00
1.174992e+01	-2.781157e+00
1.181779e+01	-2.804880e+00
1.188605e+01	-2.828662e+00
1.195470e+01	-2.852585e+00
1.202375e+01	-2.876864e+00
1.209320e+01	-2.901332e+00
1.216305e+01	-2.925501e+00
1.223330e+01	-2.950015e+00
1.230396e+01	-2.975062e+00
1.237503e+01	-2.999832e+00
1.244651e+01	-3.024926e+00
1.251840e+01	-3.049809e+00
1.259070e+01	-3.075222e+00
1.266343e+01	-3.100624e+00
1.273657e+01	-3.126547e+00
1.281014e+01	-3.152269e+00
1.288413e+01	-3.178033e+00
1.295855e+01	-3.204013e+00
1.303339e+01	-3.230302e+00
1.310867e+01	-3.256799e+00
1.318439e+01	-3.282846e+00
1.326054e+01	-3.309251e+00
1.333713e+01	-3.336202e+00
1.341417e+01	-3.363085e+00
1.349165e+01	-3.390265e+00
1.356958e+01	-3.417420e+00
1.364795e+01	-3.444813e+00
1.372678e+01	-3.472217e+00
1.380607e+01	-3.499701e+00
1.388581e+01	-3.527799e+00
1.396602e+01	-3.555390e+00
1.404668e+01	-3.583761e+00
1.412782e+01	-3.611644e+00
1.420942e+01	-3.640092e+00
1.429149e+01	-3.668557e+00
1.437404e+01	-3.697141e+00
1.445706e+01	-3.725690e+00
1.454057e+01	-3.754707e+00
1.462455e+01	-3.783707e+00
1.470902e+01	-3.813042e+00
1.479398e+01	-3.842287e+00
1.487943e+01	-3.871569e+00
1.496537e+01	-3.901278e+00
1.505181e+01	-3.931028e+00
1.513875e+01	-3.960786e+00
1.522619e+01	-3.990835e+00
1.531414e+01	-4.021106e+00
1.540259e+01	-4.051046e+00
1.549156e+01	-4.081640e+00
1.558103e+01	-4.111986e+00
1.567103e+01	-4.142836e+00
1.576155e+01	-4.173869e+00
1.585258e+01	-4.204567e+00
1.594415e+01	-4.235425e+00
1.603624e+01	-4.267054e+00
1.612886e+01	-4.298208e+00
1.622202e+01	-4.329547e+00
1.631572e+01	-4.361525e+00
1.640996e+01	-4.393425e+00
1.650474e+01	-4.425020e+00
1.660008e+01	-4.457131e+00
1.669596e+01	-4.489510e+00
1.679239e+01	-4.521583e+00
1.688938e+01	-4.553941e+00
1.698694e+01	-4.586471e+00
1.708505e+01	-4.619269e+00
1.718373e+01	-4.652198e+00
1.728299e+01	-4.685122e+00
1.738281e+01	-4.718052e+00
1.748322e+01	-4.751471e+00
1.758420e+01	-4.784902e+00
1.768576e+01	-4.818361e+00
1.778792e+01	-4.851881e+00
1.789066e+01	-4.885630e+00
1.799399e+01	-4.919179e+00
1.809793e+01	-4.953338e+00
1.820246e+01	-4.987397e+00
1.830760e+01	-5.021608e+00
1.841334e+01	-5.056204e+00
1.851969e+01	-5.090795e+00
1.862666e+01	-5.124988e+00
1.873425e+01	-5.159397e+00
1.884246e+01	-5.194527e+00
1.895129e+01	-5.229554e+00
1.906075e+01	-5.264490e+00
1.917085e+01	-5.300053e+00
1.928158e+01	-5.335234e+00
1.939295e+01	-5.370436e+00
1.950496e+01	-5.406271e+00
1.961762e+01	-5.441808e+00
1.973093e+01	-5.477751e+00
1.984490e+01	-5.513809e+00
1.995952e+01	-5.549203e+00
2.007480e+01	-5.585493e+00
2.019076e+01	-5.622057e+00
2.030738e+01	-5.658626e+00
2.042467e+01	-5.694734e+00
2.054264e+01	-5.731453e+00
2.066130e+01	-5.768136e+00
2.078064e+01	-5.805100e+00
2.090066e+01	-5.842175e+00
2.102139e+01	-5.878855e+00
2.114280e+01	-5.916394e+00
2.126492e+01	-5.953315e+00
2.138775e+01	-5.990596e+00
2.151128e+01	-6.027839e+00
2.163553e+01	-6.065768e+00
2.176050e+01	-6.103785e+00
2.188619e+01	-6.141362e+00
2.201260e+01	-6.179346e+00
2.213974e+01	-6.217518e+00
2.226762e+01	-6.255400e+00
2.239624e+01	-6.293764e+00
2.252560e+01	-6.332185e+00
2.265571e+01	-6.370388e+00
2.278656e+01	-6.408842e+00
2.291818e+01	-6.447361e+00
2.305055e+01	-6.486192e+00
2.318369e+01	-6.525412e+00
2.331760e+01	-6.564274e+00
2.345228e+01	-6.603385e+00
2.358774e+01	-6.642187e+00
2.372398e+01	-6.681642e+00
2.386101e+01	-6.720481e+00
2.399883e+01	-6.760371e+00
2.413745e+01	-6.799672e+00
2.427686e+01	-6.839307e+00
2.441709e+01	-6.879318e+00
2.455812e+01	-6.918804e+00
2.469997e+01	-6.958933e+00
2.484263e+01	-6.999019e+00
2.498612e+01	-7.038925e+00
2.513044e+01	-7.078929e+00
2.527559e+01	-7.119118e+00
2.542158e+01	-7.159659e+00
2.556842e+01	-7.199960e+00
2.571610e+01	-7.240781e+00
2.586463e+01	-7.281116e+00
2.601403e+01	-7.322274e+00
2.616428e+01	-7.363207e+00
2.631541e+01	-7.403784e+00
2.646740e+01	-7.444483e+00
2.662028e+01	-7.486169e+00
2.677404e+01	-7.527140e+00
2.692868e+01	-7.568656e+00
2.708422e+01	-7.609281e+00
2.724066e+01	-7.651024e+00
2.739800e+01	-7.692525e+00
2.755625e+01	-7.733752e+00
2.771541e+01	-7.775240e+00
2.787550e+01	-7.817470e+00
2.803650e+01	-7.858976e+00
2.819844e+01	-7.900819e+00
2.836131e+01	-7.942987e+00
2.852513e+01	-7.984569e+00
2.868989e+01	-8.026982e+00
2.885560e+01	-8.069538e+00
2.902227e+01	-8.111497e+00
2.918990e+01	-8.153723e+00
2.935850e+01	-8.196273e+00
2.952807e+01	-8.238702e+00
2.969863e+01	-8.281165e+00
2.987016e+01	-8.324050e+00
3.004269e+01	-8.366525e+00
3.021622e+01	-8.409306e+00
3.039075e+01	-8.452110e+00
3.056628e+01	-8.495057e+00
3.074283e+01	-8.538143e+00
3.092040e+01	-8.581227e+00
3.109900e+01	-8.624683e+00
3.127862e+01	-8.667818e+00
3.145929e+01	-8.711355e+00
3.164099e+01	-8.754202e+00
3.182375e+01	-8.797415e+00
3.200756e+01	-8.841179e+00
3.219244e+01	-8.884136e+00
3.237838e+01	-8.928033e+00
3.256540e+01	-8.971600e+00
3.275349e+01	-9.015518e+00
3.294268e+01	-9.058966e+00
3.313295e+01	-9.103171e+00
3.332433e+01	-9.146679e+00
3.351681e+01	-9.190581e+00
3.371040e+01	-9.234874e+00
3.390511e+01	-9.278323e+00
3.410094e+01	-9.322988e+00
3.429791e+01	-9.367127e+00
3.449601e+01	-9.411738e+00
3.469526e+01	-9.456136e+00
3.489566e+01	-9.500094e+00
3.509721e+01	-9.544604e+00
3.529993e+01	-9.589250e+00
3.550382e+01	-9.633706e+00
3.570889e+01	-9.678533e+00
3.591515e+01	-9.723094e+00
3.612259e+01	-9.767844e+00
3.633123e+01	-9.812491e+00
3.654108e+01	-9.857792e+00
3.675214e+01	-9.902047e+00
3.696442e+01	-9.947003e+00
3.717792e+01	-9.992280e+00
3.739266e+01	-1.003691e+01
3.760864e+01	-1.008257e+01
3.782587e+01	-1.012707e+01
3.804435e+01	-1.017253e+01
3.826409e+01	-1.021826e+01
3.848510e+01	-1.026315e+01
3.870739e+01	-1.030858e+01
3.893096e+01	-1.035419e+01
3.915583e+01	-1.039919e+01
3.938199e+01	-1.044470e+01
3.960946e+01	-1.049012e+01
3.983824e+01	-1.053613e+01
4.006834e+01	-1.058149e+01
4.029978e+01	-1.062689e+01
4.053255e+01	-1.067327e+01
4.076666e+01	-1.071929e+01
4.100213e+01	-1.076480e+01
4.123896e+01	-1.081077e+01
4.147715e+01	-1.085695e+01
4.171672e+01	-1.090194e+01
4.195767e+01	-1.094834e+01
4.220002e+01	-1.099407e+01
4.244377e+01	-1.104018e+01
4.268892e+01	-1.108641e+01
4.293549e+01	-1.113300e+01
4.318348e+01	-1.117870e+01
4.343291e+01	-1.122514e+01
4.368377e+01	-1.127129e+01
4.393609e+01	-1.131775e+01
4.418986e+01	-1.136433e+01
4.444510e+01	-1.141076e+01
4.470182e+01	-1.145721e+01
4.496001e+01	-1.150331e+01
4.521970e+01	-1.155033e+01
4.548089e+01	-1.159587e+01
4.574358e+01	-1.164342e+01
4.600779e+01	-1.168968e+01
4.627353e+01	-1.173649e+01
4.654081e+01	-1.178287e+01
4.680963e+01	-1.182940e+01
4.708000e+01	-1.187633e+01
4.735193e+01	-1.192355e+01
4.762543e+01	-1.197022e+01
4.790051e+01	-1.201743e+01
4.817719e+01	-1.206341e+01
4.845545e+01	-1.211081e+01
4.873533e+01	-1.215761e+01
4.901682e+01	-1.220520e+01
4.929994e+01	-1.225114e+01
4.958470e+01	-1.229919e+01
4.987110e+01	-1.234548e+01
5.015915e+01	-1.239296e+01
5.044887e+01	-1.244062e+01
5.074026e+01	-1.248684e+01
5.103333e+01	-1.253450e+01
5.132810e+01	-1.258167e+01
5.162457e+01	-1.262915e+01
5.192275e+01	-1.267588e+01
5.222265e+01	-1.272350e+01
5.252429e+01	-1.277095e+01
5.282767e+01	-1.281870e+01
5.313280e+01	-1.286556e+01
5.343969e+01	-1.291364e+01
5.374836e+01	-1.296045e+01
5.405880e+01	-1.300891e+01
5.437105e+01	-1.305621e+01
5.468509e+01	-1.310351e+01
5.500095e+01	-1.315081e+01
5.531863e+01	-1.319892e+01
5.563815e+01	-1.324611e+01
5.595951e+01	-1.329379e+01
5.628273e+01	-1.334164e+01
5.660782e+01	-1.338949e+01
5.693479e+01	-1.343765e+01
5.726364e+01	-1.348511e+01
5.759439e+01	-1.353344e+01
5.792705e+01	-1.358119e+01
5.826164e+01	-1.362858e+01
5.859815e+01	-1.367598e+01
5.893662e+01	-1.372445e+01
5.927703e+01	-1.377302e+01
5.961941e+01	-1.382009e+01
5.996377e+01	-1.386813e+01
6.031012e+01	-1.391597e+01
6.065847e+01	-1.396416e+01
6.100883e+01	-1.401143e+01
6.136121e+01	-1.406097e+01
6.171563e+01	-1.410798e+01
6.207210e+01	-1.415630e+01
6.243063e+01	-1.420421e+01
6.279122e+01	-1.425252e+01
6.315390e+01	-1.430077e+01
6.351868e+01	-1.434884e+01
6.388556e+01	-1.439660e+01
6.425456e+01	-1.444514e+01
6.462569e+01	-1.449272e+01
6.499897e+01	-1.454111e+01
6.537440e+01	-1.459066e+01
6.575200e+01	-1.463902e+01
6.613178e+01	-1.468682e+01
6.651375e+01	-1.473530e+01
6.689793e+01	-1.478356e+01
6.728433e+01	-1.483131e+01
6.767297e+01	-1.488002e+01
6.806384e+01	-1.492811e+01
6.845698e+01	-1.497667e+01
6.885238e+01	-1.502548e+01
6.925007e+01	-1.507391e+01
6.965005e+01	-1.512139e+01
7.005235e+01	-1.517040e+01
7.045697e+01	-1.522047e+01
7.086393e+01	-1.526804e+01
7.127323e+01	-1.531678e+01
7.168490e+01	-1.536621e+01
7.209895e+01	-1.541333e+01
7.251539e+01	-1.546208e+01
7.293424e+01	-1.551164e+01
7.335551e+01	-1.555898e+01
7.377920e+01	-1.560910e+01
7.420535e+01	-1.565623e+01
7.463396e+01	-1.570531e+01
7.506504e+01	-1.575421e+01
7.549861e+01	-1.580284e+01
7.593469e+01	-1.585135e+01
7.637328e+01	-1.590063e+01
7.681441e+01	-1.594942e+01
7.725809e+01	-1.599861e+01
7.770433e+01	-1.604685e+01
7.815315e+01	-1.609587e+01
7.860456e+01	-1.614505e+01
7.905857e+01	-1.619211e+01
7.951521e+01	-1.624175e+01
7.997449e+01	-1.629034e+01
8.043642e+01	-1.633907e+01
8.090102e+01	-1.638767e+01
8.136830e+01	-1.643691e+01
8.183828e+01	-1.648695e+01
8.231097e+01	-1.653543e+01
8.278640e+01	-1.658377e+01
8.326457e+01	-1.663362e+01
8.374550e+01	-1.668144e+01
8.422921e+01	-1.673096e+01
8.471572e+01	-1.677929e+01
8.520503e+01	-1.682838e+01
8.569717e+01	-1.687716e+01
8.619215e+01	-1.692720e+01
8.669000e+01	-1.697529e+01
8.719071e+01	-1.702471e+01
8.769432e+01	-1.707419e+01
8.820084e+01	-1.712328e+01
8.871029e+01	-1.717226e+01
8.922267e+01	-1.722092e+01
8.973802e+01	-1.727072e+01
9.025634e+01	-1.731964e+01
9.077766e+01	-1.736884e+01
9.130199e+01	-1.741866e+01
9.182935e+01	-1.746632e+01
9.235975e+01	-1.751505e+01
9.289321e+01	-1.756537e+01
9.342976e+01	-1.761470e+01
9.396941e+01	-1.766346e+01
9.451217e+01	-1.771200e+01
9.505807e+01	-1.776129e+01
9.560712e+01	-1.781069e+01
9.615934e+01	-1.786039e+01
9.671476e+01	-1.790963e+01
9.727338e+01	-1.795830e+01
9.783522e+01	-1.800881e+01
9.840032e+01	-1.805720e+01
9.896867e+01	-1.810581e+01
9.954031e+01	-1.815564e+01
1.001153e+02	-1.820495e+01
1.006935e+02	-1.825261e+01
1.012751e+02	-1.830293e+01
1.018601e+02	-1.835244e+01
1.024484e+02	-1.840109e+01
1.030402e+02	-1.845294e+01
1.036353e+02	-1.850144e+01
1.042339e+02	-1.855062e+01
1.048360e+02	-1.859887e+01
1.054415e+02	-1.864827e+01
1.060505e+02	-1.869787e+01
1.066631e+02	-1.874714e+01
1.072791e+02	-1.879743e+01
1.078988e+02	-1.884564e+01
1.085220e+02	-1.889494e+01
1.091488e+02	-1.894614e+01
1.097793e+02	-1.899416e+01
1.104133e+02	-1.904474e+01
1.110511e+02	-1.909395e+01
1.116925e+02	-1.914232e+01
1.123376e+02	-1.919149e+01
1.129865e+02	-1.924093e+01
1.136391e+02	-1.929072e+01
1.142955e+02	-1.934036e+01
1.149556e+02	-1.938984e+01
1.156196e+02	-1.944016e+01
1.162874e+02	-1.948932e+01
1.169591e+02	-1.953905e+01
1.176347e+02	-1.958568e+01
1.183141e+02	-1.963848e+01
1.189975e+02	-1.968716e+01
1.196848e+02	-1.973616e+01
1.203761e+02	-1.978459e+01
1.210714e+02	-1.983574e+01
1.217707e+02	-1.988549e+01
1.224740e+02	-1.993574e+01
1.231814e+02	-1.998365e+01
1.238929e+02	-2.003159e+01
1.246085e+02	-2.008318e+01
1.253283e+02	-2.013298e+01
1.260522e+02	-2.018199e+01
1.267802e+02	-2.023085e+01
1.275125e+02	-2.028166e+01
1.282490e+02	-2.033127e+01
1.289898e+02	-2.037980e+01
1.297348e+02	-2.042960e+01
1.304842e+02	-2.048041e+01
1.312378e+02	-2.052815e+01
1.319959e+02	-2.057867e+01
1.327583e+02	-2.062773e+01
1.335251e+02	-2.067706e+01
1.342963e+02	-2.072651e+01
1.350720e+02	-2.077620e+01
1.358522e+02	-2.082625e+01
1.366368e+02	-2.087583e+01
1.374260e+02	-2.092737e+01
1.382198e+02	-2.097622e+01
1.390182e+02	-2.102598e+01
1.398211e+02	-2.107596e+01
1.406287e+02	-2.112484e+01
1.414410e+02	-2.117498e+01
1.422579e+02	-2.122300e+01
1.430796e+02	-2.127490e+01
1.439060e+02	-2.132332e+01
1.447372e+02	-2.137323e+01
1.455732e+02	-2.142224e+01
1.464141e+02	-2.147216e+01
1.472597e+02	-2.152229e+01
1.481103e+02	-2.157041e+01
1.489658e+02	-2.162164e+01
1.498262e+02	-2.167143e+01
1.506916e+02	-2.172299e+01
1.515620e+02	-2.177011e+01
1.524374e+02	-2.182237e+01
1.533179e+02	-2.186946e+01
1.542034e+02	-2.192014e+01
1.550941e+02	-2.197041e+01
1.559899e+02	-2.201991e+01
1.568909e+02	-2.206916e+01
1.577971e+02	-2.211978e+01
1.587085e+02	-2.216696e+01
1.596252e+02	-2.221697e+01
1.605472e+02	-2.226798e+01
1.614745e+02	-2.231847e+01
1.624072e+02	-2.236822e+01
1.633453e+02	-2.241852e+01
1.642887e+02	-2.246567e+01
1.652377e+02	-2.251525e+01
1.661921e+02	-2.256735e+01
1.671520e+02	-2.261644e+01
1.681175e+02	-2.266639e+01
1.690885e+02	-2.271546e+01
1.700651e+02	-2.276662e+01
1.710474e+02	-2.281418e+01
1.720354e+02	-2.286438e+01
1.730291e+02	-2.291444e+01
1.740285e+02	-2.296374e+01
1.750337e+02	-2.301221e+01
1.760446e+02	-2.306471e+01
1.770615e+02	-2.311678e+01
1.780842e+02	-2.316334e+01
1.791128e+02	-2.321245e+01
1.801473e+02	-2.326632e+01
1.811878e+02	-2.331313e+01
1.822344e+02	-2.336286e+01
1.832870e+02	-2.341427e+01
1.843456e+02	-2.346311e+01
1.854104e+02	-2.351621e+01
1.864813e+02	-2.355911e+01
1.875584e+02	-2.361330e+01
1.886418e+02	-2.366231e+01
1.897313e+02	-2.371291e+01
1.908272e+02	-2.376122e+01
1.919294e+02	-2.381048e+01
1.930380e+02	-2.386060e+01
1.941530e+02	-2.391314e+01
1.952744e+02	-2.396072e+01
1.964023e+02	-2.401296e+01
1.975367e+02	-2.405894e+01
1.986777e+02	-2.411027e+01
1.998252e+02	-2.416165e+01
2.009794e+02	-2.421260e+01
2.021403e+02	-2.426069e+01
2.033078e+02	-2.431014e+01
2.044821e+02	-2.435856e+01
2.056632e+02	-2.440940e+01
2.068511e+02	-2.445980e+01
2.080459e+02	-2.450976e+01
2.092475e+02	-2.455875e+01
2.104561e+02	-2.461113e+01
2.116717e+02	-2.465771e+01
2.128943e+02	-2.470778e+01
2.141240e+02	-2.475975e+01
2.153608e+02	-2.480963e+01
2.166047e+02	-2.486142e+01
2.178558e+02	-2.490777e+01
2.191141e+02	-2.495794e+01
2.203797e+02	-2.500851e+01
2.216526e+02	-2.505923e+01
2.229329e+02	-2.511134e+01
2.242205e+02	-2.515819e+01
2.255156e+02	-2.520874e+01
2.268182e+02	-2.526073e+01
2.281283e+02	-2.530928e+01
2.294459e+02	-2.535857e+01
2.307712e+02	-2.540975e+01
2.321041e+02	-2.546084e+01
2.334447e+02	-2.550958e+01
2.347931e+02	-2.555808e+01
2.361493e+02	-2.560854e+01
2.375133e+02	-2.566210e+01
2.388851e+02	-2.570774e+01
2.402649e+02	-2.575864e+01
2.416527e+02	-2.580580e+01
2.430484e+02	-2.585756e+01
2.444523e+02	-2.591115e+01
2.458642e+02	-2.595800e+01
2.472843e+02	-2.600499e+01
2.487126e+02	-2.605977e+01
2.501492e+02	-2.610721e+01
2.515940e+02	-2.615470e+01
2.530472e+02	-2.620625e+01
2.545088e+02	-2.625913e+01
2.559789e+02	-2.630643e+01
2.574574e+02	-2.635537e+01
2.589444e+02	-2.640563e+01
2.604401e+02	-2.645793e+01
2.619444e+02	-2.650557e+01
2.634574e+02	-2.655636e+01
2.649791e+02	-2.661023e+01
2.665096e+02	-2.665334e+01
2.680489e+02	-2.670476e+01
2.695972e+02	-2.676021e+01
2.711544e+02	-2.680543e+01
2.727205e+02	-2.685547e+01
2.742958e+02	-2.690503e+01
2.758801e+02	-2.695892e+01
2.774736e+02	-2.700386e+01
2.790762e+02	-2.705540e+01
2.806882e+02	-2.710725e+01
2.823094e+02	-2.715543e+01
2.839400e+02	-2.720502e+01
2.855800e+02	-2.725576e+01
2.872295e+02	-2.730695e+01
2.888886e+02	-2.735820e+01
2.905572e+02	-2.741101e+01
2.922354e+02	-2.745769e+01
2.939234e+02	-2.750639e+01
2.956211e+02	-2.755518e+01
2.973286e+02	-2.761016e+01
2.990459e+02	-2.765999e+01
3.007732e+02	-2.770705e+01
3.025104e+02	-2.776020e+01
3.042577e+02	-2.780675e+01
3.060151e+02	-2.785476e+01
3.077826e+02	-2.790583e+01
3.095604e+02	-2.795736e+01
3.113484e+02	-2.800682e+01
3.131467e+02	-2.805782e+01
3.149554e+02	-2.810439e+01
3.167746e+02	-2.815469e+01
3.186043e+02	-2.820681e+01
3.204445e+02	-2.825466e+01
3.222954e+02	-2.831070e+01
3.241570e+02	-2.835732e+01
3.260293e+02	-2.840772e+01
3.279124e+02	-2.845783e+01
3.298064e+02	-2.851237e+01
3.317114e+02	-2.855666e+01
3.336273e+02	-2.861377e+01
3.355544e+02	-2.865552e+01
3.374925e+02	-2.870903e+01
3.394418e+02	-2.876085e+01
3.414024e+02	-2.881057e+01
3.433744e+02	-2.885832e+01
3.453577e+02	-2.890851e+01
3.473525e+02	-2.896025e+01
3.493588e+02	-2.900796e+01
3.513766e+02	-2.905841e+01
3.534062e+02	-2.910753e+01
3.554474e+02	-2.915896e+01
3.575005e+02	-2.921503e+01
3.595654e+02	-2.925983e+01
3.616422e+02	-2.930816e+01
3.637311e+02	-2.935830e+01
3.658320e+02	-2.940488e+01
3.679450e+02	-2.946292e+01
3.700702e+02	-2.950776e+01
3.722077e+02	-2.956056e+01
3.743576e+02	-2.961132e+01
3.765199e+02	-2.965990e+01
3.786946e+02	-2.970912e+01
3.808820e+02	-2.976161e+01
3.830819e+02	-2.981253e+01
3.852946e+02	-2.985842e+01
3.875200e+02	-2.991013e+01
3.897583e+02	-2.996060e+01
3.920096e+02	-3.000854e+01
3.942738e+02	-3.005609e+01
3.965511e+02	-3.011000e+01
3.988416e+02	-3.016358e+01
4.011452e+02	-3.020614e+01
4.034622e+02	-3.026111e+01
4.057926e+02	-3.031585e+01
4.081365e+02	-3.036580e+01
4.104938e+02	-3.041546e+01
4.128648e+02	-3.046286e+01
4.152495e+02	-3.050822e+01
4.176480e+02	-3.056322e+01
4.200603e+02	-3.060930e+01
4.224866e+02	-3.065998e+01
4.249268e+02	-3.071227e+01
4.273812e+02	-3.076001e+01
4.298497e+02	-3.080593e+01
4.323325e+02	-3.086132e+01
4.348297e+02	-3.090748e+01
4.373412e+02	-3.096916e+01
4.398673e+02	-3.100992e+01
4.424079e+02	-3.106447e+01
4.449633e+02	-3.111024e+01
4.475334e+02	-3.116497e+01
4.501183e+02	-3.120776e+01
4.527182e+02	-3.126383e+01
4.553330e+02	-3.130926e+01
4.579630e+02	-3.136437e+01
4.606082e+02	-3.141994e+01
4.632687e+02	-3.146668e+01
4.659445e+02	-3.151615e+01
4.686358e+02	-3.156179e+01
4.713426e+02	-3.161687e+01
4.740650e+02	-3.166229e+01
4.768032e+02	-3.171017e+01
4.795572e+02	-3.176200e+01
4.823271e+02	-3.181568e+01
4.851130e+02	-3.186283e+01
4.879150e+02	-3.191416e+01
4.907332e+02	-3.197137e+01
4.935676e+02	-3.201419e+01
4.964185e+02	-3.206867e+01
4.992858e+02	-3.211857e+01
5.021696e+02	-3.216586e+01
5.050701e+02	-3.221660e+01
5.079874e+02	-3.225995e+01
5.109215e+02	-3.231976e+01
5.138726e+02	-3.236290e+01
5.168407e+02	-3.241721e+01
5.198259e+02	-3.247067e+01
5.228284e+02	-3.251853e+01
5.258482e+02	-3.256776e+01
5.288855e+02	-3.261879e+01
5.319403e+02	-3.267064e+01
5.350128e+02	-3.272449e+01
5.381030e+02	-3.277272e+01
5.412111e+02	-3.281865e+01
5.443371e+02	-3.286841e+01
5.474812e+02	-3.292021e+01
5.506434e+02	-3.297622e+01
5.538239e+02	-3.302314e+01
5.570228e+02	-3.307414e+01
5.602401e+02	-3.311968e+01
5.634760e+02	-3.316868e+01
5.667306e+02	-3.321941e+01
5.700040e+02	-3.327521e+01
5.732964e+02	-3.332475e+01
5.766077e+02	-3.336908e+01
5.799382e+02	-3.342881e+01
5.832879e+02	-3.347854e+01
5.866569e+02	-3.352473e+01
5.900454e+02	-3.358021e+01
5.934535e+02	-3.363099e+01
5.968813e+02	-3.367666e+01
6.003288e+02	-3.372766e+01
6.037963e+02	-3.377481e+01
6.072838e+02	-3.382759e+01
6.107914e+02	-3.387096e+01
6.143194e+02	-3.392968e+01
6.178676e+02	-3.397912e+01
6.214364e+02	-3.402798e+01
6.250258e+02	-3.407674e+01
6.286359e+02	-3.412847e+01
6.322669e+02	-3.418152e+01
6.359189e+02	-3.422483e+01
6.395919e+02	-3.428344e+01
6.432862e+02	-3.434076e+01
6.470017e+02	-3.438501e+01
6.507388e+02	-3.443264e+01
6.544974e+02	-3.448189e+01
6.582778e+02	-3.453064e+01
6.620800e+02	-3.458721e+01
6.659041e+02	-3.463640e+01
6.697504e+02	-3.468150e+01
6.736188e+02	-3.473774e+01
6.775096e+02	-3.478548e+01
6.814229e+02	-3.482617e+01
6.853587e+02	-3.487605e+01
6.893173e+02	-3.494132e+01
6.932988e+02	-3.498430e+01
6.973033e+02	-3.503359e+01
7.013309e+02	-3.508837e+01
