Frequency(Hz)	Magnitude(dB)
1.000000e+01	-1.553261e-05
1.005776e+01	-1.571256e-05
1.011585e+01	-1.589459e-05
1.017428e+01	-1.607873e-05
1.023305e+01	-1.626501e-05
1.029215e+01	-1.645344e-05
1.035160e+01	-1.664406e-05
1.041139e+01	-1.683689e-05
1.047153e+01	-1.703195e-05
1.053201e+01	-1.722927e-05
1.059284e+01	-1.742887e-05
1.065403e+01	-1.763079e-05
1.071556e+01	-1.783505e-05
1.077746e+01	-1.804167e-05
1.083971e+01	-1.825069e-05
1.090232e+01	-1.846213e-05
1.096529e+01	-1.867601e-05
1.102862e+01	-1.889238e-05
1.109232e+01	-1.911125e-05
1.115639e+01	-1.933266e-05
1.122083e+01	-1.955664e-05
1.128564e+01	-1.978321e-05
1.135083e+01	-2.001240e-05
1.141639e+01	-2.024425e-05
1.148233e+01	-2.047878e-05
1.154865e+01	-2.071603e-05
1.161536e+01	-2.095603e-05
1.168245e+01	-2.119882e-05
1.174992e+01	-2.144441e-05
1.181779e+01	-2.169285e-05
1.188605e+01	-2.194417e-05
1.195470e+01	-2.219839e-05
1.202375e+01	-2.245557e-05
1.209320e+01	-2.271572e-05
1.216305e+01	-2.297889e-05
1.223330e+01	-2.324510e-05
1.230396e+01	-2.351440e-05
1.237503e+01	-2.378683e-05
1.244651e+01	-2.406240e-05
1.251840e+01	-2.434117e-05
1.259070e+01	-2.462317e-05
1.266343e+01	-2.490843e-05
1.273657e+01	-2.519700e-05
1.281014e+01	-2.548892e-05
1.288413e+01	-2.578421e-05
1.295855e+01	-2.608293e-05
1.303339e+01	-2.638511e-05
1.310867e+01	-2.669078e-05
1.318439e+01	-2.700000e-05
1.326054e+01	-2.731281e-05
1.333713e+01	-2.762923e-05
1.341417e+01	-2.794932e-05
1.349165e+01	-2.827312e-05
1.356958e+01	-2.860067e-05
1.364795e+01	-2.893202e-05
1.372678e+01	-2.926720e-05
1.380607e+01	-2.960627e-05
1.388581e+01	-2.994927e-05
1.396602e+01	-3.029624e-05
1.404668e+01	-3.064723e-05
1.412782e+01	-3.100228e-05
1.420942e+01	-3.136145e-05
1.429149e+01	-3.172478e-05
1.437404e+01	-3.209232e-05
1.445706e+01	-3.246412e-05
1.454057e+01	-3.284022e-05
1.462455e+01	-3.322068e-05
1.470902e+01	-3.360555e-05
1.479398e+01	-3.399488e-05
1.487943e+01	-3.438872e-05
1.496537e+01	-3.478712e-05
1.505181e+01	-3.519014e-05
1.513875e+01	-3.559782e-05
1.522619e+01	-3.601023e-05
1.531414e+01	-3.642742e-05
1.540259e+01	-3.684944e-05
1.549156e+01	-3.727635e-05
1.558103e+01	-3.770820e-05
1.567103e+01	-3.814506e-05
1.576155e+01	-3.858698e-05
1.585258e+01	-3.903402e-05
1.594415e+01	-3.948624e-05
1.603624e+01	-3.994369e-05
1.612886e+01	-4.040645e-05
1.622202e+01	-4.087457e-05
1.631572e+01	-4.134811e-05
1.640996e+01	-4.182714e-05
1.650474e+01	-4.231171e-05
1.660008e+01	-4.280190e-05
1.669596e+01	-4.329777e-05
1.679239e+01	-4.379939e-05
1.688938e+01	-4.430681e-05
1.698694e+01	-4.482012e-05
1.708505e+01	-4.533937e-05
1.718373e+01	-4.586463e-05
1.728299e+01	-4.639599e-05
1.738281e+01	-4.693349e-05
1.748322e+01	-4.747723e-05
1.758420e+01	-4.802726e-05
1.768576e+01	-4.858367e-05
1.778792e+01	-4.914652e-05
1.789066e+01	-4.971589e-05
1.799399e+01	-5.029186e-05
1.809793e+01	-5.087451e-05
1.820246e+01	-5.146390e-05
1.830760e+01	-5.206012e-05
1.841334e+01	-5.266324e-05
1.851969e+01	-5.327336e-05
1.862666e+01	-5.389054e-05
1.873425e+01	-5.451488e-05
1.884246e+01	-5.514644e-05
1.895129e+01	-5.578532e-05
1.906075e+01	-5.643161e-05
1.917085e+01	-5.708538e-05
1.928158e+01	-5.774673e-05
1.939295e+01	-5.841573e-05
1.950496e+01	-5.909249e-05
1.961762e+01	-5.977709e-05
1.973093e+01	-6.046962e-05
1.984490e+01	-6.117017e-05
1.995952e+01	-6.187884e-05
2.007480e+01	-6.259572e-05
2.019076e+01	-6.332090e-05
2.030738e+01	-6.405449e-05
2.042467e+01	-6.479657e-05
2.054264e+01	-6.554725e-05
2.066130e+01	-6.630663e-05
2.078064e+01	-6.707480e-05
2.090066e+01	-6.785188e-05
2.102139e+01	-6.863796e-05
2.114280e+01	-6.943314e-05
2.126492e+01	-7.023753e-05
2.138775e+01	-7.105125e-05
2.151128e+01	-7.187439e-05
2.163553e+01	-7.270707e-05
2.176050e+01	-7.354939e-05
2.188619e+01	-7.440148e-05
2.201260e+01	-7.526343e-05
2.213974e+01	-7.613537e-05
2.226762e+01	-7.701741e-05
2.239624e+01	-7.790967e-05
2.252560e+01	-7.881227e-05
2.265571e+01	-7.972532e-05
2.278656e+01	-8.064896e-05
2.291818e+01	-8.158329e-05
2.305055e+01	-8.252844e-05
2.318369e+01	-8.348455e-05
2.331760e+01	-8.445173e-05
2.345228e+01	-8.543012e-05
2.358774e+01	-8.641984e-05
2.372398e+01	-8.742103e-05
2.386101e+01	-8.843382e-05
2.399883e+01	-8.945834e-05
2.413745e+01	-9.049473e-05
2.427686e+01	-9.154312e-05
2.441709e+01	-9.260366e-05
2.455812e+01	-9.367649e-05
2.469997e+01	-9.476175e-05
2.484263e+01	-9.585958e-05
2.498612e+01	-9.697012e-05
2.513044e+01	-9.809354e-05
2.527559e+01	-9.922997e-05
2.542158e+01	-1.003796e-04
2.556842e+01	-1.015425e-04
2.571610e+01	-1.027189e-04
2.586463e+01	-1.039089e-04
2.601403e+01	-1.051127e-04
2.616428e+01	-1.063304e-04
2.631541e+01	-1.075623e-04
2.646740e+01	-1.088084e-04
2.662028e+01	-1.100689e-04
2.677404e+01	-1.113441e-04
2.692868e+01	-1.126340e-04
2.708422e+01	-1.139389e-04
2.724066e+01	-1.152589e-04
2.739800e+01	-1.165942e-04
2.755625e+01	-1.179450e-04
2.771541e+01	-1.193114e-04
2.787550e+01	-1.206936e-04
2.803650e+01	-1.220919e-04
2.819844e+01	-1.235063e-04
2.836131e+01	-1.249371e-04
2.852513e+01	-1.263846e-04
2.868989e+01	-1.278487e-04
2.885560e+01	-1.293299e-04
2.902227e+01	-1.308282e-04
2.918990e+01	-1.323438e-04
2.935850e+01	-1.338770e-04
2.952807e+01	-1.354280e-04
2.969863e+01	-1.369970e-04
2.987016e+01	-1.385841e-04
3.004269e+01	-1.401896e-04
3.021622e+01	-1.418137e-04
3.039075e+01	-1.434566e-04
3.056628e+01	-1.451186e-04
3.074283e+01	-1.467998e-04
3.092040e+01	-1.485005e-04
3.109900e+01	-1.502209e-04
3.127862e+01	-1.519612e-04
3.145929e+01	-1.537217e-04
3.164099e+01	-1.555026e-04
3.182375e+01	-1.573041e-04
3.200756e+01	-1.591265e-04
3.219244e+01	-1.609699e-04
3.237838e+01	-1.628348e-04
3.256540e+01	-1.647212e-04
3.275349e+01	-1.666295e-04
3.294268e+01	-1.685600e-04
3.313295e+01	-1.705127e-04
3.332433e+01	-1.724881e-04
3.351681e+01	-1.744864e-04
3.371040e+01	-1.765078e-04
3.390511e+01	-1.785527e-04
3.410094e+01	-1.806212e-04
3.429791e+01	-1.827137e-04
3.449601e+01	-1.848305e-04
3.469526e+01	-1.869718e-04
3.489566e+01	-1.891378e-04
3.509721e+01	-1.913290e-04
3.529993e+01	-1.935455e-04
3.550382e+01	-1.957878e-04
3.570889e+01	-1.980560e-04
3.591515e+01	-2.003505e-04
3.612259e+01	-2.026715e-04
3.633123e+01	-2.050195e-04
3.654108e+01	-2.073946e-04
3.675214e+01	-2.097973e-04
3.696442e+01	-2.122278e-04
3.717792e+01	-2.146864e-04
3.739266e+01	-2.171736e-04
3.760864e+01	-2.196895e-04
3.782587e+01	-2.222346e-04
3.804435e+01	-2.248092e-04
3.826409e+01	-2.274136e-04
3.848510e+01	-2.300482e-04
3.870739e+01	-2.327133e-04
3.893096e+01	-2.354093e-04
3.915583e+01	-2.381365e-04
3.938199e+01	-2.408953e-04
3.960946e+01	-2.436861e-04
3.983824e+01	-2.465091e-04
4.006834e+01	-2.493649e-04
4.029978e+01	-2.522538e-04
4.053255e+01	-2.551762e-04
4.076666e+01	-2.581324e-04
4.100213e+01	-2.611228e-04
4.123896e+01	-2.641479e-04
4.147715e+01	-2.672080e-04
4.171672e+01	-2.703036e-04
4.195767e+01	-2.734351e-04
4.220002e+01	-2.766028e-04
4.244377e+01	-2.798072e-04
4.268892e+01	-2.830487e-04
4.293549e+01	-2.863278e-04
4.318348e+01	-2.896449e-04
4.343291e+01	-2.930004e-04
4.368377e+01	-2.963948e-04
4.393609e+01	-2.998285e-04
4.418986e+01	-3.033019e-04
4.444510e+01	-3.068157e-04
4.470182e+01	-3.103701e-04
4.496001e+01	-3.139657e-04
4.521970e+01	-3.176029e-04
4.548089e+01	-3.212823e-04
4.574358e+01	-3.250043e-04
4.600779e+01	-3.287694e-04
4.627353e+01	-3.325782e-04
4.654081e+01	-3.364310e-04
4.680963e+01	-3.403285e-04
4.708000e+01	-3.442712e-04
4.735193e+01	-3.482595e-04
4.762543e+01	-3.522940e-04
4.790051e+01	-3.563753e-04
4.817719e+01	-3.605038e-04
4.845545e+01	-3.646802e-04
4.873533e+01	-3.689049e-04
4.901682e+01	-3.731786e-04
4.929994e+01	-3.775018e-04
4.958470e+01	-3.818750e-04
4.987110e+01	-3.862990e-04
5.015915e+01	-3.907741e-04
5.044887e+01	-3.953012e-04
5.074026e+01	-3.998806e-04
5.103333e+01	-4.045131e-04
5.132810e+01	-4.091993e-04
5.162457e+01	-4.139398e-04
5.192275e+01	-4.187352e-04
5.222265e+01	-4.235861e-04
5.252429e+01	-4.284932e-04
5.282767e+01	-4.334572e-04
5.313280e+01	-4.384786e-04
5.343969e+01	-4.435583e-04
5.374836e+01	-4.486967e-04
5.405880e+01	-4.538948e-04
5.437105e+01	-4.591530e-04
5.468509e+01	-4.644721e-04
5.500095e+01	-4.698528e-04
5.531863e+01	-4.752959e-04
5.563815e+01	-4.808021e-04
5.595951e+01	-4.863720e-04
5.628273e+01	-4.920064e-04
5.660782e+01	-4.977061e-04
5.693479e+01	-5.034718e-04
5.726364e+01	-5.093044e-04
5.759439e+01	-5.152044e-04
5.792705e+01	-5.211729e-04
5.826164e+01	-5.272104e-04
5.859815e+01	-5.333179e-04
5.893662e+01	-5.394962e-04
5.927703e+01	-5.457460e-04
5.961941e+01	-5.520682e-04
5.996377e+01	-5.584637e-04
6.031012e+01	-5.649332e-04
6.065847e+01	-5.714777e-04
6.100883e+01	-5.780980e-04
6.136121e+01	-5.847949e-04
6.171563e+01	-5.915695e-04
6.207210e+01	-5.984225e-04
6.243063e+01	-6.053549e-04
6.279122e+01	-6.123676e-04
6.315390e+01	-6.194616e-04
6.351868e+01	-6.266377e-04
6.388556e+01	-6.338969e-04
6.425456e+01	-6.412403e-04
6.462569e+01	-6.486686e-04
6.499897e+01	-6.561831e-04
6.537440e+01	-6.637846e-04
6.575200e+01	-6.714741e-04
6.613178e+01	-6.792527e-04
6.651375e+01	-6.871214e-04
6.689793e+01	-6.950813e-04
6.728433e+01	-7.031333e-04
6.767297e+01	-7.112786e-04
6.806384e+01	-7.195183e-04
6.845698e+01	-7.278534e-04
6.885238e+01	-7.362851e-04
6.925007e+01	-7.448144e-04
6.965005e+01	-7.534426e-04
7.005235e+01	-7.621706e-04
7.045697e+01	-7.709998e-04
7.086393e+01	-7.799312e-04
7.127323e+01	-7.889661e-04
7.168490e+01	-7.981057e-04
7.209895e+01	-8.073511e-04
7.251539e+01	-8.167036e-04
7.293424e+01	-8.261644e-04
7.335551e+01	-8.357349e-04
7.377920e+01	-8.454161e-04
7.420535e+01	-8.552096e-04
7.463396e+01	-8.651164e-04
7.506504e+01	-8.751380e-04
7.549861e+01	-8.852757e-04
7.593469e+01	-8.955308e-04
7.637328e+01	-9.059047e-04
7.681441e+01	-9.163987e-04
7.725809e+01	-9.270143e-04
7.770433e+01	-9.377529e-04
7.815315e+01	-9.486158e-04
7.860456e+01	-9.596046e-04
7.905857e+01	-9.707206e-04
7.951521e+01	-9.819654e-04
7.997449e+01	-9.933404e-04
8.043642e+01	-1.004847e-03
8.090102e+01	-1.016487e-03
8.136830e+01	-1.028262e-03
8.183828e+01	-1.040173e-03
8.231097e+01	-1.052223e-03
8.278640e+01	-1.064411e-03
8.326457e+01	-1.076741e-03
8.374550e+01	-1.089214e-03
8.422921e+01	-1.101831e-03
8.471572e+01	-1.114595e-03
8.520503e+01	-1.127506e-03
8.569717e+01	-1.140567e-03
8.619215e+01	-1.153779e-03
8.669000e+01	-1.167144e-03
8.719071e+01	-1.180664e-03
8.769432e+01	-1.194340e-03
8.820084e+01	-1.208175e-03
8.871029e+01	-1.222170e-03
8.922267e+01	-1.236327e-03
8.973802e+01	-1.250648e-03
9.025634e+01	-1.265135e-03
9.077766e+01	-1.279790e-03
9.130199e+01	-1.294615e-03
9.182935e+01	-1.309611e-03
9.235975e+01	-1.324781e-03
9.289321e+01	-1.340126e-03
9.342976e+01	-1.355649e-03
9.396941e+01	-1.371353e-03
9.451217e+01	-1.387238e-03
9.505807e+01	-1.403306e-03
9.560712e+01	-1.419561e-03
9.615934e+01	-1.436005e-03
9.671476e+01	-1.452638e-03
9.727338e+01	-1.469465e-03
9.783522e+01	-1.486486e-03
9.840032e+01	-1.503704e-03
9.896867e+01	-1.521122e-03
9.954031e+01	-1.538742e-03
1.001153e+02	-1.556565e-03
1.006935e+02	-1.574595e-03
1.012751e+02	-1.592834e-03
1.018601e+02	-1.611284e-03
1.024484e+02	-1.629948e-03
1.030402e+02	-1.648827e-03
1.036353e+02	-1.667926e-03
1.042339e+02	-1.687245e-03
1.048360e+02	-1.706789e-03
1.054415e+02	-1.726558e-03
1.060505e+02	-1.746557e-03
1.066631e+02	-1.766787e-03
1.072791e+02	-1.787252e-03
1.078988e+02	-1.807953e-03
1.085220e+02	-1.828894e-03
1.091488e+02	-1.850078e-03
1.097793e+02	-1.871507e-03
1.104133e+02	-1.893184e-03
1.110511e+02	-1.915113e-03
1.116925e+02	-1.937295e-03
1.123376e+02	-1.959734e-03
1.129865e+02	-1.982433e-03
1.136391e+02	-2.005394e-03
1.142955e+02	-2.028622e-03
1.149556e+02	-2.052118e-03
1.156196e+02	-2.075887e-03
1.162874e+02	-2.099931e-03
1.169591e+02	-2.124253e-03
1.176347e+02	-2.148857e-03
1.183141e+02	-2.173746e-03
1.189975e+02	-2.198923e-03
1.196848e+02	-2.224392e-03
1.203761e+02	-2.250155e-03
1.210714e+02	-2.276217e-03
1.217707e+02	-2.302581e-03
1.224740e+02	-2.329249e-03
1.231814e+02	-2.356227e-03
1.238929e+02	-2.383517e-03
1.246085e+02	-2.411123e-03
1.253283e+02	-2.439049e-03
1.260522e+02	-2.467298e-03
1.267802e+02	-2.495874e-03
1.275125e+02	-2.524781e-03
1.282490e+02	-2.554022e-03
1.289898e+02	-2.583603e-03
1.297348e+02	-2.613525e-03
1.304842e+02	-2.643794e-03
1.312378e+02	-2.674414e-03
1.319959e+02	-2.705388e-03
1.327583e+02	-2.736721e-03
1.335251e+02	-2.768416e-03
1.342963e+02	-2.800479e-03
1.350720e+02	-2.832913e-03
1.358522e+02	-2.865722e-03
1.366368e+02	-2.898911e-03
1.374260e+02	-2.932484e-03
1.382198e+02	-2.966446e-03
1.390182e+02	-3.000801e-03
1.398211e+02	-3.035554e-03
1.406287e+02	-3.070709e-03
1.414410e+02	-3.106272e-03
1.422579e+02	-3.142246e-03
1.430796e+02	-3.178636e-03
1.439060e+02	-3.215448e-03
1.447372e+02	-3.252685e-03
1.455732e+02	-3.290354e-03
1.464141e+02	-3.328459e-03
1.472597e+02	-3.367005e-03
1.481103e+02	-3.405998e-03
1.489658e+02	-3.445441e-03
1.498262e+02	-3.485342e-03
1.506916e+02	-3.525704e-03
1.515620e+02	-3.566533e-03
1.524374e+02	-3.607835e-03
1.533179e+02	-3.649616e-03
1.542034e+02	-3.691879e-03
1.550941e+02	-3.734632e-03
1.559899e+02	-3.777880e-03
1.568909e+02	-3.821628e-03
1.577971e+02	-3.865883e-03
1.587085e+02	-3.910650e-03
1.596252e+02	-3.955936e-03
1.605472e+02	-4.001745e-03
1.614745e+02	-4.048085e-03
1.624072e+02	-4.094961e-03
1.633453e+02	-4.142379e-03
1.642887e+02	-4.190346e-03
1.652377e+02	-4.238869e-03
1.661921e+02	-4.287953e-03
1.671520e+02	-4.337605e-03
1.681175e+02	-4.387832e-03
1.690885e+02	-4.438640e-03
1.700651e+02	-4.490036e-03
1.710474e+02	-4.542027e-03
1.720354e+02	-4.594620e-03
1.730291e+02	-4.647821e-03
1.740285e+02	-4.701638e-03
1.750337e+02	-4.756078e-03
1.760446e+02	-4.811148e-03
1.770615e+02	-4.866855e-03
1.780842e+02	-4.923207e-03
1.791128e+02	-4.980210e-03
1.801473e+02	-5.037874e-03
1.811878e+02	-5.096205e-03
1.822344e+02	-5.155210e-03
1.832870e+02	-5.214899e-03
1.843456e+02	-5.275278e-03
1.854104e+02	-5.336356e-03
1.864813e+02	-5.398140e-03
1.875584e+02	-5.460640e-03
1.886418e+02	-5.523862e-03
1.897313e+02	-5.587817e-03
1.908272e+02	-5.652511e-03
1.919294e+02	-5.717953e-03
1.930380e+02	-5.784153e-03
1.941530e+02	-5.851119e-03
1.952744e+02	-5.918859e-03
1.964023e+02	-5.987383e-03
1.975367e+02	-6.056700e-03
1.986777e+02	-6.126819e-03
1.998252e+02	-6.197749e-03
2.009794e+02	-6.269499e-03
2.021403e+02	-6.342080e-03
2.033078e+02	-6.415500e-03
2.044821e+02	-6.489769e-03
2.056632e+02	-6.564898e-03
2.068511e+02	-6.640896e-03
2.080459e+02	-6.717773e-03
2.092475e+02	-6.795539e-03
2.104561e+02	-6.874204e-03
2.116717e+02	-6.953780e-03
2.128943e+02	-7.034276e-03
2.141240e+02	-7.115703e-03
2.153608e+02	-7.198071e-03
2.166047e+02	-7.281393e-03
2.178558e+02	-7.365678e-03
2.191141e+02	-7.450937e-03
2.203797e+02	-7.537183e-03
2.216526e+02	-7.624427e-03
2.229329e+02	-7.712679e-03
2.242205e+02	-7.801952e-03
2.255156e+02	-7.892257e-03
2.268182e+02	-7.983606e-03
2.281283e+02	-8.076012e-03
2.294459e+02	-8.169487e-03
2.307712e+02	-8.264042e-03
2.321041e+02	-8.359691e-03
2.334447e+02	-8.456445e-03
2.347931e+02	-8.554318e-03
2.361493e+02	-8.653323e-03
2.375133e+02	-8.753473e-03
2.388851e+02	-8.854780e-03
2.402649e+02	-8.957259e-03
2.416527e+02	-9.060923e-03
2.430484e+02	-9.165785e-03
2.444523e+02	-9.271859e-03
2.458642e+02	-9.379159e-03
2.472843e+02	-9.487700e-03
2.487126e+02	-9.597496e-03
2.501492e+02	-9.708560e-03
2.515940e+02	-9.820909e-03
2.530472e+02	-9.934556e-03
2.545088e+02	-1.004952e-02
2.559789e+02	-1.016581e-02
2.574574e+02	-1.028344e-02
2.589444e+02	-1.040243e-02
2.604401e+02	-1.052280e-02
2.619444e+02	-1.064456e-02
2.634574e+02	-1.076773e-02
2.649791e+02	-1.089232e-02
2.665096e+02	-1.101835e-02
2.680489e+02	-1.114583e-02
2.695972e+02	-1.127479e-02
2.711544e+02	-1.140524e-02
2.727205e+02	-1.153720e-02
2.742958e+02	-1.167068e-02
2.758801e+02	-1.180570e-02
2.774736e+02	-1.194229e-02
2.790762e+02	-1.208045e-02
2.806882e+02	-1.222020e-02
2.823094e+02	-1.236158e-02
2.839400e+02	-1.250458e-02
2.855800e+02	-1.264924e-02
2.872295e+02	-1.279557e-02
2.888886e+02	-1.294358e-02
2.905572e+02	-1.309331e-02
2.922354e+02	-1.324477e-02
2.939234e+02	-1.339798e-02
2.956211e+02	-1.355295e-02
2.973286e+02	-1.370972e-02
2.990459e+02	-1.386829e-02
3.007732e+02	-1.402870e-02
3.025104e+02	-1.419096e-02
3.042577e+02	-1.435509e-02
3.060151e+02	-1.452112e-02
3.077826e+02	-1.468907e-02
3.095604e+02	-1.485895e-02
3.113484e+02	-1.503080e-02
3.131467e+02	-1.520463e-02
3.149554e+02	-1.538046e-02
3.167746e+02	-1.555833e-02
3.186043e+02	-1.573825e-02
3.204445e+02	-1.592025e-02
3.222954e+02	-1.610434e-02
3.241570e+02	-1.629056e-02
3.260293e+02	-1.647893e-02
3.279124e+02	-1.666948e-02
3.298064e+02	-1.686222e-02
3.317114e+02	-1.705719e-02
3.336273e+02	-1.725441e-02
3.355544e+02	-1.745390e-02
3.374925e+02	-1.765570e-02
3.394418e+02	-1.785982e-02
3.414024e+02	-1.806630e-02
3.433744e+02	-1.827516e-02
3.453577e+02	-1.848643e-02
3.473525e+02	-1.870014e-02
3.493588e+02	-1.891631e-02
3.513766e+02	-1.913498e-02
3.534062e+02	-1.935616e-02
3.554474e+02	-1.957990e-02
3.575005e+02	-1.980622e-02
3.595654e+02	-2.003515e-02
3.616422e+02	-2.026672e-02
3.637311e+02	-2.050096e-02
3.658320e+02	-2.073790e-02
3.679450e+02	-2.097757e-02
3.700702e+02	-2.122000e-02
3.722077e+02	-2.146523e-02
3.743576e+02	-2.171329e-02
3.765199e+02	-2.196421e-02
3.786946e+02	-2.221801e-02
3.808820e+02	-2.247475e-02
3.830819e+02	-2.273444e-02
3.852946e+02	-2.299712e-02
3.875200e+02	-2.326283e-02
3.897583e+02	-2.353161e-02
3.920096e+02	-2.380348e-02
3.942738e+02	-2.407848e-02
3.965511e+02	-2.435665e-02
3.988416e+02	-2.463802e-02
4.011452e+02	-2.492264e-02
4.034622e+02	-2.521054e-02
4.057926e+02	-2.550175e-02
4.081365e+02	-2.579631e-02
4.104938e+02	-2.609426e-02
4.128648e+02	-2.639565e-02
4.152495e+02	-2.670051e-02
4.176480e+02	-2.700888e-02
4.200603e+02	-2.732079e-02
4.224866e+02	-2.763630e-02
4.249268e+02	-2.795544e-02
4.273812e+02	-2.827825e-02
4.298497e+02	-2.860478e-02
4.323325e+02	-2.893507e-02
4.348297e+02	-2.926916e-02
4.373412e+02	-2.960709e-02
4.398673e+02	-2.994891e-02
4.424079e+02	-3.029466e-02
4.449633e+02	-3.064439e-02
4.475334e+02	-3.099814e-02
4.501183e+02	-3.135596e-02
4.527182e+02	-3.171790e-02
4.553330e+02	-3.208399e-02
4.579630e+02	-3.245430e-02
4.606082e+02	-3.282887e-02
4.632687e+02	-3.320774e-02
4.659445e+02	-3.359097e-02
4.686358e+02	-3.397860e-02
4.713426e+02	-3.437069e-02
4.740650e+02	-3.476728e-02
4.768032e+02	-3.516844e-02
4.795572e+02	-3.557420e-02
4.823271e+02	-3.598462e-02
4.851130e+02	-3.639976e-02
4.879150e+02	-3.681967e-02
4.907332e+02	-3.724440e-02
4.935676e+02	-3.767401e-02
4.964185e+02	-3.810855e-02
4.992858e+02	-3.854809e-02
5.021696e+02	-3.899266e-02
5.050701e+02	-3.944235e-02
5.079874e+02	-3.989719e-02
5.109215e+02	-4.035726e-02
5.138726e+02	-4.082260e-02
5.168407e+02	-4.129329e-02
5.198259e+02	-4.176938e-02
5.228284e+02	-4.225093e-02
5.258482e+02	-4.273800e-02
5.288855e+02	-4.323066e-02
5.319403e+02	-4.372897e-02
5.350128e+02	-4.423300e-02
5.381030e+02	-4.474280e-02
5.412111e+02	-4.525845e-02
5.443371e+02	-4.578001e-02
5.474812e+02	-4.630755e-02
5.506434e+02	-4.684114e-02
5.538239e+02	-4.738084e-02
5.570228e+02	-4.792672e-02
5.602401e+02	-4.847886e-02
5.634760e+02	-4.903732e-02
5.667306e+02	-4.960218e-02
5.700040e+02	-5.017351e-02
5.732964e+02	-5.075138e-02
5.766077e+02	-5.133587e-02
5.799382e+02	-5.192704e-02
5.832879e+02	-5.252499e-02
5.866569e+02	-5.312977e-02
5.900454e+02	-5.374148e-02
5.934535e+02	-5.436019e-02
5.968813e+02	-5.498597e-02
6.003288e+02	-5.561891e-02
6.037963e+02	-5.625909e-02
6.072838e+02	-5.690659e-02
6.107914e+02	-5.756149e-02
6.143194e+02	-5.822388e-02
6.178676e+02	-5.889384e-02
6.214364e+02	-5.957145e-02
6.250258e+02	-6.025681e-02
6.286359e+02	-6.095000e-02
6.322669e+02	-6.165110e-02
6.359189e+02	-6.236021e-02
6.395919e+02	-6.307742e-02
6.432862e+02	-6.380281e-02
6.470017e+02	-6.453649e-02
6.507388e+02	-6.527854e-02
6.544974e+02	-6.602905e-02
6.582778e+02	-6.678813e-02
6.620800e+02	-6.755586e-02
6.659041e+02	-6.833235e-02
6.697504e+02	-6.911770e-02
6.736188e+02	-6.991200e-02
6.775096e+02	-7.071535e-02
6.814229e+02	-7.152785e-02
6.853587e+02	-7.234962e-02
6.893173e+02	-7.318074e-02
6.932988e+02	-7.402133e-02
6.973033e+02	-7.487149e-02
7.013309e+02	-7.573134e-02
