Frequency(Hz)	Magnitude(dB)
1.000000e+01	-2.148285e+00
1.005776e+01	-2.167645e+00
1.011585e+01	-2.187611e+00
1.017428e+01	-2.207324e+00
1.023305e+01	-2.227384e+00
1.029215e+01	-2.247617e+00
1.035160e+01	-2.267719e+00
1.041139e+01	-2.288251e+00
1.047153e+01	-2.308749e+00
1.053201e+01	-2.329547e+00
1.059284e+01	-2.350321e+00
1.065403e+01	-2.371285e+00
1.071556e+01	-2.392540e+00
1.077746e+01	-2.413525e+00
1.083971e+01	-2.435009e+00
1.090232e+01	-2.456627e+00
1.096529e+01	-2.478202e+00
1.102862e+01	-2.500283e+00
1.109232e+01	-2.522218e+00
1.115639e+01	-2.544350e+00
1.122083e+01	-2.566504e+00
1.128564e+01	-2.589066e+00
1.135083e+01	-2.611334e+00
1.141639e+01	-2.634158e+00
1.148233e+01	-2.656914e+00
1.154865e+01	-2.679801e+00
1.161536e+01	-2.702993e+00
1.168245e+01	-2.726297e+00
1.174992e+01	-2.749500e+00
1.181779e+01	-2.773022e+00
1.188605e+01	-2.796972e+00
1.195470e+01	-2.820633e+00
1.202375e+01	-2.844731e+00
1.209320e+01	-2.868533e+00
1.216305e+01	-2.893137e+00
1.223330e+01	-2.917472e+00
1.230396e+01	-2.941872e+00
1.237503e+01	-2.966680e+00
1.244651e+01	-2.991690e+00
1.251840e+01	-3.016551e+00
1.259070e+01	-3.041459e+00
1.266343e+01	-3.066766e+00
1.273657e+01	-3.092281e+00
1.281014e+01	-3.117758e+00
1.288413e+01	-3.143252e+00
1.295855e+01	-3.169307e+00
1.303339e+01	-3.195298e+00
1.310867e+01	-3.221256e+00
1.318439e+01	-3.247472e+00
1.326054e+01	-3.273969e+00
1.333713e+01	-3.300789e+00
1.341417e+01	-3.327279e+00
1.349165e+01	-3.354220e+00
1.356958e+01	-3.381009e+00
1.364795e+01	-3.408169e+00
1.372678e+01	-3.435563e+00
1.380607e+01	-3.462958e+00
1.388581e+01	-3.490658e+00
1.396602e+01	-3.518369e+00
1.404668e+01	-3.545849e+00
1.412782e+01	-3.574021e+00
1.420942e+01	-3.602146e+00
1.429149e+01	-3.630522e+00
1.437404e+01	-3.658859e+00
1.445706e+01	-3.687246e+00
1.454057e+01	-3.716120e+00
1.462455e+01	-3.745014e+00
1.470902e+01	-3.773847e+00
1.479398e+01	-3.803275e+00
1.487943e+01	-3.832568e+00
1.496537e+01	-3.861785e+00
1.505181e+01	-3.891134e+00
1.513875e+01	-3.920795e+00
1.522619e+01	-3.950568e+00
1.531414e+01	-3.980776e+00
1.540259e+01	-4.010579e+00
1.549156e+01	-4.041031e+00
1.558103e+01	-4.071591e+00
1.567103e+01	-4.101916e+00
1.576155e+01	-4.132447e+00
1.585258e+01	-4.163372e+00
1.594415e+01	-4.194150e+00
1.603624e+01	-4.225237e+00
1.612886e+01	-4.256386e+00
1.622202e+01	-4.288041e+00
1.631572e+01	-4.319338e+00
1.640996e+01	-4.350745e+00
1.650474e+01	-4.382665e+00
1.660008e+01	-4.414426e+00
1.669596e+01	-4.446146e+00
1.679239e+01	-4.478711e+00
1.688938e+01	-4.510807e+00
1.698694e+01	-4.542877e+00
1.708505e+01	-4.575587e+00
1.718373e+01	-4.608424e+00
1.728299e+01	-4.641044e+00
1.738281e+01	-4.673869e+00
1.748322e+01	-4.707237e+00
1.758420e+01	-4.740494e+00
1.768576e+01	-4.773337e+00
1.778792e+01	-4.807095e+00
1.789066e+01	-4.840464e+00
1.799399e+01	-4.874350e+00
1.809793e+01	-4.907990e+00
1.820246e+01	-4.941844e+00
1.830760e+01	-4.975882e+00
1.841334e+01	-5.010125e+00
1.851969e+01	-5.044154e+00
1.862666e+01	-5.078729e+00
1.873425e+01	-5.113340e+00
1.884246e+01	-5.147734e+00
1.895129e+01	-5.182735e+00
1.906075e+01	-5.217666e+00
1.917085e+01	-5.252752e+00
1.928158e+01	-5.288088e+00
1.939295e+01	-5.323233e+00
1.950496e+01	-5.358691e+00
1.961762e+01	-5.393883e+00
1.973093e+01	-5.430022e+00
1.984490e+01	-5.465650e+00
1.995952e+01	-5.501584e+00
2.007480e+01	-5.537387e+00
2.019076e+01	-5.573499e+00
2.030738e+01	-5.609279e+00
2.042467e+01	-5.646043e+00
2.054264e+01	-5.682600e+00
2.066130e+01	-5.719279e+00
2.078064e+01	-5.755657e+00
2.090066e+01	-5.792225e+00
2.102139e+01	-5.829572e+00
2.114280e+01	-5.866209e+00
2.126492e+01	-5.903475e+00
2.138775e+01	-5.941028e+00
2.151128e+01	-5.978248e+00
2.163553e+01	-6.015848e+00
2.176050e+01	-6.053561e+00
2.188619e+01	-6.090623e+00
2.201260e+01	-6.128673e+00
2.213974e+01	-6.166363e+00
2.226762e+01	-6.204532e+00
2.239624e+01	-6.242523e+00
2.252560e+01	-6.280416e+00
2.265571e+01	-6.318993e+00
2.278656e+01	-6.357638e+00
2.291818e+01	-6.395969e+00
2.305055e+01	-6.434648e+00
2.318369e+01	-6.473466e+00
2.331760e+01	-6.512421e+00
2.345228e+01	-6.551069e+00
2.358774e+01	-6.589946e+00
2.372398e+01	-6.629012e+00
2.386101e+01	-6.667888e+00
2.399883e+01	-6.707744e+00
2.413745e+01	-6.746927e+00
2.427686e+01	-6.786236e+00
2.441709e+01	-6.826207e+00
2.455812e+01	-6.865965e+00
2.469997e+01	-6.905590e+00
2.484263e+01	-6.945707e+00
2.498612e+01	-6.985321e+00
2.513044e+01	-7.025540e+00
2.527559e+01	-7.065786e+00
2.542158e+01	-7.105829e+00
2.556842e+01	-7.145892e+00
2.571610e+01	-7.186751e+00
2.586463e+01	-7.227406e+00
2.601403e+01	-7.267757e+00
2.616428e+01	-7.308153e+00
2.631541e+01	-7.349222e+00
2.646740e+01	-7.390076e+00
2.662028e+01	-7.431106e+00
2.677404e+01	-7.472172e+00
2.692868e+01	-7.512839e+00
2.708422e+01	-7.554446e+00
2.724066e+01	-7.595647e+00
2.739800e+01	-7.637078e+00
2.755625e+01	-7.678530e+00
2.771541e+01	-7.719949e+00
2.787550e+01	-7.761459e+00
2.803650e+01	-7.802956e+00
2.819844e+01	-7.844988e+00
2.836131e+01	-7.886655e+00
2.852513e+01	-7.928943e+00
2.868989e+01	-7.970892e+00
2.885560e+01	-8.013166e+00
2.902227e+01	-8.054665e+00
2.918990e+01	-8.097449e+00
2.935850e+01	-8.139462e+00
2.952807e+01	-8.181783e+00
2.969863e+01	-8.224545e+00
2.987016e+01	-8.266901e+00
3.004269e+01	-8.309469e+00
3.021622e+01	-8.352412e+00
3.039075e+01	-8.394685e+00
3.056628e+01	-8.437781e+00
3.074283e+01	-8.480591e+00
3.092040e+01	-8.523820e+00
3.109900e+01	-8.566834e+00
3.127862e+01	-8.609802e+00
3.145929e+01	-8.652946e+00
3.164099e+01	-8.696380e+00
3.182375e+01	-8.739578e+00
3.200756e+01	-8.783273e+00
3.219244e+01	-8.826258e+00
3.237838e+01	-8.869641e+00
3.256540e+01	-8.913948e+00
3.275349e+01	-8.957147e+00
3.294268e+01	-9.000861e+00
3.313295e+01	-9.044649e+00
3.332433e+01	-9.088482e+00
3.351681e+01	-9.131938e+00
3.371040e+01	-9.175986e+00
3.390511e+01	-9.219865e+00
3.410094e+01	-9.264409e+00
3.429791e+01	-9.308617e+00
3.449601e+01	-9.352000e+00
3.469526e+01	-9.396782e+00
3.489566e+01	-9.441553e+00
3.509721e+01	-9.485648e+00
3.529993e+01	-9.530129e+00
3.550382e+01	-9.574260e+00
3.570889e+01	-9.618821e+00
3.591515e+01	-9.663837e+00
3.612259e+01	-9.707932e+00
3.633123e+01	-9.752652e+00
3.654108e+01	-9.796765e+00
3.675214e+01	-9.842586e+00
3.696442e+01	-9.887199e+00
3.717792e+01	-9.932440e+00
3.739266e+01	-9.977128e+00
3.760864e+01	-1.002257e+01
3.782587e+01	-1.006731e+01
3.804435e+01	-1.011201e+01
3.826409e+01	-1.015732e+01
3.848510e+01	-1.020270e+01
3.870739e+01	-1.024811e+01
3.893096e+01	-1.029333e+01
3.915583e+01	-1.033832e+01
3.938199e+01	-1.038438e+01
3.960946e+01	-1.042945e+01
3.983824e+01	-1.047532e+01
4.006834e+01	-1.052095e+01
4.029978e+01	-1.056599e+01
4.053255e+01	-1.061202e+01
4.076666e+01	-1.065808e+01
4.100213e+01	-1.070365e+01
4.123896e+01	-1.074976e+01
4.147715e+01	-1.079492e+01
4.171672e+01	-1.084098e+01
4.195767e+01	-1.088702e+01
4.220002e+01	-1.093276e+01
4.244377e+01	-1.097913e+01
4.268892e+01	-1.102561e+01
4.293549e+01	-1.107099e+01
4.318348e+01	-1.111725e+01
4.343291e+01	-1.116336e+01
4.368377e+01	-1.121005e+01
4.393609e+01	-1.125638e+01
4.418986e+01	-1.130215e+01
4.444510e+01	-1.134860e+01
4.470182e+01	-1.139517e+01
4.496001e+01	-1.144164e+01
4.521970e+01	-1.148750e+01
4.548089e+01	-1.153457e+01
4.574358e+01	-1.158118e+01
4.600779e+01	-1.162780e+01
4.627353e+01	-1.167417e+01
4.654081e+01	-1.172076e+01
4.680963e+01	-1.176723e+01
4.708000e+01	-1.181399e+01
4.735193e+01	-1.186060e+01
4.762543e+01	-1.190754e+01
4.790051e+01	-1.195433e+01
4.817719e+01	-1.200125e+01
4.845545e+01	-1.204805e+01
4.873533e+01	-1.209502e+01
4.901682e+01	-1.214218e+01
4.929994e+01	-1.218964e+01
4.958470e+01	-1.223602e+01
4.987110e+01	-1.228261e+01
5.015915e+01	-1.232951e+01
5.044887e+01	-1.237759e+01
5.074026e+01	-1.242414e+01
5.103333e+01	-1.247194e+01
5.132810e+01	-1.251874e+01
5.162457e+01	-1.256586e+01
5.192275e+01	-1.261301e+01
5.222265e+01	-1.266014e+01
5.252429e+01	-1.270736e+01
5.282767e+01	-1.275538e+01
5.313280e+01	-1.280222e+01
5.343969e+01	-1.284975e+01
5.374836e+01	-1.289784e+01
5.405880e+01	-1.294459e+01
5.437105e+01	-1.299226e+01
5.468509e+01	-1.304000e+01
5.500095e+01	-1.308758e+01
5.531863e+01	-1.313498e+01
5.563815e+01	-1.318238e+01
5.595951e+01	-1.323033e+01
5.628273e+01	-1.327767e+01
5.660782e+01	-1.332573e+01
5.693479e+01	-1.337358e+01
5.726364e+01	-1.342189e+01
5.759439e+01	-1.346871e+01
5.792705e+01	-1.351677e+01
5.826164e+01	-1.356465e+01
5.859815e+01	-1.361230e+01
5.893662e+01	-1.366039e+01
5.927703e+01	-1.370869e+01
5.961941e+01	-1.375623e+01
5.996377e+01	-1.380342e+01
6.031012e+01	-1.385174e+01
6.065847e+01	-1.389966e+01
6.100883e+01	-1.394811e+01
6.136121e+01	-1.399655e+01
6.171563e+01	-1.404421e+01
6.207210e+01	-1.409173e+01
6.243063e+01	-1.413970e+01
6.279122e+01	-1.418822e+01
6.315390e+01	-1.423716e+01
6.351868e+01	-1.428450e+01
6.388556e+01	-1.433316e+01
6.425456e+01	-1.437983e+01
6.462569e+01	-1.442861e+01
6.499897e+01	-1.447742e+01
6.537440e+01	-1.452580e+01
6.575200e+01	-1.457361e+01
6.613178e+01	-1.462177e+01
6.651375e+01	-1.467012e+01
6.689793e+01	-1.471767e+01
6.728433e+01	-1.476748e+01
6.767297e+01	-1.481591e+01
6.806384e+01	-1.486345e+01
6.845698e+01	-1.491247e+01
6.885238e+01	-1.496111e+01
6.925007e+01	-1.500897e+01
6.965005e+01	-1.505789e+01
7.005235e+01	-1.510567e+01
7.045697e+01	-1.515505e+01
7.086393e+01	-1.520213e+01
7.127323e+01	-1.525281e+01
7.168490e+01	-1.529979e+01
7.209895e+01	-1.534797e+01
7.251539e+01	-1.539717e+01
7.293424e+01	-1.544620e+01
7.335551e+01	-1.549475e+01
7.377920e+01	-1.554260e+01
7.420535e+01	-1.559165e+01
7.463396e+01	-1.564039e+01
7.506504e+01	-1.568872e+01
7.549861e+01	-1.573755e+01
7.593469e+01	-1.578658e+01
7.637328e+01	-1.583568e+01
7.681441e+01	-1.588368e+01
7.725809e+01	-1.593394e+01
7.770433e+01	-1.598220e+01
7.815315e+01	-1.603078e+01
7.860456e+01	-1.607885e+01
7.905857e+01	-1.612795e+01
7.951521e+01	-1.617527e+01
7.997449e+01	-1.622598e+01
8.043642e+01	-1.627527e+01
8.090102e+01	-1.632353e+01
8.136830e+01	-1.637076e+01
8.183828e+01	-1.642039e+01
8.231097e+01	-1.646911e+01
8.278640e+01	-1.652003e+01
8.326457e+01	-1.656756e+01
8.374550e+01	-1.661633e+01
8.422921e+01	-1.666655e+01
8.471572e+01	-1.671455e+01
8.520503e+01	-1.676408e+01
8.569717e+01	-1.681144e+01
8.619215e+01	-1.686019e+01
8.669000e+01	-1.691099e+01
8.719071e+01	-1.695937e+01
8.769432e+01	-1.700877e+01
8.820084e+01	-1.705792e+01
8.871029e+01	-1.710752e+01
8.922267e+01	-1.715573e+01
8.973802e+01	-1.720453e+01
9.025634e+01	-1.725374e+01
9.077766e+01	-1.730256e+01
9.130199e+01	-1.735209e+01
9.182935e+01	-1.740085e+01
9.235975e+01	-1.745112e+01
9.289321e+01	-1.749993e+01
9.342976e+01	-1.754842e+01
9.396941e+01	-1.759833e+01
9.451217e+01	-1.764674e+01
9.505807e+01	-1.769699e+01
9.560712e+01	-1.774408e+01
9.615934e+01	-1.779477e+01
9.671476e+01	-1.784417e+01
9.727338e+01	-1.789445e+01
9.783522e+01	-1.794245e+01
9.840032e+01	-1.799065e+01
9.896867e+01	-1.804025e+01
9.954031e+01	-1.808991e+01
1.001153e+02	-1.813922e+01
1.006935e+02	-1.818838e+01
1.012751e+02	-1.823685e+01
1.018601e+02	-1.828711e+01
1.024484e+02	-1.833648e+01
1.030402e+02	-1.838570e+01
1.036353e+02	-1.843438e+01
1.042339e+02	-1.848521e+01
1.048360e+02	-1.853316e+01
1.054415e+02	-1.858251e+01
1.060505e+02	-1.863247e+01
1.066631e+02	-1.868189e+01
1.072791e+02	-1.873060e+01
1.078988e+02	-1.877830e+01
1.085220e+02	-1.882890e+01
1.091488e+02	-1.887893e+01
1.097793e+02	-1.892888e+01
1.104133e+02	-1.897754e+01
1.110511e+02	-1.902722e+01
1.116925e+02	-1.907681e+01
1.123376e+02	-1.912509e+01
1.129865e+02	-1.917514e+01
1.136391e+02	-1.922486e+01
1.142955e+02	-1.927518e+01
1.149556e+02	-1.932362e+01
1.156196e+02	-1.937356e+01
1.162874e+02	-1.942300e+01
1.169591e+02	-1.947362e+01
1.176347e+02	-1.952154e+01
1.183141e+02	-1.957208e+01
1.189975e+02	-1.962137e+01
1.196848e+02	-1.967059e+01
1.203761e+02	-1.971817e+01
1.210714e+02	-1.977054e+01
1.217707e+02	-1.981841e+01
1.224740e+02	-1.986857e+01
1.231814e+02	-1.991824e+01
1.238929e+02	-1.996730e+01
1.246085e+02	-2.001707e+01
1.253283e+02	-2.006770e+01
1.260522e+02	-2.011676e+01
1.267802e+02	-2.016502e+01
1.275125e+02	-2.021602e+01
1.282490e+02	-2.026466e+01
1.289898e+02	-2.031376e+01
1.297348e+02	-2.036156e+01
1.304842e+02	-2.041159e+01
1.312378e+02	-2.046319e+01
1.319959e+02	-2.051084e+01
1.327583e+02	-2.056122e+01
1.335251e+02	-2.061111e+01
1.342963e+02	-2.066106e+01
1.350720e+02	-2.071196e+01
1.358522e+02	-2.076028e+01
1.366368e+02	-2.081054e+01
1.374260e+02	-2.086017e+01
1.382198e+02	-2.090736e+01
1.390182e+02	-2.096071e+01
1.398211e+02	-2.100762e+01
1.406287e+02	-2.105861e+01
1.414410e+02	-2.110718e+01
1.422579e+02	-2.115791e+01
1.430796e+02	-2.120603e+01
1.439060e+02	-2.125687e+01
1.447372e+02	-2.130822e+01
1.455732e+02	-2.135387e+01
1.464141e+02	-2.140707e+01
1.472597e+02	-2.145590e+01
1.481103e+02	-2.150511e+01
1.489658e+02	-2.155466e+01
1.498262e+02	-2.160433e+01
1.506916e+02	-2.165527e+01
1.515620e+02	-2.170574e+01
1.524374e+02	-2.175548e+01
1.533179e+02	-2.180465e+01
1.542034e+02	-2.185400e+01
1.550941e+02	-2.190169e+01
1.559899e+02	-2.195302e+01
1.568909e+02	-2.200109e+01
1.577971e+02	-2.205147e+01
1.587085e+02	-2.210112e+01
1.596252e+02	-2.215062e+01
1.605472e+02	-2.220226e+01
1.614745e+02	-2.224917e+01
1.624072e+02	-2.230136e+01
1.633453e+02	-2.234913e+01
1.642887e+02	-2.240060e+01
1.652377e+02	-2.245105e+01
1.661921e+02	-2.249914e+01
1.671520e+02	-2.255071e+01
1.681175e+02	-2.259838e+01
1.690885e+02	-2.264947e+01
1.700651e+02	-2.270020e+01
1.710474e+02	-2.274763e+01
1.720354e+02	-2.280015e+01
1.730291e+02	-2.284932e+01
1.740285e+02	-2.289694e+01
1.750337e+02	-2.294599e+01
1.760446e+02	-2.300177e+01
1.770615e+02	-2.304952e+01
1.780842e+02	-2.309587e+01
1.791128e+02	-2.314745e+01
1.801473e+02	-2.319761e+01
1.811878e+02	-2.324818e+01
1.822344e+02	-2.329578e+01
1.832870e+02	-2.334596e+01
1.843456e+02	-2.339627e+01
1.854104e+02	-2.344395e+01
1.864813e+02	-2.349859e+01
1.875584e+02	-2.354686e+01
1.886418e+02	-2.359374e+01
1.897313e+02	-2.364270e+01
1.908272e+02	-2.369438e+01
1.919294e+02	-2.374491e+01
1.930380e+02	-2.379271e+01
1.941530e+02	-2.384226e+01
1.952744e+02	-2.389230e+01
1.964023e+02	-2.394733e+01
1.975367e+02	-2.399399e+01
1.986777e+02	-2.404174e+01
1.998252e+02	-2.409474e+01
2.009794e+02	-2.414432e+01
2.021403e+02	-2.419193e+01
2.033078e+02	-2.424384e+01
2.044821e+02	-2.429170e+01
2.056632e+02	-2.434467e+01
2.068511e+02	-2.439160e+01
2.080459e+02	-2.444268e+01
2.092475e+02	-2.449471e+01
2.104561e+02	-2.454224e+01
2.116717e+02	-2.459432e+01
2.128943e+02	-2.464230e+01
2.141240e+02	-2.469493e+01
2.153608e+02	-2.474056e+01
2.166047e+02	-2.479224e+01
2.178558e+02	-2.484431e+01
2.191141e+02	-2.489208e+01
2.203797e+02	-2.494324e+01
2.216526e+02	-2.498811e+01
2.229329e+02	-2.504388e+01
2.242205e+02	-2.509103e+01
2.255156e+02	-2.514084e+01
2.268182e+02	-2.519368e+01
2.281283e+02	-2.524263e+01
2.294459e+02	-2.529301e+01
2.307712e+02	-2.534175e+01
2.321041e+02	-2.539133e+01
2.334447e+02	-2.544210e+01
2.347931e+02	-2.548994e+01
2.361493e+02	-2.554022e+01
2.375133e+02	-2.558865e+01
2.388851e+02	-2.564281e+01
2.402649e+02	-2.569258e+01
2.416527e+02	-2.574162e+01
2.430484e+02	-2.579310e+01
2.444523e+02	-2.584157e+01
2.458642e+02	-2.588908e+01
2.472843e+02	-2.594314e+01
2.487126e+02	-2.599096e+01
2.501492e+02	-2.604125e+01
2.515940e+02	-2.609285e+01
2.530472e+02	-2.614049e+01
2.545088e+02	-2.619374e+01
2.559789e+02	-2.623910e+01
2.574574e+02	-2.628863e+01
2.589444e+02	-2.634248e+01
2.604401e+02	-2.638809e+01
2.619444e+02	-2.643892e+01
2.634574e+02	-2.649050e+01
2.649791e+02	-2.654125e+01
2.665096e+02	-2.659262e+01
2.680489e+02	-2.664316e+01
2.695972e+02	-2.669090e+01
2.711544e+02	-2.673834e+01
2.727205e+02	-2.679094e+01
2.742958e+02	-2.684009e+01
2.758801e+02	-2.688614e+01
2.774736e+02	-2.693787e+01
2.790762e+02	-2.698799e+01
2.806882e+02	-2.704101e+01
2.823094e+02	-2.709009e+01
2.839400e+02	-2.714260e+01
2.855800e+02	-2.718753e+01
2.872295e+02	-2.723826e+01
2.888886e+02	-2.729035e+01
2.905572e+02	-2.733633e+01
2.922354e+02	-2.739128e+01
2.939234e+02	-2.743879e+01
2.956211e+02	-2.749201e+01
2.973286e+02	-2.754365e+01
2.990459e+02	-2.758872e+01
3.007732e+02	-2.763462e+01
3.025104e+02	-2.768696e+01
3.042577e+02	-2.774205e+01
3.060151e+02	-2.778823e+01
3.077826e+02	-2.784210e+01
3.095604e+02	-2.789134e+01
3.113484e+02	-2.793920e+01
3.131467e+02	-2.799387e+01
3.149554e+02	-2.804113e+01
3.167746e+02	-2.808929e+01
3.186043e+02	-2.814123e+01
3.204445e+02	-2.819103e+01
3.222954e+02	-2.824127e+01
3.241570e+02	-2.829138e+01
3.260293e+02	-2.834167e+01
3.279124e+02	-2.839168e+01
3.298064e+02	-2.844085e+01
3.317114e+02	-2.848979e+01
3.336273e+02	-2.854211e+01
3.355544e+02	-2.859157e+01
3.374925e+02	-2.864400e+01
3.394418e+02	-2.869747e+01
3.414024e+02	-2.873936e+01
3.433744e+02	-2.879471e+01
3.453577e+02	-2.883858e+01
3.473525e+02	-2.888594e+01
3.493588e+02	-2.894193e+01
3.513766e+02	-2.899138e+01
3.534062e+02	-2.903725e+01
3.554474e+02	-2.909407e+01
3.575005e+02	-2.914124e+01
3.595654e+02	-2.919030e+01
3.616422e+02	-2.924107e+01
3.637311e+02	-2.929159e+01
3.658320e+02	-2.933934e+01
3.679450e+02	-2.939171e+01
3.700702e+02	-2.944134e+01
3.722077e+02	-2.949838e+01
3.743576e+02	-2.953812e+01
3.765199e+02	-2.959206e+01
3.786946e+02	-2.964798e+01
3.808820e+02	-2.969110e+01
3.830819e+02	-2.974516e+01
3.852946e+02	-2.979640e+01
3.875200e+02	-2.984143e+01
3.897583e+02	-2.989354e+01
3.920096e+02	-2.994105e+01
3.942738e+02	-2.999020e+01
3.965511e+02	-3.003957e+01
3.988416e+02	-3.010133e+01
4.011452e+02	-3.014606e+01
4.034622e+02	-3.019596e+01
4.057926e+02	-3.024437e+01
4.081365e+02	-3.029364e+01
4.104938e+02	-3.034401e+01
4.128648e+02	-3.039316e+01
4.152495e+02	-3.044285e+01
4.176480e+02	-3.049384e+01
4.200603e+02	-3.054333e+01
4.224866e+02	-3.059211e+01
4.249268e+02	-3.064369e+01
4.273812e+02	-3.069676e+01
4.298497e+02	-3.074130e+01
4.323325e+02	-3.079456e+01
4.348297e+02	-3.084106e+01
4.373412e+02	-3.089317e+01
4.398673e+02	-3.094467e+01
4.424079e+02	-3.100028e+01
4.449633e+02	-3.104499e+01
4.475334e+02	-3.109784e+01
4.501183e+02	-3.115147e+01
4.527182e+02	-3.119635e+01
4.553330e+02	-3.124216e+01
4.579630e+02	-3.129754e+01
4.606082e+02	-3.134523e+01
4.632687e+02	-3.139695e+01
4.659445e+02	-3.144842e+01
4.686358e+02	-3.149669e+01
4.713426e+02	-3.155190e+01
4.740650e+02	-3.159702e+01
4.768032e+02	-3.164733e+01
4.795572e+02	-3.169530e+01
4.823271e+02	-3.175053e+01
4.851130e+02	-3.180066e+01
4.879150e+02	-3.184708e+01
4.907332e+02	-3.190138e+01
4.935676e+02	-3.195021e+01
4.964185e+02	-3.200024e+01
4.992858e+02	-3.205146e+01
5.021696e+02	-3.210285e+01
5.050701e+02	-3.214708e+01
5.079874e+02	-3.220547e+01
5.109215e+02	-3.224537e+01
5.138726e+02	-3.230549e+01
5.168407e+02	-3.234745e+01
5.198259e+02	-3.240260e+01
5.228284e+02	-3.244723e+01
5.258482e+02	-3.250165e+01
5.288855e+02	-3.255360e+01
5.319403e+02	-3.261070e+01
5.350128e+02	-3.264801e+01
5.381030e+02	-3.270256e+01
5.412111e+02	-3.275439e+01
5.443371e+02	-3.280274e+01
5.474812e+02	-3.284960e+01
5.506434e+02	-3.290246e+01
5.538239e+02	-3.295700e+01
5.570228e+02	-3.300687e+01
5.602401e+02	-3.306196e+01
5.634760e+02	-3.310277e+01
5.667306e+02	-3.315732e+01
5.700040e+02	-3.321115e+01
5.732964e+02	-3.325637e+01
5.766077e+02	-3.330730e+01
5.799382e+02	-3.335264e+01
5.832879e+02	-3.340468e+01
5.866569e+02	-3.345687e+01
5.900454e+02	-3.350219e+01
5.934535e+02	-3.356040e+01
5.968813e+02	-3.361032e+01
6.003288e+02	-3.365707e+01
6.037963e+02	-3.371246e+01
6.072838e+02	-3.375905e+01
6.107914e+02	-3.380954e+01
6.143194e+02	-3.386113e+01
6.178676e+02	-3.390668e+01
6.214364e+02	-3.395871e+01
6.250258e+02	-3.401455e+01
6.286359e+02	-3.405533e+01
6.322669e+02	-3.410758e+01
6.359189e+02	-3.416270e+01
6.395919e+02	-3.421883e+01
6.432862e+02	-3.425605e+01
6.470017e+02	-3.431142e+01
6.507388e+02	-3.435622e+01
6.544974e+02	-3.441274e+01
6.582778e+02	-3.446503e+01
6.620800e+02	-3.451632e+01
6.659041e+02	-3.455801e+01
6.697504e+02	-3.461396e+01
6.736188e+02	-3.466093e+01
6.775096e+02	-3.471847e+01
6.814229e+02	-3.477357e+01
6.853587e+02	-3.481507e+01
6.893173e+02	-3.487047e+01
6.932988e+02	-3.492264e+01
6.973033e+02	-3.497024e+01
7.013309e+02	-3.501284e+01
