Frequency(Hz)	Magnitude(dB)
1.000000e+01	-1.968268e+00
1.005776e+01	-1.986497e+00
1.011585e+01	-2.005260e+00
1.017428e+01	-2.023511e+00
1.023305e+01	-2.042287e+00
1.029215e+01	-2.060942e+00
1.035160e+01	-2.080137e+00
1.041139e+01	-2.099119e+00
1.047153e+01	-2.118589e+00
1.053201e+01	-2.137860e+00
1.059284e+01	-2.157604e+00
1.065403e+01	-2.177095e+00
1.071556e+01	-2.196861e+00
1.077746e+01	-2.216676e+00
1.083971e+01	-2.236991e+00
1.090232e+01	-2.257078e+00
1.096529e+01	-2.277304e+00
1.102862e+01	-2.297813e+00
1.109232e+01	-2.318465e+00
1.115639e+01	-2.339192e+00
1.122083e+01	-2.360232e+00
1.128564e+01	-2.381165e+00
1.135083e+01	-2.402116e+00
1.141639e+01	-2.423707e+00
1.148233e+01	-2.445309e+00
1.154865e+01	-2.466711e+00
1.161536e+01	-2.488611e+00
1.168245e+01	-2.510300e+00
1.174992e+01	-2.532268e+00
1.181779e+01	-2.554812e+00
1.188605e+01	-2.576902e+00
1.195470e+01	-2.599463e+00
1.202375e+01	-2.622067e+00
1.209320e+01	-2.644728e+00
1.216305e+01	-2.667597e+00
1.223330e+01	-2.690641e+00
1.230396e+01	-2.714005e+00
1.237503e+01	-2.737385e+00
1.244651e+01	-2.760514e+00
1.251840e+01	-2.784003e+00
1.259070e+01	-2.807949e+00
1.266343e+01	-2.831860e+00
1.273657e+01	-2.855825e+00
1.281014e+01	-2.880001e+00
1.288413e+01	-2.904567e+00
1.295855e+01	-2.928965e+00
1.303339e+01	-2.953452e+00
1.310867e+01	-2.978172e+00
1.318439e+01	-3.002930e+00
1.326054e+01	-3.027878e+00
1.333713e+01	-3.053511e+00
1.341417e+01	-3.078669e+00
1.349165e+01	-3.104381e+00
1.356958e+01	-3.129932e+00
1.364795e+01	-3.155569e+00
1.372678e+01	-3.181483e+00
1.380607e+01	-3.207628e+00
1.388581e+01	-3.233770e+00
1.396602e+01	-3.260025e+00
1.404668e+01	-3.286712e+00
1.412782e+01	-3.313422e+00
1.420942e+01	-3.340032e+00
1.429149e+01	-3.367022e+00
1.437404e+01	-3.393914e+00
1.445706e+01	-3.420920e+00
1.454057e+01	-3.448561e+00
1.462455e+01	-3.475854e+00
1.470902e+01	-3.503528e+00
1.479398e+01	-3.531315e+00
1.487943e+01	-3.559151e+00
1.496537e+01	-3.587384e+00
1.505181e+01	-3.615690e+00
1.513875e+01	-3.643891e+00
1.522619e+01	-3.672261e+00
1.531414e+01	-3.700898e+00
1.540259e+01	-3.729594e+00
1.549156e+01	-3.758623e+00
1.558103e+01	-3.787588e+00
1.567103e+01	-3.816603e+00
1.576155e+01	-3.845895e+00
1.585258e+01	-3.875412e+00
1.594415e+01	-3.905089e+00
1.603624e+01	-3.935017e+00
1.612886e+01	-3.964588e+00
1.622202e+01	-3.994956e+00
1.631572e+01	-4.024849e+00
1.640996e+01	-4.055476e+00
1.650474e+01	-4.085722e+00
1.660008e+01	-4.116404e+00
1.669596e+01	-4.146819e+00
1.679239e+01	-4.177937e+00
1.688938e+01	-4.208642e+00
1.698694e+01	-4.239855e+00
1.708505e+01	-4.271242e+00
1.718373e+01	-4.302653e+00
1.728299e+01	-4.334064e+00
1.738281e+01	-4.365378e+00
1.748322e+01	-4.397462e+00
1.758420e+01	-4.429699e+00
1.768576e+01	-4.461506e+00
1.778792e+01	-4.493669e+00
1.789066e+01	-4.525693e+00
1.799399e+01	-4.558560e+00
1.809793e+01	-4.590998e+00
1.820246e+01	-4.623500e+00
1.830760e+01	-4.656482e+00
1.841334e+01	-4.689399e+00
1.851969e+01	-4.722411e+00
1.862666e+01	-4.755856e+00
1.873425e+01	-4.789275e+00
1.884246e+01	-4.822394e+00
1.895129e+01	-4.856204e+00
1.906075e+01	-4.889883e+00
1.917085e+01	-4.923870e+00
1.928158e+01	-4.957682e+00
1.939295e+01	-4.992139e+00
1.950496e+01	-5.026355e+00
1.961762e+01	-5.060466e+00
1.973093e+01	-5.095230e+00
1.984490e+01	-5.129716e+00
1.995952e+01	-5.164274e+00
2.007480e+01	-5.199280e+00
2.019076e+01	-5.234246e+00
2.030738e+01	-5.269542e+00
2.042467e+01	-5.304717e+00
2.054264e+01	-5.339957e+00
2.066130e+01	-5.375299e+00
2.078064e+01	-5.411039e+00
2.090066e+01	-5.446880e+00
2.102139e+01	-5.482528e+00
2.114280e+01	-5.518188e+00
2.126492e+01	-5.554261e+00
2.138775e+01	-5.590532e+00
2.151128e+01	-5.626672e+00
2.163553e+01	-5.663083e+00
2.176050e+01	-5.699485e+00
2.188619e+01	-5.736057e+00
2.201260e+01	-5.773298e+00
2.213974e+01	-5.809836e+00
2.226762e+01	-5.846803e+00
2.239624e+01	-5.884032e+00
2.252560e+01	-5.921223e+00
2.265571e+01	-5.958704e+00
2.278656e+01	-5.995890e+00
2.291818e+01	-6.033069e+00
2.305055e+01	-6.071014e+00
2.318369e+01	-6.108691e+00
2.331760e+01	-6.145964e+00
2.345228e+01	-6.184548e+00
2.358774e+01	-6.222561e+00
2.372398e+01	-6.260511e+00
2.386101e+01	-6.298654e+00
2.399883e+01	-6.337161e+00
2.413745e+01	-6.375526e+00
2.427686e+01	-6.414084e+00
2.441709e+01	-6.452813e+00
2.455812e+01	-6.491412e+00
2.469997e+01	-6.530449e+00
2.484263e+01	-6.569305e+00
2.498612e+01	-6.608593e+00
2.513044e+01	-6.647419e+00
2.527559e+01	-6.686730e+00
2.542158e+01	-6.726262e+00
2.556842e+01	-6.765143e+00
2.571610e+01	-6.804918e+00
2.586463e+01	-6.844851e+00
2.601403e+01	-6.884672e+00
2.616428e+01	-6.924510e+00
2.631541e+01	-6.964237e+00
2.646740e+01	-7.004226e+00
2.662028e+01	-7.044207e+00
2.677404e+01	-7.084463e+00
2.692868e+01	-7.124708e+00
2.708422e+01	-7.165212e+00
2.724066e+01	-7.205662e+00
2.739800e+01	-7.246010e+00
2.755625e+01	-7.287516e+00
2.771541e+01	-7.327615e+00
2.787550e+01	-7.368367e+00
2.803650e+01	-7.409418e+00
2.819844e+01	-7.450193e+00
2.836131e+01	-7.491259e+00
2.852513e+01	-7.532097e+00
2.868989e+01	-7.573426e+00
2.885560e+01	-7.614883e+00
2.902227e+01	-7.656687e+00
2.918990e+01	-7.697885e+00
2.935850e+01	-7.739629e+00
2.952807e+01	-7.780996e+00
2.969863e+01	-7.822780e+00
2.987016e+01	-7.864731e+00
3.004269e+01	-7.906659e+00
3.021622e+01	-7.948863e+00
3.039075e+01	-7.990627e+00
3.056628e+01	-8.032820e+00
3.074283e+01	-8.075086e+00
3.092040e+01	-8.117096e+00
3.109900e+01	-8.159621e+00
3.127862e+01	-8.202247e+00
3.145929e+01	-8.244491e+00
3.164099e+01	-8.287040e+00
3.182375e+01	-8.329438e+00
3.200756e+01	-8.372399e+00
3.219244e+01	-8.414972e+00
3.237838e+01	-8.458635e+00
3.256540e+01	-8.500999e+00
3.275349e+01	-8.544032e+00
3.294268e+01	-8.587189e+00
3.313295e+01	-8.630206e+00
3.332433e+01	-8.673358e+00
3.351681e+01	-8.716331e+00
3.371040e+01	-8.760227e+00
3.390511e+01	-8.803098e+00
3.410094e+01	-8.847049e+00
3.429791e+01	-8.890474e+00
3.449601e+01	-8.933701e+00
3.469526e+01	-8.977964e+00
3.489566e+01	-9.021209e+00
3.509721e+01	-9.064870e+00
3.529993e+01	-9.109365e+00
3.550382e+01	-9.152652e+00
3.570889e+01	-9.196873e+00
3.591515e+01	-9.241249e+00
3.612259e+01	-9.284618e+00
3.633123e+01	-9.329150e+00
3.654108e+01	-9.372940e+00
3.675214e+01	-9.417528e+00
3.696442e+01	-9.462171e+00
3.717792e+01	-9.506113e+00
3.739266e+01	-9.550601e+00
3.760864e+01	-9.595742e+00
3.782587e+01	-9.639814e+00
3.804435e+01	-9.684512e+00
3.826409e+01	-9.728859e+00
3.848510e+01	-9.773639e+00
3.870739e+01	-9.818178e+00
3.893096e+01	-9.863767e+00
3.915583e+01	-9.908049e+00
3.938199e+01	-9.953725e+00
3.960946e+01	-9.998487e+00
3.983824e+01	-1.004312e+01
4.006834e+01	-1.008835e+01
4.029978e+01	-1.013368e+01
4.053255e+01	-1.017879e+01
4.076666e+01	-1.022452e+01
4.100213e+01	-1.026937e+01
4.123896e+01	-1.031466e+01
4.147715e+01	-1.036041e+01
4.171672e+01	-1.040541e+01
4.195767e+01	-1.045083e+01
4.220002e+01	-1.049643e+01
4.244377e+01	-1.054229e+01
4.268892e+01	-1.058814e+01
4.293549e+01	-1.063408e+01
4.318348e+01	-1.067907e+01
4.343291e+01	-1.072493e+01
4.368377e+01	-1.077022e+01
4.393609e+01	-1.081610e+01
4.418986e+01	-1.086273e+01
4.444510e+01	-1.090801e+01
4.470182e+01	-1.095485e+01
4.496001e+01	-1.100063e+01
4.521970e+01	-1.104670e+01
4.548089e+01	-1.109244e+01
4.574358e+01	-1.113873e+01
4.600779e+01	-1.118493e+01
4.627353e+01	-1.123143e+01
4.654081e+01	-1.127780e+01
4.680963e+01	-1.132338e+01
4.708000e+01	-1.137057e+01
4.735193e+01	-1.141679e+01
4.762543e+01	-1.146313e+01
4.790051e+01	-1.150938e+01
4.817719e+01	-1.155595e+01
4.845545e+01	-1.160201e+01
4.873533e+01	-1.164898e+01
4.901682e+01	-1.169600e+01
4.929994e+01	-1.174278e+01
4.958470e+01	-1.178892e+01
4.987110e+01	-1.183614e+01
5.015915e+01	-1.188286e+01
5.044887e+01	-1.192960e+01
5.074026e+01	-1.197639e+01
5.103333e+01	-1.202309e+01
5.132810e+01	-1.206980e+01
5.162457e+01	-1.211735e+01
5.192275e+01	-1.216330e+01
5.222265e+01	-1.221041e+01
5.252429e+01	-1.225799e+01
5.282767e+01	-1.230548e+01
5.313280e+01	-1.235215e+01
5.343969e+01	-1.239905e+01
5.374836e+01	-1.244664e+01
5.405880e+01	-1.249346e+01
5.437105e+01	-1.254057e+01
5.468509e+01	-1.258800e+01
5.500095e+01	-1.263543e+01
5.531863e+01	-1.268300e+01
5.563815e+01	-1.273006e+01
5.595951e+01	-1.277769e+01
5.628273e+01	-1.282437e+01
5.660782e+01	-1.287196e+01
5.693479e+01	-1.292016e+01
5.726364e+01	-1.296711e+01
5.759439e+01	-1.301458e+01
5.792705e+01	-1.306329e+01
5.826164e+01	-1.311030e+01
5.859815e+01	-1.315744e+01
5.893662e+01	-1.320519e+01
5.927703e+01	-1.325290e+01
5.961941e+01	-1.329999e+01
5.996377e+01	-1.334799e+01
6.031012e+01	-1.339585e+01
6.065847e+01	-1.344403e+01
6.100883e+01	-1.349159e+01
6.136121e+01	-1.353959e+01
6.171563e+01	-1.358709e+01
6.207210e+01	-1.363436e+01
6.243063e+01	-1.368283e+01
6.279122e+01	-1.373058e+01
6.315390e+01	-1.377818e+01
6.351868e+01	-1.382706e+01
6.388556e+01	-1.387539e+01
6.425456e+01	-1.392246e+01
6.462569e+01	-1.397071e+01
6.499897e+01	-1.401861e+01
6.537440e+01	-1.406687e+01
6.575200e+01	-1.411460e+01
6.613178e+01	-1.416316e+01
6.651375e+01	-1.421146e+01
6.689793e+01	-1.425910e+01
6.728433e+01	-1.430670e+01
6.767297e+01	-1.435469e+01
6.806384e+01	-1.440466e+01
6.845698e+01	-1.445160e+01
6.885238e+01	-1.449952e+01
6.925007e+01	-1.454861e+01
6.965005e+01	-1.459632e+01
7.005235e+01	-1.464499e+01
7.045697e+01	-1.469307e+01
7.086393e+01	-1.474197e+01
7.127323e+01	-1.479002e+01
7.168490e+01	-1.483849e+01
7.209895e+01	-1.488667e+01
7.251539e+01	-1.493497e+01
7.293424e+01	-1.498384e+01
7.335551e+01	-1.503223e+01
7.377920e+01	-1.507969e+01
7.420535e+01	-1.512855e+01
7.463396e+01	-1.517780e+01
7.506504e+01	-1.522577e+01
7.549861e+01	-1.527428e+01
7.593469e+01	-1.532298e+01
7.637328e+01	-1.537158e+01
7.681441e+01	-1.541958e+01
7.725809e+01	-1.547016e+01
7.770433e+01	-1.551839e+01
7.815315e+01	-1.556624e+01
7.860456e+01	-1.561441e+01
7.905857e+01	-1.566346e+01
7.951521e+01	-1.571088e+01
7.997449e+01	-1.576097e+01
8.043642e+01	-1.580926e+01
8.090102e+01	-1.585970e+01
8.136830e+01	-1.590666e+01
8.183828e+01	-1.595451e+01
8.231097e+01	-1.600397e+01
8.278640e+01	-1.605292e+01
8.326457e+01	-1.610162e+01
8.374550e+01	-1.615164e+01
8.422921e+01	-1.619919e+01
8.471572e+01	-1.624845e+01
8.520503e+01	-1.629749e+01
8.569717e+01	-1.634675e+01
8.619215e+01	-1.639507e+01
8.669000e+01	-1.644344e+01
8.719071e+01	-1.649279e+01
8.769432e+01	-1.654253e+01
8.820084e+01	-1.659084e+01
8.871029e+01	-1.663961e+01
8.922267e+01	-1.668881e+01
8.973802e+01	-1.673795e+01
9.025634e+01	-1.678621e+01
9.077766e+01	-1.683613e+01
9.130199e+01	-1.688478e+01
9.182935e+01	-1.693274e+01
9.235975e+01	-1.698346e+01
9.289321e+01	-1.703140e+01
9.342976e+01	-1.708093e+01
9.396941e+01	-1.713011e+01
9.451217e+01	-1.717871e+01
9.505807e+01	-1.722821e+01
9.560712e+01	-1.727627e+01
9.615934e+01	-1.732690e+01
9.671476e+01	-1.737520e+01
9.727338e+01	-1.742495e+01
9.783522e+01	-1.747295e+01
9.840032e+01	-1.752180e+01
9.896867e+01	-1.757085e+01
9.954031e+01	-1.762121e+01
1.001153e+02	-1.766993e+01
1.006935e+02	-1.771973e+01
1.012751e+02	-1.776719e+01
1.018601e+02	-1.781787e+01
1.024484e+02	-1.786598e+01
1.030402e+02	-1.791580e+01
1.036353e+02	-1.796477e+01
1.042339e+02	-1.801445e+01
1.048360e+02	-1.806334e+01
1.054415e+02	-1.811381e+01
1.060505e+02	-1.816278e+01
1.066631e+02	-1.821162e+01
1.072791e+02	-1.826043e+01
1.078988e+02	-1.830907e+01
1.085220e+02	-1.835885e+01
1.091488e+02	-1.840866e+01
1.097793e+02	-1.845729e+01
1.104133e+02	-1.850691e+01
1.110511e+02	-1.855697e+01
1.116925e+02	-1.860585e+01
1.123376e+02	-1.865431e+01
1.129865e+02	-1.870469e+01
1.136391e+02	-1.875399e+01
1.142955e+02	-1.880318e+01
1.149556e+02	-1.885257e+01
1.156196e+02	-1.890221e+01
1.162874e+02	-1.895157e+01
1.169591e+02	-1.900198e+01
1.176347e+02	-1.904963e+01
1.183141e+02	-1.909830e+01
1.189975e+02	-1.914927e+01
1.196848e+02	-1.919860e+01
1.203761e+02	-1.924847e+01
1.210714e+02	-1.929837e+01
1.217707e+02	-1.934805e+01
1.224740e+02	-1.939605e+01
1.231814e+02	-1.944683e+01
1.238929e+02	-1.949437e+01
1.246085e+02	-1.954499e+01
1.253283e+02	-1.959473e+01
1.260522e+02	-1.964245e+01
1.267802e+02	-1.969311e+01
1.275125e+02	-1.974303e+01
1.282490e+02	-1.979266e+01
1.289898e+02	-1.984115e+01
1.297348e+02	-1.989144e+01
1.304842e+02	-1.993990e+01
1.312378e+02	-1.998983e+01
1.319959e+02	-2.004075e+01
1.327583e+02	-2.008782e+01
1.335251e+02	-2.013827e+01
1.342963e+02	-2.018928e+01
1.350720e+02	-2.023805e+01
1.358522e+02	-2.028624e+01
1.366368e+02	-2.033764e+01
1.374260e+02	-2.038754e+01
1.382198e+02	-2.043661e+01
1.390182e+02	-2.048601e+01
1.398211e+02	-2.053552e+01
1.406287e+02	-2.058460e+01
1.414410e+02	-2.063449e+01
1.422579e+02	-2.068495e+01
1.430796e+02	-2.073505e+01
1.439060e+02	-2.078421e+01
1.447372e+02	-2.083345e+01
1.455732e+02	-2.088245e+01
1.464141e+02	-2.093288e+01
1.472597e+02	-2.098189e+01
1.481103e+02	-2.103299e+01
1.489658e+02	-2.108060e+01
1.498262e+02	-2.113149e+01
1.506916e+02	-2.118280e+01
1.515620e+02	-2.122805e+01
1.524374e+02	-2.128155e+01
1.533179e+02	-2.133153e+01
1.542034e+02	-2.138032e+01
1.550941e+02	-2.142921e+01
1.559899e+02	-2.147940e+01
1.568909e+02	-2.152883e+01
1.577971e+02	-2.157860e+01
1.587085e+02	-2.162832e+01
1.596252e+02	-2.167723e+01
1.605472e+02	-2.172566e+01
1.614745e+02	-2.177672e+01
1.624072e+02	-2.182659e+01
1.633453e+02	-2.187673e+01
1.642887e+02	-2.192654e+01
1.652377e+02	-2.197548e+01
1.661921e+02	-2.202546e+01
1.671520e+02	-2.207632e+01
1.681175e+02	-2.212567e+01
1.690885e+02	-2.217328e+01
1.700651e+02	-2.222632e+01
1.710474e+02	-2.227413e+01
1.720354e+02	-2.232546e+01
1.730291e+02	-2.237352e+01
1.740285e+02	-2.242069e+01
1.750337e+02	-2.247244e+01
1.760446e+02	-2.252383e+01
1.770615e+02	-2.257126e+01
1.780842e+02	-2.262281e+01
1.791128e+02	-2.267336e+01
1.801473e+02	-2.272136e+01
1.811878e+02	-2.277408e+01
1.822344e+02	-2.282190e+01
1.832870e+02	-2.286925e+01
1.843456e+02	-2.292375e+01
1.854104e+02	-2.297424e+01
1.864813e+02	-2.302102e+01
1.875584e+02	-2.306833e+01
1.886418e+02	-2.312062e+01
1.897313e+02	-2.316719e+01
1.908272e+02	-2.322055e+01
1.919294e+02	-2.326964e+01
1.930380e+02	-2.331740e+01
1.941530e+02	-2.336879e+01
1.952744e+02	-2.342263e+01
1.964023e+02	-2.346881e+01
1.975367e+02	-2.352060e+01
1.986777e+02	-2.356700e+01
1.998252e+02	-2.361755e+01
2.009794e+02	-2.366913e+01
2.021403e+02	-2.372073e+01
2.033078e+02	-2.376810e+01
2.044821e+02	-2.381994e+01
2.056632e+02	-2.386846e+01
2.068511e+02	-2.391959e+01
2.080459e+02	-2.396779e+01
2.092475e+02	-2.401539e+01
2.104561e+02	-2.406776e+01
2.116717e+02	-2.411534e+01
2.128943e+02	-2.416700e+01
2.141240e+02	-2.421855e+01
2.153608e+02	-2.426758e+01
2.166047e+02	-2.431604e+01
2.178558e+02	-2.436601e+01
2.191141e+02	-2.441701e+01
2.203797e+02	-2.446436e+01
2.216526e+02	-2.451602e+01
2.229329e+02	-2.456682e+01
2.242205e+02	-2.461572e+01
2.255156e+02	-2.466592e+01
2.268182e+02	-2.471616e+01
2.281283e+02	-2.476778e+01
2.294459e+02	-2.481587e+01
2.307712e+02	-2.486770e+01
2.321041e+02	-2.491528e+01
2.334447e+02	-2.496488e+01
2.347931e+02	-2.501571e+01
2.361493e+02	-2.506574e+01
2.375133e+02	-2.511445e+01
2.388851e+02	-2.516406e+01
2.402649e+02	-2.521353e+01
2.416527e+02	-2.526479e+01
2.430484e+02	-2.531451e+01
2.444523e+02	-2.536332e+01
2.458642e+02	-2.541651e+01
2.472843e+02	-2.546453e+01
2.487126e+02	-2.551505e+01
2.501492e+02	-2.556386e+01
2.515940e+02	-2.561388e+01
2.530472e+02	-2.566453e+01
2.545088e+02	-2.571349e+01
2.559789e+02	-2.576462e+01
2.574574e+02	-2.581382e+01
2.589444e+02	-2.586421e+01
2.604401e+02	-2.591230e+01
2.619444e+02	-2.596421e+01
2.634574e+02	-2.601567e+01
2.649791e+02	-2.606203e+01
2.665096e+02	-2.611452e+01
2.680489e+02	-2.616236e+01
2.695972e+02	-2.621361e+01
2.711544e+02	-2.626227e+01
2.727205e+02	-2.631318e+01
2.742958e+02	-2.636295e+01
2.758801e+02	-2.641027e+01
2.774736e+02	-2.646344e+01
2.790762e+02	-2.651486e+01
2.806882e+02	-2.656422e+01
2.823094e+02	-2.661035e+01
2.839400e+02	-2.666315e+01
2.855800e+02	-2.671280e+01
2.872295e+02	-2.676119e+01
2.888886e+02	-2.681366e+01
2.905572e+02	-2.686015e+01
2.922354e+02	-2.691184e+01
2.939234e+02	-2.696613e+01
2.956211e+02	-2.701510e+01
2.973286e+02	-2.705996e+01
2.990459e+02	-2.711233e+01
3.007732e+02	-2.716438e+01
3.025104e+02	-2.721094e+01
3.042577e+02	-2.726089e+01
3.060151e+02	-2.731110e+01
3.077826e+02	-2.736174e+01
3.095604e+02	-2.741521e+01
3.113484e+02	-2.746067e+01
3.131467e+02	-2.751306e+01
3.149554e+02	-2.756109e+01
3.167746e+02	-2.761514e+01
3.186043e+02	-2.766073e+01
3.204445e+02	-2.771526e+01
3.222954e+02	-2.776261e+01
3.241570e+02	-2.781202e+01
3.260293e+02	-2.786312e+01
3.279124e+02	-2.791089e+01
3.298064e+02	-2.796197e+01
3.317114e+02	-2.801465e+01
3.336273e+02	-2.806322e+01
3.355544e+02	-2.811179e+01
3.374925e+02	-2.816223e+01
3.394418e+02	-2.821816e+01
3.414024e+02	-2.826214e+01
3.433744e+02	-2.831203e+01
3.453577e+02	-2.836524e+01
3.473525e+02	-2.841683e+01
3.493588e+02	-2.846341e+01
3.513766e+02	-2.851422e+01
3.534062e+02	-2.855934e+01
3.554474e+02	-2.861844e+01
3.575005e+02	-2.866308e+01
3.595654e+02	-2.871382e+01
3.616422e+02	-2.876463e+01
3.637311e+02	-2.881296e+01
3.658320e+02	-2.886379e+01
3.679450e+02	-2.891310e+01
3.700702e+02	-2.896710e+01
3.722077e+02	-2.901357e+01
3.743576e+02	-2.906765e+01
3.765199e+02	-2.911712e+01
3.786946e+02	-2.916840e+01
3.808820e+02	-2.921529e+01
3.830819e+02	-2.926391e+01
3.852946e+02	-2.930909e+01
3.875200e+02	-2.936273e+01
3.897583e+02	-2.941523e+01
3.920096e+02	-2.946168e+01
3.942738e+02	-2.951426e+01
3.965511e+02	-2.956496e+01
3.988416e+02	-2.961506e+01
4.011452e+02	-2.966533e+01
4.034622e+02	-2.971318e+01
4.057926e+02	-2.976265e+01
4.081365e+02	-2.981927e+01
4.104938e+02	-2.986419e+01
4.128648e+02	-2.991509e+01
4.152495e+02	-2.996972e+01
4.176480e+02	-3.001851e+01
4.200603e+02	-3.006632e+01
4.224866e+02	-3.011919e+01
4.249268e+02	-3.016479e+01
4.273812e+02	-3.021343e+01
4.298497e+02	-3.026544e+01
4.323325e+02	-3.031791e+01
4.348297e+02	-3.036369e+01
4.373412e+02	-3.041649e+01
4.398673e+02	-3.046073e+01
4.424079e+02	-3.051654e+01
4.449633e+02	-3.056563e+01
4.475334e+02	-3.062115e+01
4.501183e+02	-3.066671e+01
4.527182e+02	-3.071912e+01
4.553330e+02	-3.077347e+01
4.579630e+02	-3.082146e+01
4.606082e+02	-3.087289e+01
4.632687e+02	-3.091181e+01
4.659445e+02	-3.096882e+01
4.686358e+02	-3.101910e+01
4.713426e+02	-3.106855e+01
4.740650e+02	-3.111716e+01
4.768032e+02	-3.117047e+01
4.795572e+02	-3.121943e+01
4.823271e+02	-3.126897e+01
4.851130e+02	-3.131484e+01
4.879150e+02	-3.136555e+01
4.907332e+02	-3.141846e+01
4.935676e+02	-3.146196e+01
4.964185e+02	-3.151469e+01
4.992858e+02	-3.156380e+01
5.021696e+02	-3.161840e+01
5.050701e+02	-3.166435e+01
5.079874e+02	-3.171671e+01
5.109215e+02	-3.177007e+01
5.138726e+02	-3.181300e+01
5.168407e+02	-3.187348e+01
5.198259e+02	-3.192364e+01
5.228284e+02	-3.196984e+01
5.258482e+02	-3.202236e+01
5.288855e+02	-3.207427e+01
5.319403e+02	-3.212309e+01
5.350128e+02	-3.216691e+01
5.381030e+02	-3.221805e+01
5.412111e+02	-3.227135e+01
5.443371e+02	-3.232276e+01
5.474812e+02	-3.237158e+01
5.506434e+02	-3.242039e+01
5.538239e+02	-3.247312e+01
5.570228e+02	-3.252263e+01
5.602401e+02	-3.257373e+01
5.634760e+02	-3.262435e+01
5.667306e+02	-3.267517e+01
5.700040e+02	-3.271680e+01
5.732964e+02	-3.277826e+01
5.766077e+02	-3.282489e+01
5.799382e+02	-3.287749e+01
5.832879e+02	-3.292154e+01
5.866569e+02	-3.297925e+01
5.900454e+02	-3.302805e+01
5.934535e+02	-3.307783e+01
5.968813e+02	-3.312859e+01
6.003288e+02	-3.317227e+01
6.037963e+02	-3.322410e+01
6.072838e+02	-3.327434e+01
6.107914e+02	-3.333188e+01
6.143194e+02	-3.337507e+01
6.178676e+02	-3.342844e+01
6.214364e+02	-3.347387e+01
6.250258e+02	-3.352761e+01
6.286359e+02	-3.357391e+01
6.322669e+02	-3.362582e+01
6.359189e+02	-3.368654e+01
6.395919e+02	-3.373056e+01
6.432862e+02	-3.377552e+01
6.470017e+02	-3.383870e+01
6.507388e+02	-3.387573e+01
6.544974e+02	-3.392973e+01
6.582778e+02	-3.397469e+01
6.620800e+02	-3.402848e+01
6.659041e+02	-3.408060e+01
6.697504e+02	-3.413409e+01
6.736188e+02	-3.417291e+01
6.775096e+02	-3.423155e+01
6.814229e+02	-3.427751e+01
6.853587e+02	-3.433649e+01
6.893173e+02	-3.439225e+01
6.932988e+02	-3.443068e+01
6.973033e+02	-3.448351e+01
7.013309e+02	-3.453083e+01
