Frequency(Hz)	Magnitude(dB)
1.000000e+01	-1.969178e+00
1.005776e+01	-1.987761e+00
1.011585e+01	-2.006165e+00
1.017428e+01	-2.024634e+00
1.023305e+01	-2.043416e+00
1.029215e+01	-2.062128e+00
1.035160e+01	-2.081119e+00
1.041139e+01	-2.100281e+00
1.047153e+01	-2.119554e+00
1.053201e+01	-2.138707e+00
1.059284e+01	-2.158470e+00
1.065403e+01	-2.177980e+00
1.071556e+01	-2.198143e+00
1.077746e+01	-2.217896e+00
1.083971e+01	-2.237931e+00
1.090232e+01	-2.258018e+00
1.096529e+01	-2.278660e+00
1.102862e+01	-2.299002e+00
1.109232e+01	-2.319579e+00
1.115639e+01	-2.340565e+00
1.122083e+01	-2.361413e+00
1.128564e+01	-2.382234e+00
1.135083e+01	-2.403630e+00
1.141639e+01	-2.424864e+00
1.148233e+01	-2.446224e+00
1.154865e+01	-2.467840e+00
1.161536e+01	-2.489606e+00
1.168245e+01	-2.511531e+00
1.174992e+01	-2.533565e+00
1.181779e+01	-2.555842e+00
1.188605e+01	-2.578103e+00
1.195470e+01	-2.600516e+00
1.202375e+01	-2.623081e+00
1.209320e+01	-2.645930e+00
1.216305e+01	-2.668978e+00
1.223330e+01	-2.692080e+00
1.230396e+01	-2.715097e+00
1.237503e+01	-2.738228e+00
1.244651e+01	-2.761773e+00
1.251840e+01	-2.785441e+00
1.259070e+01	-2.809334e+00
1.266343e+01	-2.833167e+00
1.273657e+01	-2.857143e+00
1.281014e+01	-2.881357e+00
1.288413e+01	-2.905673e+00
1.295855e+01	-2.930225e+00
1.303339e+01	-2.954912e+00
1.310867e+01	-2.979542e+00
1.318439e+01	-3.004423e+00
1.326054e+01	-3.029586e+00
1.333713e+01	-3.054650e+00
1.341417e+01	-3.079931e+00
1.349165e+01	-3.105668e+00
1.356958e+01	-3.131092e+00
1.364795e+01	-3.157023e+00
1.372678e+01	-3.182904e+00
1.380607e+01	-3.208947e+00
1.388581e+01	-3.235007e+00
1.396602e+01	-3.261445e+00
1.404668e+01	-3.288025e+00
1.412782e+01	-3.314691e+00
1.420942e+01	-3.341241e+00
1.429149e+01	-3.368394e+00
1.437404e+01	-3.395387e+00
1.445706e+01	-3.422465e+00
1.454057e+01	-3.449707e+00
1.462455e+01	-3.477420e+00
1.470902e+01	-3.505010e+00
1.479398e+01	-3.532806e+00
1.487943e+01	-3.560545e+00
1.496537e+01	-3.588685e+00
1.505181e+01	-3.617020e+00
1.513875e+01	-3.645557e+00
1.522619e+01	-3.673777e+00
1.531414e+01	-3.702378e+00
1.540259e+01	-3.731269e+00
1.549156e+01	-3.760168e+00
1.558103e+01	-3.789227e+00
1.567103e+01	-3.818321e+00
1.576155e+01	-3.847549e+00
1.585258e+01	-3.877142e+00
1.594415e+01	-3.906865e+00
1.603624e+01	-3.936471e+00
1.612886e+01	-3.966306e+00
1.622202e+01	-3.996206e+00
1.631572e+01	-4.026541e+00
1.640996e+01	-4.056934e+00
1.650474e+01	-4.087397e+00
1.660008e+01	-4.117966e+00
1.669596e+01	-4.148581e+00
1.679239e+01	-4.179467e+00
1.688938e+01	-4.210423e+00
1.698694e+01	-4.241460e+00
1.708505e+01	-4.272581e+00
1.718373e+01	-4.304184e+00
1.728299e+01	-4.335394e+00
1.738281e+01	-4.367518e+00
1.748322e+01	-4.399244e+00
1.758420e+01	-4.431086e+00
1.768576e+01	-4.463225e+00
1.778792e+01	-4.495284e+00
1.789066e+01	-4.527654e+00
1.799399e+01	-4.559912e+00
1.809793e+01	-4.592829e+00
1.820246e+01	-4.625509e+00
1.830760e+01	-4.658174e+00
1.841334e+01	-4.691162e+00
1.851969e+01	-4.724443e+00
1.862666e+01	-4.757492e+00
1.873425e+01	-4.790908e+00
1.884246e+01	-4.824470e+00
1.895129e+01	-4.857854e+00
1.906075e+01	-4.891602e+00
1.917085e+01	-4.925717e+00
1.928158e+01	-4.959464e+00
1.939295e+01	-4.993848e+00
1.950496e+01	-5.028082e+00
1.961762e+01	-5.062424e+00
1.973093e+01	-5.097023e+00
1.984490e+01	-5.131593e+00
1.995952e+01	-5.165806e+00
2.007480e+01	-5.201220e+00
2.019076e+01	-5.235979e+00
2.030738e+01	-5.271237e+00
2.042467e+01	-5.306611e+00
2.054264e+01	-5.341757e+00
2.066130e+01	-5.377028e+00
2.078064e+01	-5.412492e+00
2.090066e+01	-5.448550e+00
2.102139e+01	-5.484451e+00
2.114280e+01	-5.520109e+00
2.126492e+01	-5.556438e+00
2.138775e+01	-5.592357e+00
2.151128e+01	-5.628271e+00
2.163553e+01	-5.665167e+00
2.176050e+01	-5.701661e+00
2.188619e+01	-5.738166e+00
2.201260e+01	-5.774972e+00
2.213974e+01	-5.811780e+00
2.226762e+01	-5.848724e+00
2.239624e+01	-5.885845e+00
2.252560e+01	-5.922862e+00
2.265571e+01	-5.960211e+00
2.278656e+01	-5.997625e+00
2.291818e+01	-6.034894e+00
2.305055e+01	-6.072801e+00
2.318369e+01	-6.110410e+00
2.331760e+01	-6.148321e+00
2.345228e+01	-6.186208e+00
2.358774e+01	-6.224508e+00
2.372398e+01	-6.262544e+00
2.386101e+01	-6.300733e+00
2.399883e+01	-6.338925e+00
2.413745e+01	-6.377429e+00
2.427686e+01	-6.416099e+00
2.441709e+01	-6.455047e+00
2.455812e+01	-6.493498e+00
2.469997e+01	-6.532491e+00
2.484263e+01	-6.570943e+00
2.498612e+01	-6.610647e+00
2.513044e+01	-6.649639e+00
2.527559e+01	-6.688776e+00
2.542158e+01	-6.728342e+00
2.556842e+01	-6.767449e+00
2.571610e+01	-6.807396e+00
2.586463e+01	-6.846732e+00
2.601403e+01	-6.886587e+00
2.616428e+01	-6.926129e+00
2.631541e+01	-6.966411e+00
2.646740e+01	-7.006391e+00
2.662028e+01	-7.046494e+00
2.677404e+01	-7.086799e+00
2.692868e+01	-7.126977e+00
2.708422e+01	-7.167548e+00
2.724066e+01	-7.207654e+00
2.739800e+01	-7.248480e+00
2.755625e+01	-7.288915e+00
2.771541e+01	-7.329515e+00
2.787550e+01	-7.370317e+00
2.803650e+01	-7.411387e+00
2.819844e+01	-7.452479e+00
2.836131e+01	-7.493200e+00
2.852513e+01	-7.534885e+00
2.868989e+01	-7.576148e+00
2.885560e+01	-7.617078e+00
2.902227e+01	-7.658451e+00
2.918990e+01	-7.699648e+00
2.935850e+01	-7.741447e+00
2.952807e+01	-7.783566e+00
2.969863e+01	-7.825235e+00
2.987016e+01	-7.866778e+00
3.004269e+01	-7.908660e+00
3.021622e+01	-7.950677e+00
3.039075e+01	-7.992723e+00
3.056628e+01	-8.034933e+00
3.074283e+01	-8.076827e+00
3.092040e+01	-8.119353e+00
3.109900e+01	-8.161551e+00
3.127862e+01	-8.204108e+00
3.145929e+01	-8.246884e+00
3.164099e+01	-8.289016e+00
3.182375e+01	-8.331590e+00
3.200756e+01	-8.374371e+00
3.219244e+01	-8.417310e+00
3.237838e+01	-8.459850e+00
3.256540e+01	-8.503385e+00
3.275349e+01	-8.546354e+00
3.294268e+01	-8.588841e+00
3.313295e+01	-8.632370e+00
3.332433e+01	-8.675754e+00
3.351681e+01	-8.719032e+00
3.371040e+01	-8.762004e+00
3.390511e+01	-8.804919e+00
3.410094e+01	-8.849204e+00
3.429791e+01	-8.892417e+00
3.449601e+01	-8.936240e+00
3.469526e+01	-8.979563e+00
3.489566e+01	-9.023457e+00
3.509721e+01	-9.067480e+00
3.529993e+01	-9.111249e+00
3.550382e+01	-9.155078e+00
3.570889e+01	-9.198715e+00
3.591515e+01	-9.243140e+00
3.612259e+01	-9.286631e+00
3.633123e+01	-9.330809e+00
3.654108e+01	-9.375268e+00
3.675214e+01	-9.419917e+00
3.696442e+01	-9.464087e+00
3.717792e+01	-9.508624e+00
3.739266e+01	-9.552740e+00
3.760864e+01	-9.597748e+00
3.782587e+01	-9.641909e+00
3.804435e+01	-9.686958e+00
3.826409e+01	-9.731197e+00
3.848510e+01	-9.776553e+00
3.870739e+01	-9.820782e+00
3.893096e+01	-9.866155e+00
3.915583e+01	-9.910583e+00
3.938199e+01	-9.955572e+00
3.960946e+01	-1.000089e+01
3.983824e+01	-1.004570e+01
4.006834e+01	-1.009082e+01
4.029978e+01	-1.013613e+01
4.053255e+01	-1.018153e+01
4.076666e+01	-1.022626e+01
4.100213e+01	-1.027174e+01
4.123896e+01	-1.031700e+01
4.147715e+01	-1.036250e+01
4.171672e+01	-1.040776e+01
4.195767e+01	-1.045338e+01
4.220002e+01	-1.049886e+01
4.244377e+01	-1.054409e+01
4.268892e+01	-1.059014e+01
4.293549e+01	-1.063601e+01
4.318348e+01	-1.068236e+01
4.343291e+01	-1.072694e+01
4.368377e+01	-1.077301e+01
4.393609e+01	-1.081900e+01
4.418986e+01	-1.086483e+01
4.444510e+01	-1.091081e+01
4.470182e+01	-1.095689e+01
4.496001e+01	-1.100300e+01
4.521970e+01	-1.104906e+01
4.548089e+01	-1.109567e+01
4.574358e+01	-1.114188e+01
4.600779e+01	-1.118770e+01
4.627353e+01	-1.123354e+01
4.654081e+01	-1.127970e+01
4.680963e+01	-1.132557e+01
4.708000e+01	-1.137275e+01
4.735193e+01	-1.141948e+01
4.762543e+01	-1.146524e+01
4.790051e+01	-1.151162e+01
4.817719e+01	-1.155884e+01
4.845545e+01	-1.160557e+01
4.873533e+01	-1.165117e+01
4.901682e+01	-1.169817e+01
4.929994e+01	-1.174475e+01
4.958470e+01	-1.179200e+01
4.987110e+01	-1.183821e+01
5.015915e+01	-1.188537e+01
5.044887e+01	-1.193190e+01
5.074026e+01	-1.197840e+01
5.103333e+01	-1.202556e+01
5.132810e+01	-1.207255e+01
5.162457e+01	-1.211983e+01
5.192275e+01	-1.216645e+01
5.222265e+01	-1.221354e+01
5.252429e+01	-1.226058e+01
5.282767e+01	-1.230785e+01
5.313280e+01	-1.235479e+01
5.343969e+01	-1.240230e+01
5.374836e+01	-1.244918e+01
5.405880e+01	-1.249621e+01
5.437105e+01	-1.254304e+01
5.468509e+01	-1.259099e+01
5.500095e+01	-1.263827e+01
5.531863e+01	-1.268503e+01
5.563815e+01	-1.273291e+01
5.595951e+01	-1.278016e+01
5.628273e+01	-1.282726e+01
5.660782e+01	-1.287518e+01
5.693479e+01	-1.292206e+01
5.726364e+01	-1.296901e+01
5.759439e+01	-1.301774e+01
5.792705e+01	-1.306434e+01
5.826164e+01	-1.311261e+01
5.859815e+01	-1.315993e+01
5.893662e+01	-1.320730e+01
5.927703e+01	-1.325565e+01
5.961941e+01	-1.330312e+01
5.996377e+01	-1.335108e+01
6.031012e+01	-1.339857e+01
6.065847e+01	-1.344565e+01
6.100883e+01	-1.349428e+01
6.136121e+01	-1.354192e+01
6.171563e+01	-1.358899e+01
6.207210e+01	-1.363734e+01
6.243063e+01	-1.368453e+01
6.279122e+01	-1.373389e+01
6.315390e+01	-1.378144e+01
6.351868e+01	-1.382955e+01
6.388556e+01	-1.387700e+01
6.425456e+01	-1.392431e+01
6.462569e+01	-1.397251e+01
6.499897e+01	-1.402052e+01
6.537440e+01	-1.406888e+01
6.575200e+01	-1.411686e+01
6.613178e+01	-1.416532e+01
6.651375e+01	-1.421309e+01
6.689793e+01	-1.426180e+01
6.728433e+01	-1.430952e+01
6.767297e+01	-1.435783e+01
6.806384e+01	-1.440663e+01
6.845698e+01	-1.445435e+01
6.885238e+01	-1.450257e+01
6.925007e+01	-1.455095e+01
6.965005e+01	-1.459954e+01
7.005235e+01	-1.464786e+01
7.045697e+01	-1.469529e+01
7.086393e+01	-1.474397e+01
7.127323e+01	-1.479261e+01
7.168490e+01	-1.484048e+01
7.209895e+01	-1.488797e+01
7.251539e+01	-1.493765e+01
7.293424e+01	-1.498594e+01
7.335551e+01	-1.503364e+01
7.377920e+01	-1.508330e+01
7.420535e+01	-1.513238e+01
7.463396e+01	-1.517963e+01
7.506504e+01	-1.522823e+01
7.549861e+01	-1.527688e+01
7.593469e+01	-1.532600e+01
7.637328e+01	-1.537528e+01
7.681441e+01	-1.542341e+01
7.725809e+01	-1.547190e+01
7.770433e+01	-1.551956e+01
7.815315e+01	-1.556892e+01
7.860456e+01	-1.561643e+01
7.905857e+01	-1.566580e+01
7.951521e+01	-1.571485e+01
7.997449e+01	-1.576388e+01
8.043642e+01	-1.581267e+01
8.090102e+01	-1.586101e+01
8.136830e+01	-1.590980e+01
8.183828e+01	-1.595699e+01
8.231097e+01	-1.600627e+01
8.278640e+01	-1.605583e+01
8.326457e+01	-1.610502e+01
8.374550e+01	-1.615306e+01
8.422921e+01	-1.620243e+01
8.471572e+01	-1.625085e+01
8.520503e+01	-1.629983e+01
8.569717e+01	-1.634848e+01
8.619215e+01	-1.639796e+01
8.669000e+01	-1.644656e+01
8.719071e+01	-1.649482e+01
8.769432e+01	-1.654403e+01
8.820084e+01	-1.659210e+01
8.871029e+01	-1.664169e+01
8.922267e+01	-1.669091e+01
8.973802e+01	-1.673993e+01
9.025634e+01	-1.678867e+01
9.077766e+01	-1.683679e+01
9.130199e+01	-1.688664e+01
9.182935e+01	-1.693517e+01
9.235975e+01	-1.698506e+01
9.289321e+01	-1.703423e+01
9.342976e+01	-1.708247e+01
9.396941e+01	-1.713227e+01
9.451217e+01	-1.718147e+01
9.505807e+01	-1.723030e+01
9.560712e+01	-1.728026e+01
9.615934e+01	-1.732945e+01
9.671476e+01	-1.737695e+01
9.727338e+01	-1.742729e+01
9.783522e+01	-1.747526e+01
9.840032e+01	-1.752490e+01
9.896867e+01	-1.757440e+01
9.954031e+01	-1.762322e+01
1.001153e+02	-1.767274e+01
1.006935e+02	-1.772167e+01
1.012751e+02	-1.777042e+01
1.018601e+02	-1.782003e+01
1.024484e+02	-1.786872e+01
1.030402e+02	-1.791783e+01
1.036353e+02	-1.796840e+01
1.042339e+02	-1.801774e+01
1.048360e+02	-1.806607e+01
1.054415e+02	-1.811527e+01
1.060505e+02	-1.816447e+01
1.066631e+02	-1.821428e+01
1.072791e+02	-1.826321e+01
1.078988e+02	-1.831342e+01
1.085220e+02	-1.836288e+01
1.091488e+02	-1.841027e+01
1.097793e+02	-1.846102e+01
1.104133e+02	-1.851019e+01
1.110511e+02	-1.856000e+01
1.116925e+02	-1.860790e+01
1.123376e+02	-1.865646e+01
1.129865e+02	-1.870641e+01
1.136391e+02	-1.875672e+01
1.142955e+02	-1.880618e+01
1.149556e+02	-1.885631e+01
1.156196e+02	-1.890387e+01
1.162874e+02	-1.895319e+01
1.169591e+02	-1.900360e+01
1.176347e+02	-1.905094e+01
1.183141e+02	-1.910236e+01
1.189975e+02	-1.915102e+01
1.196848e+02	-1.920301e+01
1.203761e+02	-1.925084e+01
1.210714e+02	-1.929976e+01
1.217707e+02	-1.935007e+01
1.224740e+02	-1.939915e+01
1.231814e+02	-1.944883e+01
1.238929e+02	-1.949839e+01
1.246085e+02	-1.954613e+01
1.253283e+02	-1.959838e+01
1.260522e+02	-1.964516e+01
1.267802e+02	-1.969623e+01
1.275125e+02	-1.974524e+01
1.282490e+02	-1.979613e+01
1.289898e+02	-1.984445e+01
1.297348e+02	-1.989360e+01
1.304842e+02	-1.994336e+01
1.312378e+02	-1.999391e+01
1.319959e+02	-2.004437e+01
1.327583e+02	-2.009229e+01
1.335251e+02	-2.014082e+01
1.342963e+02	-2.019064e+01
1.350720e+02	-2.024048e+01
1.358522e+02	-2.029112e+01
1.366368e+02	-2.033879e+01
1.374260e+02	-2.038926e+01
1.382198e+02	-2.043980e+01
1.390182e+02	-2.048762e+01
1.398211e+02	-2.053843e+01
1.406287e+02	-2.058919e+01
1.414410e+02	-2.063688e+01
1.422579e+02	-2.068764e+01
1.430796e+02	-2.073757e+01
1.439060e+02	-2.078664e+01
1.447372e+02	-2.083557e+01
1.455732e+02	-2.088568e+01
1.464141e+02	-2.093284e+01
1.472597e+02	-2.098478e+01
1.481103e+02	-2.103441e+01
1.489658e+02	-2.108303e+01
1.498262e+02	-2.113346e+01
1.506916e+02	-2.118277e+01
1.515620e+02	-2.123317e+01
1.524374e+02	-2.128290e+01
1.533179e+02	-2.133232e+01
1.542034e+02	-2.138335e+01
1.550941e+02	-2.143109e+01
1.559899e+02	-2.148051e+01
1.568909e+02	-2.153062e+01
1.577971e+02	-2.158120e+01
1.587085e+02	-2.162993e+01
1.596252e+02	-2.167956e+01
1.605472e+02	-2.172904e+01
1.614745e+02	-2.177802e+01
1.624072e+02	-2.182961e+01
1.633453e+02	-2.187849e+01
1.642887e+02	-2.192966e+01
1.652377e+02	-2.197843e+01
1.661921e+02	-2.202614e+01
1.671520e+02	-2.207853e+01
1.681175e+02	-2.212651e+01
1.690885e+02	-2.217819e+01
1.700651e+02	-2.222712e+01
1.710474e+02	-2.227675e+01
1.720354e+02	-2.232640e+01
1.730291e+02	-2.237638e+01
1.740285e+02	-2.242606e+01
1.750337e+02	-2.247794e+01
1.760446e+02	-2.252492e+01
1.770615e+02	-2.257458e+01
1.780842e+02	-2.262442e+01
1.791128e+02	-2.267589e+01
1.801473e+02	-2.272573e+01
1.811878e+02	-2.277583e+01
1.822344e+02	-2.282532e+01
1.832870e+02	-2.287252e+01
1.843456e+02	-2.292401e+01
1.854104e+02	-2.297340e+01
1.864813e+02	-2.302357e+01
1.875584e+02	-2.307232e+01
1.886418e+02	-2.312360e+01
1.897313e+02	-2.317318e+01
1.908272e+02	-2.322106e+01
1.919294e+02	-2.327008e+01
1.930380e+02	-2.332226e+01
1.941530e+02	-2.337021e+01
1.952744e+02	-2.342115e+01
1.964023e+02	-2.347183e+01
1.975367e+02	-2.352108e+01
1.986777e+02	-2.357198e+01
1.998252e+02	-2.362384e+01
2.009794e+02	-2.367140e+01
2.021403e+02	-2.372126e+01
2.033078e+02	-2.377185e+01
2.044821e+02	-2.382197e+01
2.056632e+02	-2.386973e+01
2.068511e+02	-2.391956e+01
2.080459e+02	-2.397065e+01
2.092475e+02	-2.401968e+01
2.104561e+02	-2.406951e+01
2.116717e+02	-2.411902e+01
2.128943e+02	-2.417177e+01
2.141240e+02	-2.421984e+01
2.153608e+02	-2.426934e+01
2.166047e+02	-2.431817e+01
2.178558e+02	-2.436809e+01
2.191141e+02	-2.441956e+01
2.203797e+02	-2.446918e+01
2.216526e+02	-2.451703e+01
2.229329e+02	-2.456929e+01
2.242205e+02	-2.461626e+01
2.255156e+02	-2.466916e+01
2.268182e+02	-2.471917e+01
2.281283e+02	-2.476678e+01
2.294459e+02	-2.481814e+01
2.307712e+02	-2.486843e+01
2.321041e+02	-2.491620e+01
2.334447e+02	-2.496973e+01
2.347931e+02	-2.501777e+01
2.361493e+02	-2.506729e+01
2.375133e+02	-2.511817e+01
2.388851e+02	-2.516732e+01
2.402649e+02	-2.521809e+01
2.416527e+02	-2.526678e+01
2.430484e+02	-2.532045e+01
2.444523e+02	-2.536844e+01
2.458642e+02	-2.541319e+01
2.472843e+02	-2.546406e+01
2.487126e+02	-2.551743e+01
2.501492e+02	-2.556630e+01
2.515940e+02	-2.561438e+01
2.530472e+02	-2.566703e+01
2.545088e+02	-2.571762e+01
2.559789e+02	-2.576731e+01
2.574574e+02	-2.581603e+01
2.589444e+02	-2.586493e+01
2.604401e+02	-2.591615e+01
2.619444e+02	-2.596627e+01
2.634574e+02	-2.602052e+01
2.649791e+02	-2.606628e+01
2.665096e+02	-2.611270e+01
2.680489e+02	-2.616595e+01
2.695972e+02	-2.621252e+01
2.711544e+02	-2.626201e+01
2.727205e+02	-2.631441e+01
2.742958e+02	-2.636503e+01
2.758801e+02	-2.641586e+01
2.774736e+02	-2.646541e+01
2.790762e+02	-2.651530e+01
2.806882e+02	-2.656665e+01
2.823094e+02	-2.661314e+01
2.839400e+02	-2.666526e+01
2.855800e+02	-2.671564e+01
2.872295e+02	-2.676164e+01
2.888886e+02	-2.681923e+01
2.905572e+02	-2.686514e+01
2.922354e+02	-2.691742e+01
2.939234e+02	-2.696701e+01
2.956211e+02	-2.701334e+01
2.973286e+02	-2.706481e+01
2.990459e+02	-2.711622e+01
3.007732e+02	-2.716501e+01
3.025104e+02	-2.721517e+01
3.042577e+02	-2.726801e+01
3.060151e+02	-2.731706e+01
3.077826e+02	-2.736521e+01
3.095604e+02	-2.741452e+01
3.113484e+02	-2.746527e+01
3.131467e+02	-2.751705e+01
3.149554e+02	-2.756619e+01
3.167746e+02	-2.761443e+01
3.186043e+02	-2.766015e+01
3.204445e+02	-2.771401e+01
3.222954e+02	-2.776280e+01
3.241570e+02	-2.781875e+01
3.260293e+02	-2.786900e+01
3.279124e+02	-2.791891e+01
3.298064e+02	-2.796635e+01
3.317114e+02	-2.801626e+01
3.336273e+02	-2.806224e+01
3.355544e+02	-2.811513e+01
3.374925e+02	-2.816251e+01
3.394418e+02	-2.821944e+01
3.414024e+02	-2.826539e+01
3.433744e+02	-2.831889e+01
3.453577e+02	-2.836413e+01
3.473525e+02	-2.841813e+01
3.493588e+02	-2.846801e+01
3.513766e+02	-2.851357e+01
3.534062e+02	-2.856591e+01
3.554474e+02	-2.861607e+01
3.575005e+02	-2.866959e+01
3.595654e+02	-2.871287e+01
3.616422e+02	-2.876483e+01
3.637311e+02	-2.881962e+01
3.658320e+02	-2.886382e+01
3.679450e+02	-2.891169e+01
3.700702e+02	-2.896714e+01
3.722077e+02	-2.901435e+01
3.743576e+02	-2.906776e+01
3.765199e+02	-2.911536e+01
3.786946e+02	-2.916985e+01
3.808820e+02	-2.921433e+01
3.830819e+02	-2.926885e+01
3.852946e+02	-2.931609e+01
3.875200e+02	-2.936087e+01
3.897583e+02	-2.941750e+01
3.920096e+02	-2.946341e+01
3.942738e+02	-2.952023e+01
3.965511e+02	-2.956378e+01
3.988416e+02	-2.961836e+01
4.011452e+02	-2.967100e+01
4.034622e+02	-2.971773e+01
4.057926e+02	-2.976707e+01
4.081365e+02	-2.982048e+01
4.104938e+02	-2.986704e+01
4.128648e+02	-2.991479e+01
4.152495e+02	-2.996966e+01
4.176480e+02	-3.001380e+01
4.200603e+02	-3.006604e+01
4.224866e+02	-3.011899e+01
4.249268e+02	-3.017071e+01
4.273812e+02	-3.022070e+01
4.298497e+02	-3.026469e+01
4.323325e+02	-3.031174e+01
4.348297e+02	-3.036851e+01
4.373412e+02	-3.042172e+01
4.398673e+02	-3.046709e+01
4.424079e+02	-3.051713e+01
4.449633e+02	-3.056857e+01
4.475334e+02	-3.061940e+01
4.501183e+02	-3.066987e+01
4.527182e+02	-3.071958e+01
4.553330e+02	-3.076704e+01
4.579630e+02	-3.082109e+01
4.606082e+02	-3.086809e+01
4.632687e+02	-3.091914e+01
4.659445e+02	-3.096488e+01
4.686358e+02	-3.101751e+01
4.713426e+02	-3.107887e+01
4.740650e+02	-3.111725e+01
4.768032e+02	-3.116963e+01
4.795572e+02	-3.121770e+01
4.823271e+02	-3.127503e+01
4.851130e+02	-3.132453e+01
4.879150e+02	-3.137882e+01
4.907332e+02	-3.142676e+01
4.935676e+02	-3.146995e+01
4.964185e+02	-3.151994e+01
4.992858e+02	-3.156984e+01
5.021696e+02	-3.162443e+01
5.050701e+02	-3.167380e+01
5.079874e+02	-3.172902e+01
5.109215e+02	-3.176931e+01
5.138726e+02	-3.182962e+01
5.168407e+02	-3.187438e+01
5.198259e+02	-3.192670e+01
5.228284e+02	-3.197185e+01
5.258482e+02	-3.202177e+01
5.288855e+02	-3.207022e+01
5.319403e+02	-3.212697e+01
5.350128e+02	-3.217440e+01
5.381030e+02	-3.222053e+01
5.412111e+02	-3.227284e+01
5.443371e+02	-3.232580e+01
5.474812e+02	-3.237256e+01
5.506434e+02	-3.242382e+01
5.538239e+02	-3.247156e+01
5.570228e+02	-3.252041e+01
5.602401e+02	-3.257135e+01
5.634760e+02	-3.262021e+01
5.667306e+02	-3.267016e+01
5.700040e+02	-3.271760e+01
5.732964e+02	-3.277218e+01
5.766077e+02	-3.282622e+01
5.799382e+02	-3.287761e+01
5.832879e+02	-3.292683e+01
5.866569e+02	-3.296971e+01
5.900454e+02	-3.302430e+01
5.934535e+02	-3.307687e+01
5.968813e+02	-3.313527e+01
6.003288e+02	-3.317975e+01
6.037963e+02	-3.322693e+01
6.072838e+02	-3.327587e+01
6.107914e+02	-3.332866e+01
6.143194e+02	-3.337945e+01
6.178676e+02	-3.342955e+01
6.214364e+02	-3.347797e+01
6.250258e+02	-3.352652e+01
6.286359e+02	-3.358333e+01
6.322669e+02	-3.363894e+01
6.359189e+02	-3.368606e+01
6.395919e+02	-3.372963e+01
6.432862e+02	-3.378484e+01
6.470017e+02	-3.383040e+01
6.507388e+02	-3.387852e+01
6.544974e+02	-3.393700e+01
6.582778e+02	-3.398071e+01
6.620800e+02	-3.403675e+01
6.659041e+02	-3.408960e+01
6.697504e+02	-3.413297e+01
6.736188e+02	-3.418127e+01
6.775096e+02	-3.423646e+01
6.814229e+02	-3.428376e+01
6.853587e+02	-3.433338e+01
6.893173e+02	-3.437865e+01
6.932988e+02	-3.443120e+01
6.973033e+02	-3.449403e+01
7.013309e+02	-3.453085e+01
