Frequency(Hz)	Magnitude(dB)
1.000000e+01	-2.132320e+00
1.005776e+01	-2.151626e+00
1.011585e+01	-2.171308e+00
1.017428e+01	-2.191237e+00
1.023305e+01	-2.211294e+00
1.029215e+01	-2.231072e+00
1.035160e+01	-2.251401e+00
1.041139e+01	-2.271501e+00
1.047153e+01	-2.291994e+00
1.053201e+01	-2.312684e+00
1.059284e+01	-2.333286e+00
1.065403e+01	-2.353860e+00
1.071556e+01	-2.375279e+00
1.077746e+01	-2.396191e+00
1.083971e+01	-2.417677e+00
1.090232e+01	-2.438936e+00
1.096529e+01	-2.460514e+00
1.102862e+01	-2.482271e+00
1.109232e+01	-2.504231e+00
1.115639e+01	-2.526113e+00
1.122083e+01	-2.548299e+00
1.128564e+01	-2.570725e+00
1.135083e+01	-2.593157e+00
1.141639e+01	-2.615482e+00
1.148233e+01	-2.638531e+00
1.154865e+01	-2.661136e+00
1.161536e+01	-2.683995e+00
1.168245e+01	-2.706973e+00
1.174992e+01	-2.730607e+00
1.181779e+01	-2.753924e+00
1.188605e+01	-2.777511e+00
1.195470e+01	-2.801051e+00
1.202375e+01	-2.825029e+00
1.209320e+01	-2.848923e+00
1.216305e+01	-2.873042e+00
1.223330e+01	-2.897377e+00
1.230396e+01	-2.921892e+00
1.237503e+01	-2.946708e+00
1.244651e+01	-2.970980e+00
1.251840e+01	-2.995776e+00
1.259070e+01	-3.020903e+00
1.266343e+01	-3.046285e+00
1.273657e+01	-3.071534e+00
1.281014e+01	-3.096799e+00
1.288413e+01	-3.122621e+00
1.295855e+01	-3.148063e+00
1.303339e+01	-3.173941e+00
1.310867e+01	-3.200105e+00
1.318439e+01	-3.226179e+00
1.326054e+01	-3.252356e+00
1.333713e+01	-3.279174e+00
1.341417e+01	-3.305653e+00
1.349165e+01	-3.332635e+00
1.356958e+01	-3.359251e+00
1.364795e+01	-3.386390e+00
1.372678e+01	-3.413084e+00
1.380607e+01	-3.440716e+00
1.388581e+01	-3.468259e+00
1.396602e+01	-3.495742e+00
1.404668e+01	-3.523392e+00
1.412782e+01	-3.551277e+00
1.420942e+01	-3.579328e+00
1.429149e+01	-3.607523e+00
1.437404e+01	-3.635594e+00
1.445706e+01	-3.664424e+00
1.454057e+01	-3.692838e+00
1.462455e+01	-3.721517e+00
1.470902e+01	-3.750532e+00
1.479398e+01	-3.779329e+00
1.487943e+01	-3.808662e+00
1.496537e+01	-3.837892e+00
1.505181e+01	-3.867254e+00
1.513875e+01	-3.896889e+00
1.522619e+01	-3.926263e+00
1.531414e+01	-3.956201e+00
1.540259e+01	-3.986308e+00
1.549156e+01	-4.016210e+00
1.558103e+01	-4.046695e+00
1.567103e+01	-4.076926e+00
1.576155e+01	-4.107439e+00
1.585258e+01	-4.138202e+00
1.594415e+01	-4.169112e+00
1.603624e+01	-4.199960e+00
1.612886e+01	-4.231097e+00
1.622202e+01	-4.262474e+00
1.631572e+01	-4.293604e+00
1.640996e+01	-4.325156e+00
1.650474e+01	-4.356615e+00
1.660008e+01	-4.388448e+00
1.669596e+01	-4.420432e+00
1.679239e+01	-4.452296e+00
1.688938e+01	-4.484537e+00
1.698694e+01	-4.516751e+00
1.708505e+01	-4.548748e+00
1.718373e+01	-4.581925e+00
1.728299e+01	-4.614357e+00
1.738281e+01	-4.647561e+00
1.748322e+01	-4.680076e+00
1.758420e+01	-4.712965e+00
1.768576e+01	-4.746414e+00
1.778792e+01	-4.779503e+00
1.789066e+01	-4.813129e+00
1.799399e+01	-4.846551e+00
1.809793e+01	-4.880330e+00
1.820246e+01	-4.914273e+00
1.830760e+01	-4.948427e+00
1.841334e+01	-4.982246e+00
1.851969e+01	-5.016523e+00
1.862666e+01	-5.050975e+00
1.873425e+01	-5.085309e+00
1.884246e+01	-5.119995e+00
1.895129e+01	-5.154454e+00
1.906075e+01	-5.189261e+00
1.917085e+01	-5.224338e+00
1.928158e+01	-5.259090e+00
1.939295e+01	-5.294432e+00
1.950496e+01	-5.330004e+00
1.961762e+01	-5.365326e+00
1.973093e+01	-5.400886e+00
1.984490e+01	-5.436503e+00
1.995952e+01	-5.472344e+00
2.007480e+01	-5.508179e+00
2.019076e+01	-5.544478e+00
2.030738e+01	-5.580031e+00
2.042467e+01	-5.616478e+00
2.054264e+01	-5.653201e+00
2.066130e+01	-5.689132e+00
2.078064e+01	-5.726091e+00
2.090066e+01	-5.762300e+00
2.102139e+01	-5.799502e+00
2.114280e+01	-5.836008e+00
2.126492e+01	-5.873586e+00
2.138775e+01	-5.910676e+00
2.151128e+01	-5.947836e+00
2.163553e+01	-5.985327e+00
2.176050e+01	-6.022440e+00
2.188619e+01	-6.060428e+00
2.201260e+01	-6.097716e+00
2.213974e+01	-6.135480e+00
2.226762e+01	-6.173541e+00
2.239624e+01	-6.211322e+00
2.252560e+01	-6.249408e+00
2.265571e+01	-6.287693e+00
2.278656e+01	-6.326138e+00
2.291818e+01	-6.364820e+00
2.305055e+01	-6.402908e+00
2.318369e+01	-6.441689e+00
2.331760e+01	-6.480739e+00
2.345228e+01	-6.519074e+00
2.358774e+01	-6.558244e+00
2.372398e+01	-6.597222e+00
2.386101e+01	-6.636496e+00
2.399883e+01	-6.675755e+00
2.413745e+01	-6.714907e+00
2.427686e+01	-6.754352e+00
2.441709e+01	-6.793749e+00
2.455812e+01	-6.833367e+00
2.469997e+01	-6.873397e+00
2.484263e+01	-6.913134e+00
2.498612e+01	-6.952572e+00
2.513044e+01	-6.992809e+00
2.527559e+01	-7.032723e+00
2.542158e+01	-7.073300e+00
2.556842e+01	-7.112727e+00
2.571610e+01	-7.153605e+00
2.586463e+01	-7.194070e+00
2.601403e+01	-7.234482e+00
2.616428e+01	-7.275339e+00
2.631541e+01	-7.315984e+00
2.646740e+01	-7.356743e+00
2.662028e+01	-7.397370e+00
2.677404e+01	-7.438587e+00
2.692868e+01	-7.479460e+00
2.708422e+01	-7.520921e+00
2.724066e+01	-7.561589e+00
2.739800e+01	-7.603000e+00
2.755625e+01	-7.644400e+00
2.771541e+01	-7.686141e+00
2.787550e+01	-7.727692e+00
2.803650e+01	-7.768982e+00
2.819844e+01	-7.810809e+00
2.836131e+01	-7.852696e+00
2.852513e+01	-7.894559e+00
2.868989e+01	-7.936451e+00
2.885560e+01	-7.978633e+00
2.902227e+01	-8.021138e+00
2.918990e+01	-8.063008e+00
2.935850e+01	-8.105096e+00
2.952807e+01	-8.147773e+00
2.969863e+01	-8.189834e+00
2.987016e+01	-8.232359e+00
3.004269e+01	-8.274994e+00
3.021622e+01	-8.317644e+00
3.039075e+01	-8.360196e+00
3.056628e+01	-8.402974e+00
3.074283e+01	-8.445454e+00
3.092040e+01	-8.488634e+00
3.109900e+01	-8.531597e+00
3.127862e+01	-8.574972e+00
3.145929e+01	-8.617798e+00
3.164099e+01	-8.661210e+00
3.182375e+01	-8.704555e+00
3.200756e+01	-8.747715e+00
3.219244e+01	-8.790639e+00
3.237838e+01	-8.834736e+00
3.256540e+01	-8.877908e+00
3.275349e+01	-8.921384e+00
3.294268e+01	-8.964755e+00
3.313295e+01	-9.008783e+00
3.332433e+01	-9.052630e+00
3.351681e+01	-9.095950e+00
3.371040e+01	-9.140454e+00
3.390511e+01	-9.184214e+00
3.410094e+01	-9.228117e+00
3.429791e+01	-9.272517e+00
3.449601e+01	-9.316547e+00
3.469526e+01	-9.360522e+00
3.489566e+01	-9.405400e+00
3.509721e+01	-9.449358e+00
3.529993e+01	-9.493620e+00
3.550382e+01	-9.538284e+00
3.570889e+01	-9.582566e+00
3.591515e+01	-9.626947e+00
3.612259e+01	-9.671818e+00
3.633123e+01	-9.716777e+00
3.654108e+01	-9.760977e+00
3.675214e+01	-9.805643e+00
3.696442e+01	-9.850320e+00
3.717792e+01	-9.896196e+00
3.739266e+01	-9.940334e+00
3.760864e+01	-9.985514e+00
3.782587e+01	-1.003021e+01
3.804435e+01	-1.007562e+01
3.826409e+01	-1.012067e+01
3.848510e+01	-1.016586e+01
3.870739e+01	-1.021129e+01
3.893096e+01	-1.025673e+01
3.915583e+01	-1.030182e+01
3.938199e+01	-1.034657e+01
3.960946e+01	-1.039197e+01
3.983824e+01	-1.043820e+01
4.006834e+01	-1.048329e+01
4.029978e+01	-1.052895e+01
4.053255e+01	-1.057487e+01
4.076666e+01	-1.062071e+01
4.100213e+01	-1.066591e+01
4.123896e+01	-1.071118e+01
4.147715e+01	-1.075778e+01
4.171672e+01	-1.080350e+01
4.195767e+01	-1.084972e+01
4.220002e+01	-1.089546e+01
4.244377e+01	-1.094114e+01
4.268892e+01	-1.098735e+01
4.293549e+01	-1.103335e+01
4.318348e+01	-1.107982e+01
4.343291e+01	-1.112569e+01
4.368377e+01	-1.117200e+01
4.393609e+01	-1.121823e+01
4.418986e+01	-1.126471e+01
4.444510e+01	-1.131070e+01
4.470182e+01	-1.135644e+01
4.496001e+01	-1.140301e+01
4.521970e+01	-1.145020e+01
4.548089e+01	-1.149653e+01
4.574358e+01	-1.154247e+01
4.600779e+01	-1.158935e+01
4.627353e+01	-1.163577e+01
4.654081e+01	-1.168264e+01
4.680963e+01	-1.172880e+01
4.708000e+01	-1.177613e+01
4.735193e+01	-1.182258e+01
4.762543e+01	-1.186964e+01
4.790051e+01	-1.191642e+01
4.817719e+01	-1.196269e+01
4.845545e+01	-1.200970e+01
4.873533e+01	-1.205730e+01
4.901682e+01	-1.210435e+01
4.929994e+01	-1.215094e+01
4.958470e+01	-1.219782e+01
4.987110e+01	-1.224452e+01
5.015915e+01	-1.229122e+01
5.044887e+01	-1.233863e+01
5.074026e+01	-1.238605e+01
5.103333e+01	-1.243312e+01
5.132810e+01	-1.247981e+01
5.162457e+01	-1.252667e+01
5.192275e+01	-1.257473e+01
5.222265e+01	-1.262197e+01
5.252429e+01	-1.266889e+01
5.282767e+01	-1.271694e+01
5.313280e+01	-1.276414e+01
5.343969e+01	-1.281131e+01
5.374836e+01	-1.285869e+01
5.405880e+01	-1.290641e+01
5.437105e+01	-1.295399e+01
5.468509e+01	-1.300079e+01
5.500095e+01	-1.304848e+01
5.531863e+01	-1.309690e+01
5.563815e+01	-1.314380e+01
5.595951e+01	-1.319175e+01
5.628273e+01	-1.323893e+01
5.660782e+01	-1.328705e+01
5.693479e+01	-1.333526e+01
5.726364e+01	-1.338257e+01
5.759439e+01	-1.342996e+01
5.792705e+01	-1.347752e+01
5.826164e+01	-1.352488e+01
5.859815e+01	-1.357294e+01
5.893662e+01	-1.362093e+01
5.927703e+01	-1.366926e+01
5.961941e+01	-1.371732e+01
5.996377e+01	-1.376426e+01
6.031012e+01	-1.381280e+01
6.065847e+01	-1.386148e+01
6.100883e+01	-1.390867e+01
6.136121e+01	-1.395643e+01
6.171563e+01	-1.400497e+01
6.207210e+01	-1.405326e+01
6.243063e+01	-1.410079e+01
6.279122e+01	-1.414926e+01
6.315390e+01	-1.419779e+01
6.351868e+01	-1.424497e+01
6.388556e+01	-1.429234e+01
6.425456e+01	-1.434089e+01
6.462569e+01	-1.438997e+01
6.499897e+01	-1.443757e+01
6.537440e+01	-1.448656e+01
6.575200e+01	-1.453491e+01
6.613178e+01	-1.458310e+01
6.651375e+01	-1.463096e+01
6.689793e+01	-1.467963e+01
6.728433e+01	-1.472727e+01
6.767297e+01	-1.477571e+01
6.806384e+01	-1.482474e+01
6.845698e+01	-1.487319e+01
6.885238e+01	-1.492107e+01
6.925007e+01	-1.496968e+01
6.965005e+01	-1.501831e+01
7.005235e+01	-1.506546e+01
7.045697e+01	-1.511467e+01
7.086393e+01	-1.516337e+01
7.127323e+01	-1.521097e+01
7.168490e+01	-1.525977e+01
7.209895e+01	-1.530958e+01
7.251539e+01	-1.535711e+01
7.293424e+01	-1.540648e+01
7.335551e+01	-1.545544e+01
7.377920e+01	-1.550332e+01
7.420535e+01	-1.555184e+01
7.463396e+01	-1.560063e+01
7.506504e+01	-1.564957e+01
7.549861e+01	-1.569803e+01
7.593469e+01	-1.574706e+01
7.637328e+01	-1.579554e+01
7.681441e+01	-1.584462e+01
7.725809e+01	-1.589330e+01
7.770433e+01	-1.594201e+01
7.815315e+01	-1.599045e+01
7.860456e+01	-1.603878e+01
7.905857e+01	-1.608815e+01
7.951521e+01	-1.613765e+01
7.997449e+01	-1.618588e+01
8.043642e+01	-1.623421e+01
8.090102e+01	-1.628503e+01
8.136830e+01	-1.633215e+01
8.183828e+01	-1.638049e+01
8.231097e+01	-1.642952e+01
8.278640e+01	-1.648052e+01
8.326457e+01	-1.652849e+01
8.374550e+01	-1.657792e+01
8.422921e+01	-1.662701e+01
8.471572e+01	-1.667296e+01
8.520503e+01	-1.672413e+01
8.569717e+01	-1.677182e+01
8.619215e+01	-1.682105e+01
8.669000e+01	-1.687138e+01
8.719071e+01	-1.691913e+01
8.769432e+01	-1.696766e+01
8.820084e+01	-1.701825e+01
8.871029e+01	-1.706634e+01
8.922267e+01	-1.711567e+01
8.973802e+01	-1.716491e+01
9.025634e+01	-1.721276e+01
9.077766e+01	-1.726261e+01
9.130199e+01	-1.731233e+01
9.182935e+01	-1.736081e+01
9.235975e+01	-1.741040e+01
9.289321e+01	-1.745928e+01
9.342976e+01	-1.750933e+01
9.396941e+01	-1.755775e+01
9.451217e+01	-1.760702e+01
9.505807e+01	-1.765515e+01
9.560712e+01	-1.770428e+01
9.615934e+01	-1.775467e+01
9.671476e+01	-1.780501e+01
9.727338e+01	-1.785313e+01
9.783522e+01	-1.790133e+01
9.840032e+01	-1.795111e+01
9.896867e+01	-1.800101e+01
9.954031e+01	-1.804958e+01
1.001153e+02	-1.809840e+01
1.006935e+02	-1.814858e+01
1.012751e+02	-1.819713e+01
1.018601e+02	-1.824683e+01
1.024484e+02	-1.829626e+01
1.030402e+02	-1.834434e+01
1.036353e+02	-1.839423e+01
1.042339e+02	-1.844422e+01
1.048360e+02	-1.849287e+01
1.054415e+02	-1.854278e+01
1.060505e+02	-1.859143e+01
1.066631e+02	-1.864124e+01
1.072791e+02	-1.869004e+01
1.078988e+02	-1.873959e+01
1.085220e+02	-1.878964e+01
1.091488e+02	-1.883840e+01
1.097793e+02	-1.888943e+01
1.104133e+02	-1.893785e+01
1.110511e+02	-1.898749e+01
1.116925e+02	-1.903703e+01
1.123376e+02	-1.908563e+01
1.129865e+02	-1.913651e+01
1.136391e+02	-1.918489e+01
1.142955e+02	-1.923412e+01
1.149556e+02	-1.928306e+01
1.156196e+02	-1.933253e+01
1.162874e+02	-1.938223e+01
1.169591e+02	-1.943159e+01
1.176347e+02	-1.948146e+01
1.183141e+02	-1.952901e+01
1.189975e+02	-1.958057e+01
1.196848e+02	-1.963064e+01
1.203761e+02	-1.967834e+01
1.210714e+02	-1.972972e+01
1.217707e+02	-1.977763e+01
1.224740e+02	-1.982927e+01
1.231814e+02	-1.987657e+01
1.238929e+02	-1.992622e+01
1.246085e+02	-1.997650e+01
1.253283e+02	-2.002650e+01
1.260522e+02	-2.007522e+01
1.267802e+02	-2.012486e+01
1.275125e+02	-2.017548e+01
1.282490e+02	-2.022563e+01
1.289898e+02	-2.027449e+01
1.297348e+02	-2.032250e+01
1.304842e+02	-2.037238e+01
1.312378e+02	-2.042187e+01
1.319959e+02	-2.047218e+01
1.327583e+02	-2.052086e+01
1.335251e+02	-2.057167e+01
1.342963e+02	-2.062100e+01
1.350720e+02	-2.066985e+01
1.358522e+02	-2.072163e+01
1.366368e+02	-2.076964e+01
1.374260e+02	-2.082006e+01
1.382198e+02	-2.086996e+01
1.390182e+02	-2.091913e+01
1.398211e+02	-2.096687e+01
1.406287e+02	-2.101900e+01
1.414410e+02	-2.106675e+01
1.422579e+02	-2.111846e+01
1.430796e+02	-2.116654e+01
1.439060e+02	-2.121855e+01
1.447372e+02	-2.126571e+01
1.455732e+02	-2.131397e+01
1.464141e+02	-2.136519e+01
1.472597e+02	-2.141582e+01
1.481103e+02	-2.146383e+01
1.489658e+02	-2.151608e+01
1.498262e+02	-2.156444e+01
1.506916e+02	-2.161343e+01
1.515620e+02	-2.166426e+01
1.524374e+02	-2.171293e+01
1.533179e+02	-2.176367e+01
1.542034e+02	-2.181192e+01
1.550941e+02	-2.186125e+01
1.559899e+02	-2.191186e+01
1.568909e+02	-2.196144e+01
1.577971e+02	-2.201323e+01
1.587085e+02	-2.206316e+01
1.596252e+02	-2.211070e+01
1.605472e+02	-2.216063e+01
1.614745e+02	-2.220911e+01
1.624072e+02	-2.226161e+01
1.633453e+02	-2.231106e+01
1.642887e+02	-2.235842e+01
1.652377e+02	-2.240989e+01
1.661921e+02	-2.245744e+01
1.671520e+02	-2.250893e+01
1.681175e+02	-2.255847e+01
1.690885e+02	-2.260762e+01
1.700651e+02	-2.265837e+01
1.710474e+02	-2.270903e+01
1.720354e+02	-2.275926e+01
1.730291e+02	-2.280990e+01
1.740285e+02	-2.285656e+01
1.750337e+02	-2.290642e+01
1.760446e+02	-2.295621e+01
1.770615e+02	-2.300698e+01
1.780842e+02	-2.305512e+01
1.791128e+02	-2.310556e+01
1.801473e+02	-2.315494e+01
1.811878e+02	-2.320606e+01
1.822344e+02	-2.325555e+01
1.832870e+02	-2.330786e+01
1.843456e+02	-2.335629e+01
1.854104e+02	-2.340533e+01
1.864813e+02	-2.345456e+01
1.875584e+02	-2.350375e+01
1.886418e+02	-2.355472e+01
1.897313e+02	-2.360444e+01
1.908272e+02	-2.365210e+01
1.919294e+02	-2.370043e+01
1.930380e+02	-2.375222e+01
1.941530e+02	-2.380396e+01
1.952744e+02	-2.385518e+01
1.964023e+02	-2.390352e+01
1.975367e+02	-2.395215e+01
1.986777e+02	-2.400506e+01
1.998252e+02	-2.405534e+01
2.009794e+02	-2.410221e+01
2.021403e+02	-2.415321e+01
2.033078e+02	-2.420281e+01
2.044821e+02	-2.425095e+01
2.056632e+02	-2.430393e+01
2.068511e+02	-2.435355e+01
2.080459e+02	-2.440141e+01
2.092475e+02	-2.445120e+01
2.104561e+02	-2.450277e+01
2.116717e+02	-2.454917e+01
2.128943e+02	-2.460094e+01
2.141240e+02	-2.465318e+01
2.153608e+02	-2.470411e+01
2.166047e+02	-2.474960e+01
2.178558e+02	-2.480091e+01
2.191141e+02	-2.484978e+01
2.203797e+02	-2.490316e+01
2.216526e+02	-2.494981e+01
2.229329e+02	-2.500038e+01
2.242205e+02	-2.504639e+01
2.255156e+02	-2.510128e+01
2.268182e+02	-2.514731e+01
2.281283e+02	-2.520451e+01
2.294459e+02	-2.525218e+01
2.307712e+02	-2.530057e+01
2.321041e+02	-2.535070e+01
2.334447e+02	-2.539769e+01
2.347931e+02	-2.545285e+01
2.361493e+02	-2.549891e+01
2.375133e+02	-2.554827e+01
2.388851e+02	-2.560214e+01
2.402649e+02	-2.564917e+01
2.416527e+02	-2.569695e+01
2.430484e+02	-2.574899e+01
2.444523e+02	-2.580367e+01
2.458642e+02	-2.585118e+01
2.472843e+02	-2.589773e+01
2.487126e+02	-2.594998e+01
2.501492e+02	-2.600234e+01
2.515940e+02	-2.604933e+01
2.530472e+02	-2.609985e+01
2.545088e+02	-2.614874e+01
2.559789e+02	-2.620095e+01
2.574574e+02	-2.625119e+01
2.589444e+02	-2.629790e+01
2.604401e+02	-2.634880e+01
2.619444e+02	-2.639887e+01
2.634574e+02	-2.644921e+01
2.649791e+02	-2.649941e+01
2.665096e+02	-2.654663e+01
2.680489e+02	-2.659733e+01
2.695972e+02	-2.664990e+01
2.711544e+02	-2.669814e+01
2.727205e+02	-2.674961e+01
2.742958e+02	-2.679670e+01
2.758801e+02	-2.685134e+01
2.774736e+02	-2.690140e+01
2.790762e+02	-2.694653e+01
2.806882e+02	-2.700122e+01
2.823094e+02	-2.704653e+01
2.839400e+02	-2.709741e+01
2.855800e+02	-2.714835e+01
2.872295e+02	-2.719901e+01
2.888886e+02	-2.724711e+01
2.905572e+02	-2.729727e+01
2.922354e+02	-2.734921e+01
2.939234e+02	-2.740481e+01
2.956211e+02	-2.744988e+01
2.973286e+02	-2.749704e+01
2.990459e+02	-2.754786e+01
3.007732e+02	-2.760073e+01
3.025104e+02	-2.765049e+01
3.042577e+02	-2.769954e+01
3.060151e+02	-2.774819e+01
3.077826e+02	-2.780067e+01
3.095604e+02	-2.784829e+01
3.113484e+02	-2.790269e+01
3.131467e+02	-2.794895e+01
3.149554e+02	-2.799810e+01
3.167746e+02	-2.804794e+01
3.186043e+02	-2.809970e+01
3.204445e+02	-2.814744e+01
3.222954e+02	-2.819884e+01
3.241570e+02	-2.824898e+01
3.260293e+02	-2.829637e+01
3.279124e+02	-2.834994e+01
3.298064e+02	-2.840248e+01
3.317114e+02	-2.845117e+01
3.336273e+02	-2.850284e+01
3.355544e+02	-2.854909e+01
3.374925e+02	-2.859798e+01
3.394418e+02	-2.864936e+01
3.414024e+02	-2.870111e+01
3.433744e+02	-2.875154e+01
3.453577e+02	-2.880118e+01
3.473525e+02	-2.884718e+01
3.493588e+02	-2.890006e+01
3.513766e+02	-2.894677e+01
3.534062e+02	-2.900185e+01
3.554474e+02	-2.905311e+01
3.575005e+02	-2.909907e+01
3.595654e+02	-2.914683e+01
3.616422e+02	-2.919937e+01
3.637311e+02	-2.925057e+01
3.658320e+02	-2.929512e+01
3.679450e+02	-2.934673e+01
3.700702e+02	-2.940039e+01
3.722077e+02	-2.944977e+01
3.743576e+02	-2.950313e+01
3.765199e+02	-2.955160e+01
3.786946e+02	-2.960173e+01
3.808820e+02	-2.965098e+01
3.830819e+02	-2.970295e+01
3.852946e+02	-2.975535e+01
3.875200e+02	-2.979714e+01
3.897583e+02	-2.984855e+01
3.920096e+02	-2.989951e+01
3.942738e+02	-2.995617e+01
3.965511e+02	-3.000491e+01
3.988416e+02	-3.005663e+01
4.011452e+02	-3.010004e+01
4.034622e+02	-3.015195e+01
4.057926e+02	-3.020189e+01
4.081365e+02	-3.024832e+01
4.104938e+02	-3.030303e+01
4.128648e+02	-3.035071e+01
4.152495e+02	-3.040479e+01
4.176480e+02	-3.045048e+01
4.200603e+02	-3.050353e+01
4.224866e+02	-3.055047e+01
4.249268e+02	-3.060320e+01
4.273812e+02	-3.064841e+01
4.298497e+02	-3.070216e+01
4.323325e+02	-3.075237e+01
4.348297e+02	-3.080295e+01
4.373412e+02	-3.085580e+01
4.398673e+02	-3.090507e+01
4.424079e+02	-3.095942e+01
4.449633e+02	-3.100479e+01
4.475334e+02	-3.105641e+01
4.501183e+02	-3.110581e+01
4.527182e+02	-3.115531e+01
4.553330e+02	-3.120285e+01
4.579630e+02	-3.125146e+01
4.606082e+02	-3.129833e+01
4.632687e+02	-3.135528e+01
4.659445e+02	-3.140407e+01
4.686358e+02	-3.145184e+01
4.713426e+02	-3.150600e+01
4.740650e+02	-3.155529e+01
4.768032e+02	-3.160520e+01
4.795572e+02	-3.165707e+01
4.823271e+02	-3.170613e+01
4.851130e+02	-3.174988e+01
4.879150e+02	-3.180353e+01
4.907332e+02	-3.185639e+01
4.935676e+02	-3.190112e+01
4.964185e+02	-3.196062e+01
4.992858e+02	-3.200812e+01
5.021696e+02	-3.205545e+01
5.050701e+02	-3.210969e+01
5.079874e+02	-3.215603e+01
5.109215e+02	-3.220855e+01
5.138726e+02	-3.225706e+01
5.168407e+02	-3.230441e+01
5.198259e+02	-3.235851e+01
5.228284e+02	-3.240718e+01
5.258482e+02	-3.245621e+01
5.288855e+02	-3.250120e+01
5.319403e+02	-3.255916e+01
5.350128e+02	-3.261363e+01
5.381030e+02	-3.265818e+01
5.412111e+02	-3.270723e+01
5.443371e+02	-3.275869e+01
5.474812e+02	-3.280835e+01
5.506434e+02	-3.285849e+01
5.538239e+02	-3.291414e+01
5.570228e+02	-3.296128e+01
5.602401e+02	-3.301116e+01
5.634760e+02	-3.306421e+01
5.667306e+02	-3.311563e+01
5.700040e+02	-3.316017e+01
5.732964e+02	-3.321565e+01
5.766077e+02	-3.326409e+01
5.799382e+02	-3.331213e+01
5.832879e+02	-3.336681e+01
5.866569e+02	-3.341528e+01
5.900454e+02	-3.345719e+01
5.934535e+02	-3.351150e+01
5.968813e+02	-3.356046e+01
6.003288e+02	-3.360985e+01
6.037963e+02	-3.366349e+01
6.072838e+02	-3.370136e+01
6.107914e+02	-3.376920e+01
6.143194e+02	-3.380974e+01
6.178676e+02	-3.386307e+01
6.214364e+02	-3.391890e+01
6.250258e+02	-3.396002e+01
6.286359e+02	-3.400806e+01
6.322669e+02	-3.405979e+01
6.359189e+02	-3.411413e+01
6.395919e+02	-3.416709e+01
6.432862e+02	-3.421128e+01
6.470017e+02	-3.426701e+01
6.507388e+02	-3.432025e+01
6.544974e+02	-3.436987e+01
6.582778e+02	-3.442084e+01
6.620800e+02	-3.447521e+01
6.659041e+02	-3.451153e+01
6.697504e+02	-3.456640e+01
6.736188e+02	-3.462161e+01
6.775096e+02	-3.466718e+01
6.814229e+02	-3.472047e+01
6.853587e+02	-3.476558e+01
6.893173e+02	-3.482298e+01
6.932988e+02	-3.487179e+01
6.973033e+02	-3.491815e+01
7.013309e+02	-3.498086e+01
