Frequency(Hz)	Magnitude(dB)
1.000000e+01	-2.000934e+00
1.005776e+01	-2.019589e+00
1.011585e+01	-2.038085e+00
1.017428e+01	-2.056882e+00
1.023305e+01	-2.075791e+00
1.029215e+01	-2.095070e+00
1.035160e+01	-2.114079e+00
1.041139e+01	-2.133691e+00
1.047153e+01	-2.152989e+00
1.053201e+01	-2.172705e+00
1.059284e+01	-2.192509e+00
1.065403e+01	-2.212296e+00
1.071556e+01	-2.232416e+00
1.077746e+01	-2.252538e+00
1.083971e+01	-2.272933e+00
1.090232e+01	-2.293467e+00
1.096529e+01	-2.313804e+00
1.102862e+01	-2.334484e+00
1.109232e+01	-2.355446e+00
1.115639e+01	-2.376555e+00
1.122083e+01	-2.397510e+00
1.128564e+01	-2.418902e+00
1.135083e+01	-2.440277e+00
1.141639e+01	-2.462063e+00
1.148233e+01	-2.483396e+00
1.154865e+01	-2.505645e+00
1.161536e+01	-2.527554e+00
1.168245e+01	-2.549516e+00
1.174992e+01	-2.571853e+00
1.181779e+01	-2.594120e+00
1.188605e+01	-2.616940e+00
1.195470e+01	-2.639777e+00
1.202375e+01	-2.662476e+00
1.209320e+01	-2.685584e+00
1.216305e+01	-2.708402e+00
1.223330e+01	-2.731778e+00
1.230396e+01	-2.755446e+00
1.237503e+01	-2.779118e+00
1.244651e+01	-2.802588e+00
1.251840e+01	-2.826437e+00
1.259070e+01	-2.850598e+00
1.266343e+01	-2.874782e+00
1.273657e+01	-2.899065e+00
1.281014e+01	-2.923304e+00
1.288413e+01	-2.948055e+00
1.295855e+01	-2.972483e+00
1.303339e+01	-2.997490e+00
1.310867e+01	-3.022568e+00
1.318439e+01	-3.047682e+00
1.326054e+01	-3.073108e+00
1.333713e+01	-3.098405e+00
1.341417e+01	-3.123993e+00
1.349165e+01	-3.149567e+00
1.356958e+01	-3.175752e+00
1.364795e+01	-3.201654e+00
1.372678e+01	-3.227888e+00
1.380607e+01	-3.254188e+00
1.388581e+01	-3.280498e+00
1.396602e+01	-3.307170e+00
1.404668e+01	-3.333933e+00
1.412782e+01	-3.360751e+00
1.420942e+01	-3.387719e+00
1.429149e+01	-3.415002e+00
1.437404e+01	-3.442387e+00
1.445706e+01	-3.469798e+00
1.454057e+01	-3.497555e+00
1.462455e+01	-3.524884e+00
1.470902e+01	-3.552929e+00
1.479398e+01	-3.580964e+00
1.487943e+01	-3.609085e+00
1.496537e+01	-3.637559e+00
1.505181e+01	-3.665784e+00
1.513875e+01	-3.694514e+00
1.522619e+01	-3.723108e+00
1.531414e+01	-3.752045e+00
1.540259e+01	-3.781141e+00
1.549156e+01	-3.810496e+00
1.558103e+01	-3.839419e+00
1.567103e+01	-3.868996e+00
1.576155e+01	-3.898634e+00
1.585258e+01	-3.928382e+00
1.594415e+01	-3.958223e+00
1.603624e+01	-3.987935e+00
1.612886e+01	-4.018158e+00
1.622202e+01	-4.048280e+00
1.631572e+01	-4.078793e+00
1.640996e+01	-4.109100e+00
1.650474e+01	-4.140390e+00
1.660008e+01	-4.170704e+00
1.669596e+01	-4.201862e+00
1.679239e+01	-4.232949e+00
1.688938e+01	-4.264276e+00
1.698694e+01	-4.295500e+00
1.708505e+01	-4.326956e+00
1.718373e+01	-4.358497e+00
1.728299e+01	-4.390389e+00
1.738281e+01	-4.422049e+00
1.748322e+01	-4.453920e+00
1.758420e+01	-4.486056e+00
1.768576e+01	-4.518610e+00
1.778792e+01	-4.551062e+00
1.789066e+01	-4.583723e+00
1.799399e+01	-4.616506e+00
1.809793e+01	-4.649255e+00
1.820246e+01	-4.681906e+00
1.830760e+01	-4.715193e+00
1.841334e+01	-4.748284e+00
1.851969e+01	-4.781726e+00
1.862666e+01	-4.815197e+00
1.873425e+01	-4.848542e+00
1.884246e+01	-4.882271e+00
1.895129e+01	-4.916161e+00
1.906075e+01	-4.950274e+00
1.917085e+01	-4.984373e+00
1.928158e+01	-5.018521e+00
1.939295e+01	-5.053165e+00
1.950496e+01	-5.086980e+00
1.961762e+01	-5.122070e+00
1.973093e+01	-5.156664e+00
1.984490e+01	-5.191405e+00
1.995952e+01	-5.226496e+00
2.007480e+01	-5.261414e+00
2.019076e+01	-5.296515e+00
2.030738e+01	-5.332169e+00
2.042467e+01	-5.367384e+00
2.054264e+01	-5.402871e+00
2.066130e+01	-5.438732e+00
2.078064e+01	-5.474500e+00
2.090066e+01	-5.510320e+00
2.102139e+01	-5.546604e+00
2.114280e+01	-5.582185e+00
2.126492e+01	-5.618602e+00
2.138775e+01	-5.654730e+00
2.151128e+01	-5.691270e+00
2.163553e+01	-5.727795e+00
2.176050e+01	-5.764512e+00
2.188619e+01	-5.801503e+00
2.201260e+01	-5.838775e+00
2.213974e+01	-5.875461e+00
2.226762e+01	-5.912610e+00
2.239624e+01	-5.950068e+00
2.252560e+01	-5.987109e+00
2.265571e+01	-6.025180e+00
2.278656e+01	-6.062437e+00
2.291818e+01	-6.100392e+00
2.305055e+01	-6.137877e+00
2.318369e+01	-6.176032e+00
2.331760e+01	-6.213782e+00
2.345228e+01	-6.251775e+00
2.358774e+01	-6.290208e+00
2.372398e+01	-6.328311e+00
2.386101e+01	-6.366665e+00
2.399883e+01	-6.405393e+00
2.413745e+01	-6.443991e+00
2.427686e+01	-6.482966e+00
2.441709e+01	-6.521301e+00
2.455812e+01	-6.560849e+00
2.469997e+01	-6.599378e+00
2.484263e+01	-6.638950e+00
2.498612e+01	-6.678020e+00
2.513044e+01	-6.717169e+00
2.527559e+01	-6.756326e+00
2.542158e+01	-6.796618e+00
2.556842e+01	-6.835704e+00
2.571610e+01	-6.875507e+00
2.586463e+01	-6.915253e+00
2.601403e+01	-6.955300e+00
2.616428e+01	-6.994900e+00
2.631541e+01	-7.035464e+00
2.646740e+01	-7.075655e+00
2.662028e+01	-7.115577e+00
2.677404e+01	-7.155736e+00
2.692868e+01	-7.196840e+00
2.708422e+01	-7.236846e+00
2.724066e+01	-7.278043e+00
2.739800e+01	-7.318321e+00
2.755625e+01	-7.359149e+00
2.771541e+01	-7.400347e+00
2.787550e+01	-7.440783e+00
2.803650e+01	-7.482383e+00
2.819844e+01	-7.523648e+00
2.836131e+01	-7.564377e+00
2.852513e+01	-7.605662e+00
2.868989e+01	-7.647073e+00
2.885560e+01	-7.688576e+00
2.902227e+01	-7.730044e+00
2.918990e+01	-7.771778e+00
2.935850e+01	-7.813157e+00
2.952807e+01	-7.855016e+00
2.969863e+01	-7.897219e+00
2.987016e+01	-7.939309e+00
3.004269e+01	-7.981174e+00
3.021622e+01	-8.022801e+00
3.039075e+01	-8.065700e+00
3.056628e+01	-8.107625e+00
3.074283e+01	-8.149966e+00
3.092040e+01	-8.192533e+00
3.109900e+01	-8.234695e+00
3.127862e+01	-8.277686e+00
3.145929e+01	-8.320298e+00
3.164099e+01	-8.362844e+00
3.182375e+01	-8.405411e+00
3.200756e+01	-8.448653e+00
3.219244e+01	-8.491392e+00
3.237838e+01	-8.534182e+00
3.256540e+01	-8.577337e+00
3.275349e+01	-8.620802e+00
3.294268e+01	-8.663557e+00
3.313295e+01	-8.706511e+00
3.332433e+01	-8.750543e+00
3.351681e+01	-8.793125e+00
3.371040e+01	-8.836494e+00
3.390511e+01	-8.880480e+00
3.410094e+01	-8.924315e+00
3.429791e+01	-8.967490e+00
3.449601e+01	-9.012146e+00
3.469526e+01	-9.055269e+00
3.489566e+01	-9.099062e+00
3.509721e+01	-9.143463e+00
3.529993e+01	-9.186679e+00
3.550382e+01	-9.231084e+00
3.570889e+01	-9.275153e+00
3.591515e+01	-9.319490e+00
3.612259e+01	-9.363135e+00
3.633123e+01	-9.407612e+00
3.654108e+01	-9.451967e+00
3.675214e+01	-9.496399e+00
3.696442e+01	-9.541145e+00
3.717792e+01	-9.585115e+00
3.739266e+01	-9.630437e+00
3.760864e+01	-9.674243e+00
3.782587e+01	-9.719274e+00
3.804435e+01	-9.763800e+00
3.826409e+01	-9.808571e+00
3.848510e+01	-9.853114e+00
3.870739e+01	-9.898250e+00
3.893096e+01	-9.943269e+00
3.915583e+01	-9.987720e+00
3.938199e+01	-1.003315e+01
3.960946e+01	-1.007864e+01
3.983824e+01	-1.012386e+01
4.006834e+01	-1.016888e+01
4.029978e+01	-1.021425e+01
4.053255e+01	-1.025926e+01
4.076666e+01	-1.030460e+01
4.100213e+01	-1.034955e+01
4.123896e+01	-1.039587e+01
4.147715e+01	-1.044076e+01
4.171672e+01	-1.048712e+01
4.195767e+01	-1.053205e+01
4.220002e+01	-1.057835e+01
4.244377e+01	-1.062364e+01
4.268892e+01	-1.066835e+01
4.293549e+01	-1.071453e+01
4.318348e+01	-1.076011e+01
4.343291e+01	-1.080634e+01
4.368377e+01	-1.085222e+01
4.393609e+01	-1.089875e+01
4.418986e+01	-1.094427e+01
4.444510e+01	-1.099007e+01
4.470182e+01	-1.103639e+01
4.496001e+01	-1.108247e+01
4.521970e+01	-1.112871e+01
4.548089e+01	-1.117453e+01
4.574358e+01	-1.122101e+01
4.600779e+01	-1.126719e+01
4.627353e+01	-1.131392e+01
4.654081e+01	-1.135972e+01
4.680963e+01	-1.140610e+01
4.708000e+01	-1.145218e+01
4.735193e+01	-1.149875e+01
4.762543e+01	-1.154563e+01
4.790051e+01	-1.159235e+01
4.817719e+01	-1.163885e+01
4.845545e+01	-1.168533e+01
4.873533e+01	-1.173200e+01
4.901682e+01	-1.177913e+01
4.929994e+01	-1.182548e+01
4.958470e+01	-1.187215e+01
4.987110e+01	-1.191903e+01
5.015915e+01	-1.196628e+01
5.044887e+01	-1.201244e+01
5.074026e+01	-1.205934e+01
5.103333e+01	-1.210726e+01
5.132810e+01	-1.215318e+01
5.162457e+01	-1.220007e+01
5.192275e+01	-1.224787e+01
5.222265e+01	-1.229488e+01
5.252429e+01	-1.234170e+01
5.282767e+01	-1.238911e+01
5.313280e+01	-1.243562e+01
5.343969e+01	-1.248323e+01
5.374836e+01	-1.252996e+01
5.405880e+01	-1.257777e+01
5.437105e+01	-1.262470e+01
5.468509e+01	-1.267197e+01
5.500095e+01	-1.271987e+01
5.531863e+01	-1.276763e+01
5.563815e+01	-1.281441e+01
5.595951e+01	-1.286181e+01
5.628273e+01	-1.290919e+01
5.660782e+01	-1.295728e+01
5.693479e+01	-1.300335e+01
5.726364e+01	-1.305243e+01
5.759439e+01	-1.309879e+01
5.792705e+01	-1.314669e+01
5.826164e+01	-1.319410e+01
5.859815e+01	-1.324181e+01
5.893662e+01	-1.329019e+01
5.927703e+01	-1.333814e+01
5.961941e+01	-1.338524e+01
5.996377e+01	-1.343313e+01
6.031012e+01	-1.348113e+01
6.065847e+01	-1.352853e+01
6.100883e+01	-1.357599e+01
6.136121e+01	-1.362388e+01
6.171563e+01	-1.367133e+01
6.207210e+01	-1.371945e+01
6.243063e+01	-1.376715e+01
6.279122e+01	-1.381627e+01
6.315390e+01	-1.386428e+01
6.351868e+01	-1.391169e+01
6.388556e+01	-1.396035e+01
6.425456e+01	-1.400737e+01
6.462569e+01	-1.405587e+01
6.499897e+01	-1.410301e+01
6.537440e+01	-1.415169e+01
6.575200e+01	-1.420066e+01
6.613178e+01	-1.424787e+01
6.651375e+01	-1.429659e+01
6.689793e+01	-1.434422e+01
6.728433e+01	-1.439302e+01
6.767297e+01	-1.444091e+01
6.806384e+01	-1.448987e+01
6.845698e+01	-1.453799e+01
6.885238e+01	-1.458540e+01
6.925007e+01	-1.463460e+01
6.965005e+01	-1.468262e+01
7.005235e+01	-1.473126e+01
7.045697e+01	-1.477900e+01
7.086393e+01	-1.482699e+01
7.127323e+01	-1.487552e+01
7.168490e+01	-1.492472e+01
7.209895e+01	-1.497283e+01
7.251539e+01	-1.502133e+01
7.293424e+01	-1.506907e+01
7.335551e+01	-1.511869e+01
7.377920e+01	-1.516705e+01
7.420535e+01	-1.521538e+01
7.463396e+01	-1.526298e+01
7.506504e+01	-1.531243e+01
7.549861e+01	-1.536127e+01
7.593469e+01	-1.540946e+01
7.637328e+01	-1.545741e+01
7.681441e+01	-1.550674e+01
7.725809e+01	-1.555554e+01
7.770433e+01	-1.560429e+01
7.815315e+01	-1.565169e+01
7.860456e+01	-1.570077e+01
7.905857e+01	-1.575038e+01
7.951521e+01	-1.579930e+01
7.997449e+01	-1.584780e+01
8.043642e+01	-1.589626e+01
8.090102e+01	-1.594434e+01
8.136830e+01	-1.599351e+01
8.183828e+01	-1.604152e+01
8.231097e+01	-1.609063e+01
8.278640e+01	-1.613968e+01
8.326457e+01	-1.618862e+01
8.374550e+01	-1.623803e+01
8.422921e+01	-1.628678e+01
8.471572e+01	-1.633513e+01
8.520503e+01	-1.638402e+01
8.569717e+01	-1.643260e+01
8.619215e+01	-1.648181e+01
8.669000e+01	-1.653110e+01
8.719071e+01	-1.657996e+01
8.769432e+01	-1.662888e+01
8.820084e+01	-1.667859e+01
8.871029e+01	-1.672638e+01
8.922267e+01	-1.677680e+01
8.973802e+01	-1.682433e+01
9.025634e+01	-1.687298e+01
9.077766e+01	-1.692187e+01
9.130199e+01	-1.697102e+01
9.182935e+01	-1.701943e+01
9.235975e+01	-1.706932e+01
9.289321e+01	-1.711928e+01
9.342976e+01	-1.716788e+01
9.396941e+01	-1.721614e+01
9.451217e+01	-1.726617e+01
9.505807e+01	-1.731511e+01
9.560712e+01	-1.736454e+01
9.615934e+01	-1.741340e+01
9.671476e+01	-1.746288e+01
9.727338e+01	-1.751236e+01
9.783522e+01	-1.756051e+01
9.840032e+01	-1.760960e+01
9.896867e+01	-1.765771e+01
9.954031e+01	-1.770732e+01
1.001153e+02	-1.775684e+01
1.006935e+02	-1.780621e+01
1.012751e+02	-1.785721e+01
1.018601e+02	-1.790478e+01
1.024484e+02	-1.795467e+01
1.030402e+02	-1.800221e+01
1.036353e+02	-1.805189e+01
1.042339e+02	-1.810135e+01
1.048360e+02	-1.815206e+01
1.054415e+02	-1.820104e+01
1.060505e+02	-1.824934e+01
1.066631e+02	-1.829856e+01
1.072791e+02	-1.834813e+01
1.078988e+02	-1.839755e+01
1.085220e+02	-1.844682e+01
1.091488e+02	-1.849624e+01
1.097793e+02	-1.854458e+01
1.104133e+02	-1.859441e+01
1.110511e+02	-1.864423e+01
1.116925e+02	-1.869266e+01
1.123376e+02	-1.874412e+01
1.129865e+02	-1.879227e+01
1.136391e+02	-1.884242e+01
1.142955e+02	-1.889113e+01
1.149556e+02	-1.894049e+01
1.156196e+02	-1.898968e+01
1.162874e+02	-1.903965e+01
1.169591e+02	-1.908966e+01
1.176347e+02	-1.913881e+01
1.183141e+02	-1.918796e+01
1.189975e+02	-1.923774e+01
1.196848e+02	-1.928554e+01
1.203761e+02	-1.933524e+01
1.210714e+02	-1.938617e+01
1.217707e+02	-1.943719e+01
1.224740e+02	-1.948457e+01
1.231814e+02	-1.953342e+01
1.238929e+02	-1.958320e+01
1.246085e+02	-1.963360e+01
1.253283e+02	-1.968206e+01
1.260522e+02	-1.973005e+01
1.267802e+02	-1.978087e+01
1.275125e+02	-1.983091e+01
1.282490e+02	-1.988024e+01
1.289898e+02	-1.993006e+01
1.297348e+02	-1.997883e+01
1.304842e+02	-2.002749e+01
1.312378e+02	-2.007984e+01
1.319959e+02	-2.012824e+01
1.327583e+02	-2.017795e+01
1.335251e+02	-2.022765e+01
1.342963e+02	-2.027723e+01
1.350720e+02	-2.032695e+01
1.358522e+02	-2.037417e+01
1.366368e+02	-2.042529e+01
1.374260e+02	-2.047269e+01
1.382198e+02	-2.052401e+01
1.390182e+02	-2.057499e+01
1.398211e+02	-2.062318e+01
1.406287e+02	-2.067124e+01
1.414410e+02	-2.072408e+01
1.422579e+02	-2.077228e+01
1.430796e+02	-2.082160e+01
1.439060e+02	-2.087297e+01
1.447372e+02	-2.092262e+01
1.455732e+02	-2.097045e+01
1.464141e+02	-2.102016e+01
1.472597e+02	-2.107067e+01
1.481103e+02	-2.112206e+01
1.489658e+02	-2.117008e+01
1.498262e+02	-2.122022e+01
1.506916e+02	-2.126783e+01
1.515620e+02	-2.131680e+01
1.524374e+02	-2.136837e+01
1.533179e+02	-2.141683e+01
1.542034e+02	-2.146727e+01
1.550941e+02	-2.151900e+01
1.559899e+02	-2.156758e+01
1.568909e+02	-2.161766e+01
1.577971e+02	-2.166913e+01
1.587085e+02	-2.171649e+01
1.596252e+02	-2.176551e+01
1.605472e+02	-2.181478e+01
1.614745e+02	-2.186570e+01
1.624072e+02	-2.191326e+01
1.633453e+02	-2.196538e+01
1.642887e+02	-2.201542e+01
1.652377e+02	-2.206420e+01
1.661921e+02	-2.211421e+01
1.671520e+02	-2.216503e+01
1.681175e+02	-2.221592e+01
1.690885e+02	-2.226257e+01
1.700651e+02	-2.231518e+01
1.710474e+02	-2.236235e+01
1.720354e+02	-2.241294e+01
1.730291e+02	-2.246132e+01
1.740285e+02	-2.251250e+01
1.750337e+02	-2.256443e+01
1.760446e+02	-2.261185e+01
1.770615e+02	-2.266066e+01
1.780842e+02	-2.271201e+01
1.791128e+02	-2.275940e+01
1.801473e+02	-2.280983e+01
1.811878e+02	-2.286262e+01
1.822344e+02	-2.291191e+01
1.832870e+02	-2.296019e+01
1.843456e+02	-2.301123e+01
1.854104e+02	-2.306234e+01
1.864813e+02	-2.310886e+01
1.875584e+02	-2.315942e+01
1.886418e+02	-2.320926e+01
1.897313e+02	-2.325954e+01
1.908272e+02	-2.330874e+01
1.919294e+02	-2.335852e+01
1.930380e+02	-2.340955e+01
1.941530e+02	-2.345739e+01
1.952744e+02	-2.350888e+01
1.964023e+02	-2.355646e+01
1.975367e+02	-2.360702e+01
1.986777e+02	-2.365835e+01
1.998252e+02	-2.370469e+01
2.009794e+02	-2.375716e+01
2.021403e+02	-2.380606e+01
2.033078e+02	-2.385606e+01
2.044821e+02	-2.390545e+01
2.056632e+02	-2.395664e+01
2.068511e+02	-2.400707e+01
2.080459e+02	-2.405750e+01
2.092475e+02	-2.410717e+01
2.104561e+02	-2.415691e+01
2.116717e+02	-2.420565e+01
2.128943e+02	-2.425379e+01
2.141240e+02	-2.430578e+01
2.153608e+02	-2.435699e+01
2.166047e+02	-2.440744e+01
2.178558e+02	-2.445465e+01
2.191141e+02	-2.450357e+01
2.203797e+02	-2.455607e+01
2.216526e+02	-2.460597e+01
2.229329e+02	-2.465460e+01
2.242205e+02	-2.470513e+01
2.255156e+02	-2.475531e+01
2.268182e+02	-2.480513e+01
2.281283e+02	-2.485427e+01
2.294459e+02	-2.490330e+01
2.307712e+02	-2.495408e+01
2.321041e+02	-2.500701e+01
2.334447e+02	-2.505602e+01
2.347931e+02	-2.510213e+01
2.361493e+02	-2.515508e+01
2.375133e+02	-2.520461e+01
2.388851e+02	-2.525319e+01
2.402649e+02	-2.530457e+01
2.416527e+02	-2.535240e+01
2.430484e+02	-2.540307e+01
2.444523e+02	-2.545586e+01
2.458642e+02	-2.550395e+01
2.472843e+02	-2.555323e+01
2.487126e+02	-2.560559e+01
2.501492e+02	-2.565090e+01
2.515940e+02	-2.570305e+01
2.530472e+02	-2.575512e+01
2.545088e+02	-2.580140e+01
2.559789e+02	-2.585093e+01
2.574574e+02	-2.590291e+01
2.589444e+02	-2.595197e+01
2.604401e+02	-2.600378e+01
2.619444e+02	-2.605484e+01
2.634574e+02	-2.610478e+01
2.649791e+02	-2.615488e+01
2.665096e+02	-2.620190e+01
2.680489e+02	-2.625365e+01
2.695972e+02	-2.629784e+01
2.711544e+02	-2.635461e+01
2.727205e+02	-2.640659e+01
2.742958e+02	-2.645068e+01
2.758801e+02	-2.649935e+01
2.774736e+02	-2.655408e+01
2.790762e+02	-2.660304e+01
2.806882e+02	-2.665205e+01
2.823094e+02	-2.670303e+01
2.839400e+02	-2.675042e+01
2.855800e+02	-2.679930e+01
2.872295e+02	-2.685532e+01
2.888886e+02	-2.690262e+01
2.905572e+02	-2.695170e+01
2.922354e+02	-2.700394e+01
2.939234e+02	-2.705205e+01
2.956211e+02	-2.710125e+01
2.973286e+02	-2.715063e+01
2.990459e+02	-2.720254e+01
3.007732e+02	-2.725153e+01
3.025104e+02	-2.730203e+01
3.042577e+02	-2.735227e+01
3.060151e+02	-2.739827e+01
3.077826e+02	-2.745186e+01
3.095604e+02	-2.750091e+01
3.113484e+02	-2.755324e+01
3.131467e+02	-2.760571e+01
3.149554e+02	-2.765065e+01
3.167746e+02	-2.770347e+01
3.186043e+02	-2.775121e+01
3.204445e+02	-2.780280e+01
3.222954e+02	-2.785643e+01
3.241570e+02	-2.790632e+01
3.260293e+02	-2.795052e+01
3.279124e+02	-2.800201e+01
3.298064e+02	-2.805035e+01
3.317114e+02	-2.809981e+01
3.336273e+02	-2.815290e+01
3.355544e+02	-2.820001e+01
3.374925e+02	-2.825193e+01
3.394418e+02	-2.830336e+01
3.414024e+02	-2.835166e+01
3.433744e+02	-2.840041e+01
3.453577e+02	-2.845227e+01
3.473525e+02	-2.850306e+01
3.493588e+02	-2.855225e+01
3.513766e+02	-2.860310e+01
3.534062e+02	-2.865485e+01
3.554474e+02	-2.869935e+01
3.575005e+02	-2.875308e+01
3.595654e+02	-2.880118e+01
3.616422e+02	-2.885796e+01
3.637311e+02	-2.890024e+01
3.658320e+02	-2.895317e+01
3.679450e+02	-2.900328e+01
3.700702e+02	-2.905328e+01
3.722077e+02	-2.910549e+01
3.743576e+02	-2.915073e+01
3.765199e+02	-2.920717e+01
3.786946e+02	-2.925368e+01
3.808820e+02	-2.930418e+01
3.830819e+02	-2.935213e+01
3.852946e+02	-2.940915e+01
3.875200e+02	-2.945987e+01
3.897583e+02	-2.950328e+01
3.920096e+02	-2.955420e+01
3.942738e+02	-2.960165e+01
3.965511e+02	-2.965352e+01
3.988416e+02	-2.969998e+01
4.011452e+02	-2.975786e+01
4.034622e+02	-2.980840e+01
4.057926e+02	-2.985600e+01
4.081365e+02	-2.989896e+01
4.104938e+02	-2.995448e+01
4.128648e+02	-3.000064e+01
4.152495e+02	-3.005527e+01
4.176480e+02	-3.010955e+01
4.200603e+02	-3.015927e+01
4.224866e+02	-3.020850e+01
4.249268e+02	-3.025190e+01
4.273812e+02	-3.030049e+01
4.298497e+02	-3.035593e+01
4.323325e+02	-3.040541e+01
4.348297e+02	-3.045439e+01
4.373412e+02	-3.051026e+01
4.398673e+02	-3.055286e+01
4.424079e+02	-3.061118e+01
4.449633e+02	-3.065537e+01
4.475334e+02	-3.070429e+01
4.501183e+02	-3.075933e+01
4.527182e+02	-3.080910e+01
4.553330e+02	-3.085748e+01
4.579630e+02	-3.090940e+01
4.606082e+02	-3.095200e+01
4.632687e+02	-3.101477e+01
4.659445e+02	-3.106206e+01
4.686358e+02	-3.110099e+01
4.713426e+02	-3.115566e+01
4.740650e+02	-3.120146e+01
4.768032e+02	-3.125587e+01
4.795572e+02	-3.130619e+01
4.823271e+02	-3.135377e+01
4.851130e+02	-3.141059e+01
4.879150e+02	-3.145698e+01
4.907332e+02	-3.150930e+01
4.935676e+02	-3.156174e+01
4.964185e+02	-3.160791e+01
4.992858e+02	-3.166275e+01
5.021696e+02	-3.170673e+01
5.050701e+02	-3.175896e+01
5.079874e+02	-3.181577e+01
5.109215e+02	-3.186017e+01
5.138726e+02	-3.190786e+01
5.168407e+02	-3.196336e+01
5.198259e+02	-3.201003e+01
5.228284e+02	-3.206076e+01
5.258482e+02	-3.210826e+01
5.288855e+02	-3.216351e+01
5.319403e+02	-3.221900e+01
5.350128e+02	-3.226019e+01
5.381030e+02	-3.230845e+01
5.412111e+02	-3.236000e+01
5.443371e+02	-3.241323e+01
5.474812e+02	-3.246462e+01
5.506434e+02	-3.251246e+01
5.538239e+02	-3.255996e+01
5.570228e+02	-3.260986e+01
5.602401e+02	-3.266354e+01
5.634760e+02	-3.271125e+01
5.667306e+02	-3.276140e+01
5.700040e+02	-3.281825e+01
5.732964e+02	-3.286058e+01
5.766077e+02	-3.291339e+01
5.799382e+02	-3.296607e+01
5.832879e+02	-3.301884e+01
5.866569e+02	-3.306672e+01
5.900454e+02	-3.311504e+01
5.934535e+02	-3.316177e+01
5.968813e+02	-3.321395e+01
6.003288e+02	-3.327100e+01
6.037963e+02	-3.331365e+01
6.072838e+02	-3.337375e+01
6.107914e+02	-3.342119e+01
6.143194e+02	-3.346525e+01
6.178676e+02	-3.351200e+01
6.214364e+02	-3.356493e+01
6.250258e+02	-3.361956e+01
6.286359e+02	-3.366909e+01
6.322669e+02	-3.372966e+01
6.359189e+02	-3.376739e+01
6.395919e+02	-3.381773e+01
6.432862e+02	-3.386648e+01
6.470017e+02	-3.392331e+01
6.507388e+02	-3.396836e+01
6.544974e+02	-3.402071e+01
6.582778e+02	-3.407435e+01
6.620800e+02	-3.412364e+01
6.659041e+02	-3.417646e+01
6.697504e+02	-3.422251e+01
6.736188e+02	-3.427124e+01
6.775096e+02	-3.431755e+01
6.814229e+02	-3.436733e+01
6.853587e+02	-3.442673e+01
6.893173e+02	-3.448024e+01
6.932988e+02	-3.452705e+01
6.973033e+02	-3.457766e+01
7.013309e+02	-3.462425e+01
