Frequency(Hz)	Magnitude(dB)
1.000000e+01	-1.556334e-05
1.005776e+01	-1.574364e-05
1.011585e+01	-1.592604e-05
1.017428e+01	-1.611054e-05
1.023305e+01	-1.629719e-05
1.029215e+01	-1.648600e-05
1.035160e+01	-1.667699e-05
1.041139e+01	-1.687020e-05
1.047153e+01	-1.706564e-05
1.053201e+01	-1.726335e-05
1.059284e+01	-1.746335e-05
1.065403e+01	-1.766567e-05
1.071556e+01	-1.787033e-05
1.077746e+01	-1.807737e-05
1.083971e+01	-1.828680e-05
1.090232e+01	-1.849865e-05
1.096529e+01	-1.871297e-05
1.102862e+01	-1.892976e-05
1.109232e+01	-1.914907e-05
1.115639e+01	-1.937091e-05
1.122083e+01	-1.959533e-05
1.128564e+01	-1.982235e-05
1.135083e+01	-2.005199e-05
1.141639e+01	-2.028430e-05
1.148233e+01	-2.051930e-05
1.154865e+01	-2.075702e-05
1.161536e+01	-2.099750e-05
1.168245e+01	-2.124076e-05
1.174992e+01	-2.148684e-05
1.181779e+01	-2.173577e-05
1.188605e+01	-2.198758e-05
1.195470e+01	-2.224231e-05
1.202375e+01	-2.250000e-05
1.209320e+01	-2.276066e-05
1.216305e+01	-2.302435e-05
1.223330e+01	-2.329109e-05
1.230396e+01	-2.356093e-05
1.237503e+01	-2.383389e-05
1.244651e+01	-2.411001e-05
1.251840e+01	-2.438933e-05
1.259070e+01	-2.467189e-05
1.266343e+01	-2.495772e-05
1.273657e+01	-2.524686e-05
1.281014e+01	-2.553935e-05
1.288413e+01	-2.583523e-05
1.295855e+01	-2.613453e-05
1.303339e+01	-2.643731e-05
1.310867e+01	-2.674359e-05
1.318439e+01	-2.705342e-05
1.326054e+01	-2.736684e-05
1.333713e+01	-2.768390e-05
1.341417e+01	-2.800462e-05
1.349165e+01	-2.832906e-05
1.356958e+01	-2.865726e-05
1.364795e+01	-2.898926e-05
1.372678e+01	-2.932511e-05
1.380607e+01	-2.966485e-05
1.388581e+01	-3.000852e-05
1.396602e+01	-3.035618e-05
1.404668e+01	-3.070786e-05
1.412782e+01	-3.106362e-05
1.420942e+01	-3.142350e-05
1.429149e+01	-3.178755e-05
1.437404e+01	-3.215581e-05
1.445706e+01	-3.252835e-05
1.454057e+01	-3.290519e-05
1.462455e+01	-3.328641e-05
1.470902e+01	-3.367204e-05
1.479398e+01	-3.406214e-05
1.487943e+01	-3.445676e-05
1.496537e+01	-3.485595e-05
1.505181e+01	-3.525976e-05
1.513875e+01	-3.566825e-05
1.522619e+01	-3.608148e-05
1.531414e+01	-3.649949e-05
1.540259e+01	-3.692234e-05
1.549156e+01	-3.735010e-05
1.558103e+01	-3.778281e-05
1.567103e+01	-3.822053e-05
1.576155e+01	-3.866332e-05
1.585258e+01	-3.911125e-05
1.594415e+01	-3.956436e-05
1.603624e+01	-4.002272e-05
1.612886e+01	-4.048639e-05
1.622202e+01	-4.095544e-05
1.631572e+01	-4.142992e-05
1.640996e+01	-4.190989e-05
1.650474e+01	-4.239543e-05
1.660008e+01	-4.288659e-05
1.669596e+01	-4.338344e-05
1.679239e+01	-4.388604e-05
1.688938e+01	-4.439447e-05
1.698694e+01	-4.490879e-05
1.708505e+01	-4.542907e-05
1.718373e+01	-4.595538e-05
1.728299e+01	-4.648778e-05
1.738281e+01	-4.702635e-05
1.748322e+01	-4.757116e-05
1.758420e+01	-4.812228e-05
1.768576e+01	-4.867979e-05
1.778792e+01	-4.924376e-05
1.789066e+01	-4.981426e-05
1.799399e+01	-5.039136e-05
1.809793e+01	-5.097516e-05
1.820246e+01	-5.156572e-05
1.830760e+01	-5.216312e-05
1.841334e+01	-5.276744e-05
1.851969e+01	-5.337876e-05
1.862666e+01	-5.399716e-05
1.873425e+01	-5.462273e-05
1.884246e+01	-5.525555e-05
1.895129e+01	-5.589569e-05
1.906075e+01	-5.654326e-05
1.917085e+01	-5.719832e-05
1.928158e+01	-5.786098e-05
1.939295e+01	-5.853131e-05
1.950496e+01	-5.920940e-05
1.961762e+01	-5.989536e-05
1.973093e+01	-6.058926e-05
1.984490e+01	-6.129120e-05
1.995952e+01	-6.200127e-05
2.007480e+01	-6.271956e-05
2.019076e+01	-6.344618e-05
2.030738e+01	-6.418122e-05
2.042467e+01	-6.492477e-05
2.054264e+01	-6.567694e-05
2.066130e+01	-6.643782e-05
2.078064e+01	-6.720751e-05
2.090066e+01	-6.798612e-05
2.102139e+01	-6.877375e-05
2.114280e+01	-6.957051e-05
2.126492e+01	-7.037650e-05
2.138775e+01	-7.119182e-05
2.151128e+01	-7.201659e-05
2.163553e+01	-7.285092e-05
2.176050e+01	-7.369491e-05
2.188619e+01	-7.454868e-05
2.201260e+01	-7.541234e-05
2.213974e+01	-7.628600e-05
2.226762e+01	-7.716979e-05
2.239624e+01	-7.806382e-05
2.252560e+01	-7.896820e-05
2.265571e+01	-7.988306e-05
2.278656e+01	-8.080852e-05
2.291818e+01	-8.174470e-05
2.305055e+01	-8.269172e-05
2.318369e+01	-8.364972e-05
2.331760e+01	-8.461882e-05
2.345228e+01	-8.559914e-05
2.358774e+01	-8.659082e-05
2.372398e+01	-8.759399e-05
2.386101e+01	-8.860878e-05
2.399883e+01	-8.963533e-05
2.413745e+01	-9.067377e-05
2.427686e+01	-9.172424e-05
2.441709e+01	-9.278688e-05
2.455812e+01	-9.386183e-05
2.469997e+01	-9.494923e-05
2.484263e+01	-9.604923e-05
2.498612e+01	-9.716198e-05
2.513044e+01	-9.828761e-05
2.527559e+01	-9.942629e-05
2.542158e+01	-1.005782e-04
2.556842e+01	-1.017434e-04
2.571610e+01	-1.029221e-04
2.586463e+01	-1.041144e-04
2.601403e+01	-1.053206e-04
2.616428e+01	-1.065408e-04
2.631541e+01	-1.077751e-04
2.646740e+01	-1.090237e-04
2.662028e+01	-1.102867e-04
2.677404e+01	-1.115644e-04
2.692868e+01	-1.128569e-04
2.708422e+01	-1.141643e-04
2.724066e+01	-1.154870e-04
2.739800e+01	-1.168249e-04
2.755625e+01	-1.181783e-04
2.771541e+01	-1.195474e-04
2.787550e+01	-1.209324e-04
2.803650e+01	-1.223334e-04
2.819844e+01	-1.237507e-04
2.836131e+01	-1.251843e-04
2.852513e+01	-1.266346e-04
2.868989e+01	-1.281017e-04
2.885560e+01	-1.295857e-04
2.902227e+01	-1.310870e-04
2.918990e+01	-1.326057e-04
2.935850e+01	-1.341419e-04
2.952807e+01	-1.356960e-04
2.969863e+01	-1.372680e-04
2.987016e+01	-1.388583e-04
3.004269e+01	-1.404670e-04
3.021622e+01	-1.420943e-04
3.039075e+01	-1.437405e-04
3.056628e+01	-1.454057e-04
3.074283e+01	-1.470902e-04
3.092040e+01	-1.487943e-04
3.109900e+01	-1.505181e-04
3.127862e+01	-1.522619e-04
3.145929e+01	-1.540258e-04
3.164099e+01	-1.558102e-04
3.182375e+01	-1.576153e-04
3.200756e+01	-1.594413e-04
3.219244e+01	-1.612884e-04
3.237838e+01	-1.631569e-04
3.256540e+01	-1.650471e-04
3.275349e+01	-1.669592e-04
3.294268e+01	-1.688934e-04
3.313295e+01	-1.708501e-04
3.332433e+01	-1.728294e-04
3.351681e+01	-1.748316e-04
3.371040e+01	-1.768571e-04
3.390511e+01	-1.789060e-04
3.410094e+01	-1.809786e-04
3.429791e+01	-1.830752e-04
3.449601e+01	-1.851962e-04
3.469526e+01	-1.873417e-04
3.489566e+01	-1.895120e-04
3.509721e+01	-1.917075e-04
3.529993e+01	-1.939285e-04
3.550382e+01	-1.961751e-04
3.570889e+01	-1.984478e-04
3.591515e+01	-2.007468e-04
3.612259e+01	-2.030725e-04
3.633123e+01	-2.054251e-04
3.654108e+01	-2.078049e-04
3.675214e+01	-2.102124e-04
3.696442e+01	-2.126477e-04
3.717792e+01	-2.151112e-04
3.739266e+01	-2.176032e-04
3.760864e+01	-2.201242e-04
3.782587e+01	-2.226743e-04
3.804435e+01	-2.252540e-04
3.826409e+01	-2.278635e-04
3.848510e+01	-2.305033e-04
3.870739e+01	-2.331737e-04
3.893096e+01	-2.358750e-04
3.915583e+01	-2.386076e-04
3.938199e+01	-2.413719e-04
3.960946e+01	-2.441682e-04
3.983824e+01	-2.469968e-04
4.006834e+01	-2.498583e-04
4.029978e+01	-2.527529e-04
4.053255e+01	-2.556810e-04
4.076666e+01	-2.586431e-04
4.100213e+01	-2.616394e-04
4.123896e+01	-2.646705e-04
4.147715e+01	-2.677367e-04
4.171672e+01	-2.708384e-04
4.195767e+01	-2.739760e-04
4.220002e+01	-2.771500e-04
4.244377e+01	-2.803608e-04
4.268892e+01	-2.836087e-04
4.293549e+01	-2.868943e-04
4.318348e+01	-2.902179e-04
4.343291e+01	-2.935801e-04
4.368377e+01	-2.969812e-04
4.393609e+01	-3.004217e-04
4.418986e+01	-3.039020e-04
4.444510e+01	-3.074227e-04
4.470182e+01	-3.109841e-04
4.496001e+01	-3.145868e-04
4.521970e+01	-3.182313e-04
4.548089e+01	-3.219179e-04
4.574358e+01	-3.256473e-04
4.600779e+01	-3.294199e-04
4.627353e+01	-3.332361e-04
4.654081e+01	-3.370966e-04
4.680963e+01	-3.410018e-04
4.708000e+01	-3.449523e-04
4.735193e+01	-3.489485e-04
4.762543e+01	-3.529910e-04
4.790051e+01	-3.570803e-04
4.817719e+01	-3.612170e-04
4.845545e+01	-3.654016e-04
4.873533e+01	-3.696347e-04
4.901682e+01	-3.739169e-04
4.929994e+01	-3.782486e-04
4.958470e+01	-3.826305e-04
4.987110e+01	-3.870632e-04
5.015915e+01	-3.915473e-04
5.044887e+01	-3.960832e-04
5.074026e+01	-4.006717e-04
5.103333e+01	-4.053134e-04
5.132810e+01	-4.100089e-04
5.162457e+01	-4.147587e-04
5.192275e+01	-4.195636e-04
5.222265e+01	-4.244241e-04
5.252429e+01	-4.293409e-04
5.282767e+01	-4.343147e-04
5.313280e+01	-4.393461e-04
5.343969e+01	-4.444358e-04
5.374836e+01	-4.495844e-04
5.405880e+01	-4.547927e-04
5.437105e+01	-4.600613e-04
5.468509e+01	-4.653910e-04
5.500095e+01	-4.707824e-04
5.531863e+01	-4.762362e-04
5.563815e+01	-4.817533e-04
5.595951e+01	-4.873342e-04
5.628273e+01	-4.929798e-04
5.660782e+01	-4.986908e-04
5.693479e+01	-5.044679e-04
5.726364e+01	-5.103119e-04
5.759439e+01	-5.162237e-04
5.792705e+01	-5.222039e-04
5.826164e+01	-5.282534e-04
5.859815e+01	-5.343730e-04
5.893662e+01	-5.405635e-04
5.927703e+01	-5.468257e-04
5.961941e+01	-5.531604e-04
5.996377e+01	-5.595685e-04
6.031012e+01	-5.660508e-04
6.065847e+01	-5.726083e-04
6.100883e+01	-5.792416e-04
6.136121e+01	-5.859519e-04
6.171563e+01	-5.927398e-04
6.207210e+01	-5.996064e-04
6.243063e+01	-6.065525e-04
6.279122e+01	-6.135791e-04
6.315390e+01	-6.206871e-04
6.351868e+01	-6.278774e-04
6.388556e+01	-6.351510e-04
6.425456e+01	-6.425088e-04
6.462569e+01	-6.499519e-04
6.499897e+01	-6.574812e-04
6.537440e+01	-6.650977e-04
6.575200e+01	-6.728025e-04
6.613178e+01	-6.805965e-04
6.651375e+01	-6.884807e-04
6.689793e+01	-6.964563e-04
6.728433e+01	-7.045243e-04
6.767297e+01	-7.126858e-04
6.806384e+01	-7.209417e-04
6.845698e+01	-7.292933e-04
6.885238e+01	-7.377417e-04
6.925007e+01	-7.462879e-04
6.965005e+01	-7.549331e-04
7.005235e+01	-7.636784e-04
7.045697e+01	-7.725251e-04
7.086393e+01	-7.814742e-04
7.127323e+01	-7.905269e-04
7.168490e+01	-7.996846e-04
7.209895e+01	-8.089483e-04
7.251539e+01	-8.183193e-04
7.293424e+01	-8.277988e-04
7.335551e+01	-8.373882e-04
7.377920e+01	-8.470886e-04
7.420535e+01	-8.569014e-04
7.463396e+01	-8.668278e-04
7.506504e+01	-8.768693e-04
7.549861e+01	-8.870270e-04
7.593469e+01	-8.973024e-04
7.637328e+01	-9.076968e-04
7.681441e+01	-9.182116e-04
7.725809e+01	-9.288482e-04
7.770433e+01	-9.396080e-04
7.815315e+01	-9.504924e-04
7.860456e+01	-9.615029e-04
7.905857e+01	-9.726409e-04
7.951521e+01	-9.839080e-04
7.997449e+01	-9.953055e-04
8.043642e+01	-1.006835e-03
8.090102e+01	-1.018498e-03
8.136830e+01	-1.030296e-03
8.183828e+01	-1.042231e-03
8.231097e+01	-1.054304e-03
8.278640e+01	-1.066517e-03
8.326457e+01	-1.078871e-03
8.374550e+01	-1.091369e-03
8.422921e+01	-1.104011e-03
8.471572e+01	-1.116800e-03
8.520503e+01	-1.129736e-03
8.569717e+01	-1.142823e-03
8.619215e+01	-1.156061e-03
8.669000e+01	-1.169453e-03
8.719071e+01	-1.182999e-03
8.769432e+01	-1.196703e-03
8.820084e+01	-1.210565e-03
8.871029e+01	-1.224588e-03
8.922267e+01	-1.238773e-03
8.973802e+01	-1.253122e-03
9.025634e+01	-1.267638e-03
9.077766e+01	-1.282322e-03
9.130199e+01	-1.297176e-03
9.182935e+01	-1.312201e-03
9.235975e+01	-1.327401e-03
9.289321e+01	-1.342777e-03
9.342976e+01	-1.358331e-03
9.396941e+01	-1.374065e-03
9.451217e+01	-1.389982e-03
9.505807e+01	-1.406082e-03
9.560712e+01	-1.422370e-03
9.615934e+01	-1.438845e-03
9.671476e+01	-1.455512e-03
9.727338e+01	-1.472372e-03
9.783522e+01	-1.489427e-03
9.840032e+01	-1.506679e-03
9.896867e+01	-1.524131e-03
9.954031e+01	-1.541785e-03
1.001153e+02	-1.559644e-03
1.006935e+02	-1.577710e-03
1.012751e+02	-1.595985e-03
1.018601e+02	-1.614471e-03
1.024484e+02	-1.633172e-03
1.030402e+02	-1.652089e-03
1.036353e+02	-1.671225e-03
1.042339e+02	-1.690583e-03
1.048360e+02	-1.710165e-03
1.054415e+02	-1.729974e-03
1.060505e+02	-1.750012e-03
1.066631e+02	-1.770282e-03
1.072791e+02	-1.790787e-03
1.078988e+02	-1.811529e-03
1.085220e+02	-1.832512e-03
1.091488e+02	-1.853738e-03
1.097793e+02	-1.875209e-03
1.104133e+02	-1.896929e-03
1.110511e+02	-1.918901e-03
1.116925e+02	-1.941127e-03
1.123376e+02	-1.963610e-03
1.129865e+02	-1.986354e-03
1.136391e+02	-2.009361e-03
1.142955e+02	-2.032634e-03
1.149556e+02	-2.056177e-03
1.156196e+02	-2.079993e-03
1.162874e+02	-2.104085e-03
1.169591e+02	-2.128455e-03
1.176347e+02	-2.153108e-03
1.183141e+02	-2.178046e-03
1.189975e+02	-2.203272e-03
1.196848e+02	-2.228791e-03
1.203761e+02	-2.254606e-03
1.210714e+02	-2.280719e-03
1.217707e+02	-2.307135e-03
1.224740e+02	-2.333856e-03
1.231814e+02	-2.360887e-03
1.238929e+02	-2.388231e-03
1.246085e+02	-2.415892e-03
1.253283e+02	-2.443873e-03
1.260522e+02	-2.472178e-03
1.267802e+02	-2.500810e-03
1.275125e+02	-2.529774e-03
1.282490e+02	-2.559074e-03
1.289898e+02	-2.588713e-03
1.297348e+02	-2.618694e-03
1.304842e+02	-2.649023e-03
1.312378e+02	-2.679704e-03
1.319959e+02	-2.710739e-03
1.327583e+02	-2.742134e-03
1.335251e+02	-2.773892e-03
1.342963e+02	-2.806018e-03
1.350720e+02	-2.838515e-03
1.358522e+02	-2.871390e-03
1.366368e+02	-2.904644e-03
1.374260e+02	-2.938284e-03
1.382198e+02	-2.972313e-03
1.390182e+02	-3.006736e-03
1.398211e+02	-3.041558e-03
1.406287e+02	-3.076782e-03
1.414410e+02	-3.112415e-03
1.422579e+02	-3.148460e-03
1.430796e+02	-3.184922e-03
1.439060e+02	-3.221807e-03
1.447372e+02	-3.259118e-03
1.455732e+02	-3.296862e-03
1.464141e+02	-3.335042e-03
1.472597e+02	-3.373664e-03
1.481103e+02	-3.412734e-03
1.489658e+02	-3.452255e-03
1.498262e+02	-3.492234e-03
1.506916e+02	-3.532676e-03
1.515620e+02	-3.573587e-03
1.524374e+02	-3.614970e-03
1.533179e+02	-3.656833e-03
1.542034e+02	-3.699180e-03
1.550941e+02	-3.742018e-03
1.559899e+02	-3.785351e-03
1.568909e+02	-3.829186e-03
1.577971e+02	-3.873528e-03
1.587085e+02	-3.918384e-03
1.596252e+02	-3.963758e-03
1.605472e+02	-4.009658e-03
1.614745e+02	-4.056090e-03
1.624072e+02	-4.103058e-03
1.633453e+02	-4.150570e-03
1.642887e+02	-4.198632e-03
1.652377e+02	-4.247251e-03
1.661921e+02	-4.296432e-03
1.671520e+02	-4.346182e-03
1.681175e+02	-4.396508e-03
1.690885e+02	-4.447417e-03
1.700651e+02	-4.498915e-03
1.710474e+02	-4.551008e-03
1.720354e+02	-4.603705e-03
1.730291e+02	-4.657011e-03
1.740285e+02	-4.710935e-03
1.750337e+02	-4.765482e-03
1.760446e+02	-4.820661e-03
1.770615e+02	-4.876478e-03
1.780842e+02	-4.932941e-03
1.791128e+02	-4.990058e-03
1.801473e+02	-5.047835e-03
1.811878e+02	-5.106281e-03
1.822344e+02	-5.165403e-03
1.832870e+02	-5.225210e-03
1.843456e+02	-5.285708e-03
1.854104e+02	-5.346907e-03
1.864813e+02	-5.408813e-03
1.875584e+02	-5.471436e-03
1.886418e+02	-5.534784e-03
1.897313e+02	-5.598864e-03
1.908272e+02	-5.663686e-03
1.919294e+02	-5.729258e-03
1.930380e+02	-5.795588e-03
1.941530e+02	-5.862686e-03
1.952744e+02	-5.930560e-03
1.964023e+02	-5.999220e-03
1.975367e+02	-6.068674e-03
1.986777e+02	-6.138931e-03
1.998252e+02	-6.210001e-03
2.009794e+02	-6.281893e-03
2.021403e+02	-6.354617e-03
2.033078e+02	-6.428183e-03
2.044821e+02	-6.502599e-03
2.056632e+02	-6.577876e-03
2.068511e+02	-6.654024e-03
2.080459e+02	-6.731052e-03
2.092475e+02	-6.808972e-03
2.104561e+02	-6.887793e-03
2.116717e+02	-6.967526e-03
2.128943e+02	-7.048180e-03
2.141240e+02	-7.129768e-03
2.153608e+02	-7.212299e-03
2.166047e+02	-7.295785e-03
2.178558e+02	-7.380237e-03
2.191141e+02	-7.465665e-03
2.203797e+02	-7.552081e-03
2.216526e+02	-7.639497e-03
2.229329e+02	-7.727923e-03
2.242205e+02	-7.817373e-03
2.255156e+02	-7.907856e-03
2.268182e+02	-7.999386e-03
2.281283e+02	-8.091974e-03
2.294459e+02	-8.185633e-03
2.307712e+02	-8.280375e-03
2.321041e+02	-8.376213e-03
2.334447e+02	-8.473158e-03
2.347931e+02	-8.571225e-03
2.361493e+02	-8.670425e-03
2.375133e+02	-8.770772e-03
2.388851e+02	-8.872280e-03
2.402649e+02	-8.974961e-03
2.416527e+02	-9.078829e-03
2.430484e+02	-9.183898e-03
2.444523e+02	-9.290181e-03
2.458642e+02	-9.397694e-03
2.472843e+02	-9.506449e-03
2.487126e+02	-9.616461e-03
2.501492e+02	-9.727745e-03
2.515940e+02	-9.840315e-03
2.530472e+02	-9.954187e-03
2.545088e+02	-1.006937e-02
2.559789e+02	-1.018589e-02
2.574574e+02	-1.030376e-02
2.589444e+02	-1.042299e-02
2.604401e+02	-1.054359e-02
2.619444e+02	-1.066559e-02
2.634574e+02	-1.078900e-02
2.649791e+02	-1.091384e-02
2.665096e+02	-1.104012e-02
2.680489e+02	-1.116785e-02
2.695972e+02	-1.129707e-02
2.711544e+02	-1.142777e-02
2.727205e+02	-1.155999e-02
2.742958e+02	-1.169373e-02
2.758801e+02	-1.182902e-02
2.774736e+02	-1.196588e-02
2.790762e+02	-1.210431e-02
2.806882e+02	-1.224434e-02
2.823094e+02	-1.238599e-02
2.839400e+02	-1.252928e-02
2.855800e+02	-1.267422e-02
2.872295e+02	-1.282084e-02
2.888886e+02	-1.296915e-02
2.905572e+02	-1.311917e-02
2.922354e+02	-1.327093e-02
2.939234e+02	-1.342444e-02
2.956211e+02	-1.357972e-02
2.973286e+02	-1.373679e-02
2.990459e+02	-1.389568e-02
3.007732e+02	-1.405641e-02
3.025104e+02	-1.421899e-02
3.042577e+02	-1.438344e-02
3.060151e+02	-1.454980e-02
3.077826e+02	-1.471807e-02
3.095604e+02	-1.488829e-02
3.113484e+02	-1.506048e-02
3.131467e+02	-1.523465e-02
3.149554e+02	-1.541083e-02
3.167746e+02	-1.558905e-02
3.186043e+02	-1.576932e-02
3.204445e+02	-1.595168e-02
3.222954e+02	-1.613614e-02
3.241570e+02	-1.632273e-02
3.260293e+02	-1.651147e-02
3.279124e+02	-1.670239e-02
3.298064e+02	-1.689551e-02
3.317114e+02	-1.709087e-02
3.336273e+02	-1.728847e-02
3.355544e+02	-1.748836e-02
3.374925e+02	-1.769055e-02
3.394418e+02	-1.789508e-02
3.414024e+02	-1.810196e-02
3.433744e+02	-1.831123e-02
3.453577e+02	-1.852292e-02
3.473525e+02	-1.873705e-02
3.493588e+02	-1.895365e-02
3.513766e+02	-1.917274e-02
3.534062e+02	-1.939437e-02
3.554474e+02	-1.961855e-02
3.575005e+02	-1.984531e-02
3.595654e+02	-2.007469e-02
3.616422e+02	-2.030671e-02
3.637311e+02	-2.054141e-02
3.658320e+02	-2.077882e-02
3.679450e+02	-2.101896e-02
3.700702e+02	-2.126187e-02
3.722077e+02	-2.150759e-02
3.743576e+02	-2.175613e-02
3.765199e+02	-2.200754e-02
3.786946e+02	-2.226185e-02
3.808820e+02	-2.251909e-02
3.830819e+02	-2.277929e-02
3.852946e+02	-2.304249e-02
3.875200e+02	-2.330872e-02
3.897583e+02	-2.357803e-02
3.920096e+02	-2.385043e-02
3.942738e+02	-2.412597e-02
3.965511e+02	-2.440469e-02
3.988416e+02	-2.468662e-02
4.011452e+02	-2.497179e-02
4.034622e+02	-2.526025e-02
4.057926e+02	-2.555204e-02
4.081365e+02	-2.584718e-02
4.104938e+02	-2.614572e-02
4.128648e+02	-2.644770e-02
4.152495e+02	-2.675316e-02
4.176480e+02	-2.706213e-02
4.200603e+02	-2.737466e-02
4.224866e+02	-2.769079e-02
4.249268e+02	-2.801055e-02
4.273812e+02	-2.833400e-02
4.298497e+02	-2.866117e-02
4.323325e+02	-2.899211e-02
4.348297e+02	-2.932685e-02
4.373412e+02	-2.966544e-02
4.398673e+02	-3.000793e-02
4.424079e+02	-3.035436e-02
4.449633e+02	-3.070478e-02
4.475334e+02	-3.105923e-02
4.501183e+02	-3.141775e-02
4.527182e+02	-3.178040e-02
4.553330e+02	-3.214721e-02
4.579630e+02	-3.251825e-02
4.606082e+02	-3.289355e-02
4.632687e+02	-3.327316e-02
4.659445e+02	-3.365714e-02
4.686358e+02	-3.404554e-02
4.713426e+02	-3.443839e-02
4.740650e+02	-3.483577e-02
4.768032e+02	-3.523771e-02
4.795572e+02	-3.564426e-02
4.823271e+02	-3.605549e-02
4.851130e+02	-3.647144e-02
4.879150e+02	-3.689218e-02
4.907332e+02	-3.731774e-02
4.935676e+02	-3.774819e-02
4.964185e+02	-3.818358e-02
4.992858e+02	-3.862398e-02
5.021696e+02	-3.906943e-02
5.050701e+02	-3.951999e-02
5.079874e+02	-3.997573e-02
5.109215e+02	-4.043670e-02
5.138726e+02	-4.090295e-02
5.168407e+02	-4.137456e-02
5.198259e+02	-4.185158e-02
5.228284e+02	-4.233407e-02
5.258482e+02	-4.282210e-02
5.288855e+02	-4.331572e-02
5.319403e+02	-4.381501e-02
5.350128e+02	-4.432002e-02
5.381030e+02	-4.483082e-02
5.412111e+02	-4.534748e-02
5.443371e+02	-4.587006e-02
5.474812e+02	-4.639863e-02
5.506434e+02	-4.693326e-02
5.538239e+02	-4.747402e-02
5.570228e+02	-4.802097e-02
5.602401e+02	-4.857418e-02
5.634760e+02	-4.913374e-02
5.667306e+02	-4.969970e-02
5.700040e+02	-5.027215e-02
5.732964e+02	-5.085114e-02
5.766077e+02	-5.143677e-02
5.799382e+02	-5.202910e-02
5.832879e+02	-5.262821e-02
5.866569e+02	-5.323418e-02
5.900454e+02	-5.384708e-02
5.934535e+02	-5.446700e-02
5.968813e+02	-5.509400e-02
6.003288e+02	-5.572818e-02
6.037963e+02	-5.636960e-02
6.072838e+02	-5.701837e-02
6.107914e+02	-5.767455e-02
6.143194e+02	-5.833822e-02
6.178676e+02	-5.900949e-02
6.214364e+02	-5.968842e-02
6.250258e+02	-6.037512e-02
6.286359e+02	-6.106965e-02
6.322669e+02	-6.177212e-02
6.359189e+02	-6.248261e-02
6.395919e+02	-6.320122e-02
6.432862e+02	-6.392802e-02
6.470017e+02	-6.466313e-02
6.507388e+02	-6.540662e-02
6.544974e+02	-6.615859e-02
6.582778e+02	-6.691915e-02
6.620800e+02	-6.768838e-02
6.659041e+02	-6.846638e-02
6.697504e+02	-6.925325e-02
6.736188e+02	-7.004909e-02
6.775096e+02	-7.085400e-02
6.814229e+02	-7.166809e-02
6.853587e+02	-7.249145e-02
6.893173e+02	-7.332418e-02
6.932988e+02	-7.416641e-02
6.973033e+02	-7.501822e-02
7.013309e+02	-7.587973e-02
