Frequency(Hz)	Magnitude(dB)
1.000000e+01	-2.172108e+00
1.005776e+01	-2.191723e+00
1.011585e+01	-2.211635e+00
1.017428e+01	-2.231647e+00
1.023305e+01	-2.251706e+00
1.029215e+01	-2.272019e+00
1.035160e+01	-2.292511e+00
1.041139e+01	-2.313113e+00
1.047153e+01	-2.333881e+00
1.053201e+01	-2.354601e+00
1.059284e+01	-2.375842e+00
1.065403e+01	-2.396992e+00
1.071556e+01	-2.418419e+00
1.077746e+01	-2.439642e+00
1.083971e+01	-2.461357e+00
1.090232e+01	-2.482738e+00
1.096529e+01	-2.504869e+00
1.102862e+01	-2.526817e+00
1.109232e+01	-2.548890e+00
1.115639e+01	-2.571321e+00
1.122083e+01	-2.593607e+00
1.128564e+01	-2.616025e+00
1.135083e+01	-2.638853e+00
1.141639e+01	-2.661525e+00
1.148233e+01	-2.684814e+00
1.154865e+01	-2.707862e+00
1.161536e+01	-2.731185e+00
1.168245e+01	-2.754624e+00
1.174992e+01	-2.778267e+00
1.181779e+01	-2.801912e+00
1.188605e+01	-2.825675e+00
1.195470e+01	-2.849723e+00
1.202375e+01	-2.873980e+00
1.209320e+01	-2.898163e+00
1.216305e+01	-2.922562e+00
1.223330e+01	-2.947300e+00
1.230396e+01	-2.971870e+00
1.237503e+01	-2.996581e+00
1.244651e+01	-3.021854e+00
1.251840e+01	-3.047039e+00
1.259070e+01	-3.071867e+00
1.266343e+01	-3.097665e+00
1.273657e+01	-3.122998e+00
1.281014e+01	-3.148957e+00
1.288413e+01	-3.174731e+00
1.295855e+01	-3.200928e+00
1.303339e+01	-3.226994e+00
1.310867e+01	-3.253423e+00
1.318439e+01	-3.279810e+00
1.326054e+01	-3.306473e+00
1.333713e+01	-3.333027e+00
1.341417e+01	-3.359809e+00
1.349165e+01	-3.386879e+00
1.356958e+01	-3.413963e+00
1.364795e+01	-3.441451e+00
1.372678e+01	-3.469169e+00
1.380607e+01	-3.496522e+00
1.388581e+01	-3.524384e+00
1.396602e+01	-3.551897e+00
1.404668e+01	-3.579914e+00
1.412782e+01	-3.608277e+00
1.420942e+01	-3.636543e+00
1.429149e+01	-3.664874e+00
1.437404e+01	-3.693389e+00
1.445706e+01	-3.722372e+00
1.454057e+01	-3.751515e+00
1.462455e+01	-3.780214e+00
1.470902e+01	-3.809451e+00
1.479398e+01	-3.838625e+00
1.487943e+01	-3.868026e+00
1.496537e+01	-3.897718e+00
1.505181e+01	-3.927107e+00
1.513875e+01	-3.957232e+00
1.522619e+01	-3.987133e+00
1.531414e+01	-4.017128e+00
1.540259e+01	-4.047506e+00
1.549156e+01	-4.077835e+00
1.558103e+01	-4.108475e+00
1.567103e+01	-4.139165e+00
1.576155e+01	-4.170150e+00
1.585258e+01	-4.200798e+00
1.594415e+01	-4.231636e+00
1.603624e+01	-4.263384e+00
1.612886e+01	-4.294682e+00
1.622202e+01	-4.325935e+00
1.631572e+01	-4.357524e+00
1.640996e+01	-4.389387e+00
1.650474e+01	-4.421110e+00
1.660008e+01	-4.453249e+00
1.669596e+01	-4.485291e+00
1.679239e+01	-4.517793e+00
1.688938e+01	-4.550142e+00
1.698694e+01	-4.582671e+00
1.708505e+01	-4.615181e+00
1.718373e+01	-4.648130e+00
1.728299e+01	-4.681030e+00
1.738281e+01	-4.713866e+00
1.748322e+01	-4.747275e+00
1.758420e+01	-4.780737e+00
1.768576e+01	-4.814182e+00
1.778792e+01	-4.847641e+00
1.789066e+01	-4.881238e+00
1.799399e+01	-4.915220e+00
1.809793e+01	-4.949196e+00
1.820246e+01	-4.983136e+00
1.830760e+01	-5.017611e+00
1.841334e+01	-5.051801e+00
1.851969e+01	-5.086469e+00
1.862666e+01	-5.120883e+00
1.873425e+01	-5.155630e+00
1.884246e+01	-5.190472e+00
1.895129e+01	-5.225696e+00
1.906075e+01	-5.260398e+00
1.917085e+01	-5.295653e+00
1.928158e+01	-5.330543e+00
1.939295e+01	-5.366402e+00
1.950496e+01	-5.402040e+00
1.961762e+01	-5.437724e+00
1.973093e+01	-5.472969e+00
1.984490e+01	-5.508824e+00
1.995952e+01	-5.545102e+00
2.007480e+01	-5.581366e+00
2.019076e+01	-5.617745e+00
2.030738e+01	-5.653868e+00
2.042467e+01	-5.690244e+00
2.054264e+01	-5.726750e+00
2.066130e+01	-5.763840e+00
2.078064e+01	-5.800498e+00
2.090066e+01	-5.837305e+00
2.102139e+01	-5.874361e+00
2.114280e+01	-5.911550e+00
2.126492e+01	-5.948633e+00
2.138775e+01	-5.985977e+00
2.151128e+01	-6.023751e+00
2.163553e+01	-6.061199e+00
2.176050e+01	-6.098714e+00
2.188619e+01	-6.136413e+00
2.201260e+01	-6.174439e+00
2.213974e+01	-6.212788e+00
2.226762e+01	-6.250487e+00
2.239624e+01	-6.288956e+00
2.252560e+01	-6.327255e+00
2.265571e+01	-6.365830e+00
2.278656e+01	-6.404358e+00
2.291818e+01	-6.442550e+00
2.305055e+01	-6.481568e+00
2.318369e+01	-6.520371e+00
2.331760e+01	-6.559505e+00
2.345228e+01	-6.598334e+00
2.358774e+01	-6.637617e+00
2.372398e+01	-6.676580e+00
2.386101e+01	-6.715747e+00
2.399883e+01	-6.755141e+00
2.413745e+01	-6.795061e+00
2.427686e+01	-6.834894e+00
2.441709e+01	-6.873972e+00
2.455812e+01	-6.914525e+00
2.469997e+01	-6.953951e+00
2.484263e+01	-6.993654e+00
2.498612e+01	-7.034004e+00
2.513044e+01	-7.074362e+00
2.527559e+01	-7.114286e+00
2.542158e+01	-7.154733e+00
2.556842e+01	-7.195185e+00
2.571610e+01	-7.235889e+00
2.586463e+01	-7.276649e+00
2.601403e+01	-7.316964e+00
2.616428e+01	-7.357757e+00
2.631541e+01	-7.398785e+00
2.646740e+01	-7.439392e+00
2.662028e+01	-7.480723e+00
2.677404e+01	-7.521789e+00
2.692868e+01	-7.563534e+00
2.708422e+01	-7.604331e+00
2.724066e+01	-7.645745e+00
2.739800e+01	-7.687174e+00
2.755625e+01	-7.728656e+00
2.771541e+01	-7.770232e+00
2.787550e+01	-7.811983e+00
2.803650e+01	-7.853804e+00
2.819844e+01	-7.895898e+00
2.836131e+01	-7.937506e+00
2.852513e+01	-7.979764e+00
2.868989e+01	-8.022095e+00
2.885560e+01	-8.064089e+00
2.902227e+01	-8.105963e+00
2.918990e+01	-8.148496e+00
2.935850e+01	-8.191021e+00
2.952807e+01	-8.233463e+00
2.969863e+01	-8.275971e+00
2.987016e+01	-8.318675e+00
3.004269e+01	-8.361185e+00
3.021622e+01	-8.403666e+00
3.039075e+01	-8.447393e+00
3.056628e+01	-8.489698e+00
3.074283e+01	-8.532807e+00
3.092040e+01	-8.576053e+00
3.109900e+01	-8.618949e+00
3.127862e+01	-8.661966e+00
3.145929e+01	-8.705448e+00
3.164099e+01	-8.748675e+00
3.182375e+01	-8.792071e+00
3.200756e+01	-8.835632e+00
3.219244e+01	-8.879562e+00
3.237838e+01	-8.922716e+00
3.256540e+01	-8.966717e+00
3.275349e+01	-9.010209e+00
3.294268e+01	-9.054205e+00
3.313295e+01	-9.097699e+00
3.332433e+01	-9.141247e+00
3.351681e+01	-9.185760e+00
3.371040e+01	-9.229800e+00
3.390511e+01	-9.273780e+00
3.410094e+01	-9.317938e+00
3.429791e+01	-9.361908e+00
3.449601e+01	-9.406115e+00
3.469526e+01	-9.450629e+00
3.489566e+01	-9.494840e+00
3.509721e+01	-9.539257e+00
3.529993e+01	-9.583906e+00
3.550382e+01	-9.628470e+00
3.570889e+01	-9.673064e+00
3.591515e+01	-9.717614e+00
3.612259e+01	-9.762527e+00
3.633123e+01	-9.807130e+00
3.654108e+01	-9.852641e+00
3.675214e+01	-9.897388e+00
3.696442e+01	-9.941285e+00
3.717792e+01	-9.986964e+00
3.739266e+01	-1.003230e+01
3.760864e+01	-1.007731e+01
3.782587e+01	-1.012221e+01
3.804435e+01	-1.016710e+01
3.826409e+01	-1.021247e+01
3.848510e+01	-1.025753e+01
3.870739e+01	-1.030270e+01
3.893096e+01	-1.034809e+01
3.915583e+01	-1.039396e+01
3.938199e+01	-1.043928e+01
3.960946e+01	-1.048511e+01
3.983824e+01	-1.053027e+01
4.006834e+01	-1.057620e+01
4.029978e+01	-1.062196e+01
4.053255e+01	-1.066716e+01
4.076666e+01	-1.071324e+01
4.100213e+01	-1.075995e+01
4.123896e+01	-1.080469e+01
4.147715e+01	-1.085070e+01
4.171672e+01	-1.089689e+01
4.195767e+01	-1.094220e+01
4.220002e+01	-1.098901e+01
4.244377e+01	-1.103460e+01
4.268892e+01	-1.108098e+01
4.293549e+01	-1.112668e+01
4.318348e+01	-1.117326e+01
4.343291e+01	-1.121950e+01
4.368377e+01	-1.126593e+01
4.393609e+01	-1.131170e+01
4.418986e+01	-1.135845e+01
4.444510e+01	-1.140454e+01
4.470182e+01	-1.145083e+01
4.496001e+01	-1.149752e+01
4.521970e+01	-1.154429e+01
4.548089e+01	-1.159074e+01
4.574358e+01	-1.163745e+01
4.600779e+01	-1.168430e+01
4.627353e+01	-1.173079e+01
4.654081e+01	-1.177770e+01
4.680963e+01	-1.182356e+01
4.708000e+01	-1.187096e+01
4.735193e+01	-1.191759e+01
4.762543e+01	-1.196458e+01
4.790051e+01	-1.201138e+01
4.817719e+01	-1.205823e+01
4.845545e+01	-1.210426e+01
4.873533e+01	-1.215213e+01
4.901682e+01	-1.219878e+01
4.929994e+01	-1.224632e+01
4.958470e+01	-1.229346e+01
4.987110e+01	-1.234057e+01
5.015915e+01	-1.238717e+01
5.044887e+01	-1.243395e+01
5.074026e+01	-1.248150e+01
5.103333e+01	-1.252880e+01
5.132810e+01	-1.257577e+01
5.162457e+01	-1.262312e+01
5.192275e+01	-1.267046e+01
5.222265e+01	-1.271804e+01
5.252429e+01	-1.276494e+01
5.282767e+01	-1.281309e+01
5.313280e+01	-1.285957e+01
5.343969e+01	-1.290763e+01
5.374836e+01	-1.295462e+01
5.405880e+01	-1.300206e+01
5.437105e+01	-1.304987e+01
5.468509e+01	-1.309771e+01
5.500095e+01	-1.314513e+01
5.531863e+01	-1.319223e+01
5.563815e+01	-1.323999e+01
5.595951e+01	-1.328755e+01
5.628273e+01	-1.333635e+01
5.660782e+01	-1.338316e+01
5.693479e+01	-1.343082e+01
5.726364e+01	-1.347939e+01
5.759439e+01	-1.352731e+01
5.792705e+01	-1.357456e+01
5.826164e+01	-1.362338e+01
5.859815e+01	-1.367030e+01
5.893662e+01	-1.371894e+01
5.927703e+01	-1.376671e+01
5.961941e+01	-1.381496e+01
5.996377e+01	-1.386211e+01
6.031012e+01	-1.390986e+01
6.065847e+01	-1.395869e+01
6.100883e+01	-1.400664e+01
6.136121e+01	-1.405407e+01
6.171563e+01	-1.410250e+01
6.207210e+01	-1.415082e+01
6.243063e+01	-1.419903e+01
6.279122e+01	-1.424717e+01
6.315390e+01	-1.429546e+01
6.351868e+01	-1.434225e+01
6.388556e+01	-1.439190e+01
6.425456e+01	-1.443927e+01
6.462569e+01	-1.448810e+01
6.499897e+01	-1.453594e+01
6.537440e+01	-1.458393e+01
6.575200e+01	-1.463248e+01
6.613178e+01	-1.468118e+01
6.651375e+01	-1.472952e+01
6.689793e+01	-1.477812e+01
6.728433e+01	-1.482666e+01
6.767297e+01	-1.487457e+01
6.806384e+01	-1.492323e+01
6.845698e+01	-1.497024e+01
6.885238e+01	-1.501961e+01
6.925007e+01	-1.506726e+01
6.965005e+01	-1.511658e+01
7.005235e+01	-1.516474e+01
7.045697e+01	-1.521399e+01
7.086393e+01	-1.526155e+01
7.127323e+01	-1.531043e+01
7.168490e+01	-1.535901e+01
7.209895e+01	-1.540772e+01
7.251539e+01	-1.545681e+01
7.293424e+01	-1.550471e+01
7.335551e+01	-1.555363e+01
7.377920e+01	-1.560205e+01
7.420535e+01	-1.565053e+01
7.463396e+01	-1.569913e+01
7.506504e+01	-1.574770e+01
7.549861e+01	-1.579646e+01
7.593469e+01	-1.584622e+01
7.637328e+01	-1.589459e+01
7.681441e+01	-1.594284e+01
7.725809e+01	-1.599232e+01
7.770433e+01	-1.604143e+01
7.815315e+01	-1.608996e+01
7.860456e+01	-1.613855e+01
7.905857e+01	-1.618659e+01
7.951521e+01	-1.623640e+01
7.997449e+01	-1.628390e+01
8.043642e+01	-1.633463e+01
8.090102e+01	-1.638176e+01
8.136830e+01	-1.643088e+01
8.183828e+01	-1.647951e+01
8.231097e+01	-1.652989e+01
8.278640e+01	-1.657834e+01
8.326457e+01	-1.662722e+01
8.374550e+01	-1.667620e+01
8.422921e+01	-1.672576e+01
8.471572e+01	-1.677353e+01
8.520503e+01	-1.682197e+01
8.569717e+01	-1.687184e+01
8.619215e+01	-1.692077e+01
8.669000e+01	-1.696919e+01
8.719071e+01	-1.701876e+01
8.769432e+01	-1.706823e+01
8.820084e+01	-1.711697e+01
8.871029e+01	-1.716607e+01
8.922267e+01	-1.721625e+01
8.973802e+01	-1.726449e+01
9.025634e+01	-1.731315e+01
9.077766e+01	-1.736202e+01
9.130199e+01	-1.741085e+01
9.182935e+01	-1.746187e+01
9.235975e+01	-1.751027e+01
9.289321e+01	-1.755985e+01
9.342976e+01	-1.760795e+01
9.396941e+01	-1.765607e+01
9.451217e+01	-1.770684e+01
9.505807e+01	-1.775552e+01
9.560712e+01	-1.780479e+01
9.615934e+01	-1.785438e+01
9.671476e+01	-1.790402e+01
9.727338e+01	-1.795365e+01
9.783522e+01	-1.800218e+01
9.840032e+01	-1.805170e+01
9.896867e+01	-1.810141e+01
9.954031e+01	-1.815138e+01
1.001153e+02	-1.819969e+01
1.006935e+02	-1.824854e+01
1.012751e+02	-1.829790e+01
1.018601e+02	-1.834668e+01
1.024484e+02	-1.839694e+01
1.030402e+02	-1.844620e+01
1.036353e+02	-1.849257e+01
1.042339e+02	-1.854497e+01
1.048360e+02	-1.859392e+01
1.054415e+02	-1.864366e+01
1.060505e+02	-1.869219e+01
1.066631e+02	-1.874181e+01
1.072791e+02	-1.879228e+01
1.078988e+02	-1.884022e+01
1.085220e+02	-1.888961e+01
1.091488e+02	-1.894027e+01
1.097793e+02	-1.898896e+01
1.104133e+02	-1.903666e+01
1.110511e+02	-1.908650e+01
1.116925e+02	-1.913675e+01
1.123376e+02	-1.918581e+01
1.129865e+02	-1.923669e+01
1.136391e+02	-1.928527e+01
1.142955e+02	-1.933417e+01
1.149556e+02	-1.938491e+01
1.156196e+02	-1.943437e+01
1.162874e+02	-1.948352e+01
1.169591e+02	-1.953227e+01
1.176347e+02	-1.958176e+01
1.183141e+02	-1.963149e+01
1.189975e+02	-1.968118e+01
1.196848e+02	-1.973088e+01
1.203761e+02	-1.978141e+01
1.210714e+02	-1.982961e+01
1.217707e+02	-1.987818e+01
1.224740e+02	-1.992910e+01
1.231814e+02	-1.997613e+01
1.238929e+02	-2.002678e+01
1.246085e+02	-2.007755e+01
1.253283e+02	-2.012640e+01
1.260522e+02	-2.017534e+01
1.267802e+02	-2.022602e+01
1.275125e+02	-2.027509e+01
1.282490e+02	-2.032562e+01
1.289898e+02	-2.037505e+01
1.297348e+02	-2.042451e+01
1.304842e+02	-2.047255e+01
1.312378e+02	-2.052247e+01
1.319959e+02	-2.057252e+01
1.327583e+02	-2.062284e+01
1.335251e+02	-2.067179e+01
1.342963e+02	-2.072179e+01
1.350720e+02	-2.077203e+01
1.358522e+02	-2.081970e+01
1.366368e+02	-2.087013e+01
1.374260e+02	-2.091974e+01
1.382198e+02	-2.096878e+01
1.390182e+02	-2.102113e+01
1.398211e+02	-2.106988e+01
1.406287e+02	-2.111823e+01
1.414410e+02	-2.116812e+01
1.422579e+02	-2.121648e+01
1.430796e+02	-2.126903e+01
1.439060e+02	-2.131670e+01
1.447372e+02	-2.136619e+01
1.455732e+02	-2.141702e+01
1.464141e+02	-2.146621e+01
1.472597e+02	-2.151441e+01
1.481103e+02	-2.156723e+01
1.489658e+02	-2.161456e+01
1.498262e+02	-2.166477e+01
1.506916e+02	-2.171356e+01
1.515620e+02	-2.176486e+01
1.524374e+02	-2.181512e+01
1.533179e+02	-2.186329e+01
1.542034e+02	-2.191290e+01
1.550941e+02	-2.196393e+01
1.559899e+02	-2.201313e+01
1.568909e+02	-2.206401e+01
1.577971e+02	-2.211068e+01
1.587085e+02	-2.216174e+01
1.596252e+02	-2.221363e+01
1.605472e+02	-2.225931e+01
1.614745e+02	-2.231193e+01
1.624072e+02	-2.236042e+01
1.633453e+02	-2.240999e+01
1.642887e+02	-2.246064e+01
1.652377e+02	-2.251037e+01
1.661921e+02	-2.256153e+01
1.671520e+02	-2.261024e+01
1.681175e+02	-2.265928e+01
1.690885e+02	-2.270835e+01
1.700651e+02	-2.275951e+01
1.710474e+02	-2.280824e+01
1.720354e+02	-2.285905e+01
1.730291e+02	-2.290743e+01
1.740285e+02	-2.295682e+01
1.750337e+02	-2.300895e+01
1.760446e+02	-2.306025e+01
1.770615e+02	-2.310820e+01
1.780842e+02	-2.315817e+01
1.791128e+02	-2.320816e+01
1.801473e+02	-2.325853e+01
1.811878e+02	-2.330800e+01
1.822344e+02	-2.335550e+01
1.832870e+02	-2.340832e+01
1.843456e+02	-2.345638e+01
1.854104e+02	-2.351026e+01
1.864813e+02	-2.355746e+01
1.875584e+02	-2.360490e+01
1.886418e+02	-2.365488e+01
1.897313e+02	-2.370961e+01
1.908272e+02	-2.375226e+01
1.919294e+02	-2.380822e+01
1.930380e+02	-2.385638e+01
1.941530e+02	-2.390149e+01
1.952744e+02	-2.395549e+01
1.964023e+02	-2.400561e+01
1.975367e+02	-2.405811e+01
1.986777e+02	-2.410503e+01
1.998252e+02	-2.415421e+01
2.009794e+02	-2.420127e+01
2.021403e+02	-2.425348e+01
2.033078e+02	-2.430359e+01
2.044821e+02	-2.435614e+01
2.056632e+02	-2.440450e+01
2.068511e+02	-2.445417e+01
2.080459e+02	-2.450431e+01
2.092475e+02	-2.455528e+01
2.104561e+02	-2.460462e+01
2.116717e+02	-2.465194e+01
2.128943e+02	-2.470447e+01
2.141240e+02	-2.475235e+01
2.153608e+02	-2.480054e+01
2.166047e+02	-2.485304e+01
2.178558e+02	-2.490305e+01
2.191141e+02	-2.495151e+01
2.203797e+02	-2.500321e+01
2.216526e+02	-2.505193e+01
2.229329e+02	-2.510233e+01
2.242205e+02	-2.515363e+01
2.255156e+02	-2.520223e+01
2.268182e+02	-2.525349e+01
2.281283e+02	-2.529959e+01
2.294459e+02	-2.535145e+01
2.307712e+02	-2.540320e+01
2.321041e+02	-2.545479e+01
2.334447e+02	-2.550151e+01
2.347931e+02	-2.555158e+01
2.361493e+02	-2.560181e+01
2.375133e+02	-2.564960e+01
2.388851e+02	-2.570016e+01
2.402649e+02	-2.575044e+01
2.416527e+02	-2.580321e+01
2.430484e+02	-2.585330e+01
2.444523e+02	-2.590140e+01
2.458642e+02	-2.594985e+01
2.472843e+02	-2.600303e+01
2.487126e+02	-2.605479e+01
2.501492e+02	-2.609823e+01
2.515940e+02	-2.615137e+01
2.530472e+02	-2.620088e+01
2.545088e+02	-2.625190e+01
2.559789e+02	-2.629911e+01
2.574574e+02	-2.635147e+01
2.589444e+02	-2.640028e+01
2.604401e+02	-2.645635e+01
2.619444e+02	-2.649948e+01
2.634574e+02	-2.655305e+01
2.649791e+02	-2.660117e+01
2.665096e+02	-2.665402e+01
2.680489e+02	-2.670103e+01
2.695972e+02	-2.675026e+01
2.711544e+02	-2.680088e+01
2.727205e+02	-2.684977e+01
2.742958e+02	-2.690226e+01
2.758801e+02	-2.695400e+01
2.774736e+02	-2.700060e+01
2.790762e+02	-2.705388e+01
2.806882e+02	-2.710133e+01
2.823094e+02	-2.714872e+01
2.839400e+02	-2.720519e+01
2.855800e+02	-2.725168e+01
2.872295e+02	-2.730237e+01
2.888886e+02	-2.735303e+01
2.905572e+02	-2.740199e+01
2.922354e+02	-2.745018e+01
2.939234e+02	-2.749812e+01
2.956211e+02	-2.754858e+01
2.973286e+02	-2.760027e+01
2.990459e+02	-2.765214e+01
3.007732e+02	-2.769903e+01
3.025104e+02	-2.774768e+01
3.042577e+02	-2.780259e+01
3.060151e+02	-2.785186e+01
3.077826e+02	-2.789528e+01
3.095604e+02	-2.794951e+01
3.113484e+02	-2.800374e+01
3.131467e+02	-2.805461e+01
3.149554e+02	-2.809921e+01
3.167746e+02	-2.815200e+01
3.186043e+02	-2.820388e+01
3.204445e+02	-2.825182e+01
3.222954e+02	-2.829581e+01
3.241570e+02	-2.835084e+01
3.260293e+02	-2.839946e+01
3.279124e+02	-2.845395e+01
3.298064e+02	-2.850108e+01
3.317114e+02	-2.855147e+01
3.336273e+02	-2.860203e+01
3.355544e+02	-2.865395e+01
3.374925e+02	-2.870266e+01
3.394418e+02	-2.874953e+01
3.414024e+02	-2.880066e+01
3.433744e+02	-2.885122e+01
3.453577e+02	-2.890307e+01
3.473525e+02	-2.895364e+01
3.493588e+02	-2.900218e+01
3.513766e+02	-2.905335e+01
3.534062e+02	-2.910275e+01
3.554474e+02	-2.915206e+01
3.575005e+02	-2.919963e+01
3.595654e+02	-2.925323e+01
3.616422e+02	-2.930505e+01
3.637311e+02	-2.935056e+01
3.658320e+02	-2.940146e+01
3.679450e+02	-2.945071e+01
3.700702e+02	-2.950526e+01
3.722077e+02	-2.955050e+01
3.743576e+02	-2.960065e+01
3.765199e+02	-2.965705e+01
3.786946e+02	-2.970809e+01
3.808820e+02	-2.975656e+01
3.830819e+02	-2.980182e+01
3.852946e+02	-2.985699e+01
3.875200e+02	-2.990291e+01
3.897583e+02	-2.995008e+01
3.920096e+02	-3.000561e+01
3.942738e+02	-3.005425e+01
3.965511e+02	-3.010502e+01
3.988416e+02	-3.015631e+01
4.011452e+02	-3.020351e+01
4.034622e+02	-3.025824e+01
4.057926e+02	-3.030401e+01
4.081365e+02	-3.035629e+01
4.104938e+02	-3.040664e+01
4.128648e+02	-3.045788e+01
4.152495e+02	-3.050682e+01
4.176480e+02	-3.055206e+01
4.200603e+02	-3.060467e+01
4.224866e+02	-3.065742e+01
4.249268e+02	-3.070850e+01
4.273812e+02	-3.076224e+01
4.298497e+02	-3.081266e+01
4.323325e+02	-3.085624e+01
4.348297e+02	-3.090548e+01
4.373412e+02	-3.095137e+01
4.398673e+02	-3.100504e+01
4.424079e+02	-3.105916e+01
4.449633e+02	-3.110747e+01
4.475334e+02	-3.116152e+01
4.501183e+02	-3.120952e+01
4.527182e+02	-3.125853e+01
4.553330e+02	-3.130620e+01
4.579630e+02	-3.135442e+01
4.606082e+02	-3.140838e+01
4.632687e+02	-3.145704e+01
4.659445e+02	-3.150718e+01
4.686358e+02	-3.155506e+01
4.713426e+02	-3.161231e+01
4.740650e+02	-3.166219e+01
4.768032e+02	-3.171354e+01
4.795572e+02	-3.175898e+01
4.823271e+02	-3.181147e+01
4.851130e+02	-3.185934e+01
4.879150e+02	-3.191211e+01
4.907332e+02	-3.195255e+01
4.935676e+02	-3.200612e+01
4.964185e+02	-3.206189e+01
4.992858e+02	-3.211737e+01
5.021696e+02	-3.216137e+01
5.050701e+02	-3.221016e+01
5.079874e+02	-3.225372e+01
5.109215e+02	-3.231022e+01
5.138726e+02	-3.235951e+01
5.168407e+02	-3.241588e+01
5.198259e+02	-3.246636e+01
5.228284e+02	-3.250954e+01
5.258482e+02	-3.256790e+01
5.288855e+02	-3.261559e+01
5.319403e+02	-3.265921e+01
5.350128e+02	-3.271605e+01
5.381030e+02	-3.276560e+01
5.412111e+02	-3.280744e+01
5.443371e+02	-3.286064e+01
5.474812e+02	-3.290760e+01
5.506434e+02	-3.296556e+01
5.538239e+02	-3.301457e+01
5.570228e+02	-3.306941e+01
5.602401e+02	-3.311376e+01
5.634760e+02	-3.316207e+01
5.667306e+02	-3.320935e+01
5.700040e+02	-3.327001e+01
5.732964e+02	-3.331460e+01
5.766077e+02	-3.337435e+01
5.799382e+02	-3.341535e+01
5.832879e+02	-3.346926e+01
5.866569e+02	-3.351635e+01
5.900454e+02	-3.357037e+01
5.934535e+02	-3.361459e+01
5.968813e+02	-3.366409e+01
6.003288e+02	-3.371949e+01
6.037963e+02	-3.377002e+01
6.072838e+02	-3.382756e+01
6.107914e+02	-3.387005e+01
6.143194e+02	-3.391629e+01
6.178676e+02	-3.397634e+01
6.214364e+02	-3.401862e+01
6.250258e+02	-3.407333e+01
6.286359e+02	-3.412794e+01
6.322669e+02	-3.417660e+01
6.359189e+02	-3.422346e+01
6.395919e+02	-3.428105e+01
6.432862e+02	-3.431932e+01
6.470017e+02	-3.437622e+01
6.507388e+02	-3.442151e+01
6.544974e+02	-3.446842e+01
6.582778e+02	-3.453134e+01
6.620800e+02	-3.457339e+01
6.659041e+02	-3.462414e+01
6.697504e+02	-3.467963e+01
6.736188e+02	-3.472024e+01
6.775096e+02	-3.477647e+01
6.814229e+02	-3.483564e+01
6.853587e+02	-3.487971e+01
6.893173e+02	-3.492622e+01
6.932988e+02	-3.497253e+01
6.973033e+02	-3.502971e+01
7.013309e+02	-3.508010e+01
