Frequency(Hz)	Magnitude(dB)
1.000000e+01	-1.841571e-05
1.005776e+01	-1.862906e-05
1.011585e+01	-1.884488e-05
1.017428e+01	-1.906320e-05
1.023305e+01	-1.928405e-05
1.029215e+01	-1.950747e-05
1.035160e+01	-1.973346e-05
1.041139e+01	-1.996208e-05
1.047153e+01	-2.019335e-05
1.053201e+01	-2.042729e-05
1.059284e+01	-2.066395e-05
1.065403e+01	-2.090334e-05
1.071556e+01	-2.114552e-05
1.077746e+01	-2.139049e-05
1.083971e+01	-2.163831e-05
1.090232e+01	-2.188899e-05
1.096529e+01	-2.214258e-05
1.102862e+01	-2.239911e-05
1.109232e+01	-2.265861e-05
1.115639e+01	-2.292111e-05
1.122083e+01	-2.318666e-05
1.128564e+01	-2.345528e-05
1.135083e+01	-2.372702e-05
1.141639e+01	-2.400190e-05
1.148233e+01	-2.427997e-05
1.154865e+01	-2.456126e-05
1.161536e+01	-2.484581e-05
1.168245e+01	-2.513365e-05
1.174992e+01	-2.542483e-05
1.181779e+01	-2.571938e-05
1.188605e+01	-2.601735e-05
1.195470e+01	-2.631877e-05
1.202375e+01	-2.662368e-05
1.209320e+01	-2.693212e-05
1.216305e+01	-2.724413e-05
1.223330e+01	-2.755976e-05
1.230396e+01	-2.787905e-05
1.237503e+01	-2.820203e-05
1.244651e+01	-2.852876e-05
1.251840e+01	-2.885927e-05
1.259070e+01	-2.919362e-05
1.266343e+01	-2.953183e-05
1.273657e+01	-2.987396e-05
1.281014e+01	-3.022006e-05
1.288413e+01	-3.057017e-05
1.295855e+01	-3.092433e-05
1.303339e+01	-3.128260e-05
1.310867e+01	-3.164501e-05
1.318439e+01	-3.201163e-05
1.326054e+01	-3.238249e-05
1.333713e+01	-3.275765e-05
1.341417e+01	-3.313715e-05
1.349165e+01	-3.352106e-05
1.356958e+01	-3.390941e-05
1.364795e+01	-3.430225e-05
1.372678e+01	-3.469965e-05
1.380607e+01	-3.510166e-05
1.388581e+01	-3.550832e-05
1.396602e+01	-3.591969e-05
1.404668e+01	-3.633583e-05
1.412782e+01	-3.675679e-05
1.420942e+01	-3.718262e-05
1.429149e+01	-3.761339e-05
1.437404e+01	-3.804915e-05
1.445706e+01	-3.848996e-05
1.454057e+01	-3.893588e-05
1.462455e+01	-3.938696e-05
1.470902e+01	-3.984326e-05
1.479398e+01	-4.030486e-05
1.487943e+01	-4.077180e-05
1.496537e+01	-4.124415e-05
1.505181e+01	-4.172197e-05
1.513875e+01	-4.220533e-05
1.522619e+01	-4.269429e-05
1.531414e+01	-4.318891e-05
1.540259e+01	-4.368926e-05
1.549156e+01	-4.419541e-05
1.558103e+01	-4.470743e-05
1.567103e+01	-4.522537e-05
1.576155e+01	-4.574932e-05
1.585258e+01	-4.627933e-05
1.594415e+01	-4.681549e-05
1.603624e+01	-4.735786e-05
1.612886e+01	-4.790651e-05
1.622202e+01	-4.846151e-05
1.631572e+01	-4.902295e-05
1.640996e+01	-4.959089e-05
1.650474e+01	-5.016541e-05
1.660008e+01	-5.074659e-05
1.669596e+01	-5.133450e-05
1.679239e+01	-5.192922e-05
1.688938e+01	-5.253083e-05
1.698694e+01	-5.313941e-05
1.708505e+01	-5.375505e-05
1.718373e+01	-5.437781e-05
1.728299e+01	-5.500779e-05
1.738281e+01	-5.564506e-05
1.748322e+01	-5.628972e-05
1.758420e+01	-5.694185e-05
1.768576e+01	-5.760153e-05
1.778792e+01	-5.826886e-05
1.789066e+01	-5.894392e-05
1.799399e+01	-5.962679e-05
1.809793e+01	-6.031758e-05
1.820246e+01	-6.101637e-05
1.830760e+01	-6.172326e-05
1.841334e+01	-6.243833e-05
1.851969e+01	-6.316169e-05
1.862666e+01	-6.389344e-05
1.873425e+01	-6.463365e-05
1.884246e+01	-6.538245e-05
1.895129e+01	-6.613991e-05
1.906075e+01	-6.690616e-05
1.917085e+01	-6.768128e-05
1.928158e+01	-6.846538e-05
1.939295e+01	-6.925856e-05
1.950496e+01	-7.006094e-05
1.961762e+01	-7.087261e-05
1.973093e+01	-7.169368e-05
1.984490e+01	-7.252426e-05
1.995952e+01	-7.336447e-05
2.007480e+01	-7.421441e-05
2.019076e+01	-7.507420e-05
2.030738e+01	-7.594394e-05
2.042467e+01	-7.682377e-05
2.054264e+01	-7.771379e-05
2.066130e+01	-7.861411e-05
2.078064e+01	-7.952487e-05
2.090066e+01	-8.044618e-05
2.102139e+01	-8.137816e-05
2.114280e+01	-8.232094e-05
2.126492e+01	-8.327465e-05
2.138775e+01	-8.423940e-05
2.151128e+01	-8.521532e-05
2.163553e+01	-8.620256e-05
2.176050e+01	-8.720123e-05
2.188619e+01	-8.821147e-05
2.201260e+01	-8.923341e-05
2.213974e+01	-9.026720e-05
2.226762e+01	-9.131296e-05
2.239624e+01	-9.237083e-05
2.252560e+01	-9.344096e-05
2.265571e+01	-9.452349e-05
2.278656e+01	-9.561856e-05
2.291818e+01	-9.672631e-05
2.305055e+01	-9.784690e-05
2.318369e+01	-9.898047e-05
2.331760e+01	-1.001272e-04
2.345228e+01	-1.012872e-04
2.358774e+01	-1.024606e-04
2.372398e+01	-1.036476e-04
2.386101e+01	-1.048484e-04
2.399883e+01	-1.060631e-04
2.413745e+01	-1.072918e-04
2.427686e+01	-1.085348e-04
2.441709e+01	-1.097922e-04
2.455812e+01	-1.110642e-04
2.469997e+01	-1.123509e-04
2.484263e+01	-1.136524e-04
2.498612e+01	-1.149691e-04
2.513044e+01	-1.163011e-04
2.527559e+01	-1.176484e-04
2.542158e+01	-1.190114e-04
2.556842e+01	-1.203902e-04
2.571610e+01	-1.217849e-04
2.586463e+01	-1.231958e-04
2.601403e+01	-1.246230e-04
2.616428e+01	-1.260668e-04
2.631541e+01	-1.275273e-04
2.646740e+01	-1.290047e-04
2.662028e+01	-1.304992e-04
2.677404e+01	-1.320111e-04
2.692868e+01	-1.335404e-04
2.708422e+01	-1.350875e-04
2.724066e+01	-1.366525e-04
2.739800e+01	-1.382357e-04
2.755625e+01	-1.398371e-04
2.771541e+01	-1.414572e-04
2.787550e+01	-1.430960e-04
2.803650e+01	-1.447537e-04
2.819844e+01	-1.464307e-04
2.836131e+01	-1.481271e-04
2.852513e+01	-1.498432e-04
2.868989e+01	-1.515791e-04
2.885560e+01	-1.533352e-04
2.902227e+01	-1.551116e-04
2.918990e+01	-1.569086e-04
2.935850e+01	-1.587264e-04
2.952807e+01	-1.605652e-04
2.969863e+01	-1.624254e-04
2.987016e+01	-1.643071e-04
3.004269e+01	-1.662106e-04
3.021622e+01	-1.681362e-04
3.039075e+01	-1.700840e-04
3.056628e+01	-1.720544e-04
3.074283e+01	-1.740477e-04
3.092040e+01	-1.760641e-04
3.109900e+01	-1.781038e-04
3.127862e+01	-1.801671e-04
3.145929e+01	-1.822543e-04
3.164099e+01	-1.843658e-04
3.182375e+01	-1.865017e-04
3.200756e+01	-1.886623e-04
3.219244e+01	-1.908479e-04
3.237838e+01	-1.930589e-04
3.256540e+01	-1.952955e-04
3.275349e+01	-1.975580e-04
3.294268e+01	-1.998467e-04
3.313295e+01	-2.021619e-04
3.332433e+01	-2.045040e-04
3.351681e+01	-2.068732e-04
3.371040e+01	-2.092698e-04
3.390511e+01	-2.116942e-04
3.410094e+01	-2.141467e-04
3.429791e+01	-2.166276e-04
3.449601e+01	-2.191372e-04
3.469526e+01	-2.216759e-04
3.489566e+01	-2.242440e-04
3.509721e+01	-2.268419e-04
3.529993e+01	-2.294698e-04
3.550382e+01	-2.321282e-04
3.570889e+01	-2.348174e-04
3.591515e+01	-2.375378e-04
3.612259e+01	-2.402896e-04
3.633123e+01	-2.430734e-04
3.654108e+01	-2.458894e-04
3.675214e+01	-2.487380e-04
3.696442e+01	-2.516196e-04
3.717792e+01	-2.545346e-04
3.739266e+01	-2.574834e-04
3.760864e+01	-2.604663e-04
3.782587e+01	-2.634838e-04
3.804435e+01	-2.665362e-04
3.826409e+01	-2.696240e-04
3.848510e+01	-2.727476e-04
3.870739e+01	-2.759073e-04
3.893096e+01	-2.791037e-04
3.915583e+01	-2.823371e-04
3.938199e+01	-2.856079e-04
3.960946e+01	-2.889167e-04
3.983824e+01	-2.922637e-04
4.006834e+01	-2.956496e-04
4.029978e+01	-2.990746e-04
4.053255e+01	-3.025394e-04
4.076666e+01	-3.060443e-04
4.100213e+01	-3.095897e-04
4.123896e+01	-3.131763e-04
4.147715e+01	-3.168044e-04
4.171672e+01	-3.204745e-04
4.195767e+01	-3.241872e-04
4.220002e+01	-3.279428e-04
4.244377e+01	-3.317420e-04
4.268892e+01	-3.355852e-04
4.293549e+01	-3.394729e-04
4.318348e+01	-3.434056e-04
4.343291e+01	-3.473839e-04
4.368377e+01	-3.514083e-04
4.393609e+01	-3.554793e-04
4.418986e+01	-3.595974e-04
4.444510e+01	-3.637633e-04
4.470182e+01	-3.679774e-04
4.496001e+01	-3.722403e-04
4.521970e+01	-3.765526e-04
4.548089e+01	-3.809149e-04
4.574358e+01	-3.853277e-04
4.600779e+01	-3.897917e-04
4.627353e+01	-3.943073e-04
4.654081e+01	-3.988753e-04
4.680963e+01	-4.034961e-04
4.708000e+01	-4.081705e-04
4.735193e+01	-4.128991e-04
4.762543e+01	-4.176824e-04
4.790051e+01	-4.225211e-04
4.817719e+01	-4.274159e-04
4.845545e+01	-4.323674e-04
4.873533e+01	-4.373762e-04
4.901682e+01	-4.424431e-04
4.929994e+01	-4.475686e-04
4.958470e+01	-4.527536e-04
4.987110e+01	-4.579986e-04
5.015915e+01	-4.633043e-04
5.044887e+01	-4.686716e-04
5.074026e+01	-4.741009e-04
5.103333e+01	-4.795932e-04
5.132810e+01	-4.851491e-04
5.162457e+01	-4.907694e-04
5.192275e+01	-4.964548e-04
5.222265e+01	-5.022060e-04
5.252429e+01	-5.080239e-04
5.282767e+01	-5.139091e-04
5.313280e+01	-5.198626e-04
5.343969e+01	-5.258849e-04
5.374836e+01	-5.319771e-04
5.405880e+01	-5.381398e-04
5.437105e+01	-5.443739e-04
5.468509e+01	-5.506802e-04
5.500095e+01	-5.570596e-04
5.531863e+01	-5.635129e-04
5.563815e+01	-5.700409e-04
5.595951e+01	-5.766445e-04
5.628273e+01	-5.833247e-04
5.660782e+01	-5.900822e-04
5.693479e+01	-5.969180e-04
5.726364e+01	-6.038330e-04
5.759439e+01	-6.108281e-04
5.792705e+01	-6.179042e-04
5.826164e+01	-6.250622e-04
5.859815e+01	-6.323032e-04
5.893662e+01	-6.396281e-04
5.927703e+01	-6.470378e-04
5.961941e+01	-6.545334e-04
5.996377e+01	-6.621157e-04
6.031012e+01	-6.697859e-04
6.065847e+01	-6.775450e-04
6.100883e+01	-6.853939e-04
6.136121e+01	-6.933337e-04
6.171563e+01	-7.013656e-04
6.207210e+01	-7.094904e-04
6.243063e+01	-7.177094e-04
6.279122e+01	-7.260235e-04
6.315390e+01	-7.344340e-04
6.351868e+01	-7.429419e-04
6.388556e+01	-7.515483e-04
6.425456e+01	-7.602545e-04
6.462569e+01	-7.690614e-04
6.499897e+01	-7.779704e-04
6.537440e+01	-7.869826e-04
6.575200e+01	-7.960992e-04
6.613178e+01	-8.053214e-04
6.651375e+01	-8.146504e-04
6.689793e+01	-8.240874e-04
6.728433e+01	-8.336338e-04
6.767297e+01	-8.432907e-04
6.806384e+01	-8.530595e-04
6.845698e+01	-8.629415e-04
6.885238e+01	-8.729379e-04
6.925007e+01	-8.830501e-04
6.965005e+01	-8.932794e-04
7.005235e+01	-9.036272e-04
7.045697e+01	-9.140949e-04
7.086393e+01	-9.246838e-04
7.127323e+01	-9.353953e-04
7.168490e+01	-9.462310e-04
7.209895e+01	-9.571921e-04
7.251539e+01	-9.682802e-04
7.293424e+01	-9.794967e-04
7.335551e+01	-9.908432e-04
7.377920e+01	-1.002321e-03
7.420535e+01	-1.013932e-03
7.463396e+01	-1.025677e-03
7.506504e+01	-1.037558e-03
7.549861e+01	-1.049577e-03
7.593469e+01	-1.061736e-03
7.637328e+01	-1.074035e-03
7.681441e+01	-1.086476e-03
7.725809e+01	-1.099061e-03
7.770433e+01	-1.111793e-03
7.815315e+01	-1.124672e-03
7.860456e+01	-1.137699e-03
7.905857e+01	-1.150878e-03
7.951521e+01	-1.164210e-03
7.997449e+01	-1.177696e-03
8.043642e+01	-1.191338e-03
8.090102e+01	-1.205138e-03
8.136830e+01	-1.219098e-03
8.183828e+01	-1.233219e-03
8.231097e+01	-1.247504e-03
8.278640e+01	-1.261955e-03
8.326457e+01	-1.276573e-03
8.374550e+01	-1.291360e-03
8.422921e+01	-1.306318e-03
8.471572e+01	-1.321450e-03
8.520503e+01	-1.336757e-03
8.569717e+01	-1.352242e-03
8.619215e+01	-1.367905e-03
8.669000e+01	-1.383750e-03
8.719071e+01	-1.399779e-03
8.769432e+01	-1.415993e-03
8.820084e+01	-1.432395e-03
8.871029e+01	-1.448987e-03
8.922267e+01	-1.465771e-03
8.973802e+01	-1.482749e-03
9.025634e+01	-1.499924e-03
9.077766e+01	-1.517298e-03
9.130199e+01	-1.534874e-03
9.182935e+01	-1.552652e-03
9.235975e+01	-1.570637e-03
9.289321e+01	-1.588830e-03
9.342976e+01	-1.607233e-03
9.396941e+01	-1.625850e-03
9.451217e+01	-1.644683e-03
9.505807e+01	-1.663733e-03
9.560712e+01	-1.683004e-03
9.615934e+01	-1.702498e-03
9.671476e+01	-1.722218e-03
9.727338e+01	-1.742167e-03
9.783522e+01	-1.762346e-03
9.840032e+01	-1.782759e-03
9.896867e+01	-1.803408e-03
9.954031e+01	-1.824297e-03
1.001153e+02	-1.845428e-03
1.006935e+02	-1.866803e-03
1.012751e+02	-1.888425e-03
1.018601e+02	-1.910299e-03
1.024484e+02	-1.932425e-03
1.030402e+02	-1.954808e-03
1.036353e+02	-1.977449e-03
1.042339e+02	-2.000353e-03
1.048360e+02	-2.023523e-03
1.054415e+02	-2.046960e-03
1.060505e+02	-2.070669e-03
1.066631e+02	-2.094652e-03
1.072791e+02	-2.118914e-03
1.078988e+02	-2.143456e-03
1.085220e+02	-2.168282e-03
1.091488e+02	-2.193396e-03
1.097793e+02	-2.218800e-03
1.104133e+02	-2.244499e-03
1.110511e+02	-2.270495e-03
1.116925e+02	-2.296793e-03
1.123376e+02	-2.323395e-03
1.129865e+02	-2.350304e-03
1.136391e+02	-2.377526e-03
1.142955e+02	-2.405063e-03
1.149556e+02	-2.432918e-03
1.156196e+02	-2.461096e-03
1.162874e+02	-2.489600e-03
1.169591e+02	-2.518435e-03
1.176347e+02	-2.547603e-03
1.183141e+02	-2.577109e-03
1.189975e+02	-2.606956e-03
1.196848e+02	-2.637149e-03
1.203761e+02	-2.667692e-03
1.210714e+02	-2.698588e-03
1.217707e+02	-2.729842e-03
1.224740e+02	-2.761458e-03
1.231814e+02	-2.793440e-03
1.238929e+02	-2.825792e-03
1.246085e+02	-2.858519e-03
1.253283e+02	-2.891625e-03
1.260522e+02	-2.925114e-03
1.267802e+02	-2.958990e-03
1.275125e+02	-2.993259e-03
1.282490e+02	-3.027925e-03
1.289898e+02	-3.062992e-03
1.297348e+02	-3.098464e-03
1.304842e+02	-3.134348e-03
1.312378e+02	-3.170647e-03
1.319959e+02	-3.207366e-03
1.327583e+02	-3.244510e-03
1.335251e+02	-3.282085e-03
1.342963e+02	-3.320094e-03
1.350720e+02	-3.358543e-03
1.358522e+02	-3.397438e-03
1.366368e+02	-3.436782e-03
1.374260e+02	-3.476582e-03
1.382198e+02	-3.516843e-03
1.390182e+02	-3.557570e-03
1.398211e+02	-3.598768e-03
1.406287e+02	-3.640443e-03
1.414410e+02	-3.682601e-03
1.422579e+02	-3.725247e-03
1.430796e+02	-3.768386e-03
1.439060e+02	-3.812024e-03
1.447372e+02	-3.856168e-03
1.455732e+02	-3.900822e-03
1.464141e+02	-3.945994e-03
1.472597e+02	-3.991688e-03
1.481103e+02	-4.037912e-03
1.489658e+02	-4.084670e-03
1.498262e+02	-4.131969e-03
1.506916e+02	-4.179816e-03
1.515620e+02	-4.228217e-03
1.524374e+02	-4.277177e-03
1.533179e+02	-4.326705e-03
1.542034e+02	-4.376806e-03
1.550941e+02	-4.427486e-03
1.559899e+02	-4.478753e-03
1.568909e+02	-4.530614e-03
1.577971e+02	-4.583074e-03
1.587085e+02	-4.636142e-03
1.596252e+02	-4.689824e-03
1.605472e+02	-4.744127e-03
1.614745e+02	-4.799058e-03
1.624072e+02	-4.854625e-03
1.633453e+02	-4.910836e-03
1.642887e+02	-4.967696e-03
1.652377e+02	-5.025215e-03
1.661921e+02	-5.083399e-03
1.671520e+02	-5.142257e-03
1.681175e+02	-5.201796e-03
1.690885e+02	-5.262023e-03
1.700651e+02	-5.322947e-03
1.710474e+02	-5.384577e-03
1.720354e+02	-5.446919e-03
1.730291e+02	-5.509983e-03
1.740285e+02	-5.573777e-03
1.750337e+02	-5.638308e-03
1.760446e+02	-5.703587e-03
1.770615e+02	-5.769620e-03
1.780842e+02	-5.836418e-03
1.791128e+02	-5.903988e-03
1.801473e+02	-5.972340e-03
1.811878e+02	-6.041483e-03
1.822344e+02	-6.111426e-03
1.832870e+02	-6.182178e-03
1.843456e+02	-6.253748e-03
1.854104e+02	-6.326146e-03
1.864813e+02	-6.399382e-03
1.875584e+02	-6.473465e-03
1.886418e+02	-6.548405e-03
1.897313e+02	-6.624212e-03
1.908272e+02	-6.700896e-03
1.919294e+02	-6.778467e-03
1.930380e+02	-6.856935e-03
1.941530e+02	-6.936311e-03
1.952744e+02	-7.016605e-03
1.964023e+02	-7.097827e-03
1.975367e+02	-7.179989e-03
1.986777e+02	-7.263101e-03
1.998252e+02	-7.347175e-03
2.009794e+02	-7.432221e-03
2.021403e+02	-7.518250e-03
2.033078e+02	-7.605275e-03
2.044821e+02	-7.693305e-03
2.056632e+02	-7.782354e-03
2.068511e+02	-7.872433e-03
2.080459e+02	-7.963553e-03
2.092475e+02	-8.055727e-03
2.104561e+02	-8.148967e-03
2.116717e+02	-8.243285e-03
2.128943e+02	-8.338693e-03
2.141240e+02	-8.435205e-03
2.153608e+02	-8.532833e-03
2.166047e+02	-8.631590e-03
2.178558e+02	-8.731488e-03
2.191141e+02	-8.832541e-03
2.203797e+02	-8.934763e-03
2.216526e+02	-9.038166e-03
2.229329e+02	-9.142765e-03
2.242205e+02	-9.248573e-03
2.255156e+02	-9.355605e-03
2.268182e+02	-9.463873e-03
2.281283e+02	-9.573393e-03
2.294459e+02	-9.684179e-03
2.307712e+02	-9.796246e-03
2.321041e+02	-9.909608e-03
2.334447e+02	-1.002428e-02
2.347931e+02	-1.014028e-02
2.361493e+02	-1.025762e-02
2.375133e+02	-1.037631e-02
2.388851e+02	-1.049638e-02
2.402649e+02	-1.061783e-02
2.416527e+02	-1.074069e-02
2.430484e+02	-1.086497e-02
2.444523e+02	-1.099068e-02
2.458642e+02	-1.111785e-02
2.472843e+02	-1.124648e-02
2.487126e+02	-1.137661e-02
2.501492e+02	-1.150823e-02
2.515940e+02	-1.164138e-02
2.530472e+02	-1.177606e-02
2.545088e+02	-1.191230e-02
2.559789e+02	-1.205012e-02
2.574574e+02	-1.218953e-02
2.589444e+02	-1.233054e-02
2.604401e+02	-1.247319e-02
2.619444e+02	-1.261748e-02
2.634574e+02	-1.276345e-02
2.649791e+02	-1.291109e-02
2.665096e+02	-1.306044e-02
2.680489e+02	-1.321152e-02
2.695972e+02	-1.336435e-02
2.711544e+02	-1.351893e-02
2.727205e+02	-1.367531e-02
2.742958e+02	-1.383348e-02
2.758801e+02	-1.399349e-02
2.774736e+02	-1.415534e-02
2.790762e+02	-1.431906e-02
2.806882e+02	-1.448468e-02
2.823094e+02	-1.465220e-02
2.839400e+02	-1.482166e-02
2.855800e+02	-1.499308e-02
2.872295e+02	-1.516647e-02
2.888886e+02	-1.534187e-02
2.905572e+02	-1.551929e-02
2.922354e+02	-1.569876e-02
2.939234e+02	-1.588030e-02
2.956211e+02	-1.606393e-02
2.973286e+02	-1.624969e-02
2.990459e+02	-1.643759e-02
3.007732e+02	-1.662765e-02
3.025104e+02	-1.681992e-02
3.042577e+02	-1.701440e-02
3.060151e+02	-1.721112e-02
3.077826e+02	-1.741011e-02
3.095604e+02	-1.761140e-02
3.113484e+02	-1.781502e-02
3.131467e+02	-1.802098e-02
3.149554e+02	-1.822932e-02
3.167746e+02	-1.844006e-02
3.186043e+02	-1.865323e-02
3.204445e+02	-1.886886e-02
3.222954e+02	-1.908698e-02
3.241570e+02	-1.930761e-02
3.260293e+02	-1.953079e-02
3.279124e+02	-1.975655e-02
3.298064e+02	-1.998490e-02
3.317114e+02	-2.021589e-02
3.336273e+02	-2.044954e-02
3.355544e+02	-2.068589e-02
3.374925e+02	-2.092496e-02
3.394418e+02	-2.116679e-02
3.414024e+02	-2.141141e-02
3.433744e+02	-2.165884e-02
3.453577e+02	-2.190913e-02
3.473525e+02	-2.216231e-02
3.493588e+02	-2.241840e-02
3.513766e+02	-2.267744e-02
3.534062e+02	-2.293947e-02
3.554474e+02	-2.320451e-02
3.575005e+02	-2.347261e-02
3.595654e+02	-2.374381e-02
3.616422e+02	-2.401812e-02
3.637311e+02	-2.429560e-02
3.658320e+02	-2.457627e-02
3.679450e+02	-2.486017e-02
3.700702e+02	-2.514735e-02
3.722077e+02	-2.543783e-02
3.743576e+02	-2.573166e-02
3.765199e+02	-2.602887e-02
3.786946e+02	-2.632950e-02
3.808820e+02	-2.663360e-02
3.830819e+02	-2.694120e-02
3.852946e+02	-2.725233e-02
3.875200e+02	-2.756705e-02
3.897583e+02	-2.788540e-02
3.920096e+02	-2.820740e-02
3.942738e+02	-2.853312e-02
3.965511e+02	-2.886258e-02
3.988416e+02	-2.919583e-02
4.011452e+02	-2.953292e-02
4.034622e+02	-2.987388e-02
4.057926e+02	-3.021877e-02
4.081365e+02	-3.056763e-02
4.104938e+02	-3.092050e-02
4.128648e+02	-3.127743e-02
4.152495e+02	-3.163846e-02
4.176480e+02	-3.200365e-02
4.200603e+02	-3.237303e-02
4.224866e+02	-3.274666e-02
4.249268e+02	-3.312459e-02
4.273812e+02	-3.350686e-02
4.298497e+02	-3.389353e-02
4.323325e+02	-3.428464e-02
4.348297e+02	-3.468025e-02
4.373412e+02	-3.508040e-02
4.398673e+02	-3.548515e-02
4.424079e+02	-3.589455e-02
4.449633e+02	-3.630865e-02
4.475334e+02	-3.672752e-02
4.501183e+02	-3.715119e-02
4.527182e+02	-3.757973e-02
4.553330e+02	-3.801319e-02
4.579630e+02	-3.845163e-02
4.606082e+02	-3.889510e-02
4.632687e+02	-3.934366e-02
4.659445e+02	-3.979738e-02
4.686358e+02	-4.025630e-02
4.713426e+02	-4.072048e-02
4.740650e+02	-4.119000e-02
4.768032e+02	-4.166490e-02
4.795572e+02	-4.214525e-02
4.823271e+02	-4.263111e-02
4.851130e+02	-4.312255e-02
4.879150e+02	-4.361962e-02
4.907332e+02	-4.412239e-02
4.935676e+02	-4.463093e-02
4.964185e+02	-4.514530e-02
4.992858e+02	-4.566556e-02
5.021696e+02	-4.619179e-02
5.050701e+02	-4.672405e-02
5.079874e+02	-4.726241e-02
5.109215e+02	-4.780694e-02
5.138726e+02	-4.835770e-02
5.168407e+02	-4.891478e-02
5.198259e+02	-4.947823e-02
5.228284e+02	-5.004814e-02
5.258482e+02	-5.062458e-02
5.288855e+02	-5.120761e-02
5.319403e+02	-5.179732e-02
5.350128e+02	-5.239378e-02
5.381030e+02	-5.299707e-02
5.412111e+02	-5.360726e-02
5.443371e+02	-5.422443e-02
5.474812e+02	-5.484866e-02
5.506434e+02	-5.548003e-02
5.538239e+02	-5.611863e-02
5.570228e+02	-5.676452e-02
5.602401e+02	-5.741780e-02
5.634760e+02	-5.807855e-02
5.667306e+02	-5.874684e-02
5.700040e+02	-5.942278e-02
5.732964e+02	-6.010644e-02
5.766077e+02	-6.079791e-02
5.799382e+02	-6.149728e-02
5.832879e+02	-6.220463e-02
5.866569e+02	-6.292006e-02
5.900454e+02	-6.364366e-02
5.934535e+02	-6.437552e-02
5.968813e+02	-6.511573e-02
6.003288e+02	-6.586439e-02
6.037963e+02	-6.662159e-02
6.072838e+02	-6.738743e-02
6.107914e+02	-6.816200e-02
6.143194e+02	-6.894540e-02
6.178676e+02	-6.973774e-02
6.214364e+02	-7.053910e-02
6.250258e+02	-7.134960e-02
6.286359e+02	-7.216934e-02
6.322669e+02	-7.299841e-02
6.359189e+02	-7.383693e-02
6.395919e+02	-7.468499e-02
6.432862e+02	-7.554271e-02
6.470017e+02	-7.641019e-02
6.507388e+02	-7.728755e-02
6.544974e+02	-7.817489e-02
6.582778e+02	-7.907232e-02
6.620800e+02	-7.997996e-02
6.659041e+02	-8.089793e-02
6.697504e+02	-8.182633e-02
6.736188e+02	-8.276528e-02
6.775096e+02	-8.371490e-02
6.814229e+02	-8.467531e-02
6.853587e+02	-8.564663e-02
6.893173e+02	-8.662898e-02
6.932988e+02	-8.762248e-02
6.973033e+02	-8.862727e-02
7.013309e+02	-8.964345e-02
