Frequency(Hz)	Magnitude(dB)
1.000000e+01	-1.563739e-05
1.005776e+01	-1.581856e-05
1.011585e+01	-1.600182e-05
1.017428e+01	-1.618720e-05
1.023305e+01	-1.637474e-05
1.029215e+01	-1.656444e-05
1.035160e+01	-1.675634e-05
1.041139e+01	-1.695047e-05
1.047153e+01	-1.714685e-05
1.053201e+01	-1.734550e-05
1.059284e+01	-1.754645e-05
1.065403e+01	-1.774973e-05
1.071556e+01	-1.795536e-05
1.077746e+01	-1.816338e-05
1.083971e+01	-1.837381e-05
1.090232e+01	-1.858667e-05
1.096529e+01	-1.880201e-05
1.102862e+01	-1.901983e-05
1.109232e+01	-1.924018e-05
1.115639e+01	-1.946308e-05
1.122083e+01	-1.968857e-05
1.128564e+01	-1.991667e-05
1.135083e+01	-2.014741e-05
1.141639e+01	-2.038082e-05
1.148233e+01	-2.061694e-05
1.154865e+01	-2.085579e-05
1.161536e+01	-2.109741e-05
1.168245e+01	-2.134183e-05
1.174992e+01	-2.158908e-05
1.181779e+01	-2.183919e-05
1.188605e+01	-2.209220e-05
1.195470e+01	-2.234815e-05
1.202375e+01	-2.260706e-05
1.209320e+01	-2.286896e-05
1.216305e+01	-2.313391e-05
1.223330e+01	-2.340192e-05
1.230396e+01	-2.367304e-05
1.237503e+01	-2.394729e-05
1.244651e+01	-2.422473e-05
1.251840e+01	-2.450538e-05
1.259070e+01	-2.478928e-05
1.266343e+01	-2.507647e-05
1.273657e+01	-2.536699e-05
1.281014e+01	-2.566087e-05
1.288413e+01	-2.595816e-05
1.295855e+01	-2.625889e-05
1.303339e+01	-2.656310e-05
1.310867e+01	-2.687085e-05
1.318439e+01	-2.718215e-05
1.326054e+01	-2.749706e-05
1.333713e+01	-2.781562e-05
1.341417e+01	-2.813787e-05
1.349165e+01	-2.846386e-05
1.356958e+01	-2.879362e-05
1.364795e+01	-2.912720e-05
1.372678e+01	-2.946464e-05
1.380607e+01	-2.980600e-05
1.388581e+01	-3.015131e-05
1.396602e+01	-3.050062e-05
1.404668e+01	-3.085398e-05
1.412782e+01	-3.121143e-05
1.420942e+01	-3.157302e-05
1.429149e+01	-3.193880e-05
1.437404e+01	-3.230882e-05
1.445706e+01	-3.268312e-05
1.454057e+01	-3.306177e-05
1.462455e+01	-3.344479e-05
1.470902e+01	-3.383226e-05
1.479398e+01	-3.422421e-05
1.487943e+01	-3.462071e-05
1.496537e+01	-3.502180e-05
1.505181e+01	-3.542753e-05
1.513875e+01	-3.583797e-05
1.522619e+01	-3.625316e-05
1.531414e+01	-3.667316e-05
1.540259e+01	-3.709803e-05
1.549156e+01	-3.752782e-05
1.558103e+01	-3.796259e-05
1.567103e+01	-3.840239e-05
1.576155e+01	-3.884729e-05
1.585258e+01	-3.929735e-05
1.594415e+01	-3.975262e-05
1.603624e+01	-4.021316e-05
1.612886e+01	-4.067904e-05
1.622202e+01	-4.115031e-05
1.631572e+01	-4.162705e-05
1.640996e+01	-4.210931e-05
1.650474e+01	-4.259715e-05
1.660008e+01	-4.309065e-05
1.669596e+01	-4.358987e-05
1.679239e+01	-4.409486e-05
1.688938e+01	-4.460571e-05
1.698694e+01	-4.512248e-05
1.708505e+01	-4.564523e-05
1.718373e+01	-4.617404e-05
1.728299e+01	-4.670898e-05
1.738281e+01	-4.725011e-05
1.748322e+01	-4.779752e-05
1.758420e+01	-4.835126e-05
1.768576e+01	-4.891142e-05
1.778792e+01	-4.947807e-05
1.789066e+01	-5.005128e-05
1.799399e+01	-5.063114e-05
1.809793e+01	-5.121771e-05
1.820246e+01	-5.181108e-05
1.830760e+01	-5.241132e-05
1.841334e+01	-5.301852e-05
1.851969e+01	-5.363275e-05
1.862666e+01	-5.425410e-05
1.873425e+01	-5.488264e-05
1.884246e+01	-5.551847e-05
1.895129e+01	-5.616166e-05
1.906075e+01	-5.681230e-05
1.917085e+01	-5.747049e-05
1.928158e+01	-5.813629e-05
1.939295e+01	-5.880981e-05
1.950496e+01	-5.949114e-05
1.961762e+01	-6.018035e-05
1.973093e+01	-6.087756e-05
1.984490e+01	-6.158283e-05
1.995952e+01	-6.229628e-05
2.007480e+01	-6.301800e-05
2.019076e+01	-6.374807e-05
2.030738e+01	-6.448661e-05
2.042467e+01	-6.523370e-05
2.054264e+01	-6.598944e-05
2.066130e+01	-6.675394e-05
2.078064e+01	-6.752730e-05
2.090066e+01	-6.830962e-05
2.102139e+01	-6.910100e-05
2.114280e+01	-6.990154e-05
2.126492e+01	-7.071137e-05
2.138775e+01	-7.153057e-05
2.151128e+01	-7.235926e-05
2.163553e+01	-7.319756e-05
2.176050e+01	-7.404557e-05
2.188619e+01	-7.490340e-05
2.201260e+01	-7.577117e-05
2.213974e+01	-7.664899e-05
2.226762e+01	-7.753698e-05
2.239624e+01	-7.843526e-05
2.252560e+01	-7.934395e-05
2.265571e+01	-8.026316e-05
2.278656e+01	-8.119302e-05
2.291818e+01	-8.213366e-05
2.305055e+01	-8.308519e-05
2.318369e+01	-8.404775e-05
2.331760e+01	-8.502145e-05
2.345228e+01	-8.600644e-05
2.358774e+01	-8.700284e-05
2.372398e+01	-8.801078e-05
2.386101e+01	-8.903040e-05
2.399883e+01	-9.006183e-05
2.413745e+01	-9.110521e-05
2.427686e+01	-9.216068e-05
2.441709e+01	-9.322838e-05
2.455812e+01	-9.430844e-05
2.469997e+01	-9.540102e-05
2.484263e+01	-9.650625e-05
2.498612e+01	-9.762429e-05
2.513044e+01	-9.875529e-05
2.527559e+01	-9.989938e-05
2.542158e+01	-1.010567e-04
2.556842e+01	-1.022275e-04
2.571610e+01	-1.034118e-04
2.586463e+01	-1.046098e-04
2.601403e+01	-1.058218e-04
2.616428e+01	-1.070477e-04
2.631541e+01	-1.082879e-04
2.646740e+01	-1.095424e-04
2.662028e+01	-1.108115e-04
2.677404e+01	-1.120952e-04
2.692868e+01	-1.133939e-04
2.708422e+01	-1.147076e-04
2.724066e+01	-1.160365e-04
2.739800e+01	-1.173808e-04
2.755625e+01	-1.187406e-04
2.771541e+01	-1.201163e-04
2.787550e+01	-1.215078e-04
2.803650e+01	-1.229155e-04
2.819844e+01	-1.243395e-04
2.836131e+01	-1.257800e-04
2.852513e+01	-1.272372e-04
2.868989e+01	-1.287112e-04
2.885560e+01	-1.302023e-04
2.902227e+01	-1.317107e-04
2.918990e+01	-1.332366e-04
2.935850e+01	-1.347802e-04
2.952807e+01	-1.363416e-04
2.969863e+01	-1.379212e-04
2.987016e+01	-1.395190e-04
3.004269e+01	-1.411353e-04
3.021622e+01	-1.427704e-04
3.039075e+01	-1.444244e-04
3.056628e+01	-1.460976e-04
3.074283e+01	-1.477901e-04
3.092040e+01	-1.495023e-04
3.109900e+01	-1.512343e-04
3.127862e+01	-1.529863e-04
3.145929e+01	-1.547587e-04
3.164099e+01	-1.565516e-04
3.182375e+01	-1.583653e-04
3.200756e+01	-1.601999e-04
3.219244e+01	-1.620559e-04
3.237838e+01	-1.639333e-04
3.256540e+01	-1.658325e-04
3.275349e+01	-1.677536e-04
3.294268e+01	-1.696971e-04
3.313295e+01	-1.716630e-04
3.332433e+01	-1.736517e-04
3.351681e+01	-1.756635e-04
3.371040e+01	-1.776986e-04
3.390511e+01	-1.797572e-04
3.410094e+01	-1.818397e-04
3.429791e+01	-1.839463e-04
3.449601e+01	-1.860774e-04
3.469526e+01	-1.882331e-04
3.489566e+01	-1.904138e-04
3.509721e+01	-1.926197e-04
3.529993e+01	-1.948512e-04
3.550382e+01	-1.971086e-04
3.570889e+01	-1.993921e-04
3.591515e+01	-2.017020e-04
3.612259e+01	-2.040387e-04
3.633123e+01	-2.064025e-04
3.654108e+01	-2.087937e-04
3.675214e+01	-2.112126e-04
3.696442e+01	-2.136595e-04
3.717792e+01	-2.161347e-04
3.739266e+01	-2.186386e-04
3.760864e+01	-2.211716e-04
3.782587e+01	-2.237338e-04
3.804435e+01	-2.263258e-04
3.826409e+01	-2.289478e-04
3.848510e+01	-2.316001e-04
3.870739e+01	-2.342832e-04
3.893096e+01	-2.369973e-04
3.915583e+01	-2.397430e-04
3.938199e+01	-2.425204e-04
3.960946e+01	-2.453300e-04
3.983824e+01	-2.481721e-04
4.006834e+01	-2.510471e-04
4.029978e+01	-2.539555e-04
4.053255e+01	-2.568976e-04
4.076666e+01	-2.598737e-04
4.100213e+01	-2.628843e-04
4.123896e+01	-2.659298e-04
4.147715e+01	-2.690106e-04
4.171672e+01	-2.721271e-04
4.195767e+01	-2.752796e-04
4.220002e+01	-2.784687e-04
4.244377e+01	-2.816948e-04
4.268892e+01	-2.849582e-04
4.293549e+01	-2.882594e-04
4.318348e+01	-2.915988e-04
4.343291e+01	-2.949770e-04
4.368377e+01	-2.983942e-04
4.393609e+01	-3.018511e-04
4.418986e+01	-3.053480e-04
4.444510e+01	-3.088854e-04
4.470182e+01	-3.124638e-04
4.496001e+01	-3.160837e-04
4.521970e+01	-3.197454e-04
4.548089e+01	-3.234496e-04
4.574358e+01	-3.271968e-04
4.600779e+01	-3.309873e-04
4.627353e+01	-3.348217e-04
4.654081e+01	-3.387006e-04
4.680963e+01	-3.426243e-04
4.708000e+01	-3.465936e-04
4.735193e+01	-3.506088e-04
4.762543e+01	-3.546705e-04
4.790051e+01	-3.587793e-04
4.817719e+01	-3.629357e-04
4.845545e+01	-3.671402e-04
4.873533e+01	-3.713935e-04
4.901682e+01	-3.756960e-04
4.929994e+01	-3.800483e-04
4.958470e+01	-3.844511e-04
4.987110e+01	-3.889049e-04
5.015915e+01	-3.934102e-04
5.044887e+01	-3.979678e-04
5.074026e+01	-4.025782e-04
5.103333e+01	-4.072419e-04
5.132810e+01	-4.119597e-04
5.162457e+01	-4.167321e-04
5.192275e+01	-4.215599e-04
5.222265e+01	-4.264435e-04
5.252429e+01	-4.313837e-04
5.282767e+01	-4.363812e-04
5.313280e+01	-4.414365e-04
5.343969e+01	-4.465504e-04
5.374836e+01	-4.517236e-04
5.405880e+01	-4.569566e-04
5.437105e+01	-4.622503e-04
5.468509e+01	-4.676053e-04
5.500095e+01	-4.730224e-04
5.531863e+01	-4.785022e-04
5.563815e+01	-4.840454e-04
5.595951e+01	-4.896529e-04
5.628273e+01	-4.953254e-04
5.660782e+01	-5.010635e-04
5.693479e+01	-5.068681e-04
5.726364e+01	-5.127400e-04
5.759439e+01	-5.186799e-04
5.792705e+01	-5.246886e-04
5.826164e+01	-5.307668e-04
5.859815e+01	-5.369155e-04
5.893662e+01	-5.431355e-04
5.927703e+01	-5.494275e-04
5.961941e+01	-5.557923e-04
5.996377e+01	-5.622309e-04
6.031012e+01	-5.687441e-04
6.065847e+01	-5.753327e-04
6.100883e+01	-5.819976e-04
6.136121e+01	-5.887398e-04
6.171563e+01	-5.955600e-04
6.207210e+01	-6.024593e-04
6.243063e+01	-6.094384e-04
6.279122e+01	-6.164985e-04
6.315390e+01	-6.236402e-04
6.351868e+01	-6.308648e-04
6.388556e+01	-6.381730e-04
6.425456e+01	-6.455658e-04
6.462569e+01	-6.530443e-04
6.499897e+01	-6.606094e-04
6.537440e+01	-6.682622e-04
6.575200e+01	-6.760036e-04
6.613178e+01	-6.838347e-04
6.651375e+01	-6.917564e-04
6.689793e+01	-6.997700e-04
6.728433e+01	-7.078764e-04
6.767297e+01	-7.160766e-04
6.806384e+01	-7.243719e-04
6.845698e+01	-7.327632e-04
6.885238e+01	-7.412518e-04
6.925007e+01	-7.498386e-04
6.965005e+01	-7.585249e-04
7.005235e+01	-7.673119e-04
7.045697e+01	-7.762006e-04
7.086393e+01	-7.851923e-04
7.127323e+01	-7.942881e-04
7.168490e+01	-8.034893e-04
7.209895e+01	-8.127971e-04
7.251539e+01	-8.222127e-04
7.293424e+01	-8.317373e-04
7.335551e+01	-8.413723e-04
7.377920e+01	-8.511189e-04
7.420535e+01	-8.609783e-04
7.463396e+01	-8.709520e-04
7.506504e+01	-8.810412e-04
7.549861e+01	-8.912473e-04
7.593469e+01	-9.015715e-04
7.637328e+01	-9.120154e-04
7.681441e+01	-9.225802e-04
7.725809e+01	-9.332674e-04
7.770433e+01	-9.440784e-04
7.815315e+01	-9.550146e-04
7.860456e+01	-9.660775e-04
7.905857e+01	-9.772685e-04
7.951521e+01	-9.885891e-04
7.997449e+01	-1.000041e-03
8.043642e+01	-1.011625e-03
8.090102e+01	-1.023344e-03
8.136830e+01	-1.035198e-03
8.183828e+01	-1.047190e-03
8.231097e+01	-1.059320e-03
8.278640e+01	-1.071591e-03
8.326457e+01	-1.084004e-03
8.374550e+01	-1.096561e-03
8.422921e+01	-1.109264e-03
8.471572e+01	-1.122113e-03
8.520503e+01	-1.135111e-03
8.569717e+01	-1.148260e-03
8.619215e+01	-1.161561e-03
8.669000e+01	-1.175016e-03
8.719071e+01	-1.188627e-03
8.769432e+01	-1.202396e-03
8.820084e+01	-1.216324e-03
8.871029e+01	-1.230414e-03
8.922267e+01	-1.244666e-03
8.973802e+01	-1.259084e-03
9.025634e+01	-1.273669e-03
9.077766e+01	-1.288422e-03
9.130199e+01	-1.303347e-03
9.182935e+01	-1.318444e-03
9.235975e+01	-1.333716e-03
9.289321e+01	-1.349165e-03
9.342976e+01	-1.364793e-03
9.396941e+01	-1.380602e-03
9.451217e+01	-1.396594e-03
9.505807e+01	-1.412772e-03
9.560712e+01	-1.429136e-03
9.615934e+01	-1.445691e-03
9.671476e+01	-1.462436e-03
9.727338e+01	-1.479376e-03
9.783522e+01	-1.496512e-03
9.840032e+01	-1.513847e-03
9.896867e+01	-1.531382e-03
9.954031e+01	-1.549120e-03
1.001153e+02	-1.567064e-03
1.006935e+02	-1.585216e-03
1.012751e+02	-1.603577e-03
1.018601e+02	-1.622152e-03
1.024484e+02	-1.640941e-03
1.030402e+02	-1.659948e-03
1.036353e+02	-1.679176e-03
1.042339e+02	-1.698626e-03
1.048360e+02	-1.718301e-03
1.054415e+02	-1.738204e-03
1.060505e+02	-1.758337e-03
1.066631e+02	-1.778704e-03
1.072791e+02	-1.799306e-03
1.078988e+02	-1.820147e-03
1.085220e+02	-1.841230e-03
1.091488e+02	-1.862556e-03
1.097793e+02	-1.884130e-03
1.104133e+02	-1.905953e-03
1.110511e+02	-1.928029e-03
1.116925e+02	-1.950361e-03
1.123376e+02	-1.972951e-03
1.129865e+02	-1.995803e-03
1.136391e+02	-2.018920e-03
1.142955e+02	-2.042304e-03
1.149556e+02	-2.065959e-03
1.156196e+02	-2.089888e-03
1.162874e+02	-2.114094e-03
1.169591e+02	-2.138580e-03
1.176347e+02	-2.163350e-03
1.183141e+02	-2.188407e-03
1.189975e+02	-2.213753e-03
1.196848e+02	-2.239394e-03
1.203761e+02	-2.265331e-03
1.210714e+02	-2.291568e-03
1.217707e+02	-2.318110e-03
1.224740e+02	-2.344958e-03
1.231814e+02	-2.372118e-03
1.238929e+02	-2.399592e-03
1.246085e+02	-2.427384e-03
1.253283e+02	-2.455498e-03
1.260522e+02	-2.483937e-03
1.267802e+02	-2.512706e-03
1.275125e+02	-2.541808e-03
1.282490e+02	-2.571247e-03
1.289898e+02	-2.601026e-03
1.297348e+02	-2.631151e-03
1.304842e+02	-2.661624e-03
1.312378e+02	-2.692450e-03
1.319959e+02	-2.723633e-03
1.327583e+02	-2.755177e-03
1.335251e+02	-2.787086e-03
1.342963e+02	-2.819365e-03
1.350720e+02	-2.852017e-03
1.358522e+02	-2.885048e-03
1.366368e+02	-2.918460e-03
1.374260e+02	-2.952260e-03
1.382198e+02	-2.986451e-03
1.390182e+02	-3.021038e-03
1.398211e+02	-3.056025e-03
1.406287e+02	-3.091417e-03
1.414410e+02	-3.127219e-03
1.422579e+02	-3.163436e-03
1.430796e+02	-3.200071e-03
1.439060e+02	-3.237131e-03
1.447372e+02	-3.274620e-03
1.455732e+02	-3.312543e-03
1.464141e+02	-3.350905e-03
1.472597e+02	-3.389710e-03
1.481103e+02	-3.428966e-03
1.489658e+02	-3.468675e-03
1.498262e+02	-3.508844e-03
1.506916e+02	-3.549479e-03
1.515620e+02	-3.590583e-03
1.524374e+02	-3.632164e-03
1.533179e+02	-3.674225e-03
1.542034e+02	-3.716774e-03
1.550941e+02	-3.759815e-03
1.559899e+02	-3.803354e-03
1.568909e+02	-3.847398e-03
1.577971e+02	-3.891951e-03
1.587085e+02	-3.937020e-03
1.596252e+02	-3.982610e-03
1.605472e+02	-4.028728e-03
1.614745e+02	-4.075380e-03
1.624072e+02	-4.122572e-03
1.633453e+02	-4.170310e-03
1.642887e+02	-4.218601e-03
1.652377e+02	-4.267450e-03
1.661921e+02	-4.316865e-03
1.671520e+02	-4.366852e-03
1.681175e+02	-4.417417e-03
1.690885e+02	-4.468568e-03
1.700651e+02	-4.520310e-03
1.710474e+02	-4.572651e-03
1.720354e+02	-4.625599e-03
1.730291e+02	-4.679158e-03
1.740285e+02	-4.733338e-03
1.750337e+02	-4.788145e-03
1.760446e+02	-4.843585e-03
1.770615e+02	-4.899668e-03
1.780842e+02	-4.956399e-03
1.791128e+02	-5.013787e-03
1.801473e+02	-5.071839e-03
1.811878e+02	-5.130563e-03
1.822344e+02	-5.189966e-03
1.832870e+02	-5.250057e-03
1.843456e+02	-5.310843e-03
1.854104e+02	-5.372332e-03
1.864813e+02	-5.434533e-03
1.875584e+02	-5.497454e-03
1.886418e+02	-5.561102e-03
1.897313e+02	-5.625487e-03
1.908272e+02	-5.690617e-03
1.919294e+02	-5.756500e-03
1.930380e+02	-5.823146e-03
1.941530e+02	-5.890563e-03
1.952744e+02	-5.958759e-03
1.964023e+02	-6.027745e-03
1.975367e+02	-6.097529e-03
1.986777e+02	-6.168120e-03
1.998252e+02	-6.239528e-03
2.009794e+02	-6.311762e-03
2.021403e+02	-6.384831e-03
2.033078e+02	-6.458746e-03
2.044821e+02	-6.533516e-03
2.056632e+02	-6.609150e-03
2.068511e+02	-6.685660e-03
2.080459e+02	-6.763054e-03
2.092475e+02	-6.841344e-03
2.104561e+02	-6.920540e-03
2.116717e+02	-7.000651e-03
2.128943e+02	-7.081689e-03
2.141240e+02	-7.163664e-03
2.153608e+02	-7.246588e-03
2.166047e+02	-7.330470e-03
2.178558e+02	-7.415323e-03
2.191141e+02	-7.501157e-03
2.203797e+02	-7.587983e-03
2.216526e+02	-7.675814e-03
2.229329e+02	-7.764661e-03
2.242205e+02	-7.854535e-03
2.255156e+02	-7.945448e-03
2.268182e+02	-8.037412e-03
2.281283e+02	-8.130440e-03
2.294459e+02	-8.224544e-03
2.307712e+02	-8.319736e-03
2.321041e+02	-8.416029e-03
2.334447e+02	-8.513434e-03
2.347931e+02	-8.611967e-03
2.361493e+02	-8.711638e-03
2.375133e+02	-8.812462e-03
2.388851e+02	-8.914451e-03
2.402649e+02	-9.017620e-03
2.416527e+02	-9.121981e-03
2.430484e+02	-9.227549e-03
2.444523e+02	-9.334337e-03
2.458642e+02	-9.442360e-03
2.472843e+02	-9.551631e-03
2.487126e+02	-9.662166e-03
2.501492e+02	-9.773978e-03
2.515940e+02	-9.887083e-03
2.530472e+02	-1.000149e-02
2.545088e+02	-1.011723e-02
2.559789e+02	-1.023430e-02
2.574574e+02	-1.035273e-02
2.589444e+02	-1.047252e-02
2.604401e+02	-1.059370e-02
2.619444e+02	-1.071628e-02
2.634574e+02	-1.084027e-02
2.649791e+02	-1.096570e-02
2.665096e+02	-1.109258e-02
2.680489e+02	-1.122092e-02
2.695972e+02	-1.135075e-02
2.711544e+02	-1.148207e-02
2.727205e+02	-1.161492e-02
2.742958e+02	-1.174930e-02
2.758801e+02	-1.188523e-02
2.774736e+02	-1.202273e-02
2.790762e+02	-1.216182e-02
2.806882e+02	-1.230252e-02
2.823094e+02	-1.244484e-02
2.839400e+02	-1.258881e-02
2.855800e+02	-1.273444e-02
2.872295e+02	-1.288175e-02
2.888886e+02	-1.303077e-02
2.905572e+02	-1.318150e-02
2.922354e+02	-1.333398e-02
2.939234e+02	-1.348821e-02
2.956211e+02	-1.364423e-02
2.973286e+02	-1.380205e-02
2.990459e+02	-1.396169e-02
3.007732e+02	-1.412318e-02
3.025104e+02	-1.428653e-02
3.042577e+02	-1.445176e-02
3.060151e+02	-1.461891e-02
3.077826e+02	-1.478798e-02
3.095604e+02	-1.495901e-02
3.113484e+02	-1.513201e-02
3.131467e+02	-1.530701e-02
3.149554e+02	-1.548403e-02
3.167746e+02	-1.566309e-02
3.186043e+02	-1.584422e-02
3.204445e+02	-1.602744e-02
3.222954e+02	-1.621277e-02
3.241570e+02	-1.640024e-02
3.260293e+02	-1.658988e-02
3.279124e+02	-1.678170e-02
3.298064e+02	-1.697574e-02
3.317114e+02	-1.717202e-02
3.336273e+02	-1.737056e-02
3.355544e+02	-1.757140e-02
3.374925e+02	-1.777455e-02
3.394418e+02	-1.798004e-02
3.414024e+02	-1.818791e-02
3.433744e+02	-1.839817e-02
3.453577e+02	-1.861086e-02
3.473525e+02	-1.882600e-02
3.493588e+02	-1.904363e-02
3.513766e+02	-1.926376e-02
3.534062e+02	-1.948643e-02
3.554474e+02	-1.971167e-02
3.575005e+02	-1.993951e-02
3.595654e+02	-2.016998e-02
3.616422e+02	-2.040310e-02
3.637311e+02	-2.063891e-02
3.658320e+02	-2.087744e-02
3.679450e+02	-2.111872e-02
3.700702e+02	-2.136279e-02
3.722077e+02	-2.160966e-02
3.743576e+02	-2.185938e-02
3.765199e+02	-2.211198e-02
3.786946e+02	-2.236749e-02
3.808820e+02	-2.262595e-02
3.830819e+02	-2.288738e-02
3.852946e+02	-2.315183e-02
3.875200e+02	-2.341932e-02
3.897583e+02	-2.368990e-02
3.920096e+02	-2.396359e-02
3.942738e+02	-2.424044e-02
3.965511e+02	-2.452047e-02
3.988416e+02	-2.480373e-02
4.011452e+02	-2.509026e-02
4.034622e+02	-2.538008e-02
4.057926e+02	-2.567325e-02
4.081365e+02	-2.596978e-02
4.104938e+02	-2.626974e-02
4.128648e+02	-2.657314e-02
4.152495e+02	-2.688004e-02
4.176480e+02	-2.719048e-02
4.200603e+02	-2.750449e-02
4.224866e+02	-2.782211e-02
4.249268e+02	-2.814339e-02
4.273812e+02	-2.846836e-02
4.298497e+02	-2.879708e-02
4.323325e+02	-2.912958e-02
4.348297e+02	-2.946590e-02
4.373412e+02	-2.980609e-02
4.398673e+02	-3.015020e-02
4.424079e+02	-3.049827e-02
4.449633e+02	-3.085034e-02
4.475334e+02	-3.120646e-02
4.501183e+02	-3.156668e-02
4.527182e+02	-3.193104e-02
4.553330e+02	-3.229959e-02
4.579630e+02	-3.267237e-02
4.606082e+02	-3.304944e-02
4.632687e+02	-3.343085e-02
4.659445e+02	-3.381664e-02
4.686358e+02	-3.420687e-02
4.713426e+02	-3.460158e-02
4.740650e+02	-3.500083e-02
4.768032e+02	-3.540467e-02
4.795572e+02	-3.581314e-02
4.823271e+02	-3.622631e-02
4.851130e+02	-3.664422e-02
4.879150e+02	-3.706694e-02
4.907332e+02	-3.749451e-02
4.935676e+02	-3.792699e-02
4.964185e+02	-3.836444e-02
4.992858e+02	-3.880691e-02
5.021696e+02	-3.925446e-02
5.050701e+02	-3.970715e-02
5.079874e+02	-4.016503e-02
5.109215e+02	-4.062817e-02
5.138726e+02	-4.109662e-02
5.168407e+02	-4.157045e-02
5.198259e+02	-4.204972e-02
5.228284e+02	-4.253448e-02
5.258482e+02	-4.302481e-02
5.288855e+02	-4.352076e-02
5.319403e+02	-4.402239e-02
5.350128e+02	-4.452978e-02
5.381030e+02	-4.504299e-02
5.412111e+02	-4.556208e-02
5.443371e+02	-4.608712e-02
5.474812e+02	-4.661818e-02
5.506434e+02	-4.715532e-02
5.538239e+02	-4.769862e-02
5.570228e+02	-4.824814e-02
5.602401e+02	-4.880396e-02
5.634760e+02	-4.936615e-02
5.667306e+02	-4.993477e-02
5.700040e+02	-5.050991e-02
5.732964e+02	-5.109163e-02
5.766077e+02	-5.168001e-02
5.799382e+02	-5.227512e-02
5.832879e+02	-5.287705e-02
5.866569e+02	-5.348586e-02
5.900454e+02	-5.410164e-02
5.934535e+02	-5.472447e-02
5.968813e+02	-5.535442e-02
6.003288e+02	-5.599157e-02
6.037963e+02	-5.663601e-02
6.072838e+02	-5.728782e-02
6.107914e+02	-5.794707e-02
6.143194e+02	-5.861387e-02
6.178676e+02	-5.928828e-02
6.214364e+02	-5.997040e-02
6.250258e+02	-6.066031e-02
6.286359e+02	-6.135811e-02
6.322669e+02	-6.206387e-02
6.359189e+02	-6.277769e-02
6.395919e+02	-6.349966e-02
6.432862e+02	-6.422988e-02
6.470017e+02	-6.496842e-02
6.507388e+02	-6.571540e-02
6.544974e+02	-6.647089e-02
6.582778e+02	-6.723501e-02
6.620800e+02	-6.800784e-02
6.659041e+02	-6.878948e-02
6.697504e+02	-6.958003e-02
6.736188e+02	-7.037960e-02
6.775096e+02	-7.118828e-02
6.814229e+02	-7.200617e-02
6.853587e+02	-7.283338e-02
6.893173e+02	-7.367001e-02
6.932988e+02	-7.451617e-02
6.973033e+02	-7.537196e-02
7.013309e+02	-7.623750e-02
