Frequency(Hz)	Magnitude(dB)
1.000000e+01	-1.860821e-05
1.005776e+01	-1.882379e-05
1.011585e+01	-1.904187e-05
1.017428e+01	-1.926247e-05
1.023305e+01	-1.948563e-05
1.029215e+01	-1.971138e-05
1.035160e+01	-1.993974e-05
1.041139e+01	-2.017075e-05
1.047153e+01	-2.040443e-05
1.053201e+01	-2.064082e-05
1.059284e+01	-2.087995e-05
1.065403e+01	-2.112185e-05
1.071556e+01	-2.136655e-05
1.077746e+01	-2.161409e-05
1.083971e+01	-2.186449e-05
1.090232e+01	-2.211780e-05
1.096529e+01	-2.237404e-05
1.102862e+01	-2.263325e-05
1.109232e+01	-2.289546e-05
1.115639e+01	-2.316071e-05
1.122083e+01	-2.342903e-05
1.128564e+01	-2.370046e-05
1.135083e+01	-2.397504e-05
1.141639e+01	-2.425279e-05
1.148233e+01	-2.453377e-05
1.154865e+01	-2.481800e-05
1.161536e+01	-2.510552e-05
1.168245e+01	-2.539638e-05
1.174992e+01	-2.569060e-05
1.181779e+01	-2.598823e-05
1.188605e+01	-2.628931e-05
1.195470e+01	-2.659388e-05
1.202375e+01	-2.690197e-05
1.209320e+01	-2.721364e-05
1.216305e+01	-2.752892e-05
1.223330e+01	-2.784785e-05
1.230396e+01	-2.817047e-05
1.237503e+01	-2.849683e-05
1.244651e+01	-2.882698e-05
1.251840e+01	-2.916094e-05
1.259070e+01	-2.949878e-05
1.266343e+01	-2.984053e-05
1.273657e+01	-3.018624e-05
1.281014e+01	-3.053595e-05
1.288413e+01	-3.088972e-05
1.295855e+01	-3.124759e-05
1.303339e+01	-3.160960e-05
1.310867e+01	-3.197580e-05
1.318439e+01	-3.234625e-05
1.326054e+01	-3.272099e-05
1.333713e+01	-3.310007e-05
1.341417e+01	-3.348354e-05
1.349165e+01	-3.387145e-05
1.356958e+01	-3.426386e-05
1.364795e+01	-3.466082e-05
1.372678e+01	-3.506237e-05
1.380607e+01	-3.546858e-05
1.388581e+01	-3.587949e-05
1.396602e+01	-3.629516e-05
1.404668e+01	-3.671565e-05
1.412782e+01	-3.714101e-05
1.420942e+01	-3.757129e-05
1.429149e+01	-3.800657e-05
1.437404e+01	-3.844688e-05
1.445706e+01	-3.889230e-05
1.454057e+01	-3.934287e-05
1.462455e+01	-3.979867e-05
1.470902e+01	-4.025975e-05
1.479398e+01	-4.072616e-05
1.487943e+01	-4.119799e-05
1.496537e+01	-4.167527e-05
1.505181e+01	-4.215809e-05
1.513875e+01	-4.264650e-05
1.522619e+01	-4.314057e-05
1.531414e+01	-4.364037e-05
1.540259e+01	-4.414595e-05
1.549156e+01	-4.465739e-05
1.558103e+01	-4.517475e-05
1.567103e+01	-4.569811e-05
1.576155e+01	-4.622754e-05
1.585258e+01	-4.676309e-05
1.594415e+01	-4.730485e-05
1.603624e+01	-4.785289e-05
1.612886e+01	-4.840728e-05
1.622202e+01	-4.896808e-05
1.631572e+01	-4.953539e-05
1.640996e+01	-5.010927e-05
1.650474e+01	-5.068980e-05
1.660008e+01	-5.127705e-05
1.669596e+01	-5.187110e-05
1.679239e+01	-5.247204e-05
1.688938e+01	-5.307994e-05
1.698694e+01	-5.369488e-05
1.708505e+01	-5.431695e-05
1.718373e+01	-5.494622e-05
1.728299e+01	-5.558278e-05
1.738281e+01	-5.622672e-05
1.748322e+01	-5.687812e-05
1.758420e+01	-5.753707e-05
1.768576e+01	-5.820364e-05
1.778792e+01	-5.887794e-05
1.789066e+01	-5.956006e-05
1.799399e+01	-6.025007e-05
1.809793e+01	-6.094808e-05
1.820246e+01	-6.165418e-05
1.830760e+01	-6.236845e-05
1.841334e+01	-6.309100e-05
1.851969e+01	-6.382193e-05
1.862666e+01	-6.456131e-05
1.873425e+01	-6.530927e-05
1.884246e+01	-6.606589e-05
1.895129e+01	-6.683128e-05
1.906075e+01	-6.760553e-05
1.917085e+01	-6.838875e-05
1.928158e+01	-6.918105e-05
1.939295e+01	-6.998252e-05
1.950496e+01	-7.079328e-05
1.961762e+01	-7.161344e-05
1.973093e+01	-7.244309e-05
1.984490e+01	-7.328236e-05
1.995952e+01	-7.413135e-05
2.007480e+01	-7.499017e-05
2.019076e+01	-7.585895e-05
2.030738e+01	-7.673779e-05
2.042467e+01	-7.762681e-05
2.054264e+01	-7.852613e-05
2.066130e+01	-7.943587e-05
2.078064e+01	-8.035615e-05
2.090066e+01	-8.128709e-05
2.102139e+01	-8.222881e-05
2.114280e+01	-8.318144e-05
2.126492e+01	-8.414512e-05
2.138775e+01	-8.511995e-05
2.151128e+01	-8.610608e-05
2.163553e+01	-8.710363e-05
2.176050e+01	-8.811274e-05
2.188619e+01	-8.913354e-05
2.201260e+01	-9.016617e-05
2.213974e+01	-9.121076e-05
2.226762e+01	-9.226745e-05
2.239624e+01	-9.333638e-05
2.252560e+01	-9.441770e-05
2.265571e+01	-9.551154e-05
2.278656e+01	-9.661806e-05
2.291818e+01	-9.773739e-05
2.305055e+01	-9.886969e-05
2.318369e+01	-1.000151e-04
2.331760e+01	-1.011738e-04
2.345228e+01	-1.023459e-04
2.358774e+01	-1.035316e-04
2.372398e+01	-1.047310e-04
2.386101e+01	-1.059444e-04
2.399883e+01	-1.071717e-04
2.413745e+01	-1.084133e-04
2.427686e+01	-1.096693e-04
2.441709e+01	-1.109399e-04
2.455812e+01	-1.122251e-04
2.469997e+01	-1.135252e-04
2.484263e+01	-1.148405e-04
2.498612e+01	-1.161709e-04
2.513044e+01	-1.175167e-04
2.527559e+01	-1.188782e-04
2.542158e+01	-1.202554e-04
2.556842e+01	-1.216486e-04
2.571610e+01	-1.230579e-04
2.586463e+01	-1.244835e-04
2.601403e+01	-1.259257e-04
2.616428e+01	-1.273846e-04
2.631541e+01	-1.288603e-04
2.646740e+01	-1.303532e-04
2.662028e+01	-1.318633e-04
2.677404e+01	-1.333910e-04
2.692868e+01	-1.349363e-04
2.708422e+01	-1.364996e-04
2.724066e+01	-1.380809e-04
2.739800e+01	-1.396806e-04
2.755625e+01	-1.412988e-04
2.771541e+01	-1.429358e-04
2.787550e+01	-1.445917e-04
2.803650e+01	-1.462668e-04
2.819844e+01	-1.479613e-04
2.836131e+01	-1.496755e-04
2.852513e+01	-1.514095e-04
2.868989e+01	-1.531636e-04
2.885560e+01	-1.549380e-04
2.902227e+01	-1.567330e-04
2.918990e+01	-1.585487e-04
2.935850e+01	-1.603855e-04
2.952807e+01	-1.622436e-04
2.969863e+01	-1.641232e-04
2.987016e+01	-1.660246e-04
3.004269e+01	-1.679480e-04
3.021622e+01	-1.698937e-04
3.039075e+01	-1.718619e-04
3.056628e+01	-1.738529e-04
3.074283e+01	-1.758670e-04
3.092040e+01	-1.779044e-04
3.109900e+01	-1.799655e-04
3.127862e+01	-1.820504e-04
3.145929e+01	-1.841594e-04
3.164099e+01	-1.862929e-04
3.182375e+01	-1.884511e-04
3.200756e+01	-1.906343e-04
3.219244e+01	-1.928428e-04
3.237838e+01	-1.950769e-04
3.256540e+01	-1.973369e-04
3.275349e+01	-1.996231e-04
3.294268e+01	-2.019357e-04
3.313295e+01	-2.042751e-04
3.332433e+01	-2.066416e-04
3.351681e+01	-2.090356e-04
3.371040e+01	-2.114573e-04
3.390511e+01	-2.139070e-04
3.410094e+01	-2.163851e-04
3.429791e+01	-2.188919e-04
3.449601e+01	-2.214278e-04
3.469526e+01	-2.239930e-04
3.489566e+01	-2.265880e-04
3.509721e+01	-2.292130e-04
3.529993e+01	-2.318684e-04
3.550382e+01	-2.345546e-04
3.570889e+01	-2.372719e-04
3.591515e+01	-2.400207e-04
3.612259e+01	-2.428013e-04
3.633123e+01	-2.456142e-04
3.654108e+01	-2.484596e-04
3.675214e+01	-2.513380e-04
3.696442e+01	-2.542497e-04
3.717792e+01	-2.571952e-04
3.739266e+01	-2.601748e-04
3.760864e+01	-2.631889e-04
3.782587e+01	-2.662379e-04
3.804435e+01	-2.693222e-04
3.826409e+01	-2.724423e-04
3.848510e+01	-2.755985e-04
3.870739e+01	-2.787913e-04
3.893096e+01	-2.820211e-04
3.915583e+01	-2.852883e-04
3.938199e+01	-2.885933e-04
3.960946e+01	-2.919366e-04
3.983824e+01	-2.953187e-04
4.006834e+01	-2.987399e-04
4.029978e+01	-3.022008e-04
4.053255e+01	-3.057017e-04
4.076666e+01	-3.092433e-04
4.100213e+01	-3.128258e-04
4.123896e+01	-3.164498e-04
4.147715e+01	-3.201159e-04
4.171672e+01	-3.238244e-04
4.195767e+01	-3.275758e-04
4.220002e+01	-3.313707e-04
4.244377e+01	-3.352096e-04
4.268892e+01	-3.390929e-04
4.293549e+01	-3.430213e-04
4.318348e+01	-3.469951e-04
4.343291e+01	-3.510150e-04
4.368377e+01	-3.550814e-04
4.393609e+01	-3.591950e-04
4.418986e+01	-3.633562e-04
4.444510e+01	-3.675656e-04
4.470182e+01	-3.718237e-04
4.496001e+01	-3.761312e-04
4.521970e+01	-3.804886e-04
4.548089e+01	-3.848965e-04
4.574358e+01	-3.893554e-04
4.600779e+01	-3.938660e-04
4.627353e+01	-3.984288e-04
4.654081e+01	-4.030445e-04
4.680963e+01	-4.077137e-04
4.708000e+01	-4.124370e-04
4.735193e+01	-4.172149e-04
4.762543e+01	-4.220482e-04
4.790051e+01	-4.269375e-04
4.817719e+01	-4.318835e-04
4.845545e+01	-4.368867e-04
4.873533e+01	-4.419479e-04
4.901682e+01	-4.470678e-04
4.929994e+01	-4.522469e-04
4.958470e+01	-4.574860e-04
4.987110e+01	-4.627858e-04
5.015915e+01	-4.681470e-04
5.044887e+01	-4.735704e-04
5.074026e+01	-4.790565e-04
5.103333e+01	-4.846062e-04
5.132810e+01	-4.902202e-04
5.162457e+01	-4.958992e-04
5.192275e+01	-5.016440e-04
5.222265e+01	-5.074553e-04
5.252429e+01	-5.133340e-04
5.282767e+01	-5.192808e-04
5.313280e+01	-5.252964e-04
5.343969e+01	-5.313817e-04
5.374836e+01	-5.375376e-04
5.405880e+01	-5.437647e-04
5.437105e+01	-5.500640e-04
5.468509e+01	-5.564362e-04
5.500095e+01	-5.628822e-04
5.531863e+01	-5.694030e-04
5.563815e+01	-5.759992e-04
5.595951e+01	-5.826719e-04
5.628273e+01	-5.894218e-04
5.660782e+01	-5.962500e-04
5.693479e+01	-6.031572e-04
5.726364e+01	-6.101445e-04
5.759439e+01	-6.172127e-04
5.792705e+01	-6.243627e-04
5.826164e+01	-6.315956e-04
5.859815e+01	-6.389123e-04
5.893662e+01	-6.463137e-04
5.927703e+01	-6.538009e-04
5.961941e+01	-6.613747e-04
5.996377e+01	-6.690364e-04
6.031012e+01	-6.767867e-04
6.065847e+01	-6.846269e-04
6.100883e+01	-6.925578e-04
6.136121e+01	-7.005807e-04
6.171563e+01	-7.086964e-04
6.207210e+01	-7.169062e-04
6.243063e+01	-7.252110e-04
6.279122e+01	-7.336121e-04
6.315390e+01	-7.421105e-04
6.351868e+01	-7.507073e-04
6.388556e+01	-7.594037e-04
6.425456e+01	-7.682008e-04
6.462569e+01	-7.770998e-04
6.499897e+01	-7.861019e-04
6.537440e+01	-7.952083e-04
6.575200e+01	-8.044201e-04
6.613178e+01	-8.137387e-04
6.651375e+01	-8.231652e-04
6.689793e+01	-8.327009e-04
6.728433e+01	-8.423470e-04
6.767297e+01	-8.521049e-04
6.806384e+01	-8.619758e-04
6.845698e+01	-8.719610e-04
6.885238e+01	-8.820619e-04
6.925007e+01	-8.922797e-04
6.965005e+01	-9.026160e-04
7.005235e+01	-9.130719e-04
7.045697e+01	-9.236490e-04
7.086393e+01	-9.343486e-04
7.127323e+01	-9.451721e-04
7.168490e+01	-9.561209e-04
7.209895e+01	-9.671966e-04
7.251539e+01	-9.784006e-04
7.293424e+01	-9.897343e-04
7.335551e+01	-1.001199e-03
7.377920e+01	-1.012797e-03
7.420535e+01	-1.024529e-03
7.463396e+01	-1.036397e-03
7.506504e+01	-1.048403e-03
7.549861e+01	-1.060547e-03
7.593469e+01	-1.072833e-03
7.637328e+01	-1.085260e-03
7.681441e+01	-1.097832e-03
7.725809e+01	-1.110549e-03
7.770433e+01	-1.123413e-03
7.815315e+01	-1.136426e-03
7.860456e+01	-1.149590e-03
7.905857e+01	-1.162907e-03
7.951521e+01	-1.176378e-03
7.997449e+01	-1.190004e-03
8.043642e+01	-1.203789e-03
8.090102e+01	-1.217733e-03
8.136830e+01	-1.231839e-03
8.183828e+01	-1.246108e-03
8.231097e+01	-1.260543e-03
8.278640e+01	-1.275144e-03
8.326457e+01	-1.289915e-03
8.374550e+01	-1.304857e-03
8.422921e+01	-1.319972e-03
8.471572e+01	-1.335261e-03
8.520503e+01	-1.350728e-03
8.569717e+01	-1.366374e-03
8.619215e+01	-1.382202e-03
8.669000e+01	-1.398212e-03
8.719071e+01	-1.414408e-03
8.769432e+01	-1.430792e-03
8.820084e+01	-1.447365e-03
8.871029e+01	-1.464131e-03
8.922267e+01	-1.481090e-03
8.973802e+01	-1.498246e-03
9.025634e+01	-1.515601e-03
9.077766e+01	-1.533156e-03
9.130199e+01	-1.550915e-03
9.182935e+01	-1.568879e-03
9.235975e+01	-1.587052e-03
9.289321e+01	-1.605435e-03
9.342976e+01	-1.624031e-03
9.396941e+01	-1.642842e-03
9.451217e+01	-1.661871e-03
9.505807e+01	-1.681121e-03
9.560712e+01	-1.700593e-03
9.615934e+01	-1.720291e-03
9.671476e+01	-1.740217e-03
9.727338e+01	-1.760374e-03
9.783522e+01	-1.780764e-03
9.840032e+01	-1.801391e-03
9.896867e+01	-1.822256e-03
9.954031e+01	-1.843363e-03
1.001153e+02	-1.864714e-03
1.006935e+02	-1.886312e-03
1.012751e+02	-1.908161e-03
1.018601e+02	-1.930263e-03
1.024484e+02	-1.952620e-03
1.030402e+02	-1.975237e-03
1.036353e+02	-1.998115e-03
1.042339e+02	-2.021258e-03
1.048360e+02	-2.044670e-03
1.054415e+02	-2.068352e-03
1.060505e+02	-2.092309e-03
1.066631e+02	-2.116543e-03
1.072791e+02	-2.141057e-03
1.078988e+02	-2.165856e-03
1.085220e+02	-2.190942e-03
1.091488e+02	-2.216318e-03
1.097793e+02	-2.241988e-03
1.104133e+02	-2.267955e-03
1.110511e+02	-2.294223e-03
1.116925e+02	-2.320795e-03
1.123376e+02	-2.347675e-03
1.129865e+02	-2.374866e-03
1.136391e+02	-2.402372e-03
1.142955e+02	-2.430196e-03
1.149556e+02	-2.458342e-03
1.156196e+02	-2.486815e-03
1.162874e+02	-2.515617e-03
1.169591e+02	-2.544752e-03
1.176347e+02	-2.574225e-03
1.183141e+02	-2.604039e-03
1.189975e+02	-2.634199e-03
1.196848e+02	-2.664707e-03
1.203761e+02	-2.695569e-03
1.210714e+02	-2.726788e-03
1.217707e+02	-2.758369e-03
1.224740e+02	-2.790315e-03
1.231814e+02	-2.822631e-03
1.238929e+02	-2.855321e-03
1.246085e+02	-2.888390e-03
1.253283e+02	-2.921841e-03
1.260522e+02	-2.955680e-03
1.267802e+02	-2.989910e-03
1.275125e+02	-3.024537e-03
1.282490e+02	-3.059565e-03
1.289898e+02	-3.094998e-03
1.297348e+02	-3.130842e-03
1.304842e+02	-3.167100e-03
1.312378e+02	-3.203778e-03
1.319959e+02	-3.240881e-03
1.327583e+02	-3.278413e-03
1.335251e+02	-3.316380e-03
1.342963e+02	-3.354786e-03
1.350720e+02	-3.393637e-03
1.358522e+02	-3.432938e-03
1.366368e+02	-3.472693e-03
1.374260e+02	-3.512909e-03
1.382198e+02	-3.553590e-03
1.390182e+02	-3.594742e-03
1.398211e+02	-3.636371e-03
1.406287e+02	-3.678481e-03
1.414410e+02	-3.721079e-03
1.422579e+02	-3.764170e-03
1.430796e+02	-3.807760e-03
1.439060e+02	-3.851854e-03
1.447372e+02	-3.896459e-03
1.455732e+02	-3.941580e-03
1.464141e+02	-3.987223e-03
1.472597e+02	-4.033395e-03
1.481103e+02	-4.080101e-03
1.489658e+02	-4.127347e-03
1.498262e+02	-4.175141e-03
1.506916e+02	-4.223487e-03
1.515620e+02	-4.272393e-03
1.524374e+02	-4.321865e-03
1.533179e+02	-4.371910e-03
1.542034e+02	-4.422534e-03
1.550941e+02	-4.473744e-03
1.559899e+02	-4.525546e-03
1.568909e+02	-4.577948e-03
1.577971e+02	-4.630956e-03
1.587085e+02	-4.684578e-03
1.596252e+02	-4.738821e-03
1.605472e+02	-4.793691e-03
1.614745e+02	-4.849196e-03
1.624072e+02	-4.905343e-03
1.633453e+02	-4.962140e-03
1.642887e+02	-5.019595e-03
1.652377e+02	-5.077714e-03
1.661921e+02	-5.136506e-03
1.671520e+02	-5.195978e-03
1.681175e+02	-5.256138e-03
1.690885e+02	-5.316994e-03
1.700651e+02	-5.378555e-03
1.710474e+02	-5.440828e-03
1.720354e+02	-5.503821e-03
1.730291e+02	-5.567543e-03
1.740285e+02	-5.632003e-03
1.750337e+02	-5.697208e-03
1.760446e+02	-5.763168e-03
1.770615e+02	-5.829891e-03
1.780842e+02	-5.897386e-03
1.791128e+02	-5.965661e-03
1.801473e+02	-6.034727e-03
1.811878e+02	-6.104591e-03
1.822344e+02	-6.175264e-03
1.832870e+02	-6.246755e-03
1.843456e+02	-6.319072e-03
1.854104e+02	-6.392226e-03
1.864813e+02	-6.466227e-03
1.875584e+02	-6.541083e-03
1.886418e+02	-6.616805e-03
1.897313e+02	-6.693403e-03
1.908272e+02	-6.770888e-03
1.919294e+02	-6.849268e-03
1.930380e+02	-6.928555e-03
1.941530e+02	-7.008759e-03
1.952744e+02	-7.089891e-03
1.964023e+02	-7.171961e-03
1.975367e+02	-7.254981e-03
1.986777e+02	-7.338960e-03
1.998252e+02	-7.423911e-03
2.009794e+02	-7.509845e-03
2.021403e+02	-7.596772e-03
2.033078e+02	-7.684704e-03
2.044821e+02	-7.773654e-03
2.056632e+02	-7.863632e-03
2.068511e+02	-7.954650e-03
2.080459e+02	-8.046721e-03
2.092475e+02	-8.139857e-03
2.104561e+02	-8.234070e-03
2.116717e+02	-8.329372e-03
2.128943e+02	-8.425776e-03
2.141240e+02	-8.523294e-03
2.153608e+02	-8.621941e-03
2.166047e+02	-8.721727e-03
2.178558e+02	-8.822668e-03
2.191141e+02	-8.924775e-03
2.203797e+02	-9.028063e-03
2.216526e+02	-9.132546e-03
2.229329e+02	-9.238236e-03
2.242205e+02	-9.345147e-03
2.255156e+02	-9.453295e-03
2.268182e+02	-9.562693e-03
2.281283e+02	-9.673355e-03
2.294459e+02	-9.785297e-03
2.307712e+02	-9.898533e-03
2.321041e+02	-1.001308e-02
2.334447e+02	-1.012895e-02
2.347931e+02	-1.024615e-02
2.361493e+02	-1.036472e-02
2.375133e+02	-1.048465e-02
2.388851e+02	-1.060597e-02
2.402649e+02	-1.072869e-02
2.416527e+02	-1.085283e-02
2.430484e+02	-1.097840e-02
2.444523e+02	-1.110542e-02
2.458642e+02	-1.123392e-02
2.472843e+02	-1.136389e-02
2.487126e+02	-1.149537e-02
2.501492e+02	-1.162837e-02
2.515940e+02	-1.176290e-02
2.530472e+02	-1.189899e-02
2.545088e+02	-1.203665e-02
2.559789e+02	-1.217591e-02
2.574574e+02	-1.231677e-02
2.589444e+02	-1.245925e-02
2.604401e+02	-1.260339e-02
2.619444e+02	-1.274919e-02
2.634574e+02	-1.289667e-02
2.649791e+02	-1.304585e-02
2.665096e+02	-1.319676e-02
2.680489e+02	-1.334942e-02
2.695972e+02	-1.350383e-02
2.711544e+02	-1.366003e-02
2.727205e+02	-1.381803e-02
2.742958e+02	-1.397786e-02
2.758801e+02	-1.413953e-02
2.774736e+02	-1.430307e-02
2.790762e+02	-1.446850e-02
2.806882e+02	-1.463584e-02
2.823094e+02	-1.480511e-02
2.839400e+02	-1.497633e-02
2.855800e+02	-1.514953e-02
2.872295e+02	-1.532473e-02
2.888886e+02	-1.550195e-02
2.905572e+02	-1.568122e-02
2.922354e+02	-1.586256e-02
2.939234e+02	-1.604599e-02
2.956211e+02	-1.623154e-02
2.973286e+02	-1.641923e-02
2.990459e+02	-1.660909e-02
3.007732e+02	-1.680113e-02
3.025104e+02	-1.699540e-02
3.042577e+02	-1.719190e-02
3.060151e+02	-1.739068e-02
3.077826e+02	-1.759174e-02
3.095604e+02	-1.779513e-02
3.113484e+02	-1.800086e-02
3.131467e+02	-1.820897e-02
3.149554e+02	-1.841947e-02
3.167746e+02	-1.863241e-02
3.186043e+02	-1.884780e-02
3.204445e+02	-1.906567e-02
3.222954e+02	-1.928606e-02
3.241570e+02	-1.950899e-02
3.260293e+02	-1.973449e-02
3.279124e+02	-1.996260e-02
3.298064e+02	-2.019333e-02
3.317114e+02	-2.042672e-02
3.336273e+02	-2.066281e-02
3.355544e+02	-2.090161e-02
3.374925e+02	-2.114317e-02
3.394418e+02	-2.138752e-02
3.414024e+02	-2.163468e-02
3.433744e+02	-2.188469e-02
3.453577e+02	-2.213758e-02
3.473525e+02	-2.239338e-02
3.493588e+02	-2.265214e-02
3.513766e+02	-2.291387e-02
3.534062e+02	-2.317863e-02
3.554474e+02	-2.344643e-02
3.575005e+02	-2.371732e-02
3.595654e+02	-2.399133e-02
3.616422e+02	-2.426850e-02
3.637311e+02	-2.454886e-02
3.658320e+02	-2.483244e-02
3.679450e+02	-2.511930e-02
3.700702e+02	-2.540946e-02
3.722077e+02	-2.570296e-02
3.743576e+02	-2.599984e-02
3.765199e+02	-2.630014e-02
3.786946e+02	-2.660390e-02
3.808820e+02	-2.691116e-02
3.830819e+02	-2.722195e-02
3.852946e+02	-2.753632e-02
3.875200e+02	-2.785431e-02
3.897583e+02	-2.817596e-02
3.920096e+02	-2.850131e-02
3.942738e+02	-2.883040e-02
3.965511e+02	-2.916329e-02
3.988416e+02	-2.950000e-02
4.011452e+02	-2.984059e-02
4.034622e+02	-3.018509e-02
4.057926e+02	-3.053356e-02
4.081365e+02	-3.088604e-02
4.104938e+02	-3.124257e-02
4.128648e+02	-3.160321e-02
4.152495e+02	-3.196799e-02
4.176480e+02	-3.233696e-02
4.200603e+02	-3.271018e-02
4.224866e+02	-3.308769e-02
4.249268e+02	-3.346954e-02
4.273812e+02	-3.385577e-02
4.298497e+02	-3.424645e-02
4.323325e+02	-3.464162e-02
4.348297e+02	-3.504133e-02
4.373412e+02	-3.544563e-02
4.398673e+02	-3.585458e-02
4.424079e+02	-3.626822e-02
4.449633e+02	-3.668662e-02
4.475334e+02	-3.710982e-02
4.501183e+02	-3.753789e-02
4.527182e+02	-3.797087e-02
4.553330e+02	-3.840882e-02
4.579630e+02	-3.885180e-02
4.606082e+02	-3.929987e-02
4.632687e+02	-3.975308e-02
4.659445e+02	-4.021149e-02
4.686358e+02	-4.067517e-02
4.713426e+02	-4.114416e-02
4.740650e+02	-4.161854e-02
4.768032e+02	-4.209836e-02
4.795572e+02	-4.258368e-02
4.823271e+02	-4.307458e-02
4.851130e+02	-4.357110e-02
4.879150e+02	-4.407331e-02
4.907332e+02	-4.458129e-02
4.935676e+02	-4.509509e-02
4.964185e+02	-4.561478e-02
4.992858e+02	-4.614042e-02
5.021696e+02	-4.667210e-02
5.050701e+02	-4.720986e-02
5.079874e+02	-4.775379e-02
5.109215e+02	-4.830394e-02
5.138726e+02	-4.886041e-02
5.168407e+02	-4.942324e-02
5.198259e+02	-4.999252e-02
5.228284e+02	-5.056832e-02
5.258482e+02	-5.115071e-02
5.288855e+02	-5.173977e-02
5.319403e+02	-5.233557e-02
5.350128e+02	-5.293819e-02
5.381030e+02	-5.354771e-02
5.412111e+02	-5.416420e-02
5.443371e+02	-5.478774e-02
5.474812e+02	-5.541842e-02
5.506434e+02	-5.605631e-02
5.538239e+02	-5.670149e-02
5.570228e+02	-5.735405e-02
5.602401e+02	-5.801407e-02
5.634760e+02	-5.868163e-02
5.667306e+02	-5.935682e-02
5.700040e+02	-6.003973e-02
5.732964e+02	-6.073044e-02
5.766077e+02	-6.142904e-02
5.799382e+02	-6.213561e-02
5.832879e+02	-6.285026e-02
5.866569e+02	-6.357306e-02
5.900454e+02	-6.430412e-02
5.934535e+02	-6.504352e-02
5.968813e+02	-6.579135e-02
6.003288e+02	-6.654772e-02
6.037963e+02	-6.731272e-02
6.072838e+02	-6.808644e-02
6.107914e+02	-6.886898e-02
6.143194e+02	-6.966044e-02
6.178676e+02	-7.046093e-02
6.214364e+02	-7.127054e-02
6.250258e+02	-7.208938e-02
6.286359e+02	-7.291754e-02
6.322669e+02	-7.375514e-02
6.359189e+02	-7.460227e-02
6.395919e+02	-7.545905e-02
6.432862e+02	-7.632558e-02
6.470017e+02	-7.720198e-02
6.507388e+02	-7.808835e-02
6.544974e+02	-7.898480e-02
6.582778e+02	-7.989145e-02
6.620800e+02	-8.080840e-02
6.659041e+02	-8.173579e-02
6.697504e+02	-8.267371e-02
6.736188e+02	-8.362229e-02
6.775096e+02	-8.458166e-02
6.814229e+02	-8.555191e-02
6.853587e+02	-8.653319e-02
6.893173e+02	-8.752561e-02
6.932988e+02	-8.852929e-02
6.973033e+02	-8.954437e-02
7.013309e+02	-9.057096e-02
