Frequency(Hz)	Magnitude(dB)
1.000000e+01	-2.249880e+00
1.005776e+01	-2.270295e+00
1.011585e+01	-2.290562e+00
1.017428e+01	-2.310941e+00
1.023305e+01	-2.331897e+00
1.029215e+01	-2.352768e+00
1.035160e+01	-2.373601e+00
1.041139e+01	-2.394901e+00
1.047153e+01	-2.416110e+00
1.053201e+01	-2.437569e+00
1.059284e+01	-2.458941e+00
1.065403e+01	-2.480811e+00
1.071556e+01	-2.502663e+00
1.077746e+01	-2.524462e+00
1.083971e+01	-2.546967e+00
1.090232e+01	-2.569116e+00
1.096529e+01	-2.591488e+00
1.102862e+01	-2.613930e+00
1.109232e+01	-2.636618e+00
1.115639e+01	-2.659364e+00
1.122083e+01	-2.682437e+00
1.128564e+01	-2.705613e+00
1.135083e+01	-2.728629e+00
1.141639e+01	-2.752361e+00
1.148233e+01	-2.775843e+00
1.154865e+01	-2.799659e+00
1.161536e+01	-2.823309e+00
1.168245e+01	-2.847136e+00
1.174992e+01	-2.871466e+00
1.181779e+01	-2.895616e+00
1.188605e+01	-2.919954e+00
1.195470e+01	-2.944774e+00
1.202375e+01	-2.969217e+00
1.209320e+01	-2.994256e+00
1.216305e+01	-3.019160e+00
1.223330e+01	-3.044495e+00
1.230396e+01	-3.069680e+00
1.237503e+01	-3.095217e+00
1.244651e+01	-3.120770e+00
1.251840e+01	-3.146444e+00
1.259070e+01	-3.172258e+00
1.266343e+01	-3.198230e+00
1.273657e+01	-3.224414e+00
1.281014e+01	-3.250606e+00
1.288413e+01	-3.277116e+00
1.295855e+01	-3.303702e+00
1.303339e+01	-3.330394e+00
1.310867e+01	-3.357307e+00
1.318439e+01	-3.384135e+00
1.326054e+01	-3.411673e+00
1.333713e+01	-3.438762e+00
1.341417e+01	-3.466146e+00
1.349165e+01	-3.493721e+00
1.356958e+01	-3.521397e+00
1.364795e+01	-3.548991e+00
1.372678e+01	-3.577264e+00
1.380607e+01	-3.605280e+00
1.388581e+01	-3.633723e+00
1.396602e+01	-3.662192e+00
1.404668e+01	-3.690683e+00
1.412782e+01	-3.719361e+00
1.420942e+01	-3.748441e+00
1.429149e+01	-3.777272e+00
1.437404e+01	-3.806397e+00
1.445706e+01	-3.835691e+00
1.454057e+01	-3.865130e+00
1.462455e+01	-3.894603e+00
1.470902e+01	-3.924231e+00
1.479398e+01	-3.954245e+00
1.487943e+01	-3.984142e+00
1.496537e+01	-4.014450e+00
1.505181e+01	-4.044295e+00
1.513875e+01	-4.074710e+00
1.522619e+01	-4.105245e+00
1.531414e+01	-4.136005e+00
1.540259e+01	-4.166762e+00
1.549156e+01	-4.197973e+00
1.558103e+01	-4.228639e+00
1.567103e+01	-4.260064e+00
1.576155e+01	-4.291361e+00
1.585258e+01	-4.322692e+00
1.594415e+01	-4.354448e+00
1.603624e+01	-4.386101e+00
1.612886e+01	-4.417837e+00
1.622202e+01	-4.449894e+00
1.631572e+01	-4.482132e+00
1.640996e+01	-4.514474e+00
1.650474e+01	-4.546944e+00
1.660008e+01	-4.578984e+00
1.669596e+01	-4.612152e+00
1.679239e+01	-4.644685e+00
1.688938e+01	-4.677805e+00
1.698694e+01	-4.710983e+00
1.708505e+01	-4.743970e+00
1.718373e+01	-4.777244e+00
1.728299e+01	-4.810787e+00
1.738281e+01	-4.844563e+00
1.748322e+01	-4.877848e+00
1.758420e+01	-4.911720e+00
1.768576e+01	-4.945827e+00
1.778792e+01	-4.979884e+00
1.789066e+01	-5.014255e+00
1.799399e+01	-5.048279e+00
1.809793e+01	-5.083011e+00
1.820246e+01	-5.117142e+00
1.830760e+01	-5.151735e+00
1.841334e+01	-5.186793e+00
1.851969e+01	-5.221728e+00
1.862666e+01	-5.256729e+00
1.873425e+01	-5.291892e+00
1.884246e+01	-5.327514e+00
1.895129e+01	-5.362743e+00
1.906075e+01	-5.398496e+00
1.917085e+01	-5.433759e+00
1.928158e+01	-5.469458e+00
1.939295e+01	-5.505290e+00
1.950496e+01	-5.541509e+00
1.961762e+01	-5.577746e+00
1.973093e+01	-5.613815e+00
1.984490e+01	-5.650463e+00
1.995952e+01	-5.686566e+00
2.007480e+01	-5.723588e+00
2.019076e+01	-5.760043e+00
2.030738e+01	-5.796964e+00
2.042467e+01	-5.833801e+00
2.054264e+01	-5.870684e+00
2.066130e+01	-5.907833e+00
2.078064e+01	-5.945335e+00
2.090066e+01	-5.982476e+00
2.102139e+01	-6.019939e+00
2.114280e+01	-6.057442e+00
2.126492e+01	-6.095405e+00
2.138775e+01	-6.133008e+00
2.151128e+01	-6.170974e+00
2.163553e+01	-6.208792e+00
2.176050e+01	-6.246786e+00
2.188619e+01	-6.285113e+00
2.201260e+01	-6.323274e+00
2.213974e+01	-6.361667e+00
2.226762e+01	-6.400117e+00
2.239624e+01	-6.438960e+00
2.252560e+01	-6.477894e+00
2.265571e+01	-6.516389e+00
2.278656e+01	-6.555344e+00
2.291818e+01	-6.594244e+00
2.305055e+01	-6.633449e+00
2.318369e+01	-6.673040e+00
2.331760e+01	-6.712249e+00
2.345228e+01	-6.751213e+00
2.358774e+01	-6.791212e+00
2.372398e+01	-6.830361e+00
2.386101e+01	-6.869910e+00
2.399883e+01	-6.909707e+00
2.413745e+01	-6.949662e+00
2.427686e+01	-6.989900e+00
2.441709e+01	-7.029731e+00
2.455812e+01	-7.070426e+00
2.469997e+01	-7.110235e+00
2.484263e+01	-7.150954e+00
2.498612e+01	-7.190769e+00
2.513044e+01	-7.231713e+00
2.527559e+01	-7.271979e+00
2.542158e+01	-7.312615e+00
2.556842e+01	-7.353613e+00
2.571610e+01	-7.394631e+00
2.586463e+01	-7.436083e+00
2.601403e+01	-7.476669e+00
2.616428e+01	-7.517686e+00
2.631541e+01	-7.559731e+00
2.646740e+01	-7.600281e+00
2.662028e+01	-7.641550e+00
2.677404e+01	-7.683070e+00
2.692868e+01	-7.724423e+00
2.708422e+01	-7.766538e+00
2.724066e+01	-7.808097e+00
2.739800e+01	-7.850085e+00
2.755625e+01	-7.891523e+00
2.771541e+01	-7.933692e+00
2.787550e+01	-7.975016e+00
2.803650e+01	-8.016964e+00
2.819844e+01	-8.059325e+00
2.836131e+01	-8.101820e+00
2.852513e+01	-8.144341e+00
2.868989e+01	-8.186510e+00
2.885560e+01	-8.229388e+00
2.902227e+01	-8.271672e+00
2.918990e+01	-8.314446e+00
2.935850e+01	-8.357343e+00
2.952807e+01	-8.399599e+00
2.969863e+01	-8.442223e+00
2.987016e+01	-8.485096e+00
3.004269e+01	-8.528537e+00
3.021622e+01	-8.571686e+00
3.039075e+01	-8.614846e+00
3.056628e+01	-8.657931e+00
3.074283e+01	-8.700783e+00
3.092040e+01	-8.744365e+00
3.109900e+01	-8.788298e+00
3.127862e+01	-8.830878e+00
3.145929e+01	-8.874575e+00
3.164099e+01	-8.918809e+00
3.182375e+01	-8.961595e+00
3.200756e+01	-9.005511e+00
3.219244e+01	-9.049196e+00
3.237838e+01	-9.093132e+00
3.256540e+01	-9.137093e+00
3.275349e+01	-9.180899e+00
3.294268e+01	-9.224814e+00
3.313295e+01	-9.268983e+00
3.332433e+01	-9.313355e+00
3.351681e+01	-9.357306e+00
3.371040e+01	-9.401735e+00
3.390511e+01	-9.445862e+00
3.410094e+01	-9.490485e+00
3.429791e+01	-9.534877e+00
3.449601e+01	-9.579296e+00
3.469526e+01	-9.623810e+00
3.489566e+01	-9.668877e+00
3.509721e+01	-9.713708e+00
3.529993e+01	-9.758056e+00
3.550382e+01	-9.802898e+00
3.570889e+01	-9.847581e+00
3.591515e+01	-9.892351e+00
3.612259e+01	-9.937535e+00
3.633123e+01	-9.981968e+00
3.654108e+01	-1.002716e+01
3.675214e+01	-1.007238e+01
3.696442e+01	-1.011752e+01
3.717792e+01	-1.016246e+01
3.739266e+01	-1.020792e+01
3.760864e+01	-1.025311e+01
3.782587e+01	-1.029845e+01
3.804435e+01	-1.034395e+01
3.826409e+01	-1.038942e+01
3.848510e+01	-1.043484e+01
3.870739e+01	-1.048058e+01
3.893096e+01	-1.052612e+01
3.915583e+01	-1.057127e+01
3.938199e+01	-1.061770e+01
3.960946e+01	-1.066280e+01
3.983824e+01	-1.070872e+01
4.006834e+01	-1.075361e+01
4.029978e+01	-1.079975e+01
4.053255e+01	-1.084620e+01
4.076666e+01	-1.089174e+01
4.100213e+01	-1.093817e+01
4.123896e+01	-1.098366e+01
4.147715e+01	-1.103087e+01
4.171672e+01	-1.107576e+01
4.195767e+01	-1.112208e+01
4.220002e+01	-1.116827e+01
4.244377e+01	-1.121504e+01
4.268892e+01	-1.126104e+01
4.293549e+01	-1.130759e+01
4.318348e+01	-1.135361e+01
4.343291e+01	-1.139992e+01
4.368377e+01	-1.144633e+01
4.393609e+01	-1.149247e+01
4.418986e+01	-1.153966e+01
4.444510e+01	-1.158651e+01
4.470182e+01	-1.163225e+01
4.496001e+01	-1.167898e+01
4.521970e+01	-1.172619e+01
4.548089e+01	-1.177277e+01
4.574358e+01	-1.181989e+01
4.600779e+01	-1.186622e+01
4.627353e+01	-1.191234e+01
4.654081e+01	-1.195947e+01
4.680963e+01	-1.200601e+01
4.708000e+01	-1.205314e+01
4.735193e+01	-1.210017e+01
4.762543e+01	-1.214683e+01
4.790051e+01	-1.219351e+01
4.817719e+01	-1.224129e+01
4.845545e+01	-1.228782e+01
4.873533e+01	-1.233605e+01
4.901682e+01	-1.238286e+01
4.929994e+01	-1.243005e+01
4.958470e+01	-1.247646e+01
4.987110e+01	-1.252396e+01
5.015915e+01	-1.257124e+01
5.044887e+01	-1.261856e+01
5.074026e+01	-1.266566e+01
5.103333e+01	-1.271268e+01
5.132810e+01	-1.276006e+01
5.162457e+01	-1.280889e+01
5.192275e+01	-1.285555e+01
5.222265e+01	-1.290304e+01
5.252429e+01	-1.295044e+01
5.282767e+01	-1.299745e+01
5.313280e+01	-1.304498e+01
5.343969e+01	-1.309297e+01
5.374836e+01	-1.314025e+01
5.405880e+01	-1.318860e+01
5.437105e+01	-1.323505e+01
5.468509e+01	-1.328396e+01
5.500095e+01	-1.333189e+01
5.531863e+01	-1.337947e+01
5.563815e+01	-1.342644e+01
5.595951e+01	-1.347366e+01
5.628273e+01	-1.352137e+01
5.660782e+01	-1.356998e+01
5.693479e+01	-1.361827e+01
5.726364e+01	-1.366556e+01
5.759439e+01	-1.371340e+01
5.792705e+01	-1.376084e+01
5.826164e+01	-1.380972e+01
5.859815e+01	-1.385761e+01
5.893662e+01	-1.390523e+01
5.927703e+01	-1.395403e+01
5.961941e+01	-1.400152e+01
5.996377e+01	-1.404981e+01
6.031012e+01	-1.409723e+01
6.065847e+01	-1.414567e+01
6.100883e+01	-1.419380e+01
6.136121e+01	-1.424175e+01
6.171563e+01	-1.429034e+01
6.207210e+01	-1.433778e+01
6.243063e+01	-1.438677e+01
6.279122e+01	-1.443494e+01
6.315390e+01	-1.448310e+01
6.351868e+01	-1.453076e+01
6.388556e+01	-1.457902e+01
6.425456e+01	-1.462733e+01
6.462569e+01	-1.467559e+01
6.499897e+01	-1.472375e+01
6.537440e+01	-1.477248e+01
6.575200e+01	-1.482042e+01
6.613178e+01	-1.486816e+01
6.651375e+01	-1.491750e+01
6.689793e+01	-1.496582e+01
6.728433e+01	-1.501498e+01
6.767297e+01	-1.506280e+01
6.806384e+01	-1.511072e+01
6.845698e+01	-1.516051e+01
6.885238e+01	-1.520843e+01
6.925007e+01	-1.525692e+01
6.965005e+01	-1.530602e+01
7.005235e+01	-1.535513e+01
7.045697e+01	-1.540339e+01
7.086393e+01	-1.545182e+01
7.127323e+01	-1.549965e+01
7.168490e+01	-1.554895e+01
7.209895e+01	-1.559737e+01
7.251539e+01	-1.564608e+01
7.293424e+01	-1.569477e+01
7.335551e+01	-1.574241e+01
7.377920e+01	-1.579065e+01
7.420535e+01	-1.584075e+01
7.463396e+01	-1.588987e+01
7.506504e+01	-1.593829e+01
7.549861e+01	-1.598684e+01
7.593469e+01	-1.603638e+01
7.637328e+01	-1.608406e+01
7.681441e+01	-1.613363e+01
7.725809e+01	-1.618188e+01
7.770433e+01	-1.623145e+01
7.815315e+01	-1.627966e+01
7.860456e+01	-1.632841e+01
7.905857e+01	-1.637817e+01
7.951521e+01	-1.642633e+01
7.997449e+01	-1.647481e+01
8.043642e+01	-1.652465e+01
8.090102e+01	-1.657267e+01
8.136830e+01	-1.662214e+01
8.183828e+01	-1.667130e+01
8.231097e+01	-1.672016e+01
8.278640e+01	-1.676992e+01
8.326457e+01	-1.681729e+01
8.374550e+01	-1.686702e+01
8.422921e+01	-1.691606e+01
8.471572e+01	-1.696551e+01
8.520503e+01	-1.701404e+01
8.569717e+01	-1.706248e+01
8.619215e+01	-1.711204e+01
8.669000e+01	-1.716234e+01
8.719071e+01	-1.721013e+01
8.769432e+01	-1.725923e+01
8.820084e+01	-1.730831e+01
8.871029e+01	-1.735786e+01
8.922267e+01	-1.740719e+01
8.973802e+01	-1.745602e+01
9.025634e+01	-1.750553e+01
9.077766e+01	-1.755441e+01
9.130199e+01	-1.760328e+01
9.182935e+01	-1.765307e+01
9.235975e+01	-1.770080e+01
9.289321e+01	-1.775017e+01
9.342976e+01	-1.779961e+01
9.396941e+01	-1.784804e+01
9.451217e+01	-1.789805e+01
9.505807e+01	-1.794778e+01
9.560712e+01	-1.799708e+01
9.615934e+01	-1.804632e+01
9.671476e+01	-1.809488e+01
9.727338e+01	-1.814501e+01
9.783522e+01	-1.819319e+01
9.840032e+01	-1.824405e+01
9.896867e+01	-1.829280e+01
9.954031e+01	-1.834079e+01
1.001153e+02	-1.839067e+01
1.006935e+02	-1.843895e+01
1.012751e+02	-1.848883e+01
1.018601e+02	-1.853913e+01
1.024484e+02	-1.858800e+01
1.030402e+02	-1.863810e+01
1.036353e+02	-1.868635e+01
1.042339e+02	-1.873680e+01
1.048360e+02	-1.878492e+01
1.054415e+02	-1.883496e+01
1.060505e+02	-1.888546e+01
1.066631e+02	-1.893203e+01
1.072791e+02	-1.898354e+01
1.078988e+02	-1.903330e+01
1.085220e+02	-1.908162e+01
1.091488e+02	-1.913145e+01
1.097793e+02	-1.918070e+01
1.104133e+02	-1.923032e+01
1.110511e+02	-1.927995e+01
1.116925e+02	-1.932999e+01
1.123376e+02	-1.937935e+01
1.129865e+02	-1.942864e+01
1.136391e+02	-1.947732e+01
1.142955e+02	-1.952605e+01
1.149556e+02	-1.957622e+01
1.156196e+02	-1.962525e+01
1.162874e+02	-1.967549e+01
1.169591e+02	-1.972391e+01
1.176347e+02	-1.977515e+01
1.183141e+02	-1.982412e+01
1.189975e+02	-1.987275e+01
1.196848e+02	-1.992319e+01
1.203761e+02	-1.997252e+01
1.210714e+02	-2.002178e+01
1.217707e+02	-2.007237e+01
1.224740e+02	-2.012174e+01
1.231814e+02	-2.017161e+01
1.238929e+02	-2.021931e+01
1.246085e+02	-2.027051e+01
1.253283e+02	-2.031948e+01
1.260522e+02	-2.036949e+01
1.267802e+02	-2.041951e+01
1.275125e+02	-2.046784e+01
1.282490e+02	-2.051873e+01
1.289898e+02	-2.056721e+01
1.297348e+02	-2.061640e+01
1.304842e+02	-2.066782e+01
1.312378e+02	-2.071803e+01
1.319959e+02	-2.076691e+01
1.327583e+02	-2.081742e+01
1.335251e+02	-2.086470e+01
1.342963e+02	-2.091598e+01
1.350720e+02	-2.096494e+01
1.358522e+02	-2.101425e+01
1.366368e+02	-2.106464e+01
1.374260e+02	-2.111311e+01
1.382198e+02	-2.116348e+01
1.390182e+02	-2.121173e+01
1.398211e+02	-2.126101e+01
1.406287e+02	-2.131224e+01
1.414410e+02	-2.136102e+01
1.422579e+02	-2.140998e+01
1.430796e+02	-2.146063e+01
1.439060e+02	-2.151224e+01
1.447372e+02	-2.155884e+01
1.455732e+02	-2.161018e+01
1.464141e+02	-2.165892e+01
1.472597e+02	-2.171014e+01
1.481103e+02	-2.175905e+01
1.489658e+02	-2.180956e+01
1.498262e+02	-2.185993e+01
1.506916e+02	-2.191014e+01
1.515620e+02	-2.195780e+01
1.524374e+02	-2.200825e+01
1.533179e+02	-2.205733e+01
1.542034e+02	-2.210571e+01
1.550941e+02	-2.215608e+01
1.559899e+02	-2.220728e+01
1.568909e+02	-2.225769e+01
1.577971e+02	-2.230633e+01
1.587085e+02	-2.235494e+01
1.596252e+02	-2.240589e+01
1.605472e+02	-2.245467e+01
1.614745e+02	-2.250436e+01
1.624072e+02	-2.255566e+01
1.633453e+02	-2.260517e+01
1.642887e+02	-2.265596e+01
1.652377e+02	-2.270537e+01
1.661921e+02	-2.275338e+01
1.671520e+02	-2.280533e+01
1.681175e+02	-2.285357e+01
1.690885e+02	-2.290401e+01
1.700651e+02	-2.295331e+01
1.710474e+02	-2.300410e+01
1.720354e+02	-2.305161e+01
1.730291e+02	-2.310228e+01
1.740285e+02	-2.315220e+01
1.750337e+02	-2.320275e+01
1.760446e+02	-2.324982e+01
1.770615e+02	-2.330104e+01
1.780842e+02	-2.335384e+01
1.791128e+02	-2.340110e+01
1.801473e+02	-2.345083e+01
1.811878e+02	-2.350095e+01
1.822344e+02	-2.355017e+01
1.832870e+02	-2.360188e+01
1.843456e+02	-2.365006e+01
1.854104e+02	-2.370087e+01
1.864813e+02	-2.375059e+01
1.875584e+02	-2.379998e+01
1.886418e+02	-2.384891e+01
1.897313e+02	-2.390165e+01
1.908272e+02	-2.395259e+01
1.919294e+02	-2.399899e+01
1.930380e+02	-2.405113e+01
1.941530e+02	-2.410188e+01
1.952744e+02	-2.414769e+01
1.964023e+02	-2.419891e+01
1.975367e+02	-2.425155e+01
1.986777e+02	-2.429600e+01
1.998252e+02	-2.434829e+01
2.009794e+02	-2.439742e+01
2.021403e+02	-2.444586e+01
2.033078e+02	-2.450127e+01
2.044821e+02	-2.454876e+01
2.056632e+02	-2.459755e+01
2.068511e+02	-2.464790e+01
2.080459e+02	-2.469788e+01
2.092475e+02	-2.475053e+01
2.104561e+02	-2.479742e+01
2.116717e+02	-2.484971e+01
2.128943e+02	-2.489497e+01
2.141240e+02	-2.494545e+01
2.153608e+02	-2.499795e+01
2.166047e+02	-2.504578e+01
2.178558e+02	-2.509691e+01
2.191141e+02	-2.514712e+01
2.203797e+02	-2.519770e+01
2.216526e+02	-2.524618e+01
2.229329e+02	-2.529945e+01
2.242205e+02	-2.534598e+01
2.255156e+02	-2.539589e+01
2.268182e+02	-2.544678e+01
2.281283e+02	-2.549795e+01
2.294459e+02	-2.554713e+01
2.307712e+02	-2.559724e+01
2.321041e+02	-2.564666e+01
2.334447e+02	-2.569517e+01
2.347931e+02	-2.574480e+01
2.361493e+02	-2.579927e+01
2.375133e+02	-2.584728e+01
2.388851e+02	-2.589647e+01
2.402649e+02	-2.594692e+01
2.416527e+02	-2.599677e+01
2.430484e+02	-2.604698e+01
2.444523e+02	-2.609586e+01
2.458642e+02	-2.614411e+01
2.472843e+02	-2.619460e+01
2.487126e+02	-2.624375e+01
2.501492e+02	-2.629625e+01
2.515940e+02	-2.634526e+01
2.530472e+02	-2.639547e+01
2.545088e+02	-2.644288e+01
2.559789e+02	-2.649694e+01
2.574574e+02	-2.654531e+01
2.589444e+02	-2.659357e+01
2.604401e+02	-2.664676e+01
2.619444e+02	-2.669425e+01
2.634574e+02	-2.674310e+01
2.649791e+02	-2.679299e+01
2.665096e+02	-2.684360e+01
2.680489e+02	-2.689580e+01
2.695972e+02	-2.694592e+01
2.711544e+02	-2.699665e+01
2.727205e+02	-2.704564e+01
2.742958e+02	-2.709489e+01
2.758801e+02	-2.714347e+01
2.774736e+02	-2.719755e+01
2.790762e+02	-2.724484e+01
2.806882e+02	-2.729440e+01
2.823094e+02	-2.734613e+01
2.839400e+02	-2.739467e+01
2.855800e+02	-2.744631e+01
2.872295e+02	-2.749672e+01
2.888886e+02	-2.754392e+01
2.905572e+02	-2.759789e+01
2.922354e+02	-2.764637e+01
2.939234e+02	-2.769268e+01
2.956211e+02	-2.774595e+01
2.973286e+02	-2.779464e+01
2.990459e+02	-2.784963e+01
3.007732e+02	-2.789907e+01
3.025104e+02	-2.794683e+01
3.042577e+02	-2.799273e+01
3.060151e+02	-2.804601e+01
3.077826e+02	-2.809372e+01
3.095604e+02	-2.814306e+01
3.113484e+02	-2.819121e+01
3.131467e+02	-2.824312e+01
3.149554e+02	-2.829782e+01
3.167746e+02	-2.834622e+01
3.186043e+02	-2.839691e+01
3.204445e+02	-2.844267e+01
3.222954e+02	-2.849324e+01
3.241570e+02	-2.854375e+01
3.260293e+02	-2.859209e+01
3.279124e+02	-2.864349e+01
3.298064e+02	-2.869663e+01
3.317114e+02	-2.874489e+01
3.336273e+02	-2.879372e+01
3.355544e+02	-2.884499e+01
3.374925e+02	-2.889610e+01
3.394418e+02	-2.895098e+01
3.414024e+02	-2.899182e+01
3.433744e+02	-2.905062e+01
3.453577e+02	-2.909971e+01
3.473525e+02	-2.915195e+01
3.493588e+02	-2.919720e+01
3.513766e+02	-2.924178e+01
3.534062e+02	-2.929460e+01
3.554474e+02	-2.935164e+01
3.575005e+02	-2.939901e+01
3.595654e+02	-2.945012e+01
3.616422e+02	-2.949815e+01
3.637311e+02	-2.954644e+01
3.658320e+02	-2.958900e+01
3.679450e+02	-2.964585e+01
3.700702e+02	-2.969392e+01
3.722077e+02	-2.974867e+01
3.743576e+02	-2.980000e+01
3.765199e+02	-2.984631e+01
3.786946e+02	-2.989795e+01
3.808820e+02	-2.994349e+01
3.830819e+02	-3.000022e+01
3.852946e+02	-3.005192e+01
3.875200e+02	-3.009146e+01
3.897583e+02	-3.014246e+01
3.920096e+02	-3.020044e+01
3.942738e+02	-3.025081e+01
3.965511e+02	-3.030157e+01
3.988416e+02	-3.034430e+01
4.011452e+02	-3.040080e+01
4.034622e+02	-3.044935e+01
4.057926e+02	-3.050389e+01
4.081365e+02	-3.055325e+01
4.104938e+02	-3.059818e+01
4.128648e+02	-3.065213e+01
4.152495e+02	-3.069538e+01
4.176480e+02	-3.074713e+01
4.200603e+02	-3.079517e+01
4.224866e+02	-3.084671e+01
4.249268e+02	-3.089889e+01
4.273812e+02	-3.094935e+01
4.298497e+02	-3.099977e+01
4.323325e+02	-3.104713e+01
4.348297e+02	-3.109641e+01
4.373412e+02	-3.115188e+01
4.398673e+02	-3.120201e+01
4.424079e+02	-3.125230e+01
4.449633e+02	-3.129817e+01
4.475334e+02	-3.135259e+01
4.501183e+02	-3.140247e+01
4.527182e+02	-3.145456e+01
4.553330e+02	-3.150072e+01
4.579630e+02	-3.155087e+01
4.606082e+02	-3.160549e+01
4.632687e+02	-3.165219e+01
4.659445e+02	-3.170257e+01
4.686358e+02	-3.175761e+01
4.713426e+02	-3.179966e+01
4.740650e+02	-3.185745e+01
4.768032e+02	-3.190794e+01
4.795572e+02	-3.195275e+01
4.823271e+02	-3.199798e+01
4.851130e+02	-3.205212e+01
4.879150e+02	-3.210281e+01
4.907332e+02	-3.215131e+01
4.935676e+02	-3.220040e+01
4.964185e+02	-3.226068e+01
4.992858e+02	-3.229334e+01
5.021696e+02	-3.236323e+01
5.050701e+02	-3.240102e+01
5.079874e+02	-3.245930e+01
5.109215e+02	-3.250739e+01
5.138726e+02	-3.255676e+01
5.168407e+02	-3.260566e+01
5.198259e+02	-3.265514e+01
5.228284e+02	-3.271001e+01
5.258482e+02	-3.275465e+01
5.288855e+02	-3.280700e+01
5.319403e+02	-3.285899e+01
5.350128e+02	-3.290599e+01
5.381030e+02	-3.296038e+01
5.412111e+02	-3.300157e+01
5.443371e+02	-3.306091e+01
5.474812e+02	-3.311144e+01
5.506434e+02	-3.315851e+01
5.538239e+02	-3.320642e+01
5.570228e+02	-3.326227e+01
5.602401e+02	-3.331242e+01
5.634760e+02	-3.335306e+01
5.667306e+02	-3.340827e+01
5.700040e+02	-3.346043e+01
5.732964e+02	-3.350950e+01
5.766077e+02	-3.355423e+01
5.799382e+02	-3.360812e+01
5.832879e+02	-3.365948e+01
5.866569e+02	-3.371739e+01
5.900454e+02	-3.376012e+01
5.934535e+02	-3.380351e+01
5.968813e+02	-3.386177e+01
6.003288e+02	-3.392249e+01
6.037963e+02	-3.396671e+01
6.072838e+02	-3.400793e+01
6.107914e+02	-3.406813e+01
6.143194e+02	-3.411598e+01
6.178676e+02	-3.416540e+01
6.214364e+02	-3.420604e+01
6.250258e+02	-3.425873e+01
6.286359e+02	-3.430977e+01
6.322669e+02	-3.437347e+01
6.359189e+02	-3.441474e+01
6.395919e+02	-3.445874e+01
6.432862e+02	-3.451550e+01
6.470017e+02	-3.455951e+01
6.507388e+02	-3.462333e+01
6.544974e+02	-3.466945e+01
6.582778e+02	-3.472140e+01
6.620800e+02	-3.477005e+01
6.659041e+02	-3.482062e+01
6.697504e+02	-3.486005e+01
6.736188e+02	-3.491464e+01
6.775096e+02	-3.496668e+01
6.814229e+02	-3.502253e+01
6.853587e+02	-3.507713e+01
6.893173e+02	-3.511695e+01
6.932988e+02	-3.517605e+01
6.973033e+02	-3.521900e+01
7.013309e+02	-3.527533e+01
