Frequency(Hz)	Magnitude(dB)
1.000000e+01	-2.010222e+00
1.005776e+01	-2.028754e+00
1.011585e+01	-2.047553e+00
1.017428e+01	-2.066173e+00
1.023305e+01	-2.085515e+00
1.029215e+01	-2.104415e+00
1.035160e+01	-2.123694e+00
1.041139e+01	-2.143077e+00
1.047153e+01	-2.162800e+00
1.053201e+01	-2.182438e+00
1.059284e+01	-2.202331e+00
1.065403e+01	-2.222217e+00
1.071556e+01	-2.242421e+00
1.077746e+01	-2.262601e+00
1.083971e+01	-2.282990e+00
1.090232e+01	-2.303475e+00
1.096529e+01	-2.324039e+00
1.102862e+01	-2.344948e+00
1.109232e+01	-2.365859e+00
1.115639e+01	-2.386982e+00
1.122083e+01	-2.408334e+00
1.128564e+01	-2.429463e+00
1.135083e+01	-2.451306e+00
1.141639e+01	-2.472537e+00
1.148233e+01	-2.494542e+00
1.154865e+01	-2.516351e+00
1.161536e+01	-2.538534e+00
1.168245e+01	-2.560578e+00
1.174992e+01	-2.582953e+00
1.181779e+01	-2.605559e+00
1.188605e+01	-2.628353e+00
1.195470e+01	-2.650926e+00
1.202375e+01	-2.674110e+00
1.209320e+01	-2.697064e+00
1.216305e+01	-2.720334e+00
1.223330e+01	-2.743547e+00
1.230396e+01	-2.767059e+00
1.237503e+01	-2.790424e+00
1.244651e+01	-2.814422e+00
1.251840e+01	-2.838430e+00
1.259070e+01	-2.862442e+00
1.266343e+01	-2.886666e+00
1.273657e+01	-2.911152e+00
1.281014e+01	-2.935473e+00
1.288413e+01	-2.960294e+00
1.295855e+01	-2.984820e+00
1.303339e+01	-3.009916e+00
1.310867e+01	-3.034989e+00
1.318439e+01	-3.060595e+00
1.326054e+01	-3.085595e+00
1.333713e+01	-3.111117e+00
1.341417e+01	-3.136618e+00
1.349165e+01	-3.162549e+00
1.356958e+01	-3.188728e+00
1.364795e+01	-3.214616e+00
1.372678e+01	-3.241016e+00
1.380607e+01	-3.267282e+00
1.388581e+01	-3.293932e+00
1.396602e+01	-3.320311e+00
1.404668e+01	-3.347368e+00
1.412782e+01	-3.374267e+00
1.420942e+01	-3.401358e+00
1.429149e+01	-3.428444e+00
1.437404e+01	-3.455967e+00
1.445706e+01	-3.483491e+00
1.454057e+01	-3.511083e+00
1.462455e+01	-3.538719e+00
1.470902e+01	-3.566827e+00
1.479398e+01	-3.594862e+00
1.487943e+01	-3.623362e+00
1.496537e+01	-3.651671e+00
1.505181e+01	-3.680144e+00
1.513875e+01	-3.708913e+00
1.522619e+01	-3.737578e+00
1.531414e+01	-3.766380e+00
1.540259e+01	-3.795541e+00
1.549156e+01	-3.824895e+00
1.558103e+01	-3.854221e+00
1.567103e+01	-3.883423e+00
1.576155e+01	-3.913150e+00
1.585258e+01	-3.943134e+00
1.594415e+01	-3.973210e+00
1.603624e+01	-4.003180e+00
1.612886e+01	-4.033314e+00
1.622202e+01	-4.063763e+00
1.631572e+01	-4.094188e+00
1.640996e+01	-4.124776e+00
1.650474e+01	-4.155159e+00
1.660008e+01	-4.186232e+00
1.669596e+01	-4.217507e+00
1.679239e+01	-4.248435e+00
1.688938e+01	-4.279851e+00
1.698694e+01	-4.311364e+00
1.708505e+01	-4.342744e+00
1.718373e+01	-4.374204e+00
1.728299e+01	-4.405810e+00
1.738281e+01	-4.438108e+00
1.748322e+01	-4.470261e+00
1.758420e+01	-4.502725e+00
1.768576e+01	-4.534746e+00
1.778792e+01	-4.567478e+00
1.789066e+01	-4.599918e+00
1.799399e+01	-4.632530e+00
1.809793e+01	-4.665296e+00
1.820246e+01	-4.698468e+00
1.830760e+01	-4.731712e+00
1.841334e+01	-4.765121e+00
1.851969e+01	-4.798323e+00
1.862666e+01	-4.832043e+00
1.873425e+01	-4.865337e+00
1.884246e+01	-4.899327e+00
1.895129e+01	-4.933017e+00
1.906075e+01	-4.967089e+00
1.917085e+01	-5.001239e+00
1.928158e+01	-5.035449e+00
1.939295e+01	-5.069844e+00
1.950496e+01	-5.104343e+00
1.961762e+01	-5.138794e+00
1.973093e+01	-5.173811e+00
1.984490e+01	-5.208952e+00
1.995952e+01	-5.243972e+00
2.007480e+01	-5.278972e+00
2.019076e+01	-5.314129e+00
2.030738e+01	-5.349726e+00
2.042467e+01	-5.385110e+00
2.054264e+01	-5.420714e+00
2.066130e+01	-5.456511e+00
2.078064e+01	-5.492111e+00
2.090066e+01	-5.528113e+00
2.102139e+01	-5.564036e+00
2.114280e+01	-5.600443e+00
2.126492e+01	-5.636750e+00
2.138775e+01	-5.673141e+00
2.151128e+01	-5.709769e+00
2.163553e+01	-5.746268e+00
2.176050e+01	-5.783261e+00
2.188619e+01	-5.819869e+00
2.201260e+01	-5.857217e+00
2.213974e+01	-5.894178e+00
2.226762e+01	-5.931110e+00
2.239624e+01	-5.968477e+00
2.252560e+01	-6.005901e+00
2.265571e+01	-6.043614e+00
2.278656e+01	-6.081252e+00
2.291818e+01	-6.118850e+00
2.305055e+01	-6.156589e+00
2.318369e+01	-6.194791e+00
2.331760e+01	-6.232815e+00
2.345228e+01	-6.271060e+00
2.358774e+01	-6.309378e+00
2.372398e+01	-6.347648e+00
2.386101e+01	-6.386429e+00
2.399883e+01	-6.425008e+00
2.413745e+01	-6.463359e+00
2.427686e+01	-6.501886e+00
2.441709e+01	-6.541447e+00
2.455812e+01	-6.580087e+00
2.469997e+01	-6.618710e+00
2.484263e+01	-6.658452e+00
2.498612e+01	-6.697241e+00
2.513044e+01	-6.736744e+00
2.527559e+01	-6.776342e+00
2.542158e+01	-6.816005e+00
2.556842e+01	-6.855653e+00
2.571610e+01	-6.895312e+00
2.586463e+01	-6.935096e+00
2.601403e+01	-6.975358e+00
2.616428e+01	-7.015424e+00
2.631541e+01	-7.055448e+00
2.646740e+01	-7.095112e+00
2.662028e+01	-7.135783e+00
2.677404e+01	-7.176450e+00
2.692868e+01	-7.216506e+00
2.708422e+01	-7.257100e+00
2.724066e+01	-7.297954e+00
2.739800e+01	-7.338600e+00
2.755625e+01	-7.379945e+00
2.771541e+01	-7.420372e+00
2.787550e+01	-7.461457e+00
2.803650e+01	-7.502593e+00
2.819844e+01	-7.543574e+00
2.836131e+01	-7.585170e+00
2.852513e+01	-7.626404e+00
2.868989e+01	-7.668034e+00
2.885560e+01	-7.708755e+00
2.902227e+01	-7.751034e+00
2.918990e+01	-7.792789e+00
2.935850e+01	-7.834042e+00
2.952807e+01	-7.876244e+00
2.969863e+01	-7.917941e+00
2.987016e+01	-7.959805e+00
3.004269e+01	-8.002275e+00
3.021622e+01	-8.044194e+00
3.039075e+01	-8.086200e+00
3.056628e+01	-8.128502e+00
3.074283e+01	-8.170778e+00
3.092040e+01	-8.213574e+00
3.109900e+01	-8.256236e+00
3.127862e+01	-8.299051e+00
3.145929e+01	-8.341294e+00
3.164099e+01	-8.383748e+00
3.182375e+01	-8.426530e+00
3.200756e+01	-8.469745e+00
3.219244e+01	-8.512541e+00
3.237838e+01	-8.555523e+00
3.256540e+01	-8.598639e+00
3.275349e+01	-8.641732e+00
3.294268e+01	-8.685115e+00
3.313295e+01	-8.728526e+00
3.332433e+01	-8.771611e+00
3.351681e+01	-8.815265e+00
3.371040e+01	-8.858647e+00
3.390511e+01	-8.901866e+00
3.410094e+01	-8.945582e+00
3.429791e+01	-8.989704e+00
3.449601e+01	-9.032736e+00
3.469526e+01	-9.077158e+00
3.489566e+01	-9.120729e+00
3.509721e+01	-9.164678e+00
3.529993e+01	-9.208757e+00
3.550382e+01	-9.253097e+00
3.570889e+01	-9.297512e+00
3.591515e+01	-9.341356e+00
3.612259e+01	-9.385445e+00
3.633123e+01	-9.429881e+00
3.654108e+01	-9.473869e+00
3.675214e+01	-9.518710e+00
3.696442e+01	-9.562816e+00
3.717792e+01	-9.607256e+00
3.739266e+01	-9.652227e+00
3.760864e+01	-9.696654e+00
3.782587e+01	-9.741793e+00
3.804435e+01	-9.786031e+00
3.826409e+01	-9.831084e+00
3.848510e+01	-9.875499e+00
3.870739e+01	-9.920642e+00
3.893096e+01	-9.965764e+00
3.915583e+01	-1.001039e+01
3.938199e+01	-1.005579e+01
3.960946e+01	-1.010105e+01
3.983824e+01	-1.014645e+01
4.006834e+01	-1.019104e+01
4.029978e+01	-1.023638e+01
4.053255e+01	-1.028177e+01
4.076666e+01	-1.032770e+01
4.100213e+01	-1.037284e+01
4.123896e+01	-1.041861e+01
4.147715e+01	-1.046363e+01
4.171672e+01	-1.050897e+01
4.195767e+01	-1.055452e+01
4.220002e+01	-1.059991e+01
4.244377e+01	-1.064596e+01
4.268892e+01	-1.069155e+01
4.293549e+01	-1.073696e+01
4.318348e+01	-1.078311e+01
4.343291e+01	-1.082935e+01
4.368377e+01	-1.087535e+01
4.393609e+01	-1.092117e+01
4.418986e+01	-1.096687e+01
4.444510e+01	-1.101303e+01
4.470182e+01	-1.105898e+01
4.496001e+01	-1.110490e+01
4.521970e+01	-1.115196e+01
4.548089e+01	-1.119758e+01
4.574358e+01	-1.124338e+01
4.600779e+01	-1.128996e+01
4.627353e+01	-1.133674e+01
4.654081e+01	-1.138306e+01
4.680963e+01	-1.142945e+01
4.708000e+01	-1.147594e+01
4.735193e+01	-1.152248e+01
4.762543e+01	-1.156851e+01
4.790051e+01	-1.161520e+01
4.817719e+01	-1.166173e+01
4.845545e+01	-1.170863e+01
4.873533e+01	-1.175550e+01
4.901682e+01	-1.180167e+01
4.929994e+01	-1.184887e+01
4.958470e+01	-1.189600e+01
4.987110e+01	-1.194242e+01
5.015915e+01	-1.198878e+01
5.044887e+01	-1.203575e+01
5.074026e+01	-1.208323e+01
5.103333e+01	-1.213016e+01
5.132810e+01	-1.217733e+01
5.162457e+01	-1.222326e+01
5.192275e+01	-1.227057e+01
5.222265e+01	-1.231783e+01
5.252429e+01	-1.236448e+01
5.282767e+01	-1.241271e+01
5.313280e+01	-1.245920e+01
5.343969e+01	-1.250663e+01
5.374836e+01	-1.255360e+01
5.405880e+01	-1.260140e+01
5.437105e+01	-1.264820e+01
5.468509e+01	-1.269599e+01
5.500095e+01	-1.274302e+01
5.531863e+01	-1.279119e+01
5.563815e+01	-1.283773e+01
5.595951e+01	-1.288466e+01
5.628273e+01	-1.293320e+01
5.660782e+01	-1.298030e+01
5.693479e+01	-1.302822e+01
5.726364e+01	-1.307633e+01
5.759439e+01	-1.312216e+01
5.792705e+01	-1.317049e+01
5.826164e+01	-1.321800e+01
5.859815e+01	-1.326555e+01
5.893662e+01	-1.331393e+01
5.927703e+01	-1.336034e+01
5.961941e+01	-1.340870e+01
5.996377e+01	-1.345682e+01
6.031012e+01	-1.350443e+01
6.065847e+01	-1.355227e+01
6.100883e+01	-1.360022e+01
6.136121e+01	-1.364800e+01
6.171563e+01	-1.369611e+01
6.207210e+01	-1.374408e+01
6.243063e+01	-1.379093e+01
6.279122e+01	-1.383985e+01
6.315390e+01	-1.388811e+01
6.351868e+01	-1.393597e+01
6.388556e+01	-1.398352e+01
6.425456e+01	-1.403187e+01
6.462569e+01	-1.407937e+01
6.499897e+01	-1.412843e+01
6.537440e+01	-1.417569e+01
6.575200e+01	-1.422378e+01
6.613178e+01	-1.427256e+01
6.651375e+01	-1.432089e+01
6.689793e+01	-1.436892e+01
6.728433e+01	-1.441655e+01
6.767297e+01	-1.446489e+01
6.806384e+01	-1.451394e+01
6.845698e+01	-1.456150e+01
6.885238e+01	-1.460970e+01
6.925007e+01	-1.465893e+01
6.965005e+01	-1.470621e+01
7.005235e+01	-1.475474e+01
7.045697e+01	-1.480319e+01
7.086393e+01	-1.485084e+01
7.127323e+01	-1.490081e+01
7.168490e+01	-1.494788e+01
7.209895e+01	-1.499665e+01
7.251539e+01	-1.504496e+01
7.293424e+01	-1.509423e+01
7.335551e+01	-1.514248e+01
7.377920e+01	-1.519025e+01
7.420535e+01	-1.523960e+01
7.463396e+01	-1.528832e+01
7.506504e+01	-1.533581e+01
7.549861e+01	-1.538497e+01
7.593469e+01	-1.543412e+01
7.637328e+01	-1.548168e+01
7.681441e+01	-1.553021e+01
7.725809e+01	-1.557926e+01
7.770433e+01	-1.562773e+01
7.815315e+01	-1.567669e+01
7.860456e+01	-1.572544e+01
7.905857e+01	-1.577434e+01
7.951521e+01	-1.582287e+01
7.997449e+01	-1.587174e+01
8.043642e+01	-1.591995e+01
8.090102e+01	-1.596947e+01
8.136830e+01	-1.601829e+01
8.183828e+01	-1.606699e+01
8.231097e+01	-1.611653e+01
8.278640e+01	-1.616369e+01
8.326457e+01	-1.621332e+01
8.374550e+01	-1.626211e+01
8.422921e+01	-1.631044e+01
8.471572e+01	-1.635993e+01
8.520503e+01	-1.640861e+01
8.569717e+01	-1.645724e+01
8.619215e+01	-1.650625e+01
8.669000e+01	-1.655476e+01
8.719071e+01	-1.660377e+01
8.769432e+01	-1.665221e+01
8.820084e+01	-1.670191e+01
8.871029e+01	-1.675116e+01
8.922267e+01	-1.679933e+01
8.973802e+01	-1.684841e+01
9.025634e+01	-1.689674e+01
9.077766e+01	-1.694656e+01
9.130199e+01	-1.699609e+01
9.182935e+01	-1.704432e+01
9.235975e+01	-1.709426e+01
9.289321e+01	-1.714199e+01
9.342976e+01	-1.719250e+01
9.396941e+01	-1.724234e+01
9.451217e+01	-1.729001e+01
9.505807e+01	-1.733933e+01
9.560712e+01	-1.738951e+01
9.615934e+01	-1.743830e+01
9.671476e+01	-1.748719e+01
9.727338e+01	-1.753498e+01
9.783522e+01	-1.758412e+01
9.840032e+01	-1.763377e+01
9.896867e+01	-1.768272e+01
9.954031e+01	-1.773264e+01
1.001153e+02	-1.778251e+01
1.006935e+02	-1.783098e+01
1.012751e+02	-1.788104e+01
1.018601e+02	-1.792998e+01
1.024484e+02	-1.797917e+01
1.030402e+02	-1.802796e+01
1.036353e+02	-1.807744e+01
1.042339e+02	-1.812591e+01
1.048360e+02	-1.817504e+01
1.054415e+02	-1.822586e+01
1.060505e+02	-1.827401e+01
1.066631e+02	-1.832285e+01
1.072791e+02	-1.837325e+01
1.078988e+02	-1.842195e+01
1.085220e+02	-1.847196e+01
1.091488e+02	-1.852080e+01
1.097793e+02	-1.856977e+01
1.104133e+02	-1.861921e+01
1.110511e+02	-1.866844e+01
1.116925e+02	-1.871805e+01
1.123376e+02	-1.876683e+01
1.129865e+02	-1.881629e+01
1.136391e+02	-1.886594e+01
1.142955e+02	-1.891594e+01
1.149556e+02	-1.896464e+01
1.156196e+02	-1.901479e+01
1.162874e+02	-1.906280e+01
1.169591e+02	-1.911355e+01
1.176347e+02	-1.916323e+01
1.183141e+02	-1.921241e+01
1.189975e+02	-1.926216e+01
1.196848e+02	-1.931167e+01
1.203761e+02	-1.936162e+01
1.210714e+02	-1.940962e+01
1.217707e+02	-1.945937e+01
1.224740e+02	-1.950798e+01
1.231814e+02	-1.955807e+01
1.238929e+02	-1.960791e+01
1.246085e+02	-1.965679e+01
1.253283e+02	-1.970765e+01
1.260522e+02	-1.975543e+01
1.267802e+02	-1.980731e+01
1.275125e+02	-1.985638e+01
1.282490e+02	-1.990663e+01
1.289898e+02	-1.995438e+01
1.297348e+02	-2.000331e+01
1.304842e+02	-2.005274e+01
1.312378e+02	-2.010314e+01
1.319959e+02	-2.015318e+01
1.327583e+02	-2.020387e+01
1.335251e+02	-2.025243e+01
1.342963e+02	-2.029981e+01
1.350720e+02	-2.035076e+01
1.358522e+02	-2.040220e+01
1.366368e+02	-2.044996e+01
1.374260e+02	-2.049982e+01
1.382198e+02	-2.055150e+01
1.390182e+02	-2.059931e+01
1.398211e+02	-2.064931e+01
1.406287e+02	-2.070040e+01
1.414410e+02	-2.074696e+01
1.422579e+02	-2.079640e+01
1.430796e+02	-2.084776e+01
1.439060e+02	-2.089719e+01
1.447372e+02	-2.094649e+01
1.455732e+02	-2.099380e+01
1.464141e+02	-2.104716e+01
1.472597e+02	-2.109519e+01
1.481103e+02	-2.114465e+01
1.489658e+02	-2.119393e+01
1.498262e+02	-2.124411e+01
1.506916e+02	-2.129450e+01
1.515620e+02	-2.134244e+01
1.524374e+02	-2.139407e+01
1.533179e+02	-2.144364e+01
1.542034e+02	-2.149325e+01
1.550941e+02	-2.154100e+01
1.559899e+02	-2.159309e+01
1.568909e+02	-2.164169e+01
1.577971e+02	-2.169082e+01
1.587085e+02	-2.174115e+01
1.596252e+02	-2.178967e+01
1.605472e+02	-2.184111e+01
1.614745e+02	-2.189104e+01
1.624072e+02	-2.194112e+01
1.633453e+02	-2.199018e+01
1.642887e+02	-2.203809e+01
1.652377e+02	-2.208699e+01
1.661921e+02	-2.213848e+01
1.671520e+02	-2.218686e+01
1.681175e+02	-2.223912e+01
1.690885e+02	-2.228880e+01
1.700651e+02	-2.233849e+01
1.710474e+02	-2.238694e+01
1.720354e+02	-2.243723e+01
1.730291e+02	-2.248666e+01
1.740285e+02	-2.253702e+01
1.750337e+02	-2.258472e+01
1.760446e+02	-2.263426e+01
1.770615e+02	-2.268707e+01
1.780842e+02	-2.273397e+01
1.791128e+02	-2.278508e+01
1.801473e+02	-2.283515e+01
1.811878e+02	-2.288327e+01
1.822344e+02	-2.293746e+01
1.832870e+02	-2.298462e+01
1.843456e+02	-2.303523e+01
1.854104e+02	-2.308699e+01
1.864813e+02	-2.313671e+01
1.875584e+02	-2.318474e+01
1.886418e+02	-2.323517e+01
1.897313e+02	-2.328590e+01
1.908272e+02	-2.333400e+01
1.919294e+02	-2.338490e+01
1.930380e+02	-2.343294e+01
1.941530e+02	-2.348197e+01
1.952744e+02	-2.353195e+01
1.964023e+02	-2.358367e+01
1.975367e+02	-2.363324e+01
1.986777e+02	-2.368012e+01
1.998252e+02	-2.373388e+01
2.009794e+02	-2.378224e+01
2.021403e+02	-2.383280e+01
2.033078e+02	-2.388205e+01
2.044821e+02	-2.393362e+01
2.056632e+02	-2.398282e+01
2.068511e+02	-2.403100e+01
2.080459e+02	-2.408006e+01
2.092475e+02	-2.413149e+01
2.104561e+02	-2.418233e+01
2.116717e+02	-2.422986e+01
2.128943e+02	-2.428298e+01
2.141240e+02	-2.433435e+01
2.153608e+02	-2.437994e+01
2.166047e+02	-2.443015e+01
2.178558e+02	-2.448271e+01
2.191141e+02	-2.453137e+01
2.203797e+02	-2.458052e+01
2.216526e+02	-2.462840e+01
2.229329e+02	-2.468013e+01
2.242205e+02	-2.473049e+01
2.255156e+02	-2.477811e+01
2.268182e+02	-2.482872e+01
2.281283e+02	-2.488043e+01
2.294459e+02	-2.492973e+01
2.307712e+02	-2.498075e+01
2.321041e+02	-2.503120e+01
2.334447e+02	-2.507974e+01
2.347931e+02	-2.512837e+01
2.361493e+02	-2.517899e+01
2.375133e+02	-2.522878e+01
2.388851e+02	-2.527670e+01
2.402649e+02	-2.532997e+01
2.416527e+02	-2.537817e+01
2.430484e+02	-2.542763e+01
2.444523e+02	-2.547807e+01
2.458642e+02	-2.552583e+01
2.472843e+02	-2.557947e+01
2.487126e+02	-2.562762e+01
2.501492e+02	-2.567726e+01
2.515940e+02	-2.572851e+01
2.530472e+02	-2.578015e+01
2.545088e+02	-2.582667e+01
2.559789e+02	-2.587884e+01
2.574574e+02	-2.592753e+01
2.589444e+02	-2.597922e+01
2.604401e+02	-2.602854e+01
2.619444e+02	-2.607500e+01
2.634574e+02	-2.612791e+01
2.649791e+02	-2.617866e+01
2.665096e+02	-2.622797e+01
2.680489e+02	-2.627878e+01
2.695972e+02	-2.632632e+01
2.711544e+02	-2.638059e+01
2.727205e+02	-2.642724e+01
2.742958e+02	-2.647740e+01
2.758801e+02	-2.652806e+01
2.774736e+02	-2.657724e+01
2.790762e+02	-2.662944e+01
2.806882e+02	-2.667269e+01
2.823094e+02	-2.672510e+01
2.839400e+02	-2.677740e+01
2.855800e+02	-2.682858e+01
2.872295e+02	-2.687612e+01
2.888886e+02	-2.692947e+01
2.905572e+02	-2.697462e+01
2.922354e+02	-2.702497e+01
2.939234e+02	-2.707591e+01
2.956211e+02	-2.712644e+01
2.973286e+02	-2.717693e+01
2.990459e+02	-2.722923e+01
3.007732e+02	-2.727724e+01
3.025104e+02	-2.732991e+01
3.042577e+02	-2.738073e+01
3.060151e+02	-2.742706e+01
3.077826e+02	-2.747393e+01
3.095604e+02	-2.752777e+01
3.113484e+02	-2.757495e+01
3.131467e+02	-2.763001e+01
3.149554e+02	-2.767659e+01
3.167746e+02	-2.772788e+01
3.186043e+02	-2.777736e+01
3.204445e+02	-2.783006e+01
3.222954e+02	-2.787884e+01
3.241570e+02	-2.792821e+01
3.260293e+02	-2.797789e+01
3.279124e+02	-2.802942e+01
3.298064e+02	-2.807455e+01
3.317114e+02	-2.812733e+01
3.336273e+02	-2.817929e+01
3.355544e+02	-2.822644e+01
3.374925e+02	-2.827849e+01
3.394418e+02	-2.832593e+01
3.414024e+02	-2.837611e+01
3.433744e+02	-2.842712e+01
3.453577e+02	-2.847553e+01
3.473525e+02	-2.853221e+01
3.493588e+02	-2.858020e+01
3.513766e+02	-2.862677e+01
3.534062e+02	-2.868148e+01
3.554474e+02	-2.872858e+01
3.575005e+02	-2.877894e+01
3.595654e+02	-2.883209e+01
3.616422e+02	-2.888128e+01
3.637311e+02	-2.892842e+01
3.658320e+02	-2.897979e+01
3.679450e+02	-2.902872e+01
3.700702e+02	-2.907385e+01
3.722077e+02	-2.912690e+01
3.743576e+02	-2.918041e+01
3.765199e+02	-2.923119e+01
3.786946e+02	-2.927495e+01
3.808820e+02	-2.933322e+01
3.830819e+02	-2.937823e+01
3.852946e+02	-2.942440e+01
3.875200e+02	-2.948074e+01
3.897583e+02	-2.952914e+01
3.920096e+02	-2.957624e+01
3.942738e+02	-2.963411e+01
3.965511e+02	-2.968307e+01
3.988416e+02	-2.972645e+01
4.011452e+02	-2.977598e+01
4.034622e+02	-2.982970e+01
4.057926e+02	-2.988371e+01
4.081365e+02	-2.992932e+01
4.104938e+02	-2.997611e+01
4.128648e+02	-3.002603e+01
4.152495e+02	-3.008111e+01
4.176480e+02	-3.012936e+01
4.200603e+02	-3.018094e+01
4.224866e+02	-3.023112e+01
4.249268e+02	-3.027811e+01
4.273812e+02	-3.032910e+01
4.298497e+02	-3.038287e+01
4.323325e+02	-3.043000e+01
4.348297e+02	-3.048228e+01
4.373412e+02	-3.053392e+01
4.398673e+02	-3.058372e+01
4.424079e+02	-3.062812e+01
4.449633e+02	-3.067952e+01
4.475334e+02	-3.073318e+01
4.501183e+02	-3.077857e+01
4.527182e+02	-3.083463e+01
4.553330e+02	-3.088717e+01
4.579630e+02	-3.093482e+01
4.606082e+02	-3.098603e+01
4.632687e+02	-3.103173e+01
4.659445e+02	-3.108329e+01
4.686358e+02	-3.113558e+01
4.713426e+02	-3.118380e+01
4.740650e+02	-3.123362e+01
4.768032e+02	-3.128158e+01
4.795572e+02	-3.133858e+01
4.823271e+02	-3.138683e+01
4.851130e+02	-3.143372e+01
4.879150e+02	-3.148684e+01
4.907332e+02	-3.153700e+01
4.935676e+02	-3.158585e+01
4.964185e+02	-3.162949e+01
4.992858e+02	-3.168461e+01
5.021696e+02	-3.173737e+01
5.050701e+02	-3.178696e+01
5.079874e+02	-3.183688e+01
5.109215e+02	-3.188576e+01
5.138726e+02	-3.194238e+01
5.168407e+02	-3.198838e+01
5.198259e+02	-3.203961e+01
5.228284e+02	-3.208667e+01
5.258482e+02	-3.213486e+01
5.288855e+02	-3.219184e+01
5.319403e+02	-3.223338e+01
5.350128e+02	-3.228605e+01
5.381030e+02	-3.233462e+01
5.412111e+02	-3.238281e+01
5.443371e+02	-3.243451e+01
5.474812e+02	-3.248917e+01
5.506434e+02	-3.253490e+01
5.538239e+02	-3.258936e+01
5.570228e+02	-3.264063e+01
5.602401e+02	-3.269112e+01
5.634760e+02	-3.274228e+01
5.667306e+02	-3.280133e+01
5.700040e+02	-3.284499e+01
5.732964e+02	-3.289409e+01
5.766077e+02	-3.294093e+01
5.799382e+02	-3.299340e+01
5.832879e+02	-3.304274e+01
5.866569e+02	-3.309319e+01
5.900454e+02	-3.314164e+01
5.934535e+02	-3.320104e+01
5.968813e+02	-3.324348e+01
6.003288e+02	-3.329420e+01
6.037963e+02	-3.333666e+01
6.072838e+02	-3.339075e+01
6.107914e+02	-3.344606e+01
6.143194e+02	-3.349381e+01
6.178676e+02	-3.354591e+01
6.214364e+02	-3.359597e+01
6.250258e+02	-3.364097e+01
6.286359e+02	-3.368947e+01
6.322669e+02	-3.374641e+01
6.359189e+02	-3.380054e+01
6.395919e+02	-3.384842e+01
6.432862e+02	-3.389778e+01
6.470017e+02	-3.394974e+01
6.507388e+02	-3.400013e+01
6.544974e+02	-3.404748e+01
6.582778e+02	-3.409624e+01
6.620800e+02	-3.414783e+01
6.659041e+02	-3.420831e+01
6.697504e+02	-3.424961e+01
6.736188e+02	-3.429347e+01
6.775096e+02	-3.435502e+01
6.814229e+02	-3.440292e+01
6.853587e+02	-3.444973e+01
6.893173e+02	-3.449826e+01
6.932988e+02	-3.455638e+01
6.973033e+02	-3.460152e+01
7.013309e+02	-3.465201e+01
