Frequency(Hz)	Magnitude(dB)
1.000000e+01	-2.202711e+00
1.005776e+01	-2.222641e+00
1.011585e+01	-2.242806e+00
1.017428e+01	-2.262948e+00
1.023305e+01	-2.283581e+00
1.029215e+01	-2.304291e+00
1.035160e+01	-2.324682e+00
1.041139e+01	-2.345371e+00
1.047153e+01	-2.366430e+00
1.053201e+01	-2.387689e+00
1.059284e+01	-2.408879e+00
1.065403e+01	-2.430132e+00
1.071556e+01	-2.451518e+00
1.077746e+01	-2.473267e+00
1.083971e+01	-2.495007e+00
1.090232e+01	-2.517134e+00
1.096529e+01	-2.539248e+00
1.102862e+01	-2.561208e+00
1.109232e+01	-2.583555e+00
1.115639e+01	-2.606151e+00
1.122083e+01	-2.628763e+00
1.128564e+01	-2.651499e+00
1.135083e+01	-2.674600e+00
1.141639e+01	-2.697658e+00
1.148233e+01	-2.720762e+00
1.154865e+01	-2.744043e+00
1.161536e+01	-2.767638e+00
1.168245e+01	-2.791393e+00
1.174992e+01	-2.815278e+00
1.181779e+01	-2.838949e+00
1.188605e+01	-2.863172e+00
1.195470e+01	-2.887352e+00
1.202375e+01	-2.911733e+00
1.209320e+01	-2.936276e+00
1.216305e+01	-2.960922e+00
1.223330e+01	-2.985522e+00
1.230396e+01	-3.010683e+00
1.237503e+01	-3.035678e+00
1.244651e+01	-3.060891e+00
1.251840e+01	-3.086611e+00
1.259070e+01	-3.111676e+00
1.266343e+01	-3.137433e+00
1.273657e+01	-3.163141e+00
1.281014e+01	-3.189231e+00
1.288413e+01	-3.215228e+00
1.295855e+01	-3.241542e+00
1.303339e+01	-3.268133e+00
1.310867e+01	-3.294500e+00
1.318439e+01	-3.320981e+00
1.326054e+01	-3.347859e+00
1.333713e+01	-3.374759e+00
1.341417e+01	-3.402179e+00
1.349165e+01	-3.429065e+00
1.356958e+01	-3.456999e+00
1.364795e+01	-3.484030e+00
1.372678e+01	-3.511619e+00
1.380607e+01	-3.539597e+00
1.388581e+01	-3.567487e+00
1.396602e+01	-3.595590e+00
1.404668e+01	-3.623728e+00
1.412782e+01	-3.652251e+00
1.420942e+01	-3.680599e+00
1.429149e+01	-3.709589e+00
1.437404e+01	-3.738436e+00
1.445706e+01	-3.767190e+00
1.454057e+01	-3.796505e+00
1.462455e+01	-3.825794e+00
1.470902e+01	-3.854997e+00
1.479398e+01	-3.884313e+00
1.487943e+01	-3.913976e+00
1.496537e+01	-3.943961e+00
1.505181e+01	-3.973857e+00
1.513875e+01	-4.003605e+00
1.522619e+01	-4.034111e+00
1.531414e+01	-4.064533e+00
1.540259e+01	-4.095121e+00
1.549156e+01	-4.125506e+00
1.558103e+01	-4.156053e+00
1.567103e+01	-4.186920e+00
1.576155e+01	-4.218038e+00
1.585258e+01	-4.249450e+00
1.594415e+01	-4.280663e+00
1.603624e+01	-4.311894e+00
1.612886e+01	-4.343514e+00
1.622202e+01	-4.374947e+00
1.631572e+01	-4.406974e+00
1.640996e+01	-4.438775e+00
1.650474e+01	-4.471090e+00
1.660008e+01	-4.503382e+00
1.669596e+01	-4.535639e+00
1.679239e+01	-4.568046e+00
1.688938e+01	-4.600922e+00
1.698694e+01	-4.633245e+00
1.708505e+01	-4.666350e+00
1.718373e+01	-4.699266e+00
1.728299e+01	-4.732368e+00
1.738281e+01	-4.765670e+00
1.748322e+01	-4.799115e+00
1.758420e+01	-4.832775e+00
1.768576e+01	-4.866353e+00
1.778792e+01	-4.899859e+00
1.789066e+01	-4.934333e+00
1.799399e+01	-4.968113e+00
1.809793e+01	-5.002177e+00
1.820246e+01	-5.036372e+00
1.830760e+01	-5.070791e+00
1.841334e+01	-5.105488e+00
1.851969e+01	-5.140161e+00
1.862666e+01	-5.174769e+00
1.873425e+01	-5.209638e+00
1.884246e+01	-5.244787e+00
1.895129e+01	-5.280045e+00
1.906075e+01	-5.314768e+00
1.917085e+01	-5.350699e+00
1.928158e+01	-5.385747e+00
1.939295e+01	-5.421283e+00
1.950496e+01	-5.457206e+00
1.961762e+01	-5.493173e+00
1.973093e+01	-5.529056e+00
1.984490e+01	-5.565460e+00
1.995952e+01	-5.601612e+00
2.007480e+01	-5.637841e+00
2.019076e+01	-5.674072e+00
2.030738e+01	-5.710817e+00
2.042467e+01	-5.747116e+00
2.054264e+01	-5.783990e+00
2.066130e+01	-5.820947e+00
2.078064e+01	-5.858110e+00
2.090066e+01	-5.894745e+00
2.102139e+01	-5.932211e+00
2.114280e+01	-5.969591e+00
2.126492e+01	-6.006849e+00
2.138775e+01	-6.044602e+00
2.151128e+01	-6.082224e+00
2.163553e+01	-6.119959e+00
2.176050e+01	-6.157745e+00
2.188619e+01	-6.196022e+00
2.201260e+01	-6.233775e+00
2.213974e+01	-6.271794e+00
2.226762e+01	-6.310204e+00
2.239624e+01	-6.348467e+00
2.252560e+01	-6.387308e+00
2.265571e+01	-6.425830e+00
2.278656e+01	-6.464271e+00
2.291818e+01	-6.502960e+00
2.305055e+01	-6.542212e+00
2.318369e+01	-6.581385e+00
2.331760e+01	-6.620076e+00
2.345228e+01	-6.659177e+00
2.358774e+01	-6.698152e+00
2.372398e+01	-6.738089e+00
2.386101e+01	-6.777107e+00
2.399883e+01	-6.816822e+00
2.413745e+01	-6.856762e+00
2.427686e+01	-6.896115e+00
2.441709e+01	-6.936407e+00
2.455812e+01	-6.976351e+00
2.469997e+01	-7.016231e+00
2.484263e+01	-7.056803e+00
2.498612e+01	-7.096490e+00
2.513044e+01	-7.136804e+00
2.527559e+01	-7.177317e+00
2.542158e+01	-7.217716e+00
2.556842e+01	-7.258370e+00
2.571610e+01	-7.298870e+00
2.586463e+01	-7.339695e+00
2.601403e+01	-7.380929e+00
2.616428e+01	-7.421578e+00
2.631541e+01	-7.462500e+00
2.646740e+01	-7.503826e+00
2.662028e+01	-7.544654e+00
2.677404e+01	-7.585860e+00
2.692868e+01	-7.627286e+00
2.708422e+01	-7.668826e+00
2.724066e+01	-7.710362e+00
2.739800e+01	-7.752020e+00
2.755625e+01	-7.793834e+00
2.771541e+01	-7.835246e+00
2.787550e+01	-7.877205e+00
2.803650e+01	-7.918919e+00
2.819844e+01	-7.961157e+00
2.836131e+01	-8.003106e+00
2.852513e+01	-8.045085e+00
2.868989e+01	-8.087466e+00
2.885560e+01	-8.129964e+00
2.902227e+01	-8.172256e+00
2.918990e+01	-8.214332e+00
2.935850e+01	-8.257624e+00
2.952807e+01	-8.299363e+00
2.969863e+01	-8.341943e+00
2.987016e+01	-8.385063e+00
3.004269e+01	-8.427826e+00
3.021622e+01	-8.471119e+00
3.039075e+01	-8.513263e+00
3.056628e+01	-8.557018e+00
3.074283e+01	-8.599840e+00
3.092040e+01	-8.642857e+00
3.109900e+01	-8.686552e+00
3.127862e+01	-8.729339e+00
3.145929e+01	-8.773142e+00
3.164099e+01	-8.816481e+00
3.182375e+01	-8.859545e+00
3.200756e+01	-8.902992e+00
3.219244e+01	-8.946683e+00
3.237838e+01	-8.990807e+00
3.256540e+01	-9.034612e+00
3.275349e+01	-9.078199e+00
3.294268e+01	-9.121944e+00
3.313295e+01	-9.165928e+00
3.332433e+01	-9.209562e+00
3.351681e+01	-9.254152e+00
3.371040e+01	-9.298199e+00
3.390511e+01	-9.342369e+00
3.410094e+01	-9.386187e+00
3.429791e+01	-9.430830e+00
3.449601e+01	-9.475175e+00
3.469526e+01	-9.519056e+00
3.489566e+01	-9.564207e+00
3.509721e+01	-9.608668e+00
3.529993e+01	-9.653558e+00
3.550382e+01	-9.697358e+00
3.570889e+01	-9.743037e+00
3.591515e+01	-9.787500e+00
3.612259e+01	-9.832292e+00
3.633123e+01	-9.876639e+00
3.654108e+01	-9.921822e+00
3.675214e+01	-9.966551e+00
3.696442e+01	-1.001199e+01
3.717792e+01	-1.005674e+01
3.739266e+01	-1.010217e+01
3.760864e+01	-1.014687e+01
3.782587e+01	-1.019195e+01
3.804435e+01	-1.023780e+01
3.826409e+01	-1.028289e+01
3.848510e+01	-1.032859e+01
3.870739e+01	-1.037350e+01
3.893096e+01	-1.041933e+01
3.915583e+01	-1.046492e+01
3.938199e+01	-1.051025e+01
3.960946e+01	-1.055589e+01
3.983824e+01	-1.060120e+01
4.006834e+01	-1.064743e+01
4.029978e+01	-1.069248e+01
4.053255e+01	-1.073866e+01
4.076666e+01	-1.078451e+01
4.100213e+01	-1.083031e+01
4.123896e+01	-1.087665e+01
4.147715e+01	-1.092181e+01
4.171672e+01	-1.096835e+01
4.195767e+01	-1.101443e+01
4.220002e+01	-1.106012e+01
4.244377e+01	-1.110623e+01
4.268892e+01	-1.115277e+01
4.293549e+01	-1.119921e+01
4.318348e+01	-1.124472e+01
4.343291e+01	-1.129162e+01
4.368377e+01	-1.133806e+01
4.393609e+01	-1.138434e+01
4.418986e+01	-1.143066e+01
4.444510e+01	-1.147718e+01
4.470182e+01	-1.152324e+01
4.496001e+01	-1.156990e+01
4.521970e+01	-1.161641e+01
4.548089e+01	-1.166305e+01
4.574358e+01	-1.170960e+01
4.600779e+01	-1.175631e+01
4.627353e+01	-1.180360e+01
4.654081e+01	-1.185005e+01
4.680963e+01	-1.189666e+01
4.708000e+01	-1.194354e+01
4.735193e+01	-1.199032e+01
4.762543e+01	-1.203744e+01
4.790051e+01	-1.208427e+01
4.817719e+01	-1.213071e+01
4.845545e+01	-1.217774e+01
4.873533e+01	-1.222528e+01
4.901682e+01	-1.227191e+01
4.929994e+01	-1.231915e+01
4.958470e+01	-1.236601e+01
4.987110e+01	-1.241266e+01
5.015915e+01	-1.246080e+01
5.044887e+01	-1.250803e+01
5.074026e+01	-1.255515e+01
5.103333e+01	-1.260247e+01
5.132810e+01	-1.264915e+01
5.162457e+01	-1.269705e+01
5.192275e+01	-1.274425e+01
5.222265e+01	-1.279108e+01
5.252429e+01	-1.283988e+01
5.282767e+01	-1.288622e+01
5.313280e+01	-1.293437e+01
5.343969e+01	-1.298151e+01
5.374836e+01	-1.302846e+01
5.405880e+01	-1.307607e+01
5.437105e+01	-1.312388e+01
5.468509e+01	-1.317194e+01
5.500095e+01	-1.321915e+01
5.531863e+01	-1.326714e+01
5.563815e+01	-1.331445e+01
5.595951e+01	-1.336272e+01
5.628273e+01	-1.340982e+01
5.660782e+01	-1.345812e+01
5.693479e+01	-1.350526e+01
5.726364e+01	-1.355379e+01
5.759439e+01	-1.360088e+01
5.792705e+01	-1.364949e+01
5.826164e+01	-1.369730e+01
5.859815e+01	-1.374443e+01
5.893662e+01	-1.379334e+01
5.927703e+01	-1.384090e+01
5.961941e+01	-1.388888e+01
5.996377e+01	-1.393682e+01
6.031012e+01	-1.398504e+01
6.065847e+01	-1.403310e+01
6.100883e+01	-1.408179e+01
6.136121e+01	-1.412823e+01
6.171563e+01	-1.417752e+01
6.207210e+01	-1.422570e+01
6.243063e+01	-1.427291e+01
6.279122e+01	-1.432121e+01
6.315390e+01	-1.436964e+01
6.351868e+01	-1.441756e+01
6.388556e+01	-1.446573e+01
6.425456e+01	-1.451464e+01
6.462569e+01	-1.456229e+01
6.499897e+01	-1.461097e+01
6.537440e+01	-1.465968e+01
6.575200e+01	-1.470747e+01
6.613178e+01	-1.475466e+01
6.651375e+01	-1.480409e+01
6.689793e+01	-1.485258e+01
6.728433e+01	-1.490117e+01
6.767297e+01	-1.494977e+01
6.806384e+01	-1.499792e+01
6.845698e+01	-1.504571e+01
6.885238e+01	-1.509555e+01
6.925007e+01	-1.514391e+01
6.965005e+01	-1.519189e+01
7.005235e+01	-1.524039e+01
7.045697e+01	-1.528817e+01
7.086393e+01	-1.533802e+01
7.127323e+01	-1.538524e+01
7.168490e+01	-1.543506e+01
7.209895e+01	-1.548341e+01
7.251539e+01	-1.553126e+01
7.293424e+01	-1.558018e+01
7.335551e+01	-1.562882e+01
7.377920e+01	-1.567783e+01
7.420535e+01	-1.572649e+01
7.463396e+01	-1.577504e+01
7.506504e+01	-1.582370e+01
7.549861e+01	-1.587168e+01
7.593469e+01	-1.592112e+01
7.637328e+01	-1.597004e+01
7.681441e+01	-1.601831e+01
7.725809e+01	-1.606746e+01
7.770433e+01	-1.611733e+01
7.815315e+01	-1.616539e+01
7.860456e+01	-1.621430e+01
7.905857e+01	-1.626349e+01
7.951521e+01	-1.631220e+01
7.997449e+01	-1.636130e+01
8.043642e+01	-1.640963e+01
8.090102e+01	-1.645850e+01
8.136830e+01	-1.650649e+01
8.183828e+01	-1.655649e+01
8.231097e+01	-1.660582e+01
8.278640e+01	-1.665324e+01
8.326457e+01	-1.670370e+01
8.374550e+01	-1.675118e+01
8.422921e+01	-1.680141e+01
8.471572e+01	-1.684874e+01
8.520503e+01	-1.690030e+01
8.569717e+01	-1.694798e+01
8.619215e+01	-1.699623e+01
8.669000e+01	-1.704709e+01
8.719071e+01	-1.709559e+01
8.769432e+01	-1.714343e+01
8.820084e+01	-1.719236e+01
8.871029e+01	-1.724168e+01
8.922267e+01	-1.729188e+01
8.973802e+01	-1.734201e+01
9.025634e+01	-1.739042e+01
9.077766e+01	-1.743837e+01
9.130199e+01	-1.748792e+01
9.182935e+01	-1.753807e+01
9.235975e+01	-1.758706e+01
9.289321e+01	-1.763607e+01
9.342976e+01	-1.768439e+01
9.396941e+01	-1.773372e+01
9.451217e+01	-1.778267e+01
9.505807e+01	-1.783247e+01
9.560712e+01	-1.788073e+01
9.615934e+01	-1.793160e+01
9.671476e+01	-1.797886e+01
9.727338e+01	-1.802687e+01
9.783522e+01	-1.807867e+01
9.840032e+01	-1.812736e+01
9.896867e+01	-1.817740e+01
9.954031e+01	-1.822750e+01
1.001153e+02	-1.827479e+01
1.006935e+02	-1.832439e+01
1.012751e+02	-1.837373e+01
1.018601e+02	-1.842367e+01
1.024484e+02	-1.847245e+01
1.030402e+02	-1.852217e+01
1.036353e+02	-1.857109e+01
1.042339e+02	-1.862115e+01
1.048360e+02	-1.867034e+01
1.054415e+02	-1.871845e+01
1.060505e+02	-1.876897e+01
1.066631e+02	-1.881694e+01
1.072791e+02	-1.886754e+01
1.078988e+02	-1.891703e+01
1.085220e+02	-1.896713e+01
1.091488e+02	-1.901619e+01
1.097793e+02	-1.906435e+01
1.104133e+02	-1.911483e+01
1.110511e+02	-1.916542e+01
1.116925e+02	-1.921332e+01
1.123376e+02	-1.926397e+01
1.129865e+02	-1.931174e+01
1.136391e+02	-1.936149e+01
1.142955e+02	-1.941052e+01
1.149556e+02	-1.946048e+01
1.156196e+02	-1.951025e+01
1.162874e+02	-1.955898e+01
1.169591e+02	-1.960908e+01
1.176347e+02	-1.965822e+01
1.183141e+02	-1.970939e+01
1.189975e+02	-1.975569e+01
1.196848e+02	-1.980593e+01
1.203761e+02	-1.985691e+01
1.210714e+02	-1.990588e+01
1.217707e+02	-1.995592e+01
1.224740e+02	-2.000600e+01
1.231814e+02	-2.005492e+01
1.238929e+02	-2.010294e+01
1.246085e+02	-2.015397e+01
1.253283e+02	-2.020256e+01
1.260522e+02	-2.025220e+01
1.267802e+02	-2.030310e+01
1.275125e+02	-2.035062e+01
1.282490e+02	-2.040119e+01
1.289898e+02	-2.045169e+01
1.297348e+02	-2.049948e+01
1.304842e+02	-2.054993e+01
1.312378e+02	-2.060176e+01
1.319959e+02	-2.064927e+01
1.327583e+02	-2.069901e+01
1.335251e+02	-2.074864e+01
1.342963e+02	-2.079810e+01
1.350720e+02	-2.084708e+01
1.358522e+02	-2.089702e+01
1.366368e+02	-2.094557e+01
1.374260e+02	-2.099792e+01
1.382198e+02	-2.104626e+01
1.390182e+02	-2.109667e+01
1.398211e+02	-2.114843e+01
1.406287e+02	-2.119454e+01
1.414410e+02	-2.124581e+01
1.422579e+02	-2.129423e+01
1.430796e+02	-2.134519e+01
1.439060e+02	-2.139411e+01
1.447372e+02	-2.144324e+01
1.455732e+02	-2.149378e+01
1.464141e+02	-2.154339e+01
1.472597e+02	-2.159235e+01
1.481103e+02	-2.164231e+01
1.489658e+02	-2.169097e+01
1.498262e+02	-2.174279e+01
1.506916e+02	-2.179298e+01
1.515620e+02	-2.184072e+01
1.524374e+02	-2.189000e+01
1.533179e+02	-2.194140e+01
1.542034e+02	-2.198959e+01
1.550941e+02	-2.204093e+01
1.559899e+02	-2.209059e+01
1.568909e+02	-2.214086e+01
1.577971e+02	-2.218780e+01
1.587085e+02	-2.223675e+01
1.596252e+02	-2.228974e+01
1.605472e+02	-2.233922e+01
1.614745e+02	-2.238949e+01
1.624072e+02	-2.243807e+01
1.633453e+02	-2.248711e+01
1.642887e+02	-2.253810e+01
1.652377e+02	-2.258746e+01
1.661921e+02	-2.263934e+01
1.671520e+02	-2.268745e+01
1.681175e+02	-2.273640e+01
1.690885e+02	-2.278734e+01
1.700651e+02	-2.283838e+01
1.710474e+02	-2.288631e+01
1.720354e+02	-2.293355e+01
1.730291e+02	-2.298482e+01
1.740285e+02	-2.303642e+01
1.750337e+02	-2.308509e+01
1.760446e+02	-2.313620e+01
1.770615e+02	-2.318398e+01
1.780842e+02	-2.323562e+01
1.791128e+02	-2.328200e+01
1.801473e+02	-2.333687e+01
1.811878e+02	-2.338268e+01
1.822344e+02	-2.343623e+01
1.832870e+02	-2.348423e+01
1.843456e+02	-2.353375e+01
1.854104e+02	-2.358410e+01
1.864813e+02	-2.363418e+01
1.875584e+02	-2.368250e+01
1.886418e+02	-2.373323e+01
1.897313e+02	-2.378262e+01
1.908272e+02	-2.383311e+01
1.919294e+02	-2.388367e+01
1.930380e+02	-2.393364e+01
1.941530e+02	-2.398256e+01
1.952744e+02	-2.403139e+01
1.964023e+02	-2.408273e+01
1.975367e+02	-2.413159e+01
1.986777e+02	-2.418096e+01
1.998252e+02	-2.423330e+01
2.009794e+02	-2.428066e+01
2.021403e+02	-2.433101e+01
2.033078e+02	-2.438090e+01
2.044821e+02	-2.442926e+01
2.056632e+02	-2.448000e+01
2.068511e+02	-2.452961e+01
2.080459e+02	-2.457973e+01
2.092475e+02	-2.463091e+01
2.104561e+02	-2.468121e+01
2.116717e+02	-2.472991e+01
2.128943e+02	-2.477908e+01
2.141240e+02	-2.483263e+01
2.153608e+02	-2.487999e+01
2.166047e+02	-2.493165e+01
2.178558e+02	-2.497754e+01
2.191141e+02	-2.503072e+01
2.203797e+02	-2.508110e+01
2.216526e+02	-2.513161e+01
2.229329e+02	-2.518320e+01
2.242205e+02	-2.523084e+01
2.255156e+02	-2.528051e+01
2.268182e+02	-2.532763e+01
2.281283e+02	-2.538231e+01
2.294459e+02	-2.542776e+01
2.307712e+02	-2.547688e+01
2.321041e+02	-2.552909e+01
2.334447e+02	-2.558038e+01
2.347931e+02	-2.563109e+01
2.361493e+02	-2.568094e+01
2.375133e+02	-2.572781e+01
2.388851e+02	-2.577851e+01
2.402649e+02	-2.583325e+01
2.416527e+02	-2.587838e+01
2.430484e+02	-2.592603e+01
2.444523e+02	-2.598015e+01
2.458642e+02	-2.602805e+01
2.472843e+02	-2.608188e+01
2.487126e+02	-2.613166e+01
2.501492e+02	-2.617601e+01
2.515940e+02	-2.623053e+01
2.530472e+02	-2.628108e+01
2.545088e+02	-2.632917e+01
2.559789e+02	-2.637777e+01
2.574574e+02	-2.643066e+01
2.589444e+02	-2.647838e+01
2.604401e+02	-2.652889e+01
2.619444e+02	-2.657831e+01
2.634574e+02	-2.662801e+01
2.649791e+02	-2.668037e+01
2.665096e+02	-2.673008e+01
2.680489e+02	-2.677789e+01
2.695972e+02	-2.682435e+01
2.711544e+02	-2.687837e+01
2.727205e+02	-2.692995e+01
2.742958e+02	-2.697753e+01
2.758801e+02	-2.702952e+01
2.774736e+02	-2.707787e+01
2.790762e+02	-2.712623e+01
2.806882e+02	-2.717673e+01
2.823094e+02	-2.722561e+01
2.839400e+02	-2.727979e+01
2.855800e+02	-2.733391e+01
2.872295e+02	-2.737944e+01
2.888886e+02	-2.742551e+01
2.905572e+02	-2.747650e+01
2.922354e+02	-2.752606e+01
2.939234e+02	-2.757974e+01
2.956211e+02	-2.762395e+01
2.973286e+02	-2.767549e+01
2.990459e+02	-2.772746e+01
3.007732e+02	-2.777898e+01
3.025104e+02	-2.782969e+01
3.042577e+02	-2.787970e+01
3.060151e+02	-2.792689e+01
3.077826e+02	-2.797703e+01
3.095604e+02	-2.802710e+01
3.113484e+02	-2.807689e+01
3.131467e+02	-2.812483e+01
3.149554e+02	-2.818072e+01
3.167746e+02	-2.822668e+01
3.186043e+02	-2.827328e+01
3.204445e+02	-2.832404e+01
3.222954e+02	-2.837978e+01
3.241570e+02	-2.842455e+01
3.260293e+02	-2.847563e+01
3.279124e+02	-2.852872e+01
3.298064e+02	-2.857933e+01
3.317114e+02	-2.862683e+01
3.336273e+02	-2.867699e+01
3.355544e+02	-2.872767e+01
3.374925e+02	-2.878149e+01
3.394418e+02	-2.882673e+01
3.414024e+02	-2.888140e+01
3.433744e+02	-2.892915e+01
3.453577e+02	-2.897318e+01
3.473525e+02	-2.902965e+01
3.493588e+02	-2.907867e+01
3.513766e+02	-2.913110e+01
3.534062e+02	-2.917220e+01
3.554474e+02	-2.923219e+01
3.575005e+02	-2.928118e+01
3.595654e+02	-2.932992e+01
3.616422e+02	-2.938106e+01
3.637311e+02	-2.942866e+01
3.658320e+02	-2.947928e+01
3.679450e+02	-2.953455e+01
3.700702e+02	-2.957679e+01
3.722077e+02	-2.963111e+01
3.743576e+02	-2.968133e+01
3.765199e+02	-2.972840e+01
3.786946e+02	-2.978313e+01
3.808820e+02	-2.982732e+01
3.830819e+02	-2.987972e+01
3.852946e+02	-2.992812e+01
3.875200e+02	-2.997866e+01
3.897583e+02	-3.002987e+01
3.920096e+02	-3.007956e+01
3.942738e+02	-3.013018e+01
3.965511e+02	-3.018738e+01
3.988416e+02	-3.022941e+01
4.011452e+02	-3.028324e+01
4.034622e+02	-3.032425e+01
4.057926e+02	-3.038004e+01
4.081365e+02	-3.043002e+01
4.104938e+02	-3.048152e+01
4.128648e+02	-3.053572e+01
4.152495e+02	-3.057848e+01
4.176480e+02	-3.063164e+01
4.200603e+02	-3.068235e+01
4.224866e+02	-3.073228e+01
4.249268e+02	-3.078056e+01
4.273812e+02	-3.083333e+01
4.298497e+02	-3.088414e+01
4.323325e+02	-3.093182e+01
4.348297e+02	-3.098543e+01
4.373412e+02	-3.102726e+01
4.398673e+02	-3.107968e+01
4.424079e+02	-3.113275e+01
4.449633e+02	-3.118383e+01
4.475334e+02	-3.124013e+01
4.501183e+02	-3.128777e+01
4.527182e+02	-3.133695e+01
4.553330e+02	-3.138747e+01
4.579630e+02	-3.143376e+01
4.606082e+02	-3.148685e+01
4.632687e+02	-3.153407e+01
4.659445e+02	-3.158004e+01
4.686358e+02	-3.163090e+01
4.713426e+02	-3.168661e+01
4.740650e+02	-3.173764e+01
4.768032e+02	-3.178164e+01
4.795572e+02	-3.183389e+01
4.823271e+02	-3.188274e+01
4.851130e+02	-3.193422e+01
4.879150e+02	-3.198628e+01
4.907332e+02	-3.203539e+01
4.935676e+02	-3.207960e+01
4.964185e+02	-3.213483e+01
4.992858e+02	-3.218750e+01
5.021696e+02	-3.223254e+01
5.050701e+02	-3.229325e+01
5.079874e+02	-3.233179e+01
5.109215e+02	-3.239181e+01
5.138726e+02	-3.243691e+01
5.168407e+02	-3.249184e+01
5.198259e+02	-3.254015e+01
5.228284e+02	-3.258332e+01
5.258482e+02	-3.263215e+01
5.288855e+02	-3.268955e+01
5.319403e+02	-3.273406e+01
5.350128e+02	-3.278232e+01
5.381030e+02	-3.284208e+01
5.412111e+02	-3.288608e+01
5.443371e+02	-3.293799e+01
5.474812e+02	-3.299597e+01
5.506434e+02	-3.304230e+01
5.538239e+02	-3.309192e+01
5.570228e+02	-3.314251e+01
5.602401e+02	-3.318670e+01
5.634760e+02	-3.324161e+01
5.667306e+02	-3.329044e+01
5.700040e+02	-3.333937e+01
5.732964e+02	-3.339001e+01
5.766077e+02	-3.343943e+01
5.799382e+02	-3.348793e+01
5.832879e+02	-3.354598e+01
5.866569e+02	-3.359055e+01
5.900454e+02	-3.364182e+01
5.934535e+02	-3.369712e+01
5.968813e+02	-3.374298e+01
6.003288e+02	-3.379338e+01
6.037963e+02	-3.384663e+01
6.072838e+02	-3.389840e+01
6.107914e+02	-3.394696e+01
6.143194e+02	-3.398938e+01
6.178676e+02	-3.404154e+01
6.214364e+02	-3.408960e+01
6.250258e+02	-3.414720e+01
6.286359e+02	-3.419956e+01
6.322669e+02	-3.425207e+01
6.359189e+02	-3.429770e+01
6.395919e+02	-3.434898e+01
6.432862e+02	-3.439590e+01
6.470017e+02	-3.444185e+01
6.507388e+02	-3.450127e+01
6.544974e+02	-3.455406e+01
6.582778e+02	-3.458959e+01
6.620800e+02	-3.465266e+01
6.659041e+02	-3.468745e+01
6.697504e+02	-3.475237e+01
6.736188e+02	-3.480345e+01
6.775096e+02	-3.484804e+01
6.814229e+02	-3.490737e+01
6.853587e+02	-3.495254e+01
6.893173e+02	-3.500194e+01
6.932988e+02	-3.505164e+01
6.973033e+02	-3.509566e+01
7.013309e+02	-3.514888e+01
