Frequency(Hz)	Magnitude(dB)
1.000000e+01	-2.204740e+00
1.005776e+01	-2.224654e+00
1.011585e+01	-2.244790e+00
1.017428e+01	-2.264910e+00
1.023305e+01	-2.285533e+00
1.029215e+01	-2.306163e+00
1.035160e+01	-2.326652e+00
1.041139e+01	-2.347476e+00
1.047153e+01	-2.368479e+00
1.053201e+01	-2.389429e+00
1.059284e+01	-2.410685e+00
1.065403e+01	-2.431880e+00
1.071556e+01	-2.453676e+00
1.077746e+01	-2.475177e+00
1.083971e+01	-2.496991e+00
1.090232e+01	-2.519051e+00
1.096529e+01	-2.541390e+00
1.102862e+01	-2.563511e+00
1.109232e+01	-2.585735e+00
1.115639e+01	-2.608111e+00
1.122083e+01	-2.630807e+00
1.128564e+01	-2.653671e+00
1.135083e+01	-2.676557e+00
1.141639e+01	-2.699868e+00
1.148233e+01	-2.723065e+00
1.154865e+01	-2.746514e+00
1.161536e+01	-2.769926e+00
1.168245e+01	-2.793775e+00
1.174992e+01	-2.817540e+00
1.181779e+01	-2.841350e+00
1.188605e+01	-2.865331e+00
1.195470e+01	-2.889641e+00
1.202375e+01	-2.913802e+00
1.209320e+01	-2.938579e+00
1.216305e+01	-2.963252e+00
1.223330e+01	-2.987944e+00
1.230396e+01	-3.012930e+00
1.237503e+01	-3.038005e+00
1.244651e+01	-3.063260e+00
1.251840e+01	-3.088672e+00
1.259070e+01	-3.114504e+00
1.266343e+01	-3.139803e+00
1.273657e+01	-3.165823e+00
1.281014e+01	-3.191809e+00
1.288413e+01	-3.217779e+00
1.295855e+01	-3.244155e+00
1.303339e+01	-3.270433e+00
1.310867e+01	-3.296741e+00
1.318439e+01	-3.323605e+00
1.326054e+01	-3.350437e+00
1.333713e+01	-3.377718e+00
1.341417e+01	-3.404638e+00
1.349165e+01	-3.432024e+00
1.356958e+01	-3.459116e+00
1.364795e+01	-3.486752e+00
1.372678e+01	-3.514390e+00
1.380607e+01	-3.542316e+00
1.388581e+01	-3.570305e+00
1.396602e+01	-3.598525e+00
1.404668e+01	-3.626639e+00
1.412782e+01	-3.655138e+00
1.420942e+01	-3.683656e+00
1.429149e+01	-3.712224e+00
1.437404e+01	-3.741211e+00
1.445706e+01	-3.769954e+00
1.454057e+01	-3.799230e+00
1.462455e+01	-3.828261e+00
1.470902e+01	-3.857503e+00
1.479398e+01	-3.887235e+00
1.487943e+01	-3.916788e+00
1.496537e+01	-3.946713e+00
1.505181e+01	-3.976610e+00
1.513875e+01	-4.006813e+00
1.522619e+01	-4.036988e+00
1.531414e+01	-4.067241e+00
1.540259e+01	-4.097876e+00
1.549156e+01	-4.128275e+00
1.558103e+01	-4.159257e+00
1.567103e+01	-4.190148e+00
1.576155e+01	-4.220773e+00
1.585258e+01	-4.252395e+00
1.594415e+01	-4.283398e+00
1.603624e+01	-4.315067e+00
1.612886e+01	-4.346665e+00
1.622202e+01	-4.377941e+00
1.631572e+01	-4.410292e+00
1.640996e+01	-4.441823e+00
1.650474e+01	-4.474077e+00
1.660008e+01	-4.506145e+00
1.669596e+01	-4.538736e+00
1.679239e+01	-4.571074e+00
1.688938e+01	-4.604066e+00
1.698694e+01	-4.636724e+00
1.708505e+01	-4.669550e+00
1.718373e+01	-4.702670e+00
1.728299e+01	-4.735670e+00
1.738281e+01	-4.768990e+00
1.748322e+01	-4.802642e+00
1.758420e+01	-4.835891e+00
1.768576e+01	-4.869603e+00
1.778792e+01	-4.903298e+00
1.789066e+01	-4.937080e+00
1.799399e+01	-4.971277e+00
1.809793e+01	-5.005466e+00
1.820246e+01	-5.039892e+00
1.830760e+01	-5.074313e+00
1.841334e+01	-5.108805e+00
1.851969e+01	-5.143056e+00
1.862666e+01	-5.178258e+00
1.873425e+01	-5.213067e+00
1.884246e+01	-5.248241e+00
1.895129e+01	-5.283051e+00
1.906075e+01	-5.318297e+00
1.917085e+01	-5.353574e+00
1.928158e+01	-5.389388e+00
1.939295e+01	-5.424956e+00
1.950496e+01	-5.460330e+00
1.961762e+01	-5.496634e+00
1.973093e+01	-5.532492e+00
1.984490e+01	-5.568611e+00
1.995952e+01	-5.604995e+00
2.007480e+01	-5.641071e+00
2.019076e+01	-5.677683e+00
2.030738e+01	-5.714013e+00
2.042467e+01	-5.750830e+00
2.054264e+01	-5.787519e+00
2.066130e+01	-5.824345e+00
2.078064e+01	-5.861351e+00
2.090066e+01	-5.898686e+00
2.102139e+01	-5.935692e+00
2.114280e+01	-5.973318e+00
2.126492e+01	-6.010618e+00
2.138775e+01	-6.047786e+00
2.151128e+01	-6.085393e+00
2.163553e+01	-6.123795e+00
2.176050e+01	-6.161374e+00
2.188619e+01	-6.199171e+00
2.201260e+01	-6.237544e+00
2.213974e+01	-6.275514e+00
2.226762e+01	-6.313770e+00
2.239624e+01	-6.352184e+00
2.252560e+01	-6.390866e+00
2.265571e+01	-6.429430e+00
2.278656e+01	-6.468027e+00
2.291818e+01	-6.506686e+00
2.305055e+01	-6.545720e+00
2.318369e+01	-6.584968e+00
2.331760e+01	-6.623994e+00
2.345228e+01	-6.662864e+00
2.358774e+01	-6.702144e+00
2.372398e+01	-6.741869e+00
2.386101e+01	-6.780981e+00
2.399883e+01	-6.820721e+00
2.413745e+01	-6.860410e+00
2.427686e+01	-6.900202e+00
2.441709e+01	-6.940009e+00
2.455812e+01	-6.979916e+00
2.469997e+01	-7.020296e+00
2.484263e+01	-7.060135e+00
2.498612e+01	-7.100614e+00
2.513044e+01	-7.140909e+00
2.527559e+01	-7.180916e+00
2.542158e+01	-7.221713e+00
2.556842e+01	-7.262299e+00
2.571610e+01	-7.303173e+00
2.586463e+01	-7.344114e+00
2.601403e+01	-7.384171e+00
2.616428e+01	-7.425566e+00
2.631541e+01	-7.466264e+00
2.646740e+01	-7.507655e+00
2.662028e+01	-7.548693e+00
2.677404e+01	-7.590093e+00
2.692868e+01	-7.631731e+00
2.708422e+01	-7.672542e+00
2.724066e+01	-7.714314e+00
2.739800e+01	-7.755706e+00
2.755625e+01	-7.797928e+00
2.771541e+01	-7.838809e+00
2.787550e+01	-7.881408e+00
2.803650e+01	-7.923007e+00
2.819844e+01	-7.965345e+00
2.836131e+01	-8.006876e+00
2.852513e+01	-8.049041e+00
2.868989e+01	-8.091569e+00
2.885560e+01	-8.133684e+00
2.902227e+01	-8.176588e+00
2.918990e+01	-8.218582e+00
2.935850e+01	-8.261012e+00
2.952807e+01	-8.303625e+00
2.969863e+01	-8.346341e+00
2.987016e+01	-8.388793e+00
3.004269e+01	-8.431905e+00
3.021622e+01	-8.474725e+00
3.039075e+01	-8.517882e+00
3.056628e+01	-8.560920e+00
3.074283e+01	-8.604272e+00
3.092040e+01	-8.647141e+00
3.109900e+01	-8.690199e+00
3.127862e+01	-8.733748e+00
3.145929e+01	-8.777330e+00
3.164099e+01	-8.820669e+00
3.182375e+01	-8.863730e+00
3.200756e+01	-8.907107e+00
3.219244e+01	-8.951346e+00
3.237838e+01	-8.995064e+00
3.256540e+01	-9.038713e+00
3.275349e+01	-9.082063e+00
3.294268e+01	-9.126233e+00
3.313295e+01	-9.170202e+00
3.332433e+01	-9.214630e+00
3.351681e+01	-9.258348e+00
3.371040e+01	-9.302460e+00
3.390511e+01	-9.346550e+00
3.410094e+01	-9.390858e+00
3.429791e+01	-9.435086e+00
3.449601e+01	-9.479290e+00
3.469526e+01	-9.523839e+00
3.489566e+01	-9.568474e+00
3.509721e+01	-9.612878e+00
3.529993e+01	-9.657222e+00
3.550382e+01	-9.702304e+00
3.570889e+01	-9.746978e+00
3.591515e+01	-9.791501e+00
3.612259e+01	-9.836350e+00
3.633123e+01	-9.881102e+00
3.654108e+01	-9.925859e+00
3.675214e+01	-9.970462e+00
3.696442e+01	-1.001580e+01
3.717792e+01	-1.006083e+01
3.739266e+01	-1.010627e+01
3.760864e+01	-1.015109e+01
3.782587e+01	-1.019618e+01
3.804435e+01	-1.024208e+01
3.826409e+01	-1.028712e+01
3.848510e+01	-1.033272e+01
3.870739e+01	-1.037776e+01
3.893096e+01	-1.042332e+01
3.915583e+01	-1.046875e+01
3.938199e+01	-1.051477e+01
3.960946e+01	-1.056012e+01
3.983824e+01	-1.060643e+01
4.006834e+01	-1.065183e+01
4.029978e+01	-1.069707e+01
4.053255e+01	-1.074259e+01
4.076666e+01	-1.078886e+01
4.100213e+01	-1.083488e+01
4.123896e+01	-1.088065e+01
4.147715e+01	-1.092668e+01
4.171672e+01	-1.097269e+01
4.195767e+01	-1.101847e+01
4.220002e+01	-1.106429e+01
4.244377e+01	-1.111125e+01
4.268892e+01	-1.115734e+01
4.293549e+01	-1.120338e+01
4.318348e+01	-1.124968e+01
4.343291e+01	-1.129571e+01
4.368377e+01	-1.134169e+01
4.393609e+01	-1.138855e+01
4.418986e+01	-1.143456e+01
4.444510e+01	-1.148080e+01
4.470182e+01	-1.152798e+01
4.496001e+01	-1.157448e+01
4.521970e+01	-1.162123e+01
4.548089e+01	-1.166814e+01
4.574358e+01	-1.171446e+01
4.600779e+01	-1.176145e+01
4.627353e+01	-1.180750e+01
4.654081e+01	-1.185413e+01
4.680963e+01	-1.190139e+01
4.708000e+01	-1.194852e+01
4.735193e+01	-1.199554e+01
4.762543e+01	-1.204155e+01
4.790051e+01	-1.208847e+01
4.817719e+01	-1.213509e+01
4.845545e+01	-1.218234e+01
4.873533e+01	-1.223006e+01
4.901682e+01	-1.227745e+01
4.929994e+01	-1.232382e+01
4.958470e+01	-1.237118e+01
4.987110e+01	-1.241737e+01
5.015915e+01	-1.246453e+01
5.044887e+01	-1.251238e+01
5.074026e+01	-1.255995e+01
5.103333e+01	-1.260688e+01
5.132810e+01	-1.265387e+01
5.162457e+01	-1.270182e+01
5.192275e+01	-1.274899e+01
5.222265e+01	-1.279615e+01
5.252429e+01	-1.284386e+01
5.282767e+01	-1.289043e+01
5.313280e+01	-1.293779e+01
5.343969e+01	-1.298608e+01
5.374836e+01	-1.303389e+01
5.405880e+01	-1.308036e+01
5.437105e+01	-1.312847e+01
5.468509e+01	-1.317671e+01
5.500095e+01	-1.322499e+01
5.531863e+01	-1.327118e+01
5.563815e+01	-1.331916e+01
5.595951e+01	-1.336710e+01
5.628273e+01	-1.341450e+01
5.660782e+01	-1.346262e+01
5.693479e+01	-1.350982e+01
5.726364e+01	-1.355898e+01
5.759439e+01	-1.360522e+01
5.792705e+01	-1.365400e+01
5.826164e+01	-1.370163e+01
5.859815e+01	-1.374959e+01
5.893662e+01	-1.379795e+01
5.927703e+01	-1.384566e+01
5.961941e+01	-1.389391e+01
5.996377e+01	-1.394059e+01
6.031012e+01	-1.398957e+01
6.065847e+01	-1.403711e+01
6.100883e+01	-1.408585e+01
6.136121e+01	-1.413333e+01
6.171563e+01	-1.418246e+01
6.207210e+01	-1.422971e+01
6.243063e+01	-1.427867e+01
6.279122e+01	-1.432564e+01
6.315390e+01	-1.437341e+01
6.351868e+01	-1.442235e+01
6.388556e+01	-1.447144e+01
6.425456e+01	-1.451944e+01
6.462569e+01	-1.456758e+01
6.499897e+01	-1.461532e+01
6.537440e+01	-1.466322e+01
6.575200e+01	-1.471214e+01
6.613178e+01	-1.476054e+01
6.651375e+01	-1.480995e+01
6.689793e+01	-1.485791e+01
6.728433e+01	-1.490675e+01
6.767297e+01	-1.495381e+01
6.806384e+01	-1.500266e+01
6.845698e+01	-1.505123e+01
6.885238e+01	-1.510050e+01
6.925007e+01	-1.514906e+01
6.965005e+01	-1.519749e+01
7.005235e+01	-1.524501e+01
7.045697e+01	-1.529408e+01
7.086393e+01	-1.534195e+01
7.127323e+01	-1.539119e+01
7.168490e+01	-1.543833e+01
7.209895e+01	-1.548763e+01
7.251539e+01	-1.553738e+01
7.293424e+01	-1.558690e+01
7.335551e+01	-1.563564e+01
7.377920e+01	-1.568248e+01
7.420535e+01	-1.573116e+01
7.463396e+01	-1.578102e+01
7.506504e+01	-1.582886e+01
7.549861e+01	-1.587747e+01
7.593469e+01	-1.592603e+01
7.637328e+01	-1.597465e+01
7.681441e+01	-1.602397e+01
7.725809e+01	-1.607354e+01
7.770433e+01	-1.612110e+01
7.815315e+01	-1.616959e+01
7.860456e+01	-1.621822e+01
7.905857e+01	-1.626692e+01
7.951521e+01	-1.631706e+01
7.997449e+01	-1.636545e+01
8.043642e+01	-1.641461e+01
8.090102e+01	-1.646321e+01
8.136830e+01	-1.651269e+01
8.183828e+01	-1.656125e+01
8.231097e+01	-1.660954e+01
8.278640e+01	-1.665770e+01
8.326457e+01	-1.670756e+01
8.374550e+01	-1.675612e+01
8.422921e+01	-1.680538e+01
8.471572e+01	-1.685555e+01
8.520503e+01	-1.690360e+01
8.569717e+01	-1.695310e+01
8.619215e+01	-1.700210e+01
8.669000e+01	-1.705107e+01
8.719071e+01	-1.710093e+01
8.769432e+01	-1.714818e+01
8.820084e+01	-1.719815e+01
8.871029e+01	-1.724729e+01
8.922267e+01	-1.729526e+01
8.973802e+01	-1.734601e+01
9.025634e+01	-1.739490e+01
9.077766e+01	-1.744309e+01
9.130199e+01	-1.749418e+01
9.182935e+01	-1.754249e+01
9.235975e+01	-1.759132e+01
9.289321e+01	-1.763969e+01
9.342976e+01	-1.768840e+01
9.396941e+01	-1.773788e+01
9.451217e+01	-1.778715e+01
9.505807e+01	-1.783754e+01
9.560712e+01	-1.788640e+01
9.615934e+01	-1.793533e+01
9.671476e+01	-1.798374e+01
9.727338e+01	-1.803361e+01
9.783522e+01	-1.808364e+01
9.840032e+01	-1.813286e+01
9.896867e+01	-1.818106e+01
9.954031e+01	-1.823138e+01
1.001153e+02	-1.828097e+01
1.006935e+02	-1.832920e+01
1.012751e+02	-1.837917e+01
1.018601e+02	-1.842798e+01
1.024484e+02	-1.847742e+01
1.030402e+02	-1.852590e+01
1.036353e+02	-1.857526e+01
1.042339e+02	-1.862439e+01
1.048360e+02	-1.867434e+01
1.054415e+02	-1.872369e+01
1.060505e+02	-1.877435e+01
1.066631e+02	-1.882309e+01
1.072791e+02	-1.887143e+01
1.078988e+02	-1.892256e+01
1.085220e+02	-1.897123e+01
1.091488e+02	-1.901909e+01
1.097793e+02	-1.907025e+01
1.104133e+02	-1.912024e+01
1.110511e+02	-1.916829e+01
1.116925e+02	-1.921776e+01
1.123376e+02	-1.926787e+01
1.129865e+02	-1.931766e+01
1.136391e+02	-1.936561e+01
1.142955e+02	-1.941616e+01
1.149556e+02	-1.946670e+01
1.156196e+02	-1.951395e+01
1.162874e+02	-1.956442e+01
1.169591e+02	-1.961383e+01
1.176347e+02	-1.966256e+01
1.183141e+02	-1.971513e+01
1.189975e+02	-1.976248e+01
1.196848e+02	-1.981134e+01
1.203761e+02	-1.986112e+01
1.210714e+02	-1.991086e+01
1.217707e+02	-1.996184e+01
1.224740e+02	-2.000955e+01
1.231814e+02	-2.006101e+01
1.238929e+02	-2.010917e+01
1.246085e+02	-2.015798e+01
1.253283e+02	-2.020850e+01
1.260522e+02	-2.025798e+01
1.267802e+02	-2.030774e+01
1.275125e+02	-2.035717e+01
1.282490e+02	-2.040649e+01
1.289898e+02	-2.045516e+01
1.297348e+02	-2.050571e+01
1.304842e+02	-2.055486e+01
1.312378e+02	-2.060676e+01
1.319959e+02	-2.065479e+01
1.327583e+02	-2.070388e+01
1.335251e+02	-2.075372e+01
1.342963e+02	-2.080302e+01
1.350720e+02	-2.085523e+01
1.358522e+02	-2.090106e+01
1.366368e+02	-2.095400e+01
1.374260e+02	-2.100271e+01
1.382198e+02	-2.105191e+01
1.390182e+02	-2.110042e+01
1.398211e+02	-2.115013e+01
1.406287e+02	-2.120208e+01
1.414410e+02	-2.125064e+01
1.422579e+02	-2.130061e+01
1.430796e+02	-2.134946e+01
1.439060e+02	-2.140077e+01
1.447372e+02	-2.144818e+01
1.455732e+02	-2.149784e+01
1.464141e+02	-2.154620e+01
1.472597e+02	-2.159752e+01
1.481103e+02	-2.164704e+01
1.489658e+02	-2.169781e+01
1.498262e+02	-2.174706e+01
1.506916e+02	-2.179577e+01
1.515620e+02	-2.184488e+01
1.524374e+02	-2.189695e+01
1.533179e+02	-2.194631e+01
1.542034e+02	-2.199632e+01
1.550941e+02	-2.204518e+01
1.559899e+02	-2.209633e+01
1.568909e+02	-2.214526e+01
1.577971e+02	-2.219323e+01
1.587085e+02	-2.224191e+01
1.596252e+02	-2.229442e+01
1.605472e+02	-2.234367e+01
1.614745e+02	-2.239463e+01
1.624072e+02	-2.244310e+01
1.633453e+02	-2.249345e+01
1.642887e+02	-2.254291e+01
1.652377e+02	-2.259329e+01
1.661921e+02	-2.264358e+01
1.671520e+02	-2.269089e+01
1.681175e+02	-2.274274e+01
1.690885e+02	-2.279051e+01
1.700651e+02	-2.283959e+01
1.710474e+02	-2.289297e+01
1.720354e+02	-2.294092e+01
1.730291e+02	-2.299122e+01
1.740285e+02	-2.304023e+01
1.750337e+02	-2.309088e+01
1.760446e+02	-2.313873e+01
1.770615e+02	-2.319175e+01
1.780842e+02	-2.323953e+01
1.791128e+02	-2.328805e+01
1.801473e+02	-2.333993e+01
1.811878e+02	-2.338904e+01
1.822344e+02	-2.344019e+01
1.832870e+02	-2.348783e+01
1.843456e+02	-2.354009e+01
1.854104e+02	-2.358928e+01
1.864813e+02	-2.363801e+01
1.875584e+02	-2.368956e+01
1.886418e+02	-2.373674e+01
1.897313e+02	-2.378829e+01
1.908272e+02	-2.383737e+01
1.919294e+02	-2.388594e+01
1.930380e+02	-2.393782e+01
1.941530e+02	-2.398487e+01
1.952744e+02	-2.403808e+01
1.964023e+02	-2.408682e+01
1.975367e+02	-2.413959e+01
1.986777e+02	-2.419059e+01
1.998252e+02	-2.423749e+01
2.009794e+02	-2.428634e+01
2.021403e+02	-2.433663e+01
2.033078e+02	-2.438713e+01
2.044821e+02	-2.443880e+01
2.056632e+02	-2.448435e+01
2.068511e+02	-2.453569e+01
2.080459e+02	-2.458592e+01
2.092475e+02	-2.463584e+01
2.104561e+02	-2.468715e+01
2.116717e+02	-2.473546e+01
2.128943e+02	-2.478589e+01
2.141240e+02	-2.483227e+01
2.153608e+02	-2.488624e+01
2.166047e+02	-2.493512e+01
2.178558e+02	-2.498654e+01
2.191141e+02	-2.503399e+01
2.203797e+02	-2.508611e+01
2.216526e+02	-2.513519e+01
2.229329e+02	-2.518401e+01
2.242205e+02	-2.523758e+01
2.255156e+02	-2.528424e+01
2.268182e+02	-2.533055e+01
2.281283e+02	-2.538286e+01
2.294459e+02	-2.543439e+01
2.307712e+02	-2.548590e+01
2.321041e+02	-2.553520e+01
2.334447e+02	-2.558161e+01
2.347931e+02	-2.563485e+01
2.361493e+02	-2.568617e+01
2.375133e+02	-2.573611e+01
2.388851e+02	-2.578419e+01
2.402649e+02	-2.583508e+01
2.416527e+02	-2.588267e+01
2.430484e+02	-2.593379e+01
2.444523e+02	-2.598316e+01
2.458642e+02	-2.603161e+01
2.472843e+02	-2.607995e+01
2.487126e+02	-2.613415e+01
2.501492e+02	-2.618510e+01
2.515940e+02	-2.623705e+01
2.530472e+02	-2.628403e+01
2.545088e+02	-2.633248e+01
2.559789e+02	-2.638383e+01
2.574574e+02	-2.643278e+01
2.589444e+02	-2.648233e+01
2.604401e+02	-2.653488e+01
2.619444e+02	-2.658372e+01
2.634574e+02	-2.663269e+01
2.649791e+02	-2.668487e+01
2.665096e+02	-2.672952e+01
2.680489e+02	-2.678315e+01
2.695972e+02	-2.683278e+01
2.711544e+02	-2.688299e+01
2.727205e+02	-2.693422e+01
2.742958e+02	-2.698400e+01
2.758801e+02	-2.703707e+01
2.774736e+02	-2.708274e+01
2.790762e+02	-2.713255e+01
2.806882e+02	-2.718217e+01
2.823094e+02	-2.723175e+01
2.839400e+02	-2.728268e+01
2.855800e+02	-2.733398e+01
2.872295e+02	-2.738341e+01
2.888886e+02	-2.743140e+01
2.905572e+02	-2.748314e+01
2.922354e+02	-2.753437e+01
2.939234e+02	-2.758298e+01
2.956211e+02	-2.763474e+01
2.973286e+02	-2.768332e+01
2.990459e+02	-2.773397e+01
3.007732e+02	-2.778444e+01
3.025104e+02	-2.783211e+01
3.042577e+02	-2.788374e+01
3.060151e+02	-2.793551e+01
3.077826e+02	-2.798449e+01
3.095604e+02	-2.803074e+01
3.113484e+02	-2.808311e+01
3.131467e+02	-2.813505e+01
3.149554e+02	-2.818411e+01
3.167746e+02	-2.823035e+01
3.186043e+02	-2.828502e+01
3.204445e+02	-2.832717e+01
3.222954e+02	-2.838101e+01
3.241570e+02	-2.843596e+01
3.260293e+02	-2.848169e+01
3.279124e+02	-2.853534e+01
3.298064e+02	-2.858467e+01
3.317114e+02	-2.863463e+01
3.336273e+02	-2.868122e+01
3.355544e+02	-2.873485e+01
3.374925e+02	-2.878415e+01
3.394418e+02	-2.883342e+01
3.414024e+02	-2.888374e+01
3.433744e+02	-2.894145e+01
3.453577e+02	-2.898789e+01
3.473525e+02	-2.903432e+01
3.493588e+02	-2.908339e+01
3.513766e+02	-2.913410e+01
3.534062e+02	-2.918500e+01
3.554474e+02	-2.922832e+01
3.575005e+02	-2.928869e+01
3.595654e+02	-2.933515e+01
3.616422e+02	-2.938406e+01
3.637311e+02	-2.943379e+01
3.658320e+02	-2.948381e+01
3.679450e+02	-2.953434e+01
3.700702e+02	-2.958712e+01
3.722077e+02	-2.963572e+01
3.743576e+02	-2.968530e+01
3.765199e+02	-2.973458e+01
3.786946e+02	-2.978395e+01
3.808820e+02	-2.983714e+01
3.830819e+02	-2.989009e+01
3.852946e+02	-2.993095e+01
3.875200e+02	-2.998834e+01
3.897583e+02	-3.004049e+01
3.920096e+02	-3.008250e+01
3.942738e+02	-3.013953e+01
3.965511e+02	-3.018762e+01
3.988416e+02	-3.023744e+01
4.011452e+02	-3.028591e+01
4.034622e+02	-3.033261e+01
4.057926e+02	-3.038317e+01
4.081365e+02	-3.044008e+01
4.104938e+02	-3.049207e+01
4.128648e+02	-3.053707e+01
4.152495e+02	-3.058703e+01
4.176480e+02	-3.063016e+01
4.200603e+02	-3.069099e+01
4.224866e+02	-3.073094e+01
4.249268e+02	-3.078652e+01
4.273812e+02	-3.083932e+01
4.298497e+02	-3.088379e+01
4.323325e+02	-3.093829e+01
4.348297e+02	-3.098470e+01
4.373412e+02	-3.103948e+01
4.398673e+02	-3.108701e+01
4.424079e+02	-3.113796e+01
4.449633e+02	-3.118182e+01
4.475334e+02	-3.124162e+01
4.501183e+02	-3.128767e+01
4.527182e+02	-3.133879e+01
4.553330e+02	-3.138986e+01
4.579630e+02	-3.143460e+01
4.606082e+02	-3.148942e+01
4.632687e+02	-3.154417e+01
4.659445e+02	-3.158980e+01
4.686358e+02	-3.163612e+01
4.713426e+02	-3.169298e+01
4.740650e+02	-3.174008e+01
4.768032e+02	-3.179308e+01
4.795572e+02	-3.184395e+01
4.823271e+02	-3.188956e+01
4.851130e+02	-3.194087e+01
4.879150e+02	-3.199365e+01
4.907332e+02	-3.204358e+01
4.935676e+02	-3.209520e+01
4.964185e+02	-3.214597e+01
4.992858e+02	-3.219250e+01
5.021696e+02	-3.224893e+01
5.050701e+02	-3.229424e+01
5.079874e+02	-3.234149e+01
5.109215e+02	-3.239431e+01
5.138726e+02	-3.244647e+01
5.168407e+02	-3.249554e+01
5.198259e+02	-3.254036e+01
5.228284e+02	-3.258773e+01
5.258482e+02	-3.264300e+01
5.288855e+02	-3.269996e+01
5.319403e+02	-3.274008e+01
5.350128e+02	-3.279331e+01
5.381030e+02	-3.284867e+01
5.412111e+02	-3.289572e+01
5.443371e+02	-3.295213e+01
5.474812e+02	-3.299833e+01
5.506434e+02	-3.304013e+01
5.538239e+02	-3.309968e+01
5.570228e+02	-3.315037e+01
5.602401e+02	-3.319512e+01
5.634760e+02	-3.324102e+01
5.667306e+02	-3.330164e+01
5.700040e+02	-3.335715e+01
5.732964e+02	-3.339942e+01
5.766077e+02	-3.344727e+01
5.799382e+02	-3.350400e+01
5.832879e+02	-3.354423e+01
5.866569e+02	-3.360480e+01
5.900454e+02	-3.364233e+01
5.934535e+02	-3.370205e+01
5.968813e+02	-3.374828e+01
6.003288e+02	-3.379611e+01
6.037963e+02	-3.385148e+01
6.072838e+02	-3.390733e+01
6.107914e+02	-3.395607e+01
6.143194e+02	-3.400685e+01
6.178676e+02	-3.404543e+01
6.214364e+02	-3.410963e+01
6.250258e+02	-3.414459e+01
6.286359e+02	-3.420090e+01
6.322669e+02	-3.425739e+01
6.359189e+02	-3.430656e+01
6.395919e+02	-3.435276e+01
6.432862e+02	-3.440890e+01
6.470017e+02	-3.445815e+01
6.507388e+02	-3.450559e+01
6.544974e+02	-3.454800e+01
6.582778e+02	-3.460712e+01
6.620800e+02	-3.466163e+01
6.659041e+02	-3.470021e+01
6.697504e+02	-3.476158e+01
6.736188e+02	-3.481244e+01
6.775096e+02	-3.485456e+01
6.814229e+02	-3.491018e+01
6.853587e+02	-3.495567e+01
6.893173e+02	-3.500670e+01
6.932988e+02	-3.505572e+01
6.973033e+02	-3.511559e+01
7.013309e+02	-3.516356e+01
