Frequency(Hz)	Magnitude(dB)
1.000000e+01	-1.827735e-05
1.005776e+01	-1.848910e-05
1.011585e+01	-1.870330e-05
1.017428e+01	-1.891998e-05
1.023305e+01	-1.913917e-05
1.029215e+01	-1.936091e-05
1.035160e+01	-1.958521e-05
1.041139e+01	-1.981211e-05
1.047153e+01	-2.004164e-05
1.053201e+01	-2.027382e-05
1.059284e+01	-2.050870e-05
1.065403e+01	-2.074630e-05
1.071556e+01	-2.098665e-05
1.077746e+01	-2.122978e-05
1.083971e+01	-2.147574e-05
1.090232e+01	-2.172454e-05
1.096529e+01	-2.197622e-05
1.102862e+01	-2.223082e-05
1.109232e+01	-2.248837e-05
1.115639e+01	-2.274891e-05
1.122083e+01	-2.301246e-05
1.128564e+01	-2.327906e-05
1.135083e+01	-2.354876e-05
1.141639e+01	-2.382158e-05
1.148233e+01	-2.409755e-05
1.154865e+01	-2.437673e-05
1.161536e+01	-2.465914e-05
1.168245e+01	-2.494482e-05
1.174992e+01	-2.523382e-05
1.181779e+01	-2.552615e-05
1.188605e+01	-2.582188e-05
1.195470e+01	-2.612103e-05
1.202375e+01	-2.642365e-05
1.209320e+01	-2.672978e-05
1.216305e+01	-2.703945e-05
1.223330e+01	-2.735271e-05
1.230396e+01	-2.766959e-05
1.237503e+01	-2.799015e-05
1.244651e+01	-2.831443e-05
1.251840e+01	-2.864246e-05
1.259070e+01	-2.897429e-05
1.266343e+01	-2.930996e-05
1.273657e+01	-2.964952e-05
1.281014e+01	-2.999302e-05
1.288413e+01	-3.034050e-05
1.295855e+01	-3.069200e-05
1.303339e+01	-3.104757e-05
1.310867e+01	-3.140727e-05
1.318439e+01	-3.177113e-05
1.326054e+01	-3.213920e-05
1.333713e+01	-3.251154e-05
1.341417e+01	-3.288820e-05
1.349165e+01	-3.326921e-05
1.356958e+01	-3.365465e-05
1.364795e+01	-3.404454e-05
1.372678e+01	-3.443896e-05
1.380607e+01	-3.483794e-05
1.388581e+01	-3.524155e-05
1.396602e+01	-3.564983e-05
1.404668e+01	-3.606284e-05
1.412782e+01	-3.648063e-05
1.420942e+01	-3.690327e-05
1.429149e+01	-3.733080e-05
1.437404e+01	-3.776329e-05
1.445706e+01	-3.820079e-05
1.454057e+01	-3.864335e-05
1.462455e+01	-3.909104e-05
1.470902e+01	-3.954392e-05
1.479398e+01	-4.000205e-05
1.487943e+01	-4.046548e-05
1.496537e+01	-4.093428e-05
1.505181e+01	-4.140851e-05
1.513875e+01	-4.188824e-05
1.522619e+01	-4.237353e-05
1.531414e+01	-4.286443e-05
1.540259e+01	-4.336103e-05
1.549156e+01	-4.386337e-05
1.558103e+01	-4.437154e-05
1.567103e+01	-4.488560e-05
1.576155e+01	-4.540560e-05
1.585258e+01	-4.593164e-05
1.594415e+01	-4.646377e-05
1.603624e+01	-4.700206e-05
1.612886e+01	-4.754659e-05
1.622202e+01	-4.809743e-05
1.631572e+01	-4.865464e-05
1.640996e+01	-4.921832e-05
1.650474e+01	-4.978852e-05
1.660008e+01	-5.036533e-05
1.669596e+01	-5.094883e-05
1.679239e+01	-5.153908e-05
1.688938e+01	-5.213617e-05
1.698694e+01	-5.274018e-05
1.708505e+01	-5.335119e-05
1.718373e+01	-5.396927e-05
1.728299e+01	-5.459452e-05
1.738281e+01	-5.522700e-05
1.748322e+01	-5.586682e-05
1.758420e+01	-5.651405e-05
1.768576e+01	-5.716878e-05
1.778792e+01	-5.783109e-05
1.789066e+01	-5.850107e-05
1.799399e+01	-5.917882e-05
1.809793e+01	-5.986442e-05
1.820246e+01	-6.055796e-05
1.830760e+01	-6.125954e-05
1.841334e+01	-6.196924e-05
1.851969e+01	-6.268717e-05
1.862666e+01	-6.341341e-05
1.873425e+01	-6.414806e-05
1.884246e+01	-6.489123e-05
1.895129e+01	-6.564301e-05
1.906075e+01	-6.640350e-05
1.917085e+01	-6.717279e-05
1.928158e+01	-6.795100e-05
1.939295e+01	-6.873823e-05
1.950496e+01	-6.953457e-05
1.961762e+01	-7.034014e-05
1.973093e+01	-7.115505e-05
1.984490e+01	-7.197939e-05
1.995952e+01	-7.281329e-05
2.007480e+01	-7.365684e-05
2.019076e+01	-7.451017e-05
2.030738e+01	-7.537338e-05
2.042467e+01	-7.624660e-05
2.054264e+01	-7.712993e-05
2.066130e+01	-7.802349e-05
2.078064e+01	-7.892741e-05
2.090066e+01	-7.984180e-05
2.102139e+01	-8.076678e-05
2.114280e+01	-8.170247e-05
2.126492e+01	-8.264901e-05
2.138775e+01	-8.360651e-05
2.151128e+01	-8.457511e-05
2.163553e+01	-8.555492e-05
2.176050e+01	-8.654609e-05
2.188619e+01	-8.754874e-05
2.201260e+01	-8.856301e-05
2.213974e+01	-8.958903e-05
2.226762e+01	-9.062693e-05
2.239624e+01	-9.167686e-05
2.252560e+01	-9.273895e-05
2.265571e+01	-9.381334e-05
2.278656e+01	-9.490018e-05
2.291818e+01	-9.599962e-05
2.305055e+01	-9.711179e-05
2.318369e+01	-9.823684e-05
2.331760e+01	-9.937493e-05
2.345228e+01	-1.005262e-04
2.358774e+01	-1.016908e-04
2.372398e+01	-1.028689e-04
2.386101e+01	-1.040607e-04
2.399883e+01	-1.052662e-04
2.413745e+01	-1.064857e-04
2.427686e+01	-1.077194e-04
2.441709e+01	-1.089673e-04
2.455812e+01	-1.102297e-04
2.469997e+01	-1.115068e-04
2.484263e+01	-1.127986e-04
2.498612e+01	-1.141054e-04
2.513044e+01	-1.154273e-04
2.527559e+01	-1.167645e-04
2.542158e+01	-1.181173e-04
2.556842e+01	-1.194857e-04
2.571610e+01	-1.208699e-04
2.586463e+01	-1.222702e-04
2.601403e+01	-1.236867e-04
2.616428e+01	-1.251197e-04
2.631541e+01	-1.265692e-04
2.646740e+01	-1.280355e-04
2.662028e+01	-1.295188e-04
2.677404e+01	-1.310193e-04
2.692868e+01	-1.325372e-04
2.708422e+01	-1.340726e-04
2.724066e+01	-1.356259e-04
2.739800e+01	-1.371971e-04
2.755625e+01	-1.387866e-04
2.771541e+01	-1.403944e-04
2.787550e+01	-1.420209e-04
2.803650e+01	-1.436662e-04
2.819844e+01	-1.453306e-04
2.836131e+01	-1.470143e-04
2.852513e+01	-1.487174e-04
2.868989e+01	-1.504403e-04
2.885560e+01	-1.521832e-04
2.902227e+01	-1.539463e-04
2.918990e+01	-1.557297e-04
2.935850e+01	-1.575339e-04
2.952807e+01	-1.593589e-04
2.969863e+01	-1.612051e-04
2.987016e+01	-1.630727e-04
3.004269e+01	-1.649619e-04
3.021622e+01	-1.668730e-04
3.039075e+01	-1.688062e-04
3.056628e+01	-1.707618e-04
3.074283e+01	-1.727401e-04
3.092040e+01	-1.747413e-04
3.109900e+01	-1.767657e-04
3.127862e+01	-1.788135e-04
3.145929e+01	-1.808851e-04
3.164099e+01	-1.829807e-04
3.182375e+01	-1.851005e-04
3.200756e+01	-1.872449e-04
3.219244e+01	-1.894141e-04
3.237838e+01	-1.916085e-04
3.256540e+01	-1.938283e-04
3.275349e+01	-1.960738e-04
3.294268e+01	-1.983453e-04
3.313295e+01	-2.006431e-04
3.332433e+01	-2.029676e-04
3.351681e+01	-2.053190e-04
3.371040e+01	-2.076976e-04
3.390511e+01	-2.101038e-04
3.410094e+01	-2.125378e-04
3.429791e+01	-2.150001e-04
3.449601e+01	-2.174908e-04
3.469526e+01	-2.200105e-04
3.489566e+01	-2.225593e-04
3.509721e+01	-2.251376e-04
3.529993e+01	-2.277458e-04
3.550382e+01	-2.303843e-04
3.570889e+01	-2.330533e-04
3.591515e+01	-2.357532e-04
3.612259e+01	-2.384844e-04
3.633123e+01	-2.412472e-04
3.654108e+01	-2.440420e-04
3.675214e+01	-2.468693e-04
3.696442e+01	-2.497292e-04
3.717792e+01	-2.526223e-04
3.739266e+01	-2.555489e-04
3.760864e+01	-2.585095e-04
3.782587e+01	-2.615043e-04
3.804435e+01	-2.645338e-04
3.826409e+01	-2.675984e-04
3.848510e+01	-2.706985e-04
3.870739e+01	-2.738345e-04
3.893096e+01	-2.770069e-04
3.915583e+01	-2.802160e-04
3.938199e+01	-2.834622e-04
3.960946e+01	-2.867461e-04
3.983824e+01	-2.900680e-04
4.006834e+01	-2.934284e-04
4.029978e+01	-2.968278e-04
4.053255e+01	-3.002665e-04
4.076666e+01	-3.037450e-04
4.100213e+01	-3.072639e-04
4.123896e+01	-3.108235e-04
4.147715e+01	-3.144243e-04
4.171672e+01	-3.180669e-04
4.195767e+01	-3.217516e-04
4.220002e+01	-3.254791e-04
4.244377e+01	-3.292497e-04
4.268892e+01	-3.330640e-04
4.293549e+01	-3.369225e-04
4.318348e+01	-3.408257e-04
4.343291e+01	-3.447741e-04
4.368377e+01	-3.487682e-04
4.393609e+01	-3.528087e-04
4.418986e+01	-3.568959e-04
4.444510e+01	-3.610304e-04
4.470182e+01	-3.652129e-04
4.496001e+01	-3.694438e-04
4.521970e+01	-3.737237e-04
4.548089e+01	-3.780532e-04
4.574358e+01	-3.824329e-04
4.600779e+01	-3.868633e-04
4.627353e+01	-3.913450e-04
4.654081e+01	-3.958786e-04
4.680963e+01	-4.004648e-04
4.708000e+01	-4.051041e-04
4.735193e+01	-4.097971e-04
4.762543e+01	-4.145445e-04
4.790051e+01	-4.193469e-04
4.817719e+01	-4.242049e-04
4.845545e+01	-4.291192e-04
4.873533e+01	-4.340904e-04
4.901682e+01	-4.391192e-04
4.929994e+01	-4.442062e-04
4.958470e+01	-4.493522e-04
4.987110e+01	-4.545578e-04
5.015915e+01	-4.598237e-04
5.044887e+01	-4.651506e-04
5.074026e+01	-4.705392e-04
5.103333e+01	-4.759903e-04
5.132810e+01	-4.815044e-04
5.162457e+01	-4.870825e-04
5.192275e+01	-4.927252e-04
5.222265e+01	-4.984332e-04
5.252429e+01	-5.042073e-04
5.282767e+01	-5.100484e-04
5.313280e+01	-5.159571e-04
5.343969e+01	-5.219342e-04
5.374836e+01	-5.279806e-04
5.405880e+01	-5.340970e-04
5.437105e+01	-5.402843e-04
5.468509e+01	-5.465433e-04
5.500095e+01	-5.528747e-04
5.531863e+01	-5.592795e-04
5.563815e+01	-5.657585e-04
5.595951e+01	-5.723125e-04
5.628273e+01	-5.789425e-04
5.660782e+01	-5.856492e-04
5.693479e+01	-5.924337e-04
5.726364e+01	-5.992967e-04
5.759439e+01	-6.062392e-04
5.792705e+01	-6.132622e-04
5.826164e+01	-6.203665e-04
5.859815e+01	-6.275531e-04
5.893662e+01	-6.348229e-04
5.927703e+01	-6.421770e-04
5.961941e+01	-6.496162e-04
5.996377e+01	-6.571417e-04
6.031012e+01	-6.647542e-04
6.065847e+01	-6.724550e-04
6.100883e+01	-6.802450e-04
6.136121e+01	-6.881252e-04
6.171563e+01	-6.960966e-04
6.207210e+01	-7.041605e-04
6.243063e+01	-7.123177e-04
6.279122e+01	-7.205694e-04
6.315390e+01	-7.289167e-04
6.351868e+01	-7.373607e-04
6.388556e+01	-7.459025e-04
6.425456e+01	-7.545432e-04
6.462569e+01	-7.632840e-04
6.499897e+01	-7.721261e-04
6.537440e+01	-7.810706e-04
6.575200e+01	-7.901187e-04
6.613178e+01	-7.992716e-04
6.651375e+01	-8.085305e-04
6.689793e+01	-8.178967e-04
6.728433e+01	-8.273713e-04
6.767297e+01	-8.369557e-04
6.806384e+01	-8.466511e-04
6.845698e+01	-8.564588e-04
6.885238e+01	-8.663802e-04
6.925007e+01	-8.764164e-04
6.965005e+01	-8.865689e-04
7.005235e+01	-8.968390e-04
7.045697e+01	-9.072280e-04
7.086393e+01	-9.177374e-04
7.127323e+01	-9.283685e-04
7.168490e+01	-9.391227e-04
7.209895e+01	-9.500015e-04
7.251539e+01	-9.610063e-04
7.293424e+01	-9.721386e-04
7.335551e+01	-9.833998e-04
7.377920e+01	-9.947915e-04
7.420535e+01	-1.006315e-03
7.463396e+01	-1.017972e-03
7.506504e+01	-1.029764e-03
7.549861e+01	-1.041693e-03
7.593469e+01	-1.053760e-03
7.637328e+01	-1.065966e-03
7.681441e+01	-1.078314e-03
7.725809e+01	-1.090805e-03
7.770433e+01	-1.103441e-03
7.815315e+01	-1.116223e-03
7.860456e+01	-1.129153e-03
7.905857e+01	-1.142233e-03
7.951521e+01	-1.155464e-03
7.997449e+01	-1.168849e-03
8.043642e+01	-1.182388e-03
8.090102e+01	-1.196085e-03
8.136830e+01	-1.209940e-03
8.183828e+01	-1.223955e-03
8.231097e+01	-1.238133e-03
8.278640e+01	-1.252475e-03
8.326457e+01	-1.266983e-03
8.374550e+01	-1.281660e-03
8.422921e+01	-1.296506e-03
8.471572e+01	-1.311524e-03
8.520503e+01	-1.326716e-03
8.569717e+01	-1.342084e-03
8.619215e+01	-1.357630e-03
8.669000e+01	-1.373356e-03
8.719071e+01	-1.389264e-03
8.769432e+01	-1.405356e-03
8.820084e+01	-1.421635e-03
8.871029e+01	-1.438102e-03
8.922267e+01	-1.454760e-03
8.973802e+01	-1.471611e-03
9.025634e+01	-1.488657e-03
9.077766e+01	-1.505901e-03
9.130199e+01	-1.523344e-03
9.182935e+01	-1.540989e-03
9.235975e+01	-1.558839e-03
9.289321e+01	-1.576895e-03
9.342976e+01	-1.595161e-03
9.396941e+01	-1.613638e-03
9.451217e+01	-1.632328e-03
9.505807e+01	-1.651236e-03
9.560712e+01	-1.670362e-03
9.615934e+01	-1.689710e-03
9.671476e+01	-1.709282e-03
9.727338e+01	-1.729080e-03
9.783522e+01	-1.749108e-03
9.840032e+01	-1.769368e-03
9.896867e+01	-1.789862e-03
9.954031e+01	-1.810594e-03
1.001153e+02	-1.831566e-03
1.006935e+02	-1.852781e-03
1.012751e+02	-1.874241e-03
1.018601e+02	-1.895950e-03
1.024484e+02	-1.917910e-03
1.030402e+02	-1.940124e-03
1.036353e+02	-1.962596e-03
1.042339e+02	-1.985328e-03
1.048360e+02	-2.008324e-03
1.054415e+02	-2.031585e-03
1.060505e+02	-2.055116e-03
1.066631e+02	-2.078919e-03
1.072791e+02	-2.102998e-03
1.078988e+02	-2.127356e-03
1.085220e+02	-2.151996e-03
1.091488e+02	-2.176921e-03
1.097793e+02	-2.202135e-03
1.104133e+02	-2.227641e-03
1.110511e+02	-2.253442e-03
1.116925e+02	-2.279542e-03
1.123376e+02	-2.305944e-03
1.129865e+02	-2.332652e-03
1.136391e+02	-2.359669e-03
1.142955e+02	-2.386999e-03
1.149556e+02	-2.414645e-03
1.156196e+02	-2.442611e-03
1.162874e+02	-2.470902e-03
1.169591e+02	-2.499519e-03
1.176347e+02	-2.528468e-03
1.183141e+02	-2.557753e-03
1.189975e+02	-2.587376e-03
1.196848e+02	-2.617343e-03
1.203761e+02	-2.647656e-03
1.210714e+02	-2.678320e-03
1.217707e+02	-2.709340e-03
1.224740e+02	-2.740718e-03
1.231814e+02	-2.772460e-03
1.238929e+02	-2.804569e-03
1.246085e+02	-2.837050e-03
1.253283e+02	-2.869907e-03
1.260522e+02	-2.903145e-03
1.267802e+02	-2.936767e-03
1.275125e+02	-2.970779e-03
1.282490e+02	-3.005184e-03
1.289898e+02	-3.039988e-03
1.297348e+02	-3.075194e-03
1.304842e+02	-3.110809e-03
1.312378e+02	-3.146835e-03
1.319959e+02	-3.183279e-03
1.327583e+02	-3.220144e-03
1.335251e+02	-3.257436e-03
1.342963e+02	-3.295160e-03
1.350720e+02	-3.333321e-03
1.358522e+02	-3.371923e-03
1.366368e+02	-3.410972e-03
1.374260e+02	-3.450474e-03
1.382198e+02	-3.490432e-03
1.390182e+02	-3.530853e-03
1.398211e+02	-3.571742e-03
1.406287e+02	-3.613105e-03
1.414410e+02	-3.654946e-03
1.422579e+02	-3.697271e-03
1.430796e+02	-3.740087e-03
1.439060e+02	-3.783398e-03
1.447372e+02	-3.827210e-03
1.455732e+02	-3.871529e-03
1.464141e+02	-3.916362e-03
1.472597e+02	-3.961713e-03
1.481103e+02	-4.007589e-03
1.489658e+02	-4.053997e-03
1.498262e+02	-4.100941e-03
1.506916e+02	-4.148429e-03
1.515620e+02	-4.196466e-03
1.524374e+02	-4.245059e-03
1.533179e+02	-4.294215e-03
1.542034e+02	-4.343940e-03
1.550941e+02	-4.394240e-03
1.559899e+02	-4.445122e-03
1.568909e+02	-4.496594e-03
1.577971e+02	-4.548660e-03
1.587085e+02	-4.601330e-03
1.596252e+02	-4.654609e-03
1.605472e+02	-4.708504e-03
1.614745e+02	-4.763024e-03
1.624072e+02	-4.818174e-03
1.633453e+02	-4.873962e-03
1.642887e+02	-4.930396e-03
1.652377e+02	-4.987483e-03
1.661921e+02	-5.045231e-03
1.671520e+02	-5.103647e-03
1.681175e+02	-5.162739e-03
1.690885e+02	-5.222514e-03
1.700651e+02	-5.282982e-03
1.710474e+02	-5.344149e-03
1.720354e+02	-5.406023e-03
1.730291e+02	-5.468614e-03
1.740285e+02	-5.531929e-03
1.750337e+02	-5.595976e-03
1.760446e+02	-5.660765e-03
1.770615e+02	-5.726303e-03
1.780842e+02	-5.792599e-03
1.791128e+02	-5.859663e-03
1.801473e+02	-5.927502e-03
1.811878e+02	-5.996126e-03
1.822344e+02	-6.065544e-03
1.832870e+02	-6.135765e-03
1.843456e+02	-6.206799e-03
1.854104e+02	-6.278654e-03
1.864813e+02	-6.351340e-03
1.875584e+02	-6.424868e-03
1.886418e+02	-6.499246e-03
1.897313e+02	-6.574484e-03
1.908272e+02	-6.650593e-03
1.919294e+02	-6.727582e-03
1.930380e+02	-6.805461e-03
1.941530e+02	-6.884242e-03
1.952744e+02	-6.963933e-03
1.964023e+02	-7.044546e-03
1.975367e+02	-7.126092e-03
1.986777e+02	-7.208581e-03
1.998252e+02	-7.292024e-03
2.009794e+02	-7.376432e-03
2.021403e+02	-7.461816e-03
2.033078e+02	-7.548188e-03
2.044821e+02	-7.635559e-03
2.056632e+02	-7.723940e-03
2.068511e+02	-7.813343e-03
2.080459e+02	-7.903780e-03
2.092475e+02	-7.995263e-03
2.104561e+02	-8.087803e-03
2.116717e+02	-8.181414e-03
2.128943e+02	-8.276107e-03
2.141240e+02	-8.371895e-03
2.153608e+02	-8.468791e-03
2.166047e+02	-8.566807e-03
2.178558e+02	-8.665957e-03
2.191141e+02	-8.766252e-03
2.203797e+02	-8.867708e-03
2.216526e+02	-8.970336e-03
2.229329e+02	-9.074151e-03
2.242205e+02	-9.179165e-03
2.255156e+02	-9.285394e-03
2.268182e+02	-9.392851e-03
2.281283e+02	-9.501551e-03
2.294459e+02	-9.611506e-03
2.307712e+02	-9.722733e-03
2.321041e+02	-9.835246e-03
2.334447e+02	-9.949058e-03
2.347931e+02	-1.006419e-02
2.361493e+02	-1.018065e-02
2.375133e+02	-1.029845e-02
2.388851e+02	-1.041762e-02
2.402649e+02	-1.053816e-02
2.416527e+02	-1.066010e-02
2.430484e+02	-1.078344e-02
2.444523e+02	-1.090822e-02
2.458642e+02	-1.103443e-02
2.472843e+02	-1.116210e-02
2.487126e+02	-1.129125e-02
2.501492e+02	-1.142189e-02
2.515940e+02	-1.155404e-02
2.530472e+02	-1.168771e-02
2.545088e+02	-1.182293e-02
2.559789e+02	-1.195972e-02
2.574574e+02	-1.209808e-02
2.589444e+02	-1.223804e-02
2.604401e+02	-1.237962e-02
2.619444e+02	-1.252283e-02
2.634574e+02	-1.266770e-02
2.649791e+02	-1.281424e-02
2.665096e+02	-1.296247e-02
2.680489e+02	-1.311242e-02
2.695972e+02	-1.326410e-02
2.711544e+02	-1.341753e-02
2.727205e+02	-1.357273e-02
2.742958e+02	-1.372972e-02
2.758801e+02	-1.388853e-02
2.774736e+02	-1.404917e-02
2.790762e+02	-1.421167e-02
2.806882e+02	-1.437604e-02
2.823094e+02	-1.454231e-02
2.839400e+02	-1.471050e-02
2.855800e+02	-1.488063e-02
2.872295e+02	-1.505273e-02
2.888886e+02	-1.522681e-02
2.905572e+02	-1.540291e-02
2.922354e+02	-1.558103e-02
2.939234e+02	-1.576121e-02
2.956211e+02	-1.594347e-02
2.973286e+02	-1.612784e-02
2.990459e+02	-1.631433e-02
3.007732e+02	-1.650298e-02
3.025104e+02	-1.669380e-02
3.042577e+02	-1.688683e-02
3.060151e+02	-1.708208e-02
3.077826e+02	-1.727958e-02
3.095604e+02	-1.747937e-02
3.113484e+02	-1.768146e-02
3.131467e+02	-1.788588e-02
3.149554e+02	-1.809266e-02
3.167746e+02	-1.830182e-02
3.186043e+02	-1.851340e-02
3.204445e+02	-1.872742e-02
3.222954e+02	-1.894391e-02
3.241570e+02	-1.916289e-02
3.260293e+02	-1.938440e-02
3.279124e+02	-1.960846e-02
3.298064e+02	-1.983511e-02
3.317114e+02	-2.006438e-02
3.336273e+02	-2.029628e-02
3.355544e+02	-2.053086e-02
3.374925e+02	-2.076815e-02
3.394418e+02	-2.100817e-02
3.414024e+02	-2.125095e-02
3.433744e+02	-2.149654e-02
3.453577e+02	-2.174496e-02
3.473525e+02	-2.199624e-02
3.493588e+02	-2.225042e-02
3.513766e+02	-2.250752e-02
3.534062e+02	-2.276759e-02
3.554474e+02	-2.303066e-02
3.575005e+02	-2.329676e-02
3.595654e+02	-2.356592e-02
3.616422e+02	-2.383819e-02
3.637311e+02	-2.411359e-02
3.658320e+02	-2.439217e-02
3.679450e+02	-2.467395e-02
3.700702e+02	-2.495898e-02
3.722077e+02	-2.524729e-02
3.743576e+02	-2.553893e-02
3.765199e+02	-2.583392e-02
3.786946e+02	-2.613231e-02
3.808820e+02	-2.643414e-02
3.830819e+02	-2.673944e-02
3.852946e+02	-2.704825e-02
3.875200e+02	-2.736062e-02
3.897583e+02	-2.767659e-02
3.920096e+02	-2.799619e-02
3.942738e+02	-2.831948e-02
3.965511e+02	-2.864648e-02
3.988416e+02	-2.897725e-02
4.011452e+02	-2.931182e-02
4.034622e+02	-2.965024e-02
4.057926e+02	-2.999256e-02
4.081365e+02	-3.033881e-02
4.104938e+02	-3.068905e-02
4.128648e+02	-3.104332e-02
4.152495e+02	-3.140166e-02
4.176480e+02	-3.176412e-02
4.200603e+02	-3.213075e-02
4.224866e+02	-3.250160e-02
4.249268e+02	-3.287671e-02
4.273812e+02	-3.325613e-02
4.298497e+02	-3.363991e-02
4.323325e+02	-3.402811e-02
4.348297e+02	-3.442077e-02
4.373412e+02	-3.481794e-02
4.398673e+02	-3.521968e-02
4.424079e+02	-3.562603e-02
4.449633e+02	-3.603705e-02
4.475334e+02	-3.645279e-02
4.501183e+02	-3.687331e-02
4.527182e+02	-3.729866e-02
4.553330e+02	-3.772889e-02
4.579630e+02	-3.816406e-02
4.606082e+02	-3.860423e-02
4.632687e+02	-3.904946e-02
4.659445e+02	-3.949979e-02
4.686358e+02	-3.995530e-02
4.713426e+02	-4.041603e-02
4.740650e+02	-4.088206e-02
4.768032e+02	-4.135343e-02
4.795572e+02	-4.183020e-02
4.823271e+02	-4.231245e-02
4.851130e+02	-4.280023e-02
4.879150e+02	-4.329361e-02
4.907332e+02	-4.379264e-02
4.935676e+02	-4.429740e-02
4.964185e+02	-4.480794e-02
4.992858e+02	-4.532434e-02
5.021696e+02	-4.584666e-02
5.050701e+02	-4.637496e-02
5.079874e+02	-4.690932e-02
5.109215e+02	-4.744981e-02
5.138726e+02	-4.799648e-02
5.168407e+02	-4.854942e-02
5.198259e+02	-4.910869e-02
5.228284e+02	-4.967437e-02
5.258482e+02	-5.024653e-02
5.288855e+02	-5.082523e-02
5.319403e+02	-5.141057e-02
5.350128e+02	-5.200260e-02
5.381030e+02	-5.260141e-02
5.412111e+02	-5.320708e-02
5.443371e+02	-5.381967e-02
5.474812e+02	-5.443927e-02
5.506434e+02	-5.506596e-02
5.538239e+02	-5.569982e-02
5.570228e+02	-5.634093e-02
5.602401e+02	-5.698936e-02
5.634760e+02	-5.764521e-02
5.667306e+02	-5.830856e-02
5.700040e+02	-5.897949e-02
5.732964e+02	-5.965809e-02
5.766077e+02	-6.034443e-02
5.799382e+02	-6.103862e-02
5.832879e+02	-6.174074e-02
5.866569e+02	-6.245088e-02
5.900454e+02	-6.316912e-02
5.934535e+02	-6.389557e-02
5.968813e+02	-6.463030e-02
6.003288e+02	-6.537343e-02
6.037963e+02	-6.612503e-02
6.072838e+02	-6.688520e-02
6.107914e+02	-6.765405e-02
6.143194e+02	-6.843166e-02
6.178676e+02	-6.921814e-02
6.214364e+02	-7.001358e-02
6.250258e+02	-7.081810e-02
6.286359e+02	-7.163178e-02
6.322669e+02	-7.245473e-02
6.359189e+02	-7.328705e-02
6.395919e+02	-7.412886e-02
6.432862e+02	-7.498025e-02
6.470017e+02	-7.584133e-02
6.507388e+02	-7.671222e-02
6.544974e+02	-7.759301e-02
6.582778e+02	-7.848383e-02
6.620800e+02	-7.938478e-02
6.659041e+02	-8.029598e-02
6.697504e+02	-8.121753e-02
6.736188e+02	-8.214957e-02
6.775096e+02	-8.309220e-02
6.814229e+02	-8.404553e-02
6.853587e+02	-8.500970e-02
6.893173e+02	-8.598482e-02
6.932988e+02	-8.697102e-02
6.973033e+02	-8.796841e-02
7.013309e+02	-8.897712e-02
