Frequency(Hz)	Magnitude(dB)
1.000000e+01	-2.180446e+00
1.005776e+01	-2.200061e+00
1.011585e+01	-2.219911e+00
1.017428e+01	-2.239968e+00
1.023305e+01	-2.260260e+00
1.029215e+01	-2.280590e+00
1.035160e+01	-2.301138e+00
1.041139e+01	-2.321828e+00
1.047153e+01	-2.342632e+00
1.053201e+01	-2.363690e+00
1.059284e+01	-2.384671e+00
1.065403e+01	-2.405785e+00
1.071556e+01	-2.427089e+00
1.077746e+01	-2.448623e+00
1.083971e+01	-2.470317e+00
1.090232e+01	-2.491972e+00
1.096529e+01	-2.514040e+00
1.102862e+01	-2.535738e+00
1.109232e+01	-2.558031e+00
1.115639e+01	-2.580604e+00
1.122083e+01	-2.602944e+00
1.128564e+01	-2.625513e+00
1.135083e+01	-2.648160e+00
1.141639e+01	-2.671391e+00
1.148233e+01	-2.694592e+00
1.154865e+01	-2.717696e+00
1.161536e+01	-2.740849e+00
1.168245e+01	-2.764476e+00
1.174992e+01	-2.788015e+00
1.181779e+01	-2.811848e+00
1.188605e+01	-2.835704e+00
1.195470e+01	-2.859808e+00
1.202375e+01	-2.884028e+00
1.209320e+01	-2.908563e+00
1.216305e+01	-2.932844e+00
1.223330e+01	-2.957414e+00
1.230396e+01	-2.982084e+00
1.237503e+01	-3.007082e+00
1.244651e+01	-3.032053e+00
1.251840e+01	-3.057430e+00
1.259070e+01	-3.082797e+00
1.266343e+01	-3.108326e+00
1.273657e+01	-3.133893e+00
1.281014e+01	-3.159559e+00
1.288413e+01	-3.185632e+00
1.295855e+01	-3.211632e+00
1.303339e+01	-3.237955e+00
1.310867e+01	-3.264099e+00
1.318439e+01	-3.290799e+00
1.326054e+01	-3.317293e+00
1.333713e+01	-3.344450e+00
1.341417e+01	-3.371346e+00
1.349165e+01	-3.398347e+00
1.356958e+01	-3.425432e+00
1.364795e+01	-3.452743e+00
1.372678e+01	-3.480212e+00
1.380607e+01	-3.507898e+00
1.388581e+01	-3.535865e+00
1.396602e+01	-3.563708e+00
1.404668e+01	-3.591761e+00
1.412782e+01	-3.620044e+00
1.420942e+01	-3.648364e+00
1.429149e+01	-3.676780e+00
1.437404e+01	-3.705540e+00
1.445706e+01	-3.734349e+00
1.454057e+01	-3.763315e+00
1.462455e+01	-3.792340e+00
1.470902e+01	-3.821383e+00
1.479398e+01	-3.850758e+00
1.487943e+01	-3.880253e+00
1.496537e+01	-3.909635e+00
1.505181e+01	-3.939784e+00
1.513875e+01	-3.969446e+00
1.522619e+01	-4.000004e+00
1.531414e+01	-4.029675e+00
1.540259e+01	-4.060111e+00
1.549156e+01	-4.090656e+00
1.558103e+01	-4.121315e+00
1.567103e+01	-4.151805e+00
1.576155e+01	-4.183010e+00
1.585258e+01	-4.213733e+00
1.594415e+01	-4.245250e+00
1.603624e+01	-4.276208e+00
1.612886e+01	-4.307441e+00
1.622202e+01	-4.338956e+00
1.631572e+01	-4.370431e+00
1.640996e+01	-4.402465e+00
1.650474e+01	-4.434703e+00
1.660008e+01	-4.466856e+00
1.669596e+01	-4.498996e+00
1.679239e+01	-4.531349e+00
1.688938e+01	-4.563612e+00
1.698694e+01	-4.596037e+00
1.708505e+01	-4.628669e+00
1.718373e+01	-4.661928e+00
1.728299e+01	-4.694767e+00
1.738281e+01	-4.727915e+00
1.748322e+01	-4.761077e+00
1.758420e+01	-4.794349e+00
1.768576e+01	-4.827821e+00
1.778792e+01	-4.861515e+00
1.789066e+01	-4.895288e+00
1.799399e+01	-4.929348e+00
1.809793e+01	-4.963428e+00
1.820246e+01	-4.997328e+00
1.830760e+01	-5.031832e+00
1.841334e+01	-5.066037e+00
1.851969e+01	-5.100539e+00
1.862666e+01	-5.135194e+00
1.873425e+01	-5.170097e+00
1.884246e+01	-5.204936e+00
1.895129e+01	-5.239836e+00
1.906075e+01	-5.274969e+00
1.917085e+01	-5.310182e+00
1.928158e+01	-5.345455e+00
1.939295e+01	-5.381270e+00
1.950496e+01	-5.416548e+00
1.961762e+01	-5.452203e+00
1.973093e+01	-5.488522e+00
1.984490e+01	-5.524011e+00
1.995952e+01	-5.560138e+00
2.007480e+01	-5.596203e+00
2.019076e+01	-5.632906e+00
2.030738e+01	-5.668791e+00
2.042467e+01	-5.705383e+00
2.054264e+01	-5.742034e+00
2.066130e+01	-5.779062e+00
2.078064e+01	-5.815984e+00
2.090066e+01	-5.852820e+00
2.102139e+01	-5.889655e+00
2.114280e+01	-5.926778e+00
2.126492e+01	-5.964462e+00
2.138775e+01	-6.001781e+00
2.151128e+01	-6.039476e+00
2.163553e+01	-6.076818e+00
2.176050e+01	-6.114621e+00
2.188619e+01	-6.152749e+00
2.201260e+01	-6.190147e+00
2.213974e+01	-6.228578e+00
2.226762e+01	-6.266770e+00
2.239624e+01	-6.304836e+00
2.252560e+01	-6.343222e+00
2.265571e+01	-6.381529e+00
2.278656e+01	-6.419897e+00
2.291818e+01	-6.459100e+00
2.305055e+01	-6.497892e+00
2.318369e+01	-6.536441e+00
2.331760e+01	-6.575465e+00
2.345228e+01	-6.614751e+00
2.358774e+01	-6.653754e+00
2.372398e+01	-6.692821e+00
2.386101e+01	-6.731946e+00
2.399883e+01	-6.771656e+00
2.413745e+01	-6.811514e+00
2.427686e+01	-6.851360e+00
2.441709e+01	-6.890700e+00
2.455812e+01	-6.930492e+00
2.469997e+01	-6.970703e+00
2.484263e+01	-7.010570e+00
2.498612e+01	-7.050456e+00
2.513044e+01	-7.090773e+00
2.527559e+01	-7.131224e+00
2.542158e+01	-7.171930e+00
2.556842e+01	-7.212363e+00
2.571610e+01	-7.252742e+00
2.586463e+01	-7.293699e+00
2.601403e+01	-7.333772e+00
2.616428e+01	-7.374699e+00
2.631541e+01	-7.415600e+00
2.646740e+01	-7.456933e+00
2.662028e+01	-7.497700e+00
2.677404e+01	-7.538992e+00
2.692868e+01	-7.580261e+00
2.708422e+01	-7.621465e+00
2.724066e+01	-7.663189e+00
2.739800e+01	-7.704597e+00
2.755625e+01	-7.746233e+00
2.771541e+01	-7.787733e+00
2.787550e+01	-7.829495e+00
2.803650e+01	-7.871788e+00
2.819844e+01	-7.913157e+00
2.836131e+01	-7.955707e+00
2.852513e+01	-7.997174e+00
2.868989e+01	-8.039023e+00
2.885560e+01	-8.081796e+00
2.902227e+01	-8.123739e+00
2.918990e+01	-8.165966e+00
2.935850e+01	-8.208259e+00
2.952807e+01	-8.251056e+00
2.969863e+01	-8.293811e+00
2.987016e+01	-8.336175e+00
3.004269e+01	-8.378854e+00
3.021622e+01	-8.421992e+00
3.039075e+01	-8.464134e+00
3.056628e+01	-8.507644e+00
3.074283e+01	-8.550587e+00
3.092040e+01	-8.593884e+00
3.109900e+01	-8.636935e+00
3.127862e+01	-8.680161e+00
3.145929e+01	-8.723447e+00
3.164099e+01	-8.766726e+00
3.182375e+01	-8.810322e+00
3.200756e+01	-8.854053e+00
3.219244e+01	-8.897013e+00
3.237838e+01	-8.940615e+00
3.256540e+01	-8.984577e+00
3.275349e+01	-9.027856e+00
3.294268e+01	-9.071914e+00
3.313295e+01	-9.115878e+00
3.332433e+01	-9.159958e+00
3.351681e+01	-9.203345e+00
3.371040e+01	-9.247687e+00
3.390511e+01	-9.292226e+00
3.410094e+01	-9.336577e+00
3.429791e+01	-9.380598e+00
3.449601e+01	-9.424589e+00
3.469526e+01	-9.468886e+00
3.489566e+01	-9.513608e+00
3.509721e+01	-9.557209e+00
3.529993e+01	-9.601920e+00
3.550382e+01	-9.647178e+00
3.570889e+01	-9.691646e+00
3.591515e+01	-9.736658e+00
3.612259e+01	-9.781209e+00
3.633123e+01	-9.825925e+00
3.654108e+01	-9.870889e+00
3.675214e+01	-9.915420e+00
3.696442e+01	-9.960542e+00
3.717792e+01	-1.000589e+01
3.739266e+01	-1.005062e+01
3.760864e+01	-1.009601e+01
3.782587e+01	-1.014099e+01
3.804435e+01	-1.018591e+01
3.826409e+01	-1.023135e+01
3.848510e+01	-1.027623e+01
3.870739e+01	-1.032197e+01
3.893096e+01	-1.036746e+01
3.915583e+01	-1.041235e+01
3.938199e+01	-1.045807e+01
3.960946e+01	-1.050356e+01
3.983824e+01	-1.054998e+01
4.006834e+01	-1.059462e+01
4.029978e+01	-1.064102e+01
4.053255e+01	-1.068673e+01
4.076666e+01	-1.073200e+01
4.100213e+01	-1.077838e+01
4.123896e+01	-1.082400e+01
4.147715e+01	-1.086980e+01
4.171672e+01	-1.091646e+01
4.195767e+01	-1.096244e+01
4.220002e+01	-1.100799e+01
4.244377e+01	-1.105369e+01
4.268892e+01	-1.109960e+01
4.293549e+01	-1.114610e+01
4.318348e+01	-1.119253e+01
4.343291e+01	-1.123880e+01
4.368377e+01	-1.128508e+01
4.393609e+01	-1.133182e+01
4.418986e+01	-1.137752e+01
4.444510e+01	-1.142385e+01
4.470182e+01	-1.147035e+01
4.496001e+01	-1.151669e+01
4.521970e+01	-1.156341e+01
4.548089e+01	-1.160999e+01
4.574358e+01	-1.165680e+01
4.600779e+01	-1.170309e+01
4.627353e+01	-1.174997e+01
4.654081e+01	-1.179680e+01
4.680963e+01	-1.184311e+01
4.708000e+01	-1.188964e+01
4.735193e+01	-1.193680e+01
4.762543e+01	-1.198350e+01
4.790051e+01	-1.203110e+01
4.817719e+01	-1.207745e+01
4.845545e+01	-1.212496e+01
4.873533e+01	-1.217172e+01
4.901682e+01	-1.221808e+01
4.929994e+01	-1.226549e+01
4.958470e+01	-1.231240e+01
4.987110e+01	-1.235972e+01
5.015915e+01	-1.240669e+01
5.044887e+01	-1.245380e+01
5.074026e+01	-1.250147e+01
5.103333e+01	-1.254785e+01
5.132810e+01	-1.259632e+01
5.162457e+01	-1.264349e+01
5.192275e+01	-1.269038e+01
5.222265e+01	-1.273732e+01
5.252429e+01	-1.278564e+01
5.282767e+01	-1.283259e+01
5.313280e+01	-1.288034e+01
5.343969e+01	-1.292715e+01
5.374836e+01	-1.297432e+01
5.405880e+01	-1.302154e+01
5.437105e+01	-1.306937e+01
5.468509e+01	-1.311704e+01
5.500095e+01	-1.316568e+01
5.531863e+01	-1.321231e+01
5.563815e+01	-1.326005e+01
5.595951e+01	-1.330804e+01
5.628273e+01	-1.335602e+01
5.660782e+01	-1.340282e+01
5.693479e+01	-1.345130e+01
5.726364e+01	-1.349894e+01
5.759439e+01	-1.354723e+01
5.792705e+01	-1.359433e+01
5.826164e+01	-1.364295e+01
5.859815e+01	-1.369058e+01
5.893662e+01	-1.373827e+01
5.927703e+01	-1.378616e+01
5.961941e+01	-1.383428e+01
5.996377e+01	-1.388277e+01
6.031012e+01	-1.392965e+01
6.065847e+01	-1.397871e+01
6.100883e+01	-1.402559e+01
6.136121e+01	-1.407420e+01
6.171563e+01	-1.412252e+01
6.207210e+01	-1.417056e+01
6.243063e+01	-1.421846e+01
6.279122e+01	-1.426560e+01
6.315390e+01	-1.431529e+01
6.351868e+01	-1.436332e+01
6.388556e+01	-1.441086e+01
6.425456e+01	-1.445891e+01
6.462569e+01	-1.450727e+01
6.499897e+01	-1.455580e+01
6.537440e+01	-1.460339e+01
6.575200e+01	-1.465350e+01
6.613178e+01	-1.470107e+01
6.651375e+01	-1.474940e+01
6.689793e+01	-1.479810e+01
6.728433e+01	-1.484574e+01
6.767297e+01	-1.489384e+01
6.806384e+01	-1.494250e+01
6.845698e+01	-1.499096e+01
6.885238e+01	-1.503881e+01
6.925007e+01	-1.508847e+01
6.965005e+01	-1.513675e+01
7.005235e+01	-1.518575e+01
7.045697e+01	-1.523383e+01
7.086393e+01	-1.528198e+01
7.127323e+01	-1.532991e+01
7.168490e+01	-1.537940e+01
7.209895e+01	-1.542827e+01
7.251539e+01	-1.547593e+01
7.293424e+01	-1.552581e+01
7.335551e+01	-1.557362e+01
7.377920e+01	-1.562214e+01
7.420535e+01	-1.567121e+01
7.463396e+01	-1.571965e+01
7.506504e+01	-1.576893e+01
7.549861e+01	-1.581811e+01
7.593469e+01	-1.586489e+01
7.637328e+01	-1.591402e+01
7.681441e+01	-1.596326e+01
7.725809e+01	-1.601339e+01
7.770433e+01	-1.606002e+01
7.815315e+01	-1.610977e+01
7.860456e+01	-1.615812e+01
7.905857e+01	-1.620752e+01
7.951521e+01	-1.625603e+01
7.997449e+01	-1.630599e+01
8.043642e+01	-1.635335e+01
8.090102e+01	-1.640252e+01
8.136830e+01	-1.645174e+01
8.183828e+01	-1.650160e+01
8.231097e+01	-1.654968e+01
8.278640e+01	-1.659836e+01
8.326457e+01	-1.664732e+01
8.374550e+01	-1.669587e+01
8.422921e+01	-1.674552e+01
8.471572e+01	-1.679459e+01
8.520503e+01	-1.684418e+01
8.569717e+01	-1.689227e+01
8.619215e+01	-1.694103e+01
8.669000e+01	-1.698929e+01
8.719071e+01	-1.703957e+01
8.769432e+01	-1.708875e+01
8.820084e+01	-1.713826e+01
8.871029e+01	-1.718692e+01
8.922267e+01	-1.723576e+01
8.973802e+01	-1.728424e+01
9.025634e+01	-1.733409e+01
9.077766e+01	-1.738264e+01
9.130199e+01	-1.743203e+01
9.182935e+01	-1.748130e+01
9.235975e+01	-1.753156e+01
9.289321e+01	-1.758023e+01
9.342976e+01	-1.762922e+01
9.396941e+01	-1.767793e+01
9.451217e+01	-1.772748e+01
9.505807e+01	-1.777570e+01
9.560712e+01	-1.782564e+01
9.615934e+01	-1.787550e+01
9.671476e+01	-1.792514e+01
9.727338e+01	-1.797279e+01
9.783522e+01	-1.802237e+01
9.840032e+01	-1.807232e+01
9.896867e+01	-1.812087e+01
9.954031e+01	-1.816962e+01
1.001153e+02	-1.822007e+01
1.006935e+02	-1.826827e+01
1.012751e+02	-1.831887e+01
1.018601e+02	-1.836768e+01
1.024484e+02	-1.841742e+01
1.030402e+02	-1.846492e+01
1.036353e+02	-1.851545e+01
1.042339e+02	-1.856383e+01
1.048360e+02	-1.861355e+01
1.054415e+02	-1.866303e+01
1.060505e+02	-1.871265e+01
1.066631e+02	-1.876257e+01
1.072791e+02	-1.881071e+01
1.078988e+02	-1.886027e+01
1.085220e+02	-1.890998e+01
1.091488e+02	-1.896031e+01
1.097793e+02	-1.900865e+01
1.104133e+02	-1.905789e+01
1.110511e+02	-1.910761e+01
1.116925e+02	-1.915753e+01
1.123376e+02	-1.920709e+01
1.129865e+02	-1.925610e+01
1.136391e+02	-1.930602e+01
1.142955e+02	-1.935488e+01
1.149556e+02	-1.940383e+01
1.156196e+02	-1.945247e+01
1.162874e+02	-1.950331e+01
1.169591e+02	-1.955439e+01
1.176347e+02	-1.960267e+01
1.183141e+02	-1.965262e+01
1.189975e+02	-1.969991e+01
1.196848e+02	-1.975069e+01
1.203761e+02	-1.979971e+01
1.210714e+02	-1.985043e+01
1.217707e+02	-1.989927e+01
1.224740e+02	-1.994923e+01
1.231814e+02	-1.999778e+01
1.238929e+02	-2.004636e+01
1.246085e+02	-2.009800e+01
1.253283e+02	-2.014776e+01
1.260522e+02	-2.019772e+01
1.267802e+02	-2.024753e+01
1.275125e+02	-2.029665e+01
1.282490e+02	-2.034582e+01
1.289898e+02	-2.039557e+01
1.297348e+02	-2.044496e+01
1.304842e+02	-2.049442e+01
1.312378e+02	-2.054385e+01
1.319959e+02	-2.059224e+01
1.327583e+02	-2.064341e+01
1.335251e+02	-2.069244e+01
1.342963e+02	-2.074273e+01
1.350720e+02	-2.079156e+01
1.358522e+02	-2.084050e+01
1.366368e+02	-2.089045e+01
1.374260e+02	-2.094056e+01
1.382198e+02	-2.098970e+01
1.390182e+02	-2.104040e+01
1.398211e+02	-2.108933e+01
1.406287e+02	-2.113964e+01
1.414410e+02	-2.118778e+01
1.422579e+02	-2.123904e+01
1.430796e+02	-2.128836e+01
1.439060e+02	-2.133582e+01
1.447372e+02	-2.138810e+01
1.455732e+02	-2.143632e+01
1.464141e+02	-2.148715e+01
1.472597e+02	-2.153679e+01
1.481103e+02	-2.158465e+01
1.489658e+02	-2.163508e+01
1.498262e+02	-2.168253e+01
1.506916e+02	-2.173522e+01
1.515620e+02	-2.178633e+01
1.524374e+02	-2.183263e+01
1.533179e+02	-2.188376e+01
1.542034e+02	-2.193466e+01
1.550941e+02	-2.198413e+01
1.559899e+02	-2.203574e+01
1.568909e+02	-2.208381e+01
1.577971e+02	-2.213364e+01
1.587085e+02	-2.218130e+01
1.596252e+02	-2.223337e+01
1.605472e+02	-2.228228e+01
1.614745e+02	-2.233373e+01
1.624072e+02	-2.237914e+01
1.633453e+02	-2.242987e+01
1.642887e+02	-2.248173e+01
1.652377e+02	-2.253044e+01
1.661921e+02	-2.257916e+01
1.671520e+02	-2.262900e+01
1.681175e+02	-2.268030e+01
1.690885e+02	-2.273112e+01
1.700651e+02	-2.278104e+01
1.710474e+02	-2.283086e+01
1.720354e+02	-2.288185e+01
1.730291e+02	-2.292895e+01
1.740285e+02	-2.297937e+01
1.750337e+02	-2.303022e+01
1.760446e+02	-2.307920e+01
1.770615e+02	-2.312817e+01
1.780842e+02	-2.317781e+01
1.791128e+02	-2.322899e+01
1.801473e+02	-2.327834e+01
1.811878e+02	-2.332941e+01
1.822344e+02	-2.337755e+01
1.832870e+02	-2.342899e+01
1.843456e+02	-2.347723e+01
1.854104e+02	-2.352718e+01
1.864813e+02	-2.357819e+01
1.875584e+02	-2.362901e+01
1.886418e+02	-2.367595e+01
1.897313e+02	-2.372892e+01
1.908272e+02	-2.377697e+01
1.919294e+02	-2.382796e+01
1.930380e+02	-2.387761e+01
1.941530e+02	-2.392701e+01
1.952744e+02	-2.397743e+01
1.964023e+02	-2.402421e+01
1.975367e+02	-2.407600e+01
1.986777e+02	-2.412619e+01
1.998252e+02	-2.417577e+01
2.009794e+02	-2.422478e+01
2.021403e+02	-2.427421e+01
2.033078e+02	-2.432571e+01
2.044821e+02	-2.437760e+01
2.056632e+02	-2.442584e+01
2.068511e+02	-2.447398e+01
2.080459e+02	-2.452412e+01
2.092475e+02	-2.457446e+01
2.104561e+02	-2.462667e+01
2.116717e+02	-2.467198e+01
2.128943e+02	-2.472563e+01
2.141240e+02	-2.477020e+01
2.153608e+02	-2.482178e+01
2.166047e+02	-2.487710e+01
2.178558e+02	-2.492128e+01
2.191141e+02	-2.497282e+01
2.203797e+02	-2.502394e+01
2.216526e+02	-2.507398e+01
2.229329e+02	-2.512163e+01
2.242205e+02	-2.517280e+01
2.255156e+02	-2.522434e+01
2.268182e+02	-2.527377e+01
2.281283e+02	-2.532112e+01
2.294459e+02	-2.537093e+01
2.307712e+02	-2.542389e+01
2.321041e+02	-2.547358e+01
2.334447e+02	-2.552248e+01
2.347931e+02	-2.557473e+01
2.361493e+02	-2.562134e+01
2.375133e+02	-2.567422e+01
2.388851e+02	-2.572229e+01
2.402649e+02	-2.577447e+01
2.416527e+02	-2.582071e+01
2.430484e+02	-2.587135e+01
2.444523e+02	-2.591835e+01
2.458642e+02	-2.597364e+01
2.472843e+02	-2.602621e+01
2.487126e+02	-2.607330e+01
2.501492e+02	-2.612064e+01
2.515940e+02	-2.617117e+01
2.530472e+02	-2.622366e+01
2.545088e+02	-2.627082e+01
2.559789e+02	-2.632479e+01
2.574574e+02	-2.637259e+01
2.589444e+02	-2.642261e+01
2.604401e+02	-2.647173e+01
2.619444e+02	-2.652438e+01
2.634574e+02	-2.657396e+01
2.649791e+02	-2.662018e+01
2.665096e+02	-2.667359e+01
2.680489e+02	-2.672127e+01
2.695972e+02	-2.677259e+01
2.711544e+02	-2.682175e+01
2.727205e+02	-2.687418e+01
2.742958e+02	-2.691797e+01
2.758801e+02	-2.697099e+01
2.774736e+02	-2.702471e+01
2.790762e+02	-2.707011e+01
2.806882e+02	-2.712065e+01
2.823094e+02	-2.716966e+01
2.839400e+02	-2.722050e+01
2.855800e+02	-2.727175e+01
2.872295e+02	-2.731900e+01
2.888886e+02	-2.737083e+01
2.905572e+02	-2.742170e+01
2.922354e+02	-2.747529e+01
2.939234e+02	-2.752325e+01
2.956211e+02	-2.757141e+01
2.973286e+02	-2.762223e+01
2.990459e+02	-2.767358e+01
3.007732e+02	-2.772198e+01
3.025104e+02	-2.777129e+01
3.042577e+02	-2.782374e+01
3.060151e+02	-2.787193e+01
3.077826e+02	-2.792257e+01
3.095604e+02	-2.796893e+01
3.113484e+02	-2.802130e+01
3.131467e+02	-2.807128e+01
3.149554e+02	-2.812183e+01
3.167746e+02	-2.816929e+01
3.186043e+02	-2.822168e+01
3.204445e+02	-2.827459e+01
3.222954e+02	-2.832121e+01
3.241570e+02	-2.837487e+01
3.260293e+02	-2.842198e+01
3.279124e+02	-2.847297e+01
3.298064e+02	-2.852475e+01
3.317114e+02	-2.857186e+01
3.336273e+02	-2.862595e+01
3.355544e+02	-2.867177e+01
3.374925e+02	-2.872151e+01
3.394418e+02	-2.876964e+01
3.414024e+02	-2.882203e+01
3.433744e+02	-2.886930e+01
3.453577e+02	-2.892257e+01
3.473525e+02	-2.897355e+01
3.493588e+02	-2.902341e+01
3.513766e+02	-2.907014e+01
3.534062e+02	-2.912157e+01
3.554474e+02	-2.917227e+01
3.575005e+02	-2.922727e+01
3.595654e+02	-2.927678e+01
3.616422e+02	-2.932608e+01
3.637311e+02	-2.937131e+01
3.658320e+02	-2.942309e+01
3.679450e+02	-2.947852e+01
3.700702e+02	-2.953082e+01
3.722077e+02	-2.957177e+01
3.743576e+02	-2.962552e+01
3.765199e+02	-2.967341e+01
3.786946e+02	-2.972637e+01
3.808820e+02	-2.977514e+01
3.830819e+02	-2.982506e+01
3.852946e+02	-2.987885e+01
3.875200e+02	-2.992454e+01
3.897583e+02	-2.997077e+01
3.920096e+02	-3.002082e+01
3.942738e+02	-3.007456e+01
3.965511e+02	-3.012577e+01
3.988416e+02	-3.017415e+01
4.011452e+02	-3.022334e+01
4.034622e+02	-3.026968e+01
4.057926e+02	-3.032402e+01
4.081365e+02	-3.037587e+01
4.104938e+02	-3.042715e+01
4.128648e+02	-3.047631e+01
4.152495e+02	-3.052789e+01
4.176480e+02	-3.057731e+01
4.200603e+02	-3.062651e+01
4.224866e+02	-3.068112e+01
4.249268e+02	-3.072987e+01
4.273812e+02	-3.077616e+01
4.298497e+02	-3.082906e+01
4.323325e+02	-3.087740e+01
4.348297e+02	-3.092291e+01
4.373412e+02	-3.097905e+01
4.398673e+02	-3.102830e+01
4.424079e+02	-3.108169e+01
4.449633e+02	-3.112657e+01
4.475334e+02	-3.117635e+01
4.501183e+02	-3.123129e+01
4.527182e+02	-3.127965e+01
4.553330e+02	-3.133262e+01
4.579630e+02	-3.138088e+01
4.606082e+02	-3.143162e+01
4.632687e+02	-3.148240e+01
4.659445e+02	-3.153673e+01
4.686358e+02	-3.158045e+01
4.713426e+02	-3.162955e+01
4.740650e+02	-3.167452e+01
4.768032e+02	-3.172762e+01
4.795572e+02	-3.178101e+01
4.823271e+02	-3.182851e+01
4.851130e+02	-3.188135e+01
4.879150e+02	-3.192952e+01
4.907332e+02	-3.197701e+01
4.935676e+02	-3.203506e+01
4.964185e+02	-3.208350e+01
4.992858e+02	-3.213059e+01
5.021696e+02	-3.217944e+01
5.050701e+02	-3.223008e+01
5.079874e+02	-3.227873e+01
5.109215e+02	-3.233237e+01
5.138726e+02	-3.237781e+01
5.168407e+02	-3.243153e+01
5.198259e+02	-3.248079e+01
5.228284e+02	-3.253249e+01
5.258482e+02	-3.257735e+01
5.288855e+02	-3.263475e+01
5.319403e+02	-3.268242e+01
5.350128e+02	-3.273013e+01
5.381030e+02	-3.278379e+01
5.412111e+02	-3.283569e+01
5.443371e+02	-3.288266e+01
5.474812e+02	-3.293391e+01
5.506434e+02	-3.298838e+01
5.538239e+02	-3.302648e+01
5.570228e+02	-3.308404e+01
5.602401e+02	-3.313426e+01
5.634760e+02	-3.318295e+01
5.667306e+02	-3.324248e+01
5.700040e+02	-3.328795e+01
5.732964e+02	-3.334683e+01
5.766077e+02	-3.338365e+01
5.799382e+02	-3.344174e+01
5.832879e+02	-3.349144e+01
5.866569e+02	-3.354530e+01
5.900454e+02	-3.359040e+01
5.934535e+02	-3.364136e+01
5.968813e+02	-3.368885e+01
6.003288e+02	-3.374263e+01
6.037963e+02	-3.378688e+01
6.072838e+02	-3.383660e+01
6.107914e+02	-3.388469e+01
6.143194e+02	-3.393114e+01
6.178676e+02	-3.398453e+01
6.214364e+02	-3.403687e+01
6.250258e+02	-3.409251e+01
6.286359e+02	-3.414382e+01
6.322669e+02	-3.419462e+01
6.359189e+02	-3.423877e+01
6.395919e+02	-3.429596e+01
6.432862e+02	-3.435235e+01
6.470017e+02	-3.439285e+01
6.507388e+02	-3.444674e+01
6.544974e+02	-3.449590e+01
6.582778e+02	-3.454292e+01
6.620800e+02	-3.459264e+01
6.659041e+02	-3.464142e+01
6.697504e+02	-3.470171e+01
6.736188e+02	-3.474528e+01
6.775096e+02	-3.479591e+01
6.814229e+02	-3.484891e+01
6.853587e+02	-3.490364e+01
6.893173e+02	-3.494655e+01
6.932988e+02	-3.500285e+01
6.973033e+02	-3.504805e+01
7.013309e+02	-3.509583e+01
