Frequency(Hz)	Magnitude(dB)
1.000000e+01	-2.137259e+00
1.005776e+01	-2.156554e+00
1.011585e+01	-2.176277e+00
1.017428e+01	-2.196165e+00
1.023305e+01	-2.216094e+00
1.029215e+01	-2.236249e+00
1.035160e+01	-2.256117e+00
1.041139e+01	-2.276807e+00
1.047153e+01	-2.297199e+00
1.053201e+01	-2.317701e+00
1.059284e+01	-2.338658e+00
1.065403e+01	-2.359452e+00
1.071556e+01	-2.380397e+00
1.077746e+01	-2.401592e+00
1.083971e+01	-2.423093e+00
1.090232e+01	-2.444655e+00
1.096529e+01	-2.466232e+00
1.102862e+01	-2.487634e+00
1.109232e+01	-2.509566e+00
1.115639e+01	-2.531643e+00
1.122083e+01	-2.553805e+00
1.128564e+01	-2.576211e+00
1.135083e+01	-2.598635e+00
1.141639e+01	-2.621398e+00
1.148233e+01	-2.644190e+00
1.154865e+01	-2.666761e+00
1.161536e+01	-2.689892e+00
1.168245e+01	-2.713089e+00
1.174992e+01	-2.736404e+00
1.181779e+01	-2.759922e+00
1.188605e+01	-2.783365e+00
1.195470e+01	-2.807305e+00
1.202375e+01	-2.831056e+00
1.209320e+01	-2.855037e+00
1.216305e+01	-2.879158e+00
1.223330e+01	-2.903592e+00
1.230396e+01	-2.928310e+00
1.237503e+01	-2.952535e+00
1.244651e+01	-2.977637e+00
1.251840e+01	-3.002551e+00
1.259070e+01	-3.027038e+00
1.266343e+01	-3.052434e+00
1.273657e+01	-3.077718e+00
1.281014e+01	-3.103334e+00
1.288413e+01	-3.129138e+00
1.295855e+01	-3.154635e+00
1.303339e+01	-3.180560e+00
1.310867e+01	-3.206714e+00
1.318439e+01	-3.232599e+00
1.326054e+01	-3.259164e+00
1.333713e+01	-3.285485e+00
1.341417e+01	-3.312103e+00
1.349165e+01	-3.339350e+00
1.356958e+01	-3.365948e+00
1.364795e+01	-3.392926e+00
1.372678e+01	-3.420023e+00
1.380607e+01	-3.447849e+00
1.388581e+01	-3.475071e+00
1.396602e+01	-3.502760e+00
1.404668e+01	-3.530563e+00
1.412782e+01	-3.558130e+00
1.420942e+01	-3.586336e+00
1.429149e+01	-3.614467e+00
1.437404e+01	-3.643065e+00
1.445706e+01	-3.671405e+00
1.454057e+01	-3.699961e+00
1.462455e+01	-3.728789e+00
1.470902e+01	-3.757316e+00
1.479398e+01	-3.786847e+00
1.487943e+01	-3.815532e+00
1.496537e+01	-3.845101e+00
1.505181e+01	-3.874436e+00
1.513875e+01	-3.904507e+00
1.522619e+01	-3.933926e+00
1.531414e+01	-3.963807e+00
1.540259e+01	-3.993807e+00
1.549156e+01	-4.023957e+00
1.558103e+01	-4.054206e+00
1.567103e+01	-4.084510e+00
1.576155e+01	-4.115497e+00
1.585258e+01	-4.145839e+00
1.594415e+01	-4.176877e+00
1.603624e+01	-4.207685e+00
1.612886e+01	-4.238817e+00
1.622202e+01	-4.270409e+00
1.631572e+01	-4.301358e+00
1.640996e+01	-4.332708e+00
1.650474e+01	-4.364653e+00
1.660008e+01	-4.396170e+00
1.669596e+01	-4.428467e+00
1.679239e+01	-4.460199e+00
1.688938e+01	-4.492516e+00
1.698694e+01	-4.524855e+00
1.708505e+01	-4.557342e+00
1.718373e+01	-4.589940e+00
1.728299e+01	-4.622777e+00
1.738281e+01	-4.655298e+00
1.748322e+01	-4.688585e+00
1.758420e+01	-4.721380e+00
1.768576e+01	-4.754675e+00
1.778792e+01	-4.787909e+00
1.789066e+01	-4.821231e+00
1.799399e+01	-4.855125e+00
1.809793e+01	-4.888866e+00
1.820246e+01	-4.922817e+00
1.830760e+01	-4.956483e+00
1.841334e+01	-4.990838e+00
1.851969e+01	-5.024954e+00
1.862666e+01	-5.059244e+00
1.873425e+01	-5.093923e+00
1.884246e+01	-5.128566e+00
1.895129e+01	-5.162727e+00
1.906075e+01	-5.198128e+00
1.917085e+01	-5.233057e+00
1.928158e+01	-5.268336e+00
1.939295e+01	-5.303329e+00
1.950496e+01	-5.338460e+00
1.961762e+01	-5.373892e+00
1.973093e+01	-5.409369e+00
1.984490e+01	-5.445225e+00
1.995952e+01	-5.481361e+00
2.007480e+01	-5.516897e+00
2.019076e+01	-5.553201e+00
2.030738e+01	-5.589218e+00
2.042467e+01	-5.625726e+00
2.054264e+01	-5.661846e+00
2.066130e+01	-5.698669e+00
2.078064e+01	-5.734731e+00
2.090066e+01	-5.771733e+00
2.102139e+01	-5.808339e+00
2.114280e+01	-5.845534e+00
2.126492e+01	-5.882599e+00
2.138775e+01	-5.919960e+00
2.151128e+01	-5.957088e+00
2.163553e+01	-5.994357e+00
2.176050e+01	-6.031904e+00
2.188619e+01	-6.069558e+00
2.201260e+01	-6.107431e+00
2.213974e+01	-6.144987e+00
2.226762e+01	-6.183117e+00
2.239624e+01	-6.220884e+00
2.252560e+01	-6.259329e+00
2.265571e+01	-6.297675e+00
2.278656e+01	-6.336052e+00
2.291818e+01	-6.374168e+00
2.305055e+01	-6.412923e+00
2.318369e+01	-6.451547e+00
2.331760e+01	-6.490031e+00
2.345228e+01	-6.528983e+00
2.358774e+01	-6.567937e+00
2.372398e+01	-6.607274e+00
2.386101e+01	-6.646310e+00
2.399883e+01	-6.685178e+00
2.413745e+01	-6.724901e+00
2.427686e+01	-6.764224e+00
2.441709e+01	-6.804116e+00
2.455812e+01	-6.843173e+00
2.469997e+01	-6.883043e+00
2.484263e+01	-6.922622e+00
2.498612e+01	-6.962681e+00
2.513044e+01	-7.002788e+00
2.527559e+01	-7.043059e+00
2.542158e+01	-7.083333e+00
2.556842e+01	-7.123476e+00
2.571610e+01	-7.163748e+00
2.586463e+01	-7.204161e+00
2.601403e+01	-7.244920e+00
2.616428e+01	-7.285454e+00
2.631541e+01	-7.325953e+00
2.646740e+01	-7.366907e+00
2.662028e+01	-7.408096e+00
2.677404e+01	-7.448895e+00
2.692868e+01	-7.489979e+00
2.708422e+01	-7.531180e+00
2.724066e+01	-7.572296e+00
2.739800e+01	-7.613494e+00
2.755625e+01	-7.655033e+00
2.771541e+01	-7.696444e+00
2.787550e+01	-7.737867e+00
2.803650e+01	-7.779806e+00
2.819844e+01	-7.821240e+00
2.836131e+01	-7.863003e+00
2.852513e+01	-7.904679e+00
2.868989e+01	-7.947061e+00
2.885560e+01	-7.989247e+00
2.902227e+01	-8.031660e+00
2.918990e+01	-8.073706e+00
2.935850e+01	-8.115793e+00
2.952807e+01	-8.158107e+00
2.969863e+01	-8.201121e+00
2.987016e+01	-8.243143e+00
3.004269e+01	-8.285756e+00
3.021622e+01	-8.328270e+00
3.039075e+01	-8.370840e+00
3.056628e+01	-8.413536e+00
3.074283e+01	-8.456995e+00
3.092040e+01	-8.499379e+00
3.109900e+01	-8.542382e+00
3.127862e+01	-8.585430e+00
3.145929e+01	-8.628716e+00
3.164099e+01	-8.671925e+00
3.182375e+01	-8.714891e+00
3.200756e+01	-8.758285e+00
3.219244e+01	-8.801547e+00
3.237838e+01	-8.845449e+00
3.256540e+01	-8.888290e+00
3.275349e+01	-8.932256e+00
3.294268e+01	-8.976130e+00
3.313295e+01	-9.019992e+00
3.332433e+01	-9.063901e+00
3.351681e+01	-9.107129e+00
3.371040e+01	-9.151099e+00
3.390511e+01	-9.194839e+00
3.410094e+01	-9.239295e+00
3.429791e+01	-9.283292e+00
3.449601e+01	-9.327962e+00
3.469526e+01	-9.372265e+00
3.489566e+01	-9.415854e+00
3.509721e+01	-9.460517e+00
3.529993e+01	-9.504668e+00
3.550382e+01	-9.548745e+00
3.570889e+01	-9.594058e+00
3.591515e+01	-9.638108e+00
3.612259e+01	-9.682720e+00
3.633123e+01	-9.727443e+00
3.654108e+01	-9.772145e+00
3.675214e+01	-9.816719e+00
3.696442e+01	-9.861875e+00
3.717792e+01	-9.907023e+00
3.739266e+01	-9.951817e+00
3.760864e+01	-9.996700e+00
3.782587e+01	-1.004205e+01
3.804435e+01	-1.008710e+01
3.826409e+01	-1.013138e+01
3.848510e+01	-1.017727e+01
3.870739e+01	-1.022231e+01
3.893096e+01	-1.026791e+01
3.915583e+01	-1.031268e+01
3.938199e+01	-1.035905e+01
3.960946e+01	-1.040406e+01
3.983824e+01	-1.044930e+01
4.006834e+01	-1.049550e+01
4.029978e+01	-1.054088e+01
4.053255e+01	-1.058631e+01
4.076666e+01	-1.063171e+01
4.100213e+01	-1.067728e+01
4.123896e+01	-1.072366e+01
4.147715e+01	-1.076917e+01
4.171672e+01	-1.081536e+01
4.195767e+01	-1.086070e+01
4.220002e+01	-1.090655e+01
4.244377e+01	-1.095272e+01
4.268892e+01	-1.099873e+01
4.293549e+01	-1.104528e+01
4.318348e+01	-1.109114e+01
4.343291e+01	-1.113729e+01
4.368377e+01	-1.118326e+01
4.393609e+01	-1.122985e+01
4.418986e+01	-1.127586e+01
4.444510e+01	-1.132228e+01
4.470182e+01	-1.136843e+01
4.496001e+01	-1.141576e+01
4.521970e+01	-1.146133e+01
4.548089e+01	-1.150761e+01
4.574358e+01	-1.155457e+01
4.600779e+01	-1.160107e+01
4.627353e+01	-1.164771e+01
4.654081e+01	-1.169419e+01
4.680963e+01	-1.174078e+01
4.708000e+01	-1.178791e+01
4.735193e+01	-1.183471e+01
4.762543e+01	-1.188154e+01
4.790051e+01	-1.192825e+01
4.817719e+01	-1.197433e+01
4.845545e+01	-1.202128e+01
4.873533e+01	-1.206834e+01
4.901682e+01	-1.211515e+01
4.929994e+01	-1.216295e+01
4.958470e+01	-1.220923e+01
4.987110e+01	-1.225622e+01
5.015915e+01	-1.230346e+01
5.044887e+01	-1.235147e+01
5.074026e+01	-1.239721e+01
5.103333e+01	-1.244473e+01
5.132810e+01	-1.249240e+01
5.162457e+01	-1.253926e+01
5.192275e+01	-1.258612e+01
5.222265e+01	-1.263379e+01
5.252429e+01	-1.268103e+01
5.282767e+01	-1.272860e+01
5.313280e+01	-1.277608e+01
5.343969e+01	-1.282316e+01
5.374836e+01	-1.287034e+01
5.405880e+01	-1.291869e+01
5.437105e+01	-1.296556e+01
5.468509e+01	-1.301355e+01
5.500095e+01	-1.306072e+01
5.531863e+01	-1.310886e+01
5.563815e+01	-1.315617e+01
5.595951e+01	-1.320309e+01
5.628273e+01	-1.325076e+01
5.660782e+01	-1.329911e+01
5.693479e+01	-1.334704e+01
5.726364e+01	-1.339365e+01
5.759439e+01	-1.344214e+01
5.792705e+01	-1.348989e+01
5.826164e+01	-1.353846e+01
5.859815e+01	-1.358555e+01
5.893662e+01	-1.363336e+01
5.927703e+01	-1.368048e+01
5.961941e+01	-1.372863e+01
5.996377e+01	-1.377704e+01
6.031012e+01	-1.382472e+01
6.065847e+01	-1.387274e+01
6.100883e+01	-1.392088e+01
6.136121e+01	-1.396963e+01
6.171563e+01	-1.401664e+01
6.207210e+01	-1.406576e+01
6.243063e+01	-1.411305e+01
6.279122e+01	-1.416137e+01
6.315390e+01	-1.420938e+01
6.351868e+01	-1.425721e+01
6.388556e+01	-1.430597e+01
6.425456e+01	-1.435342e+01
6.462569e+01	-1.440226e+01
6.499897e+01	-1.444992e+01
6.537440e+01	-1.449868e+01
6.575200e+01	-1.454661e+01
6.613178e+01	-1.459530e+01
6.651375e+01	-1.464395e+01
6.689793e+01	-1.469155e+01
6.728433e+01	-1.473996e+01
6.767297e+01	-1.478804e+01
6.806384e+01	-1.483691e+01
6.845698e+01	-1.488522e+01
6.885238e+01	-1.493342e+01
6.925007e+01	-1.498210e+01
6.965005e+01	-1.503020e+01
7.005235e+01	-1.507841e+01
7.045697e+01	-1.512722e+01
7.086393e+01	-1.517544e+01
7.127323e+01	-1.522455e+01
7.168490e+01	-1.527256e+01
7.209895e+01	-1.532061e+01
7.251539e+01	-1.536969e+01
7.293424e+01	-1.541810e+01
7.335551e+01	-1.546727e+01
7.377920e+01	-1.551595e+01
7.420535e+01	-1.556368e+01
7.463396e+01	-1.561267e+01
7.506504e+01	-1.566115e+01
7.549861e+01	-1.571058e+01
7.593469e+01	-1.576050e+01
7.637328e+01	-1.580820e+01
7.681441e+01	-1.585703e+01
7.725809e+01	-1.590543e+01
7.770433e+01	-1.595429e+01
7.815315e+01	-1.600258e+01
7.860456e+01	-1.605070e+01
7.905857e+01	-1.610017e+01
7.951521e+01	-1.614851e+01
7.997449e+01	-1.619830e+01
8.043642e+01	-1.624760e+01
8.090102e+01	-1.629536e+01
8.136830e+01	-1.634463e+01
8.183828e+01	-1.639243e+01
8.231097e+01	-1.644249e+01
8.278640e+01	-1.649215e+01
8.326457e+01	-1.654103e+01
8.374550e+01	-1.658772e+01
8.422921e+01	-1.663774e+01
8.471572e+01	-1.668805e+01
8.520503e+01	-1.673644e+01
8.569717e+01	-1.678624e+01
8.619215e+01	-1.683349e+01
8.669000e+01	-1.688277e+01
8.719071e+01	-1.693325e+01
8.769432e+01	-1.698057e+01
8.820084e+01	-1.702941e+01
8.871029e+01	-1.707942e+01
8.922267e+01	-1.712718e+01
8.973802e+01	-1.717736e+01
9.025634e+01	-1.722610e+01
9.077766e+01	-1.727621e+01
9.130199e+01	-1.732421e+01
9.182935e+01	-1.737373e+01
9.235975e+01	-1.742285e+01
9.289321e+01	-1.747198e+01
9.342976e+01	-1.752079e+01
9.396941e+01	-1.756947e+01
9.451217e+01	-1.761837e+01
9.505807e+01	-1.766891e+01
9.560712e+01	-1.771726e+01
9.615934e+01	-1.776662e+01
9.671476e+01	-1.781468e+01
9.727338e+01	-1.786626e+01
9.783522e+01	-1.791448e+01
9.840032e+01	-1.796260e+01
9.896867e+01	-1.801214e+01
9.954031e+01	-1.806330e+01
1.001153e+02	-1.811176e+01
1.006935e+02	-1.816004e+01
1.012751e+02	-1.821033e+01
1.018601e+02	-1.825840e+01
1.024484e+02	-1.830917e+01
1.030402e+02	-1.835723e+01
1.036353e+02	-1.840654e+01
1.042339e+02	-1.845553e+01
1.048360e+02	-1.850512e+01
1.054415e+02	-1.855527e+01
1.060505e+02	-1.860570e+01
1.066631e+02	-1.865414e+01
1.072791e+02	-1.870305e+01
1.078988e+02	-1.875244e+01
1.085220e+02	-1.880180e+01
1.091488e+02	-1.885018e+01
1.097793e+02	-1.890106e+01
1.104133e+02	-1.894983e+01
1.110511e+02	-1.900043e+01
1.116925e+02	-1.904966e+01
1.123376e+02	-1.909739e+01
1.129865e+02	-1.914735e+01
1.136391e+02	-1.919627e+01
1.142955e+02	-1.924716e+01
1.149556e+02	-1.929522e+01
1.156196e+02	-1.934414e+01
1.162874e+02	-1.939488e+01
1.169591e+02	-1.944440e+01
1.176347e+02	-1.949293e+01
1.183141e+02	-1.954376e+01
1.189975e+02	-1.959362e+01
1.196848e+02	-1.964200e+01
1.203761e+02	-1.969200e+01
1.210714e+02	-1.973990e+01
1.217707e+02	-1.979001e+01
1.224740e+02	-1.983977e+01
1.231814e+02	-1.988679e+01
1.238929e+02	-1.994045e+01
1.246085e+02	-1.998976e+01
1.253283e+02	-2.003869e+01
1.260522e+02	-2.008692e+01
1.267802e+02	-2.013792e+01
1.275125e+02	-2.018813e+01
1.282490e+02	-2.023716e+01
1.289898e+02	-2.028802e+01
1.297348e+02	-2.033546e+01
1.304842e+02	-2.038491e+01
1.312378e+02	-2.043379e+01
1.319959e+02	-2.048620e+01
1.327583e+02	-2.053242e+01
1.335251e+02	-2.058366e+01
1.342963e+02	-2.063299e+01
1.350720e+02	-2.068348e+01
1.358522e+02	-2.073203e+01
1.366368e+02	-2.078236e+01
1.374260e+02	-2.083294e+01
1.382198e+02	-2.088088e+01
1.390182e+02	-2.093299e+01
1.398211e+02	-2.098050e+01
1.406287e+02	-2.103164e+01
1.414410e+02	-2.107875e+01
1.422579e+02	-2.112940e+01
1.430796e+02	-2.117829e+01
1.439060e+02	-2.123044e+01
1.447372e+02	-2.127803e+01
1.455732e+02	-2.132891e+01
1.464141e+02	-2.137936e+01
1.472597e+02	-2.142838e+01
1.481103e+02	-2.147691e+01
1.489658e+02	-2.152567e+01
1.498262e+02	-2.157595e+01
1.506916e+02	-2.162952e+01
1.515620e+02	-2.167426e+01
1.524374e+02	-2.172602e+01
1.533179e+02	-2.177585e+01
1.542034e+02	-2.182591e+01
1.550941e+02	-2.187412e+01
1.559899e+02	-2.192316e+01
1.568909e+02	-2.197534e+01
1.577971e+02	-2.202459e+01
1.587085e+02	-2.207511e+01
1.596252e+02	-2.212284e+01
1.605472e+02	-2.217288e+01
1.614745e+02	-2.222301e+01
1.624072e+02	-2.227304e+01
1.633453e+02	-2.232314e+01
1.642887e+02	-2.237239e+01
1.652377e+02	-2.242312e+01
1.661921e+02	-2.247254e+01
1.671520e+02	-2.252131e+01
1.681175e+02	-2.257089e+01
1.690885e+02	-2.262040e+01
1.700651e+02	-2.266994e+01
1.710474e+02	-2.272030e+01
1.720354e+02	-2.276858e+01
1.730291e+02	-2.282154e+01
1.740285e+02	-2.286800e+01
1.750337e+02	-2.291994e+01
1.760446e+02	-2.296967e+01
1.770615e+02	-2.301936e+01
1.780842e+02	-2.306805e+01
1.791128e+02	-2.311801e+01
1.801473e+02	-2.316736e+01
1.811878e+02	-2.321838e+01
1.822344e+02	-2.326748e+01
1.832870e+02	-2.331661e+01
1.843456e+02	-2.336837e+01
1.854104e+02	-2.341676e+01
1.864813e+02	-2.346882e+01
1.875584e+02	-2.351660e+01
1.886418e+02	-2.356798e+01
1.897313e+02	-2.361789e+01
1.908272e+02	-2.366596e+01
1.919294e+02	-2.371686e+01
1.930380e+02	-2.376704e+01
1.941530e+02	-2.381969e+01
1.952744e+02	-2.386512e+01
1.964023e+02	-2.391558e+01
1.975367e+02	-2.396506e+01
1.986777e+02	-2.401531e+01
1.998252e+02	-2.406644e+01
2.009794e+02	-2.411590e+01
2.021403e+02	-2.416732e+01
2.033078e+02	-2.421511e+01
2.044821e+02	-2.426598e+01
2.056632e+02	-2.431797e+01
2.068511e+02	-2.436577e+01
2.080459e+02	-2.441401e+01
2.092475e+02	-2.446733e+01
2.104561e+02	-2.451405e+01
2.116717e+02	-2.456334e+01
2.128943e+02	-2.461413e+01
2.141240e+02	-2.466508e+01
2.153608e+02	-2.471346e+01
2.166047e+02	-2.476303e+01
2.178558e+02	-2.481270e+01
2.191141e+02	-2.486417e+01
2.203797e+02	-2.491427e+01
2.216526e+02	-2.496203e+01
2.229329e+02	-2.501283e+01
2.242205e+02	-2.506557e+01
2.255156e+02	-2.511132e+01
2.268182e+02	-2.516382e+01
2.281283e+02	-2.521254e+01
2.294459e+02	-2.526316e+01
2.307712e+02	-2.531230e+01
2.321041e+02	-2.536514e+01
2.334447e+02	-2.541426e+01
2.347931e+02	-2.546030e+01
2.361493e+02	-2.551304e+01
2.375133e+02	-2.556063e+01
2.388851e+02	-2.561369e+01
2.402649e+02	-2.566330e+01
2.416527e+02	-2.571247e+01
2.430484e+02	-2.575936e+01
2.444523e+02	-2.581432e+01
2.458642e+02	-2.586134e+01
2.472843e+02	-2.591039e+01
2.487126e+02	-2.596275e+01
2.501492e+02	-2.601442e+01
2.515940e+02	-2.606352e+01
2.530472e+02	-2.611128e+01
2.545088e+02	-2.616038e+01
2.559789e+02	-2.620989e+01
2.574574e+02	-2.626260e+01
2.589444e+02	-2.631013e+01
2.604401e+02	-2.635807e+01
2.619444e+02	-2.641021e+01
2.634574e+02	-2.645986e+01
2.649791e+02	-2.651127e+01
2.665096e+02	-2.656136e+01
2.680489e+02	-2.661341e+01
2.695972e+02	-2.666331e+01
2.711544e+02	-2.670799e+01
2.727205e+02	-2.676482e+01
2.742958e+02	-2.681065e+01
2.758801e+02	-2.686531e+01
2.774736e+02	-2.691209e+01
2.790762e+02	-2.696115e+01
2.806882e+02	-2.701069e+01
2.823094e+02	-2.705657e+01
2.839400e+02	-2.711211e+01
2.855800e+02	-2.716015e+01
2.872295e+02	-2.721033e+01
2.888886e+02	-2.726310e+01
2.905572e+02	-2.731870e+01
2.922354e+02	-2.736196e+01
2.939234e+02	-2.741138e+01
2.956211e+02	-2.746203e+01
2.973286e+02	-2.751433e+01
2.990459e+02	-2.756057e+01
3.007732e+02	-2.761177e+01
3.025104e+02	-2.765861e+01
3.042577e+02	-2.771495e+01
3.060151e+02	-2.776425e+01
3.077826e+02	-2.781207e+01
3.095604e+02	-2.786069e+01
3.113484e+02	-2.791152e+01
3.131467e+02	-2.795984e+01
3.149554e+02	-2.801214e+01
3.167746e+02	-2.806160e+01
3.186043e+02	-2.811039e+01
3.204445e+02	-2.816244e+01
3.222954e+02	-2.821290e+01
3.241570e+02	-2.826240e+01
3.260293e+02	-2.831615e+01
3.279124e+02	-2.835846e+01
3.298064e+02	-2.841197e+01
3.317114e+02	-2.846081e+01
3.336273e+02	-2.851243e+01
3.355544e+02	-2.856101e+01
3.374925e+02	-2.861552e+01
3.394418e+02	-2.866593e+01
3.414024e+02	-2.871224e+01
3.433744e+02	-2.875899e+01
3.453577e+02	-2.880913e+01
3.473525e+02	-2.886469e+01
3.493588e+02	-2.891565e+01
3.513766e+02	-2.896315e+01
3.534062e+02	-2.901527e+01
3.554474e+02	-2.906770e+01
3.575005e+02	-2.911001e+01
3.595654e+02	-2.916359e+01
3.616422e+02	-2.921368e+01
3.637311e+02	-2.925875e+01
3.658320e+02	-2.930970e+01
3.679450e+02	-2.935967e+01
3.700702e+02	-2.941256e+01
3.722077e+02	-2.946720e+01
3.743576e+02	-2.951522e+01
3.765199e+02	-2.956401e+01
3.786946e+02	-2.961156e+01
3.808820e+02	-2.966570e+01
3.830819e+02	-2.971898e+01
3.852946e+02	-2.976297e+01
3.875200e+02	-2.981648e+01
3.897583e+02	-2.986310e+01
3.920096e+02	-2.991409e+01
3.942738e+02	-2.996907e+01
3.965511e+02	-3.001300e+01
3.988416e+02	-3.006496e+01
4.011452e+02	-3.011244e+01
4.034622e+02	-3.016013e+01
4.057926e+02	-3.021167e+01
4.081365e+02	-3.026395e+01
4.104938e+02	-3.031201e+01
4.128648e+02	-3.036069e+01
4.152495e+02	-3.041634e+01
4.176480e+02	-3.046594e+01
4.200603e+02	-3.051379e+01
4.224866e+02	-3.056142e+01
4.249268e+02	-3.061168e+01
4.273812e+02	-3.066159e+01
4.298497e+02	-3.071967e+01
4.323325e+02	-3.076070e+01
4.348297e+02	-3.081369e+01
4.373412e+02	-3.086784e+01
4.398673e+02	-3.091989e+01
4.424079e+02	-3.097268e+01
4.449633e+02	-3.102267e+01
4.475334e+02	-3.107107e+01
4.501183e+02	-3.111690e+01
4.527182e+02	-3.116725e+01
4.553330e+02	-3.121454e+01
4.579630e+02	-3.126986e+01
4.606082e+02	-3.131381e+01
4.632687e+02	-3.136617e+01
4.659445e+02	-3.141639e+01
4.686358e+02	-3.147262e+01
4.713426e+02	-3.152267e+01
4.740650e+02	-3.156979e+01
4.768032e+02	-3.161486e+01
4.795572e+02	-3.167010e+01
4.823271e+02	-3.171653e+01
4.851130e+02	-3.176452e+01
4.879150e+02	-3.182227e+01
4.907332e+02	-3.186295e+01
4.935676e+02	-3.191996e+01
4.964185e+02	-3.196653e+01
4.992858e+02	-3.202036e+01
5.021696e+02	-3.207205e+01
5.050701e+02	-3.212386e+01
5.079874e+02	-3.216576e+01
5.109215e+02	-3.222217e+01
5.138726e+02	-3.227230e+01
5.168407e+02	-3.231761e+01
5.198259e+02	-3.237696e+01
5.228284e+02	-3.241952e+01
5.258482e+02	-3.246478e+01
5.288855e+02	-3.251763e+01
5.319403e+02	-3.257211e+01
5.350128e+02	-3.262239e+01
5.381030e+02	-3.266721e+01
5.412111e+02	-3.272813e+01
5.443371e+02	-3.277912e+01
5.474812e+02	-3.281345e+01
5.506434e+02	-3.286928e+01
5.538239e+02	-3.292507e+01
5.570228e+02	-3.296721e+01
5.602401e+02	-3.301768e+01
5.634760e+02	-3.307263e+01
5.667306e+02	-3.312335e+01
5.700040e+02	-3.318235e+01
5.732964e+02	-3.323193e+01
5.766077e+02	-3.327985e+01
5.799382e+02	-3.332508e+01
5.832879e+02	-3.337526e+01
5.866569e+02	-3.342992e+01
5.900454e+02	-3.348522e+01
5.934535e+02	-3.353112e+01
5.968813e+02	-3.358202e+01
6.003288e+02	-3.362562e+01
6.037963e+02	-3.367721e+01
6.072838e+02	-3.373076e+01
6.107914e+02	-3.377764e+01
6.143194e+02	-3.382140e+01
6.178676e+02	-3.386913e+01
6.214364e+02	-3.392980e+01
6.250258e+02	-3.397602e+01
6.286359e+02	-3.403470e+01
6.322669e+02	-3.408078e+01
6.359189e+02	-3.413354e+01
6.395919e+02	-3.418642e+01
6.432862e+02	-3.423012e+01
6.470017e+02	-3.429089e+01
6.507388e+02	-3.433353e+01
6.544974e+02	-3.437817e+01
6.582778e+02	-3.444274e+01
6.620800e+02	-3.448223e+01
6.659041e+02	-3.452812e+01
6.697504e+02	-3.458786e+01
6.736188e+02	-3.463266e+01
6.775096e+02	-3.467578e+01
6.814229e+02	-3.474264e+01
6.853587e+02	-3.478576e+01
6.893173e+02	-3.482938e+01
6.932988e+02	-3.488455e+01
6.973033e+02	-3.494009e+01
7.013309e+02	-3.498847e+01
