Frequency(Hz)	Magnitude(dB)
1.000000e+01	-2.293773e+00
1.005776e+01	-2.314518e+00
1.011585e+01	-2.335243e+00
1.017428e+01	-2.355990e+00
1.023305e+01	-2.377019e+00
1.029215e+01	-2.398484e+00
1.035160e+01	-2.419883e+00
1.041139e+01	-2.441109e+00
1.047153e+01	-2.462527e+00
1.053201e+01	-2.484290e+00
1.059284e+01	-2.506226e+00
1.065403e+01	-2.528049e+00
1.071556e+01	-2.550466e+00
1.077746e+01	-2.572608e+00
1.083971e+01	-2.594993e+00
1.090232e+01	-2.617819e+00
1.096529e+01	-2.640409e+00
1.102862e+01	-2.663182e+00
1.109232e+01	-2.686171e+00
1.115639e+01	-2.709394e+00
1.122083e+01	-2.732705e+00
1.128564e+01	-2.756165e+00
1.135083e+01	-2.779842e+00
1.141639e+01	-2.803339e+00
1.148233e+01	-2.827222e+00
1.154865e+01	-2.851370e+00
1.161536e+01	-2.875494e+00
1.168245e+01	-2.899603e+00
1.174992e+01	-2.924218e+00
1.181779e+01	-2.948836e+00
1.188605e+01	-2.973532e+00
1.195470e+01	-2.998396e+00
1.202375e+01	-3.023471e+00
1.209320e+01	-3.048768e+00
1.216305e+01	-3.073779e+00
1.223330e+01	-3.099335e+00
1.230396e+01	-3.125046e+00
1.237503e+01	-3.150641e+00
1.244651e+01	-3.176768e+00
1.251840e+01	-3.202486e+00
1.259070e+01	-3.228674e+00
1.266343e+01	-3.255043e+00
1.273657e+01	-3.281533e+00
1.281014e+01	-3.307847e+00
1.288413e+01	-3.334809e+00
1.295855e+01	-3.361620e+00
1.303339e+01	-3.388665e+00
1.310867e+01	-3.415938e+00
1.318439e+01	-3.443320e+00
1.326054e+01	-3.470740e+00
1.333713e+01	-3.498307e+00
1.341417e+01	-3.525862e+00
1.349165e+01	-3.553827e+00
1.356958e+01	-3.581984e+00
1.364795e+01	-3.610033e+00
1.372678e+01	-3.638383e+00
1.380607e+01	-3.666964e+00
1.388581e+01	-3.695383e+00
1.396602e+01	-3.723987e+00
1.404668e+01	-3.752900e+00
1.412782e+01	-3.781943e+00
1.420942e+01	-3.811113e+00
1.429149e+01	-3.840421e+00
1.437404e+01	-3.870006e+00
1.445706e+01	-3.899549e+00
1.454057e+01	-3.929515e+00
1.462455e+01	-3.959107e+00
1.470902e+01	-3.988902e+00
1.479398e+01	-4.019155e+00
1.487943e+01	-4.049489e+00
1.496537e+01	-4.079957e+00
1.505181e+01	-4.110361e+00
1.513875e+01	-4.141093e+00
1.522619e+01	-4.171860e+00
1.531414e+01	-4.202778e+00
1.540259e+01	-4.234008e+00
1.549156e+01	-4.265036e+00
1.558103e+01	-4.296664e+00
1.567103e+01	-4.327913e+00
1.576155e+01	-4.359662e+00
1.585258e+01	-4.391304e+00
1.594415e+01	-4.423480e+00
1.603624e+01	-4.455391e+00
1.612886e+01	-4.487574e+00
1.622202e+01	-4.519812e+00
1.631572e+01	-4.552135e+00
1.640996e+01	-4.584685e+00
1.650474e+01	-4.617369e+00
1.660008e+01	-4.650287e+00
1.669596e+01	-4.683371e+00
1.679239e+01	-4.715972e+00
1.688938e+01	-4.749592e+00
1.698694e+01	-4.782879e+00
1.708505e+01	-4.816342e+00
1.718373e+01	-4.849818e+00
1.728299e+01	-4.883807e+00
1.738281e+01	-4.917153e+00
1.748322e+01	-4.951554e+00
1.758420e+01	-4.985504e+00
1.768576e+01	-5.019532e+00
1.778792e+01	-5.054044e+00
1.789066e+01	-5.088222e+00
1.799399e+01	-5.123024e+00
1.809793e+01	-5.157984e+00
1.820246e+01	-5.192602e+00
1.830760e+01	-5.227501e+00
1.841334e+01	-5.262606e+00
1.851969e+01	-5.297838e+00
1.862666e+01	-5.333068e+00
1.873425e+01	-5.368576e+00
1.884246e+01	-5.403922e+00
1.895129e+01	-5.439936e+00
1.906075e+01	-5.475561e+00
1.917085e+01	-5.511559e+00
1.928158e+01	-5.547564e+00
1.939295e+01	-5.584012e+00
1.950496e+01	-5.619763e+00
1.961762e+01	-5.656607e+00
1.973093e+01	-5.692621e+00
1.984490e+01	-5.729344e+00
1.995952e+01	-5.766239e+00
2.007480e+01	-5.802814e+00
2.019076e+01	-5.839809e+00
2.030738e+01	-5.876825e+00
2.042467e+01	-5.914189e+00
2.054264e+01	-5.951460e+00
2.066130e+01	-5.988755e+00
2.078064e+01	-6.026063e+00
2.090066e+01	-6.063758e+00
2.102139e+01	-6.101323e+00
2.114280e+01	-6.139082e+00
2.126492e+01	-6.177136e+00
2.138775e+01	-6.215057e+00
2.151128e+01	-6.253130e+00
2.163553e+01	-6.291533e+00
2.176050e+01	-6.329610e+00
2.188619e+01	-6.368311e+00
2.201260e+01	-6.406404e+00
2.213974e+01	-6.445409e+00
2.226762e+01	-6.483963e+00
2.239624e+01	-6.523047e+00
2.252560e+01	-6.561682e+00
2.265571e+01	-6.600915e+00
2.278656e+01	-6.639927e+00
2.291818e+01	-6.679246e+00
2.305055e+01	-6.718574e+00
2.318369e+01	-6.758160e+00
2.331760e+01	-6.797656e+00
2.345228e+01	-6.837074e+00
2.358774e+01	-6.877005e+00
2.372398e+01	-6.916943e+00
2.386101e+01	-6.956385e+00
2.399883e+01	-6.996235e+00
2.413745e+01	-7.036364e+00
2.427686e+01	-7.076909e+00
2.441709e+01	-7.116857e+00
2.455812e+01	-7.157376e+00
2.469997e+01	-7.197741e+00
2.484263e+01	-7.238384e+00
2.498612e+01	-7.279347e+00
2.513044e+01	-7.319648e+00
2.527559e+01	-7.360600e+00
2.542158e+01	-7.401479e+00
2.556842e+01	-7.442357e+00
2.571610e+01	-7.483278e+00
2.586463e+01	-7.524544e+00
2.601403e+01	-7.566028e+00
2.616428e+01	-7.606742e+00
2.631541e+01	-7.648367e+00
2.646740e+01	-7.689984e+00
2.662028e+01	-7.731607e+00
2.677404e+01	-7.773069e+00
2.692868e+01	-7.814898e+00
2.708422e+01	-7.856501e+00
2.724066e+01	-7.898443e+00
2.739800e+01	-7.940495e+00
2.755625e+01	-7.981887e+00
2.771541e+01	-8.024784e+00
2.787550e+01	-8.066679e+00
2.803650e+01	-8.109194e+00
2.819844e+01	-8.151297e+00
2.836131e+01	-8.193814e+00
2.852513e+01	-8.235993e+00
2.868989e+01	-8.278760e+00
2.885560e+01	-8.321884e+00
2.902227e+01	-8.363918e+00
2.918990e+01	-8.407033e+00
2.935850e+01	-8.449918e+00
2.952807e+01	-8.492812e+00
2.969863e+01	-8.535394e+00
2.987016e+01	-8.578572e+00
3.004269e+01	-8.621759e+00
3.021622e+01	-8.664893e+00
3.039075e+01	-8.708298e+00
3.056628e+01	-8.751814e+00
3.074283e+01	-8.795092e+00
3.092040e+01	-8.838043e+00
3.109900e+01	-8.882093e+00
3.127862e+01	-8.925616e+00
3.145929e+01	-8.969229e+00
3.164099e+01	-9.012451e+00
3.182375e+01	-9.056774e+00
3.200756e+01	-9.100260e+00
3.219244e+01	-9.143926e+00
3.237838e+01	-9.188528e+00
3.256540e+01	-9.232431e+00
3.275349e+01	-9.276720e+00
3.294268e+01	-9.320771e+00
3.313295e+01	-9.364942e+00
3.332433e+01	-9.409097e+00
3.351681e+01	-9.453744e+00
3.371040e+01	-9.497434e+00
3.390511e+01	-9.542258e+00
3.410094e+01	-9.586799e+00
3.429791e+01	-9.631313e+00
3.449601e+01	-9.676028e+00
3.469526e+01	-9.720971e+00
3.489566e+01	-9.765214e+00
3.509721e+01	-9.810138e+00
3.529993e+01	-9.854689e+00
3.550382e+01	-9.900118e+00
3.570889e+01	-9.944500e+00
3.591515e+01	-9.989370e+00
3.612259e+01	-1.003532e+01
3.633123e+01	-1.007979e+01
3.654108e+01	-1.012417e+01
3.675214e+01	-1.016998e+01
3.696442e+01	-1.021560e+01
3.717792e+01	-1.026097e+01
3.739266e+01	-1.030613e+01
3.760864e+01	-1.035131e+01
3.782587e+01	-1.039630e+01
3.804435e+01	-1.044242e+01
3.826409e+01	-1.048778e+01
3.848510e+01	-1.053389e+01
3.870739e+01	-1.057881e+01
3.893096e+01	-1.062514e+01
3.915583e+01	-1.067073e+01
3.938199e+01	-1.071599e+01
3.960946e+01	-1.076216e+01
3.983824e+01	-1.080787e+01
4.006834e+01	-1.085360e+01
4.029978e+01	-1.090011e+01
4.053255e+01	-1.094521e+01
4.076666e+01	-1.099181e+01
4.100213e+01	-1.103797e+01
4.123896e+01	-1.108310e+01
4.147715e+01	-1.112938e+01
4.171672e+01	-1.117609e+01
4.195767e+01	-1.122272e+01
4.220002e+01	-1.126846e+01
4.244377e+01	-1.131492e+01
4.268892e+01	-1.136172e+01
4.293549e+01	-1.140779e+01
4.318348e+01	-1.145378e+01
4.343291e+01	-1.150034e+01
4.368377e+01	-1.154711e+01
4.393609e+01	-1.159418e+01
4.418986e+01	-1.164025e+01
4.444510e+01	-1.168670e+01
4.470182e+01	-1.173293e+01
4.496001e+01	-1.178048e+01
4.521970e+01	-1.182664e+01
4.548089e+01	-1.187446e+01
4.574358e+01	-1.192012e+01
4.600779e+01	-1.196718e+01
4.627353e+01	-1.201449e+01
4.654081e+01	-1.206098e+01
4.680963e+01	-1.210843e+01
4.708000e+01	-1.215484e+01
4.735193e+01	-1.220236e+01
4.762543e+01	-1.224898e+01
4.790051e+01	-1.229563e+01
4.817719e+01	-1.234329e+01
4.845545e+01	-1.239024e+01
4.873533e+01	-1.243786e+01
4.901682e+01	-1.248464e+01
4.929994e+01	-1.253169e+01
4.958470e+01	-1.257912e+01
4.987110e+01	-1.262649e+01
5.015915e+01	-1.267394e+01
5.044887e+01	-1.272078e+01
5.074026e+01	-1.276852e+01
5.103333e+01	-1.281626e+01
5.132810e+01	-1.286393e+01
5.162457e+01	-1.291032e+01
5.192275e+01	-1.295828e+01
5.222265e+01	-1.300498e+01
5.252429e+01	-1.305315e+01
5.282767e+01	-1.310031e+01
5.313280e+01	-1.314828e+01
5.343969e+01	-1.319687e+01
5.374836e+01	-1.324365e+01
5.405880e+01	-1.329085e+01
5.437105e+01	-1.333888e+01
5.468509e+01	-1.338698e+01
5.500095e+01	-1.343448e+01
5.531863e+01	-1.348261e+01
5.563815e+01	-1.353036e+01
5.595951e+01	-1.357809e+01
5.628273e+01	-1.362563e+01
5.660782e+01	-1.367381e+01
5.693479e+01	-1.372127e+01
5.726364e+01	-1.376885e+01
5.759439e+01	-1.381788e+01
5.792705e+01	-1.386529e+01
5.826164e+01	-1.391399e+01
5.859815e+01	-1.396089e+01
5.893662e+01	-1.400921e+01
5.927703e+01	-1.405723e+01
5.961941e+01	-1.410503e+01
5.996377e+01	-1.415346e+01
6.031012e+01	-1.420130e+01
6.065847e+01	-1.425047e+01
6.100883e+01	-1.429850e+01
6.136121e+01	-1.434650e+01
6.171563e+01	-1.439363e+01
6.207210e+01	-1.444167e+01
6.243063e+01	-1.449081e+01
6.279122e+01	-1.453973e+01
6.315390e+01	-1.458668e+01
6.351868e+01	-1.463553e+01
6.388556e+01	-1.468404e+01
6.425456e+01	-1.473275e+01
6.462569e+01	-1.478093e+01
6.499897e+01	-1.482855e+01
6.537440e+01	-1.487761e+01
6.575200e+01	-1.492510e+01
6.613178e+01	-1.497454e+01
6.651375e+01	-1.502277e+01
6.689793e+01	-1.507043e+01
6.728433e+01	-1.511978e+01
6.767297e+01	-1.516762e+01
6.806384e+01	-1.521698e+01
6.845698e+01	-1.526579e+01
6.885238e+01	-1.531431e+01
6.925007e+01	-1.536194e+01
6.965005e+01	-1.541071e+01
7.005235e+01	-1.546003e+01
7.045697e+01	-1.550805e+01
7.086393e+01	-1.555669e+01
7.127323e+01	-1.560610e+01
7.168490e+01	-1.565373e+01
7.209895e+01	-1.570318e+01
7.251539e+01	-1.575145e+01
7.293424e+01	-1.580033e+01
7.335551e+01	-1.584903e+01
7.377920e+01	-1.589805e+01
7.420535e+01	-1.594532e+01
7.463396e+01	-1.599473e+01
7.506504e+01	-1.604393e+01
7.549861e+01	-1.609232e+01
7.593469e+01	-1.614152e+01
7.637328e+01	-1.619049e+01
7.681441e+01	-1.623916e+01
7.725809e+01	-1.628792e+01
7.770433e+01	-1.633720e+01
7.815315e+01	-1.638618e+01
7.860456e+01	-1.643497e+01
7.905857e+01	-1.648307e+01
7.951521e+01	-1.653205e+01
7.997449e+01	-1.658173e+01
8.043642e+01	-1.663090e+01
8.090102e+01	-1.667858e+01
8.136830e+01	-1.672764e+01
8.183828e+01	-1.677729e+01
8.231097e+01	-1.682568e+01
8.278640e+01	-1.687513e+01
8.326457e+01	-1.692479e+01
8.374550e+01	-1.697464e+01
8.422921e+01	-1.702182e+01
8.471572e+01	-1.707196e+01
8.520503e+01	-1.712149e+01
8.569717e+01	-1.716895e+01
8.619215e+01	-1.721961e+01
8.669000e+01	-1.726782e+01
8.719071e+01	-1.731495e+01
8.769432e+01	-1.736613e+01
8.820084e+01	-1.741381e+01
8.871029e+01	-1.746453e+01
8.922267e+01	-1.751402e+01
8.973802e+01	-1.756209e+01
9.025634e+01	-1.761114e+01
9.077766e+01	-1.766113e+01
9.130199e+01	-1.770953e+01
9.182935e+01	-1.775940e+01
9.235975e+01	-1.780760e+01
9.289321e+01	-1.785645e+01
9.342976e+01	-1.790683e+01
9.396941e+01	-1.795578e+01
9.451217e+01	-1.800462e+01
9.505807e+01	-1.805328e+01
9.560712e+01	-1.810385e+01
9.615934e+01	-1.815204e+01
9.671476e+01	-1.820110e+01
9.727338e+01	-1.825110e+01
9.783522e+01	-1.829959e+01
9.840032e+01	-1.835047e+01
9.896867e+01	-1.839947e+01
9.954031e+01	-1.844916e+01
1.001153e+02	-1.849796e+01
1.006935e+02	-1.854670e+01
1.012751e+02	-1.859635e+01
1.018601e+02	-1.864694e+01
1.024484e+02	-1.869448e+01
1.030402e+02	-1.874413e+01
1.036353e+02	-1.879370e+01
1.042339e+02	-1.884399e+01
1.048360e+02	-1.889274e+01
1.054415e+02	-1.894177e+01
1.060505e+02	-1.899123e+01
1.066631e+02	-1.904040e+01
1.072791e+02	-1.909081e+01
1.078988e+02	-1.913966e+01
1.085220e+02	-1.918945e+01
1.091488e+02	-1.923786e+01
1.097793e+02	-1.928760e+01
1.104133e+02	-1.933858e+01
1.110511e+02	-1.938634e+01
1.116925e+02	-1.943677e+01
1.123376e+02	-1.948607e+01
1.129865e+02	-1.953540e+01
1.136391e+02	-1.958386e+01
1.142955e+02	-1.963450e+01
1.149556e+02	-1.968435e+01
1.156196e+02	-1.973276e+01
1.162874e+02	-1.978344e+01
1.169591e+02	-1.983188e+01
1.176347e+02	-1.988207e+01
1.183141e+02	-1.993201e+01
1.189975e+02	-1.998090e+01
1.196848e+02	-2.002915e+01
1.203761e+02	-2.007892e+01
1.210714e+02	-2.013114e+01
1.217707e+02	-2.017904e+01
1.224740e+02	-2.022859e+01
1.231814e+02	-2.027978e+01
1.238929e+02	-2.032927e+01
1.246085e+02	-2.037778e+01
1.253283e+02	-2.042802e+01
1.260522e+02	-2.047689e+01
1.267802e+02	-2.052510e+01
1.275125e+02	-2.057689e+01
1.282490e+02	-2.062647e+01
1.289898e+02	-2.067446e+01
1.297348e+02	-2.072529e+01
1.304842e+02	-2.077348e+01
1.312378e+02	-2.082353e+01
1.319959e+02	-2.087217e+01
1.327583e+02	-2.092271e+01
1.335251e+02	-2.097370e+01
1.342963e+02	-2.102281e+01
1.350720e+02	-2.107222e+01
1.358522e+02	-2.112295e+01
1.366368e+02	-2.117128e+01
1.374260e+02	-2.122177e+01
1.382198e+02	-2.127005e+01
1.390182e+02	-2.131921e+01
1.398211e+02	-2.136856e+01
1.406287e+02	-2.141951e+01
1.414410e+02	-2.146828e+01
1.422579e+02	-2.151914e+01
1.430796e+02	-2.156848e+01
1.439060e+02	-2.162062e+01
1.447372e+02	-2.166756e+01
1.455732e+02	-2.171832e+01
1.464141e+02	-2.176846e+01
1.472597e+02	-2.181779e+01
1.481103e+02	-2.186686e+01
1.489658e+02	-2.191693e+01
1.498262e+02	-2.196562e+01
1.506916e+02	-2.201604e+01
1.515620e+02	-2.206393e+01
1.524374e+02	-2.211331e+01
1.533179e+02	-2.216624e+01
1.542034e+02	-2.221467e+01
1.550941e+02	-2.226488e+01
1.559899e+02	-2.231390e+01
1.568909e+02	-2.236508e+01
1.577971e+02	-2.241425e+01
1.587085e+02	-2.246502e+01
1.596252e+02	-2.251245e+01
1.605472e+02	-2.256251e+01
1.614745e+02	-2.261427e+01
1.624072e+02	-2.266227e+01
1.633453e+02	-2.271262e+01
1.642887e+02	-2.276212e+01
1.652377e+02	-2.280953e+01
1.661921e+02	-2.285971e+01
1.671520e+02	-2.291196e+01
1.681175e+02	-2.296193e+01
1.690885e+02	-2.301059e+01
1.700651e+02	-2.306130e+01
1.710474e+02	-2.311140e+01
1.720354e+02	-2.315957e+01
1.730291e+02	-2.321193e+01
1.740285e+02	-2.326124e+01
1.750337e+02	-2.331031e+01
1.760446e+02	-2.336036e+01
1.770615e+02	-2.341040e+01
1.780842e+02	-2.346024e+01
1.791128e+02	-2.351061e+01
1.801473e+02	-2.355840e+01
1.811878e+02	-2.360984e+01
1.822344e+02	-2.365719e+01
1.832870e+02	-2.370989e+01
1.843456e+02	-2.375917e+01
1.854104e+02	-2.380510e+01
1.864813e+02	-2.385525e+01
1.875584e+02	-2.390860e+01
1.886418e+02	-2.395624e+01
1.897313e+02	-2.400853e+01
1.908272e+02	-2.405817e+01
1.919294e+02	-2.410600e+01
1.930380e+02	-2.415679e+01
1.941530e+02	-2.420764e+01
1.952744e+02	-2.425713e+01
1.964023e+02	-2.430572e+01
1.975367e+02	-2.435795e+01
1.986777e+02	-2.440774e+01
1.998252e+02	-2.445928e+01
2.009794e+02	-2.450598e+01
2.021403e+02	-2.455627e+01
2.033078e+02	-2.460670e+01
2.044821e+02	-2.465549e+01
2.056632e+02	-2.470525e+01
2.068511e+02	-2.475662e+01
2.080459e+02	-2.480646e+01
2.092475e+02	-2.485684e+01
2.104561e+02	-2.490640e+01
2.116717e+02	-2.495501e+01
2.128943e+02	-2.500301e+01
2.141240e+02	-2.505776e+01
2.153608e+02	-2.510675e+01
2.166047e+02	-2.515220e+01
2.178558e+02	-2.520650e+01
2.191141e+02	-2.525216e+01
2.203797e+02	-2.530336e+01
2.216526e+02	-2.535357e+01
2.229329e+02	-2.540545e+01
2.242205e+02	-2.545501e+01
2.255156e+02	-2.550473e+01
2.268182e+02	-2.555514e+01
2.281283e+02	-2.560697e+01
2.294459e+02	-2.565213e+01
2.307712e+02	-2.570467e+01
2.321041e+02	-2.575345e+01
2.334447e+02	-2.580436e+01
2.347931e+02	-2.585298e+01
2.361493e+02	-2.590304e+01
2.375133e+02	-2.595326e+01
2.388851e+02	-2.600317e+01
2.402649e+02	-2.605447e+01
2.416527e+02	-2.610431e+01
2.430484e+02	-2.615536e+01
2.444523e+02	-2.620554e+01
2.458642e+02	-2.625292e+01
2.472843e+02	-2.630506e+01
2.487126e+02	-2.635263e+01
2.501492e+02	-2.640790e+01
2.515940e+02	-2.645621e+01
2.530472e+02	-2.650411e+01
2.545088e+02	-2.655181e+01
2.559789e+02	-2.659967e+01
2.574574e+02	-2.665195e+01
2.589444e+02	-2.670352e+01
2.604401e+02	-2.675106e+01
2.619444e+02	-2.680476e+01
2.634574e+02	-2.685294e+01
2.649791e+02	-2.690486e+01
2.665096e+02	-2.695156e+01
2.680489e+02	-2.700302e+01
2.695972e+02	-2.705561e+01
2.711544e+02	-2.710496e+01
2.727205e+02	-2.715300e+01
2.742958e+02	-2.720189e+01
2.758801e+02	-2.725494e+01
2.774736e+02	-2.730298e+01
2.790762e+02	-2.735509e+01
2.806882e+02	-2.740520e+01
2.823094e+02	-2.745182e+01
2.839400e+02	-2.750501e+01
2.855800e+02	-2.755202e+01
2.872295e+02	-2.760254e+01
2.888886e+02	-2.765366e+01
2.905572e+02	-2.770347e+01
2.922354e+02	-2.775626e+01
2.939234e+02	-2.780330e+01
2.956211e+02	-2.785319e+01
2.973286e+02	-2.789976e+01
2.990459e+02	-2.795477e+01
3.007732e+02	-2.800099e+01
3.025104e+02	-2.805102e+01
3.042577e+02	-2.810144e+01
3.060151e+02	-2.815190e+01
3.077826e+02	-2.820199e+01
3.095604e+02	-2.825723e+01
3.113484e+02	-2.831034e+01
3.131467e+02	-2.835231e+01
3.149554e+02	-2.840810e+01
3.167746e+02	-2.845705e+01
3.186043e+02	-2.850637e+01
3.204445e+02	-2.855145e+01
3.222954e+02	-2.860333e+01
3.241570e+02	-2.865175e+01
3.260293e+02	-2.870576e+01
3.279124e+02	-2.875202e+01
3.298064e+02	-2.881047e+01
3.317114e+02	-2.885696e+01
3.336273e+02	-2.890622e+01
3.355544e+02	-2.895483e+01
3.374925e+02	-2.900245e+01
3.394418e+02	-2.905294e+01
3.414024e+02	-2.909967e+01
3.433744e+02	-2.915360e+01
3.453577e+02	-2.920517e+01
3.473525e+02	-2.925011e+01
3.493588e+02	-2.930682e+01
3.513766e+02	-2.935362e+01
3.534062e+02	-2.940343e+01
3.554474e+02	-2.945674e+01
3.575005e+02	-2.950435e+01
3.595654e+02	-2.956135e+01
3.616422e+02	-2.960755e+01
3.637311e+02	-2.965294e+01
3.658320e+02	-2.970389e+01
3.679450e+02	-2.975451e+01
3.700702e+02	-2.980140e+01
3.722077e+02	-2.985364e+01
3.743576e+02	-2.990805e+01
3.765199e+02	-2.995346e+01
3.786946e+02	-3.000825e+01
3.808820e+02	-3.005934e+01
3.830819e+02	-3.010874e+01
3.852946e+02	-3.015073e+01
3.875200e+02	-3.020917e+01
3.897583e+02	-3.025692e+01
3.920096e+02	-3.031037e+01
3.942738e+02	-3.035181e+01
3.965511e+02	-3.040620e+01
3.988416e+02	-3.045711e+01
4.011452e+02	-3.050724e+01
4.034622e+02	-3.055851e+01
4.057926e+02	-3.060689e+01
4.081365e+02	-3.065994e+01
4.104938e+02	-3.070290e+01
4.128648e+02	-3.076298e+01
4.152495e+02	-3.080492e+01
4.176480e+02	-3.085732e+01
4.200603e+02	-3.090174e+01
4.224866e+02	-3.095301e+01
4.249268e+02	-3.100955e+01
4.273812e+02	-3.105908e+01
4.298497e+02	-3.110973e+01
4.323325e+02	-3.115686e+01
4.348297e+02	-3.121139e+01
4.373412e+02	-3.125142e+01
4.398673e+02	-3.130790e+01
4.424079e+02	-3.135963e+01
4.449633e+02	-3.140655e+01
4.475334e+02	-3.146125e+01
4.501183e+02	-3.150285e+01
4.527182e+02	-3.156562e+01
4.553330e+02	-3.161410e+01
4.579630e+02	-3.165977e+01
4.606082e+02	-3.171397e+01
4.632687e+02	-3.176081e+01
4.659445e+02	-3.181532e+01
4.686358e+02	-3.185902e+01
4.713426e+02	-3.190536e+01
4.740650e+02	-3.196221e+01
4.768032e+02	-3.201357e+01
4.795572e+02	-3.205643e+01
4.823271e+02	-3.211111e+01
4.851130e+02	-3.215974e+01
4.879150e+02	-3.221736e+01
4.907332e+02	-3.226015e+01
4.935676e+02	-3.231233e+01
4.964185e+02	-3.236408e+01
4.992858e+02	-3.240963e+01
5.021696e+02	-3.246780e+01
5.050701e+02	-3.250990e+01
5.079874e+02	-3.256547e+01
5.109215e+02	-3.260816e+01
5.138726e+02	-3.265251e+01
5.168407e+02	-3.271366e+01
5.198259e+02	-3.276703e+01
5.228284e+02	-3.281660e+01
5.258482e+02	-3.286554e+01
5.288855e+02	-3.291987e+01
5.319403e+02	-3.296615e+01
5.350128e+02	-3.301238e+01
5.381030e+02	-3.306508e+01
5.412111e+02	-3.311800e+01
5.443371e+02	-3.316958e+01
5.474812e+02	-3.321447e+01
5.506434e+02	-3.326532e+01
5.538239e+02	-3.331487e+01
5.570228e+02	-3.336134e+01
5.602401e+02	-3.341953e+01
5.634760e+02	-3.346893e+01
5.667306e+02	-3.351657e+01
5.700040e+02	-3.355808e+01
5.732964e+02	-3.361146e+01
5.766077e+02	-3.366298e+01
5.799382e+02	-3.372084e+01
5.832879e+02	-3.377484e+01
5.866569e+02	-3.381943e+01
5.900454e+02	-3.386485e+01
5.934535e+02	-3.392415e+01
5.968813e+02	-3.396905e+01
6.003288e+02	-3.401240e+01
6.037963e+02	-3.406527e+01
6.072838e+02	-3.412132e+01
6.107914e+02	-3.416741e+01
6.143194e+02	-3.421385e+01
6.178676e+02	-3.427630e+01
6.214364e+02	-3.432744e+01
6.250258e+02	-3.436386e+01
6.286359e+02	-3.442027e+01
6.322669e+02	-3.447700e+01
6.359189e+02	-3.451855e+01
6.395919e+02	-3.457327e+01
6.432862e+02	-3.462979e+01
6.470017e+02	-3.467286e+01
6.507388e+02	-3.472097e+01
6.544974e+02	-3.477739e+01
6.582778e+02	-3.482950e+01
6.620800e+02	-3.487453e+01
6.659041e+02	-3.493686e+01
6.697504e+02	-3.497388e+01
6.736188e+02	-3.502425e+01
6.775096e+02	-3.508159e+01
6.814229e+02	-3.512294e+01
6.853587e+02	-3.517297e+01
6.893173e+02	-3.522588e+01
6.932988e+02	-3.528081e+01
6.973033e+02	-3.533365e+01
7.013309e+02	-3.538068e+01
