Frequency(Hz)	Magnitude(dB)
1.000000e+01	-1.871090e-05
1.005776e+01	-1.892767e-05
1.011585e+01	-1.914695e-05
1.017428e+01	-1.936877e-05
1.023305e+01	-1.959317e-05
1.029215e+01	-1.982016e-05
1.035160e+01	-2.004978e-05
1.041139e+01	-2.028206e-05
1.047153e+01	-2.051703e-05
1.053201e+01	-2.075473e-05
1.059284e+01	-2.099518e-05
1.065403e+01	-2.123841e-05
1.071556e+01	-2.148447e-05
1.077746e+01	-2.173337e-05
1.083971e+01	-2.198515e-05
1.090232e+01	-2.223986e-05
1.096529e+01	-2.249751e-05
1.102862e+01	-2.275815e-05
1.109232e+01	-2.302181e-05
1.115639e+01	-2.328852e-05
1.122083e+01	-2.355833e-05
1.128564e+01	-2.383126e-05
1.135083e+01	-2.410735e-05
1.141639e+01	-2.438664e-05
1.148233e+01	-2.466916e-05
1.154865e+01	-2.495496e-05
1.161536e+01	-2.524407e-05
1.168245e+01	-2.553653e-05
1.174992e+01	-2.583238e-05
1.181779e+01	-2.613165e-05
1.188605e+01	-2.643439e-05
1.195470e+01	-2.674064e-05
1.202375e+01	-2.705044e-05
1.209320e+01	-2.736382e-05
1.216305e+01	-2.768084e-05
1.223330e+01	-2.800153e-05
1.230396e+01	-2.832593e-05
1.237503e+01	-2.865410e-05
1.244651e+01	-2.898606e-05
1.251840e+01	-2.932187e-05
1.259070e+01	-2.966157e-05
1.266343e+01	-3.000521e-05
1.273657e+01	-3.035283e-05
1.281014e+01	-3.070447e-05
1.288413e+01	-3.106019e-05
1.295855e+01	-3.142003e-05
1.303339e+01	-3.178404e-05
1.310867e+01	-3.215226e-05
1.318439e+01	-3.252476e-05
1.326054e+01	-3.290156e-05
1.333713e+01	-3.328273e-05
1.341417e+01	-3.366832e-05
1.349165e+01	-3.405838e-05
1.356958e+01	-3.445295e-05
1.364795e+01	-3.485210e-05
1.372678e+01	-3.525587e-05
1.380607e+01	-3.566432e-05
1.388581e+01	-3.607749e-05
1.396602e+01	-3.649546e-05
1.404668e+01	-3.691827e-05
1.412782e+01	-3.734598e-05
1.420942e+01	-3.777864e-05
1.429149e+01	-3.821631e-05
1.437404e+01	-3.865906e-05
1.445706e+01	-3.910693e-05
1.454057e+01	-3.955999e-05
1.462455e+01	-4.001830e-05
1.470902e+01	-4.048193e-05
1.479398e+01	-4.095092e-05
1.487943e+01	-4.142534e-05
1.496537e+01	-4.190527e-05
1.505181e+01	-4.239075e-05
1.513875e+01	-4.288185e-05
1.522619e+01	-4.337865e-05
1.531414e+01	-4.388120e-05
1.540259e+01	-4.438957e-05
1.549156e+01	-4.490384e-05
1.558103e+01	-4.542406e-05
1.567103e+01	-4.595031e-05
1.576155e+01	-4.648265e-05
1.585258e+01	-4.702116e-05
1.594415e+01	-4.756591e-05
1.603624e+01	-4.811697e-05
1.612886e+01	-4.867442e-05
1.622202e+01	-4.923832e-05
1.631572e+01	-4.980876e-05
1.640996e+01	-5.038580e-05
1.650474e+01	-5.096953e-05
1.660008e+01	-5.156003e-05
1.669596e+01	-5.215736e-05
1.679239e+01	-5.276161e-05
1.688938e+01	-5.337287e-05
1.698694e+01	-5.399120e-05
1.708505e+01	-5.461670e-05
1.718373e+01	-5.524945e-05
1.728299e+01	-5.588953e-05
1.738281e+01	-5.653702e-05
1.748322e+01	-5.719201e-05
1.758420e+01	-5.785459e-05
1.768576e+01	-5.852485e-05
1.778792e+01	-5.920287e-05
1.789066e+01	-5.988875e-05
1.799399e+01	-6.058257e-05
1.809793e+01	-6.128443e-05
1.820246e+01	-6.199442e-05
1.830760e+01	-6.271264e-05
1.841334e+01	-6.343918e-05
1.851969e+01	-6.417413e-05
1.862666e+01	-6.491760e-05
1.873425e+01	-6.566969e-05
1.884246e+01	-6.643048e-05
1.895129e+01	-6.720009e-05
1.906075e+01	-6.797862e-05
1.917085e+01	-6.876616e-05
1.928158e+01	-6.956283e-05
1.939295e+01	-7.036873e-05
1.950496e+01	-7.118397e-05
1.961762e+01	-7.200865e-05
1.973093e+01	-7.284288e-05
1.984490e+01	-7.368678e-05
1.995952e+01	-7.454045e-05
2.007480e+01	-7.540402e-05
2.019076e+01	-7.627758e-05
2.030738e+01	-7.716127e-05
2.042467e+01	-7.805520e-05
2.054264e+01	-7.895948e-05
2.066130e+01	-7.987424e-05
2.078064e+01	-8.079960e-05
2.090066e+01	-8.173568e-05
2.102139e+01	-8.268260e-05
2.114280e+01	-8.364049e-05
2.126492e+01	-8.460948e-05
2.138775e+01	-8.558969e-05
2.151128e+01	-8.658126e-05
2.163553e+01	-8.758432e-05
2.176050e+01	-8.859900e-05
2.188619e+01	-8.962543e-05
2.201260e+01	-9.066376e-05
2.213974e+01	-9.171411e-05
2.226762e+01	-9.277664e-05
2.239624e+01	-9.385147e-05
2.252560e+01	-9.493875e-05
2.265571e+01	-9.603863e-05
2.278656e+01	-9.715125e-05
2.291818e+01	-9.827676e-05
2.305055e+01	-9.941532e-05
2.318369e+01	-1.005671e-04
2.331760e+01	-1.017321e-04
2.345228e+01	-1.029107e-04
2.358774e+01	-1.041030e-04
2.372398e+01	-1.053090e-04
2.386101e+01	-1.065290e-04
2.399883e+01	-1.077632e-04
2.413745e+01	-1.090116e-04
2.427686e+01	-1.102745e-04
2.441709e+01	-1.115521e-04
2.455812e+01	-1.128444e-04
2.469997e+01	-1.141517e-04
2.484263e+01	-1.154742e-04
2.498612e+01	-1.168120e-04
2.513044e+01	-1.181653e-04
2.527559e+01	-1.195342e-04
2.542158e+01	-1.209191e-04
2.556842e+01	-1.223199e-04
2.571610e+01	-1.237370e-04
2.586463e+01	-1.251705e-04
2.601403e+01	-1.266206e-04
2.616428e+01	-1.280875e-04
2.631541e+01	-1.295714e-04
2.646740e+01	-1.310725e-04
2.662028e+01	-1.325910e-04
2.677404e+01	-1.341271e-04
2.692868e+01	-1.356810e-04
2.708422e+01	-1.372529e-04
2.724066e+01	-1.388430e-04
2.739800e+01	-1.404515e-04
2.755625e+01	-1.420786e-04
2.771541e+01	-1.437246e-04
2.787550e+01	-1.453897e-04
2.803650e+01	-1.470740e-04
2.819844e+01	-1.487779e-04
2.836131e+01	-1.505015e-04
2.852513e+01	-1.522451e-04
2.868989e+01	-1.540088e-04
2.885560e+01	-1.557930e-04
2.902227e+01	-1.575979e-04
2.918990e+01	-1.594237e-04
2.935850e+01	-1.612706e-04
2.952807e+01	-1.631389e-04
2.969863e+01	-1.650289e-04
2.987016e+01	-1.669408e-04
3.004269e+01	-1.688748e-04
3.021622e+01	-1.708312e-04
3.039075e+01	-1.728103e-04
3.056628e+01	-1.748123e-04
3.074283e+01	-1.768375e-04
3.092040e+01	-1.788862e-04
3.109900e+01	-1.809586e-04
3.127862e+01	-1.830550e-04
3.145929e+01	-1.851757e-04
3.164099e+01	-1.873210e-04
3.182375e+01	-1.894911e-04
3.200756e+01	-1.916864e-04
3.219244e+01	-1.939071e-04
3.237838e+01	-1.961535e-04
3.256540e+01	-1.984259e-04
3.275349e+01	-2.007247e-04
3.294268e+01	-2.030501e-04
3.313295e+01	-2.054024e-04
3.332433e+01	-2.077820e-04
3.351681e+01	-2.101892e-04
3.371040e+01	-2.126242e-04
3.390511e+01	-2.150874e-04
3.410094e+01	-2.175792e-04
3.429791e+01	-2.200999e-04
3.449601e+01	-2.226497e-04
3.469526e+01	-2.252291e-04
3.489566e+01	-2.278384e-04
3.509721e+01	-2.304779e-04
3.529993e+01	-2.331480e-04
3.550382e+01	-2.358490e-04
3.570889e+01	-2.385813e-04
3.591515e+01	-2.413452e-04
3.612259e+01	-2.441412e-04
3.633123e+01	-2.469696e-04
3.654108e+01	-2.498307e-04
3.675214e+01	-2.527250e-04
3.696442e+01	-2.556528e-04
3.717792e+01	-2.586145e-04
3.739266e+01	-2.616105e-04
3.760864e+01	-2.646413e-04
3.782587e+01	-2.677071e-04
3.804435e+01	-2.708085e-04
3.826409e+01	-2.739458e-04
3.848510e+01	-2.771194e-04
3.870739e+01	-2.803298e-04
3.893096e+01	-2.835774e-04
3.915583e+01	-2.868626e-04
3.938199e+01	-2.901859e-04
3.960946e+01	-2.935477e-04
3.983824e+01	-2.969484e-04
4.006834e+01	-3.003885e-04
4.029978e+01	-3.038685e-04
4.053255e+01	-3.073887e-04
4.076666e+01	-3.109498e-04
4.100213e+01	-3.145521e-04
4.123896e+01	-3.181961e-04
4.147715e+01	-3.218824e-04
4.171672e+01	-3.256114e-04
4.195767e+01	-3.293835e-04
4.220002e+01	-3.331994e-04
4.244377e+01	-3.370594e-04
4.268892e+01	-3.409642e-04
4.293549e+01	-3.449142e-04
4.318348e+01	-3.489100e-04
4.343291e+01	-3.529520e-04
4.368377e+01	-3.570409e-04
4.393609e+01	-3.611772e-04
4.418986e+01	-3.653613e-04
4.444510e+01	-3.695939e-04
4.470182e+01	-3.738756e-04
4.496001e+01	-3.782069e-04
4.521970e+01	-3.825883e-04
4.548089e+01	-3.870205e-04
4.574358e+01	-3.915040e-04
4.600779e+01	-3.960395e-04
4.627353e+01	-4.006275e-04
4.654081e+01	-4.052687e-04
4.680963e+01	-4.099636e-04
4.708000e+01	-4.147129e-04
4.735193e+01	-4.195173e-04
4.762543e+01	-4.243773e-04
4.790051e+01	-4.292935e-04
4.817719e+01	-4.342668e-04
4.845545e+01	-4.392976e-04
4.873533e+01	-4.443868e-04
4.901682e+01	-4.495348e-04
4.929994e+01	-4.547425e-04
4.958470e+01	-4.600106e-04
4.987110e+01	-4.653397e-04
5.015915e+01	-4.707304e-04
5.044887e+01	-4.761837e-04
5.074026e+01	-4.817001e-04
5.103333e+01	-4.872804e-04
5.132810e+01	-4.929254e-04
5.162457e+01	-4.986357e-04
5.192275e+01	-5.044122e-04
5.222265e+01	-5.102556e-04
5.252429e+01	-5.161667e-04
5.282767e+01	-5.221463e-04
5.313280e+01	-5.281952e-04
5.343969e+01	-5.343141e-04
5.374836e+01	-5.405039e-04
5.405880e+01	-5.467653e-04
5.437105e+01	-5.530994e-04
5.468509e+01	-5.595068e-04
5.500095e+01	-5.659884e-04
5.531863e+01	-5.725451e-04
5.563815e+01	-5.791777e-04
5.595951e+01	-5.858872e-04
5.628273e+01	-5.926744e-04
5.660782e+01	-5.995402e-04
5.693479e+01	-6.064856e-04
5.726364e+01	-6.135114e-04
5.759439e+01	-6.206186e-04
5.792705e+01	-6.278081e-04
5.826164e+01	-6.350809e-04
5.859815e+01	-6.424379e-04
5.893662e+01	-6.498802e-04
5.927703e+01	-6.574087e-04
5.961941e+01	-6.650244e-04
5.996377e+01	-6.727283e-04
6.031012e+01	-6.805214e-04
6.065847e+01	-6.884048e-04
6.100883e+01	-6.963795e-04
6.136121e+01	-7.044466e-04
6.171563e+01	-7.126071e-04
6.207210e+01	-7.208622e-04
6.243063e+01	-7.292129e-04
6.279122e+01	-7.376603e-04
6.315390e+01	-7.462056e-04
6.351868e+01	-7.548498e-04
6.388556e+01	-7.635942e-04
6.425456e+01	-7.724398e-04
6.462569e+01	-7.813880e-04
6.499897e+01	-7.904397e-04
6.537440e+01	-7.995964e-04
6.575200e+01	-8.088590e-04
6.613178e+01	-8.182290e-04
6.651375e+01	-8.277075e-04
6.689793e+01	-8.372958e-04
6.728433e+01	-8.469952e-04
6.767297e+01	-8.568069e-04
6.806384e+01	-8.667322e-04
6.845698e+01	-8.767725e-04
6.885238e+01	-8.869291e-04
6.925007e+01	-8.972034e-04
6.965005e+01	-9.075967e-04
7.005235e+01	-9.181103e-04
7.045697e+01	-9.287457e-04
7.086393e+01	-9.395043e-04
7.127323e+01	-9.503876e-04
7.168490e+01	-9.613968e-04
7.209895e+01	-9.725336e-04
7.251539e+01	-9.837994e-04
7.293424e+01	-9.951957e-04
7.335551e+01	-1.006724e-03
7.377920e+01	-1.018386e-03
7.420535e+01	-1.030183e-03
7.463396e+01	-1.042116e-03
7.506504e+01	-1.054188e-03
7.549861e+01	-1.066399e-03
7.593469e+01	-1.078752e-03
7.637328e+01	-1.091249e-03
7.681441e+01	-1.103889e-03
7.725809e+01	-1.116677e-03
7.770433e+01	-1.129612e-03
7.815315e+01	-1.142697e-03
7.860456e+01	-1.155934e-03
7.905857e+01	-1.169324e-03
7.951521e+01	-1.182869e-03
7.997449e+01	-1.196571e-03
8.043642e+01	-1.210431e-03
8.090102e+01	-1.224453e-03
8.136830e+01	-1.238636e-03
8.183828e+01	-1.252984e-03
8.231097e+01	-1.267498e-03
8.278640e+01	-1.282180e-03
8.326457e+01	-1.297032e-03
8.374550e+01	-1.312057e-03
8.422921e+01	-1.327255e-03
8.471572e+01	-1.342629e-03
8.520503e+01	-1.358181e-03
8.569717e+01	-1.373914e-03
8.619215e+01	-1.389828e-03
8.669000e+01	-1.405927e-03
8.719071e+01	-1.422213e-03
8.769432e+01	-1.438687e-03
8.820084e+01	-1.455351e-03
8.871029e+01	-1.472209e-03
8.922267e+01	-1.489262e-03
8.973802e+01	-1.506513e-03
9.025634e+01	-1.523963e-03
9.077766e+01	-1.541615e-03
9.130199e+01	-1.559472e-03
9.182935e+01	-1.577536e-03
9.235975e+01	-1.595809e-03
9.289321e+01	-1.614293e-03
9.342976e+01	-1.632992e-03
9.396941e+01	-1.651907e-03
9.451217e+01	-1.671041e-03
9.505807e+01	-1.690397e-03
9.560712e+01	-1.709976e-03
9.615934e+01	-1.729783e-03
9.671476e+01	-1.749819e-03
9.727338e+01	-1.770087e-03
9.783522e+01	-1.790590e-03
9.840032e+01	-1.811330e-03
9.896867e+01	-1.832310e-03
9.954031e+01	-1.853533e-03
1.001153e+02	-1.875002e-03
1.006935e+02	-1.896720e-03
1.012751e+02	-1.918689e-03
1.018601e+02	-1.940913e-03
1.024484e+02	-1.963394e-03
1.030402e+02	-1.986135e-03
1.036353e+02	-2.009139e-03
1.042339e+02	-2.032410e-03
1.048360e+02	-2.055951e-03
1.054415e+02	-2.079764e-03
1.060505e+02	-2.103853e-03
1.066631e+02	-2.128220e-03
1.072791e+02	-2.152870e-03
1.078988e+02	-2.177806e-03
1.085220e+02	-2.203030e-03
1.091488e+02	-2.228546e-03
1.097793e+02	-2.254357e-03
1.104133e+02	-2.280468e-03
1.110511e+02	-2.306881e-03
1.116925e+02	-2.333599e-03
1.123376e+02	-2.360627e-03
1.129865e+02	-2.387968e-03
1.136391e+02	-2.415626e-03
1.142955e+02	-2.443604e-03
1.149556e+02	-2.471905e-03
1.156196e+02	-2.500535e-03
1.162874e+02	-2.529496e-03
1.169591e+02	-2.558792e-03
1.176347e+02	-2.588427e-03
1.183141e+02	-2.618406e-03
1.189975e+02	-2.648731e-03
1.196848e+02	-2.679408e-03
1.203761e+02	-2.710440e-03
1.210714e+02	-2.741831e-03
1.217707e+02	-2.773586e-03
1.224740e+02	-2.805708e-03
1.231814e+02	-2.838203e-03
1.238929e+02	-2.871073e-03
1.246085e+02	-2.904324e-03
1.253283e+02	-2.937960e-03
1.260522e+02	-2.971986e-03
1.267802e+02	-3.006405e-03
1.275125e+02	-3.041223e-03
1.282490e+02	-3.076443e-03
1.289898e+02	-3.112072e-03
1.297348e+02	-3.148113e-03
1.304842e+02	-3.184571e-03
1.312378e+02	-3.221452e-03
1.319959e+02	-3.258759e-03
1.327583e+02	-3.296498e-03
1.335251e+02	-3.334675e-03
1.342963e+02	-3.373293e-03
1.350720e+02	-3.412358e-03
1.358522e+02	-3.451875e-03
1.366368e+02	-3.491850e-03
1.374260e+02	-3.532287e-03
1.382198e+02	-3.573193e-03
1.390182e+02	-3.614572e-03
1.398211e+02	-3.656430e-03
1.406287e+02	-3.698773e-03
1.414410e+02	-3.741606e-03
1.422579e+02	-3.784934e-03
1.430796e+02	-3.828764e-03
1.439060e+02	-3.873102e-03
1.447372e+02	-3.917952e-03
1.455732e+02	-3.963322e-03
1.464141e+02	-4.009217e-03
1.472597e+02	-4.055643e-03
1.481103e+02	-4.102606e-03
1.489658e+02	-4.150113e-03
1.498262e+02	-4.198170e-03
1.506916e+02	-4.246783e-03
1.515620e+02	-4.295959e-03
1.524374e+02	-4.345704e-03
1.533179e+02	-4.396024e-03
1.542034e+02	-4.446927e-03
1.550941e+02	-4.498420e-03
1.559899e+02	-4.550508e-03
1.568909e+02	-4.603198e-03
1.577971e+02	-4.656499e-03
1.587085e+02	-4.710416e-03
1.596252e+02	-4.764958e-03
1.605472e+02	-4.820130e-03
1.614745e+02	-4.875941e-03
1.624072e+02	-4.932398e-03
1.633453e+02	-4.989508e-03
1.642887e+02	-5.047280e-03
1.652377e+02	-5.105719e-03
1.661921e+02	-5.164835e-03
1.671520e+02	-5.224635e-03
1.681175e+02	-5.285127e-03
1.690885e+02	-5.346318e-03
1.700651e+02	-5.408218e-03
1.710474e+02	-5.470834e-03
1.720354e+02	-5.534175e-03
1.730291e+02	-5.598248e-03
1.740285e+02	-5.663063e-03
1.750337e+02	-5.728628e-03
1.760446e+02	-5.794951e-03
1.770615e+02	-5.862042e-03
1.780842e+02	-5.929908e-03
1.791128e+02	-5.998560e-03
1.801473e+02	-6.068006e-03
1.811878e+02	-6.138256e-03
1.822344e+02	-6.209318e-03
1.832870e+02	-6.281203e-03
1.843456e+02	-6.353919e-03
1.854104e+02	-6.427476e-03
1.864813e+02	-6.501884e-03
1.875584e+02	-6.577153e-03
1.886418e+02	-6.653292e-03
1.897313e+02	-6.730312e-03
1.908272e+02	-6.808224e-03
1.919294e+02	-6.887036e-03
1.930380e+02	-6.966760e-03
1.941530e+02	-7.047406e-03
1.952744e+02	-7.128985e-03
1.964023e+02	-7.211507e-03
1.975367e+02	-7.294984e-03
1.986777e+02	-7.379426e-03
1.998252e+02	-7.464845e-03
2.009794e+02	-7.551252e-03
2.021403e+02	-7.638658e-03
2.033078e+02	-7.727075e-03
2.044821e+02	-7.816514e-03
2.056632e+02	-7.906987e-03
2.068511e+02	-7.998507e-03
2.080459e+02	-8.091086e-03
2.092475e+02	-8.184734e-03
2.104561e+02	-8.279466e-03
2.116717e+02	-8.375293e-03
2.128943e+02	-8.472228e-03
2.141240e+02	-8.570284e-03
2.153608e+02	-8.669473e-03
2.166047e+02	-8.769809e-03
2.178558e+02	-8.871306e-03
2.191141e+02	-8.973976e-03
2.203797e+02	-9.077832e-03
2.216526e+02	-9.182890e-03
2.229329e+02	-9.289162e-03
2.242205e+02	-9.396662e-03
2.255156e+02	-9.505406e-03
2.268182e+02	-9.615406e-03
2.281283e+02	-9.726678e-03
2.294459e+02	-9.839236e-03
2.307712e+02	-9.953095e-03
2.321041e+02	-1.006827e-02
2.334447e+02	-1.018478e-02
2.347931e+02	-1.030263e-02
2.361493e+02	-1.042184e-02
2.375133e+02	-1.054244e-02
2.388851e+02	-1.066442e-02
2.402649e+02	-1.078782e-02
2.416527e+02	-1.091264e-02
2.430484e+02	-1.103891e-02
2.444523e+02	-1.116663e-02
2.458642e+02	-1.129583e-02
2.472843e+02	-1.142652e-02
2.487126e+02	-1.155872e-02
2.501492e+02	-1.169245e-02
2.515940e+02	-1.182773e-02
2.530472e+02	-1.196457e-02
2.545088e+02	-1.210298e-02
2.559789e+02	-1.224300e-02
2.574574e+02	-1.238464e-02
2.589444e+02	-1.252791e-02
2.604401e+02	-1.267284e-02
2.619444e+02	-1.281944e-02
2.634574e+02	-1.296773e-02
2.649791e+02	-1.311774e-02
2.665096e+02	-1.326948e-02
2.680489e+02	-1.342297e-02
2.695972e+02	-1.357823e-02
2.711544e+02	-1.373529e-02
2.727205e+02	-1.389416e-02
2.742958e+02	-1.405487e-02
2.758801e+02	-1.421743e-02
2.774736e+02	-1.438187e-02
2.790762e+02	-1.454821e-02
2.806882e+02	-1.471647e-02
2.823094e+02	-1.488667e-02
2.839400e+02	-1.505883e-02
2.855800e+02	-1.523299e-02
2.872295e+02	-1.540915e-02
2.888886e+02	-1.558735e-02
2.905572e+02	-1.576760e-02
2.922354e+02	-1.594994e-02
2.939234e+02	-1.613438e-02
2.956211e+02	-1.632094e-02
2.973286e+02	-1.650967e-02
2.990459e+02	-1.670057e-02
3.007732e+02	-1.689367e-02
3.025104e+02	-1.708900e-02
3.042577e+02	-1.728658e-02
3.060151e+02	-1.748645e-02
3.077826e+02	-1.768862e-02
3.095604e+02	-1.789312e-02
3.113484e+02	-1.809999e-02
3.131467e+02	-1.830924e-02
3.149554e+02	-1.852090e-02
3.167746e+02	-1.873500e-02
3.186043e+02	-1.895158e-02
3.204445e+02	-1.917065e-02
3.222954e+02	-1.939225e-02
3.241570e+02	-1.961641e-02
3.260293e+02	-1.984315e-02
3.279124e+02	-2.007250e-02
3.298064e+02	-2.030450e-02
3.317114e+02	-2.053918e-02
3.336273e+02	-2.077656e-02
3.355544e+02	-2.101667e-02
3.374925e+02	-2.125956e-02
3.394418e+02	-2.150524e-02
3.414024e+02	-2.175376e-02
3.433744e+02	-2.200514e-02
3.453577e+02	-2.225942e-02
3.473525e+02	-2.251663e-02
3.493588e+02	-2.277681e-02
3.513766e+02	-2.303998e-02
3.534062e+02	-2.330619e-02
3.554474e+02	-2.357546e-02
3.575005e+02	-2.384784e-02
3.595654e+02	-2.412335e-02
3.616422e+02	-2.440204e-02
3.637311e+02	-2.468393e-02
3.658320e+02	-2.496908e-02
3.679450e+02	-2.525751e-02
3.700702e+02	-2.554926e-02
3.722077e+02	-2.584437e-02
3.743576e+02	-2.614288e-02
3.765199e+02	-2.644483e-02
3.786946e+02	-2.675025e-02
3.808820e+02	-2.705919e-02
3.830819e+02	-2.737169e-02
3.852946e+02	-2.768778e-02
3.875200e+02	-2.800752e-02
3.897583e+02	-2.833093e-02
3.920096e+02	-2.865806e-02
3.942738e+02	-2.898896e-02
3.965511e+02	-2.932367e-02
3.988416e+02	-2.966223e-02
4.011452e+02	-3.000468e-02
4.034622e+02	-3.035108e-02
4.057926e+02	-3.070145e-02
4.081365e+02	-3.105586e-02
4.104938e+02	-3.141435e-02
4.128648e+02	-3.177696e-02
4.152495e+02	-3.214373e-02
4.176480e+02	-3.251473e-02
4.200603e+02	-3.288999e-02
4.224866e+02	-3.326957e-02
4.249268e+02	-3.365351e-02
4.273812e+02	-3.404186e-02
4.298497e+02	-3.443467e-02
4.323325e+02	-3.483200e-02
4.348297e+02	-3.523390e-02
4.373412e+02	-3.564042e-02
4.398673e+02	-3.605160e-02
4.424079e+02	-3.646751e-02
4.449633e+02	-3.688820e-02
4.475334e+02	-3.731371e-02
4.501183e+02	-3.774412e-02
4.527182e+02	-3.817947e-02
4.553330e+02	-3.861982e-02
4.579630e+02	-3.906522e-02
4.606082e+02	-3.951574e-02
4.632687e+02	-3.997142e-02
4.659445e+02	-4.043234e-02
4.686358e+02	-4.089855e-02
4.713426e+02	-4.137011e-02
4.740650e+02	-4.184708e-02
4.768032e+02	-4.232952e-02
4.795572e+02	-4.281750e-02
4.823271e+02	-4.331107e-02
4.851130e+02	-4.381030e-02
4.879150e+02	-4.431526e-02
4.907332e+02	-4.482601e-02
4.935676e+02	-4.534261e-02
4.964185e+02	-4.586514e-02
4.992858e+02	-4.639366e-02
5.021696e+02	-4.692823e-02
5.050701e+02	-4.746893e-02
5.079874e+02	-4.801582e-02
5.109215e+02	-4.856898e-02
5.138726e+02	-4.912848e-02
5.168407e+02	-4.969438e-02
5.198259e+02	-5.026677e-02
5.228284e+02	-5.084571e-02
5.258482e+02	-5.143127e-02
5.288855e+02	-5.202354e-02
5.319403e+02	-5.262259e-02
5.350128e+02	-5.322850e-02
5.381030e+02	-5.384134e-02
5.412111e+02	-5.446118e-02
5.443371e+02	-5.508812e-02
5.474812e+02	-5.572224e-02
5.506434e+02	-5.636360e-02
5.538239e+02	-5.701229e-02
5.570228e+02	-5.766840e-02
5.602401e+02	-5.833202e-02
5.634760e+02	-5.900321e-02
5.667306e+02	-5.968208e-02
5.700040e+02	-6.036870e-02
5.732964e+02	-6.106317e-02
5.766077e+02	-6.176556e-02
5.799382e+02	-6.247598e-02
5.832879e+02	-6.319451e-02
5.866569e+02	-6.392125e-02
5.900454e+02	-6.465627e-02
5.934535e+02	-6.539969e-02
5.968813e+02	-6.615159e-02
6.003288e+02	-6.691206e-02
6.037963e+02	-6.768122e-02
6.072838e+02	-6.845914e-02
6.107914e+02	-6.924593e-02
6.143194e+02	-7.004169e-02
6.178676e+02	-7.084652e-02
6.214364e+02	-7.166052e-02
6.250258e+02	-7.248380e-02
6.286359e+02	-7.331646e-02
6.322669e+02	-7.415859e-02
6.359189e+02	-7.501032e-02
6.395919e+02	-7.587175e-02
6.432862e+02	-7.674297e-02
6.470017e+02	-7.762412e-02
6.507388e+02	-7.851529e-02
6.544974e+02	-7.941659e-02
6.582778e+02	-8.032815e-02
6.620800e+02	-8.125007e-02
6.659041e+02	-8.218247e-02
6.697504e+02	-8.312547e-02
6.736188e+02	-8.407919e-02
6.775096e+02	-8.504374e-02
6.814229e+02	-8.601924e-02
6.853587e+02	-8.700583e-02
6.893173e+02	-8.800361e-02
6.932988e+02	-8.901272e-02
6.973033e+02	-9.003328e-02
7.013309e+02	-9.106541e-02
