Frequency(Hz)	Magnitude(dB)
1.000000e+01	-2.229145e+00
1.005776e+01	-2.249179e+00
1.011585e+01	-2.269633e+00
1.017428e+01	-2.289798e+00
1.023305e+01	-2.310424e+00
1.029215e+01	-2.331408e+00
1.035160e+01	-2.351830e+00
1.041139e+01	-2.373103e+00
1.047153e+01	-2.394061e+00
1.053201e+01	-2.415421e+00
1.059284e+01	-2.436750e+00
1.065403e+01	-2.458448e+00
1.071556e+01	-2.480145e+00
1.077746e+01	-2.501902e+00
1.083971e+01	-2.523934e+00
1.090232e+01	-2.545848e+00
1.096529e+01	-2.568269e+00
1.102862e+01	-2.590557e+00
1.109232e+01	-2.613232e+00
1.115639e+01	-2.635831e+00
1.122083e+01	-2.658930e+00
1.128564e+01	-2.681676e+00
1.135083e+01	-2.704706e+00
1.141639e+01	-2.728120e+00
1.148233e+01	-2.751505e+00
1.154865e+01	-2.775218e+00
1.161536e+01	-2.798798e+00
1.168245e+01	-2.822740e+00
1.174992e+01	-2.846491e+00
1.181779e+01	-2.870557e+00
1.188605e+01	-2.895045e+00
1.195470e+01	-2.919273e+00
1.202375e+01	-2.943834e+00
1.209320e+01	-2.968745e+00
1.216305e+01	-2.993406e+00
1.223330e+01	-3.018420e+00
1.230396e+01	-3.043563e+00
1.237503e+01	-3.068816e+00
1.244651e+01	-3.094105e+00
1.251840e+01	-3.119908e+00
1.259070e+01	-3.145685e+00
1.266343e+01	-3.171598e+00
1.273657e+01	-3.197393e+00
1.281014e+01	-3.223812e+00
1.288413e+01	-3.249667e+00
1.295855e+01	-3.276447e+00
1.303339e+01	-3.302632e+00
1.310867e+01	-3.329476e+00
1.318439e+01	-3.356137e+00
1.326054e+01	-3.383455e+00
1.333713e+01	-3.410535e+00
1.341417e+01	-3.437992e+00
1.349165e+01	-3.465095e+00
1.356958e+01	-3.492961e+00
1.364795e+01	-3.520747e+00
1.372678e+01	-3.548283e+00
1.380607e+01	-3.576409e+00
1.388581e+01	-3.604464e+00
1.396602e+01	-3.632657e+00
1.404668e+01	-3.661304e+00
1.412782e+01	-3.689883e+00
1.420942e+01	-3.718254e+00
1.429149e+01	-3.747301e+00
1.437404e+01	-3.776313e+00
1.445706e+01	-3.805465e+00
1.454057e+01	-3.834529e+00
1.462455e+01	-3.864246e+00
1.470902e+01	-3.893755e+00
1.479398e+01	-3.923356e+00
1.487943e+01	-3.953327e+00
1.496537e+01	-3.983322e+00
1.505181e+01	-4.013434e+00
1.513875e+01	-4.043590e+00
1.522619e+01	-4.073727e+00
1.531414e+01	-4.104275e+00
1.540259e+01	-4.135212e+00
1.549156e+01	-4.166010e+00
1.558103e+01	-4.197007e+00
1.567103e+01	-4.227749e+00
1.576155e+01	-4.259025e+00
1.585258e+01	-4.290442e+00
1.594415e+01	-4.321785e+00
1.603624e+01	-4.353529e+00
1.612886e+01	-4.385261e+00
1.622202e+01	-4.417055e+00
1.631572e+01	-4.448981e+00
1.640996e+01	-4.481287e+00
1.650474e+01	-4.513350e+00
1.660008e+01	-4.545807e+00
1.669596e+01	-4.578198e+00
1.679239e+01	-4.611001e+00
1.688938e+01	-4.643803e+00
1.698694e+01	-4.676877e+00
1.708505e+01	-4.709584e+00
1.718373e+01	-4.743042e+00
1.728299e+01	-4.776434e+00
1.738281e+01	-4.809796e+00
1.748322e+01	-4.843252e+00
1.758420e+01	-4.876914e+00
1.768576e+01	-4.910832e+00
1.778792e+01	-4.944728e+00
1.789066e+01	-4.978639e+00
1.799399e+01	-5.013159e+00
1.809793e+01	-5.047366e+00
1.820246e+01	-5.081834e+00
1.830760e+01	-5.116469e+00
1.841334e+01	-5.150974e+00
1.851969e+01	-5.185801e+00
1.862666e+01	-5.220858e+00
1.873425e+01	-5.255832e+00
1.884246e+01	-5.290818e+00
1.895129e+01	-5.326136e+00
1.906075e+01	-5.361416e+00
1.917085e+01	-5.397036e+00
1.928158e+01	-5.432721e+00
1.939295e+01	-5.468572e+00
1.950496e+01	-5.504042e+00
1.961762e+01	-5.540554e+00
1.973093e+01	-5.576575e+00
1.984490e+01	-5.612595e+00
1.995952e+01	-5.648669e+00
2.007480e+01	-5.685691e+00
2.019076e+01	-5.722068e+00
2.030738e+01	-5.758352e+00
2.042467e+01	-5.795327e+00
2.054264e+01	-5.832771e+00
2.066130e+01	-5.869795e+00
2.078064e+01	-5.906517e+00
2.090066e+01	-5.943638e+00
2.102139e+01	-5.981344e+00
2.114280e+01	-6.018758e+00
2.126492e+01	-6.056320e+00
2.138775e+01	-6.094092e+00
2.151128e+01	-6.131749e+00
2.163553e+01	-6.170095e+00
2.176050e+01	-6.207357e+00
2.188619e+01	-6.245895e+00
2.201260e+01	-6.283743e+00
2.213974e+01	-6.322442e+00
2.226762e+01	-6.360646e+00
2.239624e+01	-6.399262e+00
2.252560e+01	-6.437826e+00
2.265571e+01	-6.476826e+00
2.278656e+01	-6.515333e+00
2.291818e+01	-6.553918e+00
2.305055e+01	-6.593552e+00
2.318369e+01	-6.632380e+00
2.331760e+01	-6.671731e+00
2.345228e+01	-6.711083e+00
2.358774e+01	-6.750451e+00
2.372398e+01	-6.790016e+00
2.386101e+01	-6.829521e+00
2.399883e+01	-6.868913e+00
2.413745e+01	-6.908944e+00
2.427686e+01	-6.948685e+00
2.441709e+01	-6.988672e+00
2.455812e+01	-7.028720e+00
2.469997e+01	-7.068777e+00
2.484263e+01	-7.109511e+00
2.498612e+01	-7.149486e+00
2.513044e+01	-7.190005e+00
2.527559e+01	-7.230764e+00
2.542158e+01	-7.270981e+00
2.556842e+01	-7.311747e+00
2.571610e+01	-7.352537e+00
2.586463e+01	-7.393283e+00
2.601403e+01	-7.434318e+00
2.616428e+01	-7.475427e+00
2.631541e+01	-7.516681e+00
2.646740e+01	-7.558054e+00
2.662028e+01	-7.598740e+00
2.677404e+01	-7.640539e+00
2.692868e+01	-7.681715e+00
2.708422e+01	-7.723493e+00
2.724066e+01	-7.765203e+00
2.739800e+01	-7.806811e+00
2.755625e+01	-7.848792e+00
2.771541e+01	-7.890288e+00
2.787550e+01	-7.932554e+00
2.803650e+01	-7.974123e+00
2.819844e+01	-8.016393e+00
2.836131e+01	-8.058308e+00
2.852513e+01	-8.100664e+00
2.868989e+01	-8.142728e+00
2.885560e+01	-8.185249e+00
2.902227e+01	-8.227914e+00
2.918990e+01	-8.270554e+00
2.935850e+01	-8.312990e+00
2.952807e+01	-8.355747e+00
2.969863e+01	-8.398254e+00
2.987016e+01	-8.441248e+00
3.004269e+01	-8.483922e+00
3.021622e+01	-8.527856e+00
3.039075e+01	-8.569647e+00
3.056628e+01	-8.613456e+00
3.074283e+01	-8.656724e+00
3.092040e+01	-8.699300e+00
3.109900e+01	-8.743120e+00
3.127862e+01	-8.786539e+00
3.145929e+01	-8.830116e+00
3.164099e+01	-8.873460e+00
3.182375e+01	-8.916994e+00
3.200756e+01	-8.960848e+00
3.219244e+01	-9.004343e+00
3.237838e+01	-9.047736e+00
3.256540e+01	-9.091890e+00
3.275349e+01	-9.135668e+00
3.294268e+01	-9.179906e+00
3.313295e+01	-9.224037e+00
3.332433e+01	-9.267813e+00
3.351681e+01	-9.311822e+00
3.371040e+01	-9.356212e+00
3.390511e+01	-9.400535e+00
3.410094e+01	-9.444624e+00
3.429791e+01	-9.488871e+00
3.449601e+01	-9.533230e+00
3.469526e+01	-9.578173e+00
3.489566e+01	-9.622598e+00
3.509721e+01	-9.666831e+00
3.529993e+01	-9.711965e+00
3.550382e+01	-9.756510e+00
3.570889e+01	-9.800643e+00
3.591515e+01	-9.845937e+00
3.612259e+01	-9.890925e+00
3.633123e+01	-9.936059e+00
3.654108e+01	-9.980934e+00
3.675214e+01	-1.002596e+01
3.696442e+01	-1.007096e+01
3.717792e+01	-1.011600e+01
3.739266e+01	-1.016107e+01
3.760864e+01	-1.020587e+01
3.782587e+01	-1.025120e+01
3.804435e+01	-1.029702e+01
3.826409e+01	-1.034254e+01
3.848510e+01	-1.038804e+01
3.870739e+01	-1.043360e+01
3.893096e+01	-1.047878e+01
3.915583e+01	-1.052461e+01
3.938199e+01	-1.056976e+01
3.960946e+01	-1.061586e+01
3.983824e+01	-1.066154e+01
4.006834e+01	-1.070672e+01
4.029978e+01	-1.075268e+01
4.053255e+01	-1.079944e+01
4.076666e+01	-1.084505e+01
4.100213e+01	-1.089079e+01
4.123896e+01	-1.093670e+01
4.147715e+01	-1.098239e+01
4.171672e+01	-1.102826e+01
4.195767e+01	-1.107512e+01
4.220002e+01	-1.112135e+01
4.244377e+01	-1.116647e+01
4.268892e+01	-1.121298e+01
4.293549e+01	-1.125971e+01
4.318348e+01	-1.130592e+01
4.343291e+01	-1.135234e+01
4.368377e+01	-1.139860e+01
4.393609e+01	-1.144530e+01
4.418986e+01	-1.149152e+01
4.444510e+01	-1.153796e+01
4.470182e+01	-1.158446e+01
4.496001e+01	-1.163141e+01
4.521970e+01	-1.167755e+01
4.548089e+01	-1.172465e+01
4.574358e+01	-1.177089e+01
4.600779e+01	-1.181740e+01
4.627353e+01	-1.186495e+01
4.654081e+01	-1.191120e+01
4.680963e+01	-1.195777e+01
4.708000e+01	-1.200543e+01
4.735193e+01	-1.205180e+01
4.762543e+01	-1.209896e+01
4.790051e+01	-1.214575e+01
4.817719e+01	-1.219272e+01
4.845545e+01	-1.223954e+01
4.873533e+01	-1.228631e+01
4.901682e+01	-1.233353e+01
4.929994e+01	-1.238076e+01
4.958470e+01	-1.242843e+01
4.987110e+01	-1.247559e+01
5.015915e+01	-1.252215e+01
5.044887e+01	-1.257043e+01
5.074026e+01	-1.261714e+01
5.103333e+01	-1.266429e+01
5.132810e+01	-1.271216e+01
5.162457e+01	-1.275878e+01
5.192275e+01	-1.280643e+01
5.222265e+01	-1.285391e+01
5.252429e+01	-1.290162e+01
5.282767e+01	-1.294848e+01
5.313280e+01	-1.299650e+01
5.343969e+01	-1.304381e+01
5.374836e+01	-1.309165e+01
5.405880e+01	-1.313967e+01
5.437105e+01	-1.318673e+01
5.468509e+01	-1.323440e+01
5.500095e+01	-1.328265e+01
5.531863e+01	-1.332992e+01
5.563815e+01	-1.337653e+01
5.595951e+01	-1.342498e+01
5.628273e+01	-1.347284e+01
5.660782e+01	-1.352010e+01
5.693479e+01	-1.356871e+01
5.726364e+01	-1.361562e+01
5.759439e+01	-1.366362e+01
5.792705e+01	-1.371239e+01
5.826164e+01	-1.376030e+01
5.859815e+01	-1.380825e+01
5.893662e+01	-1.385586e+01
5.927703e+01	-1.390358e+01
5.961941e+01	-1.395180e+01
5.996377e+01	-1.400047e+01
6.031012e+01	-1.404753e+01
6.065847e+01	-1.409637e+01
6.100883e+01	-1.414446e+01
6.136121e+01	-1.419230e+01
6.171563e+01	-1.424087e+01
6.207210e+01	-1.428801e+01
6.243063e+01	-1.433582e+01
6.279122e+01	-1.438466e+01
6.315390e+01	-1.443358e+01
6.351868e+01	-1.448085e+01
6.388556e+01	-1.452913e+01
6.425456e+01	-1.457706e+01
6.462569e+01	-1.462631e+01
6.499897e+01	-1.467493e+01
6.537440e+01	-1.472318e+01
6.575200e+01	-1.477163e+01
6.613178e+01	-1.482037e+01
6.651375e+01	-1.486763e+01
6.689793e+01	-1.491605e+01
6.728433e+01	-1.496461e+01
6.767297e+01	-1.501209e+01
6.806384e+01	-1.506151e+01
6.845698e+01	-1.511055e+01
6.885238e+01	-1.515913e+01
6.925007e+01	-1.520737e+01
6.965005e+01	-1.525626e+01
7.005235e+01	-1.530447e+01
7.045697e+01	-1.535311e+01
7.086393e+01	-1.540059e+01
7.127323e+01	-1.545083e+01
7.168490e+01	-1.549811e+01
7.209895e+01	-1.554721e+01
7.251539e+01	-1.559639e+01
7.293424e+01	-1.564495e+01
7.335551e+01	-1.569284e+01
7.377920e+01	-1.574217e+01
7.420535e+01	-1.579025e+01
7.463396e+01	-1.583924e+01
7.506504e+01	-1.588852e+01
7.549861e+01	-1.593713e+01
7.593469e+01	-1.598539e+01
7.637328e+01	-1.603501e+01
7.681441e+01	-1.608340e+01
7.725809e+01	-1.613239e+01
7.770433e+01	-1.617942e+01
7.815315e+01	-1.623003e+01
7.860456e+01	-1.627780e+01
7.905857e+01	-1.632722e+01
7.951521e+01	-1.637601e+01
7.997449e+01	-1.642415e+01
8.043642e+01	-1.647446e+01
8.090102e+01	-1.652244e+01
8.136830e+01	-1.657105e+01
8.183828e+01	-1.662026e+01
8.231097e+01	-1.666972e+01
8.278640e+01	-1.671861e+01
8.326457e+01	-1.676735e+01
8.374550e+01	-1.681594e+01
8.422921e+01	-1.686550e+01
8.471572e+01	-1.691475e+01
8.520503e+01	-1.696354e+01
8.569717e+01	-1.701288e+01
8.619215e+01	-1.706088e+01
8.669000e+01	-1.711083e+01
8.719071e+01	-1.715918e+01
8.769432e+01	-1.720920e+01
8.820084e+01	-1.725708e+01
8.871029e+01	-1.730779e+01
8.922267e+01	-1.735659e+01
8.973802e+01	-1.740638e+01
9.025634e+01	-1.745369e+01
9.077766e+01	-1.750315e+01
9.130199e+01	-1.755235e+01
9.182935e+01	-1.760241e+01
9.235975e+01	-1.764973e+01
9.289321e+01	-1.769949e+01
9.342976e+01	-1.774906e+01
9.396941e+01	-1.779827e+01
9.451217e+01	-1.784778e+01
9.505807e+01	-1.789573e+01
9.560712e+01	-1.794550e+01
9.615934e+01	-1.799575e+01
9.671476e+01	-1.804459e+01
9.727338e+01	-1.809357e+01
9.783522e+01	-1.814238e+01
9.840032e+01	-1.819224e+01
9.896867e+01	-1.824230e+01
9.954031e+01	-1.829067e+01
1.001153e+02	-1.834035e+01
1.006935e+02	-1.838987e+01
1.012751e+02	-1.843922e+01
1.018601e+02	-1.848753e+01
1.024484e+02	-1.853918e+01
1.030402e+02	-1.858699e+01
1.036353e+02	-1.863620e+01
1.042339e+02	-1.868537e+01
1.048360e+02	-1.873444e+01
1.054415e+02	-1.878509e+01
1.060505e+02	-1.883365e+01
1.066631e+02	-1.888335e+01
1.072791e+02	-1.893287e+01
1.078988e+02	-1.898186e+01
1.085220e+02	-1.903117e+01
1.091488e+02	-1.908087e+01
1.097793e+02	-1.912932e+01
1.104133e+02	-1.917897e+01
1.110511e+02	-1.922804e+01
1.116925e+02	-1.927748e+01
1.123376e+02	-1.932952e+01
1.129865e+02	-1.937702e+01
1.136391e+02	-1.942756e+01
1.142955e+02	-1.947681e+01
1.149556e+02	-1.952535e+01
1.156196e+02	-1.957315e+01
1.162874e+02	-1.962431e+01
1.169591e+02	-1.967350e+01
1.176347e+02	-1.972366e+01
1.183141e+02	-1.977104e+01
1.189975e+02	-1.982240e+01
1.196848e+02	-1.987050e+01
1.203761e+02	-1.992168e+01
1.210714e+02	-1.996872e+01
1.217707e+02	-2.002086e+01
1.224740e+02	-2.006964e+01
1.231814e+02	-2.012073e+01
1.238929e+02	-2.016897e+01
1.246085e+02	-2.021930e+01
1.253283e+02	-2.026849e+01
1.260522e+02	-2.031918e+01
1.267802e+02	-2.036609e+01
1.275125e+02	-2.041788e+01
1.282490e+02	-2.046591e+01
1.289898e+02	-2.051772e+01
1.297348e+02	-2.056547e+01
1.304842e+02	-2.061566e+01
1.312378e+02	-2.066557e+01
1.319959e+02	-2.071552e+01
1.327583e+02	-2.076278e+01
1.335251e+02	-2.081398e+01
1.342963e+02	-2.086482e+01
1.350720e+02	-2.091457e+01
1.358522e+02	-2.096230e+01
1.366368e+02	-2.101423e+01
1.374260e+02	-2.106299e+01
1.382198e+02	-2.111178e+01
1.390182e+02	-2.116221e+01
1.398211e+02	-2.121088e+01
1.406287e+02	-2.126165e+01
1.414410e+02	-2.130942e+01
1.422579e+02	-2.136123e+01
1.430796e+02	-2.140956e+01
1.439060e+02	-2.146018e+01
1.447372e+02	-2.150866e+01
1.455732e+02	-2.155989e+01
1.464141e+02	-2.160996e+01
1.472597e+02	-2.165887e+01
1.481103e+02	-2.170696e+01
1.489658e+02	-2.175792e+01
1.498262e+02	-2.181071e+01
1.506916e+02	-2.185648e+01
1.515620e+02	-2.190542e+01
1.524374e+02	-2.195580e+01
1.533179e+02	-2.200736e+01
1.542034e+02	-2.205583e+01
1.550941e+02	-2.210537e+01
1.559899e+02	-2.215608e+01
1.568909e+02	-2.220367e+01
1.577971e+02	-2.225399e+01
1.587085e+02	-2.230468e+01
1.596252e+02	-2.235315e+01
1.605472e+02	-2.240634e+01
1.614745e+02	-2.245552e+01
1.624072e+02	-2.250479e+01
1.633453e+02	-2.255440e+01
1.642887e+02	-2.260124e+01
1.652377e+02	-2.265165e+01
1.661921e+02	-2.270102e+01
1.671520e+02	-2.275089e+01
1.681175e+02	-2.280412e+01
1.690885e+02	-2.285166e+01
1.700651e+02	-2.290131e+01
1.710474e+02	-2.295206e+01
1.720354e+02	-2.299986e+01
1.730291e+02	-2.305226e+01
1.740285e+02	-2.310298e+01
1.750337e+02	-2.315177e+01
1.760446e+02	-2.319904e+01
1.770615e+02	-2.325136e+01
1.780842e+02	-2.329957e+01
1.791128e+02	-2.335117e+01
1.801473e+02	-2.339873e+01
1.811878e+02	-2.345013e+01
1.822344e+02	-2.349798e+01
1.832870e+02	-2.354750e+01
1.843456e+02	-2.359821e+01
1.854104e+02	-2.365082e+01
1.864813e+02	-2.369760e+01
1.875584e+02	-2.374738e+01
1.886418e+02	-2.379690e+01
1.897313e+02	-2.385037e+01
1.908272e+02	-2.389947e+01
1.919294e+02	-2.394756e+01
1.930380e+02	-2.399834e+01
1.941530e+02	-2.404852e+01
1.952744e+02	-2.409981e+01
1.964023e+02	-2.414656e+01
1.975367e+02	-2.419596e+01
1.986777e+02	-2.424764e+01
1.998252e+02	-2.429953e+01
2.009794e+02	-2.434908e+01
2.021403e+02	-2.439442e+01
2.033078e+02	-2.444643e+01
2.044821e+02	-2.449795e+01
2.056632e+02	-2.454544e+01
2.068511e+02	-2.459511e+01
2.080459e+02	-2.464867e+01
2.092475e+02	-2.469990e+01
2.104561e+02	-2.474444e+01
2.116717e+02	-2.479637e+01
2.128943e+02	-2.484683e+01
2.141240e+02	-2.489454e+01
2.153608e+02	-2.494582e+01
2.166047e+02	-2.499920e+01
2.178558e+02	-2.504605e+01
2.191141e+02	-2.509407e+01
2.203797e+02	-2.514559e+01
2.216526e+02	-2.519453e+01
2.229329e+02	-2.524486e+01
2.242205e+02	-2.529465e+01
2.255156e+02	-2.534488e+01
2.268182e+02	-2.539408e+01
2.281283e+02	-2.544473e+01
2.294459e+02	-2.549426e+01
2.307712e+02	-2.554723e+01
2.321041e+02	-2.559769e+01
2.334447e+02	-2.564524e+01
2.347931e+02	-2.569626e+01
2.361493e+02	-2.574404e+01
2.375133e+02	-2.579484e+01
2.388851e+02	-2.584411e+01
2.402649e+02	-2.589559e+01
2.416527e+02	-2.594318e+01
2.430484e+02	-2.599239e+01
2.444523e+02	-2.604481e+01
2.458642e+02	-2.609363e+01
2.472843e+02	-2.614521e+01
2.487126e+02	-2.619673e+01
2.501492e+02	-2.624382e+01
2.515940e+02	-2.629780e+01
2.530472e+02	-2.634781e+01
2.545088e+02	-2.639610e+01
2.559789e+02	-2.644407e+01
2.574574e+02	-2.649583e+01
2.589444e+02	-2.654381e+01
2.604401e+02	-2.659478e+01
2.619444e+02	-2.664317e+01
2.634574e+02	-2.669224e+01
2.649791e+02	-2.674099e+01
2.665096e+02	-2.679199e+01
2.680489e+02	-2.684098e+01
2.695972e+02	-2.689407e+01
2.711544e+02	-2.694518e+01
2.727205e+02	-2.699516e+01
2.742958e+02	-2.704321e+01
2.758801e+02	-2.709403e+01
2.774736e+02	-2.714576e+01
2.790762e+02	-2.719258e+01
2.806882e+02	-2.724387e+01
2.823094e+02	-2.729826e+01
2.839400e+02	-2.734363e+01
2.855800e+02	-2.739544e+01
2.872295e+02	-2.744082e+01
2.888886e+02	-2.749054e+01
2.905572e+02	-2.754088e+01
2.922354e+02	-2.759420e+01
2.939234e+02	-2.764301e+01
2.956211e+02	-2.769209e+01
2.973286e+02	-2.774534e+01
2.990459e+02	-2.779310e+01
3.007732e+02	-2.784296e+01
3.025104e+02	-2.789355e+01
3.042577e+02	-2.794680e+01
3.060151e+02	-2.799227e+01
3.077826e+02	-2.804267e+01
3.095604e+02	-2.809657e+01
3.113484e+02	-2.813896e+01
3.131467e+02	-2.819196e+01
3.149554e+02	-2.824831e+01
3.167746e+02	-2.829521e+01
3.186043e+02	-2.834029e+01
3.204445e+02	-2.839636e+01
3.222954e+02	-2.844266e+01
3.241570e+02	-2.849926e+01
3.260293e+02	-2.854256e+01
3.279124e+02	-2.859234e+01
3.298064e+02	-2.864459e+01
3.317114e+02	-2.869826e+01
3.336273e+02	-2.874491e+01
3.355544e+02	-2.879184e+01
3.374925e+02	-2.884747e+01
3.394418e+02	-2.889101e+01
3.414024e+02	-2.894299e+01
3.433744e+02	-2.899649e+01
3.453577e+02	-2.904426e+01
3.473525e+02	-2.909647e+01
3.493588e+02	-2.914494e+01
3.513766e+02	-2.919722e+01
3.534062e+02	-2.924698e+01
3.554474e+02	-2.929588e+01
3.575005e+02	-2.934355e+01
3.595654e+02	-2.939512e+01
3.616422e+02	-2.944248e+01
3.637311e+02	-2.949301e+01
3.658320e+02	-2.954672e+01
3.679450e+02	-2.959648e+01
3.700702e+02	-2.964475e+01
3.722077e+02	-2.969612e+01
3.743576e+02	-2.974704e+01
3.765199e+02	-2.979745e+01
3.786946e+02	-2.984660e+01
3.808820e+02	-2.989481e+01
3.830819e+02	-2.994561e+01
3.852946e+02	-2.999563e+01
3.875200e+02	-3.004422e+01
3.897583e+02	-3.009908e+01
3.920096e+02	-3.014718e+01
3.942738e+02	-3.019855e+01
3.965511e+02	-3.024656e+01
3.988416e+02	-3.029634e+01
4.011452e+02	-3.034637e+01
4.034622e+02	-3.039791e+01
4.057926e+02	-3.044871e+01
4.081365e+02	-3.049367e+01
4.104938e+02	-3.054857e+01
4.128648e+02	-3.060174e+01
4.152495e+02	-3.064842e+01
4.176480e+02	-3.069670e+01
4.200603e+02	-3.074819e+01
4.224866e+02	-3.079789e+01
4.249268e+02	-3.084630e+01
4.273812e+02	-3.090129e+01
4.298497e+02	-3.094644e+01
4.323325e+02	-3.099534e+01
4.348297e+02	-3.104566e+01
4.373412e+02	-3.109598e+01
4.398673e+02	-3.114996e+01
4.424079e+02	-3.119497e+01
4.449633e+02	-3.125133e+01
4.475334e+02	-3.129110e+01
4.501183e+02	-3.134586e+01
4.527182e+02	-3.139934e+01
4.553330e+02	-3.145264e+01
4.579630e+02	-3.149680e+01
4.606082e+02	-3.155019e+01
4.632687e+02	-3.160315e+01
4.659445e+02	-3.165039e+01
4.686358e+02	-3.169864e+01
4.713426e+02	-3.174736e+01
4.740650e+02	-3.180082e+01
4.768032e+02	-3.185340e+01
4.795572e+02	-3.189989e+01
4.823271e+02	-3.195590e+01
4.851130e+02	-3.200263e+01
4.879150e+02	-3.205450e+01
4.907332e+02	-3.210621e+01
4.935676e+02	-3.214765e+01
4.964185e+02	-3.220408e+01
4.992858e+02	-3.224935e+01
5.021696e+02	-3.230640e+01
5.050701e+02	-3.235126e+01
5.079874e+02	-3.240868e+01
5.109215e+02	-3.245139e+01
5.138726e+02	-3.250190e+01
5.168407e+02	-3.255409e+01
5.198259e+02	-3.260238e+01
5.228284e+02	-3.265502e+01
5.258482e+02	-3.270200e+01
5.288855e+02	-3.275332e+01
5.319403e+02	-3.280025e+01
5.350128e+02	-3.285327e+01
5.381030e+02	-3.290869e+01
5.412111e+02	-3.295717e+01
5.443371e+02	-3.300291e+01
5.474812e+02	-3.305688e+01
5.506434e+02	-3.310515e+01
5.538239e+02	-3.315505e+01
5.570228e+02	-3.320690e+01
5.602401e+02	-3.325889e+01
5.634760e+02	-3.330855e+01
5.667306e+02	-3.335958e+01
5.700040e+02	-3.340718e+01
5.732964e+02	-3.345603e+01
5.766077e+02	-3.350550e+01
5.799382e+02	-3.354999e+01
5.832879e+02	-3.360582e+01
5.866569e+02	-3.365926e+01
5.900454e+02	-3.370381e+01
5.934535e+02	-3.376208e+01
5.968813e+02	-3.380860e+01
6.003288e+02	-3.386227e+01
6.037963e+02	-3.390865e+01
6.072838e+02	-3.395928e+01
6.107914e+02	-3.400965e+01
6.143194e+02	-3.405829e+01
6.178676e+02	-3.412081e+01
6.214364e+02	-3.416396e+01
6.250258e+02	-3.421618e+01
6.286359e+02	-3.425893e+01
6.322669e+02	-3.431414e+01
6.359189e+02	-3.437072e+01
6.395919e+02	-3.441142e+01
6.432862e+02	-3.445789e+01
6.470017e+02	-3.451053e+01
6.507388e+02	-3.456920e+01
6.544974e+02	-3.461436e+01
6.582778e+02	-3.465114e+01
6.620800e+02	-3.470811e+01
6.659041e+02	-3.476858e+01
6.697504e+02	-3.481243e+01
6.736188e+02	-3.486121e+01
6.775096e+02	-3.491407e+01
6.814229e+02	-3.497063e+01
6.853587e+02	-3.501955e+01
6.893173e+02	-3.506965e+01
6.932988e+02	-3.511299e+01
6.973033e+02	-3.516645e+01
7.013309e+02	-3.521907e+01
