Frequency(Hz)	Magnitude(dB)
1.000000e+01	-2.061109e+00
1.005776e+01	-2.079878e+00
1.011585e+01	-2.099195e+00
1.017428e+01	-2.118505e+00
1.023305e+01	-2.137742e+00
1.029215e+01	-2.157430e+00
1.035160e+01	-2.177088e+00
1.041139e+01	-2.196988e+00
1.047153e+01	-2.216628e+00
1.053201e+01	-2.236780e+00
1.059284e+01	-2.257059e+00
1.065403e+01	-2.277090e+00
1.071556e+01	-2.297817e+00
1.077746e+01	-2.318412e+00
1.083971e+01	-2.339171e+00
1.090232e+01	-2.360352e+00
1.096529e+01	-2.381207e+00
1.102862e+01	-2.402319e+00
1.109232e+01	-2.423686e+00
1.115639e+01	-2.445036e+00
1.122083e+01	-2.466802e+00
1.128564e+01	-2.488633e+00
1.135083e+01	-2.510444e+00
1.141639e+01	-2.532299e+00
1.148233e+01	-2.554466e+00
1.154865e+01	-2.576908e+00
1.161536e+01	-2.599318e+00
1.168245e+01	-2.621834e+00
1.174992e+01	-2.644809e+00
1.181779e+01	-2.667629e+00
1.188605e+01	-2.690564e+00
1.195470e+01	-2.713541e+00
1.202375e+01	-2.737293e+00
1.209320e+01	-2.760631e+00
1.216305e+01	-2.784125e+00
1.223330e+01	-2.808001e+00
1.230396e+01	-2.831613e+00
1.237503e+01	-2.855820e+00
1.244651e+01	-2.879755e+00
1.251840e+01	-2.904421e+00
1.259070e+01	-2.929060e+00
1.266343e+01	-2.953160e+00
1.273657e+01	-2.978145e+00
1.281014e+01	-3.003091e+00
1.288413e+01	-3.028012e+00
1.295855e+01	-3.053312e+00
1.303339e+01	-3.078639e+00
1.310867e+01	-3.104336e+00
1.318439e+01	-3.129617e+00
1.326054e+01	-3.155593e+00
1.333713e+01	-3.181392e+00
1.341417e+01	-3.207612e+00
1.349165e+01	-3.233504e+00
1.356958e+01	-3.259827e+00
1.364795e+01	-3.286370e+00
1.372678e+01	-3.313018e+00
1.380607e+01	-3.339955e+00
1.388581e+01	-3.366783e+00
1.396602e+01	-3.393875e+00
1.404668e+01	-3.420882e+00
1.412782e+01	-3.448599e+00
1.420942e+01	-3.475618e+00
1.429149e+01	-3.503449e+00
1.437404e+01	-3.531101e+00
1.445706e+01	-3.559041e+00
1.454057e+01	-3.587298e+00
1.462455e+01	-3.615623e+00
1.470902e+01	-3.643806e+00
1.479398e+01	-3.672171e+00
1.487943e+01	-3.700733e+00
1.496537e+01	-3.729705e+00
1.505181e+01	-3.758536e+00
1.513875e+01	-3.787659e+00
1.522619e+01	-3.816519e+00
1.531414e+01	-3.846156e+00
1.540259e+01	-3.875426e+00
1.549156e+01	-3.904969e+00
1.558103e+01	-3.934709e+00
1.567103e+01	-3.964535e+00
1.576155e+01	-3.994674e+00
1.585258e+01	-4.024695e+00
1.594415e+01	-4.054999e+00
1.603624e+01	-4.085338e+00
1.612886e+01	-4.116168e+00
1.622202e+01	-4.146721e+00
1.631572e+01	-4.177698e+00
1.640996e+01	-4.208639e+00
1.650474e+01	-4.239948e+00
1.660008e+01	-4.271141e+00
1.669596e+01	-4.302471e+00
1.679239e+01	-4.334073e+00
1.688938e+01	-4.365541e+00
1.698694e+01	-4.397362e+00
1.708505e+01	-4.429322e+00
1.718373e+01	-4.461373e+00
1.728299e+01	-4.493569e+00
1.738281e+01	-4.525705e+00
1.748322e+01	-4.558372e+00
1.758420e+01	-4.591054e+00
1.768576e+01	-4.623689e+00
1.778792e+01	-4.656371e+00
1.789066e+01	-4.689391e+00
1.799399e+01	-4.722318e+00
1.809793e+01	-4.755356e+00
1.820246e+01	-4.789257e+00
1.830760e+01	-4.822696e+00
1.841334e+01	-4.856101e+00
1.851969e+01	-4.889767e+00
1.862666e+01	-4.923857e+00
1.873425e+01	-4.957910e+00
1.884246e+01	-4.992028e+00
1.895129e+01	-5.026172e+00
1.906075e+01	-5.060303e+00
1.917085e+01	-5.094795e+00
1.928158e+01	-5.129441e+00
1.939295e+01	-5.164249e+00
1.950496e+01	-5.198974e+00
1.961762e+01	-5.234252e+00
1.973093e+01	-5.269134e+00
1.984490e+01	-5.304503e+00
1.995952e+01	-5.339350e+00
2.007480e+01	-5.374755e+00
2.019076e+01	-5.410715e+00
2.030738e+01	-5.446633e+00
2.042467e+01	-5.482282e+00
2.054264e+01	-5.518315e+00
2.066130e+01	-5.554599e+00
2.078064e+01	-5.590580e+00
2.090066e+01	-5.626893e+00
2.102139e+01	-5.662887e+00
2.114280e+01	-5.699864e+00
2.126492e+01	-5.736266e+00
2.138775e+01	-5.773137e+00
2.151128e+01	-5.809705e+00
2.163553e+01	-5.847085e+00
2.176050e+01	-5.883781e+00
2.188619e+01	-5.920931e+00
2.201260e+01	-5.958315e+00
2.213974e+01	-5.995485e+00
2.226762e+01	-6.033152e+00
2.239624e+01	-6.071032e+00
2.252560e+01	-6.108601e+00
2.265571e+01	-6.146039e+00
2.278656e+01	-6.184387e+00
2.291818e+01	-6.222134e+00
2.305055e+01	-6.260339e+00
2.318369e+01	-6.298614e+00
2.331760e+01	-6.336832e+00
2.345228e+01	-6.375468e+00
2.358774e+01	-6.413745e+00
2.372398e+01	-6.452723e+00
2.386101e+01	-6.491337e+00
2.399883e+01	-6.530272e+00
2.413745e+01	-6.569096e+00
2.427686e+01	-6.608304e+00
2.441709e+01	-6.646991e+00
2.455812e+01	-6.686952e+00
2.469997e+01	-6.725782e+00
2.484263e+01	-6.765404e+00
2.498612e+01	-6.805124e+00
2.513044e+01	-6.844481e+00
2.527559e+01	-6.884060e+00
2.542158e+01	-6.924263e+00
2.556842e+01	-6.964387e+00
2.571610e+01	-7.003785e+00
2.586463e+01	-7.043966e+00
2.601403e+01	-7.084687e+00
2.616428e+01	-7.124645e+00
2.631541e+01	-7.164834e+00
2.646740e+01	-7.205599e+00
2.662028e+01	-7.245881e+00
2.677404e+01	-7.286736e+00
2.692868e+01	-7.327164e+00
2.708422e+01	-7.368270e+00
2.724066e+01	-7.409005e+00
2.739800e+01	-7.450069e+00
2.755625e+01	-7.490989e+00
2.771541e+01	-7.532428e+00
2.787550e+01	-7.573303e+00
2.803650e+01	-7.614616e+00
2.819844e+01	-7.656521e+00
2.836131e+01	-7.697313e+00
2.852513e+01	-7.739634e+00
2.868989e+01	-7.781064e+00
2.885560e+01	-7.822254e+00
2.902227e+01	-7.864511e+00
2.918990e+01	-7.905981e+00
2.935850e+01	-7.948207e+00
2.952807e+01	-7.990371e+00
2.969863e+01	-8.032369e+00
2.987016e+01	-8.074695e+00
3.004269e+01	-8.117060e+00
3.021622e+01	-8.159313e+00
3.039075e+01	-8.201429e+00
3.056628e+01	-8.243811e+00
3.074283e+01	-8.286791e+00
3.092040e+01	-8.329445e+00
3.109900e+01	-8.372101e+00
3.127862e+01	-8.414459e+00
3.145929e+01	-8.457576e+00
3.164099e+01	-8.501017e+00
3.182375e+01	-8.544390e+00
3.200756e+01	-8.586911e+00
3.219244e+01	-8.630160e+00
3.237838e+01	-8.672974e+00
3.256540e+01	-8.716051e+00
3.275349e+01	-8.760025e+00
3.294268e+01	-8.802730e+00
3.313295e+01	-8.846859e+00
3.332433e+01	-8.890086e+00
3.351681e+01	-8.933966e+00
3.371040e+01	-8.977305e+00
3.390511e+01	-9.021087e+00
3.410094e+01	-9.064830e+00
3.429791e+01	-9.108997e+00
3.449601e+01	-9.152097e+00
3.469526e+01	-9.196816e+00
3.489566e+01	-9.240579e+00
3.509721e+01	-9.284589e+00
3.529993e+01	-9.328911e+00
3.550382e+01	-9.372964e+00
3.570889e+01	-9.417780e+00
3.591515e+01	-9.461818e+00
3.612259e+01	-9.505983e+00
3.633123e+01	-9.551032e+00
3.654108e+01	-9.595479e+00
3.675214e+01	-9.639775e+00
3.696442e+01	-9.684093e+00
3.717792e+01	-9.728672e+00
3.739266e+01	-9.773852e+00
3.760864e+01	-9.818175e+00
3.782587e+01	-9.863182e+00
3.804435e+01	-9.907846e+00
3.826409e+01	-9.952435e+00
3.848510e+01	-9.998165e+00
3.870739e+01	-1.004333e+01
3.893096e+01	-1.008812e+01
3.915583e+01	-1.013322e+01
3.938199e+01	-1.017849e+01
3.960946e+01	-1.022383e+01
3.983824e+01	-1.026915e+01
4.006834e+01	-1.031465e+01
4.029978e+01	-1.035991e+01
4.053255e+01	-1.040538e+01
4.076666e+01	-1.045119e+01
4.100213e+01	-1.049595e+01
4.123896e+01	-1.054221e+01
4.147715e+01	-1.058804e+01
4.171672e+01	-1.063318e+01
4.195767e+01	-1.067854e+01
4.220002e+01	-1.072512e+01
4.244377e+01	-1.077034e+01
4.268892e+01	-1.081634e+01
4.293549e+01	-1.086256e+01
4.318348e+01	-1.090745e+01
4.343291e+01	-1.095392e+01
4.368377e+01	-1.100064e+01
4.393609e+01	-1.104605e+01
4.418986e+01	-1.109215e+01
4.444510e+01	-1.113814e+01
4.470182e+01	-1.118501e+01
4.496001e+01	-1.123097e+01
4.521970e+01	-1.127633e+01
4.548089e+01	-1.132368e+01
4.574358e+01	-1.136995e+01
4.600779e+01	-1.141654e+01
4.627353e+01	-1.146280e+01
4.654081e+01	-1.150956e+01
4.680963e+01	-1.155574e+01
4.708000e+01	-1.160276e+01
4.735193e+01	-1.164902e+01
4.762543e+01	-1.169571e+01
4.790051e+01	-1.174244e+01
4.817719e+01	-1.178934e+01
4.845545e+01	-1.183591e+01
4.873533e+01	-1.188224e+01
4.901682e+01	-1.192906e+01
4.929994e+01	-1.197661e+01
4.958470e+01	-1.202292e+01
4.987110e+01	-1.207034e+01
5.015915e+01	-1.211680e+01
5.044887e+01	-1.216381e+01
5.074026e+01	-1.221069e+01
5.103333e+01	-1.225780e+01
5.132810e+01	-1.230541e+01
5.162457e+01	-1.235196e+01
5.192275e+01	-1.239932e+01
5.222265e+01	-1.244627e+01
5.252429e+01	-1.249382e+01
5.282767e+01	-1.254053e+01
5.313280e+01	-1.258761e+01
5.343969e+01	-1.263576e+01
5.374836e+01	-1.268242e+01
5.405880e+01	-1.272974e+01
5.437105e+01	-1.277730e+01
5.468509e+01	-1.282442e+01
5.500095e+01	-1.287163e+01
5.531863e+01	-1.292002e+01
5.563815e+01	-1.296718e+01
5.595951e+01	-1.301423e+01
5.628273e+01	-1.306239e+01
5.660782e+01	-1.310985e+01
5.693479e+01	-1.315636e+01
5.726364e+01	-1.320498e+01
5.759439e+01	-1.325191e+01
5.792705e+01	-1.329982e+01
5.826164e+01	-1.334890e+01
5.859815e+01	-1.339573e+01
5.893662e+01	-1.344309e+01
5.927703e+01	-1.349095e+01
5.961941e+01	-1.353862e+01
5.996377e+01	-1.358729e+01
6.031012e+01	-1.363446e+01
6.065847e+01	-1.368386e+01
6.100883e+01	-1.373100e+01
6.136121e+01	-1.377819e+01
6.171563e+01	-1.382660e+01
6.207210e+01	-1.387462e+01
6.243063e+01	-1.392294e+01
6.279122e+01	-1.397035e+01
6.315390e+01	-1.401829e+01
6.351868e+01	-1.406651e+01
6.388556e+01	-1.411393e+01
6.425456e+01	-1.416299e+01
6.462569e+01	-1.421114e+01
6.499897e+01	-1.425915e+01
6.537440e+01	-1.430628e+01
6.575200e+01	-1.435498e+01
6.613178e+01	-1.440339e+01
6.651375e+01	-1.445066e+01
6.689793e+01	-1.449983e+01
6.728433e+01	-1.454867e+01
6.767297e+01	-1.459748e+01
6.806384e+01	-1.464509e+01
6.845698e+01	-1.469312e+01
6.885238e+01	-1.474120e+01
6.925007e+01	-1.478973e+01
6.965005e+01	-1.483887e+01
7.005235e+01	-1.488725e+01
7.045697e+01	-1.493502e+01
7.086393e+01	-1.498336e+01
7.127323e+01	-1.503155e+01
7.168490e+01	-1.508022e+01
7.209895e+01	-1.512934e+01
7.251539e+01	-1.517731e+01
7.293424e+01	-1.522651e+01
7.335551e+01	-1.527449e+01
7.377920e+01	-1.532298e+01
7.420535e+01	-1.537073e+01
7.463396e+01	-1.541923e+01
7.506504e+01	-1.546884e+01
7.549861e+01	-1.551695e+01
7.593469e+01	-1.556519e+01
7.637328e+01	-1.561479e+01
7.681441e+01	-1.566369e+01
7.725809e+01	-1.571209e+01
7.770433e+01	-1.576164e+01
7.815315e+01	-1.580869e+01
7.860456e+01	-1.585747e+01
7.905857e+01	-1.590648e+01
7.951521e+01	-1.595517e+01
7.997449e+01	-1.600411e+01
8.043642e+01	-1.605285e+01
8.090102e+01	-1.610157e+01
8.136830e+01	-1.615185e+01
8.183828e+01	-1.619963e+01
8.231097e+01	-1.624941e+01
8.278640e+01	-1.629706e+01
8.326457e+01	-1.634645e+01
8.374550e+01	-1.639400e+01
8.422921e+01	-1.644276e+01
8.471572e+01	-1.649259e+01
8.520503e+01	-1.654166e+01
8.569717e+01	-1.658968e+01
8.619215e+01	-1.663978e+01
8.669000e+01	-1.668865e+01
8.719071e+01	-1.673543e+01
8.769432e+01	-1.678602e+01
8.820084e+01	-1.683534e+01
8.871029e+01	-1.688435e+01
8.922267e+01	-1.693372e+01
8.973802e+01	-1.698154e+01
9.025634e+01	-1.703201e+01
9.077766e+01	-1.708099e+01
9.130199e+01	-1.712897e+01
9.182935e+01	-1.717799e+01
9.235975e+01	-1.722732e+01
9.289321e+01	-1.727664e+01
9.342976e+01	-1.732555e+01
9.396941e+01	-1.737454e+01
9.451217e+01	-1.742498e+01
9.505807e+01	-1.747311e+01
9.560712e+01	-1.752230e+01
9.615934e+01	-1.757071e+01
9.671476e+01	-1.762151e+01
9.727338e+01	-1.767092e+01
9.783522e+01	-1.771877e+01
9.840032e+01	-1.776714e+01
9.896867e+01	-1.781610e+01
9.954031e+01	-1.786685e+01
1.001153e+02	-1.791664e+01
1.006935e+02	-1.796511e+01
1.012751e+02	-1.801604e+01
1.018601e+02	-1.806356e+01
1.024484e+02	-1.811267e+01
1.030402e+02	-1.816159e+01
1.036353e+02	-1.821223e+01
1.042339e+02	-1.826016e+01
1.048360e+02	-1.830830e+01
1.054415e+02	-1.835909e+01
1.060505e+02	-1.840915e+01
1.066631e+02	-1.845811e+01
1.072791e+02	-1.850622e+01
1.078988e+02	-1.855748e+01
1.085220e+02	-1.860506e+01
1.091488e+02	-1.865652e+01
1.097793e+02	-1.870369e+01
1.104133e+02	-1.875422e+01
1.110511e+02	-1.880400e+01
1.116925e+02	-1.885283e+01
1.123376e+02	-1.890234e+01
1.129865e+02	-1.895177e+01
1.136391e+02	-1.900248e+01
1.142955e+02	-1.905237e+01
1.149556e+02	-1.909946e+01
1.156196e+02	-1.914953e+01
1.162874e+02	-1.919849e+01
1.169591e+02	-1.924769e+01
1.176347e+02	-1.929819e+01
1.183141e+02	-1.934828e+01
1.189975e+02	-1.939606e+01
1.196848e+02	-1.944588e+01
1.203761e+02	-1.949436e+01
1.210714e+02	-1.954604e+01
1.217707e+02	-1.959406e+01
1.224740e+02	-1.964256e+01
1.231814e+02	-1.969281e+01
1.238929e+02	-1.974342e+01
1.246085e+02	-1.979193e+01
1.253283e+02	-1.984220e+01
1.260522e+02	-1.989120e+01
1.267802e+02	-1.994190e+01
1.275125e+02	-1.998952e+01
1.282490e+02	-2.003948e+01
1.289898e+02	-2.008897e+01
1.297348e+02	-2.013949e+01
1.304842e+02	-2.018840e+01
1.312378e+02	-2.023832e+01
1.319959e+02	-2.028818e+01
1.327583e+02	-2.033685e+01
1.335251e+02	-2.038687e+01
1.342963e+02	-2.043679e+01
1.350720e+02	-2.048423e+01
1.358522e+02	-2.053520e+01
1.366368e+02	-2.058352e+01
1.374260e+02	-2.063461e+01
1.382198e+02	-2.068554e+01
1.390182e+02	-2.073394e+01
1.398211e+02	-2.078418e+01
1.406287e+02	-2.083246e+01
1.414410e+02	-2.088168e+01
1.422579e+02	-2.093138e+01
1.430796e+02	-2.098241e+01
1.439060e+02	-2.103092e+01
1.447372e+02	-2.107959e+01
1.455732e+02	-2.112995e+01
1.464141e+02	-2.117970e+01
1.472597e+02	-2.123012e+01
1.481103e+02	-2.128145e+01
1.489658e+02	-2.133012e+01
1.498262e+02	-2.138093e+01
1.506916e+02	-2.142958e+01
1.515620e+02	-2.147744e+01
1.524374e+02	-2.152743e+01
1.533179e+02	-2.157786e+01
1.542034e+02	-2.162884e+01
1.550941e+02	-2.167849e+01
1.559899e+02	-2.172604e+01
1.568909e+02	-2.177802e+01
1.577971e+02	-2.182687e+01
1.587085e+02	-2.187654e+01
1.596252e+02	-2.192752e+01
1.605472e+02	-2.197441e+01
1.614745e+02	-2.202511e+01
1.624072e+02	-2.207559e+01
1.633453e+02	-2.212337e+01
1.642887e+02	-2.217266e+01
1.652377e+02	-2.222703e+01
1.661921e+02	-2.227619e+01
1.671520e+02	-2.232281e+01
1.681175e+02	-2.237410e+01
1.690885e+02	-2.242433e+01
1.700651e+02	-2.247390e+01
1.710474e+02	-2.252080e+01
1.720354e+02	-2.257223e+01
1.730291e+02	-2.262191e+01
1.740285e+02	-2.266983e+01
1.750337e+02	-2.272248e+01
1.760446e+02	-2.276932e+01
1.770615e+02	-2.282229e+01
1.780842e+02	-2.286977e+01
1.791128e+02	-2.292042e+01
1.801473e+02	-2.297090e+01
1.811878e+02	-2.301940e+01
1.822344e+02	-2.307090e+01
1.832870e+02	-2.312053e+01
1.843456e+02	-2.317305e+01
1.854104e+02	-2.322207e+01
1.864813e+02	-2.326839e+01
1.875584e+02	-2.332035e+01
1.886418e+02	-2.336991e+01
1.897313e+02	-2.341956e+01
1.908272e+02	-2.346894e+01
1.919294e+02	-2.352186e+01
1.930380e+02	-2.356975e+01
1.941530e+02	-2.361840e+01
1.952744e+02	-2.366752e+01
1.964023e+02	-2.371983e+01
1.975367e+02	-2.376819e+01
1.986777e+02	-2.381749e+01
1.998252e+02	-2.386789e+01
2.009794e+02	-2.391779e+01
2.021403e+02	-2.396654e+01
2.033078e+02	-2.401585e+01
2.044821e+02	-2.406677e+01
2.056632e+02	-2.411655e+01
2.068511e+02	-2.416921e+01
2.080459e+02	-2.421898e+01
2.092475e+02	-2.426697e+01
2.104561e+02	-2.431902e+01
2.116717e+02	-2.436851e+01
2.128943e+02	-2.441764e+01
2.141240e+02	-2.446506e+01
2.153608e+02	-2.451659e+01
2.166047e+02	-2.456646e+01
2.178558e+02	-2.461419e+01
2.191141e+02	-2.466530e+01
2.203797e+02	-2.471565e+01
2.216526e+02	-2.476536e+01
2.229329e+02	-2.481286e+01
2.242205e+02	-2.486510e+01
2.255156e+02	-2.491272e+01
2.268182e+02	-2.496636e+01
2.281283e+02	-2.501666e+01
2.294459e+02	-2.506330e+01
2.307712e+02	-2.511470e+01
2.321041e+02	-2.516495e+01
2.334447e+02	-2.521469e+01
2.347931e+02	-2.526652e+01
2.361493e+02	-2.531595e+01
2.375133e+02	-2.536645e+01
2.388851e+02	-2.541484e+01
2.402649e+02	-2.546723e+01
2.416527e+02	-2.551405e+01
2.430484e+02	-2.556458e+01
2.444523e+02	-2.561810e+01
2.458642e+02	-2.566068e+01
2.472843e+02	-2.571424e+01
2.487126e+02	-2.576510e+01
2.501492e+02	-2.581240e+01
2.515940e+02	-2.586183e+01
2.530472e+02	-2.591485e+01
2.545088e+02	-2.596341e+01
2.559789e+02	-2.601502e+01
2.574574e+02	-2.606344e+01
2.589444e+02	-2.611392e+01
2.604401e+02	-2.616363e+01
2.619444e+02	-2.621486e+01
2.634574e+02	-2.626555e+01
2.649791e+02	-2.631088e+01
2.665096e+02	-2.636423e+01
2.680489e+02	-2.641468e+01
2.695972e+02	-2.646161e+01
2.711544e+02	-2.651320e+01
2.727205e+02	-2.656309e+01
2.742958e+02	-2.661462e+01
2.758801e+02	-2.666112e+01
2.774736e+02	-2.671436e+01
2.790762e+02	-2.676157e+01
2.806882e+02	-2.681572e+01
2.823094e+02	-2.686278e+01
2.839400e+02	-2.691266e+01
2.855800e+02	-2.696601e+01
2.872295e+02	-2.701278e+01
2.888886e+02	-2.706392e+01
2.905572e+02	-2.711489e+01
2.922354e+02	-2.716230e+01
2.939234e+02	-2.721288e+01
2.956211e+02	-2.726257e+01
2.973286e+02	-2.731113e+01
2.990459e+02	-2.736134e+01
3.007732e+02	-2.741427e+01
3.025104e+02	-2.746593e+01
3.042577e+02	-2.751160e+01
3.060151e+02	-2.756138e+01
3.077826e+02	-2.761566e+01
3.095604e+02	-2.766001e+01
3.113484e+02	-2.771558e+01
3.131467e+02	-2.776447e+01
3.149554e+02	-2.781541e+01
3.167746e+02	-2.786605e+01
3.186043e+02	-2.791694e+01
3.204445e+02	-2.796374e+01
3.222954e+02	-2.801173e+01
3.241570e+02	-2.805891e+01
3.260293e+02	-2.811344e+01
3.279124e+02	-2.816095e+01
3.298064e+02	-2.821337e+01
3.317114e+02	-2.826736e+01
3.336273e+02	-2.831168e+01
3.355544e+02	-2.836050e+01
3.374925e+02	-2.841239e+01
3.394418e+02	-2.846506e+01
3.414024e+02	-2.851606e+01
3.433744e+02	-2.856276e+01
3.453577e+02	-2.861511e+01
3.473525e+02	-2.866193e+01
3.493588e+02	-2.871128e+01
3.513766e+02	-2.876158e+01
3.534062e+02	-2.881773e+01
3.554474e+02	-2.886125e+01
3.575005e+02	-2.891956e+01
3.595654e+02	-2.896479e+01
3.616422e+02	-2.901237e+01
3.637311e+02	-2.906416e+01
3.658320e+02	-2.911592e+01
3.679450e+02	-2.916161e+01
3.700702e+02	-2.921043e+01
3.722077e+02	-2.926484e+01
3.743576e+02	-2.931537e+01
3.765199e+02	-2.936983e+01
3.786946e+02	-2.941378e+01
3.808820e+02	-2.946866e+01
3.830819e+02	-2.951591e+01
3.852946e+02	-2.956436e+01
3.875200e+02	-2.961299e+01
3.897583e+02	-2.966679e+01
3.920096e+02	-2.971285e+01
3.942738e+02	-2.976777e+01
3.965511e+02	-2.981475e+01
3.988416e+02	-2.986583e+01
4.011452e+02	-2.991285e+01
4.034622e+02	-2.996174e+01
4.057926e+02	-3.001837e+01
4.081365e+02	-3.006849e+01
4.104938e+02	-3.011938e+01
4.128648e+02	-3.017048e+01
4.152495e+02	-3.021089e+01
4.176480e+02	-3.026579e+01
4.200603e+02	-3.031493e+01
4.224866e+02	-3.036824e+01
4.249268e+02	-3.041520e+01
4.273812e+02	-3.046638e+01
4.298497e+02	-3.051315e+01
4.323325e+02	-3.056160e+01
4.348297e+02	-3.062032e+01
4.373412e+02	-3.066642e+01
4.398673e+02	-3.071460e+01
4.424079e+02	-3.077149e+01
4.449633e+02	-3.081752e+01
4.475334e+02	-3.086818e+01
4.501183e+02	-3.091322e+01
4.527182e+02	-3.096629e+01
4.553330e+02	-3.102317e+01
4.579630e+02	-3.107226e+01
4.606082e+02	-3.112236e+01
4.632687e+02	-3.117112e+01
4.659445e+02	-3.121889e+01
4.686358e+02	-3.126895e+01
4.713426e+02	-3.131686e+01
4.740650e+02	-3.137327e+01
4.768032e+02	-3.141784e+01
4.795572e+02	-3.146688e+01
4.823271e+02	-3.152067e+01
4.851130e+02	-3.157124e+01
4.879150e+02	-3.162535e+01
4.907332e+02	-3.166778e+01
4.935676e+02	-3.172800e+01
4.964185e+02	-3.177184e+01
4.992858e+02	-3.181928e+01
5.021696e+02	-3.187734e+01
5.050701e+02	-3.192360e+01
5.079874e+02	-3.197138e+01
5.109215e+02	-3.202448e+01
5.138726e+02	-3.207326e+01
5.168407e+02	-3.211891e+01
5.198259e+02	-3.217724e+01
5.228284e+02	-3.222548e+01
5.258482e+02	-3.227434e+01
5.288855e+02	-3.232284e+01
5.319403e+02	-3.236772e+01
5.350128e+02	-3.242534e+01
5.381030e+02	-3.248034e+01
5.412111e+02	-3.252418e+01
5.443371e+02	-3.257458e+01
5.474812e+02	-3.262387e+01
5.506434e+02	-3.267469e+01
5.538239e+02	-3.272626e+01
5.570228e+02	-3.277901e+01
5.602401e+02	-3.282263e+01
5.634760e+02	-3.288446e+01
5.667306e+02	-3.292668e+01
5.700040e+02	-3.297654e+01
5.732964e+02	-3.302431e+01
5.766077e+02	-3.307660e+01
5.799382e+02	-3.312653e+01
5.832879e+02	-3.317587e+01
5.866569e+02	-3.323568e+01
5.900454e+02	-3.328419e+01
5.934535e+02	-3.332900e+01
5.968813e+02	-3.338250e+01
6.003288e+02	-3.342657e+01
6.037963e+02	-3.347592e+01
6.072838e+02	-3.352668e+01
6.107914e+02	-3.357233e+01
6.143194e+02	-3.363580e+01
6.178676e+02	-3.367906e+01
6.214364e+02	-3.373181e+01
6.250258e+02	-3.378462e+01
6.286359e+02	-3.382535e+01
6.322669e+02	-3.388746e+01
6.359189e+02	-3.393993e+01
6.395919e+02	-3.398674e+01
6.432862e+02	-3.403635e+01
6.470017e+02	-3.408069e+01
6.507388e+02	-3.413132e+01
6.544974e+02	-3.418233e+01
6.582778e+02	-3.424111e+01
6.620800e+02	-3.428960e+01
6.659041e+02	-3.433632e+01
6.697504e+02	-3.438819e+01
6.736188e+02	-3.444111e+01
6.775096e+02	-3.448848e+01
6.814229e+02	-3.453251e+01
6.853587e+02	-3.458420e+01
6.893173e+02	-3.463886e+01
6.932988e+02	-3.469677e+01
6.973033e+02	-3.473303e+01
7.013309e+02	-3.478467e+01
