Frequency(Hz)	Magnitude(dB)
1.000000e+01	-2.059925e+00
1.005776e+01	-2.078763e+00
1.011585e+01	-2.097886e+00
1.017428e+01	-2.117262e+00
1.023305e+01	-2.136647e+00
1.029215e+01	-2.155946e+00
1.035160e+01	-2.175839e+00
1.041139e+01	-2.195533e+00
1.047153e+01	-2.215595e+00
1.053201e+01	-2.235818e+00
1.059284e+01	-2.255810e+00
1.065403e+01	-2.276097e+00
1.071556e+01	-2.296437e+00
1.077746e+01	-2.317167e+00
1.083971e+01	-2.337807e+00
1.090232e+01	-2.358710e+00
1.096529e+01	-2.379638e+00
1.102862e+01	-2.400903e+00
1.109232e+01	-2.422376e+00
1.115639e+01	-2.443689e+00
1.122083e+01	-2.465507e+00
1.128564e+01	-2.487227e+00
1.135083e+01	-2.508939e+00
1.141639e+01	-2.530833e+00
1.148233e+01	-2.553113e+00
1.154865e+01	-2.575571e+00
1.161536e+01	-2.597648e+00
1.168245e+01	-2.620430e+00
1.174992e+01	-2.643300e+00
1.181779e+01	-2.666029e+00
1.188605e+01	-2.689040e+00
1.195470e+01	-2.712296e+00
1.202375e+01	-2.735616e+00
1.209320e+01	-2.759033e+00
1.216305e+01	-2.782654e+00
1.223330e+01	-2.806417e+00
1.230396e+01	-2.830250e+00
1.237503e+01	-2.854247e+00
1.244651e+01	-2.878636e+00
1.251840e+01	-2.902552e+00
1.259070e+01	-2.927433e+00
1.266343e+01	-2.952059e+00
1.273657e+01	-2.976592e+00
1.281014e+01	-3.001515e+00
1.288413e+01	-3.026614e+00
1.295855e+01	-3.051662e+00
1.303339e+01	-3.077121e+00
1.310867e+01	-3.102622e+00
1.318439e+01	-3.128160e+00
1.326054e+01	-3.154097e+00
1.333713e+01	-3.179679e+00
1.341417e+01	-3.205792e+00
1.349165e+01	-3.231972e+00
1.356958e+01	-3.258348e+00
1.364795e+01	-3.284481e+00
1.372678e+01	-3.311254e+00
1.380607e+01	-3.338293e+00
1.388581e+01	-3.365163e+00
1.396602e+01	-3.392300e+00
1.404668e+01	-3.419291e+00
1.412782e+01	-3.446764e+00
1.420942e+01	-3.474063e+00
1.429149e+01	-3.501956e+00
1.437404e+01	-3.529225e+00
1.445706e+01	-3.557389e+00
1.454057e+01	-3.585385e+00
1.462455e+01	-3.613674e+00
1.470902e+01	-3.642026e+00
1.479398e+01	-3.670614e+00
1.487943e+01	-3.699017e+00
1.496537e+01	-3.727903e+00
1.505181e+01	-3.757019e+00
1.513875e+01	-3.785483e+00
1.522619e+01	-3.814839e+00
1.531414e+01	-3.844253e+00
1.540259e+01	-3.873595e+00
1.549156e+01	-3.903406e+00
1.558103e+01	-3.932883e+00
1.567103e+01	-3.962872e+00
1.576155e+01	-3.992838e+00
1.585258e+01	-4.022885e+00
1.594415e+01	-4.053288e+00
1.603624e+01	-4.083839e+00
1.612886e+01	-4.114490e+00
1.622202e+01	-4.144911e+00
1.631572e+01	-4.175694e+00
1.640996e+01	-4.206909e+00
1.650474e+01	-4.237788e+00
1.660008e+01	-4.269133e+00
1.669596e+01	-4.300452e+00
1.679239e+01	-4.331937e+00
1.688938e+01	-4.363390e+00
1.698694e+01	-4.395379e+00
1.708505e+01	-4.427447e+00
1.718373e+01	-4.459484e+00
1.728299e+01	-4.491543e+00
1.738281e+01	-4.524018e+00
1.748322e+01	-4.556607e+00
1.758420e+01	-4.588526e+00
1.768576e+01	-4.621701e+00
1.778792e+01	-4.654218e+00
1.789066e+01	-4.687127e+00
1.799399e+01	-4.720604e+00
1.809793e+01	-4.753365e+00
1.820246e+01	-4.787018e+00
1.830760e+01	-4.820460e+00
1.841334e+01	-4.854014e+00
1.851969e+01	-4.887632e+00
1.862666e+01	-4.921658e+00
1.873425e+01	-4.955614e+00
1.884246e+01	-4.989729e+00
1.895129e+01	-5.023894e+00
1.906075e+01	-5.058301e+00
1.917085e+01	-5.092893e+00
1.928158e+01	-5.127502e+00
1.939295e+01	-5.162294e+00
1.950496e+01	-5.196785e+00
1.961762e+01	-5.231841e+00
1.973093e+01	-5.267055e+00
1.984490e+01	-5.302413e+00
1.995952e+01	-5.337563e+00
2.007480e+01	-5.372975e+00
2.019076e+01	-5.408569e+00
2.030738e+01	-5.444169e+00
2.042467e+01	-5.480175e+00
2.054264e+01	-5.515995e+00
2.066130e+01	-5.551930e+00
2.078064e+01	-5.588141e+00
2.090066e+01	-5.624262e+00
2.102139e+01	-5.661090e+00
2.114280e+01	-5.697412e+00
2.126492e+01	-5.733973e+00
2.138775e+01	-5.770513e+00
2.151128e+01	-5.807610e+00
2.163553e+01	-5.844605e+00
2.176050e+01	-5.881543e+00
2.188619e+01	-5.918663e+00
2.201260e+01	-5.955688e+00
2.213974e+01	-5.993478e+00
2.226762e+01	-6.030600e+00
2.239624e+01	-6.068465e+00
2.252560e+01	-6.105790e+00
2.265571e+01	-6.143765e+00
2.278656e+01	-6.181684e+00
2.291818e+01	-6.219695e+00
2.305055e+01	-6.258012e+00
2.318369e+01	-6.296259e+00
2.331760e+01	-6.334488e+00
2.345228e+01	-6.372927e+00
2.358774e+01	-6.411716e+00
2.372398e+01	-6.450154e+00
2.386101e+01	-6.488932e+00
2.399883e+01	-6.527702e+00
2.413745e+01	-6.566676e+00
2.427686e+01	-6.606092e+00
2.441709e+01	-6.644796e+00
2.455812e+01	-6.684058e+00
2.469997e+01	-6.723859e+00
2.484263e+01	-6.763095e+00
2.498612e+01	-6.802451e+00
2.513044e+01	-6.842227e+00
2.527559e+01	-6.882228e+00
2.542158e+01	-6.921627e+00
2.556842e+01	-6.961280e+00
2.571610e+01	-7.001666e+00
2.586463e+01	-7.041513e+00
2.601403e+01	-7.081889e+00
2.616428e+01	-7.122284e+00
2.631541e+01	-7.162593e+00
2.646740e+01	-7.203045e+00
2.662028e+01	-7.243878e+00
2.677404e+01	-7.283976e+00
2.692868e+01	-7.325184e+00
2.708422e+01	-7.365420e+00
2.724066e+01	-7.406670e+00
2.739800e+01	-7.447521e+00
2.755625e+01	-7.488988e+00
2.771541e+01	-7.529596e+00
2.787550e+01	-7.571270e+00
2.803650e+01	-7.612354e+00
2.819844e+01	-7.653184e+00
2.836131e+01	-7.694890e+00
2.852513e+01	-7.736964e+00
2.868989e+01	-7.778376e+00
2.885560e+01	-7.820056e+00
2.902227e+01	-7.861838e+00
2.918990e+01	-7.903937e+00
2.935850e+01	-7.945924e+00
2.952807e+01	-7.987998e+00
2.969863e+01	-8.030048e+00
2.987016e+01	-8.072454e+00
3.004269e+01	-8.114466e+00
3.021622e+01	-8.156520e+00
3.039075e+01	-8.199299e+00
3.056628e+01	-8.241636e+00
3.074283e+01	-8.284080e+00
3.092040e+01	-8.326564e+00
3.109900e+01	-8.369710e+00
3.127862e+01	-8.411831e+00
3.145929e+01	-8.455133e+00
3.164099e+01	-8.498242e+00
3.182375e+01	-8.541128e+00
3.200756e+01	-8.584207e+00
3.219244e+01	-8.627804e+00
3.237838e+01	-8.670483e+00
3.256540e+01	-8.713873e+00
3.275349e+01	-8.757144e+00
3.294268e+01	-8.799979e+00
3.313295e+01	-8.844080e+00
3.332433e+01	-8.887190e+00
3.351681e+01	-8.930885e+00
3.371040e+01	-8.975093e+00
3.390511e+01	-9.018497e+00
3.410094e+01	-9.062393e+00
3.429791e+01	-9.106355e+00
3.449601e+01	-9.149928e+00
3.469526e+01	-9.193823e+00
3.489566e+01	-9.238553e+00
3.509721e+01	-9.282141e+00
3.529993e+01	-9.325749e+00
3.550382e+01	-9.370425e+00
3.570889e+01	-9.414379e+00
3.591515e+01	-9.458743e+00
3.612259e+01	-9.503400e+00
3.633123e+01	-9.547899e+00
3.654108e+01	-9.592619e+00
3.675214e+01	-9.636360e+00
3.696442e+01	-9.681771e+00
3.717792e+01	-9.726114e+00
3.739266e+01	-9.770814e+00
3.760864e+01	-9.815383e+00
3.782587e+01	-9.860452e+00
3.804435e+01	-9.905828e+00
3.826409e+01	-9.950133e+00
3.848510e+01	-9.994802e+00
3.870739e+01	-1.004019e+01
3.893096e+01	-1.008541e+01
3.915583e+01	-1.013047e+01
3.938199e+01	-1.017577e+01
3.960946e+01	-1.022113e+01
3.983824e+01	-1.026659e+01
4.006834e+01	-1.031157e+01
4.029978e+01	-1.035692e+01
4.053255e+01	-1.040280e+01
4.076666e+01	-1.044782e+01
4.100213e+01	-1.049353e+01
4.123896e+01	-1.053967e+01
4.147715e+01	-1.058485e+01
4.171672e+01	-1.063055e+01
4.195767e+01	-1.067618e+01
4.220002e+01	-1.072173e+01
4.244377e+01	-1.076754e+01
4.268892e+01	-1.081315e+01
4.293549e+01	-1.085904e+01
4.318348e+01	-1.090523e+01
4.343291e+01	-1.095148e+01
4.368377e+01	-1.099793e+01
4.393609e+01	-1.104333e+01
4.418986e+01	-1.108994e+01
4.444510e+01	-1.113546e+01
4.470182e+01	-1.118180e+01
4.496001e+01	-1.122850e+01
4.521970e+01	-1.127463e+01
4.548089e+01	-1.132085e+01
4.574358e+01	-1.136751e+01
4.600779e+01	-1.141325e+01
4.627353e+01	-1.145980e+01
4.654081e+01	-1.150684e+01
4.680963e+01	-1.155285e+01
4.708000e+01	-1.160024e+01
4.735193e+01	-1.164628e+01
4.762543e+01	-1.169305e+01
4.790051e+01	-1.173935e+01
4.817719e+01	-1.178546e+01
4.845545e+01	-1.183300e+01
4.873533e+01	-1.187921e+01
4.901682e+01	-1.192627e+01
4.929994e+01	-1.197346e+01
4.958470e+01	-1.202064e+01
4.987110e+01	-1.206732e+01
5.015915e+01	-1.211409e+01
5.044887e+01	-1.216119e+01
5.074026e+01	-1.220740e+01
5.103333e+01	-1.225522e+01
5.132810e+01	-1.230178e+01
5.162457e+01	-1.234890e+01
5.192275e+01	-1.239685e+01
5.222265e+01	-1.244321e+01
5.252429e+01	-1.249092e+01
5.282767e+01	-1.253828e+01
5.313280e+01	-1.258607e+01
5.343969e+01	-1.263261e+01
5.374836e+01	-1.267947e+01
5.405880e+01	-1.272679e+01
5.437105e+01	-1.277447e+01
5.468509e+01	-1.282135e+01
5.500095e+01	-1.286924e+01
5.531863e+01	-1.291657e+01
5.563815e+01	-1.296379e+01
5.595951e+01	-1.301134e+01
5.628273e+01	-1.305946e+01
5.660782e+01	-1.310728e+01
5.693479e+01	-1.315404e+01
5.726364e+01	-1.320215e+01
5.759439e+01	-1.324948e+01
5.792705e+01	-1.329658e+01
5.826164e+01	-1.334601e+01
5.859815e+01	-1.339274e+01
5.893662e+01	-1.343941e+01
5.927703e+01	-1.348861e+01
5.961941e+01	-1.353611e+01
5.996377e+01	-1.358470e+01
6.031012e+01	-1.363179e+01
6.065847e+01	-1.367896e+01
6.100883e+01	-1.372699e+01
6.136121e+01	-1.377579e+01
6.171563e+01	-1.382246e+01
6.207210e+01	-1.387059e+01
6.243063e+01	-1.391960e+01
6.279122e+01	-1.396709e+01
6.315390e+01	-1.401547e+01
6.351868e+01	-1.406314e+01
6.388556e+01	-1.411126e+01
6.425456e+01	-1.415960e+01
6.462569e+01	-1.420777e+01
6.499897e+01	-1.425624e+01
6.537440e+01	-1.430405e+01
6.575200e+01	-1.435221e+01
6.613178e+01	-1.440001e+01
6.651375e+01	-1.444860e+01
6.689793e+01	-1.449660e+01
6.728433e+01	-1.454565e+01
6.767297e+01	-1.459409e+01
6.806384e+01	-1.464247e+01
6.845698e+01	-1.468880e+01
6.885238e+01	-1.473908e+01
6.925007e+01	-1.478608e+01
6.965005e+01	-1.483402e+01
7.005235e+01	-1.488414e+01
7.045697e+01	-1.493259e+01
7.086393e+01	-1.497958e+01
7.127323e+01	-1.502919e+01
7.168490e+01	-1.507715e+01
7.209895e+01	-1.512610e+01
7.251539e+01	-1.517457e+01
7.293424e+01	-1.522226e+01
7.335551e+01	-1.527180e+01
7.377920e+01	-1.531975e+01
7.420535e+01	-1.536825e+01
7.463396e+01	-1.541700e+01
7.506504e+01	-1.546481e+01
7.549861e+01	-1.551427e+01
7.593469e+01	-1.556324e+01
7.637328e+01	-1.561136e+01
7.681441e+01	-1.566072e+01
7.725809e+01	-1.570847e+01
7.770433e+01	-1.575739e+01
7.815315e+01	-1.580622e+01
7.860456e+01	-1.585602e+01
7.905857e+01	-1.590393e+01
7.951521e+01	-1.595226e+01
7.997449e+01	-1.600179e+01
8.043642e+01	-1.604953e+01
8.090102e+01	-1.609833e+01
8.136830e+01	-1.614704e+01
8.183828e+01	-1.619558e+01
8.231097e+01	-1.624545e+01
8.278640e+01	-1.629447e+01
8.326457e+01	-1.634307e+01
8.374550e+01	-1.639174e+01
8.422921e+01	-1.643999e+01
8.471572e+01	-1.648918e+01
8.520503e+01	-1.653903e+01
8.569717e+01	-1.658789e+01
8.619215e+01	-1.663559e+01
8.669000e+01	-1.668388e+01
8.719071e+01	-1.673391e+01
8.769432e+01	-1.678299e+01
8.820084e+01	-1.683272e+01
8.871029e+01	-1.688214e+01
8.922267e+01	-1.693059e+01
8.973802e+01	-1.697894e+01
9.025634e+01	-1.702868e+01
9.077766e+01	-1.707860e+01
9.130199e+01	-1.712662e+01
9.182935e+01	-1.717523e+01
9.235975e+01	-1.722480e+01
9.289321e+01	-1.727342e+01
9.342976e+01	-1.732296e+01
9.396941e+01	-1.737229e+01
9.451217e+01	-1.742088e+01
9.505807e+01	-1.747099e+01
9.560712e+01	-1.752009e+01
9.615934e+01	-1.756879e+01
9.671476e+01	-1.761743e+01
9.727338e+01	-1.766681e+01
9.783522e+01	-1.771643e+01
9.840032e+01	-1.776648e+01
9.896867e+01	-1.781454e+01
9.954031e+01	-1.786340e+01
1.001153e+02	-1.791294e+01
1.006935e+02	-1.796258e+01
1.012751e+02	-1.801108e+01
1.018601e+02	-1.806045e+01
1.024484e+02	-1.811026e+01
1.030402e+02	-1.815966e+01
1.036353e+02	-1.820908e+01
1.042339e+02	-1.825814e+01
1.048360e+02	-1.830600e+01
1.054415e+02	-1.835657e+01
1.060505e+02	-1.840609e+01
1.066631e+02	-1.845356e+01
1.072791e+02	-1.850465e+01
1.078988e+02	-1.855237e+01
1.085220e+02	-1.860207e+01
1.091488e+02	-1.865271e+01
1.097793e+02	-1.870186e+01
1.104133e+02	-1.875142e+01
1.110511e+02	-1.880041e+01
1.116925e+02	-1.884764e+01
1.123376e+02	-1.889855e+01
1.129865e+02	-1.894881e+01
1.136391e+02	-1.899788e+01
1.142955e+02	-1.904643e+01
1.149556e+02	-1.909755e+01
1.156196e+02	-1.914534e+01
1.162874e+02	-1.919753e+01
1.169591e+02	-1.924386e+01
1.176347e+02	-1.929589e+01
1.183141e+02	-1.934506e+01
1.189975e+02	-1.939321e+01
1.196848e+02	-1.944305e+01
1.203761e+02	-1.949194e+01
1.210714e+02	-1.954261e+01
1.217707e+02	-1.958941e+01
1.224740e+02	-1.964223e+01
1.231814e+02	-1.969011e+01
1.238929e+02	-1.973987e+01
1.246085e+02	-1.978854e+01
1.253283e+02	-1.983898e+01
1.260522e+02	-1.988686e+01
1.267802e+02	-1.993808e+01
1.275125e+02	-1.998838e+01
1.282490e+02	-2.003727e+01
1.289898e+02	-2.008650e+01
1.297348e+02	-2.013579e+01
1.304842e+02	-2.018400e+01
1.312378e+02	-2.023401e+01
1.319959e+02	-2.028511e+01
1.327583e+02	-2.033540e+01
1.335251e+02	-2.038287e+01
1.342963e+02	-2.043287e+01
1.350720e+02	-2.048326e+01
1.358522e+02	-2.053308e+01
1.366368e+02	-2.058279e+01
1.374260e+02	-2.063138e+01
1.382198e+02	-2.068030e+01
1.390182e+02	-2.073071e+01
1.398211e+02	-2.078014e+01
1.406287e+02	-2.082879e+01
1.414410e+02	-2.087798e+01
1.422579e+02	-2.092982e+01
1.430796e+02	-2.097761e+01
1.439060e+02	-2.102879e+01
1.447372e+02	-2.107846e+01
1.455732e+02	-2.112734e+01
1.464141e+02	-2.117879e+01
1.472597e+02	-2.122788e+01
1.481103e+02	-2.127782e+01
1.489658e+02	-2.132666e+01
1.498262e+02	-2.137704e+01
1.506916e+02	-2.142704e+01
1.515620e+02	-2.147569e+01
1.524374e+02	-2.152495e+01
1.533179e+02	-2.157641e+01
1.542034e+02	-2.162469e+01
1.550941e+02	-2.167365e+01
1.559899e+02	-2.172375e+01
1.568909e+02	-2.177277e+01
1.577971e+02	-2.182523e+01
1.587085e+02	-2.187241e+01
1.596252e+02	-2.192224e+01
1.605472e+02	-2.197340e+01
1.614745e+02	-2.202360e+01
1.624072e+02	-2.207265e+01
1.633453e+02	-2.212179e+01
1.642887e+02	-2.217074e+01
1.652377e+02	-2.222176e+01
1.661921e+02	-2.227319e+01
1.671520e+02	-2.231987e+01
1.681175e+02	-2.237005e+01
1.690885e+02	-2.242042e+01
1.700651e+02	-2.246804e+01
1.710474e+02	-2.251792e+01
1.720354e+02	-2.257079e+01
1.730291e+02	-2.262136e+01
1.740285e+02	-2.266876e+01
1.750337e+02	-2.271921e+01
1.760446e+02	-2.276985e+01
1.770615e+02	-2.281868e+01
1.780842e+02	-2.286752e+01
1.791128e+02	-2.291903e+01
1.801473e+02	-2.296734e+01
1.811878e+02	-2.301744e+01
1.822344e+02	-2.306675e+01
1.832870e+02	-2.311884e+01
1.843456e+02	-2.316673e+01
1.854104e+02	-2.321563e+01
1.864813e+02	-2.327038e+01
1.875584e+02	-2.331672e+01
1.886418e+02	-2.336817e+01
1.897313e+02	-2.341818e+01
1.908272e+02	-2.346550e+01
1.919294e+02	-2.351644e+01
1.930380e+02	-2.356525e+01
1.941530e+02	-2.361801e+01
1.952744e+02	-2.366276e+01
1.964023e+02	-2.371555e+01
1.975367e+02	-2.376289e+01
1.986777e+02	-2.381553e+01
1.998252e+02	-2.386473e+01
2.009794e+02	-2.391536e+01
2.021403e+02	-2.396396e+01
2.033078e+02	-2.401684e+01
2.044821e+02	-2.406562e+01
2.056632e+02	-2.411471e+01
2.068511e+02	-2.416569e+01
2.080459e+02	-2.421120e+01
2.092475e+02	-2.426311e+01
2.104561e+02	-2.431317e+01
2.116717e+02	-2.436241e+01
2.128943e+02	-2.441202e+01
2.141240e+02	-2.446262e+01
2.153608e+02	-2.451511e+01
2.166047e+02	-2.456349e+01
2.178558e+02	-2.461588e+01
2.191141e+02	-2.466493e+01
2.203797e+02	-2.471151e+01
2.216526e+02	-2.476179e+01
2.229329e+02	-2.481154e+01
2.242205e+02	-2.486032e+01
2.255156e+02	-2.490939e+01
2.268182e+02	-2.496159e+01
2.281283e+02	-2.501055e+01
2.294459e+02	-2.506157e+01
2.307712e+02	-2.511136e+01
2.321041e+02	-2.516266e+01
2.334447e+02	-2.521280e+01
2.347931e+02	-2.526028e+01
2.361493e+02	-2.531091e+01
2.375133e+02	-2.536083e+01
2.388851e+02	-2.541015e+01
2.402649e+02	-2.546404e+01
2.416527e+02	-2.551141e+01
2.430484e+02	-2.556129e+01
2.444523e+02	-2.560881e+01
2.458642e+02	-2.566271e+01
2.472843e+02	-2.570866e+01
2.487126e+02	-2.576279e+01
2.501492e+02	-2.580974e+01
2.515940e+02	-2.585974e+01
2.530472e+02	-2.590988e+01
2.545088e+02	-2.596136e+01
2.559789e+02	-2.600960e+01
2.574574e+02	-2.606088e+01
2.589444e+02	-2.611269e+01
2.604401e+02	-2.616341e+01
2.619444e+02	-2.621089e+01
2.634574e+02	-2.626387e+01
2.649791e+02	-2.631043e+01
2.665096e+02	-2.636272e+01
2.680489e+02	-2.641246e+01
2.695972e+02	-2.646214e+01
2.711544e+02	-2.651273e+01
2.727205e+02	-2.656265e+01
2.742958e+02	-2.661054e+01
2.758801e+02	-2.666113e+01
2.774736e+02	-2.671194e+01
2.790762e+02	-2.675804e+01
2.806882e+02	-2.680733e+01
2.823094e+02	-2.685973e+01
2.839400e+02	-2.690852e+01
2.855800e+02	-2.695990e+01
2.872295e+02	-2.701078e+01
2.888886e+02	-2.706082e+01
2.905572e+02	-2.710813e+01
2.922354e+02	-2.716467e+01
2.939234e+02	-2.720825e+01
2.956211e+02	-2.726224e+01
2.973286e+02	-2.730889e+01
2.990459e+02	-2.735864e+01
3.007732e+02	-2.740952e+01
3.025104e+02	-2.746260e+01
3.042577e+02	-2.750989e+01
3.060151e+02	-2.756340e+01
3.077826e+02	-2.761069e+01
3.095604e+02	-2.766186e+01
3.113484e+02	-2.771197e+01
3.131467e+02	-2.776032e+01
3.149554e+02	-2.780903e+01
3.167746e+02	-2.786000e+01
3.186043e+02	-2.790844e+01
3.204445e+02	-2.796362e+01
3.222954e+02	-2.801111e+01
3.241570e+02	-2.806145e+01
3.260293e+02	-2.811340e+01
3.279124e+02	-2.815843e+01
3.298064e+02	-2.820969e+01
3.317114e+02	-2.826638e+01
3.336273e+02	-2.830898e+01
3.355544e+02	-2.836033e+01
3.374925e+02	-2.841009e+01
3.394418e+02	-2.845919e+01
3.414024e+02	-2.851093e+01
3.433744e+02	-2.856254e+01
3.453577e+02	-2.861064e+01
3.473525e+02	-2.866318e+01
3.493588e+02	-2.870977e+01
3.513766e+02	-2.875997e+01
3.534062e+02	-2.880980e+01
3.554474e+02	-2.886036e+01
3.575005e+02	-2.891113e+01
3.595654e+02	-2.896200e+01
3.616422e+02	-2.901355e+01
3.637311e+02	-2.906562e+01
3.658320e+02	-2.911340e+01
3.679450e+02	-2.916654e+01
3.700702e+02	-2.921022e+01
3.722077e+02	-2.926117e+01
3.743576e+02	-2.931484e+01
3.765199e+02	-2.936147e+01
3.786946e+02	-2.941095e+01
3.808820e+02	-2.946624e+01
3.830819e+02	-2.951678e+01
3.852946e+02	-2.956645e+01
3.875200e+02	-2.961668e+01
3.897583e+02	-2.965893e+01
3.920096e+02	-2.971592e+01
3.942738e+02	-2.976093e+01
3.965511e+02	-2.981046e+01
3.988416e+02	-2.985614e+01
4.011452e+02	-2.990931e+01
4.034622e+02	-2.996521e+01
4.057926e+02	-3.001561e+01
4.081365e+02	-3.006730e+01
4.104938e+02	-3.011205e+01
4.128648e+02	-3.016978e+01
4.152495e+02	-3.021610e+01
4.176480e+02	-3.026487e+01
4.200603e+02	-3.031202e+01
4.224866e+02	-3.036182e+01
4.249268e+02	-3.041639e+01
4.273812e+02	-3.046885e+01
4.298497e+02	-3.051497e+01
4.323325e+02	-3.056397e+01
4.348297e+02	-3.061547e+01
4.373412e+02	-3.066804e+01
4.398673e+02	-3.071600e+01
4.424079e+02	-3.076757e+01
4.449633e+02	-3.081588e+01
4.475334e+02	-3.086400e+01
4.501183e+02	-3.091535e+01
4.527182e+02	-3.096745e+01
4.553330e+02	-3.101742e+01
4.579630e+02	-3.106349e+01
4.606082e+02	-3.111406e+01
4.632687e+02	-3.116813e+01
4.659445e+02	-3.121784e+01
4.686358e+02	-3.126480e+01
4.713426e+02	-3.131985e+01
4.740650e+02	-3.136683e+01
4.768032e+02	-3.141894e+01
4.795572e+02	-3.146409e+01
4.823271e+02	-3.151942e+01
4.851130e+02	-3.156950e+01
4.879150e+02	-3.161959e+01
4.907332e+02	-3.167058e+01
4.935676e+02	-3.171517e+01
4.964185e+02	-3.176425e+01
4.992858e+02	-3.182159e+01
5.021696e+02	-3.186724e+01
5.050701e+02	-3.192185e+01
5.079874e+02	-3.196396e+01
5.109215e+02	-3.201629e+01
5.138726e+02	-3.206940e+01
5.168407e+02	-3.211896e+01
5.198259e+02	-3.217361e+01
5.228284e+02	-3.222202e+01
5.258482e+02	-3.226947e+01
5.288855e+02	-3.232157e+01
5.319403e+02	-3.237003e+01
5.350128e+02	-3.242040e+01
5.381030e+02	-3.246845e+01
5.412111e+02	-3.252223e+01
5.443371e+02	-3.256593e+01
5.474812e+02	-3.262126e+01
5.506434e+02	-3.267114e+01
5.538239e+02	-3.272232e+01
5.570228e+02	-3.277133e+01
5.602401e+02	-3.282714e+01
5.634760e+02	-3.287383e+01
5.667306e+02	-3.292790e+01
5.700040e+02	-3.297252e+01
5.732964e+02	-3.302490e+01
5.766077e+02	-3.307465e+01
5.799382e+02	-3.312073e+01
5.832879e+02	-3.317342e+01
5.866569e+02	-3.321817e+01
5.900454e+02	-3.327796e+01
5.934535e+02	-3.332544e+01
5.968813e+02	-3.337534e+01
6.003288e+02	-3.343587e+01
6.037963e+02	-3.347377e+01
6.072838e+02	-3.352354e+01
6.107914e+02	-3.358274e+01
6.143194e+02	-3.362395e+01
6.178676e+02	-3.368011e+01
6.214364e+02	-3.372596e+01
6.250258e+02	-3.378201e+01
6.286359e+02	-3.382568e+01
6.322669e+02	-3.387423e+01
6.359189e+02	-3.393215e+01
6.395919e+02	-3.397238e+01
6.432862e+02	-3.403275e+01
6.470017e+02	-3.408277e+01
6.507388e+02	-3.412783e+01
6.544974e+02	-3.417953e+01
6.582778e+02	-3.422631e+01
6.620800e+02	-3.427902e+01
6.659041e+02	-3.432945e+01
6.697504e+02	-3.438163e+01
6.736188e+02	-3.443139e+01
6.775096e+02	-3.448368e+01
6.814229e+02	-3.453437e+01
6.853587e+02	-3.458531e+01
6.893173e+02	-3.463238e+01
6.932988e+02	-3.468450e+01
6.973033e+02	-3.473315e+01
7.013309e+02	-3.478635e+01
