Frequency(Hz)	Magnitude(dB)
1.000000e+01	-2.085153e+00
1.005776e+01	-2.104609e+00
1.011585e+01	-2.123673e+00
1.017428e+01	-2.142962e+00
1.023305e+01	-2.162770e+00
1.029215e+01	-2.182411e+00
1.035160e+01	-2.202154e+00
1.041139e+01	-2.222049e+00
1.047153e+01	-2.242343e+00
1.053201e+01	-2.262581e+00
1.059284e+01	-2.283023e+00
1.065403e+01	-2.303303e+00
1.071556e+01	-2.324025e+00
1.077746e+01	-2.344943e+00
1.083971e+01	-2.365677e+00
1.090232e+01	-2.386768e+00
1.096529e+01	-2.407932e+00
1.102862e+01	-2.429398e+00
1.109232e+01	-2.451042e+00
1.115639e+01	-2.472649e+00
1.122083e+01	-2.494582e+00
1.128564e+01	-2.516283e+00
1.135083e+01	-2.538379e+00
1.141639e+01	-2.560624e+00
1.148233e+01	-2.582934e+00
1.154865e+01	-2.605443e+00
1.161536e+01	-2.628144e+00
1.168245e+01	-2.651030e+00
1.174992e+01	-2.673832e+00
1.181779e+01	-2.696975e+00
1.188605e+01	-2.720013e+00
1.195470e+01	-2.743506e+00
1.202375e+01	-2.767075e+00
1.209320e+01	-2.790531e+00
1.216305e+01	-2.814525e+00
1.223330e+01	-2.838472e+00
1.230396e+01	-2.862478e+00
1.237503e+01	-2.886540e+00
1.244651e+01	-2.911040e+00
1.251840e+01	-2.935570e+00
1.259070e+01	-2.960166e+00
1.266343e+01	-2.985022e+00
1.273657e+01	-3.009912e+00
1.281014e+01	-3.035112e+00
1.288413e+01	-3.060442e+00
1.295855e+01	-3.085315e+00
1.303339e+01	-3.111025e+00
1.310867e+01	-3.136993e+00
1.318439e+01	-3.162436e+00
1.326054e+01	-3.188384e+00
1.333713e+01	-3.214633e+00
1.341417e+01	-3.240683e+00
1.349165e+01	-3.267101e+00
1.356958e+01	-3.293597e+00
1.364795e+01	-3.320406e+00
1.372678e+01	-3.347013e+00
1.380607e+01	-3.374135e+00
1.388581e+01	-3.401163e+00
1.396602e+01	-3.428519e+00
1.404668e+01	-3.455867e+00
1.412782e+01	-3.483307e+00
1.420942e+01	-3.511104e+00
1.429149e+01	-3.538801e+00
1.437404e+01	-3.566721e+00
1.445706e+01	-3.594773e+00
1.454057e+01	-3.623041e+00
1.462455e+01	-3.651153e+00
1.470902e+01	-3.680149e+00
1.479398e+01	-3.708803e+00
1.487943e+01	-3.737397e+00
1.496537e+01	-3.766560e+00
1.505181e+01	-3.795611e+00
1.513875e+01	-3.824720e+00
1.522619e+01	-3.853847e+00
1.531414e+01	-3.883465e+00
1.540259e+01	-3.913010e+00
1.549156e+01	-3.942790e+00
1.558103e+01	-3.972899e+00
1.567103e+01	-4.003080e+00
1.576155e+01	-4.033200e+00
1.585258e+01	-4.063355e+00
1.594415e+01	-4.093794e+00
1.603624e+01	-4.124372e+00
1.612886e+01	-4.155309e+00
1.622202e+01	-4.185787e+00
1.631572e+01	-4.217340e+00
1.640996e+01	-4.248313e+00
1.650474e+01	-4.279489e+00
1.660008e+01	-4.310964e+00
1.669596e+01	-4.342455e+00
1.679239e+01	-4.374054e+00
1.688938e+01	-4.406106e+00
1.698694e+01	-4.438105e+00
1.708505e+01	-4.470188e+00
1.718373e+01	-4.502339e+00
1.728299e+01	-4.534721e+00
1.738281e+01	-4.567122e+00
1.748322e+01	-4.599591e+00
1.758420e+01	-4.632735e+00
1.768576e+01	-4.665282e+00
1.778792e+01	-4.698432e+00
1.789066e+01	-4.731491e+00
1.799399e+01	-4.764419e+00
1.809793e+01	-4.797993e+00
1.820246e+01	-4.831626e+00
1.830760e+01	-4.865341e+00
1.841334e+01	-4.899129e+00
1.851969e+01	-4.932922e+00
1.862666e+01	-4.967102e+00
1.873425e+01	-5.001254e+00
1.884246e+01	-5.035555e+00
1.895129e+01	-5.069709e+00
1.906075e+01	-5.104554e+00
1.917085e+01	-5.138817e+00
1.928158e+01	-5.173730e+00
1.939295e+01	-5.208959e+00
1.950496e+01	-5.243674e+00
1.961762e+01	-5.278771e+00
1.973093e+01	-5.314129e+00
1.984490e+01	-5.349290e+00
1.995952e+01	-5.384874e+00
2.007480e+01	-5.420175e+00
2.019076e+01	-5.456233e+00
2.030738e+01	-5.492162e+00
2.042467e+01	-5.527854e+00
2.054264e+01	-5.564181e+00
2.066130e+01	-5.600203e+00
2.078064e+01	-5.636900e+00
2.090066e+01	-5.673310e+00
2.102139e+01	-5.709478e+00
2.114280e+01	-5.746256e+00
2.126492e+01	-5.782809e+00
2.138775e+01	-5.819773e+00
2.151128e+01	-5.856996e+00
2.163553e+01	-5.893778e+00
2.176050e+01	-5.930933e+00
2.188619e+01	-5.968175e+00
2.201260e+01	-6.005851e+00
2.213974e+01	-6.043400e+00
2.226762e+01	-6.080861e+00
2.239624e+01	-6.118957e+00
2.252560e+01	-6.156731e+00
2.265571e+01	-6.194512e+00
2.278656e+01	-6.232817e+00
2.291818e+01	-6.270763e+00
2.305055e+01	-6.309196e+00
2.318369e+01	-6.347384e+00
2.331760e+01	-6.385822e+00
2.345228e+01	-6.424375e+00
2.358774e+01	-6.463267e+00
2.372398e+01	-6.502024e+00
2.386101e+01	-6.540655e+00
2.399883e+01	-6.579698e+00
2.413745e+01	-6.618933e+00
2.427686e+01	-6.658173e+00
2.441709e+01	-6.697642e+00
2.455812e+01	-6.736634e+00
2.469997e+01	-6.776197e+00
2.484263e+01	-6.815836e+00
2.498612e+01	-6.855227e+00
2.513044e+01	-6.895286e+00
2.527559e+01	-6.934776e+00
2.542158e+01	-6.974922e+00
2.556842e+01	-7.015545e+00
2.571610e+01	-7.055203e+00
2.586463e+01	-7.095612e+00
2.601403e+01	-7.135922e+00
2.616428e+01	-7.175791e+00
2.631541e+01	-7.216735e+00
2.646740e+01	-7.257137e+00
2.662028e+01	-7.297512e+00
2.677404e+01	-7.338779e+00
2.692868e+01	-7.379652e+00
2.708422e+01	-7.420442e+00
2.724066e+01	-7.461187e+00
2.739800e+01	-7.502259e+00
2.755625e+01	-7.543421e+00
2.771541e+01	-7.584269e+00
2.787550e+01	-7.626299e+00
2.803650e+01	-7.667875e+00
2.819844e+01	-7.709031e+00
2.836131e+01	-7.750741e+00
2.852513e+01	-7.792252e+00
2.868989e+01	-7.834204e+00
2.885560e+01	-7.875929e+00
2.902227e+01	-7.917615e+00
2.918990e+01	-7.959709e+00
2.935850e+01	-8.001468e+00
2.952807e+01	-8.043829e+00
2.969863e+01	-8.086218e+00
2.987016e+01	-8.128482e+00
3.004269e+01	-8.171127e+00
3.021622e+01	-8.213157e+00
3.039075e+01	-8.255993e+00
3.056628e+01	-8.298521e+00
3.074283e+01	-8.341372e+00
3.092040e+01	-8.384005e+00
3.109900e+01	-8.426715e+00
3.127862e+01	-8.469359e+00
3.145929e+01	-8.512656e+00
3.164099e+01	-8.555139e+00
3.182375e+01	-8.598462e+00
3.200756e+01	-8.641937e+00
3.219244e+01	-8.684794e+00
3.237838e+01	-8.728203e+00
3.256540e+01	-8.771774e+00
3.275349e+01	-8.814756e+00
3.294268e+01	-8.858331e+00
3.313295e+01	-8.901915e+00
3.332433e+01	-8.945616e+00
3.351681e+01	-8.989089e+00
3.371040e+01	-9.033107e+00
3.390511e+01	-9.076384e+00
3.410094e+01	-9.120780e+00
3.429791e+01	-9.165289e+00
3.449601e+01	-9.208494e+00
3.469526e+01	-9.252844e+00
3.489566e+01	-9.296331e+00
3.509721e+01	-9.340824e+00
3.529993e+01	-9.385032e+00
3.550382e+01	-9.429528e+00
3.570889e+01	-9.473867e+00
3.591515e+01	-9.518310e+00
3.612259e+01	-9.562839e+00
3.633123e+01	-9.607261e+00
3.654108e+01	-9.651951e+00
3.675214e+01	-9.696386e+00
3.696442e+01	-9.741115e+00
3.717792e+01	-9.786178e+00
3.739266e+01	-9.830984e+00
3.760864e+01	-9.875809e+00
3.782587e+01	-9.920321e+00
3.804435e+01	-9.965602e+00
3.826409e+01	-1.001001e+01
3.848510e+01	-1.005525e+01
3.870739e+01	-1.010102e+01
3.893096e+01	-1.014580e+01
3.915583e+01	-1.019026e+01
3.938199e+01	-1.023562e+01
3.960946e+01	-1.028128e+01
3.983824e+01	-1.032641e+01
4.006834e+01	-1.037237e+01
4.029978e+01	-1.041729e+01
4.053255e+01	-1.046338e+01
4.076666e+01	-1.050903e+01
4.100213e+01	-1.055428e+01
4.123896e+01	-1.060030e+01
4.147715e+01	-1.064556e+01
4.171672e+01	-1.069105e+01
4.195767e+01	-1.073709e+01
4.220002e+01	-1.078272e+01
4.244377e+01	-1.082936e+01
4.268892e+01	-1.087519e+01
4.293549e+01	-1.092079e+01
4.318348e+01	-1.096708e+01
4.343291e+01	-1.101234e+01
4.368377e+01	-1.105919e+01
4.393609e+01	-1.110515e+01
4.418986e+01	-1.115159e+01
4.444510e+01	-1.119734e+01
4.470182e+01	-1.124338e+01
4.496001e+01	-1.129020e+01
4.521970e+01	-1.133683e+01
4.548089e+01	-1.138210e+01
4.574358e+01	-1.142931e+01
4.600779e+01	-1.147560e+01
4.627353e+01	-1.152209e+01
4.654081e+01	-1.156881e+01
4.680963e+01	-1.161517e+01
4.708000e+01	-1.166145e+01
4.735193e+01	-1.170809e+01
4.762543e+01	-1.175496e+01
4.790051e+01	-1.180191e+01
4.817719e+01	-1.184908e+01
4.845545e+01	-1.189481e+01
4.873533e+01	-1.194196e+01
4.901682e+01	-1.198988e+01
4.929994e+01	-1.203558e+01
4.958470e+01	-1.208305e+01
4.987110e+01	-1.212932e+01
5.015915e+01	-1.217684e+01
5.044887e+01	-1.222371e+01
5.074026e+01	-1.227111e+01
5.103333e+01	-1.231790e+01
5.132810e+01	-1.236450e+01
5.162457e+01	-1.241231e+01
5.192275e+01	-1.245870e+01
5.222265e+01	-1.250727e+01
5.252429e+01	-1.255330e+01
5.282767e+01	-1.260109e+01
5.313280e+01	-1.264870e+01
5.343969e+01	-1.269561e+01
5.374836e+01	-1.274301e+01
5.405880e+01	-1.279013e+01
5.437105e+01	-1.283896e+01
5.468509e+01	-1.288481e+01
5.500095e+01	-1.293281e+01
5.531863e+01	-1.298003e+01
5.563815e+01	-1.302777e+01
5.595951e+01	-1.307522e+01
5.628273e+01	-1.312184e+01
5.660782e+01	-1.317068e+01
5.693479e+01	-1.321797e+01
5.726364e+01	-1.326559e+01
5.759439e+01	-1.331387e+01
5.792705e+01	-1.336127e+01
5.826164e+01	-1.340881e+01
5.859815e+01	-1.345654e+01
5.893662e+01	-1.350422e+01
5.927703e+01	-1.355201e+01
5.961941e+01	-1.360028e+01
5.996377e+01	-1.364821e+01
6.031012e+01	-1.369549e+01
6.065847e+01	-1.374295e+01
6.100883e+01	-1.379172e+01
6.136121e+01	-1.383940e+01
6.171563e+01	-1.388785e+01
6.207210e+01	-1.393577e+01
6.243063e+01	-1.398420e+01
6.279122e+01	-1.403133e+01
6.315390e+01	-1.407882e+01
6.351868e+01	-1.412704e+01
6.388556e+01	-1.417585e+01
6.425456e+01	-1.422429e+01
6.462569e+01	-1.427221e+01
6.499897e+01	-1.432053e+01
6.537440e+01	-1.436864e+01
6.575200e+01	-1.441728e+01
6.613178e+01	-1.446482e+01
6.651375e+01	-1.451349e+01
6.689793e+01	-1.456083e+01
6.728433e+01	-1.460934e+01
6.767297e+01	-1.465881e+01
6.806384e+01	-1.470535e+01
6.845698e+01	-1.475513e+01
6.885238e+01	-1.480253e+01
6.925007e+01	-1.485228e+01
6.965005e+01	-1.489994e+01
7.005235e+01	-1.494828e+01
7.045697e+01	-1.499683e+01
7.086393e+01	-1.504434e+01
7.127323e+01	-1.509374e+01
7.168490e+01	-1.514264e+01
7.209895e+01	-1.519036e+01
7.251539e+01	-1.523832e+01
7.293424e+01	-1.528812e+01
7.335551e+01	-1.533641e+01
7.377920e+01	-1.538495e+01
7.420535e+01	-1.543352e+01
7.463396e+01	-1.548232e+01
7.506504e+01	-1.553105e+01
7.549861e+01	-1.557826e+01
7.593469e+01	-1.562796e+01
7.637328e+01	-1.567704e+01
7.681441e+01	-1.572531e+01
7.725809e+01	-1.577393e+01
7.770433e+01	-1.582223e+01
7.815315e+01	-1.587201e+01
7.860456e+01	-1.592085e+01
7.905857e+01	-1.596860e+01
7.951521e+01	-1.601673e+01
7.997449e+01	-1.606755e+01
8.043642e+01	-1.611593e+01
8.090102e+01	-1.616336e+01
8.136830e+01	-1.621249e+01
8.183828e+01	-1.626193e+01
8.231097e+01	-1.631064e+01
8.278640e+01	-1.635974e+01
8.326457e+01	-1.640872e+01
8.374550e+01	-1.645715e+01
8.422921e+01	-1.650608e+01
8.471572e+01	-1.655502e+01
8.520503e+01	-1.660380e+01
8.569717e+01	-1.665264e+01
8.619215e+01	-1.670098e+01
8.669000e+01	-1.675108e+01
8.719071e+01	-1.680057e+01
8.769432e+01	-1.684802e+01
8.820084e+01	-1.689720e+01
8.871029e+01	-1.694713e+01
8.922267e+01	-1.699641e+01
8.973802e+01	-1.704499e+01
9.025634e+01	-1.709397e+01
9.077766e+01	-1.714335e+01
9.130199e+01	-1.719165e+01
9.182935e+01	-1.724109e+01
9.235975e+01	-1.729071e+01
9.289321e+01	-1.733856e+01
9.342976e+01	-1.738793e+01
9.396941e+01	-1.743845e+01
9.451217e+01	-1.748675e+01
9.505807e+01	-1.753605e+01
9.560712e+01	-1.758496e+01
9.615934e+01	-1.763391e+01
9.671476e+01	-1.768397e+01
9.727338e+01	-1.773320e+01
9.783522e+01	-1.778231e+01
9.840032e+01	-1.783057e+01
9.896867e+01	-1.788109e+01
9.954031e+01	-1.792823e+01
1.001153e+02	-1.797913e+01
1.006935e+02	-1.802859e+01
1.012751e+02	-1.807797e+01
1.018601e+02	-1.812671e+01
1.024484e+02	-1.817531e+01
1.030402e+02	-1.822437e+01
1.036353e+02	-1.827459e+01
1.042339e+02	-1.832301e+01
1.048360e+02	-1.837198e+01
1.054415e+02	-1.842314e+01
1.060505e+02	-1.846991e+01
1.066631e+02	-1.852040e+01
1.072791e+02	-1.857044e+01
1.078988e+02	-1.861981e+01
1.085220e+02	-1.866851e+01
1.091488e+02	-1.871827e+01
1.097793e+02	-1.876651e+01
1.104133e+02	-1.881628e+01
1.110511e+02	-1.886567e+01
1.116925e+02	-1.891559e+01
1.123376e+02	-1.896519e+01
1.129865e+02	-1.901414e+01
1.136391e+02	-1.906297e+01
1.142955e+02	-1.911317e+01
1.149556e+02	-1.916286e+01
1.156196e+02	-1.921214e+01
1.162874e+02	-1.926062e+01
1.169591e+02	-1.931148e+01
1.176347e+02	-1.936144e+01
1.183141e+02	-1.941033e+01
1.189975e+02	-1.946051e+01
1.196848e+02	-1.950905e+01
1.203761e+02	-1.955798e+01
1.210714e+02	-1.960636e+01
1.217707e+02	-1.965617e+01
1.224740e+02	-1.970650e+01
1.231814e+02	-1.975783e+01
1.238929e+02	-1.980651e+01
1.246085e+02	-1.985310e+01
1.253283e+02	-1.990508e+01
1.260522e+02	-1.995407e+01
1.267802e+02	-2.000435e+01
1.275125e+02	-2.005342e+01
1.282490e+02	-2.010295e+01
1.289898e+02	-2.015259e+01
1.297348e+02	-2.020261e+01
1.304842e+02	-2.025140e+01
1.312378e+02	-2.030101e+01
1.319959e+02	-2.035000e+01
1.327583e+02	-2.040044e+01
1.335251e+02	-2.045022e+01
1.342963e+02	-2.049903e+01
1.350720e+02	-2.054971e+01
1.358522e+02	-2.059882e+01
1.366368e+02	-2.064788e+01
1.374260e+02	-2.069952e+01
1.382198e+02	-2.074835e+01
1.390182e+02	-2.079717e+01
1.398211e+02	-2.084570e+01
1.406287e+02	-2.089747e+01
1.414410e+02	-2.094572e+01
1.422579e+02	-2.099474e+01
1.430796e+02	-2.104560e+01
1.439060e+02	-2.109468e+01
1.447372e+02	-2.114492e+01
1.455732e+02	-2.119444e+01
1.464141e+02	-2.124384e+01
1.472597e+02	-2.129447e+01
1.481103e+02	-2.134427e+01
1.489658e+02	-2.139327e+01
1.498262e+02	-2.144370e+01
1.506916e+02	-2.149147e+01
1.515620e+02	-2.154466e+01
1.524374e+02	-2.159484e+01
1.533179e+02	-2.164033e+01
1.542034e+02	-2.169207e+01
1.550941e+02	-2.174079e+01
1.559899e+02	-2.178951e+01
1.568909e+02	-2.183969e+01
1.577971e+02	-2.189095e+01
1.587085e+02	-2.194094e+01
1.596252e+02	-2.198843e+01
1.605472e+02	-2.203869e+01
1.614745e+02	-2.208767e+01
1.624072e+02	-2.213908e+01
1.633453e+02	-2.219083e+01
1.642887e+02	-2.224020e+01
1.652377e+02	-2.228743e+01
1.661921e+02	-2.233705e+01
1.671520e+02	-2.238718e+01
1.681175e+02	-2.243770e+01
1.690885e+02	-2.248896e+01
1.700651e+02	-2.253535e+01
1.710474e+02	-2.258629e+01
1.720354e+02	-2.263595e+01
1.730291e+02	-2.268850e+01
1.740285e+02	-2.273637e+01
1.750337e+02	-2.278512e+01
1.760446e+02	-2.283660e+01
1.770615e+02	-2.288662e+01
1.780842e+02	-2.293448e+01
1.791128e+02	-2.298674e+01
1.801473e+02	-2.303395e+01
1.811878e+02	-2.308361e+01
1.822344e+02	-2.313473e+01
1.832870e+02	-2.318261e+01
1.843456e+02	-2.323465e+01
1.854104e+02	-2.328518e+01
1.864813e+02	-2.333631e+01
1.875584e+02	-2.338383e+01
1.886418e+02	-2.343463e+01
1.897313e+02	-2.348420e+01
1.908272e+02	-2.353343e+01
1.919294e+02	-2.358432e+01
1.930380e+02	-2.363405e+01
1.941530e+02	-2.368276e+01
1.952744e+02	-2.373258e+01
1.964023e+02	-2.378293e+01
1.975367e+02	-2.383037e+01
1.986777e+02	-2.388140e+01
1.998252e+02	-2.393192e+01
2.009794e+02	-2.398473e+01
2.021403e+02	-2.403114e+01
2.033078e+02	-2.408173e+01
2.044821e+02	-2.413171e+01
2.056632e+02	-2.417991e+01
2.068511e+02	-2.422988e+01
2.080459e+02	-2.428338e+01
2.092475e+02	-2.432906e+01
2.104561e+02	-2.438153e+01
2.116717e+02	-2.443048e+01
2.128943e+02	-2.447997e+01
2.141240e+02	-2.453087e+01
2.153608e+02	-2.457835e+01
2.166047e+02	-2.462990e+01
2.178558e+02	-2.467933e+01
2.191141e+02	-2.473063e+01
2.203797e+02	-2.477610e+01
2.216526e+02	-2.482803e+01
2.229329e+02	-2.487948e+01
2.242205e+02	-2.493100e+01
2.255156e+02	-2.497828e+01
2.268182e+02	-2.502763e+01
2.281283e+02	-2.507894e+01
2.294459e+02	-2.512892e+01
2.307712e+02	-2.517768e+01
2.321041e+02	-2.522892e+01
2.334447e+02	-2.527816e+01
2.347931e+02	-2.532534e+01
2.361493e+02	-2.537736e+01
2.375133e+02	-2.542724e+01
2.388851e+02	-2.547704e+01
2.402649e+02	-2.552659e+01
2.416527e+02	-2.557994e+01
2.430484e+02	-2.562945e+01
2.444523e+02	-2.568053e+01
2.458642e+02	-2.573084e+01
2.472843e+02	-2.577787e+01
2.487126e+02	-2.582962e+01
2.501492e+02	-2.587843e+01
2.515940e+02	-2.592687e+01
2.530472e+02	-2.597803e+01
2.545088e+02	-2.602595e+01
2.559789e+02	-2.607502e+01
2.574574e+02	-2.612741e+01
2.589444e+02	-2.617772e+01
2.604401e+02	-2.623032e+01
2.619444e+02	-2.627855e+01
2.634574e+02	-2.632443e+01
2.649791e+02	-2.637947e+01
2.665096e+02	-2.642757e+01
2.680489e+02	-2.647678e+01
2.695972e+02	-2.652758e+01
2.711544e+02	-2.657814e+01
2.727205e+02	-2.662790e+01
2.742958e+02	-2.667653e+01
2.758801e+02	-2.672679e+01
2.774736e+02	-2.677536e+01
2.790762e+02	-2.682561e+01
2.806882e+02	-2.687805e+01
2.823094e+02	-2.692558e+01
2.839400e+02	-2.697772e+01
2.855800e+02	-2.703007e+01
2.872295e+02	-2.707717e+01
2.888886e+02	-2.712411e+01
2.905572e+02	-2.717571e+01
2.922354e+02	-2.722621e+01
2.939234e+02	-2.727798e+01
2.956211e+02	-2.732621e+01
2.973286e+02	-2.737572e+01
2.990459e+02	-2.742814e+01
3.007732e+02	-2.747893e+01
3.025104e+02	-2.752787e+01
3.042577e+02	-2.757842e+01
3.060151e+02	-2.762636e+01
3.077826e+02	-2.767934e+01
3.095604e+02	-2.772671e+01
3.113484e+02	-2.777748e+01
3.131467e+02	-2.782504e+01
3.149554e+02	-2.787741e+01
3.167746e+02	-2.792755e+01
3.186043e+02	-2.798133e+01
3.204445e+02	-2.802965e+01
3.222954e+02	-2.807505e+01
3.241570e+02	-2.812469e+01
3.260293e+02	-2.817798e+01
3.279124e+02	-2.822945e+01
3.298064e+02	-2.827961e+01
3.317114e+02	-2.833378e+01
3.336273e+02	-2.837597e+01
3.355544e+02	-2.842933e+01
3.374925e+02	-2.847870e+01
3.394418e+02	-2.852715e+01
3.414024e+02	-2.857725e+01
3.433744e+02	-2.862278e+01
3.453577e+02	-2.867580e+01
3.473525e+02	-2.872985e+01
3.493588e+02	-2.877783e+01
3.513766e+02	-2.882589e+01
3.534062e+02	-2.887558e+01
3.554474e+02	-2.892856e+01
3.575005e+02	-2.897758e+01
3.595654e+02	-2.902760e+01
3.616422e+02	-2.907884e+01
3.637311e+02	-2.912755e+01
3.658320e+02	-2.917615e+01
3.679450e+02	-2.922817e+01
3.700702e+02	-2.927774e+01
3.722077e+02	-2.932957e+01
3.743576e+02	-2.937830e+01
3.765199e+02	-2.942748e+01
3.786946e+02	-2.947696e+01
3.808820e+02	-2.953166e+01
3.830819e+02	-2.958169e+01
3.852946e+02	-2.962913e+01
3.875200e+02	-2.968282e+01
3.897583e+02	-2.973029e+01
3.920096e+02	-2.977913e+01
3.942738e+02	-2.983389e+01
3.965511e+02	-2.987818e+01
3.988416e+02	-2.992914e+01
4.011452e+02	-2.998185e+01
4.034622e+02	-3.002909e+01
4.057926e+02	-3.008097e+01
4.081365e+02	-3.013423e+01
4.104938e+02	-3.017998e+01
4.128648e+02	-3.023242e+01
4.152495e+02	-3.028299e+01
4.176480e+02	-3.033266e+01
4.200603e+02	-3.038111e+01
4.224866e+02	-3.043412e+01
4.249268e+02	-3.047881e+01
4.273812e+02	-3.052812e+01
4.298497e+02	-3.058148e+01
4.323325e+02	-3.062918e+01
4.348297e+02	-3.068312e+01
4.373412e+02	-3.073792e+01
4.398673e+02	-3.078423e+01
4.424079e+02	-3.082949e+01
4.449633e+02	-3.088027e+01
4.475334e+02	-3.093842e+01
4.501183e+02	-3.098127e+01
4.527182e+02	-3.103130e+01
4.553330e+02	-3.108977e+01
4.579630e+02	-3.113221e+01
4.606082e+02	-3.118343e+01
4.632687e+02	-3.123722e+01
4.659445e+02	-3.128646e+01
4.686358e+02	-3.133279e+01
4.713426e+02	-3.138352e+01
4.740650e+02	-3.143419e+01
4.768032e+02	-3.148066e+01
4.795572e+02	-3.153150e+01
4.823271e+02	-3.158024e+01
4.851130e+02	-3.163886e+01
4.879150e+02	-3.169335e+01
4.907332e+02	-3.173677e+01
4.935676e+02	-3.178832e+01
4.964185e+02	-3.183526e+01
4.992858e+02	-3.188271e+01
5.021696e+02	-3.193809e+01
5.050701e+02	-3.198403e+01
5.079874e+02	-3.204025e+01
5.109215e+02	-3.208780e+01
5.138726e+02	-3.214109e+01
5.168407e+02	-3.218918e+01
5.198259e+02	-3.223507e+01
5.228284e+02	-3.229058e+01
5.258482e+02	-3.234675e+01
5.288855e+02	-3.239584e+01
5.319403e+02	-3.244440e+01
5.350128e+02	-3.248774e+01
5.381030e+02	-3.253714e+01
5.412111e+02	-3.259009e+01
5.443371e+02	-3.264148e+01
5.474812e+02	-3.268717e+01
5.506434e+02	-3.273965e+01
5.538239e+02	-3.279621e+01
5.570228e+02	-3.284244e+01
5.602401e+02	-3.289175e+01
5.634760e+02	-3.293824e+01
5.667306e+02	-3.299438e+01
5.700040e+02	-3.304015e+01
5.732964e+02	-3.309601e+01
5.766077e+02	-3.314487e+01
5.799382e+02	-3.318840e+01
5.832879e+02	-3.324420e+01
5.866569e+02	-3.329631e+01
5.900454e+02	-3.334156e+01
5.934535e+02	-3.339364e+01
5.968813e+02	-3.344108e+01
6.003288e+02	-3.349350e+01
6.037963e+02	-3.353863e+01
6.072838e+02	-3.359336e+01
6.107914e+02	-3.364281e+01
6.143194e+02	-3.368700e+01
6.178676e+02	-3.374749e+01
6.214364e+02	-3.379292e+01
6.250258e+02	-3.384899e+01
6.286359e+02	-3.390493e+01
6.322669e+02	-3.394887e+01
6.359189e+02	-3.399773e+01
6.395919e+02	-3.404654e+01
6.432862e+02	-3.409403e+01
6.470017e+02	-3.415472e+01
6.507388e+02	-3.420026e+01
6.544974e+02	-3.425499e+01
6.582778e+02	-3.429346e+01
6.620800e+02	-3.435341e+01
6.659041e+02	-3.440697e+01
6.697504e+02	-3.445317e+01
6.736188e+02	-3.450234e+01
6.775096e+02	-3.455634e+01
6.814229e+02	-3.460511e+01
6.853587e+02	-3.464969e+01
6.893173e+02	-3.469992e+01
6.932988e+02	-3.475582e+01
6.973033e+02	-3.479560e+01
7.013309e+02	-3.484994e+01
