Frequency(Hz)	Magnitude(dB)
1.000000e+01	-2.083498e+00
1.005776e+01	-2.102401e+00
1.011585e+01	-2.121827e+00
1.017428e+01	-2.141286e+00
1.023305e+01	-2.160716e+00
1.029215e+01	-2.180469e+00
1.035160e+01	-2.200659e+00
1.041139e+01	-2.220132e+00
1.047153e+01	-2.240477e+00
1.053201e+01	-2.260692e+00
1.059284e+01	-2.281049e+00
1.065403e+01	-2.301371e+00
1.071556e+01	-2.322181e+00
1.077746e+01	-2.342846e+00
1.083971e+01	-2.363939e+00
1.090232e+01	-2.384942e+00
1.096529e+01	-2.406239e+00
1.102862e+01	-2.427342e+00
1.109232e+01	-2.448945e+00
1.115639e+01	-2.470345e+00
1.122083e+01	-2.492338e+00
1.128564e+01	-2.514331e+00
1.135083e+01	-2.536060e+00
1.141639e+01	-2.558445e+00
1.148233e+01	-2.580774e+00
1.154865e+01	-2.603208e+00
1.161536e+01	-2.626012e+00
1.168245e+01	-2.648613e+00
1.174992e+01	-2.671722e+00
1.181779e+01	-2.694809e+00
1.188605e+01	-2.718058e+00
1.195470e+01	-2.741389e+00
1.202375e+01	-2.765140e+00
1.209320e+01	-2.788317e+00
1.216305e+01	-2.812092e+00
1.223330e+01	-2.836032e+00
1.230396e+01	-2.860240e+00
1.237503e+01	-2.884200e+00
1.244651e+01	-2.908452e+00
1.251840e+01	-2.933184e+00
1.259070e+01	-2.958057e+00
1.266343e+01	-2.982611e+00
1.273657e+01	-3.007503e+00
1.281014e+01	-3.032449e+00
1.288413e+01	-3.057865e+00
1.295855e+01	-3.082953e+00
1.303339e+01	-3.108583e+00
1.310867e+01	-3.134391e+00
1.318439e+01	-3.159877e+00
1.326054e+01	-3.186037e+00
1.333713e+01	-3.212166e+00
1.341417e+01	-3.238637e+00
1.349165e+01	-3.264613e+00
1.356958e+01	-3.291082e+00
1.364795e+01	-3.317633e+00
1.372678e+01	-3.344551e+00
1.380607e+01	-3.371525e+00
1.388581e+01	-3.398735e+00
1.396602e+01	-3.425800e+00
1.404668e+01	-3.453310e+00
1.412782e+01	-3.480622e+00
1.420942e+01	-3.508496e+00
1.429149e+01	-3.536118e+00
1.437404e+01	-3.563953e+00
1.445706e+01	-3.592196e+00
1.454057e+01	-3.620360e+00
1.462455e+01	-3.648907e+00
1.470902e+01	-3.677537e+00
1.479398e+01	-3.706089e+00
1.487943e+01	-3.734876e+00
1.496537e+01	-3.763859e+00
1.505181e+01	-3.792648e+00
1.513875e+01	-3.821955e+00
1.522619e+01	-3.851343e+00
1.531414e+01	-3.880506e+00
1.540259e+01	-3.910325e+00
1.549156e+01	-3.940270e+00
1.558103e+01	-3.970080e+00
1.567103e+01	-3.999973e+00
1.576155e+01	-4.030068e+00
1.585258e+01	-4.060484e+00
1.594415e+01	-4.091093e+00
1.603624e+01	-4.121442e+00
1.612886e+01	-4.152375e+00
1.622202e+01	-4.183200e+00
1.631572e+01	-4.214097e+00
1.640996e+01	-4.245238e+00
1.650474e+01	-4.276616e+00
1.660008e+01	-4.307832e+00
1.669596e+01	-4.339773e+00
1.679239e+01	-4.371184e+00
1.688938e+01	-4.402870e+00
1.698694e+01	-4.434950e+00
1.708505e+01	-4.467043e+00
1.718373e+01	-4.499406e+00
1.728299e+01	-4.531430e+00
1.738281e+01	-4.563953e+00
1.748322e+01	-4.596751e+00
1.758420e+01	-4.629352e+00
1.768576e+01	-4.662159e+00
1.778792e+01	-4.695092e+00
1.789066e+01	-4.728264e+00
1.799399e+01	-4.761463e+00
1.809793e+01	-4.794833e+00
1.820246e+01	-4.828470e+00
1.830760e+01	-4.861995e+00
1.841334e+01	-4.895801e+00
1.851969e+01	-4.930000e+00
1.862666e+01	-4.963848e+00
1.873425e+01	-4.998015e+00
1.884246e+01	-5.032429e+00
1.895129e+01	-5.066703e+00
1.906075e+01	-5.100975e+00
1.917085e+01	-5.135726e+00
1.928158e+01	-5.170661e+00
1.939295e+01	-5.205309e+00
1.950496e+01	-5.240390e+00
1.961762e+01	-5.275602e+00
1.973093e+01	-5.310428e+00
1.984490e+01	-5.346181e+00
1.995952e+01	-5.381347e+00
2.007480e+01	-5.417205e+00
2.019076e+01	-5.452912e+00
2.030738e+01	-5.488412e+00
2.042467e+01	-5.524444e+00
2.054264e+01	-5.560466e+00
2.066130e+01	-5.596982e+00
2.078064e+01	-5.633171e+00
2.090066e+01	-5.669656e+00
2.102139e+01	-5.705925e+00
2.114280e+01	-5.742601e+00
2.126492e+01	-5.779438e+00
2.138775e+01	-5.816306e+00
2.151128e+01	-5.852995e+00
2.163553e+01	-5.890488e+00
2.176050e+01	-5.927597e+00
2.188619e+01	-5.965245e+00
2.201260e+01	-6.002197e+00
2.213974e+01	-6.039719e+00
2.226762e+01	-6.077228e+00
2.239624e+01	-6.115190e+00
2.252560e+01	-6.152908e+00
2.265571e+01	-6.190570e+00
2.278656e+01	-6.228793e+00
2.291818e+01	-6.267246e+00
2.305055e+01	-6.305270e+00
2.318369e+01	-6.343894e+00
2.331760e+01	-6.382036e+00
2.345228e+01	-6.420675e+00
2.358774e+01	-6.459676e+00
2.372398e+01	-6.498325e+00
2.386101e+01	-6.537128e+00
2.399883e+01	-6.576001e+00
2.413745e+01	-6.615030e+00
2.427686e+01	-6.654409e+00
2.441709e+01	-6.693595e+00
2.455812e+01	-6.733136e+00
2.469997e+01	-6.772208e+00
2.484263e+01	-6.811779e+00
2.498612e+01	-6.851705e+00
2.513044e+01	-6.891375e+00
2.527559e+01	-6.931395e+00
2.542158e+01	-6.970980e+00
2.556842e+01	-7.011339e+00
2.571610e+01	-7.051453e+00
2.586463e+01	-7.091787e+00
2.601403e+01	-7.131858e+00
2.616428e+01	-7.171860e+00
2.631541e+01	-7.212762e+00
2.646740e+01	-7.253213e+00
2.662028e+01	-7.293652e+00
2.677404e+01	-7.334756e+00
2.692868e+01	-7.375303e+00
2.708422e+01	-7.416549e+00
2.724066e+01	-7.457252e+00
2.739800e+01	-7.498595e+00
2.755625e+01	-7.539528e+00
2.771541e+01	-7.580826e+00
2.787550e+01	-7.622096e+00
2.803650e+01	-7.663351e+00
2.819844e+01	-7.705301e+00
2.836131e+01	-7.746783e+00
2.852513e+01	-7.788247e+00
2.868989e+01	-7.830381e+00
2.885560e+01	-7.871911e+00
2.902227e+01	-7.913868e+00
2.918990e+01	-7.955740e+00
2.935850e+01	-7.997206e+00
2.952807e+01	-8.039517e+00
2.969863e+01	-8.082491e+00
2.987016e+01	-8.124729e+00
3.004269e+01	-8.166753e+00
3.021622e+01	-8.209168e+00
3.039075e+01	-8.252031e+00
3.056628e+01	-8.294646e+00
3.074283e+01	-8.337020e+00
3.092040e+01	-8.379512e+00
3.109900e+01	-8.422709e+00
3.127862e+01	-8.465658e+00
3.145929e+01	-8.508713e+00
3.164099e+01	-8.551330e+00
3.182375e+01	-8.594524e+00
3.200756e+01	-8.637459e+00
3.219244e+01	-8.680933e+00
3.237838e+01	-8.723909e+00
3.256540e+01	-8.767853e+00
3.275349e+01	-8.811058e+00
3.294268e+01	-8.854484e+00
3.313295e+01	-8.897668e+00
3.332433e+01	-8.941735e+00
3.351681e+01	-8.985147e+00
3.371040e+01	-9.028558e+00
3.390511e+01	-9.072345e+00
3.410094e+01	-9.116100e+00
3.429791e+01	-9.160186e+00
3.449601e+01	-9.204638e+00
3.469526e+01	-9.248205e+00
3.489566e+01	-9.292673e+00
3.509721e+01	-9.336862e+00
3.529993e+01	-9.380877e+00
3.550382e+01	-9.425593e+00
3.570889e+01	-9.469316e+00
3.591515e+01	-9.513747e+00
3.612259e+01	-9.558620e+00
3.633123e+01	-9.603032e+00
3.654108e+01	-9.647569e+00
3.675214e+01	-9.691911e+00
3.696442e+01	-9.736371e+00
3.717792e+01	-9.781281e+00
3.739266e+01	-9.826745e+00
3.760864e+01	-9.871082e+00
3.782587e+01	-9.915929e+00
3.804435e+01	-9.961131e+00
3.826409e+01	-1.000608e+01
3.848510e+01	-1.005120e+01
3.870739e+01	-1.009630e+01
3.893096e+01	-1.014139e+01
3.915583e+01	-1.018670e+01
3.938199e+01	-1.023195e+01
3.960946e+01	-1.027692e+01
3.983824e+01	-1.032294e+01
4.006834e+01	-1.036773e+01
4.029978e+01	-1.041315e+01
4.053255e+01	-1.045891e+01
4.076666e+01	-1.050481e+01
4.100213e+01	-1.055002e+01
4.123896e+01	-1.059571e+01
4.147715e+01	-1.064141e+01
4.171672e+01	-1.068756e+01
4.195767e+01	-1.073245e+01
4.220002e+01	-1.077871e+01
4.244377e+01	-1.082472e+01
4.268892e+01	-1.087027e+01
4.293549e+01	-1.091644e+01
4.318348e+01	-1.096257e+01
4.343291e+01	-1.100851e+01
4.368377e+01	-1.105454e+01
4.393609e+01	-1.110065e+01
4.418986e+01	-1.114680e+01
4.444510e+01	-1.119357e+01
4.470182e+01	-1.123957e+01
4.496001e+01	-1.128587e+01
4.521970e+01	-1.133128e+01
4.548089e+01	-1.137834e+01
4.574358e+01	-1.142421e+01
4.600779e+01	-1.147058e+01
4.627353e+01	-1.151762e+01
4.654081e+01	-1.156408e+01
4.680963e+01	-1.161130e+01
4.708000e+01	-1.165735e+01
4.735193e+01	-1.170421e+01
4.762543e+01	-1.175038e+01
4.790051e+01	-1.179697e+01
4.817719e+01	-1.184375e+01
4.845545e+01	-1.189103e+01
4.873533e+01	-1.193761e+01
4.901682e+01	-1.198412e+01
4.929994e+01	-1.203163e+01
4.958470e+01	-1.207870e+01
4.987110e+01	-1.212592e+01
5.015915e+01	-1.217174e+01
5.044887e+01	-1.221913e+01
5.074026e+01	-1.226644e+01
5.103333e+01	-1.231303e+01
5.132810e+01	-1.236082e+01
5.162457e+01	-1.240754e+01
5.192275e+01	-1.245475e+01
5.222265e+01	-1.250133e+01
5.252429e+01	-1.254908e+01
5.282767e+01	-1.259652e+01
5.313280e+01	-1.264394e+01
5.343969e+01	-1.269060e+01
5.374836e+01	-1.273752e+01
5.405880e+01	-1.278551e+01
5.437105e+01	-1.283271e+01
5.468509e+01	-1.288095e+01
5.500095e+01	-1.292844e+01
5.531863e+01	-1.297530e+01
5.563815e+01	-1.302306e+01
5.595951e+01	-1.307061e+01
5.628273e+01	-1.311763e+01
5.660782e+01	-1.316574e+01
5.693479e+01	-1.321373e+01
5.726364e+01	-1.326087e+01
5.759439e+01	-1.330841e+01
5.792705e+01	-1.335617e+01
5.826164e+01	-1.340340e+01
5.859815e+01	-1.345158e+01
5.893662e+01	-1.349933e+01
5.927703e+01	-1.354793e+01
5.961941e+01	-1.359545e+01
5.996377e+01	-1.364334e+01
6.031012e+01	-1.369121e+01
6.065847e+01	-1.373874e+01
6.100883e+01	-1.378658e+01
6.136121e+01	-1.383419e+01
6.171563e+01	-1.388252e+01
6.207210e+01	-1.393111e+01
6.243063e+01	-1.397840e+01
6.279122e+01	-1.402724e+01
6.315390e+01	-1.407495e+01
6.351868e+01	-1.412326e+01
6.388556e+01	-1.417095e+01
6.425456e+01	-1.421911e+01
6.462569e+01	-1.426733e+01
6.499897e+01	-1.431595e+01
6.537440e+01	-1.436424e+01
6.575200e+01	-1.441124e+01
6.613178e+01	-1.446057e+01
6.651375e+01	-1.450880e+01
6.689793e+01	-1.455641e+01
6.728433e+01	-1.460501e+01
6.767297e+01	-1.465243e+01
6.806384e+01	-1.470138e+01
6.845698e+01	-1.475026e+01
6.885238e+01	-1.479815e+01
6.925007e+01	-1.484668e+01
6.965005e+01	-1.489479e+01
7.005235e+01	-1.494349e+01
7.045697e+01	-1.499210e+01
7.086393e+01	-1.504037e+01
7.127323e+01	-1.508798e+01
7.168490e+01	-1.513649e+01
7.209895e+01	-1.518598e+01
7.251539e+01	-1.523474e+01
7.293424e+01	-1.528358e+01
7.335551e+01	-1.533191e+01
7.377920e+01	-1.537986e+01
7.420535e+01	-1.542875e+01
7.463396e+01	-1.547756e+01
7.506504e+01	-1.552673e+01
7.549861e+01	-1.557496e+01
7.593469e+01	-1.562302e+01
7.637328e+01	-1.567229e+01
7.681441e+01	-1.572035e+01
7.725809e+01	-1.576972e+01
7.770433e+01	-1.581739e+01
7.815315e+01	-1.586584e+01
7.860456e+01	-1.591510e+01
7.905857e+01	-1.596324e+01
7.951521e+01	-1.601246e+01
7.997449e+01	-1.606132e+01
8.043642e+01	-1.611129e+01
8.090102e+01	-1.615881e+01
8.136830e+01	-1.620779e+01
8.183828e+01	-1.625655e+01
8.231097e+01	-1.630644e+01
8.278640e+01	-1.635546e+01
8.326457e+01	-1.640330e+01
8.374550e+01	-1.645198e+01
8.422921e+01	-1.649992e+01
8.471572e+01	-1.655035e+01
8.520503e+01	-1.659950e+01
8.569717e+01	-1.664929e+01
8.619215e+01	-1.669651e+01
8.669000e+01	-1.674639e+01
8.719071e+01	-1.679567e+01
8.769432e+01	-1.684475e+01
8.820084e+01	-1.689304e+01
8.871029e+01	-1.694143e+01
8.922267e+01	-1.699058e+01
8.973802e+01	-1.704036e+01
9.025634e+01	-1.709013e+01
9.077766e+01	-1.713834e+01
9.130199e+01	-1.718797e+01
9.182935e+01	-1.723600e+01
9.235975e+01	-1.728584e+01
9.289321e+01	-1.733344e+01
9.342976e+01	-1.738261e+01
9.396941e+01	-1.743233e+01
9.451217e+01	-1.748197e+01
9.505807e+01	-1.753162e+01
9.560712e+01	-1.758012e+01
9.615934e+01	-1.762868e+01
9.671476e+01	-1.767776e+01
9.727338e+01	-1.772742e+01
9.783522e+01	-1.777574e+01
9.840032e+01	-1.782549e+01
9.896867e+01	-1.787519e+01
9.954031e+01	-1.792509e+01
1.001153e+02	-1.797314e+01
1.006935e+02	-1.802369e+01
1.012751e+02	-1.807291e+01
1.018601e+02	-1.812163e+01
1.024484e+02	-1.817113e+01
1.030402e+02	-1.821923e+01
1.036353e+02	-1.827021e+01
1.042339e+02	-1.831894e+01
1.048360e+02	-1.836820e+01
1.054415e+02	-1.841750e+01
1.060505e+02	-1.846726e+01
1.066631e+02	-1.851524e+01
1.072791e+02	-1.856525e+01
1.078988e+02	-1.861292e+01
1.085220e+02	-1.866448e+01
1.091488e+02	-1.871352e+01
1.097793e+02	-1.876320e+01
1.104133e+02	-1.881055e+01
1.110511e+02	-1.886180e+01
1.116925e+02	-1.891159e+01
1.123376e+02	-1.896022e+01
1.129865e+02	-1.900888e+01
1.136391e+02	-1.906025e+01
1.142955e+02	-1.910659e+01
1.149556e+02	-1.915616e+01
1.156196e+02	-1.920694e+01
1.162874e+02	-1.925703e+01
1.169591e+02	-1.930648e+01
1.176347e+02	-1.935504e+01
1.183141e+02	-1.940381e+01
1.189975e+02	-1.945473e+01
1.196848e+02	-1.950461e+01
1.203761e+02	-1.955416e+01
1.210714e+02	-1.960198e+01
1.217707e+02	-1.965160e+01
1.224740e+02	-1.970142e+01
1.231814e+02	-1.975138e+01
1.238929e+02	-1.980156e+01
1.246085e+02	-1.985082e+01
1.253283e+02	-1.989895e+01
1.260522e+02	-1.994972e+01
1.267802e+02	-1.999952e+01
1.275125e+02	-2.004806e+01
1.282490e+02	-2.009623e+01
1.289898e+02	-2.014753e+01
1.297348e+02	-2.019813e+01
1.304842e+02	-2.024760e+01
1.312378e+02	-2.029744e+01
1.319959e+02	-2.034518e+01
1.327583e+02	-2.039509e+01
1.335251e+02	-2.044446e+01
1.342963e+02	-2.049482e+01
1.350720e+02	-2.054490e+01
1.358522e+02	-2.059386e+01
1.366368e+02	-2.064314e+01
1.374260e+02	-2.069270e+01
1.382198e+02	-2.074215e+01
1.390182e+02	-2.079267e+01
1.398211e+02	-2.084250e+01
1.406287e+02	-2.089087e+01
1.414410e+02	-2.094086e+01
1.422579e+02	-2.099168e+01
1.430796e+02	-2.104093e+01
1.439060e+02	-2.109070e+01
1.447372e+02	-2.113875e+01
1.455732e+02	-2.118979e+01
1.464141e+02	-2.123923e+01
1.472597e+02	-2.128847e+01
1.481103e+02	-2.133764e+01
1.489658e+02	-2.138533e+01
1.498262e+02	-2.143704e+01
1.506916e+02	-2.148836e+01
1.515620e+02	-2.153756e+01
1.524374e+02	-2.158719e+01
1.533179e+02	-2.163631e+01
1.542034e+02	-2.168551e+01
1.550941e+02	-2.173697e+01
1.559899e+02	-2.178384e+01
1.568909e+02	-2.183189e+01
1.577971e+02	-2.188304e+01
1.587085e+02	-2.193577e+01
1.596252e+02	-2.198387e+01
1.605472e+02	-2.203584e+01
1.614745e+02	-2.208253e+01
1.624072e+02	-2.213296e+01
1.633453e+02	-2.218395e+01
1.642887e+02	-2.223430e+01
1.652377e+02	-2.228327e+01
1.661921e+02	-2.233194e+01
1.671520e+02	-2.238205e+01
1.681175e+02	-2.243501e+01
1.690885e+02	-2.248120e+01
1.700651e+02	-2.253331e+01
1.710474e+02	-2.258272e+01
1.720354e+02	-2.263192e+01
1.730291e+02	-2.268000e+01
1.740285e+02	-2.273016e+01
1.750337e+02	-2.278002e+01
1.760446e+02	-2.283102e+01
1.770615e+02	-2.288061e+01
1.780842e+02	-2.293066e+01
1.791128e+02	-2.297941e+01
1.801473e+02	-2.302923e+01
1.811878e+02	-2.307803e+01
1.822344e+02	-2.313176e+01
1.832870e+02	-2.317968e+01
1.843456e+02	-2.322803e+01
1.854104e+02	-2.327841e+01
1.864813e+02	-2.332847e+01
1.875584e+02	-2.337904e+01
1.886418e+02	-2.343006e+01
1.897313e+02	-2.347783e+01
1.908272e+02	-2.352904e+01
1.919294e+02	-2.357688e+01
1.930380e+02	-2.362693e+01
1.941530e+02	-2.367709e+01
1.952744e+02	-2.372735e+01
1.964023e+02	-2.377648e+01
1.975367e+02	-2.382575e+01
1.986777e+02	-2.387667e+01
1.998252e+02	-2.392463e+01
2.009794e+02	-2.397653e+01
2.021403e+02	-2.402661e+01
2.033078e+02	-2.407555e+01
2.044821e+02	-2.412712e+01
2.056632e+02	-2.417744e+01
2.068511e+02	-2.422667e+01
2.080459e+02	-2.427497e+01
2.092475e+02	-2.432368e+01
2.104561e+02	-2.437279e+01
2.116717e+02	-2.442568e+01
2.128943e+02	-2.447338e+01
2.141240e+02	-2.452421e+01
2.153608e+02	-2.457261e+01
2.166047e+02	-2.462542e+01
2.178558e+02	-2.467261e+01
2.191141e+02	-2.472394e+01
2.203797e+02	-2.477429e+01
2.216526e+02	-2.482531e+01
2.229329e+02	-2.487608e+01
2.242205e+02	-2.492290e+01
2.255156e+02	-2.497625e+01
2.268182e+02	-2.502378e+01
2.281283e+02	-2.507487e+01
2.294459e+02	-2.512273e+01
2.307712e+02	-2.517173e+01
2.321041e+02	-2.522437e+01
2.334447e+02	-2.527297e+01
2.347931e+02	-2.532242e+01
2.361493e+02	-2.537131e+01
2.375133e+02	-2.542323e+01
2.388851e+02	-2.547356e+01
2.402649e+02	-2.552388e+01
2.416527e+02	-2.557204e+01
2.430484e+02	-2.562096e+01
2.444523e+02	-2.567001e+01
2.458642e+02	-2.572521e+01
2.472843e+02	-2.577261e+01
2.487126e+02	-2.582315e+01
2.501492e+02	-2.587423e+01
2.515940e+02	-2.592146e+01
2.530472e+02	-2.597285e+01
2.545088e+02	-2.602389e+01
2.559789e+02	-2.607097e+01
2.574574e+02	-2.612077e+01
2.589444e+02	-2.617163e+01
2.604401e+02	-2.621989e+01
2.619444e+02	-2.627357e+01
2.634574e+02	-2.632337e+01
2.649791e+02	-2.636921e+01
2.665096e+02	-2.642414e+01
2.680489e+02	-2.646901e+01
2.695972e+02	-2.652162e+01
2.711544e+02	-2.657275e+01
2.727205e+02	-2.662095e+01
2.742958e+02	-2.667081e+01
2.758801e+02	-2.671940e+01
2.774736e+02	-2.677093e+01
2.790762e+02	-2.682513e+01
2.806882e+02	-2.687142e+01
2.823094e+02	-2.692105e+01
2.839400e+02	-2.697165e+01
2.855800e+02	-2.702248e+01
2.872295e+02	-2.707127e+01
2.888886e+02	-2.712307e+01
2.905572e+02	-2.717278e+01
2.922354e+02	-2.722179e+01
2.939234e+02	-2.727070e+01
2.956211e+02	-2.731924e+01
2.973286e+02	-2.737060e+01
2.990459e+02	-2.742188e+01
3.007732e+02	-2.747121e+01
3.025104e+02	-2.752133e+01
3.042577e+02	-2.757143e+01
3.060151e+02	-2.762216e+01
3.077826e+02	-2.766924e+01
3.095604e+02	-2.772156e+01
3.113484e+02	-2.776937e+01
3.131467e+02	-2.782030e+01
3.149554e+02	-2.787246e+01
3.167746e+02	-2.792185e+01
3.186043e+02	-2.797515e+01
3.204445e+02	-2.801998e+01
3.222954e+02	-2.807046e+01
3.241570e+02	-2.812241e+01
3.260293e+02	-2.816999e+01
3.279124e+02	-2.822007e+01
3.298064e+02	-2.827001e+01
3.317114e+02	-2.832396e+01
3.336273e+02	-2.837445e+01
3.355544e+02	-2.841807e+01
3.374925e+02	-2.847062e+01
3.394418e+02	-2.852102e+01
3.414024e+02	-2.857487e+01
3.433744e+02	-2.862100e+01
3.453577e+02	-2.866977e+01
3.473525e+02	-2.872143e+01
3.493588e+02	-2.877245e+01
3.513766e+02	-2.881993e+01
3.534062e+02	-2.887226e+01
3.554474e+02	-2.892168e+01
3.575005e+02	-2.896865e+01
3.595654e+02	-2.902015e+01
3.616422e+02	-2.907315e+01
3.637311e+02	-2.912302e+01
3.658320e+02	-2.917344e+01
3.679450e+02	-2.922502e+01
3.700702e+02	-2.926993e+01
3.722077e+02	-2.932784e+01
3.743576e+02	-2.937524e+01
3.765199e+02	-2.942560e+01
3.786946e+02	-2.947228e+01
3.808820e+02	-2.952152e+01
3.830819e+02	-2.956653e+01
3.852946e+02	-2.962013e+01
3.875200e+02	-2.967460e+01
3.897583e+02	-2.972243e+01
3.920096e+02	-2.977111e+01
3.942738e+02	-2.981475e+01
3.965511e+02	-2.987677e+01
3.988416e+02	-2.992261e+01
4.011452e+02	-2.997141e+01
4.034622e+02	-3.002685e+01
4.057926e+02	-3.007422e+01
4.081365e+02	-3.012026e+01
4.104938e+02	-3.017123e+01
4.128648e+02	-3.022226e+01
4.152495e+02	-3.027785e+01
4.176480e+02	-3.032757e+01
4.200603e+02	-3.037621e+01
4.224866e+02	-3.042022e+01
4.249268e+02	-3.046892e+01
4.273812e+02	-3.052259e+01
4.298497e+02	-3.057253e+01
4.323325e+02	-3.062652e+01
4.348297e+02	-3.067167e+01
4.373412e+02	-3.072381e+01
4.398673e+02	-3.077508e+01
4.424079e+02	-3.082776e+01
4.449633e+02	-3.087149e+01
4.475334e+02	-3.092756e+01
4.501183e+02	-3.097205e+01
4.527182e+02	-3.102479e+01
4.553330e+02	-3.108231e+01
4.579630e+02	-3.112779e+01
4.606082e+02	-3.117671e+01
4.632687e+02	-3.122381e+01
4.659445e+02	-3.127438e+01
4.686358e+02	-3.132799e+01
4.713426e+02	-3.138019e+01
4.740650e+02	-3.142889e+01
4.768032e+02	-3.148094e+01
4.795572e+02	-3.152644e+01
4.823271e+02	-3.157952e+01
4.851130e+02	-3.162054e+01
4.879150e+02	-3.167313e+01
4.907332e+02	-3.172589e+01
4.935676e+02	-3.177099e+01
4.964185e+02	-3.182032e+01
4.992858e+02	-3.187748e+01
5.021696e+02	-3.192747e+01
5.050701e+02	-3.197891e+01
5.079874e+02	-3.202037e+01
5.109215e+02	-3.207821e+01
5.138726e+02	-3.212685e+01
5.168407e+02	-3.217979e+01
5.198259e+02	-3.222683e+01
5.228284e+02	-3.227872e+01
5.258482e+02	-3.232677e+01
5.288855e+02	-3.238300e+01
5.319403e+02	-3.242592e+01
5.350128e+02	-3.248249e+01
5.381030e+02	-3.253255e+01
5.412111e+02	-3.258486e+01
5.443371e+02	-3.263183e+01
5.474812e+02	-3.267997e+01
5.506434e+02	-3.272906e+01
5.538239e+02	-3.278409e+01
5.570228e+02	-3.283023e+01
5.602401e+02	-3.287780e+01
5.634760e+02	-3.293038e+01
5.667306e+02	-3.297941e+01
5.700040e+02	-3.303673e+01
5.732964e+02	-3.308431e+01
5.766077e+02	-3.313022e+01
5.799382e+02	-3.317945e+01
5.832879e+02	-3.322808e+01
5.866569e+02	-3.329573e+01
5.900454e+02	-3.334035e+01
5.934535e+02	-3.338826e+01
5.968813e+02	-3.342477e+01
6.003288e+02	-3.348262e+01
6.037963e+02	-3.353190e+01
6.072838e+02	-3.357853e+01
6.107914e+02	-3.363304e+01
6.143194e+02	-3.368825e+01
6.178676e+02	-3.373671e+01
6.214364e+02	-3.378733e+01
6.250258e+02	-3.383706e+01
6.286359e+02	-3.389030e+01
6.322669e+02	-3.394086e+01
6.359189e+02	-3.398904e+01
6.395919e+02	-3.403541e+01
6.432862e+02	-3.408404e+01
6.470017e+02	-3.414157e+01
6.507388e+02	-3.418345e+01
6.544974e+02	-3.423503e+01
6.582778e+02	-3.429369e+01
6.620800e+02	-3.433683e+01
6.659041e+02	-3.438145e+01
6.697504e+02	-3.443991e+01
6.736188e+02	-3.448108e+01
6.775096e+02	-3.453565e+01
6.814229e+02	-3.459181e+01
6.853587e+02	-3.463869e+01
6.893173e+02	-3.469703e+01
6.932988e+02	-3.474081e+01
6.973033e+02	-3.479462e+01
7.013309e+02	-3.484065e+01
