Frequency(Hz)	Magnitude(dB)
1.000000e+01	-2.097271e+00
1.005776e+01	-2.116325e+00
1.011585e+01	-2.135708e+00
1.017428e+01	-2.155219e+00
1.023305e+01	-2.175096e+00
1.029215e+01	-2.194831e+00
1.035160e+01	-2.214741e+00
1.041139e+01	-2.234877e+00
1.047153e+01	-2.254910e+00
1.053201e+01	-2.275150e+00
1.059284e+01	-2.295691e+00
1.065403e+01	-2.316383e+00
1.071556e+01	-2.337018e+00
1.077746e+01	-2.358010e+00
1.083971e+01	-2.378927e+00
1.090232e+01	-2.400144e+00
1.096529e+01	-2.421525e+00
1.102862e+01	-2.443002e+00
1.109232e+01	-2.464662e+00
1.115639e+01	-2.486113e+00
1.122083e+01	-2.507871e+00
1.128564e+01	-2.530066e+00
1.135083e+01	-2.552260e+00
1.141639e+01	-2.574692e+00
1.148233e+01	-2.596930e+00
1.154865e+01	-2.619632e+00
1.161536e+01	-2.642366e+00
1.168245e+01	-2.665329e+00
1.174992e+01	-2.688419e+00
1.181779e+01	-2.711410e+00
1.188605e+01	-2.734827e+00
1.195470e+01	-2.758196e+00
1.202375e+01	-2.781959e+00
1.209320e+01	-2.805384e+00
1.216305e+01	-2.829313e+00
1.223330e+01	-2.853337e+00
1.230396e+01	-2.877690e+00
1.237503e+01	-2.901926e+00
1.244651e+01	-2.926123e+00
1.251840e+01	-2.950776e+00
1.259070e+01	-2.975581e+00
1.266343e+01	-3.000852e+00
1.273657e+01	-3.025883e+00
1.281014e+01	-3.050975e+00
1.288413e+01	-3.076187e+00
1.295855e+01	-3.101342e+00
1.303339e+01	-3.127153e+00
1.310867e+01	-3.152941e+00
1.318439e+01	-3.178893e+00
1.326054e+01	-3.204867e+00
1.333713e+01	-3.230918e+00
1.341417e+01	-3.257263e+00
1.349165e+01	-3.283609e+00
1.356958e+01	-3.310480e+00
1.364795e+01	-3.337097e+00
1.372678e+01	-3.364291e+00
1.380607e+01	-3.390908e+00
1.388581e+01	-3.418241e+00
1.396602e+01	-3.445517e+00
1.404668e+01	-3.473081e+00
1.412782e+01	-3.500569e+00
1.420942e+01	-3.528460e+00
1.429149e+01	-3.556193e+00
1.437404e+01	-3.584401e+00
1.445706e+01	-3.612501e+00
1.454057e+01	-3.640872e+00
1.462455e+01	-3.669252e+00
1.470902e+01	-3.697869e+00
1.479398e+01	-3.726679e+00
1.487943e+01	-3.755621e+00
1.496537e+01	-3.784405e+00
1.505181e+01	-3.813927e+00
1.513875e+01	-3.842956e+00
1.522619e+01	-3.872509e+00
1.531414e+01	-3.902092e+00
1.540259e+01	-3.931735e+00
1.549156e+01	-3.961474e+00
1.558103e+01	-3.991631e+00
1.567103e+01	-4.021898e+00
1.576155e+01	-4.052160e+00
1.585258e+01	-4.082490e+00
1.594415e+01	-4.113095e+00
1.603624e+01	-4.143532e+00
1.612886e+01	-4.174817e+00
1.622202e+01	-4.205483e+00
1.631572e+01	-4.236493e+00
1.640996e+01	-4.267712e+00
1.650474e+01	-4.299273e+00
1.660008e+01	-4.330849e+00
1.669596e+01	-4.362229e+00
1.679239e+01	-4.394355e+00
1.688938e+01	-4.425969e+00
1.698694e+01	-4.458083e+00
1.708505e+01	-4.490558e+00
1.718373e+01	-4.522482e+00
1.728299e+01	-4.555059e+00
1.738281e+01	-4.587622e+00
1.748322e+01	-4.620088e+00
1.758420e+01	-4.653151e+00
1.768576e+01	-4.686234e+00
1.778792e+01	-4.719249e+00
1.789066e+01	-4.752301e+00
1.799399e+01	-4.785756e+00
1.809793e+01	-4.819271e+00
1.820246e+01	-4.852566e+00
1.830760e+01	-4.886679e+00
1.841334e+01	-4.920405e+00
1.851969e+01	-4.954501e+00
1.862666e+01	-4.988357e+00
1.873425e+01	-5.022644e+00
1.884246e+01	-5.057033e+00
1.895129e+01	-5.091372e+00
1.906075e+01	-5.125994e+00
1.917085e+01	-5.160818e+00
1.928158e+01	-5.195609e+00
1.939295e+01	-5.230624e+00
1.950496e+01	-5.265369e+00
1.961762e+01	-5.300735e+00
1.973093e+01	-5.335981e+00
1.984490e+01	-5.371705e+00
1.995952e+01	-5.407208e+00
2.007480e+01	-5.443151e+00
2.019076e+01	-5.478953e+00
2.030738e+01	-5.514570e+00
2.042467e+01	-5.550600e+00
2.054264e+01	-5.586666e+00
2.066130e+01	-5.623142e+00
2.078064e+01	-5.659610e+00
2.090066e+01	-5.695908e+00
2.102139e+01	-5.732248e+00
2.114280e+01	-5.769602e+00
2.126492e+01	-5.806018e+00
2.138775e+01	-5.842528e+00
2.151128e+01	-5.879992e+00
2.163553e+01	-5.917103e+00
2.176050e+01	-5.954701e+00
2.188619e+01	-5.991695e+00
2.201260e+01	-6.029141e+00
2.213974e+01	-6.066850e+00
2.226762e+01	-6.104815e+00
2.239624e+01	-6.142498e+00
2.252560e+01	-6.180885e+00
2.265571e+01	-6.218354e+00
2.278656e+01	-6.256490e+00
2.291818e+01	-6.295091e+00
2.305055e+01	-6.333027e+00
2.318369e+01	-6.371507e+00
2.331760e+01	-6.410137e+00
2.345228e+01	-6.448994e+00
2.358774e+01	-6.487597e+00
2.372398e+01	-6.526359e+00
2.386101e+01	-6.565024e+00
2.399883e+01	-6.604306e+00
2.413745e+01	-6.643184e+00
2.427686e+01	-6.682806e+00
2.441709e+01	-6.721892e+00
2.455812e+01	-6.761719e+00
2.469997e+01	-6.801349e+00
2.484263e+01	-6.840419e+00
2.498612e+01	-6.880325e+00
2.513044e+01	-6.920069e+00
2.527559e+01	-6.960080e+00
2.542158e+01	-6.999745e+00
2.556842e+01	-7.040607e+00
2.571610e+01	-7.080330e+00
2.586463e+01	-7.120467e+00
2.601403e+01	-7.161123e+00
2.616428e+01	-7.201261e+00
2.631541e+01	-7.241952e+00
2.646740e+01	-7.282365e+00
2.662028e+01	-7.322984e+00
2.677404e+01	-7.364153e+00
2.692868e+01	-7.405058e+00
2.708422e+01	-7.446062e+00
2.724066e+01	-7.487167e+00
2.739800e+01	-7.528332e+00
2.755625e+01	-7.569612e+00
2.771541e+01	-7.610551e+00
2.787550e+01	-7.652330e+00
2.803650e+01	-7.693260e+00
2.819844e+01	-7.735203e+00
2.836131e+01	-7.776786e+00
2.852513e+01	-7.818538e+00
2.868989e+01	-7.860237e+00
2.885560e+01	-7.902105e+00
2.902227e+01	-7.943798e+00
2.918990e+01	-7.986275e+00
2.935850e+01	-8.028502e+00
2.952807e+01	-8.070325e+00
2.969863e+01	-8.112823e+00
2.987016e+01	-8.155015e+00
3.004269e+01	-8.197517e+00
3.021622e+01	-8.240120e+00
3.039075e+01	-8.282292e+00
3.056628e+01	-8.325188e+00
3.074283e+01	-8.367902e+00
3.092040e+01	-8.410372e+00
3.109900e+01	-8.453731e+00
3.127862e+01	-8.496950e+00
3.145929e+01	-8.539111e+00
3.164099e+01	-8.582853e+00
3.182375e+01	-8.625505e+00
3.200756e+01	-8.669151e+00
3.219244e+01	-8.711890e+00
3.237838e+01	-8.755132e+00
3.256540e+01	-8.798593e+00
3.275349e+01	-8.842034e+00
3.294268e+01	-8.885978e+00
3.313295e+01	-8.929343e+00
3.332433e+01	-8.972768e+00
3.351681e+01	-9.017105e+00
3.371040e+01	-9.060525e+00
3.390511e+01	-9.104717e+00
3.410094e+01	-9.148199e+00
3.429791e+01	-9.192317e+00
3.449601e+01	-9.236535e+00
3.469526e+01	-9.280475e+00
3.489566e+01	-9.324779e+00
3.509721e+01	-9.368809e+00
3.529993e+01	-9.412935e+00
3.550382e+01	-9.457016e+00
3.570889e+01	-9.501334e+00
3.591515e+01	-9.546252e+00
3.612259e+01	-9.590472e+00
3.633123e+01	-9.634862e+00
3.654108e+01	-9.680151e+00
3.675214e+01	-9.724300e+00
3.696442e+01	-9.769507e+00
3.717792e+01	-9.813932e+00
3.739266e+01	-9.858890e+00
3.760864e+01	-9.903300e+00
3.782587e+01	-9.949079e+00
3.804435e+01	-9.993540e+00
3.826409e+01	-1.003855e+01
3.848510e+01	-1.008346e+01
3.870739e+01	-1.012902e+01
3.893096e+01	-1.017412e+01
3.915583e+01	-1.021981e+01
3.938199e+01	-1.026502e+01
3.960946e+01	-1.030989e+01
3.983824e+01	-1.035556e+01
4.006834e+01	-1.040079e+01
4.029978e+01	-1.044619e+01
4.053255e+01	-1.049208e+01
4.076666e+01	-1.053757e+01
4.100213e+01	-1.058323e+01
4.123896e+01	-1.062878e+01
4.147715e+01	-1.067473e+01
4.171672e+01	-1.072042e+01
4.195767e+01	-1.076641e+01
4.220002e+01	-1.081216e+01
4.244377e+01	-1.085790e+01
4.268892e+01	-1.090278e+01
4.293549e+01	-1.094957e+01
4.318348e+01	-1.099496e+01
4.343291e+01	-1.104183e+01
4.368377e+01	-1.108811e+01
4.393609e+01	-1.113391e+01
4.418986e+01	-1.118004e+01
4.444510e+01	-1.122622e+01
4.470182e+01	-1.127275e+01
4.496001e+01	-1.131928e+01
4.521970e+01	-1.136547e+01
4.548089e+01	-1.141186e+01
4.574358e+01	-1.145860e+01
4.600779e+01	-1.150440e+01
4.627353e+01	-1.155079e+01
4.654081e+01	-1.159763e+01
4.680963e+01	-1.164489e+01
4.708000e+01	-1.169079e+01
4.735193e+01	-1.173772e+01
4.762543e+01	-1.178396e+01
4.790051e+01	-1.183055e+01
4.817719e+01	-1.187792e+01
4.845545e+01	-1.192476e+01
4.873533e+01	-1.197104e+01
4.901682e+01	-1.201854e+01
4.929994e+01	-1.206513e+01
4.958470e+01	-1.211214e+01
4.987110e+01	-1.215905e+01
5.015915e+01	-1.220618e+01
5.044887e+01	-1.225374e+01
5.074026e+01	-1.230011e+01
5.103333e+01	-1.234725e+01
5.132810e+01	-1.239388e+01
5.162457e+01	-1.244075e+01
5.192275e+01	-1.248863e+01
5.222265e+01	-1.253582e+01
5.252429e+01	-1.258369e+01
5.282767e+01	-1.263035e+01
5.313280e+01	-1.267803e+01
5.343969e+01	-1.272545e+01
5.374836e+01	-1.277248e+01
5.405880e+01	-1.281947e+01
5.437105e+01	-1.286765e+01
5.468509e+01	-1.291456e+01
5.500095e+01	-1.296189e+01
5.531863e+01	-1.301002e+01
5.563815e+01	-1.305681e+01
5.595951e+01	-1.310435e+01
5.628273e+01	-1.315238e+01
5.660782e+01	-1.319973e+01
5.693479e+01	-1.324765e+01
5.726364e+01	-1.329575e+01
5.759439e+01	-1.334382e+01
5.792705e+01	-1.339072e+01
5.826164e+01	-1.343830e+01
5.859815e+01	-1.348659e+01
5.893662e+01	-1.353416e+01
5.927703e+01	-1.358193e+01
5.961941e+01	-1.362992e+01
5.996377e+01	-1.367822e+01
6.031012e+01	-1.372577e+01
6.065847e+01	-1.377337e+01
6.100883e+01	-1.382233e+01
6.136121e+01	-1.386944e+01
6.171563e+01	-1.391789e+01
6.207210e+01	-1.396496e+01
6.243063e+01	-1.401338e+01
6.279122e+01	-1.406238e+01
6.315390e+01	-1.410955e+01
6.351868e+01	-1.415778e+01
6.388556e+01	-1.420550e+01
6.425456e+01	-1.425382e+01
6.462569e+01	-1.430235e+01
6.499897e+01	-1.435024e+01
6.537440e+01	-1.439826e+01
6.575200e+01	-1.444569e+01
6.613178e+01	-1.449459e+01
6.651375e+01	-1.454276e+01
6.689793e+01	-1.459109e+01
6.728433e+01	-1.464021e+01
6.767297e+01	-1.468838e+01
6.806384e+01	-1.473606e+01
6.845698e+01	-1.478485e+01
6.885238e+01	-1.483441e+01
6.925007e+01	-1.488120e+01
6.965005e+01	-1.492975e+01
7.005235e+01	-1.497760e+01
7.045697e+01	-1.502745e+01
7.086393e+01	-1.507479e+01
7.127323e+01	-1.512341e+01
7.168490e+01	-1.517309e+01
7.209895e+01	-1.522077e+01
7.251539e+01	-1.527067e+01
7.293424e+01	-1.531757e+01
7.335551e+01	-1.536684e+01
7.377920e+01	-1.541529e+01
7.420535e+01	-1.546413e+01
7.463396e+01	-1.551175e+01
7.506504e+01	-1.556120e+01
7.549861e+01	-1.560933e+01
7.593469e+01	-1.565852e+01
7.637328e+01	-1.570774e+01
7.681441e+01	-1.575507e+01
7.725809e+01	-1.580334e+01
7.770433e+01	-1.585329e+01
7.815315e+01	-1.590229e+01
7.860456e+01	-1.595150e+01
7.905857e+01	-1.599955e+01
7.951521e+01	-1.604844e+01
7.997449e+01	-1.609651e+01
8.043642e+01	-1.614597e+01
8.090102e+01	-1.619512e+01
8.136830e+01	-1.624371e+01
8.183828e+01	-1.629259e+01
8.231097e+01	-1.634087e+01
8.278640e+01	-1.638993e+01
8.326457e+01	-1.643874e+01
8.374550e+01	-1.648772e+01
8.422921e+01	-1.653720e+01
8.471572e+01	-1.658514e+01
8.520503e+01	-1.663444e+01
8.569717e+01	-1.668307e+01
8.619215e+01	-1.673328e+01
8.669000e+01	-1.678150e+01
8.719071e+01	-1.683054e+01
8.769432e+01	-1.687902e+01
8.820084e+01	-1.692941e+01
8.871029e+01	-1.697770e+01
8.922267e+01	-1.702643e+01
8.973802e+01	-1.707539e+01
9.025634e+01	-1.712374e+01
9.077766e+01	-1.717340e+01
9.130199e+01	-1.722310e+01
9.182935e+01	-1.727176e+01
9.235975e+01	-1.732170e+01
9.289321e+01	-1.737065e+01
9.342976e+01	-1.742047e+01
9.396941e+01	-1.746863e+01
9.451217e+01	-1.751659e+01
9.505807e+01	-1.756633e+01
9.560712e+01	-1.761656e+01
9.615934e+01	-1.766439e+01
9.671476e+01	-1.771429e+01
9.727338e+01	-1.776434e+01
9.783522e+01	-1.781271e+01
9.840032e+01	-1.786086e+01
9.896867e+01	-1.791098e+01
9.954031e+01	-1.795899e+01
1.001153e+02	-1.800984e+01
1.006935e+02	-1.805867e+01
1.012751e+02	-1.810864e+01
1.018601e+02	-1.815746e+01
1.024484e+02	-1.820647e+01
1.030402e+02	-1.825673e+01
1.036353e+02	-1.830472e+01
1.042339e+02	-1.835532e+01
1.048360e+02	-1.840355e+01
1.054415e+02	-1.845240e+01
1.060505e+02	-1.850238e+01
1.066631e+02	-1.855189e+01
1.072791e+02	-1.860098e+01
1.078988e+02	-1.865050e+01
1.085220e+02	-1.869942e+01
1.091488e+02	-1.874927e+01
1.097793e+02	-1.879770e+01
1.104133e+02	-1.884752e+01
1.110511e+02	-1.889482e+01
1.116925e+02	-1.894636e+01
1.123376e+02	-1.899594e+01
1.129865e+02	-1.904457e+01
1.136391e+02	-1.909501e+01
1.142955e+02	-1.914348e+01
1.149556e+02	-1.919281e+01
1.156196e+02	-1.924347e+01
1.162874e+02	-1.929183e+01
1.169591e+02	-1.934146e+01
1.176347e+02	-1.939388e+01
1.183141e+02	-1.944126e+01
1.189975e+02	-1.949091e+01
1.196848e+02	-1.953984e+01
1.203761e+02	-1.958741e+01
1.210714e+02	-1.963894e+01
1.217707e+02	-1.968828e+01
1.224740e+02	-1.973749e+01
1.231814e+02	-1.978761e+01
1.238929e+02	-1.983810e+01
1.246085e+02	-1.988634e+01
1.253283e+02	-1.993663e+01
1.260522e+02	-1.998460e+01
1.267802e+02	-2.003342e+01
1.275125e+02	-2.008546e+01
1.282490e+02	-2.013387e+01
1.289898e+02	-2.018400e+01
1.297348e+02	-2.023345e+01
1.304842e+02	-2.028370e+01
1.312378e+02	-2.033253e+01
1.319959e+02	-2.038065e+01
1.327583e+02	-2.043061e+01
1.335251e+02	-2.048050e+01
1.342963e+02	-2.053001e+01
1.350720e+02	-2.058131e+01
1.358522e+02	-2.062847e+01
1.366368e+02	-2.067927e+01
1.374260e+02	-2.072929e+01
1.382198e+02	-2.077904e+01
1.390182e+02	-2.082764e+01
1.398211e+02	-2.087965e+01
1.406287e+02	-2.092763e+01
1.414410e+02	-2.097580e+01
1.422579e+02	-2.102571e+01
1.430796e+02	-2.107634e+01
1.439060e+02	-2.112628e+01
1.447372e+02	-2.117669e+01
1.455732e+02	-2.122632e+01
1.464141e+02	-2.127541e+01
1.472597e+02	-2.132428e+01
1.481103e+02	-2.137449e+01
1.489658e+02	-2.142619e+01
1.498262e+02	-2.147338e+01
1.506916e+02	-2.152517e+01
1.515620e+02	-2.157361e+01
1.524374e+02	-2.162249e+01
1.533179e+02	-2.167315e+01
1.542034e+02	-2.172140e+01
1.550941e+02	-2.177104e+01
1.559899e+02	-2.182201e+01
1.568909e+02	-2.187200e+01
1.577971e+02	-2.192054e+01
1.587085e+02	-2.197094e+01
1.596252e+02	-2.201961e+01
1.605472e+02	-2.207123e+01
1.614745e+02	-2.212090e+01
1.624072e+02	-2.216780e+01
1.633453e+02	-2.222140e+01
1.642887e+02	-2.226815e+01
1.652377e+02	-2.231558e+01
1.661921e+02	-2.236754e+01
1.671520e+02	-2.241964e+01
1.681175e+02	-2.246835e+01
1.690885e+02	-2.251826e+01
1.700651e+02	-2.256670e+01
1.710474e+02	-2.261736e+01
1.720354e+02	-2.266759e+01
1.730291e+02	-2.271959e+01
1.740285e+02	-2.276763e+01
1.750337e+02	-2.281733e+01
1.760446e+02	-2.286734e+01
1.770615e+02	-2.291716e+01
1.780842e+02	-2.296559e+01
1.791128e+02	-2.301547e+01
1.801473e+02	-2.306475e+01
1.811878e+02	-2.311523e+01
1.822344e+02	-2.316457e+01
1.832870e+02	-2.321665e+01
1.843456e+02	-2.326577e+01
1.854104e+02	-2.331499e+01
1.864813e+02	-2.336530e+01
1.875584e+02	-2.341636e+01
1.886418e+02	-2.346337e+01
1.897313e+02	-2.351417e+01
1.908272e+02	-2.356487e+01
1.919294e+02	-2.361561e+01
1.930380e+02	-2.366187e+01
1.941530e+02	-2.371497e+01
1.952744e+02	-2.376678e+01
1.964023e+02	-2.381308e+01
1.975367e+02	-2.386503e+01
1.986777e+02	-2.391293e+01
1.998252e+02	-2.396129e+01
2.009794e+02	-2.400976e+01
2.021403e+02	-2.406218e+01
2.033078e+02	-2.411383e+01
2.044821e+02	-2.416196e+01
2.056632e+02	-2.421183e+01
2.068511e+02	-2.426148e+01
2.080459e+02	-2.430980e+01
2.092475e+02	-2.436245e+01
2.104561e+02	-2.441114e+01
2.116717e+02	-2.446175e+01
2.128943e+02	-2.451109e+01
2.141240e+02	-2.456018e+01
2.153608e+02	-2.461190e+01
2.166047e+02	-2.466104e+01
2.178558e+02	-2.471169e+01
2.191141e+02	-2.475896e+01
2.203797e+02	-2.480889e+01
2.216526e+02	-2.486016e+01
2.229329e+02	-2.491312e+01
2.242205e+02	-2.496042e+01
2.255156e+02	-2.501123e+01
2.268182e+02	-2.505937e+01
2.281283e+02	-2.511079e+01
2.294459e+02	-2.516005e+01
2.307712e+02	-2.520898e+01
2.321041e+02	-2.525956e+01
2.334447e+02	-2.531130e+01
2.347931e+02	-2.535593e+01
2.361493e+02	-2.540987e+01
2.375133e+02	-2.545778e+01
2.388851e+02	-2.550984e+01
2.402649e+02	-2.556082e+01
2.416527e+02	-2.560710e+01
2.430484e+02	-2.565977e+01
2.444523e+02	-2.570875e+01
2.458642e+02	-2.575495e+01
2.472843e+02	-2.580821e+01
2.487126e+02	-2.585932e+01
2.501492e+02	-2.590815e+01
2.515940e+02	-2.596107e+01
2.530472e+02	-2.601119e+01
2.545088e+02	-2.605857e+01
2.559789e+02	-2.610720e+01
2.574574e+02	-2.615411e+01
2.589444e+02	-2.620849e+01
2.604401e+02	-2.625668e+01
2.619444e+02	-2.630908e+01
2.634574e+02	-2.635632e+01
2.649791e+02	-2.640728e+01
2.665096e+02	-2.646385e+01
2.680489e+02	-2.650515e+01
2.695972e+02	-2.655947e+01
2.711544e+02	-2.660847e+01
2.727205e+02	-2.666052e+01
2.742958e+02	-2.670935e+01
2.758801e+02	-2.675836e+01
2.774736e+02	-2.681051e+01
2.790762e+02	-2.685740e+01
2.806882e+02	-2.690914e+01
2.823094e+02	-2.695562e+01
2.839400e+02	-2.700438e+01
2.855800e+02	-2.705727e+01
2.872295e+02	-2.710896e+01
2.888886e+02	-2.715749e+01
2.905572e+02	-2.720657e+01
2.922354e+02	-2.725398e+01
2.939234e+02	-2.730991e+01
2.956211e+02	-2.735937e+01
2.973286e+02	-2.740605e+01
2.990459e+02	-2.745877e+01
3.007732e+02	-2.750923e+01
3.025104e+02	-2.755677e+01
3.042577e+02	-2.760728e+01
3.060151e+02	-2.765928e+01
3.077826e+02	-2.770811e+01
3.095604e+02	-2.775662e+01
3.113484e+02	-2.781020e+01
3.131467e+02	-2.785893e+01
3.149554e+02	-2.790556e+01
3.167746e+02	-2.795885e+01
3.186043e+02	-2.800774e+01
3.204445e+02	-2.805409e+01
3.222954e+02	-2.810805e+01
3.241570e+02	-2.815743e+01
3.260293e+02	-2.820765e+01
3.279124e+02	-2.825994e+01
3.298064e+02	-2.831299e+01
3.317114e+02	-2.835876e+01
3.336273e+02	-2.840920e+01
3.355544e+02	-2.845800e+01
3.374925e+02	-2.850854e+01
3.394418e+02	-2.856574e+01
3.414024e+02	-2.860826e+01
3.433744e+02	-2.866438e+01
3.453577e+02	-2.870765e+01
3.473525e+02	-2.876060e+01
3.493588e+02	-2.880737e+01
3.513766e+02	-2.885540e+01
3.534062e+02	-2.890806e+01
3.554474e+02	-2.895676e+01
3.575005e+02	-2.901128e+01
3.595654e+02	-2.905998e+01
3.616422e+02	-2.910948e+01
3.637311e+02	-2.915690e+01
3.658320e+02	-2.920882e+01
3.679450e+02	-2.925659e+01
3.700702e+02	-2.931230e+01
3.722077e+02	-2.936220e+01
3.743576e+02	-2.940761e+01
3.765199e+02	-2.946140e+01
3.786946e+02	-2.950802e+01
3.808820e+02	-2.955755e+01
3.830819e+02	-2.961208e+01
3.852946e+02	-2.966219e+01
3.875200e+02	-2.970874e+01
3.897583e+02	-2.975682e+01
3.920096e+02	-2.980493e+01
3.942738e+02	-2.986528e+01
3.965511e+02	-2.991004e+01
3.988416e+02	-2.996188e+01
4.011452e+02	-3.000583e+01
4.034622e+02	-3.005883e+01
4.057926e+02	-3.011404e+01
4.081365e+02	-3.015827e+01
4.104938e+02	-3.021421e+01
4.128648e+02	-3.026077e+01
4.152495e+02	-3.031576e+01
4.176480e+02	-3.035765e+01
4.200603e+02	-3.041179e+01
4.224866e+02	-3.046340e+01
4.249268e+02	-3.051523e+01
4.273812e+02	-3.055624e+01
4.298497e+02	-3.061386e+01
4.323325e+02	-3.066146e+01
4.348297e+02	-3.071061e+01
4.373412e+02	-3.076325e+01
4.398673e+02	-3.081559e+01
4.424079e+02	-3.085864e+01
4.449633e+02	-3.091208e+01
4.475334e+02	-3.096229e+01
4.501183e+02	-3.100825e+01
4.527182e+02	-3.106203e+01
4.553330e+02	-3.111417e+01
4.579630e+02	-3.116173e+01
4.606082e+02	-3.121421e+01
4.632687e+02	-3.126670e+01
4.659445e+02	-3.131600e+01
4.686358e+02	-3.136017e+01
4.713426e+02	-3.141403e+01
4.740650e+02	-3.146431e+01
4.768032e+02	-3.150818e+01
4.795572e+02	-3.156367e+01
4.823271e+02	-3.161912e+01
4.851130e+02	-3.166500e+01
4.879150e+02	-3.171195e+01
4.907332e+02	-3.176539e+01
4.935676e+02	-3.181900e+01
4.964185e+02	-3.186864e+01
4.992858e+02	-3.191916e+01
5.021696e+02	-3.196691e+01
5.050701e+02	-3.202091e+01
5.079874e+02	-3.206865e+01
5.109215e+02	-3.211576e+01
5.138726e+02	-3.217089e+01
5.168407e+02	-3.221764e+01
5.198259e+02	-3.226936e+01
5.228284e+02	-3.232342e+01
5.258482e+02	-3.236104e+01
5.288855e+02	-3.241632e+01
5.319403e+02	-3.247024e+01
5.350128e+02	-3.251818e+01
5.381030e+02	-3.256872e+01
5.412111e+02	-3.262937e+01
5.443371e+02	-3.267184e+01
5.474812e+02	-3.272110e+01
5.506434e+02	-3.276936e+01
5.538239e+02	-3.281878e+01
5.570228e+02	-3.287385e+01
5.602401e+02	-3.292049e+01
5.634760e+02	-3.296827e+01
5.667306e+02	-3.303157e+01
5.700040e+02	-3.307001e+01
5.732964e+02	-3.311841e+01
5.766077e+02	-3.316978e+01
5.799382e+02	-3.322116e+01
5.832879e+02	-3.326784e+01
5.866569e+02	-3.332434e+01
5.900454e+02	-3.337842e+01
5.934535e+02	-3.342070e+01
5.968813e+02	-3.347238e+01
6.003288e+02	-3.352277e+01
6.037963e+02	-3.357528e+01
6.072838e+02	-3.362121e+01
6.107914e+02	-3.367416e+01
6.143194e+02	-3.372024e+01
6.178676e+02	-3.377648e+01
6.214364e+02	-3.382808e+01
6.250258e+02	-3.387407e+01
6.286359e+02	-3.392791e+01
6.322669e+02	-3.397773e+01
6.359189e+02	-3.403464e+01
6.395919e+02	-3.407584e+01
6.432862e+02	-3.412984e+01
6.470017e+02	-3.417461e+01
6.507388e+02	-3.422591e+01
6.544974e+02	-3.427442e+01
6.582778e+02	-3.432642e+01
6.620800e+02	-3.437537e+01
6.659041e+02	-3.442686e+01
6.697504e+02	-3.447563e+01
6.736188e+02	-3.453588e+01
6.775096e+02	-3.458740e+01
6.814229e+02	-3.463284e+01
6.853587e+02	-3.467499e+01
6.893173e+02	-3.473621e+01
6.932988e+02	-3.478198e+01
6.973033e+02	-3.483073e+01
7.013309e+02	-3.488206e+01
