Frequency(Hz)	Magnitude(dB)
1.000000e+01	-2.261612e+00
1.005776e+01	-2.282103e+00
1.011585e+01	-2.302695e+00
1.017428e+01	-2.323224e+00
1.023305e+01	-2.343973e+00
1.029215e+01	-2.364798e+00
1.035160e+01	-2.386145e+00
1.041139e+01	-2.407139e+00
1.047153e+01	-2.428887e+00
1.053201e+01	-2.450254e+00
1.059284e+01	-2.471635e+00
1.065403e+01	-2.493472e+00
1.071556e+01	-2.515371e+00
1.077746e+01	-2.537520e+00
1.083971e+01	-2.559732e+00
1.090232e+01	-2.582047e+00
1.096529e+01	-2.604778e+00
1.102862e+01	-2.627213e+00
1.109232e+01	-2.650019e+00
1.115639e+01	-2.672903e+00
1.122083e+01	-2.695904e+00
1.128564e+01	-2.719147e+00
1.135083e+01	-2.742425e+00
1.141639e+01	-2.765718e+00
1.148233e+01	-2.789735e+00
1.154865e+01	-2.813484e+00
1.161536e+01	-2.837174e+00
1.168245e+01	-2.861548e+00
1.174992e+01	-2.885453e+00
1.181779e+01	-2.909679e+00
1.188605e+01	-2.934459e+00
1.195470e+01	-2.959291e+00
1.202375e+01	-2.983914e+00
1.209320e+01	-3.009166e+00
1.216305e+01	-3.033845e+00
1.223330e+01	-3.058997e+00
1.230396e+01	-3.084443e+00
1.237503e+01	-3.110127e+00
1.244651e+01	-3.135883e+00
1.251840e+01	-3.161509e+00
1.259070e+01	-3.187469e+00
1.266343e+01	-3.213542e+00
1.273657e+01	-3.239795e+00
1.281014e+01	-3.266148e+00
1.288413e+01	-3.292599e+00
1.295855e+01	-3.319091e+00
1.303339e+01	-3.346062e+00
1.310867e+01	-3.372939e+00
1.318439e+01	-3.400281e+00
1.326054e+01	-3.427216e+00
1.333713e+01	-3.454515e+00
1.341417e+01	-3.482208e+00
1.349165e+01	-3.509694e+00
1.356958e+01	-3.537822e+00
1.364795e+01	-3.565426e+00
1.372678e+01	-3.593589e+00
1.380607e+01	-3.622043e+00
1.388581e+01	-3.650071e+00
1.396602e+01	-3.678979e+00
1.404668e+01	-3.707331e+00
1.412782e+01	-3.736229e+00
1.420942e+01	-3.765161e+00
1.429149e+01	-3.794207e+00
1.437404e+01	-3.823469e+00
1.445706e+01	-3.852829e+00
1.454057e+01	-3.882340e+00
1.462455e+01	-3.911853e+00
1.470902e+01	-3.941640e+00
1.479398e+01	-3.971842e+00
1.487943e+01	-4.001709e+00
1.496537e+01	-4.031900e+00
1.505181e+01	-4.062180e+00
1.513875e+01	-4.092540e+00
1.522619e+01	-4.123250e+00
1.531414e+01	-4.154149e+00
1.540259e+01	-4.184627e+00
1.549156e+01	-4.215764e+00
1.558103e+01	-4.247020e+00
1.567103e+01	-4.278530e+00
1.576155e+01	-4.309828e+00
1.585258e+01	-4.341290e+00
1.594415e+01	-4.372715e+00
1.603624e+01	-4.404796e+00
1.612886e+01	-4.436670e+00
1.622202e+01	-4.468715e+00
1.631572e+01	-4.500839e+00
1.640996e+01	-4.533424e+00
1.650474e+01	-4.565750e+00
1.660008e+01	-4.598483e+00
1.669596e+01	-4.631358e+00
1.679239e+01	-4.663848e+00
1.688938e+01	-4.697174e+00
1.698694e+01	-4.730097e+00
1.708505e+01	-4.763398e+00
1.718373e+01	-4.797077e+00
1.728299e+01	-4.830477e+00
1.738281e+01	-4.863996e+00
1.748322e+01	-4.897644e+00
1.758420e+01	-4.931554e+00
1.768576e+01	-4.965656e+00
1.778792e+01	-4.999854e+00
1.789066e+01	-5.034119e+00
1.799399e+01	-5.068262e+00
1.809793e+01	-5.102697e+00
1.820246e+01	-5.137385e+00
1.830760e+01	-5.172679e+00
1.841334e+01	-5.207393e+00
1.851969e+01	-5.242060e+00
1.862666e+01	-5.277126e+00
1.873425e+01	-5.312673e+00
1.884246e+01	-5.347818e+00
1.895129e+01	-5.383371e+00
1.906075e+01	-5.418822e+00
1.917085e+01	-5.454898e+00
1.928158e+01	-5.490382e+00
1.939295e+01	-5.526598e+00
1.950496e+01	-5.562647e+00
1.961762e+01	-5.598966e+00
1.973093e+01	-5.635177e+00
1.984490e+01	-5.671623e+00
1.995952e+01	-5.707981e+00
2.007480e+01	-5.744721e+00
2.019076e+01	-5.781568e+00
2.030738e+01	-5.818180e+00
2.042467e+01	-5.855281e+00
2.054264e+01	-5.892513e+00
2.066130e+01	-5.929556e+00
2.078064e+01	-5.967119e+00
2.090066e+01	-6.003999e+00
2.102139e+01	-6.041783e+00
2.114280e+01	-6.079262e+00
2.126492e+01	-6.117281e+00
2.138775e+01	-6.155211e+00
2.151128e+01	-6.193207e+00
2.163553e+01	-6.231173e+00
2.176050e+01	-6.268921e+00
2.188619e+01	-6.307514e+00
2.201260e+01	-6.345570e+00
2.213974e+01	-6.384776e+00
2.226762e+01	-6.422659e+00
2.239624e+01	-6.461234e+00
2.252560e+01	-6.500182e+00
2.265571e+01	-6.539491e+00
2.278656e+01	-6.577813e+00
2.291818e+01	-6.617235e+00
2.305055e+01	-6.656473e+00
2.318369e+01	-6.695845e+00
2.331760e+01	-6.735123e+00
2.345228e+01	-6.774952e+00
2.358774e+01	-6.814272e+00
2.372398e+01	-6.853608e+00
2.386101e+01	-6.893380e+00
2.399883e+01	-6.933283e+00
2.413745e+01	-6.973222e+00
2.427686e+01	-7.013567e+00
2.441709e+01	-7.053927e+00
2.455812e+01	-7.093273e+00
2.469997e+01	-7.133957e+00
2.484263e+01	-7.174146e+00
2.498612e+01	-7.214659e+00
2.513044e+01	-7.255460e+00
2.527559e+01	-7.295603e+00
2.542158e+01	-7.336682e+00
2.556842e+01	-7.377715e+00
2.571610e+01	-7.418493e+00
2.586463e+01	-7.459624e+00
2.601403e+01	-7.500602e+00
2.616428e+01	-7.541918e+00
2.631541e+01	-7.583168e+00
2.646740e+01	-7.624222e+00
2.662028e+01	-7.665774e+00
2.677404e+01	-7.707516e+00
2.692868e+01	-7.749241e+00
2.708422e+01	-7.791018e+00
2.724066e+01	-7.832487e+00
2.739800e+01	-7.873445e+00
2.755625e+01	-7.915651e+00
2.771541e+01	-7.957791e+00
2.787550e+01	-8.000147e+00
2.803650e+01	-8.042156e+00
2.819844e+01	-8.084247e+00
2.836131e+01	-8.126485e+00
2.852513e+01	-8.169133e+00
2.868989e+01	-8.211647e+00
2.885560e+01	-8.253884e+00
2.902227e+01	-8.296542e+00
2.918990e+01	-8.339252e+00
2.935850e+01	-8.382202e+00
2.952807e+01	-8.424963e+00
2.969863e+01	-8.467771e+00
2.987016e+01	-8.510705e+00
3.004269e+01	-8.553673e+00
3.021622e+01	-8.596473e+00
3.039075e+01	-8.639616e+00
3.056628e+01	-8.682891e+00
3.074283e+01	-8.726711e+00
3.092040e+01	-8.769960e+00
3.109900e+01	-8.813138e+00
3.127862e+01	-8.856641e+00
3.145929e+01	-8.900023e+00
3.164099e+01	-8.943842e+00
3.182375e+01	-8.987650e+00
3.200756e+01	-9.030605e+00
3.219244e+01	-9.075050e+00
3.237838e+01	-9.118890e+00
3.256540e+01	-9.162797e+00
3.275349e+01	-9.207045e+00
3.294268e+01	-9.250917e+00
3.313295e+01	-9.294773e+00
3.332433e+01	-9.339277e+00
3.351681e+01	-9.383273e+00
3.371040e+01	-9.427437e+00
3.390511e+01	-9.471947e+00
3.410094e+01	-9.516457e+00
3.429791e+01	-9.561529e+00
3.449601e+01	-9.605163e+00
3.469526e+01	-9.650093e+00
3.489566e+01	-9.694303e+00
3.509721e+01	-9.739328e+00
3.529993e+01	-9.783791e+00
3.550382e+01	-9.828847e+00
3.570889e+01	-9.873438e+00
3.591515e+01	-9.918673e+00
3.612259e+01	-9.963607e+00
3.633123e+01	-1.000838e+01
3.654108e+01	-1.005373e+01
3.675214e+01	-1.009882e+01
3.696442e+01	-1.014390e+01
3.717792e+01	-1.018871e+01
3.739266e+01	-1.023450e+01
3.760864e+01	-1.027968e+01
3.782587e+01	-1.032574e+01
3.804435e+01	-1.037052e+01
3.826409e+01	-1.041612e+01
3.848510e+01	-1.046147e+01
3.870739e+01	-1.050683e+01
3.893096e+01	-1.055287e+01
3.915583e+01	-1.059806e+01
3.938199e+01	-1.064375e+01
3.960946e+01	-1.069022e+01
3.983824e+01	-1.073507e+01
4.006834e+01	-1.078090e+01
4.029978e+01	-1.082649e+01
4.053255e+01	-1.087273e+01
4.076666e+01	-1.091896e+01
4.100213e+01	-1.096560e+01
4.123896e+01	-1.101148e+01
4.147715e+01	-1.105705e+01
4.171672e+01	-1.110397e+01
4.195767e+01	-1.114980e+01
4.220002e+01	-1.119538e+01
4.244377e+01	-1.124197e+01
4.268892e+01	-1.128810e+01
4.293549e+01	-1.133425e+01
4.318348e+01	-1.138098e+01
4.343291e+01	-1.142727e+01
4.368377e+01	-1.147319e+01
4.393609e+01	-1.152080e+01
4.418986e+01	-1.156663e+01
4.444510e+01	-1.161328e+01
4.470182e+01	-1.165980e+01
4.496001e+01	-1.170631e+01
4.521970e+01	-1.175291e+01
4.548089e+01	-1.179955e+01
4.574358e+01	-1.184675e+01
4.600779e+01	-1.189410e+01
4.627353e+01	-1.194026e+01
4.654081e+01	-1.198654e+01
4.680963e+01	-1.203266e+01
4.708000e+01	-1.208084e+01
4.735193e+01	-1.212778e+01
4.762543e+01	-1.217465e+01
4.790051e+01	-1.222136e+01
4.817719e+01	-1.226896e+01
4.845545e+01	-1.231577e+01
4.873533e+01	-1.236294e+01
4.901682e+01	-1.240976e+01
4.929994e+01	-1.245687e+01
4.958470e+01	-1.250484e+01
4.987110e+01	-1.255152e+01
5.015915e+01	-1.259895e+01
5.044887e+01	-1.264606e+01
5.074026e+01	-1.269406e+01
5.103333e+01	-1.274057e+01
5.132810e+01	-1.278847e+01
5.162457e+01	-1.283632e+01
5.192275e+01	-1.288297e+01
5.222265e+01	-1.293089e+01
5.252429e+01	-1.297790e+01
5.282767e+01	-1.302627e+01
5.313280e+01	-1.307354e+01
5.343969e+01	-1.312063e+01
5.374836e+01	-1.316832e+01
5.405880e+01	-1.321630e+01
5.437105e+01	-1.326357e+01
5.468509e+01	-1.331143e+01
5.500095e+01	-1.335918e+01
5.531863e+01	-1.340709e+01
5.563815e+01	-1.345479e+01
5.595951e+01	-1.350244e+01
5.628273e+01	-1.354983e+01
5.660782e+01	-1.359830e+01
5.693479e+01	-1.364584e+01
5.726364e+01	-1.369330e+01
5.759439e+01	-1.374101e+01
5.792705e+01	-1.378914e+01
5.826164e+01	-1.383753e+01
5.859815e+01	-1.388597e+01
5.893662e+01	-1.393322e+01
5.927703e+01	-1.398160e+01
5.961941e+01	-1.402953e+01
5.996377e+01	-1.407731e+01
6.031012e+01	-1.412488e+01
6.065847e+01	-1.417365e+01
6.100883e+01	-1.422188e+01
6.136121e+01	-1.427049e+01
6.171563e+01	-1.431824e+01
6.207210e+01	-1.436575e+01
6.243063e+01	-1.441496e+01
6.279122e+01	-1.446281e+01
6.315390e+01	-1.451135e+01
6.351868e+01	-1.455955e+01
6.388556e+01	-1.460757e+01
6.425456e+01	-1.465575e+01
6.462569e+01	-1.470405e+01
6.499897e+01	-1.475278e+01
6.537440e+01	-1.480101e+01
6.575200e+01	-1.484900e+01
6.613178e+01	-1.489771e+01
6.651375e+01	-1.494584e+01
6.689793e+01	-1.499489e+01
6.728433e+01	-1.504325e+01
6.767297e+01	-1.509002e+01
6.806384e+01	-1.514017e+01
6.845698e+01	-1.518880e+01
6.885238e+01	-1.523725e+01
6.925007e+01	-1.528559e+01
6.965005e+01	-1.533453e+01
7.005235e+01	-1.538173e+01
7.045697e+01	-1.543114e+01
7.086393e+01	-1.547977e+01
7.127323e+01	-1.552878e+01
7.168490e+01	-1.557736e+01
7.209895e+01	-1.562536e+01
7.251539e+01	-1.567493e+01
7.293424e+01	-1.572277e+01
7.335551e+01	-1.577097e+01
7.377920e+01	-1.582064e+01
7.420535e+01	-1.586952e+01
7.463396e+01	-1.591886e+01
7.506504e+01	-1.596676e+01
7.549861e+01	-1.601573e+01
7.593469e+01	-1.606459e+01
7.637328e+01	-1.611275e+01
7.681441e+01	-1.616373e+01
7.725809e+01	-1.621132e+01
7.770433e+01	-1.626034e+01
7.815315e+01	-1.630950e+01
7.860456e+01	-1.635627e+01
7.905857e+01	-1.640582e+01
7.951521e+01	-1.645559e+01
7.997449e+01	-1.650470e+01
8.043642e+01	-1.655338e+01
8.090102e+01	-1.660210e+01
8.136830e+01	-1.665119e+01
8.183828e+01	-1.670052e+01
8.231097e+01	-1.674925e+01
8.278640e+01	-1.679788e+01
8.326457e+01	-1.684678e+01
8.374550e+01	-1.689582e+01
8.422921e+01	-1.694424e+01
8.471572e+01	-1.699336e+01
8.520503e+01	-1.704289e+01
8.569717e+01	-1.709179e+01
8.619215e+01	-1.714046e+01
8.669000e+01	-1.718952e+01
8.719071e+01	-1.723895e+01
8.769432e+01	-1.728835e+01
8.820084e+01	-1.733721e+01
8.871029e+01	-1.738752e+01
8.922267e+01	-1.743570e+01
8.973802e+01	-1.748441e+01
9.025634e+01	-1.753420e+01
9.077766e+01	-1.758228e+01
9.130199e+01	-1.763112e+01
9.182935e+01	-1.768139e+01
9.235975e+01	-1.773042e+01
9.289321e+01	-1.777864e+01
9.342976e+01	-1.782955e+01
9.396941e+01	-1.787799e+01
9.451217e+01	-1.792642e+01
9.505807e+01	-1.797738e+01
9.560712e+01	-1.802542e+01
9.615934e+01	-1.807461e+01
9.671476e+01	-1.812344e+01
9.727338e+01	-1.817458e+01
9.783522e+01	-1.822221e+01
9.840032e+01	-1.827125e+01
9.896867e+01	-1.832168e+01
9.954031e+01	-1.837139e+01
1.001153e+02	-1.841945e+01
1.006935e+02	-1.846948e+01
1.012751e+02	-1.851821e+01
1.018601e+02	-1.856910e+01
1.024484e+02	-1.861604e+01
1.030402e+02	-1.866576e+01
1.036353e+02	-1.871659e+01
1.042339e+02	-1.876590e+01
1.048360e+02	-1.881434e+01
1.054415e+02	-1.886328e+01
1.060505e+02	-1.891404e+01
1.066631e+02	-1.896216e+01
1.072791e+02	-1.901217e+01
1.078988e+02	-1.906196e+01
1.085220e+02	-1.911051e+01
1.091488e+02	-1.916199e+01
1.097793e+02	-1.921095e+01
1.104133e+02	-1.925710e+01
1.110511e+02	-1.930779e+01
1.116925e+02	-1.935752e+01
1.123376e+02	-1.940802e+01
1.129865e+02	-1.945591e+01
1.136391e+02	-1.950627e+01
1.142955e+02	-1.955564e+01
1.149556e+02	-1.960557e+01
1.156196e+02	-1.965534e+01
1.162874e+02	-1.970382e+01
1.169591e+02	-1.975395e+01
1.176347e+02	-1.980545e+01
1.183141e+02	-1.985302e+01
1.189975e+02	-1.990319e+01
1.196848e+02	-1.995335e+01
1.203761e+02	-2.000325e+01
1.210714e+02	-2.005228e+01
1.217707e+02	-2.010275e+01
1.224740e+02	-2.014834e+01
1.231814e+02	-2.020136e+01
1.238929e+02	-2.024893e+01
1.246085e+02	-2.029985e+01
1.253283e+02	-2.034775e+01
1.260522e+02	-2.039919e+01
1.267802e+02	-2.044834e+01
1.275125e+02	-2.049581e+01
1.282490e+02	-2.054858e+01
1.289898e+02	-2.059746e+01
1.297348e+02	-2.064545e+01
1.304842e+02	-2.069564e+01
1.312378e+02	-2.074432e+01
1.319959e+02	-2.079301e+01
1.327583e+02	-2.084318e+01
1.335251e+02	-2.089276e+01
1.342963e+02	-2.094362e+01
1.350720e+02	-2.099410e+01
1.358522e+02	-2.104159e+01
1.366368e+02	-2.109386e+01
1.374260e+02	-2.114173e+01
1.382198e+02	-2.119312e+01
1.390182e+02	-2.124141e+01
1.398211e+02	-2.129234e+01
1.406287e+02	-2.134060e+01
1.414410e+02	-2.139107e+01
1.422579e+02	-2.143810e+01
1.430796e+02	-2.149050e+01
1.439060e+02	-2.154083e+01
1.447372e+02	-2.158974e+01
1.455732e+02	-2.163982e+01
1.464141e+02	-2.168804e+01
1.472597e+02	-2.173791e+01
1.481103e+02	-2.178902e+01
1.489658e+02	-2.183827e+01
1.498262e+02	-2.189025e+01
1.506916e+02	-2.193927e+01
1.515620e+02	-2.198828e+01
1.524374e+02	-2.203671e+01
1.533179e+02	-2.208768e+01
1.542034e+02	-2.213640e+01
1.550941e+02	-2.218518e+01
1.559899e+02	-2.223568e+01
1.568909e+02	-2.228577e+01
1.577971e+02	-2.233655e+01
1.587085e+02	-2.238280e+01
1.596252e+02	-2.243476e+01
1.605472e+02	-2.248548e+01
1.614745e+02	-2.253559e+01
1.624072e+02	-2.258520e+01
1.633453e+02	-2.263346e+01
1.642887e+02	-2.268359e+01
1.652377e+02	-2.273281e+01
1.661921e+02	-2.278269e+01
1.671520e+02	-2.283142e+01
1.681175e+02	-2.288270e+01
1.690885e+02	-2.293534e+01
1.700651e+02	-2.298300e+01
1.710474e+02	-2.303414e+01
1.720354e+02	-2.308219e+01
1.730291e+02	-2.313097e+01
1.740285e+02	-2.318176e+01
1.750337e+02	-2.323029e+01
1.760446e+02	-2.327969e+01
1.770615e+02	-2.333156e+01
1.780842e+02	-2.338159e+01
1.791128e+02	-2.343113e+01
1.801473e+02	-2.348027e+01
1.811878e+02	-2.353194e+01
1.822344e+02	-2.357947e+01
1.832870e+02	-2.362963e+01
1.843456e+02	-2.367925e+01
1.854104e+02	-2.373251e+01
1.864813e+02	-2.377807e+01
1.875584e+02	-2.383008e+01
1.886418e+02	-2.387966e+01
1.897313e+02	-2.393037e+01
1.908272e+02	-2.397841e+01
1.919294e+02	-2.402751e+01
1.930380e+02	-2.407993e+01
1.941530e+02	-2.412684e+01
1.952744e+02	-2.417759e+01
1.964023e+02	-2.422834e+01
1.975367e+02	-2.427866e+01
1.986777e+02	-2.432609e+01
1.998252e+02	-2.437890e+01
2.009794e+02	-2.442824e+01
2.021403e+02	-2.447758e+01
2.033078e+02	-2.452903e+01
2.044821e+02	-2.457871e+01
2.056632e+02	-2.462782e+01
2.068511e+02	-2.467868e+01
2.080459e+02	-2.472773e+01
2.092475e+02	-2.477718e+01
2.104561e+02	-2.482610e+01
2.116717e+02	-2.487722e+01
2.128943e+02	-2.492519e+01
2.141240e+02	-2.497901e+01
2.153608e+02	-2.503071e+01
2.166047e+02	-2.507499e+01
2.178558e+02	-2.512559e+01
2.191141e+02	-2.517554e+01
2.203797e+02	-2.522460e+01
2.216526e+02	-2.527711e+01
2.229329e+02	-2.532728e+01
2.242205e+02	-2.537432e+01
2.255156e+02	-2.542631e+01
2.268182e+02	-2.547579e+01
2.281283e+02	-2.552371e+01
2.294459e+02	-2.557521e+01
2.307712e+02	-2.562471e+01
2.321041e+02	-2.567500e+01
2.334447e+02	-2.572838e+01
2.347931e+02	-2.577486e+01
2.361493e+02	-2.582592e+01
2.375133e+02	-2.587567e+01
2.388851e+02	-2.592661e+01
2.402649e+02	-2.597409e+01
2.416527e+02	-2.602484e+01
2.430484e+02	-2.607495e+01
2.444523e+02	-2.612467e+01
2.458642e+02	-2.617371e+01
2.472843e+02	-2.622530e+01
2.487126e+02	-2.627288e+01
2.501492e+02	-2.632497e+01
2.515940e+02	-2.637408e+01
2.530472e+02	-2.642386e+01
2.545088e+02	-2.647704e+01
2.559789e+02	-2.652413e+01
2.574574e+02	-2.657516e+01
2.589444e+02	-2.662675e+01
2.604401e+02	-2.667487e+01
2.619444e+02	-2.672007e+01
2.634574e+02	-2.677692e+01
2.649791e+02	-2.682580e+01
2.665096e+02	-2.687370e+01
2.680489e+02	-2.692384e+01
2.695972e+02	-2.697841e+01
2.711544e+02	-2.702562e+01
2.727205e+02	-2.707393e+01
2.742958e+02	-2.712308e+01
2.758801e+02	-2.717395e+01
2.774736e+02	-2.722227e+01
2.790762e+02	-2.727523e+01
2.806882e+02	-2.732491e+01
2.823094e+02	-2.737265e+01
2.839400e+02	-2.742461e+01
2.855800e+02	-2.747604e+01
2.872295e+02	-2.752780e+01
2.888886e+02	-2.757729e+01
2.905572e+02	-2.762547e+01
2.922354e+02	-2.767333e+01
2.939234e+02	-2.772874e+01
2.956211e+02	-2.777634e+01
2.973286e+02	-2.782895e+01
2.990459e+02	-2.787712e+01
3.007732e+02	-2.792120e+01
3.025104e+02	-2.797521e+01
3.042577e+02	-2.802523e+01
3.060151e+02	-2.807726e+01
3.077826e+02	-2.812794e+01
3.095604e+02	-2.817792e+01
3.113484e+02	-2.822754e+01
3.131467e+02	-2.827415e+01
3.149554e+02	-2.832707e+01
3.167746e+02	-2.837319e+01
3.186043e+02	-2.842634e+01
3.204445e+02	-2.847398e+01
3.222954e+02	-2.852668e+01
3.241570e+02	-2.857148e+01
3.260293e+02	-2.862367e+01
3.279124e+02	-2.867650e+01
3.298064e+02	-2.872735e+01
3.317114e+02	-2.878407e+01
3.336273e+02	-2.882129e+01
3.355544e+02	-2.887310e+01
3.374925e+02	-2.892795e+01
3.394418e+02	-2.897397e+01
3.414024e+02	-2.902460e+01
3.433744e+02	-2.907576e+01
3.453577e+02	-2.912613e+01
3.473525e+02	-2.917646e+01
3.493588e+02	-2.922636e+01
3.513766e+02	-2.927389e+01
3.534062e+02	-2.932819e+01
3.554474e+02	-2.937213e+01
3.575005e+02	-2.942473e+01
3.595654e+02	-2.947625e+01
3.616422e+02	-2.952905e+01
3.637311e+02	-2.957175e+01
3.658320e+02	-2.962072e+01
3.679450e+02	-2.967685e+01
3.700702e+02	-2.972389e+01
3.722077e+02	-2.977677e+01
3.743576e+02	-2.982653e+01
3.765199e+02	-2.987931e+01
3.786946e+02	-2.993249e+01
3.808820e+02	-2.997889e+01
3.830819e+02	-3.002269e+01
3.852946e+02	-3.007755e+01
3.875200e+02	-3.013382e+01
3.897583e+02	-3.017772e+01
3.920096e+02	-3.022883e+01
3.942738e+02	-3.027849e+01
3.965511e+02	-3.032417e+01
3.988416e+02	-3.037625e+01
4.011452e+02	-3.042960e+01
4.034622e+02	-3.047961e+01
4.057926e+02	-3.053408e+01
4.081365e+02	-3.058072e+01
4.104938e+02	-3.063155e+01
4.128648e+02	-3.068191e+01
4.152495e+02	-3.073225e+01
4.176480e+02	-3.077763e+01
4.200603e+02	-3.082932e+01
4.224866e+02	-3.088240e+01
4.249268e+02	-3.092840e+01
4.273812e+02	-3.097590e+01
4.298497e+02	-3.103128e+01
4.323325e+02	-3.107679e+01
4.348297e+02	-3.113107e+01
4.373412e+02	-3.118085e+01
4.398673e+02	-3.122948e+01
4.424079e+02	-3.128313e+01
4.449633e+02	-3.133014e+01
4.475334e+02	-3.138606e+01
4.501183e+02	-3.142883e+01
4.527182e+02	-3.147501e+01
4.553330e+02	-3.152856e+01
4.579630e+02	-3.158144e+01
4.606082e+02	-3.163293e+01
4.632687e+02	-3.168024e+01
4.659445e+02	-3.173477e+01
4.686358e+02	-3.177619e+01
4.713426e+02	-3.183084e+01
4.740650e+02	-3.188818e+01
4.768032e+02	-3.193012e+01
4.795572e+02	-3.198782e+01
4.823271e+02	-3.202973e+01
4.851130e+02	-3.208649e+01
4.879150e+02	-3.213362e+01
4.907332e+02	-3.218618e+01
4.935676e+02	-3.223496e+01
4.964185e+02	-3.228908e+01
4.992858e+02	-3.232662e+01
5.021696e+02	-3.238501e+01
5.050701e+02	-3.243592e+01
5.079874e+02	-3.248572e+01
5.109215e+02	-3.253175e+01
5.138726e+02	-3.258359e+01
5.168407e+02	-3.263716e+01
5.198259e+02	-3.268152e+01
5.228284e+02	-3.273584e+01
5.258482e+02	-3.278767e+01
5.288855e+02	-3.283987e+01
5.319403e+02	-3.288609e+01
5.350128e+02	-3.294111e+01
5.381030e+02	-3.298372e+01
5.412111e+02	-3.303163e+01
5.443371e+02	-3.308550e+01
5.474812e+02	-3.313554e+01
5.506434e+02	-3.319398e+01
5.538239e+02	-3.324505e+01
5.570228e+02	-3.329076e+01
5.602401e+02	-3.333906e+01
5.634760e+02	-3.339500e+01
5.667306e+02	-3.344045e+01
5.700040e+02	-3.349655e+01
5.732964e+02	-3.354090e+01
5.766077e+02	-3.359709e+01
5.799382e+02	-3.363265e+01
5.832879e+02	-3.369000e+01
5.866569e+02	-3.374223e+01
5.900454e+02	-3.379759e+01
5.934535e+02	-3.383794e+01
5.968813e+02	-3.389329e+01
6.003288e+02	-3.394040e+01
6.037963e+02	-3.399048e+01
6.072838e+02	-3.404169e+01
6.107914e+02	-3.409114e+01
6.143194e+02	-3.413842e+01
6.178676e+02	-3.419666e+01
6.214364e+02	-3.425200e+01
6.250258e+02	-3.429051e+01
6.286359e+02	-3.435018e+01
6.322669e+02	-3.439339e+01
6.359189e+02	-3.444624e+01
6.395919e+02	-3.450431e+01
6.432862e+02	-3.454507e+01
6.470017e+02	-3.459535e+01
6.507388e+02	-3.465069e+01
6.544974e+02	-3.470078e+01
6.582778e+02	-3.475478e+01
6.620800e+02	-3.479447e+01
6.659041e+02	-3.484105e+01
6.697504e+02	-3.489274e+01
6.736188e+02	-3.494583e+01
6.775096e+02	-3.500517e+01
6.814229e+02	-3.505216e+01
6.853587e+02	-3.509370e+01
6.893173e+02	-3.514784e+01
6.932988e+02	-3.520312e+01
6.973033e+02	-3.525214e+01
7.013309e+02	-3.528858e+01
