Frequency(Hz)	Magnitude(dB)
1.000000e+01	-2.263296e+00
1.005776e+01	-2.283550e+00
1.011585e+01	-2.304106e+00
1.017428e+01	-2.324369e+00
1.023305e+01	-2.345262e+00
1.029215e+01	-2.366320e+00
1.035160e+01	-2.387351e+00
1.041139e+01	-2.408807e+00
1.047153e+01	-2.429908e+00
1.053201e+01	-2.451504e+00
1.059284e+01	-2.473151e+00
1.065403e+01	-2.495146e+00
1.071556e+01	-2.516673e+00
1.077746e+01	-2.538967e+00
1.083971e+01	-2.561299e+00
1.090232e+01	-2.583461e+00
1.096529e+01	-2.606029e+00
1.102862e+01	-2.628754e+00
1.109232e+01	-2.651503e+00
1.115639e+01	-2.674246e+00
1.122083e+01	-2.697188e+00
1.128564e+01	-2.720728e+00
1.135083e+01	-2.744069e+00
1.141639e+01	-2.767679e+00
1.148233e+01	-2.791204e+00
1.154865e+01	-2.814836e+00
1.161536e+01	-2.838852e+00
1.168245e+01	-2.862962e+00
1.174992e+01	-2.887276e+00
1.181779e+01	-2.911741e+00
1.188605e+01	-2.936064e+00
1.195470e+01	-2.960754e+00
1.202375e+01	-2.985545e+00
1.209320e+01	-3.010421e+00
1.216305e+01	-3.035444e+00
1.223330e+01	-3.060925e+00
1.230396e+01	-3.086294e+00
1.237503e+01	-3.111773e+00
1.244651e+01	-3.137420e+00
1.251840e+01	-3.163244e+00
1.259070e+01	-3.189078e+00
1.266343e+01	-3.214945e+00
1.273657e+01	-3.241759e+00
1.281014e+01	-3.267802e+00
1.288413e+01	-3.294363e+00
1.295855e+01	-3.320715e+00
1.303339e+01	-3.347672e+00
1.310867e+01	-3.374540e+00
1.318439e+01	-3.401949e+00
1.326054e+01	-3.428985e+00
1.333713e+01	-3.456402e+00
1.341417e+01	-3.484058e+00
1.349165e+01	-3.511817e+00
1.356958e+01	-3.539813e+00
1.364795e+01	-3.567493e+00
1.372678e+01	-3.595320e+00
1.380607e+01	-3.623885e+00
1.388581e+01	-3.652074e+00
1.396602e+01	-3.680588e+00
1.404668e+01	-3.709450e+00
1.412782e+01	-3.738242e+00
1.420942e+01	-3.767219e+00
1.429149e+01	-3.795956e+00
1.437404e+01	-3.825400e+00
1.445706e+01	-3.854452e+00
1.454057e+01	-3.884235e+00
1.462455e+01	-3.913966e+00
1.470902e+01	-3.943377e+00
1.479398e+01	-3.973617e+00
1.487943e+01	-4.003850e+00
1.496537e+01	-4.033929e+00
1.505181e+01	-4.064385e+00
1.513875e+01	-4.094696e+00
1.522619e+01	-4.125310e+00
1.531414e+01	-4.155865e+00
1.540259e+01	-4.187040e+00
1.549156e+01	-4.217875e+00
1.558103e+01	-4.248939e+00
1.567103e+01	-4.280523e+00
1.576155e+01	-4.311666e+00
1.585258e+01	-4.343365e+00
1.594415e+01	-4.375041e+00
1.603624e+01	-4.406931e+00
1.612886e+01	-4.438771e+00
1.622202e+01	-4.470971e+00
1.631572e+01	-4.503070e+00
1.640996e+01	-4.535344e+00
1.650474e+01	-4.567733e+00
1.660008e+01	-4.600464e+00
1.669596e+01	-4.633364e+00
1.679239e+01	-4.666247e+00
1.688938e+01	-4.699017e+00
1.698694e+01	-4.732564e+00
1.708505e+01	-4.765399e+00
1.718373e+01	-4.799086e+00
1.728299e+01	-4.832661e+00
1.738281e+01	-4.866524e+00
1.748322e+01	-4.900032e+00
1.758420e+01	-4.933620e+00
1.768576e+01	-4.967876e+00
1.778792e+01	-5.001993e+00
1.789066e+01	-5.036267e+00
1.799399e+01	-5.070686e+00
1.809793e+01	-5.104957e+00
1.820246e+01	-5.140110e+00
1.830760e+01	-5.174829e+00
1.841334e+01	-5.209214e+00
1.851969e+01	-5.244547e+00
1.862666e+01	-5.279312e+00
1.873425e+01	-5.314891e+00
1.884246e+01	-5.350199e+00
1.895129e+01	-5.385740e+00
1.906075e+01	-5.421465e+00
1.917085e+01	-5.456989e+00
1.928158e+01	-5.492992e+00
1.939295e+01	-5.529001e+00
1.950496e+01	-5.564958e+00
1.961762e+01	-5.601154e+00
1.973093e+01	-5.637630e+00
1.984490e+01	-5.673995e+00
1.995952e+01	-5.710480e+00
2.007480e+01	-5.746817e+00
2.019076e+01	-5.783835e+00
2.030738e+01	-5.820665e+00
2.042467e+01	-5.857530e+00
2.054264e+01	-5.895015e+00
2.066130e+01	-5.931993e+00
2.078064e+01	-5.969302e+00
2.090066e+01	-6.006807e+00
2.102139e+01	-6.044309e+00
2.114280e+01	-6.081998e+00
2.126492e+01	-6.119504e+00
2.138775e+01	-6.157638e+00
2.151128e+01	-6.195856e+00
2.163553e+01	-6.233529e+00
2.176050e+01	-6.271714e+00
2.188619e+01	-6.310118e+00
2.201260e+01	-6.348421e+00
2.213974e+01	-6.386650e+00
2.226762e+01	-6.425231e+00
2.239624e+01	-6.464255e+00
2.252560e+01	-6.502827e+00
2.265571e+01	-6.541383e+00
2.278656e+01	-6.580598e+00
2.291818e+01	-6.620117e+00
2.305055e+01	-6.658790e+00
2.318369e+01	-6.698296e+00
2.331760e+01	-6.737884e+00
2.345228e+01	-6.776918e+00
2.358774e+01	-6.816230e+00
2.372398e+01	-6.856226e+00
2.386101e+01	-6.895961e+00
2.399883e+01	-6.936090e+00
2.413745e+01	-6.975787e+00
2.427686e+01	-7.015999e+00
2.441709e+01	-7.055769e+00
2.455812e+01	-7.096071e+00
2.469997e+01	-7.136652e+00
2.484263e+01	-7.177250e+00
2.498612e+01	-7.217293e+00
2.513044e+01	-7.258004e+00
2.527559e+01	-7.299073e+00
2.542158e+01	-7.339628e+00
2.556842e+01	-7.380552e+00
2.571610e+01	-7.421051e+00
2.586463e+01	-7.462634e+00
2.601403e+01	-7.503249e+00
2.616428e+01	-7.544520e+00
2.631541e+01	-7.585710e+00
2.646740e+01	-7.627243e+00
2.662028e+01	-7.668887e+00
2.677404e+01	-7.710176e+00
2.692868e+01	-7.751875e+00
2.708422e+01	-7.793283e+00
2.724066e+01	-7.834927e+00
2.739800e+01	-7.876672e+00
2.755625e+01	-7.919185e+00
2.771541e+01	-7.960432e+00
2.787550e+01	-8.002891e+00
2.803650e+01	-8.044906e+00
2.819844e+01	-8.087192e+00
2.836131e+01	-8.129444e+00
2.852513e+01	-8.171728e+00
2.868989e+01	-8.214010e+00
2.885560e+01	-8.257143e+00
2.902227e+01	-8.299561e+00
2.918990e+01	-8.342027e+00
2.935850e+01	-8.384543e+00
2.952807e+01	-8.427727e+00
2.969863e+01	-8.470961e+00
2.987016e+01	-8.513083e+00
3.004269e+01	-8.556573e+00
3.021622e+01	-8.600263e+00
3.039075e+01	-8.643028e+00
3.056628e+01	-8.685962e+00
3.074283e+01	-8.729244e+00
3.092040e+01	-8.772666e+00
3.109900e+01	-8.816038e+00
3.127862e+01	-8.859474e+00
3.145929e+01	-8.902890e+00
3.164099e+01	-8.946516e+00
3.182375e+01	-8.990729e+00
3.200756e+01	-9.034068e+00
3.219244e+01	-9.078023e+00
3.237838e+01	-9.121251e+00
3.256540e+01	-9.166129e+00
3.275349e+01	-9.209543e+00
3.294268e+01	-9.254314e+00
3.313295e+01	-9.297729e+00
3.332433e+01	-9.341872e+00
3.351681e+01	-9.386297e+00
3.371040e+01	-9.430990e+00
3.390511e+01	-9.474931e+00
3.410094e+01	-9.519257e+00
3.429791e+01	-9.563651e+00
3.449601e+01	-9.608558e+00
3.469526e+01	-9.652824e+00
3.489566e+01	-9.697561e+00
3.509721e+01	-9.741714e+00
3.529993e+01	-9.787166e+00
3.550382e+01	-9.831602e+00
3.570889e+01	-9.876663e+00
3.591515e+01	-9.921514e+00
3.612259e+01	-9.966648e+00
3.633123e+01	-1.001216e+01
3.654108e+01	-1.005675e+01
3.675214e+01	-1.010135e+01
3.696442e+01	-1.014662e+01
3.717792e+01	-1.019211e+01
3.739266e+01	-1.023708e+01
3.760864e+01	-1.028298e+01
3.782587e+01	-1.032807e+01
3.804435e+01	-1.037329e+01
3.826409e+01	-1.041932e+01
3.848510e+01	-1.046404e+01
3.870739e+01	-1.050976e+01
3.893096e+01	-1.055505e+01
3.915583e+01	-1.060154e+01
3.938199e+01	-1.064689e+01
3.960946e+01	-1.069274e+01
3.983824e+01	-1.073829e+01
4.006834e+01	-1.078488e+01
4.029978e+01	-1.083008e+01
4.053255e+01	-1.087548e+01
4.076666e+01	-1.092210e+01
4.100213e+01	-1.096782e+01
4.123896e+01	-1.101406e+01
4.147715e+01	-1.106029e+01
4.171672e+01	-1.110628e+01
4.195767e+01	-1.115242e+01
4.220002e+01	-1.119867e+01
4.244377e+01	-1.124493e+01
4.268892e+01	-1.129120e+01
4.293549e+01	-1.133763e+01
4.318348e+01	-1.138423e+01
4.343291e+01	-1.143042e+01
4.368377e+01	-1.147656e+01
4.393609e+01	-1.152345e+01
4.418986e+01	-1.156918e+01
4.444510e+01	-1.161636e+01
4.470182e+01	-1.166303e+01
4.496001e+01	-1.171003e+01
4.521970e+01	-1.175535e+01
4.548089e+01	-1.180304e+01
4.574358e+01	-1.184903e+01
4.600779e+01	-1.189646e+01
4.627353e+01	-1.194341e+01
4.654081e+01	-1.199051e+01
4.680963e+01	-1.203688e+01
4.708000e+01	-1.208386e+01
4.735193e+01	-1.213085e+01
4.762543e+01	-1.217765e+01
4.790051e+01	-1.222456e+01
4.817719e+01	-1.227105e+01
4.845545e+01	-1.231901e+01
4.873533e+01	-1.236613e+01
4.901682e+01	-1.241342e+01
4.929994e+01	-1.246067e+01
4.958470e+01	-1.250760e+01
4.987110e+01	-1.255441e+01
5.015915e+01	-1.260201e+01
5.044887e+01	-1.264936e+01
5.074026e+01	-1.269683e+01
5.103333e+01	-1.274402e+01
5.132810e+01	-1.279117e+01
5.162457e+01	-1.283907e+01
5.192275e+01	-1.288723e+01
5.222265e+01	-1.293322e+01
5.252429e+01	-1.298065e+01
5.282767e+01	-1.302822e+01
5.313280e+01	-1.307648e+01
5.343969e+01	-1.312362e+01
5.374836e+01	-1.317144e+01
5.405880e+01	-1.321920e+01
5.437105e+01	-1.326688e+01
5.468509e+01	-1.331463e+01
5.500095e+01	-1.336267e+01
5.531863e+01	-1.340966e+01
5.563815e+01	-1.345755e+01
5.595951e+01	-1.350548e+01
5.628273e+01	-1.355364e+01
5.660782e+01	-1.360083e+01
5.693479e+01	-1.364991e+01
5.726364e+01	-1.369680e+01
5.759439e+01	-1.374468e+01
5.792705e+01	-1.379289e+01
5.826164e+01	-1.384036e+01
5.859815e+01	-1.388897e+01
5.893662e+01	-1.393658e+01
5.927703e+01	-1.398529e+01
5.961941e+01	-1.403308e+01
5.996377e+01	-1.408095e+01
6.031012e+01	-1.412889e+01
6.065847e+01	-1.417634e+01
6.100883e+01	-1.422550e+01
6.136121e+01	-1.427264e+01
6.171563e+01	-1.432107e+01
6.207210e+01	-1.436944e+01
6.243063e+01	-1.441771e+01
6.279122e+01	-1.446581e+01
6.315390e+01	-1.451385e+01
6.351868e+01	-1.456241e+01
6.388556e+01	-1.460998e+01
6.425456e+01	-1.465970e+01
6.462569e+01	-1.470722e+01
6.499897e+01	-1.475531e+01
6.537440e+01	-1.480375e+01
6.575200e+01	-1.485236e+01
6.613178e+01	-1.490127e+01
6.651375e+01	-1.494907e+01
6.689793e+01	-1.499715e+01
6.728433e+01	-1.504667e+01
6.767297e+01	-1.509471e+01
6.806384e+01	-1.514228e+01
6.845698e+01	-1.519123e+01
6.885238e+01	-1.524081e+01
6.925007e+01	-1.528949e+01
6.965005e+01	-1.533689e+01
7.005235e+01	-1.538622e+01
7.045697e+01	-1.543467e+01
7.086393e+01	-1.548353e+01
7.127323e+01	-1.553137e+01
7.168490e+01	-1.558013e+01
7.209895e+01	-1.562869e+01
7.251539e+01	-1.567738e+01
7.293424e+01	-1.572599e+01
7.335551e+01	-1.577513e+01
7.377920e+01	-1.582282e+01
7.420535e+01	-1.587245e+01
7.463396e+01	-1.592175e+01
7.506504e+01	-1.596929e+01
7.549861e+01	-1.601879e+01
7.593469e+01	-1.606799e+01
7.637328e+01	-1.611615e+01
7.681441e+01	-1.616605e+01
7.725809e+01	-1.621365e+01
7.770433e+01	-1.626307e+01
7.815315e+01	-1.631239e+01
7.860456e+01	-1.636108e+01
7.905857e+01	-1.641029e+01
7.951521e+01	-1.645900e+01
7.997449e+01	-1.650742e+01
8.043642e+01	-1.655624e+01
8.090102e+01	-1.660472e+01
8.136830e+01	-1.665408e+01
8.183828e+01	-1.670311e+01
8.231097e+01	-1.675224e+01
8.278640e+01	-1.680096e+01
8.326457e+01	-1.684997e+01
8.374550e+01	-1.689858e+01
8.422921e+01	-1.694944e+01
8.471572e+01	-1.699832e+01
8.520503e+01	-1.704590e+01
8.569717e+01	-1.709533e+01
8.619215e+01	-1.714374e+01
8.669000e+01	-1.719289e+01
8.719071e+01	-1.724156e+01
8.769432e+01	-1.729182e+01
8.820084e+01	-1.734012e+01
8.871029e+01	-1.738955e+01
8.922267e+01	-1.743857e+01
8.973802e+01	-1.748771e+01
9.025634e+01	-1.753656e+01
9.077766e+01	-1.758680e+01
9.130199e+01	-1.763652e+01
9.182935e+01	-1.768446e+01
9.235975e+01	-1.773304e+01
9.289321e+01	-1.778239e+01
9.342976e+01	-1.783142e+01
9.396941e+01	-1.788143e+01
9.451217e+01	-1.793122e+01
9.505807e+01	-1.797976e+01
9.560712e+01	-1.802894e+01
9.615934e+01	-1.807891e+01
9.671476e+01	-1.812656e+01
9.727338e+01	-1.817633e+01
9.783522e+01	-1.822675e+01
9.840032e+01	-1.827541e+01
9.896867e+01	-1.832460e+01
9.954031e+01	-1.837304e+01
1.001153e+02	-1.842163e+01
1.006935e+02	-1.847304e+01
1.012751e+02	-1.852136e+01
1.018601e+02	-1.857066e+01
1.024484e+02	-1.862061e+01
1.030402e+02	-1.866951e+01
1.036353e+02	-1.871749e+01
1.042339e+02	-1.876724e+01
1.048360e+02	-1.881788e+01
1.054415e+02	-1.886599e+01
1.060505e+02	-1.891671e+01
1.066631e+02	-1.896677e+01
1.072791e+02	-1.901472e+01
1.078988e+02	-1.906446e+01
1.085220e+02	-1.911530e+01
1.091488e+02	-1.916403e+01
1.097793e+02	-1.921329e+01
1.104133e+02	-1.926200e+01
1.110511e+02	-1.931246e+01
1.116925e+02	-1.936167e+01
1.123376e+02	-1.941106e+01
1.129865e+02	-1.946140e+01
1.136391e+02	-1.950918e+01
1.142955e+02	-1.955956e+01
1.149556e+02	-1.960949e+01
1.156196e+02	-1.965935e+01
1.162874e+02	-1.970750e+01
1.169591e+02	-1.975635e+01
1.176347e+02	-1.980803e+01
1.183141e+02	-1.985562e+01
1.189975e+02	-1.990730e+01
1.196848e+02	-1.995541e+01
1.203761e+02	-2.000525e+01
1.210714e+02	-2.005417e+01
1.217707e+02	-2.010356e+01
1.224740e+02	-2.015403e+01
1.231814e+02	-2.020334e+01
1.238929e+02	-2.025313e+01
1.246085e+02	-2.030119e+01
1.253283e+02	-2.035107e+01
1.260522e+02	-2.040088e+01
1.267802e+02	-2.045065e+01
1.275125e+02	-2.050030e+01
1.282490e+02	-2.054939e+01
1.289898e+02	-2.060084e+01
1.297348e+02	-2.064921e+01
1.304842e+02	-2.070075e+01
1.312378e+02	-2.074927e+01
1.319959e+02	-2.079959e+01
1.327583e+02	-2.084726e+01
1.335251e+02	-2.089787e+01
1.342963e+02	-2.094827e+01
1.350720e+02	-2.099718e+01
1.358522e+02	-2.104623e+01
1.366368e+02	-2.109622e+01
1.374260e+02	-2.114538e+01
1.382198e+02	-2.119573e+01
1.390182e+02	-2.124626e+01
1.398211e+02	-2.129547e+01
1.406287e+02	-2.134380e+01
1.414410e+02	-2.139355e+01
1.422579e+02	-2.144315e+01
1.430796e+02	-2.149336e+01
1.439060e+02	-2.154396e+01
1.447372e+02	-2.159206e+01
1.455732e+02	-2.164304e+01
1.464141e+02	-2.169131e+01
1.472597e+02	-2.174126e+01
1.481103e+02	-2.179126e+01
1.489658e+02	-2.184130e+01
1.498262e+02	-2.189253e+01
1.506916e+02	-2.194122e+01
1.515620e+02	-2.199057e+01
1.524374e+02	-2.203925e+01
1.533179e+02	-2.208957e+01
1.542034e+02	-2.214003e+01
1.550941e+02	-2.219041e+01
1.559899e+02	-2.223804e+01
1.568909e+02	-2.228855e+01
1.577971e+02	-2.233816e+01
1.587085e+02	-2.238899e+01
1.596252e+02	-2.243855e+01
1.605472e+02	-2.248783e+01
1.614745e+02	-2.253713e+01
1.624072e+02	-2.258344e+01
1.633453e+02	-2.263781e+01
1.642887e+02	-2.268558e+01
1.652377e+02	-2.273704e+01
1.661921e+02	-2.278605e+01
1.671520e+02	-2.283628e+01
1.681175e+02	-2.288530e+01
1.690885e+02	-2.293694e+01
1.700651e+02	-2.298693e+01
1.710474e+02	-2.303721e+01
1.720354e+02	-2.308524e+01
1.730291e+02	-2.313465e+01
1.740285e+02	-2.318505e+01
1.750337e+02	-2.323454e+01
1.760446e+02	-2.328375e+01
1.770615e+02	-2.333683e+01
1.780842e+02	-2.338779e+01
1.791128e+02	-2.343235e+01
1.801473e+02	-2.348496e+01
1.811878e+02	-2.353373e+01
1.822344e+02	-2.358448e+01
1.832870e+02	-2.363473e+01
1.843456e+02	-2.368176e+01
1.854104e+02	-2.373390e+01
1.864813e+02	-2.378362e+01
1.875584e+02	-2.383190e+01
1.886418e+02	-2.388398e+01
1.897313e+02	-2.393245e+01
1.908272e+02	-2.398185e+01
1.919294e+02	-2.403433e+01
1.930380e+02	-2.408402e+01
1.941530e+02	-2.413039e+01
1.952744e+02	-2.417962e+01
1.964023e+02	-2.423265e+01
1.975367e+02	-2.428070e+01
1.986777e+02	-2.433016e+01
1.998252e+02	-2.438109e+01
2.009794e+02	-2.443229e+01
2.021403e+02	-2.448099e+01
2.033078e+02	-2.452813e+01
2.044821e+02	-2.458057e+01
2.056632e+02	-2.463124e+01
2.068511e+02	-2.468124e+01
2.080459e+02	-2.473076e+01
2.092475e+02	-2.477939e+01
2.104561e+02	-2.482713e+01
2.116717e+02	-2.487987e+01
2.128943e+02	-2.492947e+01
2.141240e+02	-2.498027e+01
2.153608e+02	-2.503051e+01
2.166047e+02	-2.508009e+01
2.178558e+02	-2.512611e+01
2.191141e+02	-2.517962e+01
2.203797e+02	-2.522925e+01
2.216526e+02	-2.527963e+01
2.229329e+02	-2.532866e+01
2.242205e+02	-2.538276e+01
2.255156e+02	-2.542852e+01
2.268182e+02	-2.547877e+01
2.281283e+02	-2.552891e+01
2.294459e+02	-2.557727e+01
2.307712e+02	-2.562803e+01
2.321041e+02	-2.567915e+01
2.334447e+02	-2.572911e+01
2.347931e+02	-2.577953e+01
2.361493e+02	-2.582479e+01
2.375133e+02	-2.587734e+01
2.388851e+02	-2.592943e+01
2.402649e+02	-2.597957e+01
2.416527e+02	-2.602847e+01
2.430484e+02	-2.608056e+01
2.444523e+02	-2.612573e+01
2.458642e+02	-2.617908e+01
2.472843e+02	-2.622869e+01
2.487126e+02	-2.627657e+01
2.501492e+02	-2.632694e+01
2.515940e+02	-2.637644e+01
2.530472e+02	-2.642897e+01
2.545088e+02	-2.647819e+01
2.559789e+02	-2.652844e+01
2.574574e+02	-2.657604e+01
2.589444e+02	-2.662785e+01
2.604401e+02	-2.667746e+01
2.619444e+02	-2.673095e+01
2.634574e+02	-2.678278e+01
2.649791e+02	-2.682600e+01
2.665096e+02	-2.687742e+01
2.680489e+02	-2.692935e+01
2.695972e+02	-2.697810e+01
2.711544e+02	-2.702719e+01
2.727205e+02	-2.707538e+01
2.742958e+02	-2.712699e+01
2.758801e+02	-2.717792e+01
2.774736e+02	-2.723037e+01
2.790762e+02	-2.727686e+01
2.806882e+02	-2.732768e+01
2.823094e+02	-2.737552e+01
2.839400e+02	-2.742839e+01
2.855800e+02	-2.747774e+01
2.872295e+02	-2.752946e+01
2.888886e+02	-2.758031e+01
2.905572e+02	-2.762735e+01
2.922354e+02	-2.767833e+01
2.939234e+02	-2.772719e+01
2.956211e+02	-2.777942e+01
2.973286e+02	-2.782994e+01
2.990459e+02	-2.787807e+01
3.007732e+02	-2.792642e+01
3.025104e+02	-2.797825e+01
3.042577e+02	-2.802720e+01
3.060151e+02	-2.807760e+01
3.077826e+02	-2.812727e+01
3.095604e+02	-2.817524e+01
3.113484e+02	-2.822697e+01
3.131467e+02	-2.827925e+01
3.149554e+02	-2.832949e+01
3.167746e+02	-2.837946e+01
3.186043e+02	-2.843167e+01
3.204445e+02	-2.847826e+01
3.222954e+02	-2.853165e+01
3.241570e+02	-2.857503e+01
3.260293e+02	-2.863144e+01
3.279124e+02	-2.868124e+01
3.298064e+02	-2.872501e+01
3.317114e+02	-2.877755e+01
3.336273e+02	-2.882821e+01
3.355544e+02	-2.888037e+01
3.374925e+02	-2.892679e+01
3.394418e+02	-2.897947e+01
3.414024e+02	-2.902673e+01
3.433744e+02	-2.908141e+01
3.453577e+02	-2.912325e+01
3.473525e+02	-2.917650e+01
3.493588e+02	-2.923023e+01
3.513766e+02	-2.927637e+01
3.534062e+02	-2.933445e+01
3.554474e+02	-2.937929e+01
3.575005e+02	-2.943151e+01
3.595654e+02	-2.947817e+01
3.616422e+02	-2.952951e+01
3.637311e+02	-2.957805e+01
3.658320e+02	-2.962646e+01
3.679450e+02	-2.967765e+01
3.700702e+02	-2.972952e+01
3.722077e+02	-2.977775e+01
3.743576e+02	-2.982651e+01
3.765199e+02	-2.988837e+01
3.786946e+02	-2.992727e+01
3.808820e+02	-2.998248e+01
3.830819e+02	-3.003352e+01
3.852946e+02	-3.007867e+01
3.875200e+02	-3.013317e+01
3.897583e+02	-3.018139e+01
3.920096e+02	-3.022992e+01
3.942738e+02	-3.028031e+01
3.965511e+02	-3.032933e+01
3.988416e+02	-3.038143e+01
4.011452e+02	-3.043518e+01
4.034622e+02	-3.047714e+01
4.057926e+02	-3.053037e+01
4.081365e+02	-3.057781e+01
4.104938e+02	-3.063601e+01
4.128648e+02	-3.068079e+01
4.152495e+02	-3.073413e+01
4.176480e+02	-3.078169e+01
4.200603e+02	-3.082652e+01
4.224866e+02	-3.087782e+01
4.249268e+02	-3.093309e+01
4.273812e+02	-3.097757e+01
4.298497e+02	-3.103115e+01
4.323325e+02	-3.108392e+01
4.348297e+02	-3.112985e+01
4.373412e+02	-3.118474e+01
4.398673e+02	-3.123448e+01
4.424079e+02	-3.127972e+01
4.449633e+02	-3.132846e+01
4.475334e+02	-3.137957e+01
4.501183e+02	-3.143348e+01
4.527182e+02	-3.148295e+01
4.553330e+02	-3.153208e+01
4.579630e+02	-3.158091e+01
4.606082e+02	-3.163563e+01
4.632687e+02	-3.168146e+01
4.659445e+02	-3.174032e+01
4.686358e+02	-3.178199e+01
4.713426e+02	-3.182797e+01
4.740650e+02	-3.188280e+01
4.768032e+02	-3.193315e+01
4.795572e+02	-3.198885e+01
4.823271e+02	-3.203079e+01
4.851130e+02	-3.208853e+01
4.879150e+02	-3.213656e+01
4.907332e+02	-3.218706e+01
4.935676e+02	-3.223675e+01
4.964185e+02	-3.227972e+01
4.992858e+02	-3.233132e+01
5.021696e+02	-3.238458e+01
5.050701e+02	-3.243262e+01
5.079874e+02	-3.248729e+01
5.109215e+02	-3.253190e+01
5.138726e+02	-3.258586e+01
5.168407e+02	-3.263997e+01
5.198259e+02	-3.269080e+01
5.228284e+02	-3.273849e+01
5.258482e+02	-3.278890e+01
5.288855e+02	-3.283856e+01
5.319403e+02	-3.288952e+01
5.350128e+02	-3.294199e+01
5.381030e+02	-3.299001e+01
5.412111e+02	-3.304273e+01
5.443371e+02	-3.309238e+01
5.474812e+02	-3.314120e+01
5.506434e+02	-3.319460e+01
5.538239e+02	-3.324439e+01
5.570228e+02	-3.329845e+01
5.602401e+02	-3.334866e+01
5.634760e+02	-3.339349e+01
5.667306e+02	-3.344122e+01
5.700040e+02	-3.349448e+01
5.732964e+02	-3.353701e+01
5.766077e+02	-3.359577e+01
5.799382e+02	-3.364238e+01
5.832879e+02	-3.368837e+01
5.866569e+02	-3.374819e+01
5.900454e+02	-3.379451e+01
5.934535e+02	-3.385222e+01
5.968813e+02	-3.389429e+01
6.003288e+02	-3.394647e+01
6.037963e+02	-3.400073e+01
6.072838e+02	-3.404521e+01
6.107914e+02	-3.409133e+01
6.143194e+02	-3.415156e+01
6.178676e+02	-3.420028e+01
6.214364e+02	-3.425786e+01
6.250258e+02	-3.429045e+01
6.286359e+02	-3.434825e+01
6.322669e+02	-3.440382e+01
6.359189e+02	-3.445806e+01
6.395919e+02	-3.450730e+01
6.432862e+02	-3.455238e+01
6.470017e+02	-3.459763e+01
6.507388e+02	-3.464861e+01
6.544974e+02	-3.469511e+01
6.582778e+02	-3.474936e+01
6.620800e+02	-3.480202e+01
6.659041e+02	-3.484951e+01
6.697504e+02	-3.490438e+01
6.736188e+02	-3.495289e+01
6.775096e+02	-3.500758e+01
6.814229e+02	-3.505879e+01
6.853587e+02	-3.510134e+01
6.893173e+02	-3.515148e+01
6.932988e+02	-3.520441e+01
6.973033e+02	-3.525565e+01
7.013309e+02	-3.530237e+01
