Frequency(Hz)	Magnitude(dB)
1.000000e+01	-2.216898e+00
1.005776e+01	-2.236865e+00
1.011585e+01	-2.257021e+00
1.017428e+01	-2.277236e+00
1.023305e+01	-2.297933e+00
1.029215e+01	-2.318523e+00
1.035160e+01	-2.339297e+00
1.041139e+01	-2.360327e+00
1.047153e+01	-2.381214e+00
1.053201e+01	-2.402580e+00
1.059284e+01	-2.423660e+00
1.065403e+01	-2.445009e+00
1.071556e+01	-2.466907e+00
1.077746e+01	-2.488593e+00
1.083971e+01	-2.510246e+00
1.090232e+01	-2.532285e+00
1.096529e+01	-2.554729e+00
1.102862e+01	-2.576921e+00
1.109232e+01	-2.599467e+00
1.115639e+01	-2.622128e+00
1.122083e+01	-2.644892e+00
1.128564e+01	-2.667645e+00
1.135083e+01	-2.690806e+00
1.141639e+01	-2.713948e+00
1.148233e+01	-2.737132e+00
1.154865e+01	-2.760736e+00
1.161536e+01	-2.784315e+00
1.168245e+01	-2.808139e+00
1.174992e+01	-2.831832e+00
1.181779e+01	-2.855978e+00
1.188605e+01	-2.880491e+00
1.195470e+01	-2.904189e+00
1.202375e+01	-2.928913e+00
1.209320e+01	-2.953495e+00
1.216305e+01	-2.978397e+00
1.223330e+01	-3.003097e+00
1.230396e+01	-3.028361e+00
1.237503e+01	-3.053368e+00
1.244651e+01	-3.078805e+00
1.251840e+01	-3.104247e+00
1.259070e+01	-3.129711e+00
1.266343e+01	-3.155667e+00
1.273657e+01	-3.181589e+00
1.281014e+01	-3.207515e+00
1.288413e+01	-3.233743e+00
1.295855e+01	-3.260129e+00
1.303339e+01	-3.286770e+00
1.310867e+01	-3.313214e+00
1.318439e+01	-3.340077e+00
1.326054e+01	-3.366759e+00
1.333713e+01	-3.393733e+00
1.341417e+01	-3.421148e+00
1.349165e+01	-3.448693e+00
1.356958e+01	-3.476125e+00
1.364795e+01	-3.503409e+00
1.372678e+01	-3.531441e+00
1.380607e+01	-3.559332e+00
1.388581e+01	-3.587398e+00
1.396602e+01	-3.615646e+00
1.404668e+01	-3.644146e+00
1.412782e+01	-3.672355e+00
1.420942e+01	-3.701109e+00
1.429149e+01	-3.729594e+00
1.437404e+01	-3.758657e+00
1.445706e+01	-3.787778e+00
1.454057e+01	-3.816806e+00
1.462455e+01	-3.846228e+00
1.470902e+01	-3.875640e+00
1.479398e+01	-3.905211e+00
1.487943e+01	-3.935131e+00
1.496537e+01	-3.964692e+00
1.505181e+01	-3.994834e+00
1.513875e+01	-4.025053e+00
1.522619e+01	-4.055251e+00
1.531414e+01	-4.085914e+00
1.540259e+01	-4.116250e+00
1.549156e+01	-4.147291e+00
1.558103e+01	-4.177754e+00
1.567103e+01	-4.208852e+00
1.576155e+01	-4.239916e+00
1.585258e+01	-4.270949e+00
1.594415e+01	-4.302310e+00
1.603624e+01	-4.334289e+00
1.612886e+01	-4.365452e+00
1.622202e+01	-4.397815e+00
1.631572e+01	-4.429464e+00
1.640996e+01	-4.461701e+00
1.650474e+01	-4.493666e+00
1.660008e+01	-4.525927e+00
1.669596e+01	-4.558436e+00
1.679239e+01	-4.591068e+00
1.688938e+01	-4.623912e+00
1.698694e+01	-4.656454e+00
1.708505e+01	-4.689622e+00
1.718373e+01	-4.722757e+00
1.728299e+01	-4.755997e+00
1.738281e+01	-4.789190e+00
1.748322e+01	-4.823124e+00
1.758420e+01	-4.856568e+00
1.768576e+01	-4.890220e+00
1.778792e+01	-4.923548e+00
1.789066e+01	-4.957853e+00
1.799399e+01	-4.992187e+00
1.809793e+01	-5.026349e+00
1.820246e+01	-5.060681e+00
1.830760e+01	-5.095151e+00
1.841334e+01	-5.130040e+00
1.851969e+01	-5.164728e+00
1.862666e+01	-5.199091e+00
1.873425e+01	-5.234479e+00
1.884246e+01	-5.269337e+00
1.895129e+01	-5.304594e+00
1.906075e+01	-5.340041e+00
1.917085e+01	-5.375597e+00
1.928158e+01	-5.410882e+00
1.939295e+01	-5.446632e+00
1.950496e+01	-5.482532e+00
1.961762e+01	-5.518506e+00
1.973093e+01	-5.554230e+00
1.984490e+01	-5.590770e+00
1.995952e+01	-5.627048e+00
2.007480e+01	-5.663208e+00
2.019076e+01	-5.699655e+00
2.030738e+01	-5.736370e+00
2.042467e+01	-5.773198e+00
2.054264e+01	-5.810031e+00
2.066130e+01	-5.847172e+00
2.078064e+01	-5.884207e+00
2.090066e+01	-5.920955e+00
2.102139e+01	-5.958270e+00
2.114280e+01	-5.995944e+00
2.126492e+01	-6.033439e+00
2.138775e+01	-6.071317e+00
2.151128e+01	-6.108723e+00
2.163553e+01	-6.146333e+00
2.176050e+01	-6.184443e+00
2.188619e+01	-6.221964e+00
2.201260e+01	-6.260426e+00
2.213974e+01	-6.298667e+00
2.226762e+01	-6.337172e+00
2.239624e+01	-6.376047e+00
2.252560e+01	-6.414049e+00
2.265571e+01	-6.452988e+00
2.278656e+01	-6.491471e+00
2.291818e+01	-6.530335e+00
2.305055e+01	-6.569317e+00
2.318369e+01	-6.608547e+00
2.331760e+01	-6.647558e+00
2.345228e+01	-6.686778e+00
2.358774e+01	-6.726249e+00
2.372398e+01	-6.765766e+00
2.386101e+01	-6.805168e+00
2.399883e+01	-6.844729e+00
2.413745e+01	-6.884375e+00
2.427686e+01	-6.924583e+00
2.441709e+01	-6.964032e+00
2.455812e+01	-7.003829e+00
2.469997e+01	-7.044678e+00
2.484263e+01	-7.084445e+00
2.498612e+01	-7.125056e+00
2.513044e+01	-7.165401e+00
2.527559e+01	-7.205848e+00
2.542158e+01	-7.246487e+00
2.556842e+01	-7.286833e+00
2.571610e+01	-7.327825e+00
2.586463e+01	-7.368297e+00
2.601403e+01	-7.408999e+00
2.616428e+01	-7.450883e+00
2.631541e+01	-7.491239e+00
2.646740e+01	-7.533067e+00
2.662028e+01	-7.573525e+00
2.677404e+01	-7.615104e+00
2.692868e+01	-7.656386e+00
2.708422e+01	-7.697725e+00
2.724066e+01	-7.739172e+00
2.739800e+01	-7.781082e+00
2.755625e+01	-7.822870e+00
2.771541e+01	-7.865268e+00
2.787550e+01	-7.906564e+00
2.803650e+01	-7.948575e+00
2.819844e+01	-7.990843e+00
2.836131e+01	-8.032574e+00
2.852513e+01	-8.074970e+00
2.868989e+01	-8.117660e+00
2.885560e+01	-8.159631e+00
2.902227e+01	-8.202121e+00
2.918990e+01	-8.244777e+00
2.935850e+01	-8.287116e+00
2.952807e+01	-8.329959e+00
2.969863e+01	-8.372330e+00
2.987016e+01	-8.415106e+00
3.004269e+01	-8.457511e+00
3.021622e+01	-8.500830e+00
3.039075e+01	-8.543851e+00
3.056628e+01	-8.586865e+00
3.074283e+01	-8.629909e+00
3.092040e+01	-8.673351e+00
3.109900e+01	-8.716701e+00
3.127862e+01	-8.759876e+00
3.145929e+01	-8.803743e+00
3.164099e+01	-8.846950e+00
3.182375e+01	-8.890315e+00
3.200756e+01	-8.933793e+00
3.219244e+01	-8.977854e+00
3.237838e+01	-9.021345e+00
3.256540e+01	-9.065315e+00
3.275349e+01	-9.109440e+00
3.294268e+01	-9.152618e+00
3.313295e+01	-9.196811e+00
3.332433e+01	-9.240223e+00
3.351681e+01	-9.284863e+00
3.371040e+01	-9.329246e+00
3.390511e+01	-9.373031e+00
3.410094e+01	-9.417433e+00
3.429791e+01	-9.462046e+00
3.449601e+01	-9.506586e+00
3.469526e+01	-9.551078e+00
3.489566e+01	-9.595127e+00
3.509721e+01	-9.639952e+00
3.529993e+01	-9.684337e+00
3.550382e+01	-9.729210e+00
3.570889e+01	-9.773380e+00
3.591515e+01	-9.818725e+00
3.612259e+01	-9.864064e+00
3.633123e+01	-9.908870e+00
3.654108e+01	-9.953214e+00
3.675214e+01	-9.997845e+00
3.696442e+01	-1.004439e+01
3.717792e+01	-1.008866e+01
3.739266e+01	-1.013341e+01
3.760864e+01	-1.017910e+01
3.782587e+01	-1.022427e+01
3.804435e+01	-1.026961e+01
3.826409e+01	-1.031458e+01
3.848510e+01	-1.035986e+01
3.870739e+01	-1.040561e+01
3.893096e+01	-1.045109e+01
3.915583e+01	-1.049676e+01
3.938199e+01	-1.054191e+01
3.960946e+01	-1.058829e+01
3.983824e+01	-1.063419e+01
4.006834e+01	-1.067955e+01
4.029978e+01	-1.072457e+01
4.053255e+01	-1.077060e+01
4.076666e+01	-1.081771e+01
4.100213e+01	-1.086294e+01
4.123896e+01	-1.090849e+01
4.147715e+01	-1.095463e+01
4.171672e+01	-1.100097e+01
4.195767e+01	-1.104655e+01
4.220002e+01	-1.109267e+01
4.244377e+01	-1.113918e+01
4.268892e+01	-1.118555e+01
4.293549e+01	-1.123108e+01
4.318348e+01	-1.127781e+01
4.343291e+01	-1.132437e+01
4.368377e+01	-1.136983e+01
4.393609e+01	-1.141675e+01
4.418986e+01	-1.146355e+01
4.444510e+01	-1.150922e+01
4.470182e+01	-1.155638e+01
4.496001e+01	-1.160271e+01
4.521970e+01	-1.164955e+01
4.548089e+01	-1.169560e+01
4.574358e+01	-1.174298e+01
4.600779e+01	-1.178888e+01
4.627353e+01	-1.183588e+01
4.654081e+01	-1.188306e+01
4.680963e+01	-1.192917e+01
4.708000e+01	-1.197591e+01
4.735193e+01	-1.202329e+01
4.762543e+01	-1.207038e+01
4.790051e+01	-1.211709e+01
4.817719e+01	-1.216414e+01
4.845545e+01	-1.221150e+01
4.873533e+01	-1.225788e+01
4.901682e+01	-1.230502e+01
4.929994e+01	-1.235222e+01
4.958470e+01	-1.239976e+01
4.987110e+01	-1.244641e+01
5.015915e+01	-1.249345e+01
5.044887e+01	-1.254083e+01
5.074026e+01	-1.258748e+01
5.103333e+01	-1.263589e+01
5.132810e+01	-1.268268e+01
5.162457e+01	-1.273079e+01
5.192275e+01	-1.277701e+01
5.222265e+01	-1.282509e+01
5.252429e+01	-1.287245e+01
5.282767e+01	-1.292042e+01
5.313280e+01	-1.296722e+01
5.343969e+01	-1.301471e+01
5.374836e+01	-1.306239e+01
5.405880e+01	-1.311137e+01
5.437105e+01	-1.315767e+01
5.468509e+01	-1.320547e+01
5.500095e+01	-1.325323e+01
5.531863e+01	-1.330013e+01
5.563815e+01	-1.334875e+01
5.595951e+01	-1.339528e+01
5.628273e+01	-1.344344e+01
5.660782e+01	-1.349152e+01
5.693479e+01	-1.353975e+01
5.726364e+01	-1.358669e+01
5.759439e+01	-1.363497e+01
5.792705e+01	-1.368296e+01
5.826164e+01	-1.372966e+01
5.859815e+01	-1.377852e+01
5.893662e+01	-1.382650e+01
5.927703e+01	-1.387442e+01
5.961941e+01	-1.392334e+01
5.996377e+01	-1.397063e+01
6.031012e+01	-1.401837e+01
6.065847e+01	-1.406669e+01
6.100883e+01	-1.411452e+01
6.136121e+01	-1.416369e+01
6.171563e+01	-1.421066e+01
6.207210e+01	-1.425895e+01
6.243063e+01	-1.430738e+01
6.279122e+01	-1.435616e+01
6.315390e+01	-1.440461e+01
6.351868e+01	-1.445153e+01
6.388556e+01	-1.450030e+01
6.425456e+01	-1.454820e+01
6.462569e+01	-1.459763e+01
6.499897e+01	-1.464457e+01
6.537440e+01	-1.469355e+01
6.575200e+01	-1.474108e+01
6.613178e+01	-1.479001e+01
6.651375e+01	-1.483775e+01
6.689793e+01	-1.488635e+01
6.728433e+01	-1.493513e+01
6.767297e+01	-1.498493e+01
6.806384e+01	-1.503209e+01
6.845698e+01	-1.508014e+01
6.885238e+01	-1.512914e+01
6.925007e+01	-1.517766e+01
6.965005e+01	-1.522529e+01
7.005235e+01	-1.527485e+01
7.045697e+01	-1.532292e+01
7.086393e+01	-1.537114e+01
7.127323e+01	-1.542022e+01
7.168490e+01	-1.546849e+01
7.209895e+01	-1.551791e+01
7.251539e+01	-1.556651e+01
7.293424e+01	-1.561547e+01
7.335551e+01	-1.566287e+01
7.377920e+01	-1.571195e+01
7.420535e+01	-1.576195e+01
7.463396e+01	-1.580925e+01
7.506504e+01	-1.585715e+01
7.549861e+01	-1.590676e+01
7.593469e+01	-1.595569e+01
7.637328e+01	-1.600409e+01
7.681441e+01	-1.605286e+01
7.725809e+01	-1.610151e+01
7.770433e+01	-1.615073e+01
7.815315e+01	-1.619991e+01
7.860456e+01	-1.624808e+01
7.905857e+01	-1.629798e+01
7.951521e+01	-1.634630e+01
7.997449e+01	-1.639581e+01
8.043642e+01	-1.644471e+01
8.090102e+01	-1.649346e+01
8.136830e+01	-1.654202e+01
8.183828e+01	-1.659039e+01
8.231097e+01	-1.663864e+01
8.278640e+01	-1.668927e+01
8.326457e+01	-1.673671e+01
8.374550e+01	-1.678643e+01
8.422921e+01	-1.683571e+01
8.471572e+01	-1.688377e+01
8.520503e+01	-1.693379e+01
8.569717e+01	-1.698219e+01
8.619215e+01	-1.703162e+01
8.669000e+01	-1.708045e+01
8.719071e+01	-1.713069e+01
8.769432e+01	-1.717802e+01
8.820084e+01	-1.722878e+01
8.871029e+01	-1.727692e+01
8.922267e+01	-1.732547e+01
8.973802e+01	-1.737596e+01
9.025634e+01	-1.742417e+01
9.077766e+01	-1.747316e+01
9.130199e+01	-1.752189e+01
9.182935e+01	-1.757202e+01
9.235975e+01	-1.762079e+01
9.289321e+01	-1.767073e+01
9.342976e+01	-1.771890e+01
9.396941e+01	-1.776757e+01
9.451217e+01	-1.781664e+01
9.505807e+01	-1.786616e+01
9.560712e+01	-1.791691e+01
9.615934e+01	-1.796534e+01
9.671476e+01	-1.801541e+01
9.727338e+01	-1.806354e+01
9.783522e+01	-1.811350e+01
9.840032e+01	-1.816341e+01
9.896867e+01	-1.821093e+01
9.954031e+01	-1.826024e+01
1.001153e+02	-1.831016e+01
1.006935e+02	-1.835951e+01
1.012751e+02	-1.840762e+01
1.018601e+02	-1.845802e+01
1.024484e+02	-1.850666e+01
1.030402e+02	-1.855571e+01
1.036353e+02	-1.860564e+01
1.042339e+02	-1.865629e+01
1.048360e+02	-1.870444e+01
1.054415e+02	-1.875275e+01
1.060505e+02	-1.880276e+01
1.066631e+02	-1.885411e+01
1.072791e+02	-1.890232e+01
1.078988e+02	-1.895171e+01
1.085220e+02	-1.900043e+01
1.091488e+02	-1.905148e+01
1.097793e+02	-1.909988e+01
1.104133e+02	-1.914906e+01
1.110511e+02	-1.919966e+01
1.116925e+02	-1.924832e+01
1.123376e+02	-1.929637e+01
1.129865e+02	-1.934650e+01
1.136391e+02	-1.939667e+01
1.142955e+02	-1.944589e+01
1.149556e+02	-1.949540e+01
1.156196e+02	-1.954354e+01
1.162874e+02	-1.959393e+01
1.169591e+02	-1.964402e+01
1.176347e+02	-1.969440e+01
1.183141e+02	-1.974395e+01
1.189975e+02	-1.979182e+01
1.196848e+02	-1.984309e+01
1.203761e+02	-1.989227e+01
1.210714e+02	-1.994082e+01
1.217707e+02	-1.999011e+01
1.224740e+02	-2.004134e+01
1.231814e+02	-2.008985e+01
1.238929e+02	-2.013960e+01
1.246085e+02	-2.018868e+01
1.253283e+02	-2.023670e+01
1.260522e+02	-2.028798e+01
1.267802e+02	-2.033783e+01
1.275125e+02	-2.038686e+01
1.282490e+02	-2.043697e+01
1.289898e+02	-2.048569e+01
1.297348e+02	-2.053503e+01
1.304842e+02	-2.058535e+01
1.312378e+02	-2.063320e+01
1.319959e+02	-2.068477e+01
1.327583e+02	-2.073562e+01
1.335251e+02	-2.078150e+01
1.342963e+02	-2.083354e+01
1.350720e+02	-2.088277e+01
1.358522e+02	-2.093254e+01
1.366368e+02	-2.098289e+01
1.374260e+02	-2.103174e+01
1.382198e+02	-2.108076e+01
1.390182e+02	-2.113122e+01
1.398211e+02	-2.118034e+01
1.406287e+02	-2.122999e+01
1.414410e+02	-2.128060e+01
1.422579e+02	-2.133041e+01
1.430796e+02	-2.138034e+01
1.439060e+02	-2.142953e+01
1.447372e+02	-2.148101e+01
1.455732e+02	-2.152947e+01
1.464141e+02	-2.158033e+01
1.472597e+02	-2.162874e+01
1.481103e+02	-2.167897e+01
1.489658e+02	-2.172735e+01
1.498262e+02	-2.177545e+01
1.506916e+02	-2.182943e+01
1.515620e+02	-2.187684e+01
1.524374e+02	-2.192744e+01
1.533179e+02	-2.197572e+01
1.542034e+02	-2.202321e+01
1.550941e+02	-2.207690e+01
1.559899e+02	-2.212562e+01
1.568909e+02	-2.217421e+01
1.577971e+02	-2.222241e+01
1.587085e+02	-2.227431e+01
1.596252e+02	-2.232481e+01
1.605472e+02	-2.237311e+01
1.614745e+02	-2.242420e+01
1.624072e+02	-2.247419e+01
1.633453e+02	-2.252121e+01
1.642887e+02	-2.257474e+01
1.652377e+02	-2.262372e+01
1.661921e+02	-2.267302e+01
1.671520e+02	-2.272190e+01
1.681175e+02	-2.277174e+01
1.690885e+02	-2.282156e+01
1.700651e+02	-2.287298e+01
1.710474e+02	-2.292178e+01
1.720354e+02	-2.297101e+01
1.730291e+02	-2.302191e+01
1.740285e+02	-2.307053e+01
1.750337e+02	-2.312163e+01
1.760446e+02	-2.317104e+01
1.770615e+02	-2.322033e+01
1.780842e+02	-2.326957e+01
1.791128e+02	-2.331994e+01
1.801473e+02	-2.336884e+01
1.811878e+02	-2.342100e+01
1.822344e+02	-2.346833e+01
1.832870e+02	-2.351905e+01
1.843456e+02	-2.356916e+01
1.854104e+02	-2.361685e+01
1.864813e+02	-2.366952e+01
1.875584e+02	-2.371804e+01
1.886418e+02	-2.376733e+01
1.897313e+02	-2.381799e+01
1.908272e+02	-2.386702e+01
1.919294e+02	-2.391629e+01
1.930380e+02	-2.396952e+01
1.941530e+02	-2.401758e+01
1.952744e+02	-2.406892e+01
1.964023e+02	-2.411784e+01
1.975367e+02	-2.416540e+01
1.986777e+02	-2.421719e+01
1.998252e+02	-2.426885e+01
2.009794e+02	-2.431839e+01
2.021403e+02	-2.436808e+01
2.033078e+02	-2.441676e+01
2.044821e+02	-2.446683e+01
2.056632e+02	-2.451670e+01
2.068511e+02	-2.456759e+01
2.080459e+02	-2.461845e+01
2.092475e+02	-2.466725e+01
2.104561e+02	-2.471478e+01
2.116717e+02	-2.476441e+01
2.128943e+02	-2.481735e+01
2.141240e+02	-2.486520e+01
2.153608e+02	-2.491336e+01
2.166047e+02	-2.496745e+01
2.178558e+02	-2.501444e+01
2.191141e+02	-2.506404e+01
2.203797e+02	-2.511785e+01
2.216526e+02	-2.516448e+01
2.229329e+02	-2.521381e+01
2.242205e+02	-2.526296e+01
2.255156e+02	-2.531592e+01
2.268182e+02	-2.536752e+01
2.281283e+02	-2.541351e+01
2.294459e+02	-2.546464e+01
2.307712e+02	-2.551358e+01
2.321041e+02	-2.556274e+01
2.334447e+02	-2.561494e+01
2.347931e+02	-2.566540e+01
2.361493e+02	-2.571321e+01
2.375133e+02	-2.576492e+01
2.388851e+02	-2.581677e+01
2.402649e+02	-2.586396e+01
2.416527e+02	-2.591114e+01
2.430484e+02	-2.596534e+01
2.444523e+02	-2.601342e+01
2.458642e+02	-2.606071e+01
2.472843e+02	-2.611559e+01
2.487126e+02	-2.616044e+01
2.501492e+02	-2.621514e+01
2.515940e+02	-2.626439e+01
2.530472e+02	-2.631517e+01
2.545088e+02	-2.636609e+01
2.559789e+02	-2.641524e+01
2.574574e+02	-2.646689e+01
2.589444e+02	-2.651650e+01
2.604401e+02	-2.656434e+01
2.619444e+02	-2.661496e+01
2.634574e+02	-2.666446e+01
2.649791e+02	-2.671355e+01
2.665096e+02	-2.676323e+01
2.680489e+02	-2.680940e+01
2.695972e+02	-2.685916e+01
2.711544e+02	-2.691345e+01
2.727205e+02	-2.696232e+01
2.742958e+02	-2.701779e+01
2.758801e+02	-2.706520e+01
2.774736e+02	-2.711405e+01
2.790762e+02	-2.716031e+01
2.806882e+02	-2.721323e+01
2.823094e+02	-2.726614e+01
2.839400e+02	-2.731290e+01
2.855800e+02	-2.736169e+01
2.872295e+02	-2.741464e+01
2.888886e+02	-2.746062e+01
2.905572e+02	-2.751178e+01
2.922354e+02	-2.756375e+01
2.939234e+02	-2.761871e+01
2.956211e+02	-2.766584e+01
2.973286e+02	-2.771261e+01
2.990459e+02	-2.776247e+01
3.007732e+02	-2.781070e+01
3.025104e+02	-2.786533e+01
3.042577e+02	-2.791299e+01
3.060151e+02	-2.796150e+01
3.077826e+02	-2.801341e+01
3.095604e+02	-2.806303e+01
3.113484e+02	-2.811192e+01
3.131467e+02	-2.816302e+01
3.149554e+02	-2.821371e+01
3.167746e+02	-2.826386e+01
3.186043e+02	-2.831249e+01
3.204445e+02	-2.836343e+01
3.222954e+02	-2.841421e+01
3.241570e+02	-2.846211e+01
3.260293e+02	-2.851224e+01
3.279124e+02	-2.856228e+01
3.298064e+02	-2.861469e+01
3.317114e+02	-2.866561e+01
3.336273e+02	-2.871412e+01
3.355544e+02	-2.876731e+01
3.374925e+02	-2.881811e+01
3.394418e+02	-2.886321e+01
3.414024e+02	-2.891582e+01
3.433744e+02	-2.896570e+01
3.453577e+02	-2.901304e+01
3.473525e+02	-2.906799e+01
3.493588e+02	-2.911150e+01
3.513766e+02	-2.916451e+01
3.534062e+02	-2.921034e+01
3.554474e+02	-2.926213e+01
3.575005e+02	-2.931490e+01
3.595654e+02	-2.936730e+01
3.616422e+02	-2.941380e+01
3.637311e+02	-2.946413e+01
3.658320e+02	-2.951396e+01
3.679450e+02	-2.956181e+01
3.700702e+02	-2.961748e+01
3.722077e+02	-2.966571e+01
3.743576e+02	-2.971769e+01
3.765199e+02	-2.976480e+01
3.786946e+02	-2.981131e+01
3.808820e+02	-2.985840e+01
3.830819e+02	-2.992153e+01
3.852946e+02	-2.996884e+01
3.875200e+02	-3.001180e+01
3.897583e+02	-3.006752e+01
3.920096e+02	-3.011626e+01
3.942738e+02	-3.016949e+01
3.965511e+02	-3.021650e+01
3.988416e+02	-3.026470e+01
4.011452e+02	-3.031329e+01
4.034622e+02	-3.036185e+01
4.057926e+02	-3.041702e+01
4.081365e+02	-3.046535e+01
4.104938e+02	-3.052119e+01
4.128648e+02	-3.056794e+01
4.152495e+02	-3.061404e+01
4.176480e+02	-3.066675e+01
4.200603e+02	-3.071915e+01
4.224866e+02	-3.076787e+01
4.249268e+02	-3.081675e+01
4.273812e+02	-3.086595e+01
4.298497e+02	-3.091510e+01
4.323325e+02	-3.096993e+01
4.348297e+02	-3.102131e+01
4.373412e+02	-3.106285e+01
4.398673e+02	-3.111345e+01
4.424079e+02	-3.116753e+01
4.449633e+02	-3.121581e+01
4.475334e+02	-3.126638e+01
4.501183e+02	-3.131615e+01
4.527182e+02	-3.136507e+01
4.553330e+02	-3.142316e+01
4.579630e+02	-3.146787e+01
4.606082e+02	-3.152285e+01
4.632687e+02	-3.157330e+01
4.659445e+02	-3.162740e+01
4.686358e+02	-3.167058e+01
4.713426e+02	-3.172722e+01
4.740650e+02	-3.177959e+01
4.768032e+02	-3.181297e+01
4.795572e+02	-3.186592e+01
4.823271e+02	-3.192367e+01
4.851130e+02	-3.196174e+01
4.879150e+02	-3.202341e+01
4.907332e+02	-3.207508e+01
4.935676e+02	-3.212667e+01
4.964185e+02	-3.217541e+01
4.992858e+02	-3.221896e+01
5.021696e+02	-3.227296e+01
5.050701e+02	-3.232545e+01
5.079874e+02	-3.237118e+01
5.109215e+02	-3.242062e+01
5.138726e+02	-3.247774e+01
5.168407e+02	-3.252475e+01
5.198259e+02	-3.258310e+01
5.228284e+02	-3.262382e+01
5.258482e+02	-3.267491e+01
5.288855e+02	-3.271854e+01
5.319403e+02	-3.277980e+01
5.350128e+02	-3.282470e+01
5.381030e+02	-3.287476e+01
5.412111e+02	-3.292276e+01
5.443371e+02	-3.297024e+01
5.474812e+02	-3.302744e+01
5.506434e+02	-3.307862e+01
5.538239e+02	-3.312606e+01
5.570228e+02	-3.317690e+01
5.602401e+02	-3.322229e+01
5.634760e+02	-3.327570e+01
5.667306e+02	-3.332773e+01
5.700040e+02	-3.337715e+01
5.732964e+02	-3.342431e+01
5.766077e+02	-3.347840e+01
5.799382e+02	-3.352554e+01
5.832879e+02	-3.358699e+01
5.866569e+02	-3.362277e+01
5.900454e+02	-3.368024e+01
5.934535e+02	-3.373557e+01
5.968813e+02	-3.378110e+01
6.003288e+02	-3.382946e+01
6.037963e+02	-3.387378e+01
6.072838e+02	-3.393098e+01
6.107914e+02	-3.398790e+01
6.143194e+02	-3.402196e+01
6.178676e+02	-3.407359e+01
6.214364e+02	-3.413652e+01
6.250258e+02	-3.417682e+01
6.286359e+02	-3.422405e+01
6.322669e+02	-3.427739e+01
6.359189e+02	-3.433857e+01
6.395919e+02	-3.437805e+01
6.432862e+02	-3.443970e+01
6.470017e+02	-3.448550e+01
6.507388e+02	-3.453791e+01
6.544974e+02	-3.458780e+01
6.582778e+02	-3.464391e+01
6.620800e+02	-3.468334e+01
6.659041e+02	-3.474215e+01
6.697504e+02	-3.478343e+01
6.736188e+02	-3.483866e+01
6.775096e+02	-3.488871e+01
6.814229e+02	-3.493885e+01
6.853587e+02	-3.498830e+01
6.893173e+02	-3.503288e+01
6.932988e+02	-3.509342e+01
6.973033e+02	-3.513730e+01
7.013309e+02	-3.518731e+01
