Frequency(Hz)	Magnitude(dB)
1.000000e+01	-2.001425e+00
1.005776e+01	-2.020162e+00
1.011585e+01	-2.039037e+00
1.017428e+01	-2.057540e+00
1.023305e+01	-2.076560e+00
1.029215e+01	-2.095688e+00
1.035160e+01	-2.114788e+00
1.041139e+01	-2.134307e+00
1.047153e+01	-2.153583e+00
1.053201e+01	-2.173182e+00
1.059284e+01	-2.193233e+00
1.065403e+01	-2.212868e+00
1.071556e+01	-2.232928e+00
1.077746e+01	-2.253033e+00
1.083971e+01	-2.273453e+00
1.090232e+01	-2.294107e+00
1.096529e+01	-2.314470e+00
1.102862e+01	-2.335167e+00
1.109232e+01	-2.356317e+00
1.115639e+01	-2.377115e+00
1.122083e+01	-2.398299e+00
1.128564e+01	-2.419748e+00
1.135083e+01	-2.440854e+00
1.141639e+01	-2.462449e+00
1.148233e+01	-2.484448e+00
1.154865e+01	-2.506241e+00
1.161536e+01	-2.528356e+00
1.168245e+01	-2.550149e+00
1.174992e+01	-2.572633e+00
1.181779e+01	-2.595004e+00
1.188605e+01	-2.617358e+00
1.195470e+01	-2.640429e+00
1.202375e+01	-2.663225e+00
1.209320e+01	-2.686446e+00
1.216305e+01	-2.709289e+00
1.223330e+01	-2.732769e+00
1.230396e+01	-2.756230e+00
1.237503e+01	-2.779464e+00
1.244651e+01	-2.803294e+00
1.251840e+01	-2.827359e+00
1.259070e+01	-2.851427e+00
1.266343e+01	-2.875465e+00
1.273657e+01	-2.899585e+00
1.281014e+01	-2.924319e+00
1.288413e+01	-2.948863e+00
1.295855e+01	-2.973359e+00
1.303339e+01	-2.998355e+00
1.310867e+01	-3.023344e+00
1.318439e+01	-3.048563e+00
1.326054e+01	-3.073862e+00
1.333713e+01	-3.099205e+00
1.341417e+01	-3.124896e+00
1.349165e+01	-3.150454e+00
1.356958e+01	-3.176495e+00
1.364795e+01	-3.202351e+00
1.372678e+01	-3.228965e+00
1.380607e+01	-3.255187e+00
1.388581e+01	-3.281358e+00
1.396602e+01	-3.307809e+00
1.404668e+01	-3.334749e+00
1.412782e+01	-3.361631e+00
1.420942e+01	-3.388460e+00
1.429149e+01	-3.415731e+00
1.437404e+01	-3.443206e+00
1.445706e+01	-3.470468e+00
1.454057e+01	-3.498395e+00
1.462455e+01	-3.525955e+00
1.470902e+01	-3.554067e+00
1.479398e+01	-3.581919e+00
1.487943e+01	-3.610168e+00
1.496537e+01	-3.638314e+00
1.505181e+01	-3.666616e+00
1.513875e+01	-3.695519e+00
1.522619e+01	-3.724220e+00
1.531414e+01	-3.752914e+00
1.540259e+01	-3.782207e+00
1.549156e+01	-3.811079e+00
1.558103e+01	-3.840423e+00
1.567103e+01	-3.869846e+00
1.576155e+01	-3.899033e+00
1.585258e+01	-3.929207e+00
1.594415e+01	-3.958941e+00
1.603624e+01	-3.989158e+00
1.612886e+01	-4.019043e+00
1.622202e+01	-4.049273e+00
1.631572e+01	-4.079986e+00
1.640996e+01	-4.110140e+00
1.650474e+01	-4.141182e+00
1.660008e+01	-4.171973e+00
1.669596e+01	-4.202465e+00
1.679239e+01	-4.233966e+00
1.688938e+01	-4.265079e+00
1.698694e+01	-4.296675e+00
1.708505e+01	-4.327983e+00
1.718373e+01	-4.359501e+00
1.728299e+01	-4.391360e+00
1.738281e+01	-4.423159e+00
1.748322e+01	-4.455261e+00
1.758420e+01	-4.487335e+00
1.768576e+01	-4.519787e+00
1.778792e+01	-4.552032e+00
1.789066e+01	-4.584931e+00
1.799399e+01	-4.617119e+00
1.809793e+01	-4.650407e+00
1.820246e+01	-4.683077e+00
1.830760e+01	-4.716545e+00
1.841334e+01	-4.749587e+00
1.851969e+01	-4.782781e+00
1.862666e+01	-4.816474e+00
1.873425e+01	-4.849754e+00
1.884246e+01	-4.883527e+00
1.895129e+01	-4.917288e+00
1.906075e+01	-4.951598e+00
1.917085e+01	-4.985254e+00
1.928158e+01	-5.019600e+00
1.939295e+01	-5.053971e+00
1.950496e+01	-5.088445e+00
1.961762e+01	-5.122803e+00
1.973093e+01	-5.157676e+00
1.984490e+01	-5.192495e+00
1.995952e+01	-5.227378e+00
2.007480e+01	-5.262734e+00
2.019076e+01	-5.297850e+00
2.030738e+01	-5.332786e+00
2.042467e+01	-5.368307e+00
2.054264e+01	-5.404094e+00
2.066130e+01	-5.439581e+00
2.078064e+01	-5.475578e+00
2.090066e+01	-5.511298e+00
2.102139e+01	-5.547314e+00
2.114280e+01	-5.583828e+00
2.126492e+01	-5.619692e+00
2.138775e+01	-5.656251e+00
2.151128e+01	-5.692663e+00
2.163553e+01	-5.729255e+00
2.176050e+01	-5.765759e+00
2.188619e+01	-5.802812e+00
2.201260e+01	-5.839736e+00
2.213974e+01	-5.876953e+00
2.226762e+01	-5.913750e+00
2.239624e+01	-5.951230e+00
2.252560e+01	-5.988070e+00
2.265571e+01	-6.025899e+00
2.278656e+01	-6.063521e+00
2.291818e+01	-6.101288e+00
2.305055e+01	-6.139264e+00
2.318369e+01	-6.176841e+00
2.331760e+01	-6.215032e+00
2.345228e+01	-6.253009e+00
2.358774e+01	-6.291140e+00
2.372398e+01	-6.329602e+00
2.386101e+01	-6.368198e+00
2.399883e+01	-6.406557e+00
2.413745e+01	-6.445501e+00
2.427686e+01	-6.484183e+00
2.441709e+01	-6.522920e+00
2.455812e+01	-6.561810e+00
2.469997e+01	-6.600652e+00
2.484263e+01	-6.640130e+00
2.498612e+01	-6.679239e+00
2.513044e+01	-6.718487e+00
2.527559e+01	-6.757992e+00
2.542158e+01	-6.797530e+00
2.556842e+01	-6.837705e+00
2.571610e+01	-6.876844e+00
2.586463e+01	-6.916399e+00
2.601403e+01	-6.956647e+00
2.616428e+01	-6.996549e+00
2.631541e+01	-7.036269e+00
2.646740e+01	-7.076572e+00
2.662028e+01	-7.116755e+00
2.677404e+01	-7.157235e+00
2.692868e+01	-7.197524e+00
2.708422e+01	-7.238566e+00
2.724066e+01	-7.278913e+00
2.739800e+01	-7.319706e+00
2.755625e+01	-7.360792e+00
2.771541e+01	-7.401370e+00
2.787550e+01	-7.442497e+00
2.803650e+01	-7.483429e+00
2.819844e+01	-7.524600e+00
2.836131e+01	-7.565453e+00
2.852513e+01	-7.607299e+00
2.868989e+01	-7.648219e+00
2.885560e+01	-7.689862e+00
2.902227e+01	-7.731283e+00
2.918990e+01	-7.772922e+00
2.935850e+01	-7.814456e+00
2.952807e+01	-7.856446e+00
2.969863e+01	-7.898428e+00
2.987016e+01	-7.940378e+00
3.004269e+01	-7.982730e+00
3.021622e+01	-8.024336e+00
3.039075e+01	-8.066631e+00
3.056628e+01	-8.109176e+00
3.074283e+01	-8.150905e+00
3.092040e+01	-8.193630e+00
3.109900e+01	-8.236272e+00
3.127862e+01	-8.278624e+00
3.145929e+01	-8.321333e+00
3.164099e+01	-8.364469e+00
3.182375e+01	-8.406732e+00
3.200756e+01	-8.450010e+00
3.219244e+01	-8.492614e+00
3.237838e+01	-8.535529e+00
3.256540e+01	-8.578449e+00
3.275349e+01	-8.621713e+00
3.294268e+01	-8.664994e+00
3.313295e+01	-8.708377e+00
3.332433e+01	-8.751462e+00
3.351681e+01	-8.794462e+00
3.371040e+01	-8.838276e+00
3.390511e+01	-8.882229e+00
3.410094e+01	-8.925669e+00
3.429791e+01	-8.969343e+00
3.449601e+01	-9.012935e+00
3.469526e+01	-9.056370e+00
3.489566e+01	-9.100560e+00
3.509721e+01	-9.144346e+00
3.529993e+01	-9.188010e+00
3.550382e+01	-9.232441e+00
3.570889e+01	-9.276386e+00
3.591515e+01	-9.320514e+00
3.612259e+01	-9.364775e+00
3.633123e+01	-9.409210e+00
3.654108e+01	-9.453340e+00
3.675214e+01	-9.497837e+00
3.696442e+01	-9.542229e+00
3.717792e+01	-9.586910e+00
3.739266e+01	-9.631102e+00
3.760864e+01	-9.676098e+00
3.782587e+01	-9.720580e+00
3.804435e+01	-9.764943e+00
3.826409e+01	-9.809905e+00
3.848510e+01	-9.854552e+00
3.870739e+01	-9.899731e+00
3.893096e+01	-9.945107e+00
3.915583e+01	-9.990144e+00
3.938199e+01	-1.003503e+01
3.960946e+01	-1.007921e+01
3.983824e+01	-1.012490e+01
4.006834e+01	-1.017038e+01
4.029978e+01	-1.021491e+01
4.053255e+01	-1.026057e+01
4.076666e+01	-1.030584e+01
4.100213e+01	-1.035152e+01
4.123896e+01	-1.039628e+01
4.147715e+01	-1.044224e+01
4.171672e+01	-1.048784e+01
4.195767e+01	-1.053342e+01
4.220002e+01	-1.057917e+01
4.244377e+01	-1.062449e+01
4.268892e+01	-1.067008e+01
4.293549e+01	-1.071578e+01
4.318348e+01	-1.076194e+01
4.343291e+01	-1.080763e+01
4.368377e+01	-1.085351e+01
4.393609e+01	-1.089994e+01
4.418986e+01	-1.094577e+01
4.444510e+01	-1.099137e+01
4.470182e+01	-1.103824e+01
4.496001e+01	-1.108388e+01
4.521970e+01	-1.112999e+01
4.548089e+01	-1.117589e+01
4.574358e+01	-1.122228e+01
4.600779e+01	-1.126852e+01
4.627353e+01	-1.131497e+01
4.654081e+01	-1.136089e+01
4.680963e+01	-1.140770e+01
4.708000e+01	-1.145413e+01
4.735193e+01	-1.150083e+01
4.762543e+01	-1.154719e+01
4.790051e+01	-1.159398e+01
4.817719e+01	-1.163966e+01
4.845545e+01	-1.168654e+01
4.873533e+01	-1.173329e+01
4.901682e+01	-1.178017e+01
4.929994e+01	-1.182696e+01
4.958470e+01	-1.187355e+01
4.987110e+01	-1.192062e+01
5.015915e+01	-1.196742e+01
5.044887e+01	-1.201405e+01
5.074026e+01	-1.206084e+01
5.103333e+01	-1.210805e+01
5.132810e+01	-1.215501e+01
5.162457e+01	-1.220188e+01
5.192275e+01	-1.224881e+01
5.222265e+01	-1.229610e+01
5.252429e+01	-1.234284e+01
5.282767e+01	-1.238962e+01
5.313280e+01	-1.243823e+01
5.343969e+01	-1.248454e+01
5.374836e+01	-1.253248e+01
5.405880e+01	-1.257953e+01
5.437105e+01	-1.262578e+01
5.468509e+01	-1.267326e+01
5.500095e+01	-1.272124e+01
5.531863e+01	-1.276960e+01
5.563815e+01	-1.281586e+01
5.595951e+01	-1.286336e+01
5.628273e+01	-1.291104e+01
5.660782e+01	-1.295802e+01
5.693479e+01	-1.300502e+01
5.726364e+01	-1.305334e+01
5.759439e+01	-1.310034e+01
5.792705e+01	-1.314813e+01
5.826164e+01	-1.319602e+01
5.859815e+01	-1.324382e+01
5.893662e+01	-1.329066e+01
5.927703e+01	-1.333892e+01
5.961941e+01	-1.338636e+01
5.996377e+01	-1.343460e+01
6.031012e+01	-1.348223e+01
6.065847e+01	-1.352951e+01
6.100883e+01	-1.357733e+01
6.136121e+01	-1.362587e+01
6.171563e+01	-1.367388e+01
6.207210e+01	-1.372140e+01
6.243063e+01	-1.377037e+01
6.279122e+01	-1.381688e+01
6.315390e+01	-1.386552e+01
6.351868e+01	-1.391305e+01
6.388556e+01	-1.396139e+01
6.425456e+01	-1.400928e+01
6.462569e+01	-1.405691e+01
6.499897e+01	-1.410615e+01
6.537440e+01	-1.415343e+01
6.575200e+01	-1.420166e+01
6.613178e+01	-1.424972e+01
6.651375e+01	-1.429795e+01
6.689793e+01	-1.434634e+01
6.728433e+01	-1.439470e+01
6.767297e+01	-1.444244e+01
6.806384e+01	-1.448983e+01
6.845698e+01	-1.453828e+01
6.885238e+01	-1.458709e+01
6.925007e+01	-1.463562e+01
6.965005e+01	-1.468441e+01
7.005235e+01	-1.473240e+01
7.045697e+01	-1.477961e+01
7.086393e+01	-1.482835e+01
7.127323e+01	-1.487814e+01
7.168490e+01	-1.492569e+01
7.209895e+01	-1.497430e+01
7.251539e+01	-1.502246e+01
7.293424e+01	-1.507135e+01
7.335551e+01	-1.511901e+01
7.377920e+01	-1.516803e+01
7.420535e+01	-1.521563e+01
7.463396e+01	-1.526464e+01
7.506504e+01	-1.531398e+01
7.549861e+01	-1.536324e+01
7.593469e+01	-1.541021e+01
7.637328e+01	-1.545961e+01
7.681441e+01	-1.550842e+01
7.725809e+01	-1.555718e+01
7.770433e+01	-1.560563e+01
7.815315e+01	-1.565364e+01
7.860456e+01	-1.570159e+01
7.905857e+01	-1.575107e+01
7.951521e+01	-1.580012e+01
7.997449e+01	-1.584911e+01
8.043642e+01	-1.589772e+01
8.090102e+01	-1.594671e+01
8.136830e+01	-1.599480e+01
8.183828e+01	-1.604406e+01
8.231097e+01	-1.609223e+01
8.278640e+01	-1.614210e+01
8.326457e+01	-1.619034e+01
8.374550e+01	-1.623968e+01
8.422921e+01	-1.628838e+01
8.471572e+01	-1.633609e+01
8.520503e+01	-1.638568e+01
8.569717e+01	-1.643448e+01
8.619215e+01	-1.648360e+01
8.669000e+01	-1.653195e+01
8.719071e+01	-1.657986e+01
8.769432e+01	-1.663044e+01
8.820084e+01	-1.667874e+01
8.871029e+01	-1.672653e+01
8.922267e+01	-1.677780e+01
8.973802e+01	-1.682608e+01
9.025634e+01	-1.687580e+01
9.077766e+01	-1.692302e+01
9.130199e+01	-1.697391e+01
9.182935e+01	-1.702246e+01
9.235975e+01	-1.707154e+01
9.289321e+01	-1.712149e+01
9.342976e+01	-1.716920e+01
9.396941e+01	-1.721889e+01
9.451217e+01	-1.726694e+01
9.505807e+01	-1.731723e+01
9.560712e+01	-1.736598e+01
9.615934e+01	-1.741504e+01
9.671476e+01	-1.746255e+01
9.727338e+01	-1.751391e+01
9.783522e+01	-1.756146e+01
9.840032e+01	-1.761098e+01
9.896867e+01	-1.765962e+01
9.954031e+01	-1.770983e+01
1.001153e+02	-1.775923e+01
1.006935e+02	-1.780819e+01
1.012751e+02	-1.785690e+01
1.018601e+02	-1.790730e+01
1.024484e+02	-1.795632e+01
1.030402e+02	-1.800611e+01
1.036353e+02	-1.805444e+01
1.042339e+02	-1.810368e+01
1.048360e+02	-1.815262e+01
1.054415e+02	-1.820257e+01
1.060505e+02	-1.825152e+01
1.066631e+02	-1.830129e+01
1.072791e+02	-1.835023e+01
1.078988e+02	-1.839940e+01
1.085220e+02	-1.844969e+01
1.091488e+02	-1.849707e+01
1.097793e+02	-1.854638e+01
1.104133e+02	-1.859642e+01
1.110511e+02	-1.864619e+01
1.116925e+02	-1.869518e+01
1.123376e+02	-1.874395e+01
1.129865e+02	-1.879537e+01
1.136391e+02	-1.884185e+01
1.142955e+02	-1.889232e+01
1.149556e+02	-1.894305e+01
1.156196e+02	-1.899134e+01
1.162874e+02	-1.904093e+01
1.169591e+02	-1.909015e+01
1.176347e+02	-1.914057e+01
1.183141e+02	-1.918680e+01
1.189975e+02	-1.923843e+01
1.196848e+02	-1.928972e+01
1.203761e+02	-1.933770e+01
1.210714e+02	-1.938715e+01
1.217707e+02	-1.943723e+01
1.224740e+02	-1.948647e+01
1.231814e+02	-1.953466e+01
1.238929e+02	-1.958519e+01
1.246085e+02	-1.963358e+01
1.253283e+02	-1.968389e+01
1.260522e+02	-1.973292e+01
1.267802e+02	-1.978258e+01
1.275125e+02	-1.983314e+01
1.282490e+02	-1.988216e+01
1.289898e+02	-1.993080e+01
1.297348e+02	-1.998184e+01
1.304842e+02	-2.003013e+01
1.312378e+02	-2.008104e+01
1.319959e+02	-2.012944e+01
1.327583e+02	-2.017779e+01
1.335251e+02	-2.022799e+01
1.342963e+02	-2.027609e+01
1.350720e+02	-2.032797e+01
1.358522e+02	-2.037780e+01
1.366368e+02	-2.042705e+01
1.374260e+02	-2.047776e+01
1.382198e+02	-2.052597e+01
1.390182e+02	-2.057621e+01
1.398211e+02	-2.062431e+01
1.406287e+02	-2.067461e+01
1.414410e+02	-2.072242e+01
1.422579e+02	-2.077450e+01
1.430796e+02	-2.082443e+01
1.439060e+02	-2.087215e+01
1.447372e+02	-2.092353e+01
1.455732e+02	-2.097214e+01
1.464141e+02	-2.102042e+01
1.472597e+02	-2.107152e+01
1.481103e+02	-2.112175e+01
1.489658e+02	-2.117164e+01
1.498262e+02	-2.122003e+01
1.506916e+02	-2.127025e+01
1.515620e+02	-2.131953e+01
1.524374e+02	-2.136885e+01
1.533179e+02	-2.141956e+01
1.542034e+02	-2.146868e+01
1.550941e+02	-2.151919e+01
1.559899e+02	-2.156835e+01
1.568909e+02	-2.161914e+01
1.577971e+02	-2.166919e+01
1.587085e+02	-2.171592e+01
1.596252e+02	-2.176849e+01
1.605472e+02	-2.181762e+01
1.614745e+02	-2.186695e+01
1.624072e+02	-2.191846e+01
1.633453e+02	-2.196626e+01
1.642887e+02	-2.201504e+01
1.652377e+02	-2.206660e+01
1.661921e+02	-2.211537e+01
1.671520e+02	-2.216633e+01
1.681175e+02	-2.221329e+01
1.690885e+02	-2.226343e+01
1.700651e+02	-2.231599e+01
1.710474e+02	-2.236412e+01
1.720354e+02	-2.241426e+01
1.730291e+02	-2.246364e+01
1.740285e+02	-2.251437e+01
1.750337e+02	-2.256238e+01
1.760446e+02	-2.261212e+01
1.770615e+02	-2.266163e+01
1.780842e+02	-2.271326e+01
1.791128e+02	-2.276413e+01
1.801473e+02	-2.281206e+01
1.811878e+02	-2.285977e+01
1.822344e+02	-2.291302e+01
1.832870e+02	-2.295821e+01
1.843456e+02	-2.301040e+01
1.854104e+02	-2.306201e+01
1.864813e+02	-2.310839e+01
1.875584e+02	-2.316181e+01
1.886418e+02	-2.321115e+01
1.897313e+02	-2.325894e+01
1.908272e+02	-2.331192e+01
1.919294e+02	-2.336185e+01
1.930380e+02	-2.340971e+01
1.941530e+02	-2.346008e+01
1.952744e+02	-2.350932e+01
1.964023e+02	-2.356078e+01
1.975367e+02	-2.360918e+01
1.986777e+02	-2.365798e+01
1.998252e+02	-2.370733e+01
2.009794e+02	-2.376016e+01
2.021403e+02	-2.380790e+01
2.033078e+02	-2.385693e+01
2.044821e+02	-2.390649e+01
2.056632e+02	-2.395799e+01
2.068511e+02	-2.401085e+01
2.080459e+02	-2.405173e+01
2.092475e+02	-2.410885e+01
2.104561e+02	-2.415862e+01
2.116717e+02	-2.420862e+01
2.128943e+02	-2.425751e+01
2.141240e+02	-2.430820e+01
2.153608e+02	-2.435810e+01
2.166047e+02	-2.441132e+01
2.178558e+02	-2.445667e+01
2.191141e+02	-2.450779e+01
2.203797e+02	-2.455868e+01
2.216526e+02	-2.460742e+01
2.229329e+02	-2.465407e+01
2.242205e+02	-2.470647e+01
2.255156e+02	-2.475487e+01
2.268182e+02	-2.480746e+01
2.281283e+02	-2.485737e+01
2.294459e+02	-2.490591e+01
2.307712e+02	-2.495390e+01
2.321041e+02	-2.500628e+01
2.334447e+02	-2.505724e+01
2.347931e+02	-2.510493e+01
2.361493e+02	-2.515533e+01
2.375133e+02	-2.520530e+01
2.388851e+02	-2.525524e+01
2.402649e+02	-2.530446e+01
2.416527e+02	-2.535335e+01
2.430484e+02	-2.540263e+01
2.444523e+02	-2.545600e+01
2.458642e+02	-2.550539e+01
2.472843e+02	-2.555484e+01
2.487126e+02	-2.560273e+01
2.501492e+02	-2.565483e+01
2.515940e+02	-2.570443e+01
2.530472e+02	-2.575427e+01
2.545088e+02	-2.580337e+01
2.559789e+02	-2.585625e+01
2.574574e+02	-2.590594e+01
2.589444e+02	-2.595151e+01
2.604401e+02	-2.600485e+01
2.619444e+02	-2.605582e+01
2.634574e+02	-2.610439e+01
2.649791e+02	-2.615463e+01
2.665096e+02	-2.620317e+01
2.680489e+02	-2.625336e+01
2.695972e+02	-2.630479e+01
2.711544e+02	-2.635337e+01
2.727205e+02	-2.640494e+01
2.742958e+02	-2.645709e+01
2.758801e+02	-2.650493e+01
2.774736e+02	-2.655381e+01
2.790762e+02	-2.660224e+01
2.806882e+02	-2.665423e+01
2.823094e+02	-2.670740e+01
2.839400e+02	-2.675254e+01
2.855800e+02	-2.680368e+01
2.872295e+02	-2.685474e+01
2.888886e+02	-2.690363e+01
2.905572e+02	-2.695769e+01
2.922354e+02	-2.700348e+01
2.939234e+02	-2.705554e+01
2.956211e+02	-2.710404e+01
2.973286e+02	-2.715523e+01
2.990459e+02	-2.720177e+01
3.007732e+02	-2.725409e+01
3.025104e+02	-2.730521e+01
3.042577e+02	-2.735333e+01
3.060151e+02	-2.740472e+01
3.077826e+02	-2.745766e+01
3.095604e+02	-2.750257e+01
3.113484e+02	-2.755239e+01
3.131467e+02	-2.760466e+01
3.149554e+02	-2.765182e+01
3.167746e+02	-2.770189e+01
3.186043e+02	-2.775182e+01
3.204445e+02	-2.780657e+01
3.222954e+02	-2.785331e+01
3.241570e+02	-2.790477e+01
3.260293e+02	-2.795220e+01
3.279124e+02	-2.800401e+01
3.298064e+02	-2.805534e+01
3.317114e+02	-2.810270e+01
3.336273e+02	-2.815323e+01
3.355544e+02	-2.820270e+01
3.374925e+02	-2.825258e+01
3.394418e+02	-2.830756e+01
3.414024e+02	-2.835099e+01
3.433744e+02	-2.840042e+01
3.453577e+02	-2.845178e+01
3.473525e+02	-2.850311e+01
3.493588e+02	-2.855297e+01
3.513766e+02	-2.860174e+01
3.534062e+02	-2.865104e+01
3.554474e+02	-2.870500e+01
3.575005e+02	-2.875557e+01
3.595654e+02	-2.880144e+01
3.616422e+02	-2.885400e+01
3.637311e+02	-2.890846e+01
3.658320e+02	-2.895536e+01
3.679450e+02	-2.900259e+01
3.700702e+02	-2.905286e+01
3.722077e+02	-2.910747e+01
3.743576e+02	-2.915392e+01
3.765199e+02	-2.920476e+01
3.786946e+02	-2.925401e+01
3.808820e+02	-2.930129e+01
3.830819e+02	-2.935564e+01
3.852946e+02	-2.940172e+01
3.875200e+02	-2.945503e+01
3.897583e+02	-2.950456e+01
3.920096e+02	-2.955980e+01
3.942738e+02	-2.960779e+01
3.965511e+02	-2.965966e+01
3.988416e+02	-2.970614e+01
4.011452e+02	-2.976033e+01
4.034622e+02	-2.980891e+01
4.057926e+02	-2.985306e+01
4.081365e+02	-2.990607e+01
4.104938e+02	-2.995774e+01
4.128648e+02	-3.000583e+01
4.152495e+02	-3.005591e+01
4.176480e+02	-3.010472e+01
4.200603e+02	-3.015361e+01
4.224866e+02	-3.020290e+01
4.249268e+02	-3.025711e+01
4.273812e+02	-3.030558e+01
4.298497e+02	-3.036098e+01
4.323325e+02	-3.040844e+01
4.348297e+02	-3.046078e+01
4.373412e+02	-3.050688e+01
4.398673e+02	-3.055598e+01
4.424079e+02	-3.061144e+01
4.449633e+02	-3.065136e+01
4.475334e+02	-3.070817e+01
4.501183e+02	-3.075930e+01
4.527182e+02	-3.081285e+01
4.553330e+02	-3.085706e+01
4.579630e+02	-3.091208e+01
4.606082e+02	-3.095282e+01
4.632687e+02	-3.100388e+01
4.659445e+02	-3.105482e+01
4.686358e+02	-3.110804e+01
4.713426e+02	-3.115993e+01
4.740650e+02	-3.121035e+01
4.768032e+02	-3.125494e+01
4.795572e+02	-3.129836e+01
4.823271e+02	-3.136202e+01
4.851130e+02	-3.140529e+01
4.879150e+02	-3.145987e+01
4.907332e+02	-3.150537e+01
4.935676e+02	-3.156521e+01
4.964185e+02	-3.160814e+01
4.992858e+02	-3.166612e+01
5.021696e+02	-3.171214e+01
5.050701e+02	-3.175998e+01
5.079874e+02	-3.181498e+01
5.109215e+02	-3.186238e+01
5.138726e+02	-3.191000e+01
5.168407e+02	-3.196144e+01
5.198259e+02	-3.201422e+01
5.228284e+02	-3.206030e+01
5.258482e+02	-3.211063e+01
5.288855e+02	-3.216336e+01
5.319403e+02	-3.221660e+01
5.350128e+02	-3.226553e+01
5.381030e+02	-3.231688e+01
5.412111e+02	-3.235754e+01
5.443371e+02	-3.240799e+01
5.474812e+02	-3.247018e+01
5.506434e+02	-3.250611e+01
5.538239e+02	-3.256712e+01
5.570228e+02	-3.261983e+01
5.602401e+02	-3.266552e+01
5.634760e+02	-3.271294e+01
5.667306e+02	-3.276645e+01
5.700040e+02	-3.281448e+01
5.732964e+02	-3.286591e+01
5.766077e+02	-3.292193e+01
5.799382e+02	-3.297045e+01
5.832879e+02	-3.301867e+01
5.866569e+02	-3.306493e+01
5.900454e+02	-3.312277e+01
5.934535e+02	-3.316151e+01
5.968813e+02	-3.321315e+01
6.003288e+02	-3.326779e+01
6.037963e+02	-3.331877e+01
6.072838e+02	-3.337177e+01
6.107914e+02	-3.342479e+01
6.143194e+02	-3.346779e+01
6.178676e+02	-3.352294e+01
6.214364e+02	-3.356244e+01
6.250258e+02	-3.361781e+01
6.286359e+02	-3.367486e+01
6.322669e+02	-3.371584e+01
6.359189e+02	-3.377440e+01
6.395919e+02	-3.382508e+01
6.432862e+02	-3.386860e+01
6.470017e+02	-3.392372e+01
6.507388e+02	-3.396855e+01
6.544974e+02	-3.401464e+01
6.582778e+02	-3.407313e+01
6.620800e+02	-3.412626e+01
6.659041e+02	-3.417210e+01
6.697504e+02	-3.422318e+01
6.736188e+02	-3.427764e+01
6.775096e+02	-3.432601e+01
6.814229e+02	-3.436967e+01
6.853587e+02	-3.442814e+01
6.893173e+02	-3.446763e+01
6.932988e+02	-3.452239e+01
6.973033e+02	-3.456561e+01
7.013309e+02	-3.462349e+01
