Frequency(Hz)	Magnitude(dB)
1.000000e+01	-2.004176e+00
1.005776e+01	-2.022722e+00
1.011585e+01	-2.041554e+00
1.017428e+01	-2.060280e+00
1.023305e+01	-2.079528e+00
1.029215e+01	-2.098282e+00
1.035160e+01	-2.117526e+00
1.041139e+01	-2.136916e+00
1.047153e+01	-2.156294e+00
1.053201e+01	-2.176007e+00
1.059284e+01	-2.195940e+00
1.065403e+01	-2.215833e+00
1.071556e+01	-2.236033e+00
1.077746e+01	-2.256293e+00
1.083971e+01	-2.276478e+00
1.090232e+01	-2.296694e+00
1.096529e+01	-2.317709e+00
1.102862e+01	-2.338260e+00
1.109232e+01	-2.359059e+00
1.115639e+01	-2.380181e+00
1.122083e+01	-2.401561e+00
1.128564e+01	-2.422823e+00
1.135083e+01	-2.444338e+00
1.141639e+01	-2.465663e+00
1.148233e+01	-2.487395e+00
1.154865e+01	-2.509364e+00
1.161536e+01	-2.531446e+00
1.168245e+01	-2.553616e+00
1.174992e+01	-2.575931e+00
1.181779e+01	-2.598474e+00
1.188605e+01	-2.621005e+00
1.195470e+01	-2.643712e+00
1.202375e+01	-2.666585e+00
1.209320e+01	-2.689666e+00
1.216305e+01	-2.712774e+00
1.223330e+01	-2.736197e+00
1.230396e+01	-2.759520e+00
1.237503e+01	-2.783172e+00
1.244651e+01	-2.806701e+00
1.251840e+01	-2.830787e+00
1.259070e+01	-2.854853e+00
1.266343e+01	-2.879031e+00
1.273657e+01	-2.903139e+00
1.281014e+01	-2.927840e+00
1.288413e+01	-2.952384e+00
1.295855e+01	-2.977119e+00
1.303339e+01	-3.001708e+00
1.310867e+01	-3.027063e+00
1.318439e+01	-3.052153e+00
1.326054e+01	-3.077531e+00
1.333713e+01	-3.103109e+00
1.341417e+01	-3.128712e+00
1.349165e+01	-3.154228e+00
1.356958e+01	-3.180119e+00
1.364795e+01	-3.206394e+00
1.372678e+01	-3.232321e+00
1.380607e+01	-3.258616e+00
1.388581e+01	-3.285357e+00
1.396602e+01	-3.311835e+00
1.404668e+01	-3.338536e+00
1.412782e+01	-3.365644e+00
1.420942e+01	-3.392533e+00
1.429149e+01	-3.419762e+00
1.437404e+01	-3.446969e+00
1.445706e+01	-3.474592e+00
1.454057e+01	-3.502304e+00
1.462455e+01	-3.529703e+00
1.470902e+01	-3.558065e+00
1.479398e+01	-3.586008e+00
1.487943e+01	-3.614194e+00
1.496537e+01	-3.642471e+00
1.505181e+01	-3.670666e+00
1.513875e+01	-3.699554e+00
1.522619e+01	-3.728361e+00
1.531414e+01	-3.757234e+00
1.540259e+01	-3.786110e+00
1.549156e+01	-3.815469e+00
1.558103e+01	-3.844705e+00
1.567103e+01	-3.874118e+00
1.576155e+01	-3.903602e+00
1.585258e+01	-3.933322e+00
1.594415e+01	-3.963549e+00
1.603624e+01	-3.993407e+00
1.612886e+01	-4.023663e+00
1.622202e+01	-4.053951e+00
1.631572e+01	-4.084384e+00
1.640996e+01	-4.114690e+00
1.650474e+01	-4.145603e+00
1.660008e+01	-4.176381e+00
1.669596e+01	-4.207169e+00
1.679239e+01	-4.238478e+00
1.688938e+01	-4.269703e+00
1.698694e+01	-4.300845e+00
1.708505e+01	-4.332699e+00
1.718373e+01	-4.364188e+00
1.728299e+01	-4.396182e+00
1.738281e+01	-4.427861e+00
1.748322e+01	-4.460125e+00
1.758420e+01	-4.492457e+00
1.768576e+01	-4.524458e+00
1.778792e+01	-4.556771e+00
1.789066e+01	-4.589278e+00
1.799399e+01	-4.622126e+00
1.809793e+01	-4.654785e+00
1.820246e+01	-4.687874e+00
1.830760e+01	-4.721266e+00
1.841334e+01	-4.754108e+00
1.851969e+01	-4.787657e+00
1.862666e+01	-4.821185e+00
1.873425e+01	-4.854603e+00
1.884246e+01	-4.888592e+00
1.895129e+01	-4.922388e+00
1.906075e+01	-4.956229e+00
1.917085e+01	-4.990241e+00
1.928158e+01	-5.024564e+00
1.939295e+01	-5.059061e+00
1.950496e+01	-5.093745e+00
1.961762e+01	-5.127874e+00
1.973093e+01	-5.162965e+00
1.984490e+01	-5.197631e+00
1.995952e+01	-5.232462e+00
2.007480e+01	-5.267638e+00
2.019076e+01	-5.302968e+00
2.030738e+01	-5.338144e+00
2.042467e+01	-5.373827e+00
2.054264e+01	-5.409193e+00
2.066130e+01	-5.444871e+00
2.078064e+01	-5.480651e+00
2.090066e+01	-5.516313e+00
2.102139e+01	-5.552693e+00
2.114280e+01	-5.588938e+00
2.126492e+01	-5.624967e+00
2.138775e+01	-5.661641e+00
2.151128e+01	-5.697985e+00
2.163553e+01	-5.734461e+00
2.176050e+01	-5.771079e+00
2.188619e+01	-5.808063e+00
2.201260e+01	-5.844717e+00
2.213974e+01	-5.882075e+00
2.226762e+01	-5.919144e+00
2.239624e+01	-5.956572e+00
2.252560e+01	-5.993835e+00
2.265571e+01	-6.031197e+00
2.278656e+01	-6.069234e+00
2.291818e+01	-6.107125e+00
2.305055e+01	-6.144607e+00
2.318369e+01	-6.182461e+00
2.331760e+01	-6.220610e+00
2.345228e+01	-6.258745e+00
2.358774e+01	-6.297077e+00
2.372398e+01	-6.335492e+00
2.386101e+01	-6.373550e+00
2.399883e+01	-6.412339e+00
2.413745e+01	-6.451434e+00
2.427686e+01	-6.489924e+00
2.441709e+01	-6.528441e+00
2.455812e+01	-6.567398e+00
2.469997e+01	-6.606458e+00
2.484263e+01	-6.645241e+00
2.498612e+01	-6.684588e+00
2.513044e+01	-6.724106e+00
2.527559e+01	-6.763712e+00
2.542158e+01	-6.803207e+00
2.556842e+01	-6.843197e+00
2.571610e+01	-6.882572e+00
2.586463e+01	-6.922357e+00
2.601403e+01	-6.962086e+00
2.616428e+01	-7.002524e+00
2.631541e+01	-7.042455e+00
2.646740e+01	-7.082949e+00
2.662028e+01	-7.123118e+00
2.677404e+01	-7.163312e+00
2.692868e+01	-7.203705e+00
2.708422e+01	-7.244243e+00
2.724066e+01	-7.284813e+00
2.739800e+01	-7.325772e+00
2.755625e+01	-7.366512e+00
2.771541e+01	-7.407755e+00
2.787550e+01	-7.448494e+00
2.803650e+01	-7.489303e+00
2.819844e+01	-7.530273e+00
2.836131e+01	-7.571410e+00
2.852513e+01	-7.612974e+00
2.868989e+01	-7.654258e+00
2.885560e+01	-7.696173e+00
2.902227e+01	-7.737526e+00
2.918990e+01	-7.778966e+00
2.935850e+01	-7.820948e+00
2.952807e+01	-7.862606e+00
2.969863e+01	-7.904491e+00
2.987016e+01	-7.946437e+00
3.004269e+01	-7.988379e+00
3.021622e+01	-8.030547e+00
3.039075e+01	-8.073070e+00
3.056628e+01	-8.115257e+00
3.074283e+01	-8.157466e+00
3.092040e+01	-8.199965e+00
3.109900e+01	-8.242619e+00
3.127862e+01	-8.285463e+00
3.145929e+01	-8.327228e+00
3.164099e+01	-8.370122e+00
3.182375e+01	-8.413536e+00
3.200756e+01	-8.455904e+00
3.219244e+01	-8.499022e+00
3.237838e+01	-8.541764e+00
3.256540e+01	-8.584906e+00
3.275349e+01	-8.627928e+00
3.294268e+01	-8.671425e+00
3.313295e+01	-8.714499e+00
3.332433e+01	-8.757887e+00
3.351681e+01	-8.801776e+00
3.371040e+01	-8.845092e+00
3.390511e+01	-8.887872e+00
3.410094e+01	-8.931935e+00
3.429791e+01	-8.975755e+00
3.449601e+01	-9.019431e+00
3.469526e+01	-9.062760e+00
3.489566e+01	-9.106828e+00
3.509721e+01	-9.150973e+00
3.529993e+01	-9.195156e+00
3.550382e+01	-9.238910e+00
3.570889e+01	-9.282718e+00
3.591515e+01	-9.326605e+00
3.612259e+01	-9.371588e+00
3.633123e+01	-9.415028e+00
3.654108e+01	-9.460107e+00
3.675214e+01	-9.504376e+00
3.696442e+01	-9.548446e+00
3.717792e+01	-9.592863e+00
3.739266e+01	-9.637862e+00
3.760864e+01	-9.682156e+00
3.782587e+01	-9.727093e+00
3.804435e+01	-9.771933e+00
3.826409e+01	-9.816634e+00
3.848510e+01	-9.861230e+00
3.870739e+01	-9.906332e+00
3.893096e+01	-9.951312e+00
3.915583e+01	-9.996458e+00
3.938199e+01	-1.004119e+01
3.960946e+01	-1.008609e+01
3.983824e+01	-1.013158e+01
4.006834e+01	-1.017679e+01
4.029978e+01	-1.022235e+01
4.053255e+01	-1.026653e+01
4.076666e+01	-1.031232e+01
4.100213e+01	-1.035803e+01
4.123896e+01	-1.040303e+01
4.147715e+01	-1.044873e+01
4.171672e+01	-1.049451e+01
4.195767e+01	-1.054010e+01
4.220002e+01	-1.058550e+01
4.244377e+01	-1.063134e+01
4.268892e+01	-1.067736e+01
4.293549e+01	-1.072319e+01
4.318348e+01	-1.076808e+01
4.343291e+01	-1.081455e+01
4.368377e+01	-1.086017e+01
4.393609e+01	-1.090669e+01
4.418986e+01	-1.095237e+01
4.444510e+01	-1.099846e+01
4.470182e+01	-1.104455e+01
4.496001e+01	-1.109023e+01
4.521970e+01	-1.113653e+01
4.548089e+01	-1.118315e+01
4.574358e+01	-1.122901e+01
4.600779e+01	-1.127547e+01
4.627353e+01	-1.132178e+01
4.654081e+01	-1.136760e+01
4.680963e+01	-1.141438e+01
4.708000e+01	-1.146069e+01
4.735193e+01	-1.150743e+01
4.762543e+01	-1.155363e+01
4.790051e+01	-1.159968e+01
4.817719e+01	-1.164797e+01
4.845545e+01	-1.169353e+01
4.873533e+01	-1.174023e+01
4.901682e+01	-1.178684e+01
4.929994e+01	-1.183339e+01
4.958470e+01	-1.188058e+01
4.987110e+01	-1.192773e+01
5.015915e+01	-1.197399e+01
5.044887e+01	-1.202122e+01
5.074026e+01	-1.206786e+01
5.103333e+01	-1.211557e+01
5.132810e+01	-1.216184e+01
5.162457e+01	-1.220931e+01
5.192275e+01	-1.225483e+01
5.222265e+01	-1.230273e+01
5.252429e+01	-1.235003e+01
5.282767e+01	-1.239652e+01
5.313280e+01	-1.244424e+01
5.343969e+01	-1.249103e+01
5.374836e+01	-1.253799e+01
5.405880e+01	-1.258553e+01
5.437105e+01	-1.263287e+01
5.468509e+01	-1.268016e+01
5.500095e+01	-1.272791e+01
5.531863e+01	-1.277541e+01
5.563815e+01	-1.282271e+01
5.595951e+01	-1.287008e+01
5.628273e+01	-1.291829e+01
5.660782e+01	-1.296503e+01
5.693479e+01	-1.301209e+01
5.726364e+01	-1.306023e+01
5.759439e+01	-1.310807e+01
5.792705e+01	-1.315557e+01
5.826164e+01	-1.320287e+01
5.859815e+01	-1.325016e+01
5.893662e+01	-1.329814e+01
5.927703e+01	-1.334580e+01
5.961941e+01	-1.339450e+01
5.996377e+01	-1.344115e+01
6.031012e+01	-1.348904e+01
6.065847e+01	-1.353718e+01
6.100883e+01	-1.358498e+01
6.136121e+01	-1.363235e+01
6.171563e+01	-1.368030e+01
6.207210e+01	-1.372885e+01
6.243063e+01	-1.377613e+01
6.279122e+01	-1.382508e+01
6.315390e+01	-1.387203e+01
6.351868e+01	-1.391985e+01
6.388556e+01	-1.396846e+01
6.425456e+01	-1.401675e+01
6.462569e+01	-1.406383e+01
6.499897e+01	-1.411259e+01
6.537440e+01	-1.416105e+01
6.575200e+01	-1.420944e+01
6.613178e+01	-1.425764e+01
6.651375e+01	-1.430536e+01
6.689793e+01	-1.435289e+01
6.728433e+01	-1.440138e+01
6.767297e+01	-1.444997e+01
6.806384e+01	-1.449788e+01
6.845698e+01	-1.454651e+01
6.885238e+01	-1.459397e+01
6.925007e+01	-1.464343e+01
6.965005e+01	-1.469126e+01
7.005235e+01	-1.473998e+01
7.045697e+01	-1.478748e+01
7.086393e+01	-1.483611e+01
7.127323e+01	-1.488418e+01
7.168490e+01	-1.493300e+01
7.209895e+01	-1.498102e+01
7.251539e+01	-1.502983e+01
7.293424e+01	-1.507760e+01
7.335551e+01	-1.512629e+01
7.377920e+01	-1.517495e+01
7.420535e+01	-1.522275e+01
7.463396e+01	-1.527130e+01
7.506504e+01	-1.532052e+01
7.549861e+01	-1.536956e+01
7.593469e+01	-1.541719e+01
7.637328e+01	-1.546702e+01
7.681441e+01	-1.551565e+01
7.725809e+01	-1.556429e+01
7.770433e+01	-1.561209e+01
7.815315e+01	-1.566102e+01
7.860456e+01	-1.570954e+01
7.905857e+01	-1.575749e+01
7.951521e+01	-1.580727e+01
7.997449e+01	-1.585573e+01
8.043642e+01	-1.590416e+01
8.090102e+01	-1.595358e+01
8.136830e+01	-1.600245e+01
8.183828e+01	-1.605121e+01
8.231097e+01	-1.609965e+01
8.278640e+01	-1.614868e+01
8.326457e+01	-1.619733e+01
8.374550e+01	-1.624638e+01
8.422921e+01	-1.629537e+01
8.471572e+01	-1.634445e+01
8.520503e+01	-1.639300e+01
8.569717e+01	-1.644091e+01
8.619215e+01	-1.649020e+01
8.669000e+01	-1.653983e+01
8.719071e+01	-1.658788e+01
8.769432e+01	-1.663761e+01
8.820084e+01	-1.668712e+01
8.871029e+01	-1.673544e+01
8.922267e+01	-1.678488e+01
8.973802e+01	-1.683304e+01
9.025634e+01	-1.688237e+01
9.077766e+01	-1.693118e+01
9.130199e+01	-1.697973e+01
9.182935e+01	-1.702841e+01
9.235975e+01	-1.707808e+01
9.289321e+01	-1.712725e+01
9.342976e+01	-1.717715e+01
9.396941e+01	-1.722581e+01
9.451217e+01	-1.727475e+01
9.505807e+01	-1.732401e+01
9.560712e+01	-1.737256e+01
9.615934e+01	-1.742329e+01
9.671476e+01	-1.747123e+01
9.727338e+01	-1.752139e+01
9.783522e+01	-1.757028e+01
9.840032e+01	-1.761816e+01
9.896867e+01	-1.766841e+01
9.954031e+01	-1.771695e+01
1.001153e+02	-1.776527e+01
1.006935e+02	-1.781645e+01
1.012751e+02	-1.786432e+01
1.018601e+02	-1.791465e+01
1.024484e+02	-1.796310e+01
1.030402e+02	-1.801347e+01
1.036353e+02	-1.806068e+01
1.042339e+02	-1.811144e+01
1.048360e+02	-1.815942e+01
1.054415e+02	-1.820838e+01
1.060505e+02	-1.825883e+01
1.066631e+02	-1.830839e+01
1.072791e+02	-1.835821e+01
1.078988e+02	-1.840706e+01
1.085220e+02	-1.845445e+01
1.091488e+02	-1.850359e+01
1.097793e+02	-1.855399e+01
1.104133e+02	-1.860148e+01
1.110511e+02	-1.865240e+01
1.116925e+02	-1.870301e+01
1.123376e+02	-1.875173e+01
1.129865e+02	-1.879921e+01
1.136391e+02	-1.884950e+01
1.142955e+02	-1.889967e+01
1.149556e+02	-1.894938e+01
1.156196e+02	-1.899896e+01
1.162874e+02	-1.904765e+01
1.169591e+02	-1.909688e+01
1.176347e+02	-1.914739e+01
1.183141e+02	-1.919510e+01
1.189975e+02	-1.924584e+01
1.196848e+02	-1.929549e+01
1.203761e+02	-1.934584e+01
1.210714e+02	-1.939489e+01
1.217707e+02	-1.944526e+01
1.224740e+02	-1.949283e+01
1.231814e+02	-1.954339e+01
1.238929e+02	-1.959298e+01
1.246085e+02	-1.964116e+01
1.253283e+02	-1.969095e+01
1.260522e+02	-1.974037e+01
1.267802e+02	-1.978906e+01
1.275125e+02	-1.983852e+01
1.282490e+02	-1.988919e+01
1.289898e+02	-1.994010e+01
1.297348e+02	-1.998768e+01
1.304842e+02	-2.003995e+01
1.312378e+02	-2.008743e+01
1.319959e+02	-2.013470e+01
1.327583e+02	-2.018566e+01
1.335251e+02	-2.023489e+01
1.342963e+02	-2.028650e+01
1.350720e+02	-2.033291e+01
1.358522e+02	-2.038530e+01
1.366368e+02	-2.043497e+01
1.374260e+02	-2.048405e+01
1.382198e+02	-2.053373e+01
1.390182e+02	-2.058357e+01
1.398211e+02	-2.063399e+01
1.406287e+02	-2.068235e+01
1.414410e+02	-2.073268e+01
1.422579e+02	-2.078229e+01
1.430796e+02	-2.083100e+01
1.439060e+02	-2.087906e+01
1.447372e+02	-2.092978e+01
1.455732e+02	-2.097973e+01
1.464141e+02	-2.103046e+01
1.472597e+02	-2.108057e+01
1.481103e+02	-2.112779e+01
1.489658e+02	-2.117936e+01
1.498262e+02	-2.122815e+01
1.506916e+02	-2.127684e+01
1.515620e+02	-2.132897e+01
1.524374e+02	-2.137618e+01
1.533179e+02	-2.142616e+01
1.542034e+02	-2.147733e+01
1.550941e+02	-2.152499e+01
1.559899e+02	-2.157549e+01
1.568909e+02	-2.162741e+01
1.577971e+02	-2.167264e+01
1.587085e+02	-2.172632e+01
1.596252e+02	-2.177529e+01
1.605472e+02	-2.182515e+01
1.614745e+02	-2.187447e+01
1.624072e+02	-2.192409e+01
1.633453e+02	-2.197244e+01
1.642887e+02	-2.202222e+01
1.652377e+02	-2.207358e+01
1.661921e+02	-2.212168e+01
1.671520e+02	-2.217337e+01
1.681175e+02	-2.222116e+01
1.690885e+02	-2.227049e+01
1.700651e+02	-2.232179e+01
1.710474e+02	-2.237129e+01
1.720354e+02	-2.242062e+01
1.730291e+02	-2.247230e+01
1.740285e+02	-2.252032e+01
1.750337e+02	-2.257080e+01
1.760446e+02	-2.261944e+01
1.770615e+02	-2.267146e+01
1.780842e+02	-2.272234e+01
1.791128e+02	-2.276857e+01
1.801473e+02	-2.282017e+01
1.811878e+02	-2.286900e+01
1.822344e+02	-2.291991e+01
1.832870e+02	-2.296742e+01
1.843456e+02	-2.302002e+01
1.854104e+02	-2.306751e+01
1.864813e+02	-2.311784e+01
1.875584e+02	-2.316815e+01
1.886418e+02	-2.321658e+01
1.897313e+02	-2.327058e+01
1.908272e+02	-2.331892e+01
1.919294e+02	-2.336755e+01
1.930380e+02	-2.341824e+01
1.941530e+02	-2.346738e+01
1.952744e+02	-2.351847e+01
1.964023e+02	-2.356778e+01
1.975367e+02	-2.361672e+01
1.986777e+02	-2.366557e+01
1.998252e+02	-2.371503e+01
2.009794e+02	-2.376618e+01
2.021403e+02	-2.381597e+01
2.033078e+02	-2.386740e+01
2.044821e+02	-2.391432e+01
2.056632e+02	-2.396729e+01
2.068511e+02	-2.401667e+01
2.080459e+02	-2.406658e+01
2.092475e+02	-2.411580e+01
2.104561e+02	-2.416740e+01
2.116717e+02	-2.421497e+01
2.128943e+02	-2.426404e+01
2.141240e+02	-2.431386e+01
2.153608e+02	-2.436538e+01
2.166047e+02	-2.441164e+01
2.178558e+02	-2.446309e+01
2.191141e+02	-2.451259e+01
2.203797e+02	-2.456413e+01
2.216526e+02	-2.461602e+01
2.229329e+02	-2.466319e+01
2.242205e+02	-2.471291e+01
2.255156e+02	-2.476238e+01
2.268182e+02	-2.480957e+01
2.281283e+02	-2.486402e+01
2.294459e+02	-2.491201e+01
2.307712e+02	-2.496403e+01
2.321041e+02	-2.501118e+01
2.334447e+02	-2.506302e+01
2.347931e+02	-2.511386e+01
2.361493e+02	-2.516594e+01
2.375133e+02	-2.521298e+01
2.388851e+02	-2.526045e+01
2.402649e+02	-2.531330e+01
2.416527e+02	-2.536351e+01
2.430484e+02	-2.541188e+01
2.444523e+02	-2.546492e+01
2.458642e+02	-2.551128e+01
2.472843e+02	-2.555985e+01
2.487126e+02	-2.561210e+01
2.501492e+02	-2.566481e+01
2.515940e+02	-2.571097e+01
2.530472e+02	-2.576261e+01
2.545088e+02	-2.581235e+01
2.559789e+02	-2.586305e+01
2.574574e+02	-2.591124e+01
2.589444e+02	-2.596163e+01
2.604401e+02	-2.601215e+01
2.619444e+02	-2.606137e+01
2.634574e+02	-2.610989e+01
2.649791e+02	-2.616174e+01
2.665096e+02	-2.621042e+01
2.680489e+02	-2.626049e+01
2.695972e+02	-2.630802e+01
2.711544e+02	-2.636509e+01
2.727205e+02	-2.641089e+01
2.742958e+02	-2.646211e+01
2.758801e+02	-2.651211e+01
2.774736e+02	-2.656249e+01
2.790762e+02	-2.661120e+01
2.806882e+02	-2.665910e+01
2.823094e+02	-2.671027e+01
2.839400e+02	-2.676295e+01
2.855800e+02	-2.681251e+01
2.872295e+02	-2.686187e+01
2.888886e+02	-2.690946e+01
2.905572e+02	-2.696146e+01
2.922354e+02	-2.700775e+01
2.939234e+02	-2.706062e+01
2.956211e+02	-2.710891e+01
2.973286e+02	-2.716305e+01
2.990459e+02	-2.720863e+01
3.007732e+02	-2.725942e+01
3.025104e+02	-2.731047e+01
3.042577e+02	-2.736093e+01
3.060151e+02	-2.741043e+01
3.077826e+02	-2.746179e+01
3.095604e+02	-2.751054e+01
3.113484e+02	-2.756244e+01
3.131467e+02	-2.760999e+01
3.149554e+02	-2.766044e+01
3.167746e+02	-2.771288e+01
3.186043e+02	-2.776392e+01
3.204445e+02	-2.780816e+01
3.222954e+02	-2.786100e+01
3.241570e+02	-2.791504e+01
3.260293e+02	-2.796487e+01
3.279124e+02	-2.801249e+01
3.298064e+02	-2.806093e+01
3.317114e+02	-2.810974e+01
3.336273e+02	-2.815994e+01
3.355544e+02	-2.821373e+01
3.374925e+02	-2.826250e+01
3.394418e+02	-2.831145e+01
3.414024e+02	-2.835971e+01
3.433744e+02	-2.841288e+01
3.453577e+02	-2.846461e+01
3.473525e+02	-2.851404e+01
3.493588e+02	-2.855995e+01
3.513766e+02	-2.861243e+01
3.534062e+02	-2.866093e+01
3.554474e+02	-2.871179e+01
3.575005e+02	-2.876396e+01
3.595654e+02	-2.881237e+01
3.616422e+02	-2.886195e+01
3.637311e+02	-2.891264e+01
3.658320e+02	-2.896232e+01
3.679450e+02	-2.900772e+01
3.700702e+02	-2.906328e+01
3.722077e+02	-2.910995e+01
3.743576e+02	-2.916008e+01
3.765199e+02	-2.921199e+01
3.786946e+02	-2.925878e+01
3.808820e+02	-2.931279e+01
3.830819e+02	-2.936354e+01
3.852946e+02	-2.941270e+01
3.875200e+02	-2.946275e+01
3.897583e+02	-2.951145e+01
3.920096e+02	-2.956250e+01
3.942738e+02	-2.961398e+01
3.965511e+02	-2.965894e+01
3.988416e+02	-2.971123e+01
4.011452e+02	-2.976443e+01
4.034622e+02	-2.981488e+01
4.057926e+02	-2.986220e+01
4.081365e+02	-2.990969e+01
4.104938e+02	-2.996053e+01
4.128648e+02	-3.001308e+01
4.152495e+02	-3.006391e+01
4.176480e+02	-3.011512e+01
4.200603e+02	-3.016554e+01
4.224866e+02	-3.021625e+01
4.249268e+02	-3.026497e+01
4.273812e+02	-3.031503e+01
4.298497e+02	-3.036628e+01
4.323325e+02	-3.041105e+01
4.348297e+02	-3.046644e+01
4.373412e+02	-3.051015e+01
4.398673e+02	-3.055761e+01
4.424079e+02	-3.061877e+01
4.449633e+02	-3.066745e+01
4.475334e+02	-3.071771e+01
4.501183e+02	-3.076069e+01
4.527182e+02	-3.081286e+01
4.553330e+02	-3.086060e+01
4.579630e+02	-3.091600e+01
4.606082e+02	-3.096264e+01
4.632687e+02	-3.101604e+01
4.659445e+02	-3.106868e+01
4.686358e+02	-3.112170e+01
4.713426e+02	-3.116388e+01
4.740650e+02	-3.122043e+01
4.768032e+02	-3.126894e+01
4.795572e+02	-3.131973e+01
4.823271e+02	-3.136774e+01
4.851130e+02	-3.141276e+01
4.879150e+02	-3.146395e+01
4.907332e+02	-3.151856e+01
4.935676e+02	-3.156329e+01
4.964185e+02	-3.161565e+01
4.992858e+02	-3.166723e+01
5.021696e+02	-3.171916e+01
5.050701e+02	-3.176724e+01
5.079874e+02	-3.181823e+01
5.109215e+02	-3.187165e+01
5.138726e+02	-3.191774e+01
5.168407e+02	-3.197290e+01
5.198259e+02	-3.202257e+01
5.228284e+02	-3.207673e+01
5.258482e+02	-3.212127e+01
5.288855e+02	-3.216860e+01
5.319403e+02	-3.222172e+01
5.350128e+02	-3.226437e+01
5.381030e+02	-3.232100e+01
5.412111e+02	-3.237238e+01
5.443371e+02	-3.242039e+01
5.474812e+02	-3.247217e+01
5.506434e+02	-3.252109e+01
5.538239e+02	-3.257816e+01
5.570228e+02	-3.261748e+01
5.602401e+02	-3.266818e+01
5.634760e+02	-3.272327e+01
5.667306e+02	-3.276954e+01
5.700040e+02	-3.282272e+01
5.732964e+02	-3.287118e+01
5.766077e+02	-3.291735e+01
5.799382e+02	-3.297990e+01
5.832879e+02	-3.302505e+01
5.866569e+02	-3.307509e+01
5.900454e+02	-3.312809e+01
5.934535e+02	-3.317823e+01
5.968813e+02	-3.322630e+01
6.003288e+02	-3.327509e+01
6.037963e+02	-3.332322e+01
6.072838e+02	-3.337704e+01
6.107914e+02	-3.342609e+01
6.143194e+02	-3.346805e+01
6.178676e+02	-3.352890e+01
6.214364e+02	-3.357673e+01
6.250258e+02	-3.362569e+01
6.286359e+02	-3.367788e+01
6.322669e+02	-3.372546e+01
6.359189e+02	-3.378078e+01
6.395919e+02	-3.382423e+01
6.432862e+02	-3.387672e+01
6.470017e+02	-3.393393e+01
6.507388e+02	-3.397612e+01
6.544974e+02	-3.402538e+01
6.582778e+02	-3.407838e+01
6.620800e+02	-3.413137e+01
6.659041e+02	-3.417709e+01
6.697504e+02	-3.423188e+01
6.736188e+02	-3.428167e+01
6.775096e+02	-3.433556e+01
6.814229e+02	-3.438100e+01
6.853587e+02	-3.442314e+01
6.893173e+02	-3.448602e+01
6.932988e+02	-3.452804e+01
6.973033e+02	-3.458848e+01
7.013309e+02	-3.462641e+01
