Frequency(Hz)	Magnitude(dB)
1.000000e+01	-2.203529e+00
1.005776e+01	-2.223944e+00
1.011585e+01	-2.243683e+00
1.017428e+01	-2.264027e+00
1.023305e+01	-2.284596e+00
1.029215e+01	-2.305213e+00
1.035160e+01	-2.325813e+00
1.041139e+01	-2.346661e+00
1.047153e+01	-2.367462e+00
1.053201e+01	-2.388725e+00
1.059284e+01	-2.409821e+00
1.065403e+01	-2.430963e+00
1.071556e+01	-2.452655e+00
1.077746e+01	-2.474548e+00
1.083971e+01	-2.496005e+00
1.090232e+01	-2.518152e+00
1.096529e+01	-2.540404e+00
1.102862e+01	-2.562248e+00
1.109232e+01	-2.584652e+00
1.115639e+01	-2.607279e+00
1.122083e+01	-2.630233e+00
1.128564e+01	-2.652771e+00
1.135083e+01	-2.675588e+00
1.141639e+01	-2.698798e+00
1.148233e+01	-2.721982e+00
1.154865e+01	-2.745253e+00
1.161536e+01	-2.768749e+00
1.168245e+01	-2.792566e+00
1.174992e+01	-2.816272e+00
1.181779e+01	-2.840170e+00
1.188605e+01	-2.864396e+00
1.195470e+01	-2.888703e+00
1.202375e+01	-2.912874e+00
1.209320e+01	-2.937615e+00
1.216305e+01	-2.962053e+00
1.223330e+01	-2.987129e+00
1.230396e+01	-3.011725e+00
1.237503e+01	-3.036894e+00
1.244651e+01	-3.062139e+00
1.251840e+01	-3.087412e+00
1.259070e+01	-3.112992e+00
1.266343e+01	-3.138586e+00
1.273657e+01	-3.164392e+00
1.281014e+01	-3.190536e+00
1.288413e+01	-3.216752e+00
1.295855e+01	-3.242711e+00
1.303339e+01	-3.269312e+00
1.310867e+01	-3.295895e+00
1.318439e+01	-3.322799e+00
1.326054e+01	-3.349240e+00
1.333713e+01	-3.376016e+00
1.341417e+01	-3.403416e+00
1.349165e+01	-3.430640e+00
1.356958e+01	-3.458096e+00
1.364795e+01	-3.485562e+00
1.372678e+01	-3.513070e+00
1.380607e+01	-3.541062e+00
1.388581e+01	-3.568908e+00
1.396602e+01	-3.597178e+00
1.404668e+01	-3.625399e+00
1.412782e+01	-3.653703e+00
1.420942e+01	-3.682209e+00
1.429149e+01	-3.711021e+00
1.437404e+01	-3.740102e+00
1.445706e+01	-3.768784e+00
1.454057e+01	-3.797647e+00
1.462455e+01	-3.827072e+00
1.470902e+01	-3.856497e+00
1.479398e+01	-3.886013e+00
1.487943e+01	-3.915285e+00
1.496537e+01	-3.945479e+00
1.505181e+01	-3.975350e+00
1.513875e+01	-4.005307e+00
1.522619e+01	-4.035330e+00
1.531414e+01	-4.065810e+00
1.540259e+01	-4.096358e+00
1.549156e+01	-4.126825e+00
1.558103e+01	-4.157472e+00
1.567103e+01	-4.188657e+00
1.576155e+01	-4.219693e+00
1.585258e+01	-4.250887e+00
1.594415e+01	-4.281981e+00
1.603624e+01	-4.313634e+00
1.612886e+01	-4.345099e+00
1.622202e+01	-4.376737e+00
1.631572e+01	-4.408723e+00
1.640996e+01	-4.440703e+00
1.650474e+01	-4.472656e+00
1.660008e+01	-4.505046e+00
1.669596e+01	-4.537563e+00
1.679239e+01	-4.569905e+00
1.688938e+01	-4.602360e+00
1.698694e+01	-4.635072e+00
1.708505e+01	-4.668189e+00
1.718373e+01	-4.701034e+00
1.728299e+01	-4.734232e+00
1.738281e+01	-4.767429e+00
1.748322e+01	-4.800908e+00
1.758420e+01	-4.834387e+00
1.768576e+01	-4.868043e+00
1.778792e+01	-4.901701e+00
1.789066e+01	-4.935418e+00
1.799399e+01	-4.969838e+00
1.809793e+01	-5.003905e+00
1.820246e+01	-5.038123e+00
1.830760e+01	-5.072538e+00
1.841334e+01	-5.107155e+00
1.851969e+01	-5.141914e+00
1.862666e+01	-5.176364e+00
1.873425e+01	-5.211501e+00
1.884246e+01	-5.246432e+00
1.895129e+01	-5.281489e+00
1.906075e+01	-5.317112e+00
1.917085e+01	-5.352629e+00
1.928158e+01	-5.387703e+00
1.939295e+01	-5.423288e+00
1.950496e+01	-5.459250e+00
1.961762e+01	-5.495005e+00
1.973093e+01	-5.530750e+00
1.984490e+01	-5.566948e+00
1.995952e+01	-5.603095e+00
2.007480e+01	-5.639480e+00
2.019076e+01	-5.675594e+00
2.030738e+01	-5.712602e+00
2.042467e+01	-5.748935e+00
2.054264e+01	-5.786300e+00
2.066130e+01	-5.822770e+00
2.078064e+01	-5.859595e+00
2.090066e+01	-5.897011e+00
2.102139e+01	-5.934012e+00
2.114280e+01	-5.971490e+00
2.126492e+01	-6.009125e+00
2.138775e+01	-6.046295e+00
2.151128e+01	-6.084222e+00
2.163553e+01	-6.121898e+00
2.176050e+01	-6.159467e+00
2.188619e+01	-6.197670e+00
2.201260e+01	-6.235659e+00
2.213974e+01	-6.273995e+00
2.226762e+01	-6.311679e+00
2.239624e+01	-6.350494e+00
2.252560e+01	-6.389145e+00
2.265571e+01	-6.427570e+00
2.278656e+01	-6.466475e+00
2.291818e+01	-6.505045e+00
2.305055e+01	-6.543883e+00
2.318369e+01	-6.582756e+00
2.331760e+01	-6.622346e+00
2.345228e+01	-6.661314e+00
2.358774e+01	-6.700576e+00
2.372398e+01	-6.740119e+00
2.386101e+01	-6.779564e+00
2.399883e+01	-6.818918e+00
2.413745e+01	-6.858802e+00
2.427686e+01	-6.898274e+00
2.441709e+01	-6.938314e+00
2.455812e+01	-6.978532e+00
2.469997e+01	-7.018419e+00
2.484263e+01	-7.058529e+00
2.498612e+01	-7.098853e+00
2.513044e+01	-7.139272e+00
2.527559e+01	-7.179281e+00
2.542158e+01	-7.219868e+00
2.556842e+01	-7.260321e+00
2.571610e+01	-7.301089e+00
2.586463e+01	-7.341902e+00
2.601403e+01	-7.382900e+00
2.616428e+01	-7.424063e+00
2.631541e+01	-7.464404e+00
2.646740e+01	-7.505448e+00
2.662028e+01	-7.546933e+00
2.677404e+01	-7.588201e+00
2.692868e+01	-7.629586e+00
2.708422e+01	-7.670775e+00
2.724066e+01	-7.712424e+00
2.739800e+01	-7.754107e+00
2.755625e+01	-7.796012e+00
2.771541e+01	-7.837372e+00
2.787550e+01	-7.879101e+00
2.803650e+01	-7.921005e+00
2.819844e+01	-7.963279e+00
2.836131e+01	-8.005167e+00
2.852513e+01	-8.047250e+00
2.868989e+01	-8.089858e+00
2.885560e+01	-8.132039e+00
2.902227e+01	-8.174516e+00
2.918990e+01	-8.216753e+00
2.935850e+01	-8.259279e+00
2.952807e+01	-8.302089e+00
2.969863e+01	-8.344629e+00
2.987016e+01	-8.387504e+00
3.004269e+01	-8.430516e+00
3.021622e+01	-8.472783e+00
3.039075e+01	-8.516106e+00
3.056628e+01	-8.558973e+00
3.074283e+01	-8.601914e+00
3.092040e+01	-8.644992e+00
3.109900e+01	-8.688748e+00
3.127862e+01	-8.731566e+00
3.145929e+01	-8.775057e+00
3.164099e+01	-8.818329e+00
3.182375e+01	-8.862002e+00
3.200756e+01	-8.905435e+00
3.219244e+01	-8.949027e+00
3.237838e+01	-8.993006e+00
3.256540e+01	-9.036299e+00
3.275349e+01	-9.080170e+00
3.294268e+01	-9.124070e+00
3.313295e+01	-9.167859e+00
3.332433e+01	-9.212375e+00
3.351681e+01	-9.256312e+00
3.371040e+01	-9.300559e+00
3.390511e+01	-9.344351e+00
3.410094e+01	-9.388758e+00
3.429791e+01	-9.432900e+00
3.449601e+01	-9.477408e+00
3.469526e+01	-9.521645e+00
3.489566e+01	-9.566446e+00
3.509721e+01	-9.610481e+00
3.529993e+01	-9.655474e+00
3.550382e+01	-9.700100e+00
3.570889e+01	-9.744237e+00
3.591515e+01	-9.789504e+00
3.612259e+01	-9.834285e+00
3.633123e+01	-9.878797e+00
3.654108e+01	-9.923815e+00
3.675214e+01	-9.969237e+00
3.696442e+01	-1.001365e+01
3.717792e+01	-1.005926e+01
3.739266e+01	-1.010445e+01
3.760864e+01	-1.014928e+01
3.782587e+01	-1.019435e+01
3.804435e+01	-1.023973e+01
3.826409e+01	-1.028538e+01
3.848510e+01	-1.033013e+01
3.870739e+01	-1.037598e+01
3.893096e+01	-1.042162e+01
3.915583e+01	-1.046684e+01
3.938199e+01	-1.051227e+01
3.960946e+01	-1.055845e+01
3.983824e+01	-1.060406e+01
4.006834e+01	-1.064889e+01
4.029978e+01	-1.069512e+01
4.053255e+01	-1.074132e+01
4.076666e+01	-1.078655e+01
4.100213e+01	-1.083201e+01
4.123896e+01	-1.087869e+01
4.147715e+01	-1.092458e+01
4.171672e+01	-1.097062e+01
4.195767e+01	-1.101678e+01
4.220002e+01	-1.106270e+01
4.244377e+01	-1.110896e+01
4.268892e+01	-1.115472e+01
4.293549e+01	-1.120143e+01
4.318348e+01	-1.124700e+01
4.343291e+01	-1.129347e+01
4.368377e+01	-1.134024e+01
4.393609e+01	-1.138702e+01
4.418986e+01	-1.143246e+01
4.444510e+01	-1.147952e+01
4.470182e+01	-1.152589e+01
4.496001e+01	-1.157254e+01
4.521970e+01	-1.161855e+01
4.548089e+01	-1.166562e+01
4.574358e+01	-1.171163e+01
4.600779e+01	-1.175871e+01
4.627353e+01	-1.180577e+01
4.654081e+01	-1.185152e+01
4.680963e+01	-1.189897e+01
4.708000e+01	-1.194574e+01
4.735193e+01	-1.199290e+01
4.762543e+01	-1.203959e+01
4.790051e+01	-1.208614e+01
4.817719e+01	-1.213343e+01
4.845545e+01	-1.218082e+01
4.873533e+01	-1.222763e+01
4.901682e+01	-1.227496e+01
4.929994e+01	-1.232176e+01
4.958470e+01	-1.236918e+01
4.987110e+01	-1.241574e+01
5.015915e+01	-1.246355e+01
5.044887e+01	-1.251041e+01
5.074026e+01	-1.255764e+01
5.103333e+01	-1.260436e+01
5.132810e+01	-1.265189e+01
5.162457e+01	-1.269931e+01
5.192275e+01	-1.274777e+01
5.222265e+01	-1.279417e+01
5.252429e+01	-1.284150e+01
5.282767e+01	-1.288850e+01
5.313280e+01	-1.293723e+01
5.343969e+01	-1.298352e+01
5.374836e+01	-1.303178e+01
5.405880e+01	-1.307818e+01
5.437105e+01	-1.312639e+01
5.468509e+01	-1.317422e+01
5.500095e+01	-1.322194e+01
5.531863e+01	-1.326985e+01
5.563815e+01	-1.331704e+01
5.595951e+01	-1.336488e+01
5.628273e+01	-1.341233e+01
5.660782e+01	-1.346084e+01
5.693479e+01	-1.350864e+01
5.726364e+01	-1.355641e+01
5.759439e+01	-1.360427e+01
5.792705e+01	-1.365160e+01
5.826164e+01	-1.369955e+01
5.859815e+01	-1.374701e+01
5.893662e+01	-1.379603e+01
5.927703e+01	-1.384336e+01
5.961941e+01	-1.389146e+01
5.996377e+01	-1.393921e+01
6.031012e+01	-1.398780e+01
6.065847e+01	-1.403511e+01
6.100883e+01	-1.408352e+01
6.136121e+01	-1.413165e+01
6.171563e+01	-1.417964e+01
6.207210e+01	-1.422753e+01
6.243063e+01	-1.427590e+01
6.279122e+01	-1.432352e+01
6.315390e+01	-1.437144e+01
6.351868e+01	-1.442050e+01
6.388556e+01	-1.446929e+01
6.425456e+01	-1.451651e+01
6.462569e+01	-1.456545e+01
6.499897e+01	-1.461319e+01
6.537440e+01	-1.466212e+01
6.575200e+01	-1.471028e+01
6.613178e+01	-1.475881e+01
6.651375e+01	-1.480640e+01
6.689793e+01	-1.485524e+01
6.728433e+01	-1.490369e+01
6.767297e+01	-1.495207e+01
6.806384e+01	-1.499985e+01
6.845698e+01	-1.504845e+01
6.885238e+01	-1.509671e+01
6.925007e+01	-1.514591e+01
6.965005e+01	-1.519451e+01
7.005235e+01	-1.524298e+01
7.045697e+01	-1.529147e+01
7.086393e+01	-1.534022e+01
7.127323e+01	-1.538823e+01
7.168490e+01	-1.543666e+01
7.209895e+01	-1.548536e+01
7.251539e+01	-1.553438e+01
7.293424e+01	-1.558349e+01
7.335551e+01	-1.563240e+01
7.377920e+01	-1.567937e+01
7.420535e+01	-1.572918e+01
7.463396e+01	-1.577758e+01
7.506504e+01	-1.582606e+01
7.549861e+01	-1.587584e+01
7.593469e+01	-1.592369e+01
7.637328e+01	-1.597352e+01
7.681441e+01	-1.602134e+01
7.725809e+01	-1.606965e+01
7.770433e+01	-1.612006e+01
7.815315e+01	-1.616723e+01
7.860456e+01	-1.621603e+01
7.905857e+01	-1.626382e+01
7.951521e+01	-1.631341e+01
7.997449e+01	-1.636357e+01
8.043642e+01	-1.641282e+01
8.090102e+01	-1.646131e+01
8.136830e+01	-1.651062e+01
8.183828e+01	-1.656001e+01
8.231097e+01	-1.660722e+01
8.278640e+01	-1.665703e+01
8.326457e+01	-1.670561e+01
8.374550e+01	-1.675485e+01
8.422921e+01	-1.680368e+01
8.471572e+01	-1.685197e+01
8.520503e+01	-1.690002e+01
8.569717e+01	-1.695084e+01
8.619215e+01	-1.699978e+01
8.669000e+01	-1.704933e+01
8.719071e+01	-1.709650e+01
8.769432e+01	-1.714698e+01
8.820084e+01	-1.719565e+01
8.871029e+01	-1.724565e+01
8.922267e+01	-1.729471e+01
8.973802e+01	-1.734313e+01
9.025634e+01	-1.739259e+01
9.077766e+01	-1.744116e+01
9.130199e+01	-1.749049e+01
9.182935e+01	-1.753981e+01
9.235975e+01	-1.758777e+01
9.289321e+01	-1.763687e+01
9.342976e+01	-1.768745e+01
9.396941e+01	-1.773498e+01
9.451217e+01	-1.778607e+01
9.505807e+01	-1.783547e+01
9.560712e+01	-1.788374e+01
9.615934e+01	-1.793207e+01
9.671476e+01	-1.798173e+01
9.727338e+01	-1.803173e+01
9.783522e+01	-1.808270e+01
9.840032e+01	-1.813107e+01
9.896867e+01	-1.817936e+01
9.954031e+01	-1.822761e+01
1.001153e+02	-1.827789e+01
1.006935e+02	-1.832815e+01
1.012751e+02	-1.837670e+01
1.018601e+02	-1.842474e+01
1.024484e+02	-1.847631e+01
1.030402e+02	-1.852434e+01
1.036353e+02	-1.857341e+01
1.042339e+02	-1.862395e+01
1.048360e+02	-1.867178e+01
1.054415e+02	-1.872159e+01
1.060505e+02	-1.877047e+01
1.066631e+02	-1.882078e+01
1.072791e+02	-1.887041e+01
1.078988e+02	-1.892006e+01
1.085220e+02	-1.896736e+01
1.091488e+02	-1.901878e+01
1.097793e+02	-1.906727e+01
1.104133e+02	-1.911836e+01
1.110511e+02	-1.916830e+01
1.116925e+02	-1.921409e+01
1.123376e+02	-1.926586e+01
1.129865e+02	-1.931505e+01
1.136391e+02	-1.936401e+01
1.142955e+02	-1.941411e+01
1.149556e+02	-1.946267e+01
1.156196e+02	-1.951414e+01
1.162874e+02	-1.956133e+01
1.169591e+02	-1.961033e+01
1.176347e+02	-1.966278e+01
1.183141e+02	-1.971240e+01
1.189975e+02	-1.976095e+01
1.196848e+02	-1.980951e+01
1.203761e+02	-1.985971e+01
1.210714e+02	-1.990656e+01
1.217707e+02	-1.995935e+01
1.224740e+02	-2.000846e+01
1.231814e+02	-2.005765e+01
1.238929e+02	-2.010653e+01
1.246085e+02	-2.015678e+01
1.253283e+02	-2.020471e+01
1.260522e+02	-2.025517e+01
1.267802e+02	-2.030708e+01
1.275125e+02	-2.035534e+01
1.282490e+02	-2.040377e+01
1.289898e+02	-2.045464e+01
1.297348e+02	-2.050313e+01
1.304842e+02	-2.055299e+01
1.312378e+02	-2.060347e+01
1.319959e+02	-2.065061e+01
1.327583e+02	-2.070237e+01
1.335251e+02	-2.075223e+01
1.342963e+02	-2.079909e+01
1.350720e+02	-2.085096e+01
1.358522e+02	-2.090127e+01
1.366368e+02	-2.094909e+01
1.374260e+02	-2.099782e+01
1.382198e+02	-2.104834e+01
1.390182e+02	-2.109897e+01
1.398211e+02	-2.114933e+01
1.406287e+02	-2.119763e+01
1.414410e+02	-2.124912e+01
1.422579e+02	-2.129710e+01
1.430796e+02	-2.134647e+01
1.439060e+02	-2.139749e+01
1.447372e+02	-2.144573e+01
1.455732e+02	-2.149599e+01
1.464141e+02	-2.154670e+01
1.472597e+02	-2.159395e+01
1.481103e+02	-2.164621e+01
1.489658e+02	-2.169415e+01
1.498262e+02	-2.174502e+01
1.506916e+02	-2.179379e+01
1.515620e+02	-2.184398e+01
1.524374e+02	-2.189442e+01
1.533179e+02	-2.194327e+01
1.542034e+02	-2.199285e+01
1.550941e+02	-2.204109e+01
1.559899e+02	-2.209106e+01
1.568909e+02	-2.214296e+01
1.577971e+02	-2.219246e+01
1.587085e+02	-2.224164e+01
1.596252e+02	-2.229224e+01
1.605472e+02	-2.234290e+01
1.614745e+02	-2.239023e+01
1.624072e+02	-2.244101e+01
1.633453e+02	-2.249102e+01
1.642887e+02	-2.254230e+01
1.652377e+02	-2.258820e+01
1.661921e+02	-2.264040e+01
1.671520e+02	-2.269039e+01
1.681175e+02	-2.273861e+01
1.690885e+02	-2.278812e+01
1.700651e+02	-2.284019e+01
1.710474e+02	-2.288980e+01
1.720354e+02	-2.293935e+01
1.730291e+02	-2.298834e+01
1.740285e+02	-2.303977e+01
1.750337e+02	-2.308743e+01
1.760446e+02	-2.313852e+01
1.770615e+02	-2.318617e+01
1.780842e+02	-2.323755e+01
1.791128e+02	-2.328815e+01
1.801473e+02	-2.333801e+01
1.811878e+02	-2.338810e+01
1.822344e+02	-2.343611e+01
1.832870e+02	-2.348497e+01
1.843456e+02	-2.353671e+01
1.854104e+02	-2.358872e+01
1.864813e+02	-2.363617e+01
1.875584e+02	-2.368669e+01
1.886418e+02	-2.373497e+01
1.897313e+02	-2.378551e+01
1.908272e+02	-2.383715e+01
1.919294e+02	-2.388590e+01
1.930380e+02	-2.393541e+01
1.941530e+02	-2.398353e+01
1.952744e+02	-2.403117e+01
1.964023e+02	-2.408287e+01
1.975367e+02	-2.413705e+01
1.986777e+02	-2.418332e+01
1.998252e+02	-2.423544e+01
2.009794e+02	-2.428241e+01
2.021403e+02	-2.433566e+01
2.033078e+02	-2.438536e+01
2.044821e+02	-2.443265e+01
2.056632e+02	-2.448367e+01
2.068511e+02	-2.453295e+01
2.080459e+02	-2.458318e+01
2.092475e+02	-2.463276e+01
2.104561e+02	-2.468472e+01
2.116717e+02	-2.473407e+01
2.128943e+02	-2.478097e+01
2.141240e+02	-2.483150e+01
2.153608e+02	-2.488520e+01
2.166047e+02	-2.493399e+01
2.178558e+02	-2.498288e+01
2.191141e+02	-2.503431e+01
2.203797e+02	-2.508391e+01
2.216526e+02	-2.513253e+01
2.229329e+02	-2.518268e+01
2.242205e+02	-2.523299e+01
2.255156e+02	-2.528129e+01
2.268182e+02	-2.533088e+01
2.281283e+02	-2.538172e+01
2.294459e+02	-2.543280e+01
2.307712e+02	-2.548409e+01
2.321041e+02	-2.553260e+01
2.334447e+02	-2.557997e+01
2.347931e+02	-2.563224e+01
2.361493e+02	-2.568262e+01
2.375133e+02	-2.572980e+01
2.388851e+02	-2.578096e+01
2.402649e+02	-2.583284e+01
2.416527e+02	-2.588265e+01
2.430484e+02	-2.593230e+01
2.444523e+02	-2.597987e+01
2.458642e+02	-2.603148e+01
2.472843e+02	-2.608034e+01
2.487126e+02	-2.613310e+01
2.501492e+02	-2.618096e+01
2.515940e+02	-2.622768e+01
2.530472e+02	-2.628171e+01
2.545088e+02	-2.633164e+01
2.559789e+02	-2.638259e+01
2.574574e+02	-2.643314e+01
2.589444e+02	-2.648436e+01
2.604401e+02	-2.653048e+01
2.619444e+02	-2.658130e+01
2.634574e+02	-2.662954e+01
2.649791e+02	-2.668472e+01
2.665096e+02	-2.673166e+01
2.680489e+02	-2.678075e+01
2.695972e+02	-2.682904e+01
2.711544e+02	-2.688045e+01
2.727205e+02	-2.693096e+01
2.742958e+02	-2.698086e+01
2.758801e+02	-2.702943e+01
2.774736e+02	-2.708298e+01
2.790762e+02	-2.713077e+01
2.806882e+02	-2.717929e+01
2.823094e+02	-2.723032e+01
2.839400e+02	-2.728496e+01
2.855800e+02	-2.732849e+01
2.872295e+02	-2.738606e+01
2.888886e+02	-2.743348e+01
2.905572e+02	-2.748221e+01
2.922354e+02	-2.753137e+01
2.939234e+02	-2.758286e+01
2.956211e+02	-2.763116e+01
2.973286e+02	-2.768274e+01
2.990459e+02	-2.773297e+01
3.007732e+02	-2.778147e+01
3.025104e+02	-2.783408e+01
3.042577e+02	-2.788339e+01
3.060151e+02	-2.793474e+01
3.077826e+02	-2.798466e+01
3.095604e+02	-2.803166e+01
3.113484e+02	-2.808124e+01
3.131467e+02	-2.812849e+01
3.149554e+02	-2.817950e+01
3.167746e+02	-2.823257e+01
3.186043e+02	-2.828174e+01
3.204445e+02	-2.832821e+01
3.222954e+02	-2.838053e+01
3.241570e+02	-2.843143e+01
3.260293e+02	-2.848078e+01
3.279124e+02	-2.853246e+01
3.298064e+02	-2.858310e+01
3.317114e+02	-2.863176e+01
3.336273e+02	-2.868416e+01
3.355544e+02	-2.873510e+01
3.374925e+02	-2.878026e+01
3.394418e+02	-2.883456e+01
3.414024e+02	-2.887581e+01
3.433744e+02	-2.892888e+01
3.453577e+02	-2.898245e+01
3.473525e+02	-2.903024e+01
3.493588e+02	-2.908278e+01
3.513766e+02	-2.913180e+01
3.534062e+02	-2.918057e+01
3.554474e+02	-2.922970e+01
3.575005e+02	-2.928306e+01
3.595654e+02	-2.932684e+01
3.616422e+02	-2.938345e+01
3.637311e+02	-2.943033e+01
3.658320e+02	-2.948399e+01
3.679450e+02	-2.953564e+01
3.700702e+02	-2.958740e+01
3.722077e+02	-2.963454e+01
3.743576e+02	-2.968636e+01
3.765199e+02	-2.973365e+01
3.786946e+02	-2.978162e+01
3.808820e+02	-2.983207e+01
3.830819e+02	-2.988488e+01
3.852946e+02	-2.992392e+01
3.875200e+02	-2.998241e+01
3.897583e+02	-3.003409e+01
3.920096e+02	-3.008581e+01
3.942738e+02	-3.013775e+01
3.965511e+02	-3.018924e+01
3.988416e+02	-3.022911e+01
4.011452e+02	-3.028266e+01
4.034622e+02	-3.033490e+01
4.057926e+02	-3.038098e+01
4.081365e+02	-3.043478e+01
4.104938e+02	-3.049112e+01
4.128648e+02	-3.052845e+01
4.152495e+02	-3.058463e+01
4.176480e+02	-3.063280e+01
4.200603e+02	-3.068288e+01
4.224866e+02	-3.073605e+01
4.249268e+02	-3.078218e+01
4.273812e+02	-3.083477e+01
4.298497e+02	-3.088506e+01
4.323325e+02	-3.093523e+01
4.348297e+02	-3.098723e+01
4.373412e+02	-3.103526e+01
4.398673e+02	-3.108666e+01
4.424079e+02	-3.113522e+01
4.449633e+02	-3.118762e+01
4.475334e+02	-3.123891e+01
4.501183e+02	-3.128670e+01
4.527182e+02	-3.133607e+01
4.553330e+02	-3.138882e+01
4.579630e+02	-3.143254e+01
4.606082e+02	-3.148855e+01
4.632687e+02	-3.153284e+01
4.659445e+02	-3.158397e+01
4.686358e+02	-3.163115e+01
4.713426e+02	-3.169350e+01
4.740650e+02	-3.173832e+01
4.768032e+02	-3.179012e+01
4.795572e+02	-3.183420e+01
4.823271e+02	-3.188919e+01
4.851130e+02	-3.193376e+01
4.879150e+02	-3.198625e+01
4.907332e+02	-3.203721e+01
4.935676e+02	-3.208445e+01
4.964185e+02	-3.213753e+01
4.992858e+02	-3.219180e+01
5.021696e+02	-3.224086e+01
5.050701e+02	-3.228967e+01
5.079874e+02	-3.233944e+01
5.109215e+02	-3.238466e+01
5.138726e+02	-3.244477e+01
5.168407e+02	-3.249419e+01
5.198259e+02	-3.253831e+01
5.228284e+02	-3.259617e+01
5.258482e+02	-3.264413e+01
5.288855e+02	-3.269519e+01
5.319403e+02	-3.274631e+01
5.350128e+02	-3.278830e+01
5.381030e+02	-3.284435e+01
5.412111e+02	-3.289719e+01
5.443371e+02	-3.294448e+01
5.474812e+02	-3.299537e+01
5.506434e+02	-3.303656e+01
5.538239e+02	-3.309348e+01
5.570228e+02	-3.314590e+01
5.602401e+02	-3.319854e+01
5.634760e+02	-3.324021e+01
5.667306e+02	-3.329400e+01
5.700040e+02	-3.334375e+01
5.732964e+02	-3.339525e+01
5.766077e+02	-3.344501e+01
5.799382e+02	-3.349775e+01
5.832879e+02	-3.353745e+01
5.866569e+02	-3.358997e+01
5.900454e+02	-3.364543e+01
5.934535e+02	-3.368959e+01
5.968813e+02	-3.375196e+01
6.003288e+02	-3.379469e+01
6.037963e+02	-3.385455e+01
6.072838e+02	-3.390434e+01
6.107914e+02	-3.394755e+01
6.143194e+02	-3.400095e+01
6.178676e+02	-3.405262e+01
6.214364e+02	-3.409852e+01
6.250258e+02	-3.415378e+01
6.286359e+02	-3.419871e+01
6.322669e+02	-3.425301e+01
6.359189e+02	-3.430560e+01
6.395919e+02	-3.433827e+01
6.432862e+02	-3.440569e+01
6.470017e+02	-3.445617e+01
6.507388e+02	-3.450426e+01
6.544974e+02	-3.456293e+01
6.582778e+02	-3.460472e+01
6.620800e+02	-3.465876e+01
6.659041e+02	-3.470089e+01
6.697504e+02	-3.474747e+01
6.736188e+02	-3.480888e+01
6.775096e+02	-3.485047e+01
6.814229e+02	-3.490136e+01
6.853587e+02	-3.496591e+01
6.893173e+02	-3.500668e+01
6.932988e+02	-3.505983e+01
6.973033e+02	-3.510510e+01
7.013309e+02	-3.515728e+01
