Frequency(Hz)	Magnitude(dB)
1.000000e+01	-2.340746e+00
1.005776e+01	-2.361955e+00
1.011585e+01	-2.383010e+00
1.017428e+01	-2.404078e+00
1.023305e+01	-2.425514e+00
1.029215e+01	-2.446839e+00
1.035160e+01	-2.468578e+00
1.041139e+01	-2.490264e+00
1.047153e+01	-2.512273e+00
1.053201e+01	-2.534327e+00
1.059284e+01	-2.556449e+00
1.065403e+01	-2.578924e+00
1.071556e+01	-2.601311e+00
1.077746e+01	-2.623905e+00
1.083971e+01	-2.646502e+00
1.090232e+01	-2.669695e+00
1.096529e+01	-2.692486e+00
1.102862e+01	-2.715914e+00
1.109232e+01	-2.739175e+00
1.115639e+01	-2.762750e+00
1.122083e+01	-2.786015e+00
1.128564e+01	-2.809944e+00
1.135083e+01	-2.833797e+00
1.141639e+01	-2.857855e+00
1.148233e+01	-2.882253e+00
1.154865e+01	-2.906797e+00
1.161536e+01	-2.930701e+00
1.168245e+01	-2.955669e+00
1.174992e+01	-2.980528e+00
1.181779e+01	-3.005172e+00
1.188605e+01	-3.030428e+00
1.195470e+01	-3.055780e+00
1.202375e+01	-3.080942e+00
1.209320e+01	-3.106244e+00
1.216305e+01	-3.131700e+00
1.223330e+01	-3.157449e+00
1.230396e+01	-3.183620e+00
1.237503e+01	-3.209805e+00
1.244651e+01	-3.235725e+00
1.251840e+01	-3.262242e+00
1.259070e+01	-3.288689e+00
1.266343e+01	-3.315599e+00
1.273657e+01	-3.342288e+00
1.281014e+01	-3.369200e+00
1.288413e+01	-3.396162e+00
1.295855e+01	-3.423173e+00
1.303339e+01	-3.450612e+00
1.310867e+01	-3.478237e+00
1.318439e+01	-3.505642e+00
1.326054e+01	-3.533669e+00
1.333713e+01	-3.561300e+00
1.341417e+01	-3.589741e+00
1.349165e+01	-3.617900e+00
1.356958e+01	-3.646241e+00
1.364795e+01	-3.674584e+00
1.372678e+01	-3.703252e+00
1.380607e+01	-3.731960e+00
1.388581e+01	-3.761093e+00
1.396602e+01	-3.790230e+00
1.404668e+01	-3.819130e+00
1.412782e+01	-3.848740e+00
1.420942e+01	-3.878257e+00
1.429149e+01	-3.907509e+00
1.437404e+01	-3.937409e+00
1.445706e+01	-3.967245e+00
1.454057e+01	-3.997231e+00
1.462455e+01	-4.027306e+00
1.470902e+01	-4.057698e+00
1.479398e+01	-4.087994e+00
1.487943e+01	-4.118634e+00
1.496537e+01	-4.149389e+00
1.505181e+01	-4.180528e+00
1.513875e+01	-4.211235e+00
1.522619e+01	-4.242771e+00
1.531414e+01	-4.273893e+00
1.540259e+01	-4.305176e+00
1.549156e+01	-4.336855e+00
1.558103e+01	-4.368316e+00
1.567103e+01	-4.400382e+00
1.576155e+01	-4.431981e+00
1.585258e+01	-4.464183e+00
1.594415e+01	-4.496014e+00
1.603624e+01	-4.528933e+00
1.612886e+01	-4.560993e+00
1.622202e+01	-4.593744e+00
1.631572e+01	-4.626332e+00
1.640996e+01	-4.659402e+00
1.650474e+01	-4.692150e+00
1.660008e+01	-4.725300e+00
1.669596e+01	-4.758334e+00
1.679239e+01	-4.791991e+00
1.688938e+01	-4.825454e+00
1.698694e+01	-4.859134e+00
1.708505e+01	-4.892742e+00
1.718373e+01	-4.926775e+00
1.728299e+01	-4.960674e+00
1.738281e+01	-4.994705e+00
1.748322e+01	-5.029250e+00
1.758420e+01	-5.063470e+00
1.768576e+01	-5.097627e+00
1.778792e+01	-5.132610e+00
1.789066e+01	-5.167465e+00
1.799399e+01	-5.202062e+00
1.809793e+01	-5.236936e+00
1.820246e+01	-5.272148e+00
1.830760e+01	-5.307467e+00
1.841334e+01	-5.342879e+00
1.851969e+01	-5.378578e+00
1.862666e+01	-5.413562e+00
1.873425e+01	-5.449763e+00
1.884246e+01	-5.485697e+00
1.895129e+01	-5.521302e+00
1.906075e+01	-5.557465e+00
1.917085e+01	-5.593622e+00
1.928158e+01	-5.629566e+00
1.939295e+01	-5.665847e+00
1.950496e+01	-5.702924e+00
1.961762e+01	-5.739364e+00
1.973093e+01	-5.776359e+00
1.984490e+01	-5.813127e+00
1.995952e+01	-5.849624e+00
2.007480e+01	-5.886935e+00
2.019076e+01	-5.924229e+00
2.030738e+01	-5.961239e+00
2.042467e+01	-5.998813e+00
2.054264e+01	-6.036076e+00
2.066130e+01	-6.074150e+00
2.078064e+01	-6.111583e+00
2.090066e+01	-6.149918e+00
2.102139e+01	-6.187502e+00
2.114280e+01	-6.225476e+00
2.126492e+01	-6.263877e+00
2.138775e+01	-6.301809e+00
2.151128e+01	-6.340358e+00
2.163553e+01	-6.378733e+00
2.176050e+01	-6.417564e+00
2.188619e+01	-6.455843e+00
2.201260e+01	-6.494456e+00
2.213974e+01	-6.533830e+00
2.226762e+01	-6.572363e+00
2.239624e+01	-6.611617e+00
2.252560e+01	-6.650633e+00
2.265571e+01	-6.690106e+00
2.278656e+01	-6.729302e+00
2.291818e+01	-6.768660e+00
2.305055e+01	-6.808535e+00
2.318369e+01	-6.847597e+00
2.331760e+01	-6.887537e+00
2.345228e+01	-6.927416e+00
2.358774e+01	-6.967867e+00
2.372398e+01	-7.007514e+00
2.386101e+01	-7.047709e+00
2.399883e+01	-7.088210e+00
2.413745e+01	-7.128176e+00
2.427686e+01	-7.168395e+00
2.441709e+01	-7.209006e+00
2.455812e+01	-7.249401e+00
2.469997e+01	-7.289941e+00
2.484263e+01	-7.330854e+00
2.498612e+01	-7.371498e+00
2.513044e+01	-7.412595e+00
2.527559e+01	-7.453525e+00
2.542158e+01	-7.494661e+00
2.556842e+01	-7.535924e+00
2.571610e+01	-7.577030e+00
2.586463e+01	-7.618550e+00
2.601403e+01	-7.660118e+00
2.616428e+01	-7.701318e+00
2.631541e+01	-7.743225e+00
2.646740e+01	-7.784532e+00
2.662028e+01	-7.826001e+00
2.677404e+01	-7.868251e+00
2.692868e+01	-7.910050e+00
2.708422e+01	-7.952326e+00
2.724066e+01	-7.994136e+00
2.739800e+01	-8.036369e+00
2.755625e+01	-8.078025e+00
2.771541e+01	-8.120175e+00
2.787550e+01	-8.163228e+00
2.803650e+01	-8.205610e+00
2.819844e+01	-8.247677e+00
2.836131e+01	-8.290548e+00
2.852513e+01	-8.333250e+00
2.868989e+01	-8.375821e+00
2.885560e+01	-8.418651e+00
2.902227e+01	-8.461983e+00
2.918990e+01	-8.504660e+00
2.935850e+01	-8.547484e+00
2.952807e+01	-8.590655e+00
2.969863e+01	-8.633403e+00
2.987016e+01	-8.676496e+00
3.004269e+01	-8.719585e+00
3.021622e+01	-8.763336e+00
3.039075e+01	-8.806912e+00
3.056628e+01	-8.850330e+00
3.074283e+01	-8.893817e+00
3.092040e+01	-8.937134e+00
3.109900e+01	-8.980980e+00
3.127862e+01	-9.024801e+00
3.145929e+01	-9.068238e+00
3.164099e+01	-9.112895e+00
3.182375e+01	-9.156884e+00
3.200756e+01	-9.200636e+00
3.219244e+01	-9.244747e+00
3.237838e+01	-9.288229e+00
3.256540e+01	-9.332794e+00
3.275349e+01	-9.376899e+00
3.294268e+01	-9.421470e+00
3.313295e+01	-9.466102e+00
3.332433e+01	-9.510278e+00
3.351681e+01	-9.554556e+00
3.371040e+01	-9.598827e+00
3.390511e+01	-9.643391e+00
3.410094e+01	-9.687810e+00
3.429791e+01	-9.733422e+00
3.449601e+01	-9.777502e+00
3.469526e+01	-9.823007e+00
3.489566e+01	-9.867435e+00
3.509721e+01	-9.912040e+00
3.529993e+01	-9.957109e+00
3.550382e+01	-1.000131e+01
3.570889e+01	-1.004681e+01
3.591515e+01	-1.009254e+01
3.612259e+01	-1.013721e+01
3.633123e+01	-1.018187e+01
3.654108e+01	-1.022824e+01
3.675214e+01	-1.027353e+01
3.696442e+01	-1.031845e+01
3.717792e+01	-1.036359e+01
3.739266e+01	-1.040913e+01
3.760864e+01	-1.045461e+01
3.782587e+01	-1.050047e+01
3.804435e+01	-1.054612e+01
3.826409e+01	-1.059177e+01
3.848510e+01	-1.063750e+01
3.870739e+01	-1.068308e+01
3.893096e+01	-1.072893e+01
3.915583e+01	-1.077449e+01
3.938199e+01	-1.081955e+01
3.960946e+01	-1.086626e+01
3.983824e+01	-1.091273e+01
4.006834e+01	-1.095824e+01
4.029978e+01	-1.100436e+01
4.053255e+01	-1.105024e+01
4.076666e+01	-1.109636e+01
4.100213e+01	-1.114212e+01
4.123896e+01	-1.118928e+01
4.147715e+01	-1.123531e+01
4.171672e+01	-1.128157e+01
4.195767e+01	-1.132768e+01
4.220002e+01	-1.137364e+01
4.244377e+01	-1.142094e+01
4.268892e+01	-1.146721e+01
4.293549e+01	-1.151335e+01
4.318348e+01	-1.156002e+01
4.343291e+01	-1.160607e+01
4.368377e+01	-1.165322e+01
4.393609e+01	-1.169986e+01
4.418986e+01	-1.174621e+01
4.444510e+01	-1.179352e+01
4.470182e+01	-1.184031e+01
4.496001e+01	-1.188665e+01
4.521970e+01	-1.193374e+01
4.548089e+01	-1.198002e+01
4.574358e+01	-1.202738e+01
4.600779e+01	-1.207422e+01
4.627353e+01	-1.212151e+01
4.654081e+01	-1.216768e+01
4.680963e+01	-1.221530e+01
4.708000e+01	-1.226181e+01
4.735193e+01	-1.230866e+01
4.762543e+01	-1.235634e+01
4.790051e+01	-1.240314e+01
4.817719e+01	-1.245012e+01
4.845545e+01	-1.249757e+01
4.873533e+01	-1.254508e+01
4.901682e+01	-1.259201e+01
4.929994e+01	-1.263922e+01
4.958470e+01	-1.268666e+01
4.987110e+01	-1.273329e+01
5.015915e+01	-1.278144e+01
5.044887e+01	-1.282898e+01
5.074026e+01	-1.287644e+01
5.103333e+01	-1.292357e+01
5.132810e+01	-1.297111e+01
5.162457e+01	-1.301894e+01
5.192275e+01	-1.306528e+01
5.222265e+01	-1.311400e+01
5.252429e+01	-1.316200e+01
5.282767e+01	-1.320957e+01
5.313280e+01	-1.325652e+01
5.343969e+01	-1.330372e+01
5.374836e+01	-1.335211e+01
5.405880e+01	-1.339983e+01
5.437105e+01	-1.344815e+01
5.468509e+01	-1.349567e+01
5.500095e+01	-1.354258e+01
5.531863e+01	-1.359091e+01
5.563815e+01	-1.363895e+01
5.595951e+01	-1.368717e+01
5.628273e+01	-1.373470e+01
5.660782e+01	-1.378215e+01
5.693479e+01	-1.383042e+01
5.726364e+01	-1.387852e+01
5.759439e+01	-1.392635e+01
5.792705e+01	-1.397431e+01
5.826164e+01	-1.402159e+01
5.859815e+01	-1.407102e+01
5.893662e+01	-1.411919e+01
5.927703e+01	-1.416672e+01
5.961941e+01	-1.421487e+01
5.996377e+01	-1.426321e+01
6.031012e+01	-1.431128e+01
6.065847e+01	-1.436066e+01
6.100883e+01	-1.440735e+01
6.136121e+01	-1.445564e+01
6.171563e+01	-1.450240e+01
6.207210e+01	-1.455145e+01
6.243063e+01	-1.460097e+01
6.279122e+01	-1.464907e+01
6.315390e+01	-1.469682e+01
6.351868e+01	-1.474517e+01
6.388556e+01	-1.479305e+01
6.425456e+01	-1.484308e+01
6.462569e+01	-1.489065e+01
6.499897e+01	-1.494001e+01
6.537440e+01	-1.498785e+01
6.575200e+01	-1.503611e+01
6.613178e+01	-1.508453e+01
6.651375e+01	-1.513254e+01
6.689793e+01	-1.518142e+01
6.728433e+01	-1.523079e+01
6.767297e+01	-1.527953e+01
6.806384e+01	-1.532577e+01
6.845698e+01	-1.537648e+01
6.885238e+01	-1.542419e+01
6.925007e+01	-1.547280e+01
6.965005e+01	-1.552177e+01
7.005235e+01	-1.556943e+01
7.045697e+01	-1.561852e+01
7.086393e+01	-1.566724e+01
7.127323e+01	-1.571588e+01
7.168490e+01	-1.576413e+01
7.209895e+01	-1.581327e+01
7.251539e+01	-1.586276e+01
7.293424e+01	-1.591098e+01
7.335551e+01	-1.596002e+01
7.377920e+01	-1.600897e+01
7.420535e+01	-1.605642e+01
7.463396e+01	-1.610629e+01
7.506504e+01	-1.615587e+01
7.549861e+01	-1.620319e+01
7.593469e+01	-1.625189e+01
7.637328e+01	-1.630046e+01
7.681441e+01	-1.635118e+01
7.725809e+01	-1.639951e+01
7.770433e+01	-1.644730e+01
7.815315e+01	-1.649770e+01
7.860456e+01	-1.654584e+01
7.905857e+01	-1.659476e+01
7.951521e+01	-1.664382e+01
7.997449e+01	-1.669139e+01
8.043642e+01	-1.674135e+01
8.090102e+01	-1.679042e+01
8.136830e+01	-1.683943e+01
8.183828e+01	-1.688846e+01
8.231097e+01	-1.693809e+01
8.278640e+01	-1.698578e+01
8.326457e+01	-1.703454e+01
8.374550e+01	-1.708645e+01
8.422921e+01	-1.713268e+01
8.471572e+01	-1.718398e+01
8.520503e+01	-1.723125e+01
8.569717e+01	-1.728096e+01
8.619215e+01	-1.733132e+01
8.669000e+01	-1.737924e+01
8.719071e+01	-1.742874e+01
8.769432e+01	-1.747776e+01
8.820084e+01	-1.752661e+01
8.871029e+01	-1.757631e+01
8.922267e+01	-1.762482e+01
8.973802e+01	-1.767429e+01
9.025634e+01	-1.772425e+01
9.077766e+01	-1.777255e+01
9.130199e+01	-1.782179e+01
9.182935e+01	-1.787220e+01
9.235975e+01	-1.792007e+01
9.289321e+01	-1.796939e+01
9.342976e+01	-1.801880e+01
9.396941e+01	-1.806850e+01
9.451217e+01	-1.811642e+01
9.505807e+01	-1.816678e+01
9.560712e+01	-1.821660e+01
9.615934e+01	-1.826556e+01
9.671476e+01	-1.831537e+01
9.727338e+01	-1.836248e+01
9.783522e+01	-1.841411e+01
9.840032e+01	-1.846283e+01
9.896867e+01	-1.851030e+01
9.954031e+01	-1.856050e+01
1.001153e+02	-1.861095e+01
1.006935e+02	-1.866020e+01
1.012751e+02	-1.870748e+01
1.018601e+02	-1.875737e+01
1.024484e+02	-1.880729e+01
1.030402e+02	-1.885784e+01
1.036353e+02	-1.890665e+01
1.042339e+02	-1.895517e+01
1.048360e+02	-1.900444e+01
1.054415e+02	-1.905385e+01
1.060505e+02	-1.910413e+01
1.066631e+02	-1.915294e+01
1.072791e+02	-1.920265e+01
1.078988e+02	-1.925138e+01
1.085220e+02	-1.930290e+01
1.091488e+02	-1.934874e+01
1.097793e+02	-1.940041e+01
1.104133e+02	-1.945103e+01
1.110511e+02	-1.950094e+01
1.116925e+02	-1.954959e+01
1.123376e+02	-1.959859e+01
1.129865e+02	-1.964709e+01
1.136391e+02	-1.969606e+01
1.142955e+02	-1.974637e+01
1.149556e+02	-1.979695e+01
1.156196e+02	-1.984660e+01
1.162874e+02	-1.989569e+01
1.169591e+02	-1.994421e+01
1.176347e+02	-1.999332e+01
1.183141e+02	-2.004365e+01
1.189975e+02	-2.009554e+01
1.196848e+02	-2.014263e+01
1.203761e+02	-2.019421e+01
1.210714e+02	-2.024332e+01
1.217707e+02	-2.029268e+01
1.224740e+02	-2.034127e+01
1.231814e+02	-2.039207e+01
1.238929e+02	-2.043970e+01
1.246085e+02	-2.049056e+01
1.253283e+02	-2.054003e+01
1.260522e+02	-2.058854e+01
1.267802e+02	-2.063874e+01
1.275125e+02	-2.068858e+01
1.282490e+02	-2.073648e+01
1.289898e+02	-2.078795e+01
1.297348e+02	-2.083647e+01
1.304842e+02	-2.088628e+01
1.312378e+02	-2.093636e+01
1.319959e+02	-2.098683e+01
1.327583e+02	-2.103740e+01
1.335251e+02	-2.108659e+01
1.342963e+02	-2.113536e+01
1.350720e+02	-2.118513e+01
1.358522e+02	-2.123551e+01
1.366368e+02	-2.128342e+01
1.374260e+02	-2.133416e+01
1.382198e+02	-2.138552e+01
1.390182e+02	-2.143510e+01
1.398211e+02	-2.148409e+01
1.406287e+02	-2.153324e+01
1.414410e+02	-2.157978e+01
1.422579e+02	-2.163218e+01
1.430796e+02	-2.168087e+01
1.439060e+02	-2.173238e+01
1.447372e+02	-2.178119e+01
1.455732e+02	-2.183057e+01
1.464141e+02	-2.187977e+01
1.472597e+02	-2.192998e+01
1.481103e+02	-2.197922e+01
1.489658e+02	-2.202890e+01
1.498262e+02	-2.207923e+01
1.506916e+02	-2.212867e+01
1.515620e+02	-2.218082e+01
1.524374e+02	-2.222801e+01
1.533179e+02	-2.227950e+01
1.542034e+02	-2.232778e+01
1.550941e+02	-2.237725e+01
1.559899e+02	-2.242804e+01
1.568909e+02	-2.247774e+01
1.577971e+02	-2.252678e+01
1.587085e+02	-2.257727e+01
1.596252e+02	-2.262664e+01
1.605472e+02	-2.267954e+01
1.614745e+02	-2.272504e+01
1.624072e+02	-2.277528e+01
1.633453e+02	-2.282432e+01
1.642887e+02	-2.287591e+01
1.652377e+02	-2.292481e+01
1.661921e+02	-2.297681e+01
1.671520e+02	-2.302345e+01
1.681175e+02	-2.307641e+01
1.690885e+02	-2.312196e+01
1.700651e+02	-2.317448e+01
1.710474e+02	-2.322662e+01
1.720354e+02	-2.327326e+01
1.730291e+02	-2.332239e+01
1.740285e+02	-2.337479e+01
1.750337e+02	-2.342257e+01
1.760446e+02	-2.347184e+01
1.770615e+02	-2.352550e+01
1.780842e+02	-2.357462e+01
1.791128e+02	-2.362215e+01
1.801473e+02	-2.367296e+01
1.811878e+02	-2.372270e+01
1.822344e+02	-2.377145e+01
1.832870e+02	-2.382022e+01
1.843456e+02	-2.387377e+01
1.854104e+02	-2.392102e+01
1.864813e+02	-2.397192e+01
1.875584e+02	-2.402425e+01
1.886418e+02	-2.407165e+01
1.897313e+02	-2.412075e+01
1.908272e+02	-2.417012e+01
1.919294e+02	-2.421985e+01
1.930380e+02	-2.427216e+01
1.941530e+02	-2.432133e+01
1.952744e+02	-2.437215e+01
1.964023e+02	-2.441974e+01
1.975367e+02	-2.447024e+01
1.986777e+02	-2.451959e+01
1.998252e+02	-2.456696e+01
2.009794e+02	-2.462048e+01
2.021403e+02	-2.467134e+01
2.033078e+02	-2.471693e+01
2.044821e+02	-2.476915e+01
2.056632e+02	-2.482072e+01
2.068511e+02	-2.486937e+01
2.080459e+02	-2.491987e+01
2.092475e+02	-2.496963e+01
2.104561e+02	-2.502014e+01
2.116717e+02	-2.506551e+01
2.128943e+02	-2.512039e+01
2.141240e+02	-2.516979e+01
2.153608e+02	-2.522015e+01
2.166047e+02	-2.526798e+01
2.178558e+02	-2.532272e+01
2.191141e+02	-2.536721e+01
2.203797e+02	-2.542023e+01
2.216526e+02	-2.546922e+01
2.229329e+02	-2.551918e+01
2.242205e+02	-2.556993e+01
2.255156e+02	-2.561341e+01
2.268182e+02	-2.566624e+01
2.281283e+02	-2.571891e+01
2.294459e+02	-2.576723e+01
2.307712e+02	-2.581502e+01
2.321041e+02	-2.586674e+01
2.334447e+02	-2.591391e+01
2.347931e+02	-2.596850e+01
2.361493e+02	-2.601866e+01
2.375133e+02	-2.606773e+01
2.388851e+02	-2.611858e+01
2.402649e+02	-2.616516e+01
2.416527e+02	-2.621596e+01
2.430484e+02	-2.626506e+01
2.444523e+02	-2.631615e+01
2.458642e+02	-2.636857e+01
2.472843e+02	-2.641305e+01
2.487126e+02	-2.646632e+01
2.501492e+02	-2.651708e+01
2.515940e+02	-2.656490e+01
2.530472e+02	-2.661373e+01
2.545088e+02	-2.666420e+01
2.559789e+02	-2.671718e+01
2.574574e+02	-2.676854e+01
2.589444e+02	-2.681635e+01
2.604401e+02	-2.686444e+01
2.619444e+02	-2.691716e+01
2.634574e+02	-2.696802e+01
2.649791e+02	-2.701800e+01
2.665096e+02	-2.706315e+01
2.680489e+02	-2.711697e+01
2.695972e+02	-2.716700e+01
2.711544e+02	-2.721449e+01
2.727205e+02	-2.726748e+01
2.742958e+02	-2.731753e+01
2.758801e+02	-2.736570e+01
2.774736e+02	-2.741504e+01
2.790762e+02	-2.746539e+01
2.806882e+02	-2.751561e+01
2.823094e+02	-2.756606e+01
2.839400e+02	-2.761312e+01
2.855800e+02	-2.767129e+01
2.872295e+02	-2.771611e+01
2.888886e+02	-2.776708e+01
2.905572e+02	-2.781642e+01
2.922354e+02	-2.786598e+01
2.939234e+02	-2.791528e+01
2.956211e+02	-2.796591e+01
2.973286e+02	-2.802144e+01
2.990459e+02	-2.806940e+01
3.007732e+02	-2.811703e+01
3.025104e+02	-2.816618e+01
3.042577e+02	-2.821734e+01
3.060151e+02	-2.826724e+01
3.077826e+02	-2.831986e+01
3.095604e+02	-2.836890e+01
3.113484e+02	-2.841766e+01
3.131467e+02	-2.846541e+01
3.149554e+02	-2.851873e+01
3.167746e+02	-2.856859e+01
3.186043e+02	-2.862192e+01
3.204445e+02	-2.866777e+01
3.222954e+02	-2.872167e+01
3.241570e+02	-2.876568e+01
3.260293e+02	-2.881894e+01
3.279124e+02	-2.886710e+01
3.298064e+02	-2.891990e+01
3.317114e+02	-2.896351e+01
3.336273e+02	-2.901434e+01
3.355544e+02	-2.906617e+01
3.374925e+02	-2.911943e+01
3.394418e+02	-2.917540e+01
3.414024e+02	-2.922004e+01
3.433744e+02	-2.926863e+01
3.453577e+02	-2.932078e+01
3.473525e+02	-2.936507e+01
3.493588e+02	-2.941581e+01
3.513766e+02	-2.946620e+01
3.534062e+02	-2.951533e+01
3.554474e+02	-2.956933e+01
3.575005e+02	-2.961786e+01
3.595654e+02	-2.966741e+01
3.616422e+02	-2.971982e+01
3.637311e+02	-2.977032e+01
3.658320e+02	-2.982485e+01
3.679450e+02	-2.986936e+01
3.700702e+02	-2.991729e+01
3.722077e+02	-2.997008e+01
3.743576e+02	-3.002027e+01
3.765199e+02	-3.006858e+01
3.786946e+02	-3.011616e+01
3.808820e+02	-3.016902e+01
3.830819e+02	-3.022112e+01
3.852946e+02	-3.026939e+01
3.875200e+02	-3.031990e+01
3.897583e+02	-3.037190e+01
3.920096e+02	-3.042351e+01
3.942738e+02	-3.047358e+01
3.965511e+02	-3.052104e+01
3.988416e+02	-3.057235e+01
4.011452e+02	-3.062443e+01
4.034622e+02	-3.066536e+01
4.057926e+02	-3.071566e+01
4.081365e+02	-3.077017e+01
4.104938e+02	-3.081841e+01
4.128648e+02	-3.087339e+01
4.152495e+02	-3.091718e+01
4.176480e+02	-3.097018e+01
4.200603e+02	-3.101840e+01
4.224866e+02	-3.107015e+01
4.249268e+02	-3.111687e+01
4.273812e+02	-3.116720e+01
4.298497e+02	-3.122189e+01
4.323325e+02	-3.127417e+01
4.348297e+02	-3.132086e+01
4.373412e+02	-3.137155e+01
4.398673e+02	-3.142645e+01
4.424079e+02	-3.147523e+01
4.449633e+02	-3.151881e+01
4.475334e+02	-3.157067e+01
4.501183e+02	-3.162876e+01
4.527182e+02	-3.167305e+01
4.553330e+02	-3.172108e+01
4.579630e+02	-3.176821e+01
4.606082e+02	-3.182013e+01
4.632687e+02	-3.187902e+01
4.659445e+02	-3.192690e+01
4.686358e+02	-3.197607e+01
4.713426e+02	-3.202156e+01
4.740650e+02	-3.207203e+01
4.768032e+02	-3.212382e+01
4.795572e+02	-3.216953e+01
4.823271e+02	-3.222502e+01
4.851130e+02	-3.227235e+01
4.879150e+02	-3.232878e+01
4.907332e+02	-3.237643e+01
4.935676e+02	-3.242659e+01
4.964185e+02	-3.246983e+01
4.992858e+02	-3.253020e+01
5.021696e+02	-3.257675e+01
5.050701e+02	-3.263076e+01
5.079874e+02	-3.267821e+01
5.109215e+02	-3.272293e+01
5.138726e+02	-3.278230e+01
5.168407e+02	-3.282871e+01
5.198259e+02	-3.287431e+01
5.228284e+02	-3.292470e+01
5.258482e+02	-3.298532e+01
5.288855e+02	-3.302696e+01
5.319403e+02	-3.307996e+01
5.350128e+02	-3.313295e+01
5.381030e+02	-3.317867e+01
5.412111e+02	-3.322404e+01
5.443371e+02	-3.328339e+01
5.474812e+02	-3.333239e+01
5.506434e+02	-3.338404e+01
5.538239e+02	-3.343469e+01
5.570228e+02	-3.347931e+01
5.602401e+02	-3.353157e+01
5.634760e+02	-3.358649e+01
5.667306e+02	-3.363042e+01
5.700040e+02	-3.367937e+01
5.732964e+02	-3.372671e+01
5.766077e+02	-3.378252e+01
5.799382e+02	-3.383268e+01
5.832879e+02	-3.388055e+01
5.866569e+02	-3.393579e+01
5.900454e+02	-3.398069e+01
5.934535e+02	-3.403305e+01
5.968813e+02	-3.408770e+01
6.003288e+02	-3.412496e+01
6.037963e+02	-3.418651e+01
6.072838e+02	-3.423964e+01
6.107914e+02	-3.428453e+01
6.143194e+02	-3.432836e+01
6.178676e+02	-3.438374e+01
6.214364e+02	-3.444108e+01
6.250258e+02	-3.449181e+01
6.286359e+02	-3.454722e+01
6.322669e+02	-3.458894e+01
6.359189e+02	-3.463650e+01
6.395919e+02	-3.467792e+01
6.432862e+02	-3.473699e+01
6.470017e+02	-3.478343e+01
6.507388e+02	-3.483514e+01
6.544974e+02	-3.488680e+01
6.582778e+02	-3.494167e+01
6.620800e+02	-3.498339e+01
6.659041e+02	-3.504148e+01
6.697504e+02	-3.509160e+01
6.736188e+02	-3.514407e+01
6.775096e+02	-3.519565e+01
6.814229e+02	-3.524080e+01
6.853587e+02	-3.529291e+01
6.893173e+02	-3.534159e+01
6.932988e+02	-3.538752e+01
6.973033e+02	-3.543584e+01
7.013309e+02	-3.549840e+01
