Frequency(Hz)	Magnitude(dB)
1.000000e+01	-2.254012e+00
1.005776e+01	-2.274238e+00
1.011585e+01	-2.294791e+00
1.017428e+01	-2.315221e+00
1.023305e+01	-2.335893e+00
1.029215e+01	-2.357023e+00
1.035160e+01	-2.377833e+00
1.041139e+01	-2.399268e+00
1.047153e+01	-2.420621e+00
1.053201e+01	-2.442096e+00
1.059284e+01	-2.463439e+00
1.065403e+01	-2.485361e+00
1.071556e+01	-2.506996e+00
1.077746e+01	-2.528955e+00
1.083971e+01	-2.551221e+00
1.090232e+01	-2.573521e+00
1.096529e+01	-2.596043e+00
1.102862e+01	-2.618380e+00
1.109232e+01	-2.641331e+00
1.115639e+01	-2.664299e+00
1.122083e+01	-2.686994e+00
1.128564e+01	-2.710244e+00
1.135083e+01	-2.733620e+00
1.141639e+01	-2.757104e+00
1.148233e+01	-2.780683e+00
1.154865e+01	-2.804327e+00
1.161536e+01	-2.828348e+00
1.168245e+01	-2.852131e+00
1.174992e+01	-2.876608e+00
1.181779e+01	-2.900684e+00
1.188605e+01	-2.925328e+00
1.195470e+01	-2.949831e+00
1.202375e+01	-2.974326e+00
1.209320e+01	-2.999155e+00
1.216305e+01	-3.024150e+00
1.223330e+01	-3.049676e+00
1.230396e+01	-3.075070e+00
1.237503e+01	-3.099995e+00
1.244651e+01	-3.125711e+00
1.251840e+01	-3.151540e+00
1.259070e+01	-3.177370e+00
1.266343e+01	-3.203635e+00
1.273657e+01	-3.229671e+00
1.281014e+01	-3.255977e+00
1.288413e+01	-3.282684e+00
1.295855e+01	-3.309035e+00
1.303339e+01	-3.335854e+00
1.310867e+01	-3.362794e+00
1.318439e+01	-3.389634e+00
1.326054e+01	-3.416854e+00
1.333713e+01	-3.444267e+00
1.341417e+01	-3.471716e+00
1.349165e+01	-3.499318e+00
1.356958e+01	-3.526971e+00
1.364795e+01	-3.554873e+00
1.372678e+01	-3.582645e+00
1.380607e+01	-3.610854e+00
1.388581e+01	-3.639322e+00
1.396602e+01	-3.667874e+00
1.404668e+01	-3.696501e+00
1.412782e+01	-3.725635e+00
1.420942e+01	-3.754265e+00
1.429149e+01	-3.783050e+00
1.437404e+01	-3.812504e+00
1.445706e+01	-3.841863e+00
1.454057e+01	-3.871162e+00
1.462455e+01	-3.900298e+00
1.470902e+01	-3.930448e+00
1.479398e+01	-3.960012e+00
1.487943e+01	-3.990137e+00
1.496537e+01	-4.020358e+00
1.505181e+01	-4.050838e+00
1.513875e+01	-4.080921e+00
1.522619e+01	-4.111605e+00
1.531414e+01	-4.142195e+00
1.540259e+01	-4.172895e+00
1.549156e+01	-4.204191e+00
1.558103e+01	-4.235270e+00
1.567103e+01	-4.266186e+00
1.576155e+01	-4.297693e+00
1.585258e+01	-4.329074e+00
1.594415e+01	-4.360965e+00
1.603624e+01	-4.392521e+00
1.612886e+01	-4.424404e+00
1.622202e+01	-4.456509e+00
1.631572e+01	-4.488658e+00
1.640996e+01	-4.520909e+00
1.650474e+01	-4.553379e+00
1.660008e+01	-4.586274e+00
1.669596e+01	-4.618726e+00
1.679239e+01	-4.651276e+00
1.688938e+01	-4.684245e+00
1.698694e+01	-4.717439e+00
1.708505e+01	-4.750898e+00
1.718373e+01	-4.783992e+00
1.728299e+01	-4.817579e+00
1.738281e+01	-4.851111e+00
1.748322e+01	-4.884804e+00
1.758420e+01	-4.918494e+00
1.768576e+01	-4.952651e+00
1.778792e+01	-4.986614e+00
1.789066e+01	-5.020798e+00
1.799399e+01	-5.055346e+00
1.809793e+01	-5.089846e+00
1.820246e+01	-5.124166e+00
1.830760e+01	-5.159203e+00
1.841334e+01	-5.194052e+00
1.851969e+01	-5.228887e+00
1.862666e+01	-5.263898e+00
1.873425e+01	-5.298759e+00
1.884246e+01	-5.334391e+00
1.895129e+01	-5.369503e+00
1.906075e+01	-5.405481e+00
1.917085e+01	-5.440835e+00
1.928158e+01	-5.476953e+00
1.939295e+01	-5.512865e+00
1.950496e+01	-5.548707e+00
1.961762e+01	-5.584981e+00
1.973093e+01	-5.621016e+00
1.984490e+01	-5.657697e+00
1.995952e+01	-5.694070e+00
2.007480e+01	-5.730711e+00
2.019076e+01	-5.767259e+00
2.030738e+01	-5.804355e+00
2.042467e+01	-5.841199e+00
2.054264e+01	-5.878308e+00
2.066130e+01	-5.915416e+00
2.078064e+01	-5.952510e+00
2.090066e+01	-5.989912e+00
2.102139e+01	-6.027269e+00
2.114280e+01	-6.064896e+00
2.126492e+01	-6.102537e+00
2.138775e+01	-6.140530e+00
2.151128e+01	-6.178776e+00
2.163553e+01	-6.216647e+00
2.176050e+01	-6.254880e+00
2.188619e+01	-6.293167e+00
2.201260e+01	-6.331195e+00
2.213974e+01	-6.369437e+00
2.226762e+01	-6.407946e+00
2.239624e+01	-6.446763e+00
2.252560e+01	-6.485389e+00
2.265571e+01	-6.524197e+00
2.278656e+01	-6.563064e+00
2.291818e+01	-6.602249e+00
2.305055e+01	-6.641584e+00
2.318369e+01	-6.681019e+00
2.331760e+01	-6.720149e+00
2.345228e+01	-6.759603e+00
2.358774e+01	-6.799284e+00
2.372398e+01	-6.838664e+00
2.386101e+01	-6.878677e+00
2.399883e+01	-6.918147e+00
2.413745e+01	-6.958222e+00
2.427686e+01	-6.998007e+00
2.441709e+01	-7.038556e+00
2.455812e+01	-7.078461e+00
2.469997e+01	-7.118366e+00
2.484263e+01	-7.159410e+00
2.498612e+01	-7.199398e+00
2.513044e+01	-7.239930e+00
2.527559e+01	-7.280328e+00
2.542158e+01	-7.321153e+00
2.556842e+01	-7.361796e+00
2.571610e+01	-7.403176e+00
2.586463e+01	-7.444558e+00
2.601403e+01	-7.485059e+00
2.616428e+01	-7.526178e+00
2.631541e+01	-7.567097e+00
2.646740e+01	-7.608528e+00
2.662028e+01	-7.649948e+00
2.677404e+01	-7.691242e+00
2.692868e+01	-7.733305e+00
2.708422e+01	-7.774392e+00
2.724066e+01	-7.816643e+00
2.739800e+01	-7.858043e+00
2.755625e+01	-7.900306e+00
2.771541e+01	-7.941971e+00
2.787550e+01	-7.984230e+00
2.803650e+01	-8.026284e+00
2.819844e+01	-8.068634e+00
2.836131e+01	-8.110942e+00
2.852513e+01	-8.152992e+00
2.868989e+01	-8.195298e+00
2.885560e+01	-8.238031e+00
2.902227e+01	-8.280408e+00
2.918990e+01	-8.322993e+00
2.935850e+01	-8.365590e+00
2.952807e+01	-8.408652e+00
2.969863e+01	-8.450788e+00
2.987016e+01	-8.494343e+00
3.004269e+01	-8.537270e+00
3.021622e+01	-8.580660e+00
3.039075e+01	-8.623433e+00
3.056628e+01	-8.666580e+00
3.074283e+01	-8.709999e+00
3.092040e+01	-8.753160e+00
3.109900e+01	-8.796824e+00
3.127862e+01	-8.840106e+00
3.145929e+01	-8.883355e+00
3.164099e+01	-8.927452e+00
3.182375e+01	-8.971113e+00
3.200756e+01	-9.015095e+00
3.219244e+01	-9.058222e+00
3.237838e+01	-9.102598e+00
3.256540e+01	-9.145887e+00
3.275349e+01	-9.190058e+00
3.294268e+01	-9.233887e+00
3.313295e+01	-9.278550e+00
3.332433e+01	-9.322352e+00
3.351681e+01	-9.366394e+00
3.371040e+01	-9.410878e+00
3.390511e+01	-9.455101e+00
3.410094e+01	-9.499558e+00
3.429791e+01	-9.543529e+00
3.449601e+01	-9.588112e+00
3.469526e+01	-9.633113e+00
3.489566e+01	-9.677510e+00
3.509721e+01	-9.722856e+00
3.529993e+01	-9.767387e+00
3.550382e+01	-9.811920e+00
3.570889e+01	-9.856339e+00
3.591515e+01	-9.901793e+00
3.612259e+01	-9.945898e+00
3.633123e+01	-9.991814e+00
3.654108e+01	-1.003596e+01
3.675214e+01	-1.008116e+01
3.696442e+01	-1.012689e+01
3.717792e+01	-1.017158e+01
3.739266e+01	-1.021687e+01
3.760864e+01	-1.026254e+01
3.782587e+01	-1.030741e+01
3.804435e+01	-1.035349e+01
3.826409e+01	-1.039896e+01
3.848510e+01	-1.044414e+01
3.870739e+01	-1.048967e+01
3.893096e+01	-1.053537e+01
3.915583e+01	-1.058042e+01
3.938199e+01	-1.062737e+01
3.960946e+01	-1.067188e+01
3.983824e+01	-1.071760e+01
4.006834e+01	-1.076384e+01
4.029978e+01	-1.080974e+01
4.053255e+01	-1.085603e+01
4.076666e+01	-1.090162e+01
4.100213e+01	-1.094724e+01
4.123896e+01	-1.099348e+01
4.147715e+01	-1.103948e+01
4.171672e+01	-1.108530e+01
4.195767e+01	-1.113131e+01
4.220002e+01	-1.117815e+01
4.244377e+01	-1.122431e+01
4.268892e+01	-1.127057e+01
4.293549e+01	-1.131637e+01
4.318348e+01	-1.136291e+01
4.343291e+01	-1.140965e+01
4.368377e+01	-1.145592e+01
4.393609e+01	-1.150247e+01
4.418986e+01	-1.154952e+01
4.444510e+01	-1.159553e+01
4.470182e+01	-1.164181e+01
4.496001e+01	-1.168878e+01
4.521970e+01	-1.173572e+01
4.548089e+01	-1.178222e+01
4.574358e+01	-1.182878e+01
4.600779e+01	-1.187548e+01
4.627353e+01	-1.192248e+01
4.654081e+01	-1.196942e+01
4.680963e+01	-1.201554e+01
4.708000e+01	-1.206295e+01
4.735193e+01	-1.210926e+01
4.762543e+01	-1.215667e+01
4.790051e+01	-1.220380e+01
4.817719e+01	-1.225066e+01
4.845545e+01	-1.229710e+01
4.873533e+01	-1.234472e+01
4.901682e+01	-1.239201e+01
4.929994e+01	-1.243942e+01
4.958470e+01	-1.248712e+01
4.987110e+01	-1.253525e+01
5.015915e+01	-1.258129e+01
5.044887e+01	-1.262790e+01
5.074026e+01	-1.267533e+01
5.103333e+01	-1.272276e+01
5.132810e+01	-1.277074e+01
5.162457e+01	-1.281690e+01
5.192275e+01	-1.286444e+01
5.222265e+01	-1.291243e+01
5.252429e+01	-1.295932e+01
5.282767e+01	-1.300724e+01
5.313280e+01	-1.305502e+01
5.343969e+01	-1.310281e+01
5.374836e+01	-1.315012e+01
5.405880e+01	-1.319824e+01
5.437105e+01	-1.324551e+01
5.468509e+01	-1.329347e+01
5.500095e+01	-1.334112e+01
5.531863e+01	-1.338888e+01
5.563815e+01	-1.343591e+01
5.595951e+01	-1.348370e+01
5.628273e+01	-1.353151e+01
5.660782e+01	-1.357964e+01
5.693479e+01	-1.362711e+01
5.726364e+01	-1.367539e+01
5.759439e+01	-1.372379e+01
5.792705e+01	-1.377107e+01
5.826164e+01	-1.381965e+01
5.859815e+01	-1.386647e+01
5.893662e+01	-1.391549e+01
5.927703e+01	-1.396235e+01
5.961941e+01	-1.401043e+01
5.996377e+01	-1.405882e+01
6.031012e+01	-1.410773e+01
6.065847e+01	-1.415538e+01
6.100883e+01	-1.420328e+01
6.136121e+01	-1.425094e+01
6.171563e+01	-1.429982e+01
6.207210e+01	-1.434880e+01
6.243063e+01	-1.439602e+01
6.279122e+01	-1.444454e+01
6.315390e+01	-1.449252e+01
6.351868e+01	-1.454145e+01
6.388556e+01	-1.458946e+01
6.425456e+01	-1.463725e+01
6.462569e+01	-1.468589e+01
6.499897e+01	-1.473347e+01
6.537440e+01	-1.478237e+01
6.575200e+01	-1.483144e+01
6.613178e+01	-1.487910e+01
6.651375e+01	-1.492735e+01
6.689793e+01	-1.497568e+01
6.728433e+01	-1.502421e+01
6.767297e+01	-1.507199e+01
6.806384e+01	-1.512209e+01
6.845698e+01	-1.517008e+01
6.885238e+01	-1.521827e+01
6.925007e+01	-1.526660e+01
6.965005e+01	-1.531516e+01
7.005235e+01	-1.536463e+01
7.045697e+01	-1.541348e+01
7.086393e+01	-1.546124e+01
7.127323e+01	-1.550940e+01
7.168490e+01	-1.555871e+01
7.209895e+01	-1.560730e+01
7.251539e+01	-1.565593e+01
7.293424e+01	-1.570504e+01
7.335551e+01	-1.575343e+01
7.377920e+01	-1.580233e+01
7.420535e+01	-1.585084e+01
7.463396e+01	-1.589971e+01
7.506504e+01	-1.594770e+01
7.549861e+01	-1.599634e+01
7.593469e+01	-1.604584e+01
7.637328e+01	-1.609438e+01
7.681441e+01	-1.614321e+01
7.725809e+01	-1.619193e+01
7.770433e+01	-1.624131e+01
7.815315e+01	-1.629030e+01
7.860456e+01	-1.633878e+01
7.905857e+01	-1.638835e+01
7.951521e+01	-1.643629e+01
7.997449e+01	-1.648488e+01
8.043642e+01	-1.653574e+01
8.090102e+01	-1.658314e+01
8.136830e+01	-1.663237e+01
8.183828e+01	-1.668131e+01
8.231097e+01	-1.672949e+01
8.278640e+01	-1.677919e+01
8.326457e+01	-1.682826e+01
8.374550e+01	-1.687667e+01
8.422921e+01	-1.692567e+01
8.471572e+01	-1.697421e+01
8.520503e+01	-1.702429e+01
8.569717e+01	-1.707298e+01
8.619215e+01	-1.712320e+01
8.669000e+01	-1.717243e+01
8.719071e+01	-1.722052e+01
8.769432e+01	-1.726836e+01
8.820084e+01	-1.731870e+01
8.871029e+01	-1.736789e+01
8.922267e+01	-1.741614e+01
8.973802e+01	-1.746570e+01
9.025634e+01	-1.751568e+01
9.077766e+01	-1.756331e+01
9.130199e+01	-1.761334e+01
9.182935e+01	-1.766188e+01
9.235975e+01	-1.771140e+01
9.289321e+01	-1.776018e+01
9.342976e+01	-1.781015e+01
9.396941e+01	-1.785906e+01
9.451217e+01	-1.790898e+01
9.505807e+01	-1.795532e+01
9.560712e+01	-1.800802e+01
9.615934e+01	-1.805566e+01
9.671476e+01	-1.810554e+01
9.727338e+01	-1.815374e+01
9.783522e+01	-1.820579e+01
9.840032e+01	-1.825324e+01
9.896867e+01	-1.830215e+01
9.954031e+01	-1.835126e+01
1.001153e+02	-1.840116e+01
1.006935e+02	-1.844962e+01
1.012751e+02	-1.850133e+01
1.018601e+02	-1.854934e+01
1.024484e+02	-1.859857e+01
1.030402e+02	-1.864799e+01
1.036353e+02	-1.869710e+01
1.042339e+02	-1.874700e+01
1.048360e+02	-1.879632e+01
1.054415e+02	-1.884590e+01
1.060505e+02	-1.889593e+01
1.066631e+02	-1.894514e+01
1.072791e+02	-1.899265e+01
1.078988e+02	-1.904420e+01
1.085220e+02	-1.909237e+01
1.091488e+02	-1.914147e+01
1.097793e+02	-1.919058e+01
1.104133e+02	-1.923945e+01
1.110511e+02	-1.929010e+01
1.116925e+02	-1.933997e+01
1.123376e+02	-1.938851e+01
1.129865e+02	-1.943828e+01
1.136391e+02	-1.948690e+01
1.142955e+02	-1.953686e+01
1.149556e+02	-1.958530e+01
1.156196e+02	-1.963628e+01
1.162874e+02	-1.968680e+01
1.169591e+02	-1.973515e+01
1.176347e+02	-1.978494e+01
1.183141e+02	-1.983432e+01
1.189975e+02	-1.988313e+01
1.196848e+02	-1.993510e+01
1.203761e+02	-1.998237e+01
1.210714e+02	-2.003369e+01
1.217707e+02	-2.008188e+01
1.224740e+02	-2.013055e+01
1.231814e+02	-2.018156e+01
1.238929e+02	-2.022999e+01
1.246085e+02	-2.027954e+01
1.253283e+02	-2.033074e+01
1.260522e+02	-2.037880e+01
1.267802e+02	-2.042768e+01
1.275125e+02	-2.047838e+01
1.282490e+02	-2.052799e+01
1.289898e+02	-2.057790e+01
1.297348e+02	-2.062833e+01
1.304842e+02	-2.067549e+01
1.312378e+02	-2.072701e+01
1.319959e+02	-2.077620e+01
1.327583e+02	-2.082469e+01
1.335251e+02	-2.087633e+01
1.342963e+02	-2.092596e+01
1.350720e+02	-2.097548e+01
1.358522e+02	-2.102562e+01
1.366368e+02	-2.107312e+01
1.374260e+02	-2.112241e+01
1.382198e+02	-2.117361e+01
1.390182e+02	-2.122202e+01
1.398211e+02	-2.127208e+01
1.406287e+02	-2.132207e+01
1.414410e+02	-2.137175e+01
1.422579e+02	-2.142238e+01
1.430796e+02	-2.147271e+01
1.439060e+02	-2.152061e+01
1.447372e+02	-2.157018e+01
1.455732e+02	-2.162242e+01
1.464141e+02	-2.166910e+01
1.472597e+02	-2.172103e+01
1.481103e+02	-2.176983e+01
1.489658e+02	-2.181747e+01
1.498262e+02	-2.186839e+01
1.506916e+02	-2.191861e+01
1.515620e+02	-2.196828e+01
1.524374e+02	-2.201799e+01
1.533179e+02	-2.206794e+01
1.542034e+02	-2.211807e+01
1.550941e+02	-2.216532e+01
1.559899e+02	-2.221688e+01
1.568909e+02	-2.226758e+01
1.577971e+02	-2.231613e+01
1.587085e+02	-2.236675e+01
1.596252e+02	-2.241914e+01
1.605472e+02	-2.246623e+01
1.614745e+02	-2.251644e+01
1.624072e+02	-2.256512e+01
1.633453e+02	-2.261473e+01
1.642887e+02	-2.266408e+01
1.652377e+02	-2.271748e+01
1.661921e+02	-2.276331e+01
1.671520e+02	-2.281570e+01
1.681175e+02	-2.286247e+01
1.690885e+02	-2.291404e+01
1.700651e+02	-2.296384e+01
1.710474e+02	-2.301471e+01
1.720354e+02	-2.306045e+01
1.730291e+02	-2.311344e+01
1.740285e+02	-2.316533e+01
1.750337e+02	-2.321238e+01
1.760446e+02	-2.326208e+01
1.770615e+02	-2.331486e+01
1.780842e+02	-2.336111e+01
1.791128e+02	-2.341109e+01
1.801473e+02	-2.346117e+01
1.811878e+02	-2.350998e+01
1.822344e+02	-2.356194e+01
1.832870e+02	-2.361154e+01
1.843456e+02	-2.366226e+01
1.854104e+02	-2.371120e+01
1.864813e+02	-2.376124e+01
1.875584e+02	-2.381080e+01
1.886418e+02	-2.386124e+01
1.897313e+02	-2.391219e+01
1.908272e+02	-2.395957e+01
1.919294e+02	-2.401083e+01
1.930380e+02	-2.406126e+01
1.941530e+02	-2.411072e+01
1.952744e+02	-2.415984e+01
1.964023e+02	-2.420912e+01
1.975367e+02	-2.425728e+01
1.986777e+02	-2.430944e+01
1.998252e+02	-2.436085e+01
2.009794e+02	-2.441060e+01
2.021403e+02	-2.445849e+01
2.033078e+02	-2.450831e+01
2.044821e+02	-2.455922e+01
2.056632e+02	-2.461025e+01
2.068511e+02	-2.465975e+01
2.080459e+02	-2.470868e+01
2.092475e+02	-2.475486e+01
2.104561e+02	-2.480735e+01
2.116717e+02	-2.485920e+01
2.128943e+02	-2.490873e+01
2.141240e+02	-2.496021e+01
2.153608e+02	-2.500866e+01
2.166047e+02	-2.505775e+01
2.178558e+02	-2.510890e+01
2.191141e+02	-2.515648e+01
2.203797e+02	-2.520685e+01
2.216526e+02	-2.526084e+01
2.229329e+02	-2.530411e+01
2.242205e+02	-2.535858e+01
2.255156e+02	-2.540515e+01
2.268182e+02	-2.545836e+01
2.281283e+02	-2.550601e+01
2.294459e+02	-2.555504e+01
2.307712e+02	-2.560759e+01
2.321041e+02	-2.565619e+01
2.334447e+02	-2.570663e+01
2.347931e+02	-2.575307e+01
2.361493e+02	-2.580858e+01
2.375133e+02	-2.585587e+01
2.388851e+02	-2.590618e+01
2.402649e+02	-2.595582e+01
2.416527e+02	-2.600662e+01
2.430484e+02	-2.605734e+01
2.444523e+02	-2.610749e+01
2.458642e+02	-2.615428e+01
2.472843e+02	-2.620544e+01
2.487126e+02	-2.625628e+01
2.501492e+02	-2.630968e+01
2.515940e+02	-2.635512e+01
2.530472e+02	-2.640346e+01
2.545088e+02	-2.645351e+01
2.559789e+02	-2.650558e+01
2.574574e+02	-2.655652e+01
2.589444e+02	-2.660670e+01
2.604401e+02	-2.665618e+01
2.619444e+02	-2.670767e+01
2.634574e+02	-2.675829e+01
2.649791e+02	-2.680283e+01
2.665096e+02	-2.685391e+01
2.680489e+02	-2.690518e+01
2.695972e+02	-2.695421e+01
2.711544e+02	-2.700734e+01
2.727205e+02	-2.705996e+01
2.742958e+02	-2.710558e+01
2.758801e+02	-2.715704e+01
2.774736e+02	-2.720263e+01
2.790762e+02	-2.725913e+01
2.806882e+02	-2.730253e+01
2.823094e+02	-2.735668e+01
2.839400e+02	-2.740376e+01
2.855800e+02	-2.745216e+01
2.872295e+02	-2.750882e+01
2.888886e+02	-2.755511e+01
2.905572e+02	-2.760571e+01
2.922354e+02	-2.765662e+01
2.939234e+02	-2.770494e+01
2.956211e+02	-2.775428e+01
2.973286e+02	-2.780917e+01
2.990459e+02	-2.785484e+01
3.007732e+02	-2.790571e+01
3.025104e+02	-2.795954e+01
3.042577e+02	-2.800748e+01
3.060151e+02	-2.805549e+01
3.077826e+02	-2.810825e+01
3.095604e+02	-2.815585e+01
3.113484e+02	-2.820614e+01
3.131467e+02	-2.825730e+01
3.149554e+02	-2.830534e+01
3.167746e+02	-2.835521e+01
3.186043e+02	-2.840896e+01
3.204445e+02	-2.845486e+01
3.222954e+02	-2.850937e+01
3.241570e+02	-2.855974e+01
3.260293e+02	-2.860591e+01
3.279124e+02	-2.865567e+01
3.298064e+02	-2.870679e+01
3.317114e+02	-2.875942e+01
3.336273e+02	-2.880675e+01
3.355544e+02	-2.885692e+01
3.374925e+02	-2.890956e+01
3.394418e+02	-2.895628e+01
3.414024e+02	-2.900669e+01
3.433744e+02	-2.905730e+01
3.453577e+02	-2.910859e+01
3.473525e+02	-2.915945e+01
3.493588e+02	-2.920388e+01
3.513766e+02	-2.925938e+01
3.534062e+02	-2.930541e+01
3.554474e+02	-2.935194e+01
3.575005e+02	-2.940707e+01
3.595654e+02	-2.945341e+01
3.616422e+02	-2.950732e+01
3.637311e+02	-2.955571e+01
3.658320e+02	-2.960497e+01
3.679450e+02	-2.966064e+01
3.700702e+02	-2.971072e+01
3.722077e+02	-2.975886e+01
3.743576e+02	-2.981651e+01
3.765199e+02	-2.986015e+01
3.786946e+02	-2.991129e+01
3.808820e+02	-2.995400e+01
3.830819e+02	-3.000626e+01
3.852946e+02	-3.005631e+01
3.875200e+02	-3.011400e+01
3.897583e+02	-3.016178e+01
3.920096e+02	-3.021011e+01
3.942738e+02	-3.025846e+01
3.965511e+02	-3.030748e+01
3.988416e+02	-3.035828e+01
4.011452e+02	-3.041059e+01
4.034622e+02	-3.046473e+01
4.057926e+02	-3.051326e+01
4.081365e+02	-3.055956e+01
4.104938e+02	-3.061112e+01
4.128648e+02	-3.066104e+01
4.152495e+02	-3.071252e+01
4.176480e+02	-3.075953e+01
4.200603e+02	-3.080438e+01
4.224866e+02	-3.085799e+01
4.249268e+02	-3.090677e+01
4.273812e+02	-3.095952e+01
4.298497e+02	-3.101145e+01
4.323325e+02	-3.106605e+01
4.348297e+02	-3.110891e+01
4.373412e+02	-3.115971e+01
4.398673e+02	-3.121080e+01
4.424079e+02	-3.126146e+01
4.449633e+02	-3.131485e+01
4.475334e+02	-3.136237e+01
4.501183e+02	-3.140998e+01
4.527182e+02	-3.146518e+01
4.553330e+02	-3.151249e+01
4.579630e+02	-3.156488e+01
4.606082e+02	-3.161030e+01
4.632687e+02	-3.166450e+01
4.659445e+02	-3.171930e+01
4.686358e+02	-3.176359e+01
4.713426e+02	-3.180944e+01
4.740650e+02	-3.186561e+01
4.768032e+02	-3.191862e+01
4.795572e+02	-3.196124e+01
4.823271e+02	-3.201817e+01
4.851130e+02	-3.206907e+01
4.879150e+02	-3.212086e+01
4.907332e+02	-3.216871e+01
4.935676e+02	-3.222320e+01
4.964185e+02	-3.226641e+01
4.992858e+02	-3.231871e+01
5.021696e+02	-3.236779e+01
5.050701e+02	-3.241919e+01
5.079874e+02	-3.246230e+01
5.109215e+02	-3.251853e+01
5.138726e+02	-3.256344e+01
5.168407e+02	-3.261944e+01
5.198259e+02	-3.266934e+01
5.228284e+02	-3.271673e+01
5.258482e+02	-3.276911e+01
5.288855e+02	-3.281702e+01
5.319403e+02	-3.286157e+01
5.350128e+02	-3.291752e+01
5.381030e+02	-3.297190e+01
5.412111e+02	-3.302540e+01
5.443371e+02	-3.306707e+01
5.474812e+02	-3.311570e+01
5.506434e+02	-3.317537e+01
5.538239e+02	-3.322272e+01
5.570228e+02	-3.327019e+01
5.602401e+02	-3.331981e+01
5.634760e+02	-3.337052e+01
5.667306e+02	-3.342004e+01
5.700040e+02	-3.347186e+01
5.732964e+02	-3.352167e+01
5.766077e+02	-3.357038e+01
5.799382e+02	-3.361958e+01
5.832879e+02	-3.367725e+01
5.866569e+02	-3.372215e+01
5.900454e+02	-3.376860e+01
5.934535e+02	-3.381641e+01
5.968813e+02	-3.387664e+01
6.003288e+02	-3.391776e+01
6.037963e+02	-3.397847e+01
6.072838e+02	-3.402167e+01
6.107914e+02	-3.407497e+01
6.143194e+02	-3.412501e+01
6.178676e+02	-3.417973e+01
6.214364e+02	-3.423127e+01
6.250258e+02	-3.427381e+01
6.286359e+02	-3.432354e+01
6.322669e+02	-3.438106e+01
6.359189e+02	-3.443229e+01
6.395919e+02	-3.448407e+01
6.432862e+02	-3.452490e+01
6.470017e+02	-3.457754e+01
6.507388e+02	-3.462602e+01
6.544974e+02	-3.467346e+01
6.582778e+02	-3.474065e+01
6.620800e+02	-3.478674e+01
6.659041e+02	-3.483291e+01
6.697504e+02	-3.488324e+01
6.736188e+02	-3.493850e+01
6.775096e+02	-3.498243e+01
6.814229e+02	-3.503001e+01
6.853587e+02	-3.507610e+01
6.893173e+02	-3.513925e+01
6.932988e+02	-3.518120e+01
6.973033e+02	-3.523321e+01
7.013309e+02	-3.528761e+01
