Frequency(Hz)	Magnitude(dB)
1.000000e+01	-1.799948e-05
1.005776e+01	-1.820801e-05
1.011585e+01	-1.841895e-05
1.017428e+01	-1.863234e-05
1.023305e+01	-1.884820e-05
1.029215e+01	-1.906656e-05
1.035160e+01	-1.928746e-05
1.041139e+01	-1.951091e-05
1.047153e+01	-1.973694e-05
1.053201e+01	-1.996560e-05
1.059284e+01	-2.019691e-05
1.065403e+01	-2.043089e-05
1.071556e+01	-2.066759e-05
1.077746e+01	-2.090703e-05
1.083971e+01	-2.114924e-05
1.090232e+01	-2.139426e-05
1.096529e+01	-2.164212e-05
1.102862e+01	-2.189285e-05
1.109232e+01	-2.214648e-05
1.115639e+01	-2.240306e-05
1.122083e+01	-2.266260e-05
1.128564e+01	-2.292515e-05
1.135083e+01	-2.319075e-05
1.141639e+01	-2.345942e-05
1.148233e+01	-2.373120e-05
1.154865e+01	-2.400613e-05
1.161536e+01	-2.428425e-05
1.168245e+01	-2.456559e-05
1.174992e+01	-2.485019e-05
1.181779e+01	-2.513808e-05
1.188605e+01	-2.542931e-05
1.195470e+01	-2.572392e-05
1.202375e+01	-2.602194e-05
1.209320e+01	-2.632341e-05
1.216305e+01	-2.662837e-05
1.223330e+01	-2.693687e-05
1.230396e+01	-2.724894e-05
1.237503e+01	-2.756462e-05
1.244651e+01	-2.788397e-05
1.251840e+01	-2.820701e-05
1.259070e+01	-2.853379e-05
1.266343e+01	-2.886436e-05
1.273657e+01	-2.919876e-05
1.281014e+01	-2.953704e-05
1.288413e+01	-2.987923e-05
1.295855e+01	-3.022539e-05
1.303339e+01	-3.057556e-05
1.310867e+01	-3.092978e-05
1.318439e+01	-3.128811e-05
1.326054e+01	-3.165059e-05
1.333713e+01	-3.201727e-05
1.341417e+01	-3.238820e-05
1.349165e+01	-3.276343e-05
1.356958e+01	-3.314300e-05
1.364795e+01	-3.352697e-05
1.372678e+01	-3.391539e-05
1.380607e+01	-3.430830e-05
1.388581e+01	-3.470577e-05
1.396602e+01	-3.510785e-05
1.404668e+01	-3.551458e-05
1.412782e+01	-3.592602e-05
1.420942e+01	-3.634224e-05
1.429149e+01	-3.676327e-05
1.437404e+01	-3.718918e-05
1.445706e+01	-3.762002e-05
1.454057e+01	-3.805586e-05
1.462455e+01	-3.849675e-05
1.470902e+01	-3.894274e-05
1.479398e+01	-3.939390e-05
1.487943e+01	-3.985029e-05
1.496537e+01	-4.031196e-05
1.505181e+01	-4.077899e-05
1.513875e+01	-4.125142e-05
1.522619e+01	-4.172933e-05
1.531414e+01	-4.221277e-05
1.540259e+01	-4.270182e-05
1.549156e+01	-4.319653e-05
1.558103e+01	-4.369697e-05
1.567103e+01	-4.420321e-05
1.576155e+01	-4.471531e-05
1.585258e+01	-4.523335e-05
1.594415e+01	-4.575738e-05
1.603624e+01	-4.628749e-05
1.612886e+01	-4.682374e-05
1.622202e+01	-4.736621e-05
1.631572e+01	-4.791496e-05
1.640996e+01	-4.847006e-05
1.650474e+01	-4.903160e-05
1.660008e+01	-4.959964e-05
1.669596e+01	-5.017426e-05
1.679239e+01	-5.075554e-05
1.688938e+01	-5.134355e-05
1.698694e+01	-5.193838e-05
1.708505e+01	-5.254010e-05
1.718373e+01	-5.314878e-05
1.728299e+01	-5.376452e-05
1.738281e+01	-5.438740e-05
1.748322e+01	-5.501749e-05
1.758420e+01	-5.565488e-05
1.768576e+01	-5.629965e-05
1.778792e+01	-5.695189e-05
1.789066e+01	-5.761169e-05
1.799399e+01	-5.827913e-05
1.809793e+01	-5.895431e-05
1.820246e+01	-5.963731e-05
1.830760e+01	-6.032822e-05
1.841334e+01	-6.102713e-05
1.851969e+01	-6.173414e-05
1.862666e+01	-6.244934e-05
1.873425e+01	-6.317283e-05
1.884246e+01	-6.390470e-05
1.895129e+01	-6.464505e-05
1.906075e+01	-6.539398e-05
1.917085e+01	-6.615158e-05
1.928158e+01	-6.691796e-05
1.939295e+01	-6.769321e-05
1.950496e+01	-6.847745e-05
1.961762e+01	-6.927078e-05
1.973093e+01	-7.007329e-05
1.984490e+01	-7.088510e-05
1.995952e+01	-7.170632e-05
2.007480e+01	-7.253705e-05
2.019076e+01	-7.337741e-05
2.030738e+01	-7.422750e-05
2.042467e+01	-7.508744e-05
2.054264e+01	-7.595734e-05
2.066130e+01	-7.683732e-05
2.078064e+01	-7.772749e-05
2.090066e+01	-7.862798e-05
2.102139e+01	-7.953889e-05
2.114280e+01	-8.046037e-05
2.126492e+01	-8.139251e-05
2.138775e+01	-8.233546e-05
2.151128e+01	-8.328933e-05
2.163553e+01	-8.425425e-05
2.176050e+01	-8.523035e-05
2.188619e+01	-8.621776e-05
2.201260e+01	-8.721660e-05
2.213974e+01	-8.822702e-05
2.226762e+01	-8.924915e-05
2.239624e+01	-9.028311e-05
2.252560e+01	-9.132906e-05
2.265571e+01	-9.238712e-05
2.278656e+01	-9.345744e-05
2.291818e+01	-9.454016e-05
2.305055e+01	-9.563542e-05
2.318369e+01	-9.674337e-05
2.331760e+01	-9.786416e-05
2.345228e+01	-9.899793e-05
2.358774e+01	-1.001448e-04
2.372398e+01	-1.013050e-04
2.386101e+01	-1.024787e-04
2.399883e+01	-1.036659e-04
2.413745e+01	-1.048669e-04
2.427686e+01	-1.060818e-04
2.441709e+01	-1.073107e-04
2.455812e+01	-1.085539e-04
2.469997e+01	-1.098116e-04
2.484263e+01	-1.110837e-04
2.498612e+01	-1.123707e-04
2.513044e+01	-1.136725e-04
2.527559e+01	-1.149894e-04
2.542158e+01	-1.163216e-04
2.556842e+01	-1.176692e-04
2.571610e+01	-1.190324e-04
2.586463e+01	-1.204114e-04
2.601403e+01	-1.218064e-04
2.616428e+01	-1.232175e-04
2.631541e+01	-1.246450e-04
2.646740e+01	-1.260890e-04
2.662028e+01	-1.275498e-04
2.677404e+01	-1.290275e-04
2.692868e+01	-1.305222e-04
2.708422e+01	-1.320344e-04
2.724066e+01	-1.335640e-04
2.739800e+01	-1.351113e-04
2.755625e+01	-1.366766e-04
2.771541e+01	-1.382600e-04
2.787550e+01	-1.398618e-04
2.803650e+01	-1.414821e-04
2.819844e+01	-1.431212e-04
2.836131e+01	-1.447793e-04
2.852513e+01	-1.464565e-04
2.868989e+01	-1.481532e-04
2.885560e+01	-1.498696e-04
2.902227e+01	-1.516059e-04
2.918990e+01	-1.533622e-04
2.935850e+01	-1.551389e-04
2.952807e+01	-1.569362e-04
2.969863e+01	-1.587544e-04
2.987016e+01	-1.605935e-04
3.004269e+01	-1.624540e-04
3.021622e+01	-1.643361e-04
3.039075e+01	-1.662399e-04
3.056628e+01	-1.681658e-04
3.074283e+01	-1.701140e-04
3.092040e+01	-1.720848e-04
3.109900e+01	-1.740784e-04
3.127862e+01	-1.760951e-04
3.145929e+01	-1.781352e-04
3.164099e+01	-1.801989e-04
3.182375e+01	-1.822865e-04
3.200756e+01	-1.843983e-04
3.219244e+01	-1.865345e-04
3.237838e+01	-1.886955e-04
3.256540e+01	-1.908816e-04
3.275349e+01	-1.930930e-04
3.294268e+01	-1.953299e-04
3.313295e+01	-1.975928e-04
3.332433e+01	-1.998820e-04
3.351681e+01	-2.021976e-04
3.371040e+01	-2.045401e-04
3.390511e+01	-2.069097e-04
3.410094e+01	-2.093067e-04
3.429791e+01	-2.117315e-04
3.449601e+01	-2.141844e-04
3.469526e+01	-2.166658e-04
3.489566e+01	-2.191758e-04
3.509721e+01	-2.217150e-04
3.529993e+01	-2.242835e-04
3.550382e+01	-2.268819e-04
3.570889e+01	-2.295103e-04
3.591515e+01	-2.321691e-04
3.612259e+01	-2.348588e-04
3.633123e+01	-2.375796e-04
3.654108e+01	-2.403320e-04
3.675214e+01	-2.431162e-04
3.696442e+01	-2.459327e-04
3.717792e+01	-2.487818e-04
3.739266e+01	-2.516640e-04
3.760864e+01	-2.545795e-04
3.782587e+01	-2.575288e-04
3.804435e+01	-2.605122e-04
3.826409e+01	-2.635302e-04
3.848510e+01	-2.665832e-04
3.870739e+01	-2.696715e-04
3.893096e+01	-2.727957e-04
3.915583e+01	-2.759560e-04
3.938199e+01	-2.791529e-04
3.960946e+01	-2.823869e-04
3.983824e+01	-2.856583e-04
4.006834e+01	-2.889676e-04
4.029978e+01	-2.923153e-04
4.053255e+01	-2.957017e-04
4.076666e+01	-2.991274e-04
4.100213e+01	-3.025927e-04
4.123896e+01	-3.060982e-04
4.147715e+01	-3.096443e-04
4.171672e+01	-3.132315e-04
4.195767e+01	-3.168603e-04
4.220002e+01	-3.205310e-04
4.244377e+01	-3.242443e-04
4.268892e+01	-3.280007e-04
4.293549e+01	-3.318005e-04
4.318348e+01	-3.356443e-04
4.343291e+01	-3.395327e-04
4.368377e+01	-3.434661e-04
4.393609e+01	-3.474451e-04
4.418986e+01	-3.514702e-04
4.444510e+01	-3.555419e-04
4.470182e+01	-3.596608e-04
4.496001e+01	-3.638274e-04
4.521970e+01	-3.680423e-04
4.548089e+01	-3.723060e-04
4.574358e+01	-3.766191e-04
4.600779e+01	-3.809821e-04
4.627353e+01	-3.853957e-04
4.654081e+01	-3.898604e-04
4.680963e+01	-3.943768e-04
4.708000e+01	-3.989456e-04
4.735193e+01	-4.035673e-04
4.762543e+01	-4.082425e-04
4.790051e+01	-4.129719e-04
4.817719e+01	-4.177560e-04
4.845545e+01	-4.225956e-04
4.873533e+01	-4.274913e-04
4.901682e+01	-4.324436e-04
4.929994e+01	-4.374533e-04
4.958470e+01	-4.425211e-04
4.987110e+01	-4.476476e-04
5.015915e+01	-4.528334e-04
5.044887e+01	-4.580793e-04
5.074026e+01	-4.633860e-04
5.103333e+01	-4.687542e-04
5.132810e+01	-4.741846e-04
5.162457e+01	-4.796778e-04
5.192275e+01	-4.852347e-04
5.222265e+01	-4.908560e-04
5.252429e+01	-4.965423e-04
5.282767e+01	-5.022946e-04
5.313280e+01	-5.081135e-04
5.343969e+01	-5.139998e-04
5.374836e+01	-5.199542e-04
5.405880e+01	-5.259777e-04
5.437105e+01	-5.320709e-04
5.468509e+01	-5.382347e-04
5.500095e+01	-5.444699e-04
5.531863e+01	-5.507773e-04
5.563815e+01	-5.571578e-04
5.595951e+01	-5.636123e-04
5.628273e+01	-5.701414e-04
5.660782e+01	-5.767462e-04
5.693479e+01	-5.834276e-04
5.726364e+01	-5.901863e-04
5.759439e+01	-5.970233e-04
5.792705e+01	-6.039395e-04
5.826164e+01	-6.109358e-04
5.859815e+01	-6.180131e-04
5.893662e+01	-6.251725e-04
5.927703e+01	-6.324147e-04
5.961941e+01	-6.397409e-04
5.996377e+01	-6.471519e-04
6.031012e+01	-6.546488e-04
6.065847e+01	-6.622325e-04
6.100883e+01	-6.699040e-04
6.136121e+01	-6.776645e-04
6.171563e+01	-6.855148e-04
6.207210e+01	-6.934560e-04
6.243063e+01	-7.014892e-04
6.279122e+01	-7.096155e-04
6.315390e+01	-7.178359e-04
6.351868e+01	-7.261516e-04
6.388556e+01	-7.345635e-04
6.425456e+01	-7.430729e-04
6.462569e+01	-7.516809e-04
6.499897e+01	-7.603885e-04
6.537440e+01	-7.691971e-04
6.575200e+01	-7.781076e-04
6.613178e+01	-7.871214e-04
6.651375e+01	-7.962396e-04
6.689793e+01	-8.054634e-04
6.728433e+01	-8.147940e-04
6.767297e+01	-8.242327e-04
6.806384e+01	-8.337808e-04
6.845698e+01	-8.434394e-04
6.885238e+01	-8.532100e-04
6.925007e+01	-8.630936e-04
6.965005e+01	-8.730918e-04
7.005235e+01	-8.832058e-04
7.045697e+01	-8.934369e-04
7.086393e+01	-9.037866e-04
7.127323e+01	-9.142561e-04
7.168490e+01	-9.248468e-04
7.209895e+01	-9.355603e-04
7.251539e+01	-9.463978e-04
7.293424e+01	-9.573609e-04
7.335551e+01	-9.684510e-04
7.377920e+01	-9.796695e-04
7.420535e+01	-9.910179e-04
7.463396e+01	-1.002498e-03
7.506504e+01	-1.014111e-03
7.549861e+01	-1.025858e-03
7.593469e+01	-1.037741e-03
7.637328e+01	-1.049762e-03
7.681441e+01	-1.061923e-03
7.725809e+01	-1.074224e-03
7.770433e+01	-1.086668e-03
7.815315e+01	-1.099255e-03
7.860456e+01	-1.111989e-03
7.905857e+01	-1.124870e-03
7.951521e+01	-1.137900e-03
7.997449e+01	-1.151081e-03
8.043642e+01	-1.164415e-03
8.090102e+01	-1.177903e-03
8.136830e+01	-1.191548e-03
8.183828e+01	-1.205350e-03
8.231097e+01	-1.219313e-03
8.278640e+01	-1.233437e-03
8.326457e+01	-1.247724e-03
8.374550e+01	-1.262177e-03
8.422921e+01	-1.276798e-03
8.471572e+01	-1.291588e-03
8.520503e+01	-1.306549e-03
8.569717e+01	-1.321683e-03
8.619215e+01	-1.336993e-03
8.669000e+01	-1.352480e-03
8.719071e+01	-1.368146e-03
8.769432e+01	-1.383994e-03
8.820084e+01	-1.400026e-03
8.871029e+01	-1.416243e-03
8.922267e+01	-1.432647e-03
8.973802e+01	-1.449242e-03
9.025634e+01	-1.466029e-03
9.077766e+01	-1.483011e-03
9.130199e+01	-1.500189e-03
9.182935e+01	-1.517566e-03
9.235975e+01	-1.535144e-03
9.289321e+01	-1.552926e-03
9.342976e+01	-1.570914e-03
9.396941e+01	-1.589110e-03
9.451217e+01	-1.607517e-03
9.505807e+01	-1.626137e-03
9.560712e+01	-1.644973e-03
9.615934e+01	-1.664026e-03
9.671476e+01	-1.683301e-03
9.727338e+01	-1.702799e-03
9.783522e+01	-1.722522e-03
9.840032e+01	-1.742474e-03
9.896867e+01	-1.762657e-03
9.954031e+01	-1.783073e-03
1.001153e+02	-1.803727e-03
1.006935e+02	-1.824619e-03
1.012751e+02	-1.845753e-03
1.018601e+02	-1.867132e-03
1.024484e+02	-1.888759e-03
1.030402e+02	-1.910635e-03
1.036353e+02	-1.932766e-03
1.042339e+02	-1.955152e-03
1.048360e+02	-1.977798e-03
1.054415e+02	-2.000706e-03
1.060505e+02	-2.023879e-03
1.066631e+02	-2.047321e-03
1.072791e+02	-2.071034e-03
1.078988e+02	-2.095022e-03
1.085220e+02	-2.119287e-03
1.091488e+02	-2.143834e-03
1.097793e+02	-2.168665e-03
1.104133e+02	-2.193783e-03
1.110511e+02	-2.219192e-03
1.116925e+02	-2.244895e-03
1.123376e+02	-2.270896e-03
1.129865e+02	-2.297198e-03
1.136391e+02	-2.323804e-03
1.142955e+02	-2.350719e-03
1.149556e+02	-2.377945e-03
1.156196e+02	-2.405487e-03
1.162874e+02	-2.433347e-03
1.169591e+02	-2.461530e-03
1.176347e+02	-2.490039e-03
1.183141e+02	-2.518879e-03
1.189975e+02	-2.548052e-03
1.196848e+02	-2.577563e-03
1.203761e+02	-2.607416e-03
1.210714e+02	-2.637614e-03
1.217707e+02	-2.668163e-03
1.224740e+02	-2.699064e-03
1.231814e+02	-2.730324e-03
1.238929e+02	-2.761945e-03
1.246085e+02	-2.793933e-03
1.253283e+02	-2.826291e-03
1.260522e+02	-2.859023e-03
1.267802e+02	-2.892135e-03
1.275125e+02	-2.925630e-03
1.282490e+02	-2.959512e-03
1.289898e+02	-2.993787e-03
1.297348e+02	-3.028459e-03
1.304842e+02	-3.063532e-03
1.312378e+02	-3.099011e-03
1.319959e+02	-3.134901e-03
1.327583e+02	-3.171206e-03
1.335251e+02	-3.207932e-03
1.342963e+02	-3.245083e-03
1.350720e+02	-3.282664e-03
1.358522e+02	-3.320680e-03
1.366368e+02	-3.359136e-03
1.374260e+02	-3.398037e-03
1.382198e+02	-3.437389e-03
1.390182e+02	-3.477196e-03
1.398211e+02	-3.517464e-03
1.406287e+02	-3.558198e-03
1.414410e+02	-3.599403e-03
1.422579e+02	-3.641086e-03
1.430796e+02	-3.683251e-03
1.439060e+02	-3.725904e-03
1.447372e+02	-3.769051e-03
1.455732e+02	-3.812697e-03
1.464141e+02	-3.856848e-03
1.472597e+02	-3.901511e-03
1.481103e+02	-3.946690e-03
1.489658e+02	-3.992393e-03
1.498262e+02	-4.038624e-03
1.506916e+02	-4.085390e-03
1.515620e+02	-4.132698e-03
1.524374e+02	-4.180554e-03
1.533179e+02	-4.228963e-03
1.542034e+02	-4.277932e-03
1.550941e+02	-4.327468e-03
1.559899e+02	-4.377578e-03
1.568909e+02	-4.428267e-03
1.577971e+02	-4.479544e-03
1.587085e+02	-4.531413e-03
1.596252e+02	-4.583883e-03
1.605472e+02	-4.636960e-03
1.614745e+02	-4.690651e-03
1.624072e+02	-4.744964e-03
1.633453e+02	-4.799905e-03
1.642887e+02	-4.855482e-03
1.652377e+02	-4.911702e-03
1.661921e+02	-4.968573e-03
1.671520e+02	-5.026102e-03
1.681175e+02	-5.084296e-03
1.690885e+02	-5.143164e-03
1.700651e+02	-5.202714e-03
1.710474e+02	-5.262952e-03
1.720354e+02	-5.323887e-03
1.730291e+02	-5.385527e-03
1.740285e+02	-5.447881e-03
1.750337e+02	-5.510956e-03
1.760446e+02	-5.574760e-03
1.770615e+02	-5.639304e-03
1.780842e+02	-5.704593e-03
1.791128e+02	-5.770638e-03
1.801473e+02	-5.837448e-03
1.811878e+02	-5.905030e-03
1.822344e+02	-5.973394e-03
1.832870e+02	-6.042549e-03
1.843456e+02	-6.112504e-03
1.854104e+02	-6.183269e-03
1.864813e+02	-6.254852e-03
1.875584e+02	-6.327263e-03
1.886418e+02	-6.400512e-03
1.897313e+02	-6.474608e-03
1.908272e+02	-6.549561e-03
1.919294e+02	-6.625382e-03
1.930380e+02	-6.702079e-03
1.941530e+02	-6.779664e-03
1.952744e+02	-6.858146e-03
1.964023e+02	-6.937535e-03
1.975367e+02	-7.017843e-03
1.986777e+02	-7.099080e-03
1.998252e+02	-7.181257e-03
2.009794e+02	-7.264384e-03
2.021403e+02	-7.348472e-03
2.033078e+02	-7.433533e-03
2.044821e+02	-7.519578e-03
2.056632e+02	-7.606617e-03
2.068511e+02	-7.694664e-03
2.080459e+02	-7.783728e-03
2.092475e+02	-7.873823e-03
2.104561e+02	-7.964959e-03
2.116717e+02	-8.057149e-03
2.128943e+02	-8.150406e-03
2.141240e+02	-8.244740e-03
2.153608e+02	-8.340166e-03
2.166047e+02	-8.436695e-03
2.178558e+02	-8.534340e-03
2.191141e+02	-8.633114e-03
2.203797e+02	-8.733030e-03
2.216526e+02	-8.834101e-03
2.229329e+02	-8.936341e-03
2.242205e+02	-9.039762e-03
2.255156e+02	-9.144380e-03
2.268182e+02	-9.250207e-03
2.281283e+02	-9.357257e-03
2.294459e+02	-9.465545e-03
2.307712e+02	-9.575084e-03
2.321041e+02	-9.685890e-03
2.334447e+02	-9.797976e-03
2.347931e+02	-9.911359e-03
2.361493e+02	-1.002605e-02
2.375133e+02	-1.014207e-02
2.388851e+02	-1.025943e-02
2.402649e+02	-1.037814e-02
2.416527e+02	-1.049823e-02
2.430484e+02	-1.061971e-02
2.444523e+02	-1.074259e-02
2.458642e+02	-1.086689e-02
2.472843e+02	-1.099262e-02
2.487126e+02	-1.111981e-02
2.501492e+02	-1.124847e-02
2.515940e+02	-1.137862e-02
2.530472e+02	-1.151026e-02
2.545088e+02	-1.164343e-02
2.559789e+02	-1.177814e-02
2.574574e+02	-1.191441e-02
2.589444e+02	-1.205225e-02
2.604401e+02	-1.219168e-02
2.619444e+02	-1.233272e-02
2.634574e+02	-1.247539e-02
2.649791e+02	-1.261971e-02
2.665096e+02	-1.276570e-02
2.680489e+02	-1.291337e-02
2.695972e+02	-1.306275e-02
2.711544e+02	-1.321386e-02
2.727205e+02	-1.336671e-02
2.742958e+02	-1.352132e-02
2.758801e+02	-1.367772e-02
2.774736e+02	-1.383593e-02
2.790762e+02	-1.399596e-02
2.806882e+02	-1.415784e-02
2.823094e+02	-1.432160e-02
2.839400e+02	-1.448724e-02
2.855800e+02	-1.465479e-02
2.872295e+02	-1.482428e-02
2.888886e+02	-1.499573e-02
2.905572e+02	-1.516915e-02
2.922354e+02	-1.534458e-02
2.939234e+02	-1.552203e-02
2.956211e+02	-1.570153e-02
2.973286e+02	-1.588310e-02
2.990459e+02	-1.606677e-02
3.007732e+02	-1.625256e-02
3.025104e+02	-1.644049e-02
3.042577e+02	-1.663059e-02
3.060151e+02	-1.682289e-02
3.077826e+02	-1.701740e-02
3.095604e+02	-1.721416e-02
3.113484e+02	-1.741319e-02
3.131467e+02	-1.761452e-02
3.149554e+02	-1.781817e-02
3.167746e+02	-1.802417e-02
3.186043e+02	-1.823254e-02
3.204445e+02	-1.844332e-02
3.222954e+02	-1.865653e-02
3.241570e+02	-1.887220e-02
3.260293e+02	-1.909036e-02
3.279124e+02	-1.931103e-02
3.298064e+02	-1.953425e-02
3.317114e+02	-1.976004e-02
3.336273e+02	-1.998844e-02
3.355544e+02	-2.021947e-02
3.374925e+02	-2.045316e-02
3.394418e+02	-2.068955e-02
3.414024e+02	-2.092867e-02
3.433744e+02	-2.117054e-02
3.453577e+02	-2.141520e-02
3.473525e+02	-2.166268e-02
3.493588e+02	-2.191301e-02
3.513766e+02	-2.216623e-02
3.534062e+02	-2.242236e-02
3.554474e+02	-2.268145e-02
3.575005e+02	-2.294353e-02
3.595654e+02	-2.320862e-02
3.616422e+02	-2.347677e-02
3.637311e+02	-2.374801e-02
3.658320e+02	-2.402237e-02
3.679450e+02	-2.429990e-02
3.700702e+02	-2.458062e-02
3.722077e+02	-2.486457e-02
3.743576e+02	-2.515180e-02
3.765199e+02	-2.544233e-02
3.786946e+02	-2.573621e-02
3.808820e+02	-2.603348e-02
3.830819e+02	-2.633417e-02
3.852946e+02	-2.663832e-02
3.875200e+02	-2.694597e-02
3.897583e+02	-2.725716e-02
3.920096e+02	-2.757194e-02
3.942738e+02	-2.789034e-02
3.965511e+02	-2.821240e-02
3.988416e+02	-2.853817e-02
4.011452e+02	-2.886769e-02
4.034622e+02	-2.920100e-02
4.057926e+02	-2.953815e-02
4.081365e+02	-2.987918e-02
4.104938e+02	-3.022413e-02
4.128648e+02	-3.057305e-02
4.152495e+02	-3.092598e-02
4.176480e+02	-3.128297e-02
4.200603e+02	-3.164407e-02
4.224866e+02	-3.200932e-02
4.249268e+02	-3.237877e-02
4.273812e+02	-3.275247e-02
4.298497e+02	-3.313046e-02
4.323325e+02	-3.351280e-02
4.348297e+02	-3.389954e-02
4.373412e+02	-3.429072e-02
4.398673e+02	-3.468640e-02
4.424079e+02	-3.508662e-02
4.449633e+02	-3.549144e-02
4.475334e+02	-3.590092e-02
4.501183e+02	-3.631510e-02
4.527182e+02	-3.673403e-02
4.553330e+02	-3.715778e-02
4.579630e+02	-3.758640e-02
4.606082e+02	-3.801993e-02
4.632687e+02	-3.845845e-02
4.659445e+02	-3.890200e-02
4.686358e+02	-3.935065e-02
4.713426e+02	-3.980444e-02
4.740650e+02	-4.026344e-02
4.768032e+02	-4.072771e-02
4.795572e+02	-4.119731e-02
4.823271e+02	-4.167230e-02
4.851130e+02	-4.215274e-02
4.879150e+02	-4.263868e-02
4.907332e+02	-4.313021e-02
4.935676e+02	-4.362737e-02
4.964185e+02	-4.413023e-02
4.992858e+02	-4.463886e-02
5.021696e+02	-4.515332e-02
5.050701e+02	-4.567367e-02
5.079874e+02	-4.620000e-02
5.109215e+02	-4.673235e-02
5.138726e+02	-4.727081e-02
5.168407e+02	-4.781543e-02
5.198259e+02	-4.836630e-02
5.228284e+02	-4.892347e-02
5.258482e+02	-4.948703e-02
5.288855e+02	-5.005704e-02
5.319403e+02	-5.063358e-02
5.350128e+02	-5.121672e-02
5.381030e+02	-5.180654e-02
5.412111e+02	-5.240310e-02
5.443371e+02	-5.300650e-02
5.474812e+02	-5.361680e-02
5.506434e+02	-5.423408e-02
5.538239e+02	-5.485842e-02
5.570228e+02	-5.548991e-02
5.602401e+02	-5.612861e-02
5.634760e+02	-5.677462e-02
5.667306e+02	-5.742802e-02
5.700040e+02	-5.808888e-02
5.732964e+02	-5.875730e-02
5.766077e+02	-5.943336e-02
5.799382e+02	-6.011714e-02
5.832879e+02	-6.080874e-02
5.866569e+02	-6.150823e-02
5.900454e+02	-6.221571e-02
5.934535e+02	-6.293127e-02
5.968813e+02	-6.365500e-02
6.003288e+02	-6.438699e-02
6.037963e+02	-6.512734e-02
6.072838e+02	-6.587613e-02
6.107914e+02	-6.663347e-02
6.143194e+02	-6.739944e-02
6.178676e+02	-6.817415e-02
6.214364e+02	-6.895770e-02
6.250258e+02	-6.975018e-02
6.286359e+02	-7.055169e-02
6.322669e+02	-7.136233e-02
6.359189e+02	-7.218222e-02
6.395919e+02	-7.301144e-02
6.432862e+02	-7.385010e-02
6.470017e+02	-7.469832e-02
6.507388e+02	-7.555620e-02
6.544974e+02	-7.642384e-02
6.582778e+02	-7.730135e-02
6.620800e+02	-7.818885e-02
6.659041e+02	-7.908645e-02
6.697504e+02	-7.999425e-02
6.736188e+02	-8.091238e-02
6.775096e+02	-8.184095e-02
6.814229e+02	-8.278007e-02
6.853587e+02	-8.372986e-02
6.893173e+02	-8.469045e-02
6.932988e+02	-8.566195e-02
6.973033e+02	-8.664447e-02
7.013309e+02	-8.763816e-02
