Frequency(Hz)	Magnitude(dB)
1.000000e+01	-2.076891e+00
1.005776e+01	-2.095907e+00
1.011585e+01	-2.115256e+00
1.017428e+01	-2.134440e+00
1.023305e+01	-2.154106e+00
1.029215e+01	-2.173554e+00
1.035160e+01	-2.193299e+00
1.041139e+01	-2.213267e+00
1.047153e+01	-2.233324e+00
1.053201e+01	-2.253644e+00
1.059284e+01	-2.273951e+00
1.065403e+01	-2.294252e+00
1.071556e+01	-2.314938e+00
1.077746e+01	-2.335689e+00
1.083971e+01	-2.356550e+00
1.090232e+01	-2.377522e+00
1.096529e+01	-2.398739e+00
1.102862e+01	-2.419945e+00
1.109232e+01	-2.441410e+00
1.115639e+01	-2.463134e+00
1.122083e+01	-2.484802e+00
1.128564e+01	-2.506683e+00
1.135083e+01	-2.528512e+00
1.141639e+01	-2.550735e+00
1.148233e+01	-2.573013e+00
1.154865e+01	-2.595554e+00
1.161536e+01	-2.618230e+00
1.168245e+01	-2.640829e+00
1.174992e+01	-2.663698e+00
1.181779e+01	-2.686733e+00
1.188605e+01	-2.709754e+00
1.195470e+01	-2.733078e+00
1.202375e+01	-2.756812e+00
1.209320e+01	-2.779996e+00
1.216305e+01	-2.803577e+00
1.223330e+01	-2.827737e+00
1.230396e+01	-2.851761e+00
1.237503e+01	-2.875953e+00
1.244651e+01	-2.900074e+00
1.251840e+01	-2.924609e+00
1.259070e+01	-2.949104e+00
1.266343e+01	-2.973785e+00
1.273657e+01	-2.998688e+00
1.281014e+01	-3.023704e+00
1.288413e+01	-3.049017e+00
1.295855e+01	-3.074368e+00
1.303339e+01	-3.099660e+00
1.310867e+01	-3.125155e+00
1.318439e+01	-3.151203e+00
1.326054e+01	-3.176714e+00
1.333713e+01	-3.203182e+00
1.341417e+01	-3.228953e+00
1.349165e+01	-3.255580e+00
1.356958e+01	-3.281804e+00
1.364795e+01	-3.308486e+00
1.372678e+01	-3.335314e+00
1.380607e+01	-3.362012e+00
1.388581e+01	-3.389411e+00
1.396602e+01	-3.416473e+00
1.404668e+01	-3.444028e+00
1.412782e+01	-3.471190e+00
1.420942e+01	-3.498716e+00
1.429149e+01	-3.526597e+00
1.437404e+01	-3.554440e+00
1.445706e+01	-3.582319e+00
1.454057e+01	-3.610348e+00
1.462455e+01	-3.638814e+00
1.470902e+01	-3.667529e+00
1.479398e+01	-3.696000e+00
1.487943e+01	-3.724632e+00
1.496537e+01	-3.753563e+00
1.505181e+01	-3.782485e+00
1.513875e+01	-3.811969e+00
1.522619e+01	-3.840861e+00
1.531414e+01	-3.870558e+00
1.540259e+01	-3.899944e+00
1.549156e+01	-3.929701e+00
1.558103e+01	-3.959519e+00
1.567103e+01	-3.989631e+00
1.576155e+01	-4.019638e+00
1.585258e+01	-4.050012e+00
1.594415e+01	-4.080515e+00
1.603624e+01	-4.110893e+00
1.612886e+01	-4.141657e+00
1.622202e+01	-4.172581e+00
1.631572e+01	-4.203430e+00
1.640996e+01	-4.234559e+00
1.650474e+01	-4.265390e+00
1.660008e+01	-4.297213e+00
1.669596e+01	-4.328628e+00
1.679239e+01	-4.360007e+00
1.688938e+01	-4.391770e+00
1.698694e+01	-4.423654e+00
1.708505e+01	-4.455766e+00
1.718373e+01	-4.487895e+00
1.728299e+01	-4.520275e+00
1.738281e+01	-4.553106e+00
1.748322e+01	-4.585175e+00
1.758420e+01	-4.617869e+00
1.768576e+01	-4.650503e+00
1.778792e+01	-4.683793e+00
1.789066e+01	-4.716732e+00
1.799399e+01	-4.750010e+00
1.809793e+01	-4.783311e+00
1.820246e+01	-4.816766e+00
1.830760e+01	-4.849989e+00
1.841334e+01	-4.884065e+00
1.851969e+01	-4.917884e+00
1.862666e+01	-4.951640e+00
1.873425e+01	-4.986201e+00
1.884246e+01	-5.020402e+00
1.895129e+01	-5.054845e+00
1.906075e+01	-5.088561e+00
1.917085e+01	-5.123613e+00
1.928158e+01	-5.158402e+00
1.939295e+01	-5.193037e+00
1.950496e+01	-5.228440e+00
1.961762e+01	-5.263066e+00
1.973093e+01	-5.298574e+00
1.984490e+01	-5.333582e+00
1.995952e+01	-5.369317e+00
2.007480e+01	-5.404733e+00
2.019076e+01	-5.440510e+00
2.030738e+01	-5.476124e+00
2.042467e+01	-5.512115e+00
2.054264e+01	-5.548353e+00
2.066130e+01	-5.584498e+00
2.078064e+01	-5.620462e+00
2.090066e+01	-5.656875e+00
2.102139e+01	-5.693191e+00
2.114280e+01	-5.730012e+00
2.126492e+01	-5.766538e+00
2.138775e+01	-5.803516e+00
2.151128e+01	-5.840352e+00
2.163553e+01	-5.877410e+00
2.176050e+01	-5.914512e+00
2.188619e+01	-5.951873e+00
2.201260e+01	-5.989359e+00
2.213974e+01	-6.026700e+00
2.226762e+01	-6.064370e+00
2.239624e+01	-6.102041e+00
2.252560e+01	-6.139966e+00
2.265571e+01	-6.177170e+00
2.278656e+01	-6.215976e+00
2.291818e+01	-6.253549e+00
2.305055e+01	-6.292171e+00
2.318369e+01	-6.330740e+00
2.331760e+01	-6.368660e+00
2.345228e+01	-6.407250e+00
2.358774e+01	-6.446004e+00
2.372398e+01	-6.484620e+00
2.386101e+01	-6.523394e+00
2.399883e+01	-6.562357e+00
2.413745e+01	-6.601270e+00
2.427686e+01	-6.640743e+00
2.441709e+01	-6.680084e+00
2.455812e+01	-6.719300e+00
2.469997e+01	-6.758283e+00
2.484263e+01	-6.798142e+00
2.498612e+01	-6.837745e+00
2.513044e+01	-6.877385e+00
2.527559e+01	-6.917390e+00
2.542158e+01	-6.957424e+00
2.556842e+01	-6.997301e+00
2.571610e+01	-7.037219e+00
2.586463e+01	-7.077528e+00
2.601403e+01	-7.117742e+00
2.616428e+01	-7.158084e+00
2.631541e+01	-7.198578e+00
2.646740e+01	-7.239055e+00
2.662028e+01	-7.279572e+00
2.677404e+01	-7.320570e+00
2.692868e+01	-7.360802e+00
2.708422e+01	-7.402307e+00
2.724066e+01	-7.443055e+00
2.739800e+01	-7.483899e+00
2.755625e+01	-7.525293e+00
2.771541e+01	-7.566451e+00
2.787550e+01	-7.607385e+00
2.803650e+01	-7.648912e+00
2.819844e+01	-7.690720e+00
2.836131e+01	-7.732119e+00
2.852513e+01	-7.773674e+00
2.868989e+01	-7.815589e+00
2.885560e+01	-7.857577e+00
2.902227e+01	-7.899154e+00
2.918990e+01	-7.941140e+00
2.935850e+01	-7.983361e+00
2.952807e+01	-8.025205e+00
2.969863e+01	-8.067496e+00
2.987016e+01	-8.109932e+00
3.004269e+01	-8.152053e+00
3.021622e+01	-8.194784e+00
3.039075e+01	-8.237395e+00
3.056628e+01	-8.279571e+00
3.074283e+01	-8.322424e+00
3.092040e+01	-8.365298e+00
3.109900e+01	-8.407531e+00
3.127862e+01	-8.450384e+00
3.145929e+01	-8.493306e+00
3.164099e+01	-8.536279e+00
3.182375e+01	-8.579260e+00
3.200756e+01	-8.622911e+00
3.219244e+01	-8.665602e+00
3.237838e+01	-8.709238e+00
3.256540e+01	-8.751633e+00
3.275349e+01	-8.795772e+00
3.294268e+01	-8.839076e+00
3.313295e+01	-8.882644e+00
3.332433e+01	-8.926195e+00
3.351681e+01	-8.970188e+00
3.371040e+01	-9.013673e+00
3.390511e+01	-9.057436e+00
3.410094e+01	-9.100823e+00
3.429791e+01	-9.144953e+00
3.449601e+01	-9.189516e+00
3.469526e+01	-9.233141e+00
3.489566e+01	-9.277286e+00
3.509721e+01	-9.321811e+00
3.529993e+01	-9.365077e+00
3.550382e+01	-9.410022e+00
3.570889e+01	-9.454328e+00
3.591515e+01	-9.498713e+00
3.612259e+01	-9.542996e+00
3.633123e+01	-9.587695e+00
3.654108e+01	-9.631997e+00
3.675214e+01	-9.676728e+00
3.696442e+01	-9.721180e+00
3.717792e+01	-9.766284e+00
3.739266e+01	-9.810813e+00
3.760864e+01	-9.855640e+00
3.782587e+01	-9.900122e+00
3.804435e+01	-9.945416e+00
3.826409e+01	-9.990195e+00
3.848510e+01	-1.003567e+01
3.870739e+01	-1.008077e+01
3.893096e+01	-1.012603e+01
3.915583e+01	-1.017118e+01
3.938199e+01	-1.021627e+01
3.960946e+01	-1.026155e+01
3.983824e+01	-1.030661e+01
4.006834e+01	-1.035235e+01
4.029978e+01	-1.039757e+01
4.053255e+01	-1.044311e+01
4.076666e+01	-1.048863e+01
4.100213e+01	-1.053438e+01
4.123896e+01	-1.058000e+01
4.147715e+01	-1.062572e+01
4.171672e+01	-1.067064e+01
4.195767e+01	-1.071658e+01
4.220002e+01	-1.076345e+01
4.244377e+01	-1.080899e+01
4.268892e+01	-1.085452e+01
4.293549e+01	-1.090043e+01
4.318348e+01	-1.094583e+01
4.343291e+01	-1.099263e+01
4.368377e+01	-1.103906e+01
4.393609e+01	-1.108459e+01
4.418986e+01	-1.113080e+01
4.444510e+01	-1.117686e+01
4.470182e+01	-1.122282e+01
4.496001e+01	-1.126907e+01
4.521970e+01	-1.131543e+01
4.548089e+01	-1.136240e+01
4.574358e+01	-1.140841e+01
4.600779e+01	-1.145514e+01
4.627353e+01	-1.150117e+01
4.654081e+01	-1.154761e+01
4.680963e+01	-1.159444e+01
4.708000e+01	-1.164042e+01
4.735193e+01	-1.168752e+01
4.762543e+01	-1.173433e+01
4.790051e+01	-1.178182e+01
4.817719e+01	-1.182775e+01
4.845545e+01	-1.187481e+01
4.873533e+01	-1.192139e+01
4.901682e+01	-1.196716e+01
4.929994e+01	-1.201519e+01
4.958470e+01	-1.206167e+01
4.987110e+01	-1.210869e+01
5.015915e+01	-1.215596e+01
5.044887e+01	-1.220328e+01
5.074026e+01	-1.224991e+01
5.103333e+01	-1.229726e+01
5.132810e+01	-1.234396e+01
5.162457e+01	-1.239100e+01
5.192275e+01	-1.243788e+01
5.222265e+01	-1.248506e+01
5.252429e+01	-1.253269e+01
5.282767e+01	-1.257983e+01
5.313280e+01	-1.262651e+01
5.343969e+01	-1.267505e+01
5.374836e+01	-1.272226e+01
5.405880e+01	-1.276889e+01
5.437105e+01	-1.281628e+01
5.468509e+01	-1.286265e+01
5.500095e+01	-1.291196e+01
5.531863e+01	-1.295869e+01
5.563815e+01	-1.300597e+01
5.595951e+01	-1.305474e+01
5.628273e+01	-1.310180e+01
5.660782e+01	-1.314897e+01
5.693479e+01	-1.319635e+01
5.726364e+01	-1.324398e+01
5.759439e+01	-1.329198e+01
5.792705e+01	-1.333924e+01
5.826164e+01	-1.338799e+01
5.859815e+01	-1.343592e+01
5.893662e+01	-1.348356e+01
5.927703e+01	-1.353131e+01
5.961941e+01	-1.357916e+01
5.996377e+01	-1.362651e+01
6.031012e+01	-1.367388e+01
6.065847e+01	-1.372195e+01
6.100883e+01	-1.376993e+01
6.136121e+01	-1.381803e+01
6.171563e+01	-1.386590e+01
6.207210e+01	-1.391393e+01
6.243063e+01	-1.396238e+01
6.279122e+01	-1.401055e+01
6.315390e+01	-1.405919e+01
6.351868e+01	-1.410501e+01
6.388556e+01	-1.415424e+01
6.425456e+01	-1.420268e+01
6.462569e+01	-1.425094e+01
6.499897e+01	-1.429928e+01
6.537440e+01	-1.434721e+01
6.575200e+01	-1.439466e+01
6.613178e+01	-1.444342e+01
6.651375e+01	-1.449250e+01
6.689793e+01	-1.454010e+01
6.728433e+01	-1.458795e+01
6.767297e+01	-1.463705e+01
6.806384e+01	-1.468428e+01
6.845698e+01	-1.473215e+01
6.885238e+01	-1.478099e+01
6.925007e+01	-1.482972e+01
6.965005e+01	-1.487769e+01
7.005235e+01	-1.492597e+01
7.045697e+01	-1.497505e+01
7.086393e+01	-1.502400e+01
7.127323e+01	-1.507185e+01
7.168490e+01	-1.512000e+01
7.209895e+01	-1.516917e+01
7.251539e+01	-1.521796e+01
7.293424e+01	-1.526527e+01
7.335551e+01	-1.531390e+01
7.377920e+01	-1.536241e+01
7.420535e+01	-1.541101e+01
7.463396e+01	-1.546121e+01
7.506504e+01	-1.550982e+01
7.549861e+01	-1.555715e+01
7.593469e+01	-1.560707e+01
7.637328e+01	-1.565540e+01
7.681441e+01	-1.570335e+01
7.725809e+01	-1.575187e+01
7.770433e+01	-1.580069e+01
7.815315e+01	-1.584930e+01
7.860456e+01	-1.589811e+01
7.905857e+01	-1.594628e+01
7.951521e+01	-1.599669e+01
7.997449e+01	-1.604427e+01
8.043642e+01	-1.609315e+01
8.090102e+01	-1.614247e+01
8.136830e+01	-1.619090e+01
8.183828e+01	-1.623959e+01
8.231097e+01	-1.628884e+01
8.278640e+01	-1.633777e+01
8.326457e+01	-1.638663e+01
8.374550e+01	-1.643461e+01
8.422921e+01	-1.648365e+01
8.471572e+01	-1.653379e+01
8.520503e+01	-1.658208e+01
8.569717e+01	-1.663134e+01
8.619215e+01	-1.667994e+01
8.669000e+01	-1.672926e+01
8.719071e+01	-1.677675e+01
8.769432e+01	-1.682573e+01
8.820084e+01	-1.687563e+01
8.871029e+01	-1.692577e+01
8.922267e+01	-1.697427e+01
8.973802e+01	-1.702352e+01
9.025634e+01	-1.707252e+01
9.077766e+01	-1.712183e+01
9.130199e+01	-1.716948e+01
9.182935e+01	-1.721837e+01
9.235975e+01	-1.726777e+01
9.289321e+01	-1.731736e+01
9.342976e+01	-1.736627e+01
9.396941e+01	-1.741647e+01
9.451217e+01	-1.746403e+01
9.505807e+01	-1.751440e+01
9.560712e+01	-1.756317e+01
9.615934e+01	-1.761223e+01
9.671476e+01	-1.766230e+01
9.727338e+01	-1.770925e+01
9.783522e+01	-1.775925e+01
9.840032e+01	-1.780884e+01
9.896867e+01	-1.785887e+01
9.954031e+01	-1.790747e+01
1.001153e+02	-1.795746e+01
1.006935e+02	-1.800687e+01
1.012751e+02	-1.805589e+01
1.018601e+02	-1.810515e+01
1.024484e+02	-1.815354e+01
1.030402e+02	-1.820248e+01
1.036353e+02	-1.825193e+01
1.042339e+02	-1.830061e+01
1.048360e+02	-1.835080e+01
1.054415e+02	-1.839900e+01
1.060505e+02	-1.844919e+01
1.066631e+02	-1.849972e+01
1.072791e+02	-1.854882e+01
1.078988e+02	-1.859696e+01
1.085220e+02	-1.864585e+01
1.091488e+02	-1.869569e+01
1.097793e+02	-1.874635e+01
1.104133e+02	-1.879439e+01
1.110511e+02	-1.884507e+01
1.116925e+02	-1.889373e+01
1.123376e+02	-1.894387e+01
1.129865e+02	-1.899269e+01
1.136391e+02	-1.904219e+01
1.142955e+02	-1.909151e+01
1.149556e+02	-1.914064e+01
1.156196e+02	-1.918942e+01
1.162874e+02	-1.924094e+01
1.169591e+02	-1.928987e+01
1.176347e+02	-1.933878e+01
1.183141e+02	-1.938789e+01
1.189975e+02	-1.943806e+01
1.196848e+02	-1.948706e+01
1.203761e+02	-1.953651e+01
1.210714e+02	-1.958583e+01
1.217707e+02	-1.963544e+01
1.224740e+02	-1.968316e+01
1.231814e+02	-1.973587e+01
1.238929e+02	-1.978366e+01
1.246085e+02	-1.983309e+01
1.253283e+02	-1.988331e+01
1.260522e+02	-1.993289e+01
1.267802e+02	-1.998263e+01
1.275125e+02	-2.003272e+01
1.282490e+02	-2.008190e+01
1.289898e+02	-2.013197e+01
1.297348e+02	-2.018001e+01
1.304842e+02	-2.023034e+01
1.312378e+02	-2.027876e+01
1.319959e+02	-2.033040e+01
1.327583e+02	-2.037814e+01
1.335251e+02	-2.042832e+01
1.342963e+02	-2.047874e+01
1.350720e+02	-2.052713e+01
1.358522e+02	-2.057612e+01
1.366368e+02	-2.062626e+01
1.374260e+02	-2.067593e+01
1.382198e+02	-2.072581e+01
1.390182e+02	-2.077519e+01
1.398211e+02	-2.082459e+01
1.406287e+02	-2.087322e+01
1.414410e+02	-2.092374e+01
1.422579e+02	-2.097462e+01
1.430796e+02	-2.102326e+01
1.439060e+02	-2.107259e+01
1.447372e+02	-2.112324e+01
1.455732e+02	-2.117161e+01
1.464141e+02	-2.122286e+01
1.472597e+02	-2.126948e+01
1.481103e+02	-2.132060e+01
1.489658e+02	-2.137278e+01
1.498262e+02	-2.141845e+01
1.506916e+02	-2.147064e+01
1.515620e+02	-2.151988e+01
1.524374e+02	-2.156946e+01
1.533179e+02	-2.161911e+01
1.542034e+02	-2.166814e+01
1.550941e+02	-2.171868e+01
1.559899e+02	-2.176791e+01
1.568909e+02	-2.181745e+01
1.577971e+02	-2.186909e+01
1.587085e+02	-2.191751e+01
1.596252e+02	-2.196581e+01
1.605472e+02	-2.201700e+01
1.614745e+02	-2.206599e+01
1.624072e+02	-2.211738e+01
1.633453e+02	-2.216676e+01
1.642887e+02	-2.221609e+01
1.652377e+02	-2.226449e+01
1.661921e+02	-2.231644e+01
1.671520e+02	-2.236637e+01
1.681175e+02	-2.241541e+01
1.690885e+02	-2.246558e+01
1.700651e+02	-2.251361e+01
1.710474e+02	-2.256393e+01
1.720354e+02	-2.261523e+01
1.730291e+02	-2.266334e+01
1.740285e+02	-2.271242e+01
1.750337e+02	-2.276509e+01
1.760446e+02	-2.281350e+01
1.770615e+02	-2.286316e+01
1.780842e+02	-2.291184e+01
1.791128e+02	-2.296329e+01
1.801473e+02	-2.301299e+01
1.811878e+02	-2.306323e+01
1.822344e+02	-2.311187e+01
1.832870e+02	-2.316052e+01
1.843456e+02	-2.321377e+01
1.854104e+02	-2.326146e+01
1.864813e+02	-2.331356e+01
1.875584e+02	-2.336298e+01
1.886418e+02	-2.340858e+01
1.897313e+02	-2.346123e+01
1.908272e+02	-2.351040e+01
1.919294e+02	-2.356048e+01
1.930380e+02	-2.360997e+01
1.941530e+02	-2.366138e+01
1.952744e+02	-2.371060e+01
1.964023e+02	-2.375982e+01
1.975367e+02	-2.381124e+01
1.986777e+02	-2.385604e+01
1.998252e+02	-2.390978e+01
2.009794e+02	-2.395931e+01
2.021403e+02	-2.400744e+01
2.033078e+02	-2.406002e+01
2.044821e+02	-2.410756e+01
2.056632e+02	-2.415677e+01
2.068511e+02	-2.420650e+01
2.080459e+02	-2.425866e+01
2.092475e+02	-2.430934e+01
2.104561e+02	-2.435669e+01
2.116717e+02	-2.440899e+01
2.128943e+02	-2.445596e+01
2.141240e+02	-2.450882e+01
2.153608e+02	-2.455841e+01
2.166047e+02	-2.460829e+01
2.178558e+02	-2.465859e+01
2.191141e+02	-2.470873e+01
2.203797e+02	-2.475862e+01
2.216526e+02	-2.480514e+01
2.229329e+02	-2.485650e+01
2.242205e+02	-2.490663e+01
2.255156e+02	-2.495358e+01
2.268182e+02	-2.500603e+01
2.281283e+02	-2.505580e+01
2.294459e+02	-2.510747e+01
2.307712e+02	-2.515416e+01
2.321041e+02	-2.520516e+01
2.334447e+02	-2.525669e+01
2.347931e+02	-2.530460e+01
2.361493e+02	-2.535610e+01
2.375133e+02	-2.540607e+01
2.388851e+02	-2.545650e+01
2.402649e+02	-2.550323e+01
2.416527e+02	-2.555316e+01
2.430484e+02	-2.560789e+01
2.444523e+02	-2.565510e+01
2.458642e+02	-2.570627e+01
2.472843e+02	-2.575410e+01
2.487126e+02	-2.580250e+01
2.501492e+02	-2.585720e+01
2.515940e+02	-2.590468e+01
2.530472e+02	-2.595485e+01
2.545088e+02	-2.600354e+01
2.559789e+02	-2.605481e+01
2.574574e+02	-2.610378e+01
2.589444e+02	-2.615489e+01
2.604401e+02	-2.620286e+01
2.619444e+02	-2.625477e+01
2.634574e+02	-2.630772e+01
2.649791e+02	-2.635229e+01
2.665096e+02	-2.640307e+01
2.680489e+02	-2.645752e+01
2.695972e+02	-2.650555e+01
2.711544e+02	-2.655524e+01
2.727205e+02	-2.660247e+01
2.742958e+02	-2.665559e+01
2.758801e+02	-2.670614e+01
2.774736e+02	-2.675190e+01
2.790762e+02	-2.680846e+01
2.806882e+02	-2.685800e+01
2.823094e+02	-2.690490e+01
2.839400e+02	-2.695341e+01
2.855800e+02	-2.700706e+01
2.872295e+02	-2.705515e+01
2.888886e+02	-2.710346e+01
2.905572e+02	-2.714884e+01
2.922354e+02	-2.720428e+01
2.939234e+02	-2.725431e+01
2.956211e+02	-2.730061e+01
2.973286e+02	-2.735123e+01
2.990459e+02	-2.740401e+01
3.007732e+02	-2.745634e+01
3.025104e+02	-2.750152e+01
3.042577e+02	-2.755870e+01
3.060151e+02	-2.760362e+01
3.077826e+02	-2.765418e+01
3.095604e+02	-2.770029e+01
3.113484e+02	-2.775555e+01
3.131467e+02	-2.780376e+01
3.149554e+02	-2.785629e+01
3.167746e+02	-2.790789e+01
3.186043e+02	-2.795365e+01
3.204445e+02	-2.800830e+01
3.222954e+02	-2.805446e+01
3.241570e+02	-2.810428e+01
3.260293e+02	-2.815301e+01
3.279124e+02	-2.820794e+01
3.298064e+02	-2.825529e+01
3.317114e+02	-2.830263e+01
3.336273e+02	-2.835410e+01
3.355544e+02	-2.840355e+01
3.374925e+02	-2.845524e+01
3.394418e+02	-2.850510e+01
3.414024e+02	-2.856121e+01
3.433744e+02	-2.860554e+01
3.453577e+02	-2.865502e+01
3.473525e+02	-2.870696e+01
3.493588e+02	-2.875744e+01
3.513766e+02	-2.880585e+01
3.534062e+02	-2.885730e+01
3.554474e+02	-2.890512e+01
3.575005e+02	-2.895242e+01
3.595654e+02	-2.900466e+01
3.616422e+02	-2.905911e+01
3.637311e+02	-2.910784e+01
3.658320e+02	-2.915473e+01
3.679450e+02	-2.920656e+01
3.700702e+02	-2.925685e+01
3.722077e+02	-2.930963e+01
3.743576e+02	-2.935714e+01
3.765199e+02	-2.940640e+01
3.786946e+02	-2.945643e+01
3.808820e+02	-2.950679e+01
3.830819e+02	-2.955509e+01
3.852946e+02	-2.960866e+01
3.875200e+02	-2.965808e+01
3.897583e+02	-2.971010e+01
3.920096e+02	-2.975330e+01
3.942738e+02	-2.980619e+01
3.965511e+02	-2.985908e+01
3.988416e+02	-2.990285e+01
4.011452e+02	-2.995549e+01
4.034622e+02	-3.001121e+01
4.057926e+02	-3.006250e+01
4.081365e+02	-3.010238e+01
4.104938e+02	-3.015601e+01
4.128648e+02	-3.020693e+01
4.152495e+02	-3.025697e+01
4.176480e+02	-3.030964e+01
4.200603e+02	-3.035866e+01
4.224866e+02	-3.040815e+01
4.249268e+02	-3.046118e+01
4.273812e+02	-3.050889e+01
4.298497e+02	-3.056033e+01
4.323325e+02	-3.061119e+01
4.348297e+02	-3.066057e+01
4.373412e+02	-3.071134e+01
4.398673e+02	-3.075712e+01
4.424079e+02	-3.080963e+01
4.449633e+02	-3.085789e+01
4.475334e+02	-3.091112e+01
4.501183e+02	-3.095627e+01
4.527182e+02	-3.100830e+01
4.553330e+02	-3.106479e+01
4.579630e+02	-3.110970e+01
4.606082e+02	-3.116275e+01
4.632687e+02	-3.120802e+01
4.659445e+02	-3.125882e+01
4.686358e+02	-3.130937e+01
4.713426e+02	-3.136157e+01
4.740650e+02	-3.141570e+01
4.768032e+02	-3.146464e+01
4.795572e+02	-3.151349e+01
4.823271e+02	-3.156075e+01
4.851130e+02	-3.161826e+01
4.879150e+02	-3.166397e+01
4.907332e+02	-3.170830e+01
4.935676e+02	-3.176341e+01
4.964185e+02	-3.181028e+01
4.992858e+02	-3.186012e+01
5.021696e+02	-3.190926e+01
5.050701e+02	-3.196056e+01
5.079874e+02	-3.201401e+01
5.109215e+02	-3.206076e+01
5.138726e+02	-3.211857e+01
5.168407e+02	-3.216300e+01
5.198259e+02	-3.221237e+01
5.228284e+02	-3.226952e+01
5.258482e+02	-3.231236e+01
5.288855e+02	-3.236453e+01
5.319403e+02	-3.241440e+01
5.350128e+02	-3.246389e+01
5.381030e+02	-3.251214e+01
5.412111e+02	-3.256231e+01
5.443371e+02	-3.261379e+01
5.474812e+02	-3.266616e+01
5.506434e+02	-3.271619e+01
5.538239e+02	-3.276453e+01
5.570228e+02	-3.281405e+01
5.602401e+02	-3.286568e+01
5.634760e+02	-3.290780e+01
5.667306e+02	-3.296636e+01
5.700040e+02	-3.302429e+01
5.732964e+02	-3.306289e+01
5.766077e+02	-3.311499e+01
5.799382e+02	-3.316701e+01
5.832879e+02	-3.321661e+01
5.866569e+02	-3.326877e+01
5.900454e+02	-3.332647e+01
5.934535e+02	-3.337116e+01
5.968813e+02	-3.342779e+01
6.003288e+02	-3.347255e+01
6.037963e+02	-3.352068e+01
6.072838e+02	-3.357068e+01
6.107914e+02	-3.362007e+01
6.143194e+02	-3.367585e+01
6.178676e+02	-3.371946e+01
6.214364e+02	-3.377083e+01
6.250258e+02	-3.382014e+01
6.286359e+02	-3.387119e+01
6.322669e+02	-3.392216e+01
6.359189e+02	-3.397586e+01
6.395919e+02	-3.402343e+01
6.432862e+02	-3.406956e+01
6.470017e+02	-3.412716e+01
6.507388e+02	-3.417574e+01
6.544974e+02	-3.421998e+01
6.582778e+02	-3.427316e+01
6.620800e+02	-3.432458e+01
6.659041e+02	-3.437204e+01
6.697504e+02	-3.442431e+01
6.736188e+02	-3.447425e+01
6.775096e+02	-3.453688e+01
6.814229e+02	-3.457876e+01
6.853587e+02	-3.462303e+01
6.893173e+02	-3.467279e+01
6.932988e+02	-3.473033e+01
6.973033e+02	-3.476961e+01
7.013309e+02	-3.482377e+01
