Frequency(Hz)	Magnitude(dB)
1.000000e+01	-2.129783e+00
1.005776e+01	-2.149115e+00
1.011585e+01	-2.168643e+00
1.017428e+01	-2.188612e+00
1.023305e+01	-2.208190e+00
1.029215e+01	-2.228529e+00
1.035160e+01	-2.248477e+00
1.041139e+01	-2.268972e+00
1.047153e+01	-2.289415e+00
1.053201e+01	-2.309879e+00
1.059284e+01	-2.330583e+00
1.065403e+01	-2.351336e+00
1.071556e+01	-2.372321e+00
1.077746e+01	-2.393394e+00
1.083971e+01	-2.414604e+00
1.090232e+01	-2.436071e+00
1.096529e+01	-2.457680e+00
1.102862e+01	-2.479467e+00
1.109232e+01	-2.501114e+00
1.115639e+01	-2.523062e+00
1.122083e+01	-2.545394e+00
1.128564e+01	-2.567540e+00
1.135083e+01	-2.590169e+00
1.141639e+01	-2.612547e+00
1.148233e+01	-2.635414e+00
1.154865e+01	-2.658114e+00
1.161536e+01	-2.681225e+00
1.168245e+01	-2.704303e+00
1.174992e+01	-2.727227e+00
1.181779e+01	-2.750633e+00
1.188605e+01	-2.774267e+00
1.195470e+01	-2.798253e+00
1.202375e+01	-2.821904e+00
1.209320e+01	-2.845888e+00
1.216305e+01	-2.869758e+00
1.223330e+01	-2.894343e+00
1.230396e+01	-2.918536e+00
1.237503e+01	-2.943022e+00
1.244651e+01	-2.968056e+00
1.251840e+01	-2.992672e+00
1.259070e+01	-3.017927e+00
1.266343e+01	-3.042676e+00
1.273657e+01	-3.067947e+00
1.281014e+01	-3.093605e+00
1.288413e+01	-3.118934e+00
1.295855e+01	-3.144745e+00
1.303339e+01	-3.170486e+00
1.310867e+01	-3.196612e+00
1.318439e+01	-3.222591e+00
1.326054e+01	-3.248994e+00
1.333713e+01	-3.275286e+00
1.341417e+01	-3.302047e+00
1.349165e+01	-3.328773e+00
1.356958e+01	-3.355647e+00
1.364795e+01	-3.382561e+00
1.372678e+01	-3.409680e+00
1.380607e+01	-3.437216e+00
1.388581e+01	-3.464443e+00
1.396602e+01	-3.492021e+00
1.404668e+01	-3.519701e+00
1.412782e+01	-3.547742e+00
1.420942e+01	-3.575606e+00
1.429149e+01	-3.603774e+00
1.437404e+01	-3.631759e+00
1.445706e+01	-3.660314e+00
1.454057e+01	-3.689012e+00
1.462455e+01	-3.717452e+00
1.470902e+01	-3.746493e+00
1.479398e+01	-3.775743e+00
1.487943e+01	-3.804487e+00
1.496537e+01	-3.833796e+00
1.505181e+01	-3.863220e+00
1.513875e+01	-3.892739e+00
1.522619e+01	-3.922344e+00
1.531414e+01	-3.952065e+00
1.540259e+01	-3.982166e+00
1.549156e+01	-4.012419e+00
1.558103e+01	-4.042742e+00
1.567103e+01	-4.073014e+00
1.576155e+01	-4.103531e+00
1.585258e+01	-4.134259e+00
1.594415e+01	-4.164888e+00
1.603624e+01	-4.195802e+00
1.612886e+01	-4.226924e+00
1.622202e+01	-4.258153e+00
1.631572e+01	-4.289303e+00
1.640996e+01	-4.320734e+00
1.650474e+01	-4.352350e+00
1.660008e+01	-4.384159e+00
1.669596e+01	-4.416150e+00
1.679239e+01	-4.447760e+00
1.688938e+01	-4.480008e+00
1.698694e+01	-4.512297e+00
1.708505e+01	-4.544651e+00
1.718373e+01	-4.577486e+00
1.728299e+01	-4.610084e+00
1.738281e+01	-4.642546e+00
1.748322e+01	-4.675565e+00
1.758420e+01	-4.708800e+00
1.768576e+01	-4.741568e+00
1.778792e+01	-4.775333e+00
1.789066e+01	-4.808708e+00
1.799399e+01	-4.842142e+00
1.809793e+01	-4.875841e+00
1.820246e+01	-4.909815e+00
1.830760e+01	-4.943529e+00
1.841334e+01	-4.977733e+00
1.851969e+01	-5.011799e+00
1.862666e+01	-5.046194e+00
1.873425e+01	-5.080593e+00
1.884246e+01	-5.115385e+00
1.895129e+01	-5.149734e+00
1.906075e+01	-5.184625e+00
1.917085e+01	-5.219609e+00
1.928158e+01	-5.254688e+00
1.939295e+01	-5.289685e+00
1.950496e+01	-5.324764e+00
1.961762e+01	-5.360477e+00
1.973093e+01	-5.395995e+00
1.984490e+01	-5.431842e+00
1.995952e+01	-5.467563e+00
2.007480e+01	-5.503173e+00
2.019076e+01	-5.539243e+00
2.030738e+01	-5.575545e+00
2.042467e+01	-5.611873e+00
2.054264e+01	-5.648169e+00
2.066130e+01	-5.684408e+00
2.078064e+01	-5.720670e+00
2.090066e+01	-5.757690e+00
2.102139e+01	-5.794126e+00
2.114280e+01	-5.831458e+00
2.126492e+01	-5.868330e+00
2.138775e+01	-5.905402e+00
2.151128e+01	-5.942346e+00
2.163553e+01	-5.980182e+00
2.176050e+01	-6.017920e+00
2.188619e+01	-6.054883e+00
2.201260e+01	-6.092833e+00
2.213974e+01	-6.130542e+00
2.226762e+01	-6.168543e+00
2.239624e+01	-6.206472e+00
2.252560e+01	-6.244258e+00
2.265571e+01	-6.282834e+00
2.278656e+01	-6.320808e+00
2.291818e+01	-6.359215e+00
2.305055e+01	-6.397886e+00
2.318369e+01	-6.436548e+00
2.331760e+01	-6.474908e+00
2.345228e+01	-6.513815e+00
2.358774e+01	-6.552763e+00
2.372398e+01	-6.591740e+00
2.386101e+01	-6.631601e+00
2.399883e+01	-6.670272e+00
2.413745e+01	-6.709805e+00
2.427686e+01	-6.748947e+00
2.441709e+01	-6.788409e+00
2.455812e+01	-6.828173e+00
2.469997e+01	-6.867931e+00
2.484263e+01	-6.907429e+00
2.498612e+01	-6.947823e+00
2.513044e+01	-6.987445e+00
2.527559e+01	-7.027364e+00
2.542158e+01	-7.067912e+00
2.556842e+01	-7.107826e+00
2.571610e+01	-7.148148e+00
2.586463e+01	-7.188775e+00
2.601403e+01	-7.229151e+00
2.616428e+01	-7.269824e+00
2.631541e+01	-7.310701e+00
2.646740e+01	-7.351015e+00
2.662028e+01	-7.392022e+00
2.677404e+01	-7.432727e+00
2.692868e+01	-7.474353e+00
2.708422e+01	-7.515113e+00
2.724066e+01	-7.556568e+00
2.739800e+01	-7.597569e+00
2.755625e+01	-7.639202e+00
2.771541e+01	-7.680416e+00
2.787550e+01	-7.722078e+00
2.803650e+01	-7.763619e+00
2.819844e+01	-7.805117e+00
2.836131e+01	-7.847265e+00
2.852513e+01	-7.888915e+00
2.868989e+01	-7.931181e+00
2.885560e+01	-7.973122e+00
2.902227e+01	-8.014790e+00
2.918990e+01	-8.057402e+00
2.935850e+01	-8.099431e+00
2.952807e+01	-8.141947e+00
2.969863e+01	-8.183900e+00
2.987016e+01	-8.226773e+00
3.004269e+01	-8.269038e+00
3.021622e+01	-8.311974e+00
3.039075e+01	-8.353993e+00
3.056628e+01	-8.397075e+00
3.074283e+01	-8.439972e+00
3.092040e+01	-8.482833e+00
3.109900e+01	-8.526164e+00
3.127862e+01	-8.569218e+00
3.145929e+01	-8.612282e+00
3.164099e+01	-8.655063e+00
3.182375e+01	-8.698823e+00
3.200756e+01	-8.741575e+00
3.219244e+01	-8.785335e+00
3.237838e+01	-8.828324e+00
3.256540e+01	-8.872279e+00
3.275349e+01	-8.915703e+00
3.294268e+01	-8.959156e+00
3.313295e+01	-9.003205e+00
3.332433e+01	-9.046816e+00
3.351681e+01	-9.090308e+00
3.371040e+01	-9.134496e+00
3.390511e+01	-9.178236e+00
3.410094e+01	-9.222410e+00
3.429791e+01	-9.266297e+00
3.449601e+01	-9.310377e+00
3.469526e+01	-9.354731e+00
3.489566e+01	-9.399155e+00
3.509721e+01	-9.443630e+00
3.529993e+01	-9.487442e+00
3.550382e+01	-9.532223e+00
3.570889e+01	-9.576510e+00
3.591515e+01	-9.621287e+00
3.612259e+01	-9.665559e+00
3.633123e+01	-9.709939e+00
3.654108e+01	-9.755569e+00
3.675214e+01	-9.799757e+00
3.696442e+01	-9.844904e+00
3.717792e+01	-9.889602e+00
3.739266e+01	-9.934536e+00
3.760864e+01	-9.979516e+00
3.782587e+01	-1.002416e+01
3.804435e+01	-1.006997e+01
3.826409e+01	-1.011461e+01
3.848510e+01	-1.015963e+01
3.870739e+01	-1.020506e+01
3.893096e+01	-1.025009e+01
3.915583e+01	-1.029555e+01
3.938199e+01	-1.034080e+01
3.960946e+01	-1.038654e+01
3.983824e+01	-1.043155e+01
4.006834e+01	-1.047747e+01
4.029978e+01	-1.052279e+01
4.053255e+01	-1.056903e+01
4.076666e+01	-1.061447e+01
4.100213e+01	-1.066031e+01
4.123896e+01	-1.070612e+01
4.147715e+01	-1.075148e+01
4.171672e+01	-1.079750e+01
4.195767e+01	-1.084353e+01
4.220002e+01	-1.088866e+01
4.244377e+01	-1.093543e+01
4.268892e+01	-1.098168e+01
4.293549e+01	-1.102776e+01
4.318348e+01	-1.107281e+01
4.343291e+01	-1.111906e+01
4.368377e+01	-1.116598e+01
4.393609e+01	-1.121192e+01
4.418986e+01	-1.125802e+01
4.444510e+01	-1.130443e+01
4.470182e+01	-1.135060e+01
4.496001e+01	-1.139726e+01
4.521970e+01	-1.144400e+01
4.548089e+01	-1.149017e+01
4.574358e+01	-1.153683e+01
4.600779e+01	-1.158311e+01
4.627353e+01	-1.162923e+01
4.654081e+01	-1.167646e+01
4.680963e+01	-1.172340e+01
4.708000e+01	-1.176918e+01
4.735193e+01	-1.181577e+01
4.762543e+01	-1.186336e+01
4.790051e+01	-1.190926e+01
4.817719e+01	-1.195715e+01
4.845545e+01	-1.200396e+01
4.873533e+01	-1.205067e+01
4.901682e+01	-1.209759e+01
4.929994e+01	-1.214394e+01
4.958470e+01	-1.219081e+01
4.987110e+01	-1.223857e+01
5.015915e+01	-1.228494e+01
5.044887e+01	-1.233208e+01
5.074026e+01	-1.237993e+01
5.103333e+01	-1.242785e+01
5.132810e+01	-1.247332e+01
5.162457e+01	-1.252161e+01
5.192275e+01	-1.256849e+01
5.222265e+01	-1.261620e+01
5.252429e+01	-1.266344e+01
5.282767e+01	-1.271072e+01
5.313280e+01	-1.275804e+01
5.343969e+01	-1.280474e+01
5.374836e+01	-1.285308e+01
5.405880e+01	-1.290030e+01
5.437105e+01	-1.294810e+01
5.468509e+01	-1.299553e+01
5.500095e+01	-1.304258e+01
5.531863e+01	-1.308968e+01
5.563815e+01	-1.313803e+01
5.595951e+01	-1.318563e+01
5.628273e+01	-1.323308e+01
5.660782e+01	-1.328058e+01
5.693479e+01	-1.332882e+01
5.726364e+01	-1.337600e+01
5.759439e+01	-1.342417e+01
5.792705e+01	-1.347116e+01
5.826164e+01	-1.351951e+01
5.859815e+01	-1.356634e+01
5.893662e+01	-1.361530e+01
5.927703e+01	-1.366315e+01
5.961941e+01	-1.371011e+01
5.996377e+01	-1.375827e+01
6.031012e+01	-1.380690e+01
6.065847e+01	-1.385408e+01
6.100883e+01	-1.390249e+01
6.136121e+01	-1.395044e+01
6.171563e+01	-1.399799e+01
6.207210e+01	-1.404660e+01
6.243063e+01	-1.409506e+01
6.279122e+01	-1.414236e+01
6.315390e+01	-1.419044e+01
6.351868e+01	-1.423859e+01
6.388556e+01	-1.428703e+01
6.425456e+01	-1.433614e+01
6.462569e+01	-1.438312e+01
6.499897e+01	-1.443110e+01
6.537440e+01	-1.447950e+01
6.575200e+01	-1.452824e+01
6.613178e+01	-1.457673e+01
6.651375e+01	-1.462454e+01
6.689793e+01	-1.467285e+01
6.728433e+01	-1.472090e+01
6.767297e+01	-1.476995e+01
6.806384e+01	-1.481843e+01
6.845698e+01	-1.486649e+01
6.885238e+01	-1.491545e+01
6.925007e+01	-1.496389e+01
6.965005e+01	-1.501103e+01
7.005235e+01	-1.506034e+01
7.045697e+01	-1.510765e+01
7.086393e+01	-1.515694e+01
7.127323e+01	-1.520586e+01
7.168490e+01	-1.525431e+01
7.209895e+01	-1.530308e+01
7.251539e+01	-1.535161e+01
7.293424e+01	-1.540020e+01
7.335551e+01	-1.544880e+01
7.377920e+01	-1.549645e+01
7.420535e+01	-1.554610e+01
7.463396e+01	-1.559445e+01
7.506504e+01	-1.564221e+01
7.549861e+01	-1.569056e+01
7.593469e+01	-1.574044e+01
7.637328e+01	-1.578906e+01
7.681441e+01	-1.583820e+01
7.725809e+01	-1.588652e+01
7.770433e+01	-1.593548e+01
7.815315e+01	-1.598418e+01
7.860456e+01	-1.603274e+01
7.905857e+01	-1.608229e+01
7.951521e+01	-1.613060e+01
7.997449e+01	-1.617997e+01
8.043642e+01	-1.622830e+01
8.090102e+01	-1.627612e+01
8.136830e+01	-1.632579e+01
8.183828e+01	-1.637433e+01
8.231097e+01	-1.642325e+01
8.278640e+01	-1.647342e+01
8.326457e+01	-1.652248e+01
8.374550e+01	-1.657100e+01
8.422921e+01	-1.661992e+01
8.471572e+01	-1.666849e+01
8.520503e+01	-1.671598e+01
8.569717e+01	-1.676600e+01
8.619215e+01	-1.681476e+01
8.669000e+01	-1.686406e+01
8.719071e+01	-1.691244e+01
8.769432e+01	-1.696158e+01
8.820084e+01	-1.701167e+01
8.871029e+01	-1.706067e+01
8.922267e+01	-1.710920e+01
8.973802e+01	-1.715799e+01
9.025634e+01	-1.720775e+01
9.077766e+01	-1.725573e+01
9.130199e+01	-1.730508e+01
9.182935e+01	-1.735521e+01
9.235975e+01	-1.740331e+01
9.289321e+01	-1.745330e+01
9.342976e+01	-1.750162e+01
9.396941e+01	-1.755050e+01
9.451217e+01	-1.760039e+01
9.505807e+01	-1.765043e+01
9.560712e+01	-1.769854e+01
9.615934e+01	-1.774816e+01
9.671476e+01	-1.779688e+01
9.727338e+01	-1.784574e+01
9.783522e+01	-1.789517e+01
9.840032e+01	-1.794487e+01
9.896867e+01	-1.799290e+01
9.954031e+01	-1.804256e+01
1.001153e+02	-1.809188e+01
1.006935e+02	-1.814193e+01
1.012751e+02	-1.819090e+01
1.018601e+02	-1.824094e+01
1.024484e+02	-1.829010e+01
1.030402e+02	-1.833904e+01
1.036353e+02	-1.838685e+01
1.042339e+02	-1.843724e+01
1.048360e+02	-1.848694e+01
1.054415e+02	-1.853648e+01
1.060505e+02	-1.858502e+01
1.066631e+02	-1.863491e+01
1.072791e+02	-1.868448e+01
1.078988e+02	-1.873401e+01
1.085220e+02	-1.878148e+01
1.091488e+02	-1.883142e+01
1.097793e+02	-1.888249e+01
1.104133e+02	-1.893165e+01
1.110511e+02	-1.898038e+01
1.116925e+02	-1.902899e+01
1.123376e+02	-1.907836e+01
1.129865e+02	-1.912889e+01
1.136391e+02	-1.917770e+01
1.142955e+02	-1.922600e+01
1.149556e+02	-1.927679e+01
1.156196e+02	-1.932539e+01
1.162874e+02	-1.937677e+01
1.169591e+02	-1.942677e+01
1.176347e+02	-1.947555e+01
1.183141e+02	-1.952266e+01
1.189975e+02	-1.957286e+01
1.196848e+02	-1.962273e+01
1.203761e+02	-1.967347e+01
1.210714e+02	-1.972188e+01
1.217707e+02	-1.977069e+01
1.224740e+02	-1.982046e+01
1.231814e+02	-1.987106e+01
1.238929e+02	-1.992226e+01
1.246085e+02	-1.996918e+01
1.253283e+02	-2.001888e+01
1.260522e+02	-2.006847e+01
1.267802e+02	-2.011851e+01
1.275125e+02	-2.016901e+01
1.282490e+02	-2.021767e+01
1.289898e+02	-2.026810e+01
1.297348e+02	-2.031593e+01
1.304842e+02	-2.036555e+01
1.312378e+02	-2.041646e+01
1.319959e+02	-2.046511e+01
1.327583e+02	-2.051457e+01
1.335251e+02	-2.056411e+01
1.342963e+02	-2.061455e+01
1.350720e+02	-2.066379e+01
1.358522e+02	-2.071395e+01
1.366368e+02	-2.076168e+01
1.374260e+02	-2.081163e+01
1.382198e+02	-2.086058e+01
1.390182e+02	-2.091169e+01
1.398211e+02	-2.096260e+01
1.406287e+02	-2.101137e+01
1.414410e+02	-2.106017e+01
1.422579e+02	-2.110924e+01
1.430796e+02	-2.116025e+01
1.439060e+02	-2.120960e+01
1.447372e+02	-2.125906e+01
1.455732e+02	-2.130992e+01
1.464141e+02	-2.135738e+01
1.472597e+02	-2.141011e+01
1.481103e+02	-2.145868e+01
1.489658e+02	-2.150699e+01
1.498262e+02	-2.155750e+01
1.506916e+02	-2.160728e+01
1.515620e+02	-2.165740e+01
1.524374e+02	-2.170659e+01
1.533179e+02	-2.175449e+01
1.542034e+02	-2.180625e+01
1.550941e+02	-2.185405e+01
1.559899e+02	-2.190554e+01
1.568909e+02	-2.195554e+01
1.577971e+02	-2.200428e+01
1.587085e+02	-2.205519e+01
1.596252e+02	-2.210611e+01
1.605472e+02	-2.215476e+01
1.614745e+02	-2.220511e+01
1.624072e+02	-2.225403e+01
1.633453e+02	-2.230342e+01
1.642887e+02	-2.235201e+01
1.652377e+02	-2.240246e+01
1.661921e+02	-2.245317e+01
1.671520e+02	-2.250214e+01
1.681175e+02	-2.255273e+01
1.690885e+02	-2.260072e+01
1.700651e+02	-2.265318e+01
1.710474e+02	-2.270261e+01
1.720354e+02	-2.275212e+01
1.730291e+02	-2.280261e+01
1.740285e+02	-2.285408e+01
1.750337e+02	-2.290147e+01
1.760446e+02	-2.295110e+01
1.770615e+02	-2.299870e+01
1.780842e+02	-2.305060e+01
1.791128e+02	-2.309993e+01
1.801473e+02	-2.315006e+01
1.811878e+02	-2.320109e+01
1.822344e+02	-2.324974e+01
1.832870e+02	-2.329930e+01
1.843456e+02	-2.334831e+01
1.854104e+02	-2.339857e+01
1.864813e+02	-2.344618e+01
1.875584e+02	-2.349840e+01
1.886418e+02	-2.355148e+01
1.897313e+02	-2.359710e+01
1.908272e+02	-2.364581e+01
1.919294e+02	-2.369758e+01
1.930380e+02	-2.374731e+01
1.941530e+02	-2.379457e+01
1.952744e+02	-2.384853e+01
1.964023e+02	-2.389376e+01
1.975367e+02	-2.394948e+01
1.986777e+02	-2.399583e+01
1.998252e+02	-2.404415e+01
2.009794e+02	-2.409515e+01
2.021403e+02	-2.414684e+01
2.033078e+02	-2.419765e+01
2.044821e+02	-2.424801e+01
2.056632e+02	-2.429742e+01
2.068511e+02	-2.434798e+01
2.080459e+02	-2.439745e+01
2.092475e+02	-2.444687e+01
2.104561e+02	-2.449701e+01
2.116717e+02	-2.454741e+01
2.128943e+02	-2.459658e+01
2.141240e+02	-2.464482e+01
2.153608e+02	-2.469655e+01
2.166047e+02	-2.474603e+01
2.178558e+02	-2.479823e+01
2.191141e+02	-2.484610e+01
2.203797e+02	-2.489393e+01
2.216526e+02	-2.494651e+01
2.229329e+02	-2.499535e+01
2.242205e+02	-2.504408e+01
2.255156e+02	-2.509399e+01
2.268182e+02	-2.514742e+01
2.281283e+02	-2.519476e+01
2.294459e+02	-2.524449e+01
2.307712e+02	-2.529464e+01
2.321041e+02	-2.534459e+01
2.334447e+02	-2.539495e+01
2.347931e+02	-2.544384e+01
2.361493e+02	-2.549341e+01
2.375133e+02	-2.554335e+01
2.388851e+02	-2.559276e+01
2.402649e+02	-2.564373e+01
2.416527e+02	-2.569522e+01
2.430484e+02	-2.574288e+01
2.444523e+02	-2.579602e+01
2.458642e+02	-2.584402e+01
2.472843e+02	-2.589320e+01
2.487126e+02	-2.594231e+01
2.501492e+02	-2.599201e+01
2.515940e+02	-2.604470e+01
2.530472e+02	-2.609536e+01
2.545088e+02	-2.614435e+01
2.559789e+02	-2.619343e+01
2.574574e+02	-2.624817e+01
2.589444e+02	-2.629280e+01
2.604401e+02	-2.634593e+01
2.619444e+02	-2.639208e+01
2.634574e+02	-2.644551e+01
2.649791e+02	-2.649429e+01
2.665096e+02	-2.653821e+01
2.680489e+02	-2.659623e+01
2.695972e+02	-2.664381e+01
2.711544e+02	-2.669312e+01
2.727205e+02	-2.673837e+01
2.742958e+02	-2.679302e+01
2.758801e+02	-2.684199e+01
2.774736e+02	-2.689326e+01
2.790762e+02	-2.694246e+01
2.806882e+02	-2.699219e+01
2.823094e+02	-2.704479e+01
2.839400e+02	-2.709283e+01
2.855800e+02	-2.714449e+01
2.872295e+02	-2.718957e+01
2.888886e+02	-2.724619e+01
2.905572e+02	-2.729517e+01
2.922354e+02	-2.734444e+01
2.939234e+02	-2.739484e+01
2.956211e+02	-2.744446e+01
2.973286e+02	-2.749242e+01
2.990459e+02	-2.754499e+01
3.007732e+02	-2.759408e+01
3.025104e+02	-2.764292e+01
3.042577e+02	-2.769086e+01
3.060151e+02	-2.774432e+01
3.077826e+02	-2.779277e+01
3.095604e+02	-2.784301e+01
3.113484e+02	-2.789416e+01
3.131467e+02	-2.794467e+01
3.149554e+02	-2.799387e+01
3.167746e+02	-2.804327e+01
3.186043e+02	-2.809390e+01
3.204445e+02	-2.814144e+01
3.222954e+02	-2.819743e+01
3.241570e+02	-2.824197e+01
3.260293e+02	-2.829084e+01
3.279124e+02	-2.834534e+01
3.298064e+02	-2.839001e+01
3.317114e+02	-2.844258e+01
3.336273e+02	-2.849076e+01
3.355544e+02	-2.854281e+01
3.374925e+02	-2.859259e+01
3.394418e+02	-2.864359e+01
3.414024e+02	-2.868658e+01
3.433744e+02	-2.874479e+01
3.453577e+02	-2.879453e+01
3.473525e+02	-2.884369e+01
3.493588e+02	-2.889225e+01
3.513766e+02	-2.894933e+01
3.534062e+02	-2.899333e+01
3.554474e+02	-2.904262e+01
3.575005e+02	-2.909739e+01
3.595654e+02	-2.913746e+01
3.616422e+02	-2.918903e+01
3.637311e+02	-2.924245e+01
3.658320e+02	-2.930177e+01
3.679450e+02	-2.934241e+01
3.700702e+02	-2.939227e+01
3.722077e+02	-2.944465e+01
3.743576e+02	-2.949506e+01
3.765199e+02	-2.954250e+01
3.786946e+02	-2.959284e+01
3.808820e+02	-2.964676e+01
3.830819e+02	-2.969549e+01
3.852946e+02	-2.974751e+01
3.875200e+02	-2.979600e+01
3.897583e+02	-2.984209e+01
3.920096e+02	-2.989390e+01
3.942738e+02	-2.994859e+01
3.965511e+02	-2.999685e+01
3.988416e+02	-3.004551e+01
4.011452e+02	-3.009414e+01
4.034622e+02	-3.014665e+01
4.057926e+02	-3.020072e+01
4.081365e+02	-3.024751e+01
4.104938e+02	-3.029486e+01
4.128648e+02	-3.034499e+01
4.152495e+02	-3.039533e+01
4.176480e+02	-3.044366e+01
4.200603e+02	-3.049468e+01
4.224866e+02	-3.054551e+01
4.249268e+02	-3.059470e+01
4.273812e+02	-3.064732e+01
4.298497e+02	-3.069658e+01
4.323325e+02	-3.074428e+01
4.348297e+02	-3.079795e+01
4.373412e+02	-3.084985e+01
4.398673e+02	-3.090075e+01
4.424079e+02	-3.095250e+01
4.449633e+02	-3.100235e+01
4.475334e+02	-3.104515e+01
4.501183e+02	-3.110483e+01
4.527182e+02	-3.114756e+01
4.553330e+02	-3.119611e+01
4.579630e+02	-3.124693e+01
4.606082e+02	-3.129424e+01
4.632687e+02	-3.135313e+01
4.659445e+02	-3.140192e+01
4.686358e+02	-3.144533e+01
4.713426e+02	-3.149558e+01
4.740650e+02	-3.155336e+01
4.768032e+02	-3.159961e+01
4.795572e+02	-3.165175e+01
4.823271e+02	-3.169788e+01
4.851130e+02	-3.175224e+01
4.879150e+02	-3.180438e+01
4.907332e+02	-3.185679e+01
4.935676e+02	-3.189626e+01
4.964185e+02	-3.194779e+01
4.992858e+02	-3.199994e+01
5.021696e+02	-3.205096e+01
5.050701e+02	-3.210717e+01
5.079874e+02	-3.215106e+01
5.109215e+02	-3.220211e+01
5.138726e+02	-3.224972e+01
5.168407e+02	-3.230136e+01
5.198259e+02	-3.235789e+01
5.228284e+02	-3.239506e+01
5.258482e+02	-3.245340e+01
5.288855e+02	-3.250051e+01
5.319403e+02	-3.255522e+01
5.350128e+02	-3.259982e+01
5.381030e+02	-3.265714e+01
5.412111e+02	-3.270874e+01
5.443371e+02	-3.274919e+01
5.474812e+02	-3.280548e+01
5.506434e+02	-3.285643e+01
5.538239e+02	-3.290622e+01
5.570228e+02	-3.295799e+01
5.602401e+02	-3.301004e+01
5.634760e+02	-3.305177e+01
5.667306e+02	-3.310001e+01
5.700040e+02	-3.315618e+01
5.732964e+02	-3.321812e+01
5.766077e+02	-3.325469e+01
5.799382e+02	-3.330975e+01
5.832879e+02	-3.336451e+01
5.866569e+02	-3.340377e+01
5.900454e+02	-3.346632e+01
5.934535e+02	-3.351286e+01
5.968813e+02	-3.355565e+01
6.003288e+02	-3.360941e+01
6.037963e+02	-3.365903e+01
6.072838e+02	-3.372144e+01
6.107914e+02	-3.375996e+01
6.143194e+02	-3.381838e+01
6.178676e+02	-3.386301e+01
6.214364e+02	-3.391788e+01
6.250258e+02	-3.396546e+01
6.286359e+02	-3.401233e+01
6.322669e+02	-3.406099e+01
6.359189e+02	-3.411587e+01
6.395919e+02	-3.415844e+01
6.432862e+02	-3.421533e+01
6.470017e+02	-3.426577e+01
6.507388e+02	-3.431458e+01
6.544974e+02	-3.437032e+01
6.582778e+02	-3.442190e+01
6.620800e+02	-3.447026e+01
6.659041e+02	-3.452033e+01
6.697504e+02	-3.456906e+01
6.736188e+02	-3.462246e+01
6.775096e+02	-3.467372e+01
6.814229e+02	-3.470811e+01
6.853587e+02	-3.477125e+01
6.893173e+02	-3.481648e+01
6.932988e+02	-3.486576e+01
6.973033e+02	-3.492708e+01
7.013309e+02	-3.497077e+01
