Frequency(Hz)	Magnitude(dB)
1.000000e+01	-2.063353e+00
1.005776e+01	-2.082612e+00
1.011585e+01	-2.101633e+00
1.017428e+01	-2.120822e+00
1.023305e+01	-2.140267e+00
1.029215e+01	-2.159916e+00
1.035160e+01	-2.179471e+00
1.041139e+01	-2.199685e+00
1.047153e+01	-2.219219e+00
1.053201e+01	-2.239207e+00
1.059284e+01	-2.259596e+00
1.065403e+01	-2.279986e+00
1.071556e+01	-2.300455e+00
1.077746e+01	-2.321125e+00
1.083971e+01	-2.342001e+00
1.090232e+01	-2.362642e+00
1.096529e+01	-2.383855e+00
1.102862e+01	-2.405315e+00
1.109232e+01	-2.426381e+00
1.115639e+01	-2.448067e+00
1.122083e+01	-2.469426e+00
1.128564e+01	-2.491331e+00
1.135083e+01	-2.513459e+00
1.141639e+01	-2.535201e+00
1.148233e+01	-2.557589e+00
1.154865e+01	-2.579699e+00
1.161536e+01	-2.602353e+00
1.168245e+01	-2.625070e+00
1.174992e+01	-2.647532e+00
1.181779e+01	-2.670450e+00
1.188605e+01	-2.693644e+00
1.195470e+01	-2.716748e+00
1.202375e+01	-2.740236e+00
1.209320e+01	-2.763590e+00
1.216305e+01	-2.787189e+00
1.223330e+01	-2.810760e+00
1.230396e+01	-2.834853e+00
1.237503e+01	-2.858861e+00
1.244651e+01	-2.883153e+00
1.251840e+01	-2.907502e+00
1.259070e+01	-2.931890e+00
1.266343e+01	-2.956542e+00
1.273657e+01	-2.981160e+00
1.281014e+01	-3.006202e+00
1.288413e+01	-3.031293e+00
1.295855e+01	-3.056592e+00
1.303339e+01	-3.081765e+00
1.310867e+01	-3.107445e+00
1.318439e+01	-3.132860e+00
1.326054e+01	-3.158650e+00
1.333713e+01	-3.184817e+00
1.341417e+01	-3.210716e+00
1.349165e+01	-3.236933e+00
1.356958e+01	-3.263642e+00
1.364795e+01	-3.289828e+00
1.372678e+01	-3.316232e+00
1.380607e+01	-3.343124e+00
1.388581e+01	-3.370130e+00
1.396602e+01	-3.397405e+00
1.404668e+01	-3.424682e+00
1.412782e+01	-3.451971e+00
1.420942e+01	-3.479272e+00
1.429149e+01	-3.506836e+00
1.437404e+01	-3.534768e+00
1.445706e+01	-3.562798e+00
1.454057e+01	-3.590739e+00
1.462455e+01	-3.619105e+00
1.470902e+01	-3.647432e+00
1.479398e+01	-3.675865e+00
1.487943e+01	-3.704826e+00
1.496537e+01	-3.733070e+00
1.505181e+01	-3.762425e+00
1.513875e+01	-3.791137e+00
1.522619e+01	-3.820377e+00
1.531414e+01	-3.849967e+00
1.540259e+01	-3.879385e+00
1.549156e+01	-3.908830e+00
1.558103e+01	-3.938801e+00
1.567103e+01	-3.968617e+00
1.576155e+01	-3.998660e+00
1.585258e+01	-4.028662e+00
1.594415e+01	-4.058863e+00
1.603624e+01	-4.089653e+00
1.612886e+01	-4.120123e+00
1.622202e+01	-4.150918e+00
1.631572e+01	-4.181676e+00
1.640996e+01	-4.212592e+00
1.650474e+01	-4.243861e+00
1.660008e+01	-4.275143e+00
1.669596e+01	-4.306702e+00
1.679239e+01	-4.337960e+00
1.688938e+01	-4.369859e+00
1.698694e+01	-4.401329e+00
1.708505e+01	-4.433485e+00
1.718373e+01	-4.465358e+00
1.728299e+01	-4.497599e+00
1.738281e+01	-4.530022e+00
1.748322e+01	-4.562304e+00
1.758420e+01	-4.595042e+00
1.768576e+01	-4.627954e+00
1.778792e+01	-4.660760e+00
1.789066e+01	-4.693555e+00
1.799399e+01	-4.726908e+00
1.809793e+01	-4.759743e+00
1.820246e+01	-4.793159e+00
1.830760e+01	-4.827028e+00
1.841334e+01	-4.860387e+00
1.851969e+01	-4.894132e+00
1.862666e+01	-4.928045e+00
1.873425e+01	-4.962109e+00
1.884246e+01	-4.996245e+00
1.895129e+01	-5.030492e+00
1.906075e+01	-5.064866e+00
1.917085e+01	-5.099474e+00
1.928158e+01	-5.133920e+00
1.939295e+01	-5.168935e+00
1.950496e+01	-5.203639e+00
1.961762e+01	-5.238745e+00
1.973093e+01	-5.273864e+00
1.984490e+01	-5.308788e+00
1.995952e+01	-5.344303e+00
2.007480e+01	-5.379911e+00
2.019076e+01	-5.415251e+00
2.030738e+01	-5.451101e+00
2.042467e+01	-5.487032e+00
2.054264e+01	-5.522730e+00
2.066130e+01	-5.558976e+00
2.078064e+01	-5.595171e+00
2.090066e+01	-5.631478e+00
2.102139e+01	-5.667849e+00
2.114280e+01	-5.704208e+00
2.126492e+01	-5.740991e+00
2.138775e+01	-5.777804e+00
2.151128e+01	-5.814584e+00
2.163553e+01	-5.851619e+00
2.176050e+01	-5.888601e+00
2.188619e+01	-5.925830e+00
2.201260e+01	-5.963034e+00
2.213974e+01	-6.000576e+00
2.226762e+01	-6.038074e+00
2.239624e+01	-6.075414e+00
2.252560e+01	-6.113355e+00
2.265571e+01	-6.151116e+00
2.278656e+01	-6.189372e+00
2.291818e+01	-6.227180e+00
2.305055e+01	-6.265140e+00
2.318369e+01	-6.303516e+00
2.331760e+01	-6.341633e+00
2.345228e+01	-6.380213e+00
2.358774e+01	-6.418944e+00
2.372398e+01	-6.457626e+00
2.386101e+01	-6.496230e+00
2.399883e+01	-6.534935e+00
2.413745e+01	-6.574445e+00
2.427686e+01	-6.613041e+00
2.441709e+01	-6.652449e+00
2.455812e+01	-6.691739e+00
2.469997e+01	-6.731200e+00
2.484263e+01	-6.770863e+00
2.498612e+01	-6.810099e+00
2.513044e+01	-6.849765e+00
2.527559e+01	-6.889399e+00
2.542158e+01	-6.929098e+00
2.556842e+01	-6.969235e+00
2.571610e+01	-7.009192e+00
2.586463e+01	-7.049396e+00
2.601403e+01	-7.089573e+00
2.616428e+01	-7.129639e+00
2.631541e+01	-7.170183e+00
2.646740e+01	-7.210759e+00
2.662028e+01	-7.250918e+00
2.677404e+01	-7.291771e+00
2.692868e+01	-7.332888e+00
2.708422e+01	-7.373316e+00
2.724066e+01	-7.414299e+00
2.739800e+01	-7.455361e+00
2.755625e+01	-7.496823e+00
2.771541e+01	-7.537461e+00
2.787550e+01	-7.578746e+00
2.803650e+01	-7.620123e+00
2.819844e+01	-7.661506e+00
2.836131e+01	-7.703232e+00
2.852513e+01	-7.744655e+00
2.868989e+01	-7.786049e+00
2.885560e+01	-7.827802e+00
2.902227e+01	-7.869880e+00
2.918990e+01	-7.911657e+00
2.935850e+01	-7.953951e+00
2.952807e+01	-7.995436e+00
2.969863e+01	-8.037921e+00
2.987016e+01	-8.079969e+00
3.004269e+01	-8.122512e+00
3.021622e+01	-8.165045e+00
3.039075e+01	-8.207607e+00
3.056628e+01	-8.249730e+00
3.074283e+01	-8.291993e+00
3.092040e+01	-8.335084e+00
3.109900e+01	-8.377632e+00
3.127862e+01	-8.420244e+00
3.145929e+01	-8.463511e+00
3.164099e+01	-8.506158e+00
3.182375e+01	-8.549337e+00
3.200756e+01	-8.591705e+00
3.219244e+01	-8.635409e+00
3.237838e+01	-8.679052e+00
3.256540e+01	-8.721545e+00
3.275349e+01	-8.765750e+00
3.294268e+01	-8.809109e+00
3.313295e+01	-8.852160e+00
3.332433e+01	-8.895759e+00
3.351681e+01	-8.939479e+00
3.371040e+01	-8.983289e+00
3.390511e+01	-9.026359e+00
3.410094e+01	-9.070623e+00
3.429791e+01	-9.114557e+00
3.449601e+01	-9.158533e+00
3.469526e+01	-9.202038e+00
3.489566e+01	-9.246571e+00
3.509721e+01	-9.290319e+00
3.529993e+01	-9.334654e+00
3.550382e+01	-9.379061e+00
3.570889e+01	-9.423479e+00
3.591515e+01	-9.467530e+00
3.612259e+01	-9.511874e+00
3.633123e+01	-9.556108e+00
3.654108e+01	-9.601545e+00
3.675214e+01	-9.645162e+00
3.696442e+01	-9.690264e+00
3.717792e+01	-9.735078e+00
3.739266e+01	-9.779502e+00
3.760864e+01	-9.823951e+00
3.782587e+01	-9.868985e+00
3.804435e+01	-9.913954e+00
3.826409e+01	-9.959365e+00
3.848510e+01	-1.000401e+01
3.870739e+01	-1.004988e+01
3.893096e+01	-1.009414e+01
3.915583e+01	-1.013966e+01
3.938199e+01	-1.018469e+01
3.960946e+01	-1.022983e+01
3.983824e+01	-1.027435e+01
4.006834e+01	-1.032124e+01
4.029978e+01	-1.036641e+01
4.053255e+01	-1.041143e+01
4.076666e+01	-1.045701e+01
4.100213e+01	-1.050276e+01
4.123896e+01	-1.054773e+01
4.147715e+01	-1.059396e+01
4.171672e+01	-1.063931e+01
4.195767e+01	-1.068528e+01
4.220002e+01	-1.073097e+01
4.244377e+01	-1.077646e+01
4.268892e+01	-1.082293e+01
4.293549e+01	-1.086831e+01
4.318348e+01	-1.091435e+01
4.343291e+01	-1.096002e+01
4.368377e+01	-1.100637e+01
4.393609e+01	-1.105225e+01
4.418986e+01	-1.109815e+01
4.444510e+01	-1.114398e+01
4.470182e+01	-1.119080e+01
4.496001e+01	-1.123703e+01
4.521970e+01	-1.128383e+01
4.548089e+01	-1.132972e+01
4.574358e+01	-1.137610e+01
4.600779e+01	-1.142278e+01
4.627353e+01	-1.146847e+01
4.654081e+01	-1.151571e+01
4.680963e+01	-1.156152e+01
4.708000e+01	-1.160837e+01
4.735193e+01	-1.165528e+01
4.762543e+01	-1.170121e+01
4.790051e+01	-1.174833e+01
4.817719e+01	-1.179545e+01
4.845545e+01	-1.184213e+01
4.873533e+01	-1.188915e+01
4.901682e+01	-1.193509e+01
4.929994e+01	-1.198186e+01
4.958470e+01	-1.202957e+01
4.987110e+01	-1.207573e+01
5.015915e+01	-1.212310e+01
5.044887e+01	-1.216988e+01
5.074026e+01	-1.221716e+01
5.103333e+01	-1.226392e+01
5.132810e+01	-1.231111e+01
5.162457e+01	-1.235736e+01
5.192275e+01	-1.240588e+01
5.222265e+01	-1.245226e+01
5.252429e+01	-1.249990e+01
5.282767e+01	-1.254624e+01
5.313280e+01	-1.259432e+01
5.343969e+01	-1.264232e+01
5.374836e+01	-1.268829e+01
5.405880e+01	-1.273513e+01
5.437105e+01	-1.278389e+01
5.468509e+01	-1.283120e+01
5.500095e+01	-1.287841e+01
5.531863e+01	-1.292554e+01
5.563815e+01	-1.297295e+01
5.595951e+01	-1.302113e+01
5.628273e+01	-1.306797e+01
5.660782e+01	-1.311593e+01
5.693479e+01	-1.316406e+01
5.726364e+01	-1.321114e+01
5.759439e+01	-1.325853e+01
5.792705e+01	-1.330628e+01
5.826164e+01	-1.335365e+01
5.859815e+01	-1.340177e+01
5.893662e+01	-1.344940e+01
5.927703e+01	-1.349812e+01
5.961941e+01	-1.354492e+01
5.996377e+01	-1.359256e+01
6.031012e+01	-1.364124e+01
6.065847e+01	-1.368811e+01
6.100883e+01	-1.373640e+01
6.136121e+01	-1.378391e+01
6.171563e+01	-1.383300e+01
6.207210e+01	-1.387968e+01
6.243063e+01	-1.392853e+01
6.279122e+01	-1.397666e+01
6.315390e+01	-1.402413e+01
6.351868e+01	-1.407223e+01
6.388556e+01	-1.412092e+01
6.425456e+01	-1.416883e+01
6.462569e+01	-1.421739e+01
6.499897e+01	-1.426488e+01
6.537440e+01	-1.431287e+01
6.575200e+01	-1.436121e+01
6.613178e+01	-1.441065e+01
6.651375e+01	-1.445787e+01
6.689793e+01	-1.450618e+01
6.728433e+01	-1.455359e+01
6.767297e+01	-1.460159e+01
6.806384e+01	-1.465135e+01
6.845698e+01	-1.469881e+01
6.885238e+01	-1.474719e+01
6.925007e+01	-1.479565e+01
6.965005e+01	-1.484547e+01
7.005235e+01	-1.489282e+01
7.045697e+01	-1.494082e+01
7.086393e+01	-1.498929e+01
7.127323e+01	-1.503749e+01
7.168490e+01	-1.508676e+01
7.209895e+01	-1.513507e+01
7.251539e+01	-1.518510e+01
7.293424e+01	-1.523171e+01
7.335551e+01	-1.528096e+01
7.377920e+01	-1.532968e+01
7.420535e+01	-1.537783e+01
7.463396e+01	-1.542576e+01
7.506504e+01	-1.547477e+01
7.549861e+01	-1.552249e+01
7.593469e+01	-1.557141e+01
7.637328e+01	-1.562041e+01
7.681441e+01	-1.566853e+01
7.725809e+01	-1.571820e+01
7.770433e+01	-1.576627e+01
7.815315e+01	-1.581541e+01
7.860456e+01	-1.586299e+01
7.905857e+01	-1.591283e+01
7.951521e+01	-1.596197e+01
7.997449e+01	-1.601014e+01
8.043642e+01	-1.605902e+01
8.090102e+01	-1.610838e+01
8.136830e+01	-1.615687e+01
8.183828e+01	-1.620542e+01
8.231097e+01	-1.625427e+01
8.278640e+01	-1.630327e+01
8.326457e+01	-1.635238e+01
8.374550e+01	-1.640222e+01
8.422921e+01	-1.644971e+01
8.471572e+01	-1.649871e+01
8.520503e+01	-1.654846e+01
8.569717e+01	-1.659587e+01
8.619215e+01	-1.664435e+01
8.669000e+01	-1.669427e+01
8.719071e+01	-1.674317e+01
8.769432e+01	-1.679280e+01
8.820084e+01	-1.684264e+01
8.871029e+01	-1.689005e+01
8.922267e+01	-1.694073e+01
8.973802e+01	-1.698888e+01
9.025634e+01	-1.703781e+01
9.077766e+01	-1.708679e+01
9.130199e+01	-1.713598e+01
9.182935e+01	-1.718607e+01
9.235975e+01	-1.723449e+01
9.289321e+01	-1.728287e+01
9.342976e+01	-1.733211e+01
9.396941e+01	-1.738082e+01
9.451217e+01	-1.743063e+01
9.505807e+01	-1.747905e+01
9.560712e+01	-1.752877e+01
9.615934e+01	-1.757707e+01
9.671476e+01	-1.762659e+01
9.727338e+01	-1.767523e+01
9.783522e+01	-1.772575e+01
9.840032e+01	-1.777459e+01
9.896867e+01	-1.782337e+01
9.954031e+01	-1.787242e+01
1.001153e+02	-1.792215e+01
1.006935e+02	-1.797172e+01
1.012751e+02	-1.802133e+01
1.018601e+02	-1.806872e+01
1.024484e+02	-1.812046e+01
1.030402e+02	-1.816922e+01
1.036353e+02	-1.821735e+01
1.042339e+02	-1.826627e+01
1.048360e+02	-1.831611e+01
1.054415e+02	-1.836573e+01
1.060505e+02	-1.841537e+01
1.066631e+02	-1.846444e+01
1.072791e+02	-1.851328e+01
1.078988e+02	-1.856300e+01
1.085220e+02	-1.861322e+01
1.091488e+02	-1.866076e+01
1.097793e+02	-1.871140e+01
1.104133e+02	-1.876074e+01
1.110511e+02	-1.880910e+01
1.116925e+02	-1.885899e+01
1.123376e+02	-1.890832e+01
1.129865e+02	-1.895808e+01
1.136391e+02	-1.900789e+01
1.142955e+02	-1.905715e+01
1.149556e+02	-1.910543e+01
1.156196e+02	-1.915573e+01
1.162874e+02	-1.920476e+01
1.169591e+02	-1.925449e+01
1.176347e+02	-1.930298e+01
1.183141e+02	-1.935325e+01
1.189975e+02	-1.940169e+01
1.196848e+02	-1.945273e+01
1.203761e+02	-1.950121e+01
1.210714e+02	-1.955037e+01
1.217707e+02	-1.960107e+01
1.224740e+02	-1.964988e+01
1.231814e+02	-1.969829e+01
1.238929e+02	-1.974885e+01
1.246085e+02	-1.979767e+01
1.253283e+02	-1.984843e+01
1.260522e+02	-1.989701e+01
1.267802e+02	-1.994772e+01
1.275125e+02	-1.999708e+01
1.282490e+02	-2.004528e+01
1.289898e+02	-2.009513e+01
1.297348e+02	-2.014561e+01
1.304842e+02	-2.019484e+01
1.312378e+02	-2.024399e+01
1.319959e+02	-2.029515e+01
1.327583e+02	-2.034381e+01
1.335251e+02	-2.039296e+01
1.342963e+02	-2.044350e+01
1.350720e+02	-2.049346e+01
1.358522e+02	-2.054148e+01
1.366368e+02	-2.059150e+01
1.374260e+02	-2.064154e+01
1.382198e+02	-2.069114e+01
1.390182e+02	-2.074058e+01
1.398211e+02	-2.079046e+01
1.406287e+02	-2.084006e+01
1.414410e+02	-2.088791e+01
1.422579e+02	-2.093843e+01
1.430796e+02	-2.098871e+01
1.439060e+02	-2.103746e+01
1.447372e+02	-2.108977e+01
1.455732e+02	-2.113947e+01
1.464141e+02	-2.118614e+01
1.472597e+02	-2.123657e+01
1.481103e+02	-2.128605e+01
1.489658e+02	-2.133498e+01
1.498262e+02	-2.138513e+01
1.506916e+02	-2.143716e+01
1.515620e+02	-2.148260e+01
1.524374e+02	-2.153515e+01
1.533179e+02	-2.158431e+01
1.542034e+02	-2.163374e+01
1.550941e+02	-2.168403e+01
1.559899e+02	-2.173436e+01
1.568909e+02	-2.178204e+01
1.577971e+02	-2.183317e+01
1.587085e+02	-2.188236e+01
1.596252e+02	-2.193239e+01
1.605472e+02	-2.198296e+01
1.614745e+02	-2.203347e+01
1.624072e+02	-2.208185e+01
1.633453e+02	-2.213190e+01
1.642887e+02	-2.218183e+01
1.652377e+02	-2.223050e+01
1.661921e+02	-2.228219e+01
1.671520e+02	-2.233256e+01
1.681175e+02	-2.237996e+01
1.690885e+02	-2.242986e+01
1.700651e+02	-2.247825e+01
1.710474e+02	-2.253066e+01
1.720354e+02	-2.258030e+01
1.730291e+02	-2.262972e+01
1.740285e+02	-2.267860e+01
1.750337e+02	-2.272834e+01
1.760446e+02	-2.277946e+01
1.770615e+02	-2.282754e+01
1.780842e+02	-2.287817e+01
1.791128e+02	-2.292639e+01
1.801473e+02	-2.297744e+01
1.811878e+02	-2.302650e+01
1.822344e+02	-2.307655e+01
1.832870e+02	-2.312575e+01
1.843456e+02	-2.317697e+01
1.854104e+02	-2.322802e+01
1.864813e+02	-2.327683e+01
1.875584e+02	-2.332798e+01
1.886418e+02	-2.337575e+01
1.897313e+02	-2.342626e+01
1.908272e+02	-2.347528e+01
1.919294e+02	-2.352643e+01
1.930380e+02	-2.357481e+01
1.941530e+02	-2.362526e+01
1.952744e+02	-2.367415e+01
1.964023e+02	-2.372559e+01
1.975367e+02	-2.377328e+01
1.986777e+02	-2.382471e+01
1.998252e+02	-2.387387e+01
2.009794e+02	-2.392524e+01
2.021403e+02	-2.397400e+01
2.033078e+02	-2.402523e+01
2.044821e+02	-2.407108e+01
2.056632e+02	-2.412216e+01
2.068511e+02	-2.417238e+01
2.080459e+02	-2.422139e+01
2.092475e+02	-2.427564e+01
2.104561e+02	-2.432322e+01
2.116717e+02	-2.437289e+01
2.128943e+02	-2.442065e+01
2.141240e+02	-2.447381e+01
2.153608e+02	-2.452286e+01
2.166047e+02	-2.457241e+01
2.178558e+02	-2.462027e+01
2.191141e+02	-2.467036e+01
2.203797e+02	-2.472004e+01
2.216526e+02	-2.477192e+01
2.229329e+02	-2.482062e+01
2.242205e+02	-2.487044e+01
2.255156e+02	-2.492205e+01
2.268182e+02	-2.497095e+01
2.281283e+02	-2.502345e+01
2.294459e+02	-2.507185e+01
2.307712e+02	-2.511967e+01
2.321041e+02	-2.517184e+01
2.334447e+02	-2.522135e+01
2.347931e+02	-2.527351e+01
2.361493e+02	-2.532293e+01
2.375133e+02	-2.537170e+01
2.388851e+02	-2.541994e+01
2.402649e+02	-2.547248e+01
2.416527e+02	-2.551894e+01
2.430484e+02	-2.557307e+01
2.444523e+02	-2.561817e+01
2.458642e+02	-2.566895e+01
2.472843e+02	-2.572184e+01
2.487126e+02	-2.577085e+01
2.501492e+02	-2.582302e+01
2.515940e+02	-2.587176e+01
2.530472e+02	-2.592097e+01
2.545088e+02	-2.596813e+01
2.559789e+02	-2.602237e+01
2.574574e+02	-2.607177e+01
2.589444e+02	-2.611782e+01
2.604401e+02	-2.617035e+01
2.619444e+02	-2.621572e+01
2.634574e+02	-2.627067e+01
2.649791e+02	-2.632079e+01
2.665096e+02	-2.636688e+01
2.680489e+02	-2.642001e+01
2.695972e+02	-2.646939e+01
2.711544e+02	-2.651793e+01
2.727205e+02	-2.656753e+01
2.742958e+02	-2.662259e+01
2.758801e+02	-2.666884e+01
2.774736e+02	-2.672004e+01
2.790762e+02	-2.676824e+01
2.806882e+02	-2.681666e+01
2.823094e+02	-2.686746e+01
2.839400e+02	-2.691904e+01
2.855800e+02	-2.697071e+01
2.872295e+02	-2.701677e+01
2.888886e+02	-2.707054e+01
2.905572e+02	-2.711896e+01
2.922354e+02	-2.716972e+01
2.939234e+02	-2.721699e+01
2.956211e+02	-2.727154e+01
2.973286e+02	-2.732049e+01
2.990459e+02	-2.736874e+01
3.007732e+02	-2.742239e+01
3.025104e+02	-2.746834e+01
3.042577e+02	-2.751993e+01
3.060151e+02	-2.757221e+01
3.077826e+02	-2.762130e+01
3.095604e+02	-2.766799e+01
3.113484e+02	-2.772234e+01
3.131467e+02	-2.776868e+01
3.149554e+02	-2.781857e+01
3.167746e+02	-2.786956e+01
3.186043e+02	-2.791666e+01
3.204445e+02	-2.797069e+01
3.222954e+02	-2.801649e+01
3.241570e+02	-2.806890e+01
3.260293e+02	-2.812114e+01
3.279124e+02	-2.817036e+01
3.298064e+02	-2.822519e+01
3.317114e+02	-2.827346e+01
3.336273e+02	-2.832140e+01
3.355544e+02	-2.836885e+01
3.374925e+02	-2.842308e+01
3.394418e+02	-2.847709e+01
3.414024e+02	-2.851732e+01
3.433744e+02	-2.857102e+01
3.453577e+02	-2.862172e+01
3.473525e+02	-2.866765e+01
3.493588e+02	-2.871894e+01
3.513766e+02	-2.877296e+01
3.534062e+02	-2.882013e+01
3.554474e+02	-2.886790e+01
3.575005e+02	-2.891968e+01
3.595654e+02	-2.896792e+01
3.616422e+02	-2.902075e+01
3.637311e+02	-2.907607e+01
3.658320e+02	-2.911767e+01
3.679450e+02	-2.916601e+01
3.700702e+02	-2.921998e+01
3.722077e+02	-2.927309e+01
3.743576e+02	-2.932124e+01
3.765199e+02	-2.937458e+01
3.786946e+02	-2.942254e+01
3.808820e+02	-2.946921e+01
3.830819e+02	-2.951944e+01
3.852946e+02	-2.956859e+01
3.875200e+02	-2.962008e+01
3.897583e+02	-2.967023e+01
3.920096e+02	-2.972233e+01
3.942738e+02	-2.977331e+01
3.965511e+02	-2.982406e+01
3.988416e+02	-2.987166e+01
4.011452e+02	-2.992334e+01
4.034622e+02	-2.996812e+01
4.057926e+02	-3.002136e+01
4.081365e+02	-3.007055e+01
4.104938e+02	-3.012474e+01
4.128648e+02	-3.016916e+01
4.152495e+02	-3.022014e+01
4.176480e+02	-3.027021e+01
4.200603e+02	-3.032158e+01
4.224866e+02	-3.037065e+01
4.249268e+02	-3.041599e+01
4.273812e+02	-3.046736e+01
4.298497e+02	-3.051722e+01
4.323325e+02	-3.057237e+01
4.348297e+02	-3.062508e+01
4.373412e+02	-3.067592e+01
4.398673e+02	-3.072305e+01
4.424079e+02	-3.077153e+01
4.449633e+02	-3.082176e+01
4.475334e+02	-3.087433e+01
4.501183e+02	-3.092700e+01
4.527182e+02	-3.097024e+01
4.553330e+02	-3.101902e+01
4.579630e+02	-3.107225e+01
4.606082e+02	-3.112185e+01
4.632687e+02	-3.116938e+01
4.659445e+02	-3.122608e+01
4.686358e+02	-3.128110e+01
4.713426e+02	-3.133012e+01
4.740650e+02	-3.137501e+01
4.768032e+02	-3.142131e+01
4.795572e+02	-3.147417e+01
4.823271e+02	-3.152704e+01
4.851130e+02	-3.157722e+01
4.879150e+02	-3.162903e+01
4.907332e+02	-3.167198e+01
4.935676e+02	-3.173197e+01
4.964185e+02	-3.176677e+01
4.992858e+02	-3.182410e+01
5.021696e+02	-3.187888e+01
5.050701e+02	-3.192749e+01
5.079874e+02	-3.197948e+01
5.109215e+02	-3.202118e+01
5.138726e+02	-3.208155e+01
5.168407e+02	-3.212361e+01
5.198259e+02	-3.217582e+01
5.228284e+02	-3.222789e+01
5.258482e+02	-3.227576e+01
5.288855e+02	-3.232532e+01
5.319403e+02	-3.237559e+01
5.350128e+02	-3.242276e+01
5.381030e+02	-3.248149e+01
5.412111e+02	-3.252851e+01
5.443371e+02	-3.258442e+01
5.474812e+02	-3.263582e+01
5.506434e+02	-3.267791e+01
5.538239e+02	-3.273212e+01
5.570228e+02	-3.277628e+01
5.602401e+02	-3.283031e+01
5.634760e+02	-3.287710e+01
5.667306e+02	-3.293183e+01
5.700040e+02	-3.297652e+01
5.732964e+02	-3.302777e+01
5.766077e+02	-3.307775e+01
5.799382e+02	-3.313176e+01
5.832879e+02	-3.318225e+01
5.866569e+02	-3.322875e+01
5.900454e+02	-3.327597e+01
5.934535e+02	-3.333338e+01
5.968813e+02	-3.338596e+01
6.003288e+02	-3.343515e+01
6.037963e+02	-3.348238e+01
6.072838e+02	-3.353539e+01
6.107914e+02	-3.358900e+01
6.143194e+02	-3.362742e+01
6.178676e+02	-3.368804e+01
6.214364e+02	-3.373943e+01
6.250258e+02	-3.378004e+01
6.286359e+02	-3.383129e+01
6.322669e+02	-3.387796e+01
6.359189e+02	-3.394265e+01
6.395919e+02	-3.398399e+01
6.432862e+02	-3.403993e+01
6.470017e+02	-3.408606e+01
6.507388e+02	-3.413690e+01
6.544974e+02	-3.418404e+01
6.582778e+02	-3.423980e+01
6.620800e+02	-3.428345e+01
6.659041e+02	-3.433825e+01
6.697504e+02	-3.439171e+01
6.736188e+02	-3.443839e+01
6.775096e+02	-3.449190e+01
6.814229e+02	-3.454712e+01
6.853587e+02	-3.459161e+01
6.893173e+02	-3.464206e+01
6.932988e+02	-3.468476e+01
6.973033e+02	-3.473791e+01
7.013309e+02	-3.478669e+01
