Frequency(Hz)	Magnitude(dB)
1.000000e+01	-1.674780e-05
1.005776e+01	-1.694183e-05
1.011585e+01	-1.713811e-05
1.017428e+01	-1.733666e-05
1.023305e+01	-1.753750e-05
1.029215e+01	-1.774068e-05
1.035160e+01	-1.794621e-05
1.041139e+01	-1.815412e-05
1.047153e+01	-1.836444e-05
1.053201e+01	-1.857720e-05
1.059284e+01	-1.879242e-05
1.065403e+01	-1.901014e-05
1.071556e+01	-1.923037e-05
1.077746e+01	-1.945316e-05
1.083971e+01	-1.967853e-05
1.090232e+01	-1.990651e-05
1.096529e+01	-2.013714e-05
1.102862e+01	-2.037043e-05
1.109232e+01	-2.060643e-05
1.115639e+01	-2.084516e-05
1.122083e+01	-2.108665e-05
1.128564e+01	-2.133095e-05
1.135083e+01	-2.157807e-05
1.141639e+01	-2.182806e-05
1.148233e+01	-2.208094e-05
1.154865e+01	-2.233675e-05
1.161536e+01	-2.259553e-05
1.168245e+01	-2.285731e-05
1.174992e+01	-2.312211e-05
1.181779e+01	-2.338999e-05
1.188605e+01	-2.366097e-05
1.195470e+01	-2.393509e-05
1.202375e+01	-2.421238e-05
1.209320e+01	-2.449289e-05
1.216305e+01	-2.477664e-05
1.223330e+01	-2.506369e-05
1.230396e+01	-2.535406e-05
1.237503e+01	-2.564779e-05
1.244651e+01	-2.594492e-05
1.251840e+01	-2.624550e-05
1.259070e+01	-2.654956e-05
1.266343e+01	-2.685715e-05
1.273657e+01	-2.716829e-05
1.281014e+01	-2.748304e-05
1.288413e+01	-2.780144e-05
1.295855e+01	-2.812353e-05
1.303339e+01	-2.844935e-05
1.310867e+01	-2.877894e-05
1.318439e+01	-2.911235e-05
1.326054e+01	-2.944962e-05
1.333713e+01	-2.979081e-05
1.341417e+01	-3.013594e-05
1.349165e+01	-3.048507e-05
1.356958e+01	-3.083825e-05
1.364795e+01	-3.119552e-05
1.372678e+01	-3.155692e-05
1.380607e+01	-3.192252e-05
1.388581e+01	-3.229235e-05
1.396602e+01	-3.266646e-05
1.404668e+01	-3.304491e-05
1.412782e+01	-3.342774e-05
1.420942e+01	-3.381501e-05
1.429149e+01	-3.420677e-05
1.437404e+01	-3.460306e-05
1.445706e+01	-3.500395e-05
1.454057e+01	-3.540947e-05
1.462455e+01	-3.581970e-05
1.470902e+01	-3.623468e-05
1.479398e+01	-3.665447e-05
1.487943e+01	-3.707912e-05
1.496537e+01	-3.750869e-05
1.505181e+01	-3.794324e-05
1.513875e+01	-3.838282e-05
1.522619e+01	-3.882749e-05
1.531414e+01	-3.927732e-05
1.540259e+01	-3.973235e-05
1.549156e+01	-4.019266e-05
1.558103e+01	-4.065830e-05
1.567103e+01	-4.112934e-05
1.576155e+01	-4.160583e-05
1.585258e+01	-4.208784e-05
1.594415e+01	-4.257544e-05
1.603624e+01	-4.306868e-05
1.612886e+01	-4.356765e-05
1.622202e+01	-4.407239e-05
1.631572e+01	-4.458297e-05
1.640996e+01	-4.509948e-05
1.650474e+01	-4.562197e-05
1.660008e+01	-4.615051e-05
1.669596e+01	-4.668517e-05
1.679239e+01	-4.722603e-05
1.688938e+01	-4.777315e-05
1.698694e+01	-4.832661e-05
1.708505e+01	-4.888649e-05
1.718373e+01	-4.945285e-05
1.728299e+01	-5.002577e-05
1.738281e+01	-5.060533e-05
1.748322e+01	-5.119160e-05
1.758420e+01	-5.178467e-05
1.768576e+01	-5.238460e-05
1.778792e+01	-5.299149e-05
1.789066e+01	-5.360541e-05
1.799399e+01	-5.422644e-05
1.809793e+01	-5.485466e-05
1.820246e+01	-5.549016e-05
1.830760e+01	-5.613303e-05
1.841334e+01	-5.678334e-05
1.851969e+01	-5.744119e-05
1.862666e+01	-5.810666e-05
1.873425e+01	-5.877983e-05
1.884246e+01	-5.946081e-05
1.895129e+01	-6.014968e-05
1.906075e+01	-6.084652e-05
1.917085e+01	-6.155144e-05
1.928158e+01	-6.226453e-05
1.939295e+01	-6.298587e-05
1.950496e+01	-6.371558e-05
1.961762e+01	-6.445373e-05
1.973093e+01	-6.520044e-05
1.984490e+01	-6.595580e-05
1.995952e+01	-6.671991e-05
2.007480e+01	-6.749288e-05
2.019076e+01	-6.827479e-05
2.030738e+01	-6.906577e-05
2.042467e+01	-6.986591e-05
2.054264e+01	-7.067532e-05
2.066130e+01	-7.149411e-05
2.078064e+01	-7.232238e-05
2.090066e+01	-7.316025e-05
2.102139e+01	-7.400782e-05
2.114280e+01	-7.486521e-05
2.126492e+01	-7.573254e-05
2.138775e+01	-7.660992e-05
2.151128e+01	-7.749746e-05
2.163553e+01	-7.839528e-05
2.176050e+01	-7.930350e-05
2.188619e+01	-8.022224e-05
2.201260e+01	-8.115163e-05
2.213974e+01	-8.209179e-05
2.226762e+01	-8.304284e-05
2.239624e+01	-8.400490e-05
2.252560e+01	-8.497811e-05
2.265571e+01	-8.596260e-05
2.278656e+01	-8.695849e-05
2.291818e+01	-8.796592e-05
2.305055e+01	-8.898502e-05
2.318369e+01	-9.001592e-05
2.331760e+01	-9.105877e-05
2.345228e+01	-9.211370e-05
2.358774e+01	-9.318085e-05
2.372398e+01	-9.426037e-05
2.386101e+01	-9.535239e-05
2.399883e+01	-9.645706e-05
2.413745e+01	-9.757453e-05
2.427686e+01	-9.870494e-05
2.441709e+01	-9.984845e-05
2.455812e+01	-1.010052e-04
2.469997e+01	-1.021754e-04
2.484263e+01	-1.033591e-04
2.498612e+01	-1.045565e-04
2.513044e+01	-1.057678e-04
2.527559e+01	-1.069932e-04
2.542158e+01	-1.082327e-04
2.556842e+01	-1.094866e-04
2.571610e+01	-1.107550e-04
2.586463e+01	-1.120381e-04
2.601403e+01	-1.133361e-04
2.616428e+01	-1.146491e-04
2.631541e+01	-1.159773e-04
2.646740e+01	-1.173209e-04
2.662028e+01	-1.186801e-04
2.677404e+01	-1.200550e-04
2.692868e+01	-1.214459e-04
2.708422e+01	-1.228528e-04
2.724066e+01	-1.242761e-04
2.739800e+01	-1.257159e-04
2.755625e+01	-1.271723e-04
2.771541e+01	-1.286456e-04
2.787550e+01	-1.301360e-04
2.803650e+01	-1.316436e-04
2.819844e+01	-1.331687e-04
2.836131e+01	-1.347115e-04
2.852513e+01	-1.362721e-04
2.868989e+01	-1.378509e-04
2.885560e+01	-1.394479e-04
2.902227e+01	-1.410634e-04
2.918990e+01	-1.426976e-04
2.935850e+01	-1.443508e-04
2.952807e+01	-1.460231e-04
2.969863e+01	-1.477148e-04
2.987016e+01	-1.494261e-04
3.004269e+01	-1.511572e-04
3.021622e+01	-1.529084e-04
3.039075e+01	-1.546798e-04
3.056628e+01	-1.564718e-04
3.074283e+01	-1.582845e-04
3.092040e+01	-1.601183e-04
3.109900e+01	-1.619732e-04
3.127862e+01	-1.638497e-04
3.145929e+01	-1.657479e-04
3.164099e+01	-1.676681e-04
3.182375e+01	-1.696106e-04
3.200756e+01	-1.715755e-04
3.219244e+01	-1.735632e-04
3.237838e+01	-1.755740e-04
3.256540e+01	-1.776080e-04
3.275349e+01	-1.796656e-04
3.294268e+01	-1.817470e-04
3.313295e+01	-1.838526e-04
3.332433e+01	-1.859825e-04
3.351681e+01	-1.881371e-04
3.371040e+01	-1.903167e-04
3.390511e+01	-1.925215e-04
3.410094e+01	-1.947519e-04
3.429791e+01	-1.970081e-04
3.449601e+01	-1.992904e-04
3.469526e+01	-2.015992e-04
3.489566e+01	-2.039347e-04
3.509721e+01	-2.062973e-04
3.529993e+01	-2.086873e-04
3.550382e+01	-2.111049e-04
3.570889e+01	-2.135506e-04
3.591515e+01	-2.160245e-04
3.612259e+01	-2.185272e-04
3.633123e+01	-2.210588e-04
3.654108e+01	-2.236198e-04
3.675214e+01	-2.262104e-04
3.696442e+01	-2.288310e-04
3.717792e+01	-2.314820e-04
3.739266e+01	-2.341638e-04
3.760864e+01	-2.368765e-04
3.782587e+01	-2.396207e-04
3.804435e+01	-2.423967e-04
3.826409e+01	-2.452049e-04
3.848510e+01	-2.480456e-04
3.870739e+01	-2.509192e-04
3.893096e+01	-2.538261e-04
3.915583e+01	-2.567666e-04
3.938199e+01	-2.597412e-04
3.960946e+01	-2.627503e-04
3.983824e+01	-2.657943e-04
4.006834e+01	-2.688735e-04
4.029978e+01	-2.719883e-04
4.053255e+01	-2.751393e-04
4.076666e+01	-2.783268e-04
4.100213e+01	-2.815512e-04
4.123896e+01	-2.848129e-04
4.147715e+01	-2.881124e-04
4.171672e+01	-2.914502e-04
4.195767e+01	-2.948266e-04
4.220002e+01	-2.982421e-04
4.244377e+01	-3.016972e-04
4.268892e+01	-3.051923e-04
4.293549e+01	-3.087280e-04
4.318348e+01	-3.123045e-04
4.343291e+01	-3.159225e-04
4.368377e+01	-3.195824e-04
4.393609e+01	-3.232848e-04
4.418986e+01	-3.270300e-04
4.444510e+01	-3.308186e-04
4.470182e+01	-3.346510e-04
4.496001e+01	-3.385279e-04
4.521970e+01	-3.424497e-04
4.548089e+01	-3.464169e-04
4.574358e+01	-3.504301e-04
4.600779e+01	-3.544897e-04
4.627353e+01	-3.585964e-04
4.654081e+01	-3.627507e-04
4.680963e+01	-3.669531e-04
4.708000e+01	-3.712042e-04
4.735193e+01	-3.755045e-04
4.762543e+01	-3.798546e-04
4.790051e+01	-3.842551e-04
4.817719e+01	-3.887066e-04
4.845545e+01	-3.932097e-04
4.873533e+01	-3.977649e-04
4.901682e+01	-4.023730e-04
4.929994e+01	-4.070343e-04
4.958470e+01	-4.117497e-04
4.987110e+01	-4.165197e-04
5.015915e+01	-4.213450e-04
5.044887e+01	-4.262261e-04
5.074026e+01	-4.311638e-04
5.103333e+01	-4.361587e-04
5.132810e+01	-4.412115e-04
5.162457e+01	-4.463228e-04
5.192275e+01	-4.514933e-04
5.222265e+01	-4.567237e-04
5.252429e+01	-4.620147e-04
5.282767e+01	-4.673670e-04
5.313280e+01	-4.727813e-04
5.343969e+01	-4.782583e-04
5.374836e+01	-4.837987e-04
5.405880e+01	-4.894033e-04
5.437105e+01	-4.950729e-04
5.468509e+01	-5.008081e-04
5.500095e+01	-5.066098e-04
5.531863e+01	-5.124786e-04
5.563815e+01	-5.184155e-04
5.595951e+01	-5.244211e-04
5.628273e+01	-5.304963e-04
5.660782e+01	-5.366419e-04
5.693479e+01	-5.428586e-04
5.726364e+01	-5.491474e-04
5.759439e+01	-5.555090e-04
5.792705e+01	-5.619443e-04
5.826164e+01	-5.684542e-04
5.859815e+01	-5.750394e-04
5.893662e+01	-5.817010e-04
5.927703e+01	-5.884397e-04
5.961941e+01	-5.952565e-04
5.996377e+01	-6.021522e-04
6.031012e+01	-6.091278e-04
6.065847e+01	-6.161842e-04
6.100883e+01	-6.233224e-04
6.136121e+01	-6.305432e-04
6.171563e+01	-6.378477e-04
6.207210e+01	-6.452368e-04
6.243063e+01	-6.527115e-04
6.279122e+01	-6.602727e-04
6.315390e+01	-6.679216e-04
6.351868e+01	-6.756590e-04
6.388556e+01	-6.834861e-04
6.425456e+01	-6.914039e-04
6.462569e+01	-6.994133e-04
6.499897e+01	-7.075156e-04
6.537440e+01	-7.157116e-04
6.575200e+01	-7.240027e-04
6.613178e+01	-7.323897e-04
6.651375e+01	-7.408739e-04
6.689793e+01	-7.494564e-04
6.728433e+01	-7.581383e-04
6.767297e+01	-7.669208e-04
6.806384e+01	-7.758050e-04
6.845698e+01	-7.847921e-04
6.885238e+01	-7.938833e-04
6.925007e+01	-8.030798e-04
6.965005e+01	-8.123828e-04
7.005235e+01	-8.217936e-04
7.045697e+01	-8.313134e-04
7.086393e+01	-8.409435e-04
7.127323e+01	-8.506851e-04
7.168490e+01	-8.605395e-04
7.209895e+01	-8.705081e-04
7.251539e+01	-8.805921e-04
7.293424e+01	-8.907930e-04
7.335551e+01	-9.011120e-04
7.377920e+01	-9.115505e-04
7.420535e+01	-9.221100e-04
7.463396e+01	-9.327917e-04
7.506504e+01	-9.435972e-04
7.549861e+01	-9.545278e-04
7.593469e+01	-9.655851e-04
7.637328e+01	-9.767704e-04
7.681441e+01	-9.880852e-04
7.725809e+01	-9.995312e-04
7.770433e+01	-1.011110e-03
7.815315e+01	-1.022822e-03
7.860456e+01	-1.034671e-03
7.905857e+01	-1.046656e-03
7.951521e+01	-1.058780e-03
7.997449e+01	-1.071045e-03
8.043642e+01	-1.083452e-03
8.090102e+01	-1.096002e-03
8.136830e+01	-1.108698e-03
8.183828e+01	-1.121541e-03
8.231097e+01	-1.134533e-03
8.278640e+01	-1.147675e-03
8.326457e+01	-1.160969e-03
8.374550e+01	-1.174418e-03
8.422921e+01	-1.188022e-03
8.471572e+01	-1.201783e-03
8.520503e+01	-1.215704e-03
8.569717e+01	-1.229787e-03
8.619215e+01	-1.244032e-03
8.669000e+01	-1.258442e-03
8.719071e+01	-1.273020e-03
8.769432e+01	-1.287766e-03
8.820084e+01	-1.302683e-03
8.871029e+01	-1.317772e-03
8.922267e+01	-1.333037e-03
8.973802e+01	-1.348478e-03
9.025634e+01	-1.364098e-03
9.077766e+01	-1.379899e-03
9.130199e+01	-1.395883e-03
9.182935e+01	-1.412052e-03
9.235975e+01	-1.428408e-03
9.289321e+01	-1.444954e-03
9.342976e+01	-1.461691e-03
9.396941e+01	-1.478622e-03
9.451217e+01	-1.495750e-03
9.505807e+01	-1.513075e-03
9.560712e+01	-1.530602e-03
9.615934e+01	-1.548331e-03
9.671476e+01	-1.566265e-03
9.727338e+01	-1.584408e-03
9.783522e+01	-1.602760e-03
9.840032e+01	-1.621325e-03
9.896867e+01	-1.640105e-03
9.954031e+01	-1.659102e-03
1.001153e+02	-1.678320e-03
1.006935e+02	-1.697760e-03
1.012751e+02	-1.717425e-03
1.018601e+02	-1.737318e-03
1.024484e+02	-1.757441e-03
1.030402e+02	-1.777797e-03
1.036353e+02	-1.798389e-03
1.042339e+02	-1.819220e-03
1.048360e+02	-1.840291e-03
1.054415e+02	-1.861607e-03
1.060505e+02	-1.883170e-03
1.066631e+02	-1.904982e-03
1.072791e+02	-1.927047e-03
1.078988e+02	-1.949367e-03
1.085220e+02	-1.971946e-03
1.091488e+02	-1.994786e-03
1.097793e+02	-2.017891e-03
1.104133e+02	-2.041263e-03
1.110511e+02	-2.064906e-03
1.116925e+02	-2.088823e-03
1.123376e+02	-2.113017e-03
1.129865e+02	-2.137490e-03
1.136391e+02	-2.162248e-03
1.142955e+02	-2.187292e-03
1.149556e+02	-2.212625e-03
1.156196e+02	-2.238253e-03
1.162874e+02	-2.264177e-03
1.169591e+02	-2.290401e-03
1.176347e+02	-2.316929e-03
1.183141e+02	-2.343764e-03
1.189975e+02	-2.370909e-03
1.196848e+02	-2.398369e-03
1.203761e+02	-2.426147e-03
1.210714e+02	-2.454247e-03
1.217707e+02	-2.482672e-03
1.224740e+02	-2.511426e-03
1.231814e+02	-2.540513e-03
1.238929e+02	-2.569937e-03
1.246085e+02	-2.599701e-03
1.253283e+02	-2.629810e-03
1.260522e+02	-2.660268e-03
1.267802e+02	-2.691078e-03
1.275125e+02	-2.722245e-03
1.282490e+02	-2.753773e-03
1.289898e+02	-2.785666e-03
1.297348e+02	-2.817928e-03
1.304842e+02	-2.850564e-03
1.312378e+02	-2.883578e-03
1.319959e+02	-2.916974e-03
1.327583e+02	-2.950756e-03
1.335251e+02	-2.984929e-03
1.342963e+02	-3.019499e-03
1.350720e+02	-3.054468e-03
1.358522e+02	-3.089842e-03
1.366368e+02	-3.125626e-03
1.374260e+02	-3.161824e-03
1.382198e+02	-3.198441e-03
1.390182e+02	-3.235482e-03
1.398211e+02	-3.272952e-03
1.406287e+02	-3.310855e-03
1.414410e+02	-3.349197e-03
1.422579e+02	-3.387984e-03
1.430796e+02	-3.427219e-03
1.439060e+02	-3.466908e-03
1.447372e+02	-3.507057e-03
1.455732e+02	-3.547670e-03
1.464141e+02	-3.588754e-03
1.472597e+02	-3.630313e-03
1.481103e+02	-3.672354e-03
1.489658e+02	-3.714881e-03
1.498262e+02	-3.757900e-03
1.506916e+02	-3.801417e-03
1.515620e+02	-3.845438e-03
1.524374e+02	-3.889968e-03
1.533179e+02	-3.935014e-03
1.542034e+02	-3.980581e-03
1.550941e+02	-4.026676e-03
1.559899e+02	-4.073304e-03
1.568909e+02	-4.120472e-03
1.577971e+02	-4.168186e-03
1.587085e+02	-4.216452e-03
1.596252e+02	-4.265277e-03
1.605472e+02	-4.314666e-03
1.614745e+02	-4.364628e-03
1.624072e+02	-4.415167e-03
1.633453e+02	-4.466292e-03
1.642887e+02	-4.518008e-03
1.652377e+02	-4.570323e-03
1.661921e+02	-4.623243e-03
1.671520e+02	-4.676775e-03
1.681175e+02	-4.730927e-03
1.690885e+02	-4.785706e-03
1.700651e+02	-4.841119e-03
1.710474e+02	-4.897173e-03
1.720354e+02	-4.953875e-03
1.730291e+02	-5.011234e-03
1.740285e+02	-5.069256e-03
1.750337e+02	-5.127950e-03
1.760446e+02	-5.187323e-03
1.770615e+02	-5.247383e-03
1.780842e+02	-5.308138e-03
1.791128e+02	-5.369596e-03
1.801473e+02	-5.431766e-03
1.811878e+02	-5.494654e-03
1.822344e+02	-5.558270e-03
1.832870e+02	-5.622622e-03
1.843456e+02	-5.687719e-03
1.854104e+02	-5.753569e-03
1.864813e+02	-5.820181e-03
1.875584e+02	-5.887563e-03
1.886418e+02	-5.955725e-03
1.897313e+02	-6.024676e-03
1.908272e+02	-6.094424e-03
1.919294e+02	-6.164980e-03
1.930380e+02	-6.236351e-03
1.941530e+02	-6.308548e-03
1.952744e+02	-6.381580e-03
1.964023e+02	-6.455458e-03
1.975367e+02	-6.530189e-03
1.986777e+02	-6.605786e-03
1.998252e+02	-6.682256e-03
2.009794e+02	-6.759611e-03
2.021403e+02	-6.837861e-03
2.033078e+02	-6.917017e-03
2.044821e+02	-6.997087e-03
2.056632e+02	-7.078084e-03
2.068511e+02	-7.160018e-03
2.080459e+02	-7.242899e-03
2.092475e+02	-7.326739e-03
2.104561e+02	-7.411548e-03
2.116717e+02	-7.497339e-03
2.128943e+02	-7.584121e-03
2.141240e+02	-7.671907e-03
2.153608e+02	-7.760709e-03
2.166047e+02	-7.850537e-03
2.178558e+02	-7.941404e-03
2.191141e+02	-8.033322e-03
2.203797e+02	-8.126302e-03
2.216526e+02	-8.220358e-03
2.229329e+02	-8.315502e-03
2.242205e+02	-8.411745e-03
2.255156e+02	-8.509102e-03
2.268182e+02	-8.607584e-03
2.281283e+02	-8.707205e-03
2.294459e+02	-8.807977e-03
2.307712e+02	-8.909915e-03
2.321041e+02	-9.013031e-03
2.334447e+02	-9.117339e-03
2.347931e+02	-9.222854e-03
2.361493e+02	-9.329587e-03
2.375133e+02	-9.437555e-03
2.388851e+02	-9.546771e-03
2.402649e+02	-9.657250e-03
2.416527e+02	-9.769005e-03
2.430484e+02	-9.882052e-03
2.444523e+02	-9.996406e-03
2.458642e+02	-1.011208e-02
2.472843e+02	-1.022909e-02
2.487126e+02	-1.034746e-02
2.501492e+02	-1.046719e-02
2.515940e+02	-1.058831e-02
2.530472e+02	-1.071083e-02
2.545088e+02	-1.083476e-02
2.559789e+02	-1.096012e-02
2.574574e+02	-1.108694e-02
2.589444e+02	-1.121521e-02
2.604401e+02	-1.134497e-02
2.619444e+02	-1.147623e-02
2.634574e+02	-1.160901e-02
2.649791e+02	-1.174332e-02
2.665096e+02	-1.187919e-02
2.680489e+02	-1.201662e-02
2.695972e+02	-1.215564e-02
2.711544e+02	-1.229626e-02
2.727205e+02	-1.243851e-02
2.742958e+02	-1.258241e-02
2.758801e+02	-1.272796e-02
2.774736e+02	-1.287520e-02
2.790762e+02	-1.302414e-02
2.806882e+02	-1.317480e-02
2.823094e+02	-1.332720e-02
2.839400e+02	-1.348135e-02
2.855800e+02	-1.363729e-02
2.872295e+02	-1.379503e-02
2.888886e+02	-1.395459e-02
2.905572e+02	-1.411600e-02
2.922354e+02	-1.427927e-02
2.939234e+02	-1.444442e-02
2.956211e+02	-1.461148e-02
2.973286e+02	-1.478047e-02
2.990459e+02	-1.495141e-02
3.007732e+02	-1.512432e-02
3.025104e+02	-1.529923e-02
3.042577e+02	-1.547616e-02
3.060151e+02	-1.565513e-02
3.077826e+02	-1.583616e-02
3.095604e+02	-1.601929e-02
3.113484e+02	-1.620453e-02
3.131467e+02	-1.639191e-02
3.149554e+02	-1.658145e-02
3.167746e+02	-1.677318e-02
3.186043e+02	-1.696712e-02
3.204445e+02	-1.716330e-02
3.222954e+02	-1.736174e-02
3.241570e+02	-1.756247e-02
3.260293e+02	-1.776552e-02
3.279124e+02	-1.797091e-02
3.298064e+02	-1.817867e-02
3.317114e+02	-1.838883e-02
3.336273e+02	-1.860141e-02
3.355544e+02	-1.881644e-02
3.374925e+02	-1.903396e-02
3.394418e+02	-1.925398e-02
3.414024e+02	-1.947654e-02
3.433744e+02	-1.970167e-02
3.453577e+02	-1.992939e-02
3.473525e+02	-2.015974e-02
3.493588e+02	-2.039274e-02
3.513766e+02	-2.062844e-02
3.534062e+02	-2.086684e-02
3.554474e+02	-2.110800e-02
3.575005e+02	-2.135194e-02
3.595654e+02	-2.159869e-02
3.616422e+02	-2.184829e-02
3.637311e+02	-2.210076e-02
3.658320e+02	-2.235614e-02
3.679450e+02	-2.261446e-02
3.700702e+02	-2.287577e-02
3.722077e+02	-2.314008e-02
3.743576e+02	-2.340744e-02
3.765199e+02	-2.367788e-02
3.786946e+02	-2.395143e-02
3.808820e+02	-2.422814e-02
3.830819e+02	-2.450803e-02
3.852946e+02	-2.479115e-02
3.875200e+02	-2.507753e-02
3.897583e+02	-2.536721e-02
3.920096e+02	-2.566022e-02
3.942738e+02	-2.595661e-02
3.965511e+02	-2.625642e-02
3.988416e+02	-2.655967e-02
4.011452e+02	-2.686641e-02
4.034622e+02	-2.717669e-02
4.057926e+02	-2.749054e-02
4.081365e+02	-2.780800e-02
4.104938e+02	-2.812912e-02
4.128648e+02	-2.845393e-02
4.152495e+02	-2.878248e-02
4.176480e+02	-2.911481e-02
4.200603e+02	-2.945097e-02
4.224866e+02	-2.979099e-02
4.249268e+02	-3.013493e-02
4.273812e+02	-3.048282e-02
4.298497e+02	-3.083471e-02
4.323325e+02	-3.119065e-02
4.348297e+02	-3.155069e-02
4.373412e+02	-3.191486e-02
4.398673e+02	-3.228323e-02
4.424079e+02	-3.265582e-02
4.449633e+02	-3.303271e-02
4.475334e+02	-3.341392e-02
4.501183e+02	-3.379952e-02
4.527182e+02	-3.418955e-02
4.553330e+02	-3.458406e-02
4.579630e+02	-3.498311e-02
4.606082e+02	-3.538674e-02
4.632687e+02	-3.579501e-02
4.659445e+02	-3.620797e-02
4.686358e+02	-3.662568e-02
4.713426e+02	-3.704818e-02
4.740650e+02	-3.747554e-02
4.768032e+02	-3.790780e-02
4.795572e+02	-3.834503e-02
4.823271e+02	-3.878728e-02
4.851130e+02	-3.923460e-02
4.879150e+02	-3.968706e-02
4.907332e+02	-4.014472e-02
4.935676e+02	-4.060762e-02
4.964185e+02	-4.107584e-02
4.992858e+02	-4.154943e-02
5.021696e+02	-4.202846e-02
5.050701e+02	-4.251298e-02
5.079874e+02	-4.300306e-02
5.109215e+02	-4.349876e-02
5.138726e+02	-4.400015e-02
5.168407e+02	-4.450728e-02
5.198259e+02	-4.502023e-02
5.228284e+02	-4.553906e-02
5.258482e+02	-4.606384e-02
5.288855e+02	-4.659463e-02
5.319403e+02	-4.713151e-02
5.350128e+02	-4.767453e-02
5.381030e+02	-4.822378e-02
5.412111e+02	-4.877932e-02
5.443371e+02	-4.934123e-02
5.474812e+02	-4.990957e-02
5.506434e+02	-5.048442e-02
5.538239e+02	-5.106585e-02
5.570228e+02	-5.165393e-02
5.602401e+02	-5.224875e-02
5.634760e+02	-5.285038e-02
5.667306e+02	-5.345889e-02
5.700040e+02	-5.407436e-02
5.732964e+02	-5.469687e-02
5.766077e+02	-5.532651e-02
5.799382e+02	-5.596334e-02
5.832879e+02	-5.660746e-02
5.866569e+02	-5.725894e-02
5.900454e+02	-5.791787e-02
5.934535e+02	-5.858433e-02
5.968813e+02	-5.925841e-02
6.003288e+02	-5.994019e-02
6.037963e+02	-6.062976e-02
6.072838e+02	-6.132721e-02
6.107914e+02	-6.203262e-02
6.143194e+02	-6.274609e-02
6.178676e+02	-6.346770e-02
6.214364e+02	-6.419755e-02
6.250258e+02	-6.493573e-02
6.286359e+02	-6.568233e-02
6.322669e+02	-6.643745e-02
6.359189e+02	-6.720119e-02
6.395919e+02	-6.797364e-02
6.432862e+02	-6.875489e-02
6.470017e+02	-6.954505e-02
6.507388e+02	-7.034422e-02
6.544974e+02	-7.115250e-02
6.582778e+02	-7.196998e-02
6.620800e+02	-7.279678e-02
6.659041e+02	-7.363300e-02
6.697504e+02	-7.447874e-02
6.736188e+02	-7.533411e-02
6.775096e+02	-7.619922e-02
6.814229e+02	-7.707418e-02
6.853587e+02	-7.795909e-02
6.893173e+02	-7.885406e-02
6.932988e+02	-7.975922e-02
6.973033e+02	-8.067467e-02
7.013309e+02	-8.160053e-02
