Frequency(Hz)	Magnitude(dB)
1.000000e+01	-2.258061e+00
1.005776e+01	-2.278374e+00
1.011585e+01	-2.299189e+00
1.017428e+01	-2.319760e+00
1.023305e+01	-2.340509e+00
1.029215e+01	-2.361260e+00
1.035160e+01	-2.382332e+00
1.041139e+01	-2.403371e+00
1.047153e+01	-2.424794e+00
1.053201e+01	-2.446322e+00
1.059284e+01	-2.467944e+00
1.065403e+01	-2.489887e+00
1.071556e+01	-2.511564e+00
1.077746e+01	-2.533572e+00
1.083971e+01	-2.555952e+00
1.090232e+01	-2.577978e+00
1.096529e+01	-2.600774e+00
1.102862e+01	-2.623114e+00
1.109232e+01	-2.646093e+00
1.115639e+01	-2.668864e+00
1.122083e+01	-2.691991e+00
1.128564e+01	-2.715078e+00
1.135083e+01	-2.738422e+00
1.141639e+01	-2.761737e+00
1.148233e+01	-2.785574e+00
1.154865e+01	-2.809105e+00
1.161536e+01	-2.833173e+00
1.168245e+01	-2.857286e+00
1.174992e+01	-2.881506e+00
1.181779e+01	-2.905684e+00
1.188605e+01	-2.930211e+00
1.195470e+01	-2.954863e+00
1.202375e+01	-2.979348e+00
1.209320e+01	-3.004372e+00
1.216305e+01	-3.029705e+00
1.223330e+01	-3.054703e+00
1.230396e+01	-3.080048e+00
1.237503e+01	-3.105463e+00
1.244651e+01	-3.131154e+00
1.251840e+01	-3.157033e+00
1.259070e+01	-3.182783e+00
1.266343e+01	-3.209173e+00
1.273657e+01	-3.235005e+00
1.281014e+01	-3.261446e+00
1.288413e+01	-3.287930e+00
1.295855e+01	-3.314588e+00
1.303339e+01	-3.341309e+00
1.310867e+01	-3.368300e+00
1.318439e+01	-3.395399e+00
1.326054e+01	-3.422198e+00
1.333713e+01	-3.450017e+00
1.341417e+01	-3.477440e+00
1.349165e+01	-3.505065e+00
1.356958e+01	-3.532865e+00
1.364795e+01	-3.560397e+00
1.372678e+01	-3.588869e+00
1.380607e+01	-3.617194e+00
1.388581e+01	-3.645344e+00
1.396602e+01	-3.673693e+00
1.404668e+01	-3.702400e+00
1.412782e+01	-3.731395e+00
1.420942e+01	-3.760314e+00
1.429149e+01	-3.789240e+00
1.437404e+01	-3.818342e+00
1.445706e+01	-3.847702e+00
1.454057e+01	-3.877223e+00
1.462455e+01	-3.906787e+00
1.470902e+01	-3.936566e+00
1.479398e+01	-3.966564e+00
1.487943e+01	-3.996590e+00
1.496537e+01	-4.026707e+00
1.505181e+01	-4.056983e+00
1.513875e+01	-4.087455e+00
1.522619e+01	-4.117858e+00
1.531414e+01	-4.148754e+00
1.540259e+01	-4.179465e+00
1.549156e+01	-4.210555e+00
1.558103e+01	-4.241542e+00
1.567103e+01	-4.272921e+00
1.576155e+01	-4.304267e+00
1.585258e+01	-4.336060e+00
1.594415e+01	-4.367228e+00
1.603624e+01	-4.399149e+00
1.612886e+01	-4.431278e+00
1.622202e+01	-4.463260e+00
1.631572e+01	-4.495467e+00
1.640996e+01	-4.527852e+00
1.650474e+01	-4.560066e+00
1.660008e+01	-4.592490e+00
1.669596e+01	-4.625457e+00
1.679239e+01	-4.658347e+00
1.688938e+01	-4.691270e+00
1.698694e+01	-4.724538e+00
1.708505e+01	-4.757735e+00
1.718373e+01	-4.790703e+00
1.728299e+01	-4.824631e+00
1.738281e+01	-4.858207e+00
1.748322e+01	-4.891816e+00
1.758420e+01	-4.925800e+00
1.768576e+01	-4.959818e+00
1.778792e+01	-4.994040e+00
1.789066e+01	-5.028070e+00
1.799399e+01	-5.062504e+00
1.809793e+01	-5.096654e+00
1.820246e+01	-5.131404e+00
1.830760e+01	-5.166327e+00
1.841334e+01	-5.200917e+00
1.851969e+01	-5.236270e+00
1.862666e+01	-5.271471e+00
1.873425e+01	-5.306755e+00
1.884246e+01	-5.341896e+00
1.895129e+01	-5.377232e+00
1.906075e+01	-5.413087e+00
1.917085e+01	-5.448258e+00
1.928158e+01	-5.484518e+00
1.939295e+01	-5.520302e+00
1.950496e+01	-5.556313e+00
1.961762e+01	-5.592468e+00
1.973093e+01	-5.628810e+00
1.984490e+01	-5.664901e+00
1.995952e+01	-5.701536e+00
2.007480e+01	-5.738256e+00
2.019076e+01	-5.774875e+00
2.030738e+01	-5.812052e+00
2.042467e+01	-5.849040e+00
2.054264e+01	-5.885928e+00
2.066130e+01	-5.923357e+00
2.078064e+01	-5.960502e+00
2.090066e+01	-5.998139e+00
2.102139e+01	-6.035220e+00
2.114280e+01	-6.073090e+00
2.126492e+01	-6.110569e+00
2.138775e+01	-6.148109e+00
2.151128e+01	-6.186398e+00
2.163553e+01	-6.224187e+00
2.176050e+01	-6.262266e+00
2.188619e+01	-6.300840e+00
2.201260e+01	-6.339679e+00
2.213974e+01	-6.377712e+00
2.226762e+01	-6.416133e+00
2.239624e+01	-6.455045e+00
2.252560e+01	-6.493797e+00
2.265571e+01	-6.532496e+00
2.278656e+01	-6.571289e+00
2.291818e+01	-6.610530e+00
2.305055e+01	-6.649855e+00
2.318369e+01	-6.688700e+00
2.331760e+01	-6.728043e+00
2.345228e+01	-6.767968e+00
2.358774e+01	-6.807324e+00
2.372398e+01	-6.846947e+00
2.386101e+01	-6.887049e+00
2.399883e+01	-6.926305e+00
2.413745e+01	-6.966341e+00
2.427686e+01	-7.006133e+00
2.441709e+01	-7.046563e+00
2.455812e+01	-7.086895e+00
2.469997e+01	-7.126637e+00
2.484263e+01	-7.167580e+00
2.498612e+01	-7.207421e+00
2.513044e+01	-7.248716e+00
2.527559e+01	-7.288833e+00
2.542158e+01	-7.329647e+00
2.556842e+01	-7.370844e+00
2.571610e+01	-7.410988e+00
2.586463e+01	-7.452314e+00
2.601403e+01	-7.493573e+00
2.616428e+01	-7.534691e+00
2.631541e+01	-7.575865e+00
2.646740e+01	-7.616959e+00
2.662028e+01	-7.658185e+00
2.677404e+01	-7.700216e+00
2.692868e+01	-7.741972e+00
2.708422e+01	-7.783192e+00
2.724066e+01	-7.825229e+00
2.739800e+01	-7.867197e+00
2.755625e+01	-7.908744e+00
2.771541e+01	-7.950606e+00
2.787550e+01	-7.992674e+00
2.803650e+01	-8.035104e+00
2.819844e+01	-8.077081e+00
2.836131e+01	-8.119298e+00
2.852513e+01	-8.161550e+00
2.868989e+01	-8.204301e+00
2.885560e+01	-8.246382e+00
2.902227e+01	-8.289321e+00
2.918990e+01	-8.331718e+00
2.935850e+01	-8.374771e+00
2.952807e+01	-8.417021e+00
2.969863e+01	-8.460015e+00
2.987016e+01	-8.503153e+00
3.004269e+01	-8.546586e+00
3.021622e+01	-8.589025e+00
3.039075e+01	-8.632235e+00
3.056628e+01	-8.675750e+00
3.074283e+01	-8.718994e+00
3.092040e+01	-8.762096e+00
3.109900e+01	-8.805391e+00
3.127862e+01	-8.848992e+00
3.145929e+01	-8.892846e+00
3.164099e+01	-8.936426e+00
3.182375e+01	-8.979945e+00
3.200756e+01	-9.023563e+00
3.219244e+01	-9.067885e+00
3.237838e+01	-9.111138e+00
3.256540e+01	-9.155145e+00
3.275349e+01	-9.199496e+00
3.294268e+01	-9.243682e+00
3.313295e+01	-9.287611e+00
3.332433e+01	-9.331521e+00
3.351681e+01	-9.376238e+00
3.371040e+01	-9.419956e+00
3.390511e+01	-9.463994e+00
3.410094e+01	-9.508837e+00
3.429791e+01	-9.553253e+00
3.449601e+01	-9.597639e+00
3.469526e+01	-9.642195e+00
3.489566e+01	-9.687071e+00
3.509721e+01	-9.731086e+00
3.529993e+01	-9.776694e+00
3.550382e+01	-9.821026e+00
3.570889e+01	-9.866069e+00
3.591515e+01	-9.911159e+00
3.612259e+01	-9.955808e+00
3.633123e+01	-1.000081e+01
3.654108e+01	-1.004624e+01
3.675214e+01	-1.009123e+01
3.696442e+01	-1.013566e+01
3.717792e+01	-1.018156e+01
3.739266e+01	-1.022645e+01
3.760864e+01	-1.027183e+01
3.782587e+01	-1.031683e+01
3.804435e+01	-1.036225e+01
3.826409e+01	-1.040790e+01
3.848510e+01	-1.045386e+01
3.870739e+01	-1.049879e+01
3.893096e+01	-1.054414e+01
3.915583e+01	-1.059054e+01
3.938199e+01	-1.063630e+01
3.960946e+01	-1.068177e+01
3.983824e+01	-1.072761e+01
4.006834e+01	-1.077298e+01
4.029978e+01	-1.081905e+01
4.053255e+01	-1.086494e+01
4.076666e+01	-1.091074e+01
4.100213e+01	-1.095722e+01
4.123896e+01	-1.100274e+01
4.147715e+01	-1.104904e+01
4.171672e+01	-1.109564e+01
4.195767e+01	-1.114136e+01
4.220002e+01	-1.118749e+01
4.244377e+01	-1.123358e+01
4.268892e+01	-1.127996e+01
4.293549e+01	-1.132639e+01
4.318348e+01	-1.137282e+01
4.343291e+01	-1.141881e+01
4.368377e+01	-1.146554e+01
4.393609e+01	-1.151212e+01
4.418986e+01	-1.155891e+01
4.444510e+01	-1.160532e+01
4.470182e+01	-1.165192e+01
4.496001e+01	-1.169799e+01
4.521970e+01	-1.174478e+01
4.548089e+01	-1.179201e+01
4.574358e+01	-1.183850e+01
4.600779e+01	-1.188526e+01
4.627353e+01	-1.193168e+01
4.654081e+01	-1.197931e+01
4.680963e+01	-1.202585e+01
4.708000e+01	-1.207253e+01
4.735193e+01	-1.211902e+01
4.762543e+01	-1.216687e+01
4.790051e+01	-1.221359e+01
4.817719e+01	-1.226031e+01
4.845545e+01	-1.230789e+01
4.873533e+01	-1.235440e+01
4.901682e+01	-1.240202e+01
4.929994e+01	-1.244913e+01
4.958470e+01	-1.249710e+01
4.987110e+01	-1.254302e+01
5.015915e+01	-1.259087e+01
5.044887e+01	-1.263761e+01
5.074026e+01	-1.268603e+01
5.103333e+01	-1.273304e+01
5.132810e+01	-1.278002e+01
5.162457e+01	-1.282764e+01
5.192275e+01	-1.287457e+01
5.222265e+01	-1.292258e+01
5.252429e+01	-1.296885e+01
5.282767e+01	-1.301703e+01
5.313280e+01	-1.306488e+01
5.343969e+01	-1.311252e+01
5.374836e+01	-1.316142e+01
5.405880e+01	-1.320671e+01
5.437105e+01	-1.325609e+01
5.468509e+01	-1.330281e+01
5.500095e+01	-1.335045e+01
5.531863e+01	-1.339831e+01
5.563815e+01	-1.344645e+01
5.595951e+01	-1.349336e+01
5.628273e+01	-1.354249e+01
5.660782e+01	-1.358960e+01
5.693479e+01	-1.363762e+01
5.726364e+01	-1.368520e+01
5.759439e+01	-1.373308e+01
5.792705e+01	-1.378058e+01
5.826164e+01	-1.382871e+01
5.859815e+01	-1.387652e+01
5.893662e+01	-1.392482e+01
5.927703e+01	-1.397337e+01
5.961941e+01	-1.402087e+01
5.996377e+01	-1.406951e+01
6.031012e+01	-1.411800e+01
6.065847e+01	-1.416550e+01
6.100883e+01	-1.421315e+01
6.136121e+01	-1.426174e+01
6.171563e+01	-1.430983e+01
6.207210e+01	-1.435811e+01
6.243063e+01	-1.440622e+01
6.279122e+01	-1.445451e+01
6.315390e+01	-1.450247e+01
6.351868e+01	-1.455126e+01
6.388556e+01	-1.459864e+01
6.425456e+01	-1.464712e+01
6.462569e+01	-1.469557e+01
6.499897e+01	-1.474401e+01
6.537440e+01	-1.479236e+01
6.575200e+01	-1.484060e+01
6.613178e+01	-1.488923e+01
6.651375e+01	-1.493864e+01
6.689793e+01	-1.498544e+01
6.728433e+01	-1.503441e+01
6.767297e+01	-1.508264e+01
6.806384e+01	-1.513207e+01
6.845698e+01	-1.517981e+01
6.885238e+01	-1.522914e+01
6.925007e+01	-1.527685e+01
6.965005e+01	-1.532533e+01
7.005235e+01	-1.537419e+01
7.045697e+01	-1.542166e+01
7.086393e+01	-1.547181e+01
7.127323e+01	-1.551995e+01
7.168490e+01	-1.556928e+01
7.209895e+01	-1.561766e+01
7.251539e+01	-1.566651e+01
7.293424e+01	-1.571505e+01
7.335551e+01	-1.576254e+01
7.377920e+01	-1.581115e+01
7.420535e+01	-1.586027e+01
7.463396e+01	-1.590956e+01
7.506504e+01	-1.595840e+01
7.549861e+01	-1.600708e+01
7.593469e+01	-1.605541e+01
7.637328e+01	-1.610521e+01
7.681441e+01	-1.615429e+01
7.725809e+01	-1.620249e+01
7.770433e+01	-1.625116e+01
7.815315e+01	-1.630021e+01
7.860456e+01	-1.634887e+01
7.905857e+01	-1.639769e+01
7.951521e+01	-1.644757e+01
7.997449e+01	-1.649566e+01
8.043642e+01	-1.654388e+01
8.090102e+01	-1.659248e+01
8.136830e+01	-1.664163e+01
8.183828e+01	-1.669065e+01
8.231097e+01	-1.674008e+01
8.278640e+01	-1.678944e+01
8.326457e+01	-1.683944e+01
8.374550e+01	-1.688717e+01
8.422921e+01	-1.693689e+01
8.471572e+01	-1.698442e+01
8.520503e+01	-1.703507e+01
8.569717e+01	-1.708403e+01
8.619215e+01	-1.713181e+01
8.669000e+01	-1.718179e+01
8.719071e+01	-1.723001e+01
8.769432e+01	-1.727927e+01
8.820084e+01	-1.732792e+01
8.871029e+01	-1.737742e+01
8.922267e+01	-1.742742e+01
8.973802e+01	-1.747621e+01
9.025634e+01	-1.752567e+01
9.077766e+01	-1.757405e+01
9.130199e+01	-1.762414e+01
9.182935e+01	-1.767261e+01
9.235975e+01	-1.772178e+01
9.289321e+01	-1.777162e+01
9.342976e+01	-1.782045e+01
9.396941e+01	-1.786900e+01
9.451217e+01	-1.791905e+01
9.505807e+01	-1.796778e+01
9.560712e+01	-1.801745e+01
9.615934e+01	-1.806648e+01
9.671476e+01	-1.811500e+01
9.727338e+01	-1.816295e+01
9.783522e+01	-1.821391e+01
9.840032e+01	-1.826360e+01
9.896867e+01	-1.831288e+01
9.954031e+01	-1.836152e+01
1.001153e+02	-1.841216e+01
1.006935e+02	-1.846073e+01
1.012751e+02	-1.851006e+01
1.018601e+02	-1.855986e+01
1.024484e+02	-1.860825e+01
1.030402e+02	-1.865848e+01
1.036353e+02	-1.870756e+01
1.042339e+02	-1.875808e+01
1.048360e+02	-1.880602e+01
1.054415e+02	-1.885539e+01
1.060505e+02	-1.890380e+01
1.066631e+02	-1.895449e+01
1.072791e+02	-1.900424e+01
1.078988e+02	-1.905300e+01
1.085220e+02	-1.910316e+01
1.091488e+02	-1.915262e+01
1.097793e+02	-1.920118e+01
1.104133e+02	-1.924967e+01
1.110511e+02	-1.929992e+01
1.116925e+02	-1.934790e+01
1.123376e+02	-1.939941e+01
1.129865e+02	-1.944692e+01
1.136391e+02	-1.949754e+01
1.142955e+02	-1.954811e+01
1.149556e+02	-1.959696e+01
1.156196e+02	-1.964600e+01
1.162874e+02	-1.969728e+01
1.169591e+02	-1.974613e+01
1.176347e+02	-1.979572e+01
1.183141e+02	-1.984476e+01
1.189975e+02	-1.989469e+01
1.196848e+02	-1.994241e+01
1.203761e+02	-1.999431e+01
1.210714e+02	-2.004213e+01
1.217707e+02	-2.009339e+01
1.224740e+02	-2.014061e+01
1.231814e+02	-2.019122e+01
1.238929e+02	-2.024304e+01
1.246085e+02	-2.029157e+01
1.253283e+02	-2.034053e+01
1.260522e+02	-2.038840e+01
1.267802e+02	-2.043925e+01
1.275125e+02	-2.048950e+01
1.282490e+02	-2.053849e+01
1.289898e+02	-2.058816e+01
1.297348e+02	-2.063847e+01
1.304842e+02	-2.068665e+01
1.312378e+02	-2.073636e+01
1.319959e+02	-2.078566e+01
1.327583e+02	-2.083710e+01
1.335251e+02	-2.088585e+01
1.342963e+02	-2.093413e+01
1.350720e+02	-2.098525e+01
1.358522e+02	-2.103574e+01
1.366368e+02	-2.108350e+01
1.374260e+02	-2.113317e+01
1.382198e+02	-2.118353e+01
1.390182e+02	-2.123215e+01
1.398211e+02	-2.128181e+01
1.406287e+02	-2.133257e+01
1.414410e+02	-2.138129e+01
1.422579e+02	-2.142969e+01
1.430796e+02	-2.148106e+01
1.439060e+02	-2.152974e+01
1.447372e+02	-2.158140e+01
1.455732e+02	-2.163093e+01
1.464141e+02	-2.167718e+01
1.472597e+02	-2.172933e+01
1.481103e+02	-2.178047e+01
1.489658e+02	-2.182831e+01
1.498262e+02	-2.188005e+01
1.506916e+02	-2.192796e+01
1.515620e+02	-2.197887e+01
1.524374e+02	-2.202803e+01
1.533179e+02	-2.207696e+01
1.542034e+02	-2.212860e+01
1.550941e+02	-2.217757e+01
1.559899e+02	-2.222741e+01
1.568909e+02	-2.227804e+01
1.577971e+02	-2.232655e+01
1.587085e+02	-2.237538e+01
1.596252e+02	-2.242586e+01
1.605472e+02	-2.247654e+01
1.614745e+02	-2.252655e+01
1.624072e+02	-2.257494e+01
1.633453e+02	-2.262522e+01
1.642887e+02	-2.267534e+01
1.652377e+02	-2.272530e+01
1.661921e+02	-2.277547e+01
1.671520e+02	-2.282478e+01
1.681175e+02	-2.287366e+01
1.690885e+02	-2.292477e+01
1.700651e+02	-2.297428e+01
1.710474e+02	-2.302557e+01
1.720354e+02	-2.307345e+01
1.730291e+02	-2.312531e+01
1.740285e+02	-2.317284e+01
1.750337e+02	-2.322493e+01
1.760446e+02	-2.327553e+01
1.770615e+02	-2.332334e+01
1.780842e+02	-2.337057e+01
1.791128e+02	-2.342207e+01
1.801473e+02	-2.347357e+01
1.811878e+02	-2.352220e+01
1.822344e+02	-2.357146e+01
1.832870e+02	-2.362063e+01
1.843456e+02	-2.367261e+01
1.854104e+02	-2.372132e+01
1.864813e+02	-2.377212e+01
1.875584e+02	-2.382080e+01
1.886418e+02	-2.387016e+01
1.897313e+02	-2.392103e+01
1.908272e+02	-2.397458e+01
1.919294e+02	-2.402031e+01
1.930380e+02	-2.407139e+01
1.941530e+02	-2.412043e+01
1.952744e+02	-2.416912e+01
1.964023e+02	-2.421780e+01
1.975367e+02	-2.427126e+01
1.986777e+02	-2.431823e+01
1.998252e+02	-2.436860e+01
2.009794e+02	-2.442074e+01
2.021403e+02	-2.447125e+01
2.033078e+02	-2.451965e+01
2.044821e+02	-2.456859e+01
2.056632e+02	-2.461958e+01
2.068511e+02	-2.466747e+01
2.080459e+02	-2.471824e+01
2.092475e+02	-2.476784e+01
2.104561e+02	-2.482048e+01
2.116717e+02	-2.486940e+01
2.128943e+02	-2.491743e+01
2.141240e+02	-2.496685e+01
2.153608e+02	-2.501987e+01
2.166047e+02	-2.506656e+01
2.178558e+02	-2.511751e+01
2.191141e+02	-2.516916e+01
2.203797e+02	-2.522163e+01
2.216526e+02	-2.527039e+01
2.229329e+02	-2.531844e+01
2.242205e+02	-2.536299e+01
2.255156e+02	-2.541528e+01
2.268182e+02	-2.547051e+01
2.281283e+02	-2.551584e+01
2.294459e+02	-2.556642e+01
2.307712e+02	-2.561754e+01
2.321041e+02	-2.566578e+01
2.334447e+02	-2.571768e+01
2.347931e+02	-2.576758e+01
2.361493e+02	-2.581812e+01
2.375133e+02	-2.586303e+01
2.388851e+02	-2.591476e+01
2.402649e+02	-2.596850e+01
2.416527e+02	-2.601706e+01
2.430484e+02	-2.606746e+01
2.444523e+02	-2.611875e+01
2.458642e+02	-2.616473e+01
2.472843e+02	-2.621753e+01
2.487126e+02	-2.626841e+01
2.501492e+02	-2.631713e+01
2.515940e+02	-2.636977e+01
2.530472e+02	-2.641616e+01
2.545088e+02	-2.646770e+01
2.559789e+02	-2.652148e+01
2.574574e+02	-2.656700e+01
2.589444e+02	-2.661801e+01
2.604401e+02	-2.666464e+01
2.619444e+02	-2.671619e+01
2.634574e+02	-2.676684e+01
2.649791e+02	-2.681817e+01
2.665096e+02	-2.687097e+01
2.680489e+02	-2.691529e+01
2.695972e+02	-2.696665e+01
2.711544e+02	-2.701469e+01
2.727205e+02	-2.706530e+01
2.742958e+02	-2.711770e+01
2.758801e+02	-2.716552e+01
2.774736e+02	-2.721813e+01
2.790762e+02	-2.726603e+01
2.806882e+02	-2.731506e+01
2.823094e+02	-2.736446e+01
2.839400e+02	-2.741914e+01
2.855800e+02	-2.746796e+01
2.872295e+02	-2.751770e+01
2.888886e+02	-2.756817e+01
2.905572e+02	-2.761472e+01
2.922354e+02	-2.766514e+01
2.939234e+02	-2.771787e+01
2.956211e+02	-2.776685e+01
2.973286e+02	-2.781565e+01
2.990459e+02	-2.786744e+01
3.007732e+02	-2.791663e+01
3.025104e+02	-2.796503e+01
3.042577e+02	-2.801827e+01
3.060151e+02	-2.806733e+01
3.077826e+02	-2.811489e+01
3.095604e+02	-2.816627e+01
3.113484e+02	-2.821764e+01
3.131467e+02	-2.826592e+01
3.149554e+02	-2.831482e+01
3.167746e+02	-2.836770e+01
3.186043e+02	-2.841405e+01
3.204445e+02	-2.846411e+01
3.222954e+02	-2.851779e+01
3.241570e+02	-2.856761e+01
3.260293e+02	-2.861576e+01
3.279124e+02	-2.866363e+01
3.298064e+02	-2.871650e+01
3.317114e+02	-2.876405e+01
3.336273e+02	-2.881707e+01
3.355544e+02	-2.886870e+01
3.374925e+02	-2.891697e+01
3.394418e+02	-2.896926e+01
3.414024e+02	-2.901830e+01
3.433744e+02	-2.906647e+01
3.453577e+02	-2.911154e+01
3.473525e+02	-2.916234e+01
3.493588e+02	-2.921793e+01
3.513766e+02	-2.926525e+01
3.534062e+02	-2.931719e+01
3.554474e+02	-2.937092e+01
3.575005e+02	-2.941875e+01
3.595654e+02	-2.946554e+01
3.616422e+02	-2.951895e+01
3.637311e+02	-2.956428e+01
3.658320e+02	-2.961641e+01
3.679450e+02	-2.966731e+01
3.700702e+02	-2.971193e+01
3.722077e+02	-2.976775e+01
3.743576e+02	-2.982224e+01
3.765199e+02	-2.986904e+01
3.786946e+02	-2.991476e+01
3.808820e+02	-2.997035e+01
3.830819e+02	-3.001926e+01
3.852946e+02	-3.006526e+01
3.875200e+02	-3.012174e+01
3.897583e+02	-3.016794e+01
3.920096e+02	-3.021495e+01
3.942738e+02	-3.027517e+01
3.965511e+02	-3.032180e+01
3.988416e+02	-3.037315e+01
4.011452e+02	-3.041959e+01
4.034622e+02	-3.046662e+01
4.057926e+02	-3.052069e+01
4.081365e+02	-3.056929e+01
4.104938e+02	-3.061820e+01
4.128648e+02	-3.067590e+01
4.152495e+02	-3.072345e+01
4.176480e+02	-3.077847e+01
4.200603e+02	-3.082103e+01
4.224866e+02	-3.086937e+01
4.249268e+02	-3.091814e+01
4.273812e+02	-3.097308e+01
4.298497e+02	-3.101953e+01
4.323325e+02	-3.107118e+01
4.348297e+02	-3.111854e+01
4.373412e+02	-3.117185e+01
4.398673e+02	-3.122099e+01
4.424079e+02	-3.127055e+01
4.449633e+02	-3.132397e+01
4.475334e+02	-3.138044e+01
4.501183e+02	-3.142313e+01
4.527182e+02	-3.147128e+01
4.553330e+02	-3.153221e+01
4.579630e+02	-3.156891e+01
4.606082e+02	-3.162396e+01
4.632687e+02	-3.166960e+01
4.659445e+02	-3.172438e+01
4.686358e+02	-3.176811e+01
4.713426e+02	-3.182553e+01
4.740650e+02	-3.187127e+01
4.768032e+02	-3.192507e+01
4.795572e+02	-3.197384e+01
4.823271e+02	-3.202312e+01
4.851130e+02	-3.207439e+01
4.879150e+02	-3.212863e+01
4.907332e+02	-3.217825e+01
4.935676e+02	-3.223399e+01
4.964185e+02	-3.228156e+01
4.992858e+02	-3.232806e+01
5.021696e+02	-3.236901e+01
5.050701e+02	-3.242684e+01
5.079874e+02	-3.247718e+01
5.109215e+02	-3.253694e+01
5.138726e+02	-3.258049e+01
5.168407e+02	-3.262249e+01
5.198259e+02	-3.267956e+01
5.228284e+02	-3.272712e+01
5.258482e+02	-3.277413e+01
5.288855e+02	-3.283265e+01
5.319403e+02	-3.287843e+01
5.350128e+02	-3.292184e+01
5.381030e+02	-3.297669e+01
5.412111e+02	-3.303191e+01
5.443371e+02	-3.307919e+01
5.474812e+02	-3.312395e+01
5.506434e+02	-3.317792e+01
5.538239e+02	-3.323590e+01
5.570228e+02	-3.328074e+01
5.602401e+02	-3.333044e+01
5.634760e+02	-3.337835e+01
5.667306e+02	-3.343169e+01
5.700040e+02	-3.347888e+01
5.732964e+02	-3.352665e+01
5.766077e+02	-3.358136e+01
5.799382e+02	-3.363745e+01
5.832879e+02	-3.368250e+01
5.866569e+02	-3.373194e+01
5.900454e+02	-3.378800e+01
5.934535e+02	-3.383008e+01
5.968813e+02	-3.388453e+01
6.003288e+02	-3.393993e+01
6.037963e+02	-3.398528e+01
6.072838e+02	-3.403071e+01
6.107914e+02	-3.407848e+01
6.143194e+02	-3.414231e+01
6.178676e+02	-3.418828e+01
6.214364e+02	-3.422890e+01
6.250258e+02	-3.428541e+01
6.286359e+02	-3.433266e+01
6.322669e+02	-3.438490e+01
6.359189e+02	-3.442671e+01
6.395919e+02	-3.448550e+01
6.432862e+02	-3.453628e+01
6.470017e+02	-3.458872e+01
6.507388e+02	-3.464105e+01
6.544974e+02	-3.468960e+01
6.582778e+02	-3.474366e+01
6.620800e+02	-3.478861e+01
6.659041e+02	-3.484037e+01
6.697504e+02	-3.489987e+01
6.736188e+02	-3.494045e+01
6.775096e+02	-3.499320e+01
6.814229e+02	-3.503992e+01
6.853587e+02	-3.509881e+01
6.893173e+02	-3.514225e+01
6.932988e+02	-3.519565e+01
6.973033e+02	-3.524171e+01
7.013309e+02	-3.529350e+01
