Frequency(Hz)	Magnitude(dB)
1.000000e+01	-1.404465e-05
1.005776e+01	-1.420736e-05
1.011585e+01	-1.437196e-05
1.017428e+01	-1.453846e-05
1.023305e+01	-1.470689e-05
1.029215e+01	-1.487728e-05
1.035160e+01	-1.504963e-05
1.041139e+01	-1.522399e-05
1.047153e+01	-1.540036e-05
1.053201e+01	-1.557878e-05
1.059284e+01	-1.575926e-05
1.065403e+01	-1.594184e-05
1.071556e+01	-1.612653e-05
1.077746e+01	-1.631336e-05
1.083971e+01	-1.650235e-05
1.090232e+01	-1.669354e-05
1.096529e+01	-1.688694e-05
1.102862e+01	-1.708257e-05
1.109232e+01	-1.728048e-05
1.115639e+01	-1.748068e-05
1.122083e+01	-1.768320e-05
1.128564e+01	-1.788806e-05
1.135083e+01	-1.809530e-05
1.141639e+01	-1.830494e-05
1.148233e+01	-1.851701e-05
1.154865e+01	-1.873153e-05
1.161536e+01	-1.894854e-05
1.168245e+01	-1.916806e-05
1.174992e+01	-1.939013e-05
1.181779e+01	-1.961477e-05
1.188605e+01	-1.984201e-05
1.195470e+01	-2.007189e-05
1.202375e+01	-2.030442e-05
1.209320e+01	-2.053966e-05
1.216305e+01	-2.077761e-05
1.223330e+01	-2.101833e-05
1.230396e+01	-2.126183e-05
1.237503e+01	-2.150815e-05
1.244651e+01	-2.175733e-05
1.251840e+01	-2.200940e-05
1.259070e+01	-2.226438e-05
1.266343e+01	-2.252232e-05
1.273657e+01	-2.278324e-05
1.281014e+01	-2.304719e-05
1.288413e+01	-2.331420e-05
1.295855e+01	-2.358430e-05
1.303339e+01	-2.385753e-05
1.310867e+01	-2.413393e-05
1.318439e+01	-2.441353e-05
1.326054e+01	-2.469636e-05
1.333713e+01	-2.498248e-05
1.341417e+01	-2.527190e-05
1.349165e+01	-2.556469e-05
1.356958e+01	-2.586086e-05
1.364795e+01	-2.616046e-05
1.372678e+01	-2.646354e-05
1.380607e+01	-2.677012e-05
1.388581e+01	-2.708026e-05
1.396602e+01	-2.739399e-05
1.404668e+01	-2.771136e-05
1.412782e+01	-2.803240e-05
1.420942e+01	-2.835717e-05
1.429149e+01	-2.868569e-05
1.437404e+01	-2.901802e-05
1.445706e+01	-2.935420e-05
1.454057e+01	-2.969428e-05
1.462455e+01	-3.003829e-05
1.470902e+01	-3.038629e-05
1.479398e+01	-3.073833e-05
1.487943e+01	-3.109444e-05
1.496537e+01	-3.145467e-05
1.505181e+01	-3.181908e-05
1.513875e+01	-3.218771e-05
1.522619e+01	-3.256062e-05
1.531414e+01	-3.293784e-05
1.540259e+01	-3.331943e-05
1.549156e+01	-3.370545e-05
1.558103e+01	-3.409593e-05
1.567103e+01	-3.449094e-05
1.576155e+01	-3.489053e-05
1.585258e+01	-3.529474e-05
1.594415e+01	-3.570364e-05
1.603624e+01	-3.611727e-05
1.612886e+01	-3.653570e-05
1.622202e+01	-3.695897e-05
1.631572e+01	-3.738715e-05
1.640996e+01	-3.782029e-05
1.650474e+01	-3.825845e-05
1.660008e+01	-3.870168e-05
1.669596e+01	-3.915005e-05
1.679239e+01	-3.960361e-05
1.688938e+01	-4.006243e-05
1.698694e+01	-4.052656e-05
1.708505e+01	-4.099607e-05
1.718373e+01	-4.147102e-05
1.728299e+01	-4.195147e-05
1.738281e+01	-4.243749e-05
1.748322e+01	-4.292913e-05
1.758420e+01	-4.342648e-05
1.768576e+01	-4.392958e-05
1.778792e+01	-4.443852e-05
1.789066e+01	-4.495335e-05
1.799399e+01	-4.547414e-05
1.809793e+01	-4.600097e-05
1.820246e+01	-4.653390e-05
1.830760e+01	-4.707301e-05
1.841334e+01	-4.761836e-05
1.851969e+01	-4.817003e-05
1.862666e+01	-4.872809e-05
1.873425e+01	-4.929261e-05
1.884246e+01	-4.986368e-05
1.895129e+01	-5.044136e-05
1.906075e+01	-5.102573e-05
1.917085e+01	-5.161688e-05
1.928158e+01	-5.221487e-05
1.939295e+01	-5.281979e-05
1.950496e+01	-5.343172e-05
1.961762e+01	-5.405073e-05
1.973093e+01	-5.467692e-05
1.984490e+01	-5.531037e-05
1.995952e+01	-5.595115e-05
2.007480e+01	-5.659935e-05
2.019076e+01	-5.725507e-05
2.030738e+01	-5.791838e-05
2.042467e+01	-5.858938e-05
2.054264e+01	-5.926815e-05
2.066130e+01	-5.995478e-05
2.078064e+01	-6.064937e-05
2.090066e+01	-6.135200e-05
2.102139e+01	-6.206278e-05
2.114280e+01	-6.278179e-05
2.126492e+01	-6.350913e-05
2.138775e+01	-6.424489e-05
2.151128e+01	-6.498918e-05
2.163553e+01	-6.574209e-05
2.176050e+01	-6.650373e-05
2.188619e+01	-6.727419e-05
2.201260e+01	-6.805357e-05
2.213974e+01	-6.884198e-05
2.226762e+01	-6.963953e-05
2.239624e+01	-7.044632e-05
2.252560e+01	-7.126245e-05
2.265571e+01	-7.208804e-05
2.278656e+01	-7.292319e-05
2.291818e+01	-7.376802e-05
2.305055e+01	-7.462264e-05
2.318369e+01	-7.548716e-05
2.331760e+01	-7.636169e-05
2.345228e+01	-7.724635e-05
2.358774e+01	-7.814126e-05
2.372398e+01	-7.904654e-05
2.386101e+01	-7.996231e-05
2.399883e+01	-8.088869e-05
2.413745e+01	-8.182580e-05
2.427686e+01	-8.277376e-05
2.441709e+01	-8.373271e-05
2.455812e+01	-8.470277e-05
2.469997e+01	-8.568406e-05
2.484263e+01	-8.667673e-05
2.498612e+01	-8.768089e-05
2.513044e+01	-8.869669e-05
2.527559e+01	-8.972425e-05
2.542158e+01	-9.076372e-05
2.556842e+01	-9.181524e-05
2.571610e+01	-9.287893e-05
2.586463e+01	-9.395495e-05
2.601403e+01	-9.504343e-05
2.616428e+01	-9.614452e-05
2.631541e+01	-9.725837e-05
2.646740e+01	-9.838512e-05
2.662028e+01	-9.952493e-05
2.677404e+01	-1.006779e-04
2.692868e+01	-1.018443e-04
2.708422e+01	-1.030242e-04
2.724066e+01	-1.042177e-04
2.739800e+01	-1.054251e-04
2.755625e+01	-1.066465e-04
2.771541e+01	-1.078820e-04
2.787550e+01	-1.091318e-04
2.803650e+01	-1.103961e-04
2.819844e+01	-1.116751e-04
2.836131e+01	-1.129689e-04
2.852513e+01	-1.142776e-04
2.868989e+01	-1.156015e-04
2.885560e+01	-1.169408e-04
2.902227e+01	-1.182956e-04
2.918990e+01	-1.196660e-04
2.935850e+01	-1.210524e-04
2.952807e+01	-1.224548e-04
2.969863e+01	-1.238734e-04
2.987016e+01	-1.253085e-04
3.004269e+01	-1.267602e-04
3.021622e+01	-1.282288e-04
3.039075e+01	-1.297143e-04
3.056628e+01	-1.312171e-04
3.074283e+01	-1.327372e-04
3.092040e+01	-1.342750e-04
3.109900e+01	-1.358306e-04
3.127862e+01	-1.374042e-04
3.145929e+01	-1.389960e-04
3.164099e+01	-1.406063e-04
3.182375e+01	-1.422353e-04
3.200756e+01	-1.438831e-04
3.219244e+01	-1.455500e-04
3.237838e+01	-1.472362e-04
3.256540e+01	-1.489419e-04
3.275349e+01	-1.506674e-04
3.294268e+01	-1.524129e-04
3.313295e+01	-1.541786e-04
3.332433e+01	-1.559648e-04
3.351681e+01	-1.577717e-04
3.371040e+01	-1.595995e-04
3.390511e+01	-1.614484e-04
3.410094e+01	-1.633188e-04
3.429791e+01	-1.652109e-04
3.449601e+01	-1.671249e-04
3.469526e+01	-1.690610e-04
3.489566e+01	-1.710196e-04
3.509721e+01	-1.730009e-04
3.529993e+01	-1.750051e-04
3.550382e+01	-1.770325e-04
3.570889e+01	-1.790834e-04
3.591515e+01	-1.811581e-04
3.612259e+01	-1.832569e-04
3.633123e+01	-1.853799e-04
3.654108e+01	-1.875275e-04
3.675214e+01	-1.897000e-04
3.696442e+01	-1.918977e-04
3.717792e+01	-1.941209e-04
3.739266e+01	-1.963697e-04
3.760864e+01	-1.986447e-04
3.782587e+01	-2.009460e-04
3.804435e+01	-2.032740e-04
3.826409e+01	-2.056289e-04
3.848510e+01	-2.080111e-04
3.870739e+01	-2.104209e-04
3.893096e+01	-2.128586e-04
3.915583e+01	-2.153246e-04
3.938199e+01	-2.178191e-04
3.960946e+01	-2.203426e-04
3.983824e+01	-2.228952e-04
4.006834e+01	-2.254775e-04
4.029978e+01	-2.280896e-04
4.053255e+01	-2.307320e-04
4.076666e+01	-2.334050e-04
4.100213e+01	-2.361090e-04
4.123896e+01	-2.388443e-04
4.147715e+01	-2.416113e-04
4.171672e+01	-2.444104e-04
4.195767e+01	-2.472419e-04
4.220002e+01	-2.501062e-04
4.244377e+01	-2.530036e-04
4.268892e+01	-2.559347e-04
4.293549e+01	-2.588996e-04
4.318348e+01	-2.618990e-04
4.343291e+01	-2.649331e-04
4.368377e+01	-2.680023e-04
4.393609e+01	-2.711071e-04
4.418986e+01	-2.742478e-04
4.444510e+01	-2.774250e-04
4.470182e+01	-2.806389e-04
4.496001e+01	-2.838901e-04
4.521970e+01	-2.871789e-04
4.548089e+01	-2.905059e-04
4.574358e+01	-2.938713e-04
4.600779e+01	-2.972758e-04
4.627353e+01	-3.007197e-04
4.654081e+01	-3.042035e-04
4.680963e+01	-3.077277e-04
4.708000e+01	-3.112926e-04
4.735193e+01	-3.148989e-04
4.762543e+01	-3.185470e-04
4.790051e+01	-3.222373e-04
4.817719e+01	-3.259704e-04
4.845545e+01	-3.297467e-04
4.873533e+01	-3.335667e-04
4.901682e+01	-3.374310e-04
4.929994e+01	-3.413401e-04
4.958470e+01	-3.452945e-04
4.987110e+01	-3.492947e-04
5.015915e+01	-3.533412e-04
5.044887e+01	-3.574346e-04
5.074026e+01	-3.615754e-04
5.103333e+01	-3.657641e-04
5.132810e+01	-3.700014e-04
5.162457e+01	-3.742878e-04
5.192275e+01	-3.786239e-04
5.222265e+01	-3.830101e-04
5.252429e+01	-3.874472e-04
5.282767e+01	-3.919357e-04
5.313280e+01	-3.964762e-04
5.343969e+01	-4.010692e-04
5.374836e+01	-4.057155e-04
5.405880e+01	-4.104156e-04
5.437105e+01	-4.151702e-04
5.468509e+01	-4.199798e-04
5.500095e+01	-4.248451e-04
5.531863e+01	-4.297669e-04
5.563815e+01	-4.347456e-04
5.595951e+01	-4.397820e-04
5.628273e+01	-4.448767e-04
5.660782e+01	-4.500305e-04
5.693479e+01	-4.552439e-04
5.726364e+01	-4.605178e-04
5.759439e+01	-4.658527e-04
5.792705e+01	-4.712494e-04
5.826164e+01	-4.767087e-04
5.859815e+01	-4.822312e-04
5.893662e+01	-4.878177e-04
5.927703e+01	-4.934688e-04
5.961941e+01	-4.991855e-04
5.996377e+01	-5.049683e-04
6.031012e+01	-5.108182e-04
6.065847e+01	-5.167358e-04
6.100883e+01	-5.227220e-04
6.136121e+01	-5.287775e-04
6.171563e+01	-5.349031e-04
6.207210e+01	-5.410998e-04
6.243063e+01	-5.473682e-04
6.279122e+01	-5.537092e-04
6.315390e+01	-5.601236e-04
6.351868e+01	-5.666124e-04
6.388556e+01	-5.731763e-04
6.425456e+01	-5.798163e-04
6.462569e+01	-5.865331e-04
6.499897e+01	-5.933278e-04
6.537440e+01	-6.002012e-04
6.575200e+01	-6.071542e-04
6.613178e+01	-6.141878e-04
6.651375e+01	-6.213028e-04
6.689793e+01	-6.285003e-04
6.728433e+01	-6.357811e-04
6.767297e+01	-6.431462e-04
6.806384e+01	-6.505967e-04
6.845698e+01	-6.581335e-04
6.885238e+01	-6.657575e-04
6.925007e+01	-6.734699e-04
6.965005e+01	-6.812716e-04
7.005235e+01	-6.891637e-04
7.045697e+01	-6.971472e-04
7.086393e+01	-7.052232e-04
7.127323e+01	-7.133928e-04
7.168490e+01	-7.216569e-04
7.209895e+01	-7.300168e-04
7.251539e+01	-7.384735e-04
7.293424e+01	-7.470282e-04
7.335551e+01	-7.556820e-04
7.377920e+01	-7.644360e-04
7.420535e+01	-7.732914e-04
7.463396e+01	-7.822494e-04
7.506504e+01	-7.913112e-04
7.549861e+01	-8.004779e-04
7.593469e+01	-8.097508e-04
7.637328e+01	-8.191311e-04
7.681441e+01	-8.286200e-04
7.725809e+01	-8.382189e-04
7.770433e+01	-8.479289e-04
7.815315e+01	-8.577514e-04
7.860456e+01	-8.676877e-04
7.905857e+01	-8.777391e-04
7.951521e+01	-8.879069e-04
7.997449e+01	-8.981925e-04
8.043642e+01	-9.085972e-04
8.090102e+01	-9.191224e-04
8.136830e+01	-9.297696e-04
8.183828e+01	-9.405401e-04
8.231097e+01	-9.514353e-04
8.278640e+01	-9.624567e-04
8.326457e+01	-9.736058e-04
8.374550e+01	-9.848840e-04
8.422921e+01	-9.962928e-04
8.471572e+01	-1.007834e-03
8.520503e+01	-1.019508e-03
8.569717e+01	-1.031318e-03
8.619215e+01	-1.043265e-03
8.669000e+01	-1.055350e-03
8.719071e+01	-1.067575e-03
8.769432e+01	-1.079942e-03
8.820084e+01	-1.092452e-03
8.871029e+01	-1.105106e-03
8.922267e+01	-1.117908e-03
8.973802e+01	-1.130857e-03
9.025634e+01	-1.143957e-03
9.077766e+01	-1.157208e-03
9.130199e+01	-1.170613e-03
9.182935e+01	-1.184173e-03
9.235975e+01	-1.197890e-03
9.289321e+01	-1.211766e-03
9.342976e+01	-1.225802e-03
9.396941e+01	-1.240002e-03
9.451217e+01	-1.254365e-03
9.505807e+01	-1.268895e-03
9.560712e+01	-1.283594e-03
9.615934e+01	-1.298462e-03
9.671476e+01	-1.313503e-03
9.727338e+01	-1.328718e-03
9.783522e+01	-1.344109e-03
9.840032e+01	-1.359679e-03
9.896867e+01	-1.375428e-03
9.954031e+01	-1.391360e-03
1.001153e+02	-1.407477e-03
1.006935e+02	-1.423780e-03
1.012751e+02	-1.440273e-03
1.018601e+02	-1.456956e-03
1.024484e+02	-1.473832e-03
1.030402e+02	-1.490904e-03
1.036353e+02	-1.508173e-03
1.042339e+02	-1.525643e-03
1.048360e+02	-1.543315e-03
1.054415e+02	-1.561191e-03
1.060505e+02	-1.579275e-03
1.066631e+02	-1.597568e-03
1.072791e+02	-1.616073e-03
1.078988e+02	-1.634792e-03
1.085220e+02	-1.653728e-03
1.091488e+02	-1.672883e-03
1.097793e+02	-1.692260e-03
1.104133e+02	-1.711861e-03
1.110511e+02	-1.731690e-03
1.116925e+02	-1.751748e-03
1.123376e+02	-1.772038e-03
1.129865e+02	-1.792563e-03
1.136391e+02	-1.813326e-03
1.142955e+02	-1.834330e-03
1.149556e+02	-1.855576e-03
1.156196e+02	-1.877069e-03
1.162874e+02	-1.898811e-03
1.169591e+02	-1.920804e-03
1.176347e+02	-1.943052e-03
1.183141e+02	-1.965558e-03
1.189975e+02	-1.988324e-03
1.196848e+02	-2.011354e-03
1.203761e+02	-2.034650e-03
1.210714e+02	-2.058217e-03
1.217707e+02	-2.082056e-03
1.224740e+02	-2.106171e-03
1.231814e+02	-2.130566e-03
1.238929e+02	-2.155243e-03
1.246085e+02	-2.180206e-03
1.253283e+02	-2.205458e-03
1.260522e+02	-2.231002e-03
1.267802e+02	-2.256842e-03
1.275125e+02	-2.282981e-03
1.282490e+02	-2.309423e-03
1.289898e+02	-2.336171e-03
1.297348e+02	-2.363229e-03
1.304842e+02	-2.390600e-03
1.312378e+02	-2.418288e-03
1.319959e+02	-2.446297e-03
1.327583e+02	-2.474630e-03
1.335251e+02	-2.503291e-03
1.342963e+02	-2.532283e-03
1.350720e+02	-2.561612e-03
1.358522e+02	-2.591280e-03
1.366368e+02	-2.621292e-03
1.374260e+02	-2.651651e-03
1.382198e+02	-2.682361e-03
1.390182e+02	-2.713427e-03
1.398211e+02	-2.744853e-03
1.406287e+02	-2.776643e-03
1.414410e+02	-2.808800e-03
1.422579e+02	-2.841331e-03
1.430796e+02	-2.874237e-03
1.439060e+02	-2.907525e-03
1.447372e+02	-2.941198e-03
1.455732e+02	-2.975261e-03
1.464141e+02	-3.009718e-03
1.472597e+02	-3.044574e-03
1.481103e+02	-3.079834e-03
1.489658e+02	-3.115502e-03
1.498262e+02	-3.151582e-03
1.506916e+02	-3.188081e-03
1.515620e+02	-3.225002e-03
1.524374e+02	-3.262350e-03
1.533179e+02	-3.300131e-03
1.542034e+02	-3.338349e-03
1.550941e+02	-3.377010e-03
1.559899e+02	-3.416118e-03
1.568909e+02	-3.455679e-03
1.577971e+02	-3.495698e-03
1.587085e+02	-3.536180e-03
1.596252e+02	-3.577130e-03
1.605472e+02	-3.618555e-03
1.614745e+02	-3.660459e-03
1.624072e+02	-3.702848e-03
1.633453e+02	-3.745728e-03
1.642887e+02	-3.789105e-03
1.652377e+02	-3.832983e-03
1.661921e+02	-3.877369e-03
1.671520e+02	-3.922269e-03
1.681175e+02	-3.967689e-03
1.690885e+02	-4.013634e-03
1.700651e+02	-4.060111e-03
1.710474e+02	-4.107127e-03
1.720354e+02	-4.154686e-03
1.730291e+02	-4.202796e-03
1.740285e+02	-4.251462e-03
1.750337e+02	-4.300692e-03
1.760446e+02	-4.350492e-03
1.770615e+02	-4.400868e-03
1.780842e+02	-4.451827e-03
1.791128e+02	-4.503375e-03
1.801473e+02	-4.555521e-03
1.811878e+02	-4.608270e-03
1.822344e+02	-4.661629e-03
1.832870e+02	-4.715606e-03
1.843456e+02	-4.770207e-03
1.854104e+02	-4.825440e-03
1.864813e+02	-4.881313e-03
1.875584e+02	-4.937832e-03
1.886418e+02	-4.995005e-03
1.897313e+02	-5.052840e-03
1.908272e+02	-5.111343e-03
1.919294e+02	-5.170524e-03
1.930380e+02	-5.230390e-03
1.941530e+02	-5.290948e-03
1.952744e+02	-5.352208e-03
1.964023e+02	-5.414176e-03
1.975367e+02	-5.476860e-03
1.986777e+02	-5.540271e-03
1.998252e+02	-5.604415e-03
2.009794e+02	-5.669301e-03
2.021403e+02	-5.734938e-03
2.033078e+02	-5.801334e-03
2.044821e+02	-5.868498e-03
2.056632e+02	-5.936440e-03
2.068511e+02	-6.005167e-03
2.080459e+02	-6.074690e-03
2.092475e+02	-6.145017e-03
2.104561e+02	-6.216157e-03
2.116717e+02	-6.288121e-03
2.128943e+02	-6.360917e-03
2.141240e+02	-6.434555e-03
2.153608e+02	-6.509045e-03
2.166047e+02	-6.584396e-03
2.178558e+02	-6.660619e-03
2.191141e+02	-6.737724e-03
2.203797e+02	-6.815721e-03
2.216526e+02	-6.894620e-03
2.229329e+02	-6.974432e-03
2.242205e+02	-7.055166e-03
2.255156e+02	-7.136835e-03
2.268182e+02	-7.219448e-03
2.281283e+02	-7.303017e-03
2.294459e+02	-7.387552e-03
2.307712e+02	-7.473064e-03
2.321041e+02	-7.559566e-03
2.334447e+02	-7.647068e-03
2.347931e+02	-7.735582e-03
2.361493e+02	-7.825120e-03
2.375133e+02	-7.915693e-03
2.388851e+02	-8.007314e-03
2.402649e+02	-8.099994e-03
2.416527e+02	-8.193745e-03
2.430484e+02	-8.288581e-03
2.444523e+02	-8.384513e-03
2.458642e+02	-8.481555e-03
2.472843e+02	-8.579718e-03
2.487126e+02	-8.679017e-03
2.501492e+02	-8.779464e-03
2.515940e+02	-8.881072e-03
2.530472e+02	-8.983854e-03
2.545088e+02	-9.087825e-03
2.559789e+02	-9.192998e-03
2.574574e+02	-9.299387e-03
2.589444e+02	-9.407006e-03
2.604401e+02	-9.515868e-03
2.619444e+02	-9.625989e-03
2.634574e+02	-9.737383e-03
2.649791e+02	-9.850065e-03
2.665096e+02	-9.964049e-03
2.680489e+02	-1.007935e-02
2.695972e+02	-1.019599e-02
2.711544e+02	-1.031397e-02
2.727205e+02	-1.043331e-02
2.742958e+02	-1.055404e-02
2.758801e+02	-1.067616e-02
2.774736e+02	-1.079969e-02
2.790762e+02	-1.092465e-02
2.806882e+02	-1.105105e-02
2.823094e+02	-1.117892e-02
2.839400e+02	-1.130826e-02
2.855800e+02	-1.143909e-02
2.872295e+02	-1.157144e-02
2.888886e+02	-1.170532e-02
2.905572e+02	-1.184074e-02
2.922354e+02	-1.197773e-02
2.939234e+02	-1.211630e-02
2.956211e+02	-1.225647e-02
2.973286e+02	-1.239826e-02
2.990459e+02	-1.254169e-02
3.007732e+02	-1.268678e-02
3.025104e+02	-1.283354e-02
3.042577e+02	-1.298200e-02
3.060151e+02	-1.313217e-02
3.077826e+02	-1.328407e-02
3.095604e+02	-1.343773e-02
3.113484e+02	-1.359317e-02
3.131467e+02	-1.375040e-02
3.149554e+02	-1.390944e-02
3.167746e+02	-1.407033e-02
3.186043e+02	-1.423307e-02
3.204445e+02	-1.439769e-02
3.222954e+02	-1.456421e-02
3.241570e+02	-1.473265e-02
3.260293e+02	-1.490304e-02
3.279124e+02	-1.507539e-02
3.298064e+02	-1.524973e-02
3.317114e+02	-1.542609e-02
3.336273e+02	-1.560448e-02
3.355544e+02	-1.578494e-02
3.374925e+02	-1.596747e-02
3.394418e+02	-1.615211e-02
3.414024e+02	-1.633889e-02
3.433744e+02	-1.652781e-02
3.453577e+02	-1.671892e-02
3.473525e+02	-1.691224e-02
3.493588e+02	-1.710778e-02
3.513766e+02	-1.730558e-02
3.534062e+02	-1.750567e-02
3.554474e+02	-1.770806e-02
3.575005e+02	-1.791279e-02
3.595654e+02	-1.811988e-02
3.616422e+02	-1.832936e-02
3.637311e+02	-1.854125e-02
3.658320e+02	-1.875559e-02
3.679450e+02	-1.897240e-02
3.700702e+02	-1.919172e-02
3.722077e+02	-1.941356e-02
3.743576e+02	-1.963796e-02
3.765199e+02	-1.986495e-02
3.786946e+02	-2.009455e-02
3.808820e+02	-2.032681e-02
3.830819e+02	-2.056174e-02
3.852946e+02	-2.079938e-02
3.875200e+02	-2.103976e-02
3.897583e+02	-2.128291e-02
3.920096e+02	-2.152886e-02
3.942738e+02	-2.177765e-02
3.965511e+02	-2.202931e-02
3.988416e+02	-2.228387e-02
4.011452e+02	-2.254136e-02
4.034622e+02	-2.280182e-02
4.057926e+02	-2.306528e-02
4.081365e+02	-2.333178e-02
4.104938e+02	-2.360134e-02
4.128648e+02	-2.387402e-02
4.152495e+02	-2.414983e-02
4.176480e+02	-2.442882e-02
4.200603e+02	-2.471103e-02
4.224866e+02	-2.499649e-02
4.249268e+02	-2.528523e-02
4.273812e+02	-2.557730e-02
4.298497e+02	-2.587273e-02
4.323325e+02	-2.617157e-02
4.348297e+02	-2.647385e-02
4.373412e+02	-2.677960e-02
4.398673e+02	-2.708888e-02
4.424079e+02	-2.740172e-02
4.449633e+02	-2.771816e-02
4.475334e+02	-2.803824e-02
4.501183e+02	-2.836200e-02
4.527182e+02	-2.868950e-02
4.553330e+02	-2.902076e-02
4.579630e+02	-2.935583e-02
4.606082e+02	-2.969476e-02
4.632687e+02	-3.003759e-02
4.659445e+02	-3.038436e-02
4.686358e+02	-3.073512e-02
4.713426e+02	-3.108991e-02
4.740650e+02	-3.144879e-02
4.768032e+02	-3.181179e-02
4.795572e+02	-3.217897e-02
4.823271e+02	-3.255037e-02
4.851130e+02	-3.292604e-02
4.879150e+02	-3.330603e-02
4.907332e+02	-3.369039e-02
4.935676e+02	-3.407916e-02
4.964185e+02	-3.447240e-02
4.992858e+02	-3.487017e-02
5.021696e+02	-3.527250e-02
5.050701e+02	-3.567946e-02
5.079874e+02	-3.609109e-02
5.109215e+02	-3.650745e-02
5.138726e+02	-3.692860e-02
5.168407e+02	-3.735458e-02
5.198259e+02	-3.778545e-02
5.228284e+02	-3.822127e-02
5.258482e+02	-3.866210e-02
5.288855e+02	-3.910799e-02
5.319403e+02	-3.955899e-02
5.350128e+02	-4.001518e-02
5.381030e+02	-4.047660e-02
5.412111e+02	-4.094331e-02
5.443371e+02	-4.141538e-02
5.474812e+02	-4.189287e-02
5.506434e+02	-4.237583e-02
5.538239e+02	-4.286434e-02
5.570228e+02	-4.335845e-02
5.602401e+02	-4.385822e-02
5.634760e+02	-4.436373e-02
5.667306e+02	-4.487503e-02
5.700040e+02	-4.539220e-02
5.732964e+02	-4.591529e-02
5.766077e+02	-4.644438e-02
5.799382e+02	-4.697953e-02
5.832879e+02	-4.752082e-02
5.866569e+02	-4.806830e-02
5.900454e+02	-4.862206e-02
5.934535e+02	-4.918216e-02
5.968813e+02	-4.974868e-02
6.003288e+02	-5.032169e-02
6.037963e+02	-5.090125e-02
6.072838e+02	-5.148745e-02
6.107914e+02	-5.208036e-02
6.143194e+02	-5.268006e-02
6.178676e+02	-5.328662e-02
6.214364e+02	-5.390012e-02
6.250258e+02	-5.452064e-02
6.286359e+02	-5.514826e-02
6.322669e+02	-5.578305e-02
6.359189e+02	-5.642511e-02
6.395919e+02	-5.707450e-02
6.432862e+02	-5.773132e-02
6.470017e+02	-5.839565e-02
6.507388e+02	-5.906757e-02
6.544974e+02	-5.974717e-02
6.582778e+02	-6.043453e-02
6.620800e+02	-6.112975e-02
6.659041e+02	-6.183290e-02
6.697504e+02	-6.254409e-02
6.736188e+02	-6.326339e-02
6.775096e+02	-6.399091e-02
6.814229e+02	-6.472673e-02
6.853587e+02	-6.547094e-02
6.893173e+02	-6.622365e-02
6.932988e+02	-6.698495e-02
6.973033e+02	-6.775492e-02
7.013309e+02	-6.853368e-02
