Frequency(Hz)	Magnitude(dB)
1.000000e+01	-2.129731e+00
1.005776e+01	-2.149047e+00
1.011585e+01	-2.168895e+00
1.017428e+01	-2.188444e+00
1.023305e+01	-2.208153e+00
1.029215e+01	-2.228334e+00
1.035160e+01	-2.248541e+00
1.041139e+01	-2.268480e+00
1.047153e+01	-2.289176e+00
1.053201e+01	-2.309701e+00
1.059284e+01	-2.330406e+00
1.065403e+01	-2.351319e+00
1.071556e+01	-2.372210e+00
1.077746e+01	-2.393476e+00
1.083971e+01	-2.414468e+00
1.090232e+01	-2.435967e+00
1.096529e+01	-2.457526e+00
1.102862e+01	-2.479206e+00
1.109232e+01	-2.501212e+00
1.115639e+01	-2.522865e+00
1.122083e+01	-2.545285e+00
1.128564e+01	-2.567598e+00
1.135083e+01	-2.589753e+00
1.141639e+01	-2.612362e+00
1.148233e+01	-2.634809e+00
1.154865e+01	-2.657998e+00
1.161536e+01	-2.680908e+00
1.168245e+01	-2.703998e+00
1.174992e+01	-2.727332e+00
1.181779e+01	-2.750785e+00
1.188605e+01	-2.774144e+00
1.195470e+01	-2.798031e+00
1.202375e+01	-2.821501e+00
1.209320e+01	-2.845696e+00
1.216305e+01	-2.869743e+00
1.223330e+01	-2.893794e+00
1.230396e+01	-2.918572e+00
1.237503e+01	-2.942983e+00
1.244651e+01	-2.967757e+00
1.251840e+01	-2.992379e+00
1.259070e+01	-3.017495e+00
1.266343e+01	-3.042722e+00
1.273657e+01	-3.067926e+00
1.281014e+01	-3.093398e+00
1.288413e+01	-3.119004e+00
1.295855e+01	-3.144735e+00
1.303339e+01	-3.170586e+00
1.310867e+01	-3.196632e+00
1.318439e+01	-3.222486e+00
1.326054e+01	-3.248728e+00
1.333713e+01	-3.275282e+00
1.341417e+01	-3.302082e+00
1.349165e+01	-3.328572e+00
1.356958e+01	-3.355321e+00
1.364795e+01	-3.382345e+00
1.372678e+01	-3.409594e+00
1.380607e+01	-3.437068e+00
1.388581e+01	-3.464372e+00
1.396602e+01	-3.491704e+00
1.404668e+01	-3.519594e+00
1.412782e+01	-3.547460e+00
1.420942e+01	-3.575468e+00
1.429149e+01	-3.603706e+00
1.437404e+01	-3.631973e+00
1.445706e+01	-3.660203e+00
1.454057e+01	-3.688773e+00
1.462455e+01	-3.717359e+00
1.470902e+01	-3.746435e+00
1.479398e+01	-3.775234e+00
1.487943e+01	-3.804286e+00
1.496537e+01	-3.833405e+00
1.505181e+01	-3.863407e+00
1.513875e+01	-3.892689e+00
1.522619e+01	-3.922431e+00
1.531414e+01	-3.952156e+00
1.540259e+01	-3.981888e+00
1.549156e+01	-4.012096e+00
1.558103e+01	-4.042298e+00
1.567103e+01	-4.073121e+00
1.576155e+01	-4.103202e+00
1.585258e+01	-4.134085e+00
1.594415e+01	-4.164614e+00
1.603624e+01	-4.195389e+00
1.612886e+01	-4.226820e+00
1.622202e+01	-4.257960e+00
1.631572e+01	-4.289066e+00
1.640996e+01	-4.320777e+00
1.650474e+01	-4.352290e+00
1.660008e+01	-4.384207e+00
1.669596e+01	-4.415731e+00
1.679239e+01	-4.447667e+00
1.688938e+01	-4.480192e+00
1.698694e+01	-4.512136e+00
1.708505e+01	-4.544762e+00
1.718373e+01	-4.577018e+00
1.728299e+01	-4.609674e+00
1.738281e+01	-4.642537e+00
1.748322e+01	-4.675793e+00
1.758420e+01	-4.708866e+00
1.768576e+01	-4.741586e+00
1.778792e+01	-4.775282e+00
1.789066e+01	-4.808691e+00
1.799399e+01	-4.842027e+00
1.809793e+01	-4.875557e+00
1.820246e+01	-4.909650e+00
1.830760e+01	-4.943190e+00
1.841334e+01	-4.977316e+00
1.851969e+01	-5.011820e+00
1.862666e+01	-5.046114e+00
1.873425e+01	-5.080337e+00
1.884246e+01	-5.115037e+00
1.895129e+01	-5.149615e+00
1.906075e+01	-5.184876e+00
1.917085e+01	-5.218899e+00
1.928158e+01	-5.254606e+00
1.939295e+01	-5.289689e+00
1.950496e+01	-5.324936e+00
1.961762e+01	-5.360306e+00
1.973093e+01	-5.395694e+00
1.984490e+01	-5.431801e+00
1.995952e+01	-5.467301e+00
2.007480e+01	-5.502995e+00
2.019076e+01	-5.539647e+00
2.030738e+01	-5.575475e+00
2.042467e+01	-5.611115e+00
2.054264e+01	-5.647853e+00
2.066130e+01	-5.684234e+00
2.078064e+01	-5.721099e+00
2.090066e+01	-5.757618e+00
2.102139e+01	-5.794239e+00
2.114280e+01	-5.830896e+00
2.126492e+01	-5.868267e+00
2.138775e+01	-5.905281e+00
2.151128e+01	-5.942455e+00
2.163553e+01	-5.980000e+00
2.176050e+01	-6.017434e+00
2.188619e+01	-6.055007e+00
2.201260e+01	-6.092789e+00
2.213974e+01	-6.130074e+00
2.226762e+01	-6.168367e+00
2.239624e+01	-6.206404e+00
2.252560e+01	-6.244142e+00
2.265571e+01	-6.282818e+00
2.278656e+01	-6.320976e+00
2.291818e+01	-6.358840e+00
2.305055e+01	-6.397725e+00
2.318369e+01	-6.436450e+00
2.331760e+01	-6.475213e+00
2.345228e+01	-6.513846e+00
2.358774e+01	-6.552864e+00
2.372398e+01	-6.592012e+00
2.386101e+01	-6.631068e+00
2.399883e+01	-6.670229e+00
2.413745e+01	-6.709883e+00
2.427686e+01	-6.748911e+00
2.441709e+01	-6.788560e+00
2.455812e+01	-6.828233e+00
2.469997e+01	-6.867852e+00
2.484263e+01	-6.907368e+00
2.498612e+01	-6.947541e+00
2.513044e+01	-6.987089e+00
2.527559e+01	-7.027363e+00
2.542158e+01	-7.067475e+00
2.556842e+01	-7.107492e+00
2.571610e+01	-7.148204e+00
2.586463e+01	-7.188267e+00
2.601403e+01	-7.228661e+00
2.616428e+01	-7.269466e+00
2.631541e+01	-7.310705e+00
2.646740e+01	-7.350731e+00
2.662028e+01	-7.391879e+00
2.677404e+01	-7.432849e+00
2.692868e+01	-7.473878e+00
2.708422e+01	-7.514535e+00
2.724066e+01	-7.556090e+00
2.739800e+01	-7.597558e+00
2.755625e+01	-7.639038e+00
2.771541e+01	-7.680121e+00
2.787550e+01	-7.721886e+00
2.803650e+01	-7.763681e+00
2.819844e+01	-7.805282e+00
2.836131e+01	-7.846763e+00
2.852513e+01	-7.888748e+00
2.868989e+01	-7.930296e+00
2.885560e+01	-7.972711e+00
2.902227e+01	-8.015099e+00
2.918990e+01	-8.057003e+00
2.935850e+01	-8.099285e+00
2.952807e+01	-8.141193e+00
2.969863e+01	-8.183628e+00
2.987016e+01	-8.226515e+00
3.004269e+01	-8.268794e+00
3.021622e+01	-8.311642e+00
3.039075e+01	-8.354522e+00
3.056628e+01	-8.397286e+00
3.074283e+01	-8.439418e+00
3.092040e+01	-8.482640e+00
3.109900e+01	-8.525608e+00
3.127862e+01	-8.568511e+00
3.145929e+01	-8.612079e+00
3.164099e+01	-8.654911e+00
3.182375e+01	-8.698306e+00
3.200756e+01	-8.741501e+00
3.219244e+01	-8.784836e+00
3.237838e+01	-8.828679e+00
3.256540e+01	-8.871808e+00
3.275349e+01	-8.915463e+00
3.294268e+01	-8.959282e+00
3.313295e+01	-9.002434e+00
3.332433e+01	-9.046352e+00
3.351681e+01	-9.090766e+00
3.371040e+01	-9.134104e+00
3.390511e+01	-9.178644e+00
3.410094e+01	-9.222075e+00
3.429791e+01	-9.266251e+00
3.449601e+01	-9.309917e+00
3.469526e+01	-9.354477e+00
3.489566e+01	-9.398437e+00
3.509721e+01	-9.442843e+00
3.529993e+01	-9.487752e+00
3.550382e+01	-9.531860e+00
3.570889e+01	-9.576506e+00
3.591515e+01	-9.621119e+00
3.612259e+01	-9.665805e+00
3.633123e+01	-9.710541e+00
3.654108e+01	-9.754163e+00
3.675214e+01	-9.799977e+00
3.696442e+01	-9.843993e+00
3.717792e+01	-9.889843e+00
3.739266e+01	-9.934367e+00
3.760864e+01	-9.978989e+00
3.782587e+01	-1.002435e+01
3.804435e+01	-1.006912e+01
3.826409e+01	-1.011461e+01
3.848510e+01	-1.015978e+01
3.870739e+01	-1.020501e+01
3.893096e+01	-1.024970e+01
3.915583e+01	-1.029592e+01
3.938199e+01	-1.034062e+01
3.960946e+01	-1.038644e+01
3.983824e+01	-1.043124e+01
4.006834e+01	-1.047725e+01
4.029978e+01	-1.052256e+01
4.053255e+01	-1.056850e+01
4.076666e+01	-1.061409e+01
4.100213e+01	-1.065957e+01
4.123896e+01	-1.070553e+01
4.147715e+01	-1.075105e+01
4.171672e+01	-1.079658e+01
4.195767e+01	-1.084321e+01
4.220002e+01	-1.088898e+01
4.244377e+01	-1.093456e+01
4.268892e+01	-1.098132e+01
4.293549e+01	-1.102739e+01
4.318348e+01	-1.107303e+01
4.343291e+01	-1.111913e+01
4.368377e+01	-1.116570e+01
4.393609e+01	-1.121171e+01
4.418986e+01	-1.125762e+01
4.444510e+01	-1.130433e+01
4.470182e+01	-1.135074e+01
4.496001e+01	-1.139728e+01
4.521970e+01	-1.144346e+01
4.548089e+01	-1.148999e+01
4.574358e+01	-1.153657e+01
4.600779e+01	-1.158239e+01
4.627353e+01	-1.162920e+01
4.654081e+01	-1.167603e+01
4.680963e+01	-1.172266e+01
4.708000e+01	-1.176926e+01
4.735193e+01	-1.181629e+01
4.762543e+01	-1.186284e+01
4.790051e+01	-1.190903e+01
4.817719e+01	-1.195715e+01
4.845545e+01	-1.200361e+01
4.873533e+01	-1.204995e+01
4.901682e+01	-1.209666e+01
4.929994e+01	-1.214410e+01
4.958470e+01	-1.219106e+01
4.987110e+01	-1.223782e+01
5.015915e+01	-1.228505e+01
5.044887e+01	-1.233270e+01
5.074026e+01	-1.237950e+01
5.103333e+01	-1.242689e+01
5.132810e+01	-1.247360e+01
5.162457e+01	-1.252005e+01
5.192275e+01	-1.256832e+01
5.222265e+01	-1.261561e+01
5.252429e+01	-1.266276e+01
5.282767e+01	-1.271009e+01
5.313280e+01	-1.275722e+01
5.343969e+01	-1.280486e+01
5.374836e+01	-1.285204e+01
5.405880e+01	-1.290014e+01
5.437105e+01	-1.294779e+01
5.468509e+01	-1.299496e+01
5.500095e+01	-1.304132e+01
5.531863e+01	-1.308984e+01
5.563815e+01	-1.313749e+01
5.595951e+01	-1.318524e+01
5.628273e+01	-1.323327e+01
5.660782e+01	-1.328068e+01
5.693479e+01	-1.332795e+01
5.726364e+01	-1.337638e+01
5.759439e+01	-1.342360e+01
5.792705e+01	-1.347057e+01
5.826164e+01	-1.351810e+01
5.859815e+01	-1.356625e+01
5.893662e+01	-1.361436e+01
5.927703e+01	-1.366278e+01
5.961941e+01	-1.370992e+01
5.996377e+01	-1.375816e+01
6.031012e+01	-1.380557e+01
6.065847e+01	-1.385434e+01
6.100883e+01	-1.390155e+01
6.136121e+01	-1.394941e+01
6.171563e+01	-1.399807e+01
6.207210e+01	-1.404665e+01
6.243063e+01	-1.409435e+01
6.279122e+01	-1.414243e+01
6.315390e+01	-1.419083e+01
6.351868e+01	-1.423844e+01
6.388556e+01	-1.428701e+01
6.425456e+01	-1.433462e+01
6.462569e+01	-1.438276e+01
6.499897e+01	-1.443128e+01
6.537440e+01	-1.447911e+01
6.575200e+01	-1.452673e+01
6.613178e+01	-1.457606e+01
6.651375e+01	-1.462431e+01
6.689793e+01	-1.467301e+01
6.728433e+01	-1.472104e+01
6.767297e+01	-1.476921e+01
6.806384e+01	-1.481723e+01
6.845698e+01	-1.486593e+01
6.885238e+01	-1.491547e+01
6.925007e+01	-1.496305e+01
6.965005e+01	-1.501222e+01
7.005235e+01	-1.505978e+01
7.045697e+01	-1.510811e+01
7.086393e+01	-1.515632e+01
7.127323e+01	-1.520512e+01
7.168490e+01	-1.525343e+01
7.209895e+01	-1.530274e+01
7.251539e+01	-1.535143e+01
7.293424e+01	-1.539938e+01
7.335551e+01	-1.544839e+01
7.377920e+01	-1.549682e+01
7.420535e+01	-1.554501e+01
7.463396e+01	-1.559457e+01
7.506504e+01	-1.564305e+01
7.549861e+01	-1.569194e+01
7.593469e+01	-1.573912e+01
7.637328e+01	-1.578906e+01
7.681441e+01	-1.583762e+01
7.725809e+01	-1.588588e+01
7.770433e+01	-1.593564e+01
7.815315e+01	-1.598521e+01
7.860456e+01	-1.603303e+01
7.905857e+01	-1.608174e+01
7.951521e+01	-1.613002e+01
7.997449e+01	-1.617877e+01
8.043642e+01	-1.622775e+01
8.090102e+01	-1.627713e+01
8.136830e+01	-1.632536e+01
8.183828e+01	-1.637423e+01
8.231097e+01	-1.642343e+01
8.278640e+01	-1.647185e+01
8.326457e+01	-1.652173e+01
8.374550e+01	-1.657094e+01
8.422921e+01	-1.661866e+01
8.471572e+01	-1.666776e+01
8.520503e+01	-1.671683e+01
8.569717e+01	-1.676597e+01
8.619215e+01	-1.681506e+01
8.669000e+01	-1.686401e+01
8.719071e+01	-1.691330e+01
8.769432e+01	-1.696126e+01
8.820084e+01	-1.701108e+01
8.871029e+01	-1.706051e+01
8.922267e+01	-1.710960e+01
8.973802e+01	-1.715807e+01
9.025634e+01	-1.720816e+01
9.077766e+01	-1.725651e+01
9.130199e+01	-1.730505e+01
9.182935e+01	-1.735416e+01
9.235975e+01	-1.740301e+01
9.289321e+01	-1.745239e+01
9.342976e+01	-1.750073e+01
9.396941e+01	-1.755102e+01
9.451217e+01	-1.760020e+01
9.505807e+01	-1.764913e+01
9.560712e+01	-1.769918e+01
9.615934e+01	-1.774679e+01
9.671476e+01	-1.779697e+01
9.727338e+01	-1.784435e+01
9.783522e+01	-1.789465e+01
9.840032e+01	-1.794481e+01
9.896867e+01	-1.799348e+01
9.954031e+01	-1.804328e+01
1.001153e+02	-1.809297e+01
1.006935e+02	-1.814213e+01
1.012751e+02	-1.819103e+01
1.018601e+02	-1.823958e+01
1.024484e+02	-1.828975e+01
1.030402e+02	-1.833819e+01
1.036353e+02	-1.838805e+01
1.042339e+02	-1.843825e+01
1.048360e+02	-1.848676e+01
1.054415e+02	-1.853642e+01
1.060505e+02	-1.858612e+01
1.066631e+02	-1.863581e+01
1.072791e+02	-1.868482e+01
1.078988e+02	-1.873357e+01
1.085220e+02	-1.878242e+01
1.091488e+02	-1.883165e+01
1.097793e+02	-1.888084e+01
1.104133e+02	-1.893181e+01
1.110511e+02	-1.898084e+01
1.116925e+02	-1.902784e+01
1.123376e+02	-1.907805e+01
1.129865e+02	-1.912848e+01
1.136391e+02	-1.917785e+01
1.142955e+02	-1.922630e+01
1.149556e+02	-1.927745e+01
1.156196e+02	-1.932566e+01
1.162874e+02	-1.937693e+01
1.169591e+02	-1.942680e+01
1.176347e+02	-1.947364e+01
1.183141e+02	-1.952473e+01
1.189975e+02	-1.957471e+01
1.196848e+02	-1.962347e+01
1.203761e+02	-1.967158e+01
1.210714e+02	-1.972124e+01
1.217707e+02	-1.977172e+01
1.224740e+02	-1.982106e+01
1.231814e+02	-1.987037e+01
1.238929e+02	-1.992216e+01
1.246085e+02	-1.996932e+01
1.253283e+02	-2.002011e+01
1.260522e+02	-2.006779e+01
1.267802e+02	-2.011988e+01
1.275125e+02	-2.016895e+01
1.282490e+02	-2.021765e+01
1.289898e+02	-2.026507e+01
1.297348e+02	-2.031697e+01
1.304842e+02	-2.036439e+01
1.312378e+02	-2.041725e+01
1.319959e+02	-2.046496e+01
1.327583e+02	-2.051466e+01
1.335251e+02	-2.056519e+01
1.342963e+02	-2.061423e+01
1.350720e+02	-2.066372e+01
1.358522e+02	-2.071414e+01
1.366368e+02	-2.076429e+01
1.374260e+02	-2.081258e+01
1.382198e+02	-2.086342e+01
1.390182e+02	-2.091304e+01
1.398211e+02	-2.096017e+01
1.406287e+02	-2.101177e+01
1.414410e+02	-2.106110e+01
1.422579e+02	-2.111101e+01
1.430796e+02	-2.116162e+01
1.439060e+02	-2.120878e+01
1.447372e+02	-2.125900e+01
1.455732e+02	-2.130988e+01
1.464141e+02	-2.135824e+01
1.472597e+02	-2.140977e+01
1.481103e+02	-2.145781e+01
1.489658e+02	-2.150782e+01
1.498262e+02	-2.155806e+01
1.506916e+02	-2.160805e+01
1.515620e+02	-2.165528e+01
1.524374e+02	-2.170687e+01
1.533179e+02	-2.175602e+01
1.542034e+02	-2.180506e+01
1.550941e+02	-2.185665e+01
1.559899e+02	-2.190642e+01
1.568909e+02	-2.195496e+01
1.577971e+02	-2.200465e+01
1.587085e+02	-2.205251e+01
1.596252e+02	-2.210344e+01
1.605472e+02	-2.215322e+01
1.614745e+02	-2.220357e+01
1.624072e+02	-2.225481e+01
1.633453e+02	-2.230371e+01
1.642887e+02	-2.235207e+01
1.652377e+02	-2.240296e+01
1.661921e+02	-2.245249e+01
1.671520e+02	-2.250226e+01
1.681175e+02	-2.255169e+01
1.690885e+02	-2.260081e+01
1.700651e+02	-2.265081e+01
1.710474e+02	-2.269896e+01
1.720354e+02	-2.275204e+01
1.730291e+02	-2.280202e+01
1.740285e+02	-2.285014e+01
1.750337e+02	-2.289869e+01
1.760446e+02	-2.295169e+01
1.770615e+02	-2.300261e+01
1.780842e+02	-2.304965e+01
1.791128e+02	-2.310022e+01
1.801473e+02	-2.314848e+01
1.811878e+02	-2.319845e+01
1.822344e+02	-2.324937e+01
1.832870e+02	-2.329861e+01
1.843456e+02	-2.334805e+01
1.854104e+02	-2.339849e+01
1.864813e+02	-2.344949e+01
1.875584e+02	-2.349895e+01
1.886418e+02	-2.354719e+01
1.897313e+02	-2.359776e+01
1.908272e+02	-2.364888e+01
1.919294e+02	-2.370018e+01
1.930380e+02	-2.374936e+01
1.941530e+02	-2.379744e+01
1.952744e+02	-2.384663e+01
1.964023e+02	-2.389454e+01
1.975367e+02	-2.394516e+01
1.986777e+02	-2.399812e+01
1.998252e+02	-2.404771e+01
2.009794e+02	-2.409768e+01
2.021403e+02	-2.414646e+01
2.033078e+02	-2.420076e+01
2.044821e+02	-2.424658e+01
2.056632e+02	-2.429848e+01
2.068511e+02	-2.434687e+01
2.080459e+02	-2.439695e+01
2.092475e+02	-2.444416e+01
2.104561e+02	-2.449568e+01
2.116717e+02	-2.454555e+01
2.128943e+02	-2.459775e+01
2.141240e+02	-2.464622e+01
2.153608e+02	-2.469605e+01
2.166047e+02	-2.474802e+01
2.178558e+02	-2.479498e+01
2.191141e+02	-2.484499e+01
2.203797e+02	-2.489410e+01
2.216526e+02	-2.494778e+01
2.229329e+02	-2.499619e+01
2.242205e+02	-2.504348e+01
2.255156e+02	-2.509596e+01
2.268182e+02	-2.514067e+01
2.281283e+02	-2.519029e+01
2.294459e+02	-2.524812e+01
2.307712e+02	-2.529673e+01
2.321041e+02	-2.534510e+01
2.334447e+02	-2.539340e+01
2.347931e+02	-2.544405e+01
2.361493e+02	-2.549616e+01
2.375133e+02	-2.554164e+01
2.388851e+02	-2.559423e+01
2.402649e+02	-2.564104e+01
2.416527e+02	-2.569084e+01
2.430484e+02	-2.574278e+01
2.444523e+02	-2.579334e+01
2.458642e+02	-2.584111e+01
2.472843e+02	-2.589274e+01
2.487126e+02	-2.594373e+01
2.501492e+02	-2.599322e+01
2.515940e+02	-2.604074e+01
2.530472e+02	-2.609517e+01
2.545088e+02	-2.614132e+01
2.559789e+02	-2.619433e+01
2.574574e+02	-2.624220e+01
2.589444e+02	-2.629465e+01
2.604401e+02	-2.634610e+01
2.619444e+02	-2.639450e+01
2.634574e+02	-2.644032e+01
2.649791e+02	-2.649193e+01
2.665096e+02	-2.654004e+01
2.680489e+02	-2.659477e+01
2.695972e+02	-2.664327e+01
2.711544e+02	-2.669447e+01
2.727205e+02	-2.674704e+01
2.742958e+02	-2.679146e+01
2.758801e+02	-2.683976e+01
2.774736e+02	-2.689184e+01
2.790762e+02	-2.694696e+01
2.806882e+02	-2.699490e+01
2.823094e+02	-2.703919e+01
2.839400e+02	-2.708927e+01
2.855800e+02	-2.714370e+01
2.872295e+02	-2.719541e+01
2.888886e+02	-2.724145e+01
2.905572e+02	-2.729555e+01
2.922354e+02	-2.734396e+01
2.939234e+02	-2.739189e+01
2.956211e+02	-2.744292e+01
2.973286e+02	-2.749385e+01
2.990459e+02	-2.754655e+01
3.007732e+02	-2.759202e+01
3.025104e+02	-2.764340e+01
3.042577e+02	-2.769215e+01
3.060151e+02	-2.774187e+01
3.077826e+02	-2.779626e+01
3.095604e+02	-2.784588e+01
3.113484e+02	-2.789252e+01
3.131467e+02	-2.794363e+01
3.149554e+02	-2.799112e+01
3.167746e+02	-2.804641e+01
3.186043e+02	-2.809900e+01
3.204445e+02	-2.814434e+01
3.222954e+02	-2.819300e+01
3.241570e+02	-2.824483e+01
3.260293e+02	-2.829327e+01
3.279124e+02	-2.834538e+01
3.298064e+02	-2.838918e+01
3.317114e+02	-2.844561e+01
3.336273e+02	-2.849337e+01
3.355544e+02	-2.854887e+01
3.374925e+02	-2.859320e+01
3.394418e+02	-2.864403e+01
3.414024e+02	-2.869657e+01
3.433744e+02	-2.874150e+01
3.453577e+02	-2.879714e+01
3.473525e+02	-2.884472e+01
3.493588e+02	-2.889403e+01
3.513766e+02	-2.894506e+01
3.534062e+02	-2.899189e+01
3.554474e+02	-2.904699e+01
3.575005e+02	-2.909720e+01
3.595654e+02	-2.914412e+01
3.616422e+02	-2.919143e+01
3.637311e+02	-2.924302e+01
3.658320e+02	-2.929124e+01
3.679450e+02	-2.934508e+01
3.700702e+02	-2.939395e+01
3.722077e+02	-2.944324e+01
3.743576e+02	-2.949852e+01
3.765199e+02	-2.954708e+01
3.786946e+02	-2.959849e+01
3.808820e+02	-2.964390e+01
3.830819e+02	-2.970112e+01
3.852946e+02	-2.974669e+01
3.875200e+02	-2.979131e+01
3.897583e+02	-2.984476e+01
3.920096e+02	-2.989427e+01
3.942738e+02	-2.994723e+01
3.965511e+02	-2.999741e+01
3.988416e+02	-3.004947e+01
4.011452e+02	-3.009437e+01
4.034622e+02	-3.014379e+01
4.057926e+02	-3.020143e+01
4.081365e+02	-3.024628e+01
4.104938e+02	-3.029712e+01
4.128648e+02	-3.034805e+01
4.152495e+02	-3.039669e+01
4.176480e+02	-3.044824e+01
4.200603e+02	-3.049853e+01
4.224866e+02	-3.055271e+01
4.249268e+02	-3.059924e+01
4.273812e+02	-3.065242e+01
4.298497e+02	-3.070041e+01
4.323325e+02	-3.074853e+01
4.348297e+02	-3.080317e+01
4.373412e+02	-3.085020e+01
4.398673e+02	-3.089900e+01
4.424079e+02	-3.094859e+01
4.449633e+02	-3.099655e+01
4.475334e+02	-3.104911e+01
4.501183e+02	-3.110575e+01
4.527182e+02	-3.115040e+01
4.553330e+02	-3.120733e+01
4.579630e+02	-3.125175e+01
4.606082e+02	-3.129827e+01
4.632687e+02	-3.135336e+01
4.659445e+02	-3.140285e+01
4.686358e+02	-3.145880e+01
4.713426e+02	-3.150137e+01
4.740650e+02	-3.155137e+01
4.768032e+02	-3.160106e+01
4.795572e+02	-3.165494e+01
4.823271e+02	-3.170187e+01
4.851130e+02	-3.175632e+01
4.879150e+02	-3.180473e+01
4.907332e+02	-3.185108e+01
4.935676e+02	-3.190472e+01
4.964185e+02	-3.195574e+01
4.992858e+02	-3.200619e+01
5.021696e+02	-3.205298e+01
5.050701e+02	-3.210011e+01
5.079874e+02	-3.215215e+01
5.109215e+02	-3.220147e+01
5.138726e+02	-3.225358e+01
5.168407e+02	-3.230849e+01
5.198259e+02	-3.235702e+01
5.228284e+02	-3.240690e+01
5.258482e+02	-3.245258e+01
5.288855e+02	-3.250454e+01
5.319403e+02	-3.256117e+01
5.350128e+02	-3.261083e+01
5.381030e+02	-3.265836e+01
5.412111e+02	-3.270051e+01
5.443371e+02	-3.275769e+01
5.474812e+02	-3.280059e+01
5.506434e+02	-3.285358e+01
5.538239e+02	-3.290677e+01
5.570228e+02	-3.295288e+01
5.602401e+02	-3.300771e+01
5.634760e+02	-3.305933e+01
5.667306e+02	-3.311331e+01
5.700040e+02	-3.315630e+01
5.732964e+02	-3.320885e+01
5.766077e+02	-3.325564e+01
5.799382e+02	-3.331418e+01
5.832879e+02	-3.336062e+01
5.866569e+02	-3.341127e+01
5.900454e+02	-3.347060e+01
5.934535e+02	-3.350898e+01
5.968813e+02	-3.356286e+01
6.003288e+02	-3.361293e+01
6.037963e+02	-3.366456e+01
6.072838e+02	-3.371308e+01
6.107914e+02	-3.376340e+01
6.143194e+02	-3.381857e+01
6.178676e+02	-3.386167e+01
6.214364e+02	-3.391501e+01
6.250258e+02	-3.396542e+01
6.286359e+02	-3.401441e+01
6.322669e+02	-3.406776e+01
6.359189e+02	-3.412228e+01
6.395919e+02	-3.417312e+01
6.432862e+02	-3.421577e+01
6.470017e+02	-3.427204e+01
6.507388e+02	-3.431571e+01
6.544974e+02	-3.436645e+01
6.582778e+02	-3.442048e+01
6.620800e+02	-3.447520e+01
6.659041e+02	-3.451986e+01
6.697504e+02	-3.457274e+01
6.736188e+02	-3.462239e+01
6.775096e+02	-3.467749e+01
6.814229e+02	-3.472594e+01
6.853587e+02	-3.476621e+01
6.893173e+02	-3.483211e+01
6.932988e+02	-3.487113e+01
6.973033e+02	-3.492326e+01
7.013309e+02	-3.496514e+01
