Frequency(Hz)	Magnitude(dB)
1.000000e+01	-2.173781e+00
1.005776e+01	-2.193355e+00
1.011585e+01	-2.213446e+00
1.017428e+01	-2.233409e+00
1.023305e+01	-2.253497e+00
1.029215e+01	-2.273985e+00
1.035160e+01	-2.294273e+00
1.041139e+01	-2.314960e+00
1.047153e+01	-2.335809e+00
1.053201e+01	-2.356539e+00
1.059284e+01	-2.377587e+00
1.065403e+01	-2.398697e+00
1.071556e+01	-2.420094e+00
1.077746e+01	-2.441550e+00
1.083971e+01	-2.463326e+00
1.090232e+01	-2.484805e+00
1.096529e+01	-2.506545e+00
1.102862e+01	-2.528723e+00
1.109232e+01	-2.550977e+00
1.115639e+01	-2.573239e+00
1.122083e+01	-2.595490e+00
1.128564e+01	-2.618192e+00
1.135083e+01	-2.640848e+00
1.141639e+01	-2.663891e+00
1.148233e+01	-2.686860e+00
1.154865e+01	-2.710089e+00
1.161536e+01	-2.733323e+00
1.168245e+01	-2.756428e+00
1.174992e+01	-2.780238e+00
1.181779e+01	-2.803746e+00
1.188605e+01	-2.827725e+00
1.195470e+01	-2.851883e+00
1.202375e+01	-2.875896e+00
1.209320e+01	-2.900061e+00
1.216305e+01	-2.924943e+00
1.223330e+01	-2.949144e+00
1.230396e+01	-2.973850e+00
1.237503e+01	-2.998863e+00
1.244651e+01	-3.023849e+00
1.251840e+01	-3.049260e+00
1.259070e+01	-3.074386e+00
1.266343e+01	-3.100012e+00
1.273657e+01	-3.125310e+00
1.281014e+01	-3.151108e+00
1.288413e+01	-3.177065e+00
1.295855e+01	-3.203290e+00
1.303339e+01	-3.229204e+00
1.310867e+01	-3.255403e+00
1.318439e+01	-3.282286e+00
1.326054e+01	-3.308662e+00
1.333713e+01	-3.335522e+00
1.341417e+01	-3.362265e+00
1.349165e+01	-3.389504e+00
1.356958e+01	-3.416488e+00
1.364795e+01	-3.443882e+00
1.372678e+01	-3.471273e+00
1.380607e+01	-3.498982e+00
1.388581e+01	-3.526439e+00
1.396602e+01	-3.554513e+00
1.404668e+01	-3.582477e+00
1.412782e+01	-3.610585e+00
1.420942e+01	-3.639168e+00
1.429149e+01	-3.667235e+00
1.437404e+01	-3.695973e+00
1.445706e+01	-3.724665e+00
1.454057e+01	-3.753875e+00
1.462455e+01	-3.782866e+00
1.470902e+01	-3.811824e+00
1.479398e+01	-3.841042e+00
1.487943e+01	-3.870463e+00
1.496537e+01	-3.900183e+00
1.505181e+01	-3.929871e+00
1.513875e+01	-3.959680e+00
1.522619e+01	-3.989492e+00
1.531414e+01	-4.019858e+00
1.540259e+01	-4.049925e+00
1.549156e+01	-4.080378e+00
1.558103e+01	-4.110919e+00
1.567103e+01	-4.141620e+00
1.576155e+01	-4.172243e+00
1.585258e+01	-4.203660e+00
1.594415e+01	-4.234602e+00
1.603624e+01	-4.265977e+00
1.612886e+01	-4.297255e+00
1.622202e+01	-4.328848e+00
1.631572e+01	-4.360359e+00
1.640996e+01	-4.392182e+00
1.650474e+01	-4.423776e+00
1.660008e+01	-4.455953e+00
1.669596e+01	-4.488154e+00
1.679239e+01	-4.520400e+00
1.688938e+01	-4.552816e+00
1.698694e+01	-4.585362e+00
1.708505e+01	-4.617982e+00
1.718373e+01	-4.650890e+00
1.728299e+01	-4.683870e+00
1.738281e+01	-4.716710e+00
1.748322e+01	-4.750157e+00
1.758420e+01	-4.783709e+00
1.768576e+01	-4.816921e+00
1.778792e+01	-4.850606e+00
1.789066e+01	-4.884181e+00
1.799399e+01	-4.918246e+00
1.809793e+01	-4.952117e+00
1.820246e+01	-4.985967e+00
1.830760e+01	-5.020186e+00
1.841334e+01	-5.054544e+00
1.851969e+01	-5.089430e+00
1.862666e+01	-5.123700e+00
1.873425e+01	-5.158358e+00
1.884246e+01	-5.193573e+00
1.895129e+01	-5.228465e+00
1.906075e+01	-5.263314e+00
1.917085e+01	-5.298478e+00
1.928158e+01	-5.333752e+00
1.939295e+01	-5.369727e+00
1.950496e+01	-5.404779e+00
1.961762e+01	-5.440568e+00
1.973093e+01	-5.476284e+00
1.984490e+01	-5.512446e+00
1.995952e+01	-5.548509e+00
2.007480e+01	-5.584295e+00
2.019076e+01	-5.620754e+00
2.030738e+01	-5.656810e+00
2.042467e+01	-5.693355e+00
2.054264e+01	-5.729855e+00
2.066130e+01	-5.766788e+00
2.078064e+01	-5.803571e+00
2.090066e+01	-5.840589e+00
2.102139e+01	-5.877717e+00
2.114280e+01	-5.914772e+00
2.126492e+01	-5.951982e+00
2.138775e+01	-5.989399e+00
2.151128e+01	-6.027014e+00
2.163553e+01	-6.064571e+00
2.176050e+01	-6.102158e+00
2.188619e+01	-6.140342e+00
2.201260e+01	-6.178033e+00
2.213974e+01	-6.215705e+00
2.226762e+01	-6.254248e+00
2.239624e+01	-6.292244e+00
2.252560e+01	-6.330867e+00
2.265571e+01	-6.369088e+00
2.278656e+01	-6.407640e+00
2.291818e+01	-6.446070e+00
2.305055e+01	-6.484756e+00
2.318369e+01	-6.523436e+00
2.331760e+01	-6.562719e+00
2.345228e+01	-6.601835e+00
2.358774e+01	-6.640935e+00
2.372398e+01	-6.679964e+00
2.386101e+01	-6.719435e+00
2.399883e+01	-6.759068e+00
2.413745e+01	-6.798441e+00
2.427686e+01	-6.837974e+00
2.441709e+01	-6.877929e+00
2.455812e+01	-6.917401e+00
2.469997e+01	-6.957297e+00
2.484263e+01	-6.997430e+00
2.498612e+01	-7.037384e+00
2.513044e+01	-7.077624e+00
2.527559e+01	-7.117880e+00
2.542158e+01	-7.158261e+00
2.556842e+01	-7.198608e+00
2.571610e+01	-7.239263e+00
2.586463e+01	-7.279847e+00
2.601403e+01	-7.320418e+00
2.616428e+01	-7.360871e+00
2.631541e+01	-7.402429e+00
2.646740e+01	-7.443068e+00
2.662028e+01	-7.484238e+00
2.677404e+01	-7.525365e+00
2.692868e+01	-7.566505e+00
2.708422e+01	-7.607700e+00
2.724066e+01	-7.649352e+00
2.739800e+01	-7.690447e+00
2.755625e+01	-7.732597e+00
2.771541e+01	-7.773910e+00
2.787550e+01	-7.815582e+00
2.803650e+01	-7.857747e+00
2.819844e+01	-7.899298e+00
2.836131e+01	-7.941578e+00
2.852513e+01	-7.984111e+00
2.868989e+01	-8.025261e+00
2.885560e+01	-8.067369e+00
2.902227e+01	-8.109995e+00
2.918990e+01	-8.152335e+00
2.935850e+01	-8.194712e+00
2.952807e+01	-8.237006e+00
2.969863e+01	-8.279703e+00
2.987016e+01	-8.322434e+00
3.004269e+01	-8.364770e+00
3.021622e+01	-8.407498e+00
3.039075e+01	-8.450681e+00
3.056628e+01	-8.493542e+00
3.074283e+01	-8.536539e+00
3.092040e+01	-8.579231e+00
3.109900e+01	-8.622145e+00
3.127862e+01	-8.665895e+00
3.145929e+01	-8.709399e+00
3.164099e+01	-8.752626e+00
3.182375e+01	-8.796038e+00
3.200756e+01	-8.839572e+00
3.219244e+01	-8.882833e+00
3.237838e+01	-8.926548e+00
3.256540e+01	-8.969913e+00
3.275349e+01	-9.013744e+00
3.294268e+01	-9.057635e+00
3.313295e+01	-9.101339e+00
3.332433e+01	-9.145676e+00
3.351681e+01	-9.189027e+00
3.371040e+01	-9.232862e+00
3.390511e+01	-9.277250e+00
3.410094e+01	-9.321890e+00
3.429791e+01	-9.366062e+00
3.449601e+01	-9.410062e+00
3.469526e+01	-9.454781e+00
3.489566e+01	-9.498868e+00
3.509721e+01	-9.542690e+00
3.529993e+01	-9.587709e+00
3.550382e+01	-9.631951e+00
3.570889e+01	-9.676890e+00
3.591515e+01	-9.721124e+00
3.612259e+01	-9.766146e+00
3.633123e+01	-9.810996e+00
3.654108e+01	-9.856033e+00
3.675214e+01	-9.901191e+00
3.696442e+01	-9.945780e+00
3.717792e+01	-9.990458e+00
3.739266e+01	-1.003556e+01
3.760864e+01	-1.008088e+01
3.782587e+01	-1.012539e+01
3.804435e+01	-1.017140e+01
3.826409e+01	-1.021583e+01
3.848510e+01	-1.026142e+01
3.870739e+01	-1.030715e+01
3.893096e+01	-1.035190e+01
3.915583e+01	-1.039781e+01
3.938199e+01	-1.044340e+01
3.960946e+01	-1.048901e+01
3.983824e+01	-1.053406e+01
4.006834e+01	-1.057979e+01
4.029978e+01	-1.062593e+01
4.053255e+01	-1.067146e+01
4.076666e+01	-1.071708e+01
4.100213e+01	-1.076359e+01
4.123896e+01	-1.080859e+01
4.147715e+01	-1.085460e+01
4.171672e+01	-1.090058e+01
4.195767e+01	-1.094674e+01
4.220002e+01	-1.099254e+01
4.244377e+01	-1.103829e+01
4.268892e+01	-1.108495e+01
4.293549e+01	-1.113075e+01
4.318348e+01	-1.117750e+01
4.343291e+01	-1.122393e+01
4.368377e+01	-1.126945e+01
4.393609e+01	-1.131558e+01
4.418986e+01	-1.136218e+01
4.444510e+01	-1.140868e+01
4.470182e+01	-1.145524e+01
4.496001e+01	-1.150226e+01
4.521970e+01	-1.154869e+01
4.548089e+01	-1.159459e+01
4.574358e+01	-1.164115e+01
4.600779e+01	-1.168802e+01
4.627353e+01	-1.173446e+01
4.654081e+01	-1.178155e+01
4.680963e+01	-1.182841e+01
4.708000e+01	-1.187455e+01
4.735193e+01	-1.192164e+01
4.762543e+01	-1.196866e+01
4.790051e+01	-1.201574e+01
4.817719e+01	-1.206219e+01
4.845545e+01	-1.210942e+01
4.873533e+01	-1.215616e+01
4.901682e+01	-1.220294e+01
4.929994e+01	-1.225000e+01
4.958470e+01	-1.229701e+01
4.987110e+01	-1.234345e+01
5.015915e+01	-1.239097e+01
5.044887e+01	-1.243798e+01
5.074026e+01	-1.248562e+01
5.103333e+01	-1.253272e+01
5.132810e+01	-1.258057e+01
5.162457e+01	-1.262766e+01
5.192275e+01	-1.267502e+01
5.222265e+01	-1.272233e+01
5.252429e+01	-1.276978e+01
5.282767e+01	-1.281702e+01
5.313280e+01	-1.286389e+01
5.343969e+01	-1.291125e+01
5.374836e+01	-1.295956e+01
5.405880e+01	-1.300657e+01
5.437105e+01	-1.305401e+01
5.468509e+01	-1.310157e+01
5.500095e+01	-1.314930e+01
5.531863e+01	-1.319715e+01
5.563815e+01	-1.324478e+01
5.595951e+01	-1.329234e+01
5.628273e+01	-1.333988e+01
5.660782e+01	-1.338810e+01
5.693479e+01	-1.343600e+01
5.726364e+01	-1.348354e+01
5.759439e+01	-1.353132e+01
5.792705e+01	-1.357956e+01
5.826164e+01	-1.362666e+01
5.859815e+01	-1.367383e+01
5.893662e+01	-1.372298e+01
5.927703e+01	-1.377048e+01
5.961941e+01	-1.381836e+01
5.996377e+01	-1.386610e+01
6.031012e+01	-1.391440e+01
6.065847e+01	-1.396199e+01
6.100883e+01	-1.400995e+01
6.136121e+01	-1.405942e+01
6.171563e+01	-1.410662e+01
6.207210e+01	-1.415530e+01
6.243063e+01	-1.420292e+01
6.279122e+01	-1.425058e+01
6.315390e+01	-1.429947e+01
6.351868e+01	-1.434782e+01
6.388556e+01	-1.439533e+01
6.425456e+01	-1.444300e+01
6.462569e+01	-1.449259e+01
6.499897e+01	-1.454048e+01
6.537440e+01	-1.458846e+01
6.575200e+01	-1.463686e+01
6.613178e+01	-1.468512e+01
6.651375e+01	-1.473381e+01
6.689793e+01	-1.478277e+01
6.728433e+01	-1.483068e+01
6.767297e+01	-1.487962e+01
6.806384e+01	-1.492674e+01
6.845698e+01	-1.497564e+01
6.885238e+01	-1.502416e+01
6.925007e+01	-1.507152e+01
6.965005e+01	-1.512056e+01
7.005235e+01	-1.516829e+01
7.045697e+01	-1.521804e+01
7.086393e+01	-1.526637e+01
7.127323e+01	-1.531486e+01
7.168490e+01	-1.536334e+01
7.209895e+01	-1.541231e+01
7.251539e+01	-1.546137e+01
7.293424e+01	-1.550877e+01
7.335551e+01	-1.555821e+01
7.377920e+01	-1.560619e+01
7.420535e+01	-1.565414e+01
7.463396e+01	-1.570307e+01
7.506504e+01	-1.575233e+01
7.549861e+01	-1.579981e+01
7.593469e+01	-1.584970e+01
7.637328e+01	-1.589841e+01
7.681441e+01	-1.594769e+01
7.725809e+01	-1.599721e+01
7.770433e+01	-1.604453e+01
7.815315e+01	-1.609348e+01
7.860456e+01	-1.614201e+01
7.905857e+01	-1.619111e+01
7.951521e+01	-1.624083e+01
7.997449e+01	-1.628941e+01
8.043642e+01	-1.633748e+01
8.090102e+01	-1.638722e+01
8.136830e+01	-1.643562e+01
8.183828e+01	-1.648556e+01
8.231097e+01	-1.653342e+01
8.278640e+01	-1.658281e+01
8.326457e+01	-1.663078e+01
8.374550e+01	-1.668101e+01
8.422921e+01	-1.672912e+01
8.471572e+01	-1.678006e+01
8.520503e+01	-1.682738e+01
8.569717e+01	-1.687635e+01
8.619215e+01	-1.692514e+01
8.669000e+01	-1.697402e+01
8.719071e+01	-1.702361e+01
8.769432e+01	-1.707239e+01
8.820084e+01	-1.712164e+01
8.871029e+01	-1.717017e+01
8.922267e+01	-1.721867e+01
8.973802e+01	-1.726919e+01
9.025634e+01	-1.731735e+01
9.077766e+01	-1.736603e+01
9.130199e+01	-1.741633e+01
9.182935e+01	-1.746443e+01
9.235975e+01	-1.751369e+01
9.289321e+01	-1.756243e+01
9.342976e+01	-1.761332e+01
9.396941e+01	-1.766178e+01
9.451217e+01	-1.771013e+01
9.505807e+01	-1.775965e+01
9.560712e+01	-1.780888e+01
9.615934e+01	-1.785852e+01
9.671476e+01	-1.790681e+01
9.727338e+01	-1.795585e+01
9.783522e+01	-1.800683e+01
9.840032e+01	-1.805474e+01
9.896867e+01	-1.810502e+01
9.954031e+01	-1.815384e+01
1.001153e+02	-1.820248e+01
1.006935e+02	-1.825222e+01
1.012751e+02	-1.830001e+01
1.018601e+02	-1.835056e+01
1.024484e+02	-1.840022e+01
1.030402e+02	-1.845074e+01
1.036353e+02	-1.849788e+01
1.042339e+02	-1.854793e+01
1.048360e+02	-1.859801e+01
1.054415e+02	-1.864610e+01
1.060505e+02	-1.869594e+01
1.066631e+02	-1.874462e+01
1.072791e+02	-1.879535e+01
1.078988e+02	-1.884424e+01
1.085220e+02	-1.889325e+01
1.091488e+02	-1.894346e+01
1.097793e+02	-1.899240e+01
1.104133e+02	-1.904252e+01
1.110511e+02	-1.909169e+01
1.116925e+02	-1.913936e+01
1.123376e+02	-1.918873e+01
1.129865e+02	-1.923917e+01
1.136391e+02	-1.928886e+01
1.142955e+02	-1.933837e+01
1.149556e+02	-1.938972e+01
1.156196e+02	-1.943607e+01
1.162874e+02	-1.948557e+01
1.169591e+02	-1.953634e+01
1.176347e+02	-1.958538e+01
1.183141e+02	-1.963539e+01
1.189975e+02	-1.968376e+01
1.196848e+02	-1.973495e+01
1.203761e+02	-1.978338e+01
1.210714e+02	-1.983347e+01
1.217707e+02	-1.988255e+01
1.224740e+02	-1.993343e+01
1.231814e+02	-1.998072e+01
1.238929e+02	-2.003318e+01
1.246085e+02	-2.008143e+01
1.253283e+02	-2.013045e+01
1.260522e+02	-2.017926e+01
1.267802e+02	-2.022975e+01
1.275125e+02	-2.028028e+01
1.282490e+02	-2.032940e+01
1.289898e+02	-2.037809e+01
1.297348e+02	-2.042710e+01
1.304842e+02	-2.047699e+01
1.312378e+02	-2.052726e+01
1.319959e+02	-2.057795e+01
1.327583e+02	-2.062656e+01
1.335251e+02	-2.067666e+01
1.342963e+02	-2.072556e+01
1.350720e+02	-2.077394e+01
1.358522e+02	-2.082583e+01
1.366368e+02	-2.087347e+01
1.374260e+02	-2.092574e+01
1.382198e+02	-2.097436e+01
1.390182e+02	-2.102365e+01
1.398211e+02	-2.107197e+01
1.406287e+02	-2.112132e+01
1.414410e+02	-2.117308e+01
1.422579e+02	-2.122265e+01
1.430796e+02	-2.127137e+01
1.439060e+02	-2.132009e+01
1.447372e+02	-2.137173e+01
1.455732e+02	-2.142233e+01
1.464141e+02	-2.146930e+01
1.472597e+02	-2.151925e+01
1.481103e+02	-2.156823e+01
1.489658e+02	-2.162096e+01
1.498262e+02	-2.166863e+01
1.506916e+02	-2.171820e+01
1.515620e+02	-2.176599e+01
1.524374e+02	-2.181709e+01
1.533179e+02	-2.186739e+01
1.542034e+02	-2.191739e+01
1.550941e+02	-2.196591e+01
1.559899e+02	-2.201854e+01
1.568909e+02	-2.206558e+01
1.577971e+02	-2.211603e+01
1.587085e+02	-2.216612e+01
1.596252e+02	-2.221573e+01
1.605472e+02	-2.226537e+01
1.614745e+02	-2.231697e+01
1.624072e+02	-2.236534e+01
1.633453e+02	-2.241558e+01
1.642887e+02	-2.246454e+01
1.652377e+02	-2.251417e+01
1.661921e+02	-2.256419e+01
1.671520e+02	-2.261352e+01
1.681175e+02	-2.266444e+01
1.690885e+02	-2.271275e+01
1.700651e+02	-2.276220e+01
1.710474e+02	-2.281378e+01
1.720354e+02	-2.286203e+01
1.730291e+02	-2.291243e+01
1.740285e+02	-2.296401e+01
1.750337e+02	-2.301072e+01
1.760446e+02	-2.306108e+01
1.770615e+02	-2.311175e+01
1.780842e+02	-2.316275e+01
1.791128e+02	-2.321161e+01
1.801473e+02	-2.326249e+01
1.811878e+02	-2.331108e+01
1.822344e+02	-2.335930e+01
1.832870e+02	-2.341075e+01
1.843456e+02	-2.346182e+01
1.854104e+02	-2.351003e+01
1.864813e+02	-2.355950e+01
1.875584e+02	-2.361198e+01
1.886418e+02	-2.365893e+01
1.897313e+02	-2.370935e+01
1.908272e+02	-2.375888e+01
1.919294e+02	-2.381026e+01
1.930380e+02	-2.385947e+01
1.941530e+02	-2.390790e+01
1.952744e+02	-2.395971e+01
1.964023e+02	-2.400954e+01
1.975367e+02	-2.405912e+01
1.986777e+02	-2.410764e+01
1.998252e+02	-2.415942e+01
2.009794e+02	-2.421049e+01
2.021403e+02	-2.425691e+01
2.033078e+02	-2.430668e+01
2.044821e+02	-2.435594e+01
2.056632e+02	-2.440712e+01
2.068511e+02	-2.445667e+01
2.080459e+02	-2.450873e+01
2.092475e+02	-2.455907e+01
2.104561e+02	-2.460569e+01
2.116717e+02	-2.465635e+01
2.128943e+02	-2.470659e+01
2.141240e+02	-2.475620e+01
2.153608e+02	-2.480671e+01
2.166047e+02	-2.485712e+01
2.178558e+02	-2.490385e+01
2.191141e+02	-2.496033e+01
2.203797e+02	-2.500704e+01
2.216526e+02	-2.505759e+01
2.229329e+02	-2.510710e+01
2.242205e+02	-2.515644e+01
2.255156e+02	-2.520560e+01
2.268182e+02	-2.525827e+01
2.281283e+02	-2.530408e+01
2.294459e+02	-2.535499e+01
2.307712e+02	-2.540358e+01
2.321041e+02	-2.546066e+01
2.334447e+02	-2.550759e+01
2.347931e+02	-2.555298e+01
2.361493e+02	-2.560581e+01
2.375133e+02	-2.565254e+01
2.388851e+02	-2.570508e+01
2.402649e+02	-2.575688e+01
2.416527e+02	-2.580525e+01
2.430484e+02	-2.585470e+01
2.444523e+02	-2.590250e+01
2.458642e+02	-2.595447e+01
2.472843e+02	-2.600568e+01
2.487126e+02	-2.605671e+01
2.501492e+02	-2.610524e+01
2.515940e+02	-2.615053e+01
2.530472e+02	-2.620248e+01
2.545088e+02	-2.625400e+01
2.559789e+02	-2.630515e+01
2.574574e+02	-2.635401e+01
2.589444e+02	-2.640376e+01
2.604401e+02	-2.645562e+01
2.619444e+02	-2.650303e+01
2.634574e+02	-2.655208e+01
2.649791e+02	-2.660471e+01
2.665096e+02	-2.665231e+01
2.680489e+02	-2.670370e+01
2.695972e+02	-2.675244e+01
2.711544e+02	-2.680311e+01
2.727205e+02	-2.685342e+01
2.742958e+02	-2.690194e+01
2.758801e+02	-2.695621e+01
2.774736e+02	-2.700474e+01
2.790762e+02	-2.705643e+01
2.806882e+02	-2.710330e+01
2.823094e+02	-2.715031e+01
2.839400e+02	-2.720360e+01
2.855800e+02	-2.725403e+01
2.872295e+02	-2.730006e+01
2.888886e+02	-2.735191e+01
2.905572e+02	-2.740547e+01
2.922354e+02	-2.745405e+01
2.939234e+02	-2.750425e+01
2.956211e+02	-2.755110e+01
2.973286e+02	-2.760192e+01
2.990459e+02	-2.765433e+01
3.007732e+02	-2.770224e+01
3.025104e+02	-2.775032e+01
3.042577e+02	-2.780582e+01
3.060151e+02	-2.785238e+01
3.077826e+02	-2.790557e+01
3.095604e+02	-2.795491e+01
3.113484e+02	-2.800449e+01
3.131467e+02	-2.805385e+01
3.149554e+02	-2.810324e+01
3.167746e+02	-2.815490e+01
3.186043e+02	-2.820298e+01
3.204445e+02	-2.825544e+01
3.222954e+02	-2.830107e+01
3.241570e+02	-2.835301e+01
3.260293e+02	-2.840584e+01
3.279124e+02	-2.845123e+01
3.298064e+02	-2.850333e+01
3.317114e+02	-2.855426e+01
3.336273e+02	-2.860466e+01
3.355544e+02	-2.865589e+01
3.374925e+02	-2.870420e+01
3.394418e+02	-2.875403e+01
3.414024e+02	-2.880420e+01
3.433744e+02	-2.885402e+01
3.453577e+02	-2.890266e+01
3.473525e+02	-2.895275e+01
3.493588e+02	-2.900231e+01
3.513766e+02	-2.905364e+01
3.534062e+02	-2.909862e+01
3.554474e+02	-2.915625e+01
3.575005e+02	-2.920115e+01
3.595654e+02	-2.925498e+01
3.616422e+02	-2.930906e+01
3.637311e+02	-2.935447e+01
3.658320e+02	-2.940044e+01
3.679450e+02	-2.945128e+01
3.700702e+02	-2.950497e+01
3.722077e+02	-2.955556e+01
3.743576e+02	-2.960380e+01
3.765199e+02	-2.965334e+01
3.786946e+02	-2.970589e+01
3.808820e+02	-2.975891e+01
3.830819e+02	-2.980365e+01
3.852946e+02	-2.984960e+01
3.875200e+02	-2.990527e+01
3.897583e+02	-2.995467e+01
3.920096e+02	-3.000827e+01
3.942738e+02	-3.005530e+01
3.965511e+02	-3.010650e+01
3.988416e+02	-3.015682e+01
4.011452e+02	-3.020701e+01
4.034622e+02	-3.025323e+01
4.057926e+02	-3.030949e+01
4.081365e+02	-3.035735e+01
4.104938e+02	-3.040762e+01
4.128648e+02	-3.045165e+01
4.152495e+02	-3.050949e+01
4.176480e+02	-3.055594e+01
4.200603e+02	-3.060776e+01
4.224866e+02	-3.065674e+01
4.249268e+02	-3.070620e+01
4.273812e+02	-3.076015e+01
4.298497e+02	-3.081219e+01
4.323325e+02	-3.085789e+01
4.348297e+02	-3.090646e+01
4.373412e+02	-3.095145e+01
4.398673e+02	-3.100675e+01
4.424079e+02	-3.105510e+01
4.449633e+02	-3.110514e+01
4.475334e+02	-3.116161e+01
4.501183e+02	-3.121383e+01
4.527182e+02	-3.126118e+01
4.553330e+02	-3.131201e+01
4.579630e+02	-3.136193e+01
4.606082e+02	-3.141064e+01
4.632687e+02	-3.145535e+01
4.659445e+02	-3.150879e+01
4.686358e+02	-3.156027e+01
4.713426e+02	-3.161040e+01
4.740650e+02	-3.165705e+01
4.768032e+02	-3.170766e+01
4.795572e+02	-3.176145e+01
4.823271e+02	-3.180372e+01
4.851130e+02	-3.186418e+01
4.879150e+02	-3.190728e+01
4.907332e+02	-3.195687e+01
4.935676e+02	-3.201061e+01
4.964185e+02	-3.206240e+01
4.992858e+02	-3.210759e+01
5.021696e+02	-3.215873e+01
5.050701e+02	-3.221284e+01
5.079874e+02	-3.226875e+01
5.109215e+02	-3.230716e+01
5.138726e+02	-3.236806e+01
5.168407e+02	-3.241390e+01
5.198259e+02	-3.246714e+01
5.228284e+02	-3.250751e+01
5.258482e+02	-3.255673e+01
5.288855e+02	-3.261887e+01
5.319403e+02	-3.265906e+01
5.350128e+02	-3.270948e+01
5.381030e+02	-3.276743e+01
5.412111e+02	-3.281401e+01
5.443371e+02	-3.285808e+01
5.474812e+02	-3.291756e+01
5.506434e+02	-3.295920e+01
5.538239e+02	-3.300571e+01
5.570228e+02	-3.306451e+01
5.602401e+02	-3.311568e+01
5.634760e+02	-3.316233e+01
5.667306e+02	-3.321328e+01
5.700040e+02	-3.327131e+01
5.732964e+02	-3.332379e+01
5.766077e+02	-3.336521e+01
5.799382e+02	-3.341385e+01
5.832879e+02	-3.347127e+01
5.866569e+02	-3.351608e+01
5.900454e+02	-3.356321e+01
5.934535e+02	-3.361338e+01
5.968813e+02	-3.367091e+01
6.003288e+02	-3.371542e+01
6.037963e+02	-3.376704e+01
6.072838e+02	-3.381928e+01
6.107914e+02	-3.386957e+01
6.143194e+02	-3.391663e+01
6.178676e+02	-3.397016e+01
6.214364e+02	-3.401301e+01
6.250258e+02	-3.406624e+01
6.286359e+02	-3.411879e+01
6.322669e+02	-3.417335e+01
6.359189e+02	-3.422172e+01
6.395919e+02	-3.426943e+01
6.432862e+02	-3.432338e+01
6.470017e+02	-3.436535e+01
6.507388e+02	-3.442195e+01
6.544974e+02	-3.446453e+01
6.582778e+02	-3.452697e+01
6.620800e+02	-3.456978e+01
6.659041e+02	-3.461858e+01
6.697504e+02	-3.467605e+01
6.736188e+02	-3.472037e+01
6.775096e+02	-3.477467e+01
6.814229e+02	-3.482541e+01
6.853587e+02	-3.487269e+01
6.893173e+02	-3.492839e+01
6.932988e+02	-3.497403e+01
6.973033e+02	-3.502291e+01
7.013309e+02	-3.508284e+01
