Frequency(Hz)	Magnitude(dB)
1.000000e+01	-2.076485e+00
1.005776e+01	-2.095702e+00
1.011585e+01	-2.114867e+00
1.017428e+01	-2.134174e+00
1.023305e+01	-2.153825e+00
1.029215e+01	-2.173266e+00
1.035160e+01	-2.193001e+00
1.041139e+01	-2.212700e+00
1.047153e+01	-2.232934e+00
1.053201e+01	-2.253146e+00
1.059284e+01	-2.273525e+00
1.065403e+01	-2.293911e+00
1.071556e+01	-2.314606e+00
1.077746e+01	-2.335110e+00
1.083971e+01	-2.356230e+00
1.090232e+01	-2.377347e+00
1.096529e+01	-2.398379e+00
1.102862e+01	-2.419690e+00
1.109232e+01	-2.441093e+00
1.115639e+01	-2.462787e+00
1.122083e+01	-2.484421e+00
1.128564e+01	-2.506235e+00
1.135083e+01	-2.528206e+00
1.141639e+01	-2.550496e+00
1.148233e+01	-2.572435e+00
1.154865e+01	-2.595212e+00
1.161536e+01	-2.617814e+00
1.168245e+01	-2.640414e+00
1.174992e+01	-2.663239e+00
1.181779e+01	-2.686096e+00
1.188605e+01	-2.709673e+00
1.195470e+01	-2.732755e+00
1.202375e+01	-2.755993e+00
1.209320e+01	-2.779743e+00
1.216305e+01	-2.803294e+00
1.223330e+01	-2.827347e+00
1.230396e+01	-2.851252e+00
1.237503e+01	-2.875588e+00
1.244651e+01	-2.899479e+00
1.251840e+01	-2.924126e+00
1.259070e+01	-2.948847e+00
1.266343e+01	-2.973661e+00
1.273657e+01	-2.998516e+00
1.281014e+01	-3.023386e+00
1.288413e+01	-3.048556e+00
1.295855e+01	-3.073973e+00
1.303339e+01	-3.099053e+00
1.310867e+01	-3.124935e+00
1.318439e+01	-3.150691e+00
1.326054e+01	-3.176376e+00
1.333713e+01	-3.202541e+00
1.341417e+01	-3.228796e+00
1.349165e+01	-3.254938e+00
1.356958e+01	-3.281638e+00
1.364795e+01	-3.308322e+00
1.372678e+01	-3.334726e+00
1.380607e+01	-3.361717e+00
1.388581e+01	-3.388737e+00
1.396602e+01	-3.415783e+00
1.404668e+01	-3.443038e+00
1.412782e+01	-3.470690e+00
1.420942e+01	-3.498292e+00
1.429149e+01	-3.526144e+00
1.437404e+01	-3.554023e+00
1.445706e+01	-3.582162e+00
1.454057e+01	-3.609943e+00
1.462455e+01	-3.638393e+00
1.470902e+01	-3.666624e+00
1.479398e+01	-3.695391e+00
1.487943e+01	-3.724053e+00
1.496537e+01	-3.753165e+00
1.505181e+01	-3.782045e+00
1.513875e+01	-3.811545e+00
1.522619e+01	-3.840569e+00
1.531414e+01	-3.869845e+00
1.540259e+01	-3.899419e+00
1.549156e+01	-3.929362e+00
1.558103e+01	-3.959027e+00
1.567103e+01	-3.989175e+00
1.576155e+01	-4.019280e+00
1.585258e+01	-4.049337e+00
1.594415e+01	-4.079927e+00
1.603624e+01	-4.110484e+00
1.612886e+01	-4.141045e+00
1.622202e+01	-4.172243e+00
1.631572e+01	-4.202791e+00
1.640996e+01	-4.234081e+00
1.650474e+01	-4.265141e+00
1.660008e+01	-4.296401e+00
1.669596e+01	-4.328075e+00
1.679239e+01	-4.359885e+00
1.688938e+01	-4.391350e+00
1.698694e+01	-4.423166e+00
1.708505e+01	-4.455302e+00
1.718373e+01	-4.487627e+00
1.728299e+01	-4.519880e+00
1.738281e+01	-4.552500e+00
1.748322e+01	-4.585013e+00
1.758420e+01	-4.617407e+00
1.768576e+01	-4.650568e+00
1.778792e+01	-4.683003e+00
1.789066e+01	-4.716225e+00
1.799399e+01	-4.749498e+00
1.809793e+01	-4.782811e+00
1.820246e+01	-4.816389e+00
1.830760e+01	-4.849911e+00
1.841334e+01	-4.883749e+00
1.851969e+01	-4.917153e+00
1.862666e+01	-4.951467e+00
1.873425e+01	-4.985572e+00
1.884246e+01	-5.019711e+00
1.895129e+01	-5.054071e+00
1.906075e+01	-5.088563e+00
1.917085e+01	-5.123121e+00
1.928158e+01	-5.157908e+00
1.939295e+01	-5.192643e+00
1.950496e+01	-5.227437e+00
1.961762e+01	-5.262577e+00
1.973093e+01	-5.297900e+00
1.984490e+01	-5.333290e+00
1.995952e+01	-5.368316e+00
2.007480e+01	-5.404109e+00
2.019076e+01	-5.439629e+00
2.030738e+01	-5.475803e+00
2.042467e+01	-5.511521e+00
2.054264e+01	-5.547520e+00
2.066130e+01	-5.583604e+00
2.078064e+01	-5.619729e+00
2.090066e+01	-5.656139e+00
2.102139e+01	-5.692811e+00
2.114280e+01	-5.729680e+00
2.126492e+01	-5.766074e+00
2.138775e+01	-5.802752e+00
2.151128e+01	-5.839645e+00
2.163553e+01	-5.876721e+00
2.176050e+01	-5.914192e+00
2.188619e+01	-5.951207e+00
2.201260e+01	-5.988303e+00
2.213974e+01	-6.026334e+00
2.226762e+01	-6.063664e+00
2.239624e+01	-6.101646e+00
2.252560e+01	-6.139229e+00
2.265571e+01	-6.176991e+00
2.278656e+01	-6.215352e+00
2.291818e+01	-6.253061e+00
2.305055e+01	-6.291528e+00
2.318369e+01	-6.329838e+00
2.331760e+01	-6.368299e+00
2.345228e+01	-6.406534e+00
2.358774e+01	-6.445296e+00
2.372398e+01	-6.484218e+00
2.386101e+01	-6.523035e+00
2.399883e+01	-6.561676e+00
2.413745e+01	-6.601013e+00
2.427686e+01	-6.640362e+00
2.441709e+01	-6.679540e+00
2.455812e+01	-6.718651e+00
2.469997e+01	-6.758032e+00
2.484263e+01	-6.797687e+00
2.498612e+01	-6.837183e+00
2.513044e+01	-6.877079e+00
2.527559e+01	-6.916635e+00
2.542158e+01	-6.956460e+00
2.556842e+01	-6.996795e+00
2.571610e+01	-7.036716e+00
2.586463e+01	-7.076933e+00
2.601403e+01	-7.117185e+00
2.616428e+01	-7.157530e+00
2.631541e+01	-7.198032e+00
2.646740e+01	-7.238624e+00
2.662028e+01	-7.279054e+00
2.677404e+01	-7.319981e+00
2.692868e+01	-7.360519e+00
2.708422e+01	-7.401717e+00
2.724066e+01	-7.442221e+00
2.739800e+01	-7.483642e+00
2.755625e+01	-7.524580e+00
2.771541e+01	-7.565808e+00
2.787550e+01	-7.607160e+00
2.803650e+01	-7.648712e+00
2.819844e+01	-7.689808e+00
2.836131e+01	-7.731806e+00
2.852513e+01	-7.772937e+00
2.868989e+01	-7.815139e+00
2.885560e+01	-7.856656e+00
2.902227e+01	-7.898573e+00
2.918990e+01	-7.940476e+00
2.935850e+01	-7.982643e+00
2.952807e+01	-8.025006e+00
2.969863e+01	-8.066755e+00
2.987016e+01	-8.108965e+00
3.004269e+01	-8.151302e+00
3.021622e+01	-8.193502e+00
3.039075e+01	-8.236045e+00
3.056628e+01	-8.278970e+00
3.074283e+01	-8.321377e+00
3.092040e+01	-8.364123e+00
3.109900e+01	-8.406655e+00
3.127862e+01	-8.449900e+00
3.145929e+01	-8.492211e+00
3.164099e+01	-8.535822e+00
3.182375e+01	-8.578582e+00
3.200756e+01	-8.621678e+00
3.219244e+01	-8.664983e+00
3.237838e+01	-8.708211e+00
3.256540e+01	-8.751886e+00
3.275349e+01	-8.795123e+00
3.294268e+01	-8.838667e+00
3.313295e+01	-8.881931e+00
3.332433e+01	-8.925769e+00
3.351681e+01	-8.969053e+00
3.371040e+01	-9.012654e+00
3.390511e+01	-9.056942e+00
3.410094e+01	-9.100450e+00
3.429791e+01	-9.144392e+00
3.449601e+01	-9.188110e+00
3.469526e+01	-9.232368e+00
3.489566e+01	-9.276615e+00
3.509721e+01	-9.320364e+00
3.529993e+01	-9.365082e+00
3.550382e+01	-9.409238e+00
3.570889e+01	-9.453490e+00
3.591515e+01	-9.497669e+00
3.612259e+01	-9.542564e+00
3.633123e+01	-9.586842e+00
3.654108e+01	-9.631263e+00
3.675214e+01	-9.676766e+00
3.696442e+01	-9.720665e+00
3.717792e+01	-9.765453e+00
3.739266e+01	-9.809902e+00
3.760864e+01	-9.854577e+00
3.782587e+01	-9.899791e+00
3.804435e+01	-9.944923e+00
3.826409e+01	-9.989666e+00
3.848510e+01	-1.003473e+01
3.870739e+01	-1.007975e+01
3.893096e+01	-1.012496e+01
3.915583e+01	-1.017026e+01
3.938199e+01	-1.021575e+01
3.960946e+01	-1.026096e+01
3.983824e+01	-1.030576e+01
4.006834e+01	-1.035163e+01
4.029978e+01	-1.039739e+01
4.053255e+01	-1.044151e+01
4.076666e+01	-1.048777e+01
4.100213e+01	-1.053287e+01
4.123896e+01	-1.057907e+01
4.147715e+01	-1.062460e+01
4.171672e+01	-1.067111e+01
4.195767e+01	-1.071645e+01
4.220002e+01	-1.076212e+01
4.244377e+01	-1.080817e+01
4.268892e+01	-1.085352e+01
4.293549e+01	-1.089904e+01
4.318348e+01	-1.094565e+01
4.343291e+01	-1.099155e+01
4.368377e+01	-1.103784e+01
4.393609e+01	-1.108353e+01
4.418986e+01	-1.112979e+01
4.444510e+01	-1.117637e+01
4.470182e+01	-1.122290e+01
4.496001e+01	-1.126908e+01
4.521970e+01	-1.131532e+01
4.548089e+01	-1.136137e+01
4.574358e+01	-1.140806e+01
4.600779e+01	-1.145437e+01
4.627353e+01	-1.150059e+01
4.654081e+01	-1.154689e+01
4.680963e+01	-1.159283e+01
4.708000e+01	-1.164054e+01
4.735193e+01	-1.168697e+01
4.762543e+01	-1.173342e+01
4.790051e+01	-1.178032e+01
4.817719e+01	-1.182660e+01
4.845545e+01	-1.187418e+01
4.873533e+01	-1.192026e+01
4.901682e+01	-1.196737e+01
4.929994e+01	-1.201367e+01
4.958470e+01	-1.206067e+01
4.987110e+01	-1.210915e+01
5.015915e+01	-1.215529e+01
5.044887e+01	-1.220207e+01
5.074026e+01	-1.224835e+01
5.103333e+01	-1.229615e+01
5.132810e+01	-1.234363e+01
5.162457e+01	-1.239051e+01
5.192275e+01	-1.243743e+01
5.222265e+01	-1.248521e+01
5.252429e+01	-1.253202e+01
5.282767e+01	-1.257946e+01
5.313280e+01	-1.262533e+01
5.343969e+01	-1.267355e+01
5.374836e+01	-1.272130e+01
5.405880e+01	-1.276807e+01
5.437105e+01	-1.281539e+01
5.468509e+01	-1.286349e+01
5.500095e+01	-1.291093e+01
5.531863e+01	-1.295834e+01
5.563815e+01	-1.300588e+01
5.595951e+01	-1.305299e+01
5.628273e+01	-1.310083e+01
5.660782e+01	-1.314896e+01
5.693479e+01	-1.319614e+01
5.726364e+01	-1.324311e+01
5.759439e+01	-1.329103e+01
5.792705e+01	-1.333859e+01
5.826164e+01	-1.338701e+01
5.859815e+01	-1.343439e+01
5.893662e+01	-1.348172e+01
5.927703e+01	-1.353012e+01
5.961941e+01	-1.357848e+01
5.996377e+01	-1.362567e+01
6.031012e+01	-1.367314e+01
6.065847e+01	-1.372215e+01
6.100883e+01	-1.376999e+01
6.136121e+01	-1.381798e+01
6.171563e+01	-1.386565e+01
6.207210e+01	-1.391401e+01
6.243063e+01	-1.396114e+01
6.279122e+01	-1.400808e+01
6.315390e+01	-1.405737e+01
6.351868e+01	-1.410574e+01
6.388556e+01	-1.415317e+01
6.425456e+01	-1.420122e+01
6.462569e+01	-1.424915e+01
6.499897e+01	-1.429818e+01
6.537440e+01	-1.434659e+01
6.575200e+01	-1.439456e+01
6.613178e+01	-1.444274e+01
6.651375e+01	-1.449060e+01
6.689793e+01	-1.453906e+01
6.728433e+01	-1.458739e+01
6.767297e+01	-1.463565e+01
6.806384e+01	-1.468388e+01
6.845698e+01	-1.473331e+01
6.885238e+01	-1.478091e+01
6.925007e+01	-1.482801e+01
6.965005e+01	-1.487816e+01
7.005235e+01	-1.492597e+01
7.045697e+01	-1.497477e+01
7.086393e+01	-1.502231e+01
7.127323e+01	-1.507089e+01
7.168490e+01	-1.511943e+01
7.209895e+01	-1.516858e+01
7.251539e+01	-1.521615e+01
7.293424e+01	-1.526514e+01
7.335551e+01	-1.531374e+01
7.377920e+01	-1.536187e+01
7.420535e+01	-1.541149e+01
7.463396e+01	-1.546008e+01
7.506504e+01	-1.550829e+01
7.549861e+01	-1.555707e+01
7.593469e+01	-1.560493e+01
7.637328e+01	-1.565422e+01
7.681441e+01	-1.570275e+01
7.725809e+01	-1.575078e+01
7.770433e+01	-1.580056e+01
7.815315e+01	-1.584902e+01
7.860456e+01	-1.589711e+01
7.905857e+01	-1.594675e+01
7.951521e+01	-1.599440e+01
7.997449e+01	-1.604372e+01
8.043642e+01	-1.609227e+01
8.090102e+01	-1.614214e+01
8.136830e+01	-1.619026e+01
8.183828e+01	-1.623855e+01
8.231097e+01	-1.628870e+01
8.278640e+01	-1.633686e+01
8.326457e+01	-1.638516e+01
8.374550e+01	-1.643438e+01
8.422921e+01	-1.648307e+01
8.471572e+01	-1.653320e+01
8.520503e+01	-1.658145e+01
8.569717e+01	-1.663036e+01
8.619215e+01	-1.667928e+01
8.669000e+01	-1.672885e+01
8.719071e+01	-1.677704e+01
8.769432e+01	-1.682595e+01
8.820084e+01	-1.687563e+01
8.871029e+01	-1.692420e+01
8.922267e+01	-1.697298e+01
8.973802e+01	-1.702169e+01
9.025634e+01	-1.707191e+01
9.077766e+01	-1.712069e+01
9.130199e+01	-1.717011e+01
9.182935e+01	-1.721937e+01
9.235975e+01	-1.726658e+01
9.289321e+01	-1.731624e+01
9.342976e+01	-1.736533e+01
9.396941e+01	-1.741428e+01
9.451217e+01	-1.746494e+01
9.505807e+01	-1.751302e+01
9.560712e+01	-1.756215e+01
9.615934e+01	-1.761167e+01
9.671476e+01	-1.765971e+01
9.727338e+01	-1.770999e+01
9.783522e+01	-1.775892e+01
9.840032e+01	-1.780716e+01
9.896867e+01	-1.785756e+01
9.954031e+01	-1.790649e+01
1.001153e+02	-1.795794e+01
1.006935e+02	-1.800584e+01
1.012751e+02	-1.805414e+01
1.018601e+02	-1.810355e+01
1.024484e+02	-1.815365e+01
1.030402e+02	-1.820241e+01
1.036353e+02	-1.825100e+01
1.042339e+02	-1.830071e+01
1.048360e+02	-1.834991e+01
1.054415e+02	-1.839893e+01
1.060505e+02	-1.844892e+01
1.066631e+02	-1.849831e+01
1.072791e+02	-1.854653e+01
1.078988e+02	-1.859568e+01
1.085220e+02	-1.864728e+01
1.091488e+02	-1.869545e+01
1.097793e+02	-1.874459e+01
1.104133e+02	-1.879337e+01
1.110511e+02	-1.884419e+01
1.116925e+02	-1.889266e+01
1.123376e+02	-1.894277e+01
1.129865e+02	-1.899163e+01
1.136391e+02	-1.904051e+01
1.142955e+02	-1.909087e+01
1.149556e+02	-1.913907e+01
1.156196e+02	-1.918849e+01
1.162874e+02	-1.923802e+01
1.169591e+02	-1.928734e+01
1.176347e+02	-1.933718e+01
1.183141e+02	-1.938595e+01
1.189975e+02	-1.943577e+01
1.196848e+02	-1.948519e+01
1.203761e+02	-1.953587e+01
1.210714e+02	-1.958545e+01
1.217707e+02	-1.963385e+01
1.224740e+02	-1.968424e+01
1.231814e+02	-1.973347e+01
1.238929e+02	-1.978279e+01
1.246085e+02	-1.983173e+01
1.253283e+02	-1.988132e+01
1.260522e+02	-1.993079e+01
1.267802e+02	-1.998054e+01
1.275125e+02	-2.003171e+01
1.282490e+02	-2.008078e+01
1.289898e+02	-2.013006e+01
1.297348e+02	-2.017885e+01
1.304842e+02	-2.022898e+01
1.312378e+02	-2.027824e+01
1.319959e+02	-2.032855e+01
1.327583e+02	-2.037653e+01
1.335251e+02	-2.042671e+01
1.342963e+02	-2.047604e+01
1.350720e+02	-2.052464e+01
1.358522e+02	-2.057618e+01
1.366368e+02	-2.062609e+01
1.374260e+02	-2.067392e+01
1.382198e+02	-2.072467e+01
1.390182e+02	-2.077331e+01
1.398211e+02	-2.082350e+01
1.406287e+02	-2.087585e+01
1.414410e+02	-2.092449e+01
1.422579e+02	-2.097298e+01
1.430796e+02	-2.102318e+01
1.439060e+02	-2.107390e+01
1.447372e+02	-2.112116e+01
1.455732e+02	-2.117236e+01
1.464141e+02	-2.121910e+01
1.472597e+02	-2.127002e+01
1.481103e+02	-2.132054e+01
1.489658e+02	-2.137009e+01
1.498262e+02	-2.142097e+01
1.506916e+02	-2.147209e+01
1.515620e+02	-2.151925e+01
1.524374e+02	-2.156971e+01
1.533179e+02	-2.161827e+01
1.542034e+02	-2.166872e+01
1.550941e+02	-2.171807e+01
1.559899e+02	-2.176685e+01
1.568909e+02	-2.181873e+01
1.577971e+02	-2.186724e+01
1.587085e+02	-2.191785e+01
1.596252e+02	-2.196465e+01
1.605472e+02	-2.201670e+01
1.614745e+02	-2.206520e+01
1.624072e+02	-2.211730e+01
1.633453e+02	-2.216589e+01
1.642887e+02	-2.221618e+01
1.652377e+02	-2.226407e+01
1.661921e+02	-2.231562e+01
1.671520e+02	-2.236626e+01
1.681175e+02	-2.241194e+01
1.690885e+02	-2.246254e+01
1.700651e+02	-2.251310e+01
1.710474e+02	-2.256173e+01
1.720354e+02	-2.261233e+01
1.730291e+02	-2.266301e+01
1.740285e+02	-2.271514e+01
1.750337e+02	-2.276217e+01
1.760446e+02	-2.281045e+01
1.770615e+02	-2.286462e+01
1.780842e+02	-2.291088e+01
1.791128e+02	-2.296155e+01
1.801473e+02	-2.301194e+01
1.811878e+02	-2.306063e+01
1.822344e+02	-2.311124e+01
1.832870e+02	-2.316045e+01
1.843456e+02	-2.321105e+01
1.854104e+02	-2.325968e+01
1.864813e+02	-2.330936e+01
1.875584e+02	-2.336032e+01
1.886418e+02	-2.340776e+01
1.897313e+02	-2.346142e+01
1.908272e+02	-2.350879e+01
1.919294e+02	-2.355936e+01
1.930380e+02	-2.360970e+01
1.941530e+02	-2.365843e+01
1.952744e+02	-2.370769e+01
1.964023e+02	-2.376025e+01
1.975367e+02	-2.380875e+01
1.986777e+02	-2.386044e+01
1.998252e+02	-2.390669e+01
2.009794e+02	-2.396164e+01
2.021403e+02	-2.400848e+01
2.033078e+02	-2.405856e+01
2.044821e+02	-2.410697e+01
2.056632e+02	-2.415666e+01
2.068511e+02	-2.420864e+01
2.080459e+02	-2.425488e+01
2.092475e+02	-2.431041e+01
2.104561e+02	-2.435814e+01
2.116717e+02	-2.440589e+01
2.128943e+02	-2.445649e+01
2.141240e+02	-2.450689e+01
2.153608e+02	-2.455745e+01
2.166047e+02	-2.460696e+01
2.178558e+02	-2.465644e+01
2.191141e+02	-2.470556e+01
2.203797e+02	-2.475624e+01
2.216526e+02	-2.480597e+01
2.229329e+02	-2.485535e+01
2.242205e+02	-2.490754e+01
2.255156e+02	-2.495647e+01
2.268182e+02	-2.500335e+01
2.281283e+02	-2.505448e+01
2.294459e+02	-2.510758e+01
2.307712e+02	-2.515480e+01
2.321041e+02	-2.520822e+01
2.334447e+02	-2.525485e+01
2.347931e+02	-2.530274e+01
2.361493e+02	-2.535234e+01
2.375133e+02	-2.540165e+01
2.388851e+02	-2.545355e+01
2.402649e+02	-2.550584e+01
2.416527e+02	-2.555405e+01
2.430484e+02	-2.560595e+01
2.444523e+02	-2.565503e+01
2.458642e+02	-2.570481e+01
2.472843e+02	-2.575651e+01
2.487126e+02	-2.580453e+01
2.501492e+02	-2.585514e+01
2.515940e+02	-2.590698e+01
2.530472e+02	-2.595282e+01
2.545088e+02	-2.600412e+01
2.559789e+02	-2.605742e+01
2.574574e+02	-2.610665e+01
2.589444e+02	-2.615409e+01
2.604401e+02	-2.620187e+01
2.619444e+02	-2.625305e+01
2.634574e+02	-2.630284e+01
2.649791e+02	-2.635560e+01
2.665096e+02	-2.640419e+01
2.680489e+02	-2.645462e+01
2.695972e+02	-2.650332e+01
2.711544e+02	-2.655614e+01
2.727205e+02	-2.660442e+01
2.742958e+02	-2.665342e+01
2.758801e+02	-2.670104e+01
2.774736e+02	-2.675366e+01
2.790762e+02	-2.680524e+01
2.806882e+02	-2.685544e+01
2.823094e+02	-2.690275e+01
2.839400e+02	-2.695414e+01
2.855800e+02	-2.700289e+01
2.872295e+02	-2.705518e+01
2.888886e+02	-2.710327e+01
2.905572e+02	-2.715781e+01
2.922354e+02	-2.720578e+01
2.939234e+02	-2.725322e+01
2.956211e+02	-2.730628e+01
2.973286e+02	-2.735672e+01
2.990459e+02	-2.740253e+01
3.007732e+02	-2.745708e+01
3.025104e+02	-2.750210e+01
3.042577e+02	-2.755338e+01
3.060151e+02	-2.760237e+01
3.077826e+02	-2.765096e+01
3.095604e+02	-2.770093e+01
3.113484e+02	-2.775422e+01
3.131467e+02	-2.780349e+01
3.149554e+02	-2.785564e+01
3.167746e+02	-2.790269e+01
3.186043e+02	-2.795375e+01
3.204445e+02	-2.800195e+01
3.222954e+02	-2.805509e+01
3.241570e+02	-2.809912e+01
3.260293e+02	-2.815497e+01
3.279124e+02	-2.820324e+01
3.298064e+02	-2.825023e+01
3.317114e+02	-2.830515e+01
3.336273e+02	-2.835914e+01
3.355544e+02	-2.840320e+01
3.374925e+02	-2.845581e+01
3.394418e+02	-2.850470e+01
3.414024e+02	-2.855186e+01
3.433744e+02	-2.860202e+01
3.453577e+02	-2.865437e+01
3.473525e+02	-2.870444e+01
3.493588e+02	-2.875434e+01
3.513766e+02	-2.880157e+01
3.534062e+02	-2.885418e+01
3.554474e+02	-2.890529e+01
3.575005e+02	-2.895220e+01
3.595654e+02	-2.900479e+01
3.616422e+02	-2.905792e+01
3.637311e+02	-2.910679e+01
3.658320e+02	-2.915565e+01
3.679450e+02	-2.920519e+01
3.700702e+02	-2.925614e+01
3.722077e+02	-2.930658e+01
3.743576e+02	-2.935590e+01
3.765199e+02	-2.940854e+01
3.786946e+02	-2.945535e+01
3.808820e+02	-2.950364e+01
3.830819e+02	-2.955705e+01
3.852946e+02	-2.960813e+01
3.875200e+02	-2.965632e+01
3.897583e+02	-2.970482e+01
3.920096e+02	-2.975932e+01
3.942738e+02	-2.980883e+01
3.965511e+02	-2.985906e+01
3.988416e+02	-2.991037e+01
4.011452e+02	-2.995573e+01
4.034622e+02	-3.000665e+01
4.057926e+02	-3.005036e+01
4.081365e+02	-3.010931e+01
4.104938e+02	-3.015931e+01
4.128648e+02	-3.020835e+01
4.152495e+02	-3.025182e+01
4.176480e+02	-3.030510e+01
4.200603e+02	-3.035712e+01
4.224866e+02	-3.040704e+01
4.249268e+02	-3.045371e+01
4.273812e+02	-3.050898e+01
4.298497e+02	-3.056073e+01
4.323325e+02	-3.060844e+01
4.348297e+02	-3.066015e+01
4.373412e+02	-3.070770e+01
4.398673e+02	-3.075988e+01
4.424079e+02	-3.081150e+01
4.449633e+02	-3.086245e+01
4.475334e+02	-3.090703e+01
4.501183e+02	-3.095873e+01
4.527182e+02	-3.100251e+01
4.553330e+02	-3.105793e+01
4.579630e+02	-3.110853e+01
4.606082e+02	-3.116082e+01
4.632687e+02	-3.121242e+01
4.659445e+02	-3.125948e+01
4.686358e+02	-3.131243e+01
4.713426e+02	-3.135741e+01
4.740650e+02	-3.141270e+01
4.768032e+02	-3.145921e+01
4.795572e+02	-3.150509e+01
4.823271e+02	-3.156329e+01
4.851130e+02	-3.160972e+01
4.879150e+02	-3.165750e+01
4.907332e+02	-3.171015e+01
4.935676e+02	-3.176618e+01
4.964185e+02	-3.180815e+01
4.992858e+02	-3.186337e+01
5.021696e+02	-3.190554e+01
5.050701e+02	-3.196453e+01
5.079874e+02	-3.200572e+01
5.109215e+02	-3.206922e+01
5.138726e+02	-3.211468e+01
5.168407e+02	-3.215998e+01
5.198259e+02	-3.221179e+01
5.228284e+02	-3.226135e+01
5.258482e+02	-3.231156e+01
5.288855e+02	-3.235636e+01
5.319403e+02	-3.241529e+01
5.350128e+02	-3.246124e+01
5.381030e+02	-3.251301e+01
5.412111e+02	-3.256857e+01
5.443371e+02	-3.261306e+01
5.474812e+02	-3.266395e+01
5.506434e+02	-3.271584e+01
5.538239e+02	-3.276469e+01
5.570228e+02	-3.281172e+01
5.602401e+02	-3.286487e+01
5.634760e+02	-3.291524e+01
5.667306e+02	-3.296248e+01
5.700040e+02	-3.302179e+01
5.732964e+02	-3.306673e+01
5.766077e+02	-3.311340e+01
5.799382e+02	-3.316109e+01
5.832879e+02	-3.321397e+01
5.866569e+02	-3.326565e+01
5.900454e+02	-3.332486e+01
5.934535e+02	-3.336254e+01
5.968813e+02	-3.341332e+01
6.003288e+02	-3.346407e+01
6.037963e+02	-3.351564e+01
6.072838e+02	-3.356532e+01
6.107914e+02	-3.362534e+01
6.143194e+02	-3.366973e+01
6.178676e+02	-3.372136e+01
6.214364e+02	-3.376909e+01
6.250258e+02	-3.382133e+01
6.286359e+02	-3.387575e+01
6.322669e+02	-3.392066e+01
6.359189e+02	-3.397090e+01
6.395919e+02	-3.402345e+01
6.432862e+02	-3.407461e+01
6.470017e+02	-3.412007e+01
6.507388e+02	-3.417747e+01
6.544974e+02	-3.422079e+01
6.582778e+02	-3.428181e+01
6.620800e+02	-3.432283e+01
6.659041e+02	-3.437671e+01
6.697504e+02	-3.443269e+01
6.736188e+02	-3.447596e+01
6.775096e+02	-3.452221e+01
6.814229e+02	-3.457797e+01
6.853587e+02	-3.463164e+01
6.893173e+02	-3.467734e+01
6.932988e+02	-3.473544e+01
6.973033e+02	-3.477046e+01
7.013309e+02	-3.482164e+01
