Frequency(Hz)	Magnitude(dB)
1.000000e+01	-2.197839e+00
1.005776e+01	-2.217871e+00
1.011585e+01	-2.237626e+00
1.017428e+01	-2.257924e+00
1.023305e+01	-2.278205e+00
1.029215e+01	-2.298818e+00
1.035160e+01	-2.319444e+00
1.041139e+01	-2.340267e+00
1.047153e+01	-2.361224e+00
1.053201e+01	-2.382313e+00
1.059284e+01	-2.403392e+00
1.065403e+01	-2.424945e+00
1.071556e+01	-2.446346e+00
1.077746e+01	-2.467871e+00
1.083971e+01	-2.489622e+00
1.090232e+01	-2.511350e+00
1.096529e+01	-2.533479e+00
1.102862e+01	-2.555484e+00
1.109232e+01	-2.578210e+00
1.115639e+01	-2.600586e+00
1.122083e+01	-2.623082e+00
1.128564e+01	-2.645489e+00
1.135083e+01	-2.668698e+00
1.141639e+01	-2.691791e+00
1.148233e+01	-2.714935e+00
1.154865e+01	-2.738292e+00
1.161536e+01	-2.761590e+00
1.168245e+01	-2.785266e+00
1.174992e+01	-2.808869e+00
1.181779e+01	-2.833194e+00
1.188605e+01	-2.856967e+00
1.195470e+01	-2.881184e+00
1.202375e+01	-2.905420e+00
1.209320e+01	-2.929948e+00
1.216305e+01	-2.954905e+00
1.223330e+01	-2.979596e+00
1.230396e+01	-3.004291e+00
1.237503e+01	-3.029259e+00
1.244651e+01	-3.054515e+00
1.251840e+01	-3.079743e+00
1.259070e+01	-3.105334e+00
1.266343e+01	-3.131188e+00
1.273657e+01	-3.156790e+00
1.281014e+01	-3.182810e+00
1.288413e+01	-3.208691e+00
1.295855e+01	-3.234959e+00
1.303339e+01	-3.261453e+00
1.310867e+01	-3.287710e+00
1.318439e+01	-3.314553e+00
1.326054e+01	-3.341148e+00
1.333713e+01	-3.368126e+00
1.341417e+01	-3.394940e+00
1.349165e+01	-3.422392e+00
1.356958e+01	-3.449899e+00
1.364795e+01	-3.477221e+00
1.372678e+01	-3.504926e+00
1.380607e+01	-3.532670e+00
1.388581e+01	-3.560567e+00
1.396602e+01	-3.588661e+00
1.404668e+01	-3.616607e+00
1.412782e+01	-3.645132e+00
1.420942e+01	-3.673603e+00
1.429149e+01	-3.702141e+00
1.437404e+01	-3.731107e+00
1.445706e+01	-3.760005e+00
1.454057e+01	-3.788962e+00
1.462455e+01	-3.818184e+00
1.470902e+01	-3.847554e+00
1.479398e+01	-3.877230e+00
1.487943e+01	-3.906463e+00
1.496537e+01	-3.936480e+00
1.505181e+01	-3.966273e+00
1.513875e+01	-3.996169e+00
1.522619e+01	-4.026465e+00
1.531414e+01	-4.056470e+00
1.540259e+01	-4.086969e+00
1.549156e+01	-4.117682e+00
1.558103e+01	-4.148500e+00
1.567103e+01	-4.179207e+00
1.576155e+01	-4.210224e+00
1.585258e+01	-4.241542e+00
1.594415e+01	-4.272640e+00
1.603624e+01	-4.303973e+00
1.612886e+01	-4.335672e+00
1.622202e+01	-4.367441e+00
1.631572e+01	-4.398654e+00
1.640996e+01	-4.430648e+00
1.650474e+01	-4.463132e+00
1.660008e+01	-4.495110e+00
1.669596e+01	-4.527487e+00
1.679239e+01	-4.560011e+00
1.688938e+01	-4.592555e+00
1.698694e+01	-4.625216e+00
1.708505e+01	-4.658095e+00
1.718373e+01	-4.691015e+00
1.728299e+01	-4.724043e+00
1.738281e+01	-4.757151e+00
1.748322e+01	-4.790871e+00
1.758420e+01	-4.824254e+00
1.768576e+01	-4.857762e+00
1.778792e+01	-4.891863e+00
1.789066e+01	-4.925505e+00
1.799399e+01	-4.959659e+00
1.809793e+01	-4.993506e+00
1.820246e+01	-5.027898e+00
1.830760e+01	-5.062146e+00
1.841334e+01	-5.096575e+00
1.851969e+01	-5.131276e+00
1.862666e+01	-5.166145e+00
1.873425e+01	-5.200882e+00
1.884246e+01	-5.235907e+00
1.895129e+01	-5.271109e+00
1.906075e+01	-5.306108e+00
1.917085e+01	-5.341496e+00
1.928158e+01	-5.376823e+00
1.939295e+01	-5.412405e+00
1.950496e+01	-5.448095e+00
1.961762e+01	-5.484016e+00
1.973093e+01	-5.519818e+00
1.984490e+01	-5.556080e+00
1.995952e+01	-5.592367e+00
2.007480e+01	-5.628540e+00
2.019076e+01	-5.664958e+00
2.030738e+01	-5.701685e+00
2.042467e+01	-5.738105e+00
2.054264e+01	-5.774868e+00
2.066130e+01	-5.811877e+00
2.078064e+01	-5.848580e+00
2.090066e+01	-5.885580e+00
2.102139e+01	-5.922691e+00
2.114280e+01	-5.960092e+00
2.126492e+01	-5.997861e+00
2.138775e+01	-6.035141e+00
2.151128e+01	-6.072556e+00
2.163553e+01	-6.110312e+00
2.176050e+01	-6.148475e+00
2.188619e+01	-6.186360e+00
2.201260e+01	-6.224148e+00
2.213974e+01	-6.262573e+00
2.226762e+01	-6.300655e+00
2.239624e+01	-6.339127e+00
2.252560e+01	-6.377297e+00
2.265571e+01	-6.416222e+00
2.278656e+01	-6.454361e+00
2.291818e+01	-6.493475e+00
2.305055e+01	-6.532359e+00
2.318369e+01	-6.571009e+00
2.331760e+01	-6.610198e+00
2.345228e+01	-6.649591e+00
2.358774e+01	-6.688347e+00
2.372398e+01	-6.728058e+00
2.386101e+01	-6.767564e+00
2.399883e+01	-6.807167e+00
2.413745e+01	-6.846376e+00
2.427686e+01	-6.886407e+00
2.441709e+01	-6.925826e+00
2.455812e+01	-6.966053e+00
2.469997e+01	-7.005897e+00
2.484263e+01	-7.046217e+00
2.498612e+01	-7.086694e+00
2.513044e+01	-7.126541e+00
2.527559e+01	-7.167392e+00
2.542158e+01	-7.207332e+00
2.556842e+01	-7.248016e+00
2.571610e+01	-7.288782e+00
2.586463e+01	-7.329602e+00
2.601403e+01	-7.370218e+00
2.616428e+01	-7.411116e+00
2.631541e+01	-7.452093e+00
2.646740e+01	-7.493215e+00
2.662028e+01	-7.534429e+00
2.677404e+01	-7.575704e+00
2.692868e+01	-7.616919e+00
2.708422e+01	-7.658415e+00
2.724066e+01	-7.699752e+00
2.739800e+01	-7.741745e+00
2.755625e+01	-7.782824e+00
2.771541e+01	-7.824918e+00
2.787550e+01	-7.866766e+00
2.803650e+01	-7.908428e+00
2.819844e+01	-7.950902e+00
2.836131e+01	-7.992313e+00
2.852513e+01	-8.034522e+00
2.868989e+01	-8.076838e+00
2.885560e+01	-8.119054e+00
2.902227e+01	-8.161241e+00
2.918990e+01	-8.203850e+00
2.935850e+01	-8.246246e+00
2.952807e+01	-8.288931e+00
2.969863e+01	-8.331822e+00
2.987016e+01	-8.374509e+00
3.004269e+01	-8.417458e+00
3.021622e+01	-8.459533e+00
3.039075e+01	-8.502827e+00
3.056628e+01	-8.545970e+00
3.074283e+01	-8.588827e+00
3.092040e+01	-8.631826e+00
3.109900e+01	-8.674981e+00
3.127862e+01	-8.718093e+00
3.145929e+01	-8.761502e+00
3.164099e+01	-8.805504e+00
3.182375e+01	-8.848823e+00
3.200756e+01	-8.892446e+00
3.219244e+01	-8.936285e+00
3.237838e+01	-8.979169e+00
3.256540e+01	-9.023456e+00
3.275349e+01	-9.067266e+00
3.294268e+01	-9.110794e+00
3.313295e+01	-9.154897e+00
3.332433e+01	-9.198839e+00
3.351681e+01	-9.243187e+00
3.371040e+01	-9.287103e+00
3.390511e+01	-9.331665e+00
3.410094e+01	-9.375351e+00
3.429791e+01	-9.419684e+00
3.449601e+01	-9.464170e+00
3.469526e+01	-9.508486e+00
3.489566e+01	-9.552879e+00
3.509721e+01	-9.597107e+00
3.529993e+01	-9.642053e+00
3.550382e+01	-9.686487e+00
3.570889e+01	-9.731075e+00
3.591515e+01	-9.776157e+00
3.612259e+01	-9.820972e+00
3.633123e+01	-9.865777e+00
3.654108e+01	-9.910133e+00
3.675214e+01	-9.955592e+00
3.696442e+01	-9.999865e+00
3.717792e+01	-1.004595e+01
3.739266e+01	-1.009010e+01
3.760864e+01	-1.013591e+01
3.782587e+01	-1.018058e+01
3.804435e+01	-1.022580e+01
3.826409e+01	-1.027146e+01
3.848510e+01	-1.031703e+01
3.870739e+01	-1.036200e+01
3.893096e+01	-1.040743e+01
3.915583e+01	-1.045357e+01
3.938199e+01	-1.049873e+01
3.960946e+01	-1.054441e+01
3.983824e+01	-1.058969e+01
4.006834e+01	-1.063589e+01
4.029978e+01	-1.068177e+01
4.053255e+01	-1.072725e+01
4.076666e+01	-1.077257e+01
4.100213e+01	-1.081935e+01
4.123896e+01	-1.086530e+01
4.147715e+01	-1.091091e+01
4.171672e+01	-1.095677e+01
4.195767e+01	-1.100292e+01
4.220002e+01	-1.104881e+01
4.244377e+01	-1.109459e+01
4.268892e+01	-1.114091e+01
4.293549e+01	-1.118755e+01
4.318348e+01	-1.123351e+01
4.343291e+01	-1.127966e+01
4.368377e+01	-1.132577e+01
4.393609e+01	-1.137292e+01
4.418986e+01	-1.141941e+01
4.444510e+01	-1.146580e+01
4.470182e+01	-1.151181e+01
4.496001e+01	-1.155883e+01
4.521970e+01	-1.160385e+01
4.548089e+01	-1.165087e+01
4.574358e+01	-1.169837e+01
4.600779e+01	-1.174453e+01
4.627353e+01	-1.179164e+01
4.654081e+01	-1.183842e+01
4.680963e+01	-1.188518e+01
4.708000e+01	-1.193138e+01
4.735193e+01	-1.197843e+01
4.762543e+01	-1.202478e+01
4.790051e+01	-1.207243e+01
4.817719e+01	-1.211957e+01
4.845545e+01	-1.216643e+01
4.873533e+01	-1.221279e+01
4.901682e+01	-1.226075e+01
4.929994e+01	-1.230727e+01
4.958470e+01	-1.235525e+01
4.987110e+01	-1.240203e+01
5.015915e+01	-1.244898e+01
5.044887e+01	-1.249628e+01
5.074026e+01	-1.254343e+01
5.103333e+01	-1.259054e+01
5.132810e+01	-1.263721e+01
5.162457e+01	-1.268474e+01
5.192275e+01	-1.273241e+01
5.222265e+01	-1.278036e+01
5.252429e+01	-1.282789e+01
5.282767e+01	-1.287448e+01
5.313280e+01	-1.292182e+01
5.343969e+01	-1.296942e+01
5.374836e+01	-1.301702e+01
5.405880e+01	-1.306443e+01
5.437105e+01	-1.311270e+01
5.468509e+01	-1.315993e+01
5.500095e+01	-1.320701e+01
5.531863e+01	-1.325455e+01
5.563815e+01	-1.330276e+01
5.595951e+01	-1.335076e+01
5.628273e+01	-1.339820e+01
5.660782e+01	-1.344666e+01
5.693479e+01	-1.349338e+01
5.726364e+01	-1.354104e+01
5.759439e+01	-1.358899e+01
5.792705e+01	-1.363792e+01
5.826164e+01	-1.368575e+01
5.859815e+01	-1.373306e+01
5.893662e+01	-1.378104e+01
5.927703e+01	-1.382920e+01
5.961941e+01	-1.387743e+01
5.996377e+01	-1.392484e+01
6.031012e+01	-1.397286e+01
6.065847e+01	-1.402009e+01
6.100883e+01	-1.406956e+01
6.136121e+01	-1.411642e+01
6.171563e+01	-1.416514e+01
6.207210e+01	-1.421298e+01
6.243063e+01	-1.426107e+01
6.279122e+01	-1.430907e+01
6.315390e+01	-1.435738e+01
6.351868e+01	-1.440630e+01
6.388556e+01	-1.445560e+01
6.425456e+01	-1.450290e+01
6.462569e+01	-1.455089e+01
6.499897e+01	-1.459862e+01
6.537440e+01	-1.464681e+01
6.575200e+01	-1.469582e+01
6.613178e+01	-1.474418e+01
6.651375e+01	-1.479209e+01
6.689793e+01	-1.484103e+01
6.728433e+01	-1.488919e+01
6.767297e+01	-1.493799e+01
6.806384e+01	-1.498613e+01
6.845698e+01	-1.503462e+01
6.885238e+01	-1.508277e+01
6.925007e+01	-1.513061e+01
6.965005e+01	-1.517988e+01
7.005235e+01	-1.522764e+01
7.045697e+01	-1.527676e+01
7.086393e+01	-1.532560e+01
7.127323e+01	-1.537362e+01
7.168490e+01	-1.542233e+01
7.209895e+01	-1.547126e+01
7.251539e+01	-1.552020e+01
7.293424e+01	-1.556788e+01
7.335551e+01	-1.561680e+01
7.377920e+01	-1.566609e+01
7.420535e+01	-1.571481e+01
7.463396e+01	-1.576216e+01
7.506504e+01	-1.581154e+01
7.549861e+01	-1.585983e+01
7.593469e+01	-1.590944e+01
7.637328e+01	-1.595643e+01
7.681441e+01	-1.600683e+01
7.725809e+01	-1.605525e+01
7.770433e+01	-1.610414e+01
7.815315e+01	-1.615370e+01
7.860456e+01	-1.620269e+01
7.905857e+01	-1.624956e+01
7.951521e+01	-1.630042e+01
7.997449e+01	-1.634826e+01
8.043642e+01	-1.639667e+01
8.090102e+01	-1.644731e+01
8.136830e+01	-1.649524e+01
8.183828e+01	-1.654447e+01
8.231097e+01	-1.659268e+01
8.278640e+01	-1.664250e+01
8.326457e+01	-1.669156e+01
8.374550e+01	-1.674002e+01
8.422921e+01	-1.678925e+01
8.471572e+01	-1.683819e+01
8.520503e+01	-1.688625e+01
8.569717e+01	-1.693577e+01
8.619215e+01	-1.698589e+01
8.669000e+01	-1.703370e+01
8.719071e+01	-1.708251e+01
8.769432e+01	-1.713247e+01
8.820084e+01	-1.718126e+01
8.871029e+01	-1.723148e+01
8.922267e+01	-1.727943e+01
8.973802e+01	-1.732939e+01
9.025634e+01	-1.737863e+01
9.077766e+01	-1.742693e+01
9.130199e+01	-1.747468e+01
9.182935e+01	-1.752501e+01
9.235975e+01	-1.757383e+01
9.289321e+01	-1.762272e+01
9.342976e+01	-1.767187e+01
9.396941e+01	-1.772156e+01
9.451217e+01	-1.777049e+01
9.505807e+01	-1.781918e+01
9.560712e+01	-1.786825e+01
9.615934e+01	-1.791904e+01
9.671476e+01	-1.796768e+01
9.727338e+01	-1.801641e+01
9.783522e+01	-1.806573e+01
9.840032e+01	-1.811506e+01
9.896867e+01	-1.816480e+01
9.954031e+01	-1.821477e+01
1.001153e+02	-1.826396e+01
1.006935e+02	-1.831158e+01
1.012751e+02	-1.836165e+01
1.018601e+02	-1.840959e+01
1.024484e+02	-1.845971e+01
1.030402e+02	-1.850925e+01
1.036353e+02	-1.855927e+01
1.042339e+02	-1.860798e+01
1.048360e+02	-1.865731e+01
1.054415e+02	-1.870736e+01
1.060505e+02	-1.875575e+01
1.066631e+02	-1.880631e+01
1.072791e+02	-1.885515e+01
1.078988e+02	-1.890434e+01
1.085220e+02	-1.895343e+01
1.091488e+02	-1.900398e+01
1.097793e+02	-1.905214e+01
1.104133e+02	-1.910052e+01
1.110511e+02	-1.915326e+01
1.116925e+02	-1.920042e+01
1.123376e+02	-1.925053e+01
1.129865e+02	-1.930002e+01
1.136391e+02	-1.934872e+01
1.142955e+02	-1.939993e+01
1.149556e+02	-1.944837e+01
1.156196e+02	-1.949759e+01
1.162874e+02	-1.954738e+01
1.169591e+02	-1.959729e+01
1.176347e+02	-1.964606e+01
1.183141e+02	-1.969444e+01
1.189975e+02	-1.974597e+01
1.196848e+02	-1.979432e+01
1.203761e+02	-1.984416e+01
1.210714e+02	-1.989408e+01
1.217707e+02	-1.994294e+01
1.224740e+02	-1.999281e+01
1.231814e+02	-2.004270e+01
1.238929e+02	-2.009063e+01
1.246085e+02	-2.014068e+01
1.253283e+02	-2.019131e+01
1.260522e+02	-2.023904e+01
1.267802e+02	-2.028863e+01
1.275125e+02	-2.034007e+01
1.282490e+02	-2.038866e+01
1.289898e+02	-2.043878e+01
1.297348e+02	-2.048794e+01
1.304842e+02	-2.053830e+01
1.312378e+02	-2.058798e+01
1.319959e+02	-2.063770e+01
1.327583e+02	-2.068670e+01
1.335251e+02	-2.073594e+01
1.342963e+02	-2.078683e+01
1.350720e+02	-2.083616e+01
1.358522e+02	-2.088646e+01
1.366368e+02	-2.093486e+01
1.374260e+02	-2.098385e+01
1.382198e+02	-2.103371e+01
1.390182e+02	-2.108367e+01
1.398211e+02	-2.113411e+01
1.406287e+02	-2.118298e+01
1.414410e+02	-2.123345e+01
1.422579e+02	-2.128144e+01
1.430796e+02	-2.133086e+01
1.439060e+02	-2.138115e+01
1.447372e+02	-2.143294e+01
1.455732e+02	-2.148129e+01
1.464141e+02	-2.153156e+01
1.472597e+02	-2.157771e+01
1.481103e+02	-2.163129e+01
1.489658e+02	-2.168092e+01
1.498262e+02	-2.172955e+01
1.506916e+02	-2.177762e+01
1.515620e+02	-2.182941e+01
1.524374e+02	-2.187725e+01
1.533179e+02	-2.192659e+01
1.542034e+02	-2.197713e+01
1.550941e+02	-2.202736e+01
1.559899e+02	-2.207842e+01
1.568909e+02	-2.212670e+01
1.577971e+02	-2.217829e+01
1.587085e+02	-2.222804e+01
1.596252e+02	-2.227582e+01
1.605472e+02	-2.232527e+01
1.614745e+02	-2.237685e+01
1.624072e+02	-2.242721e+01
1.633453e+02	-2.247591e+01
1.642887e+02	-2.252521e+01
1.652377e+02	-2.257472e+01
1.661921e+02	-2.262562e+01
1.671520e+02	-2.267706e+01
1.681175e+02	-2.272392e+01
1.690885e+02	-2.277505e+01
1.700651e+02	-2.282379e+01
1.710474e+02	-2.287310e+01
1.720354e+02	-2.292238e+01
1.730291e+02	-2.297395e+01
1.740285e+02	-2.302170e+01
1.750337e+02	-2.307067e+01
1.760446e+02	-2.312386e+01
1.770615e+02	-2.317460e+01
1.780842e+02	-2.322268e+01
1.791128e+02	-2.327175e+01
1.801473e+02	-2.332107e+01
1.811878e+02	-2.337120e+01
1.822344e+02	-2.342152e+01
1.832870e+02	-2.347155e+01
1.843456e+02	-2.352070e+01
1.854104e+02	-2.357330e+01
1.864813e+02	-2.362036e+01
1.875584e+02	-2.367139e+01
1.886418e+02	-2.372315e+01
1.897313e+02	-2.377188e+01
1.908272e+02	-2.382266e+01
1.919294e+02	-2.387176e+01
1.930380e+02	-2.391854e+01
1.941530e+02	-2.397213e+01
1.952744e+02	-2.401912e+01
1.964023e+02	-2.407185e+01
1.975367e+02	-2.412176e+01
1.986777e+02	-2.416834e+01
1.998252e+02	-2.422189e+01
2.009794e+02	-2.426822e+01
2.021403e+02	-2.431920e+01
2.033078e+02	-2.436981e+01
2.044821e+02	-2.442064e+01
2.056632e+02	-2.446949e+01
2.068511e+02	-2.451764e+01
2.080459e+02	-2.456783e+01
2.092475e+02	-2.462112e+01
2.104561e+02	-2.466735e+01
2.116717e+02	-2.471812e+01
2.128943e+02	-2.476627e+01
2.141240e+02	-2.481792e+01
2.153608e+02	-2.486664e+01
2.166047e+02	-2.491738e+01
2.178558e+02	-2.496957e+01
2.191141e+02	-2.502106e+01
2.203797e+02	-2.506562e+01
2.216526e+02	-2.511789e+01
2.229329e+02	-2.516850e+01
2.242205e+02	-2.521528e+01
2.255156e+02	-2.526832e+01
2.268182e+02	-2.531949e+01
2.281283e+02	-2.536632e+01
2.294459e+02	-2.541778e+01
2.307712e+02	-2.546710e+01
2.321041e+02	-2.551899e+01
2.334447e+02	-2.556956e+01
2.347931e+02	-2.561857e+01
2.361493e+02	-2.566686e+01
2.375133e+02	-2.571652e+01
2.388851e+02	-2.576619e+01
2.402649e+02	-2.581788e+01
2.416527e+02	-2.586415e+01
2.430484e+02	-2.591902e+01
2.444523e+02	-2.596842e+01
2.458642e+02	-2.601719e+01
2.472843e+02	-2.606744e+01
2.487126e+02	-2.611431e+01
2.501492e+02	-2.616302e+01
2.515940e+02	-2.621433e+01
2.530472e+02	-2.626645e+01
2.545088e+02	-2.631678e+01
2.559789e+02	-2.636725e+01
2.574574e+02	-2.641617e+01
2.589444e+02	-2.646810e+01
2.604401e+02	-2.651634e+01
2.619444e+02	-2.656525e+01
2.634574e+02	-2.661633e+01
2.649791e+02	-2.666697e+01
2.665096e+02	-2.671642e+01
2.680489e+02	-2.676774e+01
2.695972e+02	-2.681220e+01
2.711544e+02	-2.686334e+01
2.727205e+02	-2.691237e+01
2.742958e+02	-2.696753e+01
2.758801e+02	-2.701386e+01
2.774736e+02	-2.706577e+01
2.790762e+02	-2.711952e+01
2.806882e+02	-2.716516e+01
2.823094e+02	-2.721611e+01
2.839400e+02	-2.726628e+01
2.855800e+02	-2.731691e+01
2.872295e+02	-2.736549e+01
2.888886e+02	-2.741454e+01
2.905572e+02	-2.746302e+01
2.922354e+02	-2.751399e+01
2.939234e+02	-2.756787e+01
2.956211e+02	-2.761609e+01
2.973286e+02	-2.766741e+01
2.990459e+02	-2.771143e+01
3.007732e+02	-2.776701e+01
3.025104e+02	-2.781640e+01
3.042577e+02	-2.786681e+01
3.060151e+02	-2.791989e+01
3.077826e+02	-2.796641e+01
3.095604e+02	-2.801237e+01
3.113484e+02	-2.806420e+01
3.131467e+02	-2.811390e+01
3.149554e+02	-2.816800e+01
3.167746e+02	-2.821783e+01
3.186043e+02	-2.826687e+01
3.204445e+02	-2.831355e+01
3.222954e+02	-2.836781e+01
3.241570e+02	-2.841345e+01
3.260293e+02	-2.846730e+01
3.279124e+02	-2.851671e+01
3.298064e+02	-2.856481e+01
3.317114e+02	-2.861786e+01
3.336273e+02	-2.866618e+01
3.355544e+02	-2.871689e+01
3.374925e+02	-2.876654e+01
3.394418e+02	-2.881759e+01
3.414024e+02	-2.886720e+01
3.433744e+02	-2.891435e+01
3.453577e+02	-2.896531e+01
3.473525e+02	-2.901921e+01
3.493588e+02	-2.906697e+01
3.513766e+02	-2.911623e+01
3.534062e+02	-2.916231e+01
3.554474e+02	-2.921769e+01
3.575005e+02	-2.926711e+01
3.595654e+02	-2.931652e+01
3.616422e+02	-2.936535e+01
3.637311e+02	-2.941775e+01
3.658320e+02	-2.946844e+01
3.679450e+02	-2.951760e+01
3.700702e+02	-2.956516e+01
3.722077e+02	-2.961456e+01
3.743576e+02	-2.966821e+01
3.765199e+02	-2.972333e+01
3.786946e+02	-2.976852e+01
3.808820e+02	-2.981788e+01
3.830819e+02	-2.986861e+01
3.852946e+02	-2.991920e+01
3.875200e+02	-2.996587e+01
3.897583e+02	-3.001502e+01
3.920096e+02	-3.006933e+01
3.942738e+02	-3.011818e+01
3.965511e+02	-3.016795e+01
3.988416e+02	-3.021611e+01
4.011452e+02	-3.027093e+01
4.034622e+02	-3.032129e+01
4.057926e+02	-3.037302e+01
4.081365e+02	-3.041999e+01
4.104938e+02	-3.047103e+01
4.128648e+02	-3.052190e+01
4.152495e+02	-3.056631e+01
4.176480e+02	-3.061857e+01
4.200603e+02	-3.066465e+01
4.224866e+02	-3.072179e+01
4.249268e+02	-3.076870e+01
4.273812e+02	-3.081757e+01
4.298497e+02	-3.087038e+01
4.323325e+02	-3.091814e+01
4.348297e+02	-3.096567e+01
4.373412e+02	-3.102065e+01
4.398673e+02	-3.107129e+01
4.424079e+02	-3.111749e+01
4.449633e+02	-3.117045e+01
4.475334e+02	-3.122091e+01
4.501183e+02	-3.127494e+01
4.527182e+02	-3.132588e+01
4.553330e+02	-3.137339e+01
4.579630e+02	-3.142246e+01
4.606082e+02	-3.147409e+01
4.632687e+02	-3.152422e+01
4.659445e+02	-3.157104e+01
4.686358e+02	-3.162094e+01
4.713426e+02	-3.167566e+01
4.740650e+02	-3.172460e+01
4.768032e+02	-3.177305e+01
4.795572e+02	-3.181737e+01
4.823271e+02	-3.187390e+01
4.851130e+02	-3.192257e+01
4.879150e+02	-3.196916e+01
4.907332e+02	-3.202707e+01
4.935676e+02	-3.207061e+01
4.964185e+02	-3.212248e+01
4.992858e+02	-3.217855e+01
5.021696e+02	-3.222428e+01
5.050701e+02	-3.227786e+01
5.079874e+02	-3.232470e+01
5.109215e+02	-3.237697e+01
5.138726e+02	-3.243478e+01
5.168407e+02	-3.248135e+01
5.198259e+02	-3.252576e+01
5.228284e+02	-3.257315e+01
5.258482e+02	-3.261962e+01
5.288855e+02	-3.268042e+01
5.319403e+02	-3.272705e+01
5.350128e+02	-3.278108e+01
5.381030e+02	-3.282916e+01
5.412111e+02	-3.287863e+01
5.443371e+02	-3.293350e+01
5.474812e+02	-3.298398e+01
5.506434e+02	-3.303011e+01
5.538239e+02	-3.308471e+01
5.570228e+02	-3.312752e+01
5.602401e+02	-3.318023e+01
5.634760e+02	-3.322984e+01
5.667306e+02	-3.328280e+01
5.700040e+02	-3.332875e+01
5.732964e+02	-3.338611e+01
5.766077e+02	-3.342588e+01
5.799382e+02	-3.347579e+01
5.832879e+02	-3.353123e+01
5.866569e+02	-3.359333e+01
5.900454e+02	-3.363487e+01
5.934535e+02	-3.368115e+01
5.968813e+02	-3.373141e+01
6.003288e+02	-3.378662e+01
6.037963e+02	-3.382668e+01
6.072838e+02	-3.388547e+01
6.107914e+02	-3.393927e+01
6.143194e+02	-3.398149e+01
6.178676e+02	-3.403647e+01
6.214364e+02	-3.408316e+01
6.250258e+02	-3.413007e+01
6.286359e+02	-3.418634e+01
6.322669e+02	-3.423251e+01
6.359189e+02	-3.428974e+01
6.395919e+02	-3.433835e+01
6.432862e+02	-3.438427e+01
6.470017e+02	-3.444051e+01
6.507388e+02	-3.448844e+01
6.544974e+02	-3.454170e+01
6.582778e+02	-3.458797e+01
6.620800e+02	-3.464104e+01
6.659041e+02	-3.469316e+01
6.697504e+02	-3.473138e+01
6.736188e+02	-3.479015e+01
6.775096e+02	-3.484077e+01
6.814229e+02	-3.488800e+01
6.853587e+02	-3.494900e+01
6.893173e+02	-3.500281e+01
6.932988e+02	-3.505175e+01
6.973033e+02	-3.509380e+01
7.013309e+02	-3.514369e+01
