Frequency(Hz)	Magnitude(dB)
1.000000e+01	-1.986129e+00
1.005776e+01	-2.004627e+00
1.011585e+01	-2.023046e+00
1.017428e+01	-2.041787e+00
1.023305e+01	-2.060547e+00
1.029215e+01	-2.079648e+00
1.035160e+01	-2.098683e+00
1.041139e+01	-2.118119e+00
1.047153e+01	-2.137582e+00
1.053201e+01	-2.157080e+00
1.059284e+01	-2.176613e+00
1.065403e+01	-2.196125e+00
1.071556e+01	-2.216299e+00
1.077746e+01	-2.236147e+00
1.083971e+01	-2.256437e+00
1.090232e+01	-2.276856e+00
1.096529e+01	-2.297324e+00
1.102862e+01	-2.317993e+00
1.109232e+01	-2.338668e+00
1.115639e+01	-2.359869e+00
1.122083e+01	-2.380879e+00
1.128564e+01	-2.401810e+00
1.135083e+01	-2.423149e+00
1.141639e+01	-2.444516e+00
1.148233e+01	-2.466210e+00
1.154865e+01	-2.487931e+00
1.161536e+01	-2.509972e+00
1.168245e+01	-2.532109e+00
1.174992e+01	-2.554105e+00
1.181779e+01	-2.576433e+00
1.188605e+01	-2.598794e+00
1.195470e+01	-2.621631e+00
1.202375e+01	-2.644229e+00
1.209320e+01	-2.667033e+00
1.216305e+01	-2.689877e+00
1.223330e+01	-2.713152e+00
1.230396e+01	-2.736572e+00
1.237503e+01	-2.760105e+00
1.244651e+01	-2.783600e+00
1.251840e+01	-2.807422e+00
1.259070e+01	-2.831208e+00
1.266343e+01	-2.855232e+00
1.273657e+01	-2.879492e+00
1.281014e+01	-2.903530e+00
1.288413e+01	-2.928227e+00
1.295855e+01	-2.952747e+00
1.303339e+01	-2.977579e+00
1.310867e+01	-3.002316e+00
1.318439e+01	-3.027501e+00
1.326054e+01	-3.052632e+00
1.333713e+01	-3.077940e+00
1.341417e+01	-3.103460e+00
1.349165e+01	-3.129148e+00
1.356958e+01	-3.154864e+00
1.364795e+01	-3.180693e+00
1.372678e+01	-3.206884e+00
1.380607e+01	-3.233086e+00
1.388581e+01	-3.259268e+00
1.396602e+01	-3.285740e+00
1.404668e+01	-3.312490e+00
1.412782e+01	-3.339190e+00
1.420942e+01	-3.366046e+00
1.429149e+01	-3.392988e+00
1.437404e+01	-3.420474e+00
1.445706e+01	-3.447674e+00
1.454057e+01	-3.474712e+00
1.462455e+01	-3.502959e+00
1.470902e+01	-3.530510e+00
1.479398e+01	-3.558424e+00
1.487943e+01	-3.586538e+00
1.496537e+01	-3.614651e+00
1.505181e+01	-3.643181e+00
1.513875e+01	-3.671510e+00
1.522619e+01	-3.699830e+00
1.531414e+01	-3.728689e+00
1.540259e+01	-3.757603e+00
1.549156e+01	-3.786766e+00
1.558103e+01	-3.815940e+00
1.567103e+01	-3.845306e+00
1.576155e+01	-3.874693e+00
1.585258e+01	-3.904489e+00
1.594415e+01	-3.934079e+00
1.603624e+01	-3.964058e+00
1.612886e+01	-3.993937e+00
1.622202e+01	-4.024240e+00
1.631572e+01	-4.054639e+00
1.640996e+01	-4.084541e+00
1.650474e+01	-4.115626e+00
1.660008e+01	-4.146040e+00
1.669596e+01	-4.176919e+00
1.679239e+01	-4.207743e+00
1.688938e+01	-4.238896e+00
1.698694e+01	-4.270335e+00
1.708505e+01	-4.301567e+00
1.718373e+01	-4.333289e+00
1.728299e+01	-4.364801e+00
1.738281e+01	-4.396648e+00
1.748322e+01	-4.428518e+00
1.758420e+01	-4.460497e+00
1.768576e+01	-4.492700e+00
1.778792e+01	-4.524837e+00
1.789066e+01	-4.557703e+00
1.799399e+01	-4.589958e+00
1.809793e+01	-4.623000e+00
1.820246e+01	-4.655525e+00
1.830760e+01	-4.688527e+00
1.841334e+01	-4.721564e+00
1.851969e+01	-4.754688e+00
1.862666e+01	-4.788200e+00
1.873425e+01	-4.821931e+00
1.884246e+01	-4.855487e+00
1.895129e+01	-4.889056e+00
1.906075e+01	-4.922776e+00
1.917085e+01	-4.957013e+00
1.928158e+01	-4.991144e+00
1.939295e+01	-5.025454e+00
1.950496e+01	-5.059366e+00
1.961762e+01	-5.094041e+00
1.973093e+01	-5.128798e+00
1.984490e+01	-5.163485e+00
1.995952e+01	-5.198164e+00
2.007480e+01	-5.233351e+00
2.019076e+01	-5.268334e+00
2.030738e+01	-5.303670e+00
2.042467e+01	-5.338840e+00
2.054264e+01	-5.374296e+00
2.066130e+01	-5.409952e+00
2.078064e+01	-5.445685e+00
2.090066e+01	-5.481684e+00
2.102139e+01	-5.517292e+00
2.114280e+01	-5.553386e+00
2.126492e+01	-5.589537e+00
2.138775e+01	-5.626072e+00
2.151128e+01	-5.662130e+00
2.163553e+01	-5.698776e+00
2.176050e+01	-5.735127e+00
2.188619e+01	-5.772175e+00
2.201260e+01	-5.808829e+00
2.213974e+01	-5.845731e+00
2.226762e+01	-5.882828e+00
2.239624e+01	-5.920323e+00
2.252560e+01	-5.957334e+00
2.265571e+01	-5.994725e+00
2.278656e+01	-6.032159e+00
2.291818e+01	-6.069951e+00
2.305055e+01	-6.107502e+00
2.318369e+01	-6.145563e+00
2.331760e+01	-6.183410e+00
2.345228e+01	-6.221218e+00
2.358774e+01	-6.259391e+00
2.372398e+01	-6.297507e+00
2.386101e+01	-6.336003e+00
2.399883e+01	-6.374200e+00
2.413745e+01	-6.413177e+00
2.427686e+01	-6.451912e+00
2.441709e+01	-6.490421e+00
2.455812e+01	-6.529128e+00
2.469997e+01	-6.568226e+00
2.484263e+01	-6.607245e+00
2.498612e+01	-6.646510e+00
2.513044e+01	-6.685756e+00
2.527559e+01	-6.724910e+00
2.542158e+01	-6.764357e+00
2.556842e+01	-6.804094e+00
2.571610e+01	-6.843764e+00
2.586463e+01	-6.883296e+00
2.601403e+01	-6.923282e+00
2.616428e+01	-6.962846e+00
2.631541e+01	-7.003360e+00
2.646740e+01	-7.043004e+00
2.662028e+01	-7.083395e+00
2.677404e+01	-7.123879e+00
2.692868e+01	-7.164184e+00
2.708422e+01	-7.204148e+00
2.724066e+01	-7.245057e+00
2.739800e+01	-7.285391e+00
2.755625e+01	-7.326658e+00
2.771541e+01	-7.367023e+00
2.787550e+01	-7.408166e+00
2.803650e+01	-7.449298e+00
2.819844e+01	-7.489982e+00
2.836131e+01	-7.531363e+00
2.852513e+01	-7.572057e+00
2.868989e+01	-7.613934e+00
2.885560e+01	-7.655251e+00
2.902227e+01	-7.696868e+00
2.918990e+01	-7.738602e+00
2.935850e+01	-7.780007e+00
2.952807e+01	-7.821299e+00
2.969863e+01	-7.863432e+00
2.987016e+01	-7.905528e+00
3.004269e+01	-7.947730e+00
3.021622e+01	-7.989552e+00
3.039075e+01	-8.031060e+00
3.056628e+01	-8.073447e+00
3.074283e+01	-8.115965e+00
3.092040e+01	-8.158358e+00
3.109900e+01	-8.201082e+00
3.127862e+01	-8.243484e+00
3.145929e+01	-8.285617e+00
3.164099e+01	-8.328219e+00
3.182375e+01	-8.371270e+00
3.200756e+01	-8.413932e+00
3.219244e+01	-8.456668e+00
3.237838e+01	-8.499662e+00
3.256540e+01	-8.542364e+00
3.275349e+01	-8.585764e+00
3.294268e+01	-8.628878e+00
3.313295e+01	-8.671958e+00
3.332433e+01	-8.715211e+00
3.351681e+01	-8.758816e+00
3.371040e+01	-8.801721e+00
3.390511e+01	-8.845487e+00
3.410094e+01	-8.888866e+00
3.429791e+01	-8.933016e+00
3.449601e+01	-8.975953e+00
3.469526e+01	-9.020162e+00
3.489566e+01	-9.064097e+00
3.509721e+01	-9.107567e+00
3.529993e+01	-9.151693e+00
3.550382e+01	-9.195373e+00
3.570889e+01	-9.239415e+00
3.591515e+01	-9.284018e+00
3.612259e+01	-9.327746e+00
3.633123e+01	-9.372124e+00
3.654108e+01	-9.415839e+00
3.675214e+01	-9.460941e+00
3.696442e+01	-9.505072e+00
3.717792e+01	-9.550090e+00
3.739266e+01	-9.594137e+00
3.760864e+01	-9.638368e+00
3.782587e+01	-9.683734e+00
3.804435e+01	-9.727757e+00
3.826409e+01	-9.772709e+00
3.848510e+01	-9.817221e+00
3.870739e+01	-9.862026e+00
3.893096e+01	-9.906809e+00
3.915583e+01	-9.952115e+00
3.938199e+01	-9.997443e+00
3.960946e+01	-1.004210e+01
3.983824e+01	-1.008730e+01
4.006834e+01	-1.013226e+01
4.029978e+01	-1.017711e+01
4.053255e+01	-1.022335e+01
4.076666e+01	-1.026821e+01
4.100213e+01	-1.031329e+01
4.123896e+01	-1.035892e+01
4.147715e+01	-1.040452e+01
4.171672e+01	-1.044979e+01
4.195767e+01	-1.049521e+01
4.220002e+01	-1.054069e+01
4.244377e+01	-1.058619e+01
4.268892e+01	-1.063239e+01
4.293549e+01	-1.067777e+01
4.318348e+01	-1.072407e+01
4.343291e+01	-1.076932e+01
4.368377e+01	-1.081491e+01
4.393609e+01	-1.086107e+01
4.418986e+01	-1.090722e+01
4.444510e+01	-1.095324e+01
4.470182e+01	-1.099923e+01
4.496001e+01	-1.104540e+01
4.521970e+01	-1.109167e+01
4.548089e+01	-1.113734e+01
4.574358e+01	-1.118366e+01
4.600779e+01	-1.122998e+01
4.627353e+01	-1.127651e+01
4.654081e+01	-1.132229e+01
4.680963e+01	-1.136908e+01
4.708000e+01	-1.141554e+01
4.735193e+01	-1.146107e+01
4.762543e+01	-1.150896e+01
4.790051e+01	-1.155499e+01
4.817719e+01	-1.160157e+01
4.845545e+01	-1.164807e+01
4.873533e+01	-1.169483e+01
4.901682e+01	-1.174169e+01
4.929994e+01	-1.178822e+01
4.958470e+01	-1.183445e+01
4.987110e+01	-1.188083e+01
5.015915e+01	-1.192778e+01
5.044887e+01	-1.197532e+01
5.074026e+01	-1.202152e+01
5.103333e+01	-1.206861e+01
5.132810e+01	-1.211542e+01
5.162457e+01	-1.216248e+01
5.192275e+01	-1.220913e+01
5.222265e+01	-1.225660e+01
5.252429e+01	-1.230416e+01
5.282767e+01	-1.235079e+01
5.313280e+01	-1.239816e+01
5.343969e+01	-1.244513e+01
5.374836e+01	-1.249257e+01
5.405880e+01	-1.254002e+01
5.437105e+01	-1.258671e+01
5.468509e+01	-1.263410e+01
5.500095e+01	-1.268130e+01
5.531863e+01	-1.272862e+01
5.563815e+01	-1.277575e+01
5.595951e+01	-1.282411e+01
5.628273e+01	-1.287096e+01
5.660782e+01	-1.291817e+01
5.693479e+01	-1.296547e+01
5.726364e+01	-1.301395e+01
5.759439e+01	-1.306139e+01
5.792705e+01	-1.310860e+01
5.826164e+01	-1.315588e+01
5.859815e+01	-1.320338e+01
5.893662e+01	-1.325129e+01
5.927703e+01	-1.329876e+01
5.961941e+01	-1.334659e+01
5.996377e+01	-1.339480e+01
6.031012e+01	-1.344162e+01
6.065847e+01	-1.349040e+01
6.100883e+01	-1.353769e+01
6.136121e+01	-1.358529e+01
6.171563e+01	-1.363474e+01
6.207210e+01	-1.368158e+01
6.243063e+01	-1.372935e+01
6.279122e+01	-1.377710e+01
6.315390e+01	-1.382444e+01
6.351868e+01	-1.387353e+01
6.388556e+01	-1.392147e+01
6.425456e+01	-1.396940e+01
6.462569e+01	-1.401750e+01
6.499897e+01	-1.406540e+01
6.537440e+01	-1.411320e+01
6.575200e+01	-1.416102e+01
6.613178e+01	-1.420967e+01
6.651375e+01	-1.425855e+01
6.689793e+01	-1.430574e+01
6.728433e+01	-1.435368e+01
6.767297e+01	-1.440218e+01
6.806384e+01	-1.445013e+01
6.845698e+01	-1.449882e+01
6.885238e+01	-1.454616e+01
6.925007e+01	-1.459565e+01
6.965005e+01	-1.464447e+01
7.005235e+01	-1.469162e+01
7.045697e+01	-1.474013e+01
7.086393e+01	-1.478930e+01
7.127323e+01	-1.483673e+01
7.168490e+01	-1.488562e+01
7.209895e+01	-1.493377e+01
7.251539e+01	-1.498259e+01
7.293424e+01	-1.503019e+01
7.335551e+01	-1.507978e+01
7.377920e+01	-1.512775e+01
7.420535e+01	-1.517536e+01
7.463396e+01	-1.522457e+01
7.506504e+01	-1.527327e+01
7.549861e+01	-1.532149e+01
7.593469e+01	-1.537064e+01
7.637328e+01	-1.541831e+01
7.681441e+01	-1.546724e+01
7.725809e+01	-1.551600e+01
7.770433e+01	-1.556410e+01
7.815315e+01	-1.561384e+01
7.860456e+01	-1.566287e+01
7.905857e+01	-1.571047e+01
7.951521e+01	-1.575961e+01
7.997449e+01	-1.580763e+01
8.043642e+01	-1.585620e+01
8.090102e+01	-1.590568e+01
8.136830e+01	-1.595324e+01
8.183828e+01	-1.600310e+01
8.231097e+01	-1.605233e+01
8.278640e+01	-1.610114e+01
8.326457e+01	-1.614941e+01
8.374550e+01	-1.619763e+01
8.422921e+01	-1.624694e+01
8.471572e+01	-1.629489e+01
8.520503e+01	-1.634477e+01
8.569717e+01	-1.639287e+01
8.619215e+01	-1.644320e+01
8.669000e+01	-1.649114e+01
8.719071e+01	-1.654037e+01
8.769432e+01	-1.658958e+01
8.820084e+01	-1.663870e+01
8.871029e+01	-1.668641e+01
8.922267e+01	-1.673613e+01
8.973802e+01	-1.678531e+01
9.025634e+01	-1.683439e+01
9.077766e+01	-1.688395e+01
9.130199e+01	-1.693152e+01
9.182935e+01	-1.698202e+01
9.235975e+01	-1.702927e+01
9.289321e+01	-1.708024e+01
9.342976e+01	-1.712775e+01
9.396941e+01	-1.717844e+01
9.451217e+01	-1.722640e+01
9.505807e+01	-1.727478e+01
9.560712e+01	-1.732390e+01
9.615934e+01	-1.737414e+01
9.671476e+01	-1.742283e+01
9.727338e+01	-1.747193e+01
9.783522e+01	-1.752141e+01
9.840032e+01	-1.757111e+01
9.896867e+01	-1.761937e+01
9.954031e+01	-1.766841e+01
1.001153e+02	-1.771753e+01
1.006935e+02	-1.776732e+01
1.012751e+02	-1.781657e+01
1.018601e+02	-1.786522e+01
1.024484e+02	-1.791491e+01
1.030402e+02	-1.796316e+01
1.036353e+02	-1.801336e+01
1.042339e+02	-1.806359e+01
1.048360e+02	-1.811219e+01
1.054415e+02	-1.816132e+01
1.060505e+02	-1.820899e+01
1.066631e+02	-1.826040e+01
1.072791e+02	-1.830878e+01
1.078988e+02	-1.835754e+01
1.085220e+02	-1.840735e+01
1.091488e+02	-1.845641e+01
1.097793e+02	-1.850600e+01
1.104133e+02	-1.855480e+01
1.110511e+02	-1.860418e+01
1.116925e+02	-1.865252e+01
1.123376e+02	-1.870240e+01
1.129865e+02	-1.875305e+01
1.136391e+02	-1.880084e+01
1.142955e+02	-1.885090e+01
1.149556e+02	-1.890054e+01
1.156196e+02	-1.894969e+01
1.162874e+02	-1.899940e+01
1.169591e+02	-1.904932e+01
1.176347e+02	-1.909812e+01
1.183141e+02	-1.914794e+01
1.189975e+02	-1.919823e+01
1.196848e+02	-1.924674e+01
1.203761e+02	-1.929557e+01
1.210714e+02	-1.934489e+01
1.217707e+02	-1.939425e+01
1.224740e+02	-1.944577e+01
1.231814e+02	-1.949486e+01
1.238929e+02	-1.954280e+01
1.246085e+02	-1.959395e+01
1.253283e+02	-1.964183e+01
1.260522e+02	-1.969182e+01
1.267802e+02	-1.974252e+01
1.275125e+02	-1.979031e+01
1.282490e+02	-1.984027e+01
1.289898e+02	-1.988951e+01
1.297348e+02	-1.993989e+01
1.304842e+02	-1.999001e+01
1.312378e+02	-2.003865e+01
1.319959e+02	-2.009025e+01
1.327583e+02	-2.013869e+01
1.335251e+02	-2.018784e+01
1.342963e+02	-2.023631e+01
1.350720e+02	-2.028575e+01
1.358522e+02	-2.033599e+01
1.366368e+02	-2.038499e+01
1.374260e+02	-2.043595e+01
1.382198e+02	-2.048541e+01
1.390182e+02	-2.053543e+01
1.398211e+02	-2.058378e+01
1.406287e+02	-2.063430e+01
1.414410e+02	-2.068209e+01
1.422579e+02	-2.073387e+01
1.430796e+02	-2.078205e+01
1.439060e+02	-2.083132e+01
1.447372e+02	-2.088278e+01
1.455732e+02	-2.093113e+01
1.464141e+02	-2.098122e+01
1.472597e+02	-2.103042e+01
1.481103e+02	-2.107935e+01
1.489658e+02	-2.112977e+01
1.498262e+02	-2.117790e+01
1.506916e+02	-2.122935e+01
1.515620e+02	-2.127811e+01
1.524374e+02	-2.132893e+01
1.533179e+02	-2.137813e+01
1.542034e+02	-2.142773e+01
1.550941e+02	-2.147829e+01
1.559899e+02	-2.152690e+01
1.568909e+02	-2.157613e+01
1.577971e+02	-2.162724e+01
1.587085e+02	-2.167715e+01
1.596252e+02	-2.172540e+01
1.605472e+02	-2.177719e+01
1.614745e+02	-2.182602e+01
1.624072e+02	-2.187550e+01
1.633453e+02	-2.192607e+01
1.642887e+02	-2.197353e+01
1.652377e+02	-2.202319e+01
1.661921e+02	-2.207592e+01
1.671520e+02	-2.212139e+01
1.681175e+02	-2.217279e+01
1.690885e+02	-2.222272e+01
1.700651e+02	-2.227333e+01
1.710474e+02	-2.232148e+01
1.720354e+02	-2.237345e+01
1.730291e+02	-2.242255e+01
1.740285e+02	-2.247198e+01
1.750337e+02	-2.252091e+01
1.760446e+02	-2.257240e+01
1.770615e+02	-2.262115e+01
1.780842e+02	-2.267189e+01
1.791128e+02	-2.271903e+01
1.801473e+02	-2.276960e+01
1.811878e+02	-2.282082e+01
1.822344e+02	-2.287158e+01
1.832870e+02	-2.291893e+01
1.843456e+02	-2.296796e+01
1.854104e+02	-2.302125e+01
1.864813e+02	-2.307149e+01
1.875584e+02	-2.311954e+01
1.886418e+02	-2.316748e+01
1.897313e+02	-2.322088e+01
1.908272e+02	-2.326968e+01
1.919294e+02	-2.331824e+01
1.930380e+02	-2.336927e+01
1.941530e+02	-2.341910e+01
1.952744e+02	-2.346749e+01
1.964023e+02	-2.351755e+01
1.975367e+02	-2.356630e+01
1.986777e+02	-2.361747e+01
1.998252e+02	-2.366641e+01
2.009794e+02	-2.371661e+01
2.021403e+02	-2.376605e+01
2.033078e+02	-2.381571e+01
2.044821e+02	-2.386552e+01
2.056632e+02	-2.391256e+01
2.068511e+02	-2.396498e+01
2.080459e+02	-2.401593e+01
2.092475e+02	-2.406682e+01
2.104561e+02	-2.411424e+01
2.116717e+02	-2.416610e+01
2.128943e+02	-2.421720e+01
2.141240e+02	-2.426539e+01
2.153608e+02	-2.431644e+01
2.166047e+02	-2.436443e+01
2.178558e+02	-2.441641e+01
2.191141e+02	-2.446507e+01
2.203797e+02	-2.451679e+01
2.216526e+02	-2.456442e+01
2.229329e+02	-2.461397e+01
2.242205e+02	-2.466213e+01
2.255156e+02	-2.471275e+01
2.268182e+02	-2.476202e+01
2.281283e+02	-2.481555e+01
2.294459e+02	-2.486474e+01
2.307712e+02	-2.491414e+01
2.321041e+02	-2.496434e+01
2.334447e+02	-2.501350e+01
2.347931e+02	-2.506396e+01
2.361493e+02	-2.511414e+01
2.375133e+02	-2.516168e+01
2.388851e+02	-2.521279e+01
2.402649e+02	-2.526307e+01
2.416527e+02	-2.531500e+01
2.430484e+02	-2.536235e+01
2.444523e+02	-2.541154e+01
2.458642e+02	-2.546223e+01
2.472843e+02	-2.551338e+01
2.487126e+02	-2.556016e+01
2.501492e+02	-2.561068e+01
2.515940e+02	-2.566360e+01
2.530472e+02	-2.571017e+01
2.545088e+02	-2.576406e+01
2.559789e+02	-2.581313e+01
2.574574e+02	-2.586024e+01
2.589444e+02	-2.591193e+01
2.604401e+02	-2.596154e+01
2.619444e+02	-2.601136e+01
2.634574e+02	-2.606675e+01
2.649791e+02	-2.611788e+01
2.665096e+02	-2.615950e+01
2.680489e+02	-2.621064e+01
2.695972e+02	-2.626351e+01
2.711544e+02	-2.631291e+01
2.727205e+02	-2.636473e+01
2.742958e+02	-2.641075e+01
2.758801e+02	-2.646112e+01
2.774736e+02	-2.650995e+01
2.790762e+02	-2.656107e+01
2.806882e+02	-2.661507e+01
2.823094e+02	-2.666378e+01
2.839400e+02	-2.671190e+01
2.855800e+02	-2.676145e+01
2.872295e+02	-2.681316e+01
2.888886e+02	-2.686170e+01
2.905572e+02	-2.691142e+01
2.922354e+02	-2.696164e+01
2.939234e+02	-2.701390e+01
2.956211e+02	-2.706120e+01
2.973286e+02	-2.711090e+01
2.990459e+02	-2.716051e+01
3.007732e+02	-2.721461e+01
3.025104e+02	-2.726461e+01
3.042577e+02	-2.731392e+01
3.060151e+02	-2.736296e+01
3.077826e+02	-2.740967e+01
3.095604e+02	-2.746149e+01
3.113484e+02	-2.751139e+01
3.131467e+02	-2.756240e+01
3.149554e+02	-2.761278e+01
3.167746e+02	-2.766246e+01
3.186043e+02	-2.771177e+01
3.204445e+02	-2.776283e+01
3.222954e+02	-2.781158e+01
3.241570e+02	-2.786169e+01
3.260293e+02	-2.791292e+01
3.279124e+02	-2.796191e+01
3.298064e+02	-2.801069e+01
3.317114e+02	-2.806121e+01
3.336273e+02	-2.811247e+01
3.355544e+02	-2.816013e+01
3.374925e+02	-2.821226e+01
3.394418e+02	-2.826100e+01
3.414024e+02	-2.830615e+01
3.433744e+02	-2.836297e+01
3.453577e+02	-2.841356e+01
3.473525e+02	-2.846237e+01
3.493588e+02	-2.850763e+01
3.513766e+02	-2.856172e+01
3.534062e+02	-2.861165e+01
3.554474e+02	-2.865643e+01
3.575005e+02	-2.871568e+01
3.595654e+02	-2.876586e+01
3.616422e+02	-2.881105e+01
3.637311e+02	-2.886147e+01
3.658320e+02	-2.891579e+01
3.679450e+02	-2.896418e+01
3.700702e+02	-2.901230e+01
3.722077e+02	-2.906038e+01
3.743576e+02	-2.911349e+01
3.765199e+02	-2.915867e+01
3.786946e+02	-2.921134e+01
3.808820e+02	-2.926107e+01
3.830819e+02	-2.931129e+01
3.852946e+02	-2.936185e+01
3.875200e+02	-2.941485e+01
3.897583e+02	-2.945972e+01
3.920096e+02	-2.951164e+01
3.942738e+02	-2.956097e+01
3.965511e+02	-2.961623e+01
3.988416e+02	-2.966244e+01
4.011452e+02	-2.971157e+01
4.034622e+02	-2.976462e+01
4.057926e+02	-2.981346e+01
4.081365e+02	-2.986325e+01
4.104938e+02	-2.991371e+01
4.128648e+02	-2.996817e+01
4.152495e+02	-3.001525e+01
4.176480e+02	-3.006657e+01
4.200603e+02	-3.011546e+01
4.224866e+02	-3.016260e+01
4.249268e+02	-3.021671e+01
4.273812e+02	-3.026685e+01
4.298497e+02	-3.031544e+01
4.323325e+02	-3.035969e+01
4.348297e+02	-3.041635e+01
4.373412e+02	-3.046357e+01
4.398673e+02	-3.051995e+01
4.424079e+02	-3.056595e+01
4.449633e+02	-3.061704e+01
4.475334e+02	-3.066514e+01
4.501183e+02	-3.071264e+01
4.527182e+02	-3.076725e+01
4.553330e+02	-3.081162e+01
4.579630e+02	-3.086817e+01
4.606082e+02	-3.091245e+01
4.632687e+02	-3.096567e+01
4.659445e+02	-3.101520e+01
4.686358e+02	-3.107074e+01
4.713426e+02	-3.111808e+01
4.740650e+02	-3.116502e+01
4.768032e+02	-3.121592e+01
4.795572e+02	-3.126791e+01
4.823271e+02	-3.131570e+01
4.851130e+02	-3.136766e+01
4.879150e+02	-3.141833e+01
4.907332e+02	-3.147331e+01
4.935676e+02	-3.151122e+01
4.964185e+02	-3.157134e+01
4.992858e+02	-3.161329e+01
5.021696e+02	-3.166757e+01
5.050701e+02	-3.171543e+01
5.079874e+02	-3.176529e+01
5.109215e+02	-3.181711e+01
5.138726e+02	-3.187270e+01
5.168407e+02	-3.191559e+01
5.198259e+02	-3.196306e+01
5.228284e+02	-3.202143e+01
5.258482e+02	-3.206755e+01
5.288855e+02	-3.212176e+01
5.319403e+02	-3.217454e+01
5.350128e+02	-3.221784e+01
5.381030e+02	-3.227339e+01
5.412111e+02	-3.231910e+01
5.443371e+02	-3.238346e+01
5.474812e+02	-3.242309e+01
5.506434e+02	-3.247139e+01
5.538239e+02	-3.251893e+01
5.570228e+02	-3.256699e+01
5.602401e+02	-3.262161e+01
5.634760e+02	-3.266866e+01
5.667306e+02	-3.271695e+01
5.700040e+02	-3.277212e+01
5.732964e+02	-3.282981e+01
5.766077e+02	-3.286475e+01
5.799382e+02	-3.291095e+01
5.832879e+02	-3.296657e+01
5.866569e+02	-3.302824e+01
5.900454e+02	-3.307825e+01
5.934535e+02	-3.313295e+01
5.968813e+02	-3.317579e+01
6.003288e+02	-3.322548e+01
6.037963e+02	-3.327583e+01
6.072838e+02	-3.332823e+01
6.107914e+02	-3.338220e+01
6.143194e+02	-3.342895e+01
6.178676e+02	-3.347989e+01
6.214364e+02	-3.352316e+01
6.250258e+02	-3.358112e+01
6.286359e+02	-3.363280e+01
6.322669e+02	-3.367844e+01
6.359189e+02	-3.372293e+01
6.395919e+02	-3.377842e+01
6.432862e+02	-3.382774e+01
6.470017e+02	-3.388414e+01
6.507388e+02	-3.392820e+01
6.544974e+02	-3.398407e+01
6.582778e+02	-3.402917e+01
6.620800e+02	-3.408147e+01
6.659041e+02	-3.412937e+01
6.697504e+02	-3.417350e+01
6.736188e+02	-3.422559e+01
6.775096e+02	-3.428431e+01
6.814229e+02	-3.432847e+01
6.853587e+02	-3.437315e+01
6.893173e+02	-3.443344e+01
6.932988e+02	-3.448170e+01
6.973033e+02	-3.453591e+01
7.013309e+02	-3.457891e+01
