Frequency(Hz)	Magnitude(dB)
1.000000e+01	-2.401103e+00
1.005776e+01	-2.422605e+00
1.011585e+01	-2.444058e+00
1.017428e+01	-2.465611e+00
1.023305e+01	-2.487160e+00
1.029215e+01	-2.509196e+00
1.035160e+01	-2.531190e+00
1.041139e+01	-2.553384e+00
1.047153e+01	-2.575553e+00
1.053201e+01	-2.598034e+00
1.059284e+01	-2.620539e+00
1.065403e+01	-2.643609e+00
1.071556e+01	-2.666356e+00
1.077746e+01	-2.689134e+00
1.083971e+01	-2.712433e+00
1.090232e+01	-2.735735e+00
1.096529e+01	-2.759450e+00
1.102862e+01	-2.782937e+00
1.109232e+01	-2.806450e+00
1.115639e+01	-2.830361e+00
1.122083e+01	-2.854568e+00
1.128564e+01	-2.878571e+00
1.135083e+01	-2.902749e+00
1.141639e+01	-2.927281e+00
1.148233e+01	-2.952080e+00
1.154865e+01	-2.976802e+00
1.161536e+01	-3.001720e+00
1.168245e+01	-3.026745e+00
1.174992e+01	-3.051819e+00
1.181779e+01	-3.077441e+00
1.188605e+01	-3.102666e+00
1.195470e+01	-3.127993e+00
1.202375e+01	-3.153787e+00
1.209320e+01	-3.179934e+00
1.216305e+01	-3.206049e+00
1.223330e+01	-3.232061e+00
1.230396e+01	-3.258727e+00
1.237503e+01	-3.284869e+00
1.244651e+01	-3.311507e+00
1.251840e+01	-3.338384e+00
1.259070e+01	-3.365252e+00
1.266343e+01	-3.392420e+00
1.273657e+01	-3.419414e+00
1.281014e+01	-3.446587e+00
1.288413e+01	-3.474318e+00
1.295855e+01	-3.501963e+00
1.303339e+01	-3.529876e+00
1.310867e+01	-3.557469e+00
1.318439e+01	-3.585375e+00
1.326054e+01	-3.613735e+00
1.333713e+01	-3.642116e+00
1.341417e+01	-3.670492e+00
1.349165e+01	-3.699164e+00
1.356958e+01	-3.728012e+00
1.364795e+01	-3.756923e+00
1.372678e+01	-3.785775e+00
1.380607e+01	-3.814833e+00
1.388581e+01	-3.844598e+00
1.396602e+01	-3.873833e+00
1.404668e+01	-3.903543e+00
1.412782e+01	-3.933022e+00
1.420942e+01	-3.962978e+00
1.429149e+01	-3.993229e+00
1.437404e+01	-4.023105e+00
1.445706e+01	-4.053587e+00
1.454057e+01	-4.084060e+00
1.462455e+01	-4.114741e+00
1.470902e+01	-4.144908e+00
1.479398e+01	-4.175983e+00
1.487943e+01	-4.206838e+00
1.496537e+01	-4.238203e+00
1.505181e+01	-4.269213e+00
1.513875e+01	-4.300594e+00
1.522619e+01	-4.332350e+00
1.531414e+01	-4.363819e+00
1.540259e+01	-4.395673e+00
1.549156e+01	-4.427527e+00
1.558103e+01	-4.459585e+00
1.567103e+01	-4.491813e+00
1.576155e+01	-4.523958e+00
1.585258e+01	-4.556559e+00
1.594415e+01	-4.589129e+00
1.603624e+01	-4.621866e+00
1.612886e+01	-4.654344e+00
1.622202e+01	-4.687647e+00
1.631572e+01	-4.720801e+00
1.640996e+01	-4.753849e+00
1.650474e+01	-4.787033e+00
1.660008e+01	-4.820696e+00
1.669596e+01	-4.854323e+00
1.679239e+01	-4.888139e+00
1.688938e+01	-4.922056e+00
1.698694e+01	-4.955911e+00
1.708505e+01	-4.989859e+00
1.718373e+01	-5.024163e+00
1.728299e+01	-5.058495e+00
1.738281e+01	-5.093198e+00
1.748322e+01	-5.127684e+00
1.758420e+01	-5.162224e+00
1.768576e+01	-5.197153e+00
1.778792e+01	-5.232229e+00
1.789066e+01	-5.267073e+00
1.799399e+01	-5.302471e+00
1.809793e+01	-5.337821e+00
1.820246e+01	-5.373227e+00
1.830760e+01	-5.408501e+00
1.841334e+01	-5.444331e+00
1.851969e+01	-5.480329e+00
1.862666e+01	-5.516262e+00
1.873425e+01	-5.552366e+00
1.884246e+01	-5.588442e+00
1.895129e+01	-5.624631e+00
1.906075e+01	-5.661101e+00
1.917085e+01	-5.697512e+00
1.928158e+01	-5.734196e+00
1.939295e+01	-5.770998e+00
1.950496e+01	-5.807729e+00
1.961762e+01	-5.845094e+00
1.973093e+01	-5.881645e+00
1.984490e+01	-5.918915e+00
1.995952e+01	-5.956429e+00
2.007480e+01	-5.993655e+00
2.019076e+01	-6.031107e+00
2.030738e+01	-6.068604e+00
2.042467e+01	-6.106470e+00
2.054264e+01	-6.144295e+00
2.066130e+01	-6.181981e+00
2.078064e+01	-6.220312e+00
2.090066e+01	-6.258545e+00
2.102139e+01	-6.296768e+00
2.114280e+01	-6.334783e+00
2.126492e+01	-6.373200e+00
2.138775e+01	-6.411807e+00
2.151128e+01	-6.450578e+00
2.163553e+01	-6.489074e+00
2.176050e+01	-6.528006e+00
2.188619e+01	-6.567213e+00
2.201260e+01	-6.605875e+00
2.213974e+01	-6.645247e+00
2.226762e+01	-6.684695e+00
2.239624e+01	-6.723813e+00
2.252560e+01	-6.763408e+00
2.265571e+01	-6.802859e+00
2.278656e+01	-6.842748e+00
2.291818e+01	-6.882258e+00
2.305055e+01	-6.922024e+00
2.318369e+01	-6.961861e+00
2.331760e+01	-7.001718e+00
2.345228e+01	-7.042070e+00
2.358774e+01	-7.082013e+00
2.372398e+01	-7.122649e+00
2.386101e+01	-7.162543e+00
2.399883e+01	-7.202808e+00
2.413745e+01	-7.243524e+00
2.427686e+01	-7.284239e+00
2.441709e+01	-7.325405e+00
2.455812e+01	-7.365708e+00
2.469997e+01	-7.406796e+00
2.484263e+01	-7.447832e+00
2.498612e+01	-7.488876e+00
2.513044e+01	-7.530101e+00
2.527559e+01	-7.571152e+00
2.542158e+01	-7.612517e+00
2.556842e+01	-7.654191e+00
2.571610e+01	-7.695512e+00
2.586463e+01	-7.736696e+00
2.601403e+01	-7.778443e+00
2.616428e+01	-7.819986e+00
2.631541e+01	-7.862670e+00
2.646740e+01	-7.904001e+00
2.662028e+01	-7.946157e+00
2.677404e+01	-7.987809e+00
2.692868e+01	-8.029949e+00
2.708422e+01	-8.072569e+00
2.724066e+01	-8.114751e+00
2.739800e+01	-8.157342e+00
2.755625e+01	-8.199275e+00
2.771541e+01	-8.241458e+00
2.787550e+01	-8.284394e+00
2.803650e+01	-8.327139e+00
2.819844e+01	-8.369651e+00
2.836131e+01	-8.412680e+00
2.852513e+01	-8.455551e+00
2.868989e+01	-8.498291e+00
2.885560e+01	-8.541756e+00
2.902227e+01	-8.584252e+00
2.918990e+01	-8.627369e+00
2.935850e+01	-8.670792e+00
2.952807e+01	-8.713570e+00
2.969863e+01	-8.757594e+00
2.987016e+01	-8.800668e+00
3.004269e+01	-8.844002e+00
3.021622e+01	-8.887755e+00
3.039075e+01	-8.931052e+00
3.056628e+01	-8.975308e+00
3.074283e+01	-9.018093e+00
3.092040e+01	-9.062431e+00
3.109900e+01	-9.105930e+00
3.127862e+01	-9.150019e+00
3.145929e+01	-9.194341e+00
3.164099e+01	-9.238408e+00
3.182375e+01	-9.282092e+00
3.200756e+01	-9.326847e+00
3.219244e+01	-9.370310e+00
3.237838e+01	-9.414909e+00
3.256540e+01	-9.459212e+00
3.275349e+01	-9.503180e+00
3.294268e+01	-9.548140e+00
3.313295e+01	-9.593326e+00
3.332433e+01	-9.637132e+00
3.351681e+01	-9.682189e+00
3.371040e+01	-9.726395e+00
3.390511e+01	-9.771271e+00
3.410094e+01	-9.816136e+00
3.429791e+01	-9.860631e+00
3.449601e+01	-9.905676e+00
3.469526e+01	-9.950591e+00
3.489566e+01	-9.995436e+00
3.509721e+01	-1.004080e+01
3.529993e+01	-1.008590e+01
3.550382e+01	-1.013063e+01
3.570889e+01	-1.017629e+01
3.591515e+01	-1.022140e+01
3.612259e+01	-1.026625e+01
3.633123e+01	-1.031178e+01
3.654108e+01	-1.035772e+01
3.675214e+01	-1.040300e+01
3.696442e+01	-1.044824e+01
3.717792e+01	-1.049410e+01
3.739266e+01	-1.053984e+01
3.760864e+01	-1.058530e+01
3.782587e+01	-1.063082e+01
3.804435e+01	-1.067612e+01
3.826409e+01	-1.072209e+01
3.848510e+01	-1.076787e+01
3.870739e+01	-1.081420e+01
3.893096e+01	-1.086012e+01
3.915583e+01	-1.090597e+01
3.938199e+01	-1.095183e+01
3.960946e+01	-1.099765e+01
3.983824e+01	-1.104418e+01
4.006834e+01	-1.109006e+01
4.029978e+01	-1.113646e+01
4.053255e+01	-1.118202e+01
4.076666e+01	-1.122838e+01
4.100213e+01	-1.127497e+01
4.123896e+01	-1.132115e+01
4.147715e+01	-1.136787e+01
4.171672e+01	-1.141413e+01
4.195767e+01	-1.146052e+01
4.220002e+01	-1.150697e+01
4.244377e+01	-1.155277e+01
4.268892e+01	-1.159988e+01
4.293549e+01	-1.164657e+01
4.318348e+01	-1.169299e+01
4.343291e+01	-1.173984e+01
4.368377e+01	-1.178602e+01
4.393609e+01	-1.183311e+01
4.418986e+01	-1.187957e+01
4.444510e+01	-1.192656e+01
4.470182e+01	-1.197333e+01
4.496001e+01	-1.202016e+01
4.521970e+01	-1.206711e+01
4.548089e+01	-1.211385e+01
4.574358e+01	-1.216183e+01
4.600779e+01	-1.220818e+01
4.627353e+01	-1.225509e+01
4.654081e+01	-1.230214e+01
4.680963e+01	-1.234953e+01
4.708000e+01	-1.239641e+01
4.735193e+01	-1.244353e+01
4.762543e+01	-1.249213e+01
4.790051e+01	-1.253814e+01
4.817719e+01	-1.258615e+01
4.845545e+01	-1.263273e+01
4.873533e+01	-1.267957e+01
4.901682e+01	-1.272739e+01
4.929994e+01	-1.277526e+01
4.958470e+01	-1.282153e+01
4.987110e+01	-1.286979e+01
5.015915e+01	-1.291675e+01
5.044887e+01	-1.296409e+01
5.074026e+01	-1.301245e+01
5.103333e+01	-1.305976e+01
5.132810e+01	-1.310707e+01
5.162457e+01	-1.315499e+01
5.192275e+01	-1.320254e+01
5.222265e+01	-1.325011e+01
5.252429e+01	-1.329746e+01
5.282767e+01	-1.334548e+01
5.313280e+01	-1.339338e+01
5.343969e+01	-1.344105e+01
5.374836e+01	-1.348930e+01
5.405880e+01	-1.353750e+01
5.437105e+01	-1.358438e+01
5.468509e+01	-1.363269e+01
5.500095e+01	-1.368062e+01
5.531863e+01	-1.372809e+01
5.563815e+01	-1.377606e+01
5.595951e+01	-1.382385e+01
5.628273e+01	-1.387219e+01
5.660782e+01	-1.391958e+01
5.693479e+01	-1.396681e+01
5.726364e+01	-1.401521e+01
5.759439e+01	-1.406348e+01
5.792705e+01	-1.411178e+01
5.826164e+01	-1.415972e+01
5.859815e+01	-1.420779e+01
5.893662e+01	-1.425662e+01
5.927703e+01	-1.430529e+01
5.961941e+01	-1.435222e+01
5.996377e+01	-1.440090e+01
6.031012e+01	-1.444882e+01
6.065847e+01	-1.449763e+01
6.100883e+01	-1.454503e+01
6.136121e+01	-1.459330e+01
6.171563e+01	-1.464166e+01
6.207210e+01	-1.469073e+01
6.243063e+01	-1.473857e+01
6.279122e+01	-1.478673e+01
6.315390e+01	-1.483573e+01
6.351868e+01	-1.488359e+01
6.388556e+01	-1.493253e+01
6.425456e+01	-1.498096e+01
6.462569e+01	-1.502849e+01
6.499897e+01	-1.507747e+01
6.537440e+01	-1.512617e+01
6.575200e+01	-1.517425e+01
6.613178e+01	-1.522250e+01
6.651375e+01	-1.527201e+01
6.689793e+01	-1.532008e+01
6.728433e+01	-1.536849e+01
6.767297e+01	-1.541771e+01
6.806384e+01	-1.546580e+01
6.845698e+01	-1.551458e+01
6.885238e+01	-1.556342e+01
6.925007e+01	-1.561252e+01
6.965005e+01	-1.565944e+01
7.005235e+01	-1.570917e+01
7.045697e+01	-1.575757e+01
7.086393e+01	-1.580739e+01
7.127323e+01	-1.585525e+01
7.168490e+01	-1.590368e+01
7.209895e+01	-1.595244e+01
7.251539e+01	-1.600216e+01
7.293424e+01	-1.604997e+01
7.335551e+01	-1.609888e+01
7.377920e+01	-1.614724e+01
7.420535e+01	-1.619599e+01
7.463396e+01	-1.624496e+01
7.506504e+01	-1.629444e+01
7.549861e+01	-1.634374e+01
7.593469e+01	-1.639150e+01
7.637328e+01	-1.644068e+01
7.681441e+01	-1.648967e+01
7.725809e+01	-1.653913e+01
7.770433e+01	-1.658817e+01
7.815315e+01	-1.663574e+01
7.860456e+01	-1.668597e+01
7.905857e+01	-1.673494e+01
7.951521e+01	-1.678390e+01
7.997449e+01	-1.683299e+01
8.043642e+01	-1.688222e+01
8.090102e+01	-1.693051e+01
8.136830e+01	-1.697894e+01
8.183828e+01	-1.702850e+01
8.231097e+01	-1.707740e+01
8.278640e+01	-1.712690e+01
8.326457e+01	-1.717653e+01
8.374550e+01	-1.722448e+01
8.422921e+01	-1.727363e+01
8.471572e+01	-1.732440e+01
8.520503e+01	-1.737254e+01
8.569717e+01	-1.742095e+01
8.619215e+01	-1.746964e+01
8.669000e+01	-1.751994e+01
8.719071e+01	-1.756878e+01
8.769432e+01	-1.761766e+01
8.820084e+01	-1.766755e+01
8.871029e+01	-1.771622e+01
8.922267e+01	-1.776573e+01
8.973802e+01	-1.781504e+01
9.025634e+01	-1.786386e+01
9.077766e+01	-1.791252e+01
9.130199e+01	-1.796129e+01
9.182935e+01	-1.801069e+01
9.235975e+01	-1.806114e+01
9.289321e+01	-1.811029e+01
9.342976e+01	-1.815968e+01
9.396941e+01	-1.820789e+01
9.451217e+01	-1.825774e+01
9.505807e+01	-1.830715e+01
9.560712e+01	-1.835507e+01
9.615934e+01	-1.840546e+01
9.671476e+01	-1.845491e+01
9.727338e+01	-1.850448e+01
9.783522e+01	-1.855346e+01
9.840032e+01	-1.860353e+01
9.896867e+01	-1.865131e+01
9.954031e+01	-1.870244e+01
1.001153e+02	-1.875105e+01
1.006935e+02	-1.879943e+01
1.012751e+02	-1.884954e+01
1.018601e+02	-1.890064e+01
1.024484e+02	-1.894813e+01
1.030402e+02	-1.899851e+01
1.036353e+02	-1.904810e+01
1.042339e+02	-1.909719e+01
1.048360e+02	-1.914463e+01
1.054415e+02	-1.919612e+01
1.060505e+02	-1.924446e+01
1.066631e+02	-1.929489e+01
1.072791e+02	-1.934356e+01
1.078988e+02	-1.939385e+01
1.085220e+02	-1.944179e+01
1.091488e+02	-1.949160e+01
1.097793e+02	-1.954243e+01
1.104133e+02	-1.958856e+01
1.110511e+02	-1.964119e+01
1.116925e+02	-1.969212e+01
1.123376e+02	-1.973894e+01
1.129865e+02	-1.978808e+01
1.136391e+02	-1.983840e+01
1.142955e+02	-1.988837e+01
1.149556e+02	-1.993723e+01
1.156196e+02	-1.998773e+01
1.162874e+02	-2.003654e+01
1.169591e+02	-2.008718e+01
1.176347e+02	-2.013604e+01
1.183141e+02	-2.018354e+01
1.189975e+02	-2.023479e+01
1.196848e+02	-2.028367e+01
1.203761e+02	-2.033452e+01
1.210714e+02	-2.038564e+01
1.217707e+02	-2.043375e+01
1.224740e+02	-2.048340e+01
1.231814e+02	-2.053260e+01
1.238929e+02	-2.058239e+01
1.246085e+02	-2.063098e+01
1.253283e+02	-2.068101e+01
1.260522e+02	-2.073018e+01
1.267802e+02	-2.078115e+01
1.275125e+02	-2.083109e+01
1.282490e+02	-2.087923e+01
1.289898e+02	-2.093018e+01
1.297348e+02	-2.097886e+01
1.304842e+02	-2.102878e+01
1.312378e+02	-2.107901e+01
1.319959e+02	-2.112687e+01
1.327583e+02	-2.117864e+01
1.335251e+02	-2.122767e+01
1.342963e+02	-2.127627e+01
1.350720e+02	-2.132640e+01
1.358522e+02	-2.137605e+01
1.366368e+02	-2.142703e+01
1.374260e+02	-2.147411e+01
1.382198e+02	-2.152454e+01
1.390182e+02	-2.157485e+01
1.398211e+02	-2.162437e+01
1.406287e+02	-2.167552e+01
1.414410e+02	-2.172504e+01
1.422579e+02	-2.177394e+01
1.430796e+02	-2.182351e+01
1.439060e+02	-2.187362e+01
1.447372e+02	-2.192116e+01
1.455732e+02	-2.197233e+01
1.464141e+02	-2.202290e+01
1.472597e+02	-2.207267e+01
1.481103e+02	-2.212108e+01
1.489658e+02	-2.217055e+01
1.498262e+02	-2.221999e+01
1.506916e+02	-2.226781e+01
1.515620e+02	-2.232373e+01
1.524374e+02	-2.237119e+01
1.533179e+02	-2.242092e+01
1.542034e+02	-2.246956e+01
1.550941e+02	-2.251965e+01
1.559899e+02	-2.257041e+01
1.568909e+02	-2.261681e+01
1.577971e+02	-2.267208e+01
1.587085e+02	-2.271896e+01
1.596252e+02	-2.276991e+01
1.605472e+02	-2.281770e+01
1.614745e+02	-2.286942e+01
1.624072e+02	-2.291838e+01
1.633453e+02	-2.296787e+01
1.642887e+02	-2.301795e+01
1.652377e+02	-2.306675e+01
1.661921e+02	-2.311561e+01
1.671520e+02	-2.316573e+01
1.681175e+02	-2.321904e+01
1.690885e+02	-2.326645e+01
1.700651e+02	-2.331505e+01
1.710474e+02	-2.336756e+01
1.720354e+02	-2.341604e+01
1.730291e+02	-2.346596e+01
1.740285e+02	-2.351418e+01
1.750337e+02	-2.356366e+01
1.760446e+02	-2.361370e+01
1.770615e+02	-2.366468e+01
1.780842e+02	-2.371465e+01
1.791128e+02	-2.376279e+01
1.801473e+02	-2.381693e+01
1.811878e+02	-2.386409e+01
1.822344e+02	-2.391443e+01
1.832870e+02	-2.396347e+01
1.843456e+02	-2.401450e+01
1.854104e+02	-2.406557e+01
1.864813e+02	-2.411440e+01
1.875584e+02	-2.416392e+01
1.886418e+02	-2.421230e+01
1.897313e+02	-2.426420e+01
1.908272e+02	-2.431365e+01
1.919294e+02	-2.436305e+01
1.930380e+02	-2.441084e+01
1.941530e+02	-2.446293e+01
1.952744e+02	-2.451545e+01
1.964023e+02	-2.456317e+01
1.975367e+02	-2.461387e+01
1.986777e+02	-2.466168e+01
1.998252e+02	-2.471488e+01
2.009794e+02	-2.476144e+01
2.021403e+02	-2.481211e+01
2.033078e+02	-2.486230e+01
2.044821e+02	-2.491346e+01
2.056632e+02	-2.495963e+01
2.068511e+02	-2.501117e+01
2.080459e+02	-2.505980e+01
2.092475e+02	-2.511359e+01
2.104561e+02	-2.516268e+01
2.116717e+02	-2.521355e+01
2.128943e+02	-2.525979e+01
2.141240e+02	-2.531131e+01
2.153608e+02	-2.535935e+01
2.166047e+02	-2.541210e+01
2.178558e+02	-2.545559e+01
2.191141e+02	-2.551062e+01
2.203797e+02	-2.556014e+01
2.216526e+02	-2.560904e+01
2.229329e+02	-2.566014e+01
2.242205e+02	-2.571178e+01
2.255156e+02	-2.576121e+01
2.268182e+02	-2.581299e+01
2.281283e+02	-2.585825e+01
2.294459e+02	-2.591125e+01
2.307712e+02	-2.596207e+01
2.321041e+02	-2.600962e+01
2.334447e+02	-2.606253e+01
2.347931e+02	-2.610949e+01
2.361493e+02	-2.615991e+01
2.375133e+02	-2.620853e+01
2.388851e+02	-2.626289e+01
2.402649e+02	-2.630903e+01
2.416527e+02	-2.636371e+01
2.430484e+02	-2.641189e+01
2.444523e+02	-2.646200e+01
2.458642e+02	-2.650875e+01
2.472843e+02	-2.655931e+01
2.487126e+02	-2.660606e+01
2.501492e+02	-2.666327e+01
2.515940e+02	-2.670894e+01
2.530472e+02	-2.676046e+01
2.545088e+02	-2.680988e+01
2.559789e+02	-2.685975e+01
2.574574e+02	-2.691114e+01
2.589444e+02	-2.695958e+01
2.604401e+02	-2.700871e+01
2.619444e+02	-2.706231e+01
2.634574e+02	-2.710945e+01
2.649791e+02	-2.716005e+01
2.665096e+02	-2.721338e+01
2.680489e+02	-2.725931e+01
2.695972e+02	-2.731069e+01
2.711544e+02	-2.735875e+01
2.727205e+02	-2.740909e+01
2.742958e+02	-2.745755e+01
2.758801e+02	-2.750718e+01
2.774736e+02	-2.755826e+01
2.790762e+02	-2.761131e+01
2.806882e+02	-2.765896e+01
2.823094e+02	-2.770804e+01
2.839400e+02	-2.775812e+01
2.855800e+02	-2.780999e+01
2.872295e+02	-2.785873e+01
2.888886e+02	-2.791215e+01
2.905572e+02	-2.795931e+01
2.922354e+02	-2.800926e+01
2.939234e+02	-2.805713e+01
2.956211e+02	-2.811187e+01
2.973286e+02	-2.815902e+01
2.990459e+02	-2.820922e+01
3.007732e+02	-2.826004e+01
3.025104e+02	-2.831220e+01
3.042577e+02	-2.835766e+01
3.060151e+02	-2.840759e+01
3.077826e+02	-2.846051e+01
3.095604e+02	-2.851038e+01
3.113484e+02	-2.855884e+01
3.131467e+02	-2.861033e+01
3.149554e+02	-2.866052e+01
3.167746e+02	-2.870922e+01
3.186043e+02	-2.875746e+01
3.204445e+02	-2.881048e+01
3.222954e+02	-2.886111e+01
3.241570e+02	-2.891133e+01
3.260293e+02	-2.896051e+01
3.279124e+02	-2.901214e+01
3.298064e+02	-2.906062e+01
3.317114e+02	-2.911338e+01
3.336273e+02	-2.916233e+01
3.355544e+02	-2.920920e+01
3.374925e+02	-2.925934e+01
3.394418e+02	-2.931224e+01
3.414024e+02	-2.935532e+01
3.433744e+02	-2.940914e+01
3.453577e+02	-2.946830e+01
3.473525e+02	-2.951057e+01
3.493588e+02	-2.955826e+01
3.513766e+02	-2.960769e+01
3.534062e+02	-2.966341e+01
3.554474e+02	-2.971110e+01
3.575005e+02	-2.976257e+01
3.595654e+02	-2.981173e+01
3.616422e+02	-2.985955e+01
3.637311e+02	-2.991347e+01
3.658320e+02	-2.996560e+01
3.679450e+02	-3.001029e+01
3.700702e+02	-3.005989e+01
3.722077e+02	-3.010720e+01
3.743576e+02	-3.015960e+01
3.765199e+02	-3.021297e+01
3.786946e+02	-3.025900e+01
3.808820e+02	-3.031225e+01
3.830819e+02	-3.036012e+01
3.852946e+02	-3.041453e+01
3.875200e+02	-3.045809e+01
3.897583e+02	-3.051389e+01
3.920096e+02	-3.056538e+01
3.942738e+02	-3.060741e+01
3.965511e+02	-3.065827e+01
3.988416e+02	-3.071082e+01
4.011452e+02	-3.076271e+01
4.034622e+02	-3.081221e+01
4.057926e+02	-3.086400e+01
4.081365e+02	-3.090815e+01
4.104938e+02	-3.096026e+01
4.128648e+02	-3.101922e+01
4.152495e+02	-3.106548e+01
4.176480e+02	-3.111471e+01
4.200603e+02	-3.116224e+01
4.224866e+02	-3.120846e+01
4.249268e+02	-3.126880e+01
4.273812e+02	-3.131136e+01
4.298497e+02	-3.136689e+01
4.323325e+02	-3.141599e+01
4.348297e+02	-3.146296e+01
4.373412e+02	-3.151462e+01
4.398673e+02	-3.156288e+01
4.424079e+02	-3.161587e+01
4.449633e+02	-3.166287e+01
4.475334e+02	-3.171516e+01
4.501183e+02	-3.176616e+01
4.527182e+02	-3.181238e+01
4.553330e+02	-3.187016e+01
4.579630e+02	-3.191385e+01
4.606082e+02	-3.196595e+01
4.632687e+02	-3.201365e+01
4.659445e+02	-3.206525e+01
4.686358e+02	-3.211878e+01
4.713426e+02	-3.216983e+01
4.740650e+02	-3.221808e+01
4.768032e+02	-3.227074e+01
4.795572e+02	-3.231782e+01
4.823271e+02	-3.236127e+01
4.851130e+02	-3.241791e+01
4.879150e+02	-3.246941e+01
4.907332e+02	-3.252371e+01
4.935676e+02	-3.256808e+01
4.964185e+02	-3.261643e+01
4.992858e+02	-3.267005e+01
5.021696e+02	-3.271779e+01
5.050701e+02	-3.277222e+01
5.079874e+02	-3.281576e+01
5.109215e+02	-3.287613e+01
5.138726e+02	-3.291589e+01
5.168407e+02	-3.297877e+01
5.198259e+02	-3.301409e+01
5.228284e+02	-3.307006e+01
5.258482e+02	-3.311848e+01
5.288855e+02	-3.317201e+01
5.319403e+02	-3.322026e+01
5.350128e+02	-3.326929e+01
5.381030e+02	-3.331639e+01
5.412111e+02	-3.336462e+01
5.443371e+02	-3.342054e+01
5.474812e+02	-3.348019e+01
5.506434e+02	-3.352189e+01
5.538239e+02	-3.357730e+01
5.570228e+02	-3.362501e+01
5.602401e+02	-3.367797e+01
5.634760e+02	-3.371459e+01
5.667306e+02	-3.377033e+01
5.700040e+02	-3.381622e+01
5.732964e+02	-3.387147e+01
5.766077e+02	-3.392531e+01
5.799382e+02	-3.398203e+01
5.832879e+02	-3.402319e+01
5.866569e+02	-3.407111e+01
5.900454e+02	-3.412297e+01
5.934535e+02	-3.418242e+01
5.968813e+02	-3.422296e+01
6.003288e+02	-3.427243e+01
6.037963e+02	-3.433188e+01
6.072838e+02	-3.437013e+01
6.107914e+02	-3.443010e+01
6.143194e+02	-3.447740e+01
6.178676e+02	-3.452193e+01
6.214364e+02	-3.457143e+01
6.250258e+02	-3.463190e+01
6.286359e+02	-3.467643e+01
6.322669e+02	-3.473429e+01
6.359189e+02	-3.477688e+01
6.395919e+02	-3.483898e+01
6.432862e+02	-3.488680e+01
6.470017e+02	-3.493958e+01
6.507388e+02	-3.498540e+01
6.544974e+02	-3.503308e+01
6.582778e+02	-3.509194e+01
6.620800e+02	-3.513062e+01
6.659041e+02	-3.518351e+01
6.697504e+02	-3.523085e+01
6.736188e+02	-3.528856e+01
6.775096e+02	-3.532724e+01
6.814229e+02	-3.537414e+01
6.853587e+02	-3.543852e+01
6.893173e+02	-3.548732e+01
6.932988e+02	-3.553674e+01
6.973033e+02	-3.558557e+01
7.013309e+02	-3.563015e+01
