Frequency(Hz)	Magnitude(dB)
1.000000e+01	-1.531202e-05
1.005776e+01	-1.548942e-05
1.011585e+01	-1.566887e-05
1.017428e+01	-1.585040e-05
1.023305e+01	-1.603403e-05
1.029215e+01	-1.621978e-05
1.035160e+01	-1.640769e-05
1.041139e+01	-1.659778e-05
1.047153e+01	-1.679007e-05
1.053201e+01	-1.698459e-05
1.059284e+01	-1.718136e-05
1.065403e+01	-1.738041e-05
1.071556e+01	-1.758177e-05
1.077746e+01	-1.778546e-05
1.083971e+01	-1.799151e-05
1.090232e+01	-1.819994e-05
1.096529e+01	-1.841079e-05
1.102862e+01	-1.862409e-05
1.109232e+01	-1.883985e-05
1.115639e+01	-1.905812e-05
1.122083e+01	-1.927891e-05
1.128564e+01	-1.950226e-05
1.135083e+01	-1.972820e-05
1.141639e+01	-1.995675e-05
1.148233e+01	-2.018796e-05
1.154865e+01	-2.042184e-05
1.161536e+01	-2.065843e-05
1.168245e+01	-2.089777e-05
1.174992e+01	-2.113987e-05
1.181779e+01	-2.138478e-05
1.188605e+01	-2.163253e-05
1.195470e+01	-2.188315e-05
1.202375e+01	-2.213667e-05
1.209320e+01	-2.239313e-05
1.216305e+01	-2.265256e-05
1.223330e+01	-2.291500e-05
1.230396e+01	-2.318047e-05
1.237503e+01	-2.344902e-05
1.244651e+01	-2.372069e-05
1.251840e+01	-2.399550e-05
1.259070e+01	-2.427349e-05
1.266343e+01	-2.455470e-05
1.273657e+01	-2.483918e-05
1.281014e+01	-2.512694e-05
1.288413e+01	-2.541805e-05
1.295855e+01	-2.571252e-05
1.303339e+01	-2.601041e-05
1.310867e+01	-2.631174e-05
1.318439e+01	-2.661657e-05
1.326054e+01	-2.692493e-05
1.333713e+01	-2.723686e-05
1.341417e+01	-2.755241e-05
1.349165e+01	-2.787161e-05
1.356958e+01	-2.819451e-05
1.364795e+01	-2.852115e-05
1.372678e+01	-2.885157e-05
1.380607e+01	-2.918583e-05
1.388581e+01	-2.952395e-05
1.396602e+01	-2.986599e-05
1.404668e+01	-3.021200e-05
1.412782e+01	-3.056201e-05
1.420942e+01	-3.091608e-05
1.429149e+01	-3.127425e-05
1.437404e+01	-3.163657e-05
1.445706e+01	-3.200309e-05
1.454057e+01	-3.237385e-05
1.462455e+01	-3.274891e-05
1.470902e+01	-3.312831e-05
1.479398e+01	-3.351211e-05
1.487943e+01	-3.390036e-05
1.496537e+01	-3.429310e-05
1.505181e+01	-3.469039e-05
1.513875e+01	-3.509229e-05
1.522619e+01	-3.549884e-05
1.531414e+01	-3.591011e-05
1.540259e+01	-3.632613e-05
1.549156e+01	-3.674698e-05
1.558103e+01	-3.717270e-05
1.567103e+01	-3.760336e-05
1.576155e+01	-3.803900e-05
1.585258e+01	-3.847969e-05
1.594415e+01	-3.892549e-05
1.603624e+01	-3.937645e-05
1.612886e+01	-3.983263e-05
1.622202e+01	-4.029410e-05
1.631572e+01	-4.076092e-05
1.640996e+01	-4.123314e-05
1.650474e+01	-4.171084e-05
1.660008e+01	-4.219407e-05
1.669596e+01	-4.268289e-05
1.679239e+01	-4.317738e-05
1.688938e+01	-4.367760e-05
1.698694e+01	-4.418362e-05
1.708505e+01	-4.469550e-05
1.718373e+01	-4.521330e-05
1.728299e+01	-4.573711e-05
1.738281e+01	-4.626698e-05
1.748322e+01	-4.680300e-05
1.758420e+01	-4.734522e-05
1.768576e+01	-4.789372e-05
1.778792e+01	-4.844858e-05
1.789066e+01	-4.900987e-05
1.799399e+01	-4.957766e-05
1.809793e+01	-5.015203e-05
1.820246e+01	-5.073305e-05
1.830760e+01	-5.132080e-05
1.841334e+01	-5.191537e-05
1.851969e+01	-5.251682e-05
1.862666e+01	-5.312523e-05
1.873425e+01	-5.374070e-05
1.884246e+01	-5.436330e-05
1.895129e+01	-5.499311e-05
1.906075e+01	-5.563021e-05
1.917085e+01	-5.627470e-05
1.928158e+01	-5.692666e-05
1.939295e+01	-5.758616e-05
1.950496e+01	-5.825331e-05
1.961762e+01	-5.892819e-05
1.973093e+01	-5.961088e-05
1.984490e+01	-6.030149e-05
1.995952e+01	-6.100009e-05
2.007480e+01	-6.170679e-05
2.019076e+01	-6.242167e-05
2.030738e+01	-6.314484e-05
2.042467e+01	-6.387639e-05
2.054264e+01	-6.461641e-05
2.066130e+01	-6.536500e-05
2.078064e+01	-6.612227e-05
2.090066e+01	-6.688830e-05
2.102139e+01	-6.766322e-05
2.114280e+01	-6.844711e-05
2.126492e+01	-6.924008e-05
2.138775e+01	-7.004224e-05
2.151128e+01	-7.085369e-05
2.163553e+01	-7.167455e-05
2.176050e+01	-7.250491e-05
2.188619e+01	-7.334489e-05
2.201260e+01	-7.419461e-05
2.213974e+01	-7.505416e-05
2.226762e+01	-7.592368e-05
2.239624e+01	-7.680327e-05
2.252560e+01	-7.769305e-05
2.265571e+01	-7.859314e-05
2.278656e+01	-7.950365e-05
2.291818e+01	-8.042471e-05
2.305055e+01	-8.135645e-05
2.318369e+01	-8.229898e-05
2.331760e+01	-8.325242e-05
2.345228e+01	-8.421692e-05
2.358774e+01	-8.519258e-05
2.372398e+01	-8.617955e-05
2.386101e+01	-8.717796e-05
2.399883e+01	-8.818793e-05
2.413745e+01	-8.920960e-05
2.427686e+01	-9.024311e-05
2.441709e+01	-9.128859e-05
2.455812e+01	-9.234618e-05
2.469997e+01	-9.341603e-05
2.484263e+01	-9.449827e-05
2.498612e+01	-9.559304e-05
2.513044e+01	-9.670050e-05
2.527559e+01	-9.782079e-05
2.542158e+01	-9.895406e-05
2.556842e+01	-1.001005e-04
2.571610e+01	-1.012601e-04
2.586463e+01	-1.024332e-04
2.601403e+01	-1.036200e-04
2.616428e+01	-1.048204e-04
2.631541e+01	-1.060348e-04
2.646740e+01	-1.072632e-04
2.662028e+01	-1.085058e-04
2.677404e+01	-1.097629e-04
2.692868e+01	-1.110345e-04
2.708422e+01	-1.123209e-04
2.724066e+01	-1.136221e-04
2.739800e+01	-1.149384e-04
2.755625e+01	-1.162700e-04
2.771541e+01	-1.176170e-04
2.787550e+01	-1.189796e-04
2.803650e+01	-1.203580e-04
2.819844e+01	-1.217524e-04
2.836131e+01	-1.231629e-04
2.852513e+01	-1.245898e-04
2.868989e+01	-1.260331e-04
2.885560e+01	-1.274933e-04
2.902227e+01	-1.289703e-04
2.918990e+01	-1.304644e-04
2.935850e+01	-1.319759e-04
2.952807e+01	-1.335048e-04
2.969863e+01	-1.350515e-04
2.987016e+01	-1.366161e-04
3.004269e+01	-1.381988e-04
3.021622e+01	-1.397998e-04
3.039075e+01	-1.414194e-04
3.056628e+01	-1.430578e-04
3.074283e+01	-1.447151e-04
3.092040e+01	-1.463916e-04
3.109900e+01	-1.480876e-04
3.127862e+01	-1.498032e-04
3.145929e+01	-1.515387e-04
3.164099e+01	-1.532943e-04
3.182375e+01	-1.550702e-04
3.200756e+01	-1.568667e-04
3.219244e+01	-1.586840e-04
3.237838e+01	-1.605224e-04
3.256540e+01	-1.623820e-04
3.275349e+01	-1.642632e-04
3.294268e+01	-1.661662e-04
3.313295e+01	-1.680913e-04
3.332433e+01	-1.700386e-04
3.351681e+01	-1.720085e-04
3.371040e+01	-1.740013e-04
3.390511e+01	-1.760171e-04
3.410094e+01	-1.780562e-04
3.429791e+01	-1.801190e-04
3.449601e+01	-1.822057e-04
3.469526e+01	-1.843166e-04
3.489566e+01	-1.864519e-04
3.509721e+01	-1.886119e-04
3.529993e+01	-1.907970e-04
3.550382e+01	-1.930074e-04
3.570889e+01	-1.952434e-04
3.591515e+01	-1.975053e-04
3.612259e+01	-1.997934e-04
3.633123e+01	-2.021080e-04
3.654108e+01	-2.044494e-04
3.675214e+01	-2.068180e-04
3.696442e+01	-2.092140e-04
3.717792e+01	-2.116377e-04
3.739266e+01	-2.140895e-04
3.760864e+01	-2.165697e-04
3.782587e+01	-2.190787e-04
3.804435e+01	-2.216167e-04
3.826409e+01	-2.241842e-04
3.848510e+01	-2.267813e-04
3.870739e+01	-2.294086e-04
3.893096e+01	-2.320663e-04
3.915583e+01	-2.347547e-04
3.938199e+01	-2.374744e-04
3.960946e+01	-2.402255e-04
3.983824e+01	-2.430085e-04
4.006834e+01	-2.458237e-04
4.029978e+01	-2.486716e-04
4.053255e+01	-2.515524e-04
4.076666e+01	-2.544667e-04
4.100213e+01	-2.574146e-04
4.123896e+01	-2.603968e-04
4.147715e+01	-2.634135e-04
4.171672e+01	-2.664651e-04
4.195767e+01	-2.695521e-04
4.220002e+01	-2.726748e-04
4.244377e+01	-2.758337e-04
4.268892e+01	-2.790292e-04
4.293549e+01	-2.822617e-04
4.318348e+01	-2.855317e-04
4.343291e+01	-2.888396e-04
4.368377e+01	-2.921857e-04
4.393609e+01	-2.955707e-04
4.418986e+01	-2.989948e-04
4.444510e+01	-3.024586e-04
4.470182e+01	-3.059626e-04
4.496001e+01	-3.095071e-04
4.521970e+01	-3.130927e-04
4.548089e+01	-3.167199e-04
4.574358e+01	-3.203890e-04
4.600779e+01	-3.241007e-04
4.627353e+01	-3.278553e-04
4.654081e+01	-3.316535e-04
4.680963e+01	-3.354956e-04
4.708000e+01	-3.393823e-04
4.735193e+01	-3.433140e-04
4.762543e+01	-3.472912e-04
4.790051e+01	-3.513145e-04
4.817719e+01	-3.553844e-04
4.845545e+01	-3.595015e-04
4.873533e+01	-3.636662e-04
4.901682e+01	-3.678792e-04
4.929994e+01	-3.721410e-04
4.958470e+01	-3.764522e-04
4.987110e+01	-3.808133e-04
5.015915e+01	-3.852249e-04
5.044887e+01	-3.896877e-04
5.074026e+01	-3.942021e-04
5.103333e+01	-3.987688e-04
5.132810e+01	-4.033885e-04
5.162457e+01	-4.080616e-04
5.192275e+01	-4.127889e-04
5.222265e+01	-4.175709e-04
5.252429e+01	-4.224084e-04
5.282767e+01	-4.273018e-04
5.313280e+01	-4.322520e-04
5.343969e+01	-4.372595e-04
5.374836e+01	-4.423250e-04
5.405880e+01	-4.474492e-04
5.437105e+01	-4.526328e-04
5.468509e+01	-4.578764e-04
5.500095e+01	-4.631807e-04
5.531863e+01	-4.685465e-04
5.563815e+01	-4.739744e-04
5.595951e+01	-4.794653e-04
5.628273e+01	-4.850197e-04
5.660782e+01	-4.906385e-04
5.693479e+01	-4.963223e-04
5.726364e+01	-5.020720e-04
5.759439e+01	-5.078883e-04
5.792705e+01	-5.137720e-04
5.826164e+01	-5.197238e-04
5.859815e+01	-5.257446e-04
5.893662e+01	-5.318351e-04
5.927703e+01	-5.379962e-04
5.961941e+01	-5.442287e-04
5.996377e+01	-5.505333e-04
6.031012e+01	-5.569110e-04
6.065847e+01	-5.633625e-04
6.100883e+01	-5.698888e-04
6.136121e+01	-5.764907e-04
6.171563e+01	-5.831690e-04
6.207210e+01	-5.899248e-04
6.243063e+01	-5.967587e-04
6.279122e+01	-6.036719e-04
6.315390e+01	-6.106651e-04
6.351868e+01	-6.177393e-04
6.388556e+01	-6.248955e-04
6.425456e+01	-6.321345e-04
6.462569e+01	-6.394574e-04
6.499897e+01	-6.468652e-04
6.537440e+01	-6.543587e-04
6.575200e+01	-6.619391e-04
6.613178e+01	-6.696072e-04
6.651375e+01	-6.773642e-04
6.689793e+01	-6.852110e-04
6.728433e+01	-6.931488e-04
6.767297e+01	-7.011784e-04
6.806384e+01	-7.093011e-04
6.845698e+01	-7.175179e-04
6.885238e+01	-7.258298e-04
6.925007e+01	-7.342380e-04
6.965005e+01	-7.427437e-04
7.005235e+01	-7.513478e-04
7.045697e+01	-7.600516e-04
7.086393e+01	-7.688562e-04
7.127323e+01	-7.777629e-04
7.168490e+01	-7.867726e-04
7.209895e+01	-7.958868e-04
7.251539e+01	-8.051065e-04
7.293424e+01	-8.144330e-04
7.335551e+01	-8.238675e-04
7.377920e+01	-8.334113e-04
7.420535e+01	-8.430657e-04
7.463396e+01	-8.528319e-04
7.506504e+01	-8.627112e-04
7.549861e+01	-8.727049e-04
7.593469e+01	-8.828144e-04
7.637328e+01	-8.930410e-04
7.681441e+01	-9.033861e-04
7.725809e+01	-9.138510e-04
7.770433e+01	-9.244371e-04
7.815315e+01	-9.351458e-04
7.860456e+01	-9.459785e-04
7.905857e+01	-9.569367e-04
7.951521e+01	-9.680218e-04
7.997449e+01	-9.792354e-04
8.043642e+01	-9.905788e-04
8.090102e+01	-1.002054e-03
8.136830e+01	-1.013661e-03
8.183828e+01	-1.025403e-03
8.231097e+01	-1.037282e-03
8.278640e+01	-1.049297e-03
8.326457e+01	-1.061452e-03
8.374550e+01	-1.073748e-03
8.422921e+01	-1.086186e-03
8.471572e+01	-1.098768e-03
8.520503e+01	-1.111496e-03
8.569717e+01	-1.124371e-03
8.619215e+01	-1.137396e-03
8.669000e+01	-1.150571e-03
8.719071e+01	-1.163899e-03
8.769432e+01	-1.177381e-03
8.820084e+01	-1.191020e-03
8.871029e+01	-1.204816e-03
8.922267e+01	-1.218772e-03
8.973802e+01	-1.232890e-03
9.025634e+01	-1.247171e-03
9.077766e+01	-1.261618e-03
9.130199e+01	-1.276232e-03
9.182935e+01	-1.291015e-03
9.235975e+01	-1.305970e-03
9.289321e+01	-1.321098e-03
9.342976e+01	-1.336401e-03
9.396941e+01	-1.351881e-03
9.451217e+01	-1.367540e-03
9.505807e+01	-1.383381e-03
9.560712e+01	-1.399405e-03
9.615934e+01	-1.415615e-03
9.671476e+01	-1.432013e-03
9.727338e+01	-1.448600e-03
9.783522e+01	-1.465380e-03
9.840032e+01	-1.482354e-03
9.896867e+01	-1.499524e-03
9.954031e+01	-1.516894e-03
1.001153e+02	-1.534464e-03
1.006935e+02	-1.552238e-03
1.012751e+02	-1.570218e-03
1.018601e+02	-1.588406e-03
1.024484e+02	-1.606805e-03
1.030402e+02	-1.625416e-03
1.036353e+02	-1.644244e-03
1.042339e+02	-1.663289e-03
1.048360e+02	-1.682555e-03
1.054415e+02	-1.702044e-03
1.060505e+02	-1.721759e-03
1.066631e+02	-1.741702e-03
1.072791e+02	-1.761876e-03
1.078988e+02	-1.782283e-03
1.085220e+02	-1.802927e-03
1.091488e+02	-1.823810e-03
1.097793e+02	-1.844935e-03
1.104133e+02	-1.866305e-03
1.110511e+02	-1.887922e-03
1.116925e+02	-1.909789e-03
1.123376e+02	-1.931909e-03
1.129865e+02	-1.954286e-03
1.136391e+02	-1.976922e-03
1.142955e+02	-1.999820e-03
1.149556e+02	-2.022983e-03
1.156196e+02	-2.046414e-03
1.162874e+02	-2.070117e-03
1.169591e+02	-2.094094e-03
1.176347e+02	-2.118348e-03
1.183141e+02	-2.142884e-03
1.189975e+02	-2.167704e-03
1.196848e+02	-2.192811e-03
1.203761e+02	-2.218208e-03
1.210714e+02	-2.243900e-03
1.217707e+02	-2.269890e-03
1.224740e+02	-2.296180e-03
1.231814e+02	-2.322775e-03
1.238929e+02	-2.349677e-03
1.246085e+02	-2.376892e-03
1.253283e+02	-2.404421e-03
1.260522e+02	-2.432269e-03
1.267802e+02	-2.460440e-03
1.275125e+02	-2.488936e-03
1.282490e+02	-2.517763e-03
1.289898e+02	-2.546923e-03
1.297348e+02	-2.576421e-03
1.304842e+02	-2.606261e-03
1.312378e+02	-2.636446e-03
1.319959e+02	-2.666980e-03
1.327583e+02	-2.697868e-03
1.335251e+02	-2.729114e-03
1.342963e+02	-2.760722e-03
1.350720e+02	-2.792695e-03
1.358522e+02	-2.825038e-03
1.366368e+02	-2.857757e-03
1.374260e+02	-2.890853e-03
1.382198e+02	-2.924333e-03
1.390182e+02	-2.958201e-03
1.398211e+02	-2.992461e-03
1.406287e+02	-3.027117e-03
1.414410e+02	-3.062175e-03
1.422579e+02	-3.097638e-03
1.430796e+02	-3.133512e-03
1.439060e+02	-3.169801e-03
1.447372e+02	-3.206511e-03
1.455732e+02	-3.243645e-03
1.464141e+02	-3.281209e-03
1.472597e+02	-3.319208e-03
1.481103e+02	-3.357647e-03
1.489658e+02	-3.396531e-03
1.498262e+02	-3.435866e-03
1.506916e+02	-3.475655e-03
1.515620e+02	-3.515905e-03
1.524374e+02	-3.556621e-03
1.533179e+02	-3.597808e-03
1.542034e+02	-3.639472e-03
1.550941e+02	-3.681619e-03
1.559899e+02	-3.724253e-03
1.568909e+02	-3.767381e-03
1.577971e+02	-3.811008e-03
1.587085e+02	-3.855139e-03
1.596252e+02	-3.899782e-03
1.605472e+02	-3.944942e-03
1.614745e+02	-3.990624e-03
1.624072e+02	-4.036835e-03
1.633453e+02	-4.083580e-03
1.642887e+02	-4.130867e-03
1.652377e+02	-4.178701e-03
1.661921e+02	-4.227089e-03
1.671520e+02	-4.276037e-03
1.681175e+02	-4.325551e-03
1.690885e+02	-4.375638e-03
1.700651e+02	-4.426305e-03
1.710474e+02	-4.477559e-03
1.720354e+02	-4.529405e-03
1.730291e+02	-4.581852e-03
1.740285e+02	-4.634905e-03
1.750337e+02	-4.688573e-03
1.760446e+02	-4.742862e-03
1.770615e+02	-4.797778e-03
1.780842e+02	-4.853331e-03
1.791128e+02	-4.909526e-03
1.801473e+02	-4.966372e-03
1.811878e+02	-5.023875e-03
1.822344e+02	-5.082044e-03
1.832870e+02	-5.140886e-03
1.843456e+02	-5.200408e-03
1.854104e+02	-5.260620e-03
1.864813e+02	-5.321528e-03
1.875584e+02	-5.383141e-03
1.886418e+02	-5.445467e-03
1.897313e+02	-5.508514e-03
1.908272e+02	-5.572290e-03
1.919294e+02	-5.636805e-03
1.930380e+02	-5.702066e-03
1.941530e+02	-5.768082e-03
1.952744e+02	-5.834861e-03
1.964023e+02	-5.902414e-03
1.975367e+02	-5.970748e-03
1.986777e+02	-6.039872e-03
1.998252e+02	-6.109796e-03
2.009794e+02	-6.180529e-03
2.021403e+02	-6.252081e-03
2.033078e+02	-6.324460e-03
2.044821e+02	-6.397676e-03
2.056632e+02	-6.471739e-03
2.068511e+02	-6.546659e-03
2.080459e+02	-6.622446e-03
2.092475e+02	-6.699110e-03
2.104561e+02	-6.776660e-03
2.116717e+02	-6.855107e-03
2.128943e+02	-6.934462e-03
2.141240e+02	-7.014734e-03
2.153608e+02	-7.095935e-03
2.166047e+02	-7.178075e-03
2.178558e+02	-7.261165e-03
2.191141e+02	-7.345216e-03
2.203797e+02	-7.430239e-03
2.216526e+02	-7.516246e-03
2.229329e+02	-7.603247e-03
2.242205e+02	-7.691254e-03
2.255156e+02	-7.780280e-03
2.268182e+02	-7.870334e-03
2.281283e+02	-7.961430e-03
2.294459e+02	-8.053580e-03
2.307712e+02	-8.146795e-03
2.321041e+02	-8.241088e-03
2.334447e+02	-8.336471e-03
2.347931e+02	-8.432957e-03
2.361493e+02	-8.530559e-03
2.375133e+02	-8.629289e-03
2.388851e+02	-8.729160e-03
2.402649e+02	-8.830187e-03
2.416527e+02	-8.932381e-03
2.430484e+02	-9.035757e-03
2.444523e+02	-9.140328e-03
2.458642e+02	-9.246108e-03
2.472843e+02	-9.353111e-03
2.487126e+02	-9.461351e-03
2.501492e+02	-9.570842e-03
2.515940e+02	-9.681599e-03
2.530472e+02	-9.793635e-03
2.545088e+02	-9.906967e-03
2.559789e+02	-1.002161e-02
2.574574e+02	-1.013758e-02
2.589444e+02	-1.025488e-02
2.604401e+02	-1.037355e-02
2.619444e+02	-1.049358e-02
2.634574e+02	-1.061500e-02
2.649791e+02	-1.073783e-02
2.665096e+02	-1.086207e-02
2.680489e+02	-1.098775e-02
2.695972e+02	-1.111488e-02
2.711544e+02	-1.124349e-02
2.727205e+02	-1.137357e-02
2.742958e+02	-1.150516e-02
2.758801e+02	-1.163828e-02
2.774736e+02	-1.177292e-02
2.790762e+02	-1.190913e-02
2.806882e+02	-1.204691e-02
2.823094e+02	-1.218628e-02
2.839400e+02	-1.232726e-02
2.855800e+02	-1.246987e-02
2.872295e+02	-1.261412e-02
2.888886e+02	-1.276004e-02
2.905572e+02	-1.290765e-02
2.922354e+02	-1.305697e-02
2.939234e+02	-1.320800e-02
2.956211e+02	-1.336079e-02
2.973286e+02	-1.351533e-02
2.990459e+02	-1.367166e-02
3.007732e+02	-1.382980e-02
3.025104e+02	-1.398976e-02
3.042577e+02	-1.415157e-02
3.060151e+02	-1.431525e-02
3.077826e+02	-1.448082e-02
3.095604e+02	-1.464830e-02
3.113484e+02	-1.481771e-02
3.131467e+02	-1.498908e-02
3.149554e+02	-1.516243e-02
3.167746e+02	-1.533778e-02
3.186043e+02	-1.551515e-02
3.204445e+02	-1.569457e-02
3.222954e+02	-1.587607e-02
3.241570e+02	-1.605965e-02
3.260293e+02	-1.624536e-02
3.279124e+02	-1.643321e-02
3.298064e+02	-1.662323e-02
3.317114e+02	-1.681544e-02
3.336273e+02	-1.700986e-02
3.355544e+02	-1.720654e-02
3.374925e+02	-1.740548e-02
3.394418e+02	-1.760671e-02
3.414024e+02	-1.781027e-02
3.433744e+02	-1.801618e-02
3.453577e+02	-1.822446e-02
3.473525e+02	-1.843515e-02
3.493588e+02	-1.864826e-02
3.513766e+02	-1.886384e-02
3.534062e+02	-1.908190e-02
3.554474e+02	-1.930247e-02
3.575005e+02	-1.952559e-02
3.595654e+02	-1.975129e-02
3.616422e+02	-1.997958e-02
3.637311e+02	-2.021051e-02
3.658320e+02	-2.044410e-02
3.679450e+02	-2.068039e-02
3.700702e+02	-2.091939e-02
3.722077e+02	-2.116116e-02
3.743576e+02	-2.140571e-02
3.765199e+02	-2.165308e-02
3.786946e+02	-2.190330e-02
3.808820e+02	-2.215641e-02
3.830819e+02	-2.241243e-02
3.852946e+02	-2.267140e-02
3.875200e+02	-2.293336e-02
3.897583e+02	-2.319834e-02
3.920096e+02	-2.346637e-02
3.942738e+02	-2.373749e-02
3.965511e+02	-2.401173e-02
3.988416e+02	-2.428913e-02
4.011452e+02	-2.456973e-02
4.034622e+02	-2.485356e-02
4.057926e+02	-2.514066e-02
4.081365e+02	-2.543106e-02
4.104938e+02	-2.572481e-02
4.128648e+02	-2.602195e-02
4.152495e+02	-2.632250e-02
4.176480e+02	-2.662652e-02
4.200603e+02	-2.693403e-02
4.224866e+02	-2.724509e-02
4.249268e+02	-2.755972e-02
4.273812e+02	-2.787798e-02
4.298497e+02	-2.819990e-02
4.323325e+02	-2.852553e-02
4.348297e+02	-2.885490e-02
4.373412e+02	-2.918807e-02
4.398673e+02	-2.952507e-02
4.424079e+02	-2.986594e-02
4.449633e+02	-3.021074e-02
4.475334e+02	-3.055951e-02
4.501183e+02	-3.091228e-02
4.527182e+02	-3.126911e-02
4.553330e+02	-3.163005e-02
4.579630e+02	-3.199514e-02
4.606082e+02	-3.236443e-02
4.632687e+02	-3.273796e-02
4.659445e+02	-3.311579e-02
4.686358e+02	-3.349796e-02
4.713426e+02	-3.388452e-02
4.740650e+02	-3.427553e-02
4.768032e+02	-3.467103e-02
4.795572e+02	-3.507108e-02
4.823271e+02	-3.547572e-02
4.851130e+02	-3.588502e-02
4.879150e+02	-3.629901e-02
4.907332e+02	-3.671776e-02
4.935676e+02	-3.714132e-02
4.964185e+02	-3.756975e-02
4.992858e+02	-3.800309e-02
5.021696e+02	-3.844142e-02
5.050701e+02	-3.888477e-02
5.079874e+02	-3.933322e-02
5.109215e+02	-3.978681e-02
5.138726e+02	-4.024561e-02
5.168407e+02	-4.070967e-02
5.198259e+02	-4.117907e-02
5.228284e+02	-4.165384e-02
5.258482e+02	-4.213407e-02
5.288855e+02	-4.261980e-02
5.319403e+02	-4.311111e-02
5.350128e+02	-4.360805e-02
5.381030e+02	-4.411068e-02
5.412111e+02	-4.461909e-02
5.443371e+02	-4.513332e-02
5.474812e+02	-4.565345e-02
5.506434e+02	-4.617954e-02
5.538239e+02	-4.671166e-02
5.570228e+02	-4.724987e-02
5.602401e+02	-4.779426e-02
5.634760e+02	-4.834488e-02
5.667306e+02	-4.890181e-02
5.700040e+02	-4.946511e-02
5.732964e+02	-5.003487e-02
5.766077e+02	-5.061116e-02
5.799382e+02	-5.119404e-02
5.832879e+02	-5.178359e-02
5.866569e+02	-5.237990e-02
5.900454e+02	-5.298302e-02
5.934535e+02	-5.359305e-02
5.968813e+02	-5.421006e-02
6.003288e+02	-5.483413e-02
6.037963e+02	-5.546533e-02
6.072838e+02	-5.610376e-02
6.107914e+02	-5.674948e-02
6.143194e+02	-5.740259e-02
6.178676e+02	-5.806316e-02
6.214364e+02	-5.873128e-02
6.250258e+02	-5.940704e-02
6.286359e+02	-6.009052e-02
6.322669e+02	-6.078181e-02
6.359189e+02	-6.148099e-02
6.395919e+02	-6.218816e-02
6.432862e+02	-6.290341e-02
6.470017e+02	-6.362682e-02
6.507388e+02	-6.435848e-02
6.544974e+02	-6.509850e-02
6.582778e+02	-6.584696e-02
6.620800e+02	-6.660396e-02
6.659041e+02	-6.736960e-02
6.697504e+02	-6.814397e-02
6.736188e+02	-6.892717e-02
6.775096e+02	-6.971929e-02
6.814229e+02	-7.052045e-02
6.853587e+02	-7.133074e-02
6.893173e+02	-7.215026e-02
6.932988e+02	-7.297911e-02
6.973033e+02	-7.381741e-02
7.013309e+02	-7.466525e-02
