Frequency(Hz)	Magnitude(dB)
1.000000e+01	-1.599104e-05
1.005776e+01	-1.617630e-05
1.011585e+01	-1.636371e-05
1.017428e+01	-1.655329e-05
1.023305e+01	-1.674506e-05
1.029215e+01	-1.693906e-05
1.035160e+01	-1.713530e-05
1.041139e+01	-1.733382e-05
1.047153e+01	-1.753463e-05
1.053201e+01	-1.773778e-05
1.059284e+01	-1.794327e-05
1.065403e+01	-1.815115e-05
1.071556e+01	-1.836144e-05
1.077746e+01	-1.857416e-05
1.083971e+01	-1.878934e-05
1.090232e+01	-1.900702e-05
1.096529e+01	-1.922722e-05
1.102862e+01	-1.944998e-05
1.109232e+01	-1.967531e-05
1.115639e+01	-1.990325e-05
1.122083e+01	-2.013384e-05
1.128564e+01	-2.036709e-05
1.135083e+01	-2.060305e-05
1.141639e+01	-2.084174e-05
1.148233e+01	-2.108320e-05
1.154865e+01	-2.132745e-05
1.161536e+01	-2.157454e-05
1.168245e+01	-2.182448e-05
1.174992e+01	-2.207733e-05
1.181779e+01	-2.233310e-05
1.188605e+01	-2.259183e-05
1.195470e+01	-2.285356e-05
1.202375e+01	-2.311833e-05
1.209320e+01	-2.338616e-05
1.216305e+01	-2.365709e-05
1.223330e+01	-2.393117e-05
1.230396e+01	-2.420842e-05
1.237503e+01	-2.448888e-05
1.244651e+01	-2.477259e-05
1.251840e+01	-2.505958e-05
1.259070e+01	-2.534990e-05
1.266343e+01	-2.564359e-05
1.273657e+01	-2.594068e-05
1.281014e+01	-2.624120e-05
1.288413e+01	-2.654522e-05
1.295855e+01	-2.685275e-05
1.303339e+01	-2.716384e-05
1.310867e+01	-2.747854e-05
1.318439e+01	-2.779689e-05
1.326054e+01	-2.811892e-05
1.333713e+01	-2.844469e-05
1.341417e+01	-2.877423e-05
1.349165e+01	-2.910758e-05
1.356958e+01	-2.944480e-05
1.364795e+01	-2.978593e-05
1.372678e+01	-3.013100e-05
1.380607e+01	-3.048008e-05
1.388581e+01	-3.083320e-05
1.396602e+01	-3.119041e-05
1.404668e+01	-3.155175e-05
1.412782e+01	-3.191729e-05
1.420942e+01	-3.228706e-05
1.429149e+01	-3.266111e-05
1.437404e+01	-3.303950e-05
1.445706e+01	-3.342227e-05
1.454057e+01	-3.380947e-05
1.462455e+01	-3.420116e-05
1.470902e+01	-3.459739e-05
1.479398e+01	-3.499821e-05
1.487943e+01	-3.540367e-05
1.496537e+01	-3.581383e-05
1.505181e+01	-3.622875e-05
1.513875e+01	-3.664846e-05
1.522619e+01	-3.707305e-05
1.531414e+01	-3.750254e-05
1.540259e+01	-3.793702e-05
1.549156e+01	-3.837653e-05
1.558103e+01	-3.882113e-05
1.567103e+01	-3.927088e-05
1.576155e+01	-3.972584e-05
1.585258e+01	-4.018608e-05
1.594415e+01	-4.065164e-05
1.603624e+01	-4.112260e-05
1.612886e+01	-4.159901e-05
1.622202e+01	-4.208095e-05
1.631572e+01	-4.256847e-05
1.640996e+01	-4.306163e-05
1.650474e+01	-4.356051e-05
1.660008e+01	-4.406517e-05
1.669596e+01	-4.457567e-05
1.679239e+01	-4.509209e-05
1.688938e+01	-4.561449e-05
1.698694e+01	-4.614295e-05
1.708505e+01	-4.667752e-05
1.718373e+01	-4.721829e-05
1.728299e+01	-4.776533e-05
1.738281e+01	-4.831870e-05
1.748322e+01	-4.887848e-05
1.758420e+01	-4.944475e-05
1.768576e+01	-5.001758e-05
1.778792e+01	-5.059704e-05
1.789066e+01	-5.118322e-05
1.799399e+01	-5.177619e-05
1.809793e+01	-5.237602e-05
1.820246e+01	-5.298281e-05
1.830760e+01	-5.359663e-05
1.841334e+01	-5.421756e-05
1.851969e+01	-5.484568e-05
1.862666e+01	-5.548108e-05
1.873425e+01	-5.612384e-05
1.884246e+01	-5.677404e-05
1.895129e+01	-5.743178e-05
1.906075e+01	-5.809714e-05
1.917085e+01	-5.877021e-05
1.928158e+01	-5.945107e-05
1.939295e+01	-6.013982e-05
1.950496e+01	-6.083656e-05
1.961762e+01	-6.154136e-05
1.973093e+01	-6.225433e-05
1.984490e+01	-6.297556e-05
1.995952e+01	-6.370514e-05
2.007480e+01	-6.444318e-05
2.019076e+01	-6.518976e-05
2.030738e+01	-6.594500e-05
2.042467e+01	-6.670898e-05
2.054264e+01	-6.748182e-05
2.066130e+01	-6.826361e-05
2.078064e+01	-6.905446e-05
2.090066e+01	-6.985447e-05
2.102139e+01	-7.066374e-05
2.114280e+01	-7.148240e-05
2.126492e+01	-7.231053e-05
2.138775e+01	-7.314826e-05
2.151128e+01	-7.399570e-05
2.163553e+01	-7.485295e-05
2.176050e+01	-7.572014e-05
2.188619e+01	-7.659737e-05
2.201260e+01	-7.748476e-05
2.213974e+01	-7.838244e-05
2.226762e+01	-7.929051e-05
2.239624e+01	-8.020911e-05
2.252560e+01	-8.113834e-05
2.265571e+01	-8.207834e-05
2.278656e+01	-8.302923e-05
2.291818e+01	-8.399114e-05
2.305055e+01	-8.496419e-05
2.318369e+01	-8.594852e-05
2.331760e+01	-8.694425e-05
2.345228e+01	-8.795151e-05
2.358774e+01	-8.897044e-05
2.372398e+01	-9.000118e-05
2.386101e+01	-9.104386e-05
2.399883e+01	-9.209861e-05
2.413745e+01	-9.316559e-05
2.427686e+01	-9.424493e-05
2.441709e+01	-9.533677e-05
2.455812e+01	-9.644126e-05
2.469997e+01	-9.755855e-05
2.484263e+01	-9.868878e-05
2.498612e+01	-9.983210e-05
2.513044e+01	-1.009887e-04
2.527559e+01	-1.021586e-04
2.542158e+01	-1.033422e-04
2.556842e+01	-1.045394e-04
2.571610e+01	-1.057505e-04
2.586463e+01	-1.069756e-04
2.601403e+01	-1.082150e-04
2.616428e+01	-1.094686e-04
2.631541e+01	-1.107369e-04
2.646740e+01	-1.120198e-04
2.662028e+01	-1.133175e-04
2.677404e+01	-1.146303e-04
2.692868e+01	-1.159583e-04
2.708422e+01	-1.173017e-04
2.724066e+01	-1.186607e-04
2.739800e+01	-1.200354e-04
2.755625e+01	-1.214260e-04
2.771541e+01	-1.228327e-04
2.787550e+01	-1.242558e-04
2.803650e+01	-1.256953e-04
2.819844e+01	-1.271515e-04
2.836131e+01	-1.286245e-04
2.852513e+01	-1.301147e-04
2.868989e+01	-1.316220e-04
2.885560e+01	-1.331469e-04
2.902227e+01	-1.346894e-04
2.918990e+01	-1.362498e-04
2.935850e+01	-1.378283e-04
2.952807e+01	-1.394250e-04
2.969863e+01	-1.410403e-04
2.987016e+01	-1.426742e-04
3.004269e+01	-1.443271e-04
3.021622e+01	-1.459992e-04
3.039075e+01	-1.476906e-04
3.056628e+01	-1.494016e-04
3.074283e+01	-1.511324e-04
3.092040e+01	-1.528833e-04
3.109900e+01	-1.546545e-04
3.127862e+01	-1.564462e-04
3.145929e+01	-1.582586e-04
3.164099e+01	-1.600920e-04
3.182375e+01	-1.619467e-04
3.200756e+01	-1.638229e-04
3.219244e+01	-1.657208e-04
3.237838e+01	-1.676407e-04
3.256540e+01	-1.695828e-04
3.275349e+01	-1.715474e-04
3.294268e+01	-1.735348e-04
3.313295e+01	-1.755452e-04
3.332433e+01	-1.775789e-04
3.351681e+01	-1.796362e-04
3.371040e+01	-1.817172e-04
3.390511e+01	-1.838224e-04
3.410094e+01	-1.859520e-04
3.429791e+01	-1.881063e-04
3.449601e+01	-1.902855e-04
3.469526e+01	-1.924900e-04
3.489566e+01	-1.947200e-04
3.509721e+01	-1.969758e-04
3.529993e+01	-1.992578e-04
3.550382e+01	-2.015662e-04
3.570889e+01	-2.039013e-04
3.591515e+01	-2.062635e-04
3.612259e+01	-2.086531e-04
3.633123e+01	-2.110703e-04
3.654108e+01	-2.135156e-04
3.675214e+01	-2.159892e-04
3.696442e+01	-2.184914e-04
3.717792e+01	-2.210226e-04
3.739266e+01	-2.235832e-04
3.760864e+01	-2.261734e-04
3.782587e+01	-2.287936e-04
3.804435e+01	-2.314441e-04
3.826409e+01	-2.341254e-04
3.848510e+01	-2.368377e-04
3.870739e+01	-2.395815e-04
3.893096e+01	-2.423570e-04
3.915583e+01	-2.451647e-04
3.938199e+01	-2.480050e-04
3.960946e+01	-2.508781e-04
3.983824e+01	-2.537845e-04
4.006834e+01	-2.567246e-04
4.029978e+01	-2.596987e-04
4.053255e+01	-2.627073e-04
4.076666e+01	-2.657507e-04
4.100213e+01	-2.688294e-04
4.123896e+01	-2.719438e-04
4.147715e+01	-2.750942e-04
4.171672e+01	-2.782812e-04
4.195767e+01	-2.815050e-04
4.220002e+01	-2.847663e-04
4.244377e+01	-2.880652e-04
4.268892e+01	-2.914024e-04
4.293549e+01	-2.947783e-04
4.318348e+01	-2.981933e-04
4.343291e+01	-3.016478e-04
4.368377e+01	-3.051424e-04
4.393609e+01	-3.086774e-04
4.418986e+01	-3.122534e-04
4.444510e+01	-3.158708e-04
4.470182e+01	-3.195301e-04
4.496001e+01	-3.232318e-04
4.521970e+01	-3.269764e-04
4.548089e+01	-3.307644e-04
4.574358e+01	-3.345962e-04
4.600779e+01	-3.384725e-04
4.627353e+01	-3.423936e-04
4.654081e+01	-3.463602e-04
4.680963e+01	-3.503727e-04
4.708000e+01	-3.544317e-04
4.735193e+01	-3.585377e-04
4.762543e+01	-3.626913e-04
4.790051e+01	-3.668930e-04
4.817719e+01	-3.711434e-04
4.845545e+01	-3.754430e-04
4.873533e+01	-3.797924e-04
4.901682e+01	-3.841922e-04
4.929994e+01	-3.886430e-04
4.958470e+01	-3.931453e-04
4.987110e+01	-3.976998e-04
5.015915e+01	-4.023071e-04
5.044887e+01	-4.069677e-04
5.074026e+01	-4.116823e-04
5.103333e+01	-4.164515e-04
5.132810e+01	-4.212760e-04
5.162457e+01	-4.261563e-04
5.192275e+01	-4.310932e-04
5.222265e+01	-4.360873e-04
5.252429e+01	-4.411393e-04
5.282767e+01	-4.462497e-04
5.313280e+01	-4.514194e-04
5.343969e+01	-4.566489e-04
5.374836e+01	-4.619390e-04
5.405880e+01	-4.672904e-04
5.437105e+01	-4.727038e-04
5.468509e+01	-4.781799e-04
5.500095e+01	-4.837195e-04
5.531863e+01	-4.893232e-04
5.563815e+01	-4.949918e-04
5.595951e+01	-5.007261e-04
5.628273e+01	-5.065268e-04
5.660782e+01	-5.123947e-04
5.693479e+01	-5.183306e-04
5.726364e+01	-5.243352e-04
5.759439e+01	-5.304094e-04
5.792705e+01	-5.365540e-04
5.826164e+01	-5.427697e-04
5.859815e+01	-5.490575e-04
5.893662e+01	-5.554180e-04
5.927703e+01	-5.618523e-04
5.961941e+01	-5.683611e-04
5.996377e+01	-5.749453e-04
6.031012e+01	-5.816057e-04
6.065847e+01	-5.883433e-04
6.100883e+01	-5.951590e-04
6.136121e+01	-6.020536e-04
6.171563e+01	-6.090280e-04
6.207210e+01	-6.160833e-04
6.243063e+01	-6.232203e-04
6.279122e+01	-6.304399e-04
6.315390e+01	-6.377432e-04
6.351868e+01	-6.451311e-04
6.388556e+01	-6.526046e-04
6.425456e+01	-6.601646e-04
6.462569e+01	-6.678122e-04
6.499897e+01	-6.755484e-04
6.537440e+01	-6.833742e-04
6.575200e+01	-6.912906e-04
6.613178e+01	-6.992988e-04
6.651375e+01	-7.073997e-04
6.689793e+01	-7.155944e-04
6.728433e+01	-7.238841e-04
6.767297e+01	-7.322698e-04
6.806384e+01	-7.407526e-04
6.845698e+01	-7.493337e-04
6.885238e+01	-7.580142e-04
6.925007e+01	-7.667952e-04
6.965005e+01	-7.756779e-04
7.005235e+01	-7.846636e-04
7.045697e+01	-7.937533e-04
7.086393e+01	-8.029483e-04
7.127323e+01	-8.122498e-04
7.168490e+01	-8.216590e-04
7.209895e+01	-8.311773e-04
7.251539e+01	-8.408057e-04
7.293424e+01	-8.505457e-04
7.335551e+01	-8.603986e-04
7.377920e+01	-8.703655e-04
7.420535e+01	-8.804479e-04
7.463396e+01	-8.906471e-04
7.506504e+01	-9.009644e-04
7.549861e+01	-9.114013e-04
7.593469e+01	-9.219590e-04
7.637328e+01	-9.326390e-04
7.681441e+01	-9.434427e-04
7.725809e+01	-9.543715e-04
7.770433e+01	-9.654269e-04
7.815315e+01	-9.766104e-04
7.860456e+01	-9.879234e-04
7.905857e+01	-9.993675e-04
7.951521e+01	-1.010944e-03
7.997449e+01	-1.022655e-03
8.043642e+01	-1.034501e-03
8.090102e+01	-1.046485e-03
8.136830e+01	-1.058607e-03
8.183828e+01	-1.070870e-03
8.231097e+01	-1.083274e-03
8.278640e+01	-1.095823e-03
8.326457e+01	-1.108517e-03
8.374550e+01	-1.121357e-03
8.422921e+01	-1.134347e-03
8.471572e+01	-1.147487e-03
8.520503e+01	-1.160779e-03
8.569717e+01	-1.174225e-03
8.619215e+01	-1.187827e-03
8.669000e+01	-1.201587e-03
8.719071e+01	-1.215505e-03
8.769432e+01	-1.229585e-03
8.820084e+01	-1.243828e-03
8.871029e+01	-1.258236e-03
8.922267e+01	-1.272811e-03
8.973802e+01	-1.287555e-03
9.025634e+01	-1.302469e-03
9.077766e+01	-1.317556e-03
9.130199e+01	-1.332818e-03
9.182935e+01	-1.348257e-03
9.235975e+01	-1.363874e-03
9.289321e+01	-1.379673e-03
9.342976e+01	-1.395654e-03
9.396941e+01	-1.411821e-03
9.451217e+01	-1.428174e-03
9.505807e+01	-1.444717e-03
9.560712e+01	-1.461452e-03
9.615934e+01	-1.478380e-03
9.671476e+01	-1.495505e-03
9.727338e+01	-1.512828e-03
9.783522e+01	-1.530351e-03
9.840032e+01	-1.548077e-03
9.896867e+01	-1.566009e-03
9.954031e+01	-1.584148e-03
1.001153e+02	-1.602498e-03
1.006935e+02	-1.621060e-03
1.012751e+02	-1.639836e-03
1.018601e+02	-1.658831e-03
1.024484e+02	-1.678045e-03
1.030402e+02	-1.697482e-03
1.036353e+02	-1.717144e-03
1.042339e+02	-1.737033e-03
1.048360e+02	-1.757153e-03
1.054415e+02	-1.777506e-03
1.060505e+02	-1.798095e-03
1.066631e+02	-1.818922e-03
1.072791e+02	-1.839990e-03
1.078988e+02	-1.861302e-03
1.085220e+02	-1.882861e-03
1.091488e+02	-1.904670e-03
1.097793e+02	-1.926731e-03
1.104133e+02	-1.949048e-03
1.110511e+02	-1.971623e-03
1.116925e+02	-1.994460e-03
1.123376e+02	-2.017560e-03
1.129865e+02	-2.040929e-03
1.136391e+02	-2.064568e-03
1.142955e+02	-2.088481e-03
1.149556e+02	-2.112671e-03
1.156196e+02	-2.137140e-03
1.162874e+02	-2.161894e-03
1.169591e+02	-2.186933e-03
1.176347e+02	-2.212263e-03
1.183141e+02	-2.237886e-03
1.189975e+02	-2.263806e-03
1.196848e+02	-2.290026e-03
1.203761e+02	-2.316549e-03
1.210714e+02	-2.343380e-03
1.217707e+02	-2.370521e-03
1.224740e+02	-2.397977e-03
1.231814e+02	-2.425750e-03
1.238929e+02	-2.453845e-03
1.246085e+02	-2.482265e-03
1.253283e+02	-2.511015e-03
1.260522e+02	-2.540097e-03
1.267802e+02	-2.569516e-03
1.275125e+02	-2.599276e-03
1.282490e+02	-2.629380e-03
1.289898e+02	-2.659832e-03
1.297348e+02	-2.690638e-03
1.304842e+02	-2.721800e-03
1.312378e+02	-2.753323e-03
1.319959e+02	-2.785210e-03
1.327583e+02	-2.817467e-03
1.335251e+02	-2.850098e-03
1.342963e+02	-2.883106e-03
1.350720e+02	-2.916496e-03
1.358522e+02	-2.950273e-03
1.366368e+02	-2.984441e-03
1.374260e+02	-3.019004e-03
1.382198e+02	-3.053968e-03
1.390182e+02	-3.089336e-03
1.398211e+02	-3.125114e-03
1.406287e+02	-3.161306e-03
1.414410e+02	-3.197917e-03
1.422579e+02	-3.234952e-03
1.430796e+02	-3.272416e-03
1.439060e+02	-3.310313e-03
1.447372e+02	-3.348649e-03
1.455732e+02	-3.387429e-03
1.464141e+02	-3.426658e-03
1.472597e+02	-3.466341e-03
1.481103e+02	-3.506483e-03
1.489658e+02	-3.547090e-03
1.498262e+02	-3.588167e-03
1.506916e+02	-3.629719e-03
1.515620e+02	-3.671753e-03
1.524374e+02	-3.714273e-03
1.533179e+02	-3.757285e-03
1.542034e+02	-3.800795e-03
1.550941e+02	-3.844808e-03
1.559899e+02	-3.889332e-03
1.568909e+02	-3.934370e-03
1.577971e+02	-3.979930e-03
1.587085e+02	-4.026017e-03
1.596252e+02	-4.072637e-03
1.605472e+02	-4.119798e-03
1.614745e+02	-4.167504e-03
1.624072e+02	-4.215762e-03
1.633453e+02	-4.264578e-03
1.642887e+02	-4.313960e-03
1.652377e+02	-4.363913e-03
1.661921e+02	-4.414445e-03
1.671520e+02	-4.465561e-03
1.681175e+02	-4.517268e-03
1.690885e+02	-4.569575e-03
1.700651e+02	-4.622486e-03
1.710474e+02	-4.676010e-03
1.720354e+02	-4.730153e-03
1.730291e+02	-4.784923e-03
1.740285e+02	-4.840326e-03
1.750337e+02	-4.896371e-03
1.760446e+02	-4.953064e-03
1.770615e+02	-5.010414e-03
1.780842e+02	-5.068427e-03
1.791128e+02	-5.127111e-03
1.801473e+02	-5.186474e-03
1.811878e+02	-5.246525e-03
1.822344e+02	-5.307270e-03
1.832870e+02	-5.368718e-03
1.843456e+02	-5.430877e-03
1.854104e+02	-5.493755e-03
1.864813e+02	-5.557361e-03
1.875584e+02	-5.621702e-03
1.886418e+02	-5.686789e-03
1.897313e+02	-5.752628e-03
1.908272e+02	-5.819229e-03
1.919294e+02	-5.886600e-03
1.930380e+02	-5.954751e-03
1.941530e+02	-6.023690e-03
1.952744e+02	-6.093427e-03
1.964023e+02	-6.163971e-03
1.975367e+02	-6.235331e-03
1.986777e+02	-6.307516e-03
1.998252e+02	-6.380536e-03
2.009794e+02	-6.454401e-03
2.021403e+02	-6.529121e-03
2.033078e+02	-6.604705e-03
2.044821e+02	-6.681163e-03
2.056632e+02	-6.758506e-03
2.068511e+02	-6.836743e-03
2.080459e+02	-6.915885e-03
2.092475e+02	-6.995943e-03
2.104561e+02	-7.076926e-03
2.116717e+02	-7.158846e-03
2.128943e+02	-7.241714e-03
2.141240e+02	-7.325540e-03
2.153608e+02	-7.410336e-03
2.166047e+02	-7.496112e-03
2.178558e+02	-7.582880e-03
2.191141e+02	-7.670652e-03
2.203797e+02	-7.759439e-03
2.216526e+02	-7.849253e-03
2.229329e+02	-7.940105e-03
2.242205e+02	-8.032008e-03
2.255156e+02	-8.124973e-03
2.268182e+02	-8.219014e-03
2.281283e+02	-8.314142e-03
2.294459e+02	-8.410370e-03
2.307712e+02	-8.507710e-03
2.321041e+02	-8.606176e-03
2.334447e+02	-8.705781e-03
2.347931e+02	-8.806537e-03
2.361493e+02	-8.908458e-03
2.375133e+02	-9.011557e-03
2.388851e+02	-9.115848e-03
2.402649e+02	-9.221345e-03
2.416527e+02	-9.328062e-03
2.430484e+02	-9.436012e-03
2.444523e+02	-9.545210e-03
2.458642e+02	-9.655670e-03
2.472843e+02	-9.767408e-03
2.487126e+02	-9.880436e-03
2.501492e+02	-9.994772e-03
2.515940e+02	-1.011043e-02
2.530472e+02	-1.022742e-02
2.545088e+02	-1.034577e-02
2.559789e+02	-1.046548e-02
2.574574e+02	-1.058658e-02
2.589444e+02	-1.070907e-02
2.604401e+02	-1.083299e-02
2.619444e+02	-1.095833e-02
2.634574e+02	-1.108512e-02
2.649791e+02	-1.121338e-02
2.665096e+02	-1.134312e-02
2.680489e+02	-1.147436e-02
2.695972e+02	-1.160711e-02
2.711544e+02	-1.174140e-02
2.727205e+02	-1.187724e-02
2.742958e+02	-1.201465e-02
2.758801e+02	-1.215365e-02
2.774736e+02	-1.229425e-02
2.790762e+02	-1.243648e-02
2.806882e+02	-1.258035e-02
2.823094e+02	-1.272588e-02
2.839400e+02	-1.287310e-02
2.855800e+02	-1.302201e-02
2.872295e+02	-1.317264e-02
2.888886e+02	-1.332502e-02
2.905572e+02	-1.347915e-02
2.922354e+02	-1.363506e-02
2.939234e+02	-1.379278e-02
2.956211e+02	-1.395231e-02
2.973286e+02	-1.411369e-02
2.990459e+02	-1.427693e-02
3.007732e+02	-1.444206e-02
3.025104e+02	-1.460909e-02
3.042577e+02	-1.477805e-02
3.060151e+02	-1.494896e-02
3.077826e+02	-1.512185e-02
3.095604e+02	-1.529673e-02
3.113484e+02	-1.547363e-02
3.131467e+02	-1.565257e-02
3.149554e+02	-1.583358e-02
3.167746e+02	-1.601667e-02
3.186043e+02	-1.620188e-02
3.204445e+02	-1.638923e-02
3.222954e+02	-1.657874e-02
3.241570e+02	-1.677044e-02
3.260293e+02	-1.696435e-02
3.279124e+02	-1.716049e-02
3.298064e+02	-1.735890e-02
3.317114e+02	-1.755960e-02
3.336273e+02	-1.776262e-02
3.355544e+02	-1.796798e-02
3.374925e+02	-1.817570e-02
3.394418e+02	-1.838582e-02
3.414024e+02	-1.859837e-02
3.433744e+02	-1.881337e-02
3.453577e+02	-1.903085e-02
3.473525e+02	-1.925084e-02
3.493588e+02	-1.947336e-02
3.513766e+02	-1.969845e-02
3.534062e+02	-1.992614e-02
3.554474e+02	-2.015645e-02
3.575005e+02	-2.038942e-02
3.595654e+02	-2.062507e-02
3.616422e+02	-2.086344e-02
3.637311e+02	-2.110456e-02
3.658320e+02	-2.134846e-02
3.679450e+02	-2.159517e-02
3.700702e+02	-2.184472e-02
3.722077e+02	-2.209715e-02
3.743576e+02	-2.235249e-02
3.765199e+02	-2.261077e-02
3.786946e+02	-2.287203e-02
3.808820e+02	-2.313630e-02
3.830819e+02	-2.340362e-02
3.852946e+02	-2.367401e-02
3.875200e+02	-2.394753e-02
3.897583e+02	-2.422419e-02
3.920096e+02	-2.450404e-02
3.942738e+02	-2.478711e-02
3.965511e+02	-2.507344e-02
3.988416e+02	-2.536307e-02
4.011452e+02	-2.565604e-02
4.034622e+02	-2.595238e-02
4.057926e+02	-2.625213e-02
4.081365e+02	-2.655534e-02
4.104938e+02	-2.686203e-02
4.128648e+02	-2.717226e-02
4.152495e+02	-2.748606e-02
4.176480e+02	-2.780347e-02
4.200603e+02	-2.812453e-02
4.224866e+02	-2.844929e-02
4.249268e+02	-2.877779e-02
4.273812e+02	-2.911007e-02
4.298497e+02	-2.944617e-02
4.323325e+02	-2.978614e-02
4.348297e+02	-3.013001e-02
4.373412e+02	-3.047785e-02
4.398673e+02	-3.082969e-02
4.424079e+02	-3.118557e-02
4.449633e+02	-3.154555e-02
4.475334e+02	-3.190966e-02
4.501183e+02	-3.227797e-02
4.527182e+02	-3.265051e-02
4.553330e+02	-3.302733e-02
4.579630e+02	-3.340848e-02
4.606082e+02	-3.379402e-02
4.632687e+02	-3.418398e-02
4.659445e+02	-3.457843e-02
4.686358e+02	-3.497742e-02
4.713426e+02	-3.538098e-02
4.740650e+02	-3.578919e-02
4.768032e+02	-3.620208e-02
4.795572e+02	-3.661972e-02
4.823271e+02	-3.704215e-02
4.851130e+02	-3.746944e-02
4.879150e+02	-3.790163e-02
4.907332e+02	-3.833879e-02
4.935676e+02	-3.878097e-02
4.964185e+02	-3.922822e-02
4.992858e+02	-3.968061e-02
5.021696e+02	-4.013819e-02
5.050701e+02	-4.060102e-02
5.079874e+02	-4.106916e-02
5.109215e+02	-4.154268e-02
5.138726e+02	-4.202163e-02
5.168407e+02	-4.250607e-02
5.198259e+02	-4.299607e-02
5.228284e+02	-4.349169e-02
5.258482e+02	-4.399300e-02
5.288855e+02	-4.450005e-02
5.319403e+02	-4.501292e-02
5.350128e+02	-4.553166e-02
5.381030e+02	-4.605635e-02
5.412111e+02	-4.658706e-02
5.443371e+02	-4.712385e-02
5.474812e+02	-4.766679e-02
5.506434e+02	-4.821595e-02
5.538239e+02	-4.877140e-02
5.570228e+02	-4.933322e-02
5.602401e+02	-4.990146e-02
5.634760e+02	-5.047622e-02
5.667306e+02	-5.105756e-02
5.700040e+02	-5.164555e-02
5.732964e+02	-5.224027e-02
5.766077e+02	-5.284180e-02
5.799382e+02	-5.345021e-02
5.832879e+02	-5.406558e-02
5.866569e+02	-5.468800e-02
5.900454e+02	-5.531753e-02
5.934535e+02	-5.595426e-02
5.968813e+02	-5.659828e-02
6.003288e+02	-5.724966e-02
6.037963e+02	-5.790848e-02
6.072838e+02	-5.857484e-02
6.107914e+02	-5.924881e-02
6.143194e+02	-5.993048e-02
6.178676e+02	-6.061993e-02
6.214364e+02	-6.131727e-02
6.250258e+02	-6.202257e-02
6.286359e+02	-6.273592e-02
6.322669e+02	-6.345742e-02
6.359189e+02	-6.418715e-02
6.395919e+02	-6.492521e-02
6.432862e+02	-6.567170e-02
6.470017e+02	-6.642670e-02
6.507388e+02	-6.719031e-02
6.544974e+02	-6.796263e-02
6.582778e+02	-6.874376e-02
6.620800e+02	-6.953380e-02
6.659041e+02	-7.033284e-02
6.697504e+02	-7.114099e-02
6.736188e+02	-7.195834e-02
6.775096e+02	-7.278501e-02
6.814229e+02	-7.362109e-02
6.853587e+02	-7.446670e-02
6.893173e+02	-7.532193e-02
6.932988e+02	-7.618690e-02
6.973033e+02	-7.706172e-02
7.013309e+02	-7.794649e-02
