Frequency(Hz)	Magnitude(dB)
1.000000e+01	-2.178512e+00
1.005776e+01	-2.198400e+00
1.011585e+01	-2.218399e+00
1.017428e+01	-2.238327e+00
1.023305e+01	-2.258364e+00
1.029215e+01	-2.279008e+00
1.035160e+01	-2.299509e+00
1.041139e+01	-2.319846e+00
1.047153e+01	-2.340820e+00
1.053201e+01	-2.361915e+00
1.059284e+01	-2.382680e+00
1.065403e+01	-2.403829e+00
1.071556e+01	-2.425252e+00
1.077746e+01	-2.446767e+00
1.083971e+01	-2.468410e+00
1.090232e+01	-2.489971e+00
1.096529e+01	-2.511853e+00
1.102862e+01	-2.534081e+00
1.109232e+01	-2.556333e+00
1.115639e+01	-2.578635e+00
1.122083e+01	-2.601042e+00
1.128564e+01	-2.623550e+00
1.135083e+01	-2.646342e+00
1.141639e+01	-2.669069e+00
1.148233e+01	-2.692450e+00
1.154865e+01	-2.715456e+00
1.161536e+01	-2.739041e+00
1.168245e+01	-2.762408e+00
1.174992e+01	-2.785949e+00
1.181779e+01	-2.809763e+00
1.188605e+01	-2.833716e+00
1.195470e+01	-2.857769e+00
1.202375e+01	-2.881749e+00
1.209320e+01	-2.906167e+00
1.216305e+01	-2.930605e+00
1.223330e+01	-2.955296e+00
1.230396e+01	-2.980032e+00
1.237503e+01	-3.005095e+00
1.244651e+01	-3.029986e+00
1.251840e+01	-3.055148e+00
1.259070e+01	-3.080697e+00
1.266343e+01	-3.105980e+00
1.273657e+01	-3.131580e+00
1.281014e+01	-3.157501e+00
1.288413e+01	-3.183549e+00
1.295855e+01	-3.209460e+00
1.303339e+01	-3.235703e+00
1.310867e+01	-3.262118e+00
1.318439e+01	-3.288506e+00
1.326054e+01	-3.315050e+00
1.333713e+01	-3.341771e+00
1.341417e+01	-3.368788e+00
1.349165e+01	-3.396012e+00
1.356958e+01	-3.422974e+00
1.364795e+01	-3.450449e+00
1.372678e+01	-3.477915e+00
1.380607e+01	-3.505642e+00
1.388581e+01	-3.533375e+00
1.396602e+01	-3.561187e+00
1.404668e+01	-3.589396e+00
1.412782e+01	-3.617552e+00
1.420942e+01	-3.645971e+00
1.429149e+01	-3.674452e+00
1.437404e+01	-3.703072e+00
1.445706e+01	-3.731735e+00
1.454057e+01	-3.760783e+00
1.462455e+01	-3.789888e+00
1.470902e+01	-3.818846e+00
1.479398e+01	-3.848303e+00
1.487943e+01	-3.877521e+00
1.496537e+01	-3.907265e+00
1.505181e+01	-3.937078e+00
1.513875e+01	-3.967300e+00
1.522619e+01	-3.997231e+00
1.531414e+01	-4.027401e+00
1.540259e+01	-4.057429e+00
1.549156e+01	-4.087490e+00
1.558103e+01	-4.118668e+00
1.567103e+01	-4.149011e+00
1.576155e+01	-4.180008e+00
1.585258e+01	-4.210981e+00
1.594415e+01	-4.242177e+00
1.603624e+01	-4.273358e+00
1.612886e+01	-4.304651e+00
1.622202e+01	-4.336379e+00
1.631572e+01	-4.368047e+00
1.640996e+01	-4.399639e+00
1.650474e+01	-4.431718e+00
1.660008e+01	-4.463762e+00
1.669596e+01	-4.495878e+00
1.679239e+01	-4.528483e+00
1.688938e+01	-4.560750e+00
1.698694e+01	-4.593304e+00
1.708505e+01	-4.626129e+00
1.718373e+01	-4.658853e+00
1.728299e+01	-4.691776e+00
1.738281e+01	-4.725141e+00
1.748322e+01	-4.758438e+00
1.758420e+01	-4.791428e+00
1.768576e+01	-4.825334e+00
1.778792e+01	-4.858372e+00
1.789066e+01	-4.892491e+00
1.799399e+01	-4.926356e+00
1.809793e+01	-4.960381e+00
1.820246e+01	-4.994419e+00
1.830760e+01	-5.028514e+00
1.841334e+01	-5.063328e+00
1.851969e+01	-5.097799e+00
1.862666e+01	-5.132137e+00
1.873425e+01	-5.166914e+00
1.884246e+01	-5.201727e+00
1.895129e+01	-5.236569e+00
1.906075e+01	-5.272016e+00
1.917085e+01	-5.307118e+00
1.928158e+01	-5.342206e+00
1.939295e+01	-5.377900e+00
1.950496e+01	-5.413697e+00
1.961762e+01	-5.449210e+00
1.973093e+01	-5.485216e+00
1.984490e+01	-5.521060e+00
1.995952e+01	-5.556836e+00
2.007480e+01	-5.593273e+00
2.019076e+01	-5.629265e+00
2.030738e+01	-5.665593e+00
2.042467e+01	-5.702424e+00
2.054264e+01	-5.739170e+00
2.066130e+01	-5.775618e+00
2.078064e+01	-5.812660e+00
2.090066e+01	-5.849549e+00
2.102139e+01	-5.886471e+00
2.114280e+01	-5.924051e+00
2.126492e+01	-5.961082e+00
2.138775e+01	-5.998796e+00
2.151128e+01	-6.035766e+00
2.163553e+01	-6.073590e+00
2.176050e+01	-6.111365e+00
2.188619e+01	-6.149410e+00
2.201260e+01	-6.187163e+00
2.213974e+01	-6.225337e+00
2.226762e+01	-6.263409e+00
2.239624e+01	-6.301640e+00
2.252560e+01	-6.339766e+00
2.265571e+01	-6.378112e+00
2.278656e+01	-6.416856e+00
2.291818e+01	-6.455615e+00
2.305055e+01	-6.494292e+00
2.318369e+01	-6.533208e+00
2.331760e+01	-6.572188e+00
2.345228e+01	-6.611307e+00
2.358774e+01	-6.650140e+00
2.372398e+01	-6.689331e+00
2.386101e+01	-6.729064e+00
2.399883e+01	-6.768530e+00
2.413745e+01	-6.807939e+00
2.427686e+01	-6.847632e+00
2.441709e+01	-6.887324e+00
2.455812e+01	-6.927051e+00
2.469997e+01	-6.967144e+00
2.484263e+01	-7.007115e+00
2.498612e+01	-7.047023e+00
2.513044e+01	-7.087467e+00
2.527559e+01	-7.127466e+00
2.542158e+01	-7.168393e+00
2.556842e+01	-7.208269e+00
2.571610e+01	-7.248938e+00
2.586463e+01	-7.289636e+00
2.601403e+01	-7.330505e+00
2.616428e+01	-7.371656e+00
2.631541e+01	-7.412139e+00
2.646740e+01	-7.453077e+00
2.662028e+01	-7.494027e+00
2.677404e+01	-7.535888e+00
2.692868e+01	-7.576542e+00
2.708422e+01	-7.618372e+00
2.724066e+01	-7.659238e+00
2.739800e+01	-7.701330e+00
2.755625e+01	-7.742595e+00
2.771541e+01	-7.784602e+00
2.787550e+01	-7.825846e+00
2.803650e+01	-7.867903e+00
2.819844e+01	-7.909712e+00
2.836131e+01	-7.951567e+00
2.852513e+01	-7.993583e+00
2.868989e+01	-8.035940e+00
2.885560e+01	-8.077810e+00
2.902227e+01	-8.120115e+00
2.918990e+01	-8.162629e+00
2.935850e+01	-8.204803e+00
2.952807e+01	-8.247351e+00
2.969863e+01	-8.290262e+00
2.987016e+01	-8.332442e+00
3.004269e+01	-8.375599e+00
3.021622e+01	-8.418009e+00
3.039075e+01	-8.461056e+00
3.056628e+01	-8.504145e+00
3.074283e+01	-8.547143e+00
3.092040e+01	-8.590212e+00
3.109900e+01	-8.633446e+00
3.127862e+01	-8.676567e+00
3.145929e+01	-8.719555e+00
3.164099e+01	-8.762772e+00
3.182375e+01	-8.806536e+00
3.200756e+01	-8.849627e+00
3.219244e+01	-8.893205e+00
3.237838e+01	-8.937433e+00
3.256540e+01	-8.980917e+00
3.275349e+01	-9.024459e+00
3.294268e+01	-9.067993e+00
3.313295e+01	-9.112183e+00
3.332433e+01	-9.156167e+00
3.351681e+01	-9.200178e+00
3.371040e+01	-9.243994e+00
3.390511e+01	-9.288478e+00
3.410094e+01	-9.331979e+00
3.429791e+01	-9.376281e+00
3.449601e+01	-9.421185e+00
3.469526e+01	-9.464989e+00
3.489566e+01	-9.509510e+00
3.509721e+01	-9.553927e+00
3.529993e+01	-9.598605e+00
3.550382e+01	-9.643096e+00
3.570889e+01	-9.687363e+00
3.591515e+01	-9.731879e+00
3.612259e+01	-9.777396e+00
3.633123e+01	-9.821476e+00
3.654108e+01	-9.866797e+00
3.675214e+01	-9.911523e+00
3.696442e+01	-9.956577e+00
3.717792e+01	-1.000155e+01
3.739266e+01	-1.004656e+01
3.760864e+01	-1.009194e+01
3.782587e+01	-1.013627e+01
3.804435e+01	-1.018200e+01
3.826409e+01	-1.022772e+01
3.848510e+01	-1.027299e+01
3.870739e+01	-1.031777e+01
3.893096e+01	-1.036250e+01
3.915583e+01	-1.040891e+01
3.938199e+01	-1.045420e+01
3.960946e+01	-1.049941e+01
3.983824e+01	-1.054559e+01
4.006834e+01	-1.059115e+01
4.029978e+01	-1.063660e+01
4.053255e+01	-1.068252e+01
4.076666e+01	-1.072863e+01
4.100213e+01	-1.077371e+01
4.123896e+01	-1.082010e+01
4.147715e+01	-1.086634e+01
4.171672e+01	-1.091192e+01
4.195767e+01	-1.095800e+01
4.220002e+01	-1.100333e+01
4.244377e+01	-1.104958e+01
4.268892e+01	-1.109565e+01
4.293549e+01	-1.114225e+01
4.318348e+01	-1.118843e+01
4.343291e+01	-1.123477e+01
4.368377e+01	-1.128105e+01
4.393609e+01	-1.132638e+01
4.418986e+01	-1.137366e+01
4.444510e+01	-1.142052e+01
4.470182e+01	-1.146626e+01
4.496001e+01	-1.151258e+01
4.521970e+01	-1.155946e+01
4.548089e+01	-1.160606e+01
4.574358e+01	-1.165280e+01
4.600779e+01	-1.169934e+01
4.627353e+01	-1.174623e+01
4.654081e+01	-1.179305e+01
4.680963e+01	-1.183912e+01
4.708000e+01	-1.188629e+01
4.735193e+01	-1.193272e+01
4.762543e+01	-1.197958e+01
4.790051e+01	-1.202611e+01
4.817719e+01	-1.207404e+01
4.845545e+01	-1.212030e+01
4.873533e+01	-1.216795e+01
4.901682e+01	-1.221424e+01
4.929994e+01	-1.226146e+01
4.958470e+01	-1.230879e+01
4.987110e+01	-1.235571e+01
5.015915e+01	-1.240224e+01
5.044887e+01	-1.245026e+01
5.074026e+01	-1.249741e+01
5.103333e+01	-1.254417e+01
5.132810e+01	-1.259188e+01
5.162457e+01	-1.263863e+01
5.192275e+01	-1.268613e+01
5.222265e+01	-1.273330e+01
5.252429e+01	-1.278049e+01
5.282767e+01	-1.282826e+01
5.313280e+01	-1.287585e+01
5.343969e+01	-1.292379e+01
5.374836e+01	-1.297060e+01
5.405880e+01	-1.301717e+01
5.437105e+01	-1.306616e+01
5.468509e+01	-1.311332e+01
5.500095e+01	-1.316109e+01
5.531863e+01	-1.320858e+01
5.563815e+01	-1.325634e+01
5.595951e+01	-1.330360e+01
5.628273e+01	-1.335132e+01
5.660782e+01	-1.339935e+01
5.693479e+01	-1.344796e+01
5.726364e+01	-1.349468e+01
5.759439e+01	-1.354242e+01
5.792705e+01	-1.359015e+01
5.826164e+01	-1.363855e+01
5.859815e+01	-1.368603e+01
5.893662e+01	-1.373424e+01
5.927703e+01	-1.378168e+01
5.961941e+01	-1.383014e+01
5.996377e+01	-1.387860e+01
6.031012e+01	-1.392510e+01
6.065847e+01	-1.397383e+01
6.100883e+01	-1.402218e+01
6.136121e+01	-1.406986e+01
6.171563e+01	-1.411824e+01
6.207210e+01	-1.416650e+01
6.243063e+01	-1.421350e+01
6.279122e+01	-1.426299e+01
6.315390e+01	-1.431100e+01
6.351868e+01	-1.435869e+01
6.388556e+01	-1.440572e+01
6.425456e+01	-1.445544e+01
6.462569e+01	-1.450282e+01
6.499897e+01	-1.455251e+01
6.537440e+01	-1.459965e+01
6.575200e+01	-1.464723e+01
6.613178e+01	-1.469743e+01
6.651375e+01	-1.474479e+01
6.689793e+01	-1.479361e+01
6.728433e+01	-1.484127e+01
6.767297e+01	-1.489052e+01
6.806384e+01	-1.493831e+01
6.845698e+01	-1.498746e+01
6.885238e+01	-1.503525e+01
6.925007e+01	-1.508454e+01
6.965005e+01	-1.513281e+01
7.005235e+01	-1.518093e+01
7.045697e+01	-1.522958e+01
7.086393e+01	-1.527762e+01
7.127323e+01	-1.532704e+01
7.168490e+01	-1.537483e+01
7.209895e+01	-1.542381e+01
7.251539e+01	-1.547333e+01
7.293424e+01	-1.552146e+01
7.335551e+01	-1.556891e+01
7.377920e+01	-1.561746e+01
7.420535e+01	-1.566768e+01
7.463396e+01	-1.571589e+01
7.506504e+01	-1.576416e+01
7.549861e+01	-1.581221e+01
7.593469e+01	-1.586183e+01
7.637328e+01	-1.591061e+01
7.681441e+01	-1.595858e+01
7.725809e+01	-1.600803e+01
7.770433e+01	-1.605623e+01
7.815315e+01	-1.610534e+01
7.860456e+01	-1.615460e+01
7.905857e+01	-1.620331e+01
7.951521e+01	-1.625210e+01
7.997449e+01	-1.630073e+01
8.043642e+01	-1.634973e+01
8.090102e+01	-1.639792e+01
8.136830e+01	-1.644828e+01
8.183828e+01	-1.649687e+01
8.231097e+01	-1.654568e+01
8.278640e+01	-1.659394e+01
8.326457e+01	-1.664290e+01
8.374550e+01	-1.669200e+01
8.422921e+01	-1.674138e+01
8.471572e+01	-1.678979e+01
8.520503e+01	-1.683882e+01
8.569717e+01	-1.688811e+01
8.619215e+01	-1.693720e+01
8.669000e+01	-1.698561e+01
8.719071e+01	-1.703591e+01
8.769432e+01	-1.708466e+01
8.820084e+01	-1.713406e+01
8.871029e+01	-1.718263e+01
8.922267e+01	-1.723133e+01
8.973802e+01	-1.728075e+01
9.025634e+01	-1.733025e+01
9.077766e+01	-1.737893e+01
9.130199e+01	-1.742697e+01
9.182935e+01	-1.747772e+01
9.235975e+01	-1.752604e+01
9.289321e+01	-1.757493e+01
9.342976e+01	-1.762534e+01
9.396941e+01	-1.767358e+01
9.451217e+01	-1.772261e+01
9.505807e+01	-1.777111e+01
9.560712e+01	-1.782111e+01
9.615934e+01	-1.787141e+01
9.671476e+01	-1.791984e+01
9.727338e+01	-1.796710e+01
9.783522e+01	-1.801697e+01
9.840032e+01	-1.806942e+01
9.896867e+01	-1.811653e+01
9.954031e+01	-1.816420e+01
1.001153e+02	-1.821406e+01
1.006935e+02	-1.826446e+01
1.012751e+02	-1.831336e+01
1.018601e+02	-1.836212e+01
1.024484e+02	-1.841232e+01
1.030402e+02	-1.846131e+01
1.036353e+02	-1.851000e+01
1.042339e+02	-1.856026e+01
1.048360e+02	-1.860868e+01
1.054415e+02	-1.866051e+01
1.060505e+02	-1.870845e+01
1.066631e+02	-1.875776e+01
1.072791e+02	-1.880738e+01
1.078988e+02	-1.885599e+01
1.085220e+02	-1.890442e+01
1.091488e+02	-1.895472e+01
1.097793e+02	-1.900350e+01
1.104133e+02	-1.905391e+01
1.110511e+02	-1.910363e+01
1.116925e+02	-1.915213e+01
1.123376e+02	-1.920291e+01
1.129865e+02	-1.925205e+01
1.136391e+02	-1.930028e+01
1.142955e+02	-1.935042e+01
1.149556e+02	-1.940009e+01
1.156196e+02	-1.944946e+01
1.162874e+02	-1.949930e+01
1.169591e+02	-1.954856e+01
1.176347e+02	-1.959940e+01
1.183141e+02	-1.964816e+01
1.189975e+02	-1.969701e+01
1.196848e+02	-1.974790e+01
1.203761e+02	-1.979603e+01
1.210714e+02	-1.984608e+01
1.217707e+02	-1.989584e+01
1.224740e+02	-1.994331e+01
1.231814e+02	-1.999443e+01
1.238929e+02	-2.004196e+01
1.246085e+02	-2.009220e+01
1.253283e+02	-2.014255e+01
1.260522e+02	-2.019247e+01
1.267802e+02	-2.024222e+01
1.275125e+02	-2.029102e+01
1.282490e+02	-2.034150e+01
1.289898e+02	-2.039093e+01
1.297348e+02	-2.044003e+01
1.304842e+02	-2.048866e+01
1.312378e+02	-2.053917e+01
1.319959e+02	-2.058897e+01
1.327583e+02	-2.064004e+01
1.335251e+02	-2.068824e+01
1.342963e+02	-2.073502e+01
1.350720e+02	-2.078734e+01
1.358522e+02	-2.083639e+01
1.366368e+02	-2.088793e+01
1.374260e+02	-2.093705e+01
1.382198e+02	-2.098477e+01
1.390182e+02	-2.103528e+01
1.398211e+02	-2.108527e+01
1.406287e+02	-2.113381e+01
1.414410e+02	-2.118530e+01
1.422579e+02	-2.123482e+01
1.430796e+02	-2.128461e+01
1.439060e+02	-2.133463e+01
1.447372e+02	-2.138260e+01
1.455732e+02	-2.143266e+01
1.464141e+02	-2.148232e+01
1.472597e+02	-2.153354e+01
1.481103e+02	-2.158203e+01
1.489658e+02	-2.163091e+01
1.498262e+02	-2.168090e+01
1.506916e+02	-2.172886e+01
1.515620e+02	-2.177811e+01
1.524374e+02	-2.183160e+01
1.533179e+02	-2.188041e+01
1.542034e+02	-2.192977e+01
1.550941e+02	-2.197862e+01
1.559899e+02	-2.203111e+01
1.568909e+02	-2.207843e+01
1.577971e+02	-2.212875e+01
1.587085e+02	-2.217958e+01
1.596252e+02	-2.222609e+01
1.605472e+02	-2.227932e+01
1.614745e+02	-2.232621e+01
1.624072e+02	-2.237803e+01
1.633453e+02	-2.242673e+01
1.642887e+02	-2.247778e+01
1.652377e+02	-2.252899e+01
1.661921e+02	-2.257852e+01
1.671520e+02	-2.262684e+01
1.681175e+02	-2.267623e+01
1.690885e+02	-2.272718e+01
1.700651e+02	-2.277529e+01
1.710474e+02	-2.282705e+01
1.720354e+02	-2.287494e+01
1.730291e+02	-2.292601e+01
1.740285e+02	-2.297502e+01
1.750337e+02	-2.302514e+01
1.760446e+02	-2.307618e+01
1.770615e+02	-2.312281e+01
1.780842e+02	-2.317494e+01
1.791128e+02	-2.322365e+01
1.801473e+02	-2.327304e+01
1.811878e+02	-2.332238e+01
1.822344e+02	-2.337435e+01
1.832870e+02	-2.342364e+01
1.843456e+02	-2.347433e+01
1.854104e+02	-2.352306e+01
1.864813e+02	-2.357136e+01
1.875584e+02	-2.362411e+01
1.886418e+02	-2.367441e+01
1.897313e+02	-2.372169e+01
1.908272e+02	-2.377127e+01
1.919294e+02	-2.382235e+01
1.930380e+02	-2.387221e+01
1.941530e+02	-2.392251e+01
1.952744e+02	-2.397193e+01
1.964023e+02	-2.402024e+01
1.975367e+02	-2.406957e+01
1.986777e+02	-2.412077e+01
1.998252e+02	-2.417104e+01
2.009794e+02	-2.422090e+01
2.021403e+02	-2.427160e+01
2.033078e+02	-2.431965e+01
2.044821e+02	-2.437285e+01
2.056632e+02	-2.442308e+01
2.068511e+02	-2.447079e+01
2.080459e+02	-2.451913e+01
2.092475e+02	-2.457064e+01
2.104561e+02	-2.462095e+01
2.116717e+02	-2.467066e+01
2.128943e+02	-2.471961e+01
2.141240e+02	-2.476759e+01
2.153608e+02	-2.481890e+01
2.166047e+02	-2.486689e+01
2.178558e+02	-2.492029e+01
2.191141e+02	-2.497013e+01
2.203797e+02	-2.501917e+01
2.216526e+02	-2.506924e+01
2.229329e+02	-2.511840e+01
2.242205e+02	-2.516954e+01
2.255156e+02	-2.521877e+01
2.268182e+02	-2.526657e+01
2.281283e+02	-2.531841e+01
2.294459e+02	-2.536880e+01
2.307712e+02	-2.541506e+01
2.321041e+02	-2.547130e+01
2.334447e+02	-2.551727e+01
2.347931e+02	-2.557005e+01
2.361493e+02	-2.561838e+01
2.375133e+02	-2.566797e+01
2.388851e+02	-2.571634e+01
2.402649e+02	-2.576738e+01
2.416527e+02	-2.581791e+01
2.430484e+02	-2.586893e+01
2.444523e+02	-2.591759e+01
2.458642e+02	-2.596472e+01
2.472843e+02	-2.601653e+01
2.487126e+02	-2.606694e+01
2.501492e+02	-2.611803e+01
2.515940e+02	-2.616879e+01
2.530472e+02	-2.621668e+01
2.545088e+02	-2.626851e+01
2.559789e+02	-2.631872e+01
2.574574e+02	-2.636764e+01
2.589444e+02	-2.641637e+01
2.604401e+02	-2.646576e+01
2.619444e+02	-2.651740e+01
2.634574e+02	-2.656885e+01
2.649791e+02	-2.661765e+01
2.665096e+02	-2.666919e+01
2.680489e+02	-2.671500e+01
2.695972e+02	-2.676768e+01
2.711544e+02	-2.681599e+01
2.727205e+02	-2.686664e+01
2.742958e+02	-2.691791e+01
2.758801e+02	-2.696708e+01
2.774736e+02	-2.701328e+01
2.790762e+02	-2.706786e+01
2.806882e+02	-2.711376e+01
2.823094e+02	-2.716676e+01
2.839400e+02	-2.721927e+01
2.855800e+02	-2.726872e+01
2.872295e+02	-2.731711e+01
2.888886e+02	-2.736424e+01
2.905572e+02	-2.741718e+01
2.922354e+02	-2.746442e+01
2.939234e+02	-2.751821e+01
2.956211e+02	-2.756688e+01
2.973286e+02	-2.761583e+01
2.990459e+02	-2.767129e+01
3.007732e+02	-2.771962e+01
3.025104e+02	-2.776637e+01
3.042577e+02	-2.781874e+01
3.060151e+02	-2.786473e+01
3.077826e+02	-2.791642e+01
3.095604e+02	-2.796183e+01
3.113484e+02	-2.802001e+01
3.131467e+02	-2.806529e+01
3.149554e+02	-2.811653e+01
3.167746e+02	-2.816865e+01
3.186043e+02	-2.821418e+01
3.204445e+02	-2.826906e+01
3.222954e+02	-2.831499e+01
3.241570e+02	-2.836856e+01
3.260293e+02	-2.841823e+01
3.279124e+02	-2.846779e+01
3.298064e+02	-2.851416e+01
3.317114e+02	-2.857296e+01
3.336273e+02	-2.861681e+01
3.355544e+02	-2.866934e+01
3.374925e+02	-2.872089e+01
3.394418e+02	-2.876898e+01
3.414024e+02	-2.881871e+01
3.433744e+02	-2.886761e+01
3.453577e+02	-2.891666e+01
3.473525e+02	-2.896801e+01
3.493588e+02	-2.901853e+01
3.513766e+02	-2.907156e+01
3.534062e+02	-2.911459e+01
3.554474e+02	-2.917046e+01
3.575005e+02	-2.921677e+01
3.595654e+02	-2.926633e+01
3.616422e+02	-2.931993e+01
3.637311e+02	-2.936962e+01
3.658320e+02	-2.941949e+01
3.679450e+02	-2.947098e+01
3.700702e+02	-2.951427e+01
3.722077e+02	-2.956819e+01
3.743576e+02	-2.961637e+01
3.765199e+02	-2.966720e+01
3.786946e+02	-2.971807e+01
3.808820e+02	-2.976801e+01
3.830819e+02	-2.981602e+01
3.852946e+02	-2.987000e+01
3.875200e+02	-2.991846e+01
3.897583e+02	-2.997144e+01
3.920096e+02	-3.001702e+01
3.942738e+02	-3.006699e+01
3.965511e+02	-3.011498e+01
3.988416e+02	-3.017157e+01
4.011452e+02	-3.021744e+01
4.034622e+02	-3.026544e+01
4.057926e+02	-3.031950e+01
4.081365e+02	-3.036870e+01
4.104938e+02	-3.041930e+01
4.128648e+02	-3.047119e+01
4.152495e+02	-3.052166e+01
4.176480e+02	-3.057358e+01
4.200603e+02	-3.061731e+01
4.224866e+02	-3.067334e+01
4.249268e+02	-3.072447e+01
4.273812e+02	-3.077556e+01
4.298497e+02	-3.082588e+01
4.323325e+02	-3.086530e+01
4.348297e+02	-3.091711e+01
4.373412e+02	-3.097205e+01
4.398673e+02	-3.101678e+01
4.424079e+02	-3.107176e+01
4.449633e+02	-3.112365e+01
4.475334e+02	-3.116434e+01
4.501183e+02	-3.122577e+01
4.527182e+02	-3.127710e+01
4.553330e+02	-3.132626e+01
4.579630e+02	-3.136769e+01
4.606082e+02	-3.142394e+01
4.632687e+02	-3.147560e+01
4.659445e+02	-3.152667e+01
4.686358e+02	-3.157798e+01
4.713426e+02	-3.162599e+01
4.740650e+02	-3.167729e+01
4.768032e+02	-3.172527e+01
4.795572e+02	-3.177433e+01
4.823271e+02	-3.182936e+01
4.851130e+02	-3.187887e+01
4.879150e+02	-3.192254e+01
4.907332e+02	-3.197287e+01
4.935676e+02	-3.202347e+01
4.964185e+02	-3.207515e+01
4.992858e+02	-3.212323e+01
5.021696e+02	-3.217462e+01
5.050701e+02	-3.222843e+01
5.079874e+02	-3.228061e+01
5.109215e+02	-3.233257e+01
5.138726e+02	-3.238341e+01
5.168407e+02	-3.243009e+01
5.198259e+02	-3.247493e+01
5.228284e+02	-3.253104e+01
5.258482e+02	-3.258453e+01
5.288855e+02	-3.262930e+01
5.319403e+02	-3.268082e+01
5.350128e+02	-3.271876e+01
5.381030e+02	-3.277844e+01
5.412111e+02	-3.282704e+01
5.443371e+02	-3.287842e+01
5.474812e+02	-3.293184e+01
5.506434e+02	-3.298319e+01
5.538239e+02	-3.302671e+01
5.570228e+02	-3.307600e+01
5.602401e+02	-3.312982e+01
5.634760e+02	-3.318430e+01
5.667306e+02	-3.323366e+01
5.700040e+02	-3.327672e+01
5.732964e+02	-3.333707e+01
5.766077e+02	-3.337391e+01
5.799382e+02	-3.342565e+01
5.832879e+02	-3.348312e+01
5.866569e+02	-3.353015e+01
5.900454e+02	-3.357464e+01
5.934535e+02	-3.362662e+01
5.968813e+02	-3.367958e+01
6.003288e+02	-3.373019e+01
6.037963e+02	-3.378186e+01
6.072838e+02	-3.383995e+01
6.107914e+02	-3.388270e+01
6.143194e+02	-3.392801e+01
6.178676e+02	-3.398434e+01
6.214364e+02	-3.404116e+01
6.250258e+02	-3.408665e+01
6.286359e+02	-3.413835e+01
6.322669e+02	-3.419265e+01
6.359189e+02	-3.423458e+01
6.395919e+02	-3.428647e+01
6.432862e+02	-3.433883e+01
6.470017e+02	-3.439348e+01
6.507388e+02	-3.444954e+01
6.544974e+02	-3.447896e+01
6.582778e+02	-3.454482e+01
6.620800e+02	-3.458496e+01
6.659041e+02	-3.463228e+01
6.697504e+02	-3.468949e+01
6.736188e+02	-3.474665e+01
6.775096e+02	-3.478291e+01
6.814229e+02	-3.483970e+01
6.853587e+02	-3.489994e+01
6.893173e+02	-3.494335e+01
6.932988e+02	-3.498691e+01
6.973033e+02	-3.503860e+01
7.013309e+02	-3.509224e+01
