Frequency(Hz)	Magnitude(dB)
1.000000e+01	-2.180886e+00
1.005776e+01	-2.200899e+00
1.011585e+01	-2.220968e+00
1.017428e+01	-2.240944e+00
1.023305e+01	-2.261042e+00
1.029215e+01	-2.281356e+00
1.035160e+01	-2.302167e+00
1.041139e+01	-2.322672e+00
1.047153e+01	-2.343450e+00
1.053201e+01	-2.364124e+00
1.059284e+01	-2.385375e+00
1.065403e+01	-2.406398e+00
1.071556e+01	-2.428008e+00
1.077746e+01	-2.449459e+00
1.083971e+01	-2.471105e+00
1.090232e+01	-2.493139e+00
1.096529e+01	-2.514673e+00
1.102862e+01	-2.537007e+00
1.109232e+01	-2.559107e+00
1.115639e+01	-2.581609e+00
1.122083e+01	-2.603743e+00
1.128564e+01	-2.626446e+00
1.135083e+01	-2.649316e+00
1.141639e+01	-2.672153e+00
1.148233e+01	-2.695188e+00
1.154865e+01	-2.718294e+00
1.161536e+01	-2.742301e+00
1.168245e+01	-2.765329e+00
1.174992e+01	-2.788885e+00
1.181779e+01	-2.812495e+00
1.188605e+01	-2.836593e+00
1.195470e+01	-2.860634e+00
1.202375e+01	-2.884998e+00
1.209320e+01	-2.909066e+00
1.216305e+01	-2.933724e+00
1.223330e+01	-2.958419e+00
1.230396e+01	-2.983165e+00
1.237503e+01	-3.008073e+00
1.244651e+01	-3.033104e+00
1.251840e+01	-3.058303e+00
1.259070e+01	-3.083700e+00
1.266343e+01	-3.109017e+00
1.273657e+01	-3.135158e+00
1.281014e+01	-3.160675e+00
1.288413e+01	-3.186611e+00
1.295855e+01	-3.212663e+00
1.303339e+01	-3.238844e+00
1.310867e+01	-3.265126e+00
1.318439e+01	-3.291770e+00
1.326054e+01	-3.318538e+00
1.333713e+01	-3.345360e+00
1.341417e+01	-3.372378e+00
1.349165e+01	-3.399549e+00
1.356958e+01	-3.426480e+00
1.364795e+01	-3.453804e+00
1.372678e+01	-3.481441e+00
1.380607e+01	-3.509073e+00
1.388581e+01	-3.536969e+00
1.396602e+01	-3.564962e+00
1.404668e+01	-3.593001e+00
1.412782e+01	-3.621198e+00
1.420942e+01	-3.649563e+00
1.429149e+01	-3.677851e+00
1.437404e+01	-3.706570e+00
1.445706e+01	-3.735411e+00
1.454057e+01	-3.764075e+00
1.462455e+01	-3.793690e+00
1.470902e+01	-3.822775e+00
1.479398e+01	-3.851901e+00
1.487943e+01	-3.881449e+00
1.496537e+01	-3.911015e+00
1.505181e+01	-3.940701e+00
1.513875e+01	-3.970659e+00
1.522619e+01	-4.000632e+00
1.531414e+01	-4.030793e+00
1.540259e+01	-4.061311e+00
1.549156e+01	-4.091546e+00
1.558103e+01	-4.122521e+00
1.567103e+01	-4.152917e+00
1.576155e+01	-4.183856e+00
1.585258e+01	-4.214960e+00
1.594415e+01	-4.245983e+00
1.603624e+01	-4.277328e+00
1.612886e+01	-4.308738e+00
1.622202e+01	-4.340115e+00
1.631572e+01	-4.371887e+00
1.640996e+01	-4.403950e+00
1.650474e+01	-4.435754e+00
1.660008e+01	-4.467664e+00
1.669596e+01	-4.500113e+00
1.679239e+01	-4.532508e+00
1.688938e+01	-4.564741e+00
1.698694e+01	-4.597365e+00
1.708505e+01	-4.630093e+00
1.718373e+01	-4.662769e+00
1.728299e+01	-4.695939e+00
1.738281e+01	-4.729373e+00
1.748322e+01	-4.762298e+00
1.758420e+01	-4.795979e+00
1.768576e+01	-4.829615e+00
1.778792e+01	-4.862730e+00
1.789066e+01	-4.896881e+00
1.799399e+01	-4.930737e+00
1.809793e+01	-4.964714e+00
1.820246e+01	-4.998846e+00
1.830760e+01	-5.033128e+00
1.841334e+01	-5.067377e+00
1.851969e+01	-5.101834e+00
1.862666e+01	-5.136709e+00
1.873425e+01	-5.171432e+00
1.884246e+01	-5.206336e+00
1.895129e+01	-5.241263e+00
1.906075e+01	-5.276522e+00
1.917085e+01	-5.311298e+00
1.928158e+01	-5.346991e+00
1.939295e+01	-5.382187e+00
1.950496e+01	-5.418088e+00
1.961762e+01	-5.453787e+00
1.973093e+01	-5.489481e+00
1.984490e+01	-5.525311e+00
1.995952e+01	-5.561414e+00
2.007480e+01	-5.597905e+00
2.019076e+01	-5.633972e+00
2.030738e+01	-5.670495e+00
2.042467e+01	-5.707311e+00
2.054264e+01	-5.743577e+00
2.066130e+01	-5.780675e+00
2.078064e+01	-5.817311e+00
2.090066e+01	-5.853871e+00
2.102139e+01	-5.891175e+00
2.114280e+01	-5.928561e+00
2.126492e+01	-5.965916e+00
2.138775e+01	-6.003200e+00
2.151128e+01	-6.040820e+00
2.163553e+01	-6.078114e+00
2.176050e+01	-6.116182e+00
2.188619e+01	-6.154042e+00
2.201260e+01	-6.191912e+00
2.213974e+01	-6.229790e+00
2.226762e+01	-6.268296e+00
2.239624e+01	-6.306390e+00
2.252560e+01	-6.344598e+00
2.265571e+01	-6.383019e+00
2.278656e+01	-6.421583e+00
2.291818e+01	-6.460528e+00
2.305055e+01	-6.499172e+00
2.318369e+01	-6.537740e+00
2.331760e+01	-6.577058e+00
2.345228e+01	-6.616064e+00
2.358774e+01	-6.655500e+00
2.372398e+01	-6.694639e+00
2.386101e+01	-6.734063e+00
2.399883e+01	-6.773229e+00
2.413745e+01	-6.813143e+00
2.427686e+01	-6.852785e+00
2.441709e+01	-6.892310e+00
2.455812e+01	-6.932098e+00
2.469997e+01	-6.972301e+00
2.484263e+01	-7.012551e+00
2.498612e+01	-7.051893e+00
2.513044e+01	-7.092760e+00
2.527559e+01	-7.132657e+00
2.542158e+01	-7.173392e+00
2.556842e+01	-7.213587e+00
2.571610e+01	-7.254282e+00
2.586463e+01	-7.294909e+00
2.601403e+01	-7.335754e+00
2.616428e+01	-7.376313e+00
2.631541e+01	-7.417059e+00
2.646740e+01	-7.458247e+00
2.662028e+01	-7.499419e+00
2.677404e+01	-7.540858e+00
2.692868e+01	-7.581927e+00
2.708422e+01	-7.622857e+00
2.724066e+01	-7.664496e+00
2.739800e+01	-7.706062e+00
2.755625e+01	-7.747647e+00
2.771541e+01	-7.789439e+00
2.787550e+01	-7.830739e+00
2.803650e+01	-7.873058e+00
2.819844e+01	-7.915221e+00
2.836131e+01	-7.956769e+00
2.852513e+01	-7.999072e+00
2.868989e+01	-8.041033e+00
2.885560e+01	-8.083365e+00
2.902227e+01	-8.125758e+00
2.918990e+01	-8.168157e+00
2.935850e+01	-8.210632e+00
2.952807e+01	-8.253033e+00
2.969863e+01	-8.295784e+00
2.987016e+01	-8.338035e+00
3.004269e+01	-8.380680e+00
3.021622e+01	-8.423305e+00
3.039075e+01	-8.466335e+00
3.056628e+01	-8.509637e+00
3.074283e+01	-8.552406e+00
3.092040e+01	-8.595684e+00
3.109900e+01	-8.638656e+00
3.127862e+01	-8.682230e+00
3.145929e+01	-8.725285e+00
3.164099e+01	-8.768348e+00
3.182375e+01	-8.812242e+00
3.200756e+01	-8.855053e+00
3.219244e+01	-8.898806e+00
3.237838e+01	-8.942103e+00
3.256540e+01	-8.986695e+00
3.275349e+01	-9.030342e+00
3.294268e+01	-9.073698e+00
3.313295e+01	-9.117300e+00
3.332433e+01	-9.161886e+00
3.351681e+01	-9.205361e+00
3.371040e+01	-9.249736e+00
3.390511e+01	-9.293392e+00
3.410094e+01	-9.337965e+00
3.429791e+01	-9.382436e+00
3.449601e+01	-9.426296e+00
3.469526e+01	-9.470498e+00
3.489566e+01	-9.515253e+00
3.509721e+01	-9.559724e+00
3.529993e+01	-9.604137e+00
3.550382e+01	-9.647847e+00
3.570889e+01	-9.693510e+00
3.591515e+01	-9.737856e+00
3.612259e+01	-9.782154e+00
3.633123e+01	-9.827571e+00
3.654108e+01	-9.872028e+00
3.675214e+01	-9.917031e+00
3.696442e+01	-9.961971e+00
3.717792e+01	-1.000693e+01
3.739266e+01	-1.005263e+01
3.760864e+01	-1.009790e+01
3.782587e+01	-1.014275e+01
3.804435e+01	-1.018802e+01
3.826409e+01	-1.023291e+01
3.848510e+01	-1.027831e+01
3.870739e+01	-1.032378e+01
3.893096e+01	-1.036917e+01
3.915583e+01	-1.041458e+01
3.938199e+01	-1.046002e+01
3.960946e+01	-1.050542e+01
3.983824e+01	-1.055139e+01
4.006834e+01	-1.059720e+01
4.029978e+01	-1.064224e+01
4.053255e+01	-1.068819e+01
4.076666e+01	-1.073435e+01
4.100213e+01	-1.078026e+01
4.123896e+01	-1.082573e+01
4.147715e+01	-1.087150e+01
4.171672e+01	-1.091769e+01
4.195767e+01	-1.096416e+01
4.220002e+01	-1.101001e+01
4.244377e+01	-1.105550e+01
4.268892e+01	-1.110163e+01
4.293549e+01	-1.114774e+01
4.318348e+01	-1.119445e+01
4.343291e+01	-1.124074e+01
4.368377e+01	-1.128683e+01
4.393609e+01	-1.133319e+01
4.418986e+01	-1.137928e+01
4.444510e+01	-1.142552e+01
4.470182e+01	-1.147242e+01
4.496001e+01	-1.151846e+01
4.521970e+01	-1.156567e+01
4.548089e+01	-1.161146e+01
4.574358e+01	-1.165839e+01
4.600779e+01	-1.170487e+01
4.627353e+01	-1.175191e+01
4.654081e+01	-1.179857e+01
4.680963e+01	-1.184499e+01
4.708000e+01	-1.189128e+01
4.735193e+01	-1.193874e+01
4.762543e+01	-1.198538e+01
4.790051e+01	-1.203271e+01
4.817719e+01	-1.207961e+01
4.845545e+01	-1.212676e+01
4.873533e+01	-1.217280e+01
4.901682e+01	-1.222101e+01
4.929994e+01	-1.226697e+01
4.958470e+01	-1.231374e+01
4.987110e+01	-1.236169e+01
5.015915e+01	-1.240853e+01
5.044887e+01	-1.245572e+01
5.074026e+01	-1.250291e+01
5.103333e+01	-1.255103e+01
5.132810e+01	-1.259746e+01
5.162457e+01	-1.264484e+01
5.192275e+01	-1.269230e+01
5.222265e+01	-1.273843e+01
5.252429e+01	-1.278727e+01
5.282767e+01	-1.283419e+01
5.313280e+01	-1.288166e+01
5.343969e+01	-1.292918e+01
5.374836e+01	-1.297685e+01
5.405880e+01	-1.302425e+01
5.437105e+01	-1.307205e+01
5.468509e+01	-1.311841e+01
5.500095e+01	-1.316689e+01
5.531863e+01	-1.321450e+01
5.563815e+01	-1.326257e+01
5.595951e+01	-1.330965e+01
5.628273e+01	-1.335788e+01
5.660782e+01	-1.340645e+01
5.693479e+01	-1.345285e+01
5.726364e+01	-1.350204e+01
5.759439e+01	-1.354877e+01
5.792705e+01	-1.359682e+01
5.826164e+01	-1.364394e+01
5.859815e+01	-1.369217e+01
5.893662e+01	-1.373995e+01
5.927703e+01	-1.378867e+01
5.961941e+01	-1.383643e+01
5.996377e+01	-1.388363e+01
6.031012e+01	-1.393203e+01
6.065847e+01	-1.398018e+01
6.100883e+01	-1.402679e+01
6.136121e+01	-1.407474e+01
6.171563e+01	-1.412370e+01
6.207210e+01	-1.417194e+01
6.243063e+01	-1.422099e+01
6.279122e+01	-1.426821e+01
6.315390e+01	-1.431687e+01
6.351868e+01	-1.436404e+01
6.388556e+01	-1.441377e+01
6.425456e+01	-1.446139e+01
6.462569e+01	-1.450946e+01
6.499897e+01	-1.455835e+01
6.537440e+01	-1.460557e+01
6.575200e+01	-1.465472e+01
6.613178e+01	-1.470270e+01
6.651375e+01	-1.475160e+01
6.689793e+01	-1.479975e+01
6.728433e+01	-1.484727e+01
6.767297e+01	-1.489589e+01
6.806384e+01	-1.494437e+01
6.845698e+01	-1.499266e+01
6.885238e+01	-1.504192e+01
6.925007e+01	-1.508946e+01
6.965005e+01	-1.513884e+01
7.005235e+01	-1.518645e+01
7.045697e+01	-1.523552e+01
7.086393e+01	-1.528433e+01
7.127323e+01	-1.533315e+01
7.168490e+01	-1.538127e+01
7.209895e+01	-1.542936e+01
7.251539e+01	-1.547855e+01
7.293424e+01	-1.552632e+01
7.335551e+01	-1.557624e+01
7.377920e+01	-1.562500e+01
7.420535e+01	-1.567297e+01
7.463396e+01	-1.572062e+01
7.506504e+01	-1.577065e+01
7.549861e+01	-1.581925e+01
7.593469e+01	-1.586835e+01
7.637328e+01	-1.591726e+01
7.681441e+01	-1.596671e+01
7.725809e+01	-1.601535e+01
7.770433e+01	-1.606360e+01
7.815315e+01	-1.611098e+01
7.860456e+01	-1.615957e+01
7.905857e+01	-1.620917e+01
7.951521e+01	-1.625782e+01
7.997449e+01	-1.630751e+01
8.043642e+01	-1.635573e+01
8.090102e+01	-1.640550e+01
8.136830e+01	-1.645375e+01
8.183828e+01	-1.650352e+01
8.231097e+01	-1.655165e+01
8.278640e+01	-1.660031e+01
8.326457e+01	-1.665023e+01
8.374550e+01	-1.669855e+01
8.422921e+01	-1.674703e+01
8.471572e+01	-1.679635e+01
8.520503e+01	-1.684517e+01
8.569717e+01	-1.689320e+01
8.619215e+01	-1.694309e+01
8.669000e+01	-1.699270e+01
8.719071e+01	-1.704120e+01
8.769432e+01	-1.708931e+01
8.820084e+01	-1.713928e+01
8.871029e+01	-1.718854e+01
8.922267e+01	-1.723815e+01
8.973802e+01	-1.728613e+01
9.025634e+01	-1.733564e+01
9.077766e+01	-1.738518e+01
9.130199e+01	-1.743342e+01
9.182935e+01	-1.748298e+01
9.235975e+01	-1.753312e+01
9.289321e+01	-1.758120e+01
9.342976e+01	-1.763068e+01
9.396941e+01	-1.768024e+01
9.451217e+01	-1.772995e+01
9.505807e+01	-1.777780e+01
9.560712e+01	-1.782770e+01
9.615934e+01	-1.787710e+01
9.671476e+01	-1.792514e+01
9.727338e+01	-1.797369e+01
9.783522e+01	-1.802612e+01
9.840032e+01	-1.807306e+01
9.896867e+01	-1.812266e+01
9.954031e+01	-1.817180e+01
1.001153e+02	-1.822117e+01
1.006935e+02	-1.827117e+01
1.012751e+02	-1.831872e+01
1.018601e+02	-1.836829e+01
1.024484e+02	-1.841786e+01
1.030402e+02	-1.846735e+01
1.036353e+02	-1.851722e+01
1.042339e+02	-1.856667e+01
1.048360e+02	-1.861612e+01
1.054415e+02	-1.866595e+01
1.060505e+02	-1.871409e+01
1.066631e+02	-1.876337e+01
1.072791e+02	-1.881314e+01
1.078988e+02	-1.886227e+01
1.085220e+02	-1.891087e+01
1.091488e+02	-1.896200e+01
1.097793e+02	-1.900956e+01
1.104133e+02	-1.906012e+01
1.110511e+02	-1.910948e+01
1.116925e+02	-1.916007e+01
1.123376e+02	-1.920816e+01
1.129865e+02	-1.925634e+01
1.136391e+02	-1.930686e+01
1.142955e+02	-1.935792e+01
1.149556e+02	-1.940808e+01
1.156196e+02	-1.945565e+01
1.162874e+02	-1.950497e+01
1.169591e+02	-1.955509e+01
1.176347e+02	-1.960406e+01
1.183141e+02	-1.965316e+01
1.189975e+02	-1.970444e+01
1.196848e+02	-1.975138e+01
1.203761e+02	-1.980265e+01
1.210714e+02	-1.985216e+01
1.217707e+02	-1.990030e+01
1.224740e+02	-1.995046e+01
1.231814e+02	-2.000062e+01
1.238929e+02	-2.004966e+01
1.246085e+02	-2.009985e+01
1.253283e+02	-2.014918e+01
1.260522e+02	-2.019889e+01
1.267802e+02	-2.024824e+01
1.275125e+02	-2.029739e+01
1.282490e+02	-2.034725e+01
1.289898e+02	-2.039725e+01
1.297348e+02	-2.044568e+01
1.304842e+02	-2.049375e+01
1.312378e+02	-2.054560e+01
1.319959e+02	-2.059652e+01
1.327583e+02	-2.064480e+01
1.335251e+02	-2.069452e+01
1.342963e+02	-2.074493e+01
1.350720e+02	-2.079331e+01
1.358522e+02	-2.084185e+01
1.366368e+02	-2.089328e+01
1.374260e+02	-2.094371e+01
1.382198e+02	-2.099057e+01
1.390182e+02	-2.104113e+01
1.398211e+02	-2.109288e+01
1.406287e+02	-2.114195e+01
1.414410e+02	-2.119101e+01
1.422579e+02	-2.124118e+01
1.430796e+02	-2.128992e+01
1.439060e+02	-2.133836e+01
1.447372e+02	-2.138808e+01
1.455732e+02	-2.144051e+01
1.464141e+02	-2.148875e+01
1.472597e+02	-2.153964e+01
1.481103e+02	-2.158673e+01
1.489658e+02	-2.163694e+01
1.498262e+02	-2.168619e+01
1.506916e+02	-2.173573e+01
1.515620e+02	-2.178700e+01
1.524374e+02	-2.183589e+01
1.533179e+02	-2.188781e+01
1.542034e+02	-2.193619e+01
1.550941e+02	-2.198614e+01
1.559899e+02	-2.203540e+01
1.568909e+02	-2.208719e+01
1.577971e+02	-2.213560e+01
1.587085e+02	-2.218332e+01
1.596252e+02	-2.223145e+01
1.605472e+02	-2.228369e+01
1.614745e+02	-2.233478e+01
1.624072e+02	-2.238344e+01
1.633453e+02	-2.243276e+01
1.642887e+02	-2.248241e+01
1.652377e+02	-2.253388e+01
1.661921e+02	-2.258341e+01
1.671520e+02	-2.263226e+01
1.681175e+02	-2.268180e+01
1.690885e+02	-2.273378e+01
1.700651e+02	-2.278200e+01
1.710474e+02	-2.283271e+01
1.720354e+02	-2.288169e+01
1.730291e+02	-2.293124e+01
1.740285e+02	-2.298104e+01
1.750337e+02	-2.303082e+01
1.760446e+02	-2.307989e+01
1.770615e+02	-2.313157e+01
1.780842e+02	-2.318053e+01
1.791128e+02	-2.323005e+01
1.801473e+02	-2.328045e+01
1.811878e+02	-2.333017e+01
1.822344e+02	-2.338035e+01
1.832870e+02	-2.342907e+01
1.843456e+02	-2.348051e+01
1.854104e+02	-2.352897e+01
1.864813e+02	-2.357999e+01
1.875584e+02	-2.362864e+01
1.886418e+02	-2.367686e+01
1.897313e+02	-2.372754e+01
1.908272e+02	-2.377755e+01
1.919294e+02	-2.383135e+01
1.930380e+02	-2.387802e+01
1.941530e+02	-2.392896e+01
1.952744e+02	-2.397734e+01
1.964023e+02	-2.402674e+01
1.975367e+02	-2.407702e+01
1.986777e+02	-2.412934e+01
1.998252e+02	-2.417446e+01
2.009794e+02	-2.422618e+01
2.021403e+02	-2.427682e+01
2.033078e+02	-2.432737e+01
2.044821e+02	-2.437704e+01
2.056632e+02	-2.442621e+01
2.068511e+02	-2.447657e+01
2.080459e+02	-2.452509e+01
2.092475e+02	-2.457579e+01
2.104561e+02	-2.462554e+01
2.116717e+02	-2.467541e+01
2.128943e+02	-2.472511e+01
2.141240e+02	-2.477511e+01
2.153608e+02	-2.482618e+01
2.166047e+02	-2.487454e+01
2.178558e+02	-2.492662e+01
2.191141e+02	-2.497294e+01
2.203797e+02	-2.502450e+01
2.216526e+02	-2.507480e+01
2.229329e+02	-2.512681e+01
2.242205e+02	-2.517536e+01
2.255156e+02	-2.522362e+01
2.268182e+02	-2.527621e+01
2.281283e+02	-2.532438e+01
2.294459e+02	-2.537418e+01
2.307712e+02	-2.542477e+01
2.321041e+02	-2.547469e+01
2.334447e+02	-2.552415e+01
2.347931e+02	-2.557705e+01
2.361493e+02	-2.562446e+01
2.375133e+02	-2.567671e+01
2.388851e+02	-2.572267e+01
2.402649e+02	-2.577445e+01
2.416527e+02	-2.582415e+01
2.430484e+02	-2.587304e+01
2.444523e+02	-2.592473e+01
2.458642e+02	-2.597465e+01
2.472843e+02	-2.602179e+01
2.487126e+02	-2.607365e+01
2.501492e+02	-2.612357e+01
2.515940e+02	-2.617653e+01
2.530472e+02	-2.622276e+01
2.545088e+02	-2.627330e+01
2.559789e+02	-2.632687e+01
2.574574e+02	-2.637597e+01
2.589444e+02	-2.642339e+01
2.604401e+02	-2.646915e+01
2.619444e+02	-2.652427e+01
2.634574e+02	-2.657271e+01
2.649791e+02	-2.662507e+01
2.665096e+02	-2.667086e+01
2.680489e+02	-2.672351e+01
2.695972e+02	-2.676897e+01
2.711544e+02	-2.682406e+01
2.727205e+02	-2.687232e+01
2.742958e+02	-2.692170e+01
2.758801e+02	-2.697017e+01
2.774736e+02	-2.702268e+01
2.790762e+02	-2.707220e+01
2.806882e+02	-2.712457e+01
2.823094e+02	-2.717272e+01
2.839400e+02	-2.722236e+01
2.855800e+02	-2.727380e+01
2.872295e+02	-2.732308e+01
2.888886e+02	-2.737413e+01
2.905572e+02	-2.742205e+01
2.922354e+02	-2.747570e+01
2.939234e+02	-2.751958e+01
2.956211e+02	-2.757423e+01
2.973286e+02	-2.762621e+01
2.990459e+02	-2.767072e+01
3.007732e+02	-2.772567e+01
3.025104e+02	-2.777400e+01
3.042577e+02	-2.782325e+01
3.060151e+02	-2.787444e+01
3.077826e+02	-2.792196e+01
3.095604e+02	-2.797483e+01
3.113484e+02	-2.802449e+01
3.131467e+02	-2.807073e+01
3.149554e+02	-2.812416e+01
3.167746e+02	-2.817375e+01
3.186043e+02	-2.822112e+01
3.204445e+02	-2.827427e+01
3.222954e+02	-2.832319e+01
3.241570e+02	-2.837568e+01
3.260293e+02	-2.841906e+01
3.279124e+02	-2.847372e+01
3.298064e+02	-2.852583e+01
3.317114e+02	-2.857381e+01
3.336273e+02	-2.862452e+01
3.355544e+02	-2.867443e+01
3.374925e+02	-2.872446e+01
3.394418e+02	-2.877407e+01
3.414024e+02	-2.882899e+01
3.433744e+02	-2.887544e+01
3.453577e+02	-2.892201e+01
3.473525e+02	-2.897205e+01
3.493588e+02	-2.902273e+01
3.513766e+02	-2.907126e+01
3.534062e+02	-2.912740e+01
3.554474e+02	-2.917792e+01
3.575005e+02	-2.922752e+01
3.595654e+02	-2.927231e+01
3.616422e+02	-2.932240e+01
3.637311e+02	-2.937227e+01
3.658320e+02	-2.942162e+01
3.679450e+02	-2.947746e+01
3.700702e+02	-2.952683e+01
3.722077e+02	-2.957223e+01
3.743576e+02	-2.962467e+01
3.765199e+02	-2.967429e+01
3.786946e+02	-2.972645e+01
3.808820e+02	-2.977298e+01
3.830819e+02	-2.982615e+01
3.852946e+02	-2.987339e+01
3.875200e+02	-2.992439e+01
3.897583e+02	-2.997769e+01
3.920096e+02	-3.002727e+01
3.942738e+02	-3.007881e+01
3.965511e+02	-3.012348e+01
3.988416e+02	-3.017908e+01
4.011452e+02	-3.022957e+01
4.034622e+02	-3.027562e+01
4.057926e+02	-3.033106e+01
4.081365e+02	-3.037511e+01
4.104938e+02	-3.043450e+01
4.128648e+02	-3.047753e+01
4.152495e+02	-3.053404e+01
4.176480e+02	-3.057624e+01
4.200603e+02	-3.062602e+01
4.224866e+02	-3.067681e+01
4.249268e+02	-3.072383e+01
4.273812e+02	-3.077829e+01
4.298497e+02	-3.082178e+01
4.323325e+02	-3.087351e+01
4.348297e+02	-3.092426e+01
4.373412e+02	-3.097636e+01
4.398673e+02	-3.102876e+01
4.424079e+02	-3.107987e+01
4.449633e+02	-3.112621e+01
4.475334e+02	-3.118550e+01
4.501183e+02	-3.123030e+01
4.527182e+02	-3.127665e+01
4.553330e+02	-3.132846e+01
4.579630e+02	-3.137321e+01
4.606082e+02	-3.143464e+01
4.632687e+02	-3.148105e+01
4.659445e+02	-3.153023e+01
4.686358e+02	-3.157777e+01
4.713426e+02	-3.163195e+01
4.740650e+02	-3.168108e+01
4.768032e+02	-3.172921e+01
4.795572e+02	-3.177487e+01
4.823271e+02	-3.182828e+01
4.851130e+02	-3.187847e+01
4.879150e+02	-3.194140e+01
4.907332e+02	-3.197958e+01
4.935676e+02	-3.202601e+01
4.964185e+02	-3.208688e+01
4.992858e+02	-3.213257e+01
5.021696e+02	-3.218378e+01
5.050701e+02	-3.223317e+01
5.079874e+02	-3.228539e+01
5.109215e+02	-3.233052e+01
5.138726e+02	-3.238569e+01
5.168407e+02	-3.243236e+01
5.198259e+02	-3.248440e+01
5.228284e+02	-3.253073e+01
5.258482e+02	-3.258506e+01
5.288855e+02	-3.263415e+01
5.319403e+02	-3.267941e+01
5.350128e+02	-3.273458e+01
5.381030e+02	-3.277616e+01
5.412111e+02	-3.283786e+01
5.443371e+02	-3.289212e+01
5.474812e+02	-3.292603e+01
5.506434e+02	-3.298525e+01
5.538239e+02	-3.303444e+01
5.570228e+02	-3.307748e+01
5.602401e+02	-3.314013e+01
5.634760e+02	-3.318903e+01
5.667306e+02	-3.323822e+01
5.700040e+02	-3.328748e+01
5.732964e+02	-3.333555e+01
5.766077e+02	-3.338334e+01
5.799382e+02	-3.343564e+01
5.832879e+02	-3.348505e+01
5.866569e+02	-3.353335e+01
5.900454e+02	-3.358582e+01
5.934535e+02	-3.363411e+01
5.968813e+02	-3.368400e+01
6.003288e+02	-3.374082e+01
6.037963e+02	-3.378833e+01
6.072838e+02	-3.383358e+01
6.107914e+02	-3.389093e+01
6.143194e+02	-3.394104e+01
6.178676e+02	-3.398515e+01
6.214364e+02	-3.403262e+01
6.250258e+02	-3.409149e+01
6.286359e+02	-3.414333e+01
6.322669e+02	-3.418864e+01
6.359189e+02	-3.423689e+01
6.395919e+02	-3.428667e+01
6.432862e+02	-3.434396e+01
6.470017e+02	-3.438987e+01
6.507388e+02	-3.444343e+01
6.544974e+02	-3.450569e+01
6.582778e+02	-3.454608e+01
6.620800e+02	-3.459764e+01
6.659041e+02	-3.463925e+01
6.697504e+02	-3.469433e+01
6.736188e+02	-3.473974e+01
6.775096e+02	-3.479611e+01
6.814229e+02	-3.485171e+01
6.853587e+02	-3.490559e+01
6.893173e+02	-3.494551e+01
6.932988e+02	-3.499890e+01
6.973033e+02	-3.504780e+01
7.013309e+02	-3.510195e+01
