Frequency(Hz)	Magnitude(dB)
1.000000e+01	-1.678094e-05
1.005776e+01	-1.697536e-05
1.011585e+01	-1.717202e-05
1.017428e+01	-1.737096e-05
1.023305e+01	-1.757221e-05
1.029215e+01	-1.777579e-05
1.035160e+01	-1.798173e-05
1.041139e+01	-1.819005e-05
1.047153e+01	-1.840078e-05
1.053201e+01	-1.861396e-05
1.059284e+01	-1.882961e-05
1.065403e+01	-1.904776e-05
1.071556e+01	-1.926843e-05
1.077746e+01	-1.949166e-05
1.083971e+01	-1.971747e-05
1.090232e+01	-1.994591e-05
1.096529e+01	-2.017698e-05
1.102862e+01	-2.041074e-05
1.109232e+01	-2.064720e-05
1.115639e+01	-2.088641e-05
1.122083e+01	-2.112838e-05
1.128564e+01	-2.137316e-05
1.135083e+01	-2.162077e-05
1.141639e+01	-2.187125e-05
1.148233e+01	-2.212464e-05
1.154865e+01	-2.238096e-05
1.161536e+01	-2.264025e-05
1.168245e+01	-2.290254e-05
1.174992e+01	-2.316787e-05
1.181779e+01	-2.343628e-05
1.188605e+01	-2.370779e-05
1.195470e+01	-2.398245e-05
1.202375e+01	-2.426029e-05
1.209320e+01	-2.454136e-05
1.216305e+01	-2.482567e-05
1.223330e+01	-2.511329e-05
1.230396e+01	-2.540423e-05
1.237503e+01	-2.569854e-05
1.244651e+01	-2.599627e-05
1.251840e+01	-2.629744e-05
1.259070e+01	-2.660210e-05
1.266343e+01	-2.691029e-05
1.273657e+01	-2.722206e-05
1.281014e+01	-2.753743e-05
1.288413e+01	-2.785646e-05
1.295855e+01	-2.817918e-05
1.303339e+01	-2.850565e-05
1.310867e+01	-2.883589e-05
1.318439e+01	-2.916996e-05
1.326054e+01	-2.950790e-05
1.333713e+01	-2.984976e-05
1.341417e+01	-3.019557e-05
1.349165e+01	-3.054540e-05
1.356958e+01	-3.089927e-05
1.364795e+01	-3.125725e-05
1.372678e+01	-3.161937e-05
1.380607e+01	-3.198569e-05
1.388581e+01	-3.235625e-05
1.396602e+01	-3.273111e-05
1.404668e+01	-3.311030e-05
1.412782e+01	-3.349389e-05
1.420942e+01	-3.388193e-05
1.429149e+01	-3.427446e-05
1.437404e+01	-3.467154e-05
1.445706e+01	-3.507321e-05
1.454057e+01	-3.547955e-05
1.462455e+01	-3.589058e-05
1.470902e+01	-3.630639e-05
1.479398e+01	-3.672700e-05
1.487943e+01	-3.715249e-05
1.496537e+01	-3.758291e-05
1.505181e+01	-3.801832e-05
1.513875e+01	-3.845877e-05
1.522619e+01	-3.890433e-05
1.531414e+01	-3.935504e-05
1.540259e+01	-3.981098e-05
1.549156e+01	-4.027220e-05
1.558103e+01	-4.073876e-05
1.567103e+01	-4.121073e-05
1.576155e+01	-4.168816e-05
1.585258e+01	-4.217113e-05
1.594415e+01	-4.265969e-05
1.603624e+01	-4.315391e-05
1.612886e+01	-4.365386e-05
1.622202e+01	-4.415960e-05
1.631572e+01	-4.467120e-05
1.640996e+01	-4.518873e-05
1.650474e+01	-4.571225e-05
1.660008e+01	-4.624183e-05
1.669596e+01	-4.677755e-05
1.679239e+01	-4.731948e-05
1.688938e+01	-4.786769e-05
1.698694e+01	-4.842225e-05
1.708505e+01	-4.898323e-05
1.718373e+01	-4.955071e-05
1.728299e+01	-5.012477e-05
1.738281e+01	-5.070547e-05
1.748322e+01	-5.129291e-05
1.758420e+01	-5.188714e-05
1.768576e+01	-5.248827e-05
1.778792e+01	-5.309636e-05
1.789066e+01	-5.371149e-05
1.799399e+01	-5.433375e-05
1.809793e+01	-5.496321e-05
1.820246e+01	-5.559997e-05
1.830760e+01	-5.624411e-05
1.841334e+01	-5.689571e-05
1.851969e+01	-5.755486e-05
1.862666e+01	-5.822164e-05
1.873425e+01	-5.889615e-05
1.884246e+01	-5.957848e-05
1.895129e+01	-6.026871e-05
1.906075e+01	-6.096693e-05
1.917085e+01	-6.167324e-05
1.928158e+01	-6.238774e-05
1.939295e+01	-6.311052e-05
1.950496e+01	-6.384166e-05
1.961762e+01	-6.458128e-05
1.973093e+01	-6.532947e-05
1.984490e+01	-6.608632e-05
1.995952e+01	-6.685194e-05
2.007480e+01	-6.762644e-05
2.019076e+01	-6.840990e-05
2.030738e+01	-6.920244e-05
2.042467e+01	-7.000417e-05
2.054264e+01	-7.081518e-05
2.066130e+01	-7.163559e-05
2.078064e+01	-7.246550e-05
2.090066e+01	-7.330502e-05
2.102139e+01	-7.415427e-05
2.114280e+01	-7.501336e-05
2.126492e+01	-7.588241e-05
2.138775e+01	-7.676152e-05
2.151128e+01	-7.765081e-05
2.163553e+01	-7.855041e-05
2.176050e+01	-7.946043e-05
2.188619e+01	-8.038100e-05
2.201260e+01	-8.131222e-05
2.213974e+01	-8.225424e-05
2.226762e+01	-8.320717e-05
2.239624e+01	-8.417114e-05
2.252560e+01	-8.514627e-05
2.265571e+01	-8.613271e-05
2.278656e+01	-8.713057e-05
2.291818e+01	-8.813999e-05
2.305055e+01	-8.916111e-05
2.318369e+01	-9.019405e-05
2.331760e+01	-9.123897e-05
2.345228e+01	-9.229598e-05
2.358774e+01	-9.336525e-05
2.372398e+01	-9.444690e-05
2.386101e+01	-9.554108e-05
2.399883e+01	-9.664794e-05
2.413745e+01	-9.776762e-05
2.427686e+01	-9.890027e-05
2.441709e+01	-1.000460e-04
2.455812e+01	-1.012051e-04
2.469997e+01	-1.023776e-04
2.484263e+01	-1.035636e-04
2.498612e+01	-1.047634e-04
2.513044e+01	-1.059771e-04
2.527559e+01	-1.072049e-04
2.542158e+01	-1.084469e-04
2.556842e+01	-1.097032e-04
2.571610e+01	-1.109742e-04
2.586463e+01	-1.122598e-04
2.601403e+01	-1.135604e-04
2.616428e+01	-1.148760e-04
2.631541e+01	-1.162068e-04
2.646740e+01	-1.175531e-04
2.662028e+01	-1.189150e-04
2.677404e+01	-1.202926e-04
2.692868e+01	-1.216862e-04
2.708422e+01	-1.230960e-04
2.724066e+01	-1.245220e-04
2.739800e+01	-1.259646e-04
2.755625e+01	-1.274240e-04
2.771541e+01	-1.289002e-04
2.787550e+01	-1.303935e-04
2.803650e+01	-1.319041e-04
2.819844e+01	-1.334322e-04
2.836131e+01	-1.349781e-04
2.852513e+01	-1.365418e-04
2.868989e+01	-1.381236e-04
2.885560e+01	-1.397238e-04
2.902227e+01	-1.413425e-04
2.918990e+01	-1.429800e-04
2.935850e+01	-1.446364e-04
2.952807e+01	-1.463121e-04
2.969863e+01	-1.480071e-04
2.987016e+01	-1.497218e-04
3.004269e+01	-1.514563e-04
3.021622e+01	-1.532109e-04
3.039075e+01	-1.549859e-04
3.056628e+01	-1.567814e-04
3.074283e+01	-1.585978e-04
3.092040e+01	-1.604351e-04
3.109900e+01	-1.622938e-04
3.127862e+01	-1.641739e-04
3.145929e+01	-1.660759e-04
3.164099e+01	-1.679999e-04
3.182375e+01	-1.699462e-04
3.200756e+01	-1.719150e-04
3.219244e+01	-1.739067e-04
3.237838e+01	-1.759214e-04
3.256540e+01	-1.779595e-04
3.275349e+01	-1.800211e-04
3.294268e+01	-1.821067e-04
3.313295e+01	-1.842164e-04
3.332433e+01	-1.863505e-04
3.351681e+01	-1.885094e-04
3.371040e+01	-1.906933e-04
3.390511e+01	-1.929025e-04
3.410094e+01	-1.951373e-04
3.429791e+01	-1.973979e-04
3.449601e+01	-1.996848e-04
3.469526e+01	-2.019981e-04
3.489566e+01	-2.043383e-04
3.509721e+01	-2.067055e-04
3.529993e+01	-2.091002e-04
3.550382e+01	-2.115227e-04
3.570889e+01	-2.139731e-04
3.591515e+01	-2.164520e-04
3.612259e+01	-2.189596e-04
3.633123e+01	-2.214963e-04
3.654108e+01	-2.240623e-04
3.675214e+01	-2.266580e-04
3.696442e+01	-2.292839e-04
3.717792e+01	-2.319401e-04
3.739266e+01	-2.346271e-04
3.760864e+01	-2.373453e-04
3.782587e+01	-2.400949e-04
3.804435e+01	-2.428764e-04
3.826409e+01	-2.456901e-04
3.848510e+01	-2.485364e-04
3.870739e+01	-2.514157e-04
3.893096e+01	-2.543283e-04
3.915583e+01	-2.572747e-04
3.938199e+01	-2.602552e-04
3.960946e+01	-2.632703e-04
3.983824e+01	-2.663202e-04
4.006834e+01	-2.694055e-04
4.029978e+01	-2.725266e-04
4.053255e+01	-2.756838e-04
4.076666e+01	-2.788775e-04
4.100213e+01	-2.821083e-04
4.123896e+01	-2.853765e-04
4.147715e+01	-2.886826e-04
4.171672e+01	-2.920269e-04
4.195767e+01	-2.954100e-04
4.220002e+01	-2.988323e-04
4.244377e+01	-3.022942e-04
4.268892e+01	-3.057963e-04
4.293549e+01	-3.093389e-04
4.318348e+01	-3.129225e-04
4.343291e+01	-3.165477e-04
4.368377e+01	-3.202148e-04
4.393609e+01	-3.239245e-04
4.418986e+01	-3.276771e-04
4.444510e+01	-3.314732e-04
4.470182e+01	-3.353132e-04
4.496001e+01	-3.391978e-04
4.521970e+01	-3.431273e-04
4.548089e+01	-3.471024e-04
4.574358e+01	-3.511235e-04
4.600779e+01	-3.551912e-04
4.627353e+01	-3.593060e-04
4.654081e+01	-3.634685e-04
4.680963e+01	-3.676792e-04
4.708000e+01	-3.719387e-04
4.735193e+01	-3.762475e-04
4.762543e+01	-3.806063e-04
4.790051e+01	-3.850155e-04
4.817719e+01	-3.894758e-04
4.845545e+01	-3.939878e-04
4.873533e+01	-3.985521e-04
4.901682e+01	-4.031692e-04
4.929994e+01	-4.078398e-04
4.958470e+01	-4.125645e-04
4.987110e+01	-4.173439e-04
5.015915e+01	-4.221787e-04
5.044887e+01	-4.270696e-04
5.074026e+01	-4.320170e-04
5.103333e+01	-4.370218e-04
5.132810e+01	-4.420846e-04
5.162457e+01	-4.472060e-04
5.192275e+01	-4.523867e-04
5.222265e+01	-4.576275e-04
5.252429e+01	-4.629289e-04
5.282767e+01	-4.682918e-04
5.313280e+01	-4.737168e-04
5.343969e+01	-4.792046e-04
5.374836e+01	-4.847560e-04
5.405880e+01	-4.903718e-04
5.437105e+01	-4.960525e-04
5.468509e+01	-5.017991e-04
5.500095e+01	-5.076122e-04
5.531863e+01	-5.134927e-04
5.563815e+01	-5.194413e-04
5.595951e+01	-5.254588e-04
5.628273e+01	-5.315460e-04
5.660782e+01	-5.377038e-04
5.693479e+01	-5.439328e-04
5.726364e+01	-5.502340e-04
5.759439e+01	-5.566082e-04
5.792705e+01	-5.630563e-04
5.826164e+01	-5.695790e-04
5.859815e+01	-5.761773e-04
5.893662e+01	-5.828520e-04
5.927703e+01	-5.896041e-04
5.961941e+01	-5.964343e-04
5.996377e+01	-6.033437e-04
6.031012e+01	-6.103331e-04
6.065847e+01	-6.174035e-04
6.100883e+01	-6.245558e-04
6.136121e+01	-6.317909e-04
6.171563e+01	-6.391098e-04
6.207210e+01	-6.465135e-04
6.243063e+01	-6.540030e-04
6.279122e+01	-6.615792e-04
6.315390e+01	-6.692432e-04
6.351868e+01	-6.769960e-04
6.388556e+01	-6.848386e-04
6.425456e+01	-6.927720e-04
6.462569e+01	-7.007973e-04
6.499897e+01	-7.089155e-04
6.537440e+01	-7.171278e-04
6.575200e+01	-7.254353e-04
6.613178e+01	-7.338389e-04
6.651375e+01	-7.423399e-04
6.689793e+01	-7.509394e-04
6.728433e+01	-7.596385e-04
6.767297e+01	-7.684383e-04
6.806384e+01	-7.773401e-04
6.845698e+01	-7.863450e-04
6.885238e+01	-7.954542e-04
6.925007e+01	-8.046689e-04
6.965005e+01	-8.139903e-04
7.005235e+01	-8.234197e-04
7.045697e+01	-8.329583e-04
7.086393e+01	-8.426074e-04
7.127323e+01	-8.523683e-04
7.168490e+01	-8.622423e-04
7.209895e+01	-8.722306e-04
7.251539e+01	-8.823346e-04
7.293424e+01	-8.925556e-04
7.335551e+01	-9.028950e-04
7.377920e+01	-9.133542e-04
7.420535e+01	-9.239346e-04
7.463396e+01	-9.346374e-04
7.506504e+01	-9.454643e-04
7.549861e+01	-9.564165e-04
7.593469e+01	-9.674957e-04
7.637328e+01	-9.787031e-04
7.681441e+01	-9.900403e-04
7.725809e+01	-1.001509e-03
7.770433e+01	-1.013110e-03
7.815315e+01	-1.024846e-03
7.860456e+01	-1.036718e-03
7.905857e+01	-1.048727e-03
7.951521e+01	-1.060875e-03
7.997449e+01	-1.073164e-03
8.043642e+01	-1.085596e-03
8.090102e+01	-1.098171e-03
8.136830e+01	-1.110892e-03
8.183828e+01	-1.123760e-03
8.231097e+01	-1.136778e-03
8.278640e+01	-1.149946e-03
8.326457e+01	-1.163266e-03
8.374550e+01	-1.176741e-03
8.422921e+01	-1.190372e-03
8.471572e+01	-1.204161e-03
8.520503e+01	-1.218110e-03
8.569717e+01	-1.232220e-03
8.619215e+01	-1.246493e-03
8.669000e+01	-1.260932e-03
8.719071e+01	-1.275538e-03
8.769432e+01	-1.290314e-03
8.820084e+01	-1.305260e-03
8.871029e+01	-1.320380e-03
8.922267e+01	-1.335674e-03
8.973802e+01	-1.351146e-03
9.025634e+01	-1.366797e-03
9.077766e+01	-1.382629e-03
9.130199e+01	-1.398645e-03
9.182935e+01	-1.414846e-03
9.235975e+01	-1.431234e-03
9.289321e+01	-1.447813e-03
9.342976e+01	-1.464583e-03
9.396941e+01	-1.481548e-03
9.451217e+01	-1.498709e-03
9.505807e+01	-1.516069e-03
9.560712e+01	-1.533630e-03
9.615934e+01	-1.551394e-03
9.671476e+01	-1.569364e-03
9.727338e+01	-1.587543e-03
9.783522e+01	-1.605931e-03
9.840032e+01	-1.624533e-03
9.896867e+01	-1.643350e-03
9.954031e+01	-1.662385e-03
1.001153e+02	-1.681640e-03
1.006935e+02	-1.701119e-03
1.012751e+02	-1.720823e-03
1.018601e+02	-1.740755e-03
1.024484e+02	-1.760918e-03
1.030402e+02	-1.781315e-03
1.036353e+02	-1.801947e-03
1.042339e+02	-1.822819e-03
1.048360e+02	-1.843932e-03
1.054415e+02	-1.865290e-03
1.060505e+02	-1.886895e-03
1.066631e+02	-1.908751e-03
1.072791e+02	-1.930859e-03
1.078988e+02	-1.953224e-03
1.085220e+02	-1.975847e-03
1.091488e+02	-1.998733e-03
1.097793e+02	-2.021883e-03
1.104133e+02	-2.045302e-03
1.110511e+02	-2.068991e-03
1.116925e+02	-2.092955e-03
1.123376e+02	-2.117197e-03
1.129865e+02	-2.141719e-03
1.136391e+02	-2.166525e-03
1.142955e+02	-2.191619e-03
1.149556e+02	-2.217003e-03
1.156196e+02	-2.242681e-03
1.162874e+02	-2.268656e-03
1.169591e+02	-2.294932e-03
1.176347e+02	-2.321512e-03
1.183141e+02	-2.348400e-03
1.189975e+02	-2.375600e-03
1.196848e+02	-2.403114e-03
1.203761e+02	-2.430947e-03
1.210714e+02	-2.459102e-03
1.217707e+02	-2.487583e-03
1.224740e+02	-2.516394e-03
1.231814e+02	-2.545539e-03
1.238929e+02	-2.575021e-03
1.246085e+02	-2.604844e-03
1.253283e+02	-2.635013e-03
1.260522e+02	-2.665531e-03
1.267802e+02	-2.696402e-03
1.275125e+02	-2.727631e-03
1.282490e+02	-2.759221e-03
1.289898e+02	-2.791177e-03
1.297348e+02	-2.823503e-03
1.304842e+02	-2.856203e-03
1.312378e+02	-2.889282e-03
1.319959e+02	-2.922744e-03
1.327583e+02	-2.956593e-03
1.335251e+02	-2.990834e-03
1.342963e+02	-3.025472e-03
1.350720e+02	-3.060510e-03
1.358522e+02	-3.095954e-03
1.366368e+02	-3.131809e-03
1.374260e+02	-3.168079e-03
1.382198e+02	-3.204768e-03
1.390182e+02	-3.241882e-03
1.398211e+02	-3.279426e-03
1.406287e+02	-3.317405e-03
1.414410e+02	-3.355823e-03
1.422579e+02	-3.394686e-03
1.430796e+02	-3.433998e-03
1.439060e+02	-3.473766e-03
1.447372e+02	-3.513994e-03
1.455732e+02	-3.554688e-03
1.464141e+02	-3.595853e-03
1.472597e+02	-3.637494e-03
1.481103e+02	-3.679618e-03
1.489658e+02	-3.722229e-03
1.498262e+02	-3.765333e-03
1.506916e+02	-3.808936e-03
1.515620e+02	-3.853044e-03
1.524374e+02	-3.897663e-03
1.533179e+02	-3.942798e-03
1.542034e+02	-3.988455e-03
1.550941e+02	-4.034641e-03
1.559899e+02	-4.081361e-03
1.568909e+02	-4.128622e-03
1.577971e+02	-4.176430e-03
1.587085e+02	-4.224792e-03
1.596252e+02	-4.273713e-03
1.605472e+02	-4.323200e-03
1.614745e+02	-4.373260e-03
1.624072e+02	-4.423900e-03
1.633453e+02	-4.475125e-03
1.642887e+02	-4.526944e-03
1.652377e+02	-4.579362e-03
1.661921e+02	-4.632387e-03
1.671520e+02	-4.686025e-03
1.681175e+02	-4.740284e-03
1.690885e+02	-4.795171e-03
1.700651e+02	-4.850693e-03
1.710474e+02	-4.906858e-03
1.720354e+02	-4.963673e-03
1.730291e+02	-5.021145e-03
1.740285e+02	-5.079282e-03
1.750337e+02	-5.138092e-03
1.760446e+02	-5.197582e-03
1.770615e+02	-5.257761e-03
1.780842e+02	-5.318636e-03
1.791128e+02	-5.380216e-03
1.801473e+02	-5.442508e-03
1.811878e+02	-5.505521e-03
1.822344e+02	-5.569262e-03
1.832870e+02	-5.633742e-03
1.843456e+02	-5.698967e-03
1.854104e+02	-5.764947e-03
1.864813e+02	-5.831691e-03
1.875584e+02	-5.899206e-03
1.886418e+02	-5.967503e-03
1.897313e+02	-6.036590e-03
1.908272e+02	-6.106476e-03
1.919294e+02	-6.177171e-03
1.930380e+02	-6.248683e-03
1.941530e+02	-6.321023e-03
1.952744e+02	-6.394200e-03
1.964023e+02	-6.468223e-03
1.975367e+02	-6.543102e-03
1.986777e+02	-6.618848e-03
1.998252e+02	-6.695470e-03
2.009794e+02	-6.772978e-03
2.021403e+02	-6.851382e-03
2.033078e+02	-6.930694e-03
2.044821e+02	-7.010923e-03
2.056632e+02	-7.092079e-03
2.068511e+02	-7.174175e-03
2.080459e+02	-7.257220e-03
2.092475e+02	-7.341225e-03
2.104561e+02	-7.426202e-03
2.116717e+02	-7.512162e-03
2.128943e+02	-7.599116e-03
2.141240e+02	-7.687076e-03
2.153608e+02	-7.776052e-03
2.166047e+02	-7.866058e-03
2.178558e+02	-7.957105e-03
2.191141e+02	-8.049204e-03
2.203797e+02	-8.142368e-03
2.216526e+02	-8.236610e-03
2.229329e+02	-8.331942e-03
2.242205e+02	-8.428375e-03
2.255156e+02	-8.525924e-03
2.268182e+02	-8.624601e-03
2.281283e+02	-8.724418e-03
2.294459e+02	-8.825390e-03
2.307712e+02	-8.927529e-03
2.321041e+02	-9.030848e-03
2.334447e+02	-9.135363e-03
2.347931e+02	-9.241085e-03
2.361493e+02	-9.348030e-03
2.375133e+02	-9.456211e-03
2.388851e+02	-9.565642e-03
2.402649e+02	-9.676339e-03
2.416527e+02	-9.788315e-03
2.430484e+02	-9.901585e-03
2.444523e+02	-1.001617e-02
2.458642e+02	-1.013207e-02
2.472843e+02	-1.024931e-02
2.487126e+02	-1.036791e-02
2.501492e+02	-1.048788e-02
2.515940e+02	-1.060924e-02
2.530472e+02	-1.073199e-02
2.545088e+02	-1.085617e-02
2.559789e+02	-1.098178e-02
2.574574e+02	-1.110885e-02
2.589444e+02	-1.123738e-02
2.604401e+02	-1.136740e-02
2.619444e+02	-1.149892e-02
2.634574e+02	-1.163195e-02
2.649791e+02	-1.176653e-02
2.665096e+02	-1.190266e-02
2.680489e+02	-1.204036e-02
2.695972e+02	-1.217966e-02
2.711544e+02	-1.232056e-02
2.727205e+02	-1.246309e-02
2.742958e+02	-1.260727e-02
2.758801e+02	-1.275311e-02
2.774736e+02	-1.290064e-02
2.790762e+02	-1.304987e-02
2.806882e+02	-1.320083e-02
2.823094e+02	-1.335353e-02
2.839400e+02	-1.350799e-02
2.855800e+02	-1.366424e-02
2.872295e+02	-1.382229e-02
2.888886e+02	-1.398216e-02
2.905572e+02	-1.414389e-02
2.922354e+02	-1.430748e-02
2.939234e+02	-1.447295e-02
2.956211e+02	-1.464034e-02
2.973286e+02	-1.480967e-02
2.990459e+02	-1.498094e-02
3.007732e+02	-1.515420e-02
3.025104e+02	-1.532945e-02
3.042577e+02	-1.550673e-02
3.060151e+02	-1.568605e-02
3.077826e+02	-1.586745e-02
3.095604e+02	-1.605093e-02
3.113484e+02	-1.623654e-02
3.131467e+02	-1.642429e-02
3.149554e+02	-1.661420e-02
3.167746e+02	-1.680631e-02
3.186043e+02	-1.700063e-02
3.204445e+02	-1.719719e-02
3.222954e+02	-1.739603e-02
3.241570e+02	-1.759715e-02
3.260293e+02	-1.780060e-02
3.279124e+02	-1.800640e-02
3.298064e+02	-1.821457e-02
3.317114e+02	-1.842514e-02
3.336273e+02	-1.863814e-02
3.355544e+02	-1.885360e-02
3.374925e+02	-1.907154e-02
3.394418e+02	-1.929200e-02
3.414024e+02	-1.951499e-02
3.433744e+02	-1.974056e-02
3.453577e+02	-1.996874e-02
3.473525e+02	-2.019954e-02
3.493588e+02	-2.043300e-02
3.513766e+02	-2.066916e-02
3.534062e+02	-2.090804e-02
3.554474e+02	-2.114967e-02
3.575005e+02	-2.139409e-02
3.595654e+02	-2.164133e-02
3.616422e+02	-2.189141e-02
3.637311e+02	-2.214438e-02
3.658320e+02	-2.240027e-02
3.679450e+02	-2.265910e-02
3.700702e+02	-2.292092e-02
3.722077e+02	-2.318575e-02
3.743576e+02	-2.345363e-02
3.765199e+02	-2.372460e-02
3.786946e+02	-2.399870e-02
3.808820e+02	-2.427595e-02
3.830819e+02	-2.455639e-02
3.852946e+02	-2.484007e-02
3.875200e+02	-2.512701e-02
3.897583e+02	-2.541726e-02
3.920096e+02	-2.571085e-02
3.942738e+02	-2.600782e-02
3.965511e+02	-2.630822e-02
3.988416e+02	-2.661207e-02
4.011452e+02	-2.691942e-02
4.034622e+02	-2.723030e-02
4.057926e+02	-2.754477e-02
4.081365e+02	-2.786285e-02
4.104938e+02	-2.818460e-02
4.128648e+02	-2.851005e-02
4.152495e+02	-2.883925e-02
4.176480e+02	-2.917223e-02
4.200603e+02	-2.950905e-02
4.224866e+02	-2.984974e-02
4.249268e+02	-3.019435e-02
4.273812e+02	-3.054293e-02
4.298497e+02	-3.089551e-02
4.323325e+02	-3.125215e-02
4.348297e+02	-3.161289e-02
4.373412e+02	-3.197778e-02
4.398673e+02	-3.234687e-02
4.424079e+02	-3.272020e-02
4.449633e+02	-3.309783e-02
4.475334e+02	-3.347979e-02
4.501183e+02	-3.386614e-02
4.527182e+02	-3.425694e-02
4.553330e+02	-3.465223e-02
4.579630e+02	-3.505206e-02
4.606082e+02	-3.545648e-02
4.632687e+02	-3.586555e-02
4.659445e+02	-3.627933e-02
4.686358e+02	-3.669785e-02
4.713426e+02	-3.712118e-02
4.740650e+02	-3.754938e-02
4.768032e+02	-3.798249e-02
4.795572e+02	-3.842057e-02
4.823271e+02	-3.886369e-02
4.851130e+02	-3.931189e-02
4.879150e+02	-3.976524e-02
4.907332e+02	-4.022379e-02
4.935676e+02	-4.068760e-02
4.964185e+02	-4.115674e-02
4.992858e+02	-4.163126e-02
5.021696e+02	-4.211123e-02
5.050701e+02	-4.259670e-02
5.079874e+02	-4.308774e-02
5.109215e+02	-4.358441e-02
5.138726e+02	-4.408678e-02
5.168407e+02	-4.459490e-02
5.198259e+02	-4.510886e-02
5.228284e+02	-4.562870e-02
5.258482e+02	-4.615451e-02
5.288855e+02	-4.668634e-02
5.319403e+02	-4.722427e-02
5.350128e+02	-4.776836e-02
5.381030e+02	-4.831868e-02
5.412111e+02	-4.887531e-02
5.443371e+02	-4.943831e-02
5.474812e+02	-5.000776e-02
5.506434e+02	-5.058374e-02
5.538239e+02	-5.116630e-02
5.570228e+02	-5.175554e-02
5.602401e+02	-5.235152e-02
5.634760e+02	-5.295432e-02
5.667306e+02	-5.356402e-02
5.700040e+02	-5.418070e-02
5.732964e+02	-5.480443e-02
5.766077e+02	-5.543529e-02
5.799382e+02	-5.607337e-02
5.832879e+02	-5.671875e-02
5.866569e+02	-5.737150e-02
5.900454e+02	-5.803172e-02
5.934535e+02	-5.869948e-02
5.968813e+02	-5.937487e-02
6.003288e+02	-6.005799e-02
6.037963e+02	-6.074890e-02
6.072838e+02	-6.144771e-02
6.107914e+02	-6.215449e-02
6.143194e+02	-6.286935e-02
6.178676e+02	-6.359237e-02
6.214364e+02	-6.432365e-02
6.250258e+02	-6.506326e-02
6.286359e+02	-6.581132e-02
6.322669e+02	-6.656792e-02
6.359189e+02	-6.733314e-02
6.395919e+02	-6.810709e-02
6.432862e+02	-6.888987e-02
6.470017e+02	-6.968157e-02
6.507388e+02	-7.048229e-02
6.544974e+02	-7.129214e-02
6.582778e+02	-7.211122e-02
6.620800e+02	-7.293963e-02
6.659041e+02	-7.377747e-02
6.697504e+02	-7.462486e-02
6.736188e+02	-7.548189e-02
6.775096e+02	-7.634868e-02
6.814229e+02	-7.722534e-02
6.853587e+02	-7.811197e-02
6.893173e+02	-7.900868e-02
6.932988e+02	-7.991560e-02
6.973033e+02	-8.083283e-02
7.013309e+02	-8.176048e-02
