Frequency(Hz)	Magnitude(dB)
1.000000e+01	-2.123724e+00
1.005776e+01	-2.143101e+00
1.011585e+01	-2.162526e+00
1.017428e+01	-2.182461e+00
1.023305e+01	-2.202239e+00
1.029215e+01	-2.222236e+00
1.035160e+01	-2.242265e+00
1.041139e+01	-2.262546e+00
1.047153e+01	-2.282783e+00
1.053201e+01	-2.303558e+00
1.059284e+01	-2.324117e+00
1.065403e+01	-2.345146e+00
1.071556e+01	-2.365814e+00
1.077746e+01	-2.386919e+00
1.083971e+01	-2.408070e+00
1.090232e+01	-2.429634e+00
1.096529e+01	-2.450898e+00
1.102862e+01	-2.472687e+00
1.109232e+01	-2.494254e+00
1.115639e+01	-2.516457e+00
1.122083e+01	-2.538452e+00
1.128564e+01	-2.560615e+00
1.135083e+01	-2.583022e+00
1.141639e+01	-2.605281e+00
1.148233e+01	-2.628174e+00
1.154865e+01	-2.650945e+00
1.161536e+01	-2.673898e+00
1.168245e+01	-2.696988e+00
1.174992e+01	-2.719999e+00
1.181779e+01	-2.743532e+00
1.188605e+01	-2.767044e+00
1.195470e+01	-2.790692e+00
1.202375e+01	-2.814377e+00
1.209320e+01	-2.838181e+00
1.216305e+01	-2.862616e+00
1.223330e+01	-2.886756e+00
1.230396e+01	-2.910785e+00
1.237503e+01	-2.935592e+00
1.244651e+01	-2.959935e+00
1.251840e+01	-2.984939e+00
1.259070e+01	-3.009905e+00
1.266343e+01	-3.034702e+00
1.273657e+01	-3.060160e+00
1.281014e+01	-3.085648e+00
1.288413e+01	-3.111185e+00
1.295855e+01	-3.136645e+00
1.303339e+01	-3.162437e+00
1.310867e+01	-3.188387e+00
1.318439e+01	-3.214625e+00
1.326054e+01	-3.240622e+00
1.333713e+01	-3.267407e+00
1.341417e+01	-3.293698e+00
1.349165e+01	-3.320192e+00
1.356958e+01	-3.347008e+00
1.364795e+01	-3.374344e+00
1.372678e+01	-3.401001e+00
1.380607e+01	-3.428328e+00
1.388581e+01	-3.455903e+00
1.396602e+01	-3.483276e+00
1.404668e+01	-3.510864e+00
1.412782e+01	-3.538861e+00
1.420942e+01	-3.566969e+00
1.429149e+01	-3.594986e+00
1.437404e+01	-3.623260e+00
1.445706e+01	-3.651671e+00
1.454057e+01	-3.679956e+00
1.462455e+01	-3.708664e+00
1.470902e+01	-3.737356e+00
1.479398e+01	-3.766619e+00
1.487943e+01	-3.795423e+00
1.496537e+01	-3.824761e+00
1.505181e+01	-3.854044e+00
1.513875e+01	-3.883418e+00
1.522619e+01	-3.913071e+00
1.531414e+01	-3.943092e+00
1.540259e+01	-3.972974e+00
1.549156e+01	-4.003040e+00
1.558103e+01	-4.033080e+00
1.567103e+01	-4.063678e+00
1.576155e+01	-4.094029e+00
1.585258e+01	-4.124656e+00
1.594415e+01	-4.155460e+00
1.603624e+01	-4.186224e+00
1.612886e+01	-4.217292e+00
1.622202e+01	-4.248302e+00
1.631572e+01	-4.279544e+00
1.640996e+01	-4.311195e+00
1.650474e+01	-4.342734e+00
1.660008e+01	-4.374284e+00
1.669596e+01	-4.406272e+00
1.679239e+01	-4.438114e+00
1.688938e+01	-4.470103e+00
1.698694e+01	-4.502211e+00
1.708505e+01	-4.534382e+00
1.718373e+01	-4.567413e+00
1.728299e+01	-4.599777e+00
1.738281e+01	-4.632331e+00
1.748322e+01	-4.665605e+00
1.758420e+01	-4.698502e+00
1.768576e+01	-4.731640e+00
1.778792e+01	-4.764826e+00
1.789066e+01	-4.798075e+00
1.799399e+01	-4.831949e+00
1.809793e+01	-4.865241e+00
1.820246e+01	-4.899174e+00
1.830760e+01	-4.933283e+00
1.841334e+01	-4.967229e+00
1.851969e+01	-5.001358e+00
1.862666e+01	-5.035296e+00
1.873425e+01	-5.069740e+00
1.884246e+01	-5.104164e+00
1.895129e+01	-5.138837e+00
1.906075e+01	-5.173764e+00
1.917085e+01	-5.208507e+00
1.928158e+01	-5.243460e+00
1.939295e+01	-5.278427e+00
1.950496e+01	-5.314242e+00
1.961762e+01	-5.349430e+00
1.973093e+01	-5.384877e+00
1.984490e+01	-5.420603e+00
1.995952e+01	-5.456263e+00
2.007480e+01	-5.492439e+00
2.019076e+01	-5.527828e+00
2.030738e+01	-5.564162e+00
2.042467e+01	-5.600088e+00
2.054264e+01	-5.636529e+00
2.066130e+01	-5.673144e+00
2.078064e+01	-5.709749e+00
2.090066e+01	-5.746174e+00
2.102139e+01	-5.783251e+00
2.114280e+01	-5.819913e+00
2.126492e+01	-5.856601e+00
2.138775e+01	-5.893743e+00
2.151128e+01	-5.930765e+00
2.163553e+01	-5.968317e+00
2.176050e+01	-6.005734e+00
2.188619e+01	-6.043397e+00
2.201260e+01	-6.080950e+00
2.213974e+01	-6.118964e+00
2.226762e+01	-6.156721e+00
2.239624e+01	-6.194739e+00
2.252560e+01	-6.232860e+00
2.265571e+01	-6.271095e+00
2.278656e+01	-6.309225e+00
2.291818e+01	-6.347259e+00
2.305055e+01	-6.386190e+00
2.318369e+01	-6.424471e+00
2.331760e+01	-6.463310e+00
2.345228e+01	-6.501701e+00
2.358774e+01	-6.541017e+00
2.372398e+01	-6.580181e+00
2.386101e+01	-6.619006e+00
2.399883e+01	-6.658299e+00
2.413745e+01	-6.697700e+00
2.427686e+01	-6.736523e+00
2.441709e+01	-6.776353e+00
2.455812e+01	-6.815542e+00
2.469997e+01	-6.855704e+00
2.484263e+01	-6.895195e+00
2.498612e+01	-6.935437e+00
2.513044e+01	-6.975129e+00
2.527559e+01	-7.015183e+00
2.542158e+01	-7.054766e+00
2.556842e+01	-7.095386e+00
2.571610e+01	-7.135541e+00
2.586463e+01	-7.175827e+00
2.601403e+01	-7.216593e+00
2.616428e+01	-7.257044e+00
2.631541e+01	-7.297909e+00
2.646740e+01	-7.338685e+00
2.662028e+01	-7.379062e+00
2.677404e+01	-7.420349e+00
2.692868e+01	-7.461724e+00
2.708422e+01	-7.502786e+00
2.724066e+01	-7.543784e+00
2.739800e+01	-7.584823e+00
2.755625e+01	-7.626121e+00
2.771541e+01	-7.667196e+00
2.787550e+01	-7.709326e+00
2.803650e+01	-7.750676e+00
2.819844e+01	-7.792026e+00
2.836131e+01	-7.834227e+00
2.852513e+01	-7.876391e+00
2.868989e+01	-7.917717e+00
2.885560e+01	-7.959752e+00
2.902227e+01	-8.001624e+00
2.918990e+01	-8.044327e+00
2.935850e+01	-8.086415e+00
2.952807e+01	-8.128435e+00
2.969863e+01	-8.171084e+00
2.987016e+01	-8.213226e+00
3.004269e+01	-8.255921e+00
3.021622e+01	-8.298088e+00
3.039075e+01	-8.341456e+00
3.056628e+01	-8.383959e+00
3.074283e+01	-8.426198e+00
3.092040e+01	-8.469979e+00
3.109900e+01	-8.512418e+00
3.127862e+01	-8.555608e+00
3.145929e+01	-8.598464e+00
3.164099e+01	-8.641495e+00
3.182375e+01	-8.684974e+00
3.200756e+01	-8.728802e+00
3.219244e+01	-8.771628e+00
3.237838e+01	-8.814679e+00
3.256540e+01	-8.858508e+00
3.275349e+01	-8.902398e+00
3.294268e+01	-8.945849e+00
3.313295e+01	-8.989357e+00
3.332433e+01	-9.033170e+00
3.351681e+01	-9.076568e+00
3.371040e+01	-9.120432e+00
3.390511e+01	-9.164297e+00
3.410094e+01	-9.208647e+00
3.429791e+01	-9.252661e+00
3.449601e+01	-9.296866e+00
3.469526e+01	-9.340675e+00
3.489566e+01	-9.385212e+00
3.509721e+01	-9.429222e+00
3.529993e+01	-9.474168e+00
3.550382e+01	-9.518418e+00
3.570889e+01	-9.562772e+00
3.591515e+01	-9.607088e+00
3.612259e+01	-9.651965e+00
3.633123e+01	-9.696196e+00
3.654108e+01	-9.741771e+00
3.675214e+01	-9.786269e+00
3.696442e+01	-9.830654e+00
3.717792e+01	-9.875812e+00
3.739266e+01	-9.920373e+00
3.760864e+01	-9.965365e+00
3.782587e+01	-1.001102e+01
3.804435e+01	-1.005520e+01
3.826409e+01	-1.010105e+01
3.848510e+01	-1.014555e+01
3.870739e+01	-1.019087e+01
3.893096e+01	-1.023648e+01
3.915583e+01	-1.028181e+01
3.938199e+01	-1.032639e+01
3.960946e+01	-1.037200e+01
3.983824e+01	-1.041782e+01
4.006834e+01	-1.046301e+01
4.029978e+01	-1.050880e+01
4.053255e+01	-1.055462e+01
4.076666e+01	-1.060070e+01
4.100213e+01	-1.064554e+01
4.123896e+01	-1.069243e+01
4.147715e+01	-1.073731e+01
4.171672e+01	-1.078303e+01
4.195767e+01	-1.082847e+01
4.220002e+01	-1.087486e+01
4.244377e+01	-1.092035e+01
4.268892e+01	-1.096695e+01
4.293549e+01	-1.101332e+01
4.318348e+01	-1.105920e+01
4.343291e+01	-1.110510e+01
4.368377e+01	-1.115169e+01
4.393609e+01	-1.119788e+01
4.418986e+01	-1.124366e+01
4.444510e+01	-1.129066e+01
4.470182e+01	-1.133605e+01
4.496001e+01	-1.138275e+01
4.521970e+01	-1.142904e+01
4.548089e+01	-1.147530e+01
4.574358e+01	-1.152258e+01
4.600779e+01	-1.156874e+01
4.627353e+01	-1.161545e+01
4.654081e+01	-1.166185e+01
4.680963e+01	-1.170871e+01
4.708000e+01	-1.175529e+01
4.735193e+01	-1.180174e+01
4.762543e+01	-1.184855e+01
4.790051e+01	-1.189545e+01
4.817719e+01	-1.194211e+01
4.845545e+01	-1.198867e+01
4.873533e+01	-1.203556e+01
4.901682e+01	-1.208331e+01
4.929994e+01	-1.212950e+01
4.958470e+01	-1.217672e+01
4.987110e+01	-1.222354e+01
5.015915e+01	-1.227007e+01
5.044887e+01	-1.231788e+01
5.074026e+01	-1.236477e+01
5.103333e+01	-1.241227e+01
5.132810e+01	-1.245932e+01
5.162457e+01	-1.250635e+01
5.192275e+01	-1.255351e+01
5.222265e+01	-1.260069e+01
5.252429e+01	-1.264845e+01
5.282767e+01	-1.269616e+01
5.313280e+01	-1.274326e+01
5.343969e+01	-1.279091e+01
5.374836e+01	-1.283846e+01
5.405880e+01	-1.288528e+01
5.437105e+01	-1.293248e+01
5.468509e+01	-1.298047e+01
5.500095e+01	-1.302798e+01
5.531863e+01	-1.307526e+01
5.563815e+01	-1.312231e+01
5.595951e+01	-1.317014e+01
5.628273e+01	-1.321795e+01
5.660782e+01	-1.326572e+01
5.693479e+01	-1.331352e+01
5.726364e+01	-1.336136e+01
5.759439e+01	-1.340818e+01
5.792705e+01	-1.345642e+01
5.826164e+01	-1.350417e+01
5.859815e+01	-1.355233e+01
5.893662e+01	-1.360060e+01
5.927703e+01	-1.364771e+01
5.961941e+01	-1.369553e+01
5.996377e+01	-1.374309e+01
6.031012e+01	-1.379166e+01
6.065847e+01	-1.383975e+01
6.100883e+01	-1.388804e+01
6.136121e+01	-1.393472e+01
6.171563e+01	-1.398335e+01
6.207210e+01	-1.403208e+01
6.243063e+01	-1.407933e+01
6.279122e+01	-1.412801e+01
6.315390e+01	-1.417516e+01
6.351868e+01	-1.422450e+01
6.388556e+01	-1.427143e+01
6.425456e+01	-1.432060e+01
6.462569e+01	-1.436839e+01
6.499897e+01	-1.441670e+01
6.537440e+01	-1.446521e+01
6.575200e+01	-1.451355e+01
6.613178e+01	-1.456142e+01
6.651375e+01	-1.460914e+01
6.689793e+01	-1.465690e+01
6.728433e+01	-1.470607e+01
6.767297e+01	-1.475446e+01
6.806384e+01	-1.480317e+01
6.845698e+01	-1.485100e+01
6.885238e+01	-1.489959e+01
6.925007e+01	-1.494766e+01
6.965005e+01	-1.499572e+01
7.005235e+01	-1.504496e+01
7.045697e+01	-1.509290e+01
7.086393e+01	-1.514192e+01
7.127323e+01	-1.519002e+01
7.168490e+01	-1.523941e+01
7.209895e+01	-1.528757e+01
7.251539e+01	-1.533622e+01
7.293424e+01	-1.538465e+01
7.335551e+01	-1.543372e+01
7.377920e+01	-1.548164e+01
7.420535e+01	-1.553018e+01
7.463396e+01	-1.557939e+01
7.506504e+01	-1.562860e+01
7.549861e+01	-1.567612e+01
7.593469e+01	-1.572562e+01
7.637328e+01	-1.577415e+01
7.681441e+01	-1.582230e+01
7.725809e+01	-1.587075e+01
7.770433e+01	-1.591972e+01
7.815315e+01	-1.596862e+01
7.860456e+01	-1.601712e+01
7.905857e+01	-1.606651e+01
7.951521e+01	-1.611561e+01
7.997449e+01	-1.616419e+01
8.043642e+01	-1.621338e+01
8.090102e+01	-1.626159e+01
8.136830e+01	-1.631039e+01
8.183828e+01	-1.635857e+01
8.231097e+01	-1.640861e+01
8.278640e+01	-1.645766e+01
8.326457e+01	-1.650621e+01
8.374550e+01	-1.655613e+01
8.422921e+01	-1.660372e+01
8.471572e+01	-1.665158e+01
8.520503e+01	-1.670099e+01
8.569717e+01	-1.675037e+01
8.619215e+01	-1.679934e+01
8.669000e+01	-1.684862e+01
8.719071e+01	-1.689910e+01
8.769432e+01	-1.694740e+01
8.820084e+01	-1.699576e+01
8.871029e+01	-1.704506e+01
8.922267e+01	-1.709329e+01
8.973802e+01	-1.714337e+01
9.025634e+01	-1.719209e+01
9.077766e+01	-1.724078e+01
9.130199e+01	-1.728999e+01
9.182935e+01	-1.733898e+01
9.235975e+01	-1.738940e+01
9.289321e+01	-1.743781e+01
9.342976e+01	-1.748696e+01
9.396941e+01	-1.753616e+01
9.451217e+01	-1.758468e+01
9.505807e+01	-1.763436e+01
9.560712e+01	-1.768304e+01
9.615934e+01	-1.773265e+01
9.671476e+01	-1.778145e+01
9.727338e+01	-1.783078e+01
9.783522e+01	-1.787960e+01
9.840032e+01	-1.792915e+01
9.896867e+01	-1.797812e+01
9.954031e+01	-1.802752e+01
1.001153e+02	-1.807819e+01
1.006935e+02	-1.812718e+01
1.012751e+02	-1.817571e+01
1.018601e+02	-1.822538e+01
1.024484e+02	-1.827355e+01
1.030402e+02	-1.832343e+01
1.036353e+02	-1.837263e+01
1.042339e+02	-1.842280e+01
1.048360e+02	-1.847059e+01
1.054415e+02	-1.852016e+01
1.060505e+02	-1.856832e+01
1.066631e+02	-1.861865e+01
1.072791e+02	-1.866841e+01
1.078988e+02	-1.871886e+01
1.085220e+02	-1.876744e+01
1.091488e+02	-1.881632e+01
1.097793e+02	-1.886670e+01
1.104133e+02	-1.891633e+01
1.110511e+02	-1.896564e+01
1.116925e+02	-1.901477e+01
1.123376e+02	-1.906415e+01
1.129865e+02	-1.911381e+01
1.136391e+02	-1.916164e+01
1.142955e+02	-1.921220e+01
1.149556e+02	-1.926164e+01
1.156196e+02	-1.931066e+01
1.162874e+02	-1.935995e+01
1.169591e+02	-1.941021e+01
1.176347e+02	-1.945962e+01
1.183141e+02	-1.950909e+01
1.189975e+02	-1.955777e+01
1.196848e+02	-1.960663e+01
1.203761e+02	-1.965803e+01
1.210714e+02	-1.970598e+01
1.217707e+02	-1.975542e+01
1.224740e+02	-1.980603e+01
1.231814e+02	-1.985601e+01
1.238929e+02	-1.990443e+01
1.246085e+02	-1.995476e+01
1.253283e+02	-2.000348e+01
1.260522e+02	-2.005291e+01
1.267802e+02	-2.010205e+01
1.275125e+02	-2.015170e+01
1.282490e+02	-2.020159e+01
1.289898e+02	-2.025329e+01
1.297348e+02	-2.030130e+01
1.304842e+02	-2.035070e+01
1.312378e+02	-2.040059e+01
1.319959e+02	-2.044967e+01
1.327583e+02	-2.049929e+01
1.335251e+02	-2.054878e+01
1.342963e+02	-2.059819e+01
1.350720e+02	-2.064801e+01
1.358522e+02	-2.069843e+01
1.366368e+02	-2.074711e+01
1.374260e+02	-2.079698e+01
1.382198e+02	-2.084744e+01
1.390182e+02	-2.089658e+01
1.398211e+02	-2.094613e+01
1.406287e+02	-2.099557e+01
1.414410e+02	-2.104566e+01
1.422579e+02	-2.109529e+01
1.430796e+02	-2.114476e+01
1.439060e+02	-2.119425e+01
1.447372e+02	-2.124419e+01
1.455732e+02	-2.129421e+01
1.464141e+02	-2.134375e+01
1.472597e+02	-2.139258e+01
1.481103e+02	-2.144222e+01
1.489658e+02	-2.149140e+01
1.498262e+02	-2.154004e+01
1.506916e+02	-2.159316e+01
1.515620e+02	-2.164010e+01
1.524374e+02	-2.169074e+01
1.533179e+02	-2.173935e+01
1.542034e+02	-2.179232e+01
1.550941e+02	-2.183964e+01
1.559899e+02	-2.189018e+01
1.568909e+02	-2.193800e+01
1.577971e+02	-2.199073e+01
1.587085e+02	-2.204015e+01
1.596252e+02	-2.208986e+01
1.605472e+02	-2.213868e+01
1.614745e+02	-2.218874e+01
1.624072e+02	-2.223759e+01
1.633453e+02	-2.228875e+01
1.642887e+02	-2.233765e+01
1.652377e+02	-2.238666e+01
1.661921e+02	-2.243565e+01
1.671520e+02	-2.248760e+01
1.681175e+02	-2.253720e+01
1.690885e+02	-2.258640e+01
1.700651e+02	-2.263683e+01
1.710474e+02	-2.268549e+01
1.720354e+02	-2.273487e+01
1.730291e+02	-2.278508e+01
1.740285e+02	-2.283462e+01
1.750337e+02	-2.288760e+01
1.760446e+02	-2.293682e+01
1.770615e+02	-2.298277e+01
1.780842e+02	-2.303663e+01
1.791128e+02	-2.308213e+01
1.801473e+02	-2.313538e+01
1.811878e+02	-2.318326e+01
1.822344e+02	-2.323339e+01
1.832870e+02	-2.328385e+01
1.843456e+02	-2.333387e+01
1.854104e+02	-2.338272e+01
1.864813e+02	-2.343351e+01
1.875584e+02	-2.348288e+01
1.886418e+02	-2.353187e+01
1.897313e+02	-2.358278e+01
1.908272e+02	-2.363077e+01
1.919294e+02	-2.368340e+01
1.930380e+02	-2.373166e+01
1.941530e+02	-2.378275e+01
1.952744e+02	-2.383334e+01
1.964023e+02	-2.387897e+01
1.975367e+02	-2.393210e+01
1.986777e+02	-2.398097e+01
1.998252e+02	-2.403121e+01
2.009794e+02	-2.407994e+01
2.021403e+02	-2.413113e+01
2.033078e+02	-2.418029e+01
2.044821e+02	-2.423021e+01
2.056632e+02	-2.427906e+01
2.068511e+02	-2.433060e+01
2.080459e+02	-2.438111e+01
2.092475e+02	-2.443126e+01
2.104561e+02	-2.448217e+01
2.116717e+02	-2.452878e+01
2.128943e+02	-2.457880e+01
2.141240e+02	-2.463187e+01
2.153608e+02	-2.468157e+01
2.166047e+02	-2.472769e+01
2.178558e+02	-2.477821e+01
2.191141e+02	-2.483007e+01
2.203797e+02	-2.488113e+01
2.216526e+02	-2.492773e+01
2.229329e+02	-2.497856e+01
2.242205e+02	-2.503019e+01
2.255156e+02	-2.507780e+01
2.268182e+02	-2.512509e+01
2.281283e+02	-2.517643e+01
2.294459e+02	-2.522756e+01
2.307712e+02	-2.527762e+01
2.321041e+02	-2.532740e+01
2.334447e+02	-2.537976e+01
2.347931e+02	-2.542457e+01
2.361493e+02	-2.547730e+01
2.375133e+02	-2.552815e+01
2.388851e+02	-2.557553e+01
2.402649e+02	-2.562891e+01
2.416527e+02	-2.567953e+01
2.430484e+02	-2.572526e+01
2.444523e+02	-2.577910e+01
2.458642e+02	-2.582780e+01
2.472843e+02	-2.587724e+01
2.487126e+02	-2.592796e+01
2.501492e+02	-2.597835e+01
2.515940e+02	-2.602563e+01
2.530472e+02	-2.607791e+01
2.545088e+02	-2.612865e+01
2.559789e+02	-2.617844e+01
2.574574e+02	-2.622900e+01
2.589444e+02	-2.627816e+01
2.604401e+02	-2.632878e+01
2.619444e+02	-2.637693e+01
2.634574e+02	-2.642596e+01
2.649791e+02	-2.647590e+01
2.665096e+02	-2.652681e+01
2.680489e+02	-2.657455e+01
2.695972e+02	-2.662581e+01
2.711544e+02	-2.667506e+01
2.727205e+02	-2.672384e+01
2.742958e+02	-2.677691e+01
2.758801e+02	-2.682452e+01
2.774736e+02	-2.687730e+01
2.790762e+02	-2.692688e+01
2.806882e+02	-2.697267e+01
2.823094e+02	-2.702863e+01
2.839400e+02	-2.707966e+01
2.855800e+02	-2.712855e+01
2.872295e+02	-2.717916e+01
2.888886e+02	-2.722466e+01
2.905572e+02	-2.727985e+01
2.922354e+02	-2.732845e+01
2.939234e+02	-2.737517e+01
2.956211e+02	-2.742319e+01
2.973286e+02	-2.747573e+01
2.990459e+02	-2.752699e+01
3.007732e+02	-2.757474e+01
3.025104e+02	-2.762702e+01
3.042577e+02	-2.767813e+01
3.060151e+02	-2.772530e+01
3.077826e+02	-2.777405e+01
3.095604e+02	-2.782653e+01
3.113484e+02	-2.787562e+01
3.131467e+02	-2.792829e+01
3.149554e+02	-2.797667e+01
3.167746e+02	-2.802692e+01
3.186043e+02	-2.807790e+01
3.204445e+02	-2.812919e+01
3.222954e+02	-2.817806e+01
3.241570e+02	-2.822745e+01
3.260293e+02	-2.827838e+01
3.279124e+02	-2.832649e+01
3.298064e+02	-2.837842e+01
3.317114e+02	-2.842941e+01
3.336273e+02	-2.847596e+01
3.355544e+02	-2.853002e+01
3.374925e+02	-2.858031e+01
3.394418e+02	-2.862838e+01
3.414024e+02	-2.867769e+01
3.433744e+02	-2.872480e+01
3.453577e+02	-2.877355e+01
3.473525e+02	-2.882496e+01
3.493588e+02	-2.887650e+01
3.513766e+02	-2.892615e+01
3.534062e+02	-2.897952e+01
3.554474e+02	-2.902874e+01
3.575005e+02	-2.907624e+01
3.595654e+02	-2.913017e+01
3.616422e+02	-2.917715e+01
3.637311e+02	-2.922948e+01
3.658320e+02	-2.928037e+01
3.679450e+02	-2.932472e+01
3.700702e+02	-2.937960e+01
3.722077e+02	-2.943030e+01
3.743576e+02	-2.947671e+01
3.765199e+02	-2.952994e+01
3.786946e+02	-2.957633e+01
3.808820e+02	-2.962930e+01
3.830819e+02	-2.967950e+01
3.852946e+02	-2.972928e+01
3.875200e+02	-2.978192e+01
3.897583e+02	-2.983011e+01
3.920096e+02	-2.988045e+01
3.942738e+02	-2.992528e+01
3.965511e+02	-2.998200e+01
3.988416e+02	-3.003362e+01
4.011452e+02	-3.008041e+01
4.034622e+02	-3.013255e+01
4.057926e+02	-3.018113e+01
4.081365e+02	-3.022622e+01
4.104938e+02	-3.028241e+01
4.128648e+02	-3.032966e+01
4.152495e+02	-3.037763e+01
4.176480e+02	-3.042931e+01
4.200603e+02	-3.047407e+01
4.224866e+02	-3.053304e+01
4.249268e+02	-3.057621e+01
4.273812e+02	-3.062954e+01
4.298497e+02	-3.068030e+01
4.323325e+02	-3.072776e+01
4.348297e+02	-3.078234e+01
4.373412e+02	-3.083083e+01
4.398673e+02	-3.088088e+01
4.424079e+02	-3.093192e+01
4.449633e+02	-3.098644e+01
4.475334e+02	-3.102890e+01
4.501183e+02	-3.108170e+01
4.527182e+02	-3.112304e+01
4.553330e+02	-3.118072e+01
4.579630e+02	-3.123477e+01
4.606082e+02	-3.128328e+01
4.632687e+02	-3.133424e+01
4.659445e+02	-3.138874e+01
4.686358e+02	-3.143172e+01
4.713426e+02	-3.148540e+01
4.740650e+02	-3.153262e+01
4.768032e+02	-3.158208e+01
4.795572e+02	-3.163674e+01
4.823271e+02	-3.168420e+01
4.851130e+02	-3.173458e+01
4.879150e+02	-3.178482e+01
4.907332e+02	-3.183272e+01
4.935676e+02	-3.188056e+01
4.964185e+02	-3.193502e+01
4.992858e+02	-3.198997e+01
5.021696e+02	-3.203170e+01
5.050701e+02	-3.208563e+01
5.079874e+02	-3.214086e+01
5.109215e+02	-3.218625e+01
5.138726e+02	-3.223651e+01
5.168407e+02	-3.228803e+01
5.198259e+02	-3.233720e+01
5.228284e+02	-3.238797e+01
5.258482e+02	-3.243622e+01
5.288855e+02	-3.248414e+01
5.319403e+02	-3.253788e+01
5.350128e+02	-3.258042e+01
5.381030e+02	-3.263533e+01
5.412111e+02	-3.268714e+01
5.443371e+02	-3.273889e+01
5.474812e+02	-3.278792e+01
5.506434e+02	-3.283598e+01
5.538239e+02	-3.288406e+01
5.570228e+02	-3.293473e+01
5.602401e+02	-3.299662e+01
5.634760e+02	-3.303549e+01
5.667306e+02	-3.309182e+01
5.700040e+02	-3.314302e+01
5.732964e+02	-3.318528e+01
5.766077e+02	-3.324195e+01
5.799382e+02	-3.328452e+01
5.832879e+02	-3.334157e+01
5.866569e+02	-3.339409e+01
5.900454e+02	-3.343685e+01
5.934535e+02	-3.348594e+01
5.968813e+02	-3.353966e+01
6.003288e+02	-3.359675e+01
6.037963e+02	-3.365156e+01
6.072838e+02	-3.369285e+01
6.107914e+02	-3.374617e+01
6.143194e+02	-3.378941e+01
6.178676e+02	-3.384343e+01
6.214364e+02	-3.389265e+01
6.250258e+02	-3.394237e+01
6.286359e+02	-3.399546e+01
6.322669e+02	-3.404263e+01
6.359189e+02	-3.409980e+01
6.395919e+02	-3.414517e+01
6.432862e+02	-3.420274e+01
6.470017e+02	-3.424239e+01
6.507388e+02	-3.428626e+01
6.544974e+02	-3.434533e+01
6.582778e+02	-3.440185e+01
6.620800e+02	-3.444581e+01
6.659041e+02	-3.450358e+01
6.697504e+02	-3.455245e+01
6.736188e+02	-3.460291e+01
6.775096e+02	-3.465017e+01
6.814229e+02	-3.470419e+01
6.853587e+02	-3.475140e+01
6.893173e+02	-3.480693e+01
6.932988e+02	-3.485450e+01
6.973033e+02	-3.490112e+01
7.013309e+02	-3.495169e+01
