Frequency(Hz)	Magnitude(dB)
1.000000e+01	-1.590480e-05
1.005776e+01	-1.608906e-05
1.011585e+01	-1.627546e-05
1.017428e+01	-1.646401e-05
1.023305e+01	-1.665475e-05
1.029215e+01	-1.684770e-05
1.035160e+01	-1.704289e-05
1.041139e+01	-1.724033e-05
1.047153e+01	-1.744007e-05
1.053201e+01	-1.764211e-05
1.059284e+01	-1.784650e-05
1.065403e+01	-1.805326e-05
1.071556e+01	-1.826241e-05
1.077746e+01	-1.847399e-05
1.083971e+01	-1.868801e-05
1.090232e+01	-1.890452e-05
1.096529e+01	-1.912353e-05
1.102862e+01	-1.934508e-05
1.109232e+01	-1.956920e-05
1.115639e+01	-1.979591e-05
1.122083e+01	-2.002525e-05
1.128564e+01	-2.025725e-05
1.135083e+01	-2.049194e-05
1.141639e+01	-2.072934e-05
1.148233e+01	-2.096950e-05
1.154865e+01	-2.121243e-05
1.161536e+01	-2.145818e-05
1.168245e+01	-2.170678e-05
1.174992e+01	-2.195826e-05
1.181779e+01	-2.221265e-05
1.188605e+01	-2.246999e-05
1.195470e+01	-2.273031e-05
1.202375e+01	-2.299365e-05
1.209320e+01	-2.326004e-05
1.216305e+01	-2.352951e-05
1.223330e+01	-2.380210e-05
1.230396e+01	-2.407786e-05
1.237503e+01	-2.435681e-05
1.244651e+01	-2.463898e-05
1.251840e+01	-2.492443e-05
1.259070e+01	-2.521319e-05
1.266343e+01	-2.550529e-05
1.273657e+01	-2.580078e-05
1.281014e+01	-2.609968e-05
1.288413e+01	-2.640206e-05
1.295855e+01	-2.670793e-05
1.303339e+01	-2.701735e-05
1.310867e+01	-2.733035e-05
1.318439e+01	-2.764698e-05
1.326054e+01	-2.796728e-05
1.333713e+01	-2.829128e-05
1.341417e+01	-2.861904e-05
1.349165e+01	-2.895060e-05
1.356958e+01	-2.928600e-05
1.364795e+01	-2.962529e-05
1.372678e+01	-2.996850e-05
1.380607e+01	-3.031570e-05
1.388581e+01	-3.066691e-05
1.396602e+01	-3.102219e-05
1.404668e+01	-3.138159e-05
1.412782e+01	-3.174516e-05
1.420942e+01	-3.211293e-05
1.429149e+01	-3.248497e-05
1.437404e+01	-3.286131e-05
1.445706e+01	-3.324202e-05
1.454057e+01	-3.362714e-05
1.462455e+01	-3.401671e-05
1.470902e+01	-3.441081e-05
1.479398e+01	-3.480946e-05
1.487943e+01	-3.521274e-05
1.496537e+01	-3.562069e-05
1.505181e+01	-3.603336e-05
1.513875e+01	-3.645082e-05
1.522619e+01	-3.687311e-05
1.531414e+01	-3.730029e-05
1.540259e+01	-3.773242e-05
1.549156e+01	-3.816956e-05
1.558103e+01	-3.861177e-05
1.567103e+01	-3.905909e-05
1.576155e+01	-3.951160e-05
1.585258e+01	-3.996935e-05
1.594415e+01	-4.043240e-05
1.603624e+01	-4.090082e-05
1.612886e+01	-4.137467e-05
1.622202e+01	-4.185400e-05
1.631572e+01	-4.233889e-05
1.640996e+01	-4.282940e-05
1.650474e+01	-4.332558e-05
1.660008e+01	-4.382752e-05
1.669596e+01	-4.433527e-05
1.679239e+01	-4.484891e-05
1.688938e+01	-4.536849e-05
1.698694e+01	-4.589409e-05
1.708505e+01	-4.642579e-05
1.718373e+01	-4.696364e-05
1.728299e+01	-4.750772e-05
1.738281e+01	-4.805811e-05
1.748322e+01	-4.861488e-05
1.758420e+01	-4.917809e-05
1.768576e+01	-4.974783e-05
1.778792e+01	-5.032417e-05
1.789066e+01	-5.090718e-05
1.799399e+01	-5.149695e-05
1.809793e+01	-5.209356e-05
1.820246e+01	-5.269707e-05
1.830760e+01	-5.330758e-05
1.841334e+01	-5.392516e-05
1.851969e+01	-5.454989e-05
1.862666e+01	-5.518186e-05
1.873425e+01	-5.582116e-05
1.884246e+01	-5.646786e-05
1.895129e+01	-5.712205e-05
1.906075e+01	-5.778382e-05
1.917085e+01	-5.845326e-05
1.928158e+01	-5.913045e-05
1.939295e+01	-5.981549e-05
1.950496e+01	-6.050846e-05
1.961762e+01	-6.120946e-05
1.973093e+01	-6.191859e-05
1.984490e+01	-6.263593e-05
1.995952e+01	-6.336158e-05
2.007480e+01	-6.409563e-05
2.019076e+01	-6.483819e-05
2.030738e+01	-6.558935e-05
2.042467e+01	-6.634922e-05
2.054264e+01	-6.711789e-05
2.066130e+01	-6.789546e-05
2.078064e+01	-6.868204e-05
2.090066e+01	-6.947774e-05
2.102139e+01	-7.028265e-05
2.114280e+01	-7.109689e-05
2.126492e+01	-7.192056e-05
2.138775e+01	-7.275377e-05
2.151128e+01	-7.359664e-05
2.163553e+01	-7.444927e-05
2.176050e+01	-7.531177e-05
2.188619e+01	-7.618428e-05
2.201260e+01	-7.706688e-05
2.213974e+01	-7.795972e-05
2.226762e+01	-7.886289e-05
2.239624e+01	-7.977653e-05
2.252560e+01	-8.070076e-05
2.265571e+01	-8.163569e-05
2.278656e+01	-8.258145e-05
2.291818e+01	-8.353817e-05
2.305055e+01	-8.450598e-05
2.318369e+01	-8.548499e-05
2.331760e+01	-8.647535e-05
2.345228e+01	-8.747718e-05
2.358774e+01	-8.849062e-05
2.372398e+01	-8.951580e-05
2.386101e+01	-9.055285e-05
2.399883e+01	-9.160192e-05
2.413745e+01	-9.266314e-05
2.427686e+01	-9.373666e-05
2.441709e+01	-9.482261e-05
2.455812e+01	-9.592115e-05
2.469997e+01	-9.703241e-05
2.484263e+01	-9.815654e-05
2.498612e+01	-9.929370e-05
2.513044e+01	-1.004440e-04
2.527559e+01	-1.016077e-04
2.542158e+01	-1.027848e-04
2.556842e+01	-1.039756e-04
2.571610e+01	-1.051802e-04
2.586463e+01	-1.063987e-04
2.601403e+01	-1.076314e-04
2.616428e+01	-1.088783e-04
2.631541e+01	-1.101396e-04
2.646740e+01	-1.114156e-04
2.662028e+01	-1.127064e-04
2.677404e+01	-1.140121e-04
2.692868e+01	-1.153330e-04
2.708422e+01	-1.166691e-04
2.724066e+01	-1.180207e-04
2.739800e+01	-1.193880e-04
2.755625e+01	-1.207711e-04
2.771541e+01	-1.221703e-04
2.787550e+01	-1.235856e-04
2.803650e+01	-1.250174e-04
2.819844e+01	-1.264657e-04
2.836131e+01	-1.279309e-04
2.852513e+01	-1.294129e-04
2.868989e+01	-1.309122e-04
2.885560e+01	-1.324288e-04
2.902227e+01	-1.339630e-04
2.918990e+01	-1.355150e-04
2.935850e+01	-1.370850e-04
2.952807e+01	-1.386731e-04
2.969863e+01	-1.402797e-04
2.987016e+01	-1.419048e-04
3.004269e+01	-1.435488e-04
3.021622e+01	-1.452118e-04
3.039075e+01	-1.468941e-04
3.056628e+01	-1.485959e-04
3.074283e+01	-1.503174e-04
3.092040e+01	-1.520588e-04
3.109900e+01	-1.538204e-04
3.127862e+01	-1.556024e-04
3.145929e+01	-1.574051e-04
3.164099e+01	-1.592287e-04
3.182375e+01	-1.610733e-04
3.200756e+01	-1.629394e-04
3.219244e+01	-1.648270e-04
3.237838e+01	-1.667366e-04
3.256540e+01	-1.686682e-04
3.275349e+01	-1.706223e-04
3.294268e+01	-1.725989e-04
3.313295e+01	-1.745985e-04
3.332433e+01	-1.766212e-04
3.351681e+01	-1.786674e-04
3.371040e+01	-1.807373e-04
3.390511e+01	-1.828311e-04
3.410094e+01	-1.849492e-04
3.429791e+01	-1.870918e-04
3.449601e+01	-1.892593e-04
3.469526e+01	-1.914519e-04
3.489566e+01	-1.936699e-04
3.509721e+01	-1.959135e-04
3.529993e+01	-1.981832e-04
3.550382e+01	-2.004791e-04
3.570889e+01	-2.028017e-04
3.591515e+01	-2.051512e-04
3.612259e+01	-2.075278e-04
3.633123e+01	-2.099320e-04
3.654108e+01	-2.123641e-04
3.675214e+01	-2.148243e-04
3.696442e+01	-2.173131e-04
3.717792e+01	-2.198306e-04
3.739266e+01	-2.223774e-04
3.760864e+01	-2.249536e-04
3.782587e+01	-2.275597e-04
3.804435e+01	-2.301960e-04
3.826409e+01	-2.328628e-04
3.848510e+01	-2.355605e-04
3.870739e+01	-2.382894e-04
3.893096e+01	-2.410500e-04
3.915583e+01	-2.438426e-04
3.938199e+01	-2.466675e-04
3.960946e+01	-2.495251e-04
3.983824e+01	-2.524158e-04
4.006834e+01	-2.553401e-04
4.029978e+01	-2.582982e-04
4.053255e+01	-2.612905e-04
4.076666e+01	-2.643176e-04
4.100213e+01	-2.673797e-04
4.123896e+01	-2.704772e-04
4.147715e+01	-2.736107e-04
4.171672e+01	-2.767804e-04
4.195767e+01	-2.799869e-04
4.220002e+01	-2.832305e-04
4.244377e+01	-2.865117e-04
4.268892e+01	-2.898309e-04
4.293549e+01	-2.931886e-04
4.318348e+01	-2.965851e-04
4.343291e+01	-3.000211e-04
4.368377e+01	-3.034968e-04
4.393609e+01	-3.070127e-04
4.418986e+01	-3.105694e-04
4.444510e+01	-3.141673e-04
4.470182e+01	-3.178069e-04
4.496001e+01	-3.214887e-04
4.521970e+01	-3.252131e-04
4.548089e+01	-3.289806e-04
4.574358e+01	-3.327918e-04
4.600779e+01	-3.366471e-04
4.627353e+01	-3.405471e-04
4.654081e+01	-3.444923e-04
4.680963e+01	-3.484832e-04
4.708000e+01	-3.525203e-04
4.735193e+01	-3.566042e-04
4.762543e+01	-3.607353e-04
4.790051e+01	-3.649144e-04
4.817719e+01	-3.691418e-04
4.845545e+01	-3.734183e-04
4.873533e+01	-3.777442e-04
4.901682e+01	-3.821203e-04
4.929994e+01	-3.865471e-04
4.958470e+01	-3.910251e-04
4.987110e+01	-3.955551e-04
5.015915e+01	-4.001375e-04
5.044887e+01	-4.047730e-04
5.074026e+01	-4.094621e-04
5.103333e+01	-4.142057e-04
5.132810e+01	-4.190041e-04
5.162457e+01	-4.238582e-04
5.192275e+01	-4.287684e-04
5.222265e+01	-4.337356e-04
5.252429e+01	-4.387603e-04
5.282767e+01	-4.438432e-04
5.313280e+01	-4.489849e-04
5.343969e+01	-4.541863e-04
5.374836e+01	-4.594479e-04
5.405880e+01	-4.647704e-04
5.437105e+01	-4.701546e-04
5.468509e+01	-4.756012e-04
5.500095e+01	-4.811109e-04
5.531863e+01	-4.866844e-04
5.563815e+01	-4.923224e-04
5.595951e+01	-4.980258e-04
5.628273e+01	-5.037952e-04
5.660782e+01	-5.096315e-04
5.693479e+01	-5.155353e-04
5.726364e+01	-5.215076e-04
5.759439e+01	-5.275491e-04
5.792705e+01	-5.336605e-04
5.826164e+01	-5.398427e-04
5.859815e+01	-5.460965e-04
5.893662e+01	-5.524228e-04
5.927703e+01	-5.588224e-04
5.961941e+01	-5.652961e-04
5.996377e+01	-5.718447e-04
6.031012e+01	-5.784693e-04
6.065847e+01	-5.851705e-04
6.100883e+01	-5.919494e-04
6.136121e+01	-5.988069e-04
6.171563e+01	-6.057437e-04
6.207210e+01	-6.127609e-04
6.243063e+01	-6.198594e-04
6.279122e+01	-6.270402e-04
6.315390e+01	-6.343041e-04
6.351868e+01	-6.416521e-04
6.388556e+01	-6.490853e-04
6.425456e+01	-6.566045e-04
6.462569e+01	-6.642109e-04
6.499897e+01	-6.719054e-04
6.537440e+01	-6.796890e-04
6.575200e+01	-6.875627e-04
6.613178e+01	-6.955277e-04
6.651375e+01	-7.035849e-04
6.689793e+01	-7.117355e-04
6.728433e+01	-7.199804e-04
6.767297e+01	-7.283209e-04
6.806384e+01	-7.367580e-04
6.845698e+01	-7.452928e-04
6.885238e+01	-7.539265e-04
6.925007e+01	-7.626602e-04
6.965005e+01	-7.714950e-04
7.005235e+01	-7.804322e-04
7.045697e+01	-7.894729e-04
7.086393e+01	-7.986183e-04
7.127323e+01	-8.078697e-04
7.168490e+01	-8.172282e-04
7.209895e+01	-8.266951e-04
7.251539e+01	-8.362716e-04
7.293424e+01	-8.459591e-04
7.335551e+01	-8.557588e-04
7.377920e+01	-8.656720e-04
7.420535e+01	-8.757001e-04
7.463396e+01	-8.858443e-04
7.506504e+01	-8.961060e-04
7.549861e+01	-9.064865e-04
7.593469e+01	-9.169873e-04
7.637328e+01	-9.276097e-04
7.681441e+01	-9.383552e-04
7.725809e+01	-9.492251e-04
7.770433e+01	-9.602209e-04
7.815315e+01	-9.713441e-04
7.860456e+01	-9.825961e-04
7.905857e+01	-9.939784e-04
7.951521e+01	-1.005493e-03
7.997449e+01	-1.017140e-03
8.043642e+01	-1.028923e-03
8.090102e+01	-1.040842e-03
8.136830e+01	-1.052898e-03
8.183828e+01	-1.065095e-03
8.231097e+01	-1.077433e-03
8.278640e+01	-1.089914e-03
8.326457e+01	-1.102539e-03
8.374550e+01	-1.115311e-03
8.422921e+01	-1.128230e-03
8.471572e+01	-1.141299e-03
8.520503e+01	-1.154520e-03
8.569717e+01	-1.167893e-03
8.619215e+01	-1.181422e-03
8.669000e+01	-1.195107e-03
8.719071e+01	-1.208951e-03
8.769432e+01	-1.222955e-03
8.820084e+01	-1.237121e-03
8.871029e+01	-1.251452e-03
8.922267e+01	-1.265948e-03
8.973802e+01	-1.280612e-03
9.025634e+01	-1.295446e-03
9.077766e+01	-1.310452e-03
9.130199e+01	-1.325631e-03
9.182935e+01	-1.340987e-03
9.235975e+01	-1.356520e-03
9.289321e+01	-1.372233e-03
9.342976e+01	-1.388128e-03
9.396941e+01	-1.404208e-03
9.451217e+01	-1.420473e-03
9.505807e+01	-1.436927e-03
9.560712e+01	-1.453571e-03
9.615934e+01	-1.470409e-03
9.671476e+01	-1.487441e-03
9.727338e+01	-1.504670e-03
9.783522e+01	-1.522099e-03
9.840032e+01	-1.539730e-03
9.896867e+01	-1.557565e-03
9.954031e+01	-1.575606e-03
1.001153e+02	-1.593857e-03
1.006935e+02	-1.612319e-03
1.012751e+02	-1.630994e-03
1.018601e+02	-1.649886e-03
1.024484e+02	-1.668997e-03
1.030402e+02	-1.688329e-03
1.036353e+02	-1.707885e-03
1.042339e+02	-1.727667e-03
1.048360e+02	-1.747679e-03
1.054415e+02	-1.767922e-03
1.060505e+02	-1.788400e-03
1.066631e+02	-1.809114e-03
1.072791e+02	-1.830069e-03
1.078988e+02	-1.851266e-03
1.085220e+02	-1.872709e-03
1.091488e+02	-1.894400e-03
1.097793e+02	-1.916343e-03
1.104133e+02	-1.938539e-03
1.110511e+02	-1.960992e-03
1.116925e+02	-1.983706e-03
1.123376e+02	-2.006682e-03
1.129865e+02	-2.029925e-03
1.136391e+02	-2.053436e-03
1.142955e+02	-2.077220e-03
1.149556e+02	-2.101280e-03
1.156196e+02	-2.125618e-03
1.162874e+02	-2.150237e-03
1.169591e+02	-2.175142e-03
1.176347e+02	-2.200335e-03
1.183141e+02	-2.225820e-03
1.189975e+02	-2.251600e-03
1.196848e+02	-2.277679e-03
1.203761e+02	-2.304059e-03
1.210714e+02	-2.330745e-03
1.217707e+02	-2.357740e-03
1.224740e+02	-2.385048e-03
1.231814e+02	-2.412672e-03
1.238929e+02	-2.440615e-03
1.246085e+02	-2.468882e-03
1.253283e+02	-2.497477e-03
1.260522e+02	-2.526402e-03
1.267802e+02	-2.555663e-03
1.275125e+02	-2.585262e-03
1.282490e+02	-2.615204e-03
1.289898e+02	-2.645492e-03
1.297348e+02	-2.676132e-03
1.304842e+02	-2.707126e-03
1.312378e+02	-2.738478e-03
1.319959e+02	-2.770194e-03
1.327583e+02	-2.802277e-03
1.335251e+02	-2.834732e-03
1.342963e+02	-2.867562e-03
1.350720e+02	-2.900772e-03
1.358522e+02	-2.934367e-03
1.366368e+02	-2.968351e-03
1.374260e+02	-3.002728e-03
1.382198e+02	-3.037504e-03
1.390182e+02	-3.072681e-03
1.398211e+02	-3.108266e-03
1.406287e+02	-3.144263e-03
1.414410e+02	-3.180677e-03
1.422579e+02	-3.217512e-03
1.430796e+02	-3.254774e-03
1.439060e+02	-3.292467e-03
1.447372e+02	-3.330597e-03
1.455732e+02	-3.369168e-03
1.464141e+02	-3.408185e-03
1.472597e+02	-3.447654e-03
1.481103e+02	-3.487580e-03
1.489658e+02	-3.527968e-03
1.498262e+02	-3.568824e-03
1.506916e+02	-3.610152e-03
1.515620e+02	-3.651959e-03
1.524374e+02	-3.694250e-03
1.533179e+02	-3.737030e-03
1.542034e+02	-3.780306e-03
1.550941e+02	-3.824082e-03
1.559899e+02	-3.868366e-03
1.568909e+02	-3.913161e-03
1.577971e+02	-3.958476e-03
1.587085e+02	-4.004315e-03
1.596252e+02	-4.050684e-03
1.605472e+02	-4.097590e-03
1.614745e+02	-4.145039e-03
1.624072e+02	-4.193037e-03
1.633453e+02	-4.241591e-03
1.642887e+02	-4.290706e-03
1.652377e+02	-4.340390e-03
1.661921e+02	-4.390649e-03
1.671520e+02	-4.441490e-03
1.681175e+02	-4.492919e-03
1.690885e+02	-4.544944e-03
1.700651e+02	-4.597570e-03
1.710474e+02	-4.650806e-03
1.720354e+02	-4.704657e-03
1.730291e+02	-4.759132e-03
1.740285e+02	-4.814237e-03
1.750337e+02	-4.869980e-03
1.760446e+02	-4.926368e-03
1.770615e+02	-4.983408e-03
1.780842e+02	-5.041109e-03
1.791128e+02	-5.099477e-03
1.801473e+02	-5.158520e-03
1.811878e+02	-5.218247e-03
1.822344e+02	-5.278665e-03
1.832870e+02	-5.339782e-03
1.843456e+02	-5.401606e-03
1.854104e+02	-5.464146e-03
1.864813e+02	-5.527409e-03
1.875584e+02	-5.591404e-03
1.886418e+02	-5.656140e-03
1.897313e+02	-5.721624e-03
1.908272e+02	-5.787866e-03
1.919294e+02	-5.854875e-03
1.930380e+02	-5.922659e-03
1.941530e+02	-5.991227e-03
1.952744e+02	-6.060588e-03
1.964023e+02	-6.130752e-03
1.975367e+02	-6.201728e-03
1.986777e+02	-6.273524e-03
1.998252e+02	-6.346151e-03
2.009794e+02	-6.419619e-03
2.021403e+02	-6.493936e-03
2.033078e+02	-6.569113e-03
2.044821e+02	-6.645159e-03
2.056632e+02	-6.722085e-03
2.068511e+02	-6.799901e-03
2.080459e+02	-6.878617e-03
2.092475e+02	-6.958244e-03
2.104561e+02	-7.038791e-03
2.116717e+02	-7.120271e-03
2.128943e+02	-7.202692e-03
2.141240e+02	-7.286067e-03
2.153608e+02	-7.370406e-03
2.166047e+02	-7.455721e-03
2.178558e+02	-7.542022e-03
2.191141e+02	-7.629321e-03
2.203797e+02	-7.717630e-03
2.216526e+02	-7.806960e-03
2.229329e+02	-7.897323e-03
2.242205e+02	-7.988731e-03
2.255156e+02	-8.081196e-03
2.268182e+02	-8.174731e-03
2.281283e+02	-8.269347e-03
2.294459e+02	-8.365057e-03
2.307712e+02	-8.461873e-03
2.321041e+02	-8.559809e-03
2.334447e+02	-8.658878e-03
2.347931e+02	-8.759092e-03
2.361493e+02	-8.860464e-03
2.375133e+02	-8.963009e-03
2.388851e+02	-9.066739e-03
2.402649e+02	-9.171668e-03
2.416527e+02	-9.277810e-03
2.430484e+02	-9.385179e-03
2.444523e+02	-9.493790e-03
2.458642e+02	-9.603656e-03
2.472843e+02	-9.714792e-03
2.487126e+02	-9.827212e-03
2.501492e+02	-9.940932e-03
2.515940e+02	-1.005597e-02
2.530472e+02	-1.017233e-02
2.545088e+02	-1.029004e-02
2.559789e+02	-1.040911e-02
2.574574e+02	-1.052955e-02
2.589444e+02	-1.065139e-02
2.604401e+02	-1.077464e-02
2.619444e+02	-1.089931e-02
2.634574e+02	-1.102542e-02
2.649791e+02	-1.115299e-02
2.665096e+02	-1.128203e-02
2.680489e+02	-1.141256e-02
2.695972e+02	-1.154460e-02
2.711544e+02	-1.167817e-02
2.727205e+02	-1.181328e-02
2.742958e+02	-1.194995e-02
2.758801e+02	-1.208820e-02
2.774736e+02	-1.222805e-02
2.790762e+02	-1.236951e-02
2.806882e+02	-1.251261e-02
2.823094e+02	-1.265735e-02
2.839400e+02	-1.280378e-02
2.855800e+02	-1.295189e-02
2.872295e+02	-1.310171e-02
2.888886e+02	-1.325327e-02
2.905572e+02	-1.340657e-02
2.922354e+02	-1.356165e-02
2.939234e+02	-1.371851e-02
2.956211e+02	-1.387719e-02
2.973286e+02	-1.403770e-02
2.990459e+02	-1.420007e-02
3.007732e+02	-1.436430e-02
3.025104e+02	-1.453044e-02
3.042577e+02	-1.469849e-02
3.060151e+02	-1.486848e-02
3.077826e+02	-1.504044e-02
3.095604e+02	-1.521438e-02
3.113484e+02	-1.539033e-02
3.131467e+02	-1.556831e-02
3.149554e+02	-1.574835e-02
3.167746e+02	-1.593046e-02
3.186043e+02	-1.611467e-02
3.204445e+02	-1.630101e-02
3.222954e+02	-1.648951e-02
3.241570e+02	-1.668017e-02
3.260293e+02	-1.687304e-02
3.279124e+02	-1.706813e-02
3.298064e+02	-1.726548e-02
3.317114e+02	-1.746510e-02
3.336273e+02	-1.766702e-02
3.355544e+02	-1.787128e-02
3.374925e+02	-1.807789e-02
3.394418e+02	-1.828688e-02
3.414024e+02	-1.849829e-02
3.433744e+02	-1.871213e-02
3.453577e+02	-1.892844e-02
3.473525e+02	-1.914725e-02
3.493588e+02	-1.936858e-02
3.513766e+02	-1.959246e-02
3.534062e+02	-1.981892e-02
3.554474e+02	-2.004800e-02
3.575005e+02	-2.027972e-02
3.595654e+02	-2.051411e-02
3.616422e+02	-2.075120e-02
3.637311e+02	-2.099102e-02
3.658320e+02	-2.123361e-02
3.679450e+02	-2.147900e-02
3.700702e+02	-2.172721e-02
3.722077e+02	-2.197829e-02
3.743576e+02	-2.223226e-02
3.765199e+02	-2.248916e-02
3.786946e+02	-2.274902e-02
3.808820e+02	-2.301187e-02
3.830819e+02	-2.327775e-02
3.852946e+02	-2.354669e-02
3.875200e+02	-2.381874e-02
3.897583e+02	-2.409392e-02
3.920096e+02	-2.437227e-02
3.942738e+02	-2.465382e-02
3.965511e+02	-2.493862e-02
3.988416e+02	-2.522670e-02
4.011452e+02	-2.551809e-02
4.034622e+02	-2.581285e-02
4.057926e+02	-2.611099e-02
4.081365e+02	-2.641257e-02
4.104938e+02	-2.671762e-02
4.128648e+02	-2.702619e-02
4.152495e+02	-2.733830e-02
4.176480e+02	-2.765401e-02
4.200603e+02	-2.797336e-02
4.224866e+02	-2.829638e-02
4.249268e+02	-2.862311e-02
4.273812e+02	-2.895361e-02
4.298497e+02	-2.928791e-02
4.323325e+02	-2.962606e-02
4.348297e+02	-2.996810e-02
4.373412e+02	-3.031407e-02
4.398673e+02	-3.066402e-02
4.424079e+02	-3.101800e-02
4.449633e+02	-3.137605e-02
4.475334e+02	-3.173822e-02
4.501183e+02	-3.210455e-02
4.527182e+02	-3.247510e-02
4.553330e+02	-3.284990e-02
4.579630e+02	-3.322901e-02
4.606082e+02	-3.361249e-02
4.632687e+02	-3.400037e-02
4.659445e+02	-3.439271e-02
4.686358e+02	-3.478956e-02
4.713426e+02	-3.519096e-02
4.740650e+02	-3.559698e-02
4.768032e+02	-3.600767e-02
4.795572e+02	-3.642308e-02
4.823271e+02	-3.684325e-02
4.851130e+02	-3.726825e-02
4.879150e+02	-3.769814e-02
4.907332e+02	-3.813296e-02
4.935676e+02	-3.857277e-02
4.964185e+02	-3.901763e-02
4.992858e+02	-3.946760e-02
5.021696e+02	-3.992274e-02
5.050701e+02	-4.038310e-02
5.079874e+02	-4.084874e-02
5.109215e+02	-4.131973e-02
5.138726e+02	-4.179612e-02
5.168407e+02	-4.227798e-02
5.198259e+02	-4.276536e-02
5.228284e+02	-4.325834e-02
5.258482e+02	-4.375696e-02
5.288855e+02	-4.426131e-02
5.319403e+02	-4.477144e-02
5.350128e+02	-4.528742e-02
5.381030e+02	-4.580931e-02
5.412111e+02	-4.633719e-02
5.443371e+02	-4.687111e-02
5.474812e+02	-4.741116e-02
5.506434e+02	-4.795739e-02
5.538239e+02	-4.850988e-02
5.570228e+02	-4.906870e-02
5.602401e+02	-4.963392e-02
5.634760e+02	-5.020561e-02
5.667306e+02	-5.078385e-02
5.700040e+02	-5.136871e-02
5.732964e+02	-5.196026e-02
5.766077e+02	-5.255859e-02
5.799382e+02	-5.316376e-02
5.832879e+02	-5.377586e-02
5.866569e+02	-5.439496e-02
5.900454e+02	-5.502114e-02
5.934535e+02	-5.565448e-02
5.968813e+02	-5.629507e-02
6.003288e+02	-5.694298e-02
6.037963e+02	-5.759830e-02
6.072838e+02	-5.826111e-02
6.107914e+02	-5.893150e-02
6.143194e+02	-5.960954e-02
6.178676e+02	-6.029533e-02
6.214364e+02	-6.098896e-02
6.250258e+02	-6.169051e-02
6.286359e+02	-6.240007e-02
6.322669e+02	-6.311774e-02
6.359189e+02	-6.384359e-02
6.395919e+02	-6.457773e-02
6.432862e+02	-6.532025e-02
6.470017e+02	-6.607124e-02
6.507388e+02	-6.683080e-02
6.544974e+02	-6.759903e-02
6.582778e+02	-6.837601e-02
6.620800e+02	-6.916186e-02
6.659041e+02	-6.995666e-02
6.697504e+02	-7.076052e-02
6.736188e+02	-7.157354e-02
6.775096e+02	-7.239583e-02
6.814229e+02	-7.322748e-02
6.853587e+02	-7.406860e-02
6.893173e+02	-7.491931e-02
6.932988e+02	-7.577969e-02
6.973033e+02	-7.664987e-02
7.013309e+02	-7.752996e-02
