Frequency(Hz)	Magnitude(dB)
1.000000e+01	-2.124716e+00
1.005776e+01	-2.144279e+00
1.011585e+01	-2.163623e+00
1.017428e+01	-2.183245e+00
1.023305e+01	-2.203253e+00
1.029215e+01	-2.223332e+00
1.035160e+01	-2.243416e+00
1.041139e+01	-2.263534e+00
1.047153e+01	-2.283981e+00
1.053201e+01	-2.304706e+00
1.059284e+01	-2.325148e+00
1.065403e+01	-2.345894e+00
1.071556e+01	-2.366811e+00
1.077746e+01	-2.387966e+00
1.083971e+01	-2.409247e+00
1.090232e+01	-2.430741e+00
1.096529e+01	-2.452097e+00
1.102862e+01	-2.473634e+00
1.109232e+01	-2.495656e+00
1.115639e+01	-2.517590e+00
1.122083e+01	-2.539652e+00
1.128564e+01	-2.561836e+00
1.135083e+01	-2.583911e+00
1.141639e+01	-2.606776e+00
1.148233e+01	-2.629097e+00
1.154865e+01	-2.652089e+00
1.161536e+01	-2.675228e+00
1.168245e+01	-2.697809e+00
1.174992e+01	-2.721258e+00
1.181779e+01	-2.744770e+00
1.188605e+01	-2.768214e+00
1.195470e+01	-2.791875e+00
1.202375e+01	-2.815905e+00
1.209320e+01	-2.839699e+00
1.216305e+01	-2.863598e+00
1.223330e+01	-2.887939e+00
1.230396e+01	-2.912271e+00
1.237503e+01	-2.936801e+00
1.244651e+01	-2.961568e+00
1.251840e+01	-2.986218e+00
1.259070e+01	-3.011353e+00
1.266343e+01	-3.036106e+00
1.273657e+01	-3.061660e+00
1.281014e+01	-3.086986e+00
1.288413e+01	-3.112559e+00
1.295855e+01	-3.138018e+00
1.303339e+01	-3.163943e+00
1.310867e+01	-3.189816e+00
1.318439e+01	-3.215901e+00
1.326054e+01	-3.242291e+00
1.333713e+01	-3.268468e+00
1.341417e+01	-3.294952e+00
1.349165e+01	-3.321761e+00
1.356958e+01	-3.348671e+00
1.364795e+01	-3.375562e+00
1.372678e+01	-3.402676e+00
1.380607e+01	-3.429973e+00
1.388581e+01	-3.457179e+00
1.396602e+01	-3.484610e+00
1.404668e+01	-3.512545e+00
1.412782e+01	-3.540368e+00
1.420942e+01	-3.568294e+00
1.429149e+01	-3.596414e+00
1.437404e+01	-3.624747e+00
1.445706e+01	-3.653031e+00
1.454057e+01	-3.681718e+00
1.462455e+01	-3.710095e+00
1.470902e+01	-3.739051e+00
1.479398e+01	-3.768132e+00
1.487943e+01	-3.797027e+00
1.496537e+01	-3.826284e+00
1.505181e+01	-3.855740e+00
1.513875e+01	-3.885203e+00
1.522619e+01	-3.914861e+00
1.531414e+01	-3.944686e+00
1.540259e+01	-3.974586e+00
1.549156e+01	-4.004783e+00
1.558103e+01	-4.034877e+00
1.567103e+01	-4.064950e+00
1.576155e+01	-4.095464e+00
1.585258e+01	-4.126095e+00
1.594415e+01	-4.157099e+00
1.603624e+01	-4.187976e+00
1.612886e+01	-4.218957e+00
1.622202e+01	-4.250069e+00
1.631572e+01	-4.281053e+00
1.640996e+01	-4.312815e+00
1.650474e+01	-4.344058e+00
1.660008e+01	-4.375819e+00
1.669596e+01	-4.407802e+00
1.679239e+01	-4.439573e+00
1.688938e+01	-4.471700e+00
1.698694e+01	-4.503837e+00
1.708505e+01	-4.536594e+00
1.718373e+01	-4.568705e+00
1.728299e+01	-4.601672e+00
1.738281e+01	-4.634326e+00
1.748322e+01	-4.667402e+00
1.758420e+01	-4.700355e+00
1.768576e+01	-4.733412e+00
1.778792e+01	-4.766595e+00
1.789066e+01	-4.800152e+00
1.799399e+01	-4.833677e+00
1.809793e+01	-4.867050e+00
1.820246e+01	-4.900905e+00
1.830760e+01	-4.934964e+00
1.841334e+01	-4.968938e+00
1.851969e+01	-5.003048e+00
1.862666e+01	-5.037336e+00
1.873425e+01	-5.071771e+00
1.884246e+01	-5.106306e+00
1.895129e+01	-5.141173e+00
1.906075e+01	-5.175697e+00
1.917085e+01	-5.210640e+00
1.928158e+01	-5.245873e+00
1.939295e+01	-5.280819e+00
1.950496e+01	-5.315891e+00
1.961762e+01	-5.351179e+00
1.973093e+01	-5.387003e+00
1.984490e+01	-5.422583e+00
1.995952e+01	-5.458101e+00
2.007480e+01	-5.493856e+00
2.019076e+01	-5.529918e+00
2.030738e+01	-5.566060e+00
2.042467e+01	-5.602043e+00
2.054264e+01	-5.638403e+00
2.066130e+01	-5.675005e+00
2.078064e+01	-5.711559e+00
2.090066e+01	-5.748209e+00
2.102139e+01	-5.784950e+00
2.114280e+01	-5.821659e+00
2.126492e+01	-5.859036e+00
2.138775e+01	-5.896008e+00
2.151128e+01	-5.933431e+00
2.163553e+01	-5.970405e+00
2.176050e+01	-6.007953e+00
2.188619e+01	-6.045334e+00
2.201260e+01	-6.083083e+00
2.213974e+01	-6.121039e+00
2.226762e+01	-6.158415e+00
2.239624e+01	-6.196734e+00
2.252560e+01	-6.234647e+00
2.265571e+01	-6.272959e+00
2.278656e+01	-6.311330e+00
2.291818e+01	-6.349348e+00
2.305055e+01	-6.388025e+00
2.318369e+01	-6.426554e+00
2.331760e+01	-6.465396e+00
2.345228e+01	-6.504246e+00
2.358774e+01	-6.542910e+00
2.372398e+01	-6.582034e+00
2.386101e+01	-6.621172e+00
2.399883e+01	-6.660161e+00
2.413745e+01	-6.699595e+00
2.427686e+01	-6.738892e+00
2.441709e+01	-6.778199e+00
2.455812e+01	-6.818142e+00
2.469997e+01	-6.857213e+00
2.484263e+01	-6.897479e+00
2.498612e+01	-6.937152e+00
2.513044e+01	-6.977468e+00
2.527559e+01	-7.017118e+00
2.542158e+01	-7.057288e+00
2.556842e+01	-7.097768e+00
2.571610e+01	-7.137675e+00
2.586463e+01	-7.178353e+00
2.601403e+01	-7.218878e+00
2.616428e+01	-7.258987e+00
2.631541e+01	-7.299896e+00
2.646740e+01	-7.341215e+00
2.662028e+01	-7.381616e+00
2.677404e+01	-7.422082e+00
2.692868e+01	-7.463484e+00
2.708422e+01	-7.504592e+00
2.724066e+01	-7.545416e+00
2.739800e+01	-7.586792e+00
2.755625e+01	-7.628395e+00
2.771541e+01	-7.669750e+00
2.787550e+01	-7.711260e+00
2.803650e+01	-7.752951e+00
2.819844e+01	-7.794749e+00
2.836131e+01	-7.836756e+00
2.852513e+01	-7.878358e+00
2.868989e+01	-7.920433e+00
2.885560e+01	-7.961828e+00
2.902227e+01	-8.004043e+00
2.918990e+01	-8.046519e+00
2.935850e+01	-8.088681e+00
2.952807e+01	-8.130431e+00
2.969863e+01	-8.173611e+00
2.987016e+01	-8.215436e+00
3.004269e+01	-8.258147e+00
3.021622e+01	-8.300984e+00
3.039075e+01	-8.343295e+00
3.056628e+01	-8.385798e+00
3.074283e+01	-8.429265e+00
3.092040e+01	-8.471628e+00
3.109900e+01	-8.514605e+00
3.127862e+01	-8.557522e+00
3.145929e+01	-8.600666e+00
3.164099e+01	-8.644143e+00
3.182375e+01	-8.687492e+00
3.200756e+01	-8.730676e+00
3.219244e+01	-8.774091e+00
3.237838e+01	-8.817337e+00
3.256540e+01	-8.860883e+00
3.275349e+01	-8.904898e+00
3.294268e+01	-8.948060e+00
3.313295e+01	-8.991653e+00
3.332433e+01	-9.035684e+00
3.351681e+01	-9.079503e+00
3.371040e+01	-9.123460e+00
3.390511e+01	-9.166878e+00
3.410094e+01	-9.210825e+00
3.429791e+01	-9.255159e+00
3.449601e+01	-9.298570e+00
3.469526e+01	-9.343421e+00
3.489566e+01	-9.387505e+00
3.509721e+01	-9.431815e+00
3.529993e+01	-9.476438e+00
3.550382e+01	-9.520812e+00
3.570889e+01	-9.564858e+00
3.591515e+01	-9.609452e+00
3.612259e+01	-9.654160e+00
3.633123e+01	-9.698779e+00
3.654108e+01	-9.743592e+00
3.675214e+01	-9.788208e+00
3.696442e+01	-9.833058e+00
3.717792e+01	-9.877580e+00
3.739266e+01	-9.923000e+00
3.760864e+01	-9.967989e+00
3.782587e+01	-1.001351e+01
3.804435e+01	-1.005734e+01
3.826409e+01	-1.010305e+01
3.848510e+01	-1.014812e+01
3.870739e+01	-1.019404e+01
3.893096e+01	-1.023791e+01
3.915583e+01	-1.028393e+01
3.938199e+01	-1.032900e+01
3.960946e+01	-1.037488e+01
3.983824e+01	-1.041988e+01
4.006834e+01	-1.046573e+01
4.029978e+01	-1.051146e+01
4.053255e+01	-1.055675e+01
4.076666e+01	-1.060284e+01
4.100213e+01	-1.064878e+01
4.123896e+01	-1.069390e+01
4.147715e+01	-1.074001e+01
4.171672e+01	-1.078552e+01
4.195767e+01	-1.083149e+01
4.220002e+01	-1.087734e+01
4.244377e+01	-1.092328e+01
4.268892e+01	-1.096907e+01
4.293549e+01	-1.101511e+01
4.318348e+01	-1.106184e+01
4.343291e+01	-1.110762e+01
4.368377e+01	-1.115369e+01
4.393609e+01	-1.119977e+01
4.418986e+01	-1.124554e+01
4.444510e+01	-1.129255e+01
4.470182e+01	-1.133908e+01
4.496001e+01	-1.138533e+01
4.521970e+01	-1.143134e+01
4.548089e+01	-1.147832e+01
4.574358e+01	-1.152514e+01
4.600779e+01	-1.157142e+01
4.627353e+01	-1.161705e+01
4.654081e+01	-1.166448e+01
4.680963e+01	-1.171089e+01
4.708000e+01	-1.175700e+01
4.735193e+01	-1.180429e+01
4.762543e+01	-1.185139e+01
4.790051e+01	-1.189778e+01
4.817719e+01	-1.194481e+01
4.845545e+01	-1.199195e+01
4.873533e+01	-1.203865e+01
4.901682e+01	-1.208509e+01
4.929994e+01	-1.213194e+01
4.958470e+01	-1.217885e+01
4.987110e+01	-1.222658e+01
5.015915e+01	-1.227263e+01
5.044887e+01	-1.232010e+01
5.074026e+01	-1.236721e+01
5.103333e+01	-1.241449e+01
5.132810e+01	-1.246229e+01
5.162457e+01	-1.250856e+01
5.192275e+01	-1.255610e+01
5.222265e+01	-1.260335e+01
5.252429e+01	-1.265031e+01
5.282767e+01	-1.269793e+01
5.313280e+01	-1.274529e+01
5.343969e+01	-1.279270e+01
5.374836e+01	-1.283974e+01
5.405880e+01	-1.288763e+01
5.437105e+01	-1.293427e+01
5.468509e+01	-1.298205e+01
5.500095e+01	-1.303029e+01
5.531863e+01	-1.307773e+01
5.563815e+01	-1.312585e+01
5.595951e+01	-1.317361e+01
5.628273e+01	-1.322078e+01
5.660782e+01	-1.326786e+01
5.693479e+01	-1.331640e+01
5.726364e+01	-1.336287e+01
5.759439e+01	-1.341093e+01
5.792705e+01	-1.345864e+01
5.826164e+01	-1.350683e+01
5.859815e+01	-1.355404e+01
5.893662e+01	-1.360316e+01
5.927703e+01	-1.364987e+01
5.961941e+01	-1.369821e+01
5.996377e+01	-1.374622e+01
6.031012e+01	-1.379369e+01
6.065847e+01	-1.384262e+01
6.100883e+01	-1.389031e+01
6.136121e+01	-1.393818e+01
6.171563e+01	-1.398570e+01
6.207210e+01	-1.403415e+01
6.243063e+01	-1.408233e+01
6.279122e+01	-1.412930e+01
6.315390e+01	-1.417866e+01
6.351868e+01	-1.422610e+01
6.388556e+01	-1.427407e+01
6.425456e+01	-1.432339e+01
6.462569e+01	-1.437050e+01
6.499897e+01	-1.441936e+01
6.537440e+01	-1.446746e+01
6.575200e+01	-1.451514e+01
6.613178e+01	-1.456293e+01
6.651375e+01	-1.461304e+01
6.689793e+01	-1.466061e+01
6.728433e+01	-1.470919e+01
6.767297e+01	-1.475716e+01
6.806384e+01	-1.480556e+01
6.845698e+01	-1.485329e+01
6.885238e+01	-1.490270e+01
6.925007e+01	-1.495011e+01
6.965005e+01	-1.499949e+01
7.005235e+01	-1.504737e+01
7.045697e+01	-1.509581e+01
7.086393e+01	-1.514418e+01
7.127323e+01	-1.519290e+01
7.168490e+01	-1.524186e+01
7.209895e+01	-1.528907e+01
7.251539e+01	-1.533943e+01
7.293424e+01	-1.538780e+01
7.335551e+01	-1.543572e+01
7.377920e+01	-1.548440e+01
7.420535e+01	-1.553281e+01
7.463396e+01	-1.558169e+01
7.506504e+01	-1.562938e+01
7.549861e+01	-1.567925e+01
7.593469e+01	-1.572772e+01
7.637328e+01	-1.577670e+01
7.681441e+01	-1.582623e+01
7.725809e+01	-1.587444e+01
7.770433e+01	-1.592299e+01
7.815315e+01	-1.597182e+01
7.860456e+01	-1.601943e+01
7.905857e+01	-1.606862e+01
7.951521e+01	-1.611744e+01
7.997449e+01	-1.616715e+01
8.043642e+01	-1.621514e+01
8.090102e+01	-1.626376e+01
8.136830e+01	-1.631254e+01
8.183828e+01	-1.636182e+01
8.231097e+01	-1.641024e+01
8.278640e+01	-1.645905e+01
8.326457e+01	-1.650837e+01
8.374550e+01	-1.655706e+01
8.422921e+01	-1.660588e+01
8.471572e+01	-1.665568e+01
8.520503e+01	-1.670453e+01
8.569717e+01	-1.675379e+01
8.619215e+01	-1.680258e+01
8.669000e+01	-1.685080e+01
8.719071e+01	-1.690070e+01
8.769432e+01	-1.694983e+01
8.820084e+01	-1.699864e+01
8.871029e+01	-1.704737e+01
8.922267e+01	-1.709594e+01
8.973802e+01	-1.714546e+01
9.025634e+01	-1.719440e+01
9.077766e+01	-1.724370e+01
9.130199e+01	-1.729237e+01
9.182935e+01	-1.734274e+01
9.235975e+01	-1.739010e+01
9.289321e+01	-1.744077e+01
9.342976e+01	-1.748978e+01
9.396941e+01	-1.753715e+01
9.451217e+01	-1.758728e+01
9.505807e+01	-1.763585e+01
9.560712e+01	-1.768652e+01
9.615934e+01	-1.773522e+01
9.671476e+01	-1.778353e+01
9.727338e+01	-1.783321e+01
9.783522e+01	-1.788337e+01
9.840032e+01	-1.793119e+01
9.896867e+01	-1.798046e+01
9.954031e+01	-1.802943e+01
1.001153e+02	-1.808004e+01
1.006935e+02	-1.812869e+01
1.012751e+02	-1.817720e+01
1.018601e+02	-1.822753e+01
1.024484e+02	-1.827655e+01
1.030402e+02	-1.832575e+01
1.036353e+02	-1.837433e+01
1.042339e+02	-1.842546e+01
1.048360e+02	-1.847352e+01
1.054415e+02	-1.852351e+01
1.060505e+02	-1.857237e+01
1.066631e+02	-1.862198e+01
1.072791e+02	-1.867148e+01
1.078988e+02	-1.872141e+01
1.085220e+02	-1.877063e+01
1.091488e+02	-1.881900e+01
1.097793e+02	-1.886845e+01
1.104133e+02	-1.891786e+01
1.110511e+02	-1.896803e+01
1.116925e+02	-1.901637e+01
1.123376e+02	-1.906621e+01
1.129865e+02	-1.911699e+01
1.136391e+02	-1.916554e+01
1.142955e+02	-1.921509e+01
1.149556e+02	-1.926407e+01
1.156196e+02	-1.931335e+01
1.162874e+02	-1.936358e+01
1.169591e+02	-1.941246e+01
1.176347e+02	-1.946157e+01
1.183141e+02	-1.951293e+01
1.189975e+02	-1.956065e+01
1.196848e+02	-1.960894e+01
1.203761e+02	-1.965976e+01
1.210714e+02	-1.970895e+01
1.217707e+02	-1.975903e+01
1.224740e+02	-1.980881e+01
1.231814e+02	-1.985708e+01
1.238929e+02	-1.990804e+01
1.246085e+02	-1.995712e+01
1.253283e+02	-2.000496e+01
1.260522e+02	-2.005524e+01
1.267802e+02	-2.010497e+01
1.275125e+02	-2.015389e+01
1.282490e+02	-2.020438e+01
1.289898e+02	-2.025389e+01
1.297348e+02	-2.030273e+01
1.304842e+02	-2.035377e+01
1.312378e+02	-2.040340e+01
1.319959e+02	-2.045329e+01
1.327583e+02	-2.050091e+01
1.335251e+02	-2.055087e+01
1.342963e+02	-2.060092e+01
1.350720e+02	-2.064963e+01
1.358522e+02	-2.070126e+01
1.366368e+02	-2.074900e+01
1.374260e+02	-2.079736e+01
1.382198e+02	-2.084798e+01
1.390182e+02	-2.089633e+01
1.398211e+02	-2.094874e+01
1.406287e+02	-2.099874e+01
1.414410e+02	-2.104738e+01
1.422579e+02	-2.109772e+01
1.430796e+02	-2.114789e+01
1.439060e+02	-2.119711e+01
1.447372e+02	-2.124692e+01
1.455732e+02	-2.129524e+01
1.464141e+02	-2.134637e+01
1.472597e+02	-2.139636e+01
1.481103e+02	-2.144660e+01
1.489658e+02	-2.149586e+01
1.498262e+02	-2.154482e+01
1.506916e+02	-2.159413e+01
1.515620e+02	-2.164266e+01
1.524374e+02	-2.169303e+01
1.533179e+02	-2.174344e+01
1.542034e+02	-2.179258e+01
1.550941e+02	-2.184225e+01
1.559899e+02	-2.189175e+01
1.568909e+02	-2.194029e+01
1.577971e+02	-2.199207e+01
1.587085e+02	-2.204168e+01
1.596252e+02	-2.209285e+01
1.605472e+02	-2.213966e+01
1.614745e+02	-2.219169e+01
1.624072e+02	-2.224169e+01
1.633453e+02	-2.229148e+01
1.642887e+02	-2.234115e+01
1.652377e+02	-2.238825e+01
1.661921e+02	-2.243976e+01
1.671520e+02	-2.248896e+01
1.681175e+02	-2.253890e+01
1.690885e+02	-2.259212e+01
1.700651e+02	-2.263926e+01
1.710474e+02	-2.268953e+01
1.720354e+02	-2.273765e+01
1.730291e+02	-2.278621e+01
1.740285e+02	-2.284215e+01
1.750337e+02	-2.288890e+01
1.760446e+02	-2.293702e+01
1.770615e+02	-2.298757e+01
1.780842e+02	-2.303691e+01
1.791128e+02	-2.308748e+01
1.801473e+02	-2.313792e+01
1.811878e+02	-2.318472e+01
1.822344e+02	-2.323646e+01
1.832870e+02	-2.328766e+01
1.843456e+02	-2.333648e+01
1.854104e+02	-2.338550e+01
1.864813e+02	-2.343580e+01
1.875584e+02	-2.348395e+01
1.886418e+02	-2.353396e+01
1.897313e+02	-2.358608e+01
1.908272e+02	-2.363663e+01
1.919294e+02	-2.368654e+01
1.930380e+02	-2.373376e+01
1.941530e+02	-2.378546e+01
1.952744e+02	-2.383386e+01
1.964023e+02	-2.388661e+01
1.975367e+02	-2.393545e+01
1.986777e+02	-2.398472e+01
1.998252e+02	-2.403142e+01
2.009794e+02	-2.408163e+01
2.021403e+02	-2.413098e+01
2.033078e+02	-2.418262e+01
2.044821e+02	-2.423201e+01
2.056632e+02	-2.428458e+01
2.068511e+02	-2.433348e+01
2.080459e+02	-2.437953e+01
2.092475e+02	-2.443236e+01
2.104561e+02	-2.448282e+01
2.116717e+02	-2.453362e+01
2.128943e+02	-2.458325e+01
2.141240e+02	-2.463217e+01
2.153608e+02	-2.468372e+01
2.166047e+02	-2.473562e+01
2.178558e+02	-2.478196e+01
2.191141e+02	-2.483048e+01
2.203797e+02	-2.488152e+01
2.216526e+02	-2.492936e+01
2.229329e+02	-2.498113e+01
2.242205e+02	-2.503018e+01
2.255156e+02	-2.508278e+01
2.268182e+02	-2.513138e+01
2.281283e+02	-2.518082e+01
2.294459e+02	-2.523139e+01
2.307712e+02	-2.528176e+01
2.321041e+02	-2.533302e+01
2.334447e+02	-2.538068e+01
2.347931e+02	-2.543472e+01
2.361493e+02	-2.548293e+01
2.375133e+02	-2.553030e+01
2.388851e+02	-2.558017e+01
2.402649e+02	-2.563075e+01
2.416527e+02	-2.568109e+01
2.430484e+02	-2.573035e+01
2.444523e+02	-2.577925e+01
2.458642e+02	-2.583024e+01
2.472843e+02	-2.587998e+01
2.487126e+02	-2.593054e+01
2.501492e+02	-2.597878e+01
2.515940e+02	-2.603247e+01
2.530472e+02	-2.608202e+01
2.545088e+02	-2.613225e+01
2.559789e+02	-2.617800e+01
2.574574e+02	-2.623213e+01
2.589444e+02	-2.628140e+01
2.604401e+02	-2.633117e+01
2.619444e+02	-2.637999e+01
2.634574e+02	-2.643064e+01
2.649791e+02	-2.648072e+01
2.665096e+02	-2.652953e+01
2.680489e+02	-2.658093e+01
2.695972e+02	-2.662979e+01
2.711544e+02	-2.667613e+01
2.727205e+02	-2.673055e+01
2.742958e+02	-2.678320e+01
2.758801e+02	-2.682857e+01
2.774736e+02	-2.687837e+01
2.790762e+02	-2.692902e+01
2.806882e+02	-2.698099e+01
2.823094e+02	-2.703185e+01
2.839400e+02	-2.707918e+01
2.855800e+02	-2.713181e+01
2.872295e+02	-2.718255e+01
2.888886e+02	-2.722944e+01
2.905572e+02	-2.727936e+01
2.922354e+02	-2.732961e+01
2.939234e+02	-2.737835e+01
2.956211e+02	-2.742666e+01
2.973286e+02	-2.747814e+01
2.990459e+02	-2.753103e+01
3.007732e+02	-2.758312e+01
3.025104e+02	-2.762854e+01
3.042577e+02	-2.767544e+01
3.060151e+02	-2.772909e+01
3.077826e+02	-2.777753e+01
3.095604e+02	-2.782825e+01
3.113484e+02	-2.787504e+01
3.131467e+02	-2.792994e+01
3.149554e+02	-2.798107e+01
3.167746e+02	-2.802789e+01
3.186043e+02	-2.807872e+01
3.204445e+02	-2.812606e+01
3.222954e+02	-2.817682e+01
3.241570e+02	-2.822214e+01
3.260293e+02	-2.828319e+01
3.279124e+02	-2.832923e+01
3.298064e+02	-2.837861e+01
3.317114e+02	-2.843371e+01
3.336273e+02	-2.848162e+01
3.355544e+02	-2.853077e+01
3.374925e+02	-2.858263e+01
3.394418e+02	-2.862620e+01
3.414024e+02	-2.867702e+01
3.433744e+02	-2.872756e+01
3.453577e+02	-2.877964e+01
3.473525e+02	-2.883362e+01
3.493588e+02	-2.888202e+01
3.513766e+02	-2.893026e+01
3.534062e+02	-2.898103e+01
3.554474e+02	-2.903261e+01
3.575005e+02	-2.907884e+01
3.595654e+02	-2.913115e+01
3.616422e+02	-2.917579e+01
3.637311e+02	-2.923057e+01
3.658320e+02	-2.927822e+01
3.679450e+02	-2.933088e+01
3.700702e+02	-2.938318e+01
3.722077e+02	-2.942990e+01
3.743576e+02	-2.948012e+01
3.765199e+02	-2.952967e+01
3.786946e+02	-2.958178e+01
3.808820e+02	-2.963290e+01
3.830819e+02	-2.968013e+01
3.852946e+02	-2.973135e+01
3.875200e+02	-2.977772e+01
3.897583e+02	-2.983068e+01
3.920096e+02	-2.987964e+01
3.942738e+02	-2.993735e+01
3.965511e+02	-2.998266e+01
3.988416e+02	-3.003212e+01
4.011452e+02	-3.008239e+01
4.034622e+02	-3.012904e+01
4.057926e+02	-3.017577e+01
4.081365e+02	-3.023558e+01
4.104938e+02	-3.028712e+01
4.128648e+02	-3.033065e+01
4.152495e+02	-3.038186e+01
4.176480e+02	-3.043709e+01
4.200603e+02	-3.048684e+01
4.224866e+02	-3.053207e+01
4.249268e+02	-3.058358e+01
4.273812e+02	-3.063102e+01
4.298497e+02	-3.068620e+01
4.323325e+02	-3.073743e+01
4.348297e+02	-3.078634e+01
4.373412e+02	-3.083354e+01
4.398673e+02	-3.088018e+01
4.424079e+02	-3.093150e+01
4.449633e+02	-3.098276e+01
4.475334e+02	-3.103754e+01
4.501183e+02	-3.108381e+01
4.527182e+02	-3.113650e+01
4.553330e+02	-3.118432e+01
4.579630e+02	-3.123237e+01
4.606082e+02	-3.128175e+01
4.632687e+02	-3.132951e+01
4.659445e+02	-3.138414e+01
4.686358e+02	-3.143570e+01
4.713426e+02	-3.148447e+01
4.740650e+02	-3.153864e+01
4.768032e+02	-3.157988e+01
4.795572e+02	-3.163855e+01
4.823271e+02	-3.168560e+01
4.851130e+02	-3.173107e+01
4.879150e+02	-3.178353e+01
4.907332e+02	-3.184246e+01
4.935676e+02	-3.188765e+01
4.964185e+02	-3.193829e+01
4.992858e+02	-3.198850e+01
5.021696e+02	-3.203037e+01
5.050701e+02	-3.208759e+01
5.079874e+02	-3.214080e+01
5.109215e+02	-3.219074e+01
5.138726e+02	-3.223074e+01
5.168407e+02	-3.229469e+01
5.198259e+02	-3.233930e+01
5.228284e+02	-3.238450e+01
5.258482e+02	-3.244241e+01
5.288855e+02	-3.248999e+01
5.319403e+02	-3.253886e+01
5.350128e+02	-3.258729e+01
5.381030e+02	-3.263712e+01
5.412111e+02	-3.269064e+01
5.443371e+02	-3.274159e+01
5.474812e+02	-3.278838e+01
5.506434e+02	-3.284135e+01
5.538239e+02	-3.288584e+01
5.570228e+02	-3.293821e+01
5.602401e+02	-3.299085e+01
5.634760e+02	-3.304180e+01
5.667306e+02	-3.309322e+01
5.700040e+02	-3.314202e+01
5.732964e+02	-3.319423e+01
5.766077e+02	-3.324335e+01
5.799382e+02	-3.329967e+01
5.832879e+02	-3.334500e+01
5.866569e+02	-3.339017e+01
5.900454e+02	-3.344629e+01
5.934535e+02	-3.349207e+01
5.968813e+02	-3.353940e+01
6.003288e+02	-3.359555e+01
6.037963e+02	-3.364632e+01
6.072838e+02	-3.369367e+01
6.107914e+02	-3.374401e+01
6.143194e+02	-3.378708e+01
6.178676e+02	-3.384116e+01
6.214364e+02	-3.389769e+01
6.250258e+02	-3.393885e+01
6.286359e+02	-3.398864e+01
6.322669e+02	-3.405292e+01
6.359189e+02	-3.410135e+01
6.395919e+02	-3.414360e+01
6.432862e+02	-3.420122e+01
6.470017e+02	-3.424721e+01
6.507388e+02	-3.429423e+01
6.544974e+02	-3.434671e+01
6.582778e+02	-3.439641e+01
6.620800e+02	-3.445507e+01
6.659041e+02	-3.450273e+01
6.697504e+02	-3.455902e+01
6.736188e+02	-3.459708e+01
6.775096e+02	-3.465386e+01
6.814229e+02	-3.469483e+01
6.853587e+02	-3.475552e+01
6.893173e+02	-3.479674e+01
6.932988e+02	-3.484919e+01
6.973033e+02	-3.489891e+01
7.013309e+02	-3.495574e+01
