Frequency(Hz)	Magnitude(dB)
1.000000e+01	-1.583042e-05
1.005776e+01	-1.601382e-05
1.011585e+01	-1.619934e-05
1.017428e+01	-1.638702e-05
1.023305e+01	-1.657687e-05
1.029215e+01	-1.676891e-05
1.035160e+01	-1.696319e-05
1.041139e+01	-1.715971e-05
1.047153e+01	-1.735851e-05
1.053201e+01	-1.755961e-05
1.059284e+01	-1.776304e-05
1.065403e+01	-1.796883e-05
1.071556e+01	-1.817701e-05
1.077746e+01	-1.838759e-05
1.083971e+01	-1.860062e-05
1.090232e+01	-1.881611e-05
1.096529e+01	-1.903410e-05
1.102862e+01	-1.925461e-05
1.109232e+01	-1.947768e-05
1.115639e+01	-1.970334e-05
1.122083e+01	-1.993161e-05
1.128564e+01	-2.016252e-05
1.135083e+01	-2.039611e-05
1.141639e+01	-2.063240e-05
1.148233e+01	-2.087143e-05
1.154865e+01	-2.111323e-05
1.161536e+01	-2.135783e-05
1.168245e+01	-2.160527e-05
1.174992e+01	-2.185557e-05
1.181779e+01	-2.210877e-05
1.188605e+01	-2.236491e-05
1.195470e+01	-2.262401e-05
1.202375e+01	-2.288612e-05
1.209320e+01	-2.315126e-05
1.216305e+01	-2.341947e-05
1.223330e+01	-2.369079e-05
1.230396e+01	-2.396526e-05
1.237503e+01	-2.424290e-05
1.244651e+01	-2.452376e-05
1.251840e+01	-2.480787e-05
1.259070e+01	-2.509528e-05
1.266343e+01	-2.538601e-05
1.273657e+01	-2.568012e-05
1.281014e+01	-2.597763e-05
1.288413e+01	-2.627859e-05
1.295855e+01	-2.658303e-05
1.303339e+01	-2.689100e-05
1.310867e+01	-2.720254e-05
1.318439e+01	-2.751769e-05
1.326054e+01	-2.783649e-05
1.333713e+01	-2.815898e-05
1.341417e+01	-2.848521e-05
1.349165e+01	-2.881522e-05
1.356958e+01	-2.914905e-05
1.364795e+01	-2.948675e-05
1.372678e+01	-2.982836e-05
1.380607e+01	-3.017393e-05
1.388581e+01	-3.052350e-05
1.396602e+01	-3.087712e-05
1.404668e+01	-3.123484e-05
1.412782e+01	-3.159670e-05
1.420942e+01	-3.196276e-05
1.429149e+01	-3.233305e-05
1.437404e+01	-3.270764e-05
1.445706e+01	-3.308656e-05
1.454057e+01	-3.346988e-05
1.462455e+01	-3.385764e-05
1.470902e+01	-3.424989e-05
1.479398e+01	-3.464668e-05
1.487943e+01	-3.504807e-05
1.496537e+01	-3.545411e-05
1.505181e+01	-3.586485e-05
1.513875e+01	-3.628035e-05
1.522619e+01	-3.670067e-05
1.531414e+01	-3.712586e-05
1.540259e+01	-3.755597e-05
1.549156e+01	-3.799106e-05
1.558103e+01	-3.843120e-05
1.567103e+01	-3.887643e-05
1.576155e+01	-3.932682e-05
1.585258e+01	-3.978243e-05
1.594415e+01	-4.024332e-05
1.603624e+01	-4.070955e-05
1.612886e+01	-4.118118e-05
1.622202e+01	-4.165827e-05
1.631572e+01	-4.214089e-05
1.640996e+01	-4.262911e-05
1.650474e+01	-4.312297e-05
1.660008e+01	-4.362256e-05
1.669596e+01	-4.412794e-05
1.679239e+01	-4.463917e-05
1.688938e+01	-4.515633e-05
1.698694e+01	-4.567947e-05
1.708505e+01	-4.620868e-05
1.718373e+01	-4.674402e-05
1.728299e+01	-4.728556e-05
1.738281e+01	-4.783337e-05
1.748322e+01	-4.838753e-05
1.758420e+01	-4.894811e-05
1.768576e+01	-4.951518e-05
1.778792e+01	-5.008883e-05
1.789066e+01	-5.066912e-05
1.799399e+01	-5.125613e-05
1.809793e+01	-5.184994e-05
1.820246e+01	-5.245063e-05
1.830760e+01	-5.305829e-05
1.841334e+01	-5.367298e-05
1.851969e+01	-5.429479e-05
1.862666e+01	-5.492381e-05
1.873425e+01	-5.556011e-05
1.884246e+01	-5.620379e-05
1.895129e+01	-5.685492e-05
1.906075e+01	-5.751359e-05
1.917085e+01	-5.817990e-05
1.928158e+01	-5.885393e-05
1.939295e+01	-5.953576e-05
1.950496e+01	-6.022549e-05
1.961762e+01	-6.092322e-05
1.973093e+01	-6.162903e-05
1.984490e+01	-6.234301e-05
1.995952e+01	-6.306527e-05
2.007480e+01	-6.379589e-05
2.019076e+01	-6.453498e-05
2.030738e+01	-6.528263e-05
2.042467e+01	-6.603894e-05
2.054264e+01	-6.680401e-05
2.066130e+01	-6.757795e-05
2.078064e+01	-6.836085e-05
2.090066e+01	-6.915283e-05
2.102139e+01	-6.995398e-05
2.114280e+01	-7.076441e-05
2.126492e+01	-7.158422e-05
2.138775e+01	-7.241354e-05
2.151128e+01	-7.325246e-05
2.163553e+01	-7.410111e-05
2.176050e+01	-7.495958e-05
2.188619e+01	-7.582800e-05
2.201260e+01	-7.670648e-05
2.213974e+01	-7.759514e-05
2.226762e+01	-7.849409e-05
2.239624e+01	-7.940346e-05
2.252560e+01	-8.032336e-05
2.265571e+01	-8.125392e-05
2.278656e+01	-8.219527e-05
2.291818e+01	-8.314751e-05
2.305055e+01	-8.411079e-05
2.318369e+01	-8.508523e-05
2.331760e+01	-8.607095e-05
2.345228e+01	-8.706810e-05
2.358774e+01	-8.807680e-05
2.372398e+01	-8.909718e-05
2.386101e+01	-9.012939e-05
2.399883e+01	-9.117355e-05
2.413745e+01	-9.222981e-05
2.427686e+01	-9.329831e-05
2.441709e+01	-9.437918e-05
2.455812e+01	-9.547258e-05
2.469997e+01	-9.657864e-05
2.484263e+01	-9.769752e-05
2.498612e+01	-9.882936e-05
2.513044e+01	-9.997431e-05
2.527559e+01	-1.011325e-04
2.542158e+01	-1.023042e-04
2.556842e+01	-1.034894e-04
2.571610e+01	-1.046883e-04
2.586463e+01	-1.059011e-04
2.601403e+01	-1.071280e-04
2.616428e+01	-1.083691e-04
2.631541e+01	-1.096246e-04
2.646740e+01	-1.108946e-04
2.662028e+01	-1.121793e-04
2.677404e+01	-1.134789e-04
2.692868e+01	-1.147936e-04
2.708422e+01	-1.161235e-04
2.724066e+01	-1.174688e-04
2.739800e+01	-1.188297e-04
2.755625e+01	-1.202064e-04
2.771541e+01	-1.215990e-04
2.787550e+01	-1.230077e-04
2.803650e+01	-1.244328e-04
2.819844e+01	-1.258743e-04
2.836131e+01	-1.273326e-04
2.852513e+01	-1.288078e-04
2.868989e+01	-1.303000e-04
2.885560e+01	-1.318095e-04
2.902227e+01	-1.333366e-04
2.918990e+01	-1.348813e-04
2.935850e+01	-1.364439e-04
2.952807e+01	-1.380246e-04
2.969863e+01	-1.396236e-04
2.987016e+01	-1.412412e-04
3.004269e+01	-1.428775e-04
3.021622e+01	-1.445327e-04
3.039075e+01	-1.462072e-04
3.056628e+01	-1.479010e-04
3.074283e+01	-1.496144e-04
3.092040e+01	-1.513477e-04
3.109900e+01	-1.531011e-04
3.127862e+01	-1.548748e-04
3.145929e+01	-1.566690e-04
3.164099e+01	-1.584840e-04
3.182375e+01	-1.603201e-04
3.200756e+01	-1.621774e-04
3.219244e+01	-1.640562e-04
3.237838e+01	-1.659568e-04
3.256540e+01	-1.678795e-04
3.275349e+01	-1.698244e-04
3.294268e+01	-1.717918e-04
3.313295e+01	-1.737820e-04
3.332433e+01	-1.757953e-04
3.351681e+01	-1.778319e-04
3.371040e+01	-1.798921e-04
3.390511e+01	-1.819761e-04
3.410094e+01	-1.840843e-04
3.429791e+01	-1.862169e-04
3.449601e+01	-1.883743e-04
3.469526e+01	-1.905566e-04
3.489566e+01	-1.927642e-04
3.509721e+01	-1.949974e-04
3.529993e+01	-1.972564e-04
3.550382e+01	-1.995416e-04
3.570889e+01	-2.018533e-04
3.591515e+01	-2.041918e-04
3.612259e+01	-2.065573e-04
3.633123e+01	-2.089503e-04
3.654108e+01	-2.113710e-04
3.675214e+01	-2.138197e-04
3.696442e+01	-2.162968e-04
3.717792e+01	-2.188026e-04
3.739266e+01	-2.213375e-04
3.760864e+01	-2.239016e-04
3.782587e+01	-2.264955e-04
3.804435e+01	-2.291195e-04
3.826409e+01	-2.317738e-04
3.848510e+01	-2.344589e-04
3.870739e+01	-2.371751e-04
3.893096e+01	-2.399228e-04
3.915583e+01	-2.427023e-04
3.938199e+01	-2.455140e-04
3.960946e+01	-2.483582e-04
3.983824e+01	-2.512355e-04
4.006834e+01	-2.541460e-04
4.029978e+01	-2.570903e-04
4.053255e+01	-2.600686e-04
4.076666e+01	-2.630815e-04
4.100213e+01	-2.661293e-04
4.123896e+01	-2.692124e-04
4.147715e+01	-2.723312e-04
4.171672e+01	-2.754861e-04
4.195767e+01	-2.786776e-04
4.220002e+01	-2.819060e-04
4.244377e+01	-2.851719e-04
4.268892e+01	-2.884756e-04
4.293549e+01	-2.918175e-04
4.318348e+01	-2.951982e-04
4.343291e+01	-2.986181e-04
4.368377e+01	-3.020775e-04
4.393609e+01	-3.055770e-04
4.418986e+01	-3.091171e-04
4.444510e+01	-3.126982e-04
4.470182e+01	-3.163207e-04
4.496001e+01	-3.199853e-04
4.521970e+01	-3.236923e-04
4.548089e+01	-3.274422e-04
4.574358e+01	-3.312355e-04
4.600779e+01	-3.350728e-04
4.627353e+01	-3.389546e-04
4.654081e+01	-3.428813e-04
4.680963e+01	-3.468536e-04
4.708000e+01	-3.508718e-04
4.735193e+01	-3.549366e-04
4.762543e+01	-3.590484e-04
4.790051e+01	-3.632079e-04
4.817719e+01	-3.674156e-04
4.845545e+01	-3.716721e-04
4.873533e+01	-3.759778e-04
4.901682e+01	-3.803334e-04
4.929994e+01	-3.847395e-04
4.958470e+01	-3.891966e-04
4.987110e+01	-3.937053e-04
5.015915e+01	-3.982663e-04
5.044887e+01	-4.028801e-04
5.074026e+01	-4.075474e-04
5.103333e+01	-4.122687e-04
5.132810e+01	-4.170447e-04
5.162457e+01	-4.218761e-04
5.192275e+01	-4.267634e-04
5.222265e+01	-4.317073e-04
5.252429e+01	-4.367085e-04
5.282767e+01	-4.417676e-04
5.313280e+01	-4.468854e-04
5.343969e+01	-4.520624e-04
5.374836e+01	-4.572994e-04
5.405880e+01	-4.625971e-04
5.437105e+01	-4.679561e-04
5.468509e+01	-4.733772e-04
5.500095e+01	-4.788611e-04
5.531863e+01	-4.844085e-04
5.563815e+01	-4.900202e-04
5.595951e+01	-4.956969e-04
5.628273e+01	-5.014394e-04
5.660782e+01	-5.072483e-04
5.693479e+01	-5.131246e-04
5.726364e+01	-5.190689e-04
5.759439e+01	-5.250821e-04
5.792705e+01	-5.311650e-04
5.826164e+01	-5.373183e-04
5.859815e+01	-5.435429e-04
5.893662e+01	-5.498396e-04
5.927703e+01	-5.562092e-04
5.961941e+01	-5.626526e-04
5.996377e+01	-5.691707e-04
6.031012e+01	-5.757642e-04
6.065847e+01	-5.824342e-04
6.100883e+01	-5.891814e-04
6.136121e+01	-5.960067e-04
6.171563e+01	-6.029112e-04
6.207210e+01	-6.098956e-04
6.243063e+01	-6.169609e-04
6.279122e+01	-6.241080e-04
6.315390e+01	-6.313380e-04
6.351868e+01	-6.386517e-04
6.388556e+01	-6.460501e-04
6.425456e+01	-6.535342e-04
6.462569e+01	-6.611050e-04
6.499897e+01	-6.687635e-04
6.537440e+01	-6.765107e-04
6.575200e+01	-6.843476e-04
6.613178e+01	-6.922753e-04
6.651375e+01	-7.002949e-04
6.689793e+01	-7.084073e-04
6.728433e+01	-7.166137e-04
6.767297e+01	-7.249152e-04
6.806384e+01	-7.333129e-04
6.845698e+01	-7.418078e-04
6.885238e+01	-7.504011e-04
6.925007e+01	-7.590939e-04
6.965005e+01	-7.678874e-04
7.005235e+01	-7.767828e-04
7.045697e+01	-7.857813e-04
7.086393e+01	-7.948839e-04
7.127323e+01	-8.040920e-04
7.168490e+01	-8.134068e-04
7.209895e+01	-8.228294e-04
7.251539e+01	-8.323612e-04
7.293424e+01	-8.420034e-04
7.335551e+01	-8.517573e-04
7.377920e+01	-8.616241e-04
7.420535e+01	-8.716053e-04
7.463396e+01	-8.817021e-04
7.506504e+01	-8.919158e-04
7.549861e+01	-9.022478e-04
7.593469e+01	-9.126995e-04
7.637328e+01	-9.232722e-04
7.681441e+01	-9.339674e-04
7.725809e+01	-9.447865e-04
7.770433e+01	-9.557309e-04
7.815315e+01	-9.668021e-04
7.860456e+01	-9.780015e-04
7.905857e+01	-9.893306e-04
7.951521e+01	-1.000791e-03
7.997449e+01	-1.012384e-03
8.043642e+01	-1.024111e-03
8.090102e+01	-1.035975e-03
8.136830e+01	-1.047975e-03
8.183828e+01	-1.060115e-03
8.231097e+01	-1.072395e-03
8.278640e+01	-1.084817e-03
8.326457e+01	-1.097384e-03
8.374550e+01	-1.110096e-03
8.422921e+01	-1.122955e-03
8.471572e+01	-1.135963e-03
8.520503e+01	-1.149121e-03
8.569717e+01	-1.162433e-03
8.619215e+01	-1.175898e-03
8.669000e+01	-1.189519e-03
8.719071e+01	-1.203298e-03
8.769432e+01	-1.217237e-03
8.820084e+01	-1.231337e-03
8.871029e+01	-1.245600e-03
8.922267e+01	-1.260028e-03
8.973802e+01	-1.274624e-03
9.025634e+01	-1.289389e-03
9.077766e+01	-1.304324e-03
9.130199e+01	-1.319433e-03
9.182935e+01	-1.334717e-03
9.235975e+01	-1.350177e-03
9.289321e+01	-1.365817e-03
9.342976e+01	-1.381638e-03
9.396941e+01	-1.397642e-03
9.451217e+01	-1.413831e-03
9.505807e+01	-1.430208e-03
9.560712e+01	-1.446775e-03
9.615934e+01	-1.463533e-03
9.671476e+01	-1.480486e-03
9.727338e+01	-1.497635e-03
9.783522e+01	-1.514982e-03
9.840032e+01	-1.532531e-03
9.896867e+01	-1.550282e-03
9.954031e+01	-1.568240e-03
1.001153e+02	-1.586405e-03
1.006935e+02	-1.604780e-03
1.012751e+02	-1.623369e-03
1.018601e+02	-1.642172e-03
1.024484e+02	-1.661193e-03
1.030402e+02	-1.680435e-03
1.036353e+02	-1.699900e-03
1.042339e+02	-1.719590e-03
1.048360e+02	-1.739507e-03
1.054415e+02	-1.759656e-03
1.060505e+02	-1.780038e-03
1.066631e+02	-1.800656e-03
1.072791e+02	-1.821513e-03
1.078988e+02	-1.842611e-03
1.085220e+02	-1.863953e-03
1.091488e+02	-1.885543e-03
1.097793e+02	-1.907383e-03
1.104133e+02	-1.929475e-03
1.110511e+02	-1.951824e-03
1.116925e+02	-1.974431e-03
1.123376e+02	-1.997300e-03
1.129865e+02	-2.020434e-03
1.136391e+02	-2.043836e-03
1.142955e+02	-2.067509e-03
1.149556e+02	-2.091455e-03
1.156196e+02	-2.115680e-03
1.162874e+02	-2.140184e-03
1.169591e+02	-2.164973e-03
1.176347e+02	-2.190048e-03
1.183141e+02	-2.215414e-03
1.189975e+02	-2.241073e-03
1.196848e+02	-2.267030e-03
1.203761e+02	-2.293287e-03
1.210714e+02	-2.319849e-03
1.217707e+02	-2.346717e-03
1.224740e+02	-2.373897e-03
1.231814e+02	-2.401392e-03
1.238929e+02	-2.429205e-03
1.246085e+02	-2.457340e-03
1.253283e+02	-2.485801e-03
1.260522e+02	-2.514591e-03
1.267802e+02	-2.543715e-03
1.275125e+02	-2.573175e-03
1.282490e+02	-2.602977e-03
1.289898e+02	-2.633124e-03
1.297348e+02	-2.663621e-03
1.304842e+02	-2.694470e-03
1.312378e+02	-2.725676e-03
1.319959e+02	-2.757244e-03
1.327583e+02	-2.789177e-03
1.335251e+02	-2.821480e-03
1.342963e+02	-2.854157e-03
1.350720e+02	-2.887212e-03
1.358522e+02	-2.920650e-03
1.366368e+02	-2.954474e-03
1.374260e+02	-2.988691e-03
1.382198e+02	-3.023304e-03
1.390182e+02	-3.058317e-03
1.398211e+02	-3.093736e-03
1.406287e+02	-3.129565e-03
1.414410e+02	-3.165808e-03
1.422579e+02	-3.202472e-03
1.430796e+02	-3.239559e-03
1.439060e+02	-3.277076e-03
1.447372e+02	-3.315027e-03
1.455732e+02	-3.353418e-03
1.464141e+02	-3.392253e-03
1.472597e+02	-3.431538e-03
1.481103e+02	-3.471277e-03
1.489658e+02	-3.511476e-03
1.498262e+02	-3.552141e-03
1.506916e+02	-3.593277e-03
1.515620e+02	-3.634888e-03
1.524374e+02	-3.676981e-03
1.533179e+02	-3.719562e-03
1.542034e+02	-3.762635e-03
1.550941e+02	-3.806207e-03
1.559899e+02	-3.850284e-03
1.568909e+02	-3.894870e-03
1.577971e+02	-3.939973e-03
1.587085e+02	-3.985597e-03
1.596252e+02	-4.031750e-03
1.605472e+02	-4.078437e-03
1.614745e+02	-4.125664e-03
1.624072e+02	-4.173438e-03
1.633453e+02	-4.221765e-03
1.642887e+02	-4.270651e-03
1.652377e+02	-4.320103e-03
1.661921e+02	-4.370127e-03
1.671520e+02	-4.420731e-03
1.681175e+02	-4.471919e-03
1.690885e+02	-4.523701e-03
1.700651e+02	-4.576081e-03
1.710474e+02	-4.629068e-03
1.720354e+02	-4.682668e-03
1.730291e+02	-4.736888e-03
1.740285e+02	-4.791736e-03
1.750337e+02	-4.847219e-03
1.760446e+02	-4.903343e-03
1.770615e+02	-4.960117e-03
1.780842e+02	-5.017548e-03
1.791128e+02	-5.075644e-03
1.801473e+02	-5.134411e-03
1.811878e+02	-5.193859e-03
1.822344e+02	-5.253995e-03
1.832870e+02	-5.314827e-03
1.843456e+02	-5.376362e-03
1.854104e+02	-5.438609e-03
1.864813e+02	-5.501577e-03
1.875584e+02	-5.565273e-03
1.886418e+02	-5.629707e-03
1.897313e+02	-5.694885e-03
1.908272e+02	-5.760818e-03
1.919294e+02	-5.827514e-03
1.930380e+02	-5.894981e-03
1.941530e+02	-5.963229e-03
1.952744e+02	-6.032267e-03
1.964023e+02	-6.102103e-03
1.975367e+02	-6.172747e-03
1.986777e+02	-6.244208e-03
1.998252e+02	-6.316496e-03
2.009794e+02	-6.389620e-03
2.021403e+02	-6.463591e-03
2.033078e+02	-6.538416e-03
2.044821e+02	-6.614108e-03
2.056632e+02	-6.690675e-03
2.068511e+02	-6.768127e-03
2.080459e+02	-6.846476e-03
2.092475e+02	-6.925731e-03
2.104561e+02	-7.005902e-03
2.116717e+02	-7.087001e-03
2.128943e+02	-7.169038e-03
2.141240e+02	-7.252023e-03
2.153608e+02	-7.335969e-03
2.166047e+02	-7.420885e-03
2.178558e+02	-7.506783e-03
2.191141e+02	-7.593675e-03
2.203797e+02	-7.681572e-03
2.216526e+02	-7.770485e-03
2.229329e+02	-7.860426e-03
2.242205e+02	-7.951408e-03
2.255156e+02	-8.043441e-03
2.268182e+02	-8.136539e-03
2.281283e+02	-8.230713e-03
2.294459e+02	-8.325977e-03
2.307712e+02	-8.422341e-03
2.321041e+02	-8.519820e-03
2.334447e+02	-8.618426e-03
2.347931e+02	-8.718173e-03
2.361493e+02	-8.819072e-03
2.375133e+02	-8.921138e-03
2.388851e+02	-9.024384e-03
2.402649e+02	-9.128823e-03
2.416527e+02	-9.234470e-03
2.430484e+02	-9.341339e-03
2.444523e+02	-9.449442e-03
2.458642e+02	-9.558796e-03
2.472843e+02	-9.669413e-03
2.487126e+02	-9.781309e-03
2.501492e+02	-9.894499e-03
2.515940e+02	-1.000900e-02
2.530472e+02	-1.012482e-02
2.545088e+02	-1.024198e-02
2.559789e+02	-1.036049e-02
2.574574e+02	-1.048038e-02
2.589444e+02	-1.060164e-02
2.604401e+02	-1.072432e-02
2.619444e+02	-1.084840e-02
2.634574e+02	-1.097393e-02
2.649791e+02	-1.110090e-02
2.665096e+02	-1.122934e-02
2.680489e+02	-1.135926e-02
2.695972e+02	-1.149069e-02
2.711544e+02	-1.162363e-02
2.727205e+02	-1.175811e-02
2.742958e+02	-1.189414e-02
2.758801e+02	-1.203175e-02
2.774736e+02	-1.217094e-02
2.790762e+02	-1.231175e-02
2.806882e+02	-1.245418e-02
2.823094e+02	-1.259825e-02
2.839400e+02	-1.274399e-02
2.855800e+02	-1.289141e-02
2.872295e+02	-1.304054e-02
2.888886e+02	-1.319139e-02
2.905572e+02	-1.334398e-02
2.922354e+02	-1.349833e-02
2.939234e+02	-1.365446e-02
2.956211e+02	-1.381240e-02
2.973286e+02	-1.397216e-02
2.990459e+02	-1.413377e-02
3.007732e+02	-1.429724e-02
3.025104e+02	-1.446260e-02
3.042577e+02	-1.462987e-02
3.060151e+02	-1.479908e-02
3.077826e+02	-1.497023e-02
3.095604e+02	-1.514336e-02
3.113484e+02	-1.531849e-02
3.131467e+02	-1.549564e-02
3.149554e+02	-1.567484e-02
3.167746e+02	-1.585610e-02
3.186043e+02	-1.603946e-02
3.204445e+02	-1.622493e-02
3.222954e+02	-1.641254e-02
3.241570e+02	-1.660232e-02
3.260293e+02	-1.679429e-02
3.279124e+02	-1.698848e-02
3.298064e+02	-1.718490e-02
3.317114e+02	-1.738359e-02
3.336273e+02	-1.758458e-02
3.355544e+02	-1.778788e-02
3.374925e+02	-1.799353e-02
3.394418e+02	-1.820155e-02
3.414024e+02	-1.841197e-02
3.433744e+02	-1.862482e-02
3.453577e+02	-1.884012e-02
3.473525e+02	-1.905791e-02
3.493588e+02	-1.927821e-02
3.513766e+02	-1.950105e-02
3.534062e+02	-1.972646e-02
3.554474e+02	-1.995447e-02
3.575005e+02	-2.018511e-02
3.595654e+02	-2.041841e-02
3.616422e+02	-2.065440e-02
3.637311e+02	-2.089310e-02
3.658320e+02	-2.113457e-02
3.679450e+02	-2.137881e-02
3.700702e+02	-2.162587e-02
3.722077e+02	-2.187578e-02
3.743576e+02	-2.212857e-02
3.765199e+02	-2.238427e-02
3.786946e+02	-2.264292e-02
3.808820e+02	-2.290455e-02
3.830819e+02	-2.316919e-02
3.852946e+02	-2.343689e-02
3.875200e+02	-2.370767e-02
3.897583e+02	-2.398157e-02
3.920096e+02	-2.425862e-02
3.942738e+02	-2.453887e-02
3.965511e+02	-2.482234e-02
3.988416e+02	-2.510908e-02
4.011452e+02	-2.539912e-02
4.034622e+02	-2.569250e-02
4.057926e+02	-2.598926e-02
4.081365e+02	-2.628944e-02
4.104938e+02	-2.659308e-02
4.128648e+02	-2.690021e-02
4.152495e+02	-2.721087e-02
4.176480e+02	-2.752512e-02
4.200603e+02	-2.784298e-02
4.224866e+02	-2.816450e-02
4.249268e+02	-2.848972e-02
4.273812e+02	-2.881868e-02
4.298497e+02	-2.915143e-02
4.323325e+02	-2.948800e-02
4.348297e+02	-2.982845e-02
4.373412e+02	-3.017282e-02
4.398673e+02	-3.052115e-02
4.424079e+02	-3.087348e-02
4.449633e+02	-3.122987e-02
4.475334e+02	-3.159036e-02
4.501183e+02	-3.195499e-02
4.527182e+02	-3.232381e-02
4.553330e+02	-3.269688e-02
4.579630e+02	-3.307424e-02
4.606082e+02	-3.345593e-02
4.632687e+02	-3.384201e-02
4.659445e+02	-3.423253e-02
4.686358e+02	-3.462754e-02
4.713426e+02	-3.502708e-02
4.740650e+02	-3.543122e-02
4.768032e+02	-3.584001e-02
4.795572e+02	-3.625348e-02
4.823271e+02	-3.667171e-02
4.851130e+02	-3.709474e-02
4.879150e+02	-3.752264e-02
4.907332e+02	-3.795544e-02
4.935676e+02	-3.839322e-02
4.964185e+02	-3.883602e-02
4.992858e+02	-3.928390e-02
5.021696e+02	-3.973693e-02
5.050701e+02	-4.019516e-02
5.079874e+02	-4.065864e-02
5.109215e+02	-4.112745e-02
5.138726e+02	-4.160164e-02
5.168407e+02	-4.208126e-02
5.198259e+02	-4.256639e-02
5.228284e+02	-4.305708e-02
5.258482e+02	-4.355340e-02
5.288855e+02	-4.405542e-02
5.319403e+02	-4.456319e-02
5.350128e+02	-4.507678e-02
5.381030e+02	-4.559626e-02
5.412111e+02	-4.612169e-02
5.443371e+02	-4.665315e-02
5.474812e+02	-4.719069e-02
5.506434e+02	-4.773440e-02
5.538239e+02	-4.828434e-02
5.570228e+02	-4.884057e-02
5.602401e+02	-4.940318e-02
5.634760e+02	-4.997223e-02
5.667306e+02	-5.054780e-02
5.700040e+02	-5.112995e-02
5.732964e+02	-5.171878e-02
5.766077e+02	-5.231434e-02
5.799382e+02	-5.291672e-02
5.832879e+02	-5.352599e-02
5.866569e+02	-5.414223e-02
5.900454e+02	-5.476552e-02
5.934535e+02	-5.539594e-02
5.968813e+02	-5.603357e-02
6.003288e+02	-5.667849e-02
6.037963e+02	-5.733079e-02
6.072838e+02	-5.799054e-02
6.107914e+02	-5.865784e-02
6.143194e+02	-5.933276e-02
6.178676e+02	-6.001539e-02
6.214364e+02	-6.070582e-02
6.250258e+02	-6.140414e-02
6.286359e+02	-6.211043e-02
6.322669e+02	-6.282479e-02
6.359189e+02	-6.354730e-02
6.395919e+02	-6.427806e-02
6.432862e+02	-6.501716e-02
6.470017e+02	-6.576470e-02
6.507388e+02	-6.652076e-02
6.544974e+02	-6.728545e-02
6.582778e+02	-6.805886e-02
6.620800e+02	-6.884108e-02
6.659041e+02	-6.963223e-02
6.697504e+02	-7.043240e-02
6.736188e+02	-7.124168e-02
6.775096e+02	-7.206019e-02
6.814229e+02	-7.288802e-02
6.853587e+02	-7.372528e-02
6.893173e+02	-7.457207e-02
6.932988e+02	-7.542851e-02
6.973033e+02	-7.629469e-02
7.013309e+02	-7.717074e-02
