Frequency(Hz)	Magnitude(dB)
1.000000e+01	-2.188999e+00
1.005776e+01	-2.208994e+00
1.011585e+01	-2.228896e+00
1.017428e+01	-2.249102e+00
1.023305e+01	-2.269444e+00
1.029215e+01	-2.289928e+00
1.035160e+01	-2.310420e+00
1.041139e+01	-2.331314e+00
1.047153e+01	-2.352099e+00
1.053201e+01	-2.372716e+00
1.059284e+01	-2.394104e+00
1.065403e+01	-2.415305e+00
1.071556e+01	-2.436780e+00
1.077746e+01	-2.458219e+00
1.083971e+01	-2.480052e+00
1.090232e+01	-2.501950e+00
1.096529e+01	-2.523636e+00
1.102862e+01	-2.545984e+00
1.109232e+01	-2.568262e+00
1.115639e+01	-2.590385e+00
1.122083e+01	-2.612981e+00
1.128564e+01	-2.635900e+00
1.135083e+01	-2.658820e+00
1.141639e+01	-2.681707e+00
1.148233e+01	-2.704712e+00
1.154865e+01	-2.728062e+00
1.161536e+01	-2.751342e+00
1.168245e+01	-2.774629e+00
1.174992e+01	-2.798713e+00
1.181779e+01	-2.822470e+00
1.188605e+01	-2.846443e+00
1.195470e+01	-2.870576e+00
1.202375e+01	-2.895011e+00
1.209320e+01	-2.919146e+00
1.216305e+01	-2.943385e+00
1.223330e+01	-2.968590e+00
1.230396e+01	-2.993338e+00
1.237503e+01	-3.018284e+00
1.244651e+01	-3.043390e+00
1.251840e+01	-3.068870e+00
1.259070e+01	-3.094059e+00
1.266343e+01	-3.119988e+00
1.273657e+01	-3.145556e+00
1.281014e+01	-3.171057e+00
1.288413e+01	-3.197070e+00
1.295855e+01	-3.223505e+00
1.303339e+01	-3.249641e+00
1.310867e+01	-3.276037e+00
1.318439e+01	-3.302794e+00
1.326054e+01	-3.329523e+00
1.333713e+01	-3.356015e+00
1.341417e+01	-3.383258e+00
1.349165e+01	-3.410273e+00
1.356958e+01	-3.437656e+00
1.364795e+01	-3.464919e+00
1.372678e+01	-3.492501e+00
1.380607e+01	-3.520452e+00
1.388581e+01	-3.548027e+00
1.396602e+01	-3.576309e+00
1.404668e+01	-3.604290e+00
1.412782e+01	-3.632762e+00
1.420942e+01	-3.661263e+00
1.429149e+01	-3.689583e+00
1.437404e+01	-3.718271e+00
1.445706e+01	-3.747138e+00
1.454057e+01	-3.775832e+00
1.462455e+01	-3.805254e+00
1.470902e+01	-3.834790e+00
1.479398e+01	-3.864043e+00
1.487943e+01	-3.893315e+00
1.496537e+01	-3.923476e+00
1.505181e+01	-3.953207e+00
1.513875e+01	-3.982927e+00
1.522619e+01	-4.012967e+00
1.531414e+01	-4.043581e+00
1.540259e+01	-4.073703e+00
1.549156e+01	-4.104193e+00
1.558103e+01	-4.134756e+00
1.567103e+01	-4.165648e+00
1.576155e+01	-4.196578e+00
1.585258e+01	-4.227502e+00
1.594415e+01	-4.258843e+00
1.603624e+01	-4.290071e+00
1.612886e+01	-4.321364e+00
1.622202e+01	-4.353200e+00
1.631572e+01	-4.384896e+00
1.640996e+01	-4.416818e+00
1.650474e+01	-4.448783e+00
1.660008e+01	-4.481104e+00
1.669596e+01	-4.513036e+00
1.679239e+01	-4.545630e+00
1.688938e+01	-4.578328e+00
1.698694e+01	-4.610973e+00
1.708505e+01	-4.643611e+00
1.718373e+01	-4.676488e+00
1.728299e+01	-4.709556e+00
1.738281e+01	-4.742504e+00
1.748322e+01	-4.776002e+00
1.758420e+01	-4.809133e+00
1.768576e+01	-4.842950e+00
1.778792e+01	-4.876537e+00
1.789066e+01	-4.910202e+00
1.799399e+01	-4.944600e+00
1.809793e+01	-4.978531e+00
1.820246e+01	-5.012724e+00
1.830760e+01	-5.047060e+00
1.841334e+01	-5.080970e+00
1.851969e+01	-5.116252e+00
1.862666e+01	-5.150752e+00
1.873425e+01	-5.185441e+00
1.884246e+01	-5.220653e+00
1.895129e+01	-5.255599e+00
1.906075e+01	-5.290832e+00
1.917085e+01	-5.326217e+00
1.928158e+01	-5.361065e+00
1.939295e+01	-5.396993e+00
1.950496e+01	-5.432779e+00
1.961762e+01	-5.468391e+00
1.973093e+01	-5.504083e+00
1.984490e+01	-5.540286e+00
1.995952e+01	-5.576506e+00
2.007480e+01	-5.612435e+00
2.019076e+01	-5.649052e+00
2.030738e+01	-5.684974e+00
2.042467e+01	-5.721782e+00
2.054264e+01	-5.758623e+00
2.066130e+01	-5.795111e+00
2.078064e+01	-5.832363e+00
2.090066e+01	-5.869356e+00
2.102139e+01	-5.906255e+00
2.114280e+01	-5.943661e+00
2.126492e+01	-5.981097e+00
2.138775e+01	-6.018516e+00
2.151128e+01	-6.056144e+00
2.163553e+01	-6.093722e+00
2.176050e+01	-6.131406e+00
2.188619e+01	-6.169503e+00
2.201260e+01	-6.207229e+00
2.213974e+01	-6.245332e+00
2.226762e+01	-6.283696e+00
2.239624e+01	-6.321921e+00
2.252560e+01	-6.360476e+00
2.265571e+01	-6.398836e+00
2.278656e+01	-6.437603e+00
2.291818e+01	-6.476224e+00
2.305055e+01	-6.514888e+00
2.318369e+01	-6.554176e+00
2.331760e+01	-6.593113e+00
2.345228e+01	-6.632444e+00
2.358774e+01	-6.671261e+00
2.372398e+01	-6.710863e+00
2.386101e+01	-6.749968e+00
2.399883e+01	-6.789742e+00
2.413745e+01	-6.829249e+00
2.427686e+01	-6.869063e+00
2.441709e+01	-6.908463e+00
2.455812e+01	-6.948192e+00
2.469997e+01	-6.988658e+00
2.484263e+01	-7.028626e+00
2.498612e+01	-7.068410e+00
2.513044e+01	-7.108785e+00
2.527559e+01	-7.149226e+00
2.542158e+01	-7.189225e+00
2.556842e+01	-7.230667e+00
2.571610e+01	-7.271000e+00
2.586463e+01	-7.311364e+00
2.601403e+01	-7.352301e+00
2.616428e+01	-7.393305e+00
2.631541e+01	-7.434025e+00
2.646740e+01	-7.474988e+00
2.662028e+01	-7.516337e+00
2.677404e+01	-7.557422e+00
2.692868e+01	-7.598882e+00
2.708422e+01	-7.640098e+00
2.724066e+01	-7.681494e+00
2.739800e+01	-7.723034e+00
2.755625e+01	-7.764497e+00
2.771541e+01	-7.806165e+00
2.787550e+01	-7.847980e+00
2.803650e+01	-7.889963e+00
2.819844e+01	-7.931994e+00
2.836131e+01	-7.973965e+00
2.852513e+01	-8.015693e+00
2.868989e+01	-8.058703e+00
2.885560e+01	-8.100788e+00
2.902227e+01	-8.142963e+00
2.918990e+01	-8.185003e+00
2.935850e+01	-8.227691e+00
2.952807e+01	-8.270430e+00
2.969863e+01	-8.313018e+00
2.987016e+01	-8.355325e+00
3.004269e+01	-8.398327e+00
3.021622e+01	-8.440953e+00
3.039075e+01	-8.483798e+00
3.056628e+01	-8.526861e+00
3.074283e+01	-8.569959e+00
3.092040e+01	-8.612778e+00
3.109900e+01	-8.656005e+00
3.127862e+01	-8.699108e+00
3.145929e+01	-8.742735e+00
3.164099e+01	-8.786124e+00
3.182375e+01	-8.829321e+00
3.200756e+01	-8.873442e+00
3.219244e+01	-8.916412e+00
3.237838e+01	-8.960007e+00
3.256540e+01	-9.003902e+00
3.275349e+01	-9.047733e+00
3.294268e+01	-9.091728e+00
3.313295e+01	-9.136198e+00
3.332433e+01	-9.179204e+00
3.351681e+01	-9.223477e+00
3.371040e+01	-9.267544e+00
3.390511e+01	-9.311839e+00
3.410094e+01	-9.355915e+00
3.429791e+01	-9.400261e+00
3.449601e+01	-9.444706e+00
3.469526e+01	-9.489323e+00
3.489566e+01	-9.533083e+00
3.509721e+01	-9.578203e+00
3.529993e+01	-9.622973e+00
3.550382e+01	-9.666542e+00
3.570889e+01	-9.711805e+00
3.591515e+01	-9.756417e+00
3.612259e+01	-9.800542e+00
3.633123e+01	-9.845909e+00
3.654108e+01	-9.890874e+00
3.675214e+01	-9.936107e+00
3.696442e+01	-9.980964e+00
3.717792e+01	-1.002542e+01
3.739266e+01	-1.007075e+01
3.760864e+01	-1.011576e+01
3.782587e+01	-1.016089e+01
3.804435e+01	-1.020620e+01
3.826409e+01	-1.025200e+01
3.848510e+01	-1.029765e+01
3.870739e+01	-1.034202e+01
3.893096e+01	-1.038710e+01
3.915583e+01	-1.043329e+01
3.938199e+01	-1.047857e+01
3.960946e+01	-1.052437e+01
3.983824e+01	-1.056953e+01
4.006834e+01	-1.061519e+01
4.029978e+01	-1.066088e+01
4.053255e+01	-1.070678e+01
4.076666e+01	-1.075262e+01
4.100213e+01	-1.079850e+01
4.123896e+01	-1.084452e+01
4.147715e+01	-1.089029e+01
4.171672e+01	-1.093579e+01
4.195767e+01	-1.098266e+01
4.220002e+01	-1.102820e+01
4.244377e+01	-1.107419e+01
4.268892e+01	-1.112063e+01
4.293549e+01	-1.116737e+01
4.318348e+01	-1.121260e+01
4.343291e+01	-1.125906e+01
4.368377e+01	-1.130583e+01
4.393609e+01	-1.135273e+01
4.418986e+01	-1.139851e+01
4.444510e+01	-1.144491e+01
4.470182e+01	-1.149161e+01
4.496001e+01	-1.153747e+01
4.521970e+01	-1.158440e+01
4.548089e+01	-1.163092e+01
4.574358e+01	-1.167745e+01
4.600779e+01	-1.172411e+01
4.627353e+01	-1.177039e+01
4.654081e+01	-1.181706e+01
4.680963e+01	-1.186412e+01
4.708000e+01	-1.191100e+01
4.735193e+01	-1.195789e+01
4.762543e+01	-1.200453e+01
4.790051e+01	-1.205181e+01
4.817719e+01	-1.209837e+01
4.845545e+01	-1.214544e+01
4.873533e+01	-1.219211e+01
4.901682e+01	-1.223862e+01
4.929994e+01	-1.228669e+01
4.958470e+01	-1.233332e+01
4.987110e+01	-1.238102e+01
5.015915e+01	-1.242797e+01
5.044887e+01	-1.247477e+01
5.074026e+01	-1.252229e+01
5.103333e+01	-1.256922e+01
5.132810e+01	-1.261679e+01
5.162457e+01	-1.266441e+01
5.192275e+01	-1.271183e+01
5.222265e+01	-1.275803e+01
5.252429e+01	-1.280647e+01
5.282767e+01	-1.285381e+01
5.313280e+01	-1.290109e+01
5.343969e+01	-1.294826e+01
5.374836e+01	-1.299574e+01
5.405880e+01	-1.304441e+01
5.437105e+01	-1.309140e+01
5.468509e+01	-1.313923e+01
5.500095e+01	-1.318679e+01
5.531863e+01	-1.323434e+01
5.563815e+01	-1.328199e+01
5.595951e+01	-1.332995e+01
5.628273e+01	-1.337734e+01
5.660782e+01	-1.342502e+01
5.693479e+01	-1.347366e+01
5.726364e+01	-1.352034e+01
5.759439e+01	-1.356808e+01
5.792705e+01	-1.361604e+01
5.826164e+01	-1.366402e+01
5.859815e+01	-1.371190e+01
5.893662e+01	-1.375968e+01
5.927703e+01	-1.380772e+01
5.961941e+01	-1.385502e+01
5.996377e+01	-1.390372e+01
6.031012e+01	-1.395094e+01
6.065847e+01	-1.400028e+01
6.100883e+01	-1.404749e+01
6.136121e+01	-1.409581e+01
6.171563e+01	-1.414320e+01
6.207210e+01	-1.419240e+01
6.243063e+01	-1.424043e+01
6.279122e+01	-1.428883e+01
6.315390e+01	-1.433732e+01
6.351868e+01	-1.438439e+01
6.388556e+01	-1.443214e+01
6.425456e+01	-1.448159e+01
6.462569e+01	-1.452901e+01
6.499897e+01	-1.457672e+01
6.537440e+01	-1.462618e+01
6.575200e+01	-1.467467e+01
6.613178e+01	-1.472248e+01
6.651375e+01	-1.477134e+01
6.689793e+01	-1.481955e+01
6.728433e+01	-1.486768e+01
6.767297e+01	-1.491653e+01
6.806384e+01	-1.496502e+01
6.845698e+01	-1.501245e+01
6.885238e+01	-1.506176e+01
6.925007e+01	-1.510959e+01
6.965005e+01	-1.515789e+01
7.005235e+01	-1.520689e+01
7.045697e+01	-1.525602e+01
7.086393e+01	-1.530361e+01
7.127323e+01	-1.535200e+01
7.168490e+01	-1.540117e+01
7.209895e+01	-1.545059e+01
7.251539e+01	-1.549752e+01
7.293424e+01	-1.554730e+01
7.335551e+01	-1.559524e+01
7.377920e+01	-1.564387e+01
7.420535e+01	-1.569259e+01
7.463396e+01	-1.574150e+01
7.506504e+01	-1.578982e+01
7.549861e+01	-1.583922e+01
7.593469e+01	-1.588771e+01
7.637328e+01	-1.593764e+01
7.681441e+01	-1.598531e+01
7.725809e+01	-1.603356e+01
7.770433e+01	-1.608221e+01
7.815315e+01	-1.613206e+01
7.860456e+01	-1.618082e+01
7.905857e+01	-1.622971e+01
7.951521e+01	-1.627834e+01
7.997449e+01	-1.632693e+01
8.043642e+01	-1.637671e+01
8.090102e+01	-1.642507e+01
8.136830e+01	-1.647365e+01
8.183828e+01	-1.652241e+01
8.231097e+01	-1.657134e+01
8.278640e+01	-1.662038e+01
8.326457e+01	-1.667013e+01
8.374550e+01	-1.671852e+01
8.422921e+01	-1.676670e+01
8.471572e+01	-1.681549e+01
8.520503e+01	-1.686586e+01
8.569717e+01	-1.691353e+01
8.619215e+01	-1.696350e+01
8.669000e+01	-1.701293e+01
8.719071e+01	-1.706116e+01
8.769432e+01	-1.710986e+01
8.820084e+01	-1.715910e+01
8.871029e+01	-1.720746e+01
8.922267e+01	-1.725701e+01
8.973802e+01	-1.730586e+01
9.025634e+01	-1.735494e+01
9.077766e+01	-1.740508e+01
9.130199e+01	-1.745535e+01
9.182935e+01	-1.750418e+01
9.235975e+01	-1.755104e+01
9.289321e+01	-1.760151e+01
9.342976e+01	-1.765151e+01
9.396941e+01	-1.770022e+01
9.451217e+01	-1.775064e+01
9.505807e+01	-1.779782e+01
9.560712e+01	-1.784686e+01
9.615934e+01	-1.789723e+01
9.671476e+01	-1.794606e+01
9.727338e+01	-1.799499e+01
9.783522e+01	-1.804523e+01
9.840032e+01	-1.809354e+01
9.896867e+01	-1.814380e+01
9.954031e+01	-1.819163e+01
1.001153e+02	-1.824152e+01
1.006935e+02	-1.829196e+01
1.012751e+02	-1.834003e+01
1.018601e+02	-1.838915e+01
1.024484e+02	-1.843952e+01
1.030402e+02	-1.848741e+01
1.036353e+02	-1.853855e+01
1.042339e+02	-1.858628e+01
1.048360e+02	-1.863510e+01
1.054415e+02	-1.868583e+01
1.060505e+02	-1.873504e+01
1.066631e+02	-1.878261e+01
1.072791e+02	-1.883211e+01
1.078988e+02	-1.888268e+01
1.085220e+02	-1.893285e+01
1.091488e+02	-1.898210e+01
1.097793e+02	-1.903210e+01
1.104133e+02	-1.908039e+01
1.110511e+02	-1.913024e+01
1.116925e+02	-1.917972e+01
1.123376e+02	-1.922877e+01
1.129865e+02	-1.927912e+01
1.136391e+02	-1.932800e+01
1.142955e+02	-1.937777e+01
1.149556e+02	-1.942764e+01
1.156196e+02	-1.947605e+01
1.162874e+02	-1.952511e+01
1.169591e+02	-1.957537e+01
1.176347e+02	-1.962540e+01
1.183141e+02	-1.967355e+01
1.189975e+02	-1.972260e+01
1.196848e+02	-1.977161e+01
1.203761e+02	-1.982173e+01
1.210714e+02	-1.987222e+01
1.217707e+02	-1.992118e+01
1.224740e+02	-1.997065e+01
1.231814e+02	-2.002091e+01
1.238929e+02	-2.007130e+01
1.246085e+02	-2.011898e+01
1.253283e+02	-2.016984e+01
1.260522e+02	-2.021942e+01
1.267802e+02	-2.026927e+01
1.275125e+02	-2.031868e+01
1.282490e+02	-2.036507e+01
1.289898e+02	-2.041770e+01
1.297348e+02	-2.046684e+01
1.304842e+02	-2.051584e+01
1.312378e+02	-2.056420e+01
1.319959e+02	-2.061609e+01
1.327583e+02	-2.066606e+01
1.335251e+02	-2.071377e+01
1.342963e+02	-2.076543e+01
1.350720e+02	-2.081515e+01
1.358522e+02	-2.086336e+01
1.366368e+02	-2.091211e+01
1.374260e+02	-2.096456e+01
1.382198e+02	-2.101036e+01
1.390182e+02	-2.106135e+01
1.398211e+02	-2.111176e+01
1.406287e+02	-2.116176e+01
1.414410e+02	-2.121190e+01
1.422579e+02	-2.126178e+01
1.430796e+02	-2.131086e+01
1.439060e+02	-2.135840e+01
1.447372e+02	-2.141063e+01
1.455732e+02	-2.145875e+01
1.464141e+02	-2.150842e+01
1.472597e+02	-2.155921e+01
1.481103e+02	-2.161090e+01
1.489658e+02	-2.165832e+01
1.498262e+02	-2.170695e+01
1.506916e+02	-2.175840e+01
1.515620e+02	-2.180815e+01
1.524374e+02	-2.185831e+01
1.533179e+02	-2.190593e+01
1.542034e+02	-2.195646e+01
1.550941e+02	-2.200710e+01
1.559899e+02	-2.205552e+01
1.568909e+02	-2.210528e+01
1.577971e+02	-2.215507e+01
1.587085e+02	-2.220812e+01
1.596252e+02	-2.225500e+01
1.605472e+02	-2.230440e+01
1.614745e+02	-2.235449e+01
1.624072e+02	-2.240428e+01
1.633453e+02	-2.245329e+01
1.642887e+02	-2.250574e+01
1.652377e+02	-2.255482e+01
1.661921e+02	-2.260345e+01
1.671520e+02	-2.265337e+01
1.681175e+02	-2.270286e+01
1.690885e+02	-2.275292e+01
1.700651e+02	-2.280408e+01
1.710474e+02	-2.285223e+01
1.720354e+02	-2.290108e+01
1.730291e+02	-2.295135e+01
1.740285e+02	-2.300189e+01
1.750337e+02	-2.305225e+01
1.760446e+02	-2.310076e+01
1.770615e+02	-2.315265e+01
1.780842e+02	-2.320325e+01
1.791128e+02	-2.325143e+01
1.801473e+02	-2.330084e+01
1.811878e+02	-2.335141e+01
1.822344e+02	-2.340150e+01
1.832870e+02	-2.345169e+01
1.843456e+02	-2.349981e+01
1.854104e+02	-2.354958e+01
1.864813e+02	-2.359745e+01
1.875584e+02	-2.364848e+01
1.886418e+02	-2.370038e+01
1.897313e+02	-2.374827e+01
1.908272e+02	-2.379980e+01
1.919294e+02	-2.384866e+01
1.930380e+02	-2.389916e+01
1.941530e+02	-2.394859e+01
1.952744e+02	-2.399791e+01
1.964023e+02	-2.404523e+01
1.975367e+02	-2.409827e+01
1.986777e+02	-2.414550e+01
1.998252e+02	-2.419812e+01
2.009794e+02	-2.424645e+01
2.021403e+02	-2.429871e+01
2.033078e+02	-2.434549e+01
2.044821e+02	-2.439941e+01
2.056632e+02	-2.444886e+01
2.068511e+02	-2.449574e+01
2.080459e+02	-2.454756e+01
2.092475e+02	-2.459716e+01
2.104561e+02	-2.464508e+01
2.116717e+02	-2.469918e+01
2.128943e+02	-2.474740e+01
2.141240e+02	-2.479698e+01
2.153608e+02	-2.484530e+01
2.166047e+02	-2.489610e+01
2.178558e+02	-2.494794e+01
2.191141e+02	-2.499426e+01
2.203797e+02	-2.504346e+01
2.216526e+02	-2.509642e+01
2.229329e+02	-2.514641e+01
2.242205e+02	-2.519750e+01
2.255156e+02	-2.524458e+01
2.268182e+02	-2.529841e+01
2.281283e+02	-2.534455e+01
2.294459e+02	-2.539744e+01
2.307712e+02	-2.544610e+01
2.321041e+02	-2.549775e+01
2.334447e+02	-2.554290e+01
2.347931e+02	-2.559781e+01
2.361493e+02	-2.564549e+01
2.375133e+02	-2.569486e+01
2.388851e+02	-2.574422e+01
2.402649e+02	-2.579365e+01
2.416527e+02	-2.584274e+01
2.430484e+02	-2.589174e+01
2.444523e+02	-2.594733e+01
2.458642e+02	-2.599725e+01
2.472843e+02	-2.604391e+01
2.487126e+02	-2.609348e+01
2.501492e+02	-2.614577e+01
2.515940e+02	-2.619248e+01
2.530472e+02	-2.624364e+01
2.545088e+02	-2.629292e+01
2.559789e+02	-2.634829e+01
2.574574e+02	-2.639304e+01
2.589444e+02	-2.644389e+01
2.604401e+02	-2.649239e+01
2.619444e+02	-2.654209e+01
2.634574e+02	-2.659448e+01
2.649791e+02	-2.664592e+01
2.665096e+02	-2.669427e+01
2.680489e+02	-2.674615e+01
2.695972e+02	-2.679416e+01
2.711544e+02	-2.684464e+01
2.727205e+02	-2.689251e+01
2.742958e+02	-2.694456e+01
2.758801e+02	-2.699215e+01
2.774736e+02	-2.704168e+01
2.790762e+02	-2.709554e+01
2.806882e+02	-2.714507e+01
2.823094e+02	-2.719715e+01
2.839400e+02	-2.724396e+01
2.855800e+02	-2.729248e+01
2.872295e+02	-2.734529e+01
2.888886e+02	-2.739256e+01
2.905572e+02	-2.744423e+01
2.922354e+02	-2.749335e+01
2.939234e+02	-2.754144e+01
2.956211e+02	-2.759373e+01
2.973286e+02	-2.764284e+01
2.990459e+02	-2.769292e+01
3.007732e+02	-2.774985e+01
3.025104e+02	-2.779602e+01
3.042577e+02	-2.783955e+01
3.060151e+02	-2.789604e+01
3.077826e+02	-2.794343e+01
3.095604e+02	-2.799153e+01
3.113484e+02	-2.804483e+01
3.131467e+02	-2.809783e+01
3.149554e+02	-2.814479e+01
3.167746e+02	-2.819667e+01
3.186043e+02	-2.824229e+01
3.204445e+02	-2.829462e+01
3.222954e+02	-2.834418e+01
3.241570e+02	-2.839838e+01
3.260293e+02	-2.844122e+01
3.279124e+02	-2.849329e+01
3.298064e+02	-2.854310e+01
3.317114e+02	-2.859492e+01
3.336273e+02	-2.864728e+01
3.355544e+02	-2.869558e+01
3.374925e+02	-2.874329e+01
3.394418e+02	-2.879392e+01
3.414024e+02	-2.884411e+01
3.433744e+02	-2.889870e+01
3.453577e+02	-2.894419e+01
3.473525e+02	-2.899558e+01
3.493588e+02	-2.904649e+01
3.513766e+02	-2.909222e+01
3.534062e+02	-2.914225e+01
3.554474e+02	-2.919692e+01
3.575005e+02	-2.924382e+01
3.595654e+02	-2.929258e+01
3.616422e+02	-2.934787e+01
3.637311e+02	-2.939753e+01
3.658320e+02	-2.944490e+01
3.679450e+02	-2.949442e+01
3.700702e+02	-2.954561e+01
3.722077e+02	-2.959381e+01
3.743576e+02	-2.964703e+01
3.765199e+02	-2.969562e+01
3.786946e+02	-2.974536e+01
3.808820e+02	-2.979602e+01
3.830819e+02	-2.984998e+01
3.852946e+02	-2.989751e+01
3.875200e+02	-2.994553e+01
3.897583e+02	-2.999795e+01
3.920096e+02	-3.004359e+01
3.942738e+02	-3.009949e+01
3.965511e+02	-3.014673e+01
3.988416e+02	-3.019646e+01
4.011452e+02	-3.024759e+01
4.034622e+02	-3.029432e+01
4.057926e+02	-3.034319e+01
4.081365e+02	-3.039687e+01
4.104938e+02	-3.044806e+01
4.128648e+02	-3.049873e+01
4.152495e+02	-3.055043e+01
4.176480e+02	-3.060029e+01
4.200603e+02	-3.064641e+01
4.224866e+02	-3.069768e+01
4.249268e+02	-3.075630e+01
4.273812e+02	-3.079737e+01
4.298497e+02	-3.085335e+01
4.323325e+02	-3.090091e+01
4.348297e+02	-3.094643e+01
4.373412e+02	-3.100581e+01
4.398673e+02	-3.105188e+01
4.424079e+02	-3.109892e+01
4.449633e+02	-3.115122e+01
4.475334e+02	-3.119671e+01
4.501183e+02	-3.124782e+01
4.527182e+02	-3.130538e+01
4.553330e+02	-3.135448e+01
4.579630e+02	-3.139881e+01
4.606082e+02	-3.144806e+01
4.632687e+02	-3.149893e+01
4.659445e+02	-3.154929e+01
4.686358e+02	-3.160136e+01
4.713426e+02	-3.165081e+01
4.740650e+02	-3.169991e+01
4.768032e+02	-3.174912e+01
4.795572e+02	-3.180878e+01
4.823271e+02	-3.185157e+01
4.851130e+02	-3.189783e+01
4.879150e+02	-3.195636e+01
4.907332e+02	-3.200251e+01
4.935676e+02	-3.205231e+01
4.964185e+02	-3.210658e+01
4.992858e+02	-3.215381e+01
5.021696e+02	-3.219924e+01
5.050701e+02	-3.225559e+01
5.079874e+02	-3.230518e+01
5.109215e+02	-3.235306e+01
5.138726e+02	-3.240231e+01
5.168407e+02	-3.245021e+01
5.198259e+02	-3.250973e+01
5.228284e+02	-3.255464e+01
5.258482e+02	-3.260922e+01
5.288855e+02	-3.265276e+01
5.319403e+02	-3.270851e+01
5.350128e+02	-3.276338e+01
5.381030e+02	-3.280823e+01
5.412111e+02	-3.285818e+01
5.443371e+02	-3.291357e+01
5.474812e+02	-3.296056e+01
5.506434e+02	-3.301168e+01
5.538239e+02	-3.306366e+01
5.570228e+02	-3.310722e+01
5.602401e+02	-3.315703e+01
5.634760e+02	-3.320698e+01
5.667306e+02	-3.326234e+01
5.700040e+02	-3.331382e+01
5.732964e+02	-3.335762e+01
5.766077e+02	-3.342059e+01
5.799382e+02	-3.346709e+01
5.832879e+02	-3.351229e+01
5.866569e+02	-3.356222e+01
5.900454e+02	-3.360204e+01
5.934535e+02	-3.366731e+01
5.968813e+02	-3.371126e+01
6.003288e+02	-3.376058e+01
6.037963e+02	-3.381074e+01
6.072838e+02	-3.386201e+01
6.107914e+02	-3.392035e+01
6.143194e+02	-3.396507e+01
6.178676e+02	-3.401637e+01
6.214364e+02	-3.406529e+01
6.250258e+02	-3.410725e+01
6.286359e+02	-3.416132e+01
6.322669e+02	-3.421131e+01
6.359189e+02	-3.426253e+01
6.395919e+02	-3.432265e+01
6.432862e+02	-3.437263e+01
6.470017e+02	-3.440860e+01
6.507388e+02	-3.446557e+01
6.544974e+02	-3.452203e+01
6.582778e+02	-3.455919e+01
6.620800e+02	-3.461961e+01
6.659041e+02	-3.466618e+01
6.697504e+02	-3.472561e+01
6.736188e+02	-3.477447e+01
6.775096e+02	-3.482482e+01
6.814229e+02	-3.487302e+01
6.853587e+02	-3.491923e+01
6.893173e+02	-3.496122e+01
6.932988e+02	-3.502477e+01
6.973033e+02	-3.508307e+01
7.013309e+02	-3.511916e+01
