Frequency(Hz)	Magnitude(dB)
1.000000e+01	-1.818232e-05
1.005776e+01	-1.839297e-05
1.011585e+01	-1.860606e-05
1.017428e+01	-1.882162e-05
1.023305e+01	-1.903967e-05
1.029215e+01	-1.926025e-05
1.035160e+01	-1.948338e-05
1.041139e+01	-1.970910e-05
1.047153e+01	-1.993744e-05
1.053201e+01	-2.016842e-05
1.059284e+01	-2.040207e-05
1.065403e+01	-2.063844e-05
1.071556e+01	-2.087754e-05
1.077746e+01	-2.111941e-05
1.083971e+01	-2.136408e-05
1.090232e+01	-2.161159e-05
1.096529e+01	-2.186197e-05
1.102862e+01	-2.211524e-05
1.109232e+01	-2.237145e-05
1.115639e+01	-2.263063e-05
1.122083e+01	-2.289282e-05
1.128564e+01	-2.315803e-05
1.135083e+01	-2.342633e-05
1.141639e+01	-2.369773e-05
1.148233e+01	-2.397227e-05
1.154865e+01	-2.424999e-05
1.161536e+01	-2.453094e-05
1.168245e+01	-2.481513e-05
1.174992e+01	-2.510262e-05
1.181779e+01	-2.539344e-05
1.188605e+01	-2.568763e-05
1.195470e+01	-2.598523e-05
1.202375e+01	-2.628627e-05
1.209320e+01	-2.659081e-05
1.216305e+01	-2.689887e-05
1.223330e+01	-2.721050e-05
1.230396e+01	-2.752574e-05
1.237503e+01	-2.784463e-05
1.244651e+01	-2.816722e-05
1.251840e+01	-2.849354e-05
1.259070e+01	-2.882365e-05
1.266343e+01	-2.915758e-05
1.273657e+01	-2.949537e-05
1.281014e+01	-2.983708e-05
1.288413e+01	-3.018275e-05
1.295855e+01	-3.053243e-05
1.303339e+01	-3.088615e-05
1.310867e+01	-3.124398e-05
1.318439e+01	-3.160595e-05
1.326054e+01	-3.197211e-05
1.333713e+01	-3.234251e-05
1.341417e+01	-3.271721e-05
1.349165e+01	-3.309625e-05
1.356958e+01	-3.347967e-05
1.364795e+01	-3.386754e-05
1.372678e+01	-3.425991e-05
1.380607e+01	-3.465682e-05
1.388581e+01	-3.505832e-05
1.396602e+01	-3.546448e-05
1.404668e+01	-3.587535e-05
1.412782e+01	-3.629097e-05
1.420942e+01	-3.671141e-05
1.429149e+01	-3.713672e-05
1.437404e+01	-3.756696e-05
1.445706e+01	-3.800218e-05
1.454057e+01	-3.844244e-05
1.462455e+01	-3.888781e-05
1.470902e+01	-3.933833e-05
1.479398e+01	-3.979407e-05
1.487943e+01	-4.025510e-05
1.496537e+01	-4.072146e-05
1.505181e+01	-4.119323e-05
1.513875e+01	-4.167046e-05
1.522619e+01	-4.215322e-05
1.531414e+01	-4.264158e-05
1.540259e+01	-4.313559e-05
1.549156e+01	-4.363533e-05
1.558103e+01	-4.414085e-05
1.567103e+01	-4.465223e-05
1.576155e+01	-4.516954e-05
1.585258e+01	-4.569284e-05
1.594415e+01	-4.622220e-05
1.603624e+01	-4.675769e-05
1.612886e+01	-4.729939e-05
1.622202e+01	-4.784736e-05
1.631572e+01	-4.840169e-05
1.640996e+01	-4.896243e-05
1.650474e+01	-4.952967e-05
1.660008e+01	-5.010348e-05
1.669596e+01	-5.068394e-05
1.679239e+01	-5.127113e-05
1.688938e+01	-5.186511e-05
1.698694e+01	-5.246598e-05
1.708505e+01	-5.307381e-05
1.718373e+01	-5.368868e-05
1.728299e+01	-5.431068e-05
1.738281e+01	-5.493988e-05
1.748322e+01	-5.557637e-05
1.758420e+01	-5.622023e-05
1.768576e+01	-5.687155e-05
1.778792e+01	-5.753042e-05
1.789066e+01	-5.819692e-05
1.799399e+01	-5.887115e-05
1.809793e+01	-5.955318e-05
1.820246e+01	-6.024312e-05
1.830760e+01	-6.094104e-05
1.841334e+01	-6.164706e-05
1.851969e+01	-6.236125e-05
1.862666e+01	-6.308372e-05
1.873425e+01	-6.381456e-05
1.884246e+01	-6.455386e-05
1.895129e+01	-6.530173e-05
1.906075e+01	-6.605826e-05
1.917085e+01	-6.682356e-05
1.928158e+01	-6.759772e-05
1.939295e+01	-6.838086e-05
1.950496e+01	-6.917306e-05
1.961762e+01	-6.997444e-05
1.973093e+01	-7.078511e-05
1.984490e+01	-7.160517e-05
1.995952e+01	-7.243473e-05
2.007480e+01	-7.327390e-05
2.019076e+01	-7.412279e-05
2.030738e+01	-7.498151e-05
2.042467e+01	-7.585019e-05
2.054264e+01	-7.672893e-05
2.066130e+01	-7.761784e-05
2.078064e+01	-7.851706e-05
2.090066e+01	-7.942670e-05
2.102139e+01	-8.034687e-05
2.114280e+01	-8.127770e-05
2.126492e+01	-8.221932e-05
2.138775e+01	-8.317184e-05
2.151128e+01	-8.413540e-05
2.163553e+01	-8.511012e-05
2.176050e+01	-8.609614e-05
2.188619e+01	-8.709358e-05
2.201260e+01	-8.810257e-05
2.213974e+01	-8.912325e-05
2.226762e+01	-9.015576e-05
2.239624e+01	-9.120023e-05
2.252560e+01	-9.225680e-05
2.265571e+01	-9.332560e-05
2.278656e+01	-9.440680e-05
2.291818e+01	-9.550051e-05
2.305055e+01	-9.660690e-05
2.318369e+01	-9.772611e-05
2.331760e+01	-9.885828e-05
2.345228e+01	-1.000036e-04
2.358774e+01	-1.011621e-04
2.372398e+01	-1.023341e-04
2.386101e+01	-1.035197e-04
2.399883e+01	-1.047189e-04
2.413745e+01	-1.059321e-04
2.427686e+01	-1.071594e-04
2.441709e+01	-1.084008e-04
2.455812e+01	-1.096567e-04
2.469997e+01	-1.109270e-04
2.484263e+01	-1.122121e-04
2.498612e+01	-1.135121e-04
2.513044e+01	-1.148272e-04
2.527559e+01	-1.161575e-04
2.542158e+01	-1.175032e-04
2.556842e+01	-1.188645e-04
2.571610e+01	-1.202415e-04
2.586463e+01	-1.216345e-04
2.601403e+01	-1.230437e-04
2.616428e+01	-1.244692e-04
2.631541e+01	-1.259112e-04
2.646740e+01	-1.273698e-04
2.662028e+01	-1.288454e-04
2.677404e+01	-1.303381e-04
2.692868e+01	-1.318481e-04
2.708422e+01	-1.333756e-04
2.724066e+01	-1.349208e-04
2.739800e+01	-1.364838e-04
2.755625e+01	-1.380650e-04
2.771541e+01	-1.396645e-04
2.787550e+01	-1.412825e-04
2.803650e+01	-1.429193e-04
2.819844e+01	-1.445750e-04
2.836131e+01	-1.462499e-04
2.852513e+01	-1.479443e-04
2.868989e+01	-1.496582e-04
2.885560e+01	-1.513920e-04
2.902227e+01	-1.531459e-04
2.918990e+01	-1.549201e-04
2.935850e+01	-1.567149e-04
2.952807e+01	-1.585304e-04
2.969863e+01	-1.603670e-04
2.987016e+01	-1.622249e-04
3.004269e+01	-1.641042e-04
3.021622e+01	-1.660054e-04
3.039075e+01	-1.679286e-04
3.056628e+01	-1.698740e-04
3.074283e+01	-1.718420e-04
3.092040e+01	-1.738328e-04
3.109900e+01	-1.758467e-04
3.127862e+01	-1.778839e-04
3.145929e+01	-1.799447e-04
3.164099e+01	-1.820294e-04
3.182375e+01	-1.841382e-04
3.200756e+01	-1.862714e-04
3.219244e+01	-1.884294e-04
3.237838e+01	-1.906123e-04
3.256540e+01	-1.928206e-04
3.275349e+01	-1.950544e-04
3.294268e+01	-1.973141e-04
3.313295e+01	-1.996000e-04
3.332433e+01	-2.019124e-04
3.351681e+01	-2.042515e-04
3.371040e+01	-2.066178e-04
3.390511e+01	-2.090115e-04
3.410094e+01	-2.114328e-04
3.429791e+01	-2.138823e-04
3.449601e+01	-2.163601e-04
3.469526e+01	-2.188667e-04
3.489566e+01	-2.214022e-04
3.509721e+01	-2.239672e-04
3.529993e+01	-2.265618e-04
3.550382e+01	-2.291865e-04
3.570889e+01	-2.318416e-04
3.591515e+01	-2.345275e-04
3.612259e+01	-2.372445e-04
3.633123e+01	-2.399930e-04
3.654108e+01	-2.427733e-04
3.675214e+01	-2.455858e-04
3.696442e+01	-2.484309e-04
3.717792e+01	-2.513090e-04
3.739266e+01	-2.542204e-04
3.760864e+01	-2.571655e-04
3.782587e+01	-2.601447e-04
3.804435e+01	-2.631585e-04
3.826409e+01	-2.662072e-04
3.848510e+01	-2.692911e-04
3.870739e+01	-2.724109e-04
3.893096e+01	-2.755667e-04
3.915583e+01	-2.787591e-04
3.938199e+01	-2.819885e-04
3.960946e+01	-2.852553e-04
3.983824e+01	-2.885600e-04
4.006834e+01	-2.919029e-04
4.029978e+01	-2.952846e-04
4.053255e+01	-2.987054e-04
4.076666e+01	-3.021659e-04
4.100213e+01	-3.056664e-04
4.123896e+01	-3.092075e-04
4.147715e+01	-3.127897e-04
4.171672e+01	-3.164133e-04
4.195767e+01	-3.200789e-04
4.220002e+01	-3.237870e-04
4.244377e+01	-3.275380e-04
4.268892e+01	-3.313325e-04
4.293549e+01	-3.351709e-04
4.318348e+01	-3.390538e-04
4.343291e+01	-3.429817e-04
4.368377e+01	-3.469550e-04
4.393609e+01	-3.509744e-04
4.418986e+01	-3.550404e-04
4.444510e+01	-3.591535e-04
4.470182e+01	-3.633142e-04
4.496001e+01	-3.675231e-04
4.521970e+01	-3.717808e-04
4.548089e+01	-3.760878e-04
4.574358e+01	-3.804447e-04
4.600779e+01	-3.848521e-04
4.627353e+01	-3.893105e-04
4.654081e+01	-3.938205e-04
4.680963e+01	-3.983828e-04
4.708000e+01	-4.029980e-04
4.735193e+01	-4.076666e-04
4.762543e+01	-4.123893e-04
4.790051e+01	-4.171668e-04
4.817719e+01	-4.219995e-04
4.845545e+01	-4.268883e-04
4.873533e+01	-4.318336e-04
4.901682e+01	-4.368363e-04
4.929994e+01	-4.418969e-04
4.958470e+01	-4.470161e-04
4.987110e+01	-4.521947e-04
5.015915e+01	-4.574332e-04
5.044887e+01	-4.627324e-04
5.074026e+01	-4.680930e-04
5.103333e+01	-4.735157e-04
5.132810e+01	-4.790012e-04
5.162457e+01	-4.845502e-04
5.192275e+01	-4.901636e-04
5.222265e+01	-4.958419e-04
5.252429e+01	-5.015861e-04
5.282767e+01	-5.073967e-04
5.313280e+01	-5.132747e-04
5.343969e+01	-5.192208e-04
5.374836e+01	-5.252358e-04
5.405880e+01	-5.313204e-04
5.437105e+01	-5.374755e-04
5.468509e+01	-5.437019e-04
5.500095e+01	-5.500004e-04
5.531863e+01	-5.563719e-04
5.563815e+01	-5.628172e-04
5.595951e+01	-5.693372e-04
5.628273e+01	-5.759327e-04
5.660782e+01	-5.826046e-04
5.693479e+01	-5.893538e-04
5.726364e+01	-5.961811e-04
5.759439e+01	-6.030876e-04
5.792705e+01	-6.100740e-04
5.826164e+01	-6.171414e-04
5.859815e+01	-6.242906e-04
5.893662e+01	-6.315227e-04
5.927703e+01	-6.388385e-04
5.961941e+01	-6.462391e-04
5.996377e+01	-6.537254e-04
6.031012e+01	-6.612984e-04
6.065847e+01	-6.689591e-04
6.100883e+01	-6.767086e-04
6.136121e+01	-6.845478e-04
6.171563e+01	-6.924779e-04
6.207210e+01	-7.004998e-04
6.243063e+01	-7.086146e-04
6.279122e+01	-7.168234e-04
6.315390e+01	-7.251273e-04
6.351868e+01	-7.335274e-04
6.388556e+01	-7.420248e-04
6.425456e+01	-7.506206e-04
6.462569e+01	-7.593160e-04
6.499897e+01	-7.681121e-04
6.537440e+01	-7.770101e-04
6.575200e+01	-7.860112e-04
6.613178e+01	-7.951165e-04
6.651375e+01	-8.043273e-04
6.689793e+01	-8.136447e-04
6.728433e+01	-8.230701e-04
6.767297e+01	-8.326047e-04
6.806384e+01	-8.422497e-04
6.845698e+01	-8.520065e-04
6.885238e+01	-8.618762e-04
6.925007e+01	-8.718603e-04
6.965005e+01	-8.819600e-04
7.005235e+01	-8.921767e-04
7.045697e+01	-9.025118e-04
7.086393e+01	-9.129665e-04
7.127323e+01	-9.235423e-04
7.168490e+01	-9.342407e-04
7.209895e+01	-9.450629e-04
7.251539e+01	-9.560105e-04
7.293424e+01	-9.670850e-04
7.335551e+01	-9.782876e-04
7.377920e+01	-9.896201e-04
7.420535e+01	-1.001084e-03
7.463396e+01	-1.012680e-03
7.506504e+01	-1.024411e-03
7.549861e+01	-1.036278e-03
7.593469e+01	-1.048282e-03
7.637328e+01	-1.060425e-03
7.681441e+01	-1.072709e-03
7.725809e+01	-1.085135e-03
7.770433e+01	-1.097705e-03
7.815315e+01	-1.110420e-03
7.860456e+01	-1.123283e-03
7.905857e+01	-1.136295e-03
7.951521e+01	-1.149458e-03
7.997449e+01	-1.162773e-03
8.043642e+01	-1.176242e-03
8.090102e+01	-1.189867e-03
8.136830e+01	-1.203650e-03
8.183828e+01	-1.217593e-03
8.231097e+01	-1.231697e-03
8.278640e+01	-1.245964e-03
8.326457e+01	-1.260397e-03
8.374550e+01	-1.274997e-03
8.422921e+01	-1.289766e-03
8.471572e+01	-1.304706e-03
8.520503e+01	-1.319819e-03
8.569717e+01	-1.335107e-03
8.619215e+01	-1.350572e-03
8.669000e+01	-1.366217e-03
8.719071e+01	-1.382042e-03
8.769432e+01	-1.398051e-03
8.820084e+01	-1.414245e-03
8.871029e+01	-1.430627e-03
8.922267e+01	-1.447198e-03
8.973802e+01	-1.463962e-03
9.025634e+01	-1.480919e-03
9.077766e+01	-1.498073e-03
9.130199e+01	-1.515426e-03
9.182935e+01	-1.532979e-03
9.235975e+01	-1.550736e-03
9.289321e+01	-1.568698e-03
9.342976e+01	-1.586869e-03
9.396941e+01	-1.605250e-03
9.451217e+01	-1.623843e-03
9.505807e+01	-1.642653e-03
9.560712e+01	-1.661679e-03
9.615934e+01	-1.680927e-03
9.671476e+01	-1.700397e-03
9.727338e+01	-1.720093e-03
9.783522e+01	-1.740016e-03
9.840032e+01	-1.760171e-03
9.896867e+01	-1.780559e-03
9.954031e+01	-1.801183e-03
1.001153e+02	-1.822045e-03
1.006935e+02	-1.843150e-03
1.012751e+02	-1.864499e-03
1.018601e+02	-1.886095e-03
1.024484e+02	-1.907941e-03
1.030402e+02	-1.930040e-03
1.036353e+02	-1.952395e-03
1.042339e+02	-1.975009e-03
1.048360e+02	-1.997884e-03
1.054415e+02	-2.021025e-03
1.060505e+02	-2.044434e-03
1.066631e+02	-2.068113e-03
1.072791e+02	-2.092067e-03
1.078988e+02	-2.116298e-03
1.085220e+02	-2.140810e-03
1.091488e+02	-2.165606e-03
1.097793e+02	-2.190689e-03
1.104133e+02	-2.216062e-03
1.110511e+02	-2.241729e-03
1.116925e+02	-2.267693e-03
1.123376e+02	-2.293958e-03
1.129865e+02	-2.320527e-03
1.136391e+02	-2.347404e-03
1.142955e+02	-2.374592e-03
1.149556e+02	-2.402094e-03
1.156196e+02	-2.429915e-03
1.162874e+02	-2.458059e-03
1.169591e+02	-2.486528e-03
1.176347e+02	-2.515327e-03
1.183141e+02	-2.544459e-03
1.189975e+02	-2.573928e-03
1.196848e+02	-2.603739e-03
1.203761e+02	-2.633895e-03
1.210714e+02	-2.664400e-03
1.217707e+02	-2.695258e-03
1.224740e+02	-2.726473e-03
1.231814e+02	-2.758050e-03
1.238929e+02	-2.789993e-03
1.246085e+02	-2.822305e-03
1.253283e+02	-2.854991e-03
1.260522e+02	-2.888056e-03
1.267802e+02	-2.921504e-03
1.275125e+02	-2.955339e-03
1.282490e+02	-2.989565e-03
1.289898e+02	-3.024188e-03
1.297348e+02	-3.059212e-03
1.304842e+02	-3.094641e-03
1.312378e+02	-3.130480e-03
1.319959e+02	-3.166734e-03
1.327583e+02	-3.203408e-03
1.335251e+02	-3.240507e-03
1.342963e+02	-3.278035e-03
1.350720e+02	-3.315997e-03
1.358522e+02	-3.354399e-03
1.366368e+02	-3.393245e-03
1.374260e+02	-3.432541e-03
1.382198e+02	-3.472292e-03
1.390182e+02	-3.512503e-03
1.398211e+02	-3.553180e-03
1.406287e+02	-3.594327e-03
1.414410e+02	-3.635951e-03
1.422579e+02	-3.678057e-03
1.430796e+02	-3.720650e-03
1.439060e+02	-3.763736e-03
1.447372e+02	-3.807321e-03
1.455732e+02	-3.851410e-03
1.464141e+02	-3.896009e-03
1.472597e+02	-3.941125e-03
1.481103e+02	-3.986763e-03
1.489658e+02	-4.032929e-03
1.498262e+02	-4.079630e-03
1.506916e+02	-4.126871e-03
1.515620e+02	-4.174659e-03
1.524374e+02	-4.223000e-03
1.533179e+02	-4.271900e-03
1.542034e+02	-4.321366e-03
1.550941e+02	-4.371405e-03
1.559899e+02	-4.422023e-03
1.568909e+02	-4.473227e-03
1.577971e+02	-4.525024e-03
1.587085e+02	-4.577420e-03
1.596252e+02	-4.630422e-03
1.605472e+02	-4.684038e-03
1.614745e+02	-4.738274e-03
1.624072e+02	-4.793137e-03
1.633453e+02	-4.848636e-03
1.642887e+02	-4.904777e-03
1.652377e+02	-4.961568e-03
1.661921e+02	-5.019015e-03
1.671520e+02	-5.077128e-03
1.681175e+02	-5.135913e-03
1.690885e+02	-5.195378e-03
1.700651e+02	-5.255531e-03
1.710474e+02	-5.316381e-03
1.720354e+02	-5.377934e-03
1.730291e+02	-5.440200e-03
1.740285e+02	-5.503186e-03
1.750337e+02	-5.566901e-03
1.760446e+02	-5.631353e-03
1.770615e+02	-5.696551e-03
1.780842e+02	-5.762503e-03
1.791128e+02	-5.829218e-03
1.801473e+02	-5.896705e-03
1.811878e+02	-5.964973e-03
1.822344e+02	-6.034030e-03
1.832870e+02	-6.103887e-03
1.843456e+02	-6.174552e-03
1.854104e+02	-6.246034e-03
1.864813e+02	-6.318343e-03
1.875584e+02	-6.391489e-03
1.886418e+02	-6.465480e-03
1.897313e+02	-6.540328e-03
1.908272e+02	-6.616042e-03
1.919294e+02	-6.692631e-03
1.930380e+02	-6.770106e-03
1.941530e+02	-6.848478e-03
1.952744e+02	-6.927756e-03
1.964023e+02	-7.007950e-03
1.975367e+02	-7.089073e-03
1.986777e+02	-7.171134e-03
1.998252e+02	-7.254144e-03
2.009794e+02	-7.338113e-03
2.021403e+02	-7.423055e-03
2.033078e+02	-7.508978e-03
2.044821e+02	-7.595895e-03
2.056632e+02	-7.683817e-03
2.068511e+02	-7.772757e-03
2.080459e+02	-7.862724e-03
2.092475e+02	-7.953732e-03
2.104561e+02	-8.045793e-03
2.116717e+02	-8.138918e-03
2.128943e+02	-8.233119e-03
2.141240e+02	-8.328410e-03
2.153608e+02	-8.424803e-03
2.166047e+02	-8.522311e-03
2.178558e+02	-8.620946e-03
2.191141e+02	-8.720721e-03
2.203797e+02	-8.821650e-03
2.216526e+02	-8.923746e-03
2.229329e+02	-9.027022e-03
2.242205e+02	-9.131492e-03
2.255156e+02	-9.237170e-03
2.268182e+02	-9.344069e-03
2.281283e+02	-9.452204e-03
2.294459e+02	-9.561590e-03
2.307712e+02	-9.672239e-03
2.321041e+02	-9.784168e-03
2.334447e+02	-9.897391e-03
2.347931e+02	-1.001192e-02
2.361493e+02	-1.012778e-02
2.375133e+02	-1.024497e-02
2.388851e+02	-1.036352e-02
2.402649e+02	-1.048344e-02
2.416527e+02	-1.060474e-02
2.430484e+02	-1.072745e-02
2.444523e+02	-1.085157e-02
2.458642e+02	-1.097713e-02
2.472843e+02	-1.110414e-02
2.487126e+02	-1.123262e-02
2.501492e+02	-1.136258e-02
2.515940e+02	-1.149405e-02
2.530472e+02	-1.162703e-02
2.545088e+02	-1.176155e-02
2.559789e+02	-1.189762e-02
2.574574e+02	-1.203527e-02
2.589444e+02	-1.217450e-02
2.604401e+02	-1.231535e-02
2.619444e+02	-1.245782e-02
2.634574e+02	-1.260193e-02
2.649791e+02	-1.274772e-02
2.665096e+02	-1.289518e-02
2.680489e+02	-1.304435e-02
2.695972e+02	-1.319524e-02
2.711544e+02	-1.334788e-02
2.727205e+02	-1.350227e-02
2.742958e+02	-1.365845e-02
2.758801e+02	-1.381644e-02
2.774736e+02	-1.397625e-02
2.790762e+02	-1.413790e-02
2.806882e+02	-1.430142e-02
2.823094e+02	-1.446683e-02
2.839400e+02	-1.463415e-02
2.855800e+02	-1.480340e-02
2.872295e+02	-1.497460e-02
2.888886e+02	-1.514778e-02
2.905572e+02	-1.532296e-02
2.922354e+02	-1.550017e-02
2.939234e+02	-1.567942e-02
2.956211e+02	-1.586073e-02
2.973286e+02	-1.604414e-02
2.990459e+02	-1.622967e-02
3.007732e+02	-1.641734e-02
3.025104e+02	-1.660717e-02
3.042577e+02	-1.679920e-02
3.060151e+02	-1.699344e-02
3.077826e+02	-1.718992e-02
3.095604e+02	-1.738867e-02
3.113484e+02	-1.758971e-02
3.131467e+02	-1.779308e-02
3.149554e+02	-1.799878e-02
3.167746e+02	-1.820687e-02
3.186043e+02	-1.841735e-02
3.204445e+02	-1.863026e-02
3.222954e+02	-1.884563e-02
3.241570e+02	-1.906348e-02
3.260293e+02	-1.928384e-02
3.279124e+02	-1.950674e-02
3.298064e+02	-1.973222e-02
3.317114e+02	-1.996030e-02
3.336273e+02	-2.019100e-02
3.355544e+02	-2.042437e-02
3.374925e+02	-2.066042e-02
3.394418e+02	-2.089920e-02
3.414024e+02	-2.114073e-02
3.433744e+02	-2.138505e-02
3.453577e+02	-2.163218e-02
3.473525e+02	-2.188216e-02
3.493588e+02	-2.213503e-02
3.513766e+02	-2.239080e-02
3.534062e+02	-2.264953e-02
3.554474e+02	-2.291123e-02
3.575005e+02	-2.317596e-02
3.595654e+02	-2.344373e-02
3.616422e+02	-2.371459e-02
3.637311e+02	-2.398856e-02
3.658320e+02	-2.426570e-02
3.679450e+02	-2.454603e-02
3.700702e+02	-2.482958e-02
3.722077e+02	-2.511641e-02
3.743576e+02	-2.540653e-02
3.765199e+02	-2.570000e-02
3.786946e+02	-2.599685e-02
3.808820e+02	-2.629711e-02
3.830819e+02	-2.660084e-02
3.852946e+02	-2.690806e-02
3.875200e+02	-2.721881e-02
3.897583e+02	-2.753315e-02
3.920096e+02	-2.785110e-02
3.942738e+02	-2.817271e-02
3.965511e+02	-2.849803e-02
3.988416e+02	-2.882708e-02
4.011452e+02	-2.915993e-02
4.034622e+02	-2.949660e-02
4.057926e+02	-2.983715e-02
4.081365e+02	-3.018162e-02
4.104938e+02	-3.053005e-02
4.128648e+02	-3.088248e-02
4.152495e+02	-3.123898e-02
4.176480e+02	-3.159957e-02
4.200603e+02	-3.196431e-02
4.224866e+02	-3.233324e-02
4.249268e+02	-3.270641e-02
4.273812e+02	-3.308388e-02
4.298497e+02	-3.346568e-02
4.323325e+02	-3.385188e-02
4.348297e+02	-3.424251e-02
4.373412e+02	-3.463763e-02
4.398673e+02	-3.503729e-02
4.424079e+02	-3.544155e-02
4.449633e+02	-3.585045e-02
4.475334e+02	-3.626405e-02
4.501183e+02	-3.668240e-02
4.527182e+02	-3.710555e-02
4.553330e+02	-3.753357e-02
4.579630e+02	-3.796650e-02
4.606082e+02	-3.840440e-02
4.632687e+02	-3.884733e-02
4.659445e+02	-3.929535e-02
4.686358e+02	-3.974851e-02
4.713426e+02	-4.020687e-02
4.740650e+02	-4.067049e-02
4.768032e+02	-4.113943e-02
4.795572e+02	-4.161375e-02
4.823271e+02	-4.209352e-02
4.851130e+02	-4.257878e-02
4.879150e+02	-4.306962e-02
4.907332e+02	-4.356608e-02
4.935676e+02	-4.406824e-02
4.964185e+02	-4.457616e-02
4.992858e+02	-4.508990e-02
5.021696e+02	-4.560953e-02
5.050701e+02	-4.613512e-02
5.079874e+02	-4.666673e-02
5.109215e+02	-4.720443e-02
5.138726e+02	-4.774829e-02
5.168407e+02	-4.829839e-02
5.198259e+02	-4.885479e-02
5.228284e+02	-4.941756e-02
5.258482e+02	-4.998677e-02
5.288855e+02	-5.056250e-02
5.319403e+02	-5.114483e-02
5.350128e+02	-5.173382e-02
5.381030e+02	-5.232955e-02
5.412111e+02	-5.293211e-02
5.443371e+02	-5.354155e-02
5.474812e+02	-5.415797e-02
5.506434e+02	-5.478145e-02
5.538239e+02	-5.541205e-02
5.570228e+02	-5.604986e-02
5.602401e+02	-5.669497e-02
5.634760e+02	-5.734746e-02
5.667306e+02	-5.800740e-02
5.700040e+02	-5.867489e-02
5.732964e+02	-5.935000e-02
5.766077e+02	-6.003283e-02
5.799382e+02	-6.072346e-02
5.832879e+02	-6.142198e-02
5.866569e+02	-6.212848e-02
5.900454e+02	-6.284304e-02
5.934535e+02	-6.356576e-02
5.968813e+02	-6.429673e-02
6.003288e+02	-6.503605e-02
6.037963e+02	-6.578380e-02
6.072838e+02	-6.654008e-02
6.107914e+02	-6.730499e-02
6.143194e+02	-6.807862e-02
6.178676e+02	-6.886107e-02
6.214364e+02	-6.965245e-02
6.250258e+02	-7.045284e-02
6.286359e+02	-7.126236e-02
6.322669e+02	-7.208110e-02
6.359189e+02	-7.290917e-02
6.395919e+02	-7.374667e-02
6.432862e+02	-7.459371e-02
6.470017e+02	-7.545039e-02
6.507388e+02	-7.631683e-02
6.544974e+02	-7.719312e-02
6.582778e+02	-7.807939e-02
6.620800e+02	-7.897574e-02
6.659041e+02	-7.988228e-02
6.697504e+02	-8.079913e-02
6.736188e+02	-8.172641e-02
6.775096e+02	-8.266423e-02
6.814229e+02	-8.361270e-02
6.853587e+02	-8.457196e-02
6.893173e+02	-8.554210e-02
6.932988e+02	-8.652327e-02
6.973033e+02	-8.751558e-02
7.013309e+02	-8.851915e-02
