Frequency(Hz)	Magnitude(dB)
1.000000e+01	-2.325970e+00
1.005776e+01	-2.347114e+00
1.011585e+01	-2.367970e+00
1.017428e+01	-2.389164e+00
1.023305e+01	-2.410055e+00
1.029215e+01	-2.431599e+00
1.035160e+01	-2.453149e+00
1.041139e+01	-2.474656e+00
1.047153e+01	-2.496493e+00
1.053201e+01	-2.518533e+00
1.059284e+01	-2.540702e+00
1.065403e+01	-2.562876e+00
1.071556e+01	-2.585278e+00
1.077746e+01	-2.607817e+00
1.083971e+01	-2.630330e+00
1.090232e+01	-2.653186e+00
1.096529e+01	-2.676106e+00
1.102862e+01	-2.699104e+00
1.109232e+01	-2.722588e+00
1.115639e+01	-2.745845e+00
1.122083e+01	-2.769188e+00
1.128564e+01	-2.793028e+00
1.135083e+01	-2.816837e+00
1.141639e+01	-2.840735e+00
1.148233e+01	-2.864772e+00
1.154865e+01	-2.889082e+00
1.161536e+01	-2.913456e+00
1.168245e+01	-2.937813e+00
1.174992e+01	-2.962748e+00
1.181779e+01	-2.987435e+00
1.188605e+01	-3.012286e+00
1.195470e+01	-3.037419e+00
1.202375e+01	-3.062794e+00
1.209320e+01	-3.088010e+00
1.216305e+01	-3.113596e+00
1.223330e+01	-3.139128e+00
1.230396e+01	-3.165096e+00
1.237503e+01	-3.191258e+00
1.244651e+01	-3.217113e+00
1.251840e+01	-3.243398e+00
1.259070e+01	-3.269897e+00
1.266343e+01	-3.296381e+00
1.273657e+01	-3.322781e+00
1.281014e+01	-3.349990e+00
1.288413e+01	-3.376832e+00
1.295855e+01	-3.403829e+00
1.303339e+01	-3.431000e+00
1.310867e+01	-3.458596e+00
1.318439e+01	-3.486236e+00
1.326054e+01	-3.513640e+00
1.333713e+01	-3.541514e+00
1.341417e+01	-3.569447e+00
1.349165e+01	-3.597913e+00
1.356958e+01	-3.625990e+00
1.364795e+01	-3.654295e+00
1.372678e+01	-3.683100e+00
1.380607e+01	-3.711542e+00
1.388581e+01	-3.740490e+00
1.396602e+01	-3.769386e+00
1.404668e+01	-3.798394e+00
1.412782e+01	-3.827518e+00
1.420942e+01	-3.856817e+00
1.429149e+01	-3.886388e+00
1.437404e+01	-3.916157e+00
1.445706e+01	-3.946053e+00
1.454057e+01	-3.975642e+00
1.462455e+01	-4.005793e+00
1.470902e+01	-4.036104e+00
1.479398e+01	-4.066374e+00
1.487943e+01	-4.097006e+00
1.496537e+01	-4.127713e+00
1.505181e+01	-4.158373e+00
1.513875e+01	-4.189432e+00
1.522619e+01	-4.220359e+00
1.531414e+01	-4.251352e+00
1.540259e+01	-4.282561e+00
1.549156e+01	-4.314143e+00
1.558103e+01	-4.345698e+00
1.567103e+01	-4.377339e+00
1.576155e+01	-4.409476e+00
1.585258e+01	-4.441145e+00
1.594415e+01	-4.473550e+00
1.603624e+01	-4.505577e+00
1.612886e+01	-4.537921e+00
1.622202e+01	-4.570611e+00
1.631572e+01	-4.602948e+00
1.640996e+01	-4.635808e+00
1.650474e+01	-4.668681e+00
1.660008e+01	-4.701745e+00
1.669596e+01	-4.734635e+00
1.679239e+01	-4.767849e+00
1.688938e+01	-4.801167e+00
1.698694e+01	-4.834987e+00
1.708505e+01	-4.868821e+00
1.718373e+01	-4.902437e+00
1.728299e+01	-4.936436e+00
1.738281e+01	-4.970523e+00
1.748322e+01	-5.004508e+00
1.758420e+01	-5.038955e+00
1.768576e+01	-5.073487e+00
1.778792e+01	-5.107849e+00
1.789066e+01	-5.142427e+00
1.799399e+01	-5.177233e+00
1.809793e+01	-5.212391e+00
1.820246e+01	-5.247243e+00
1.830760e+01	-5.282314e+00
1.841334e+01	-5.317709e+00
1.851969e+01	-5.353200e+00
1.862666e+01	-5.388710e+00
1.873425e+01	-5.424265e+00
1.884246e+01	-5.459761e+00
1.895129e+01	-5.495714e+00
1.906075e+01	-5.531716e+00
1.917085e+01	-5.567435e+00
1.928158e+01	-5.603740e+00
1.939295e+01	-5.640230e+00
1.950496e+01	-5.676581e+00
1.961762e+01	-5.713139e+00
1.973093e+01	-5.749790e+00
1.984490e+01	-5.786735e+00
1.995952e+01	-5.823330e+00
2.007480e+01	-5.860428e+00
2.019076e+01	-5.897949e+00
2.030738e+01	-5.934901e+00
2.042467e+01	-5.972220e+00
2.054264e+01	-6.009575e+00
2.066130e+01	-6.046882e+00
2.078064e+01	-6.084748e+00
2.090066e+01	-6.122633e+00
2.102139e+01	-6.160808e+00
2.114280e+01	-6.198574e+00
2.126492e+01	-6.236593e+00
2.138775e+01	-6.274307e+00
2.151128e+01	-6.312862e+00
2.163553e+01	-6.351489e+00
2.176050e+01	-6.389791e+00
2.188619e+01	-6.428636e+00
2.201260e+01	-6.467068e+00
2.213974e+01	-6.506002e+00
2.226762e+01	-6.544419e+00
2.239624e+01	-6.583933e+00
2.252560e+01	-6.622944e+00
2.265571e+01	-6.661753e+00
2.278656e+01	-6.701419e+00
2.291818e+01	-6.740678e+00
2.305055e+01	-6.779883e+00
2.318369e+01	-6.819444e+00
2.331760e+01	-6.859407e+00
2.345228e+01	-6.898970e+00
2.358774e+01	-6.939260e+00
2.372398e+01	-6.978957e+00
2.386101e+01	-7.019063e+00
2.399883e+01	-7.059028e+00
2.413745e+01	-7.099157e+00
2.427686e+01	-7.139709e+00
2.441709e+01	-7.180370e+00
2.455812e+01	-7.220515e+00
2.469997e+01	-7.261580e+00
2.484263e+01	-7.301790e+00
2.498612e+01	-7.342544e+00
2.513044e+01	-7.383349e+00
2.527559e+01	-7.424191e+00
2.542158e+01	-7.465650e+00
2.556842e+01	-7.506634e+00
2.571610e+01	-7.547607e+00
2.586463e+01	-7.589146e+00
2.601403e+01	-7.630458e+00
2.616428e+01	-7.671534e+00
2.631541e+01	-7.713173e+00
2.646740e+01	-7.754672e+00
2.662028e+01	-7.796283e+00
2.677404e+01	-7.838056e+00
2.692868e+01	-7.879930e+00
2.708422e+01	-7.921757e+00
2.724066e+01	-7.964363e+00
2.739800e+01	-8.005965e+00
2.755625e+01	-8.048115e+00
2.771541e+01	-8.090435e+00
2.787550e+01	-8.132350e+00
2.803650e+01	-8.175054e+00
2.819844e+01	-8.217456e+00
2.836131e+01	-8.260063e+00
2.852513e+01	-8.302885e+00
2.868989e+01	-8.345288e+00
2.885560e+01	-8.387852e+00
2.902227e+01	-8.431191e+00
2.918990e+01	-8.473551e+00
2.935850e+01	-8.516992e+00
2.952807e+01	-8.560329e+00
2.969863e+01	-8.602686e+00
2.987016e+01	-8.646111e+00
3.004269e+01	-8.689417e+00
3.021622e+01	-8.732349e+00
3.039075e+01	-8.776362e+00
3.056628e+01	-8.819351e+00
3.074283e+01	-8.862984e+00
3.092040e+01	-8.906673e+00
3.109900e+01	-8.950347e+00
3.127862e+01	-8.993828e+00
3.145929e+01	-9.037496e+00
3.164099e+01	-9.081317e+00
3.182375e+01	-9.124541e+00
3.200756e+01	-9.168985e+00
3.219244e+01	-9.213116e+00
3.237838e+01	-9.256528e+00
3.256540e+01	-9.301369e+00
3.275349e+01	-9.345151e+00
3.294268e+01	-9.389057e+00
3.313295e+01	-9.433858e+00
3.332433e+01	-9.478100e+00
3.351681e+01	-9.522779e+00
3.371040e+01	-9.566901e+00
3.390511e+01	-9.611664e+00
3.410094e+01	-9.656232e+00
3.429791e+01	-9.700958e+00
3.449601e+01	-9.745483e+00
3.469526e+01	-9.790479e+00
3.489566e+01	-9.835167e+00
3.509721e+01	-9.880438e+00
3.529993e+01	-9.925375e+00
3.550382e+01	-9.970207e+00
3.570889e+01	-1.001460e+01
3.591515e+01	-1.006008e+01
3.612259e+01	-1.010523e+01
3.633123e+01	-1.014990e+01
3.654108e+01	-1.019527e+01
3.675214e+01	-1.024077e+01
3.696442e+01	-1.028629e+01
3.717792e+01	-1.033106e+01
3.739266e+01	-1.037665e+01
3.760864e+01	-1.042232e+01
3.782587e+01	-1.046783e+01
3.804435e+01	-1.051311e+01
3.826409e+01	-1.055915e+01
3.848510e+01	-1.060423e+01
3.870739e+01	-1.065036e+01
3.893096e+01	-1.069573e+01
3.915583e+01	-1.074234e+01
3.938199e+01	-1.078751e+01
3.960946e+01	-1.083314e+01
3.983824e+01	-1.087947e+01
4.006834e+01	-1.092509e+01
4.029978e+01	-1.097111e+01
4.053255e+01	-1.101745e+01
4.076666e+01	-1.106346e+01
4.100213e+01	-1.110988e+01
4.123896e+01	-1.115569e+01
4.147715e+01	-1.120202e+01
4.171672e+01	-1.124814e+01
4.195767e+01	-1.129477e+01
4.220002e+01	-1.134135e+01
4.244377e+01	-1.138706e+01
4.268892e+01	-1.143429e+01
4.293549e+01	-1.148067e+01
4.318348e+01	-1.152655e+01
4.343291e+01	-1.157304e+01
4.368377e+01	-1.161994e+01
4.393609e+01	-1.166571e+01
4.418986e+01	-1.171286e+01
4.444510e+01	-1.175987e+01
4.470182e+01	-1.180662e+01
4.496001e+01	-1.185288e+01
4.521970e+01	-1.189994e+01
4.548089e+01	-1.194650e+01
4.574358e+01	-1.199332e+01
4.600779e+01	-1.204029e+01
4.627353e+01	-1.208688e+01
4.654081e+01	-1.213393e+01
4.680963e+01	-1.218160e+01
4.708000e+01	-1.222897e+01
4.735193e+01	-1.227574e+01
4.762543e+01	-1.232259e+01
4.790051e+01	-1.236956e+01
4.817719e+01	-1.241706e+01
4.845545e+01	-1.246399e+01
4.873533e+01	-1.251123e+01
4.901682e+01	-1.255852e+01
4.929994e+01	-1.260619e+01
4.958470e+01	-1.265306e+01
4.987110e+01	-1.270055e+01
5.015915e+01	-1.274800e+01
5.044887e+01	-1.279523e+01
5.074026e+01	-1.284219e+01
5.103333e+01	-1.289023e+01
5.132810e+01	-1.293706e+01
5.162457e+01	-1.298450e+01
5.192275e+01	-1.303271e+01
5.222265e+01	-1.307981e+01
5.252429e+01	-1.312756e+01
5.282767e+01	-1.317521e+01
5.313280e+01	-1.322239e+01
5.343969e+01	-1.327061e+01
5.374836e+01	-1.331806e+01
5.405880e+01	-1.336605e+01
5.437105e+01	-1.341270e+01
5.468509e+01	-1.346099e+01
5.500095e+01	-1.350887e+01
5.531863e+01	-1.355718e+01
5.563815e+01	-1.360469e+01
5.595951e+01	-1.365360e+01
5.628273e+01	-1.370073e+01
5.660782e+01	-1.374805e+01
5.693479e+01	-1.379633e+01
5.726364e+01	-1.384423e+01
5.759439e+01	-1.389198e+01
5.792705e+01	-1.393983e+01
5.826164e+01	-1.398827e+01
5.859815e+01	-1.403660e+01
5.893662e+01	-1.408434e+01
5.927703e+01	-1.413292e+01
5.961941e+01	-1.418065e+01
5.996377e+01	-1.422854e+01
6.031012e+01	-1.427718e+01
6.065847e+01	-1.432510e+01
6.100883e+01	-1.437348e+01
6.136121e+01	-1.442147e+01
6.171563e+01	-1.447034e+01
6.207210e+01	-1.451763e+01
6.243063e+01	-1.456705e+01
6.279122e+01	-1.461377e+01
6.315390e+01	-1.466306e+01
6.351868e+01	-1.471141e+01
6.388556e+01	-1.475933e+01
6.425456e+01	-1.480823e+01
6.462569e+01	-1.485654e+01
6.499897e+01	-1.490446e+01
6.537440e+01	-1.495353e+01
6.575200e+01	-1.500158e+01
6.613178e+01	-1.504947e+01
6.651375e+01	-1.509945e+01
6.689793e+01	-1.514647e+01
6.728433e+01	-1.519592e+01
6.767297e+01	-1.524312e+01
6.806384e+01	-1.529265e+01
6.845698e+01	-1.534121e+01
6.885238e+01	-1.538955e+01
6.925007e+01	-1.543846e+01
6.965005e+01	-1.548721e+01
7.005235e+01	-1.553510e+01
7.045697e+01	-1.558378e+01
7.086393e+01	-1.563266e+01
7.127323e+01	-1.568170e+01
7.168490e+01	-1.573030e+01
7.209895e+01	-1.577791e+01
7.251539e+01	-1.582749e+01
7.293424e+01	-1.587641e+01
7.335551e+01	-1.592564e+01
7.377920e+01	-1.597356e+01
7.420535e+01	-1.602191e+01
7.463396e+01	-1.607094e+01
7.506504e+01	-1.612000e+01
7.549861e+01	-1.616892e+01
7.593469e+01	-1.621776e+01
7.637328e+01	-1.626613e+01
7.681441e+01	-1.631483e+01
7.725809e+01	-1.636343e+01
7.770433e+01	-1.641281e+01
7.815315e+01	-1.646192e+01
7.860456e+01	-1.651092e+01
7.905857e+01	-1.655984e+01
7.951521e+01	-1.660876e+01
7.997449e+01	-1.665859e+01
8.043642e+01	-1.670611e+01
8.090102e+01	-1.675519e+01
8.136830e+01	-1.680457e+01
8.183828e+01	-1.685351e+01
8.231097e+01	-1.690301e+01
8.278640e+01	-1.695135e+01
8.326457e+01	-1.700093e+01
8.374550e+01	-1.704976e+01
8.422921e+01	-1.709900e+01
8.471572e+01	-1.714833e+01
8.520503e+01	-1.719532e+01
8.569717e+01	-1.724524e+01
8.619215e+01	-1.729517e+01
8.669000e+01	-1.734401e+01
8.719071e+01	-1.739390e+01
8.769432e+01	-1.744100e+01
8.820084e+01	-1.749145e+01
8.871029e+01	-1.754077e+01
8.922267e+01	-1.759039e+01
8.973802e+01	-1.763861e+01
9.025634e+01	-1.768790e+01
9.077766e+01	-1.773649e+01
9.130199e+01	-1.778649e+01
9.182935e+01	-1.783515e+01
9.235975e+01	-1.788370e+01
9.289321e+01	-1.793334e+01
9.342976e+01	-1.798261e+01
9.396941e+01	-1.803157e+01
9.451217e+01	-1.808227e+01
9.505807e+01	-1.813088e+01
9.560712e+01	-1.818037e+01
9.615934e+01	-1.822994e+01
9.671476e+01	-1.827978e+01
9.727338e+01	-1.832744e+01
9.783522e+01	-1.837681e+01
9.840032e+01	-1.842579e+01
9.896867e+01	-1.847740e+01
9.954031e+01	-1.852734e+01
1.001153e+02	-1.857457e+01
1.006935e+02	-1.862432e+01
1.012751e+02	-1.867389e+01
1.018601e+02	-1.872162e+01
1.024484e+02	-1.877344e+01
1.030402e+02	-1.882189e+01
1.036353e+02	-1.887031e+01
1.042339e+02	-1.892061e+01
1.048360e+02	-1.897099e+01
1.054415e+02	-1.902055e+01
1.060505e+02	-1.906745e+01
1.066631e+02	-1.911834e+01
1.072791e+02	-1.916576e+01
1.078988e+02	-1.921777e+01
1.085220e+02	-1.926557e+01
1.091488e+02	-1.931488e+01
1.097793e+02	-1.936488e+01
1.104133e+02	-1.941525e+01
1.110511e+02	-1.946383e+01
1.116925e+02	-1.951421e+01
1.123376e+02	-1.956383e+01
1.129865e+02	-1.961179e+01
1.136391e+02	-1.966259e+01
1.142955e+02	-1.971054e+01
1.149556e+02	-1.976038e+01
1.156196e+02	-1.980904e+01
1.162874e+02	-1.986012e+01
1.169591e+02	-1.990993e+01
1.176347e+02	-1.995958e+01
1.183141e+02	-2.000814e+01
1.189975e+02	-2.005787e+01
1.196848e+02	-2.010975e+01
1.203761e+02	-2.015674e+01
1.210714e+02	-2.020506e+01
1.217707e+02	-2.025616e+01
1.224740e+02	-2.030530e+01
1.231814e+02	-2.035545e+01
1.238929e+02	-2.040424e+01
1.246085e+02	-2.045576e+01
1.253283e+02	-2.050524e+01
1.260522e+02	-2.055437e+01
1.267802e+02	-2.060258e+01
1.275125e+02	-2.065139e+01
1.282490e+02	-2.070218e+01
1.289898e+02	-2.075285e+01
1.297348e+02	-2.080276e+01
1.304842e+02	-2.085136e+01
1.312378e+02	-2.090095e+01
1.319959e+02	-2.095187e+01
1.327583e+02	-2.100105e+01
1.335251e+02	-2.105182e+01
1.342963e+02	-2.110002e+01
1.350720e+02	-2.114839e+01
1.358522e+02	-2.119820e+01
1.366368e+02	-2.124636e+01
1.374260e+02	-2.129781e+01
1.382198e+02	-2.134828e+01
1.390182e+02	-2.139853e+01
1.398211e+02	-2.144748e+01
1.406287e+02	-2.150013e+01
1.414410e+02	-2.154610e+01
1.422579e+02	-2.159611e+01
1.430796e+02	-2.164534e+01
1.439060e+02	-2.169429e+01
1.447372e+02	-2.174523e+01
1.455732e+02	-2.179679e+01
1.464141e+02	-2.184294e+01
1.472597e+02	-2.189610e+01
1.481103e+02	-2.194395e+01
1.489658e+02	-2.199445e+01
1.498262e+02	-2.204519e+01
1.506916e+02	-2.209409e+01
1.515620e+02	-2.214440e+01
1.524374e+02	-2.219352e+01
1.533179e+02	-2.224264e+01
1.542034e+02	-2.229217e+01
1.550941e+02	-2.234186e+01
1.559899e+02	-2.239057e+01
1.568909e+02	-2.244273e+01
1.577971e+02	-2.248944e+01
1.587085e+02	-2.254319e+01
1.596252e+02	-2.259216e+01
1.605472e+02	-2.264148e+01
1.614745e+02	-2.269073e+01
1.624072e+02	-2.274103e+01
1.633453e+02	-2.278845e+01
1.642887e+02	-2.284161e+01
1.652377e+02	-2.288968e+01
1.661921e+02	-2.293933e+01
1.671520e+02	-2.298941e+01
1.681175e+02	-2.303965e+01
1.690885e+02	-2.308598e+01
1.700651e+02	-2.314054e+01
1.710474e+02	-2.319049e+01
1.720354e+02	-2.324006e+01
1.730291e+02	-2.329104e+01
1.740285e+02	-2.333680e+01
1.750337e+02	-2.338743e+01
1.760446e+02	-2.343789e+01
1.770615e+02	-2.348883e+01
1.780842e+02	-2.353517e+01
1.791128e+02	-2.358592e+01
1.801473e+02	-2.363523e+01
1.811878e+02	-2.368644e+01
1.822344e+02	-2.373548e+01
1.832870e+02	-2.378770e+01
1.843456e+02	-2.383608e+01
1.854104e+02	-2.388431e+01
1.864813e+02	-2.393575e+01
1.875584e+02	-2.398485e+01
1.886418e+02	-2.403585e+01
1.897313e+02	-2.408670e+01
1.908272e+02	-2.413451e+01
1.919294e+02	-2.418550e+01
1.930380e+02	-2.423425e+01
1.941530e+02	-2.428490e+01
1.952744e+02	-2.433575e+01
1.964023e+02	-2.438372e+01
1.975367e+02	-2.443458e+01
1.986777e+02	-2.448174e+01
1.998252e+02	-2.453543e+01
2.009794e+02	-2.458405e+01
2.021403e+02	-2.463454e+01
2.033078e+02	-2.468144e+01
2.044821e+02	-2.473383e+01
2.056632e+02	-2.478506e+01
2.068511e+02	-2.483027e+01
2.080459e+02	-2.488582e+01
2.092475e+02	-2.492942e+01
2.104561e+02	-2.498417e+01
2.116717e+02	-2.503226e+01
2.128943e+02	-2.508614e+01
2.141240e+02	-2.513233e+01
2.153608e+02	-2.518104e+01
2.166047e+02	-2.523236e+01
2.178558e+02	-2.528400e+01
2.191141e+02	-2.533126e+01
2.203797e+02	-2.538289e+01
2.216526e+02	-2.543257e+01
2.229329e+02	-2.548342e+01
2.242205e+02	-2.553425e+01
2.255156e+02	-2.558383e+01
2.268182e+02	-2.563324e+01
2.281283e+02	-2.568054e+01
2.294459e+02	-2.573531e+01
2.307712e+02	-2.578145e+01
2.321041e+02	-2.583338e+01
2.334447e+02	-2.588421e+01
2.347931e+02	-2.593174e+01
2.361493e+02	-2.598227e+01
2.375133e+02	-2.603557e+01
2.388851e+02	-2.608157e+01
2.402649e+02	-2.613266e+01
2.416527e+02	-2.618521e+01
2.430484e+02	-2.623383e+01
2.444523e+02	-2.628315e+01
2.458642e+02	-2.633199e+01
2.472843e+02	-2.638033e+01
2.487126e+02	-2.642954e+01
2.501492e+02	-2.648224e+01
2.515940e+02	-2.653304e+01
2.530472e+02	-2.658251e+01
2.545088e+02	-2.662841e+01
2.559789e+02	-2.667841e+01
2.574574e+02	-2.672659e+01
2.589444e+02	-2.678242e+01
2.604401e+02	-2.683423e+01
2.619444e+02	-2.688435e+01
2.634574e+02	-2.693217e+01
2.649791e+02	-2.698171e+01
2.665096e+02	-2.703028e+01
2.680489e+02	-2.708250e+01
2.695972e+02	-2.713078e+01
2.711544e+02	-2.717927e+01
2.727205e+02	-2.723253e+01
2.742958e+02	-2.728251e+01
2.758801e+02	-2.732955e+01
2.774736e+02	-2.738389e+01
2.790762e+02	-2.743059e+01
2.806882e+02	-2.747927e+01
2.823094e+02	-2.753136e+01
2.839400e+02	-2.758510e+01
2.855800e+02	-2.763093e+01
2.872295e+02	-2.768223e+01
2.888886e+02	-2.772996e+01
2.905572e+02	-2.778287e+01
2.922354e+02	-2.783029e+01
2.939234e+02	-2.788045e+01
2.956211e+02	-2.792776e+01
2.973286e+02	-2.797826e+01
2.990459e+02	-2.803142e+01
3.007732e+02	-2.808253e+01
3.025104e+02	-2.813210e+01
3.042577e+02	-2.818146e+01
3.060151e+02	-2.823308e+01
3.077826e+02	-2.828264e+01
3.095604e+02	-2.833318e+01
3.113484e+02	-2.838363e+01
3.131467e+02	-2.843398e+01
3.149554e+02	-2.848017e+01
3.167746e+02	-2.853750e+01
3.186043e+02	-2.858421e+01
3.204445e+02	-2.863122e+01
3.222954e+02	-2.868114e+01
3.241570e+02	-2.873166e+01
3.260293e+02	-2.877837e+01
3.279124e+02	-2.883055e+01
3.298064e+02	-2.887932e+01
3.317114e+02	-2.893434e+01
3.336273e+02	-2.897881e+01
3.355544e+02	-2.903325e+01
3.374925e+02	-2.908510e+01
3.394418e+02	-2.913341e+01
3.414024e+02	-2.918942e+01
3.433744e+02	-2.923356e+01
3.453577e+02	-2.928276e+01
3.473525e+02	-2.932948e+01
3.493588e+02	-2.938462e+01
3.513766e+02	-2.943401e+01
3.534062e+02	-2.948348e+01
3.554474e+02	-2.953440e+01
3.575005e+02	-2.958385e+01
3.595654e+02	-2.963627e+01
3.616422e+02	-2.968261e+01
3.637311e+02	-2.973243e+01
3.658320e+02	-2.978672e+01
3.679450e+02	-2.983440e+01
3.700702e+02	-2.988368e+01
3.722077e+02	-2.993625e+01
3.743576e+02	-2.997955e+01
3.765199e+02	-3.003703e+01
3.786946e+02	-3.008493e+01
3.808820e+02	-3.013689e+01
3.830819e+02	-3.018056e+01
3.852946e+02	-3.023475e+01
3.875200e+02	-3.028385e+01
3.897583e+02	-3.033447e+01
3.920096e+02	-3.038304e+01
3.942738e+02	-3.043538e+01
3.965511e+02	-3.048060e+01
3.988416e+02	-3.052899e+01
4.011452e+02	-3.058867e+01
4.034622e+02	-3.063269e+01
4.057926e+02	-3.068201e+01
4.081365e+02	-3.073352e+01
4.104938e+02	-3.078557e+01
4.128648e+02	-3.083179e+01
4.152495e+02	-3.088365e+01
4.176480e+02	-3.093118e+01
4.200603e+02	-3.098523e+01
4.224866e+02	-3.103590e+01
4.249268e+02	-3.108571e+01
4.273812e+02	-3.113357e+01
4.298497e+02	-3.119359e+01
4.323325e+02	-3.124023e+01
4.348297e+02	-3.128766e+01
4.373412e+02	-3.133821e+01
4.398673e+02	-3.138754e+01
4.424079e+02	-3.143914e+01
4.449633e+02	-3.148338e+01
4.475334e+02	-3.154294e+01
4.501183e+02	-3.158812e+01
4.527182e+02	-3.163460e+01
4.553330e+02	-3.168776e+01
4.579630e+02	-3.173840e+01
4.606082e+02	-3.178579e+01
4.632687e+02	-3.183737e+01
4.659445e+02	-3.188918e+01
4.686358e+02	-3.193102e+01
4.713426e+02	-3.198887e+01
4.740650e+02	-3.203946e+01
4.768032e+02	-3.209079e+01
4.795572e+02	-3.213557e+01
4.823271e+02	-3.219432e+01
4.851130e+02	-3.223786e+01
4.879150e+02	-3.228840e+01
4.907332e+02	-3.234148e+01
4.935676e+02	-3.239338e+01
4.964185e+02	-3.244545e+01
4.992858e+02	-3.248786e+01
5.021696e+02	-3.254445e+01
5.050701e+02	-3.259416e+01
5.079874e+02	-3.264351e+01
5.109215e+02	-3.269382e+01
5.138726e+02	-3.273940e+01
5.168407e+02	-3.279170e+01
5.198259e+02	-3.284224e+01
5.228284e+02	-3.289153e+01
5.258482e+02	-3.294026e+01
5.288855e+02	-3.300172e+01
5.319403e+02	-3.304671e+01
5.350128e+02	-3.309653e+01
5.381030e+02	-3.314283e+01
5.412111e+02	-3.319133e+01
5.443371e+02	-3.324991e+01
5.474812e+02	-3.329617e+01
5.506434e+02	-3.334267e+01
5.538239e+02	-3.339837e+01
5.570228e+02	-3.344788e+01
5.602401e+02	-3.349176e+01
5.634760e+02	-3.354696e+01
5.667306e+02	-3.359683e+01
5.700040e+02	-3.365203e+01
5.732964e+02	-3.369990e+01
5.766077e+02	-3.375567e+01
5.799382e+02	-3.380075e+01
5.832879e+02	-3.384840e+01
5.866569e+02	-3.390145e+01
5.900454e+02	-3.395326e+01
5.934535e+02	-3.399458e+01
5.968813e+02	-3.404880e+01
6.003288e+02	-3.410191e+01
6.037963e+02	-3.414647e+01
6.072838e+02	-3.419271e+01
6.107914e+02	-3.425004e+01
6.143194e+02	-3.429816e+01
6.178676e+02	-3.435127e+01
6.214364e+02	-3.440933e+01
6.250258e+02	-3.444764e+01
6.286359e+02	-3.450292e+01
6.322669e+02	-3.455613e+01
6.359189e+02	-3.459655e+01
6.395919e+02	-3.465400e+01
6.432862e+02	-3.470311e+01
6.470017e+02	-3.475428e+01
6.507388e+02	-3.480145e+01
6.544974e+02	-3.486411e+01
6.582778e+02	-3.490411e+01
6.620800e+02	-3.494916e+01
6.659041e+02	-3.500782e+01
6.697504e+02	-3.504535e+01
6.736188e+02	-3.511384e+01
6.775096e+02	-3.516123e+01
6.814229e+02	-3.521862e+01
6.853587e+02	-3.526236e+01
6.893173e+02	-3.529850e+01
6.932988e+02	-3.535266e+01
6.973033e+02	-3.540820e+01
7.013309e+02	-3.545755e+01
