Frequency(Hz)	Magnitude(dB)
1.000000e+01	-1.603536e-05
1.005776e+01	-1.622113e-05
1.011585e+01	-1.640906e-05
1.017428e+01	-1.659916e-05
1.023305e+01	-1.679147e-05
1.029215e+01	-1.698600e-05
1.035160e+01	-1.718279e-05
1.041139e+01	-1.738185e-05
1.047153e+01	-1.758323e-05
1.053201e+01	-1.778693e-05
1.059284e+01	-1.799300e-05
1.065403e+01	-1.820145e-05
1.071556e+01	-1.841232e-05
1.077746e+01	-1.862563e-05
1.083971e+01	-1.884141e-05
1.090232e+01	-1.905970e-05
1.096529e+01	-1.928051e-05
1.102862e+01	-1.950388e-05
1.109232e+01	-1.972984e-05
1.115639e+01	-1.995841e-05
1.122083e+01	-2.018963e-05
1.128564e+01	-2.042354e-05
1.135083e+01	-2.066015e-05
1.141639e+01	-2.089950e-05
1.148233e+01	-2.114163e-05
1.154865e+01	-2.138656e-05
1.161536e+01	-2.163433e-05
1.168245e+01	-2.188497e-05
1.174992e+01	-2.213851e-05
1.181779e+01	-2.239499e-05
1.188605e+01	-2.265444e-05
1.195470e+01	-2.291690e-05
1.202375e+01	-2.318240e-05
1.209320e+01	-2.345097e-05
1.216305e+01	-2.372265e-05
1.223330e+01	-2.399749e-05
1.230396e+01	-2.427550e-05
1.237503e+01	-2.455674e-05
1.244651e+01	-2.484124e-05
1.251840e+01	-2.512903e-05
1.259070e+01	-2.542016e-05
1.266343e+01	-2.571465e-05
1.273657e+01	-2.601257e-05
1.281014e+01	-2.631393e-05
1.288413e+01	-2.661878e-05
1.295855e+01	-2.692717e-05
1.303339e+01	-2.723912e-05
1.310867e+01	-2.755470e-05
1.318439e+01	-2.787392e-05
1.326054e+01	-2.819685e-05
1.333713e+01	-2.852352e-05
1.341417e+01	-2.885397e-05
1.349165e+01	-2.918825e-05
1.356958e+01	-2.952640e-05
1.364795e+01	-2.986847e-05
1.372678e+01	-3.021451e-05
1.380607e+01	-3.056455e-05
1.388581e+01	-3.091865e-05
1.396602e+01	-3.127685e-05
1.404668e+01	-3.163919e-05
1.412782e+01	-3.200574e-05
1.420942e+01	-3.237654e-05
1.429149e+01	-3.275163e-05
1.437404e+01	-3.313106e-05
1.445706e+01	-3.351489e-05
1.454057e+01	-3.390317e-05
1.462455e+01	-3.429595e-05
1.470902e+01	-3.469327e-05
1.479398e+01	-3.509520e-05
1.487943e+01	-3.550179e-05
1.496537e+01	-3.591309e-05
1.505181e+01	-3.632915e-05
1.513875e+01	-3.675003e-05
1.522619e+01	-3.717579e-05
1.531414e+01	-3.760648e-05
1.540259e+01	-3.804216e-05
1.549156e+01	-3.848288e-05
1.558103e+01	-3.892872e-05
1.567103e+01	-3.937971e-05
1.576155e+01	-3.983594e-05
1.585258e+01	-4.029745e-05
1.594415e+01	-4.076430e-05
1.603624e+01	-4.123656e-05
1.612886e+01	-4.171430e-05
1.622202e+01	-4.219757e-05
1.631572e+01	-4.268644e-05
1.640996e+01	-4.318097e-05
1.650474e+01	-4.368123e-05
1.660008e+01	-4.418729e-05
1.669596e+01	-4.469921e-05
1.679239e+01	-4.521706e-05
1.688938e+01	-4.574090e-05
1.698694e+01	-4.627082e-05
1.708505e+01	-4.680688e-05
1.718373e+01	-4.734915e-05
1.728299e+01	-4.789770e-05
1.738281e+01	-4.845260e-05
1.748322e+01	-4.901394e-05
1.758420e+01	-4.958177e-05
1.768576e+01	-5.015619e-05
1.778792e+01	-5.073726e-05
1.789066e+01	-5.132506e-05
1.799399e+01	-5.191967e-05
1.809793e+01	-5.252117e-05
1.820246e+01	-5.312964e-05
1.830760e+01	-5.374516e-05
1.841334e+01	-5.436781e-05
1.851969e+01	-5.499767e-05
1.862666e+01	-5.563483e-05
1.873425e+01	-5.627937e-05
1.884246e+01	-5.693138e-05
1.895129e+01	-5.759094e-05
1.906075e+01	-5.825814e-05
1.917085e+01	-5.893308e-05
1.928158e+01	-5.961583e-05
1.939295e+01	-6.030649e-05
1.950496e+01	-6.100515e-05
1.961762e+01	-6.171191e-05
1.973093e+01	-6.242685e-05
1.984490e+01	-6.315008e-05
1.995952e+01	-6.388169e-05
2.007480e+01	-6.462177e-05
2.019076e+01	-6.537042e-05
2.030738e+01	-6.612775e-05
2.042467e+01	-6.689386e-05
2.054264e+01	-6.766883e-05
2.066130e+01	-6.845279e-05
2.078064e+01	-6.924583e-05
2.090066e+01	-7.004805e-05
2.102139e+01	-7.085957e-05
2.114280e+01	-7.168049e-05
2.126492e+01	-7.251093e-05
2.138775e+01	-7.335098e-05
2.151128e+01	-7.420076e-05
2.163553e+01	-7.506039e-05
2.176050e+01	-7.592998e-05
2.188619e+01	-7.680964e-05
2.201260e+01	-7.769950e-05
2.213974e+01	-7.859966e-05
2.226762e+01	-7.951025e-05
2.239624e+01	-8.043139e-05
2.252560e+01	-8.136320e-05
2.265571e+01	-8.230581e-05
2.278656e+01	-8.325933e-05
2.291818e+01	-8.422391e-05
2.305055e+01	-8.519965e-05
2.318369e+01	-8.618671e-05
2.331760e+01	-8.718519e-05
2.345228e+01	-8.819525e-05
2.358774e+01	-8.921700e-05
2.372398e+01	-9.025060e-05
2.386101e+01	-9.129616e-05
2.399883e+01	-9.235385e-05
2.413745e+01	-9.342378e-05
2.427686e+01	-9.450611e-05
2.441709e+01	-9.560098e-05
2.455812e+01	-9.670853e-05
2.469997e+01	-9.782891e-05
2.484263e+01	-9.896227e-05
2.498612e+01	-1.001088e-04
2.513044e+01	-1.012685e-04
2.527559e+01	-1.024417e-04
2.542158e+01	-1.036286e-04
2.556842e+01	-1.048291e-04
2.571610e+01	-1.060436e-04
2.586463e+01	-1.072721e-04
2.601403e+01	-1.085149e-04
2.616428e+01	-1.097720e-04
2.631541e+01	-1.110437e-04
2.646740e+01	-1.123302e-04
2.662028e+01	-1.136316e-04
2.677404e+01	-1.149480e-04
2.692868e+01	-1.162797e-04
2.708422e+01	-1.176268e-04
2.724066e+01	-1.189895e-04
2.739800e+01	-1.203680e-04
2.755625e+01	-1.217625e-04
2.771541e+01	-1.231731e-04
2.787550e+01	-1.246001e-04
2.803650e+01	-1.260436e-04
2.819844e+01	-1.275038e-04
2.836131e+01	-1.289810e-04
2.852513e+01	-1.304752e-04
2.868989e+01	-1.319868e-04
2.885560e+01	-1.335159e-04
2.902227e+01	-1.350627e-04
2.918990e+01	-1.366274e-04
2.935850e+01	-1.382102e-04
2.952807e+01	-1.398114e-04
2.969863e+01	-1.414311e-04
2.987016e+01	-1.430696e-04
3.004269e+01	-1.447271e-04
3.021622e+01	-1.464038e-04
3.039075e+01	-1.480999e-04
3.056628e+01	-1.498156e-04
3.074283e+01	-1.515513e-04
3.092040e+01	-1.533070e-04
3.109900e+01	-1.550831e-04
3.127862e+01	-1.568797e-04
3.145929e+01	-1.586972e-04
3.164099e+01	-1.605357e-04
3.182375e+01	-1.623955e-04
3.200756e+01	-1.642769e-04
3.219244e+01	-1.661800e-04
3.237838e+01	-1.681052e-04
3.256540e+01	-1.700527e-04
3.275349e+01	-1.720228e-04
3.294268e+01	-1.740157e-04
3.313295e+01	-1.760317e-04
3.332433e+01	-1.780710e-04
3.351681e+01	-1.801340e-04
3.371040e+01	-1.822208e-04
3.390511e+01	-1.843319e-04
3.410094e+01	-1.864674e-04
3.429791e+01	-1.886276e-04
3.449601e+01	-1.908128e-04
3.469526e+01	-1.930234e-04
3.489566e+01	-1.952596e-04
3.509721e+01	-1.975217e-04
3.529993e+01	-1.998100e-04
3.550382e+01	-2.021248e-04
3.570889e+01	-2.044664e-04
3.591515e+01	-2.068351e-04
3.612259e+01	-2.092313e-04
3.633123e+01	-2.116553e-04
3.654108e+01	-2.141073e-04
3.675214e+01	-2.165877e-04
3.696442e+01	-2.190969e-04
3.717792e+01	-2.216351e-04
3.739266e+01	-2.242028e-04
3.760864e+01	-2.268001e-04
3.782587e+01	-2.294276e-04
3.804435e+01	-2.320855e-04
3.826409e+01	-2.347742e-04
3.848510e+01	-2.374941e-04
3.870739e+01	-2.402454e-04
3.893096e+01	-2.430287e-04
3.915583e+01	-2.458441e-04
3.938199e+01	-2.486922e-04
3.960946e+01	-2.515733e-04
3.983824e+01	-2.544878e-04
4.006834e+01	-2.574360e-04
4.029978e+01	-2.604184e-04
4.053255e+01	-2.634353e-04
4.076666e+01	-2.664872e-04
4.100213e+01	-2.695744e-04
4.123896e+01	-2.726974e-04
4.147715e+01	-2.758566e-04
4.171672e+01	-2.790524e-04
4.195767e+01	-2.822852e-04
4.220002e+01	-2.855554e-04
4.244377e+01	-2.888635e-04
4.268892e+01	-2.922100e-04
4.293549e+01	-2.955952e-04
4.318348e+01	-2.990196e-04
4.343291e+01	-3.024837e-04
4.368377e+01	-3.059880e-04
4.393609e+01	-3.095328e-04
4.418986e+01	-3.131187e-04
4.444510e+01	-3.167461e-04
4.470182e+01	-3.204156e-04
4.496001e+01	-3.241276e-04
4.521970e+01	-3.278825e-04
4.548089e+01	-3.316810e-04
4.574358e+01	-3.355235e-04
4.600779e+01	-3.394104e-04
4.627353e+01	-3.433425e-04
4.654081e+01	-3.473200e-04
4.680963e+01	-3.513436e-04
4.708000e+01	-3.554139e-04
4.735193e+01	-3.595313e-04
4.762543e+01	-3.636964e-04
4.790051e+01	-3.679097e-04
4.817719e+01	-3.721719e-04
4.845545e+01	-3.764834e-04
4.873533e+01	-3.808449e-04
4.901682e+01	-3.852569e-04
4.929994e+01	-3.897200e-04
4.958470e+01	-3.942348e-04
4.987110e+01	-3.988019e-04
5.015915e+01	-4.034219e-04
5.044887e+01	-4.080955e-04
5.074026e+01	-4.128231e-04
5.103333e+01	-4.176056e-04
5.132810e+01	-4.224434e-04
5.162457e+01	-4.273373e-04
5.192275e+01	-4.322879e-04
5.222265e+01	-4.372958e-04
5.252429e+01	-4.423617e-04
5.282767e+01	-4.474864e-04
5.313280e+01	-4.526703e-04
5.343969e+01	-4.579144e-04
5.374836e+01	-4.632192e-04
5.405880e+01	-4.685854e-04
5.437105e+01	-4.740138e-04
5.468509e+01	-4.795051e-04
5.500095e+01	-4.850599e-04
5.531863e+01	-4.906792e-04
5.563815e+01	-4.963635e-04
5.595951e+01	-5.021137e-04
5.628273e+01	-5.079305e-04
5.660782e+01	-5.138146e-04
5.693479e+01	-5.197670e-04
5.726364e+01	-5.257882e-04
5.759439e+01	-5.318793e-04
5.792705e+01	-5.380409e-04
5.826164e+01	-5.442738e-04
5.859815e+01	-5.505790e-04
5.893662e+01	-5.569572e-04
5.927703e+01	-5.634093e-04
5.961941e+01	-5.699361e-04
5.996377e+01	-5.765385e-04
6.031012e+01	-5.832174e-04
6.065847e+01	-5.899737e-04
6.100883e+01	-5.968082e-04
6.136121e+01	-6.037220e-04
6.171563e+01	-6.107157e-04
6.207210e+01	-6.177906e-04
6.243063e+01	-6.249473e-04
6.279122e+01	-6.321870e-04
6.315390e+01	-6.395105e-04
6.351868e+01	-6.469188e-04
6.388556e+01	-6.544130e-04
6.425456e+01	-6.619940e-04
6.462569e+01	-6.696628e-04
6.499897e+01	-6.774204e-04
6.537440e+01	-6.852679e-04
6.575200e+01	-6.932063e-04
6.613178e+01	-7.012366e-04
6.651375e+01	-7.093600e-04
6.689793e+01	-7.175774e-04
6.728433e+01	-7.258901e-04
6.767297e+01	-7.342990e-04
6.806384e+01	-7.428053e-04
6.845698e+01	-7.514102e-04
6.885238e+01	-7.601147e-04
6.925007e+01	-7.689201e-04
6.965005e+01	-7.778274e-04
7.005235e+01	-7.868379e-04
7.045697e+01	-7.959528e-04
7.086393e+01	-8.051733e-04
7.127323e+01	-8.145006e-04
7.168490e+01	-8.239359e-04
7.209895e+01	-8.334805e-04
7.251539e+01	-8.431357e-04
7.293424e+01	-8.529027e-04
7.335551e+01	-8.627828e-04
7.377920e+01	-8.727774e-04
7.420535e+01	-8.828877e-04
7.463396e+01	-8.931152e-04
7.506504e+01	-9.034611e-04
7.549861e+01	-9.139268e-04
7.593469e+01	-9.245138e-04
7.637328e+01	-9.352234e-04
7.681441e+01	-9.460570e-04
7.725809e+01	-9.570161e-04
7.770433e+01	-9.681022e-04
7.815315e+01	-9.793166e-04
7.860456e+01	-9.906610e-04
7.905857e+01	-1.002137e-03
7.951521e+01	-1.013745e-03
7.997449e+01	-1.025489e-03
8.043642e+01	-1.037368e-03
8.090102e+01	-1.049384e-03
8.136830e+01	-1.061540e-03
8.183828e+01	-1.073837e-03
8.231097e+01	-1.086276e-03
8.278640e+01	-1.098859e-03
8.326457e+01	-1.111588e-03
8.374550e+01	-1.124465e-03
8.422921e+01	-1.137490e-03
8.471572e+01	-1.150667e-03
8.520503e+01	-1.163996e-03
8.569717e+01	-1.177479e-03
8.619215e+01	-1.191119e-03
8.669000e+01	-1.204916e-03
8.719071e+01	-1.218873e-03
8.769432e+01	-1.232992e-03
8.820084e+01	-1.247275e-03
8.871029e+01	-1.261723e-03
8.922267e+01	-1.276338e-03
8.973802e+01	-1.291123e-03
9.025634e+01	-1.306078e-03
9.077766e+01	-1.321207e-03
9.130199e+01	-1.336512e-03
9.182935e+01	-1.351993e-03
9.235975e+01	-1.367654e-03
9.289321e+01	-1.383496e-03
9.342976e+01	-1.399521e-03
9.396941e+01	-1.415733e-03
9.451217e+01	-1.432132e-03
9.505807e+01	-1.448720e-03
9.560712e+01	-1.465501e-03
9.615934e+01	-1.482477e-03
9.671476e+01	-1.499649e-03
9.727338e+01	-1.517019e-03
9.783522e+01	-1.534591e-03
9.840032e+01	-1.552367e-03
9.896867e+01	-1.570348e-03
9.954031e+01	-1.588538e-03
1.001153e+02	-1.606938e-03
1.006935e+02	-1.625551e-03
1.012751e+02	-1.644380e-03
1.018601e+02	-1.663427e-03
1.024484e+02	-1.682695e-03
1.030402e+02	-1.702185e-03
1.036353e+02	-1.721902e-03
1.042339e+02	-1.741846e-03
1.048360e+02	-1.762022e-03
1.054415e+02	-1.782431e-03
1.060505e+02	-1.803077e-03
1.066631e+02	-1.823962e-03
1.072791e+02	-1.845088e-03
1.078988e+02	-1.866460e-03
1.085220e+02	-1.888078e-03
1.091488e+02	-1.909947e-03
1.097793e+02	-1.932070e-03
1.104133e+02	-1.954448e-03
1.110511e+02	-1.977086e-03
1.116925e+02	-1.999986e-03
1.123376e+02	-2.023151e-03
1.129865e+02	-2.046584e-03
1.136391e+02	-2.070288e-03
1.142955e+02	-2.094267e-03
1.149556e+02	-2.118524e-03
1.156196e+02	-2.143062e-03
1.162874e+02	-2.167883e-03
1.169591e+02	-2.192993e-03
1.176347e+02	-2.218393e-03
1.183141e+02	-2.244087e-03
1.189975e+02	-2.270078e-03
1.196848e+02	-2.296371e-03
1.203761e+02	-2.322968e-03
1.210714e+02	-2.349872e-03
1.217707e+02	-2.377089e-03
1.224740e+02	-2.404620e-03
1.231814e+02	-2.432471e-03
1.238929e+02	-2.460644e-03
1.246085e+02	-2.489143e-03
1.253283e+02	-2.517972e-03
1.260522e+02	-2.547135e-03
1.267802e+02	-2.576635e-03
1.275125e+02	-2.606477e-03
1.282490e+02	-2.636665e-03
1.289898e+02	-2.667202e-03
1.297348e+02	-2.698092e-03
1.304842e+02	-2.729341e-03
1.312378e+02	-2.760951e-03
1.319959e+02	-2.792927e-03
1.327583e+02	-2.825273e-03
1.335251e+02	-2.857994e-03
1.342963e+02	-2.891093e-03
1.350720e+02	-2.924576e-03
1.358522e+02	-2.958446e-03
1.366368e+02	-2.992709e-03
1.374260e+02	-3.027368e-03
1.382198e+02	-3.062429e-03
1.390182e+02	-3.097895e-03
1.398211e+02	-3.133772e-03
1.406287e+02	-3.170064e-03
1.414410e+02	-3.206777e-03
1.422579e+02	-3.243914e-03
1.430796e+02	-3.281482e-03
1.439060e+02	-3.319484e-03
1.447372e+02	-3.357926e-03
1.455732e+02	-3.396813e-03
1.464141e+02	-3.436151e-03
1.472597e+02	-3.475943e-03
1.481103e+02	-3.516197e-03
1.489658e+02	-3.556916e-03
1.498262e+02	-3.598107e-03
1.506916e+02	-3.639774e-03
1.515620e+02	-3.681924e-03
1.524374e+02	-3.724562e-03
1.533179e+02	-3.767693e-03
1.542034e+02	-3.811324e-03
1.550941e+02	-3.855459e-03
1.559899e+02	-3.900106e-03
1.568909e+02	-3.945269e-03
1.577971e+02	-3.990955e-03
1.587085e+02	-4.037170e-03
1.596252e+02	-4.083919e-03
1.605472e+02	-4.131210e-03
1.614745e+02	-4.179048e-03
1.624072e+02	-4.227440e-03
1.633453e+02	-4.276392e-03
1.642887e+02	-4.325910e-03
1.652377e+02	-4.376001e-03
1.661921e+02	-4.426673e-03
1.671520e+02	-4.477930e-03
1.681175e+02	-4.529781e-03
1.690885e+02	-4.582232e-03
1.700651e+02	-4.635290e-03
1.710474e+02	-4.688962e-03
1.720354e+02	-4.743255e-03
1.730291e+02	-4.798177e-03
1.740285e+02	-4.853734e-03
1.750337e+02	-4.909933e-03
1.760446e+02	-4.966784e-03
1.770615e+02	-5.024292e-03
1.780842e+02	-5.082465e-03
1.791128e+02	-5.141312e-03
1.801473e+02	-5.200840e-03
1.811878e+02	-5.261056e-03
1.822344e+02	-5.321970e-03
1.832870e+02	-5.383588e-03
1.843456e+02	-5.445919e-03
1.854104e+02	-5.508971e-03
1.864813e+02	-5.572753e-03
1.875584e+02	-5.637273e-03
1.886418e+02	-5.702539e-03
1.897313e+02	-5.768560e-03
1.908272e+02	-5.835346e-03
1.919294e+02	-5.902903e-03
1.930380e+02	-5.971243e-03
1.941530e+02	-6.040373e-03
1.952744e+02	-6.110303e-03
1.964023e+02	-6.181042e-03
1.975367e+02	-6.252599e-03
1.986777e+02	-6.324984e-03
1.998252e+02	-6.398207e-03
2.009794e+02	-6.472276e-03
2.021403e+02	-6.547203e-03
2.033078e+02	-6.622996e-03
2.044821e+02	-6.699665e-03
2.056632e+02	-6.777222e-03
2.068511e+02	-6.855676e-03
2.080459e+02	-6.935037e-03
2.092475e+02	-7.015316e-03
2.104561e+02	-7.096524e-03
2.116717e+02	-7.178671e-03
2.128943e+02	-7.261768e-03
2.141240e+02	-7.345826e-03
2.153608e+02	-7.430856e-03
2.166047e+02	-7.516870e-03
2.178558e+02	-7.603878e-03
2.191141e+02	-7.691893e-03
2.203797e+02	-7.780925e-03
2.216526e+02	-7.870987e-03
2.229329e+02	-7.962091e-03
2.242205e+02	-8.054248e-03
2.255156e+02	-8.147471e-03
2.268182e+02	-8.241771e-03
2.281283e+02	-8.337162e-03
2.294459e+02	-8.433656e-03
2.307712e+02	-8.531266e-03
2.321041e+02	-8.630005e-03
2.334447e+02	-8.729885e-03
2.347931e+02	-8.830919e-03
2.361493e+02	-8.933122e-03
2.375133e+02	-9.036507e-03
2.388851e+02	-9.141087e-03
2.402649e+02	-9.246875e-03
2.416527e+02	-9.353887e-03
2.430484e+02	-9.462136e-03
2.444523e+02	-9.571636e-03
2.458642e+02	-9.682402e-03
2.472843e+02	-9.794448e-03
2.487126e+02	-9.907789e-03
2.501492e+02	-1.002244e-02
2.515940e+02	-1.013842e-02
2.530472e+02	-1.025573e-02
2.545088e+02	-1.037441e-02
2.559789e+02	-1.049445e-02
2.574574e+02	-1.061588e-02
2.589444e+02	-1.073872e-02
2.604401e+02	-1.086297e-02
2.619444e+02	-1.098866e-02
2.634574e+02	-1.111581e-02
2.649791e+02	-1.124442e-02
2.665096e+02	-1.137452e-02
2.680489e+02	-1.150612e-02
2.695972e+02	-1.163924e-02
2.711544e+02	-1.177390e-02
2.727205e+02	-1.191012e-02
2.742958e+02	-1.204791e-02
2.758801e+02	-1.218729e-02
2.774736e+02	-1.232828e-02
2.790762e+02	-1.247090e-02
2.806882e+02	-1.261517e-02
2.823094e+02	-1.276110e-02
2.839400e+02	-1.290872e-02
2.855800e+02	-1.305805e-02
2.872295e+02	-1.320910e-02
2.888886e+02	-1.336189e-02
2.905572e+02	-1.351645e-02
2.922354e+02	-1.367280e-02
2.939234e+02	-1.383095e-02
2.956211e+02	-1.399092e-02
2.973286e+02	-1.415275e-02
2.990459e+02	-1.431644e-02
3.007732e+02	-1.448202e-02
3.025104e+02	-1.464951e-02
3.042577e+02	-1.481894e-02
3.060151e+02	-1.499033e-02
3.077826e+02	-1.516369e-02
3.095604e+02	-1.533905e-02
3.113484e+02	-1.551644e-02
3.131467e+02	-1.569588e-02
3.149554e+02	-1.587738e-02
3.167746e+02	-1.606099e-02
3.186043e+02	-1.624671e-02
3.204445e+02	-1.643457e-02
3.222954e+02	-1.662461e-02
3.241570e+02	-1.681683e-02
3.260293e+02	-1.701128e-02
3.279124e+02	-1.720796e-02
3.298064e+02	-1.740692e-02
3.317114e+02	-1.760818e-02
3.336273e+02	-1.781175e-02
3.355544e+02	-1.801767e-02
3.374925e+02	-1.822597e-02
3.394418e+02	-1.843668e-02
3.414024e+02	-1.864981e-02
3.433744e+02	-1.886540e-02
3.453577e+02	-1.908348e-02
3.473525e+02	-1.930408e-02
3.493588e+02	-1.952721e-02
3.513766e+02	-1.975293e-02
3.534062e+02	-1.998124e-02
3.554474e+02	-2.021219e-02
3.575005e+02	-2.044580e-02
3.595654e+02	-2.068210e-02
3.616422e+02	-2.092113e-02
3.637311e+02	-2.116291e-02
3.658320e+02	-2.140749e-02
3.679450e+02	-2.165488e-02
3.700702e+02	-2.190512e-02
3.722077e+02	-2.215825e-02
3.743576e+02	-2.241429e-02
3.765199e+02	-2.267328e-02
3.786946e+02	-2.293526e-02
3.808820e+02	-2.320026e-02
3.830819e+02	-2.346832e-02
3.852946e+02	-2.373946e-02
3.875200e+02	-2.401372e-02
3.897583e+02	-2.429115e-02
3.920096e+02	-2.457177e-02
3.942738e+02	-2.485562e-02
3.965511e+02	-2.514274e-02
3.988416e+02	-2.543317e-02
4.011452e+02	-2.572695e-02
4.034622e+02	-2.602410e-02
4.057926e+02	-2.632468e-02
4.081365e+02	-2.662872e-02
4.104938e+02	-2.693626e-02
4.128648e+02	-2.724735e-02
4.152495e+02	-2.756201e-02
4.176480e+02	-2.788029e-02
4.200603e+02	-2.820224e-02
4.224866e+02	-2.852790e-02
4.249268e+02	-2.885730e-02
4.273812e+02	-2.919049e-02
4.298497e+02	-2.952752e-02
4.323325e+02	-2.986842e-02
4.348297e+02	-3.021325e-02
4.373412e+02	-3.056204e-02
4.398673e+02	-3.091484e-02
4.424079e+02	-3.127171e-02
4.449633e+02	-3.163267e-02
4.475334e+02	-3.199779e-02
4.501183e+02	-3.236711e-02
4.527182e+02	-3.274067e-02
4.553330e+02	-3.311853e-02
4.579630e+02	-3.350074e-02
4.606082e+02	-3.388733e-02
4.632687e+02	-3.427837e-02
4.659445e+02	-3.467391e-02
4.686358e+02	-3.507399e-02
4.713426e+02	-3.547866e-02
4.740650e+02	-3.588799e-02
4.768032e+02	-3.630202e-02
4.795572e+02	-3.672080e-02
4.823271e+02	-3.714440e-02
4.851130e+02	-3.757286e-02
4.879150e+02	-3.800624e-02
4.907332e+02	-3.844460e-02
4.935676e+02	-3.888799e-02
4.964185e+02	-3.933648e-02
4.992858e+02	-3.979011e-02
5.021696e+02	-4.024894e-02
5.050701e+02	-4.071305e-02
5.079874e+02	-4.118248e-02
5.109215e+02	-4.165729e-02
5.138726e+02	-4.213756e-02
5.168407e+02	-4.262333e-02
5.198259e+02	-4.311468e-02
5.228284e+02	-4.361166e-02
5.258482e+02	-4.411434e-02
5.288855e+02	-4.462279e-02
5.319403e+02	-4.513706e-02
5.350128e+02	-4.565723e-02
5.381030e+02	-4.618336e-02
5.412111e+02	-4.671553e-02
5.443371e+02	-4.725379e-02
5.474812e+02	-4.779822e-02
5.506434e+02	-4.834888e-02
5.538239e+02	-4.890586e-02
5.570228e+02	-4.946921e-02
5.602401e+02	-5.003902e-02
5.634760e+02	-5.061535e-02
5.667306e+02	-5.119828e-02
5.700040e+02	-5.178788e-02
5.732964e+02	-5.238424e-02
5.766077e+02	-5.298741e-02
5.799382e+02	-5.359749e-02
5.832879e+02	-5.421455e-02
5.866569e+02	-5.483867e-02
5.900454e+02	-5.546993e-02
5.934535e+02	-5.610840e-02
5.968813e+02	-5.675418e-02
6.003288e+02	-5.740734e-02
6.037963e+02	-5.806797e-02
6.072838e+02	-5.873615e-02
6.107914e+02	-5.941196e-02
6.143194e+02	-6.009550e-02
6.178676e+02	-6.078684e-02
6.214364e+02	-6.148609e-02
6.250258e+02	-6.219331e-02
6.286359e+02	-6.290862e-02
6.322669e+02	-6.363209e-02
6.359189e+02	-6.436381e-02
6.395919e+02	-6.510389e-02
6.432862e+02	-6.585242e-02
6.470017e+02	-6.660948e-02
6.507388e+02	-6.737518e-02
6.544974e+02	-6.814961e-02
6.582778e+02	-6.893287e-02
6.620800e+02	-6.972507e-02
6.659041e+02	-7.052629e-02
6.697504e+02	-7.133664e-02
6.736188e+02	-7.215623e-02
6.775096e+02	-7.298515e-02
6.814229e+02	-7.382352e-02
6.853587e+02	-7.467143e-02
6.893173e+02	-7.552900e-02
6.932988e+02	-7.639633e-02
6.973033e+02	-7.727352e-02
7.013309e+02	-7.816071e-02
