Frequency(Hz)	Magnitude(dB)
1.000000e+01	-2.225719e+00
1.005776e+01	-2.245968e+00
1.011585e+01	-2.266204e+00
1.017428e+01	-2.286535e+00
1.023305e+01	-2.307099e+00
1.029215e+01	-2.328021e+00
1.035160e+01	-2.348660e+00
1.041139e+01	-2.369789e+00
1.047153e+01	-2.390836e+00
1.053201e+01	-2.411930e+00
1.059284e+01	-2.433474e+00
1.065403e+01	-2.454772e+00
1.071556e+01	-2.476738e+00
1.077746e+01	-2.498504e+00
1.083971e+01	-2.520279e+00
1.090232e+01	-2.542241e+00
1.096529e+01	-2.564691e+00
1.102862e+01	-2.587002e+00
1.109232e+01	-2.609477e+00
1.115639e+01	-2.632218e+00
1.122083e+01	-2.654960e+00
1.128564e+01	-2.678051e+00
1.135083e+01	-2.701177e+00
1.141639e+01	-2.724184e+00
1.148233e+01	-2.747509e+00
1.154865e+01	-2.771218e+00
1.161536e+01	-2.795116e+00
1.168245e+01	-2.818578e+00
1.174992e+01	-2.842516e+00
1.181779e+01	-2.866558e+00
1.188605e+01	-2.891079e+00
1.195470e+01	-2.915425e+00
1.202375e+01	-2.940002e+00
1.209320e+01	-2.964336e+00
1.216305e+01	-2.989309e+00
1.223330e+01	-3.014129e+00
1.230396e+01	-3.039620e+00
1.237503e+01	-3.064885e+00
1.244651e+01	-3.090067e+00
1.251840e+01	-3.115668e+00
1.259070e+01	-3.141324e+00
1.266343e+01	-3.167219e+00
1.273657e+01	-3.193092e+00
1.281014e+01	-3.219108e+00
1.288413e+01	-3.245350e+00
1.295855e+01	-3.271845e+00
1.303339e+01	-3.298306e+00
1.310867e+01	-3.325116e+00
1.318439e+01	-3.352021e+00
1.326054e+01	-3.379188e+00
1.333713e+01	-3.406011e+00
1.341417e+01	-3.433261e+00
1.349165e+01	-3.460660e+00
1.356958e+01	-3.488441e+00
1.364795e+01	-3.516133e+00
1.372678e+01	-3.543953e+00
1.380607e+01	-3.571854e+00
1.388581e+01	-3.599733e+00
1.396602e+01	-3.628263e+00
1.404668e+01	-3.656395e+00
1.412782e+01	-3.685149e+00
1.420942e+01	-3.714134e+00
1.429149e+01	-3.742791e+00
1.437404e+01	-3.771402e+00
1.445706e+01	-3.800826e+00
1.454057e+01	-3.829784e+00
1.462455e+01	-3.859252e+00
1.470902e+01	-3.889114e+00
1.479398e+01	-3.918522e+00
1.487943e+01	-3.948357e+00
1.496537e+01	-3.978122e+00
1.505181e+01	-4.008409e+00
1.513875e+01	-4.038628e+00
1.522619e+01	-4.068856e+00
1.531414e+01	-4.099195e+00
1.540259e+01	-4.130157e+00
1.549156e+01	-4.160989e+00
1.558103e+01	-4.192070e+00
1.567103e+01	-4.222891e+00
1.576155e+01	-4.254038e+00
1.585258e+01	-4.285219e+00
1.594415e+01	-4.316439e+00
1.603624e+01	-4.348486e+00
1.612886e+01	-4.379931e+00
1.622202e+01	-4.411717e+00
1.631572e+01	-4.443817e+00
1.640996e+01	-4.475917e+00
1.650474e+01	-4.508018e+00
1.660008e+01	-4.540679e+00
1.669596e+01	-4.572991e+00
1.679239e+01	-4.605687e+00
1.688938e+01	-4.638634e+00
1.698694e+01	-4.671389e+00
1.708505e+01	-4.704441e+00
1.718373e+01	-4.737475e+00
1.728299e+01	-4.770838e+00
1.738281e+01	-4.804191e+00
1.748322e+01	-4.837973e+00
1.758420e+01	-4.871145e+00
1.768576e+01	-4.905100e+00
1.778792e+01	-4.939205e+00
1.789066e+01	-4.973368e+00
1.799399e+01	-5.007281e+00
1.809793e+01	-5.041419e+00
1.820246e+01	-5.076139e+00
1.830760e+01	-5.110506e+00
1.841334e+01	-5.145383e+00
1.851969e+01	-5.180057e+00
1.862666e+01	-5.214931e+00
1.873425e+01	-5.250082e+00
1.884246e+01	-5.285393e+00
1.895129e+01	-5.320201e+00
1.906075e+01	-5.355822e+00
1.917085e+01	-5.391383e+00
1.928158e+01	-5.426751e+00
1.939295e+01	-5.462544e+00
1.950496e+01	-5.498534e+00
1.961762e+01	-5.534633e+00
1.973093e+01	-5.570582e+00
1.984490e+01	-5.606462e+00
1.995952e+01	-5.643323e+00
2.007480e+01	-5.679515e+00
2.019076e+01	-5.716237e+00
2.030738e+01	-5.752805e+00
2.042467e+01	-5.789565e+00
2.054264e+01	-5.826406e+00
2.066130e+01	-5.863423e+00
2.078064e+01	-5.900676e+00
2.090066e+01	-5.937762e+00
2.102139e+01	-5.975078e+00
2.114280e+01	-6.012491e+00
2.126492e+01	-6.050024e+00
2.138775e+01	-6.087634e+00
2.151128e+01	-6.125290e+00
2.163553e+01	-6.163571e+00
2.176050e+01	-6.201435e+00
2.188619e+01	-6.239459e+00
2.201260e+01	-6.277610e+00
2.213974e+01	-6.315910e+00
2.226762e+01	-6.354216e+00
2.239624e+01	-6.392805e+00
2.252560e+01	-6.431393e+00
2.265571e+01	-6.469992e+00
2.278656e+01	-6.509059e+00
2.291818e+01	-6.547767e+00
2.305055e+01	-6.586563e+00
2.318369e+01	-6.626296e+00
2.331760e+01	-6.665384e+00
2.345228e+01	-6.704669e+00
2.358774e+01	-6.743703e+00
2.372398e+01	-6.783257e+00
2.386101e+01	-6.823095e+00
2.399883e+01	-6.862771e+00
2.413745e+01	-6.902625e+00
2.427686e+01	-6.942380e+00
2.441709e+01	-6.981657e+00
2.455812e+01	-7.021987e+00
2.469997e+01	-7.062373e+00
2.484263e+01	-7.102706e+00
2.498612e+01	-7.143163e+00
2.513044e+01	-7.183407e+00
2.527559e+01	-7.224253e+00
2.542158e+01	-7.264701e+00
2.556842e+01	-7.305044e+00
2.571610e+01	-7.346007e+00
2.586463e+01	-7.386831e+00
2.601403e+01	-7.427850e+00
2.616428e+01	-7.468309e+00
2.631541e+01	-7.509542e+00
2.646740e+01	-7.551140e+00
2.662028e+01	-7.592312e+00
2.677404e+01	-7.633967e+00
2.692868e+01	-7.675102e+00
2.708422e+01	-7.716393e+00
2.724066e+01	-7.758249e+00
2.739800e+01	-7.799911e+00
2.755625e+01	-7.841642e+00
2.771541e+01	-7.883406e+00
2.787550e+01	-7.925301e+00
2.803650e+01	-7.967085e+00
2.819844e+01	-8.009645e+00
2.836131e+01	-8.051729e+00
2.852513e+01	-8.093903e+00
2.868989e+01	-8.136544e+00
2.885560e+01	-8.178486e+00
2.902227e+01	-8.220910e+00
2.918990e+01	-8.263446e+00
2.935850e+01	-8.306119e+00
2.952807e+01	-8.348764e+00
2.969863e+01	-8.391776e+00
2.987016e+01	-8.434259e+00
3.004269e+01	-8.477418e+00
3.021622e+01	-8.520242e+00
3.039075e+01	-8.563029e+00
3.056628e+01	-8.606187e+00
3.074283e+01	-8.649290e+00
3.092040e+01	-8.692570e+00
3.109900e+01	-8.736068e+00
3.127862e+01	-8.779428e+00
3.145929e+01	-8.823076e+00
3.164099e+01	-8.866376e+00
3.182375e+01	-8.910100e+00
3.200756e+01	-8.953174e+00
3.219244e+01	-8.996860e+00
3.237838e+01	-9.040981e+00
3.256540e+01	-9.084354e+00
3.275349e+01	-9.128300e+00
3.294268e+01	-9.172440e+00
3.313295e+01	-9.215993e+00
3.332433e+01	-9.260514e+00
3.351681e+01	-9.304592e+00
3.371040e+01	-9.348939e+00
3.390511e+01	-9.392803e+00
3.410094e+01	-9.437544e+00
3.429791e+01	-9.481811e+00
3.449601e+01	-9.526100e+00
3.469526e+01	-9.570589e+00
3.489566e+01	-9.615326e+00
3.509721e+01	-9.659661e+00
3.529993e+01	-9.704430e+00
3.550382e+01	-9.749372e+00
3.570889e+01	-9.793423e+00
3.591515e+01	-9.838522e+00
3.612259e+01	-9.883834e+00
3.633123e+01	-9.928484e+00
3.654108e+01	-9.973828e+00
3.675214e+01	-1.001817e+01
3.696442e+01	-1.006352e+01
3.717792e+01	-1.010893e+01
3.739266e+01	-1.015358e+01
3.760864e+01	-1.019887e+01
3.782587e+01	-1.024427e+01
3.804435e+01	-1.029032e+01
3.826409e+01	-1.033475e+01
3.848510e+01	-1.038102e+01
3.870739e+01	-1.042620e+01
3.893096e+01	-1.047161e+01
3.915583e+01	-1.051725e+01
3.938199e+01	-1.056245e+01
3.960946e+01	-1.060862e+01
3.983824e+01	-1.065415e+01
4.006834e+01	-1.069969e+01
4.029978e+01	-1.074562e+01
4.053255e+01	-1.079131e+01
4.076666e+01	-1.083775e+01
4.100213e+01	-1.088342e+01
4.123896e+01	-1.092861e+01
4.147715e+01	-1.097517e+01
4.171672e+01	-1.102105e+01
4.195767e+01	-1.106759e+01
4.220002e+01	-1.111422e+01
4.244377e+01	-1.115958e+01
4.268892e+01	-1.120550e+01
4.293549e+01	-1.125234e+01
4.318348e+01	-1.129850e+01
4.343291e+01	-1.134476e+01
4.368377e+01	-1.139121e+01
4.393609e+01	-1.143669e+01
4.418986e+01	-1.148407e+01
4.444510e+01	-1.153057e+01
4.470182e+01	-1.157683e+01
4.496001e+01	-1.162388e+01
4.521970e+01	-1.167078e+01
4.548089e+01	-1.171684e+01
4.574358e+01	-1.176336e+01
4.600779e+01	-1.181042e+01
4.627353e+01	-1.185779e+01
4.654081e+01	-1.190402e+01
4.680963e+01	-1.195025e+01
4.708000e+01	-1.199691e+01
4.735193e+01	-1.204513e+01
4.762543e+01	-1.209090e+01
4.790051e+01	-1.213817e+01
4.817719e+01	-1.218515e+01
4.845545e+01	-1.223229e+01
4.873533e+01	-1.227884e+01
4.901682e+01	-1.232574e+01
4.929994e+01	-1.237387e+01
4.958470e+01	-1.242111e+01
4.987110e+01	-1.246797e+01
5.015915e+01	-1.251454e+01
5.044887e+01	-1.256228e+01
5.074026e+01	-1.260970e+01
5.103333e+01	-1.265687e+01
5.132810e+01	-1.270422e+01
5.162457e+01	-1.275099e+01
5.192275e+01	-1.279905e+01
5.222265e+01	-1.284634e+01
5.252429e+01	-1.289300e+01
5.282767e+01	-1.294069e+01
5.313280e+01	-1.298800e+01
5.343969e+01	-1.303627e+01
5.374836e+01	-1.308467e+01
5.405880e+01	-1.313120e+01
5.437105e+01	-1.317925e+01
5.468509e+01	-1.322639e+01
5.500095e+01	-1.327466e+01
5.531863e+01	-1.332166e+01
5.563815e+01	-1.336949e+01
5.595951e+01	-1.341679e+01
5.628273e+01	-1.346646e+01
5.660782e+01	-1.351265e+01
5.693479e+01	-1.356015e+01
5.726364e+01	-1.360793e+01
5.759439e+01	-1.365624e+01
5.792705e+01	-1.370486e+01
5.826164e+01	-1.375271e+01
5.859815e+01	-1.380067e+01
5.893662e+01	-1.384793e+01
5.927703e+01	-1.389539e+01
5.961941e+01	-1.394384e+01
5.996377e+01	-1.399276e+01
6.031012e+01	-1.403973e+01
6.065847e+01	-1.408885e+01
6.100883e+01	-1.413641e+01
6.136121e+01	-1.418401e+01
6.171563e+01	-1.423260e+01
6.207210e+01	-1.428140e+01
6.243063e+01	-1.432835e+01
6.279122e+01	-1.437721e+01
6.315390e+01	-1.442576e+01
6.351868e+01	-1.447355e+01
6.388556e+01	-1.452126e+01
6.425456e+01	-1.457016e+01
6.462569e+01	-1.461860e+01
6.499897e+01	-1.466656e+01
6.537440e+01	-1.471501e+01
6.575200e+01	-1.476289e+01
6.613178e+01	-1.481101e+01
6.651375e+01	-1.486079e+01
6.689793e+01	-1.490848e+01
6.728433e+01	-1.495698e+01
6.767297e+01	-1.500462e+01
6.806384e+01	-1.505307e+01
6.845698e+01	-1.510212e+01
6.885238e+01	-1.515063e+01
6.925007e+01	-1.519934e+01
6.965005e+01	-1.524709e+01
7.005235e+01	-1.529537e+01
7.045697e+01	-1.534622e+01
7.086393e+01	-1.539418e+01
7.127323e+01	-1.544193e+01
7.168490e+01	-1.549053e+01
7.209895e+01	-1.553950e+01
7.251539e+01	-1.558812e+01
7.293424e+01	-1.563715e+01
7.335551e+01	-1.568481e+01
7.377920e+01	-1.573280e+01
7.420535e+01	-1.578253e+01
7.463396e+01	-1.583161e+01
7.506504e+01	-1.588003e+01
7.549861e+01	-1.592883e+01
7.593469e+01	-1.597713e+01
7.637328e+01	-1.602646e+01
7.681441e+01	-1.607571e+01
7.725809e+01	-1.612422e+01
7.770433e+01	-1.617228e+01
7.815315e+01	-1.622186e+01
7.860456e+01	-1.627011e+01
7.905857e+01	-1.631893e+01
7.951521e+01	-1.636876e+01
7.997449e+01	-1.641738e+01
8.043642e+01	-1.646531e+01
8.090102e+01	-1.651414e+01
8.136830e+01	-1.656436e+01
8.183828e+01	-1.661274e+01
8.231097e+01	-1.666196e+01
8.278640e+01	-1.671139e+01
8.326457e+01	-1.676093e+01
8.374550e+01	-1.680821e+01
8.422921e+01	-1.685803e+01
8.471572e+01	-1.690693e+01
8.520503e+01	-1.695589e+01
8.569717e+01	-1.700402e+01
8.619215e+01	-1.705299e+01
8.669000e+01	-1.710185e+01
8.719071e+01	-1.715176e+01
8.769432e+01	-1.720107e+01
8.820084e+01	-1.724992e+01
8.871029e+01	-1.729877e+01
8.922267e+01	-1.734763e+01
8.973802e+01	-1.739670e+01
9.025634e+01	-1.744642e+01
9.077766e+01	-1.749432e+01
9.130199e+01	-1.754449e+01
9.182935e+01	-1.759402e+01
9.235975e+01	-1.764263e+01
9.289321e+01	-1.769381e+01
9.342976e+01	-1.774088e+01
9.396941e+01	-1.779128e+01
9.451217e+01	-1.783898e+01
9.505807e+01	-1.788875e+01
9.560712e+01	-1.793944e+01
9.615934e+01	-1.798714e+01
9.671476e+01	-1.803741e+01
9.727338e+01	-1.808569e+01
9.783522e+01	-1.813389e+01
9.840032e+01	-1.818428e+01
9.896867e+01	-1.823208e+01
9.954031e+01	-1.828368e+01
1.001153e+02	-1.833215e+01
1.006935e+02	-1.838192e+01
1.012751e+02	-1.843070e+01
1.018601e+02	-1.848070e+01
1.024484e+02	-1.852957e+01
1.030402e+02	-1.857756e+01
1.036353e+02	-1.862864e+01
1.042339e+02	-1.867786e+01
1.048360e+02	-1.872729e+01
1.054415e+02	-1.877525e+01
1.060505e+02	-1.882689e+01
1.066631e+02	-1.887453e+01
1.072791e+02	-1.892309e+01
1.078988e+02	-1.897379e+01
1.085220e+02	-1.902293e+01
1.091488e+02	-1.907172e+01
1.097793e+02	-1.911987e+01
1.104133e+02	-1.917115e+01
1.110511e+02	-1.922105e+01
1.116925e+02	-1.927085e+01
1.123376e+02	-1.932058e+01
1.129865e+02	-1.936937e+01
1.136391e+02	-1.941827e+01
1.142955e+02	-1.946805e+01
1.149556e+02	-1.951768e+01
1.156196e+02	-1.956692e+01
1.162874e+02	-1.961707e+01
1.169591e+02	-1.966688e+01
1.176347e+02	-1.971643e+01
1.183141e+02	-1.976566e+01
1.189975e+02	-1.981489e+01
1.196848e+02	-1.986292e+01
1.203761e+02	-1.991451e+01
1.210714e+02	-1.996313e+01
1.217707e+02	-2.001216e+01
1.224740e+02	-2.006322e+01
1.231814e+02	-2.011135e+01
1.238929e+02	-2.016192e+01
1.246085e+02	-2.021114e+01
1.253283e+02	-2.026050e+01
1.260522e+02	-2.031092e+01
1.267802e+02	-2.036042e+01
1.275125e+02	-2.040975e+01
1.282490e+02	-2.046034e+01
1.289898e+02	-2.050906e+01
1.297348e+02	-2.055786e+01
1.304842e+02	-2.060868e+01
1.312378e+02	-2.065712e+01
1.319959e+02	-2.070624e+01
1.327583e+02	-2.075611e+01
1.335251e+02	-2.080704e+01
1.342963e+02	-2.085590e+01
1.350720e+02	-2.090514e+01
1.358522e+02	-2.095310e+01
1.366368e+02	-2.100518e+01
1.374260e+02	-2.105369e+01
1.382198e+02	-2.110253e+01
1.390182e+02	-2.115484e+01
1.398211e+02	-2.120418e+01
1.406287e+02	-2.125174e+01
1.414410e+02	-2.130203e+01
1.422579e+02	-2.135264e+01
1.430796e+02	-2.140350e+01
1.439060e+02	-2.145198e+01
1.447372e+02	-2.150009e+01
1.455732e+02	-2.154986e+01
1.464141e+02	-2.159852e+01
1.472597e+02	-2.165096e+01
1.481103e+02	-2.170122e+01
1.489658e+02	-2.175047e+01
1.498262e+02	-2.179975e+01
1.506916e+02	-2.184811e+01
1.515620e+02	-2.189777e+01
1.524374e+02	-2.194915e+01
1.533179e+02	-2.199972e+01
1.542034e+02	-2.204847e+01
1.550941e+02	-2.209690e+01
1.559899e+02	-2.214730e+01
1.568909e+02	-2.219611e+01
1.577971e+02	-2.224683e+01
1.587085e+02	-2.229598e+01
1.596252e+02	-2.234729e+01
1.605472e+02	-2.239511e+01
1.614745e+02	-2.244724e+01
1.624072e+02	-2.249585e+01
1.633453e+02	-2.254813e+01
1.642887e+02	-2.259770e+01
1.652377e+02	-2.264463e+01
1.661921e+02	-2.269626e+01
1.671520e+02	-2.274285e+01
1.681175e+02	-2.279595e+01
1.690885e+02	-2.284473e+01
1.700651e+02	-2.289648e+01
1.710474e+02	-2.294347e+01
1.720354e+02	-2.299317e+01
1.730291e+02	-2.304460e+01
1.740285e+02	-2.309243e+01
1.750337e+02	-2.314359e+01
1.760446e+02	-2.319455e+01
1.770615e+02	-2.324435e+01
1.780842e+02	-2.329163e+01
1.791128e+02	-2.334079e+01
1.801473e+02	-2.339189e+01
1.811878e+02	-2.344124e+01
1.822344e+02	-2.349269e+01
1.832870e+02	-2.354052e+01
1.843456e+02	-2.359188e+01
1.854104e+02	-2.364106e+01
1.864813e+02	-2.369231e+01
1.875584e+02	-2.374152e+01
1.886418e+02	-2.379123e+01
1.897313e+02	-2.384077e+01
1.908272e+02	-2.388913e+01
1.919294e+02	-2.393911e+01
1.930380e+02	-2.398772e+01
1.941530e+02	-2.403922e+01
1.952744e+02	-2.409280e+01
1.964023e+02	-2.414122e+01
1.975367e+02	-2.419104e+01
1.986777e+02	-2.424060e+01
1.998252e+02	-2.428637e+01
2.009794e+02	-2.433914e+01
2.021403e+02	-2.438811e+01
2.033078e+02	-2.443920e+01
2.044821e+02	-2.448850e+01
2.056632e+02	-2.453780e+01
2.068511e+02	-2.458913e+01
2.080459e+02	-2.463740e+01
2.092475e+02	-2.468540e+01
2.104561e+02	-2.473625e+01
2.116717e+02	-2.478927e+01
2.128943e+02	-2.483836e+01
2.141240e+02	-2.488912e+01
2.153608e+02	-2.493744e+01
2.166047e+02	-2.498810e+01
2.178558e+02	-2.503903e+01
2.191141e+02	-2.508847e+01
2.203797e+02	-2.513635e+01
2.216526e+02	-2.518575e+01
2.229329e+02	-2.523665e+01
2.242205e+02	-2.528695e+01
2.255156e+02	-2.533753e+01
2.268182e+02	-2.538653e+01
2.281283e+02	-2.543586e+01
2.294459e+02	-2.548734e+01
2.307712e+02	-2.553683e+01
2.321041e+02	-2.558646e+01
2.334447e+02	-2.563452e+01
2.347931e+02	-2.568863e+01
2.361493e+02	-2.573944e+01
2.375133e+02	-2.578867e+01
2.388851e+02	-2.583841e+01
2.402649e+02	-2.588900e+01
2.416527e+02	-2.593819e+01
2.430484e+02	-2.598710e+01
2.444523e+02	-2.603732e+01
2.458642e+02	-2.608649e+01
2.472843e+02	-2.613578e+01
2.487126e+02	-2.618721e+01
2.501492e+02	-2.623747e+01
2.515940e+02	-2.628384e+01
2.530472e+02	-2.633823e+01
2.545088e+02	-2.638609e+01
2.559789e+02	-2.643543e+01
2.574574e+02	-2.648340e+01
2.589444e+02	-2.653751e+01
2.604401e+02	-2.658604e+01
2.619444e+02	-2.663686e+01
2.634574e+02	-2.668464e+01
2.649791e+02	-2.673508e+01
2.665096e+02	-2.678387e+01
2.680489e+02	-2.684147e+01
2.695972e+02	-2.688281e+01
2.711544e+02	-2.693599e+01
2.727205e+02	-2.698698e+01
2.742958e+02	-2.703554e+01
2.758801e+02	-2.708732e+01
2.774736e+02	-2.713322e+01
2.790762e+02	-2.718602e+01
2.806882e+02	-2.723491e+01
2.823094e+02	-2.728754e+01
2.839400e+02	-2.733433e+01
2.855800e+02	-2.738584e+01
2.872295e+02	-2.743799e+01
2.888886e+02	-2.748576e+01
2.905572e+02	-2.753720e+01
2.922354e+02	-2.758733e+01
2.939234e+02	-2.763047e+01
2.956211e+02	-2.768034e+01
2.973286e+02	-2.773730e+01
2.990459e+02	-2.778677e+01
3.007732e+02	-2.783119e+01
3.025104e+02	-2.788784e+01
3.042577e+02	-2.793911e+01
3.060151e+02	-2.798430e+01
3.077826e+02	-2.804073e+01
3.095604e+02	-2.808640e+01
3.113484e+02	-2.813724e+01
3.131467e+02	-2.818423e+01
3.149554e+02	-2.823302e+01
3.167746e+02	-2.828881e+01
3.186043e+02	-2.833523e+01
3.204445e+02	-2.838383e+01
3.222954e+02	-2.843872e+01
3.241570e+02	-2.848521e+01
3.260293e+02	-2.853790e+01
3.279124e+02	-2.858272e+01
3.298064e+02	-2.863573e+01
3.317114e+02	-2.868660e+01
3.336273e+02	-2.873889e+01
3.355544e+02	-2.878793e+01
3.374925e+02	-2.883520e+01
3.394418e+02	-2.888682e+01
3.414024e+02	-2.893175e+01
3.433744e+02	-2.898456e+01
3.453577e+02	-2.903651e+01
3.473525e+02	-2.908656e+01
3.493588e+02	-2.914080e+01
3.513766e+02	-2.918203e+01
3.534062e+02	-2.924132e+01
3.554474e+02	-2.928690e+01
3.575005e+02	-2.933819e+01
3.595654e+02	-2.938994e+01
3.616422e+02	-2.944106e+01
3.637311e+02	-2.948732e+01
3.658320e+02	-2.953588e+01
3.679450e+02	-2.958892e+01
3.700702e+02	-2.963757e+01
3.722077e+02	-2.968919e+01
3.743576e+02	-2.973950e+01
3.765199e+02	-2.978580e+01
3.786946e+02	-2.984016e+01
3.808820e+02	-2.988796e+01
3.830819e+02	-2.994300e+01
3.852946e+02	-2.999054e+01
3.875200e+02	-3.003141e+01
3.897583e+02	-3.009002e+01
3.920096e+02	-3.013773e+01
3.942738e+02	-3.018687e+01
3.965511e+02	-3.023499e+01
3.988416e+02	-3.028570e+01
4.011452e+02	-3.033840e+01
4.034622e+02	-3.038606e+01
4.057926e+02	-3.044014e+01
4.081365e+02	-3.049289e+01
4.104938e+02	-3.053756e+01
4.128648e+02	-3.059148e+01
4.152495e+02	-3.064235e+01
4.176480e+02	-3.068670e+01
4.200603e+02	-3.074305e+01
4.224866e+02	-3.079689e+01
4.249268e+02	-3.083854e+01
4.273812e+02	-3.089083e+01
4.298497e+02	-3.094416e+01
4.323325e+02	-3.099398e+01
4.348297e+02	-3.103782e+01
4.373412e+02	-3.109427e+01
4.398673e+02	-3.114697e+01
4.424079e+02	-3.119167e+01
4.449633e+02	-3.124788e+01
4.475334e+02	-3.129254e+01
4.501183e+02	-3.134190e+01
4.527182e+02	-3.139460e+01
4.553330e+02	-3.144053e+01
4.579630e+02	-3.149580e+01
4.606082e+02	-3.153893e+01
4.632687e+02	-3.159817e+01
4.659445e+02	-3.164252e+01
4.686358e+02	-3.170250e+01
4.713426e+02	-3.174075e+01
4.740650e+02	-3.178879e+01
4.768032e+02	-3.185038e+01
4.795572e+02	-3.189263e+01
4.823271e+02	-3.194413e+01
4.851130e+02	-3.199672e+01
4.879150e+02	-3.204502e+01
4.907332e+02	-3.209272e+01
4.935676e+02	-3.214032e+01
4.964185e+02	-3.220290e+01
4.992858e+02	-3.224589e+01
5.021696e+02	-3.229242e+01
5.050701e+02	-3.234750e+01
5.079874e+02	-3.239158e+01
5.109215e+02	-3.244560e+01
5.138726e+02	-3.249517e+01
5.168407e+02	-3.254606e+01
5.198259e+02	-3.259571e+01
5.228284e+02	-3.265078e+01
5.258482e+02	-3.269459e+01
5.288855e+02	-3.274837e+01
5.319403e+02	-3.279656e+01
5.350128e+02	-3.284793e+01
5.381030e+02	-3.289915e+01
5.412111e+02	-3.294893e+01
5.443371e+02	-3.299738e+01
5.474812e+02	-3.304853e+01
5.506434e+02	-3.309780e+01
5.538239e+02	-3.315216e+01
5.570228e+02	-3.319610e+01
5.602401e+02	-3.324609e+01
5.634760e+02	-3.331071e+01
5.667306e+02	-3.335437e+01
5.700040e+02	-3.340584e+01
5.732964e+02	-3.344972e+01
5.766077e+02	-3.349969e+01
5.799382e+02	-3.354520e+01
5.832879e+02	-3.360246e+01
5.866569e+02	-3.365484e+01
5.900454e+02	-3.369899e+01
5.934535e+02	-3.375311e+01
5.968813e+02	-3.379856e+01
6.003288e+02	-3.385527e+01
6.037963e+02	-3.390534e+01
6.072838e+02	-3.394840e+01
6.107914e+02	-3.400666e+01
6.143194e+02	-3.405247e+01
6.178676e+02	-3.411544e+01
6.214364e+02	-3.415541e+01
6.250258e+02	-3.421429e+01
6.286359e+02	-3.425440e+01
6.322669e+02	-3.430650e+01
6.359189e+02	-3.435987e+01
6.395919e+02	-3.440492e+01
6.432862e+02	-3.446050e+01
6.470017e+02	-3.450929e+01
6.507388e+02	-3.456361e+01
6.544974e+02	-3.461613e+01
6.582778e+02	-3.466216e+01
6.620800e+02	-3.470864e+01
6.659041e+02	-3.476193e+01
6.697504e+02	-3.481288e+01
6.736188e+02	-3.485495e+01
6.775096e+02	-3.491325e+01
6.814229e+02	-3.496163e+01
6.853587e+02	-3.502188e+01
6.893173e+02	-3.506489e+01
6.932988e+02	-3.510933e+01
6.973033e+02	-3.517459e+01
7.013309e+02	-3.520974e+01
