Frequency(Hz)	Magnitude(dB)
1.000000e+01	-2.253544e+00
1.005776e+01	-2.273819e+00
1.011585e+01	-2.294313e+00
1.017428e+01	-2.314810e+00
1.023305e+01	-2.335310e+00
1.029215e+01	-2.356533e+00
1.035160e+01	-2.377568e+00
1.041139e+01	-2.398731e+00
1.047153e+01	-2.419762e+00
1.053201e+01	-2.441373e+00
1.059284e+01	-2.462848e+00
1.065403e+01	-2.484851e+00
1.071556e+01	-2.506536e+00
1.077746e+01	-2.528714e+00
1.083971e+01	-2.550726e+00
1.090232e+01	-2.572968e+00
1.096529e+01	-2.595617e+00
1.102862e+01	-2.618055e+00
1.109232e+01	-2.640849e+00
1.115639e+01	-2.663637e+00
1.122083e+01	-2.686581e+00
1.128564e+01	-2.709826e+00
1.135083e+01	-2.732897e+00
1.141639e+01	-2.756410e+00
1.148233e+01	-2.779919e+00
1.154865e+01	-2.803847e+00
1.161536e+01	-2.827671e+00
1.168245e+01	-2.851587e+00
1.174992e+01	-2.875870e+00
1.181779e+01	-2.900154e+00
1.188605e+01	-2.924439e+00
1.195470e+01	-2.949041e+00
1.202375e+01	-2.973917e+00
1.209320e+01	-2.998841e+00
1.216305e+01	-3.023759e+00
1.223330e+01	-3.048627e+00
1.230396e+01	-3.074308e+00
1.237503e+01	-3.099645e+00
1.244651e+01	-3.125295e+00
1.251840e+01	-3.150817e+00
1.259070e+01	-3.176861e+00
1.266343e+01	-3.203110e+00
1.273657e+01	-3.229016e+00
1.281014e+01	-3.255360e+00
1.288413e+01	-3.281764e+00
1.295855e+01	-3.308575e+00
1.303339e+01	-3.335267e+00
1.310867e+01	-3.361866e+00
1.318439e+01	-3.389285e+00
1.326054e+01	-3.416277e+00
1.333713e+01	-3.443976e+00
1.341417e+01	-3.471151e+00
1.349165e+01	-3.498721e+00
1.356958e+01	-3.526409e+00
1.364795e+01	-3.554100e+00
1.372678e+01	-3.582607e+00
1.380607e+01	-3.610700e+00
1.388581e+01	-3.638900e+00
1.396602e+01	-3.667386e+00
1.404668e+01	-3.695965e+00
1.412782e+01	-3.724298e+00
1.420942e+01	-3.753589e+00
1.429149e+01	-3.782305e+00
1.437404e+01	-3.811577e+00
1.445706e+01	-3.840927e+00
1.454057e+01	-3.870451e+00
1.462455e+01	-3.900186e+00
1.470902e+01	-3.929834e+00
1.479398e+01	-3.959615e+00
1.487943e+01	-3.989503e+00
1.496537e+01	-4.019612e+00
1.505181e+01	-4.049690e+00
1.513875e+01	-4.080208e+00
1.522619e+01	-4.110867e+00
1.531414e+01	-4.141453e+00
1.540259e+01	-4.172357e+00
1.549156e+01	-4.203395e+00
1.558103e+01	-4.234279e+00
1.567103e+01	-4.265735e+00
1.576155e+01	-4.297031e+00
1.585258e+01	-4.328485e+00
1.594415e+01	-4.359897e+00
1.603624e+01	-4.391919e+00
1.612886e+01	-4.423687e+00
1.622202e+01	-4.455873e+00
1.631572e+01	-4.487946e+00
1.640996e+01	-4.520119e+00
1.650474e+01	-4.552561e+00
1.660008e+01	-4.585120e+00
1.669596e+01	-4.618189e+00
1.679239e+01	-4.650590e+00
1.688938e+01	-4.683598e+00
1.698694e+01	-4.716672e+00
1.708505e+01	-4.749973e+00
1.718373e+01	-4.783366e+00
1.728299e+01	-4.816661e+00
1.738281e+01	-4.850506e+00
1.748322e+01	-4.884107e+00
1.758420e+01	-4.917973e+00
1.768576e+01	-4.951545e+00
1.778792e+01	-4.985772e+00
1.789066e+01	-5.020072e+00
1.799399e+01	-5.054397e+00
1.809793e+01	-5.089330e+00
1.820246e+01	-5.123584e+00
1.830760e+01	-5.158066e+00
1.841334e+01	-5.193482e+00
1.851969e+01	-5.228052e+00
1.862666e+01	-5.263046e+00
1.873425e+01	-5.298471e+00
1.884246e+01	-5.333920e+00
1.895129e+01	-5.368999e+00
1.906075e+01	-5.404641e+00
1.917085e+01	-5.440181e+00
1.928158e+01	-5.476105e+00
1.939295e+01	-5.511956e+00
1.950496e+01	-5.548085e+00
1.961762e+01	-5.584304e+00
1.973093e+01	-5.620443e+00
1.984490e+01	-5.656942e+00
1.995952e+01	-5.693202e+00
2.007480e+01	-5.730061e+00
2.019076e+01	-5.766584e+00
2.030738e+01	-5.803420e+00
2.042467e+01	-5.840553e+00
2.054264e+01	-5.877167e+00
2.066130e+01	-5.914460e+00
2.078064e+01	-5.951728e+00
2.090066e+01	-5.988935e+00
2.102139e+01	-6.027009e+00
2.114280e+01	-6.064453e+00
2.126492e+01	-6.101839e+00
2.138775e+01	-6.139702e+00
2.151128e+01	-6.177838e+00
2.163553e+01	-6.215604e+00
2.176050e+01	-6.253521e+00
2.188619e+01	-6.292079e+00
2.201260e+01	-6.330305e+00
2.213974e+01	-6.368867e+00
2.226762e+01	-6.407537e+00
2.239624e+01	-6.445802e+00
2.252560e+01	-6.484616e+00
2.265571e+01	-6.523393e+00
2.278656e+01	-6.561846e+00
2.291818e+01	-6.601526e+00
2.305055e+01	-6.640416e+00
2.318369e+01	-6.680098e+00
2.331760e+01	-6.718851e+00
2.345228e+01	-6.758300e+00
2.358774e+01	-6.797995e+00
2.372398e+01	-6.838007e+00
2.386101e+01	-6.877453e+00
2.399883e+01	-6.917147e+00
2.413745e+01	-6.957168e+00
2.427686e+01	-6.997086e+00
2.441709e+01	-7.037036e+00
2.455812e+01	-7.077541e+00
2.469997e+01	-7.117977e+00
2.484263e+01	-7.158099e+00
2.498612e+01	-7.198763e+00
2.513044e+01	-7.239362e+00
2.527559e+01	-7.279798e+00
2.542158e+01	-7.320482e+00
2.556842e+01	-7.361368e+00
2.571610e+01	-7.401836e+00
2.586463e+01	-7.443050e+00
2.601403e+01	-7.484105e+00
2.616428e+01	-7.525536e+00
2.631541e+01	-7.566152e+00
2.646740e+01	-7.607584e+00
2.662028e+01	-7.648986e+00
2.677404e+01	-7.690436e+00
2.692868e+01	-7.732324e+00
2.708422e+01	-7.773530e+00
2.724066e+01	-7.815450e+00
2.739800e+01	-7.857257e+00
2.755625e+01	-7.899137e+00
2.771541e+01	-7.941153e+00
2.787550e+01	-7.983321e+00
2.803650e+01	-8.025099e+00
2.819844e+01	-8.067794e+00
2.836131e+01	-8.109824e+00
2.852513e+01	-8.151859e+00
2.868989e+01	-8.194508e+00
2.885560e+01	-8.236875e+00
2.902227e+01	-8.279532e+00
2.918990e+01	-8.322253e+00
2.935850e+01	-8.364536e+00
2.952807e+01	-8.407479e+00
2.969863e+01	-8.450432e+00
2.987016e+01	-8.493410e+00
3.004269e+01	-8.536060e+00
3.021622e+01	-8.579374e+00
3.039075e+01	-8.622318e+00
3.056628e+01	-8.665166e+00
3.074283e+01	-8.708810e+00
3.092040e+01	-8.752301e+00
3.109900e+01	-8.795309e+00
3.127862e+01	-8.839061e+00
3.145929e+01	-8.882697e+00
3.164099e+01	-8.926292e+00
3.182375e+01	-8.969775e+00
3.200756e+01	-9.013372e+00
3.219244e+01	-9.057290e+00
3.237838e+01	-9.100941e+00
3.256540e+01	-9.144775e+00
3.275349e+01	-9.188870e+00
3.294268e+01	-9.233439e+00
3.313295e+01	-9.277402e+00
3.332433e+01	-9.321672e+00
3.351681e+01	-9.365557e+00
3.371040e+01	-9.410058e+00
3.390511e+01	-9.453870e+00
3.410094e+01	-9.498448e+00
3.429791e+01	-9.542862e+00
3.449601e+01	-9.587694e+00
3.469526e+01	-9.631419e+00
3.489566e+01	-9.676377e+00
3.509721e+01	-9.721400e+00
3.529993e+01	-9.766518e+00
3.550382e+01	-9.810563e+00
3.570889e+01	-9.855437e+00
3.591515e+01	-9.900599e+00
3.612259e+01	-9.945352e+00
3.633123e+01	-9.990349e+00
3.654108e+01	-1.003549e+01
3.675214e+01	-1.008049e+01
3.696442e+01	-1.012625e+01
3.717792e+01	-1.017091e+01
3.739266e+01	-1.021601e+01
3.760864e+01	-1.026161e+01
3.782587e+01	-1.030682e+01
3.804435e+01	-1.035186e+01
3.826409e+01	-1.039747e+01
3.848510e+01	-1.044351e+01
3.870739e+01	-1.048847e+01
3.893096e+01	-1.053457e+01
3.915583e+01	-1.057948e+01
3.938199e+01	-1.062556e+01
3.960946e+01	-1.067064e+01
3.983824e+01	-1.071691e+01
4.006834e+01	-1.076305e+01
4.029978e+01	-1.080849e+01
4.053255e+01	-1.085442e+01
4.076666e+01	-1.090021e+01
4.100213e+01	-1.094633e+01
4.123896e+01	-1.099183e+01
4.147715e+01	-1.103829e+01
4.171672e+01	-1.108446e+01
4.195767e+01	-1.113090e+01
4.220002e+01	-1.117666e+01
4.244377e+01	-1.122284e+01
4.268892e+01	-1.126902e+01
4.293549e+01	-1.131600e+01
4.318348e+01	-1.136162e+01
4.343291e+01	-1.140836e+01
4.368377e+01	-1.145446e+01
4.393609e+01	-1.150086e+01
4.418986e+01	-1.154700e+01
4.444510e+01	-1.159413e+01
4.470182e+01	-1.164131e+01
4.496001e+01	-1.168766e+01
4.521970e+01	-1.173452e+01
4.548089e+01	-1.178085e+01
4.574358e+01	-1.182775e+01
4.600779e+01	-1.187476e+01
4.627353e+01	-1.192103e+01
4.654081e+01	-1.196806e+01
4.680963e+01	-1.201487e+01
4.708000e+01	-1.206263e+01
4.735193e+01	-1.210849e+01
4.762543e+01	-1.215576e+01
4.790051e+01	-1.220280e+01
4.817719e+01	-1.224971e+01
4.845545e+01	-1.229678e+01
4.873533e+01	-1.234424e+01
4.901682e+01	-1.239092e+01
4.929994e+01	-1.243851e+01
4.958470e+01	-1.248500e+01
4.987110e+01	-1.253268e+01
5.015915e+01	-1.257994e+01
5.044887e+01	-1.262671e+01
5.074026e+01	-1.267479e+01
5.103333e+01	-1.272172e+01
5.132810e+01	-1.276926e+01
5.162457e+01	-1.281664e+01
5.192275e+01	-1.286411e+01
5.222265e+01	-1.291142e+01
5.252429e+01	-1.295936e+01
5.282767e+01	-1.300640e+01
5.313280e+01	-1.305341e+01
5.343969e+01	-1.310140e+01
5.374836e+01	-1.314925e+01
5.405880e+01	-1.319697e+01
5.437105e+01	-1.324463e+01
5.468509e+01	-1.329215e+01
5.500095e+01	-1.333943e+01
5.531863e+01	-1.338667e+01
5.563815e+01	-1.343494e+01
5.595951e+01	-1.348277e+01
5.628273e+01	-1.353076e+01
5.660782e+01	-1.357845e+01
5.693479e+01	-1.362618e+01
5.726364e+01	-1.367476e+01
5.759439e+01	-1.372283e+01
5.792705e+01	-1.377024e+01
5.826164e+01	-1.381729e+01
5.859815e+01	-1.386631e+01
5.893662e+01	-1.391361e+01
5.927703e+01	-1.396237e+01
5.961941e+01	-1.400978e+01
5.996377e+01	-1.405820e+01
6.031012e+01	-1.410615e+01
6.065847e+01	-1.415364e+01
6.100883e+01	-1.420235e+01
6.136121e+01	-1.425034e+01
6.171563e+01	-1.429941e+01
6.207210e+01	-1.434657e+01
6.243063e+01	-1.439555e+01
6.279122e+01	-1.444317e+01
6.315390e+01	-1.449159e+01
6.351868e+01	-1.454010e+01
6.388556e+01	-1.458815e+01
6.425456e+01	-1.463642e+01
6.462569e+01	-1.468481e+01
6.499897e+01	-1.473272e+01
6.537440e+01	-1.478060e+01
6.575200e+01	-1.482994e+01
6.613178e+01	-1.487803e+01
6.651375e+01	-1.492714e+01
6.689793e+01	-1.497491e+01
6.728433e+01	-1.502191e+01
6.767297e+01	-1.507196e+01
6.806384e+01	-1.511983e+01
6.845698e+01	-1.516894e+01
6.885238e+01	-1.521778e+01
6.925007e+01	-1.526509e+01
6.965005e+01	-1.531442e+01
7.005235e+01	-1.536271e+01
7.045697e+01	-1.541239e+01
7.086393e+01	-1.546051e+01
7.127323e+01	-1.550931e+01
7.168490e+01	-1.555782e+01
7.209895e+01	-1.560599e+01
7.251539e+01	-1.565532e+01
7.293424e+01	-1.570357e+01
7.335551e+01	-1.575172e+01
7.377920e+01	-1.579970e+01
7.420535e+01	-1.584937e+01
7.463396e+01	-1.589798e+01
7.506504e+01	-1.594714e+01
7.549861e+01	-1.599523e+01
7.593469e+01	-1.604359e+01
7.637328e+01	-1.609332e+01
7.681441e+01	-1.614249e+01
7.725809e+01	-1.619153e+01
7.770433e+01	-1.623976e+01
7.815315e+01	-1.628896e+01
7.860456e+01	-1.633774e+01
7.905857e+01	-1.638565e+01
7.951521e+01	-1.643582e+01
7.997449e+01	-1.648493e+01
8.043642e+01	-1.653388e+01
8.090102e+01	-1.658236e+01
8.136830e+01	-1.663104e+01
8.183828e+01	-1.668016e+01
8.231097e+01	-1.672852e+01
8.278640e+01	-1.677823e+01
8.326457e+01	-1.682752e+01
8.374550e+01	-1.687482e+01
8.422921e+01	-1.692461e+01
8.471572e+01	-1.697374e+01
8.520503e+01	-1.702287e+01
8.569717e+01	-1.707101e+01
8.619215e+01	-1.712149e+01
8.669000e+01	-1.716947e+01
8.719071e+01	-1.721820e+01
8.769432e+01	-1.726755e+01
8.820084e+01	-1.731747e+01
8.871029e+01	-1.736615e+01
8.922267e+01	-1.741579e+01
8.973802e+01	-1.746477e+01
9.025634e+01	-1.751405e+01
9.077766e+01	-1.756209e+01
9.130199e+01	-1.761213e+01
9.182935e+01	-1.766053e+01
9.235975e+01	-1.770996e+01
9.289321e+01	-1.775977e+01
9.342976e+01	-1.780748e+01
9.396941e+01	-1.785783e+01
9.451217e+01	-1.790690e+01
9.505807e+01	-1.795526e+01
9.560712e+01	-1.800588e+01
9.615934e+01	-1.805490e+01
9.671476e+01	-1.810408e+01
9.727338e+01	-1.815458e+01
9.783522e+01	-1.820394e+01
9.840032e+01	-1.825259e+01
9.896867e+01	-1.830234e+01
9.954031e+01	-1.834952e+01
1.001153e+02	-1.840149e+01
1.006935e+02	-1.845060e+01
1.012751e+02	-1.849864e+01
1.018601e+02	-1.854887e+01
1.024484e+02	-1.859742e+01
1.030402e+02	-1.864646e+01
1.036353e+02	-1.869686e+01
1.042339e+02	-1.874584e+01
1.048360e+02	-1.879270e+01
1.054415e+02	-1.884333e+01
1.060505e+02	-1.889305e+01
1.066631e+02	-1.894355e+01
1.072791e+02	-1.899151e+01
1.078988e+02	-1.904262e+01
1.085220e+02	-1.909143e+01
1.091488e+02	-1.914053e+01
1.097793e+02	-1.918978e+01
1.104133e+02	-1.924002e+01
1.110511e+02	-1.929025e+01
1.116925e+02	-1.933550e+01
1.123376e+02	-1.938698e+01
1.129865e+02	-1.943594e+01
1.136391e+02	-1.948750e+01
1.142955e+02	-1.953695e+01
1.149556e+02	-1.958592e+01
1.156196e+02	-1.963600e+01
1.162874e+02	-1.968466e+01
1.169591e+02	-1.973437e+01
1.176347e+02	-1.978324e+01
1.183141e+02	-1.983329e+01
1.189975e+02	-1.988345e+01
1.196848e+02	-1.993153e+01
1.203761e+02	-1.998119e+01
1.210714e+02	-2.003054e+01
1.217707e+02	-2.008071e+01
1.224740e+02	-2.012965e+01
1.231814e+02	-2.017864e+01
1.238929e+02	-2.022919e+01
1.246085e+02	-2.028087e+01
1.253283e+02	-2.032797e+01
1.260522e+02	-2.037821e+01
1.267802e+02	-2.042802e+01
1.275125e+02	-2.047815e+01
1.282490e+02	-2.052792e+01
1.289898e+02	-2.057600e+01
1.297348e+02	-2.062491e+01
1.304842e+02	-2.067469e+01
1.312378e+02	-2.072563e+01
1.319959e+02	-2.077441e+01
1.327583e+02	-2.082376e+01
1.335251e+02	-2.087292e+01
1.342963e+02	-2.092262e+01
1.350720e+02	-2.097376e+01
1.358522e+02	-2.102288e+01
1.366368e+02	-2.107266e+01
1.374260e+02	-2.112156e+01
1.382198e+02	-2.117300e+01
1.390182e+02	-2.122247e+01
1.398211e+02	-2.127039e+01
1.406287e+02	-2.132089e+01
1.414410e+02	-2.136985e+01
1.422579e+02	-2.142160e+01
1.430796e+02	-2.147001e+01
1.439060e+02	-2.151921e+01
1.447372e+02	-2.156982e+01
1.455732e+02	-2.161885e+01
1.464141e+02	-2.166893e+01
1.472597e+02	-2.171687e+01
1.481103e+02	-2.176915e+01
1.489658e+02	-2.181696e+01
1.498262e+02	-2.186819e+01
1.506916e+02	-2.191843e+01
1.515620e+02	-2.196675e+01
1.524374e+02	-2.201759e+01
1.533179e+02	-2.206626e+01
1.542034e+02	-2.211712e+01
1.550941e+02	-2.216576e+01
1.559899e+02	-2.221645e+01
1.568909e+02	-2.226514e+01
1.577971e+02	-2.231535e+01
1.587085e+02	-2.236482e+01
1.596252e+02	-2.241510e+01
1.605472e+02	-2.246559e+01
1.614745e+02	-2.251393e+01
1.624072e+02	-2.256502e+01
1.633453e+02	-2.261323e+01
1.642887e+02	-2.266388e+01
1.652377e+02	-2.271522e+01
1.661921e+02	-2.276104e+01
1.671520e+02	-2.281291e+01
1.681175e+02	-2.286396e+01
1.690885e+02	-2.291254e+01
1.700651e+02	-2.296101e+01
1.710474e+02	-2.301248e+01
1.720354e+02	-2.306310e+01
1.730291e+02	-2.311328e+01
1.740285e+02	-2.316132e+01
1.750337e+02	-2.320938e+01
1.760446e+02	-2.326096e+01
1.770615e+02	-2.330823e+01
1.780842e+02	-2.336271e+01
1.791128e+02	-2.341318e+01
1.801473e+02	-2.346154e+01
1.811878e+02	-2.350803e+01
1.822344e+02	-2.355953e+01
1.832870e+02	-2.360794e+01
1.843456e+02	-2.366091e+01
1.854104e+02	-2.371058e+01
1.864813e+02	-2.376154e+01
1.875584e+02	-2.380749e+01
1.886418e+02	-2.385824e+01
1.897313e+02	-2.390766e+01
1.908272e+02	-2.395816e+01
1.919294e+02	-2.400641e+01
1.930380e+02	-2.405751e+01
1.941530e+02	-2.410911e+01
1.952744e+02	-2.415604e+01
1.964023e+02	-2.420677e+01
1.975367e+02	-2.425631e+01
1.986777e+02	-2.430747e+01
1.998252e+02	-2.435831e+01
2.009794e+02	-2.440770e+01
2.021403e+02	-2.445663e+01
2.033078e+02	-2.450697e+01
2.044821e+02	-2.455405e+01
2.056632e+02	-2.460669e+01
2.068511e+02	-2.465612e+01
2.080459e+02	-2.470408e+01
2.092475e+02	-2.475793e+01
2.104561e+02	-2.480752e+01
2.116717e+02	-2.485801e+01
2.128943e+02	-2.490862e+01
2.141240e+02	-2.495288e+01
2.153608e+02	-2.500538e+01
2.166047e+02	-2.505688e+01
2.178558e+02	-2.510407e+01
2.191141e+02	-2.515592e+01
2.203797e+02	-2.520604e+01
2.216526e+02	-2.525421e+01
2.229329e+02	-2.530474e+01
2.242205e+02	-2.535794e+01
2.255156e+02	-2.540808e+01
2.268182e+02	-2.545422e+01
2.281283e+02	-2.550667e+01
2.294459e+02	-2.555491e+01
2.307712e+02	-2.560642e+01
2.321041e+02	-2.565477e+01
2.334447e+02	-2.570307e+01
2.347931e+02	-2.575294e+01
2.361493e+02	-2.580343e+01
2.375133e+02	-2.585355e+01
2.388851e+02	-2.590315e+01
2.402649e+02	-2.595475e+01
2.416527e+02	-2.600639e+01
2.430484e+02	-2.605222e+01
2.444523e+02	-2.610570e+01
2.458642e+02	-2.615189e+01
2.472843e+02	-2.620339e+01
2.487126e+02	-2.625367e+01
2.501492e+02	-2.630485e+01
2.515940e+02	-2.635483e+01
2.530472e+02	-2.640387e+01
2.545088e+02	-2.645399e+01
2.559789e+02	-2.650128e+01
2.574574e+02	-2.655406e+01
2.589444e+02	-2.660201e+01
2.604401e+02	-2.665620e+01
2.619444e+02	-2.670548e+01
2.634574e+02	-2.675294e+01
2.649791e+02	-2.680347e+01
2.665096e+02	-2.685660e+01
2.680489e+02	-2.690277e+01
2.695972e+02	-2.695326e+01
2.711544e+02	-2.699976e+01
2.727205e+02	-2.705209e+01
2.742958e+02	-2.710490e+01
2.758801e+02	-2.715341e+01
2.774736e+02	-2.720570e+01
2.790762e+02	-2.725015e+01
2.806882e+02	-2.730188e+01
2.823094e+02	-2.735164e+01
2.839400e+02	-2.740119e+01
2.855800e+02	-2.745659e+01
2.872295e+02	-2.750354e+01
2.888886e+02	-2.755226e+01
2.905572e+02	-2.760572e+01
2.922354e+02	-2.765073e+01
2.939234e+02	-2.769997e+01
2.956211e+02	-2.775011e+01
2.973286e+02	-2.780600e+01
2.990459e+02	-2.784992e+01
3.007732e+02	-2.790504e+01
3.025104e+02	-2.795583e+01
3.042577e+02	-2.799985e+01
3.060151e+02	-2.804894e+01
3.077826e+02	-2.810631e+01
3.095604e+02	-2.815225e+01
3.113484e+02	-2.819948e+01
3.131467e+02	-2.824728e+01
3.149554e+02	-2.830363e+01
3.167746e+02	-2.835450e+01
3.186043e+02	-2.840141e+01
3.204445e+02	-2.845919e+01
3.222954e+02	-2.850391e+01
3.241570e+02	-2.855405e+01
3.260293e+02	-2.860104e+01
3.279124e+02	-2.865406e+01
3.298064e+02	-2.870274e+01
3.317114e+02	-2.875354e+01
3.336273e+02	-2.880320e+01
3.355544e+02	-2.885196e+01
3.374925e+02	-2.890357e+01
3.394418e+02	-2.895233e+01
3.414024e+02	-2.900437e+01
3.433744e+02	-2.905258e+01
3.453577e+02	-2.910603e+01
3.473525e+02	-2.915346e+01
3.493588e+02	-2.920663e+01
3.513766e+02	-2.925361e+01
3.534062e+02	-2.930292e+01
3.554474e+02	-2.935232e+01
3.575005e+02	-2.940331e+01
3.595654e+02	-2.945499e+01
3.616422e+02	-2.950400e+01
3.637311e+02	-2.955193e+01
3.658320e+02	-2.960589e+01
3.679450e+02	-2.964956e+01
3.700702e+02	-2.970433e+01
3.722077e+02	-2.975765e+01
3.743576e+02	-2.979737e+01
3.765199e+02	-2.985505e+01
3.786946e+02	-2.990500e+01
3.808820e+02	-2.995450e+01
3.830819e+02	-3.000834e+01
3.852946e+02	-3.005504e+01
3.875200e+02	-3.010880e+01
3.897583e+02	-3.015572e+01
3.920096e+02	-3.020035e+01
3.942738e+02	-3.025809e+01
3.965511e+02	-3.030469e+01
3.988416e+02	-3.035258e+01
4.011452e+02	-3.040846e+01
4.034622e+02	-3.045402e+01
4.057926e+02	-3.050982e+01
4.081365e+02	-3.055562e+01
4.104938e+02	-3.061207e+01
4.128648e+02	-3.065781e+01
4.152495e+02	-3.070462e+01
4.176480e+02	-3.076133e+01
4.200603e+02	-3.080476e+01
4.224866e+02	-3.085703e+01
4.249268e+02	-3.090271e+01
4.273812e+02	-3.095871e+01
4.298497e+02	-3.100312e+01
4.323325e+02	-3.105950e+01
4.348297e+02	-3.110729e+01
4.373412e+02	-3.115809e+01
4.398673e+02	-3.120543e+01
4.424079e+02	-3.125803e+01
4.449633e+02	-3.130695e+01
4.475334e+02	-3.135276e+01
4.501183e+02	-3.140926e+01
4.527182e+02	-3.145438e+01
4.553330e+02	-3.150285e+01
4.579630e+02	-3.155915e+01
4.606082e+02	-3.160750e+01
4.632687e+02	-3.165984e+01
4.659445e+02	-3.171224e+01
4.686358e+02	-3.176277e+01
4.713426e+02	-3.181512e+01
4.740650e+02	-3.185403e+01
4.768032e+02	-3.190997e+01
4.795572e+02	-3.195479e+01
4.823271e+02	-3.201059e+01
4.851130e+02	-3.205657e+01
4.879150e+02	-3.210555e+01
4.907332e+02	-3.215574e+01
4.935676e+02	-3.220797e+01
4.964185e+02	-3.225990e+01
4.992858e+02	-3.230806e+01
5.021696e+02	-3.236058e+01
5.050701e+02	-3.240740e+01
5.079874e+02	-3.246466e+01
5.109215e+02	-3.250964e+01
5.138726e+02	-3.256492e+01
5.168407e+02	-3.261227e+01
5.198259e+02	-3.265780e+01
5.228284e+02	-3.270212e+01
5.258482e+02	-3.275873e+01
5.288855e+02	-3.280724e+01
5.319403e+02	-3.286444e+01
5.350128e+02	-3.290797e+01
5.381030e+02	-3.297121e+01
5.412111e+02	-3.301780e+01
5.443371e+02	-3.306413e+01
5.474812e+02	-3.311316e+01
5.506434e+02	-3.316584e+01
5.538239e+02	-3.321026e+01
5.570228e+02	-3.326252e+01
5.602401e+02	-3.331799e+01
5.634760e+02	-3.336858e+01
5.667306e+02	-3.341847e+01
5.700040e+02	-3.346767e+01
5.732964e+02	-3.352016e+01
5.766077e+02	-3.356860e+01
5.799382e+02	-3.362229e+01
5.832879e+02	-3.366959e+01
5.866569e+02	-3.371301e+01
5.900454e+02	-3.376217e+01
5.934535e+02	-3.381884e+01
5.968813e+02	-3.386710e+01
6.003288e+02	-3.391872e+01
6.037963e+02	-3.397869e+01
6.072838e+02	-3.401938e+01
6.107914e+02	-3.406854e+01
6.143194e+02	-3.412206e+01
6.178676e+02	-3.417275e+01
6.214364e+02	-3.422284e+01
6.250258e+02	-3.427107e+01
6.286359e+02	-3.432056e+01
6.322669e+02	-3.436281e+01
6.359189e+02	-3.441581e+01
6.395919e+02	-3.446688e+01
6.432862e+02	-3.453217e+01
6.470017e+02	-3.457333e+01
6.507388e+02	-3.462254e+01
6.544974e+02	-3.468413e+01
6.582778e+02	-3.472196e+01
6.620800e+02	-3.477618e+01
6.659041e+02	-3.481885e+01
6.697504e+02	-3.487880e+01
6.736188e+02	-3.492823e+01
6.775096e+02	-3.497537e+01
6.814229e+02	-3.503585e+01
6.853587e+02	-3.507990e+01
6.893173e+02	-3.513398e+01
6.932988e+02	-3.518256e+01
6.973033e+02	-3.523009e+01
7.013309e+02	-3.527777e+01
