Frequency(Hz)	Magnitude(dB)
1.000000e+01	-1.724613e-05
1.005776e+01	-1.744594e-05
1.011585e+01	-1.764805e-05
1.017428e+01	-1.785251e-05
1.023305e+01	-1.805933e-05
1.029215e+01	-1.826856e-05
1.035160e+01	-1.848020e-05
1.041139e+01	-1.869430e-05
1.047153e+01	-1.891088e-05
1.053201e+01	-1.912997e-05
1.059284e+01	-1.935159e-05
1.065403e+01	-1.957578e-05
1.071556e+01	-1.980257e-05
1.077746e+01	-2.003199e-05
1.083971e+01	-2.026407e-05
1.090232e+01	-2.049883e-05
1.096529e+01	-2.073632e-05
1.102862e+01	-2.097655e-05
1.109232e+01	-2.121957e-05
1.115639e+01	-2.146540e-05
1.122083e+01	-2.171409e-05
1.128564e+01	-2.196565e-05
1.135083e+01	-2.222013e-05
1.141639e+01	-2.247755e-05
1.148233e+01	-2.273796e-05
1.154865e+01	-2.300139e-05
1.161536e+01	-2.326786e-05
1.168245e+01	-2.353743e-05
1.174992e+01	-2.381011e-05
1.181779e+01	-2.408596e-05
1.188605e+01	-2.436500e-05
1.195470e+01	-2.464728e-05
1.202375e+01	-2.493282e-05
1.209320e+01	-2.522167e-05
1.216305e+01	-2.551387e-05
1.223330e+01	-2.580946e-05
1.230396e+01	-2.610847e-05
1.237503e+01	-2.641094e-05
1.244651e+01	-2.671692e-05
1.251840e+01	-2.702644e-05
1.259070e+01	-2.733955e-05
1.266343e+01	-2.765628e-05
1.273657e+01	-2.797669e-05
1.281014e+01	-2.830080e-05
1.288413e+01	-2.862867e-05
1.295855e+01	-2.896034e-05
1.303339e+01	-2.929586e-05
1.310867e+01	-2.963526e-05
1.318439e+01	-2.997859e-05
1.326054e+01	-3.032590e-05
1.333713e+01	-3.067723e-05
1.341417e+01	-3.103263e-05
1.349165e+01	-3.139215e-05
1.356958e+01	-3.175584e-05
1.364795e+01	-3.212374e-05
1.372678e+01	-3.249590e-05
1.380607e+01	-3.287237e-05
1.388581e+01	-3.325321e-05
1.396602e+01	-3.363845e-05
1.404668e+01	-3.402816e-05
1.412782e+01	-3.442239e-05
1.420942e+01	-3.482118e-05
1.429149e+01	-3.522459e-05
1.437404e+01	-3.563267e-05
1.445706e+01	-3.604549e-05
1.454057e+01	-3.646308e-05
1.462455e+01	-3.688552e-05
1.470902e+01	-3.731284e-05
1.479398e+01	-3.774512e-05
1.487943e+01	-3.818241e-05
1.496537e+01	-3.862476e-05
1.505181e+01	-3.907223e-05
1.513875e+01	-3.952490e-05
1.522619e+01	-3.998280e-05
1.531414e+01	-4.044601e-05
1.540259e+01	-4.091459e-05
1.549156e+01	-4.138859e-05
1.558103e+01	-4.186809e-05
1.567103e+01	-4.235314e-05
1.576155e+01	-4.284381e-05
1.585258e+01	-4.334016e-05
1.594415e+01	-4.384227e-05
1.603624e+01	-4.435019e-05
1.612886e+01	-4.486400e-05
1.622202e+01	-4.538376e-05
1.631572e+01	-4.590954e-05
1.640996e+01	-4.644141e-05
1.650474e+01	-4.697944e-05
1.660008e+01	-4.752371e-05
1.669596e+01	-4.807428e-05
1.679239e+01	-4.863123e-05
1.688938e+01	-4.919464e-05
1.698694e+01	-4.976457e-05
1.708505e+01	-5.034110e-05
1.718373e+01	-5.092431e-05
1.728299e+01	-5.151428e-05
1.738281e+01	-5.211109e-05
1.748322e+01	-5.271480e-05
1.758420e+01	-5.332552e-05
1.768576e+01	-5.394330e-05
1.778792e+01	-5.456825e-05
1.789066e+01	-5.520043e-05
1.799399e+01	-5.583994e-05
1.809793e+01	-5.648686e-05
1.820246e+01	-5.714127e-05
1.830760e+01	-5.780326e-05
1.841334e+01	-5.847293e-05
1.851969e+01	-5.915035e-05
1.862666e+01	-5.983561e-05
1.873425e+01	-6.052882e-05
1.884246e+01	-6.123006e-05
1.895129e+01	-6.193942e-05
1.906075e+01	-6.265700e-05
1.917085e+01	-6.338290e-05
1.928158e+01	-6.411720e-05
1.939295e+01	-6.486001e-05
1.950496e+01	-6.561143e-05
1.961762e+01	-6.637155e-05
1.973093e+01	-6.714047e-05
1.984490e+01	-6.791831e-05
1.995952e+01	-6.870516e-05
2.007480e+01	-6.950112e-05
2.019076e+01	-7.030630e-05
2.030738e+01	-7.112081e-05
2.042467e+01	-7.194476e-05
2.054264e+01	-7.277825e-05
2.066130e+01	-7.362140e-05
2.078064e+01	-7.447432e-05
2.090066e+01	-7.533712e-05
2.102139e+01	-7.620991e-05
2.114280e+01	-7.709282e-05
2.126492e+01	-7.798595e-05
2.138775e+01	-7.888943e-05
2.151128e+01	-7.980338e-05
2.163553e+01	-8.072792e-05
2.176050e+01	-8.166316e-05
2.188619e+01	-8.260924e-05
2.201260e+01	-8.356629e-05
2.213974e+01	-8.453442e-05
2.226762e+01	-8.551376e-05
2.239624e+01	-8.650445e-05
2.252560e+01	-8.750662e-05
2.265571e+01	-8.852040e-05
2.278656e+01	-8.954592e-05
2.291818e+01	-9.058332e-05
2.305055e+01	-9.163275e-05
2.318369e+01	-9.269433e-05
2.331760e+01	-9.376820e-05
2.345228e+01	-9.485452e-05
2.358774e+01	-9.595343e-05
2.372398e+01	-9.706506e-05
2.386101e+01	-9.818957e-05
2.399883e+01	-9.932712e-05
2.413745e+01	-1.004778e-04
2.427686e+01	-1.016419e-04
2.441709e+01	-1.028194e-04
2.455812e+01	-1.040106e-04
2.469997e+01	-1.052156e-04
2.484263e+01	-1.064345e-04
2.498612e+01	-1.076676e-04
2.513044e+01	-1.089149e-04
2.527559e+01	-1.101767e-04
2.542158e+01	-1.114531e-04
2.556842e+01	-1.127443e-04
2.571610e+01	-1.140505e-04
2.586463e+01	-1.153718e-04
2.601403e+01	-1.167084e-04
2.616428e+01	-1.180604e-04
2.631541e+01	-1.194282e-04
2.646740e+01	-1.208118e-04
2.662028e+01	-1.222114e-04
2.677404e+01	-1.236272e-04
2.692868e+01	-1.250595e-04
2.708422e+01	-1.265083e-04
2.724066e+01	-1.279739e-04
2.739800e+01	-1.294565e-04
2.755625e+01	-1.309563e-04
2.771541e+01	-1.324734e-04
2.787550e+01	-1.340081e-04
2.803650e+01	-1.355606e-04
2.819844e+01	-1.371311e-04
2.836131e+01	-1.387198e-04
2.852513e+01	-1.403269e-04
2.868989e+01	-1.419526e-04
2.885560e+01	-1.435971e-04
2.902227e+01	-1.452607e-04
2.918990e+01	-1.469435e-04
2.935850e+01	-1.486459e-04
2.952807e+01	-1.503680e-04
2.969863e+01	-1.521100e-04
2.987016e+01	-1.538722e-04
3.004269e+01	-1.556548e-04
3.021622e+01	-1.574581e-04
3.039075e+01	-1.592822e-04
3.056628e+01	-1.611275e-04
3.074283e+01	-1.629942e-04
3.092040e+01	-1.648825e-04
3.109900e+01	-1.667927e-04
3.127862e+01	-1.687250e-04
3.145929e+01	-1.706797e-04
3.164099e+01	-1.726570e-04
3.182375e+01	-1.746572e-04
3.200756e+01	-1.766807e-04
3.219244e+01	-1.787275e-04
3.237838e+01	-1.807981e-04
3.256540e+01	-1.828926e-04
3.275349e+01	-1.850114e-04
3.294268e+01	-1.871548e-04
3.313295e+01	-1.893230e-04
3.332433e+01	-1.915163e-04
3.351681e+01	-1.937350e-04
3.371040e+01	-1.959795e-04
3.390511e+01	-1.982499e-04
3.410094e+01	-2.005466e-04
3.429791e+01	-2.028699e-04
3.449601e+01	-2.052202e-04
3.469526e+01	-2.075977e-04
3.489566e+01	-2.100027e-04
3.509721e+01	-2.124356e-04
3.529993e+01	-2.148966e-04
3.550382e+01	-2.173862e-04
3.570889e+01	-2.199046e-04
3.591515e+01	-2.224522e-04
3.612259e+01	-2.250293e-04
3.633123e+01	-2.276363e-04
3.654108e+01	-2.302734e-04
3.675214e+01	-2.329411e-04
3.696442e+01	-2.356398e-04
3.717792e+01	-2.383696e-04
3.739266e+01	-2.411311e-04
3.760864e+01	-2.439246e-04
3.782587e+01	-2.467505e-04
3.804435e+01	-2.496091e-04
3.826409e+01	-2.525008e-04
3.848510e+01	-2.554260e-04
3.870739e+01	-2.583851e-04
3.893096e+01	-2.613784e-04
3.915583e+01	-2.644065e-04
3.938199e+01	-2.674696e-04
3.960946e+01	-2.705682e-04
3.983824e+01	-2.737028e-04
4.006834e+01	-2.768736e-04
4.029978e+01	-2.800811e-04
4.053255e+01	-2.833258e-04
4.076666e+01	-2.866081e-04
4.100213e+01	-2.899285e-04
4.123896e+01	-2.932873e-04
4.147715e+01	-2.966849e-04
4.171672e+01	-3.001220e-04
4.195767e+01	-3.035989e-04
4.220002e+01	-3.071160e-04
4.244377e+01	-3.106739e-04
4.268892e+01	-3.142730e-04
4.293549e+01	-3.179139e-04
4.318348e+01	-3.215968e-04
4.343291e+01	-3.253225e-04
4.368377e+01	-3.290913e-04
4.393609e+01	-3.329038e-04
4.418986e+01	-3.367604e-04
4.444510e+01	-3.406617e-04
4.470182e+01	-3.446082e-04
4.496001e+01	-3.486004e-04
4.521970e+01	-3.526389e-04
4.548089e+01	-3.567242e-04
4.574358e+01	-3.608567e-04
4.600779e+01	-3.650372e-04
4.627353e+01	-3.692661e-04
4.654081e+01	-3.735439e-04
4.680963e+01	-3.778713e-04
4.708000e+01	-3.822489e-04
4.735193e+01	-3.866772e-04
4.762543e+01	-3.911567e-04
4.790051e+01	-3.956882e-04
4.817719e+01	-4.002721e-04
4.845545e+01	-4.049092e-04
4.873533e+01	-4.095999e-04
4.901682e+01	-4.143450e-04
4.929994e+01	-4.191451e-04
4.958470e+01	-4.240008e-04
4.987110e+01	-4.289127e-04
5.015915e+01	-4.338815e-04
5.044887e+01	-4.389079e-04
5.074026e+01	-4.439925e-04
5.103333e+01	-4.491360e-04
5.132810e+01	-4.543391e-04
5.162457e+01	-4.596025e-04
5.192275e+01	-4.649268e-04
5.222265e+01	-4.703128e-04
5.252429e+01	-4.757612e-04
5.282767e+01	-4.812728e-04
5.313280e+01	-4.868481e-04
5.343969e+01	-4.924881e-04
5.374836e+01	-4.981934e-04
5.405880e+01	-5.039647e-04
5.437105e+01	-5.098030e-04
5.468509e+01	-5.157088e-04
5.500095e+01	-5.216831e-04
5.531863e+01	-5.277266e-04
5.563815e+01	-5.338400e-04
5.595951e+01	-5.400243e-04
5.628273e+01	-5.462803e-04
5.660782e+01	-5.526087e-04
5.693479e+01	-5.590104e-04
5.726364e+01	-5.654863e-04
5.759439e+01	-5.720371e-04
5.792705e+01	-5.786639e-04
5.826164e+01	-5.853674e-04
5.859815e+01	-5.921486e-04
5.893662e+01	-5.990084e-04
5.927703e+01	-6.059476e-04
5.961941e+01	-6.129671e-04
5.996377e+01	-6.200680e-04
6.031012e+01	-6.272511e-04
6.065847e+01	-6.345175e-04
6.100883e+01	-6.418680e-04
6.136121e+01	-6.493037e-04
6.171563e+01	-6.568255e-04
6.207210e+01	-6.644344e-04
6.243063e+01	-6.721314e-04
6.279122e+01	-6.799177e-04
6.315390e+01	-6.877941e-04
6.351868e+01	-6.957617e-04
6.388556e+01	-7.038217e-04
6.425456e+01	-7.119750e-04
6.462569e+01	-7.202227e-04
6.499897e+01	-7.285660e-04
6.537440e+01	-7.370059e-04
6.575200e+01	-7.455436e-04
6.613178e+01	-7.541802e-04
6.651375e+01	-7.629168e-04
6.689793e+01	-7.717546e-04
6.728433e+01	-7.806948e-04
6.767297e+01	-7.897385e-04
6.806384e+01	-7.988870e-04
6.845698e+01	-8.081415e-04
6.885238e+01	-8.175031e-04
6.925007e+01	-8.269732e-04
6.965005e+01	-8.365530e-04
7.005235e+01	-8.462438e-04
7.045697e+01	-8.560468e-04
7.086393e+01	-8.659633e-04
7.127323e+01	-8.759947e-04
7.168490e+01	-8.861423e-04
7.209895e+01	-8.964075e-04
7.251539e+01	-9.067915e-04
7.293424e+01	-9.172958e-04
7.335551e+01	-9.279218e-04
7.377920e+01	-9.386709e-04
7.420535e+01	-9.495444e-04
7.463396e+01	-9.605440e-04
7.506504e+01	-9.716709e-04
7.549861e+01	-9.829267e-04
7.593469e+01	-9.943128e-04
7.637328e+01	-1.005831e-03
7.681441e+01	-1.017482e-03
7.725809e+01	-1.029269e-03
7.770433e+01	-1.041192e-03
7.815315e+01	-1.053253e-03
7.860456e+01	-1.065453e-03
7.905857e+01	-1.077795e-03
7.951521e+01	-1.090280e-03
7.997449e+01	-1.102910e-03
8.043642e+01	-1.115686e-03
8.090102e+01	-1.128610e-03
8.136830e+01	-1.141683e-03
8.183828e+01	-1.154908e-03
8.231097e+01	-1.168286e-03
8.278640e+01	-1.181819e-03
8.326457e+01	-1.195509e-03
8.374550e+01	-1.209358e-03
8.422921e+01	-1.223366e-03
8.471572e+01	-1.237537e-03
8.520503e+01	-1.251873e-03
8.569717e+01	-1.266374e-03
8.619215e+01	-1.281043e-03
8.669000e+01	-1.295882e-03
8.719071e+01	-1.310893e-03
8.769432e+01	-1.326077e-03
8.820084e+01	-1.341438e-03
8.871029e+01	-1.356977e-03
8.922267e+01	-1.372695e-03
8.973802e+01	-1.388595e-03
9.025634e+01	-1.404680e-03
9.077766e+01	-1.420951e-03
9.130199e+01	-1.437410e-03
9.182935e+01	-1.454060e-03
9.235975e+01	-1.470903e-03
9.289321e+01	-1.487941e-03
9.342976e+01	-1.505176e-03
9.396941e+01	-1.522611e-03
9.451217e+01	-1.540248e-03
9.505807e+01	-1.558089e-03
9.560712e+01	-1.576137e-03
9.615934e+01	-1.594393e-03
9.671476e+01	-1.612861e-03
9.727338e+01	-1.631543e-03
9.783522e+01	-1.650441e-03
9.840032e+01	-1.669558e-03
9.896867e+01	-1.688897e-03
9.954031e+01	-1.708459e-03
1.001153e+02	-1.728248e-03
1.006935e+02	-1.748267e-03
1.012751e+02	-1.768517e-03
1.018601e+02	-1.789001e-03
1.024484e+02	-1.809723e-03
1.030402e+02	-1.830685e-03
1.036353e+02	-1.851889e-03
1.042339e+02	-1.873339e-03
1.048360e+02	-1.895037e-03
1.054415e+02	-1.916987e-03
1.060505e+02	-1.939191e-03
1.066631e+02	-1.961652e-03
1.072791e+02	-1.984373e-03
1.078988e+02	-2.007357e-03
1.085220e+02	-2.030608e-03
1.091488e+02	-2.054127e-03
1.097793e+02	-2.077919e-03
1.104133e+02	-2.101986e-03
1.110511e+02	-2.126333e-03
1.116925e+02	-2.150961e-03
1.123376e+02	-2.175874e-03
1.129865e+02	-2.201075e-03
1.136391e+02	-2.226569e-03
1.142955e+02	-2.252358e-03
1.149556e+02	-2.278445e-03
1.156196e+02	-2.304834e-03
1.162874e+02	-2.331529e-03
1.169591e+02	-2.358533e-03
1.176347e+02	-2.385850e-03
1.183141e+02	-2.413483e-03
1.189975e+02	-2.441436e-03
1.196848e+02	-2.469713e-03
1.203761e+02	-2.498317e-03
1.210714e+02	-2.527252e-03
1.217707e+02	-2.556522e-03
1.224740e+02	-2.586131e-03
1.231814e+02	-2.616083e-03
1.238929e+02	-2.646382e-03
1.246085e+02	-2.677032e-03
1.253283e+02	-2.708036e-03
1.260522e+02	-2.739399e-03
1.267802e+02	-2.771126e-03
1.275125e+02	-2.803220e-03
1.282490e+02	-2.835685e-03
1.289898e+02	-2.868527e-03
1.297348e+02	-2.901748e-03
1.304842e+02	-2.935354e-03
1.312378e+02	-2.969349e-03
1.319959e+02	-3.003738e-03
1.327583e+02	-3.038525e-03
1.335251e+02	-3.073715e-03
1.342963e+02	-3.109312e-03
1.350720e+02	-3.145321e-03
1.358522e+02	-3.181747e-03
1.366368e+02	-3.218595e-03
1.374260e+02	-3.255869e-03
1.382198e+02	-3.293575e-03
1.390182e+02	-3.331717e-03
1.398211e+02	-3.370301e-03
1.406287e+02	-3.409331e-03
1.414410e+02	-3.448813e-03
1.422579e+02	-3.488753e-03
1.430796e+02	-3.529154e-03
1.439060e+02	-3.570024e-03
1.447372e+02	-3.611366e-03
1.455732e+02	-3.653187e-03
1.464141e+02	-3.695492e-03
1.472597e+02	-3.738287e-03
1.481103e+02	-3.781577e-03
1.489658e+02	-3.825368e-03
1.498262e+02	-3.869666e-03
1.506916e+02	-3.914477e-03
1.515620e+02	-3.959807e-03
1.524374e+02	-4.005661e-03
1.533179e+02	-4.052046e-03
1.542034e+02	-4.098968e-03
1.550941e+02	-4.146433e-03
1.559899e+02	-4.194447e-03
1.568909e+02	-4.243017e-03
1.577971e+02	-4.292149e-03
1.587085e+02	-4.341850e-03
1.596252e+02	-4.392126e-03
1.605472e+02	-4.442984e-03
1.614745e+02	-4.494430e-03
1.624072e+02	-4.546472e-03
1.633453e+02	-4.599116e-03
1.642887e+02	-4.652369e-03
1.652377e+02	-4.706239e-03
1.661921e+02	-4.760732e-03
1.671520e+02	-4.815856e-03
1.681175e+02	-4.871617e-03
1.690885e+02	-4.928024e-03
1.700651e+02	-4.985084e-03
1.710474e+02	-5.042803e-03
1.720354e+02	-5.101191e-03
1.730291e+02	-5.160255e-03
1.740285e+02	-5.220001e-03
1.750337e+02	-5.280440e-03
1.760446e+02	-5.341577e-03
1.770615e+02	-5.403422e-03
1.780842e+02	-5.465983e-03
1.791128e+02	-5.529267e-03
1.801473e+02	-5.593284e-03
1.811878e+02	-5.658041e-03
1.822344e+02	-5.723548e-03
1.832870e+02	-5.789812e-03
1.843456e+02	-5.856843e-03
1.854104e+02	-5.924650e-03
1.864813e+02	-5.993241e-03
1.875584e+02	-6.062625e-03
1.886418e+02	-6.132813e-03
1.897313e+02	-6.203812e-03
1.908272e+02	-6.275633e-03
1.919294e+02	-6.348284e-03
1.930380e+02	-6.421776e-03
1.941530e+02	-6.496118e-03
1.952744e+02	-6.571321e-03
1.964023e+02	-6.647393e-03
1.975367e+02	-6.724345e-03
1.986777e+02	-6.802187e-03
1.998252e+02	-6.880929e-03
2.009794e+02	-6.960582e-03
2.021403e+02	-7.041157e-03
2.033078e+02	-7.122663e-03
2.044821e+02	-7.205113e-03
2.056632e+02	-7.288515e-03
2.068511e+02	-7.372883e-03
2.080459e+02	-7.458226e-03
2.092475e+02	-7.544556e-03
2.104561e+02	-7.631885e-03
2.116717e+02	-7.720223e-03
2.128943e+02	-7.809583e-03
2.141240e+02	-7.899977e-03
2.153608e+02	-7.991416e-03
2.166047e+02	-8.083912e-03
2.178558e+02	-8.177477e-03
2.191141e+02	-8.272125e-03
2.203797e+02	-8.367867e-03
2.216526e+02	-8.464716e-03
2.229329e+02	-8.562685e-03
2.242205e+02	-8.661787e-03
2.255156e+02	-8.762034e-03
2.268182e+02	-8.863441e-03
2.281283e+02	-8.966020e-03
2.294459e+02	-9.069784e-03
2.307712e+02	-9.174749e-03
2.321041e+02	-9.280927e-03
2.334447e+02	-9.388332e-03
2.347931e+02	-9.496979e-03
2.361493e+02	-9.606882e-03
2.375133e+02	-9.718055e-03
2.388851e+02	-9.830513e-03
2.402649e+02	-9.944271e-03
2.416527e+02	-1.005934e-02
2.430484e+02	-1.017575e-02
2.444523e+02	-1.029350e-02
2.458642e+02	-1.041261e-02
2.472843e+02	-1.053309e-02
2.487126e+02	-1.065497e-02
2.501492e+02	-1.077826e-02
2.515940e+02	-1.090297e-02
2.530472e+02	-1.102912e-02
2.545088e+02	-1.115673e-02
2.559789e+02	-1.128582e-02
2.574574e+02	-1.141639e-02
2.589444e+02	-1.154848e-02
2.604401e+02	-1.168209e-02
2.619444e+02	-1.181724e-02
2.634574e+02	-1.195396e-02
2.649791e+02	-1.209226e-02
2.665096e+02	-1.223215e-02
2.680489e+02	-1.237366e-02
2.695972e+02	-1.251681e-02
2.711544e+02	-1.266160e-02
2.727205e+02	-1.280807e-02
2.742958e+02	-1.295624e-02
2.758801e+02	-1.310611e-02
2.774736e+02	-1.325772e-02
2.790762e+02	-1.341107e-02
2.806882e+02	-1.356620e-02
2.823094e+02	-1.372312e-02
2.839400e+02	-1.388185e-02
2.855800e+02	-1.404241e-02
2.872295e+02	-1.420483e-02
2.888886e+02	-1.436912e-02
2.905572e+02	-1.453531e-02
2.922354e+02	-1.470342e-02
2.939234e+02	-1.487347e-02
2.956211e+02	-1.504549e-02
2.973286e+02	-1.521949e-02
2.990459e+02	-1.539549e-02
3.007732e+02	-1.557353e-02
3.025104e+02	-1.575363e-02
3.042577e+02	-1.593580e-02
3.060151e+02	-1.612008e-02
3.077826e+02	-1.630648e-02
3.095604e+02	-1.649504e-02
3.113484e+02	-1.668577e-02
3.131467e+02	-1.687870e-02
3.149554e+02	-1.707386e-02
3.167746e+02	-1.727127e-02
3.186043e+02	-1.747096e-02
3.204445e+02	-1.767295e-02
3.222954e+02	-1.787727e-02
3.241570e+02	-1.808395e-02
3.260293e+02	-1.829302e-02
3.279124e+02	-1.850449e-02
3.298064e+02	-1.871841e-02
3.317114e+02	-1.893479e-02
3.336273e+02	-1.915367e-02
3.355544e+02	-1.937507e-02
3.374925e+02	-1.959903e-02
3.394418e+02	-1.982557e-02
3.414024e+02	-2.005472e-02
3.433744e+02	-2.028651e-02
3.453577e+02	-2.052098e-02
3.473525e+02	-2.075815e-02
3.493588e+02	-2.099806e-02
3.513766e+02	-2.124073e-02
3.534062e+02	-2.148620e-02
3.554474e+02	-2.173449e-02
3.575005e+02	-2.198565e-02
3.595654e+02	-2.223971e-02
3.616422e+02	-2.249669e-02
3.637311e+02	-2.275664e-02
3.658320e+02	-2.301958e-02
3.679450e+02	-2.328555e-02
3.700702e+02	-2.355458e-02
3.722077e+02	-2.382672e-02
3.743576e+02	-2.410199e-02
3.765199e+02	-2.438043e-02
3.786946e+02	-2.466208e-02
3.808820e+02	-2.494697e-02
3.830819e+02	-2.523514e-02
3.852946e+02	-2.552664e-02
3.875200e+02	-2.582149e-02
3.897583e+02	-2.611973e-02
3.920096e+02	-2.642141e-02
3.942738e+02	-2.672657e-02
3.965511e+02	-2.703524e-02
3.988416e+02	-2.734746e-02
4.011452e+02	-2.766327e-02
4.034622e+02	-2.798272e-02
4.057926e+02	-2.830585e-02
4.081365e+02	-2.863269e-02
4.104938e+02	-2.896330e-02
4.128648e+02	-2.929771e-02
4.152495e+02	-2.963597e-02
4.176480e+02	-2.997812e-02
4.200603e+02	-3.032421e-02
4.224866e+02	-3.067428e-02
4.249268e+02	-3.102838e-02
4.273812e+02	-3.138655e-02
4.298497e+02	-3.174883e-02
4.323325e+02	-3.211529e-02
4.348297e+02	-3.248596e-02
4.373412e+02	-3.286089e-02
4.398673e+02	-3.324013e-02
4.424079e+02	-3.362373e-02
4.449633e+02	-3.401174e-02
4.475334e+02	-3.440420e-02
4.501183e+02	-3.480118e-02
4.527182e+02	-3.520273e-02
4.553330e+02	-3.560888e-02
4.579630e+02	-3.601970e-02
4.606082e+02	-3.643525e-02
4.632687e+02	-3.685556e-02
4.659445e+02	-3.728071e-02
4.686358e+02	-3.771073e-02
4.713426e+02	-3.814570e-02
4.740650e+02	-3.858566e-02
4.768032e+02	-3.903067e-02
4.795572e+02	-3.948079e-02
4.823271e+02	-3.993607e-02
4.851130e+02	-4.039658e-02
4.879150e+02	-4.086238e-02
4.907332e+02	-4.133352e-02
4.935676e+02	-4.181007e-02
4.964185e+02	-4.229209e-02
4.992858e+02	-4.277963e-02
5.021696e+02	-4.327277e-02
5.050701e+02	-4.377157e-02
5.079874e+02	-4.427608e-02
5.109215e+02	-4.478638e-02
5.138726e+02	-4.530253e-02
5.168407e+02	-4.582459e-02
5.198259e+02	-4.635264e-02
5.228284e+02	-4.688675e-02
5.258482e+02	-4.742697e-02
5.288855e+02	-4.797338e-02
5.319403e+02	-4.852605e-02
5.350128e+02	-4.908506e-02
5.381030e+02	-4.965046e-02
5.412111e+02	-5.022234e-02
5.443371e+02	-5.080077e-02
5.474812e+02	-5.138582e-02
5.506434e+02	-5.197757e-02
5.538239e+02	-5.257610e-02
5.570228e+02	-5.318147e-02
5.602401e+02	-5.379377e-02
5.634760e+02	-5.441307e-02
5.667306e+02	-5.503946e-02
5.700040e+02	-5.567301e-02
5.732964e+02	-5.631381e-02
5.766077e+02	-5.696193e-02
5.799382e+02	-5.761747e-02
5.832879e+02	-5.828050e-02
5.866569e+02	-5.895110e-02
5.900454e+02	-5.962937e-02
5.934535e+02	-6.031539e-02
5.968813e+02	-6.100925e-02
6.003288e+02	-6.171103e-02
6.037963e+02	-6.242082e-02
6.072838e+02	-6.313872e-02
6.107914e+02	-6.386481e-02
6.143194e+02	-6.459920e-02
6.178676e+02	-6.534196e-02
6.214364e+02	-6.609320e-02
6.250258e+02	-6.685301e-02
6.286359e+02	-6.762148e-02
6.322669e+02	-6.839872e-02
6.359189e+02	-6.918482e-02
6.395919e+02	-6.997988e-02
6.432862e+02	-7.078401e-02
6.470017e+02	-7.159730e-02
6.507388e+02	-7.241985e-02
6.544974e+02	-7.325178e-02
6.582778e+02	-7.409318e-02
6.620800e+02	-7.494416e-02
6.659041e+02	-7.580482e-02
6.697504e+02	-7.667529e-02
6.736188e+02	-7.755566e-02
6.775096e+02	-7.844605e-02
6.814229e+02	-7.934657e-02
6.853587e+02	-8.025732e-02
6.893173e+02	-8.117844e-02
6.932988e+02	-8.211002e-02
6.973033e+02	-8.305220e-02
7.013309e+02	-8.400508e-02
