Frequency(Hz)	Magnitude(dB)
1.000000e+01	-1.762811e-05
1.005776e+01	-1.783233e-05
1.011585e+01	-1.803893e-05
1.017428e+01	-1.824791e-05
1.023305e+01	-1.845932e-05
1.029215e+01	-1.867317e-05
1.035160e+01	-1.888951e-05
1.041139e+01	-1.910835e-05
1.047153e+01	-1.932972e-05
1.053201e+01	-1.955366e-05
1.059284e+01	-1.978020e-05
1.065403e+01	-2.000936e-05
1.071556e+01	-2.024117e-05
1.077746e+01	-2.047567e-05
1.083971e+01	-2.071288e-05
1.090232e+01	-2.095285e-05
1.096529e+01	-2.119559e-05
1.102862e+01	-2.144115e-05
1.109232e+01	-2.168955e-05
1.115639e+01	-2.194083e-05
1.122083e+01	-2.219502e-05
1.128564e+01	-2.245215e-05
1.135083e+01	-2.271227e-05
1.141639e+01	-2.297539e-05
1.148233e+01	-2.324157e-05
1.154865e+01	-2.351083e-05
1.161536e+01	-2.378321e-05
1.168245e+01	-2.405874e-05
1.174992e+01	-2.433747e-05
1.181779e+01	-2.461942e-05
1.188605e+01	-2.490465e-05
1.195470e+01	-2.519317e-05
1.202375e+01	-2.548504e-05
1.209320e+01	-2.578029e-05
1.216305e+01	-2.607896e-05
1.223330e+01	-2.638109e-05
1.230396e+01	-2.668673e-05
1.237503e+01	-2.699590e-05
1.244651e+01	-2.730865e-05
1.251840e+01	-2.762503e-05
1.259070e+01	-2.794507e-05
1.266343e+01	-2.826882e-05
1.273657e+01	-2.859632e-05
1.281014e+01	-2.892762e-05
1.288413e+01	-2.926275e-05
1.295855e+01	-2.960177e-05
1.303339e+01	-2.994471e-05
1.310867e+01	-3.029163e-05
1.318439e+01	-3.064256e-05
1.326054e+01	-3.099757e-05
1.333713e+01	-3.135668e-05
1.341417e+01	-3.171995e-05
1.349165e+01	-3.208744e-05
1.356958e+01	-3.245918e-05
1.364795e+01	-3.283523e-05
1.372678e+01	-3.321563e-05
1.380607e+01	-3.360044e-05
1.388581e+01	-3.398971e-05
1.396602e+01	-3.438349e-05
1.404668e+01	-3.478183e-05
1.412782e+01	-3.518478e-05
1.420942e+01	-3.559241e-05
1.429149e+01	-3.600475e-05
1.437404e+01	-3.642188e-05
1.445706e+01	-3.684383e-05
1.454057e+01	-3.727068e-05
1.462455e+01	-3.770247e-05
1.470902e+01	-3.813926e-05
1.479398e+01	-3.858111e-05
1.487943e+01	-3.902808e-05
1.496537e+01	-3.948023e-05
1.505181e+01	-3.993762e-05
1.513875e+01	-4.040031e-05
1.522619e+01	-4.086835e-05
1.531414e+01	-4.134182e-05
1.540259e+01	-4.182078e-05
1.549156e+01	-4.230528e-05
1.558103e+01	-4.279539e-05
1.567103e+01	-4.329119e-05
1.576155e+01	-4.379273e-05
1.585258e+01	-4.430008e-05
1.594415e+01	-4.481330e-05
1.603624e+01	-4.533247e-05
1.612886e+01	-4.585766e-05
1.622202e+01	-4.638893e-05
1.631572e+01	-4.692636e-05
1.640996e+01	-4.747001e-05
1.650474e+01	-4.801996e-05
1.660008e+01	-4.857628e-05
1.669596e+01	-4.913905e-05
1.679239e+01	-4.970833e-05
1.688938e+01	-5.028422e-05
1.698694e+01	-5.086677e-05
1.708505e+01	-5.145607e-05
1.718373e+01	-5.205220e-05
1.728299e+01	-5.265524e-05
1.738281e+01	-5.326526e-05
1.748322e+01	-5.388235e-05
1.758420e+01	-5.450658e-05
1.768576e+01	-5.513805e-05
1.778792e+01	-5.577684e-05
1.789066e+01	-5.642303e-05
1.799399e+01	-5.707670e-05
1.809793e+01	-5.773794e-05
1.820246e+01	-5.840685e-05
1.830760e+01	-5.908351e-05
1.841334e+01	-5.976800e-05
1.851969e+01	-6.046042e-05
1.862666e+01	-6.116087e-05
1.873425e+01	-6.186943e-05
1.884246e+01	-6.258620e-05
1.895129e+01	-6.331127e-05
1.906075e+01	-6.404475e-05
1.917085e+01	-6.478672e-05
1.928158e+01	-6.553728e-05
1.939295e+01	-6.629655e-05
1.950496e+01	-6.706460e-05
1.961762e+01	-6.784156e-05
1.973093e+01	-6.862752e-05
1.984490e+01	-6.942258e-05
1.995952e+01	-7.022685e-05
2.007480e+01	-7.104044e-05
2.019076e+01	-7.186346e-05
2.030738e+01	-7.269601e-05
2.042467e+01	-7.353821e-05
2.054264e+01	-7.439016e-05
2.066130e+01	-7.525199e-05
2.078064e+01	-7.612379e-05
2.090066e+01	-7.700570e-05
2.102139e+01	-7.789783e-05
2.114280e+01	-7.880029e-05
2.126492e+01	-7.971320e-05
2.138775e+01	-8.063669e-05
2.151128e+01	-8.157088e-05
2.163553e+01	-8.251589e-05
2.176050e+01	-8.347185e-05
2.188619e+01	-8.443889e-05
2.201260e+01	-8.541713e-05
2.213974e+01	-8.640670e-05
2.226762e+01	-8.740774e-05
2.239624e+01	-8.842037e-05
2.252560e+01	-8.944473e-05
2.265571e+01	-9.048096e-05
2.278656e+01	-9.152920e-05
2.291818e+01	-9.258958e-05
2.305055e+01	-9.366224e-05
2.318369e+01	-9.474734e-05
2.331760e+01	-9.584500e-05
2.345228e+01	-9.695538e-05
2.358774e+01	-9.807862e-05
2.372398e+01	-9.921487e-05
2.386101e+01	-1.003643e-04
2.399883e+01	-1.015270e-04
2.413745e+01	-1.027032e-04
2.427686e+01	-1.038931e-04
2.441709e+01	-1.050967e-04
2.455812e+01	-1.063142e-04
2.469997e+01	-1.075459e-04
2.484263e+01	-1.087918e-04
2.498612e+01	-1.100522e-04
2.513044e+01	-1.113272e-04
2.527559e+01	-1.126169e-04
2.542158e+01	-1.139216e-04
2.556842e+01	-1.152414e-04
2.571610e+01	-1.165765e-04
2.586463e+01	-1.179270e-04
2.601403e+01	-1.192932e-04
2.616428e+01	-1.206753e-04
2.631541e+01	-1.220733e-04
2.646740e+01	-1.234875e-04
2.662028e+01	-1.249181e-04
2.677404e+01	-1.263653e-04
2.692868e+01	-1.278293e-04
2.708422e+01	-1.293102e-04
2.724066e+01	-1.308083e-04
2.739800e+01	-1.323237e-04
2.755625e+01	-1.338567e-04
2.771541e+01	-1.354074e-04
2.787550e+01	-1.369761e-04
2.803650e+01	-1.385630e-04
2.819844e+01	-1.401683e-04
2.836131e+01	-1.417921e-04
2.852513e+01	-1.434348e-04
2.868989e+01	-1.450965e-04
2.885560e+01	-1.467775e-04
2.902227e+01	-1.484779e-04
2.918990e+01	-1.501980e-04
2.935850e+01	-1.519381e-04
2.952807e+01	-1.536983e-04
2.969863e+01	-1.554789e-04
2.987016e+01	-1.572802e-04
3.004269e+01	-1.591023e-04
3.021622e+01	-1.609455e-04
3.039075e+01	-1.628100e-04
3.056628e+01	-1.646962e-04
3.074283e+01	-1.666042e-04
3.092040e+01	-1.685343e-04
3.109900e+01	-1.704868e-04
3.127862e+01	-1.724619e-04
3.145929e+01	-1.744599e-04
3.164099e+01	-1.764810e-04
3.182375e+01	-1.785255e-04
3.200756e+01	-1.805938e-04
3.219244e+01	-1.826860e-04
3.237838e+01	-1.848024e-04
3.256540e+01	-1.869433e-04
3.275349e+01	-1.891091e-04
3.294268e+01	-1.912999e-04
3.313295e+01	-1.935161e-04
3.332433e+01	-1.957580e-04
3.351681e+01	-1.980259e-04
3.371040e+01	-2.003200e-04
3.390511e+01	-2.026407e-04
3.410094e+01	-2.049883e-04
3.429791e+01	-2.073631e-04
3.449601e+01	-2.097654e-04
3.469526e+01	-2.121955e-04
3.489566e+01	-2.146538e-04
3.509721e+01	-2.171406e-04
3.529993e+01	-2.196561e-04
3.550382e+01	-2.222008e-04
3.570889e+01	-2.247750e-04
3.591515e+01	-2.273790e-04
3.612259e+01	-2.300132e-04
3.633123e+01	-2.326779e-04
3.654108e+01	-2.353735e-04
3.675214e+01	-2.381003e-04
3.696442e+01	-2.408587e-04
3.717792e+01	-2.436490e-04
3.739266e+01	-2.464717e-04
3.760864e+01	-2.493270e-04
3.782587e+01	-2.522155e-04
3.804435e+01	-2.551374e-04
3.826409e+01	-2.580931e-04
3.848510e+01	-2.610831e-04
3.870739e+01	-2.641077e-04
3.893096e+01	-2.671674e-04
3.915583e+01	-2.702625e-04
3.938199e+01	-2.733935e-04
3.960946e+01	-2.765607e-04
3.983824e+01	-2.797646e-04
4.006834e+01	-2.830057e-04
4.029978e+01	-2.862843e-04
4.053255e+01	-2.896008e-04
4.076666e+01	-2.929558e-04
4.100213e+01	-2.963497e-04
4.123896e+01	-2.997829e-04
4.147715e+01	-3.032558e-04
4.171672e+01	-3.067690e-04
4.195767e+01	-3.103229e-04
4.220002e+01	-3.139179e-04
4.244377e+01	-3.175546e-04
4.268892e+01	-3.212334e-04
4.293549e+01	-3.249549e-04
4.318348e+01	-3.287194e-04
4.343291e+01	-3.325276e-04
4.368377e+01	-3.363799e-04
4.393609e+01	-3.402768e-04
4.418986e+01	-3.442188e-04
4.444510e+01	-3.482065e-04
4.470182e+01	-3.522404e-04
4.496001e+01	-3.563211e-04
4.521970e+01	-3.604490e-04
4.548089e+01	-3.646247e-04
4.574358e+01	-3.688488e-04
4.600779e+01	-3.731218e-04
4.627353e+01	-3.774444e-04
4.654081e+01	-3.818170e-04
4.680963e+01	-3.862402e-04
4.708000e+01	-3.907147e-04
4.735193e+01	-3.952411e-04
4.762543e+01	-3.998198e-04
4.790051e+01	-4.044516e-04
4.817719e+01	-4.091371e-04
4.845545e+01	-4.138768e-04
4.873533e+01	-4.186715e-04
4.901682e+01	-4.235217e-04
4.929994e+01	-4.284280e-04
4.958470e+01	-4.333913e-04
4.987110e+01	-4.384120e-04
5.015915e+01	-4.434908e-04
5.044887e+01	-4.486285e-04
5.074026e+01	-4.538257e-04
5.103333e+01	-4.590832e-04
5.132810e+01	-4.644015e-04
5.162457e+01	-4.697814e-04
5.192275e+01	-4.752237e-04
5.222265e+01	-4.807289e-04
5.252429e+01	-4.862980e-04
5.282767e+01	-4.919316e-04
5.313280e+01	-4.976304e-04
5.343969e+01	-5.033953e-04
5.374836e+01	-5.092269e-04
5.405880e+01	-5.151261e-04
5.437105e+01	-5.210936e-04
5.468509e+01	-5.271303e-04
5.500095e+01	-5.332368e-04
5.531863e+01	-5.394141e-04
5.563815e+01	-5.456630e-04
5.595951e+01	-5.519843e-04
5.628273e+01	-5.583787e-04
5.660782e+01	-5.648473e-04
5.693479e+01	-5.713908e-04
5.726364e+01	-5.780101e-04
5.759439e+01	-5.847060e-04
5.792705e+01	-5.914795e-04
5.826164e+01	-5.983315e-04
5.859815e+01	-6.052629e-04
5.893662e+01	-6.122745e-04
5.927703e+01	-6.193674e-04
5.961941e+01	-6.265424e-04
5.996377e+01	-6.338005e-04
6.031012e+01	-6.411427e-04
6.065847e+01	-6.485700e-04
6.100883e+01	-6.560833e-04
6.136121e+01	-6.636836e-04
6.171563e+01	-6.713720e-04
6.207210e+01	-6.791494e-04
6.243063e+01	-6.870169e-04
6.279122e+01	-6.949756e-04
6.315390e+01	-7.030264e-04
6.351868e+01	-7.111705e-04
6.388556e+01	-7.194089e-04
6.425456e+01	-7.277428e-04
6.462569e+01	-7.361731e-04
6.499897e+01	-7.447012e-04
6.537440e+01	-7.533280e-04
6.575200e+01	-7.620547e-04
6.613178e+01	-7.708826e-04
6.651375e+01	-7.798127e-04
6.689793e+01	-7.888462e-04
6.728433e+01	-7.979843e-04
6.767297e+01	-8.072283e-04
6.806384e+01	-8.165794e-04
6.845698e+01	-8.260388e-04
6.885238e+01	-8.356078e-04
6.925007e+01	-8.452876e-04
6.965005e+01	-8.550795e-04
7.005235e+01	-8.649849e-04
7.045697e+01	-8.750049e-04
7.086393e+01	-8.851411e-04
7.127323e+01	-8.953946e-04
7.168490e+01	-9.057669e-04
7.209895e+01	-9.162594e-04
7.251539e+01	-9.268734e-04
7.293424e+01	-9.376103e-04
7.335551e+01	-9.484716e-04
7.377920e+01	-9.594587e-04
7.420535e+01	-9.705730e-04
7.463396e+01	-9.818161e-04
7.506504e+01	-9.931894e-04
7.549861e+01	-1.004694e-03
7.593469e+01	-1.016333e-03
7.637328e+01	-1.028106e-03
7.681441e+01	-1.040015e-03
7.725809e+01	-1.052063e-03
7.770433e+01	-1.064250e-03
7.815315e+01	-1.076578e-03
7.860456e+01	-1.089049e-03
7.905857e+01	-1.101664e-03
7.951521e+01	-1.114425e-03
7.997449e+01	-1.127335e-03
8.043642e+01	-1.140393e-03
8.090102e+01	-1.153603e-03
8.136830e+01	-1.166966e-03
8.183828e+01	-1.180484e-03
8.231097e+01	-1.194159e-03
8.278640e+01	-1.207991e-03
8.326457e+01	-1.221984e-03
8.374550e+01	-1.236139e-03
8.422921e+01	-1.250458e-03
8.471572e+01	-1.264943e-03
8.520503e+01	-1.279595e-03
8.569717e+01	-1.294418e-03
8.619215e+01	-1.309412e-03
8.669000e+01	-1.324579e-03
8.719071e+01	-1.339922e-03
8.769432e+01	-1.355443e-03
8.820084e+01	-1.371144e-03
8.871029e+01	-1.387027e-03
8.922267e+01	-1.403093e-03
8.973802e+01	-1.419346e-03
9.025634e+01	-1.435786e-03
9.077766e+01	-1.452418e-03
9.130199e+01	-1.469241e-03
9.182935e+01	-1.486260e-03
9.235975e+01	-1.503476e-03
9.289321e+01	-1.520891e-03
9.342976e+01	-1.538508e-03
9.396941e+01	-1.556329e-03
9.451217e+01	-1.574356e-03
9.505807e+01	-1.592592e-03
9.560712e+01	-1.611039e-03
9.615934e+01	-1.629700e-03
9.671476e+01	-1.648577e-03
9.727338e+01	-1.667672e-03
9.783522e+01	-1.686989e-03
9.840032e+01	-1.706529e-03
9.896867e+01	-1.726296e-03
9.954031e+01	-1.746292e-03
1.001153e+02	-1.766519e-03
1.006935e+02	-1.786980e-03
1.012751e+02	-1.807678e-03
1.018601e+02	-1.828616e-03
1.024484e+02	-1.849797e-03
1.030402e+02	-1.871223e-03
1.036353e+02	-1.892897e-03
1.042339e+02	-1.914821e-03
1.048360e+02	-1.937000e-03
1.054415e+02	-1.959436e-03
1.060505e+02	-1.982131e-03
1.066631e+02	-2.005089e-03
1.072791e+02	-2.028314e-03
1.078988e+02	-2.051807e-03
1.085220e+02	-2.075572e-03
1.091488e+02	-2.099612e-03
1.097793e+02	-2.123930e-03
1.104133e+02	-2.148531e-03
1.110511e+02	-2.173416e-03
1.116925e+02	-2.198589e-03
1.123376e+02	-2.224054e-03
1.129865e+02	-2.249813e-03
1.136391e+02	-2.275871e-03
1.142955e+02	-2.302231e-03
1.149556e+02	-2.328895e-03
1.156196e+02	-2.355869e-03
1.162874e+02	-2.383155e-03
1.169591e+02	-2.410757e-03
1.176347e+02	-2.438678e-03
1.183141e+02	-2.466923e-03
1.189975e+02	-2.495494e-03
1.196848e+02	-2.524397e-03
1.203761e+02	-2.553634e-03
1.210714e+02	-2.583210e-03
1.217707e+02	-2.613128e-03
1.224740e+02	-2.643393e-03
1.231814e+02	-2.674008e-03
1.238929e+02	-2.704977e-03
1.246085e+02	-2.736305e-03
1.253283e+02	-2.767996e-03
1.260522e+02	-2.800053e-03
1.267802e+02	-2.832482e-03
1.275125e+02	-2.865286e-03
1.282490e+02	-2.898470e-03
1.289898e+02	-2.932038e-03
1.297348e+02	-2.965995e-03
1.304842e+02	-3.000345e-03
1.312378e+02	-3.035093e-03
1.319959e+02	-3.070243e-03
1.327583e+02	-3.105800e-03
1.335251e+02	-3.141768e-03
1.342963e+02	-3.178153e-03
1.350720e+02	-3.214959e-03
1.358522e+02	-3.252191e-03
1.366368e+02	-3.289854e-03
1.374260e+02	-3.327954e-03
1.382198e+02	-3.366494e-03
1.390182e+02	-3.405480e-03
1.398211e+02	-3.444918e-03
1.406287e+02	-3.484812e-03
1.414410e+02	-3.525168e-03
1.422579e+02	-3.565991e-03
1.430796e+02	-3.607287e-03
1.439060e+02	-3.649061e-03
1.447372e+02	-3.691318e-03
1.455732e+02	-3.734065e-03
1.464141e+02	-3.777306e-03
1.472597e+02	-3.821048e-03
1.481103e+02	-3.865296e-03
1.489658e+02	-3.910056e-03
1.498262e+02	-3.955335e-03
1.506916e+02	-4.001137e-03
1.515620e+02	-4.047470e-03
1.524374e+02	-4.094338e-03
1.533179e+02	-4.141750e-03
1.542034e+02	-4.189710e-03
1.550941e+02	-4.238225e-03
1.559899e+02	-4.287302e-03
1.568909e+02	-4.336946e-03
1.577971e+02	-4.387165e-03
1.587085e+02	-4.437966e-03
1.596252e+02	-4.489354e-03
1.605472e+02	-4.541337e-03
1.614745e+02	-4.593922e-03
1.624072e+02	-4.647115e-03
1.633453e+02	-4.700924e-03
1.642887e+02	-4.755356e-03
1.652377e+02	-4.810417e-03
1.661921e+02	-4.866116e-03
1.671520e+02	-4.922459e-03
1.681175e+02	-4.979454e-03
1.690885e+02	-5.037109e-03
1.700651e+02	-5.095431e-03
1.710474e+02	-5.154427e-03
1.720354e+02	-5.214107e-03
1.730291e+02	-5.274477e-03
1.740285e+02	-5.335545e-03
1.750337e+02	-5.397321e-03
1.760446e+02	-5.459810e-03
1.770615e+02	-5.523023e-03
1.780842e+02	-5.586968e-03
1.791128e+02	-5.651652e-03
1.801473e+02	-5.717085e-03
1.811878e+02	-5.783274e-03
1.822344e+02	-5.850230e-03
1.832870e+02	-5.917960e-03
1.843456e+02	-5.986474e-03
1.854104e+02	-6.055780e-03
1.864813e+02	-6.125888e-03
1.875584e+02	-6.196807e-03
1.886418e+02	-6.268547e-03
1.897313e+02	-6.341117e-03
1.908272e+02	-6.414526e-03
1.919294e+02	-6.488784e-03
1.930380e+02	-6.563901e-03
1.941530e+02	-6.639887e-03
1.952744e+02	-6.716753e-03
1.964023e+02	-6.794507e-03
1.975367e+02	-6.873161e-03
1.986777e+02	-6.952724e-03
1.998252e+02	-7.033208e-03
2.009794e+02	-7.114622e-03
2.021403e+02	-7.196978e-03
2.033078e+02	-7.280287e-03
2.044821e+02	-7.364559e-03
2.056632e+02	-7.449806e-03
2.068511e+02	-7.536039e-03
2.080459e+02	-7.623269e-03
2.092475e+02	-7.711508e-03
2.104561e+02	-7.800767e-03
2.116717e+02	-7.891059e-03
2.128943e+02	-7.982395e-03
2.141240e+02	-8.074787e-03
2.153608e+02	-8.168247e-03
2.166047e+02	-8.262788e-03
2.178558e+02	-8.358422e-03
2.191141e+02	-8.455162e-03
2.203797e+02	-8.553020e-03
2.216526e+02	-8.652010e-03
2.229329e+02	-8.752144e-03
2.242205e+02	-8.853437e-03
2.255156e+02	-8.955900e-03
2.268182e+02	-9.059548e-03
2.281283e+02	-9.164394e-03
2.294459e+02	-9.270452e-03
2.307712e+02	-9.377736e-03
2.321041e+02	-9.486261e-03
2.334447e+02	-9.596039e-03
2.347931e+02	-9.707087e-03
2.361493e+02	-9.819419e-03
2.375133e+02	-9.933049e-03
2.388851e+02	-1.004799e-02
2.402649e+02	-1.016426e-02
2.416527e+02	-1.028188e-02
2.430484e+02	-1.040085e-02
2.444523e+02	-1.052120e-02
2.458642e+02	-1.064295e-02
2.472843e+02	-1.076609e-02
2.487126e+02	-1.089066e-02
2.501492e+02	-1.101668e-02
2.515940e+02	-1.114414e-02
2.530472e+02	-1.127308e-02
2.545088e+02	-1.140351e-02
2.559789e+02	-1.153545e-02
2.574574e+02	-1.166891e-02
2.589444e+02	-1.180391e-02
2.604401e+02	-1.194047e-02
2.619444e+02	-1.207861e-02
2.634574e+02	-1.221835e-02
2.649791e+02	-1.235970e-02
2.665096e+02	-1.250269e-02
2.680489e+02	-1.264732e-02
2.695972e+02	-1.279363e-02
2.711544e+02	-1.294162e-02
2.727205e+02	-1.309133e-02
2.742958e+02	-1.324276e-02
2.758801e+02	-1.339594e-02
2.774736e+02	-1.355090e-02
2.790762e+02	-1.370764e-02
2.806882e+02	-1.386619e-02
2.823094e+02	-1.402657e-02
2.839400e+02	-1.418881e-02
2.855800e+02	-1.435292e-02
2.872295e+02	-1.451892e-02
2.888886e+02	-1.468684e-02
2.905572e+02	-1.485670e-02
2.922354e+02	-1.502852e-02
2.939234e+02	-1.520232e-02
2.956211e+02	-1.537813e-02
2.973286e+02	-1.555597e-02
2.990459e+02	-1.573586e-02
3.007732e+02	-1.591783e-02
3.025104e+02	-1.610190e-02
3.042577e+02	-1.628810e-02
3.060151e+02	-1.647644e-02
3.077826e+02	-1.666695e-02
3.095604e+02	-1.685967e-02
3.113484e+02	-1.705461e-02
3.131467e+02	-1.725180e-02
3.149554e+02	-1.745126e-02
3.167746e+02	-1.765302e-02
3.186043e+02	-1.785712e-02
3.204445e+02	-1.806356e-02
3.222954e+02	-1.827239e-02
3.241570e+02	-1.848363e-02
3.260293e+02	-1.869731e-02
3.279124e+02	-1.891345e-02
3.298064e+02	-1.913208e-02
3.317114e+02	-1.935323e-02
3.336273e+02	-1.957694e-02
3.355544e+02	-1.980322e-02
3.374925e+02	-2.003212e-02
3.394418e+02	-2.026365e-02
3.414024e+02	-2.049786e-02
3.433744e+02	-2.073476e-02
3.453577e+02	-2.097440e-02
3.473525e+02	-2.121679e-02
3.493588e+02	-2.146199e-02
3.513766e+02	-2.171001e-02
3.534062e+02	-2.196088e-02
3.554474e+02	-2.221465e-02
3.575005e+02	-2.247135e-02
3.595654e+02	-2.273100e-02
3.616422e+02	-2.299364e-02
3.637311e+02	-2.325932e-02
3.658320e+02	-2.352805e-02
3.679450e+02	-2.379988e-02
3.700702e+02	-2.407484e-02
3.722077e+02	-2.435297e-02
3.743576e+02	-2.463430e-02
3.765199e+02	-2.491887e-02
3.786946e+02	-2.520672e-02
3.808820e+02	-2.549789e-02
3.830819e+02	-2.579241e-02
3.852946e+02	-2.609032e-02
3.875200e+02	-2.639166e-02
3.897583e+02	-2.669647e-02
3.920096e+02	-2.700479e-02
3.942738e+02	-2.731667e-02
3.965511e+02	-2.763213e-02
3.988416e+02	-2.795122e-02
4.011452e+02	-2.827398e-02
4.034622e+02	-2.860046e-02
4.057926e+02	-2.893070e-02
4.081365e+02	-2.926473e-02
4.104938e+02	-2.960262e-02
4.128648e+02	-2.994438e-02
4.152495e+02	-3.029008e-02
4.176480e+02	-3.063976e-02
4.200603e+02	-3.099346e-02
4.224866e+02	-3.135123e-02
4.249268e+02	-3.171311e-02
4.273812e+02	-3.207915e-02
4.298497e+02	-3.244940e-02
4.323325e+02	-3.282391e-02
4.348297e+02	-3.320273e-02
4.373412e+02	-3.358590e-02
4.398673e+02	-3.397348e-02
4.424079e+02	-3.436551e-02
4.449633e+02	-3.476204e-02
4.475334e+02	-3.516313e-02
4.501183e+02	-3.556883e-02
4.527182e+02	-3.597920e-02
4.553330e+02	-3.639427e-02
4.579630e+02	-3.681412e-02
4.606082e+02	-3.723879e-02
4.632687e+02	-3.766833e-02
4.659445e+02	-3.810281e-02
4.686358e+02	-3.854228e-02
4.713426e+02	-3.898679e-02
4.740650e+02	-3.943641e-02
4.768032e+02	-3.989118e-02
4.795572e+02	-4.035118e-02
4.823271e+02	-4.081646e-02
4.851130e+02	-4.128707e-02
4.879150e+02	-4.176309e-02
4.907332e+02	-4.224457e-02
4.935676e+02	-4.273157e-02
4.964185e+02	-4.322415e-02
4.992858e+02	-4.372239e-02
5.021696e+02	-4.422634e-02
5.050701e+02	-4.473607e-02
5.079874e+02	-4.525164e-02
5.109215e+02	-4.577313e-02
5.138726e+02	-4.630059e-02
5.168407e+02	-4.683409e-02
5.198259e+02	-4.737371e-02
5.228284e+02	-4.791952e-02
5.258482e+02	-4.847157e-02
5.288855e+02	-4.902995e-02
5.319403e+02	-4.959473e-02
5.350128e+02	-5.016597e-02
5.381030e+02	-5.074375e-02
5.412111e+02	-5.132815e-02
5.443371e+02	-5.191924e-02
5.474812e+02	-5.251710e-02
5.506434e+02	-5.312180e-02
5.538239e+02	-5.373341e-02
5.570228e+02	-5.435203e-02
5.602401e+02	-5.497772e-02
5.634760e+02	-5.561056e-02
5.667306e+02	-5.625065e-02
5.700040e+02	-5.689805e-02
5.732964e+02	-5.755286e-02
5.766077e+02	-5.821515e-02
5.799382e+02	-5.888501e-02
5.832879e+02	-5.956252e-02
5.866569e+02	-6.024778e-02
5.900454e+02	-6.094086e-02
5.934535e+02	-6.164186e-02
5.968813e+02	-6.235087e-02
6.003288e+02	-6.306797e-02
6.037963e+02	-6.379326e-02
6.072838e+02	-6.452682e-02
6.107914e+02	-6.526876e-02
6.143194e+02	-6.601917e-02
6.178676e+02	-6.677813e-02
6.214364e+02	-6.754575e-02
6.250258e+02	-6.832213e-02
6.286359e+02	-6.910736e-02
6.322669e+02	-6.990154e-02
6.359189e+02	-7.070477e-02
6.395919e+02	-7.151716e-02
6.432862e+02	-7.233880e-02
6.470017e+02	-7.316980e-02
6.507388e+02	-7.401027e-02
6.544974e+02	-7.486031e-02
6.582778e+02	-7.572003e-02
6.620800e+02	-7.658953e-02
6.659041e+02	-7.746892e-02
6.697504e+02	-7.835833e-02
6.736188e+02	-7.925785e-02
6.775096e+02	-8.016760e-02
6.814229e+02	-8.108769e-02
6.853587e+02	-8.201825e-02
6.893173e+02	-8.295938e-02
6.932988e+02	-8.391121e-02
6.973033e+02	-8.487385e-02
7.013309e+02	-8.584742e-02
