Frequency(Hz)	Magnitude(dB)
1.000000e+01	-1.971500e+00
1.005776e+01	-1.989919e+00
1.011585e+01	-2.008085e+00
1.017428e+01	-2.026810e+00
1.023305e+01	-2.045512e+00
1.029215e+01	-2.064552e+00
1.035160e+01	-2.083348e+00
1.041139e+01	-2.102824e+00
1.047153e+01	-2.121691e+00
1.053201e+01	-2.140941e+00
1.059284e+01	-2.160790e+00
1.065403e+01	-2.180379e+00
1.071556e+01	-2.200428e+00
1.077746e+01	-2.220037e+00
1.083971e+01	-2.240383e+00
1.090232e+01	-2.260425e+00
1.096529e+01	-2.280750e+00
1.102862e+01	-2.301594e+00
1.109232e+01	-2.322131e+00
1.115639e+01	-2.342959e+00
1.122083e+01	-2.363962e+00
1.128564e+01	-2.384942e+00
1.135083e+01	-2.406068e+00
1.141639e+01	-2.427169e+00
1.148233e+01	-2.448976e+00
1.154865e+01	-2.470458e+00
1.161536e+01	-2.492359e+00
1.168245e+01	-2.514428e+00
1.174992e+01	-2.536256e+00
1.181779e+01	-2.558378e+00
1.188605e+01	-2.580816e+00
1.195470e+01	-2.603257e+00
1.202375e+01	-2.626120e+00
1.209320e+01	-2.648707e+00
1.216305e+01	-2.671610e+00
1.223330e+01	-2.694372e+00
1.230396e+01	-2.717843e+00
1.237503e+01	-2.741229e+00
1.244651e+01	-2.764530e+00
1.251840e+01	-2.788542e+00
1.259070e+01	-2.812192e+00
1.266343e+01	-2.835725e+00
1.273657e+01	-2.859836e+00
1.281014e+01	-2.883921e+00
1.288413e+01	-2.908535e+00
1.295855e+01	-2.932930e+00
1.303339e+01	-2.957452e+00
1.310867e+01	-2.982663e+00
1.318439e+01	-3.007250e+00
1.326054e+01	-3.032583e+00
1.333713e+01	-3.057694e+00
1.341417e+01	-3.083168e+00
1.349165e+01	-3.108431e+00
1.356958e+01	-3.134229e+00
1.364795e+01	-3.159726e+00
1.372678e+01	-3.185924e+00
1.380607e+01	-3.211991e+00
1.388581e+01	-3.237980e+00
1.396602e+01	-3.264541e+00
1.404668e+01	-3.291256e+00
1.412782e+01	-3.317771e+00
1.420942e+01	-3.344531e+00
1.429149e+01	-3.371377e+00
1.437404e+01	-3.398420e+00
1.445706e+01	-3.425639e+00
1.454057e+01	-3.453047e+00
1.462455e+01	-3.480485e+00
1.470902e+01	-3.508298e+00
1.479398e+01	-3.535934e+00
1.487943e+01	-3.564123e+00
1.496537e+01	-3.592192e+00
1.505181e+01	-3.620526e+00
1.513875e+01	-3.648700e+00
1.522619e+01	-3.677010e+00
1.531414e+01	-3.705921e+00
1.540259e+01	-3.735000e+00
1.549156e+01	-3.763470e+00
1.558103e+01	-3.792602e+00
1.567103e+01	-3.821568e+00
1.576155e+01	-3.851166e+00
1.585258e+01	-3.880697e+00
1.594415e+01	-3.910166e+00
1.603624e+01	-3.940049e+00
1.612886e+01	-3.970116e+00
1.622202e+01	-4.000181e+00
1.631572e+01	-4.029869e+00
1.640996e+01	-4.060576e+00
1.650474e+01	-4.090831e+00
1.660008e+01	-4.121603e+00
1.669596e+01	-4.152232e+00
1.679239e+01	-4.183237e+00
1.688938e+01	-4.214259e+00
1.698694e+01	-4.245092e+00
1.708505e+01	-4.276267e+00
1.718373e+01	-4.308129e+00
1.728299e+01	-4.339665e+00
1.738281e+01	-4.371446e+00
1.748322e+01	-4.403118e+00
1.758420e+01	-4.434619e+00
1.768576e+01	-4.466819e+00
1.778792e+01	-4.499071e+00
1.789066e+01	-4.531582e+00
1.799399e+01	-4.563741e+00
1.809793e+01	-4.596706e+00
1.820246e+01	-4.629414e+00
1.830760e+01	-4.662196e+00
1.841334e+01	-4.695222e+00
1.851969e+01	-4.728371e+00
1.862666e+01	-4.761773e+00
1.873425e+01	-4.794779e+00
1.884246e+01	-4.828292e+00
1.895129e+01	-4.862066e+00
1.906075e+01	-4.895926e+00
1.917085e+01	-4.929439e+00
1.928158e+01	-4.963725e+00
1.939295e+01	-4.997603e+00
1.950496e+01	-5.032111e+00
1.961762e+01	-5.066153e+00
1.973093e+01	-5.101123e+00
1.984490e+01	-5.135578e+00
1.995952e+01	-5.170278e+00
2.007480e+01	-5.205166e+00
2.019076e+01	-5.240000e+00
2.030738e+01	-5.275195e+00
2.042467e+01	-5.310594e+00
2.054264e+01	-5.345726e+00
2.066130e+01	-5.381464e+00
2.078064e+01	-5.416923e+00
2.090066e+01	-5.452663e+00
2.102139e+01	-5.488583e+00
2.114280e+01	-5.524420e+00
2.126492e+01	-5.560591e+00
2.138775e+01	-5.596631e+00
2.151128e+01	-5.632750e+00
2.163553e+01	-5.669634e+00
2.176050e+01	-5.706061e+00
2.188619e+01	-5.742537e+00
2.201260e+01	-5.779406e+00
2.213974e+01	-5.816184e+00
2.226762e+01	-5.852966e+00
2.239624e+01	-5.890208e+00
2.252560e+01	-5.927311e+00
2.265571e+01	-5.964702e+00
2.278656e+01	-6.002473e+00
2.291818e+01	-6.039641e+00
2.305055e+01	-6.077522e+00
2.318369e+01	-6.115280e+00
2.331760e+01	-6.152973e+00
2.345228e+01	-6.190883e+00
2.358774e+01	-6.228820e+00
2.372398e+01	-6.267232e+00
2.386101e+01	-6.305556e+00
2.399883e+01	-6.343803e+00
2.413745e+01	-6.382145e+00
2.427686e+01	-6.420588e+00
2.441709e+01	-6.460069e+00
2.455812e+01	-6.497743e+00
2.469997e+01	-6.537129e+00
2.484263e+01	-6.575863e+00
2.498612e+01	-6.614983e+00
2.513044e+01	-6.654560e+00
2.527559e+01	-6.693609e+00
2.542158e+01	-6.733285e+00
2.556842e+01	-6.772240e+00
2.571610e+01	-6.811821e+00
2.586463e+01	-6.851611e+00
2.601403e+01	-6.891445e+00
2.616428e+01	-6.930800e+00
2.631541e+01	-6.971074e+00
2.646740e+01	-7.011055e+00
2.662028e+01	-7.051141e+00
2.677404e+01	-7.091257e+00
2.692868e+01	-7.131822e+00
2.708422e+01	-7.172276e+00
2.724066e+01	-7.212810e+00
2.739800e+01	-7.253005e+00
2.755625e+01	-7.293876e+00
2.771541e+01	-7.334703e+00
2.787550e+01	-7.375381e+00
2.803650e+01	-7.416178e+00
2.819844e+01	-7.457421e+00
2.836131e+01	-7.498105e+00
2.852513e+01	-7.539697e+00
2.868989e+01	-7.580775e+00
2.885560e+01	-7.621982e+00
2.902227e+01	-7.663264e+00
2.918990e+01	-7.704943e+00
2.935850e+01	-7.746590e+00
2.952807e+01	-7.788219e+00
2.969863e+01	-7.829959e+00
2.987016e+01	-7.872029e+00
3.004269e+01	-7.913983e+00
3.021622e+01	-7.955717e+00
3.039075e+01	-7.997834e+00
3.056628e+01	-8.039828e+00
3.074283e+01	-8.082039e+00
3.092040e+01	-8.124057e+00
3.109900e+01	-8.166624e+00
3.127862e+01	-8.208432e+00
3.145929e+01	-8.251950e+00
3.164099e+01	-8.294096e+00
3.182375e+01	-8.336738e+00
3.200756e+01	-8.379530e+00
3.219244e+01	-8.422461e+00
3.237838e+01	-8.465483e+00
3.256540e+01	-8.507945e+00
3.275349e+01	-8.551156e+00
3.294268e+01	-8.593960e+00
3.313295e+01	-8.637526e+00
3.332433e+01	-8.680125e+00
3.351681e+01	-8.723768e+00
3.371040e+01	-8.767122e+00
3.390511e+01	-8.811078e+00
3.410094e+01	-8.853948e+00
3.429791e+01	-8.898026e+00
3.449601e+01	-8.941295e+00
3.469526e+01	-8.985247e+00
3.489566e+01	-9.028906e+00
3.509721e+01	-9.072435e+00
3.529993e+01	-9.116437e+00
3.550382e+01	-9.160724e+00
3.570889e+01	-9.204655e+00
3.591515e+01	-9.247957e+00
3.612259e+01	-9.292603e+00
3.633123e+01	-9.336734e+00
3.654108e+01	-9.380795e+00
3.675214e+01	-9.425010e+00
3.696442e+01	-9.469687e+00
3.717792e+01	-9.513853e+00
3.739266e+01	-9.558180e+00
3.760864e+01	-9.603539e+00
3.782587e+01	-9.647641e+00
3.804435e+01	-9.691878e+00
3.826409e+01	-9.737189e+00
3.848510e+01	-9.781490e+00
3.870739e+01	-9.826445e+00
3.893096e+01	-9.871238e+00
3.915583e+01	-9.916349e+00
3.938199e+01	-9.960701e+00
3.960946e+01	-1.000597e+01
3.983824e+01	-1.005130e+01
4.006834e+01	-1.009629e+01
4.029978e+01	-1.014119e+01
4.053255e+01	-1.018665e+01
4.076666e+01	-1.023176e+01
4.100213e+01	-1.027668e+01
4.123896e+01	-1.032212e+01
4.147715e+01	-1.036826e+01
4.171672e+01	-1.041299e+01
4.195767e+01	-1.045902e+01
4.220002e+01	-1.050420e+01
4.244377e+01	-1.054974e+01
4.268892e+01	-1.059544e+01
4.293549e+01	-1.064124e+01
4.318348e+01	-1.068729e+01
4.343291e+01	-1.073250e+01
4.368377e+01	-1.077807e+01
4.393609e+01	-1.082429e+01
4.418986e+01	-1.087040e+01
4.444510e+01	-1.091630e+01
4.470182e+01	-1.096259e+01
4.496001e+01	-1.100857e+01
4.521970e+01	-1.105440e+01
4.548089e+01	-1.110097e+01
4.574358e+01	-1.114700e+01
4.600779e+01	-1.119281e+01
4.627353e+01	-1.123940e+01
4.654081e+01	-1.128596e+01
4.680963e+01	-1.133171e+01
4.708000e+01	-1.137825e+01
4.735193e+01	-1.142442e+01
4.762543e+01	-1.147119e+01
4.790051e+01	-1.151778e+01
4.817719e+01	-1.156479e+01
4.845545e+01	-1.161097e+01
4.873533e+01	-1.165727e+01
4.901682e+01	-1.170374e+01
4.929994e+01	-1.174989e+01
4.958470e+01	-1.179714e+01
4.987110e+01	-1.184416e+01
5.015915e+01	-1.189046e+01
5.044887e+01	-1.193774e+01
5.074026e+01	-1.198384e+01
5.103333e+01	-1.203154e+01
5.132810e+01	-1.207866e+01
5.162457e+01	-1.212522e+01
5.192275e+01	-1.217178e+01
5.222265e+01	-1.221912e+01
5.252429e+01	-1.226628e+01
5.282767e+01	-1.231326e+01
5.313280e+01	-1.236001e+01
5.343969e+01	-1.240754e+01
5.374836e+01	-1.245439e+01
5.405880e+01	-1.250098e+01
5.437105e+01	-1.254886e+01
5.468509e+01	-1.259664e+01
5.500095e+01	-1.264372e+01
5.531863e+01	-1.269097e+01
5.563815e+01	-1.273810e+01
5.595951e+01	-1.278582e+01
5.628273e+01	-1.283308e+01
5.660782e+01	-1.288110e+01
5.693479e+01	-1.292730e+01
5.726364e+01	-1.297544e+01
5.759439e+01	-1.302302e+01
5.792705e+01	-1.307109e+01
5.826164e+01	-1.311827e+01
5.859815e+01	-1.316554e+01
5.893662e+01	-1.321337e+01
5.927703e+01	-1.326092e+01
5.961941e+01	-1.330833e+01
5.996377e+01	-1.335646e+01
6.031012e+01	-1.340424e+01
6.065847e+01	-1.345203e+01
6.100883e+01	-1.349933e+01
6.136121e+01	-1.354677e+01
6.171563e+01	-1.359500e+01
6.207210e+01	-1.364305e+01
6.243063e+01	-1.369086e+01
6.279122e+01	-1.373880e+01
6.315390e+01	-1.378669e+01
6.351868e+01	-1.383438e+01
6.388556e+01	-1.388281e+01
6.425456e+01	-1.393040e+01
6.462569e+01	-1.397859e+01
6.499897e+01	-1.402656e+01
6.537440e+01	-1.407468e+01
6.575200e+01	-1.412231e+01
6.613178e+01	-1.417124e+01
6.651375e+01	-1.421911e+01
6.689793e+01	-1.426756e+01
6.728433e+01	-1.431648e+01
6.767297e+01	-1.436339e+01
6.806384e+01	-1.441203e+01
6.845698e+01	-1.445901e+01
6.885238e+01	-1.450804e+01
6.925007e+01	-1.455695e+01
6.965005e+01	-1.460520e+01
7.005235e+01	-1.465229e+01
7.045697e+01	-1.470118e+01
7.086393e+01	-1.474944e+01
7.127323e+01	-1.479812e+01
7.168490e+01	-1.484700e+01
7.209895e+01	-1.489554e+01
7.251539e+01	-1.494269e+01
7.293424e+01	-1.499166e+01
7.335551e+01	-1.504067e+01
7.377920e+01	-1.508884e+01
7.420535e+01	-1.513719e+01
7.463396e+01	-1.518608e+01
7.506504e+01	-1.523479e+01
7.549861e+01	-1.528234e+01
7.593469e+01	-1.533117e+01
7.637328e+01	-1.537978e+01
7.681441e+01	-1.542853e+01
7.725809e+01	-1.547672e+01
7.770433e+01	-1.552588e+01
7.815315e+01	-1.557439e+01
7.860456e+01	-1.562337e+01
7.905857e+01	-1.567127e+01
7.951521e+01	-1.572070e+01
7.997449e+01	-1.576942e+01
8.043642e+01	-1.581789e+01
8.090102e+01	-1.586667e+01
8.136830e+01	-1.591562e+01
8.183828e+01	-1.596381e+01
8.231097e+01	-1.601344e+01
8.278640e+01	-1.606125e+01
8.326457e+01	-1.611089e+01
8.374550e+01	-1.615932e+01
8.422921e+01	-1.620871e+01
8.471572e+01	-1.625699e+01
8.520503e+01	-1.630584e+01
8.569717e+01	-1.635564e+01
8.619215e+01	-1.640330e+01
8.669000e+01	-1.645292e+01
8.719071e+01	-1.649988e+01
8.769432e+01	-1.654875e+01
8.820084e+01	-1.660007e+01
8.871029e+01	-1.664707e+01
8.922267e+01	-1.669761e+01
8.973802e+01	-1.674640e+01
9.025634e+01	-1.679508e+01
9.077766e+01	-1.684434e+01
9.130199e+01	-1.689402e+01
9.182935e+01	-1.694083e+01
9.235975e+01	-1.699064e+01
9.289321e+01	-1.704043e+01
9.342976e+01	-1.708839e+01
9.396941e+01	-1.713844e+01
9.451217e+01	-1.718819e+01
9.505807e+01	-1.723617e+01
9.560712e+01	-1.728543e+01
9.615934e+01	-1.733399e+01
9.671476e+01	-1.738375e+01
9.727338e+01	-1.743323e+01
9.783522e+01	-1.748121e+01
9.840032e+01	-1.753182e+01
9.896867e+01	-1.758127e+01
9.954031e+01	-1.762996e+01
1.001153e+02	-1.767900e+01
1.006935e+02	-1.772873e+01
1.012751e+02	-1.777621e+01
1.018601e+02	-1.782603e+01
1.024484e+02	-1.787695e+01
1.030402e+02	-1.792593e+01
1.036353e+02	-1.797553e+01
1.042339e+02	-1.802379e+01
1.048360e+02	-1.807239e+01
1.054415e+02	-1.812187e+01
1.060505e+02	-1.817021e+01
1.066631e+02	-1.822059e+01
1.072791e+02	-1.826869e+01
1.078988e+02	-1.831747e+01
1.085220e+02	-1.836772e+01
1.091488e+02	-1.841761e+01
1.097793e+02	-1.846619e+01
1.104133e+02	-1.851458e+01
1.110511e+02	-1.856570e+01
1.116925e+02	-1.861469e+01
1.123376e+02	-1.866240e+01
1.129865e+02	-1.871367e+01
1.136391e+02	-1.876184e+01
1.142955e+02	-1.881254e+01
1.149556e+02	-1.885971e+01
1.156196e+02	-1.891212e+01
1.162874e+02	-1.895968e+01
1.169591e+02	-1.900909e+01
1.176347e+02	-1.905949e+01
1.183141e+02	-1.911020e+01
1.189975e+02	-1.915815e+01
1.196848e+02	-1.920685e+01
1.203761e+02	-1.925709e+01
1.210714e+02	-1.930649e+01
1.217707e+02	-1.935399e+01
1.224740e+02	-1.940554e+01
1.231814e+02	-1.945533e+01
1.238929e+02	-1.950322e+01
1.246085e+02	-1.955242e+01
1.253283e+02	-1.960158e+01
1.260522e+02	-1.965165e+01
1.267802e+02	-1.970303e+01
1.275125e+02	-1.975101e+01
1.282490e+02	-1.980008e+01
1.289898e+02	-1.985033e+01
1.297348e+02	-1.989831e+01
1.304842e+02	-1.994899e+01
1.312378e+02	-1.999895e+01
1.319959e+02	-2.004838e+01
1.327583e+02	-2.009879e+01
1.335251e+02	-2.014727e+01
1.342963e+02	-2.019613e+01
1.350720e+02	-2.024562e+01
1.358522e+02	-2.029606e+01
1.366368e+02	-2.034702e+01
1.374260e+02	-2.039564e+01
1.382198e+02	-2.044543e+01
1.390182e+02	-2.049485e+01
1.398211e+02	-2.054590e+01
1.406287e+02	-2.059262e+01
1.414410e+02	-2.064312e+01
1.422579e+02	-2.069265e+01
1.430796e+02	-2.074213e+01
1.439060e+02	-2.078996e+01
1.447372e+02	-2.084261e+01
1.455732e+02	-2.089116e+01
1.464141e+02	-2.094006e+01
1.472597e+02	-2.099213e+01
1.481103e+02	-2.104079e+01
1.489658e+02	-2.108985e+01
1.498262e+02	-2.114003e+01
1.506916e+02	-2.118939e+01
1.515620e+02	-2.123924e+01
1.524374e+02	-2.128768e+01
1.533179e+02	-2.134015e+01
1.542034e+02	-2.138713e+01
1.550941e+02	-2.143609e+01
1.559899e+02	-2.148671e+01
1.568909e+02	-2.153464e+01
1.577971e+02	-2.158600e+01
1.587085e+02	-2.163605e+01
1.596252e+02	-2.168673e+01
1.605472e+02	-2.173530e+01
1.614745e+02	-2.178471e+01
1.624072e+02	-2.183476e+01
1.633453e+02	-2.188471e+01
1.642887e+02	-2.193445e+01
1.652377e+02	-2.198326e+01
1.661921e+02	-2.203024e+01
1.671520e+02	-2.208502e+01
1.681175e+02	-2.213398e+01
1.690885e+02	-2.218406e+01
1.700651e+02	-2.223368e+01
1.710474e+02	-2.228450e+01
1.720354e+02	-2.233401e+01
1.730291e+02	-2.238108e+01
1.740285e+02	-2.243243e+01
1.750337e+02	-2.248202e+01
1.760446e+02	-2.253237e+01
1.770615e+02	-2.258254e+01
1.780842e+02	-2.263251e+01
1.791128e+02	-2.268323e+01
1.801473e+02	-2.272999e+01
1.811878e+02	-2.278213e+01
1.822344e+02	-2.283001e+01
1.832870e+02	-2.287899e+01
1.843456e+02	-2.293047e+01
1.854104e+02	-2.297916e+01
1.864813e+02	-2.302940e+01
1.875584e+02	-2.308067e+01
1.886418e+02	-2.312891e+01
1.897313e+02	-2.317912e+01
1.908272e+02	-2.322827e+01
1.919294e+02	-2.327967e+01
1.930380e+02	-2.332752e+01
1.941530e+02	-2.337946e+01
1.952744e+02	-2.342759e+01
1.964023e+02	-2.347759e+01
1.975367e+02	-2.352766e+01
1.986777e+02	-2.357707e+01
1.998252e+02	-2.362680e+01
2.009794e+02	-2.367691e+01
2.021403e+02	-2.372583e+01
2.033078e+02	-2.377654e+01
2.044821e+02	-2.382655e+01
2.056632e+02	-2.387511e+01
2.068511e+02	-2.392833e+01
2.080459e+02	-2.397548e+01
2.092475e+02	-2.402521e+01
2.104561e+02	-2.407528e+01
2.116717e+02	-2.412787e+01
2.128943e+02	-2.417331e+01
2.141240e+02	-2.422790e+01
2.153608e+02	-2.427744e+01
2.166047e+02	-2.432393e+01
2.178558e+02	-2.437375e+01
2.191141e+02	-2.442492e+01
2.203797e+02	-2.447577e+01
2.216526e+02	-2.452454e+01
2.229329e+02	-2.457581e+01
2.242205e+02	-2.462477e+01
2.255156e+02	-2.467366e+01
2.268182e+02	-2.472601e+01
2.281283e+02	-2.477690e+01
2.294459e+02	-2.482477e+01
2.307712e+02	-2.487409e+01
2.321041e+02	-2.492322e+01
2.334447e+02	-2.497410e+01
2.347931e+02	-2.502630e+01
2.361493e+02	-2.507443e+01
2.375133e+02	-2.512475e+01
2.388851e+02	-2.517148e+01
2.402649e+02	-2.522472e+01
2.416527e+02	-2.527509e+01
2.430484e+02	-2.532278e+01
2.444523e+02	-2.537300e+01
2.458642e+02	-2.542307e+01
2.472843e+02	-2.547427e+01
2.487126e+02	-2.552268e+01
2.501492e+02	-2.557097e+01
2.515940e+02	-2.562113e+01
2.530472e+02	-2.567241e+01
2.545088e+02	-2.572429e+01
2.559789e+02	-2.577328e+01
2.574574e+02	-2.582158e+01
2.589444e+02	-2.587313e+01
2.604401e+02	-2.592011e+01
2.619444e+02	-2.597239e+01
2.634574e+02	-2.602414e+01
2.649791e+02	-2.607149e+01
2.665096e+02	-2.612156e+01
2.680489e+02	-2.617210e+01
2.695972e+02	-2.622197e+01
2.711544e+02	-2.627364e+01
2.727205e+02	-2.632335e+01
2.742958e+02	-2.637169e+01
2.758801e+02	-2.642173e+01
2.774736e+02	-2.647111e+01
2.790762e+02	-2.651830e+01
2.806882e+02	-2.657513e+01
2.823094e+02	-2.662498e+01
2.839400e+02	-2.667223e+01
2.855800e+02	-2.672114e+01
2.872295e+02	-2.677067e+01
2.888886e+02	-2.682166e+01
2.905572e+02	-2.686950e+01
2.922354e+02	-2.692305e+01
2.939234e+02	-2.697448e+01
2.956211e+02	-2.701944e+01
2.973286e+02	-2.707504e+01
2.990459e+02	-2.712252e+01
3.007732e+02	-2.717384e+01
3.025104e+02	-2.722043e+01
3.042577e+02	-2.727020e+01
3.060151e+02	-2.732031e+01
3.077826e+02	-2.737159e+01
3.095604e+02	-2.742433e+01
3.113484e+02	-2.747071e+01
3.131467e+02	-2.752210e+01
3.149554e+02	-2.756979e+01
3.167746e+02	-2.762273e+01
3.186043e+02	-2.767362e+01
3.204445e+02	-2.772563e+01
3.222954e+02	-2.777148e+01
3.241570e+02	-2.782083e+01
3.260293e+02	-2.787690e+01
3.279124e+02	-2.792043e+01
3.298064e+02	-2.797219e+01
3.317114e+02	-2.802397e+01
3.336273e+02	-2.806759e+01
3.355544e+02	-2.812345e+01
3.374925e+02	-2.817020e+01
3.394418e+02	-2.822280e+01
3.414024e+02	-2.827541e+01
3.433744e+02	-2.832230e+01
3.453577e+02	-2.837276e+01
3.473525e+02	-2.842075e+01
3.493588e+02	-2.847236e+01
3.513766e+02	-2.852058e+01
3.534062e+02	-2.857690e+01
3.554474e+02	-2.862264e+01
3.575005e+02	-2.867318e+01
3.595654e+02	-2.872089e+01
3.616422e+02	-2.877931e+01
3.637311e+02	-2.882288e+01
3.658320e+02	-2.887339e+01
3.679450e+02	-2.891879e+01
3.700702e+02	-2.897177e+01
3.722077e+02	-2.902243e+01
3.743576e+02	-2.907179e+01
3.765199e+02	-2.912559e+01
3.786946e+02	-2.917928e+01
3.808820e+02	-2.922113e+01
3.830819e+02	-2.927236e+01
3.852946e+02	-2.932611e+01
3.875200e+02	-2.937329e+01
3.897583e+02	-2.942647e+01
3.920096e+02	-2.947476e+01
3.942738e+02	-2.952814e+01
3.965511e+02	-2.957784e+01
3.988416e+02	-2.962859e+01
4.011452e+02	-2.967945e+01
4.034622e+02	-2.972777e+01
4.057926e+02	-2.977934e+01
4.081365e+02	-2.982438e+01
4.104938e+02	-2.987503e+01
4.128648e+02	-2.992139e+01
4.152495e+02	-2.997644e+01
4.176480e+02	-3.002141e+01
4.200603e+02	-3.007623e+01
4.224866e+02	-3.012721e+01
4.249268e+02	-3.017996e+01
4.273812e+02	-3.022436e+01
4.298497e+02	-3.027427e+01
4.323325e+02	-3.032745e+01
4.348297e+02	-3.037463e+01
4.373412e+02	-3.042748e+01
4.398673e+02	-3.047447e+01
4.424079e+02	-3.052413e+01
4.449633e+02	-3.058327e+01
4.475334e+02	-3.062426e+01
4.501183e+02	-3.067484e+01
4.527182e+02	-3.072632e+01
4.553330e+02	-3.077041e+01
4.579630e+02	-3.082507e+01
4.606082e+02	-3.087466e+01
4.632687e+02	-3.092116e+01
4.659445e+02	-3.097576e+01
4.686358e+02	-3.102687e+01
4.713426e+02	-3.108440e+01
4.740650e+02	-3.112549e+01
4.768032e+02	-3.118079e+01
4.795572e+02	-3.122494e+01
4.823271e+02	-3.128208e+01
4.851130e+02	-3.132916e+01
4.879150e+02	-3.137721e+01
4.907332e+02	-3.142590e+01
4.935676e+02	-3.147611e+01
4.964185e+02	-3.152973e+01
4.992858e+02	-3.157725e+01
5.021696e+02	-3.162208e+01
5.050701e+02	-3.168483e+01
5.079874e+02	-3.172327e+01
5.109215e+02	-3.178285e+01
5.138726e+02	-3.182670e+01
5.168407e+02	-3.188189e+01
5.198259e+02	-3.193273e+01
5.228284e+02	-3.197982e+01
5.258482e+02	-3.203504e+01
5.288855e+02	-3.207772e+01
5.319403e+02	-3.213209e+01
5.350128e+02	-3.218177e+01
5.381030e+02	-3.222716e+01
5.412111e+02	-3.228489e+01
5.443371e+02	-3.233153e+01
5.474812e+02	-3.238213e+01
5.506434e+02	-3.243588e+01
5.538239e+02	-3.247716e+01
5.570228e+02	-3.253577e+01
5.602401e+02	-3.258551e+01
5.634760e+02	-3.262897e+01
5.667306e+02	-3.268484e+01
5.700040e+02	-3.273395e+01
5.732964e+02	-3.279083e+01
5.766077e+02	-3.283079e+01
5.799382e+02	-3.289078e+01
5.832879e+02	-3.293238e+01
5.866569e+02	-3.297949e+01
5.900454e+02	-3.303606e+01
5.934535e+02	-3.308103e+01
5.968813e+02	-3.313950e+01
6.003288e+02	-3.318306e+01
6.037963e+02	-3.324262e+01
6.072838e+02	-3.329400e+01
6.107914e+02	-3.333418e+01
6.143194e+02	-3.338073e+01
6.178676e+02	-3.343817e+01
6.214364e+02	-3.349178e+01
6.250258e+02	-3.354231e+01
6.286359e+02	-3.359066e+01
6.322669e+02	-3.363207e+01
6.359189e+02	-3.368490e+01
6.395919e+02	-3.375156e+01
6.432862e+02	-3.378557e+01
6.470017e+02	-3.383707e+01
6.507388e+02	-3.389317e+01
6.544974e+02	-3.394052e+01
6.582778e+02	-3.398526e+01
6.620800e+02	-3.404575e+01
6.659041e+02	-3.408943e+01
6.697504e+02	-3.414555e+01
6.736188e+02	-3.419424e+01
6.775096e+02	-3.424896e+01
6.814229e+02	-3.430131e+01
6.853587e+02	-3.435011e+01
6.893173e+02	-3.439134e+01
6.932988e+02	-3.444107e+01
6.973033e+02	-3.449298e+01
7.013309e+02	-3.454861e+01
