Frequency(Hz)	Magnitude(dB)
1.000000e+01	-1.710249e-05
1.005776e+01	-1.730063e-05
1.011585e+01	-1.750106e-05
1.017428e+01	-1.770381e-05
1.023305e+01	-1.790892e-05
1.029215e+01	-1.811639e-05
1.035160e+01	-1.832628e-05
1.041139e+01	-1.853859e-05
1.047153e+01	-1.875337e-05
1.053201e+01	-1.897063e-05
1.059284e+01	-1.919041e-05
1.065403e+01	-1.941273e-05
1.071556e+01	-1.963764e-05
1.077746e+01	-1.986514e-05
1.083971e+01	-2.009529e-05
1.090232e+01	-2.032809e-05
1.096529e+01	-2.056360e-05
1.102862e+01	-2.080184e-05
1.109232e+01	-2.104283e-05
1.115639e+01	-2.128662e-05
1.122083e+01	-2.153323e-05
1.128564e+01	-2.178269e-05
1.135083e+01	-2.203505e-05
1.141639e+01	-2.229033e-05
1.148233e+01	-2.254857e-05
1.154865e+01	-2.280980e-05
1.161536e+01	-2.307406e-05
1.168245e+01	-2.334138e-05
1.174992e+01	-2.361180e-05
1.181779e+01	-2.388534e-05
1.188605e+01	-2.416206e-05
1.195470e+01	-2.444199e-05
1.202375e+01	-2.472515e-05
1.209320e+01	-2.501160e-05
1.216305e+01	-2.530136e-05
1.223330e+01	-2.559449e-05
1.230396e+01	-2.589101e-05
1.237503e+01	-2.619096e-05
1.244651e+01	-2.649439e-05
1.251840e+01	-2.680133e-05
1.259070e+01	-2.711183e-05
1.266343e+01	-2.742593e-05
1.273657e+01	-2.774366e-05
1.281014e+01	-2.806508e-05
1.288413e+01	-2.839022e-05
1.295855e+01	-2.871913e-05
1.303339e+01	-2.905185e-05
1.310867e+01	-2.938842e-05
1.318439e+01	-2.972889e-05
1.326054e+01	-3.007331e-05
1.333713e+01	-3.042172e-05
1.341417e+01	-3.077416e-05
1.349165e+01	-3.113068e-05
1.356958e+01	-3.149134e-05
1.364795e+01	-3.185618e-05
1.372678e+01	-3.222524e-05
1.380607e+01	-3.259857e-05
1.388581e+01	-3.297624e-05
1.396602e+01	-3.335827e-05
1.404668e+01	-3.374474e-05
1.412782e+01	-3.413568e-05
1.420942e+01	-3.453115e-05
1.429149e+01	-3.493120e-05
1.437404e+01	-3.533589e-05
1.445706e+01	-3.574526e-05
1.454057e+01	-3.615938e-05
1.462455e+01	-3.657829e-05
1.470902e+01	-3.700206e-05
1.479398e+01	-3.743074e-05
1.487943e+01	-3.786438e-05
1.496537e+01	-3.830305e-05
1.505181e+01	-3.874680e-05
1.513875e+01	-3.919569e-05
1.522619e+01	-3.964978e-05
1.531414e+01	-4.010913e-05
1.540259e+01	-4.057380e-05
1.549156e+01	-4.104386e-05
1.558103e+01	-4.151936e-05
1.567103e+01	-4.200037e-05
1.576155e+01	-4.248696e-05
1.585258e+01	-4.297918e-05
1.594415e+01	-4.347710e-05
1.603624e+01	-4.398079e-05
1.612886e+01	-4.449032e-05
1.622202e+01	-4.500575e-05
1.631572e+01	-4.552715e-05
1.640996e+01	-4.605459e-05
1.650474e+01	-4.658815e-05
1.660008e+01	-4.712788e-05
1.669596e+01	-4.767387e-05
1.679239e+01	-4.822618e-05
1.688938e+01	-4.878489e-05
1.698694e+01	-4.935007e-05
1.708505e+01	-4.992180e-05
1.718373e+01	-5.050016e-05
1.728299e+01	-5.108521e-05
1.738281e+01	-5.167705e-05
1.748322e+01	-5.227574e-05
1.758420e+01	-5.288136e-05
1.768576e+01	-5.349400e-05
1.778792e+01	-5.411374e-05
1.789066e+01	-5.474066e-05
1.799399e+01	-5.537484e-05
1.809793e+01	-5.601637e-05
1.820246e+01	-5.666533e-05
1.830760e+01	-5.732181e-05
1.841334e+01	-5.798590e-05
1.851969e+01	-5.865768e-05
1.862666e+01	-5.933724e-05
1.873425e+01	-6.002467e-05
1.884246e+01	-6.072007e-05
1.895129e+01	-6.142352e-05
1.906075e+01	-6.213513e-05
1.917085e+01	-6.285497e-05
1.928158e+01	-6.358316e-05
1.939295e+01	-6.431978e-05
1.950496e+01	-6.506494e-05
1.961762e+01	-6.581873e-05
1.973093e+01	-6.658125e-05
1.984490e+01	-6.735261e-05
1.995952e+01	-6.813290e-05
2.007480e+01	-6.892224e-05
2.019076e+01	-6.972071e-05
2.030738e+01	-7.052844e-05
2.042467e+01	-7.134552e-05
2.054264e+01	-7.217208e-05
2.066130e+01	-7.300820e-05
2.078064e+01	-7.385402e-05
2.090066e+01	-7.470963e-05
2.102139e+01	-7.557515e-05
2.114280e+01	-7.645070e-05
2.126492e+01	-7.733640e-05
2.138775e+01	-7.823235e-05
2.151128e+01	-7.913869e-05
2.163553e+01	-8.005553e-05
2.176050e+01	-8.098298e-05
2.188619e+01	-8.192118e-05
2.201260e+01	-8.287025e-05
2.213974e+01	-8.383032e-05
2.226762e+01	-8.480151e-05
2.239624e+01	-8.578395e-05
2.252560e+01	-8.677777e-05
2.265571e+01	-8.778310e-05
2.278656e+01	-8.880009e-05
2.291818e+01	-8.982885e-05
2.305055e+01	-9.086953e-05
2.318369e+01	-9.192227e-05
2.331760e+01	-9.298720e-05
2.345228e+01	-9.406447e-05
2.358774e+01	-9.515422e-05
2.372398e+01	-9.625660e-05
2.386101e+01	-9.737175e-05
2.399883e+01	-9.849981e-05
2.413745e+01	-9.964095e-05
2.427686e+01	-1.007953e-04
2.441709e+01	-1.019630e-04
2.455812e+01	-1.031443e-04
2.469997e+01	-1.043392e-04
2.484263e+01	-1.055480e-04
2.498612e+01	-1.067708e-04
2.513044e+01	-1.080078e-04
2.527559e+01	-1.092590e-04
2.542158e+01	-1.105248e-04
2.556842e+01	-1.118053e-04
2.571610e+01	-1.131005e-04
2.586463e+01	-1.144108e-04
2.601403e+01	-1.157363e-04
2.616428e+01	-1.170771e-04
2.631541e+01	-1.184335e-04
2.646740e+01	-1.198055e-04
2.662028e+01	-1.211935e-04
2.677404e+01	-1.225975e-04
2.692868e+01	-1.240178e-04
2.708422e+01	-1.254546e-04
2.724066e+01	-1.269080e-04
2.739800e+01	-1.283782e-04
2.755625e+01	-1.298655e-04
2.771541e+01	-1.313700e-04
2.787550e+01	-1.328920e-04
2.803650e+01	-1.344315e-04
2.819844e+01	-1.359889e-04
2.836131e+01	-1.375644e-04
2.852513e+01	-1.391581e-04
2.868989e+01	-1.407702e-04
2.885560e+01	-1.424011e-04
2.902227e+01	-1.440508e-04
2.918990e+01	-1.457196e-04
2.935850e+01	-1.474078e-04
2.952807e+01	-1.491155e-04
2.969863e+01	-1.508431e-04
2.987016e+01	-1.525906e-04
3.004269e+01	-1.543584e-04
3.021622e+01	-1.561466e-04
3.039075e+01	-1.579556e-04
3.056628e+01	-1.597855e-04
3.074283e+01	-1.616366e-04
3.092040e+01	-1.635092e-04
3.109900e+01	-1.654035e-04
3.127862e+01	-1.673197e-04
3.145929e+01	-1.692581e-04
3.164099e+01	-1.712189e-04
3.182375e+01	-1.732025e-04
3.200756e+01	-1.752091e-04
3.219244e+01	-1.772389e-04
3.237838e+01	-1.792922e-04
3.256540e+01	-1.813693e-04
3.275349e+01	-1.834705e-04
3.294268e+01	-1.855960e-04
3.313295e+01	-1.877461e-04
3.332433e+01	-1.899212e-04
3.351681e+01	-1.921214e-04
3.371040e+01	-1.943471e-04
3.390511e+01	-1.965987e-04
3.410094e+01	-1.988763e-04
3.429791e+01	-2.011802e-04
3.449601e+01	-2.035109e-04
3.469526e+01	-2.058686e-04
3.489566e+01	-2.082536e-04
3.509721e+01	-2.106662e-04
3.529993e+01	-2.131068e-04
3.550382e+01	-2.155756e-04
3.570889e+01	-2.180730e-04
3.591515e+01	-2.205994e-04
3.612259e+01	-2.231551e-04
3.633123e+01	-2.257403e-04
3.654108e+01	-2.283555e-04
3.675214e+01	-2.310010e-04
3.696442e+01	-2.336771e-04
3.717792e+01	-2.363843e-04
3.739266e+01	-2.391228e-04
3.760864e+01	-2.418930e-04
3.782587e+01	-2.446953e-04
3.804435e+01	-2.475301e-04
3.826409e+01	-2.503977e-04
3.848510e+01	-2.532986e-04
3.870739e+01	-2.562330e-04
3.893096e+01	-2.592014e-04
3.915583e+01	-2.622043e-04
3.938199e+01	-2.652419e-04
3.960946e+01	-2.683147e-04
3.983824e+01	-2.714231e-04
4.006834e+01	-2.745675e-04
4.029978e+01	-2.777484e-04
4.053255e+01	-2.809660e-04
4.076666e+01	-2.842210e-04
4.100213e+01	-2.875137e-04
4.123896e+01	-2.908445e-04
4.147715e+01	-2.942139e-04
4.171672e+01	-2.976223e-04
4.195767e+01	-3.010702e-04
4.220002e+01	-3.045581e-04
4.244377e+01	-3.080864e-04
4.268892e+01	-3.116555e-04
4.293549e+01	-3.152660e-04
4.318348e+01	-3.189183e-04
4.343291e+01	-3.226129e-04
4.368377e+01	-3.263503e-04
4.393609e+01	-3.301311e-04
4.418986e+01	-3.339556e-04
4.444510e+01	-3.378244e-04
4.470182e+01	-3.417380e-04
4.496001e+01	-3.456970e-04
4.521970e+01	-3.497018e-04
4.548089e+01	-3.537531e-04
4.574358e+01	-3.578512e-04
4.600779e+01	-3.619969e-04
4.627353e+01	-3.661905e-04
4.654081e+01	-3.704327e-04
4.680963e+01	-3.747241e-04
4.708000e+01	-3.790652e-04
4.735193e+01	-3.834566e-04
4.762543e+01	-3.878989e-04
4.790051e+01	-3.923926e-04
4.817719e+01	-3.969383e-04
4.845545e+01	-4.015368e-04
4.873533e+01	-4.061885e-04
4.901682e+01	-4.108940e-04
4.929994e+01	-4.156541e-04
4.958470e+01	-4.204694e-04
4.987110e+01	-4.253404e-04
5.015915e+01	-4.302678e-04
5.044887e+01	-4.352524e-04
5.074026e+01	-4.402946e-04
5.103333e+01	-4.453953e-04
5.132810e+01	-4.505550e-04
5.162457e+01	-4.557746e-04
5.192275e+01	-4.610546e-04
5.222265e+01	-4.663957e-04
5.252429e+01	-4.717988e-04
5.282767e+01	-4.772644e-04
5.313280e+01	-4.827933e-04
5.343969e+01	-4.883863e-04
5.374836e+01	-4.940441e-04
5.405880e+01	-4.997674e-04
5.437105e+01	-5.055570e-04
5.468509e+01	-5.114136e-04
5.500095e+01	-5.173382e-04
5.531863e+01	-5.233313e-04
5.563815e+01	-5.293939e-04
5.595951e+01	-5.355267e-04
5.628273e+01	-5.417305e-04
5.660782e+01	-5.480062e-04
5.693479e+01	-5.543546e-04
5.726364e+01	-5.607765e-04
5.759439e+01	-5.672729e-04
5.792705e+01	-5.738444e-04
5.826164e+01	-5.804921e-04
5.859815e+01	-5.872169e-04
5.893662e+01	-5.940195e-04
5.927703e+01	-6.009009e-04
5.961941e+01	-6.078620e-04
5.996377e+01	-6.149037e-04
6.031012e+01	-6.220270e-04
6.065847e+01	-6.292329e-04
6.100883e+01	-6.365222e-04
6.136121e+01	-6.438959e-04
6.171563e+01	-6.513551e-04
6.207210e+01	-6.589006e-04
6.243063e+01	-6.665336e-04
6.279122e+01	-6.742550e-04
6.315390e+01	-6.820658e-04
6.351868e+01	-6.899671e-04
6.388556e+01	-6.979599e-04
6.425456e+01	-7.060453e-04
6.462569e+01	-7.142243e-04
6.499897e+01	-7.224981e-04
6.537440e+01	-7.308678e-04
6.575200e+01	-7.393344e-04
6.613178e+01	-7.478990e-04
6.651375e+01	-7.565629e-04
6.689793e+01	-7.653271e-04
6.728433e+01	-7.741928e-04
6.767297e+01	-7.831612e-04
6.806384e+01	-7.922336e-04
6.845698e+01	-8.014109e-04
6.885238e+01	-8.106946e-04
6.925007e+01	-8.200859e-04
6.965005e+01	-8.295859e-04
7.005235e+01	-8.391959e-04
7.045697e+01	-8.489173e-04
7.086393e+01	-8.587513e-04
7.127323e+01	-8.686991e-04
7.168490e+01	-8.787622e-04
7.209895e+01	-8.889419e-04
7.251539e+01	-8.992395e-04
7.293424e+01	-9.096563e-04
7.335551e+01	-9.201938e-04
7.377920e+01	-9.308534e-04
7.420535e+01	-9.416364e-04
7.463396e+01	-9.525443e-04
7.506504e+01	-9.635786e-04
7.549861e+01	-9.747406e-04
7.593469e+01	-9.860320e-04
7.637328e+01	-9.974541e-04
7.681441e+01	-1.009009e-03
7.725809e+01	-1.020697e-03
7.770433e+01	-1.032520e-03
7.815315e+01	-1.044481e-03
7.860456e+01	-1.056580e-03
7.905857e+01	-1.068819e-03
7.951521e+01	-1.081200e-03
7.997449e+01	-1.093725e-03
8.043642e+01	-1.106394e-03
8.090102e+01	-1.119211e-03
8.136830e+01	-1.132175e-03
8.183828e+01	-1.145290e-03
8.231097e+01	-1.158557e-03
8.278640e+01	-1.171977e-03
8.326457e+01	-1.185553e-03
8.374550e+01	-1.199286e-03
8.422921e+01	-1.213178e-03
8.471572e+01	-1.227231e-03
8.520503e+01	-1.241447e-03
8.569717e+01	-1.255827e-03
8.619215e+01	-1.270374e-03
8.669000e+01	-1.285090e-03
8.719071e+01	-1.299976e-03
8.769432e+01	-1.315034e-03
8.820084e+01	-1.330267e-03
8.871029e+01	-1.345676e-03
8.922267e+01	-1.361263e-03
8.973802e+01	-1.377031e-03
9.025634e+01	-1.392982e-03
9.077766e+01	-1.409118e-03
9.130199e+01	-1.425440e-03
9.182935e+01	-1.441951e-03
9.235975e+01	-1.458654e-03
9.289321e+01	-1.475550e-03
9.342976e+01	-1.492642e-03
9.396941e+01	-1.509931e-03
9.451217e+01	-1.527421e-03
9.505807e+01	-1.545114e-03
9.560712e+01	-1.563011e-03
9.615934e+01	-1.581116e-03
9.671476e+01	-1.599430e-03
9.727338e+01	-1.617956e-03
9.783522e+01	-1.636697e-03
9.840032e+01	-1.655655e-03
9.896867e+01	-1.674833e-03
9.954031e+01	-1.694232e-03
1.001153e+02	-1.713856e-03
1.006935e+02	-1.733708e-03
1.012751e+02	-1.753789e-03
1.018601e+02	-1.774103e-03
1.024484e+02	-1.794653e-03
1.030402e+02	-1.815440e-03
1.036353e+02	-1.836468e-03
1.042339e+02	-1.857739e-03
1.048360e+02	-1.879257e-03
1.054415e+02	-1.901024e-03
1.060505e+02	-1.923043e-03
1.066631e+02	-1.945317e-03
1.072791e+02	-1.967849e-03
1.078988e+02	-1.990641e-03
1.085220e+02	-2.013698e-03
1.091488e+02	-2.037022e-03
1.097793e+02	-2.060616e-03
1.104133e+02	-2.084483e-03
1.110511e+02	-2.108626e-03
1.116925e+02	-2.133049e-03
1.123376e+02	-2.157755e-03
1.129865e+02	-2.182747e-03
1.136391e+02	-2.208028e-03
1.142955e+02	-2.233602e-03
1.149556e+02	-2.259472e-03
1.156196e+02	-2.285642e-03
1.162874e+02	-2.312115e-03
1.169591e+02	-2.338894e-03
1.176347e+02	-2.365983e-03
1.183141e+02	-2.393386e-03
1.189975e+02	-2.421107e-03
1.196848e+02	-2.449148e-03
1.203761e+02	-2.477514e-03
1.210714e+02	-2.506208e-03
1.217707e+02	-2.535235e-03
1.224740e+02	-2.564597e-03
1.231814e+02	-2.594300e-03
1.238929e+02	-2.624347e-03
1.246085e+02	-2.654741e-03
1.253283e+02	-2.685487e-03
1.260522e+02	-2.716590e-03
1.267802e+02	-2.748052e-03
1.275125e+02	-2.779879e-03
1.282490e+02	-2.812074e-03
1.289898e+02	-2.844642e-03
1.297348e+02	-2.877587e-03
1.304842e+02	-2.910913e-03
1.312378e+02	-2.944626e-03
1.319959e+02	-2.978728e-03
1.327583e+02	-3.013226e-03
1.335251e+02	-3.048122e-03
1.342963e+02	-3.083423e-03
1.350720e+02	-3.119132e-03
1.358522e+02	-3.155255e-03
1.366368e+02	-3.191796e-03
1.374260e+02	-3.228760e-03
1.382198e+02	-3.266152e-03
1.390182e+02	-3.303977e-03
1.398211e+02	-3.342240e-03
1.406287e+02	-3.380945e-03
1.414410e+02	-3.420099e-03
1.422579e+02	-3.459706e-03
1.430796e+02	-3.499771e-03
1.439060e+02	-3.540301e-03
1.447372e+02	-3.581299e-03
1.455732e+02	-3.622772e-03
1.464141e+02	-3.664725e-03
1.472597e+02	-3.707164e-03
1.481103e+02	-3.750093e-03
1.489658e+02	-3.793520e-03
1.498262e+02	-3.837450e-03
1.506916e+02	-3.881888e-03
1.515620e+02	-3.926840e-03
1.524374e+02	-3.972313e-03
1.533179e+02	-4.018311e-03
1.542034e+02	-4.064843e-03
1.550941e+02	-4.111913e-03
1.559899e+02	-4.159527e-03
1.568909e+02	-4.207693e-03
1.577971e+02	-4.256417e-03
1.587085e+02	-4.305704e-03
1.596252e+02	-4.355561e-03
1.605472e+02	-4.405996e-03
1.614745e+02	-4.457014e-03
1.624072e+02	-4.508623e-03
1.633453e+02	-4.560829e-03
1.642887e+02	-4.613640e-03
1.652377e+02	-4.667061e-03
1.661921e+02	-4.721101e-03
1.671520e+02	-4.775766e-03
1.681175e+02	-4.831063e-03
1.690885e+02	-4.887001e-03
1.700651e+02	-4.943586e-03
1.710474e+02	-5.000825e-03
1.720354e+02	-5.058727e-03
1.730291e+02	-5.117299e-03
1.740285e+02	-5.176549e-03
1.750337e+02	-5.236485e-03
1.760446e+02	-5.297114e-03
1.770615e+02	-5.358444e-03
1.780842e+02	-5.420484e-03
1.791128e+02	-5.483242e-03
1.801473e+02	-5.546726e-03
1.811878e+02	-5.610945e-03
1.822344e+02	-5.675906e-03
1.832870e+02	-5.741620e-03
1.843456e+02	-5.808093e-03
1.854104e+02	-5.875336e-03
1.864813e+02	-5.943356e-03
1.875584e+02	-6.012164e-03
1.886418e+02	-6.081768e-03
1.897313e+02	-6.152176e-03
1.908272e+02	-6.223400e-03
1.919294e+02	-6.295447e-03
1.930380e+02	-6.368328e-03
1.941530e+02	-6.442051e-03
1.952744e+02	-6.516628e-03
1.964023e+02	-6.592067e-03
1.975367e+02	-6.668379e-03
1.986777e+02	-6.745574e-03
1.998252e+02	-6.823662e-03
2.009794e+02	-6.902653e-03
2.021403e+02	-6.982557e-03
2.033078e+02	-7.063386e-03
2.044821e+02	-7.145150e-03
2.056632e+02	-7.227859e-03
2.068511e+02	-7.311525e-03
2.080459e+02	-7.396158e-03
2.092475e+02	-7.481771e-03
2.104561e+02	-7.568373e-03
2.116717e+02	-7.655977e-03
2.128943e+02	-7.744594e-03
2.141240e+02	-7.834236e-03
2.153608e+02	-7.924915e-03
2.166047e+02	-8.016642e-03
2.178558e+02	-8.109430e-03
2.191141e+02	-8.203290e-03
2.203797e+02	-8.298237e-03
2.216526e+02	-8.394281e-03
2.229329e+02	-8.491435e-03
2.242205e+02	-8.589713e-03
2.255156e+02	-8.689127e-03
2.268182e+02	-8.789691e-03
2.281283e+02	-8.891417e-03
2.294459e+02	-8.994319e-03
2.307712e+02	-9.098411e-03
2.321041e+02	-9.203706e-03
2.334447e+02	-9.310219e-03
2.347931e+02	-9.417963e-03
2.361493e+02	-9.526952e-03
2.375133e+02	-9.637202e-03
2.388851e+02	-9.748725e-03
2.402649e+02	-9.861538e-03
2.416527e+02	-9.975655e-03
2.430484e+02	-1.009109e-02
2.444523e+02	-1.020786e-02
2.458642e+02	-1.032598e-02
2.472843e+02	-1.044546e-02
2.487126e+02	-1.056633e-02
2.501492e+02	-1.068859e-02
2.515940e+02	-1.081227e-02
2.530472e+02	-1.093737e-02
2.545088e+02	-1.106392e-02
2.559789e+02	-1.119194e-02
2.574574e+02	-1.132143e-02
2.589444e+02	-1.145242e-02
2.604401e+02	-1.158492e-02
2.619444e+02	-1.171895e-02
2.634574e+02	-1.185453e-02
2.649791e+02	-1.199168e-02
2.665096e+02	-1.213041e-02
2.680489e+02	-1.227074e-02
2.695972e+02	-1.241270e-02
2.711544e+02	-1.255630e-02
2.727205e+02	-1.270155e-02
2.742958e+02	-1.284848e-02
2.758801e+02	-1.299711e-02
2.774736e+02	-1.314746e-02
2.790762e+02	-1.329954e-02
2.806882e+02	-1.345338e-02
2.823094e+02	-1.360900e-02
2.839400e+02	-1.376641e-02
2.855800e+02	-1.392564e-02
2.872295e+02	-1.408671e-02
2.888886e+02	-1.424964e-02
2.905572e+02	-1.441445e-02
2.922354e+02	-1.458116e-02
2.939234e+02	-1.474980e-02
2.956211e+02	-1.492039e-02
2.973286e+02	-1.509294e-02
2.990459e+02	-1.526749e-02
3.007732e+02	-1.544405e-02
3.025104e+02	-1.562265e-02
3.042577e+02	-1.580331e-02
3.060151e+02	-1.598606e-02
3.077826e+02	-1.617092e-02
3.095604e+02	-1.635791e-02
3.113484e+02	-1.654705e-02
3.131467e+02	-1.673839e-02
3.149554e+02	-1.693192e-02
3.167746e+02	-1.712770e-02
3.186043e+02	-1.732573e-02
3.204445e+02	-1.752605e-02
3.222954e+02	-1.772867e-02
3.241570e+02	-1.793364e-02
3.260293e+02	-1.814097e-02
3.279124e+02	-1.835069e-02
3.298064e+02	-1.856283e-02
3.317114e+02	-1.877742e-02
3.336273e+02	-1.899448e-02
3.355544e+02	-1.921405e-02
3.374925e+02	-1.943615e-02
3.394418e+02	-1.966081e-02
3.414024e+02	-1.988806e-02
3.433744e+02	-2.011794e-02
3.453577e+02	-2.035046e-02
3.473525e+02	-2.058567e-02
3.493588e+02	-2.082358e-02
3.513766e+02	-2.106424e-02
3.534062e+02	-2.130767e-02
3.554474e+02	-2.155391e-02
3.575005e+02	-2.180299e-02
3.595654e+02	-2.205494e-02
3.616422e+02	-2.230980e-02
3.637311e+02	-2.256759e-02
3.658320e+02	-2.282835e-02
3.679450e+02	-2.309212e-02
3.700702e+02	-2.335892e-02
3.722077e+02	-2.362880e-02
3.743576e+02	-2.390179e-02
3.765199e+02	-2.417793e-02
3.786946e+02	-2.445724e-02
3.808820e+02	-2.473978e-02
3.830819e+02	-2.502556e-02
3.852946e+02	-2.531464e-02
3.875200e+02	-2.560705e-02
3.897583e+02	-2.590283e-02
3.920096e+02	-2.620201e-02
3.942738e+02	-2.650464e-02
3.965511e+02	-2.681075e-02
3.988416e+02	-2.712039e-02
4.011452e+02	-2.743359e-02
4.034622e+02	-2.775039e-02
4.057926e+02	-2.807085e-02
4.081365e+02	-2.839499e-02
4.104938e+02	-2.872286e-02
4.128648e+02	-2.905451e-02
4.152495e+02	-2.938997e-02
4.176480e+02	-2.972929e-02
4.200603e+02	-3.007251e-02
4.224866e+02	-3.041969e-02
4.249268e+02	-3.077085e-02
4.273812e+02	-3.112606e-02
4.298497e+02	-3.148535e-02
4.323325e+02	-3.184878e-02
4.348297e+02	-3.221638e-02
4.373412e+02	-3.258821e-02
4.398673e+02	-3.296432e-02
4.424079e+02	-3.334475e-02
4.449633e+02	-3.372955e-02
4.475334e+02	-3.411877e-02
4.501183e+02	-3.451247e-02
4.527182e+02	-3.491070e-02
4.553330e+02	-3.531350e-02
4.579630e+02	-3.572093e-02
4.606082e+02	-3.613304e-02
4.632687e+02	-3.654988e-02
4.659445e+02	-3.697151e-02
4.686358e+02	-3.739799e-02
4.713426e+02	-3.782936e-02
4.740650e+02	-3.826569e-02
4.768032e+02	-3.870702e-02
4.795572e+02	-3.915343e-02
4.823271e+02	-3.960496e-02
4.851130e+02	-4.006167e-02
4.879150e+02	-4.052362e-02
4.907332e+02	-4.099088e-02
4.935676e+02	-4.146349e-02
4.964185e+02	-4.194153e-02
4.992858e+02	-4.242506e-02
5.021696e+02	-4.291413e-02
5.050701e+02	-4.340881e-02
5.079874e+02	-4.390916e-02
5.109215e+02	-4.441525e-02
5.138726e+02	-4.492715e-02
5.168407e+02	-4.544491e-02
5.198259e+02	-4.596861e-02
5.228284e+02	-4.649831e-02
5.258482e+02	-4.703408e-02
5.288855e+02	-4.757599e-02
5.319403e+02	-4.812411e-02
5.350128e+02	-4.867851e-02
5.381030e+02	-4.923926e-02
5.412111e+02	-4.980643e-02
5.443371e+02	-5.038010e-02
5.474812e+02	-5.096034e-02
5.506434e+02	-5.154721e-02
5.538239e+02	-5.214081e-02
5.570228e+02	-5.274120e-02
5.602401e+02	-5.334846e-02
5.634760e+02	-5.396267e-02
5.667306e+02	-5.458391e-02
5.700040e+02	-5.521225e-02
5.732964e+02	-5.584778e-02
5.766077e+02	-5.649057e-02
5.799382e+02	-5.714072e-02
5.832879e+02	-5.779830e-02
5.866569e+02	-5.846339e-02
5.900454e+02	-5.913609e-02
5.934535e+02	-5.981647e-02
5.968813e+02	-6.050463e-02
6.003288e+02	-6.120064e-02
6.037963e+02	-6.190461e-02
6.072838e+02	-6.261661e-02
6.107914e+02	-6.333675e-02
6.143194e+02	-6.406510e-02
6.178676e+02	-6.480177e-02
6.214364e+02	-6.554685e-02
6.250258e+02	-6.630042e-02
6.286359e+02	-6.706259e-02
6.322669e+02	-6.783346e-02
6.359189e+02	-6.861312e-02
6.395919e+02	-6.940166e-02
6.432862e+02	-7.019920e-02
6.470017e+02	-7.100582e-02
6.507388e+02	-7.182163e-02
6.544974e+02	-7.264675e-02
6.582778e+02	-7.348125e-02
6.620800e+02	-7.432527e-02
6.659041e+02	-7.517889e-02
6.697504e+02	-7.604223e-02
6.736188e+02	-7.691540e-02
6.775096e+02	-7.779850e-02
6.814229e+02	-7.869165e-02
6.853587e+02	-7.959496e-02
6.893173e+02	-8.050854e-02
6.932988e+02	-8.143251e-02
6.973033e+02	-8.236699e-02
7.013309e+02	-8.331208e-02
