Frequency(Hz)	Magnitude(dB)
1.000000e+01	-1.988420e+00
1.005776e+01	-2.006675e+00
1.011585e+01	-2.025464e+00
1.017428e+01	-2.044019e+00
1.023305e+01	-2.063033e+00
1.029215e+01	-2.081853e+00
1.035160e+01	-2.101127e+00
1.041139e+01	-2.120167e+00
1.047153e+01	-2.139807e+00
1.053201e+01	-2.158955e+00
1.059284e+01	-2.178785e+00
1.065403e+01	-2.198783e+00
1.071556e+01	-2.218611e+00
1.077746e+01	-2.238782e+00
1.083971e+01	-2.258932e+00
1.090232e+01	-2.279222e+00
1.096529e+01	-2.299667e+00
1.102862e+01	-2.320521e+00
1.109232e+01	-2.341100e+00
1.115639e+01	-2.362277e+00
1.122083e+01	-2.383227e+00
1.128564e+01	-2.404304e+00
1.135083e+01	-2.425670e+00
1.141639e+01	-2.447316e+00
1.148233e+01	-2.468709e+00
1.154865e+01	-2.490565e+00
1.161536e+01	-2.512374e+00
1.168245e+01	-2.534690e+00
1.174992e+01	-2.556949e+00
1.181779e+01	-2.579036e+00
1.188605e+01	-2.601447e+00
1.195470e+01	-2.624183e+00
1.202375e+01	-2.646926e+00
1.209320e+01	-2.669825e+00
1.216305e+01	-2.692775e+00
1.223330e+01	-2.715868e+00
1.230396e+01	-2.739327e+00
1.237503e+01	-2.762822e+00
1.244651e+01	-2.786313e+00
1.251840e+01	-2.810186e+00
1.259070e+01	-2.834204e+00
1.266343e+01	-2.858328e+00
1.273657e+01	-2.882281e+00
1.281014e+01	-2.906556e+00
1.288413e+01	-2.931198e+00
1.295855e+01	-2.955718e+00
1.303339e+01	-2.980476e+00
1.310867e+01	-3.005715e+00
1.318439e+01	-3.030471e+00
1.326054e+01	-3.055738e+00
1.333713e+01	-3.080955e+00
1.341417e+01	-3.106448e+00
1.349165e+01	-3.132156e+00
1.356958e+01	-3.157983e+00
1.364795e+01	-3.184005e+00
1.372678e+01	-3.210036e+00
1.380607e+01	-3.235939e+00
1.388581e+01	-3.262405e+00
1.396602e+01	-3.289225e+00
1.404668e+01	-3.315739e+00
1.412782e+01	-3.342545e+00
1.420942e+01	-3.369143e+00
1.429149e+01	-3.396432e+00
1.437404e+01	-3.423594e+00
1.445706e+01	-3.450992e+00
1.454057e+01	-3.478114e+00
1.462455e+01	-3.506085e+00
1.470902e+01	-3.533863e+00
1.479398e+01	-3.561974e+00
1.487943e+01	-3.589930e+00
1.496537e+01	-3.617903e+00
1.505181e+01	-3.646599e+00
1.513875e+01	-3.674883e+00
1.522619e+01	-3.703579e+00
1.531414e+01	-3.732418e+00
1.540259e+01	-3.761095e+00
1.549156e+01	-3.790433e+00
1.558103e+01	-3.819473e+00
1.567103e+01	-3.848789e+00
1.576155e+01	-3.878355e+00
1.585258e+01	-3.907999e+00
1.594415e+01	-3.937717e+00
1.603624e+01	-3.967796e+00
1.612886e+01	-3.997628e+00
1.622202e+01	-4.027774e+00
1.631572e+01	-4.057931e+00
1.640996e+01	-4.088391e+00
1.650474e+01	-4.118976e+00
1.660008e+01	-4.149851e+00
1.669596e+01	-4.180676e+00
1.679239e+01	-4.211567e+00
1.688938e+01	-4.242794e+00
1.698694e+01	-4.273913e+00
1.708505e+01	-4.305580e+00
1.718373e+01	-4.336832e+00
1.728299e+01	-4.368771e+00
1.738281e+01	-4.400466e+00
1.748322e+01	-4.432421e+00
1.758420e+01	-4.464498e+00
1.768576e+01	-4.496759e+00
1.778792e+01	-4.529111e+00
1.789066e+01	-4.561615e+00
1.799399e+01	-4.594197e+00
1.809793e+01	-4.626517e+00
1.820246e+01	-4.659448e+00
1.830760e+01	-4.692715e+00
1.841334e+01	-4.725810e+00
1.851969e+01	-4.758970e+00
1.862666e+01	-4.792105e+00
1.873425e+01	-4.825499e+00
1.884246e+01	-4.859414e+00
1.895129e+01	-4.893044e+00
1.906075e+01	-4.927022e+00
1.917085e+01	-4.961080e+00
1.928158e+01	-4.995237e+00
1.939295e+01	-5.029407e+00
1.950496e+01	-5.063785e+00
1.961762e+01	-5.098076e+00
1.973093e+01	-5.132837e+00
1.984490e+01	-5.167315e+00
1.995952e+01	-5.202329e+00
2.007480e+01	-5.237405e+00
2.019076e+01	-5.272455e+00
2.030738e+01	-5.307768e+00
2.042467e+01	-5.343255e+00
2.054264e+01	-5.378549e+00
2.066130e+01	-5.414475e+00
2.078064e+01	-5.450109e+00
2.090066e+01	-5.485682e+00
2.102139e+01	-5.521911e+00
2.114280e+01	-5.557611e+00
2.126492e+01	-5.594102e+00
2.138775e+01	-5.630450e+00
2.151128e+01	-5.666597e+00
2.163553e+01	-5.703021e+00
2.176050e+01	-5.739665e+00
2.188619e+01	-5.776255e+00
2.201260e+01	-5.813496e+00
2.213974e+01	-5.850773e+00
2.226762e+01	-5.887785e+00
2.239624e+01	-5.924307e+00
2.252560e+01	-5.961791e+00
2.265571e+01	-5.999044e+00
2.278656e+01	-6.036685e+00
2.291818e+01	-6.074383e+00
2.305055e+01	-6.112317e+00
2.318369e+01	-6.149929e+00
2.331760e+01	-6.188112e+00
2.345228e+01	-6.225895e+00
2.358774e+01	-6.263893e+00
2.372398e+01	-6.302452e+00
2.386101e+01	-6.340597e+00
2.399883e+01	-6.379209e+00
2.413745e+01	-6.417781e+00
2.427686e+01	-6.456351e+00
2.441709e+01	-6.495131e+00
2.455812e+01	-6.534014e+00
2.469997e+01	-6.572672e+00
2.484263e+01	-6.612010e+00
2.498612e+01	-6.651450e+00
2.513044e+01	-6.690415e+00
2.527559e+01	-6.729609e+00
2.542158e+01	-6.769216e+00
2.556842e+01	-6.808741e+00
2.571610e+01	-6.848688e+00
2.586463e+01	-6.888329e+00
2.601403e+01	-6.928268e+00
2.616428e+01	-6.967933e+00
2.631541e+01	-7.007831e+00
2.646740e+01	-7.048039e+00
2.662028e+01	-7.088447e+00
2.677404e+01	-7.128664e+00
2.692868e+01	-7.168926e+00
2.708422e+01	-7.209729e+00
2.724066e+01	-7.250114e+00
2.739800e+01	-7.290677e+00
2.755625e+01	-7.331488e+00
2.771541e+01	-7.372177e+00
2.787550e+01	-7.412679e+00
2.803650e+01	-7.453757e+00
2.819844e+01	-7.495218e+00
2.836131e+01	-7.536585e+00
2.852513e+01	-7.577260e+00
2.868989e+01	-7.618928e+00
2.885560e+01	-7.660073e+00
2.902227e+01	-7.701720e+00
2.918990e+01	-7.743456e+00
2.935850e+01	-7.784710e+00
2.952807e+01	-7.826749e+00
2.969863e+01	-7.868503e+00
2.987016e+01	-7.910518e+00
3.004269e+01	-7.952431e+00
3.021622e+01	-7.994034e+00
3.039075e+01	-8.036567e+00
3.056628e+01	-8.078838e+00
3.074283e+01	-8.121026e+00
3.092040e+01	-8.163635e+00
3.109900e+01	-8.206065e+00
3.127862e+01	-8.248133e+00
3.145929e+01	-8.290628e+00
3.164099e+01	-8.333399e+00
3.182375e+01	-8.376468e+00
3.200756e+01	-8.419559e+00
3.219244e+01	-8.461770e+00
3.237838e+01	-8.504738e+00
3.256540e+01	-8.547518e+00
3.275349e+01	-8.590977e+00
3.294268e+01	-8.634324e+00
3.313295e+01	-8.677118e+00
3.332433e+01	-8.720454e+00
3.351681e+01	-8.763734e+00
3.371040e+01	-8.807470e+00
3.390511e+01	-8.850986e+00
3.410094e+01	-8.894357e+00
3.429791e+01	-8.937803e+00
3.449601e+01	-8.981401e+00
3.469526e+01	-9.025264e+00
3.489566e+01	-9.068711e+00
3.509721e+01	-9.113132e+00
3.529993e+01	-9.157355e+00
3.550382e+01	-9.200953e+00
3.570889e+01	-9.245059e+00
3.591515e+01	-9.289114e+00
3.612259e+01	-9.333376e+00
3.633123e+01	-9.377377e+00
3.654108e+01	-9.421792e+00
3.675214e+01	-9.465849e+00
3.696442e+01	-9.510361e+00
3.717792e+01	-9.554989e+00
3.739266e+01	-9.599042e+00
3.760864e+01	-9.644199e+00
3.782587e+01	-9.688410e+00
3.804435e+01	-9.733390e+00
3.826409e+01	-9.778085e+00
3.848510e+01	-9.823288e+00
3.870739e+01	-9.867662e+00
3.893096e+01	-9.912906e+00
3.915583e+01	-9.957514e+00
3.938199e+01	-1.000248e+01
3.960946e+01	-1.004751e+01
3.983824e+01	-1.009231e+01
4.006834e+01	-1.013792e+01
4.029978e+01	-1.018330e+01
4.053255e+01	-1.022798e+01
4.076666e+01	-1.027359e+01
4.100213e+01	-1.031875e+01
4.123896e+01	-1.036417e+01
4.147715e+01	-1.040997e+01
4.171672e+01	-1.045560e+01
4.195767e+01	-1.050106e+01
4.220002e+01	-1.054594e+01
4.244377e+01	-1.059259e+01
4.268892e+01	-1.063681e+01
4.293549e+01	-1.068359e+01
4.318348e+01	-1.072902e+01
4.343291e+01	-1.077483e+01
4.368377e+01	-1.082030e+01
4.393609e+01	-1.086668e+01
4.418986e+01	-1.091295e+01
4.444510e+01	-1.095888e+01
4.470182e+01	-1.100464e+01
4.496001e+01	-1.105083e+01
4.521970e+01	-1.109682e+01
4.548089e+01	-1.114348e+01
4.574358e+01	-1.118920e+01
4.600779e+01	-1.123587e+01
4.627353e+01	-1.128178e+01
4.654081e+01	-1.132793e+01
4.680963e+01	-1.137434e+01
4.708000e+01	-1.142068e+01
4.735193e+01	-1.146764e+01
4.762543e+01	-1.151396e+01
4.790051e+01	-1.156015e+01
4.817719e+01	-1.160720e+01
4.845545e+01	-1.165398e+01
4.873533e+01	-1.170020e+01
4.901682e+01	-1.174693e+01
4.929994e+01	-1.179361e+01
4.958470e+01	-1.184070e+01
4.987110e+01	-1.188669e+01
5.015915e+01	-1.193341e+01
5.044887e+01	-1.198077e+01
5.074026e+01	-1.202757e+01
5.103333e+01	-1.207393e+01
5.132810e+01	-1.212155e+01
5.162457e+01	-1.216833e+01
5.192275e+01	-1.221515e+01
5.222265e+01	-1.226207e+01
5.252429e+01	-1.230951e+01
5.282767e+01	-1.235714e+01
5.313280e+01	-1.240407e+01
5.343969e+01	-1.245055e+01
5.374836e+01	-1.249824e+01
5.405880e+01	-1.254508e+01
5.437105e+01	-1.259283e+01
5.468509e+01	-1.263985e+01
5.500095e+01	-1.268725e+01
5.531863e+01	-1.273482e+01
5.563815e+01	-1.278141e+01
5.595951e+01	-1.282938e+01
5.628273e+01	-1.287635e+01
5.660782e+01	-1.292367e+01
5.693479e+01	-1.297151e+01
5.726364e+01	-1.301941e+01
5.759439e+01	-1.306656e+01
5.792705e+01	-1.311416e+01
5.826164e+01	-1.316204e+01
5.859815e+01	-1.320951e+01
5.893662e+01	-1.325694e+01
5.927703e+01	-1.330453e+01
5.961941e+01	-1.335296e+01
5.996377e+01	-1.340011e+01
6.031012e+01	-1.344843e+01
6.065847e+01	-1.349579e+01
6.100883e+01	-1.354325e+01
6.136121e+01	-1.359126e+01
6.171563e+01	-1.363920e+01
6.207210e+01	-1.368689e+01
6.243063e+01	-1.373483e+01
6.279122e+01	-1.378351e+01
6.315390e+01	-1.383093e+01
6.351868e+01	-1.387865e+01
6.388556e+01	-1.392653e+01
6.425456e+01	-1.397554e+01
6.462569e+01	-1.402305e+01
6.499897e+01	-1.407109e+01
6.537440e+01	-1.411878e+01
6.575200e+01	-1.416819e+01
6.613178e+01	-1.421503e+01
6.651375e+01	-1.426400e+01
6.689793e+01	-1.431156e+01
6.728433e+01	-1.435971e+01
6.767297e+01	-1.440756e+01
6.806384e+01	-1.445591e+01
6.845698e+01	-1.450453e+01
6.885238e+01	-1.455263e+01
6.925007e+01	-1.460173e+01
6.965005e+01	-1.464884e+01
7.005235e+01	-1.469734e+01
7.045697e+01	-1.474548e+01
7.086393e+01	-1.479446e+01
7.127323e+01	-1.484273e+01
7.168490e+01	-1.489168e+01
7.209895e+01	-1.493994e+01
7.251539e+01	-1.498858e+01
7.293424e+01	-1.503580e+01
7.335551e+01	-1.508462e+01
7.377920e+01	-1.513330e+01
7.420535e+01	-1.518142e+01
7.463396e+01	-1.523087e+01
7.506504e+01	-1.527853e+01
7.549861e+01	-1.532815e+01
7.593469e+01	-1.537636e+01
7.637328e+01	-1.542519e+01
7.681441e+01	-1.547418e+01
7.725809e+01	-1.552239e+01
7.770433e+01	-1.557065e+01
7.815315e+01	-1.561983e+01
7.860456e+01	-1.566849e+01
7.905857e+01	-1.571681e+01
7.951521e+01	-1.576592e+01
7.997449e+01	-1.581480e+01
8.043642e+01	-1.586299e+01
8.090102e+01	-1.591145e+01
8.136830e+01	-1.596019e+01
8.183828e+01	-1.600930e+01
8.231097e+01	-1.605801e+01
8.278640e+01	-1.610564e+01
8.326457e+01	-1.615445e+01
8.374550e+01	-1.620413e+01
8.422921e+01	-1.625309e+01
8.471572e+01	-1.630163e+01
8.520503e+01	-1.635105e+01
8.569717e+01	-1.640081e+01
8.619215e+01	-1.644789e+01
8.669000e+01	-1.649793e+01
8.719071e+01	-1.654633e+01
8.769432e+01	-1.659534e+01
8.820084e+01	-1.664446e+01
8.871029e+01	-1.669285e+01
8.922267e+01	-1.674189e+01
8.973802e+01	-1.679098e+01
9.025634e+01	-1.684045e+01
9.077766e+01	-1.688915e+01
9.130199e+01	-1.693836e+01
9.182935e+01	-1.698592e+01
9.235975e+01	-1.703609e+01
9.289321e+01	-1.708444e+01
9.342976e+01	-1.713385e+01
9.396941e+01	-1.718393e+01
9.451217e+01	-1.723119e+01
9.505807e+01	-1.728022e+01
9.560712e+01	-1.733079e+01
9.615934e+01	-1.738016e+01
9.671476e+01	-1.742782e+01
9.727338e+01	-1.747778e+01
9.783522e+01	-1.752669e+01
9.840032e+01	-1.757505e+01
9.896867e+01	-1.762568e+01
9.954031e+01	-1.767435e+01
1.001153e+02	-1.772443e+01
1.006935e+02	-1.777314e+01
1.012751e+02	-1.782248e+01
1.018601e+02	-1.787098e+01
1.024484e+02	-1.792042e+01
1.030402e+02	-1.796988e+01
1.036353e+02	-1.801975e+01
1.042339e+02	-1.806761e+01
1.048360e+02	-1.811859e+01
1.054415e+02	-1.816660e+01
1.060505e+02	-1.821489e+01
1.066631e+02	-1.826580e+01
1.072791e+02	-1.831483e+01
1.078988e+02	-1.836325e+01
1.085220e+02	-1.841373e+01
1.091488e+02	-1.846243e+01
1.097793e+02	-1.851247e+01
1.104133e+02	-1.856182e+01
1.110511e+02	-1.861071e+01
1.116925e+02	-1.865988e+01
1.123376e+02	-1.870954e+01
1.129865e+02	-1.875899e+01
1.136391e+02	-1.880773e+01
1.142955e+02	-1.885578e+01
1.149556e+02	-1.890789e+01
1.156196e+02	-1.895591e+01
1.162874e+02	-1.900629e+01
1.169591e+02	-1.905553e+01
1.176347e+02	-1.910553e+01
1.183141e+02	-1.915577e+01
1.189975e+02	-1.920320e+01
1.196848e+02	-1.925351e+01
1.203761e+02	-1.930263e+01
1.210714e+02	-1.935195e+01
1.217707e+02	-1.940021e+01
1.224740e+02	-1.945000e+01
1.231814e+02	-1.949928e+01
1.238929e+02	-1.954880e+01
1.246085e+02	-1.959860e+01
1.253283e+02	-1.964882e+01
1.260522e+02	-1.969774e+01
1.267802e+02	-1.974948e+01
1.275125e+02	-1.979732e+01
1.282490e+02	-1.984525e+01
1.289898e+02	-1.989716e+01
1.297348e+02	-1.994575e+01
1.304842e+02	-1.999460e+01
1.312378e+02	-2.004461e+01
1.319959e+02	-2.009380e+01
1.327583e+02	-2.014353e+01
1.335251e+02	-2.019477e+01
1.342963e+02	-2.024326e+01
1.350720e+02	-2.029312e+01
1.358522e+02	-2.034188e+01
1.366368e+02	-2.039275e+01
1.374260e+02	-2.044018e+01
1.382198e+02	-2.049002e+01
1.390182e+02	-2.054138e+01
1.398211e+02	-2.059057e+01
1.406287e+02	-2.063937e+01
1.414410e+02	-2.068781e+01
1.422579e+02	-2.073994e+01
1.430796e+02	-2.078843e+01
1.439060e+02	-2.083677e+01
1.447372e+02	-2.088827e+01
1.455732e+02	-2.093619e+01
1.464141e+02	-2.098604e+01
1.472597e+02	-2.103842e+01
1.481103e+02	-2.108794e+01
1.489658e+02	-2.113733e+01
1.498262e+02	-2.118518e+01
1.506916e+02	-2.123533e+01
1.515620e+02	-2.128476e+01
1.524374e+02	-2.133720e+01
1.533179e+02	-2.138383e+01
1.542034e+02	-2.143346e+01
1.550941e+02	-2.148468e+01
1.559899e+02	-2.153203e+01
1.568909e+02	-2.158291e+01
1.577971e+02	-2.163289e+01
1.587085e+02	-2.168200e+01
1.596252e+02	-2.173173e+01
1.605472e+02	-2.178274e+01
1.614745e+02	-2.182972e+01
1.624072e+02	-2.188178e+01
1.633453e+02	-2.193104e+01
1.642887e+02	-2.198071e+01
1.652377e+02	-2.203071e+01
1.661921e+02	-2.207985e+01
1.671520e+02	-2.213052e+01
1.681175e+02	-2.218003e+01
1.690885e+02	-2.222840e+01
1.700651e+02	-2.228050e+01
1.710474e+02	-2.233170e+01
1.720354e+02	-2.237603e+01
1.730291e+02	-2.242880e+01
1.740285e+02	-2.247741e+01
1.750337e+02	-2.252920e+01
1.760446e+02	-2.257873e+01
1.770615e+02	-2.262886e+01
1.780842e+02	-2.267546e+01
1.791128e+02	-2.272649e+01
1.801473e+02	-2.277716e+01
1.811878e+02	-2.282732e+01
1.822344e+02	-2.287717e+01
1.832870e+02	-2.292666e+01
1.843456e+02	-2.297536e+01
1.854104e+02	-2.302543e+01
1.864813e+02	-2.307508e+01
1.875584e+02	-2.312384e+01
1.886418e+02	-2.317583e+01
1.897313e+02	-2.322574e+01
1.908272e+02	-2.327334e+01
1.919294e+02	-2.332469e+01
1.930380e+02	-2.337384e+01
1.941530e+02	-2.342411e+01
1.952744e+02	-2.347215e+01
1.964023e+02	-2.352427e+01
1.975367e+02	-2.357709e+01
1.986777e+02	-2.362422e+01
1.998252e+02	-2.367279e+01
2.009794e+02	-2.372354e+01
2.021403e+02	-2.377250e+01
2.033078e+02	-2.382393e+01
2.044821e+02	-2.387293e+01
2.056632e+02	-2.392055e+01
2.068511e+02	-2.397171e+01
2.080459e+02	-2.402323e+01
2.092475e+02	-2.407163e+01
2.104561e+02	-2.412338e+01
2.116717e+02	-2.417020e+01
2.128943e+02	-2.422018e+01
2.141240e+02	-2.427103e+01
2.153608e+02	-2.432206e+01
2.166047e+02	-2.437143e+01
2.178558e+02	-2.441979e+01
2.191141e+02	-2.447209e+01
2.203797e+02	-2.451882e+01
2.216526e+02	-2.457019e+01
2.229329e+02	-2.462151e+01
2.242205e+02	-2.467201e+01
2.255156e+02	-2.472097e+01
2.268182e+02	-2.477033e+01
2.281283e+02	-2.482004e+01
2.294459e+02	-2.487069e+01
2.307712e+02	-2.491869e+01
2.321041e+02	-2.497115e+01
2.334447e+02	-2.501787e+01
2.347931e+02	-2.506887e+01
2.361493e+02	-2.512014e+01
2.375133e+02	-2.517079e+01
2.388851e+02	-2.522174e+01
2.402649e+02	-2.527011e+01
2.416527e+02	-2.532034e+01
2.430484e+02	-2.536616e+01
2.444523e+02	-2.541965e+01
2.458642e+02	-2.546909e+01
2.472843e+02	-2.552002e+01
2.487126e+02	-2.556770e+01
2.501492e+02	-2.561914e+01
2.515940e+02	-2.566944e+01
2.530472e+02	-2.571959e+01
2.545088e+02	-2.576835e+01
2.559789e+02	-2.582007e+01
2.574574e+02	-2.586899e+01
2.589444e+02	-2.591854e+01
2.604401e+02	-2.596822e+01
2.619444e+02	-2.601948e+01
2.634574e+02	-2.606541e+01
2.649791e+02	-2.612028e+01
2.665096e+02	-2.616855e+01
2.680489e+02	-2.621871e+01
2.695972e+02	-2.626566e+01
2.711544e+02	-2.631904e+01
2.727205e+02	-2.636621e+01
2.742958e+02	-2.641986e+01
2.758801e+02	-2.646905e+01
2.774736e+02	-2.652041e+01
2.790762e+02	-2.656850e+01
2.806882e+02	-2.661613e+01
2.823094e+02	-2.666961e+01
2.839400e+02	-2.671806e+01
2.855800e+02	-2.677124e+01
2.872295e+02	-2.681694e+01
2.888886e+02	-2.686894e+01
2.905572e+02	-2.691588e+01
2.922354e+02	-2.697040e+01
2.939234e+02	-2.701836e+01
2.956211e+02	-2.706789e+01
2.973286e+02	-2.711689e+01
2.990459e+02	-2.716923e+01
3.007732e+02	-2.721537e+01
3.025104e+02	-2.726917e+01
3.042577e+02	-2.731966e+01
3.060151e+02	-2.736633e+01
3.077826e+02	-2.742035e+01
3.095604e+02	-2.746967e+01
3.113484e+02	-2.751977e+01
3.131467e+02	-2.756718e+01
3.149554e+02	-2.761372e+01
3.167746e+02	-2.766827e+01
3.186043e+02	-2.771842e+01
3.204445e+02	-2.777220e+01
3.222954e+02	-2.781417e+01
3.241570e+02	-2.787115e+01
3.260293e+02	-2.791783e+01
3.279124e+02	-2.797024e+01
3.298064e+02	-2.801921e+01
3.317114e+02	-2.806873e+01
3.336273e+02	-2.811791e+01
3.355544e+02	-2.816783e+01
3.374925e+02	-2.822208e+01
3.394418e+02	-2.826766e+01
3.414024e+02	-2.832024e+01
3.433744e+02	-2.837155e+01
3.453577e+02	-2.842130e+01
3.473525e+02	-2.847417e+01
3.493588e+02	-2.851736e+01
3.513766e+02	-2.857346e+01
3.534062e+02	-2.861937e+01
3.554474e+02	-2.866831e+01
3.575005e+02	-2.872122e+01
3.595654e+02	-2.876715e+01
3.616422e+02	-2.881584e+01
3.637311e+02	-2.887233e+01
3.658320e+02	-2.891586e+01
3.679450e+02	-2.897099e+01
3.700702e+02	-2.902142e+01
3.722077e+02	-2.907207e+01
3.743576e+02	-2.912034e+01
3.765199e+02	-2.917063e+01
3.786946e+02	-2.922208e+01
3.808820e+02	-2.926731e+01
3.830819e+02	-2.932039e+01
3.852946e+02	-2.936864e+01
3.875200e+02	-2.942042e+01
3.897583e+02	-2.947239e+01
3.920096e+02	-2.951736e+01
3.942738e+02	-2.957230e+01
3.965511e+02	-2.962034e+01
3.988416e+02	-2.967260e+01
4.011452e+02	-2.972258e+01
4.034622e+02	-2.976956e+01
4.057926e+02	-2.981920e+01
4.081365e+02	-2.987072e+01
4.104938e+02	-2.992304e+01
4.128648e+02	-2.997078e+01
4.152495e+02	-3.001882e+01
4.176480e+02	-3.007211e+01
4.200603e+02	-3.012008e+01
4.224866e+02	-3.017406e+01
4.249268e+02	-3.021966e+01
4.273812e+02	-3.026883e+01
4.298497e+02	-3.032358e+01
4.323325e+02	-3.037608e+01
4.348297e+02	-3.042251e+01
4.373412e+02	-3.046757e+01
4.398673e+02	-3.052370e+01
4.424079e+02	-3.057433e+01
4.449633e+02	-3.062557e+01
4.475334e+02	-3.066808e+01
4.501183e+02	-3.071932e+01
4.527182e+02	-3.077468e+01
4.553330e+02	-3.082614e+01
4.579630e+02	-3.087138e+01
4.606082e+02	-3.092572e+01
4.632687e+02	-3.097459e+01
4.659445e+02	-3.102187e+01
4.686358e+02	-3.107002e+01
4.713426e+02	-3.111768e+01
4.740650e+02	-3.117503e+01
4.768032e+02	-3.122182e+01
4.795572e+02	-3.126889e+01
4.823271e+02	-3.132963e+01
4.851130e+02	-3.137346e+01
4.879150e+02	-3.142207e+01
4.907332e+02	-3.147436e+01
4.935676e+02	-3.152296e+01
4.964185e+02	-3.158020e+01
4.992858e+02	-3.162408e+01
5.021696e+02	-3.168116e+01
5.050701e+02	-3.173065e+01
5.079874e+02	-3.177766e+01
5.109215e+02	-3.182603e+01
5.138726e+02	-3.187763e+01
5.168407e+02	-3.192891e+01
5.198259e+02	-3.197420e+01
5.228284e+02	-3.203024e+01
5.258482e+02	-3.207931e+01
5.288855e+02	-3.212974e+01
5.319403e+02	-3.218135e+01
5.350128e+02	-3.222820e+01
5.381030e+02	-3.227712e+01
5.412111e+02	-3.232661e+01
5.443371e+02	-3.237745e+01
5.474812e+02	-3.242736e+01
5.506434e+02	-3.248067e+01
5.538239e+02	-3.253181e+01
5.570228e+02	-3.258138e+01
5.602401e+02	-3.262976e+01
5.634760e+02	-3.267556e+01
5.667306e+02	-3.273145e+01
5.700040e+02	-3.278596e+01
5.732964e+02	-3.283425e+01
5.766077e+02	-3.287732e+01
5.799382e+02	-3.293218e+01
5.832879e+02	-3.297855e+01
5.866569e+02	-3.302496e+01
5.900454e+02	-3.308270e+01
5.934535e+02	-3.313299e+01
5.968813e+02	-3.318139e+01
6.003288e+02	-3.324003e+01
6.037963e+02	-3.328803e+01
6.072838e+02	-3.333141e+01
6.107914e+02	-3.338269e+01
6.143194e+02	-3.342925e+01
6.178676e+02	-3.348794e+01
6.214364e+02	-3.353410e+01
6.250258e+02	-3.358914e+01
6.286359e+02	-3.363405e+01
6.322669e+02	-3.368367e+01
6.359189e+02	-3.373081e+01
6.395919e+02	-3.379351e+01
6.432862e+02	-3.384005e+01
6.470017e+02	-3.388268e+01
6.507388e+02	-3.393593e+01
6.544974e+02	-3.397905e+01
6.582778e+02	-3.403705e+01
6.620800e+02	-3.408141e+01
6.659041e+02	-3.413732e+01
6.697504e+02	-3.419384e+01
6.736188e+02	-3.423358e+01
6.775096e+02	-3.429647e+01
6.814229e+02	-3.434052e+01
6.853587e+02	-3.439220e+01
6.893173e+02	-3.444545e+01
6.932988e+02	-3.449280e+01
6.973033e+02	-3.454174e+01
7.013309e+02	-3.458723e+01
