Frequency(Hz)	Magnitude(dB)
1.000000e+01	-2.115704e+00
1.005776e+01	-2.135255e+00
1.011585e+01	-2.154822e+00
1.017428e+01	-2.174215e+00
1.023305e+01	-2.194052e+00
1.029215e+01	-2.213991e+00
1.035160e+01	-2.234242e+00
1.041139e+01	-2.254398e+00
1.047153e+01	-2.274727e+00
1.053201e+01	-2.294854e+00
1.059284e+01	-2.315822e+00
1.065403e+01	-2.336563e+00
1.071556e+01	-2.357237e+00
1.077746e+01	-2.378197e+00
1.083971e+01	-2.399455e+00
1.090232e+01	-2.420897e+00
1.096529e+01	-2.442165e+00
1.102862e+01	-2.463781e+00
1.109232e+01	-2.485357e+00
1.115639e+01	-2.507438e+00
1.122083e+01	-2.529527e+00
1.128564e+01	-2.551636e+00
1.135083e+01	-2.573791e+00
1.141639e+01	-2.596279e+00
1.148233e+01	-2.619006e+00
1.154865e+01	-2.641462e+00
1.161536e+01	-2.664505e+00
1.168245e+01	-2.687451e+00
1.174992e+01	-2.710659e+00
1.181779e+01	-2.734030e+00
1.188605e+01	-2.757501e+00
1.195470e+01	-2.781106e+00
1.202375e+01	-2.804856e+00
1.209320e+01	-2.828784e+00
1.216305e+01	-2.852568e+00
1.223330e+01	-2.876888e+00
1.230396e+01	-2.901021e+00
1.237503e+01	-2.925441e+00
1.244651e+01	-2.950096e+00
1.251840e+01	-2.974587e+00
1.259070e+01	-2.999797e+00
1.266343e+01	-3.024860e+00
1.273657e+01	-3.050049e+00
1.281014e+01	-3.075355e+00
1.288413e+01	-3.100657e+00
1.295855e+01	-3.126235e+00
1.303339e+01	-3.152055e+00
1.310867e+01	-3.177791e+00
1.318439e+01	-3.204047e+00
1.326054e+01	-3.230081e+00
1.333713e+01	-3.256449e+00
1.341417e+01	-3.282829e+00
1.349165e+01	-3.309677e+00
1.356958e+01	-3.336481e+00
1.364795e+01	-3.363073e+00
1.372678e+01	-3.389954e+00
1.380607e+01	-3.417434e+00
1.388581e+01	-3.444885e+00
1.396602e+01	-3.472271e+00
1.404668e+01	-3.499776e+00
1.412782e+01	-3.527598e+00
1.420942e+01	-3.555395e+00
1.429149e+01	-3.583298e+00
1.437404e+01	-3.611660e+00
1.445706e+01	-3.639855e+00
1.454057e+01	-3.668379e+00
1.462455e+01	-3.696803e+00
1.470902e+01	-3.725713e+00
1.479398e+01	-3.754717e+00
1.487943e+01	-3.783680e+00
1.496537e+01	-3.812835e+00
1.505181e+01	-3.842211e+00
1.513875e+01	-3.871529e+00
1.522619e+01	-3.901389e+00
1.531414e+01	-3.930979e+00
1.540259e+01	-3.960729e+00
1.549156e+01	-3.990686e+00
1.558103e+01	-4.021147e+00
1.567103e+01	-4.051079e+00
1.576155e+01	-4.081549e+00
1.585258e+01	-4.112014e+00
1.594415e+01	-4.143083e+00
1.603624e+01	-4.173626e+00
1.612886e+01	-4.204476e+00
1.622202e+01	-4.235878e+00
1.631572e+01	-4.266848e+00
1.640996e+01	-4.298312e+00
1.650474e+01	-4.329999e+00
1.660008e+01	-4.361390e+00
1.669596e+01	-4.392960e+00
1.679239e+01	-4.425001e+00
1.688938e+01	-4.457350e+00
1.698694e+01	-4.489221e+00
1.708505e+01	-4.521851e+00
1.718373e+01	-4.554036e+00
1.728299e+01	-4.586740e+00
1.738281e+01	-4.619445e+00
1.748322e+01	-4.652185e+00
1.758420e+01	-4.684937e+00
1.768576e+01	-4.718095e+00
1.778792e+01	-4.751193e+00
1.789066e+01	-4.784802e+00
1.799399e+01	-4.818246e+00
1.809793e+01	-4.851869e+00
1.820246e+01	-4.885310e+00
1.830760e+01	-4.919094e+00
1.841334e+01	-4.953400e+00
1.851969e+01	-4.987357e+00
1.862666e+01	-5.021217e+00
1.873425e+01	-5.055806e+00
1.884246e+01	-5.090297e+00
1.895129e+01	-5.125066e+00
1.906075e+01	-5.159578e+00
1.917085e+01	-5.194144e+00
1.928158e+01	-5.229539e+00
1.939295e+01	-5.264630e+00
1.950496e+01	-5.299809e+00
1.961762e+01	-5.335135e+00
1.973093e+01	-5.370518e+00
1.984490e+01	-5.405725e+00
1.995952e+01	-5.441587e+00
2.007480e+01	-5.477569e+00
2.019076e+01	-5.513620e+00
2.030738e+01	-5.549328e+00
2.042467e+01	-5.585658e+00
2.054264e+01	-5.622094e+00
2.066130e+01	-5.658497e+00
2.078064e+01	-5.694896e+00
2.090066e+01	-5.731568e+00
2.102139e+01	-5.768109e+00
2.114280e+01	-5.805051e+00
2.126492e+01	-5.841718e+00
2.138775e+01	-5.879082e+00
2.151128e+01	-5.916230e+00
2.163553e+01	-5.953285e+00
2.176050e+01	-5.990889e+00
2.188619e+01	-6.028036e+00
2.201260e+01	-6.065825e+00
2.213974e+01	-6.103613e+00
2.226762e+01	-6.141227e+00
2.239624e+01	-6.179409e+00
2.252560e+01	-6.217218e+00
2.265571e+01	-6.255233e+00
2.278656e+01	-6.293484e+00
2.291818e+01	-6.332017e+00
2.305055e+01	-6.370404e+00
2.318369e+01	-6.408953e+00
2.331760e+01	-6.447645e+00
2.345228e+01	-6.486513e+00
2.358774e+01	-6.525249e+00
2.372398e+01	-6.564105e+00
2.386101e+01	-6.603505e+00
2.399883e+01	-6.642245e+00
2.413745e+01	-6.681751e+00
2.427686e+01	-6.720543e+00
2.441709e+01	-6.760382e+00
2.455812e+01	-6.799537e+00
2.469997e+01	-6.839424e+00
2.484263e+01	-6.878850e+00
2.498612e+01	-6.918885e+00
2.513044e+01	-6.958935e+00
2.527559e+01	-6.998689e+00
2.542158e+01	-7.038884e+00
2.556842e+01	-7.079007e+00
2.571610e+01	-7.119256e+00
2.586463e+01	-7.159520e+00
2.601403e+01	-7.200109e+00
2.616428e+01	-7.240437e+00
2.631541e+01	-7.281193e+00
2.646740e+01	-7.321737e+00
2.662028e+01	-7.363059e+00
2.677404e+01	-7.403706e+00
2.692868e+01	-7.444472e+00
2.708422e+01	-7.485621e+00
2.724066e+01	-7.527077e+00
2.739800e+01	-7.567875e+00
2.755625e+01	-7.609531e+00
2.771541e+01	-7.650752e+00
2.787550e+01	-7.692024e+00
2.803650e+01	-7.734361e+00
2.819844e+01	-7.775155e+00
2.836131e+01	-7.817020e+00
2.852513e+01	-7.859132e+00
2.868989e+01	-7.901286e+00
2.885560e+01	-7.942956e+00
2.902227e+01	-7.984946e+00
2.918990e+01	-8.026668e+00
2.935850e+01	-8.069182e+00
2.952807e+01	-8.111507e+00
2.969863e+01	-8.153362e+00
2.987016e+01	-8.195877e+00
3.004269e+01	-8.238826e+00
3.021622e+01	-8.281159e+00
3.039075e+01	-8.324019e+00
3.056628e+01	-8.366815e+00
3.074283e+01	-8.409317e+00
3.092040e+01	-8.452197e+00
3.109900e+01	-8.494871e+00
3.127862e+01	-8.537869e+00
3.145929e+01	-8.581058e+00
3.164099e+01	-8.624317e+00
3.182375e+01	-8.667443e+00
3.200756e+01	-8.710643e+00
3.219244e+01	-8.754272e+00
3.237838e+01	-8.797210e+00
3.256540e+01	-8.840926e+00
3.275349e+01	-8.884116e+00
3.294268e+01	-8.927847e+00
3.313295e+01	-8.971408e+00
3.332433e+01	-9.015003e+00
3.351681e+01	-9.059283e+00
3.371040e+01	-9.103056e+00
3.390511e+01	-9.146987e+00
3.410094e+01	-9.190419e+00
3.429791e+01	-9.234735e+00
3.449601e+01	-9.278880e+00
3.469526e+01	-9.323182e+00
3.489566e+01	-9.367669e+00
3.509721e+01	-9.411807e+00
3.529993e+01	-9.456003e+00
3.550382e+01	-9.500348e+00
3.570889e+01	-9.545092e+00
3.591515e+01	-9.589218e+00
3.612259e+01	-9.634101e+00
3.633123e+01	-9.678739e+00
3.654108e+01	-9.723376e+00
3.675214e+01	-9.767685e+00
3.696442e+01	-9.813157e+00
3.717792e+01	-9.857753e+00
3.739266e+01	-9.901983e+00
3.760864e+01	-9.947686e+00
3.782587e+01	-9.991845e+00
3.804435e+01	-1.003743e+01
3.826409e+01	-1.008214e+01
3.848510e+01	-1.012751e+01
3.870739e+01	-1.017282e+01
3.893096e+01	-1.021831e+01
3.915583e+01	-1.026323e+01
3.938199e+01	-1.030901e+01
3.960946e+01	-1.035355e+01
3.983824e+01	-1.039907e+01
4.006834e+01	-1.044461e+01
4.029978e+01	-1.049010e+01
4.053255e+01	-1.053644e+01
4.076666e+01	-1.058177e+01
4.100213e+01	-1.062721e+01
4.123896e+01	-1.067325e+01
4.147715e+01	-1.071877e+01
4.171672e+01	-1.076479e+01
4.195767e+01	-1.081023e+01
4.220002e+01	-1.085633e+01
4.244377e+01	-1.090263e+01
4.268892e+01	-1.094785e+01
4.293549e+01	-1.099468e+01
4.318348e+01	-1.103999e+01
4.343291e+01	-1.108617e+01
4.368377e+01	-1.113319e+01
4.393609e+01	-1.117862e+01
4.418986e+01	-1.122522e+01
4.444510e+01	-1.127164e+01
4.470182e+01	-1.131732e+01
4.496001e+01	-1.136391e+01
4.521970e+01	-1.141051e+01
4.548089e+01	-1.145703e+01
4.574358e+01	-1.150299e+01
4.600779e+01	-1.154957e+01
4.627353e+01	-1.159615e+01
4.654081e+01	-1.164285e+01
4.680963e+01	-1.168960e+01
4.708000e+01	-1.173698e+01
4.735193e+01	-1.178288e+01
4.762543e+01	-1.183000e+01
4.790051e+01	-1.187625e+01
4.817719e+01	-1.192291e+01
4.845545e+01	-1.196954e+01
4.873533e+01	-1.201688e+01
4.901682e+01	-1.206399e+01
4.929994e+01	-1.211080e+01
4.958470e+01	-1.215721e+01
4.987110e+01	-1.220518e+01
5.015915e+01	-1.225202e+01
5.044887e+01	-1.229913e+01
5.074026e+01	-1.234594e+01
5.103333e+01	-1.239229e+01
5.132810e+01	-1.244029e+01
5.162457e+01	-1.248762e+01
5.192275e+01	-1.253442e+01
5.222265e+01	-1.258234e+01
5.252429e+01	-1.262961e+01
5.282767e+01	-1.267604e+01
5.313280e+01	-1.272387e+01
5.343969e+01	-1.277101e+01
5.374836e+01	-1.281858e+01
5.405880e+01	-1.286616e+01
5.437105e+01	-1.291302e+01
5.468509e+01	-1.296112e+01
5.500095e+01	-1.300824e+01
5.531863e+01	-1.305560e+01
5.563815e+01	-1.310338e+01
5.595951e+01	-1.315032e+01
5.628273e+01	-1.319878e+01
5.660782e+01	-1.324663e+01
5.693479e+01	-1.329408e+01
5.726364e+01	-1.334271e+01
5.759439e+01	-1.338928e+01
5.792705e+01	-1.343752e+01
5.826164e+01	-1.348467e+01
5.859815e+01	-1.353281e+01
5.893662e+01	-1.357957e+01
5.927703e+01	-1.362797e+01
5.961941e+01	-1.367636e+01
5.996377e+01	-1.372429e+01
6.031012e+01	-1.377238e+01
6.065847e+01	-1.382021e+01
6.100883e+01	-1.386791e+01
6.136121e+01	-1.391585e+01
6.171563e+01	-1.396381e+01
6.207210e+01	-1.401240e+01
6.243063e+01	-1.406013e+01
6.279122e+01	-1.410877e+01
6.315390e+01	-1.415629e+01
6.351868e+01	-1.420526e+01
6.388556e+01	-1.425184e+01
6.425456e+01	-1.430077e+01
6.462569e+01	-1.434886e+01
6.499897e+01	-1.439736e+01
6.537440e+01	-1.444509e+01
6.575200e+01	-1.449342e+01
6.613178e+01	-1.454139e+01
6.651375e+01	-1.459061e+01
6.689793e+01	-1.463737e+01
6.728433e+01	-1.468608e+01
6.767297e+01	-1.473444e+01
6.806384e+01	-1.478395e+01
6.845698e+01	-1.483158e+01
6.885238e+01	-1.488028e+01
6.925007e+01	-1.492861e+01
6.965005e+01	-1.497688e+01
7.005235e+01	-1.502583e+01
7.045697e+01	-1.507367e+01
7.086393e+01	-1.512096e+01
7.127323e+01	-1.517083e+01
7.168490e+01	-1.521831e+01
7.209895e+01	-1.526769e+01
7.251539e+01	-1.531729e+01
7.293424e+01	-1.536541e+01
7.335551e+01	-1.541357e+01
7.377920e+01	-1.546218e+01
7.420535e+01	-1.551061e+01
7.463396e+01	-1.555905e+01
7.506504e+01	-1.560828e+01
7.549861e+01	-1.565599e+01
7.593469e+01	-1.570517e+01
7.637328e+01	-1.575473e+01
7.681441e+01	-1.580145e+01
7.725809e+01	-1.585126e+01
7.770433e+01	-1.590046e+01
7.815315e+01	-1.594996e+01
7.860456e+01	-1.599830e+01
7.905857e+01	-1.604639e+01
7.951521e+01	-1.609507e+01
7.997449e+01	-1.614442e+01
8.043642e+01	-1.619363e+01
8.090102e+01	-1.624207e+01
8.136830e+01	-1.629059e+01
8.183828e+01	-1.634004e+01
8.231097e+01	-1.638831e+01
8.278640e+01	-1.643704e+01
8.326457e+01	-1.648606e+01
8.374550e+01	-1.653477e+01
8.422921e+01	-1.658409e+01
8.471572e+01	-1.663217e+01
8.520503e+01	-1.668174e+01
8.569717e+01	-1.673098e+01
8.619215e+01	-1.677855e+01
8.669000e+01	-1.682818e+01
8.719071e+01	-1.687797e+01
8.769432e+01	-1.692643e+01
8.820084e+01	-1.697599e+01
8.871029e+01	-1.702380e+01
8.922267e+01	-1.707373e+01
8.973802e+01	-1.712381e+01
9.025634e+01	-1.717227e+01
9.077766e+01	-1.722176e+01
9.130199e+01	-1.727077e+01
9.182935e+01	-1.731973e+01
9.235975e+01	-1.736790e+01
9.289321e+01	-1.741692e+01
9.342976e+01	-1.746669e+01
9.396941e+01	-1.751606e+01
9.451217e+01	-1.756515e+01
9.505807e+01	-1.761411e+01
9.560712e+01	-1.766381e+01
9.615934e+01	-1.771273e+01
9.671476e+01	-1.776156e+01
9.727338e+01	-1.781035e+01
9.783522e+01	-1.785936e+01
9.840032e+01	-1.790867e+01
9.896867e+01	-1.795856e+01
9.954031e+01	-1.800675e+01
1.001153e+02	-1.805744e+01
1.006935e+02	-1.810512e+01
1.012751e+02	-1.815468e+01
1.018601e+02	-1.820456e+01
1.024484e+02	-1.825505e+01
1.030402e+02	-1.830336e+01
1.036353e+02	-1.835228e+01
1.042339e+02	-1.840158e+01
1.048360e+02	-1.845009e+01
1.054415e+02	-1.850070e+01
1.060505e+02	-1.855065e+01
1.066631e+02	-1.859928e+01
1.072791e+02	-1.864883e+01
1.078988e+02	-1.869930e+01
1.085220e+02	-1.874762e+01
1.091488e+02	-1.879712e+01
1.097793e+02	-1.884595e+01
1.104133e+02	-1.889601e+01
1.110511e+02	-1.894419e+01
1.116925e+02	-1.899468e+01
1.123376e+02	-1.904307e+01
1.129865e+02	-1.909328e+01
1.136391e+02	-1.914078e+01
1.142955e+02	-1.919167e+01
1.149556e+02	-1.924222e+01
1.156196e+02	-1.929124e+01
1.162874e+02	-1.934011e+01
1.169591e+02	-1.938894e+01
1.176347e+02	-1.943918e+01
1.183141e+02	-1.948877e+01
1.189975e+02	-1.953903e+01
1.196848e+02	-1.958655e+01
1.203761e+02	-1.963785e+01
1.210714e+02	-1.968766e+01
1.217707e+02	-1.973664e+01
1.224740e+02	-1.978604e+01
1.231814e+02	-1.983509e+01
1.238929e+02	-1.988534e+01
1.246085e+02	-1.993420e+01
1.253283e+02	-1.998276e+01
1.260522e+02	-2.003230e+01
1.267802e+02	-2.008362e+01
1.275125e+02	-2.013168e+01
1.282490e+02	-2.018266e+01
1.289898e+02	-2.023057e+01
1.297348e+02	-2.027972e+01
1.304842e+02	-2.033016e+01
1.312378e+02	-2.038107e+01
1.319959e+02	-2.043051e+01
1.327583e+02	-2.047959e+01
1.335251e+02	-2.052801e+01
1.342963e+02	-2.057834e+01
1.350720e+02	-2.062710e+01
1.358522e+02	-2.067778e+01
1.366368e+02	-2.072737e+01
1.374260e+02	-2.077582e+01
1.382198e+02	-2.082627e+01
1.390182e+02	-2.087735e+01
1.398211e+02	-2.092564e+01
1.406287e+02	-2.097621e+01
1.414410e+02	-2.102486e+01
1.422579e+02	-2.107548e+01
1.430796e+02	-2.112434e+01
1.439060e+02	-2.117383e+01
1.447372e+02	-2.122407e+01
1.455732e+02	-2.127410e+01
1.464141e+02	-2.132328e+01
1.472597e+02	-2.137036e+01
1.481103e+02	-2.142074e+01
1.489658e+02	-2.147394e+01
1.498262e+02	-2.152175e+01
1.506916e+02	-2.157283e+01
1.515620e+02	-2.162220e+01
1.524374e+02	-2.167205e+01
1.533179e+02	-2.172216e+01
1.542034e+02	-2.176954e+01
1.550941e+02	-2.181875e+01
1.559899e+02	-2.187174e+01
1.568909e+02	-2.192101e+01
1.577971e+02	-2.196909e+01
1.587085e+02	-2.202022e+01
1.596252e+02	-2.206750e+01
1.605472e+02	-2.211823e+01
1.614745e+02	-2.216782e+01
1.624072e+02	-2.221844e+01
1.633453e+02	-2.226671e+01
1.642887e+02	-2.231693e+01
1.652377e+02	-2.236737e+01
1.661921e+02	-2.241629e+01
1.671520e+02	-2.246658e+01
1.681175e+02	-2.251678e+01
1.690885e+02	-2.256597e+01
1.700651e+02	-2.261518e+01
1.710474e+02	-2.266409e+01
1.720354e+02	-2.271393e+01
1.730291e+02	-2.276556e+01
1.740285e+02	-2.281808e+01
1.750337e+02	-2.286427e+01
1.760446e+02	-2.291285e+01
1.770615e+02	-2.296373e+01
1.780842e+02	-2.301094e+01
1.791128e+02	-2.306400e+01
1.801473e+02	-2.311421e+01
1.811878e+02	-2.316521e+01
1.822344e+02	-2.321601e+01
1.832870e+02	-2.326399e+01
1.843456e+02	-2.331276e+01
1.854104e+02	-2.336202e+01
1.864813e+02	-2.341022e+01
1.875584e+02	-2.346304e+01
1.886418e+02	-2.351321e+01
1.897313e+02	-2.356204e+01
1.908272e+02	-2.361023e+01
1.919294e+02	-2.366180e+01
1.930380e+02	-2.371178e+01
1.941530e+02	-2.376152e+01
1.952744e+02	-2.381438e+01
1.964023e+02	-2.385969e+01
1.975367e+02	-2.391097e+01
1.986777e+02	-2.396086e+01
1.998252e+02	-2.400765e+01
2.009794e+02	-2.405991e+01
2.021403e+02	-2.410989e+01
2.033078e+02	-2.416063e+01
2.044821e+02	-2.421035e+01
2.056632e+02	-2.426140e+01
2.068511e+02	-2.431230e+01
2.080459e+02	-2.435861e+01
2.092475e+02	-2.440997e+01
2.104561e+02	-2.445711e+01
2.116717e+02	-2.451059e+01
2.128943e+02	-2.456119e+01
2.141240e+02	-2.460614e+01
2.153608e+02	-2.465883e+01
2.166047e+02	-2.470704e+01
2.178558e+02	-2.475945e+01
2.191141e+02	-2.480864e+01
2.203797e+02	-2.485909e+01
2.216526e+02	-2.490596e+01
2.229329e+02	-2.495941e+01
2.242205e+02	-2.500759e+01
2.255156e+02	-2.505852e+01
2.268182e+02	-2.510664e+01
2.281283e+02	-2.515738e+01
2.294459e+02	-2.520767e+01
2.307712e+02	-2.525617e+01
2.321041e+02	-2.530826e+01
2.334447e+02	-2.535794e+01
2.347931e+02	-2.540672e+01
2.361493e+02	-2.545614e+01
2.375133e+02	-2.550998e+01
2.388851e+02	-2.556115e+01
2.402649e+02	-2.560847e+01
2.416527e+02	-2.565371e+01
2.430484e+02	-2.570801e+01
2.444523e+02	-2.575621e+01
2.458642e+02	-2.580851e+01
2.472843e+02	-2.585668e+01
2.487126e+02	-2.590759e+01
2.501492e+02	-2.595430e+01
2.515940e+02	-2.600604e+01
2.530472e+02	-2.605745e+01
2.545088e+02	-2.610345e+01
2.559789e+02	-2.615549e+01
2.574574e+02	-2.620439e+01
2.589444e+02	-2.625405e+01
2.604401e+02	-2.630430e+01
2.619444e+02	-2.635498e+01
2.634574e+02	-2.640709e+01
2.649791e+02	-2.645500e+01
2.665096e+02	-2.650395e+01
2.680489e+02	-2.655845e+01
2.695972e+02	-2.660770e+01
2.711544e+02	-2.665671e+01
2.727205e+02	-2.670889e+01
2.742958e+02	-2.675431e+01
2.758801e+02	-2.680945e+01
2.774736e+02	-2.685177e+01
2.790762e+02	-2.690723e+01
2.806882e+02	-2.695891e+01
2.823094e+02	-2.700249e+01
2.839400e+02	-2.705706e+01
2.855800e+02	-2.710630e+01
2.872295e+02	-2.715398e+01
2.888886e+02	-2.720654e+01
2.905572e+02	-2.725800e+01
2.922354e+02	-2.730433e+01
2.939234e+02	-2.736047e+01
2.956211e+02	-2.740795e+01
2.973286e+02	-2.745595e+01
2.990459e+02	-2.750550e+01
3.007732e+02	-2.755746e+01
3.025104e+02	-2.760480e+01
3.042577e+02	-2.765559e+01
3.060151e+02	-2.770620e+01
3.077826e+02	-2.776190e+01
3.095604e+02	-2.780730e+01
3.113484e+02	-2.785476e+01
3.131467e+02	-2.790587e+01
3.149554e+02	-2.795340e+01
3.167746e+02	-2.800790e+01
3.186043e+02	-2.805958e+01
3.204445e+02	-2.810356e+01
3.222954e+02	-2.815757e+01
3.241570e+02	-2.820297e+01
3.260293e+02	-2.825766e+01
3.279124e+02	-2.830343e+01
3.298064e+02	-2.835511e+01
3.317114e+02	-2.840513e+01
3.336273e+02	-2.845434e+01
3.355544e+02	-2.850455e+01
3.374925e+02	-2.855541e+01
3.394418e+02	-2.861383e+01
3.414024e+02	-2.865818e+01
3.433744e+02	-2.870258e+01
3.453577e+02	-2.875358e+01
3.473525e+02	-2.880763e+01
3.493588e+02	-2.885787e+01
3.513766e+02	-2.890469e+01
3.534062e+02	-2.895590e+01
3.554474e+02	-2.900856e+01
3.575005e+02	-2.905296e+01
3.595654e+02	-2.911055e+01
3.616422e+02	-2.915594e+01
3.637311e+02	-2.920596e+01
3.658320e+02	-2.925733e+01
3.679450e+02	-2.930489e+01
3.700702e+02	-2.935418e+01
3.722077e+02	-2.940434e+01
3.743576e+02	-2.945741e+01
3.765199e+02	-2.950171e+01
3.786946e+02	-2.955858e+01
3.808820e+02	-2.960369e+01
3.830819e+02	-2.965847e+01
3.852946e+02	-2.970707e+01
3.875200e+02	-2.975797e+01
3.897583e+02	-2.980560e+01
3.920096e+02	-2.985656e+01
3.942738e+02	-2.990797e+01
3.965511e+02	-2.995795e+01
3.988416e+02	-3.000962e+01
4.011452e+02	-3.006274e+01
4.034622e+02	-3.010403e+01
4.057926e+02	-3.016021e+01
4.081365e+02	-3.021086e+01
4.104938e+02	-3.025678e+01
4.128648e+02	-3.030761e+01
4.152495e+02	-3.035969e+01
4.176480e+02	-3.040774e+01
4.200603e+02	-3.045969e+01
4.224866e+02	-3.051666e+01
4.249268e+02	-3.055970e+01
4.273812e+02	-3.060855e+01
4.298497e+02	-3.066179e+01
4.323325e+02	-3.071175e+01
4.348297e+02	-3.076068e+01
4.373412e+02	-3.080948e+01
4.398673e+02	-3.086223e+01
4.424079e+02	-3.091295e+01
4.449633e+02	-3.096124e+01
4.475334e+02	-3.100779e+01
4.501183e+02	-3.105840e+01
4.527182e+02	-3.111173e+01
4.553330e+02	-3.116361e+01
4.579630e+02	-3.121486e+01
4.606082e+02	-3.125807e+01
4.632687e+02	-3.130795e+01
4.659445e+02	-3.136189e+01
4.686358e+02	-3.141239e+01
4.713426e+02	-3.146144e+01
4.740650e+02	-3.151688e+01
4.768032e+02	-3.156772e+01
4.795572e+02	-3.161212e+01
4.823271e+02	-3.166174e+01
4.851130e+02	-3.171203e+01
4.879150e+02	-3.176424e+01
4.907332e+02	-3.182041e+01
4.935676e+02	-3.186986e+01
4.964185e+02	-3.191437e+01
4.992858e+02	-3.196522e+01
5.021696e+02	-3.201385e+01
5.050701e+02	-3.206112e+01
5.079874e+02	-3.212053e+01
5.109215e+02	-3.216211e+01
5.138726e+02	-3.221457e+01
5.168407e+02	-3.226922e+01
5.198259e+02	-3.231234e+01
5.228284e+02	-3.236897e+01
5.258482e+02	-3.241183e+01
5.288855e+02	-3.246753e+01
5.319403e+02	-3.251143e+01
5.350128e+02	-3.256496e+01
5.381030e+02	-3.261810e+01
5.412111e+02	-3.267183e+01
5.443371e+02	-3.272301e+01
5.474812e+02	-3.276326e+01
5.506434e+02	-3.281553e+01
5.538239e+02	-3.286854e+01
5.570228e+02	-3.291668e+01
5.602401e+02	-3.296813e+01
5.634760e+02	-3.301923e+01
5.667306e+02	-3.306975e+01
5.700040e+02	-3.311898e+01
5.732964e+02	-3.316925e+01
5.766077e+02	-3.321472e+01
5.799382e+02	-3.326944e+01
5.832879e+02	-3.332230e+01
5.866569e+02	-3.337183e+01
5.900454e+02	-3.342017e+01
5.934535e+02	-3.346403e+01
5.968813e+02	-3.352791e+01
6.003288e+02	-3.357491e+01
6.037963e+02	-3.361343e+01
6.072838e+02	-3.367646e+01
6.107914e+02	-3.371995e+01
6.143194e+02	-3.377601e+01
6.178676e+02	-3.381291e+01
6.214364e+02	-3.387098e+01
6.250258e+02	-3.392359e+01
6.286359e+02	-3.396987e+01
6.322669e+02	-3.402565e+01
6.359189e+02	-3.407241e+01
6.395919e+02	-3.411951e+01
6.432862e+02	-3.418044e+01
6.470017e+02	-3.423117e+01
6.507388e+02	-3.427102e+01
6.544974e+02	-3.432320e+01
6.582778e+02	-3.437196e+01
6.620800e+02	-3.442361e+01
6.659041e+02	-3.447537e+01
6.697504e+02	-3.452303e+01
6.736188e+02	-3.457510e+01
6.775096e+02	-3.462892e+01
6.814229e+02	-3.467838e+01
6.853587e+02	-3.473693e+01
6.893173e+02	-3.477640e+01
6.932988e+02	-3.483358e+01
6.973033e+02	-3.487811e+01
7.013309e+02	-3.492510e+01
