Frequency(Hz)	Magnitude(dB)
1.000000e+01	-1.509945e-05
1.005776e+01	-1.527438e-05
1.011585e+01	-1.545133e-05
1.017428e+01	-1.563034e-05
1.023305e+01	-1.581142e-05
1.029215e+01	-1.599460e-05
1.035160e+01	-1.617990e-05
1.041139e+01	-1.636735e-05
1.047153e+01	-1.655697e-05
1.053201e+01	-1.674879e-05
1.059284e+01	-1.694283e-05
1.065403e+01	-1.713912e-05
1.071556e+01	-1.733768e-05
1.077746e+01	-1.753854e-05
1.083971e+01	-1.774173e-05
1.090232e+01	-1.794727e-05
1.096529e+01	-1.815519e-05
1.102862e+01	-1.836553e-05
1.109232e+01	-1.857830e-05
1.115639e+01	-1.879353e-05
1.122083e+01	-1.901126e-05
1.128564e+01	-1.923151e-05
1.135083e+01	-1.945431e-05
1.141639e+01	-1.967969e-05
1.148233e+01	-1.990769e-05
1.154865e+01	-2.013832e-05
1.161536e+01	-2.037163e-05
1.168245e+01	-2.060764e-05
1.174992e+01	-2.084639e-05
1.181779e+01	-2.108790e-05
1.188605e+01	-2.133220e-05
1.195470e+01	-2.157934e-05
1.202375e+01	-2.182935e-05
1.209320e+01	-2.208224e-05
1.216305e+01	-2.233807e-05
1.223330e+01	-2.259686e-05
1.230396e+01	-2.285865e-05
1.237503e+01	-2.312348e-05
1.244651e+01	-2.339137e-05
1.251840e+01	-2.366236e-05
1.259070e+01	-2.393650e-05
1.266343e+01	-2.421381e-05
1.273657e+01	-2.449433e-05
1.281014e+01	-2.477810e-05
1.288413e+01	-2.506516e-05
1.295855e+01	-2.535555e-05
1.303339e+01	-2.564930e-05
1.310867e+01	-2.594645e-05
1.318439e+01	-2.624705e-05
1.326054e+01	-2.655113e-05
1.333713e+01	-2.685873e-05
1.341417e+01	-2.716990e-05
1.349165e+01	-2.748467e-05
1.356958e+01	-2.780308e-05
1.364795e+01	-2.812519e-05
1.372678e+01	-2.845102e-05
1.380607e+01	-2.878064e-05
1.388581e+01	-2.911407e-05
1.396602e+01	-2.945136e-05
1.404668e+01	-2.979256e-05
1.412782e+01	-3.013772e-05
1.420942e+01	-3.048687e-05
1.429149e+01	-3.084007e-05
1.437404e+01	-3.119735e-05
1.445706e+01	-3.155878e-05
1.454057e+01	-3.192440e-05
1.462455e+01	-3.229425e-05
1.470902e+01	-3.266839e-05
1.479398e+01	-3.304686e-05
1.487943e+01	-3.342971e-05
1.496537e+01	-3.381701e-05
1.505181e+01	-3.420878e-05
1.513875e+01	-3.460510e-05
1.522619e+01	-3.500601e-05
1.531414e+01	-3.541156e-05
1.540259e+01	-3.582181e-05
1.549156e+01	-3.623682e-05
1.558103e+01	-3.665663e-05
1.567103e+01	-3.708130e-05
1.576155e+01	-3.751090e-05
1.585258e+01	-3.794547e-05
1.594415e+01	-3.838508e-05
1.603624e+01	-3.882978e-05
1.612886e+01	-3.927963e-05
1.622202e+01	-3.973469e-05
1.631572e+01	-4.019503e-05
1.640996e+01	-4.066070e-05
1.650474e+01	-4.113176e-05
1.660008e+01	-4.160828e-05
1.669596e+01	-4.209032e-05
1.679239e+01	-4.257795e-05
1.688938e+01	-4.307122e-05
1.698694e+01	-4.357021e-05
1.708505e+01	-4.407498e-05
1.718373e+01	-4.458560e-05
1.728299e+01	-4.510214e-05
1.738281e+01	-4.562465e-05
1.748322e+01	-4.615323e-05
1.758420e+01	-4.668792e-05
1.768576e+01	-4.722881e-05
1.778792e+01	-4.777597e-05
1.789066e+01	-4.832946e-05
1.799399e+01	-4.888937e-05
1.809793e+01	-4.945576e-05
1.820246e+01	-5.002872e-05
1.830760e+01	-5.060831e-05
1.841334e+01	-5.119462e-05
1.851969e+01	-5.178772e-05
1.862666e+01	-5.238769e-05
1.873425e+01	-5.299461e-05
1.884246e+01	-5.360857e-05
1.895129e+01	-5.422963e-05
1.906075e+01	-5.485790e-05
1.917085e+01	-5.549344e-05
1.928158e+01	-5.613634e-05
1.939295e+01	-5.678669e-05
1.950496e+01	-5.744457e-05
1.961762e+01	-5.811008e-05
1.973093e+01	-5.878330e-05
1.984490e+01	-5.946432e-05
1.995952e+01	-6.015322e-05
2.007480e+01	-6.085011e-05
2.019076e+01	-6.155507e-05
2.030738e+01	-6.226820e-05
2.042467e+01	-6.298959e-05
2.054264e+01	-6.371933e-05
2.066130e+01	-6.445753e-05
2.078064e+01	-6.520429e-05
2.090066e+01	-6.595969e-05
2.102139e+01	-6.672385e-05
2.114280e+01	-6.749685e-05
2.126492e+01	-6.827882e-05
2.138775e+01	-6.906984e-05
2.151128e+01	-6.987003e-05
2.163553e+01	-7.067949e-05
2.176050e+01	-7.149832e-05
2.188619e+01	-7.232664e-05
2.201260e+01	-7.316456e-05
2.213974e+01	-7.401218e-05
2.226762e+01	-7.486963e-05
2.239624e+01	-7.573701e-05
2.252560e+01	-7.661443e-05
2.265571e+01	-7.750202e-05
2.278656e+01	-7.839990e-05
2.291818e+01	-7.930817e-05
2.305055e+01	-8.022697e-05
2.318369e+01	-8.115642e-05
2.331760e+01	-8.209663e-05
2.345228e+01	-8.304773e-05
2.358774e+01	-8.400985e-05
2.372398e+01	-8.498312e-05
2.386101e+01	-8.596766e-05
2.399883e+01	-8.696361e-05
2.413745e+01	-8.797110e-05
2.427686e+01	-8.899026e-05
2.441709e+01	-9.002123e-05
2.455812e+01	-9.106414e-05
2.469997e+01	-9.211913e-05
2.484263e+01	-9.318634e-05
2.498612e+01	-9.426592e-05
2.513044e+01	-9.535801e-05
2.527559e+01	-9.646274e-05
2.542158e+01	-9.758028e-05
2.556842e+01	-9.871076e-05
2.571610e+01	-9.985434e-05
2.586463e+01	-1.010112e-04
2.601403e+01	-1.021814e-04
2.616428e+01	-1.033652e-04
2.631541e+01	-1.045627e-04
2.646740e+01	-1.057741e-04
2.662028e+01	-1.069995e-04
2.677404e+01	-1.082391e-04
2.692868e+01	-1.094930e-04
2.708422e+01	-1.107615e-04
2.724066e+01	-1.120447e-04
2.739800e+01	-1.133428e-04
2.755625e+01	-1.146558e-04
2.771541e+01	-1.159842e-04
2.787550e+01	-1.173278e-04
2.803650e+01	-1.186871e-04
2.819844e+01	-1.200621e-04
2.836131e+01	-1.214530e-04
2.852513e+01	-1.228601e-04
2.868989e+01	-1.242834e-04
2.885560e+01	-1.257233e-04
2.902227e+01	-1.271798e-04
2.918990e+01	-1.286532e-04
2.935850e+01	-1.301436e-04
2.952807e+01	-1.316514e-04
2.969863e+01	-1.331766e-04
2.987016e+01	-1.347194e-04
3.004269e+01	-1.362802e-04
3.021622e+01	-1.378590e-04
3.039075e+01	-1.394561e-04
3.056628e+01	-1.410717e-04
3.074283e+01	-1.427060e-04
3.092040e+01	-1.443593e-04
3.109900e+01	-1.460317e-04
3.127862e+01	-1.477235e-04
3.145929e+01	-1.494349e-04
3.164099e+01	-1.511661e-04
3.182375e+01	-1.529174e-04
3.200756e+01	-1.546889e-04
3.219244e+01	-1.564810e-04
3.237838e+01	-1.582939e-04
3.256540e+01	-1.601277e-04
3.275349e+01	-1.619828e-04
3.294268e+01	-1.638594e-04
3.313295e+01	-1.657577e-04
3.332433e+01	-1.676780e-04
3.351681e+01	-1.696206e-04
3.371040e+01	-1.715856e-04
3.390511e+01	-1.735735e-04
3.410094e+01	-1.755843e-04
3.429791e+01	-1.776185e-04
3.449601e+01	-1.796762e-04
3.469526e+01	-1.817577e-04
3.489566e+01	-1.838634e-04
3.509721e+01	-1.859935e-04
3.529993e+01	-1.881482e-04
3.550382e+01	-1.903279e-04
3.570889e+01	-1.925329e-04
3.591515e+01	-1.947634e-04
3.612259e+01	-1.970197e-04
3.633123e+01	-1.993022e-04
3.654108e+01	-2.016111e-04
3.675214e+01	-2.039467e-04
3.696442e+01	-2.063095e-04
3.717792e+01	-2.086996e-04
3.739266e+01	-2.111174e-04
3.760864e+01	-2.135631e-04
3.782587e+01	-2.160373e-04
3.804435e+01	-2.185401e-04
3.826409e+01	-2.210718e-04
3.848510e+01	-2.236330e-04
3.870739e+01	-2.262237e-04
3.893096e+01	-2.288445e-04
3.915583e+01	-2.314957e-04
3.938199e+01	-2.341776e-04
3.960946e+01	-2.368905e-04
3.983824e+01	-2.396349e-04
4.006834e+01	-2.424110e-04
4.029978e+01	-2.452193e-04
4.053255e+01	-2.480602e-04
4.076666e+01	-2.509340e-04
4.100213e+01	-2.538410e-04
4.123896e+01	-2.567817e-04
4.147715e+01	-2.597565e-04
4.171672e+01	-2.627658e-04
4.195767e+01	-2.658099e-04
4.220002e+01	-2.688893e-04
4.244377e+01	-2.720044e-04
4.268892e+01	-2.751555e-04
4.293549e+01	-2.783432e-04
4.318348e+01	-2.815678e-04
4.343291e+01	-2.848297e-04
4.368377e+01	-2.881294e-04
4.393609e+01	-2.914674e-04
4.418986e+01	-2.948440e-04
4.444510e+01	-2.982597e-04
4.470182e+01	-3.017150e-04
4.496001e+01	-3.052103e-04
4.521970e+01	-3.087462e-04
4.548089e+01	-3.123229e-04
4.574358e+01	-3.159412e-04
4.600779e+01	-3.196013e-04
4.627353e+01	-3.233038e-04
4.654081e+01	-3.270492e-04
4.680963e+01	-3.308380e-04
4.708000e+01	-3.346708e-04
4.735193e+01	-3.385479e-04
4.762543e+01	-3.424699e-04
4.790051e+01	-3.464373e-04
4.817719e+01	-3.504507e-04
4.845545e+01	-3.545106e-04
4.873533e+01	-3.586176e-04
4.901682e+01	-3.627721e-04
4.929994e+01	-3.669747e-04
4.958470e+01	-3.712260e-04
4.987110e+01	-3.755266e-04
5.015915e+01	-3.798770e-04
5.044887e+01	-3.842778e-04
5.074026e+01	-3.887295e-04
5.103333e+01	-3.932329e-04
5.132810e+01	-3.977884e-04
5.162457e+01	-4.023967e-04
5.192275e+01	-4.070583e-04
5.222265e+01	-4.117740e-04
5.252429e+01	-4.165443e-04
5.282767e+01	-4.213698e-04
5.313280e+01	-4.262513e-04
5.343969e+01	-4.311893e-04
5.374836e+01	-4.361845e-04
5.405880e+01	-4.412375e-04
5.437105e+01	-4.463491e-04
5.468509e+01	-4.515199e-04
5.500095e+01	-4.567506e-04
5.531863e+01	-4.620419e-04
5.563815e+01	-4.673945e-04
5.595951e+01	-4.728091e-04
5.628273e+01	-4.782864e-04
5.660782e+01	-4.838272e-04
5.693479e+01	-4.894322e-04
5.726364e+01	-4.951021e-04
5.759439e+01	-5.008376e-04
5.792705e+01	-5.066396e-04
5.826164e+01	-5.125088e-04
5.859815e+01	-5.184460e-04
5.893662e+01	-5.244520e-04
5.927703e+01	-5.305276e-04
5.961941e+01	-5.366735e-04
5.996377e+01	-5.428906e-04
6.031012e+01	-5.491798e-04
6.065847e+01	-5.555417e-04
6.100883e+01	-5.619774e-04
6.136121e+01	-5.684877e-04
6.171563e+01	-5.750733e-04
6.207210e+01	-5.817353e-04
6.243063e+01	-5.884744e-04
6.279122e+01	-5.952915e-04
6.315390e+01	-6.021877e-04
6.351868e+01	-6.091637e-04
6.388556e+01	-6.162205e-04
6.425456e+01	-6.233591e-04
6.462569e+01	-6.305804e-04
6.499897e+01	-6.378853e-04
6.537440e+01	-6.452748e-04
6.575200e+01	-6.527499e-04
6.613178e+01	-6.603116e-04
6.651375e+01	-6.679609e-04
6.689793e+01	-6.756988e-04
6.728433e+01	-6.835264e-04
6.767297e+01	-6.914446e-04
6.806384e+01	-6.994545e-04
6.845698e+01	-7.075572e-04
6.885238e+01	-7.157538e-04
6.925007e+01	-7.240453e-04
6.965005e+01	-7.324329e-04
7.005235e+01	-7.409176e-04
7.045697e+01	-7.495006e-04
7.086393e+01	-7.581830e-04
7.127323e+01	-7.669660e-04
7.168490e+01	-7.758507e-04
7.209895e+01	-7.848383e-04
7.251539e+01	-7.939300e-04
7.293424e+01	-8.031271e-04
7.335551e+01	-8.124307e-04
7.377920e+01	-8.218420e-04
7.420535e+01	-8.313624e-04
7.463396e+01	-8.409930e-04
7.506504e+01	-8.507352e-04
7.549861e+01	-8.605902e-04
7.593469e+01	-8.705594e-04
7.637328e+01	-8.806440e-04
7.681441e+01	-8.908455e-04
7.725809e+01	-9.011651e-04
7.770433e+01	-9.116042e-04
7.815315e+01	-9.221643e-04
7.860456e+01	-9.328467e-04
7.905857e+01	-9.436528e-04
7.951521e+01	-9.545840e-04
7.997449e+01	-9.656419e-04
8.043642e+01	-9.768279e-04
8.090102e+01	-9.881434e-04
8.136830e+01	-9.995900e-04
8.183828e+01	-1.011169e-03
8.231097e+01	-1.022882e-03
8.278640e+01	-1.034731e-03
8.326457e+01	-1.046718e-03
8.374550e+01	-1.058843e-03
8.422921e+01	-1.071108e-03
8.471572e+01	-1.083516e-03
8.520503e+01	-1.096067e-03
8.569717e+01	-1.108764e-03
8.619215e+01	-1.121607e-03
8.669000e+01	-1.134600e-03
8.719071e+01	-1.147743e-03
8.769432e+01	-1.161038e-03
8.820084e+01	-1.174487e-03
8.871029e+01	-1.188092e-03
8.922267e+01	-1.201854e-03
8.973802e+01	-1.215776e-03
9.025634e+01	-1.229859e-03
9.077766e+01	-1.244105e-03
9.130199e+01	-1.258516e-03
9.182935e+01	-1.273095e-03
9.235975e+01	-1.287842e-03
9.289321e+01	-1.302759e-03
9.342976e+01	-1.317850e-03
9.396941e+01	-1.333115e-03
9.451217e+01	-1.348557e-03
9.505807e+01	-1.364178e-03
9.560712e+01	-1.379980e-03
9.615934e+01	-1.395965e-03
9.671476e+01	-1.412135e-03
9.727338e+01	-1.428492e-03
9.783522e+01	-1.445039e-03
9.840032e+01	-1.461777e-03
9.896867e+01	-1.478709e-03
9.954031e+01	-1.495838e-03
1.001153e+02	-1.513164e-03
1.006935e+02	-1.530692e-03
1.012751e+02	-1.548422e-03
1.018601e+02	-1.566358e-03
1.024484e+02	-1.584501e-03
1.030402e+02	-1.602855e-03
1.036353e+02	-1.621421e-03
1.042339e+02	-1.640202e-03
1.048360e+02	-1.659200e-03
1.054415e+02	-1.678419e-03
1.060505e+02	-1.697860e-03
1.066631e+02	-1.717526e-03
1.072791e+02	-1.737420e-03
1.078988e+02	-1.757544e-03
1.085220e+02	-1.777902e-03
1.091488e+02	-1.798495e-03
1.097793e+02	-1.819327e-03
1.104133e+02	-1.840400e-03
1.110511e+02	-1.861717e-03
1.116925e+02	-1.883280e-03
1.123376e+02	-1.905094e-03
1.129865e+02	-1.927160e-03
1.136391e+02	-1.949482e-03
1.142955e+02	-1.972062e-03
1.149556e+02	-1.994904e-03
1.156196e+02	-2.018010e-03
1.162874e+02	-2.041383e-03
1.169591e+02	-2.065028e-03
1.176347e+02	-2.088946e-03
1.183141e+02	-2.113141e-03
1.189975e+02	-2.137616e-03
1.196848e+02	-2.162375e-03
1.203761e+02	-2.187420e-03
1.210714e+02	-2.212756e-03
1.217707e+02	-2.238384e-03
1.224740e+02	-2.264310e-03
1.231814e+02	-2.290536e-03
1.238929e+02	-2.317065e-03
1.246085e+02	-2.343901e-03
1.253283e+02	-2.371049e-03
1.260522e+02	-2.398510e-03
1.267802e+02	-2.426290e-03
1.275125e+02	-2.454391e-03
1.282490e+02	-2.482818e-03
1.289898e+02	-2.511574e-03
1.297348e+02	-2.540662e-03
1.304842e+02	-2.570088e-03
1.312378e+02	-2.599854e-03
1.319959e+02	-2.629965e-03
1.327583e+02	-2.660424e-03
1.335251e+02	-2.691237e-03
1.342963e+02	-2.722405e-03
1.350720e+02	-2.753935e-03
1.358522e+02	-2.785830e-03
1.366368e+02	-2.818094e-03
1.374260e+02	-2.850732e-03
1.382198e+02	-2.883747e-03
1.390182e+02	-2.917145e-03
1.398211e+02	-2.950929e-03
1.406287e+02	-2.985105e-03
1.414410e+02	-3.019676e-03
1.422579e+02	-3.054647e-03
1.430796e+02	-3.090024e-03
1.439060e+02	-3.125810e-03
1.447372e+02	-3.162010e-03
1.455732e+02	-3.198629e-03
1.464141e+02	-3.235672e-03
1.472597e+02	-3.273144e-03
1.481103e+02	-3.311050e-03
1.489658e+02	-3.349394e-03
1.498262e+02	-3.388183e-03
1.506916e+02	-3.427420e-03
1.515620e+02	-3.467112e-03
1.524374e+02	-3.507263e-03
1.533179e+02	-3.547879e-03
1.542034e+02	-3.588965e-03
1.550941e+02	-3.630527e-03
1.559899e+02	-3.672569e-03
1.568909e+02	-3.715099e-03
1.577971e+02	-3.758121e-03
1.587085e+02	-3.801640e-03
1.596252e+02	-3.845664e-03
1.605472e+02	-3.890197e-03
1.614745e+02	-3.935245e-03
1.624072e+02	-3.980815e-03
1.633453e+02	-4.026912e-03
1.642887e+02	-4.073543e-03
1.652377e+02	-4.120714e-03
1.661921e+02	-4.168431e-03
1.671520e+02	-4.216699e-03
1.681175e+02	-4.265527e-03
1.690885e+02	-4.314920e-03
1.700651e+02	-4.364884e-03
1.710474e+02	-4.415426e-03
1.720354e+02	-4.466554e-03
1.730291e+02	-4.518273e-03
1.740285e+02	-4.570591e-03
1.750337e+02	-4.623514e-03
1.760446e+02	-4.677050e-03
1.770615e+02	-4.731205e-03
1.780842e+02	-4.785987e-03
1.791128e+02	-4.841403e-03
1.801473e+02	-4.897460e-03
1.811878e+02	-4.954166e-03
1.822344e+02	-5.011528e-03
1.832870e+02	-5.069554e-03
1.843456e+02	-5.128251e-03
1.854104e+02	-5.187628e-03
1.864813e+02	-5.247691e-03
1.875584e+02	-5.308450e-03
1.886418e+02	-5.369911e-03
1.897313e+02	-5.432084e-03
1.908272e+02	-5.494976e-03
1.919294e+02	-5.558596e-03
1.930380e+02	-5.622952e-03
1.941530e+02	-5.688053e-03
1.952744e+02	-5.753906e-03
1.964023e+02	-5.820522e-03
1.975367e+02	-5.887908e-03
1.986777e+02	-5.956074e-03
1.998252e+02	-6.025029e-03
2.009794e+02	-6.094781e-03
2.021403e+02	-6.165341e-03
2.033078e+02	-6.236716e-03
2.044821e+02	-6.308918e-03
2.056632e+02	-6.381954e-03
2.068511e+02	-6.455836e-03
2.080459e+02	-6.530572e-03
2.092475e+02	-6.606172e-03
2.104561e+02	-6.682648e-03
2.116717e+02	-6.760007e-03
2.128943e+02	-6.838262e-03
2.141240e+02	-6.917422e-03
2.153608e+02	-6.997497e-03
2.166047e+02	-7.078498e-03
2.178558e+02	-7.160437e-03
2.191141e+02	-7.243323e-03
2.203797e+02	-7.327167e-03
2.216526e+02	-7.411982e-03
2.229329e+02	-7.497777e-03
2.242205e+02	-7.584565e-03
2.255156e+02	-7.672356e-03
2.268182e+02	-7.761162e-03
2.281283e+02	-7.850996e-03
2.294459e+02	-7.941868e-03
2.307712e+02	-8.033791e-03
2.321041e+02	-8.126778e-03
2.334447e+02	-8.220839e-03
2.347931e+02	-8.315988e-03
2.361493e+02	-8.412237e-03
2.375133e+02	-8.509599e-03
2.388851e+02	-8.608087e-03
2.402649e+02	-8.707714e-03
2.416527e+02	-8.808492e-03
2.430484e+02	-8.910435e-03
2.444523e+02	-9.013558e-03
2.458642e+02	-9.117872e-03
2.472843e+02	-9.223392e-03
2.487126e+02	-9.330132e-03
2.501492e+02	-9.438106e-03
2.515940e+02	-9.547329e-03
2.530472e+02	-9.657813e-03
2.545088e+02	-9.769575e-03
2.559789e+02	-9.882629e-03
2.574574e+02	-9.996990e-03
2.589444e+02	-1.011267e-02
2.604401e+02	-1.022969e-02
2.619444e+02	-1.034806e-02
2.634574e+02	-1.046780e-02
2.649791e+02	-1.058893e-02
2.665096e+02	-1.071145e-02
2.680489e+02	-1.083539e-02
2.695972e+02	-1.096076e-02
2.711544e+02	-1.108758e-02
2.727205e+02	-1.121587e-02
2.742958e+02	-1.134564e-02
2.758801e+02	-1.147690e-02
2.774736e+02	-1.160969e-02
2.790762e+02	-1.174401e-02
2.806882e+02	-1.187988e-02
2.823094e+02	-1.201732e-02
2.839400e+02	-1.215635e-02
2.855800e+02	-1.229698e-02
2.872295e+02	-1.243924e-02
2.888886e+02	-1.258314e-02
2.905572e+02	-1.272870e-02
2.922354e+02	-1.287595e-02
2.939234e+02	-1.302490e-02
2.956211e+02	-1.317556e-02
2.973286e+02	-1.332797e-02
2.990459e+02	-1.348214e-02
3.007732e+02	-1.363809e-02
3.025104e+02	-1.379583e-02
3.042577e+02	-1.395541e-02
3.060151e+02	-1.411682e-02
3.077826e+02	-1.428010e-02
3.095604e+02	-1.444526e-02
3.113484e+02	-1.461233e-02
3.131467e+02	-1.478133e-02
3.149554e+02	-1.495227e-02
3.167746e+02	-1.512520e-02
3.186043e+02	-1.530012e-02
3.204445e+02	-1.547706e-02
3.222954e+02	-1.565604e-02
3.241570e+02	-1.583708e-02
3.260293e+02	-1.602022e-02
3.279124e+02	-1.620547e-02
3.298064e+02	-1.639286e-02
3.317114e+02	-1.658241e-02
3.336273e+02	-1.677415e-02
3.355544e+02	-1.696810e-02
3.374925e+02	-1.716429e-02
3.394418e+02	-1.736274e-02
3.414024e+02	-1.756349e-02
3.433744e+02	-1.776655e-02
3.453577e+02	-1.797195e-02
3.473525e+02	-1.817972e-02
3.493588e+02	-1.838989e-02
3.513766e+02	-1.860248e-02
3.534062e+02	-1.881753e-02
3.554474e+02	-1.903506e-02
3.575005e+02	-1.925509e-02
3.595654e+02	-1.947766e-02
3.616422e+02	-1.970280e-02
3.637311e+02	-1.993054e-02
3.658320e+02	-2.016090e-02
3.679450e+02	-2.039392e-02
3.700702e+02	-2.062963e-02
3.722077e+02	-2.086805e-02
3.743576e+02	-2.110922e-02
3.765199e+02	-2.135317e-02
3.786946e+02	-2.159994e-02
3.808820e+02	-2.184955e-02
3.830819e+02	-2.210203e-02
3.852946e+02	-2.235743e-02
3.875200e+02	-2.261577e-02
3.897583e+02	-2.287708e-02
3.920096e+02	-2.314141e-02
3.942738e+02	-2.340879e-02
3.965511e+02	-2.367924e-02
3.988416e+02	-2.395281e-02
4.011452e+02	-2.422953e-02
4.034622e+02	-2.450944e-02
4.057926e+02	-2.479258e-02
4.081365e+02	-2.507897e-02
4.104938e+02	-2.536867e-02
4.128648e+02	-2.566170e-02
4.152495e+02	-2.595810e-02
4.176480e+02	-2.625792e-02
4.200603e+02	-2.656119e-02
4.224866e+02	-2.686796e-02
4.249268e+02	-2.717825e-02
4.273812e+02	-2.749212e-02
4.298497e+02	-2.780960e-02
4.323325e+02	-2.813073e-02
4.348297e+02	-2.845556e-02
4.373412e+02	-2.878413e-02
4.398673e+02	-2.911648e-02
4.424079e+02	-2.945265e-02
4.449633e+02	-2.979269e-02
4.475334e+02	-3.013665e-02
4.501183e+02	-3.048456e-02
4.527182e+02	-3.083647e-02
4.553330e+02	-3.119243e-02
4.579630e+02	-3.155249e-02
4.606082e+02	-3.191668e-02
4.632687e+02	-3.228507e-02
4.659445e+02	-3.265769e-02
4.686358e+02	-3.303459e-02
4.713426e+02	-3.341583e-02
4.740650e+02	-3.380145e-02
4.768032e+02	-3.419150e-02
4.795572e+02	-3.458603e-02
4.823271e+02	-3.498510e-02
4.851130e+02	-3.538876e-02
4.879150e+02	-3.579705e-02
4.907332e+02	-3.621003e-02
4.935676e+02	-3.662776e-02
4.964185e+02	-3.705028e-02
4.992858e+02	-3.747766e-02
5.021696e+02	-3.790995e-02
5.050701e+02	-3.834720e-02
5.079874e+02	-3.878947e-02
5.109215e+02	-3.923682e-02
5.138726e+02	-3.968931e-02
5.168407e+02	-4.014699e-02
5.198259e+02	-4.060992e-02
5.228284e+02	-4.107816e-02
5.258482e+02	-4.155178e-02
5.288855e+02	-4.203083e-02
5.319403e+02	-4.251538e-02
5.350128e+02	-4.300549e-02
5.381030e+02	-4.350121e-02
5.412111e+02	-4.400263e-02
5.443371e+02	-4.450979e-02
5.474812e+02	-4.502277e-02
5.506434e+02	-4.554162e-02
5.538239e+02	-4.606643e-02
5.570228e+02	-4.659725e-02
5.602401e+02	-4.713415e-02
5.634760e+02	-4.767721e-02
5.667306e+02	-4.822649e-02
5.700040e+02	-4.878206e-02
5.732964e+02	-4.934399e-02
5.766077e+02	-4.991236e-02
5.799382e+02	-5.048724e-02
5.832879e+02	-5.106870e-02
5.866569e+02	-5.165682e-02
5.900454e+02	-5.225167e-02
5.934535e+02	-5.285333e-02
5.968813e+02	-5.346187e-02
6.003288e+02	-5.407737e-02
6.037963e+02	-5.469992e-02
6.072838e+02	-5.532959e-02
6.107914e+02	-5.596646e-02
6.143194e+02	-5.661061e-02
6.178676e+02	-5.726212e-02
6.214364e+02	-5.792109e-02
6.250258e+02	-5.858759e-02
6.286359e+02	-5.926170e-02
6.322669e+02	-5.994351e-02
6.359189e+02	-6.063312e-02
6.395919e+02	-6.133060e-02
6.432862e+02	-6.203605e-02
6.470017e+02	-6.274955e-02
6.507388e+02	-6.347120e-02
6.544974e+02	-6.420109e-02
6.582778e+02	-6.493931e-02
6.620800e+02	-6.568595e-02
6.659041e+02	-6.644111e-02
6.697504e+02	-6.720488e-02
6.736188e+02	-6.797737e-02
6.775096e+02	-6.875866e-02
6.814229e+02	-6.954887e-02
6.853587e+02	-7.034807e-02
6.893173e+02	-7.115639e-02
6.932988e+02	-7.197392e-02
6.973033e+02	-7.280076e-02
7.013309e+02	-7.363702e-02
