Frequency(Hz)	Magnitude(dB)
1.000000e+01	-2.092339e+00
1.005776e+01	-2.111605e+00
1.011585e+01	-2.130687e+00
1.017428e+01	-2.150307e+00
1.023305e+01	-2.169986e+00
1.029215e+01	-2.189623e+00
1.035160e+01	-2.209341e+00
1.041139e+01	-2.229509e+00
1.047153e+01	-2.249396e+00
1.053201e+01	-2.269684e+00
1.059284e+01	-2.290353e+00
1.065403e+01	-2.311100e+00
1.071556e+01	-2.331577e+00
1.077746e+01	-2.352573e+00
1.083971e+01	-2.373423e+00
1.090232e+01	-2.394601e+00
1.096529e+01	-2.415841e+00
1.102862e+01	-2.437224e+00
1.109232e+01	-2.458916e+00
1.115639e+01	-2.480638e+00
1.122083e+01	-2.502530e+00
1.128564e+01	-2.524406e+00
1.135083e+01	-2.546451e+00
1.141639e+01	-2.568639e+00
1.148233e+01	-2.591282e+00
1.154865e+01	-2.613889e+00
1.161536e+01	-2.636308e+00
1.168245e+01	-2.659236e+00
1.174992e+01	-2.682048e+00
1.181779e+01	-2.705406e+00
1.188605e+01	-2.728768e+00
1.195470e+01	-2.751866e+00
1.202375e+01	-2.775528e+00
1.209320e+01	-2.799097e+00
1.216305e+01	-2.823025e+00
1.223330e+01	-2.846871e+00
1.230396e+01	-2.871096e+00
1.237503e+01	-2.895489e+00
1.244651e+01	-2.919725e+00
1.251840e+01	-2.944391e+00
1.259070e+01	-2.969137e+00
1.266343e+01	-2.993880e+00
1.273657e+01	-3.018718e+00
1.281014e+01	-3.044064e+00
1.288413e+01	-3.069412e+00
1.295855e+01	-3.094951e+00
1.303339e+01	-3.120532e+00
1.310867e+01	-3.146162e+00
1.318439e+01	-3.172087e+00
1.326054e+01	-3.197889e+00
1.333713e+01	-3.224151e+00
1.341417e+01	-3.250651e+00
1.349165e+01	-3.276829e+00
1.356958e+01	-3.303518e+00
1.364795e+01	-3.330268e+00
1.372678e+01	-3.356754e+00
1.380607e+01	-3.383887e+00
1.388581e+01	-3.411121e+00
1.396602e+01	-3.438143e+00
1.404668e+01	-3.465831e+00
1.412782e+01	-3.493589e+00
1.420942e+01	-3.521237e+00
1.429149e+01	-3.549050e+00
1.437404e+01	-3.576898e+00
1.445706e+01	-3.605086e+00
1.454057e+01	-3.633448e+00
1.462455e+01	-3.661670e+00
1.470902e+01	-3.690201e+00
1.479398e+01	-3.719215e+00
1.487943e+01	-3.747997e+00
1.496537e+01	-3.776700e+00
1.505181e+01	-3.805875e+00
1.513875e+01	-3.835266e+00
1.522619e+01	-3.864870e+00
1.531414e+01	-3.894468e+00
1.540259e+01	-3.923835e+00
1.549156e+01	-3.953860e+00
1.558103e+01	-3.984028e+00
1.567103e+01	-4.013789e+00
1.576155e+01	-4.044172e+00
1.585258e+01	-4.074814e+00
1.594415e+01	-4.104705e+00
1.603624e+01	-4.135487e+00
1.612886e+01	-4.166312e+00
1.622202e+01	-4.197524e+00
1.631572e+01	-4.228349e+00
1.640996e+01	-4.259843e+00
1.650474e+01	-4.290914e+00
1.660008e+01	-4.322398e+00
1.669596e+01	-4.353950e+00
1.679239e+01	-4.385650e+00
1.688938e+01	-4.417542e+00
1.698694e+01	-4.449559e+00
1.708505e+01	-4.481941e+00
1.718373e+01	-4.513861e+00
1.728299e+01	-4.546382e+00
1.738281e+01	-4.579007e+00
1.748322e+01	-4.611577e+00
1.758420e+01	-4.644272e+00
1.768576e+01	-4.677398e+00
1.778792e+01	-4.710586e+00
1.789066e+01	-4.743394e+00
1.799399e+01	-4.776795e+00
1.809793e+01	-4.810156e+00
1.820246e+01	-4.843878e+00
1.830760e+01	-4.877621e+00
1.841334e+01	-4.911347e+00
1.851969e+01	-4.945312e+00
1.862666e+01	-4.979331e+00
1.873425e+01	-5.013812e+00
1.884246e+01	-5.047949e+00
1.895129e+01	-5.082478e+00
1.906075e+01	-5.116618e+00
1.917085e+01	-5.151666e+00
1.928158e+01	-5.186607e+00
1.939295e+01	-5.221321e+00
1.950496e+01	-5.256248e+00
1.961762e+01	-5.291567e+00
1.973093e+01	-5.326784e+00
1.984490e+01	-5.362268e+00
1.995952e+01	-5.398039e+00
2.007480e+01	-5.433181e+00
2.019076e+01	-5.469152e+00
2.030738e+01	-5.505341e+00
2.042467e+01	-5.541120e+00
2.054264e+01	-5.577207e+00
2.066130e+01	-5.613510e+00
2.078064e+01	-5.649653e+00
2.090066e+01	-5.686258e+00
2.102139e+01	-5.722491e+00
2.114280e+01	-5.759648e+00
2.126492e+01	-5.796722e+00
2.138775e+01	-5.833142e+00
2.151128e+01	-5.870019e+00
2.163553e+01	-5.907369e+00
2.176050e+01	-5.944656e+00
2.188619e+01	-5.981890e+00
2.201260e+01	-6.019403e+00
2.213974e+01	-6.057076e+00
2.226762e+01	-6.094624e+00
2.239624e+01	-6.132400e+00
2.252560e+01	-6.170309e+00
2.265571e+01	-6.208201e+00
2.278656e+01	-6.246701e+00
2.291818e+01	-6.284744e+00
2.305055e+01	-6.322848e+00
2.318369e+01	-6.361474e+00
2.331760e+01	-6.400193e+00
2.345228e+01	-6.438450e+00
2.358774e+01	-6.477441e+00
2.372398e+01	-6.515998e+00
2.386101e+01	-6.554825e+00
2.399883e+01	-6.593969e+00
2.413745e+01	-6.633109e+00
2.427686e+01	-6.672617e+00
2.441709e+01	-6.711602e+00
2.455812e+01	-6.751248e+00
2.469997e+01	-6.790511e+00
2.484263e+01	-6.829977e+00
2.498612e+01	-6.870176e+00
2.513044e+01	-6.909552e+00
2.527559e+01	-6.949702e+00
2.542158e+01	-6.989145e+00
2.556842e+01	-7.029522e+00
2.571610e+01	-7.069858e+00
2.586463e+01	-7.109623e+00
2.601403e+01	-7.150080e+00
2.616428e+01	-7.190976e+00
2.631541e+01	-7.231072e+00
2.646740e+01	-7.271759e+00
2.662028e+01	-7.312780e+00
2.677404e+01	-7.353123e+00
2.692868e+01	-7.394173e+00
2.708422e+01	-7.435109e+00
2.724066e+01	-7.476275e+00
2.739800e+01	-7.517495e+00
2.755625e+01	-7.558805e+00
2.771541e+01	-7.600048e+00
2.787550e+01	-7.641129e+00
2.803650e+01	-7.682560e+00
2.819844e+01	-7.724425e+00
2.836131e+01	-7.765689e+00
2.852513e+01	-7.807216e+00
2.868989e+01	-7.849137e+00
2.885560e+01	-7.891061e+00
2.902227e+01	-7.933056e+00
2.918990e+01	-7.974588e+00
2.935850e+01	-8.017118e+00
2.952807e+01	-8.059355e+00
2.969863e+01	-8.101403e+00
2.987016e+01	-8.144127e+00
3.004269e+01	-8.186178e+00
3.021622e+01	-8.228970e+00
3.039075e+01	-8.270892e+00
3.056628e+01	-8.313824e+00
3.074283e+01	-8.356618e+00
3.092040e+01	-8.399666e+00
3.109900e+01	-8.442245e+00
3.127862e+01	-8.485094e+00
3.145929e+01	-8.528030e+00
3.164099e+01	-8.571063e+00
3.182375e+01	-8.614020e+00
3.200756e+01	-8.657603e+00
3.219244e+01	-8.700914e+00
3.237838e+01	-8.744315e+00
3.256540e+01	-8.787308e+00
3.275349e+01	-8.830993e+00
3.294268e+01	-8.874190e+00
3.313295e+01	-8.917610e+00
3.332433e+01	-8.961540e+00
3.351681e+01	-9.004577e+00
3.371040e+01	-9.048485e+00
3.390511e+01	-9.092594e+00
3.410094e+01	-9.136684e+00
3.429791e+01	-9.180765e+00
3.449601e+01	-9.225010e+00
3.469526e+01	-9.268706e+00
3.489566e+01	-9.312650e+00
3.509721e+01	-9.356677e+00
3.529993e+01	-9.401331e+00
3.550382e+01	-9.445818e+00
3.570889e+01	-9.489810e+00
3.591515e+01	-9.534742e+00
3.612259e+01	-9.578913e+00
3.633123e+01	-9.623549e+00
3.654108e+01	-9.667658e+00
3.675214e+01	-9.712431e+00
3.696442e+01	-9.757372e+00
3.717792e+01	-9.802032e+00
3.739266e+01	-9.847229e+00
3.760864e+01	-9.892142e+00
3.782587e+01	-9.936981e+00
3.804435e+01	-9.981588e+00
3.826409e+01	-1.002645e+01
3.848510e+01	-1.007218e+01
3.870739e+01	-1.011731e+01
3.893096e+01	-1.016241e+01
3.915583e+01	-1.020756e+01
3.938199e+01	-1.025274e+01
3.960946e+01	-1.029804e+01
3.983824e+01	-1.034394e+01
4.006834e+01	-1.038891e+01
4.029978e+01	-1.043415e+01
4.053255e+01	-1.047965e+01
4.076666e+01	-1.052510e+01
4.100213e+01	-1.057049e+01
4.123896e+01	-1.061624e+01
4.147715e+01	-1.066210e+01
4.171672e+01	-1.070807e+01
4.195767e+01	-1.075358e+01
4.220002e+01	-1.079959e+01
4.244377e+01	-1.084581e+01
4.268892e+01	-1.089127e+01
4.293549e+01	-1.093821e+01
4.318348e+01	-1.098368e+01
4.343291e+01	-1.102990e+01
4.368377e+01	-1.107555e+01
4.393609e+01	-1.112165e+01
4.418986e+01	-1.116830e+01
4.444510e+01	-1.121422e+01
4.470182e+01	-1.126092e+01
4.496001e+01	-1.130711e+01
4.521970e+01	-1.135302e+01
4.548089e+01	-1.139962e+01
4.574358e+01	-1.144673e+01
4.600779e+01	-1.149238e+01
4.627353e+01	-1.153905e+01
4.654081e+01	-1.158575e+01
4.680963e+01	-1.163156e+01
4.708000e+01	-1.167852e+01
4.735193e+01	-1.172523e+01
4.762543e+01	-1.177263e+01
4.790051e+01	-1.181825e+01
4.817719e+01	-1.186551e+01
4.845545e+01	-1.191307e+01
4.873533e+01	-1.195913e+01
4.901682e+01	-1.200599e+01
4.929994e+01	-1.205321e+01
4.958470e+01	-1.209990e+01
4.987110e+01	-1.214727e+01
5.015915e+01	-1.219359e+01
5.044887e+01	-1.224058e+01
5.074026e+01	-1.228735e+01
5.103333e+01	-1.233480e+01
5.132810e+01	-1.238186e+01
5.162457e+01	-1.242943e+01
5.192275e+01	-1.247573e+01
5.222265e+01	-1.252338e+01
5.252429e+01	-1.257035e+01
5.282767e+01	-1.261822e+01
5.313280e+01	-1.266522e+01
5.343969e+01	-1.271244e+01
5.374836e+01	-1.276043e+01
5.405880e+01	-1.280802e+01
5.437105e+01	-1.285485e+01
5.468509e+01	-1.290252e+01
5.500095e+01	-1.294909e+01
5.531863e+01	-1.299757e+01
5.563815e+01	-1.304518e+01
5.595951e+01	-1.309271e+01
5.628273e+01	-1.314065e+01
5.660782e+01	-1.318722e+01
5.693479e+01	-1.323622e+01
5.726364e+01	-1.328308e+01
5.759439e+01	-1.333015e+01
5.792705e+01	-1.337793e+01
5.826164e+01	-1.342652e+01
5.859815e+01	-1.347366e+01
5.893662e+01	-1.352141e+01
5.927703e+01	-1.356966e+01
5.961941e+01	-1.361668e+01
5.996377e+01	-1.366478e+01
6.031012e+01	-1.371269e+01
6.065847e+01	-1.376083e+01
6.100883e+01	-1.380856e+01
6.136121e+01	-1.385714e+01
6.171563e+01	-1.390546e+01
6.207210e+01	-1.395273e+01
6.243063e+01	-1.400094e+01
6.279122e+01	-1.404908e+01
6.315390e+01	-1.409667e+01
6.351868e+01	-1.414639e+01
6.388556e+01	-1.419295e+01
6.425456e+01	-1.424113e+01
6.462569e+01	-1.428906e+01
6.499897e+01	-1.433818e+01
6.537440e+01	-1.438644e+01
6.575200e+01	-1.443431e+01
6.613178e+01	-1.448236e+01
6.651375e+01	-1.453124e+01
6.689793e+01	-1.457872e+01
6.728433e+01	-1.462811e+01
6.767297e+01	-1.467599e+01
6.806384e+01	-1.472355e+01
6.845698e+01	-1.477171e+01
6.885238e+01	-1.482054e+01
6.925007e+01	-1.486930e+01
6.965005e+01	-1.491771e+01
7.005235e+01	-1.496534e+01
7.045697e+01	-1.501419e+01
7.086393e+01	-1.506269e+01
7.127323e+01	-1.511117e+01
7.168490e+01	-1.515939e+01
7.209895e+01	-1.520860e+01
7.251539e+01	-1.525708e+01
7.293424e+01	-1.530527e+01
7.335551e+01	-1.535287e+01
7.377920e+01	-1.540289e+01
7.420535e+01	-1.545089e+01
7.463396e+01	-1.549979e+01
7.506504e+01	-1.554767e+01
7.549861e+01	-1.559633e+01
7.593469e+01	-1.564580e+01
7.637328e+01	-1.569366e+01
7.681441e+01	-1.574281e+01
7.725809e+01	-1.579199e+01
7.770433e+01	-1.584071e+01
7.815315e+01	-1.588946e+01
7.860456e+01	-1.593749e+01
7.905857e+01	-1.598671e+01
7.951521e+01	-1.603465e+01
7.997449e+01	-1.608319e+01
8.043642e+01	-1.613290e+01
8.090102e+01	-1.618241e+01
8.136830e+01	-1.622942e+01
8.183828e+01	-1.627988e+01
8.231097e+01	-1.632787e+01
8.278640e+01	-1.637662e+01
8.326457e+01	-1.642701e+01
8.374550e+01	-1.647510e+01
8.422921e+01	-1.652354e+01
8.471572e+01	-1.657217e+01
8.520503e+01	-1.662249e+01
8.569717e+01	-1.667218e+01
8.619215e+01	-1.672005e+01
8.669000e+01	-1.676888e+01
8.719071e+01	-1.681705e+01
8.769432e+01	-1.686645e+01
8.820084e+01	-1.691530e+01
8.871029e+01	-1.696409e+01
8.922267e+01	-1.701293e+01
8.973802e+01	-1.706305e+01
9.025634e+01	-1.711166e+01
9.077766e+01	-1.716108e+01
9.130199e+01	-1.720931e+01
9.182935e+01	-1.725802e+01
9.235975e+01	-1.730789e+01
9.289321e+01	-1.735702e+01
9.342976e+01	-1.740548e+01
9.396941e+01	-1.745473e+01
9.451217e+01	-1.750469e+01
9.505807e+01	-1.755327e+01
9.560712e+01	-1.760173e+01
9.615934e+01	-1.765043e+01
9.671476e+01	-1.770104e+01
9.727338e+01	-1.775124e+01
9.783522e+01	-1.780021e+01
9.840032e+01	-1.784758e+01
9.896867e+01	-1.789787e+01
9.954031e+01	-1.794828e+01
1.001153e+02	-1.799497e+01
1.006935e+02	-1.804549e+01
1.012751e+02	-1.809582e+01
1.018601e+02	-1.814376e+01
1.024484e+02	-1.819312e+01
1.030402e+02	-1.824297e+01
1.036353e+02	-1.829140e+01
1.042339e+02	-1.834038e+01
1.048360e+02	-1.839055e+01
1.054415e+02	-1.843925e+01
1.060505e+02	-1.848881e+01
1.066631e+02	-1.853863e+01
1.072791e+02	-1.858821e+01
1.078988e+02	-1.863734e+01
1.085220e+02	-1.868689e+01
1.091488e+02	-1.873611e+01
1.097793e+02	-1.878545e+01
1.104133e+02	-1.883496e+01
1.110511e+02	-1.888479e+01
1.116925e+02	-1.893203e+01
1.123376e+02	-1.898315e+01
1.129865e+02	-1.903262e+01
1.136391e+02	-1.908241e+01
1.142955e+02	-1.913072e+01
1.149556e+02	-1.918093e+01
1.156196e+02	-1.922911e+01
1.162874e+02	-1.928003e+01
1.169591e+02	-1.932765e+01
1.176347e+02	-1.937754e+01
1.183141e+02	-1.942688e+01
1.189975e+02	-1.947772e+01
1.196848e+02	-1.952678e+01
1.203761e+02	-1.957578e+01
1.210714e+02	-1.962548e+01
1.217707e+02	-1.967505e+01
1.224740e+02	-1.972432e+01
1.231814e+02	-1.977311e+01
1.238929e+02	-1.982325e+01
1.246085e+02	-1.987305e+01
1.253283e+02	-1.992266e+01
1.260522e+02	-1.997190e+01
1.267802e+02	-2.002272e+01
1.275125e+02	-2.007146e+01
1.282490e+02	-2.012045e+01
1.289898e+02	-2.017139e+01
1.297348e+02	-2.022087e+01
1.304842e+02	-2.027008e+01
1.312378e+02	-2.031880e+01
1.319959e+02	-2.036831e+01
1.327583e+02	-2.042045e+01
1.335251e+02	-2.046843e+01
1.342963e+02	-2.051636e+01
1.350720e+02	-2.056662e+01
1.358522e+02	-2.061541e+01
1.366368e+02	-2.066537e+01
1.374260e+02	-2.071575e+01
1.382198e+02	-2.076664e+01
1.390182e+02	-2.081543e+01
1.398211e+02	-2.086489e+01
1.406287e+02	-2.091516e+01
1.414410e+02	-2.096454e+01
1.422579e+02	-2.101403e+01
1.430796e+02	-2.106341e+01
1.439060e+02	-2.111262e+01
1.447372e+02	-2.116210e+01
1.455732e+02	-2.121225e+01
1.464141e+02	-2.126155e+01
1.472597e+02	-2.131170e+01
1.481103e+02	-2.136075e+01
1.489658e+02	-2.141080e+01
1.498262e+02	-2.146038e+01
1.506916e+02	-2.151123e+01
1.515620e+02	-2.156098e+01
1.524374e+02	-2.160734e+01
1.533179e+02	-2.166097e+01
1.542034e+02	-2.170937e+01
1.550941e+02	-2.175785e+01
1.559899e+02	-2.180963e+01
1.568909e+02	-2.185841e+01
1.577971e+02	-2.190698e+01
1.587085e+02	-2.195808e+01
1.596252e+02	-2.200951e+01
1.605472e+02	-2.205837e+01
1.614745e+02	-2.210660e+01
1.624072e+02	-2.215754e+01
1.633453e+02	-2.220752e+01
1.642887e+02	-2.225292e+01
1.652377e+02	-2.230682e+01
1.661921e+02	-2.235811e+01
1.671520e+02	-2.240702e+01
1.681175e+02	-2.245516e+01
1.690885e+02	-2.250507e+01
1.700651e+02	-2.255439e+01
1.710474e+02	-2.260635e+01
1.720354e+02	-2.265297e+01
1.730291e+02	-2.270303e+01
1.740285e+02	-2.275433e+01
1.750337e+02	-2.280472e+01
1.760446e+02	-2.285407e+01
1.770615e+02	-2.290251e+01
1.780842e+02	-2.295317e+01
1.791128e+02	-2.300357e+01
1.801473e+02	-2.305269e+01
1.811878e+02	-2.310295e+01
1.822344e+02	-2.315067e+01
1.832870e+02	-2.320191e+01
1.843456e+02	-2.325417e+01
1.854104e+02	-2.330158e+01
1.864813e+02	-2.335090e+01
1.875584e+02	-2.340145e+01
1.886418e+02	-2.345238e+01
1.897313e+02	-2.350304e+01
1.908272e+02	-2.355247e+01
1.919294e+02	-2.359867e+01
1.930380e+02	-2.365100e+01
1.941530e+02	-2.370082e+01
1.952744e+02	-2.374954e+01
1.964023e+02	-2.380098e+01
1.975367e+02	-2.385051e+01
1.986777e+02	-2.390126e+01
1.998252e+02	-2.394729e+01
2.009794e+02	-2.399965e+01
2.021403e+02	-2.404839e+01
2.033078e+02	-2.409891e+01
2.044821e+02	-2.414757e+01
2.056632e+02	-2.420239e+01
2.068511e+02	-2.424358e+01
2.080459e+02	-2.429809e+01
2.092475e+02	-2.435126e+01
2.104561e+02	-2.440117e+01
2.116717e+02	-2.444655e+01
2.128943e+02	-2.449624e+01
2.141240e+02	-2.454798e+01
2.153608e+02	-2.459761e+01
2.166047e+02	-2.464813e+01
2.178558e+02	-2.469631e+01
2.191141e+02	-2.475062e+01
2.203797e+02	-2.479730e+01
2.216526e+02	-2.484585e+01
2.229329e+02	-2.489886e+01
2.242205e+02	-2.494507e+01
2.255156e+02	-2.499608e+01
2.268182e+02	-2.504714e+01
2.281283e+02	-2.510045e+01
2.294459e+02	-2.514580e+01
2.307712e+02	-2.519956e+01
2.321041e+02	-2.524558e+01
2.334447e+02	-2.529800e+01
2.347931e+02	-2.534640e+01
2.361493e+02	-2.539536e+01
2.375133e+02	-2.544879e+01
2.388851e+02	-2.549400e+01
2.402649e+02	-2.554692e+01
2.416527e+02	-2.559599e+01
2.430484e+02	-2.564529e+01
2.444523e+02	-2.569688e+01
2.458642e+02	-2.574185e+01
2.472843e+02	-2.579666e+01
2.487126e+02	-2.584703e+01
2.501492e+02	-2.589575e+01
2.515940e+02	-2.594452e+01
2.530472e+02	-2.599812e+01
2.545088e+02	-2.604465e+01
2.559789e+02	-2.609511e+01
2.574574e+02	-2.614440e+01
2.589444e+02	-2.619383e+01
2.604401e+02	-2.624570e+01
2.619444e+02	-2.629601e+01
2.634574e+02	-2.634627e+01
2.649791e+02	-2.639332e+01
2.665096e+02	-2.644605e+01
2.680489e+02	-2.649607e+01
2.695972e+02	-2.654367e+01
2.711544e+02	-2.659430e+01
2.727205e+02	-2.664640e+01
2.742958e+02	-2.669467e+01
2.758801e+02	-2.674259e+01
2.774736e+02	-2.679365e+01
2.790762e+02	-2.684767e+01
2.806882e+02	-2.689166e+01
2.823094e+02	-2.694265e+01
2.839400e+02	-2.699553e+01
2.855800e+02	-2.704416e+01
2.872295e+02	-2.709466e+01
2.888886e+02	-2.714436e+01
2.905572e+02	-2.719548e+01
2.922354e+02	-2.724636e+01
2.939234e+02	-2.729554e+01
2.956211e+02	-2.734652e+01
2.973286e+02	-2.739652e+01
2.990459e+02	-2.744733e+01
3.007732e+02	-2.749592e+01
3.025104e+02	-2.754699e+01
3.042577e+02	-2.759430e+01
3.060151e+02	-2.764653e+01
3.077826e+02	-2.769211e+01
3.095604e+02	-2.774372e+01
3.113484e+02	-2.779437e+01
3.131467e+02	-2.784243e+01
3.149554e+02	-2.789814e+01
3.167746e+02	-2.794810e+01
3.186043e+02	-2.799169e+01
3.204445e+02	-2.804447e+01
3.222954e+02	-2.809475e+01
3.241570e+02	-2.814355e+01
3.260293e+02	-2.819552e+01
3.279124e+02	-2.824761e+01
3.298064e+02	-2.829560e+01
3.317114e+02	-2.834320e+01
3.336273e+02	-2.840123e+01
3.355544e+02	-2.845058e+01
3.374925e+02	-2.849457e+01
3.394418e+02	-2.854588e+01
3.414024e+02	-2.859744e+01
3.433744e+02	-2.864314e+01
3.453577e+02	-2.869564e+01
3.473525e+02	-2.874438e+01
3.493588e+02	-2.879717e+01
3.513766e+02	-2.884692e+01
3.534062e+02	-2.889483e+01
3.554474e+02	-2.895165e+01
3.575005e+02	-2.899744e+01
3.595654e+02	-2.904569e+01
3.616422e+02	-2.910280e+01
3.637311e+02	-2.914399e+01
3.658320e+02	-2.919790e+01
3.679450e+02	-2.924951e+01
3.700702e+02	-2.929630e+01
3.722077e+02	-2.934491e+01
3.743576e+02	-2.939451e+01
3.765199e+02	-2.945065e+01
3.786946e+02	-2.950022e+01
3.808820e+02	-2.954685e+01
3.830819e+02	-2.959817e+01
3.852946e+02	-2.964473e+01
3.875200e+02	-2.969843e+01
3.897583e+02	-2.974775e+01
3.920096e+02	-2.979282e+01
3.942738e+02	-2.984214e+01
3.965511e+02	-2.989703e+01
3.988416e+02	-2.994798e+01
4.011452e+02	-3.000104e+01
4.034622e+02	-3.004694e+01
4.057926e+02	-3.009970e+01
4.081365e+02	-3.015071e+01
4.104938e+02	-3.020215e+01
4.128648e+02	-3.024616e+01
4.152495e+02	-3.029973e+01
4.176480e+02	-3.034926e+01
4.200603e+02	-3.039936e+01
4.224866e+02	-3.045158e+01
4.249268e+02	-3.049668e+01
4.273812e+02	-3.055070e+01
4.298497e+02	-3.059531e+01
4.323325e+02	-3.065064e+01
4.348297e+02	-3.069469e+01
4.373412e+02	-3.074849e+01
4.398673e+02	-3.079855e+01
4.424079e+02	-3.084530e+01
4.449633e+02	-3.089885e+01
4.475334e+02	-3.095112e+01
4.501183e+02	-3.100262e+01
4.527182e+02	-3.105253e+01
4.553330e+02	-3.109484e+01
4.579630e+02	-3.114854e+01
4.606082e+02	-3.119965e+01
4.632687e+02	-3.125037e+01
4.659445e+02	-3.130132e+01
4.686358e+02	-3.134998e+01
4.713426e+02	-3.139992e+01
4.740650e+02	-3.144668e+01
4.768032e+02	-3.150195e+01
4.795572e+02	-3.155032e+01
4.823271e+02	-3.161052e+01
4.851130e+02	-3.165030e+01
4.879150e+02	-3.170622e+01
4.907332e+02	-3.175463e+01
4.935676e+02	-3.179990e+01
4.964185e+02	-3.184823e+01
4.992858e+02	-3.190148e+01
5.021696e+02	-3.194792e+01
5.050701e+02	-3.200055e+01
5.079874e+02	-3.205335e+01
5.109215e+02	-3.210487e+01
5.138726e+02	-3.214952e+01
5.168407e+02	-3.220724e+01
5.198259e+02	-3.225787e+01
5.228284e+02	-3.230948e+01
5.258482e+02	-3.235939e+01
5.288855e+02	-3.240118e+01
5.319403e+02	-3.245669e+01
5.350128e+02	-3.251101e+01
5.381030e+02	-3.255295e+01
5.412111e+02	-3.260610e+01
5.443371e+02	-3.266229e+01
5.474812e+02	-3.270612e+01
5.506434e+02	-3.276057e+01
5.538239e+02	-3.280599e+01
5.570228e+02	-3.285084e+01
5.602401e+02	-3.290747e+01
5.634760e+02	-3.295859e+01
5.667306e+02	-3.300818e+01
5.700040e+02	-3.305391e+01
5.732964e+02	-3.310881e+01
5.766077e+02	-3.315878e+01
5.799382e+02	-3.320877e+01
5.832879e+02	-3.325725e+01
5.866569e+02	-3.330686e+01
5.900454e+02	-3.335478e+01
5.934535e+02	-3.340855e+01
5.968813e+02	-3.346274e+01
6.003288e+02	-3.350186e+01
6.037963e+02	-3.355952e+01
6.072838e+02	-3.361740e+01
6.107914e+02	-3.366588e+01
6.143194e+02	-3.371474e+01
6.178676e+02	-3.375986e+01
6.214364e+02	-3.381086e+01
6.250258e+02	-3.386187e+01
6.286359e+02	-3.391170e+01
6.322669e+02	-3.396758e+01
6.359189e+02	-3.402106e+01
6.395919e+02	-3.406247e+01
6.432862e+02	-3.411056e+01
6.470017e+02	-3.417102e+01
6.507388e+02	-3.422250e+01
6.544974e+02	-3.427050e+01
6.582778e+02	-3.431264e+01
6.620800e+02	-3.436942e+01
6.659041e+02	-3.440488e+01
6.697504e+02	-3.447070e+01
6.736188e+02	-3.451172e+01
6.775096e+02	-3.456553e+01
6.814229e+02	-3.462091e+01
6.853587e+02	-3.466926e+01
6.893173e+02	-3.472033e+01
6.932988e+02	-3.477096e+01
6.973033e+02	-3.482383e+01
7.013309e+02	-3.487417e+01
