Frequency(Hz)	Magnitude(dB)
1.000000e+01	-2.088747e+00
1.005776e+01	-2.107799e+00
1.011585e+01	-2.127125e+00
1.017428e+01	-2.146450e+00
1.023305e+01	-2.166145e+00
1.029215e+01	-2.186131e+00
1.035160e+01	-2.205701e+00
1.041139e+01	-2.225791e+00
1.047153e+01	-2.245855e+00
1.053201e+01	-2.265977e+00
1.059284e+01	-2.286371e+00
1.065403e+01	-2.306974e+00
1.071556e+01	-2.327780e+00
1.077746e+01	-2.348601e+00
1.083971e+01	-2.369536e+00
1.090232e+01	-2.390675e+00
1.096529e+01	-2.411913e+00
1.102862e+01	-2.433151e+00
1.109232e+01	-2.454728e+00
1.115639e+01	-2.476280e+00
1.122083e+01	-2.498277e+00
1.128564e+01	-2.520237e+00
1.135083e+01	-2.542167e+00
1.141639e+01	-2.564396e+00
1.148233e+01	-2.586790e+00
1.154865e+01	-2.609439e+00
1.161536e+01	-2.632020e+00
1.168245e+01	-2.655050e+00
1.174992e+01	-2.677961e+00
1.181779e+01	-2.700951e+00
1.188605e+01	-2.724076e+00
1.195470e+01	-2.747694e+00
1.202375e+01	-2.771097e+00
1.209320e+01	-2.794803e+00
1.216305e+01	-2.818445e+00
1.223330e+01	-2.842240e+00
1.230396e+01	-2.866608e+00
1.237503e+01	-2.890648e+00
1.244651e+01	-2.915208e+00
1.251840e+01	-2.939812e+00
1.259070e+01	-2.964600e+00
1.266343e+01	-2.989347e+00
1.273657e+01	-3.014346e+00
1.281014e+01	-3.039538e+00
1.288413e+01	-3.064374e+00
1.295855e+01	-3.089853e+00
1.303339e+01	-3.115228e+00
1.310867e+01	-3.141003e+00
1.318439e+01	-3.166890e+00
1.326054e+01	-3.193136e+00
1.333713e+01	-3.219023e+00
1.341417e+01	-3.245149e+00
1.349165e+01	-3.272094e+00
1.356958e+01	-3.298318e+00
1.364795e+01	-3.324959e+00
1.372678e+01	-3.351694e+00
1.380607e+01	-3.378941e+00
1.388581e+01	-3.406130e+00
1.396602e+01	-3.433408e+00
1.404668e+01	-3.460636e+00
1.412782e+01	-3.488350e+00
1.420942e+01	-3.515799e+00
1.429149e+01	-3.543630e+00
1.437404e+01	-3.571453e+00
1.445706e+01	-3.599858e+00
1.454057e+01	-3.627916e+00
1.462455e+01	-3.656349e+00
1.470902e+01	-3.685154e+00
1.479398e+01	-3.713625e+00
1.487943e+01	-3.742436e+00
1.496537e+01	-3.771453e+00
1.505181e+01	-3.800844e+00
1.513875e+01	-3.829883e+00
1.522619e+01	-3.858824e+00
1.531414e+01	-3.888938e+00
1.540259e+01	-3.918261e+00
1.549156e+01	-3.947988e+00
1.558103e+01	-3.978279e+00
1.567103e+01	-4.008263e+00
1.576155e+01	-4.038361e+00
1.585258e+01	-4.068660e+00
1.594415e+01	-4.099226e+00
1.603624e+01	-4.129945e+00
1.612886e+01	-4.160496e+00
1.622202e+01	-4.191583e+00
1.631572e+01	-4.222288e+00
1.640996e+01	-4.253727e+00
1.650474e+01	-4.285119e+00
1.660008e+01	-4.316488e+00
1.669596e+01	-4.348320e+00
1.679239e+01	-4.379916e+00
1.688938e+01	-4.411575e+00
1.698694e+01	-4.443676e+00
1.708505e+01	-4.475595e+00
1.718373e+01	-4.507895e+00
1.728299e+01	-4.540369e+00
1.738281e+01	-4.572788e+00
1.748322e+01	-4.605632e+00
1.758420e+01	-4.638491e+00
1.768576e+01	-4.671258e+00
1.778792e+01	-4.704250e+00
1.789066e+01	-4.737207e+00
1.799399e+01	-4.770668e+00
1.809793e+01	-4.803689e+00
1.820246e+01	-4.837394e+00
1.830760e+01	-4.870938e+00
1.841334e+01	-4.904884e+00
1.851969e+01	-4.939023e+00
1.862666e+01	-4.973325e+00
1.873425e+01	-5.007050e+00
1.884246e+01	-5.041257e+00
1.895129e+01	-5.075912e+00
1.906075e+01	-5.110271e+00
1.917085e+01	-5.145043e+00
1.928158e+01	-5.180138e+00
1.939295e+01	-5.214686e+00
1.950496e+01	-5.250270e+00
1.961762e+01	-5.284867e+00
1.973093e+01	-5.320189e+00
1.984490e+01	-5.355583e+00
1.995952e+01	-5.391161e+00
2.007480e+01	-5.426640e+00
2.019076e+01	-5.462649e+00
2.030738e+01	-5.498069e+00
2.042467e+01	-5.534204e+00
2.054264e+01	-5.570310e+00
2.066130e+01	-5.606725e+00
2.078064e+01	-5.642688e+00
2.090066e+01	-5.679693e+00
2.102139e+01	-5.715779e+00
2.114280e+01	-5.752512e+00
2.126492e+01	-5.789653e+00
2.138775e+01	-5.826254e+00
2.151128e+01	-5.863096e+00
2.163553e+01	-5.900488e+00
2.176050e+01	-5.937685e+00
2.188619e+01	-5.974626e+00
2.201260e+01	-6.012411e+00
2.213974e+01	-6.049992e+00
2.226762e+01	-6.087719e+00
2.239624e+01	-6.125200e+00
2.252560e+01	-6.163188e+00
2.265571e+01	-6.201107e+00
2.278656e+01	-6.239412e+00
2.291818e+01	-6.277575e+00
2.305055e+01	-6.315925e+00
2.318369e+01	-6.354114e+00
2.331760e+01	-6.392489e+00
2.345228e+01	-6.431104e+00
2.358774e+01	-6.469704e+00
2.372398e+01	-6.509000e+00
2.386101e+01	-6.547986e+00
2.399883e+01	-6.586575e+00
2.413745e+01	-6.625972e+00
2.427686e+01	-6.664791e+00
2.441709e+01	-6.704114e+00
2.455812e+01	-6.743758e+00
2.469997e+01	-6.783091e+00
2.484263e+01	-6.822354e+00
2.498612e+01	-6.862483e+00
2.513044e+01	-6.902196e+00
2.527559e+01	-6.941929e+00
2.542158e+01	-6.982009e+00
2.556842e+01	-7.021749e+00
2.571610e+01	-7.062086e+00
2.586463e+01	-7.102151e+00
2.601403e+01	-7.142705e+00
2.616428e+01	-7.183002e+00
2.631541e+01	-7.223774e+00
2.646740e+01	-7.264421e+00
2.662028e+01	-7.304763e+00
2.677404e+01	-7.345863e+00
2.692868e+01	-7.386487e+00
2.708422e+01	-7.427473e+00
2.724066e+01	-7.468501e+00
2.739800e+01	-7.509136e+00
2.755625e+01	-7.551170e+00
2.771541e+01	-7.592310e+00
2.787550e+01	-7.633573e+00
2.803650e+01	-7.674964e+00
2.819844e+01	-7.716541e+00
2.836131e+01	-7.757866e+00
2.852513e+01	-7.799409e+00
2.868989e+01	-7.841281e+00
2.885560e+01	-7.883072e+00
2.902227e+01	-7.924945e+00
2.918990e+01	-7.967630e+00
2.935850e+01	-8.009288e+00
2.952807e+01	-8.051400e+00
2.969863e+01	-8.094091e+00
2.987016e+01	-8.136109e+00
3.004269e+01	-8.178455e+00
3.021622e+01	-8.220728e+00
3.039075e+01	-8.263257e+00
3.056628e+01	-8.306056e+00
3.074283e+01	-8.348245e+00
3.092040e+01	-8.391575e+00
3.109900e+01	-8.434096e+00
3.127862e+01	-8.476572e+00
3.145929e+01	-8.519968e+00
3.164099e+01	-8.562703e+00
3.182375e+01	-8.605363e+00
3.200756e+01	-8.649284e+00
3.219244e+01	-8.692480e+00
3.237838e+01	-8.735833e+00
3.256540e+01	-8.778766e+00
3.275349e+01	-8.823056e+00
3.294268e+01	-8.865922e+00
3.313295e+01	-8.909541e+00
3.332433e+01	-8.953429e+00
3.351681e+01	-8.997110e+00
3.371040e+01	-9.040773e+00
3.390511e+01	-9.084372e+00
3.410094e+01	-9.128328e+00
3.429791e+01	-9.172523e+00
3.449601e+01	-9.216338e+00
3.469526e+01	-9.260088e+00
3.489566e+01	-9.304587e+00
3.509721e+01	-9.348727e+00
3.529993e+01	-9.393220e+00
3.550382e+01	-9.437126e+00
3.570889e+01	-9.481983e+00
3.591515e+01	-9.525555e+00
3.612259e+01	-9.570786e+00
3.633123e+01	-9.615158e+00
3.654108e+01	-9.659862e+00
3.675214e+01	-9.704426e+00
3.696442e+01	-9.748549e+00
3.717792e+01	-9.793589e+00
3.739266e+01	-9.838694e+00
3.760864e+01	-9.883515e+00
3.782587e+01	-9.928360e+00
3.804435e+01	-9.973421e+00
3.826409e+01	-1.001814e+01
3.848510e+01	-1.006319e+01
3.870739e+01	-1.010865e+01
3.893096e+01	-1.015366e+01
3.915583e+01	-1.019880e+01
3.938199e+01	-1.024431e+01
3.960946e+01	-1.028928e+01
3.983824e+01	-1.033501e+01
4.006834e+01	-1.038044e+01
4.029978e+01	-1.042551e+01
4.053255e+01	-1.047097e+01
4.076666e+01	-1.051697e+01
4.100213e+01	-1.056219e+01
4.123896e+01	-1.060808e+01
4.147715e+01	-1.065455e+01
4.171672e+01	-1.069918e+01
4.195767e+01	-1.074583e+01
4.220002e+01	-1.079147e+01
4.244377e+01	-1.083683e+01
4.268892e+01	-1.088234e+01
4.293549e+01	-1.092934e+01
4.318348e+01	-1.097485e+01
4.343291e+01	-1.102016e+01
4.368377e+01	-1.106702e+01
4.393609e+01	-1.111353e+01
4.418986e+01	-1.115936e+01
4.444510e+01	-1.120549e+01
4.470182e+01	-1.125254e+01
4.496001e+01	-1.129835e+01
4.521970e+01	-1.134458e+01
4.548089e+01	-1.139092e+01
4.574358e+01	-1.143739e+01
4.600779e+01	-1.148295e+01
4.627353e+01	-1.153042e+01
4.654081e+01	-1.157642e+01
4.680963e+01	-1.162386e+01
4.708000e+01	-1.167042e+01
4.735193e+01	-1.171648e+01
4.762543e+01	-1.176304e+01
4.790051e+01	-1.181048e+01
4.817719e+01	-1.185624e+01
4.845545e+01	-1.190380e+01
4.873533e+01	-1.195013e+01
4.901682e+01	-1.199722e+01
4.929994e+01	-1.204392e+01
4.958470e+01	-1.209048e+01
4.987110e+01	-1.213822e+01
5.015915e+01	-1.218443e+01
5.044887e+01	-1.223201e+01
5.074026e+01	-1.227906e+01
5.103333e+01	-1.232588e+01
5.132810e+01	-1.237301e+01
5.162457e+01	-1.242057e+01
5.192275e+01	-1.246778e+01
5.222265e+01	-1.251467e+01
5.252429e+01	-1.256191e+01
5.282767e+01	-1.260917e+01
5.313280e+01	-1.265657e+01
5.343969e+01	-1.270461e+01
5.374836e+01	-1.275072e+01
5.405880e+01	-1.279900e+01
5.437105e+01	-1.284654e+01
5.468509e+01	-1.289309e+01
5.500095e+01	-1.294115e+01
5.531863e+01	-1.298917e+01
5.563815e+01	-1.303563e+01
5.595951e+01	-1.308367e+01
5.628273e+01	-1.313183e+01
5.660782e+01	-1.317822e+01
5.693479e+01	-1.322578e+01
5.726364e+01	-1.327407e+01
5.759439e+01	-1.332183e+01
5.792705e+01	-1.336930e+01
5.826164e+01	-1.341762e+01
5.859815e+01	-1.346460e+01
5.893662e+01	-1.351210e+01
5.927703e+01	-1.356114e+01
5.961941e+01	-1.360751e+01
5.996377e+01	-1.365612e+01
6.031012e+01	-1.370453e+01
6.065847e+01	-1.375194e+01
6.100883e+01	-1.379995e+01
6.136121e+01	-1.384824e+01
6.171563e+01	-1.389599e+01
6.207210e+01	-1.394392e+01
6.243063e+01	-1.399152e+01
6.279122e+01	-1.404047e+01
6.315390e+01	-1.408796e+01
6.351868e+01	-1.413622e+01
6.388556e+01	-1.418344e+01
6.425456e+01	-1.423258e+01
6.462569e+01	-1.428028e+01
6.499897e+01	-1.432874e+01
6.537440e+01	-1.437613e+01
6.575200e+01	-1.442423e+01
6.613178e+01	-1.447335e+01
6.651375e+01	-1.452134e+01
6.689793e+01	-1.456951e+01
6.728433e+01	-1.461792e+01
6.767297e+01	-1.466586e+01
6.806384e+01	-1.471340e+01
6.845698e+01	-1.476370e+01
6.885238e+01	-1.481145e+01
6.925007e+01	-1.485993e+01
6.965005e+01	-1.490807e+01
7.005235e+01	-1.495673e+01
7.045697e+01	-1.500559e+01
7.086393e+01	-1.505322e+01
7.127323e+01	-1.510269e+01
7.168490e+01	-1.514978e+01
7.209895e+01	-1.519861e+01
7.251539e+01	-1.524736e+01
7.293424e+01	-1.529538e+01
7.335551e+01	-1.534476e+01
7.377920e+01	-1.539393e+01
7.420535e+01	-1.544135e+01
7.463396e+01	-1.549039e+01
7.506504e+01	-1.553969e+01
7.549861e+01	-1.558802e+01
7.593469e+01	-1.563655e+01
7.637328e+01	-1.568452e+01
7.681441e+01	-1.573298e+01
7.725809e+01	-1.578280e+01
7.770433e+01	-1.583273e+01
7.815315e+01	-1.587913e+01
7.860456e+01	-1.592853e+01
7.905857e+01	-1.597757e+01
7.951521e+01	-1.602681e+01
7.997449e+01	-1.607460e+01
8.043642e+01	-1.612303e+01
8.090102e+01	-1.617273e+01
8.136830e+01	-1.622143e+01
8.183828e+01	-1.627089e+01
8.231097e+01	-1.631836e+01
8.278640e+01	-1.636814e+01
8.326457e+01	-1.641737e+01
8.374550e+01	-1.646571e+01
8.422921e+01	-1.651435e+01
8.471572e+01	-1.656316e+01
8.520503e+01	-1.661140e+01
8.569717e+01	-1.666148e+01
8.619215e+01	-1.671019e+01
8.669000e+01	-1.675883e+01
8.719071e+01	-1.680835e+01
8.769432e+01	-1.685732e+01
8.820084e+01	-1.690712e+01
8.871029e+01	-1.695464e+01
8.922267e+01	-1.700460e+01
8.973802e+01	-1.705306e+01
9.025634e+01	-1.710364e+01
9.077766e+01	-1.715061e+01
9.130199e+01	-1.719965e+01
9.182935e+01	-1.725004e+01
9.235975e+01	-1.729841e+01
9.289321e+01	-1.734757e+01
9.342976e+01	-1.739581e+01
9.396941e+01	-1.744564e+01
9.451217e+01	-1.749438e+01
9.505807e+01	-1.754416e+01
9.560712e+01	-1.759397e+01
9.615934e+01	-1.764148e+01
9.671476e+01	-1.769208e+01
9.727338e+01	-1.774067e+01
9.783522e+01	-1.779024e+01
9.840032e+01	-1.783972e+01
9.896867e+01	-1.788902e+01
9.954031e+01	-1.793876e+01
1.001153e+02	-1.798849e+01
1.006935e+02	-1.803571e+01
1.012751e+02	-1.808622e+01
1.018601e+02	-1.813663e+01
1.024484e+02	-1.818394e+01
1.030402e+02	-1.823248e+01
1.036353e+02	-1.828395e+01
1.042339e+02	-1.833185e+01
1.048360e+02	-1.838047e+01
1.054415e+02	-1.843071e+01
1.060505e+02	-1.848036e+01
1.066631e+02	-1.852852e+01
1.072791e+02	-1.857918e+01
1.078988e+02	-1.862681e+01
1.085220e+02	-1.867601e+01
1.091488e+02	-1.872612e+01
1.097793e+02	-1.877483e+01
1.104133e+02	-1.882672e+01
1.110511e+02	-1.887490e+01
1.116925e+02	-1.892484e+01
1.123376e+02	-1.897406e+01
1.129865e+02	-1.902452e+01
1.136391e+02	-1.907227e+01
1.142955e+02	-1.912112e+01
1.149556e+02	-1.917109e+01
1.156196e+02	-1.922091e+01
1.162874e+02	-1.927137e+01
1.169591e+02	-1.931969e+01
1.176347e+02	-1.936999e+01
1.183141e+02	-1.941899e+01
1.189975e+02	-1.946807e+01
1.196848e+02	-1.951655e+01
1.203761e+02	-1.956541e+01
1.210714e+02	-1.961604e+01
1.217707e+02	-1.966574e+01
1.224740e+02	-1.971681e+01
1.231814e+02	-1.976473e+01
1.238929e+02	-1.981493e+01
1.246085e+02	-1.986441e+01
1.253283e+02	-1.991274e+01
1.260522e+02	-1.996143e+01
1.267802e+02	-2.001233e+01
1.275125e+02	-2.006268e+01
1.282490e+02	-2.011201e+01
1.289898e+02	-2.016190e+01
1.297348e+02	-2.021057e+01
1.304842e+02	-2.026078e+01
1.312378e+02	-2.031020e+01
1.319959e+02	-2.035952e+01
1.327583e+02	-2.040784e+01
1.335251e+02	-2.045821e+01
1.342963e+02	-2.050707e+01
1.350720e+02	-2.055938e+01
1.358522e+02	-2.060861e+01
1.366368e+02	-2.065888e+01
1.374260e+02	-2.070722e+01
1.382198e+02	-2.075565e+01
1.390182e+02	-2.080541e+01
1.398211e+02	-2.085555e+01
1.406287e+02	-2.090429e+01
1.414410e+02	-2.095411e+01
1.422579e+02	-2.100404e+01
1.430796e+02	-2.105461e+01
1.439060e+02	-2.110318e+01
1.447372e+02	-2.115298e+01
1.455732e+02	-2.120224e+01
1.464141e+02	-2.125226e+01
1.472597e+02	-2.130240e+01
1.481103e+02	-2.135179e+01
1.489658e+02	-2.140348e+01
1.498262e+02	-2.145205e+01
1.506916e+02	-2.150006e+01
1.515620e+02	-2.155070e+01
1.524374e+02	-2.160013e+01
1.533179e+02	-2.165009e+01
1.542034e+02	-2.169954e+01
1.550941e+02	-2.175075e+01
1.559899e+02	-2.180014e+01
1.568909e+02	-2.184883e+01
1.577971e+02	-2.189782e+01
1.587085e+02	-2.194784e+01
1.596252e+02	-2.199671e+01
1.605472e+02	-2.204581e+01
1.614745e+02	-2.209832e+01
1.624072e+02	-2.214636e+01
1.633453e+02	-2.219596e+01
1.642887e+02	-2.224669e+01
1.652377e+02	-2.229755e+01
1.661921e+02	-2.234604e+01
1.671520e+02	-2.239568e+01
1.681175e+02	-2.244405e+01
1.690885e+02	-2.249656e+01
1.700651e+02	-2.254573e+01
1.710474e+02	-2.259370e+01
1.720354e+02	-2.264430e+01
1.730291e+02	-2.269538e+01
1.740285e+02	-2.274478e+01
1.750337e+02	-2.279440e+01
1.760446e+02	-2.284596e+01
1.770615e+02	-2.289490e+01
1.780842e+02	-2.294436e+01
1.791128e+02	-2.299212e+01
1.801473e+02	-2.304278e+01
1.811878e+02	-2.309336e+01
1.822344e+02	-2.314397e+01
1.832870e+02	-2.318988e+01
1.843456e+02	-2.324174e+01
1.854104e+02	-2.329032e+01
1.864813e+02	-2.334289e+01
1.875584e+02	-2.339082e+01
1.886418e+02	-2.344345e+01
1.897313e+02	-2.349009e+01
1.908272e+02	-2.354283e+01
1.919294e+02	-2.359142e+01
1.930380e+02	-2.364009e+01
1.941530e+02	-2.369110e+01
1.952744e+02	-2.374032e+01
1.964023e+02	-2.379017e+01
1.975367e+02	-2.383937e+01
1.986777e+02	-2.389063e+01
1.998252e+02	-2.394057e+01
2.009794e+02	-2.398950e+01
2.021403e+02	-2.404114e+01
2.033078e+02	-2.408903e+01
2.044821e+02	-2.413904e+01
2.056632e+02	-2.418737e+01
2.068511e+02	-2.423765e+01
2.080459e+02	-2.429130e+01
2.092475e+02	-2.434340e+01
2.104561e+02	-2.438809e+01
2.116717e+02	-2.444047e+01
2.128943e+02	-2.448970e+01
2.141240e+02	-2.453930e+01
2.153608e+02	-2.458700e+01
2.166047e+02	-2.463920e+01
2.178558e+02	-2.469196e+01
2.191141e+02	-2.473748e+01
2.203797e+02	-2.478813e+01
2.216526e+02	-2.483719e+01
2.229329e+02	-2.488792e+01
2.242205e+02	-2.494030e+01
2.255156e+02	-2.498622e+01
2.268182e+02	-2.503565e+01
2.281283e+02	-2.508482e+01
2.294459e+02	-2.513732e+01
2.307712e+02	-2.518782e+01
2.321041e+02	-2.523649e+01
2.334447e+02	-2.528667e+01
2.347931e+02	-2.533624e+01
2.361493e+02	-2.538411e+01
2.375133e+02	-2.543867e+01
2.388851e+02	-2.548681e+01
2.402649e+02	-2.554211e+01
2.416527e+02	-2.558932e+01
2.430484e+02	-2.563545e+01
2.444523e+02	-2.568621e+01
2.458642e+02	-2.573368e+01
2.472843e+02	-2.578774e+01
2.487126e+02	-2.583777e+01
2.501492e+02	-2.588516e+01
2.515940e+02	-2.593503e+01
2.530472e+02	-2.598770e+01
2.545088e+02	-2.603542e+01
2.559789e+02	-2.608514e+01
2.574574e+02	-2.613725e+01
2.589444e+02	-2.618687e+01
2.604401e+02	-2.623613e+01
2.619444e+02	-2.628508e+01
2.634574e+02	-2.633697e+01
2.649791e+02	-2.639016e+01
2.665096e+02	-2.643436e+01
2.680489e+02	-2.648576e+01
2.695972e+02	-2.653638e+01
2.711544e+02	-2.658578e+01
2.727205e+02	-2.663817e+01
2.742958e+02	-2.668786e+01
2.758801e+02	-2.673363e+01
2.774736e+02	-2.678656e+01
2.790762e+02	-2.683644e+01
2.806882e+02	-2.688645e+01
2.823094e+02	-2.693461e+01
2.839400e+02	-2.698557e+01
2.855800e+02	-2.703677e+01
2.872295e+02	-2.708283e+01
2.888886e+02	-2.713653e+01
2.905572e+02	-2.718765e+01
2.922354e+02	-2.723419e+01
2.939234e+02	-2.728514e+01
2.956211e+02	-2.733790e+01
2.973286e+02	-2.738545e+01
2.990459e+02	-2.743454e+01
3.007732e+02	-2.748655e+01
3.025104e+02	-2.754091e+01
3.042577e+02	-2.758554e+01
3.060151e+02	-2.763600e+01
3.077826e+02	-2.768407e+01
3.095604e+02	-2.772984e+01
3.113484e+02	-2.779035e+01
3.131467e+02	-2.783665e+01
3.149554e+02	-2.788624e+01
3.167746e+02	-2.793510e+01
3.186043e+02	-2.798485e+01
3.204445e+02	-2.803647e+01
3.222954e+02	-2.808559e+01
3.241570e+02	-2.813762e+01
3.260293e+02	-2.818505e+01
3.279124e+02	-2.823457e+01
3.298064e+02	-2.828522e+01
3.317114e+02	-2.833434e+01
3.336273e+02	-2.838526e+01
3.355544e+02	-2.843709e+01
3.374925e+02	-2.848699e+01
3.394418e+02	-2.853571e+01
3.414024e+02	-2.858509e+01
3.433744e+02	-2.863224e+01
3.453577e+02	-2.868531e+01
3.473525e+02	-2.873490e+01
3.493588e+02	-2.878608e+01
3.513766e+02	-2.883747e+01
3.534062e+02	-2.888675e+01
3.554474e+02	-2.893394e+01
3.575005e+02	-2.898568e+01
3.595654e+02	-2.903519e+01
3.616422e+02	-2.908910e+01
3.637311e+02	-2.913491e+01
3.658320e+02	-2.918010e+01
3.679450e+02	-2.923746e+01
3.700702e+02	-2.929012e+01
3.722077e+02	-2.933397e+01
3.743576e+02	-2.939081e+01
3.765199e+02	-2.943132e+01
3.786946e+02	-2.948558e+01
3.808820e+02	-2.953565e+01
3.830819e+02	-2.958759e+01
3.852946e+02	-2.963625e+01
3.875200e+02	-2.969196e+01
3.897583e+02	-2.973954e+01
3.920096e+02	-2.978301e+01
3.942738e+02	-2.984102e+01
3.965511e+02	-2.989081e+01
3.988416e+02	-2.994359e+01
4.011452e+02	-2.998763e+01
4.034622e+02	-3.004156e+01
4.057926e+02	-3.008590e+01
4.081365e+02	-3.013907e+01
4.104938e+02	-3.018727e+01
4.128648e+02	-3.023905e+01
4.152495e+02	-3.029069e+01
4.176480e+02	-3.033761e+01
4.200603e+02	-3.038730e+01
4.224866e+02	-3.044049e+01
4.249268e+02	-3.048939e+01
4.273812e+02	-3.053774e+01
4.298497e+02	-3.058445e+01
4.323325e+02	-3.063655e+01
4.348297e+02	-3.069138e+01
4.373412e+02	-3.073880e+01
4.398673e+02	-3.079198e+01
4.424079e+02	-3.083879e+01
4.449633e+02	-3.089314e+01
4.475334e+02	-3.094104e+01
4.501183e+02	-3.099215e+01
4.527182e+02	-3.104192e+01
4.553330e+02	-3.109062e+01
4.579630e+02	-3.114093e+01
4.606082e+02	-3.119107e+01
4.632687e+02	-3.123742e+01
4.659445e+02	-3.129357e+01
4.686358e+02	-3.134866e+01
4.713426e+02	-3.139168e+01
4.740650e+02	-3.143994e+01
4.768032e+02	-3.149429e+01
4.795572e+02	-3.154638e+01
4.823271e+02	-3.159313e+01
4.851130e+02	-3.164392e+01
4.879150e+02	-3.169288e+01
4.907332e+02	-3.174002e+01
4.935676e+02	-3.179840e+01
4.964185e+02	-3.184231e+01
4.992858e+02	-3.189272e+01
5.021696e+02	-3.194449e+01
5.050701e+02	-3.199682e+01
5.079874e+02	-3.204446e+01
5.109215e+02	-3.209519e+01
5.138726e+02	-3.214960e+01
5.168407e+02	-3.219646e+01
5.198259e+02	-3.224366e+01
5.228284e+02	-3.229669e+01
5.258482e+02	-3.234468e+01
5.288855e+02	-3.239712e+01
5.319403e+02	-3.244837e+01
5.350128e+02	-3.249505e+01
5.381030e+02	-3.254490e+01
5.412111e+02	-3.259198e+01
5.443371e+02	-3.265769e+01
5.474812e+02	-3.269907e+01
5.506434e+02	-3.275832e+01
5.538239e+02	-3.280011e+01
5.570228e+02	-3.284598e+01
5.602401e+02	-3.289956e+01
5.634760e+02	-3.294645e+01
5.667306e+02	-3.299695e+01
5.700040e+02	-3.304894e+01
5.732964e+02	-3.309776e+01
5.766077e+02	-3.314931e+01
5.799382e+02	-3.320078e+01
5.832879e+02	-3.324599e+01
5.866569e+02	-3.330306e+01
5.900454e+02	-3.335411e+01
5.934535e+02	-3.341145e+01
5.968813e+02	-3.345359e+01
6.003288e+02	-3.350405e+01
6.037963e+02	-3.354871e+01
6.072838e+02	-3.359567e+01
6.107914e+02	-3.365511e+01
6.143194e+02	-3.370207e+01
6.178676e+02	-3.374749e+01
6.214364e+02	-3.379940e+01
6.250258e+02	-3.385373e+01
6.286359e+02	-3.390442e+01
6.322669e+02	-3.395191e+01
6.359189e+02	-3.400598e+01
6.395919e+02	-3.405580e+01
6.432862e+02	-3.410561e+01
6.470017e+02	-3.415017e+01
6.507388e+02	-3.421344e+01
6.544974e+02	-3.425740e+01
6.582778e+02	-3.431079e+01
6.620800e+02	-3.435188e+01
6.659041e+02	-3.441474e+01
6.697504e+02	-3.445458e+01
6.736188e+02	-3.450863e+01
6.775096e+02	-3.455942e+01
6.814229e+02	-3.461205e+01
6.853587e+02	-3.466295e+01
6.893173e+02	-3.470397e+01
6.932988e+02	-3.476026e+01
6.973033e+02	-3.481131e+01
7.013309e+02	-3.485945e+01
