Frequency(Hz)	Magnitude(dB)
1.000000e+01	-1.835142e-05
1.005776e+01	-1.856403e-05
1.011585e+01	-1.877909e-05
1.017428e+01	-1.899665e-05
1.023305e+01	-1.921674e-05
1.029215e+01	-1.943937e-05
1.035160e+01	-1.966458e-05
1.041139e+01	-1.989240e-05
1.047153e+01	-2.012285e-05
1.053201e+01	-2.035598e-05
1.059284e+01	-2.059181e-05
1.065403e+01	-2.083037e-05
1.071556e+01	-2.107170e-05
1.077746e+01	-2.131582e-05
1.083971e+01	-2.156277e-05
1.090232e+01	-2.181258e-05
1.096529e+01	-2.206528e-05
1.102862e+01	-2.232091e-05
1.109232e+01	-2.257951e-05
1.115639e+01	-2.284110e-05
1.122083e+01	-2.310572e-05
1.128564e+01	-2.337340e-05
1.135083e+01	-2.364419e-05
1.141639e+01	-2.391811e-05
1.148233e+01	-2.419521e-05
1.154865e+01	-2.447552e-05
1.161536e+01	-2.475907e-05
1.168245e+01	-2.504591e-05
1.174992e+01	-2.533608e-05
1.181779e+01	-2.562960e-05
1.188605e+01	-2.592653e-05
1.195470e+01	-2.622689e-05
1.202375e+01	-2.653074e-05
1.209320e+01	-2.683810e-05
1.216305e+01	-2.714903e-05
1.223330e+01	-2.746355e-05
1.230396e+01	-2.778173e-05
1.237503e+01	-2.810358e-05
1.244651e+01	-2.842917e-05
1.251840e+01	-2.875853e-05
1.259070e+01	-2.909170e-05
1.266343e+01	-2.942874e-05
1.273657e+01	-2.976968e-05
1.281014e+01	-3.011457e-05
1.288413e+01	-3.046345e-05
1.295855e+01	-3.081638e-05
1.303339e+01	-3.117339e-05
1.310867e+01	-3.153454e-05
1.318439e+01	-3.189988e-05
1.326054e+01	-3.226945e-05
1.333713e+01	-3.264330e-05
1.341417e+01	-3.302148e-05
1.349165e+01	-3.340404e-05
1.356958e+01	-3.379103e-05
1.364795e+01	-3.418251e-05
1.372678e+01	-3.457852e-05
1.380607e+01	-3.497912e-05
1.388581e+01	-3.538436e-05
1.396602e+01	-3.579430e-05
1.404668e+01	-3.620898e-05
1.412782e+01	-3.662847e-05
1.420942e+01	-3.705282e-05
1.429149e+01	-3.748209e-05
1.437404e+01	-3.791633e-05
1.445706e+01	-3.835560e-05
1.454057e+01	-3.879995e-05
1.462455e+01	-3.924946e-05
1.470902e+01	-3.970417e-05
1.479398e+01	-4.016416e-05
1.487943e+01	-4.062947e-05
1.496537e+01	-4.110017e-05
1.505181e+01	-4.157632e-05
1.513875e+01	-4.205799e-05
1.522619e+01	-4.254525e-05
1.531414e+01	-4.303814e-05
1.540259e+01	-4.353675e-05
1.549156e+01	-4.404113e-05
1.558103e+01	-4.455136e-05
1.567103e+01	-4.506749e-05
1.576155e+01	-4.558961e-05
1.585258e+01	-4.611778e-05
1.594415e+01	-4.665206e-05
1.603624e+01	-4.719254e-05
1.612886e+01	-4.773927e-05
1.622202e+01	-4.829234e-05
1.631572e+01	-4.885182e-05
1.640996e+01	-4.941778e-05
1.650474e+01	-4.999029e-05
1.660008e+01	-5.056944e-05
1.669596e+01	-5.115530e-05
1.679239e+01	-5.174794e-05
1.688938e+01	-5.234745e-05
1.698694e+01	-5.295391e-05
1.708505e+01	-5.356739e-05
1.718373e+01	-5.418798e-05
1.728299e+01	-5.481576e-05
1.738281e+01	-5.545081e-05
1.748322e+01	-5.609322e-05
1.758420e+01	-5.674307e-05
1.768576e+01	-5.740045e-05
1.778792e+01	-5.806545e-05
1.789066e+01	-5.873815e-05
1.799399e+01	-5.941864e-05
1.809793e+01	-6.010702e-05
1.820246e+01	-6.080337e-05
1.830760e+01	-6.150779e-05
1.841334e+01	-6.222037e-05
1.851969e+01	-6.294121e-05
1.862666e+01	-6.367039e-05
1.873425e+01	-6.440802e-05
1.884246e+01	-6.515420e-05
1.895129e+01	-6.590903e-05
1.906075e+01	-6.667260e-05
1.917085e+01	-6.744501e-05
1.928158e+01	-6.822637e-05
1.939295e+01	-6.901679e-05
1.950496e+01	-6.981636e-05
1.961762e+01	-7.062520e-05
1.973093e+01	-7.144340e-05
1.984490e+01	-7.227109e-05
1.995952e+01	-7.310836e-05
2.007480e+01	-7.395534e-05
2.019076e+01	-7.481212e-05
2.030738e+01	-7.567883e-05
2.042467e+01	-7.655559e-05
2.054264e+01	-7.744250e-05
2.066130e+01	-7.833968e-05
2.078064e+01	-7.924726e-05
2.090066e+01	-8.016535e-05
2.102139e+01	-8.109408e-05
2.114280e+01	-8.203357e-05
2.126492e+01	-8.298394e-05
2.138775e+01	-8.394533e-05
2.151128e+01	-8.491785e-05
2.163553e+01	-8.590164e-05
2.176050e+01	-8.689682e-05
2.188619e+01	-8.790353e-05
2.201260e+01	-8.892191e-05
2.213974e+01	-8.995208e-05
2.226762e+01	-9.099419e-05
2.239624e+01	-9.204838e-05
2.252560e+01	-9.311477e-05
2.265571e+01	-9.419352e-05
2.278656e+01	-9.528477e-05
2.291818e+01	-9.638865e-05
2.305055e+01	-9.750533e-05
2.318369e+01	-9.863495e-05
2.331760e+01	-9.977765e-05
2.345228e+01	-1.009336e-04
2.358774e+01	-1.021029e-04
2.372398e+01	-1.032858e-04
2.386101e+01	-1.044824e-04
2.399883e+01	-1.056928e-04
2.413745e+01	-1.069173e-04
2.427686e+01	-1.081559e-04
2.441709e+01	-1.094089e-04
2.455812e+01	-1.106764e-04
2.469997e+01	-1.119586e-04
2.484263e+01	-1.132557e-04
2.498612e+01	-1.145678e-04
2.513044e+01	-1.158951e-04
2.527559e+01	-1.172377e-04
2.542158e+01	-1.185959e-04
2.556842e+01	-1.199699e-04
2.571610e+01	-1.213598e-04
2.586463e+01	-1.227657e-04
2.601403e+01	-1.241880e-04
2.616428e+01	-1.256267e-04
2.631541e+01	-1.270821e-04
2.646740e+01	-1.285544e-04
2.662028e+01	-1.300437e-04
2.677404e+01	-1.315503e-04
2.692868e+01	-1.330743e-04
2.708422e+01	-1.346160e-04
2.724066e+01	-1.361755e-04
2.739800e+01	-1.377531e-04
2.755625e+01	-1.393490e-04
2.771541e+01	-1.409634e-04
2.787550e+01	-1.425964e-04
2.803650e+01	-1.442484e-04
2.819844e+01	-1.459195e-04
2.836131e+01	-1.476100e-04
2.852513e+01	-1.493201e-04
2.868989e+01	-1.510500e-04
2.885560e+01	-1.527999e-04
2.902227e+01	-1.545701e-04
2.918990e+01	-1.563608e-04
2.935850e+01	-1.581723e-04
2.952807e+01	-1.600047e-04
2.969863e+01	-1.618584e-04
2.987016e+01	-1.637335e-04
3.004269e+01	-1.656304e-04
3.021622e+01	-1.675492e-04
3.039075e+01	-1.694903e-04
3.056628e+01	-1.714538e-04
3.074283e+01	-1.734401e-04
3.092040e+01	-1.754494e-04
3.109900e+01	-1.774820e-04
3.127862e+01	-1.795382e-04
3.145929e+01	-1.816181e-04
3.164099e+01	-1.837222e-04
3.182375e+01	-1.858506e-04
3.200756e+01	-1.880037e-04
3.219244e+01	-1.901817e-04
3.237838e+01	-1.923850e-04
3.256540e+01	-1.946138e-04
3.275349e+01	-1.968684e-04
3.294268e+01	-1.991491e-04
3.313295e+01	-2.014562e-04
3.332433e+01	-2.037901e-04
3.351681e+01	-2.061510e-04
3.371040e+01	-2.085393e-04
3.390511e+01	-2.109552e-04
3.410094e+01	-2.133991e-04
3.429791e+01	-2.158713e-04
3.449601e+01	-2.183722e-04
3.469526e+01	-2.209020e-04
3.489566e+01	-2.234612e-04
3.509721e+01	-2.260500e-04
3.529993e+01	-2.286688e-04
3.550382e+01	-2.313179e-04
3.570889e+01	-2.339977e-04
3.591515e+01	-2.367086e-04
3.612259e+01	-2.394508e-04
3.633123e+01	-2.422248e-04
3.654108e+01	-2.450310e-04
3.675214e+01	-2.478697e-04
3.696442e+01	-2.507412e-04
3.717792e+01	-2.536461e-04
3.739266e+01	-2.565845e-04
3.760864e+01	-2.595570e-04
3.782587e+01	-2.625640e-04
3.804435e+01	-2.656058e-04
3.826409e+01	-2.686828e-04
3.848510e+01	-2.717955e-04
3.870739e+01	-2.749442e-04
3.893096e+01	-2.781294e-04
3.915583e+01	-2.813515e-04
3.938199e+01	-2.846109e-04
3.960946e+01	-2.879081e-04
3.983824e+01	-2.912435e-04
4.006834e+01	-2.946175e-04
4.029978e+01	-2.980306e-04
4.053255e+01	-3.014833e-04
4.076666e+01	-3.049759e-04
4.100213e+01	-3.085090e-04
4.123896e+01	-3.120831e-04
4.147715e+01	-3.156985e-04
4.171672e+01	-3.193558e-04
4.195767e+01	-3.230555e-04
4.220002e+01	-3.267981e-04
4.244377e+01	-3.305840e-04
4.268892e+01	-3.344137e-04
4.293549e+01	-3.382878e-04
4.318348e+01	-3.422068e-04
4.343291e+01	-3.461712e-04
4.368377e+01	-3.501816e-04
4.393609e+01	-3.542384e-04
4.418986e+01	-3.583421e-04
4.444510e+01	-3.624935e-04
4.470182e+01	-3.666929e-04
4.496001e+01	-3.709409e-04
4.521970e+01	-3.752382e-04
4.548089e+01	-3.795852e-04
4.574358e+01	-3.839827e-04
4.600779e+01	-3.884310e-04
4.627353e+01	-3.929309e-04
4.654081e+01	-3.974829e-04
4.680963e+01	-4.020876e-04
4.708000e+01	-4.067457e-04
4.735193e+01	-4.114577e-04
4.762543e+01	-4.162244e-04
4.790051e+01	-4.210462e-04
4.817719e+01	-4.259239e-04
4.845545e+01	-4.308581e-04
4.873533e+01	-4.358495e-04
4.901682e+01	-4.408986e-04
4.929994e+01	-4.460063e-04
4.958470e+01	-4.511731e-04
4.987110e+01	-4.563998e-04
5.015915e+01	-4.616871e-04
5.044887e+01	-4.670356e-04
5.074026e+01	-4.724460e-04
5.103333e+01	-4.779191e-04
5.132810e+01	-4.834556e-04
5.162457e+01	-4.890563e-04
5.192275e+01	-4.947218e-04
5.222265e+01	-5.004530e-04
5.252429e+01	-5.062505e-04
5.282767e+01	-5.121152e-04
5.313280e+01	-5.180479e-04
5.343969e+01	-5.240492e-04
5.374836e+01	-5.301201e-04
5.405880e+01	-5.362613e-04
5.437105e+01	-5.424737e-04
5.468509e+01	-5.487580e-04
5.500095e+01	-5.551151e-04
5.531863e+01	-5.615458e-04
5.563815e+01	-5.680511e-04
5.595951e+01	-5.746317e-04
5.628273e+01	-5.812885e-04
5.660782e+01	-5.880224e-04
5.693479e+01	-5.948344e-04
5.726364e+01	-6.017252e-04
5.759439e+01	-6.086959e-04
5.792705e+01	-6.157473e-04
5.826164e+01	-6.228804e-04
5.859815e+01	-6.300961e-04
5.893662e+01	-6.373954e-04
5.927703e+01	-6.447792e-04
5.961941e+01	-6.522486e-04
5.996377e+01	-6.598045e-04
6.031012e+01	-6.674480e-04
6.065847e+01	-6.751799e-04
6.100883e+01	-6.830014e-04
6.136121e+01	-6.909136e-04
6.171563e+01	-6.989174e-04
6.207210e+01	-7.070138e-04
6.243063e+01	-7.152041e-04
6.279122e+01	-7.234893e-04
6.315390e+01	-7.318704e-04
6.351868e+01	-7.403486e-04
6.388556e+01	-7.489250e-04
6.425456e+01	-7.576007e-04
6.462569e+01	-7.663770e-04
6.499897e+01	-7.752549e-04
6.537440e+01	-7.842356e-04
6.575200e+01	-7.933203e-04
6.613178e+01	-8.025103e-04
6.651375e+01	-8.118068e-04
6.689793e+01	-8.212109e-04
6.728433e+01	-8.307239e-04
6.767297e+01	-8.403472e-04
6.806384e+01	-8.500819e-04
6.845698e+01	-8.599293e-04
6.885238e+01	-8.698908e-04
6.925007e+01	-8.799677e-04
6.965005e+01	-8.901613e-04
7.005235e+01	-9.004730e-04
7.045697e+01	-9.109042e-04
7.086393e+01	-9.214561e-04
7.127323e+01	-9.321303e-04
7.168490e+01	-9.429281e-04
7.209895e+01	-9.538510e-04
7.251539e+01	-9.649004e-04
7.293424e+01	-9.760778e-04
7.335551e+01	-9.873846e-04
7.377920e+01	-9.988224e-04
7.420535e+01	-1.010393e-03
7.463396e+01	-1.022097e-03
7.506504e+01	-1.033937e-03
7.549861e+01	-1.045914e-03
7.593469e+01	-1.058030e-03
7.637328e+01	-1.070286e-03
7.681441e+01	-1.082684e-03
7.725809e+01	-1.095225e-03
7.770433e+01	-1.107912e-03
7.815315e+01	-1.120746e-03
7.860456e+01	-1.133728e-03
7.905857e+01	-1.146861e-03
7.951521e+01	-1.160146e-03
7.997449e+01	-1.173585e-03
8.043642e+01	-1.187179e-03
8.090102e+01	-1.200931e-03
8.136830e+01	-1.214842e-03
8.183828e+01	-1.228915e-03
8.231097e+01	-1.243150e-03
8.278640e+01	-1.257550e-03
8.326457e+01	-1.272117e-03
8.374550e+01	-1.286853e-03
8.422921e+01	-1.301759e-03
8.471572e+01	-1.316838e-03
8.520503e+01	-1.332091e-03
8.569717e+01	-1.347522e-03
8.619215e+01	-1.363131e-03
8.669000e+01	-1.378920e-03
8.719071e+01	-1.394893e-03
8.769432e+01	-1.411051e-03
8.820084e+01	-1.427395e-03
8.871029e+01	-1.443929e-03
8.922267e+01	-1.460655e-03
8.973802e+01	-1.477574e-03
9.025634e+01	-1.494689e-03
9.077766e+01	-1.512003e-03
9.130199e+01	-1.529516e-03
9.182935e+01	-1.547233e-03
9.235975e+01	-1.565155e-03
9.289321e+01	-1.583284e-03
9.342976e+01	-1.601624e-03
9.396941e+01	-1.620176e-03
9.451217e+01	-1.638942e-03
9.505807e+01	-1.657926e-03
9.560712e+01	-1.677130e-03
9.615934e+01	-1.696556e-03
9.671476e+01	-1.716207e-03
9.727338e+01	-1.736086e-03
9.783522e+01	-1.756195e-03
9.840032e+01	-1.776537e-03
9.896867e+01	-1.797114e-03
9.954031e+01	-1.817930e-03
1.001153e+02	-1.838987e-03
1.006935e+02	-1.860287e-03
1.012751e+02	-1.881835e-03
1.018601e+02	-1.903631e-03
1.024484e+02	-1.925680e-03
1.030402e+02	-1.947985e-03
1.036353e+02	-1.970548e-03
1.042339e+02	-1.993372e-03
1.048360e+02	-2.016460e-03
1.054415e+02	-2.039816e-03
1.060505e+02	-2.063442e-03
1.066631e+02	-2.087342e-03
1.072791e+02	-2.111519e-03
1.078988e+02	-2.135975e-03
1.085220e+02	-2.160715e-03
1.091488e+02	-2.185741e-03
1.097793e+02	-2.211057e-03
1.104133e+02	-2.236666e-03
1.110511e+02	-2.262571e-03
1.116925e+02	-2.288777e-03
1.123376e+02	-2.315286e-03
1.129865e+02	-2.342102e-03
1.136391e+02	-2.369228e-03
1.142955e+02	-2.396669e-03
1.149556e+02	-2.424427e-03
1.156196e+02	-2.452507e-03
1.162874e+02	-2.480912e-03
1.169591e+02	-2.509646e-03
1.176347e+02	-2.538712e-03
1.183141e+02	-2.568115e-03
1.189975e+02	-2.597858e-03
1.196848e+02	-2.627946e-03
1.203761e+02	-2.658382e-03
1.210714e+02	-2.689171e-03
1.217707e+02	-2.720316e-03
1.224740e+02	-2.751821e-03
1.231814e+02	-2.783692e-03
1.238929e+02	-2.815931e-03
1.246085e+02	-2.848543e-03
1.253283e+02	-2.881534e-03
1.260522e+02	-2.914906e-03
1.267802e+02	-2.948664e-03
1.275125e+02	-2.982814e-03
1.282490e+02	-3.017358e-03
1.289898e+02	-3.052303e-03
1.297348e+02	-3.087652e-03
1.304842e+02	-3.123410e-03
1.312378e+02	-3.159583e-03
1.319959e+02	-3.196174e-03
1.327583e+02	-3.233188e-03
1.335251e+02	-3.270632e-03
1.342963e+02	-3.308508e-03
1.350720e+02	-3.346823e-03
1.358522e+02	-3.385582e-03
1.366368e+02	-3.424789e-03
1.374260e+02	-3.464451e-03
1.382198e+02	-3.504571e-03
1.390182e+02	-3.545156e-03
1.398211e+02	-3.586210e-03
1.406287e+02	-3.627740e-03
1.414410e+02	-3.669751e-03
1.422579e+02	-3.712248e-03
1.430796e+02	-3.755236e-03
1.439060e+02	-3.798723e-03
1.447372e+02	-3.842712e-03
1.455732e+02	-3.887211e-03
1.464141e+02	-3.932225e-03
1.472597e+02	-3.977760e-03
1.481103e+02	-4.023822e-03
1.489658e+02	-4.070417e-03
1.498262e+02	-4.117552e-03
1.506916e+02	-4.165232e-03
1.515620e+02	-4.213463e-03
1.524374e+02	-4.262254e-03
1.533179e+02	-4.311608e-03
1.542034e+02	-4.361534e-03
1.550941e+02	-4.412038e-03
1.559899e+02	-4.463126e-03
1.568909e+02	-4.514806e-03
1.577971e+02	-4.567083e-03
1.587085e+02	-4.619966e-03
1.596252e+02	-4.673461e-03
1.605472e+02	-4.727574e-03
1.614745e+02	-4.782314e-03
1.624072e+02	-4.837688e-03
1.633453e+02	-4.893702e-03
1.642887e+02	-4.950364e-03
1.652377e+02	-5.007683e-03
1.661921e+02	-5.065664e-03
1.671520e+02	-5.124316e-03
1.681175e+02	-5.183647e-03
1.690885e+02	-5.243665e-03
1.700651e+02	-5.304377e-03
1.710474e+02	-5.365791e-03
1.720354e+02	-5.427917e-03
1.730291e+02	-5.490761e-03
1.740285e+02	-5.554332e-03
1.750337e+02	-5.618638e-03
1.760446e+02	-5.683689e-03
1.770615e+02	-5.749492e-03
1.780842e+02	-5.816057e-03
1.791128e+02	-5.883392e-03
1.801473e+02	-5.951505e-03
1.811878e+02	-6.020407e-03
1.822344e+02	-6.090106e-03
1.832870e+02	-6.160611e-03
1.843456e+02	-6.231932e-03
1.854104e+02	-6.304078e-03
1.864813e+02	-6.377059e-03
1.875584e+02	-6.450884e-03
1.886418e+02	-6.525563e-03
1.897313e+02	-6.601105e-03
1.908272e+02	-6.677522e-03
1.919294e+02	-6.754822e-03
1.930380e+02	-6.833017e-03
1.941530e+02	-6.912116e-03
1.952744e+02	-6.992130e-03
1.964023e+02	-7.073069e-03
1.975367e+02	-7.154945e-03
1.986777e+02	-7.237768e-03
1.998252e+02	-7.321548e-03
2.009794e+02	-7.406298e-03
2.021403e+02	-7.492027e-03
2.033078e+02	-7.578748e-03
2.044821e+02	-7.666472e-03
2.056632e+02	-7.755211e-03
2.068511e+02	-7.844976e-03
2.080459e+02	-7.935778e-03
2.092475e+02	-8.027631e-03
2.104561e+02	-8.120546e-03
2.116717e+02	-8.214535e-03
2.128943e+02	-8.309612e-03
2.141240e+02	-8.405787e-03
2.153608e+02	-8.503075e-03
2.166047e+02	-8.601487e-03
2.178558e+02	-8.701037e-03
2.191141e+02	-8.801739e-03
2.203797e+02	-8.903604e-03
2.216526e+02	-9.006647e-03
2.229329e+02	-9.110882e-03
2.242205e+02	-9.216321e-03
2.255156e+02	-9.322980e-03
2.268182e+02	-9.430871e-03
2.281283e+02	-9.540010e-03
2.294459e+02	-9.650410e-03
2.307712e+02	-9.762087e-03
2.321041e+02	-9.875054e-03
2.334447e+02	-9.989327e-03
2.347931e+02	-1.010492e-02
2.361493e+02	-1.022185e-02
2.375133e+02	-1.034013e-02
2.388851e+02	-1.045978e-02
2.402649e+02	-1.058081e-02
2.416527e+02	-1.070324e-02
2.430484e+02	-1.082709e-02
2.444523e+02	-1.095236e-02
2.458642e+02	-1.107909e-02
2.472843e+02	-1.120727e-02
2.487126e+02	-1.133694e-02
2.501492e+02	-1.146811e-02
2.515940e+02	-1.160079e-02
2.530472e+02	-1.173501e-02
2.545088e+02	-1.187077e-02
2.559789e+02	-1.200811e-02
2.574574e+02	-1.214703e-02
2.589444e+02	-1.228756e-02
2.604401e+02	-1.242971e-02
2.619444e+02	-1.257350e-02
2.634574e+02	-1.271895e-02
2.649791e+02	-1.286609e-02
2.665096e+02	-1.301492e-02
2.680489e+02	-1.316547e-02
2.695972e+02	-1.331776e-02
2.711544e+02	-1.347181e-02
2.727205e+02	-1.362764e-02
2.742958e+02	-1.378527e-02
2.758801e+02	-1.394472e-02
2.774736e+02	-1.410601e-02
2.790762e+02	-1.426916e-02
2.806882e+02	-1.443420e-02
2.823094e+02	-1.460114e-02
2.839400e+02	-1.477001e-02
2.855800e+02	-1.494083e-02
2.872295e+02	-1.511362e-02
2.888886e+02	-1.528840e-02
2.905572e+02	-1.546521e-02
2.922354e+02	-1.564405e-02
2.939234e+02	-1.582496e-02
2.956211e+02	-1.600796e-02
2.973286e+02	-1.619307e-02
2.990459e+02	-1.638031e-02
3.007732e+02	-1.656972e-02
3.025104e+02	-1.676131e-02
3.042577e+02	-1.695511e-02
3.060151e+02	-1.715115e-02
3.077826e+02	-1.734946e-02
3.095604e+02	-1.755005e-02
3.113484e+02	-1.775295e-02
3.131467e+02	-1.795820e-02
3.149554e+02	-1.816581e-02
3.167746e+02	-1.837582e-02
3.186043e+02	-1.858825e-02
3.204445e+02	-1.880313e-02
3.222954e+02	-1.902049e-02
3.241570e+02	-1.924036e-02
3.260293e+02	-1.946276e-02
3.279124e+02	-1.968773e-02
3.298064e+02	-1.991530e-02
3.317114e+02	-2.014548e-02
3.336273e+02	-2.037832e-02
3.355544e+02	-2.061385e-02
3.374925e+02	-2.085209e-02
3.394418e+02	-2.109308e-02
3.414024e+02	-2.133684e-02
3.433744e+02	-2.158342e-02
3.453577e+02	-2.183284e-02
3.473525e+02	-2.208513e-02
3.493588e+02	-2.234034e-02
3.513766e+02	-2.259848e-02
3.534062e+02	-2.285960e-02
3.554474e+02	-2.312372e-02
3.575005e+02	-2.339089e-02
3.595654e+02	-2.366114e-02
3.616422e+02	-2.393450e-02
3.637311e+02	-2.421102e-02
3.658320e+02	-2.449071e-02
3.679450e+02	-2.477363e-02
3.700702e+02	-2.505981e-02
3.722077e+02	-2.534929e-02
3.743576e+02	-2.564209e-02
3.765199e+02	-2.593827e-02
3.786946e+02	-2.623786e-02
3.808820e+02	-2.654090e-02
3.830819e+02	-2.684743e-02
3.852946e+02	-2.715749e-02
3.875200e+02	-2.747112e-02
3.897583e+02	-2.778836e-02
3.920096e+02	-2.810925e-02
3.942738e+02	-2.843383e-02
3.965511e+02	-2.876215e-02
3.988416e+02	-2.909425e-02
4.011452e+02	-2.943017e-02
4.034622e+02	-2.976995e-02
4.057926e+02	-3.011365e-02
4.081365e+02	-3.046129e-02
4.104938e+02	-3.081294e-02
4.128648e+02	-3.116863e-02
4.152495e+02	-3.152841e-02
4.176480e+02	-3.189233e-02
4.200603e+02	-3.226044e-02
4.224866e+02	-3.263277e-02
4.249268e+02	-3.300939e-02
4.273812e+02	-3.339034e-02
4.298497e+02	-3.377567e-02
4.323325e+02	-3.416542e-02
4.348297e+02	-3.455966e-02
4.373412e+02	-3.495842e-02
4.398673e+02	-3.536177e-02
4.424079e+02	-3.576976e-02
4.449633e+02	-3.618243e-02
4.475334e+02	-3.659984e-02
4.501183e+02	-3.702205e-02
4.527182e+02	-3.744910e-02
4.553330e+02	-3.788106e-02
4.579630e+02	-3.831798e-02
4.606082e+02	-3.875992e-02
4.632687e+02	-3.920693e-02
4.659445e+02	-3.965908e-02
4.686358e+02	-4.011641e-02
4.713426e+02	-4.057899e-02
4.740650e+02	-4.104688e-02
4.768032e+02	-4.152014e-02
4.795572e+02	-4.199883e-02
4.823271e+02	-4.248301e-02
4.851130e+02	-4.297275e-02
4.879150e+02	-4.346810e-02
4.907332e+02	-4.396914e-02
4.935676e+02	-4.447592e-02
4.964185e+02	-4.498851e-02
4.992858e+02	-4.550698e-02
5.021696e+02	-4.603139e-02
5.050701e+02	-4.656181e-02
5.079874e+02	-4.709831e-02
5.109215e+02	-4.764095e-02
5.138726e+02	-4.818982e-02
5.168407e+02	-4.874497e-02
5.198259e+02	-4.930648e-02
5.228284e+02	-4.987442e-02
5.258482e+02	-5.044887e-02
5.288855e+02	-5.102989e-02
5.319403e+02	-5.161757e-02
5.350128e+02	-5.221197e-02
5.381030e+02	-5.281318e-02
5.412111e+02	-5.342126e-02
5.443371e+02	-5.403630e-02
5.474812e+02	-5.465838e-02
5.506434e+02	-5.528758e-02
5.538239e+02	-5.592397e-02
5.570228e+02	-5.656764e-02
5.602401e+02	-5.721867e-02
5.634760e+02	-5.787714e-02
5.667306e+02	-5.854313e-02
5.700040e+02	-5.921674e-02
5.732964e+02	-5.989805e-02
5.766077e+02	-6.058713e-02
5.799382e+02	-6.128409e-02
5.832879e+02	-6.198901e-02
5.866569e+02	-6.270198e-02
5.900454e+02	-6.342309e-02
5.934535e+02	-6.415244e-02
5.968813e+02	-6.489010e-02
6.003288e+02	-6.563618e-02
6.037963e+02	-6.639078e-02
6.072838e+02	-6.715398e-02
6.107914e+02	-6.792589e-02
6.143194e+02	-6.870660e-02
6.178676e+02	-6.949622e-02
6.214364e+02	-7.029483e-02
6.250258e+02	-7.110255e-02
6.286359e+02	-7.191946e-02
6.322669e+02	-7.274569e-02
6.359189e+02	-7.358133e-02
6.395919e+02	-7.442648e-02
6.432862e+02	-7.528126e-02
6.470017e+02	-7.614576e-02
6.507388e+02	-7.702011e-02
6.544974e+02	-7.790441e-02
6.582778e+02	-7.879876e-02
6.620800e+02	-7.970329e-02
6.659041e+02	-8.061811e-02
6.697504e+02	-8.154333e-02
6.736188e+02	-8.247906e-02
6.775096e+02	-8.342543e-02
6.814229e+02	-8.438255e-02
6.853587e+02	-8.535055e-02
6.893173e+02	-8.632953e-02
6.932988e+02	-8.731964e-02
6.973033e+02	-8.832098e-02
7.013309e+02	-8.933369e-02
