Frequency(Hz)	Magnitude(dB)
1.000000e+01	-2.259946e+00
1.005776e+01	-2.280253e+00
1.011585e+01	-2.300861e+00
1.017428e+01	-2.321294e+00
1.023305e+01	-2.342231e+00
1.029215e+01	-2.363071e+00
1.035160e+01	-2.384254e+00
1.041139e+01	-2.405319e+00
1.047153e+01	-2.426540e+00
1.053201e+01	-2.448270e+00
1.059284e+01	-2.469752e+00
1.065403e+01	-2.491643e+00
1.071556e+01	-2.513418e+00
1.077746e+01	-2.535596e+00
1.083971e+01	-2.557871e+00
1.090232e+01	-2.580148e+00
1.096529e+01	-2.602601e+00
1.102862e+01	-2.625198e+00
1.109232e+01	-2.648133e+00
1.115639e+01	-2.670910e+00
1.122083e+01	-2.693873e+00
1.128564e+01	-2.717251e+00
1.135083e+01	-2.740291e+00
1.141639e+01	-2.763961e+00
1.148233e+01	-2.787663e+00
1.154865e+01	-2.811287e+00
1.161536e+01	-2.835169e+00
1.168245e+01	-2.859421e+00
1.174992e+01	-2.883209e+00
1.181779e+01	-2.907772e+00
1.188605e+01	-2.932159e+00
1.195470e+01	-2.956919e+00
1.202375e+01	-2.981522e+00
1.209320e+01	-3.006724e+00
1.216305e+01	-3.031579e+00
1.223330e+01	-3.057120e+00
1.230396e+01	-3.082215e+00
1.237503e+01	-3.107877e+00
1.244651e+01	-3.133500e+00
1.251840e+01	-3.159242e+00
1.259070e+01	-3.185118e+00
1.266343e+01	-3.210988e+00
1.273657e+01	-3.237405e+00
1.281014e+01	-3.263814e+00
1.288413e+01	-3.290317e+00
1.295855e+01	-3.316739e+00
1.303339e+01	-3.343741e+00
1.310867e+01	-3.370536e+00
1.318439e+01	-3.397491e+00
1.326054e+01	-3.424856e+00
1.333713e+01	-3.452181e+00
1.341417e+01	-3.479776e+00
1.349165e+01	-3.507414e+00
1.356958e+01	-3.535093e+00
1.364795e+01	-3.563113e+00
1.372678e+01	-3.590945e+00
1.380607e+01	-3.619357e+00
1.388581e+01	-3.647507e+00
1.396602e+01	-3.676161e+00
1.404668e+01	-3.705024e+00
1.412782e+01	-3.733638e+00
1.420942e+01	-3.762620e+00
1.429149e+01	-3.791854e+00
1.437404e+01	-3.821045e+00
1.445706e+01	-3.850201e+00
1.454057e+01	-3.879696e+00
1.462455e+01	-3.909213e+00
1.470902e+01	-3.939248e+00
1.479398e+01	-3.969039e+00
1.487943e+01	-3.999124e+00
1.496537e+01	-4.029371e+00
1.505181e+01	-4.059370e+00
1.513875e+01	-4.090169e+00
1.522619e+01	-4.120733e+00
1.531414e+01	-4.151548e+00
1.540259e+01	-4.182133e+00
1.549156e+01	-4.213107e+00
1.558103e+01	-4.244235e+00
1.567103e+01	-4.275549e+00
1.576155e+01	-4.306917e+00
1.585258e+01	-4.338616e+00
1.594415e+01	-4.369978e+00
1.603624e+01	-4.401988e+00
1.612886e+01	-4.433990e+00
1.622202e+01	-4.465946e+00
1.631572e+01	-4.498485e+00
1.640996e+01	-4.530454e+00
1.650474e+01	-4.562716e+00
1.660008e+01	-4.595505e+00
1.669596e+01	-4.628201e+00
1.679239e+01	-4.661267e+00
1.688938e+01	-4.694387e+00
1.698694e+01	-4.727194e+00
1.708505e+01	-4.760463e+00
1.718373e+01	-4.794093e+00
1.728299e+01	-4.827403e+00
1.738281e+01	-4.861104e+00
1.748322e+01	-4.894930e+00
1.758420e+01	-4.928854e+00
1.768576e+01	-4.962607e+00
1.778792e+01	-4.996804e+00
1.789066e+01	-5.030796e+00
1.799399e+01	-5.065337e+00
1.809793e+01	-5.099783e+00
1.820246e+01	-5.134612e+00
1.830760e+01	-5.169271e+00
1.841334e+01	-5.204064e+00
1.851969e+01	-5.238999e+00
1.862666e+01	-5.274407e+00
1.873425e+01	-5.309461e+00
1.884246e+01	-5.344817e+00
1.895129e+01	-5.379995e+00
1.906075e+01	-5.415856e+00
1.917085e+01	-5.451671e+00
1.928158e+01	-5.487572e+00
1.939295e+01	-5.523429e+00
1.950496e+01	-5.559242e+00
1.961762e+01	-5.595350e+00
1.973093e+01	-5.631730e+00
1.984490e+01	-5.668159e+00
1.995952e+01	-5.704492e+00
2.007480e+01	-5.741228e+00
2.019076e+01	-5.777946e+00
2.030738e+01	-5.814951e+00
2.042467e+01	-5.851892e+00
2.054264e+01	-5.888873e+00
2.066130e+01	-5.926385e+00
2.078064e+01	-5.963547e+00
2.090066e+01	-6.001191e+00
2.102139e+01	-6.038578e+00
2.114280e+01	-6.076193e+00
2.126492e+01	-6.114002e+00
2.138775e+01	-6.151996e+00
2.151128e+01	-6.189810e+00
2.163553e+01	-6.227801e+00
2.176050e+01	-6.265652e+00
2.188619e+01	-6.304204e+00
2.201260e+01	-6.342457e+00
2.213974e+01	-6.380783e+00
2.226762e+01	-6.419386e+00
2.239624e+01	-6.458199e+00
2.252560e+01	-6.496954e+00
2.265571e+01	-6.535675e+00
2.278656e+01	-6.574968e+00
2.291818e+01	-6.613929e+00
2.305055e+01	-6.653032e+00
2.318369e+01	-6.692182e+00
2.331760e+01	-6.732060e+00
2.345228e+01	-6.770969e+00
2.358774e+01	-6.810253e+00
2.372398e+01	-6.850003e+00
2.386101e+01	-6.890051e+00
2.399883e+01	-6.929871e+00
2.413745e+01	-6.970126e+00
2.427686e+01	-7.010249e+00
2.441709e+01	-7.049820e+00
2.455812e+01	-7.090181e+00
2.469997e+01	-7.130394e+00
2.484263e+01	-7.170931e+00
2.498612e+01	-7.211511e+00
2.513044e+01	-7.252073e+00
2.527559e+01	-7.292640e+00
2.542158e+01	-7.333265e+00
2.556842e+01	-7.374274e+00
2.571610e+01	-7.415036e+00
2.586463e+01	-7.455800e+00
2.601403e+01	-7.496727e+00
2.616428e+01	-7.538735e+00
2.631541e+01	-7.579711e+00
2.646740e+01	-7.620631e+00
2.662028e+01	-7.662141e+00
2.677404e+01	-7.703570e+00
2.692868e+01	-7.745170e+00
2.708422e+01	-7.786779e+00
2.724066e+01	-7.828246e+00
2.739800e+01	-7.870528e+00
2.755625e+01	-7.912580e+00
2.771541e+01	-7.954465e+00
2.787550e+01	-7.996408e+00
2.803650e+01	-8.038881e+00
2.819844e+01	-8.080637e+00
2.836131e+01	-8.123145e+00
2.852513e+01	-8.165430e+00
2.868989e+01	-8.207493e+00
2.885560e+01	-8.250289e+00
2.902227e+01	-8.292552e+00
2.918990e+01	-8.335643e+00
2.935850e+01	-8.378109e+00
2.952807e+01	-8.421278e+00
2.969863e+01	-8.464026e+00
2.987016e+01	-8.506981e+00
3.004269e+01	-8.549863e+00
3.021622e+01	-8.593089e+00
3.039075e+01	-8.635649e+00
3.056628e+01	-8.679497e+00
3.074283e+01	-8.722440e+00
3.092040e+01	-8.766004e+00
3.109900e+01	-8.809505e+00
3.127862e+01	-8.852760e+00
3.145929e+01	-8.896770e+00
3.164099e+01	-8.939793e+00
3.182375e+01	-8.983235e+00
3.200756e+01	-9.027139e+00
3.219244e+01	-9.070897e+00
3.237838e+01	-9.114987e+00
3.256540e+01	-9.159247e+00
3.275349e+01	-9.203250e+00
3.294268e+01	-9.247288e+00
3.313295e+01	-9.291813e+00
3.332433e+01	-9.335100e+00
3.351681e+01	-9.379282e+00
3.371040e+01	-9.423444e+00
3.390511e+01	-9.467958e+00
3.410094e+01	-9.512496e+00
3.429791e+01	-9.557147e+00
3.449601e+01	-9.600749e+00
3.469526e+01	-9.646081e+00
3.489566e+01	-9.690942e+00
3.509721e+01	-9.735289e+00
3.529993e+01	-9.780160e+00
3.550382e+01	-9.824568e+00
3.570889e+01	-9.869988e+00
3.591515e+01	-9.914550e+00
3.612259e+01	-9.959255e+00
3.633123e+01	-1.000442e+01
3.654108e+01	-1.005014e+01
3.675214e+01	-1.009432e+01
3.696442e+01	-1.013982e+01
3.717792e+01	-1.018470e+01
3.739266e+01	-1.023040e+01
3.760864e+01	-1.027607e+01
3.782587e+01	-1.032067e+01
3.804435e+01	-1.036681e+01
3.826409e+01	-1.041276e+01
3.848510e+01	-1.045741e+01
3.870739e+01	-1.050315e+01
3.893096e+01	-1.054857e+01
3.915583e+01	-1.059444e+01
3.938199e+01	-1.063943e+01
3.960946e+01	-1.068597e+01
3.983824e+01	-1.073167e+01
4.006834e+01	-1.077732e+01
4.029978e+01	-1.082320e+01
4.053255e+01	-1.086875e+01
4.076666e+01	-1.091491e+01
4.100213e+01	-1.096169e+01
4.123896e+01	-1.100642e+01
4.147715e+01	-1.105285e+01
4.171672e+01	-1.109888e+01
4.195767e+01	-1.114544e+01
4.220002e+01	-1.119143e+01
4.244377e+01	-1.123769e+01
4.268892e+01	-1.128418e+01
4.293549e+01	-1.133020e+01
4.318348e+01	-1.137680e+01
4.343291e+01	-1.142309e+01
4.368377e+01	-1.146893e+01
4.393609e+01	-1.151543e+01
4.418986e+01	-1.156239e+01
4.444510e+01	-1.160882e+01
4.470182e+01	-1.165521e+01
4.496001e+01	-1.170287e+01
4.521970e+01	-1.174897e+01
4.548089e+01	-1.179572e+01
4.574358e+01	-1.184258e+01
4.600779e+01	-1.188902e+01
4.627353e+01	-1.193637e+01
4.654081e+01	-1.198296e+01
4.680963e+01	-1.203004e+01
4.708000e+01	-1.207654e+01
4.735193e+01	-1.212416e+01
4.762543e+01	-1.217014e+01
4.790051e+01	-1.221725e+01
4.817719e+01	-1.226524e+01
4.845545e+01	-1.231175e+01
4.873533e+01	-1.235807e+01
4.901682e+01	-1.240599e+01
4.929994e+01	-1.245306e+01
4.958470e+01	-1.250127e+01
4.987110e+01	-1.254702e+01
5.015915e+01	-1.259505e+01
5.044887e+01	-1.264218e+01
5.074026e+01	-1.268909e+01
5.103333e+01	-1.273686e+01
5.132810e+01	-1.278448e+01
5.162457e+01	-1.283080e+01
5.192275e+01	-1.287923e+01
5.222265e+01	-1.292772e+01
5.252429e+01	-1.297345e+01
5.282767e+01	-1.302127e+01
5.313280e+01	-1.306876e+01
5.343969e+01	-1.311588e+01
5.374836e+01	-1.316370e+01
5.405880e+01	-1.321142e+01
5.437105e+01	-1.325950e+01
5.468509e+01	-1.330701e+01
5.500095e+01	-1.335475e+01
5.531863e+01	-1.340258e+01
5.563815e+01	-1.345079e+01
5.595951e+01	-1.349808e+01
5.628273e+01	-1.354602e+01
5.660782e+01	-1.359422e+01
5.693479e+01	-1.364132e+01
5.726364e+01	-1.368917e+01
5.759439e+01	-1.373757e+01
5.792705e+01	-1.378485e+01
5.826164e+01	-1.383280e+01
5.859815e+01	-1.388123e+01
5.893662e+01	-1.392914e+01
5.927703e+01	-1.397699e+01
5.961941e+01	-1.402587e+01
5.996377e+01	-1.407327e+01
6.031012e+01	-1.412195e+01
6.065847e+01	-1.416911e+01
6.100883e+01	-1.421788e+01
6.136121e+01	-1.426552e+01
6.171563e+01	-1.431379e+01
6.207210e+01	-1.436136e+01
6.243063e+01	-1.441079e+01
6.279122e+01	-1.445795e+01
6.315390e+01	-1.450712e+01
6.351868e+01	-1.455497e+01
6.388556e+01	-1.460334e+01
6.425456e+01	-1.465176e+01
6.462569e+01	-1.469953e+01
6.499897e+01	-1.474860e+01
6.537440e+01	-1.479631e+01
6.575200e+01	-1.484521e+01
6.613178e+01	-1.489382e+01
6.651375e+01	-1.494176e+01
6.689793e+01	-1.499016e+01
6.728433e+01	-1.503874e+01
6.767297e+01	-1.508761e+01
6.806384e+01	-1.513639e+01
6.845698e+01	-1.518442e+01
6.885238e+01	-1.523214e+01
6.925007e+01	-1.528147e+01
6.965005e+01	-1.532988e+01
7.005235e+01	-1.537815e+01
7.045697e+01	-1.542586e+01
7.086393e+01	-1.547540e+01
7.127323e+01	-1.552385e+01
7.168490e+01	-1.557329e+01
7.209895e+01	-1.562126e+01
7.251539e+01	-1.566994e+01
7.293424e+01	-1.571890e+01
7.335551e+01	-1.576803e+01
7.377920e+01	-1.581634e+01
7.420535e+01	-1.586518e+01
7.463396e+01	-1.591331e+01
7.506504e+01	-1.596241e+01
7.549861e+01	-1.601159e+01
7.593469e+01	-1.606049e+01
7.637328e+01	-1.610924e+01
7.681441e+01	-1.615804e+01
7.725809e+01	-1.620632e+01
7.770433e+01	-1.625507e+01
7.815315e+01	-1.630394e+01
7.860456e+01	-1.635377e+01
7.905857e+01	-1.640216e+01
7.951521e+01	-1.645092e+01
7.997449e+01	-1.649922e+01
8.043642e+01	-1.654945e+01
8.090102e+01	-1.659763e+01
8.136830e+01	-1.664751e+01
8.183828e+01	-1.669438e+01
8.231097e+01	-1.674479e+01
8.278640e+01	-1.679402e+01
8.326457e+01	-1.684267e+01
8.374550e+01	-1.689099e+01
8.422921e+01	-1.694207e+01
8.471572e+01	-1.698931e+01
8.520503e+01	-1.703776e+01
8.569717e+01	-1.708746e+01
8.619215e+01	-1.713659e+01
8.669000e+01	-1.718545e+01
8.719071e+01	-1.723452e+01
8.769432e+01	-1.728420e+01
8.820084e+01	-1.733279e+01
8.871029e+01	-1.738176e+01
8.922267e+01	-1.743169e+01
8.973802e+01	-1.747956e+01
9.025634e+01	-1.752980e+01
9.077766e+01	-1.757822e+01
9.130199e+01	-1.762750e+01
9.182935e+01	-1.767692e+01
9.235975e+01	-1.772586e+01
9.289321e+01	-1.777479e+01
9.342976e+01	-1.782352e+01
9.396941e+01	-1.787328e+01
9.451217e+01	-1.792242e+01
9.505807e+01	-1.797170e+01
9.560712e+01	-1.802185e+01
9.615934e+01	-1.807063e+01
9.671476e+01	-1.812057e+01
9.727338e+01	-1.816981e+01
9.783522e+01	-1.821834e+01
9.840032e+01	-1.826764e+01
9.896867e+01	-1.831698e+01
9.954031e+01	-1.836693e+01
1.001153e+02	-1.841471e+01
1.006935e+02	-1.846618e+01
1.012751e+02	-1.851445e+01
1.018601e+02	-1.856411e+01
1.024484e+02	-1.861313e+01
1.030402e+02	-1.866203e+01
1.036353e+02	-1.871217e+01
1.042339e+02	-1.875960e+01
1.048360e+02	-1.881054e+01
1.054415e+02	-1.886014e+01
1.060505e+02	-1.890903e+01
1.066631e+02	-1.895913e+01
1.072791e+02	-1.900884e+01
1.078988e+02	-1.905777e+01
1.085220e+02	-1.910665e+01
1.091488e+02	-1.915550e+01
1.097793e+02	-1.920476e+01
1.104133e+02	-1.925533e+01
1.110511e+02	-1.930461e+01
1.116925e+02	-1.935313e+01
1.123376e+02	-1.940259e+01
1.129865e+02	-1.945246e+01
1.136391e+02	-1.950192e+01
1.142955e+02	-1.955180e+01
1.149556e+02	-1.960386e+01
1.156196e+02	-1.965159e+01
1.162874e+02	-1.970146e+01
1.169591e+02	-1.974958e+01
1.176347e+02	-1.979863e+01
1.183141e+02	-1.984829e+01
1.189975e+02	-1.989862e+01
1.196848e+02	-1.994784e+01
1.203761e+02	-1.999721e+01
1.210714e+02	-2.004723e+01
1.217707e+02	-2.009708e+01
1.224740e+02	-2.014661e+01
1.231814e+02	-2.019682e+01
1.238929e+02	-2.024616e+01
1.246085e+02	-2.029424e+01
1.253283e+02	-2.034317e+01
1.260522e+02	-2.039456e+01
1.267802e+02	-2.044339e+01
1.275125e+02	-2.049489e+01
1.282490e+02	-2.054210e+01
1.289898e+02	-2.059382e+01
1.297348e+02	-2.064312e+01
1.304842e+02	-2.069132e+01
1.312378e+02	-2.074004e+01
1.319959e+02	-2.078966e+01
1.327583e+02	-2.084014e+01
1.335251e+02	-2.089059e+01
1.342963e+02	-2.093836e+01
1.350720e+02	-2.098920e+01
1.358522e+02	-2.103863e+01
1.366368e+02	-2.108842e+01
1.374260e+02	-2.113983e+01
1.382198e+02	-2.118816e+01
1.390182e+02	-2.123716e+01
1.398211e+02	-2.128851e+01
1.406287e+02	-2.133649e+01
1.414410e+02	-2.138592e+01
1.422579e+02	-2.143586e+01
1.430796e+02	-2.148506e+01
1.439060e+02	-2.153541e+01
1.447372e+02	-2.158566e+01
1.455732e+02	-2.163539e+01
1.464141e+02	-2.168264e+01
1.472597e+02	-2.173506e+01
1.481103e+02	-2.178298e+01
1.489658e+02	-2.183437e+01
1.498262e+02	-2.188441e+01
1.506916e+02	-2.193418e+01
1.515620e+02	-2.198152e+01
1.524374e+02	-2.203179e+01
1.533179e+02	-2.208146e+01
1.542034e+02	-2.213250e+01
1.550941e+02	-2.218259e+01
1.559899e+02	-2.223134e+01
1.568909e+02	-2.228313e+01
1.577971e+02	-2.233016e+01
1.587085e+02	-2.237977e+01
1.596252e+02	-2.243219e+01
1.605472e+02	-2.248206e+01
1.614745e+02	-2.252958e+01
1.624072e+02	-2.257971e+01
1.633453e+02	-2.262853e+01
1.642887e+02	-2.267987e+01
1.652377e+02	-2.272692e+01
1.661921e+02	-2.278035e+01
1.671520e+02	-2.282957e+01
1.681175e+02	-2.287693e+01
1.690885e+02	-2.292715e+01
1.700651e+02	-2.297779e+01
1.710474e+02	-2.302806e+01
1.720354e+02	-2.307850e+01
1.730291e+02	-2.312900e+01
1.740285e+02	-2.317568e+01
1.750337e+02	-2.322724e+01
1.760446e+02	-2.327734e+01
1.770615e+02	-2.332593e+01
1.780842e+02	-2.337757e+01
1.791128e+02	-2.342696e+01
1.801473e+02	-2.347655e+01
1.811878e+02	-2.352288e+01
1.822344e+02	-2.357666e+01
1.832870e+02	-2.362629e+01
1.843456e+02	-2.367600e+01
1.854104e+02	-2.372585e+01
1.864813e+02	-2.377898e+01
1.875584e+02	-2.382465e+01
1.886418e+02	-2.387676e+01
1.897313e+02	-2.392471e+01
1.908272e+02	-2.397350e+01
1.919294e+02	-2.402493e+01
1.930380e+02	-2.407465e+01
1.941530e+02	-2.412447e+01
1.952744e+02	-2.417350e+01
1.964023e+02	-2.422360e+01
1.975367e+02	-2.427368e+01
1.986777e+02	-2.432322e+01
1.998252e+02	-2.437243e+01
2.009794e+02	-2.442571e+01
2.021403e+02	-2.447232e+01
2.033078e+02	-2.452349e+01
2.044821e+02	-2.457127e+01
2.056632e+02	-2.462412e+01
2.068511e+02	-2.467137e+01
2.080459e+02	-2.472358e+01
2.092475e+02	-2.477136e+01
2.104561e+02	-2.482259e+01
2.116717e+02	-2.487162e+01
2.128943e+02	-2.492223e+01
2.141240e+02	-2.497279e+01
2.153608e+02	-2.502132e+01
2.166047e+02	-2.507307e+01
2.178558e+02	-2.512080e+01
2.191141e+02	-2.517050e+01
2.203797e+02	-2.522064e+01
2.216526e+02	-2.527140e+01
2.229329e+02	-2.532251e+01
2.242205e+02	-2.536989e+01
2.255156e+02	-2.542111e+01
2.268182e+02	-2.547258e+01
2.281283e+02	-2.552132e+01
2.294459e+02	-2.557136e+01
2.307712e+02	-2.562185e+01
2.321041e+02	-2.567003e+01
2.334447e+02	-2.572181e+01
2.347931e+02	-2.576954e+01
2.361493e+02	-2.581805e+01
2.375133e+02	-2.587195e+01
2.388851e+02	-2.592089e+01
2.402649e+02	-2.597100e+01
2.416527e+02	-2.602067e+01
2.430484e+02	-2.607284e+01
2.444523e+02	-2.612173e+01
2.458642e+02	-2.617094e+01
2.472843e+02	-2.622067e+01
2.487126e+02	-2.626969e+01
2.501492e+02	-2.631570e+01
2.515940e+02	-2.636756e+01
2.530472e+02	-2.641850e+01
2.545088e+02	-2.646977e+01
2.559789e+02	-2.651952e+01
2.574574e+02	-2.657192e+01
2.589444e+02	-2.662271e+01
2.604401e+02	-2.667110e+01
2.619444e+02	-2.672115e+01
2.634574e+02	-2.676739e+01
2.649791e+02	-2.681909e+01
2.665096e+02	-2.686800e+01
2.680489e+02	-2.692121e+01
2.695972e+02	-2.696526e+01
2.711544e+02	-2.702128e+01
2.727205e+02	-2.706767e+01
2.742958e+02	-2.712191e+01
2.758801e+02	-2.717339e+01
2.774736e+02	-2.722223e+01
2.790762e+02	-2.727133e+01
2.806882e+02	-2.731914e+01
2.823094e+02	-2.737543e+01
2.839400e+02	-2.741928e+01
2.855800e+02	-2.747216e+01
2.872295e+02	-2.751996e+01
2.888886e+02	-2.756981e+01
2.905572e+02	-2.761608e+01
2.922354e+02	-2.767112e+01
2.939234e+02	-2.772010e+01
2.956211e+02	-2.777284e+01
2.973286e+02	-2.781878e+01
2.990459e+02	-2.787206e+01
3.007732e+02	-2.791704e+01
3.025104e+02	-2.796651e+01
3.042577e+02	-2.801945e+01
3.060151e+02	-2.807109e+01
3.077826e+02	-2.811916e+01
3.095604e+02	-2.816537e+01
3.113484e+02	-2.822027e+01
3.131467e+02	-2.827111e+01
3.149554e+02	-2.832010e+01
3.167746e+02	-2.836962e+01
3.186043e+02	-2.841877e+01
3.204445e+02	-2.847287e+01
3.222954e+02	-2.852177e+01
3.241570e+02	-2.856895e+01
3.260293e+02	-2.861888e+01
3.279124e+02	-2.867148e+01
3.298064e+02	-2.871939e+01
3.317114e+02	-2.877160e+01
3.336273e+02	-2.881745e+01
3.355544e+02	-2.886902e+01
3.374925e+02	-2.892439e+01
3.394418e+02	-2.897146e+01
3.414024e+02	-2.902135e+01
3.433744e+02	-2.907330e+01
3.453577e+02	-2.911948e+01
3.473525e+02	-2.917218e+01
3.493588e+02	-2.921982e+01
3.513766e+02	-2.926829e+01
3.534062e+02	-2.932092e+01
3.554474e+02	-2.937003e+01
3.575005e+02	-2.942419e+01
3.595654e+02	-2.947301e+01
3.616422e+02	-2.952600e+01
3.637311e+02	-2.956850e+01
3.658320e+02	-2.962132e+01
3.679450e+02	-2.967437e+01
3.700702e+02	-2.971912e+01
3.722077e+02	-2.976927e+01
3.743576e+02	-2.982206e+01
3.765199e+02	-2.987896e+01
3.786946e+02	-2.992293e+01
3.808820e+02	-2.997028e+01
3.830819e+02	-3.002194e+01
3.852946e+02	-3.007349e+01
3.875200e+02	-3.011945e+01
3.897583e+02	-3.017021e+01
3.920096e+02	-3.022235e+01
3.942738e+02	-3.028261e+01
3.965511e+02	-3.032516e+01
3.988416e+02	-3.037576e+01
4.011452e+02	-3.042370e+01
4.034622e+02	-3.047385e+01
4.057926e+02	-3.052355e+01
4.081365e+02	-3.057837e+01
4.104938e+02	-3.062392e+01
4.128648e+02	-3.067493e+01
4.152495e+02	-3.072730e+01
4.176480e+02	-3.076830e+01
4.200603e+02	-3.082153e+01
4.224866e+02	-3.087412e+01
4.249268e+02	-3.092349e+01
4.273812e+02	-3.097131e+01
4.298497e+02	-3.102567e+01
4.323325e+02	-3.107495e+01
4.348297e+02	-3.112471e+01
4.373412e+02	-3.117528e+01
4.398673e+02	-3.122070e+01
4.424079e+02	-3.127882e+01
4.449633e+02	-3.132323e+01
4.475334e+02	-3.137332e+01
4.501183e+02	-3.142359e+01
4.527182e+02	-3.147540e+01
4.553330e+02	-3.152676e+01
4.579630e+02	-3.157625e+01
4.606082e+02	-3.162496e+01
4.632687e+02	-3.167501e+01
4.659445e+02	-3.171833e+01
4.686358e+02	-3.177650e+01
4.713426e+02	-3.182725e+01
4.740650e+02	-3.187744e+01
4.768032e+02	-3.192195e+01
4.795572e+02	-3.197288e+01
4.823271e+02	-3.203200e+01
4.851130e+02	-3.207753e+01
4.879150e+02	-3.212574e+01
4.907332e+02	-3.217990e+01
4.935676e+02	-3.223460e+01
4.964185e+02	-3.227937e+01
4.992858e+02	-3.233211e+01
5.021696e+02	-3.237554e+01
5.050701e+02	-3.242787e+01
5.079874e+02	-3.248268e+01
5.109215e+02	-3.252027e+01
5.138726e+02	-3.258099e+01
5.168407e+02	-3.263080e+01
5.198259e+02	-3.267837e+01
5.228284e+02	-3.272992e+01
5.258482e+02	-3.278198e+01
5.288855e+02	-3.283213e+01
5.319403e+02	-3.288110e+01
5.350128e+02	-3.293115e+01
5.381030e+02	-3.297463e+01
5.412111e+02	-3.302861e+01
5.443371e+02	-3.308033e+01
5.474812e+02	-3.313050e+01
5.506434e+02	-3.318594e+01
5.538239e+02	-3.323231e+01
5.570228e+02	-3.328589e+01
5.602401e+02	-3.333322e+01
5.634760e+02	-3.338129e+01
5.667306e+02	-3.343394e+01
5.700040e+02	-3.348691e+01
5.732964e+02	-3.353298e+01
5.766077e+02	-3.358262e+01
5.799382e+02	-3.363356e+01
5.832879e+02	-3.367983e+01
5.866569e+02	-3.373465e+01
5.900454e+02	-3.378826e+01
5.934535e+02	-3.384043e+01
5.968813e+02	-3.388755e+01
6.003288e+02	-3.394140e+01
6.037963e+02	-3.398396e+01
6.072838e+02	-3.403943e+01
6.107914e+02	-3.408084e+01
6.143194e+02	-3.413378e+01
6.178676e+02	-3.418869e+01
6.214364e+02	-3.423933e+01
6.250258e+02	-3.429397e+01
6.286359e+02	-3.434089e+01
6.322669e+02	-3.438637e+01
6.359189e+02	-3.443536e+01
6.395919e+02	-3.449103e+01
6.432862e+02	-3.453478e+01
6.470017e+02	-3.459586e+01
6.507388e+02	-3.464532e+01
6.544974e+02	-3.468730e+01
6.582778e+02	-3.474516e+01
6.620800e+02	-3.479187e+01
6.659041e+02	-3.484903e+01
6.697504e+02	-3.489545e+01
6.736188e+02	-3.494955e+01
6.775096e+02	-3.499850e+01
6.814229e+02	-3.503645e+01
6.853587e+02	-3.509750e+01
6.893173e+02	-3.515412e+01
6.932988e+02	-3.519061e+01
6.973033e+02	-3.524446e+01
7.013309e+02	-3.530072e+01
