Frequency(Hz)	Magnitude(dB)
1.000000e+01	-2.297821e+00
1.005776e+01	-2.318247e+00
1.011585e+01	-2.339223e+00
1.017428e+01	-2.360187e+00
1.023305e+01	-2.381257e+00
1.029215e+01	-2.402201e+00
1.035160e+01	-2.423423e+00
1.041139e+01	-2.445240e+00
1.047153e+01	-2.466749e+00
1.053201e+01	-2.488434e+00
1.059284e+01	-2.510414e+00
1.065403e+01	-2.532411e+00
1.071556e+01	-2.554668e+00
1.077746e+01	-2.576944e+00
1.083971e+01	-2.599265e+00
1.090232e+01	-2.621942e+00
1.096529e+01	-2.644662e+00
1.102862e+01	-2.667445e+00
1.109232e+01	-2.690709e+00
1.115639e+01	-2.713819e+00
1.122083e+01	-2.737407e+00
1.128564e+01	-2.760684e+00
1.135083e+01	-2.784173e+00
1.141639e+01	-2.807879e+00
1.148233e+01	-2.831871e+00
1.154865e+01	-2.855922e+00
1.161536e+01	-2.880210e+00
1.168245e+01	-2.904366e+00
1.174992e+01	-2.928849e+00
1.181779e+01	-2.953382e+00
1.188605e+01	-2.978093e+00
1.195470e+01	-3.003094e+00
1.202375e+01	-3.028165e+00
1.209320e+01	-3.053211e+00
1.216305e+01	-3.078799e+00
1.223330e+01	-3.104189e+00
1.230396e+01	-3.129814e+00
1.237503e+01	-3.155584e+00
1.244651e+01	-3.181161e+00
1.251840e+01	-3.207470e+00
1.259070e+01	-3.233595e+00
1.266343e+01	-3.260221e+00
1.273657e+01	-3.286473e+00
1.281014e+01	-3.313065e+00
1.288413e+01	-3.339745e+00
1.295855e+01	-3.366904e+00
1.303339e+01	-3.393693e+00
1.310867e+01	-3.421009e+00
1.318439e+01	-3.448427e+00
1.326054e+01	-3.475806e+00
1.333713e+01	-3.503751e+00
1.341417e+01	-3.531289e+00
1.349165e+01	-3.559072e+00
1.356958e+01	-3.587531e+00
1.364795e+01	-3.615210e+00
1.372678e+01	-3.643635e+00
1.380607e+01	-3.672237e+00
1.388581e+01	-3.700823e+00
1.396602e+01	-3.729822e+00
1.404668e+01	-3.758500e+00
1.412782e+01	-3.787806e+00
1.420942e+01	-3.816634e+00
1.429149e+01	-3.846188e+00
1.437404e+01	-3.875642e+00
1.445706e+01	-3.905081e+00
1.454057e+01	-3.934862e+00
1.462455e+01	-3.964690e+00
1.470902e+01	-3.995047e+00
1.479398e+01	-4.024653e+00
1.487943e+01	-4.055139e+00
1.496537e+01	-4.085534e+00
1.505181e+01	-4.116361e+00
1.513875e+01	-4.146952e+00
1.522619e+01	-4.177851e+00
1.531414e+01	-4.208839e+00
1.540259e+01	-4.239929e+00
1.549156e+01	-4.271107e+00
1.558103e+01	-4.302557e+00
1.567103e+01	-4.334153e+00
1.576155e+01	-4.365833e+00
1.585258e+01	-4.397574e+00
1.594415e+01	-4.429388e+00
1.603624e+01	-4.461350e+00
1.612886e+01	-4.493418e+00
1.622202e+01	-4.525989e+00
1.631572e+01	-4.558343e+00
1.640996e+01	-4.590801e+00
1.650474e+01	-4.623434e+00
1.660008e+01	-4.656503e+00
1.669596e+01	-4.689397e+00
1.679239e+01	-4.722719e+00
1.688938e+01	-4.755795e+00
1.698694e+01	-4.789071e+00
1.708505e+01	-4.822571e+00
1.718373e+01	-4.856026e+00
1.728299e+01	-4.890051e+00
1.738281e+01	-4.923955e+00
1.748322e+01	-4.958015e+00
1.758420e+01	-4.991946e+00
1.768576e+01	-5.026099e+00
1.778792e+01	-5.060511e+00
1.789066e+01	-5.095154e+00
1.799399e+01	-5.129667e+00
1.809793e+01	-5.164228e+00
1.820246e+01	-5.199339e+00
1.830760e+01	-5.234255e+00
1.841334e+01	-5.269101e+00
1.851969e+01	-5.304386e+00
1.862666e+01	-5.339720e+00
1.873425e+01	-5.375258e+00
1.884246e+01	-5.410876e+00
1.895129e+01	-5.446340e+00
1.906075e+01	-5.482385e+00
1.917085e+01	-5.518231e+00
1.928158e+01	-5.554365e+00
1.939295e+01	-5.590506e+00
1.950496e+01	-5.626648e+00
1.961762e+01	-5.663189e+00
1.973093e+01	-5.699543e+00
1.984490e+01	-5.736350e+00
1.995952e+01	-5.773026e+00
2.007480e+01	-5.810152e+00
2.019076e+01	-5.846918e+00
2.030738e+01	-5.883877e+00
2.042467e+01	-5.920818e+00
2.054264e+01	-5.958323e+00
2.066130e+01	-5.995669e+00
2.078064e+01	-6.033182e+00
2.090066e+01	-6.070687e+00
2.102139e+01	-6.108761e+00
2.114280e+01	-6.146520e+00
2.126492e+01	-6.184034e+00
2.138775e+01	-6.222315e+00
2.151128e+01	-6.260225e+00
2.163553e+01	-6.299065e+00
2.176050e+01	-6.337153e+00
2.188619e+01	-6.375652e+00
2.201260e+01	-6.414316e+00
2.213974e+01	-6.452734e+00
2.226762e+01	-6.491110e+00
2.239624e+01	-6.530405e+00
2.252560e+01	-6.569479e+00
2.265571e+01	-6.607973e+00
2.278656e+01	-6.647716e+00
2.291818e+01	-6.686562e+00
2.305055e+01	-6.726148e+00
2.318369e+01	-6.765519e+00
2.331760e+01	-6.805133e+00
2.345228e+01	-6.844429e+00
2.358774e+01	-6.884232e+00
2.372398e+01	-6.924263e+00
2.386101e+01	-6.964071e+00
2.399883e+01	-7.003980e+00
2.413745e+01	-7.044216e+00
2.427686e+01	-7.084304e+00
2.441709e+01	-7.125077e+00
2.455812e+01	-7.164979e+00
2.469997e+01	-7.205705e+00
2.484263e+01	-7.245969e+00
2.498612e+01	-7.286704e+00
2.513044e+01	-7.327180e+00
2.527559e+01	-7.368369e+00
2.542158e+01	-7.409304e+00
2.556842e+01	-7.450356e+00
2.571610e+01	-7.490753e+00
2.586463e+01	-7.532482e+00
2.601403e+01	-7.572971e+00
2.616428e+01	-7.614591e+00
2.631541e+01	-7.656667e+00
2.646740e+01	-7.697773e+00
2.662028e+01	-7.739261e+00
2.677404e+01	-7.781197e+00
2.692868e+01	-7.822683e+00
2.708422e+01	-7.864756e+00
2.724066e+01	-7.906338e+00
2.739800e+01	-7.948301e+00
2.755625e+01	-7.990455e+00
2.771541e+01	-8.032557e+00
2.787550e+01	-8.074542e+00
2.803650e+01	-8.117281e+00
2.819844e+01	-8.159575e+00
2.836131e+01	-8.201899e+00
2.852513e+01	-8.244149e+00
2.868989e+01	-8.287341e+00
2.885560e+01	-8.329337e+00
2.902227e+01	-8.372132e+00
2.918990e+01	-8.415110e+00
2.935850e+01	-8.458070e+00
2.952807e+01	-8.500974e+00
2.969863e+01	-8.543177e+00
2.987016e+01	-8.586719e+00
3.004269e+01	-8.629961e+00
3.021622e+01	-8.673440e+00
3.039075e+01	-8.716649e+00
3.056628e+01	-8.759948e+00
3.074283e+01	-8.803540e+00
3.092040e+01	-8.846593e+00
3.109900e+01	-8.889991e+00
3.127862e+01	-8.933795e+00
3.145929e+01	-8.977150e+00
3.164099e+01	-9.021285e+00
3.182375e+01	-9.065426e+00
3.200756e+01	-9.108728e+00
3.219244e+01	-9.152512e+00
3.237838e+01	-9.196784e+00
3.256540e+01	-9.241145e+00
3.275349e+01	-9.285010e+00
3.294268e+01	-9.329033e+00
3.313295e+01	-9.373325e+00
3.332433e+01	-9.417289e+00
3.351681e+01	-9.461931e+00
3.371040e+01	-9.506438e+00
3.390511e+01	-9.550846e+00
3.410094e+01	-9.595503e+00
3.429791e+01	-9.639891e+00
3.449601e+01	-9.684666e+00
3.469526e+01	-9.728929e+00
3.489566e+01	-9.773401e+00
3.509721e+01	-9.818671e+00
3.529993e+01	-9.862977e+00
3.550382e+01	-9.908473e+00
3.570889e+01	-9.953289e+00
3.591515e+01	-9.998232e+00
3.612259e+01	-1.004281e+01
3.633123e+01	-1.008801e+01
3.654108e+01	-1.013335e+01
3.675214e+01	-1.017891e+01
3.696442e+01	-1.022394e+01
3.717792e+01	-1.026952e+01
3.739266e+01	-1.031449e+01
3.760864e+01	-1.036006e+01
3.782587e+01	-1.040536e+01
3.804435e+01	-1.045060e+01
3.826409e+01	-1.049661e+01
3.848510e+01	-1.054162e+01
3.870739e+01	-1.058772e+01
3.893096e+01	-1.063338e+01
3.915583e+01	-1.067920e+01
3.938199e+01	-1.072532e+01
3.960946e+01	-1.077067e+01
3.983824e+01	-1.081658e+01
4.006834e+01	-1.086217e+01
4.029978e+01	-1.090810e+01
4.053255e+01	-1.095450e+01
4.076666e+01	-1.100019e+01
4.100213e+01	-1.104654e+01
4.123896e+01	-1.109228e+01
4.147715e+01	-1.113868e+01
4.171672e+01	-1.118491e+01
4.195767e+01	-1.123096e+01
4.220002e+01	-1.127712e+01
4.244377e+01	-1.132375e+01
4.268892e+01	-1.136968e+01
4.293549e+01	-1.141654e+01
4.318348e+01	-1.146278e+01
4.343291e+01	-1.150931e+01
4.368377e+01	-1.155642e+01
4.393609e+01	-1.160307e+01
4.418986e+01	-1.164901e+01
4.444510e+01	-1.169601e+01
4.470182e+01	-1.174197e+01
4.496001e+01	-1.178939e+01
4.521970e+01	-1.183501e+01
4.548089e+01	-1.188214e+01
4.574358e+01	-1.192958e+01
4.600779e+01	-1.197621e+01
4.627353e+01	-1.202324e+01
4.654081e+01	-1.207002e+01
4.680963e+01	-1.211675e+01
4.708000e+01	-1.216392e+01
4.735193e+01	-1.221085e+01
4.762543e+01	-1.225803e+01
4.790051e+01	-1.230521e+01
4.817719e+01	-1.235248e+01
4.845545e+01	-1.239873e+01
4.873533e+01	-1.244684e+01
4.901682e+01	-1.249359e+01
4.929994e+01	-1.254068e+01
4.958470e+01	-1.258817e+01
4.987110e+01	-1.263582e+01
5.015915e+01	-1.268272e+01
5.044887e+01	-1.273015e+01
5.074026e+01	-1.277789e+01
5.103333e+01	-1.282485e+01
5.132810e+01	-1.287239e+01
5.162457e+01	-1.292004e+01
5.192275e+01	-1.296718e+01
5.222265e+01	-1.301472e+01
5.252429e+01	-1.306217e+01
5.282767e+01	-1.311042e+01
5.313280e+01	-1.315782e+01
5.343969e+01	-1.320508e+01
5.374836e+01	-1.325283e+01
5.405880e+01	-1.329997e+01
5.437105e+01	-1.334750e+01
5.468509e+01	-1.339578e+01
5.500095e+01	-1.344386e+01
5.531863e+01	-1.349082e+01
5.563815e+01	-1.354012e+01
5.595951e+01	-1.358667e+01
5.628273e+01	-1.363489e+01
5.660782e+01	-1.368219e+01
5.693479e+01	-1.372975e+01
5.726364e+01	-1.377755e+01
5.759439e+01	-1.382726e+01
5.792705e+01	-1.387464e+01
5.826164e+01	-1.392320e+01
5.859815e+01	-1.397022e+01
5.893662e+01	-1.401839e+01
5.927703e+01	-1.406636e+01
5.961941e+01	-1.411445e+01
5.996377e+01	-1.416207e+01
6.031012e+01	-1.421101e+01
6.065847e+01	-1.425851e+01
6.100883e+01	-1.430728e+01
6.136121e+01	-1.435517e+01
6.171563e+01	-1.440288e+01
6.207210e+01	-1.445169e+01
6.243063e+01	-1.449928e+01
6.279122e+01	-1.454828e+01
6.315390e+01	-1.459662e+01
6.351868e+01	-1.464475e+01
6.388556e+01	-1.469346e+01
6.425456e+01	-1.474042e+01
6.462569e+01	-1.479036e+01
6.499897e+01	-1.483777e+01
6.537440e+01	-1.488682e+01
6.575200e+01	-1.493473e+01
6.613178e+01	-1.498305e+01
6.651375e+01	-1.503203e+01
6.689793e+01	-1.508081e+01
6.728433e+01	-1.512860e+01
6.767297e+01	-1.517671e+01
6.806384e+01	-1.522572e+01
6.845698e+01	-1.527427e+01
6.885238e+01	-1.532296e+01
6.925007e+01	-1.537082e+01
6.965005e+01	-1.541948e+01
7.005235e+01	-1.546828e+01
7.045697e+01	-1.551761e+01
7.086393e+01	-1.556513e+01
7.127323e+01	-1.561511e+01
7.168490e+01	-1.566314e+01
7.209895e+01	-1.571153e+01
7.251539e+01	-1.576036e+01
7.293424e+01	-1.580781e+01
7.335551e+01	-1.585786e+01
7.377920e+01	-1.590521e+01
7.420535e+01	-1.595628e+01
7.463396e+01	-1.600495e+01
7.506504e+01	-1.605356e+01
7.549861e+01	-1.610179e+01
7.593469e+01	-1.615106e+01
7.637328e+01	-1.619940e+01
7.681441e+01	-1.624760e+01
7.725809e+01	-1.629776e+01
7.770433e+01	-1.634609e+01
7.815315e+01	-1.639533e+01
7.860456e+01	-1.644454e+01
7.905857e+01	-1.649159e+01
7.951521e+01	-1.654083e+01
7.997449e+01	-1.659165e+01
8.043642e+01	-1.663980e+01
8.090102e+01	-1.668855e+01
8.136830e+01	-1.673759e+01
8.183828e+01	-1.678715e+01
8.231097e+01	-1.683575e+01
8.278640e+01	-1.688446e+01
8.326457e+01	-1.693410e+01
8.374550e+01	-1.698184e+01
8.422921e+01	-1.703203e+01
8.471572e+01	-1.707949e+01
8.520503e+01	-1.713008e+01
8.569717e+01	-1.717837e+01
8.619215e+01	-1.722890e+01
8.669000e+01	-1.727676e+01
8.719071e+01	-1.732506e+01
8.769432e+01	-1.737507e+01
8.820084e+01	-1.742273e+01
8.871029e+01	-1.747397e+01
8.922267e+01	-1.752313e+01
8.973802e+01	-1.757106e+01
9.025634e+01	-1.762028e+01
9.077766e+01	-1.766989e+01
9.130199e+01	-1.771937e+01
9.182935e+01	-1.776782e+01
9.235975e+01	-1.781771e+01
9.289321e+01	-1.786693e+01
9.342976e+01	-1.791625e+01
9.396941e+01	-1.796552e+01
9.451217e+01	-1.801457e+01
9.505807e+01	-1.806338e+01
9.560712e+01	-1.811257e+01
9.615934e+01	-1.816045e+01
9.671476e+01	-1.821204e+01
9.727338e+01	-1.826012e+01
9.783522e+01	-1.831021e+01
9.840032e+01	-1.835939e+01
9.896867e+01	-1.840863e+01
9.954031e+01	-1.845722e+01
1.001153e+02	-1.850745e+01
1.006935e+02	-1.855574e+01
1.012751e+02	-1.860492e+01
1.018601e+02	-1.865605e+01
1.024484e+02	-1.870533e+01
1.030402e+02	-1.875372e+01
1.036353e+02	-1.880325e+01
1.042339e+02	-1.885225e+01
1.048360e+02	-1.890224e+01
1.054415e+02	-1.895175e+01
1.060505e+02	-1.900111e+01
1.066631e+02	-1.904784e+01
1.072791e+02	-1.909822e+01
1.078988e+02	-1.914952e+01
1.085220e+02	-1.919865e+01
1.091488e+02	-1.924890e+01
1.097793e+02	-1.929774e+01
1.104133e+02	-1.934627e+01
1.110511e+02	-1.939650e+01
1.116925e+02	-1.944473e+01
1.123376e+02	-1.949482e+01
1.129865e+02	-1.954473e+01
1.136391e+02	-1.959530e+01
1.142955e+02	-1.964307e+01
1.149556e+02	-1.969342e+01
1.156196e+02	-1.974239e+01
1.162874e+02	-1.979134e+01
1.169591e+02	-1.984189e+01
1.176347e+02	-1.989244e+01
1.183141e+02	-1.994147e+01
1.189975e+02	-1.998977e+01
1.196848e+02	-2.004168e+01
1.203761e+02	-2.009039e+01
1.210714e+02	-2.013886e+01
1.217707e+02	-2.018887e+01
1.224740e+02	-2.023855e+01
1.231814e+02	-2.028755e+01
1.238929e+02	-2.033630e+01
1.246085e+02	-2.038611e+01
1.253283e+02	-2.043588e+01
1.260522e+02	-2.048882e+01
1.267802e+02	-2.053580e+01
1.275125e+02	-2.058425e+01
1.282490e+02	-2.063326e+01
1.289898e+02	-2.068577e+01
1.297348e+02	-2.073432e+01
1.304842e+02	-2.078395e+01
1.312378e+02	-2.083249e+01
1.319959e+02	-2.088214e+01
1.327583e+02	-2.093117e+01
1.335251e+02	-2.098207e+01
1.342963e+02	-2.103224e+01
1.350720e+02	-2.108163e+01
1.358522e+02	-2.113070e+01
1.366368e+02	-2.118027e+01
1.374260e+02	-2.123134e+01
1.382198e+02	-2.127992e+01
1.390182e+02	-2.132948e+01
1.398211e+02	-2.137906e+01
1.406287e+02	-2.142936e+01
1.414410e+02	-2.147936e+01
1.422579e+02	-2.152869e+01
1.430796e+02	-2.157698e+01
1.439060e+02	-2.162765e+01
1.447372e+02	-2.167651e+01
1.455732e+02	-2.172695e+01
1.464141e+02	-2.177742e+01
1.472597e+02	-2.182980e+01
1.481103e+02	-2.187632e+01
1.489658e+02	-2.192621e+01
1.498262e+02	-2.197544e+01
1.506916e+02	-2.202585e+01
1.515620e+02	-2.207543e+01
1.524374e+02	-2.212428e+01
1.533179e+02	-2.217434e+01
1.542034e+02	-2.222390e+01
1.550941e+02	-2.227473e+01
1.559899e+02	-2.232360e+01
1.568909e+02	-2.237504e+01
1.577971e+02	-2.242256e+01
1.587085e+02	-2.247348e+01
1.596252e+02	-2.252139e+01
1.605472e+02	-2.257425e+01
1.614745e+02	-2.262251e+01
1.624072e+02	-2.267284e+01
1.633453e+02	-2.272150e+01
1.642887e+02	-2.277424e+01
1.652377e+02	-2.282247e+01
1.661921e+02	-2.287210e+01
1.671520e+02	-2.292126e+01
1.681175e+02	-2.297070e+01
1.690885e+02	-2.301979e+01
1.700651e+02	-2.306736e+01
1.710474e+02	-2.311804e+01
1.720354e+02	-2.317165e+01
1.730291e+02	-2.321922e+01
1.740285e+02	-2.327105e+01
1.750337e+02	-2.331947e+01
1.760446e+02	-2.336933e+01
1.770615e+02	-2.341834e+01
1.780842e+02	-2.346919e+01
1.791128e+02	-2.351924e+01
1.801473e+02	-2.356890e+01
1.811878e+02	-2.361901e+01
1.822344e+02	-2.366864e+01
1.832870e+02	-2.371939e+01
1.843456e+02	-2.376804e+01
1.854104e+02	-2.381589e+01
1.864813e+02	-2.386524e+01
1.875584e+02	-2.391767e+01
1.886418e+02	-2.396644e+01
1.897313e+02	-2.401781e+01
1.908272e+02	-2.406537e+01
1.919294e+02	-2.411685e+01
1.930380e+02	-2.416756e+01
1.941530e+02	-2.421652e+01
1.952744e+02	-2.426698e+01
1.964023e+02	-2.431612e+01
1.975367e+02	-2.436572e+01
1.986777e+02	-2.441438e+01
1.998252e+02	-2.446830e+01
2.009794e+02	-2.451721e+01
2.021403e+02	-2.456446e+01
2.033078e+02	-2.461420e+01
2.044821e+02	-2.466516e+01
2.056632e+02	-2.471555e+01
2.068511e+02	-2.476554e+01
2.080459e+02	-2.481693e+01
2.092475e+02	-2.486407e+01
2.104561e+02	-2.491549e+01
2.116717e+02	-2.496443e+01
2.128943e+02	-2.501549e+01
2.141240e+02	-2.506535e+01
2.153608e+02	-2.511570e+01
2.166047e+02	-2.516781e+01
2.178558e+02	-2.521640e+01
2.191141e+02	-2.526184e+01
2.203797e+02	-2.531314e+01
2.216526e+02	-2.536335e+01
2.229329e+02	-2.541490e+01
2.242205e+02	-2.546761e+01
2.255156e+02	-2.551245e+01
2.268182e+02	-2.556337e+01
2.281283e+02	-2.561505e+01
2.294459e+02	-2.566440e+01
2.307712e+02	-2.571309e+01
2.321041e+02	-2.576387e+01
2.334447e+02	-2.581161e+01
2.347931e+02	-2.586362e+01
2.361493e+02	-2.591397e+01
2.375133e+02	-2.596105e+01
2.388851e+02	-2.601568e+01
2.402649e+02	-2.606323e+01
2.416527e+02	-2.611166e+01
2.430484e+02	-2.616604e+01
2.444523e+02	-2.621811e+01
2.458642e+02	-2.626376e+01
2.472843e+02	-2.631237e+01
2.487126e+02	-2.636573e+01
2.501492e+02	-2.641501e+01
2.515940e+02	-2.646301e+01
2.530472e+02	-2.651107e+01
2.545088e+02	-2.656252e+01
2.559789e+02	-2.661327e+01
2.574574e+02	-2.665941e+01
2.589444e+02	-2.671285e+01
2.604401e+02	-2.676250e+01
2.619444e+02	-2.681519e+01
2.634574e+02	-2.686394e+01
2.649791e+02	-2.691430e+01
2.665096e+02	-2.696319e+01
2.680489e+02	-2.701545e+01
2.695972e+02	-2.706475e+01
2.711544e+02	-2.711352e+01
2.727205e+02	-2.716176e+01
2.742958e+02	-2.721239e+01
2.758801e+02	-2.726128e+01
2.774736e+02	-2.731625e+01
2.790762e+02	-2.736409e+01
2.806882e+02	-2.741508e+01
2.823094e+02	-2.746406e+01
2.839400e+02	-2.751703e+01
2.855800e+02	-2.756416e+01
2.872295e+02	-2.761191e+01
2.888886e+02	-2.766399e+01
2.905572e+02	-2.771548e+01
2.922354e+02	-2.776278e+01
2.939234e+02	-2.781495e+01
2.956211e+02	-2.786131e+01
2.973286e+02	-2.791302e+01
2.990459e+02	-2.796172e+01
3.007732e+02	-2.801108e+01
3.025104e+02	-2.806623e+01
3.042577e+02	-2.811205e+01
3.060151e+02	-2.816367e+01
3.077826e+02	-2.821544e+01
3.095604e+02	-2.826578e+01
3.113484e+02	-2.831162e+01
3.131467e+02	-2.836287e+01
3.149554e+02	-2.841295e+01
3.167746e+02	-2.846239e+01
3.186043e+02	-2.851266e+01
3.204445e+02	-2.856354e+01
3.222954e+02	-2.861352e+01
3.241570e+02	-2.866186e+01
3.260293e+02	-2.871540e+01
3.279124e+02	-2.876082e+01
3.298064e+02	-2.881142e+01
3.317114e+02	-2.885839e+01
3.336273e+02	-2.891482e+01
3.355544e+02	-2.896966e+01
3.374925e+02	-2.901255e+01
3.394418e+02	-2.906464e+01
3.414024e+02	-2.911564e+01
3.433744e+02	-2.916035e+01
3.453577e+02	-2.921304e+01
3.473525e+02	-2.926984e+01
3.493588e+02	-2.931824e+01
3.513766e+02	-2.936481e+01
3.534062e+02	-2.941495e+01
3.554474e+02	-2.946118e+01
3.575005e+02	-2.951300e+01
3.595654e+02	-2.956549e+01
3.616422e+02	-2.961632e+01
3.637311e+02	-2.966950e+01
3.658320e+02	-2.971186e+01
3.679450e+02	-2.976027e+01
3.700702e+02	-2.981400e+01
3.722077e+02	-2.986792e+01
3.743576e+02	-2.991448e+01
3.765199e+02	-2.996762e+01
3.786946e+02	-3.001902e+01
3.808820e+02	-3.006694e+01
3.830819e+02	-3.011649e+01
3.852946e+02	-3.016889e+01
3.875200e+02	-3.021279e+01
3.897583e+02	-3.026409e+01
3.920096e+02	-3.031486e+01
3.942738e+02	-3.036404e+01
3.965511e+02	-3.041701e+01
3.988416e+02	-3.046869e+01
4.011452e+02	-3.052115e+01
4.034622e+02	-3.056877e+01
4.057926e+02	-3.061782e+01
4.081365e+02	-3.066716e+01
4.104938e+02	-3.071425e+01
4.128648e+02	-3.076918e+01
4.152495e+02	-3.081763e+01
4.176480e+02	-3.086180e+01
4.200603e+02	-3.092239e+01
4.224866e+02	-3.096724e+01
4.249268e+02	-3.101758e+01
4.273812e+02	-3.106961e+01
4.298497e+02	-3.111703e+01
4.323325e+02	-3.116469e+01
4.348297e+02	-3.121610e+01
4.373412e+02	-3.126882e+01
4.398673e+02	-3.132387e+01
4.424079e+02	-3.136908e+01
4.449633e+02	-3.141931e+01
4.475334e+02	-3.146867e+01
4.501183e+02	-3.151880e+01
4.527182e+02	-3.156793e+01
4.553330e+02	-3.162016e+01
4.579630e+02	-3.167142e+01
4.606082e+02	-3.171974e+01
4.632687e+02	-3.177206e+01
4.659445e+02	-3.181800e+01
4.686358e+02	-3.187097e+01
4.713426e+02	-3.191859e+01
4.740650e+02	-3.196585e+01
4.768032e+02	-3.202189e+01
4.795572e+02	-3.206757e+01
4.823271e+02	-3.212806e+01
4.851130e+02	-3.217216e+01
4.879150e+02	-3.222416e+01
4.907332e+02	-3.227246e+01
4.935676e+02	-3.231975e+01
4.964185e+02	-3.237145e+01
4.992858e+02	-3.242076e+01
5.021696e+02	-3.247573e+01
5.050701e+02	-3.252680e+01
5.079874e+02	-3.256336e+01
5.109215e+02	-3.261747e+01
5.138726e+02	-3.267345e+01
5.168407e+02	-3.272884e+01
5.198259e+02	-3.277288e+01
5.228284e+02	-3.283026e+01
5.258482e+02	-3.287874e+01
5.288855e+02	-3.291859e+01
5.319403e+02	-3.297614e+01
5.350128e+02	-3.302410e+01
5.381030e+02	-3.307279e+01
5.412111e+02	-3.313179e+01
5.443371e+02	-3.317555e+01
5.474812e+02	-3.323045e+01
5.506434e+02	-3.327081e+01
5.538239e+02	-3.332990e+01
5.570228e+02	-3.337392e+01
5.602401e+02	-3.342991e+01
5.634760e+02	-3.347149e+01
5.667306e+02	-3.352680e+01
5.700040e+02	-3.358045e+01
5.732964e+02	-3.362651e+01
5.766077e+02	-3.367618e+01
5.799382e+02	-3.373130e+01
5.832879e+02	-3.378270e+01
5.866569e+02	-3.383009e+01
5.900454e+02	-3.387635e+01
5.934535e+02	-3.392432e+01
5.968813e+02	-3.398332e+01
6.003288e+02	-3.403848e+01
6.037963e+02	-3.408049e+01
6.072838e+02	-3.413039e+01
6.107914e+02	-3.417851e+01
6.143194e+02	-3.422995e+01
6.178676e+02	-3.427773e+01
6.214364e+02	-3.433627e+01
6.250258e+02	-3.438646e+01
6.286359e+02	-3.443665e+01
6.322669e+02	-3.447927e+01
6.359189e+02	-3.453456e+01
6.395919e+02	-3.458109e+01
6.432862e+02	-3.463311e+01
6.470017e+02	-3.468017e+01
6.507388e+02	-3.473320e+01
6.544974e+02	-3.477921e+01
6.582778e+02	-3.483535e+01
6.620800e+02	-3.488993e+01
6.659041e+02	-3.493379e+01
6.697504e+02	-3.499818e+01
6.736188e+02	-3.504017e+01
6.775096e+02	-3.508393e+01
6.814229e+02	-3.513791e+01
6.853587e+02	-3.519036e+01
6.893173e+02	-3.523527e+01
6.932988e+02	-3.529305e+01
6.973033e+02	-3.533498e+01
7.013309e+02	-3.540133e+01
