Frequency(Hz)	Magnitude(dB)
1.000000e+01	-2.183291e+00
1.005776e+01	-2.203176e+00
1.011585e+01	-2.223218e+00
1.017428e+01	-2.243516e+00
1.023305e+01	-2.263747e+00
1.029215e+01	-2.283915e+00
1.035160e+01	-2.304595e+00
1.041139e+01	-2.325271e+00
1.047153e+01	-2.346153e+00
1.053201e+01	-2.366977e+00
1.059284e+01	-2.388060e+00
1.065403e+01	-2.409426e+00
1.071556e+01	-2.430647e+00
1.077746e+01	-2.452199e+00
1.083971e+01	-2.473787e+00
1.090232e+01	-2.495667e+00
1.096529e+01	-2.517558e+00
1.102862e+01	-2.539633e+00
1.109232e+01	-2.561935e+00
1.115639e+01	-2.584265e+00
1.122083e+01	-2.606851e+00
1.128564e+01	-2.629501e+00
1.135083e+01	-2.652336e+00
1.141639e+01	-2.675172e+00
1.148233e+01	-2.697842e+00
1.154865e+01	-2.721353e+00
1.161536e+01	-2.744724e+00
1.168245e+01	-2.768455e+00
1.174992e+01	-2.791835e+00
1.181779e+01	-2.815945e+00
1.188605e+01	-2.839655e+00
1.195470e+01	-2.863814e+00
1.202375e+01	-2.888079e+00
1.209320e+01	-2.912127e+00
1.216305e+01	-2.936821e+00
1.223330e+01	-2.961755e+00
1.230396e+01	-2.986468e+00
1.237503e+01	-3.011158e+00
1.244651e+01	-3.036278e+00
1.251840e+01	-3.061702e+00
1.259070e+01	-3.086899e+00
1.266343e+01	-3.112766e+00
1.273657e+01	-3.138059e+00
1.281014e+01	-3.164029e+00
1.288413e+01	-3.190110e+00
1.295855e+01	-3.215868e+00
1.303339e+01	-3.242183e+00
1.310867e+01	-3.268896e+00
1.318439e+01	-3.295176e+00
1.326054e+01	-3.321845e+00
1.333713e+01	-3.348706e+00
1.341417e+01	-3.375801e+00
1.349165e+01	-3.402970e+00
1.356958e+01	-3.430137e+00
1.364795e+01	-3.457447e+00
1.372678e+01	-3.485107e+00
1.380607e+01	-3.512712e+00
1.388581e+01	-3.540600e+00
1.396602e+01	-3.568430e+00
1.404668e+01	-3.596472e+00
1.412782e+01	-3.624564e+00
1.420942e+01	-3.652878e+00
1.429149e+01	-3.681722e+00
1.437404e+01	-3.710222e+00
1.445706e+01	-3.739257e+00
1.454057e+01	-3.768064e+00
1.462455e+01	-3.797348e+00
1.470902e+01	-3.826347e+00
1.479398e+01	-3.855706e+00
1.487943e+01	-3.885254e+00
1.496537e+01	-3.915056e+00
1.505181e+01	-3.944741e+00
1.513875e+01	-3.974531e+00
1.522619e+01	-4.004470e+00
1.531414e+01	-4.034920e+00
1.540259e+01	-4.065240e+00
1.549156e+01	-4.095626e+00
1.558103e+01	-4.126438e+00
1.567103e+01	-4.157217e+00
1.576155e+01	-4.188049e+00
1.585258e+01	-4.219010e+00
1.594415e+01	-4.249945e+00
1.603624e+01	-4.281559e+00
1.612886e+01	-4.312945e+00
1.622202e+01	-4.344551e+00
1.631572e+01	-4.375930e+00
1.640996e+01	-4.408116e+00
1.650474e+01	-4.440134e+00
1.660008e+01	-4.471726e+00
1.669596e+01	-4.504243e+00
1.679239e+01	-4.536593e+00
1.688938e+01	-4.568904e+00
1.698694e+01	-4.601657e+00
1.708505e+01	-4.634361e+00
1.718373e+01	-4.667440e+00
1.728299e+01	-4.700208e+00
1.738281e+01	-4.733359e+00
1.748322e+01	-4.766726e+00
1.758420e+01	-4.800154e+00
1.768576e+01	-4.833741e+00
1.778792e+01	-4.867472e+00
1.789066e+01	-4.901145e+00
1.799399e+01	-4.934862e+00
1.809793e+01	-4.968727e+00
1.820246e+01	-5.003076e+00
1.830760e+01	-5.037409e+00
1.841334e+01	-5.071739e+00
1.851969e+01	-5.106340e+00
1.862666e+01	-5.140868e+00
1.873425e+01	-5.175818e+00
1.884246e+01	-5.210620e+00
1.895129e+01	-5.245684e+00
1.906075e+01	-5.280879e+00
1.917085e+01	-5.316098e+00
1.928158e+01	-5.351391e+00
1.939295e+01	-5.386909e+00
1.950496e+01	-5.422422e+00
1.961762e+01	-5.458110e+00
1.973093e+01	-5.494322e+00
1.984490e+01	-5.530177e+00
1.995952e+01	-5.566415e+00
2.007480e+01	-5.602283e+00
2.019076e+01	-5.639085e+00
2.030738e+01	-5.674975e+00
2.042467e+01	-5.711477e+00
2.054264e+01	-5.748217e+00
2.066130e+01	-5.785103e+00
2.078064e+01	-5.821885e+00
2.090066e+01	-5.859019e+00
2.102139e+01	-5.895796e+00
2.114280e+01	-5.933131e+00
2.126492e+01	-5.970563e+00
2.138775e+01	-6.008171e+00
2.151128e+01	-6.045673e+00
2.163553e+01	-6.082985e+00
2.176050e+01	-6.120787e+00
2.188619e+01	-6.159010e+00
2.201260e+01	-6.196692e+00
2.213974e+01	-6.234834e+00
2.226762e+01	-6.272840e+00
2.239624e+01	-6.311049e+00
2.252560e+01	-6.349636e+00
2.265571e+01	-6.388327e+00
2.278656e+01	-6.426748e+00
2.291818e+01	-6.465514e+00
2.305055e+01	-6.504182e+00
2.318369e+01	-6.543211e+00
2.331760e+01	-6.581768e+00
2.345228e+01	-6.621208e+00
2.358774e+01	-6.660231e+00
2.372398e+01	-6.699706e+00
2.386101e+01	-6.739011e+00
2.399883e+01	-6.778410e+00
2.413745e+01	-6.818097e+00
2.427686e+01	-6.857356e+00
2.441709e+01	-6.897821e+00
2.455812e+01	-6.936994e+00
2.469997e+01	-6.977307e+00
2.484263e+01	-7.017293e+00
2.498612e+01	-7.057733e+00
2.513044e+01	-7.097852e+00
2.527559e+01	-7.138099e+00
2.542158e+01	-7.178068e+00
2.556842e+01	-7.218924e+00
2.571610e+01	-7.259381e+00
2.586463e+01	-7.300238e+00
2.601403e+01	-7.341274e+00
2.616428e+01	-7.381823e+00
2.631541e+01	-7.422433e+00
2.646740e+01	-7.463500e+00
2.662028e+01	-7.504418e+00
2.677404e+01	-7.546084e+00
2.692868e+01	-7.587347e+00
2.708422e+01	-7.628138e+00
2.724066e+01	-7.669944e+00
2.739800e+01	-7.711718e+00
2.755625e+01	-7.752993e+00
2.771541e+01	-7.794755e+00
2.787550e+01	-7.836553e+00
2.803650e+01	-7.878299e+00
2.819844e+01	-7.919980e+00
2.836131e+01	-7.962598e+00
2.852513e+01	-8.004494e+00
2.868989e+01	-8.046616e+00
2.885560e+01	-8.088833e+00
2.902227e+01	-8.130813e+00
2.918990e+01	-8.173345e+00
2.935850e+01	-8.215845e+00
2.952807e+01	-8.258222e+00
2.969863e+01	-8.301035e+00
2.987016e+01	-8.343469e+00
3.004269e+01	-8.386340e+00
3.021622e+01	-8.428968e+00
3.039075e+01	-8.472377e+00
3.056628e+01	-8.514930e+00
3.074283e+01	-8.557842e+00
3.092040e+01	-8.600978e+00
3.109900e+01	-8.643911e+00
3.127862e+01	-8.687181e+00
3.145929e+01	-8.730256e+00
3.164099e+01	-8.773999e+00
3.182375e+01	-8.817355e+00
3.200756e+01	-8.860950e+00
3.219244e+01	-8.904332e+00
3.237838e+01	-8.947925e+00
3.256540e+01	-8.992044e+00
3.275349e+01	-9.035510e+00
3.294268e+01	-9.079433e+00
3.313295e+01	-9.123096e+00
3.332433e+01	-9.167221e+00
3.351681e+01	-9.211257e+00
3.371040e+01	-9.255096e+00
3.390511e+01	-9.299186e+00
3.410094e+01	-9.343484e+00
3.429791e+01	-9.387844e+00
3.449601e+01	-9.432118e+00
3.469526e+01	-9.476275e+00
3.489566e+01	-9.521059e+00
3.509721e+01	-9.565649e+00
3.529993e+01	-9.609882e+00
3.550382e+01	-9.654611e+00
3.570889e+01	-9.698822e+00
3.591515e+01	-9.743891e+00
3.612259e+01	-9.788372e+00
3.633123e+01	-9.833122e+00
3.654108e+01	-9.878573e+00
3.675214e+01	-9.922734e+00
3.696442e+01	-9.967919e+00
3.717792e+01	-1.001278e+01
3.739266e+01	-1.005789e+01
3.760864e+01	-1.010393e+01
3.782587e+01	-1.014805e+01
3.804435e+01	-1.019397e+01
3.826409e+01	-1.023895e+01
3.848510e+01	-1.028458e+01
3.870739e+01	-1.032955e+01
3.893096e+01	-1.037501e+01
3.915583e+01	-1.042035e+01
3.938199e+01	-1.046551e+01
3.960946e+01	-1.051095e+01
3.983824e+01	-1.055758e+01
4.006834e+01	-1.060275e+01
4.029978e+01	-1.064870e+01
4.053255e+01	-1.069415e+01
4.076666e+01	-1.073997e+01
4.100213e+01	-1.078581e+01
4.123896e+01	-1.083134e+01
4.147715e+01	-1.087776e+01
4.171672e+01	-1.092367e+01
4.195767e+01	-1.096959e+01
4.220002e+01	-1.101573e+01
4.244377e+01	-1.106127e+01
4.268892e+01	-1.110741e+01
4.293549e+01	-1.115382e+01
4.318348e+01	-1.120050e+01
4.343291e+01	-1.124689e+01
4.368377e+01	-1.129297e+01
4.393609e+01	-1.133909e+01
4.418986e+01	-1.138535e+01
4.444510e+01	-1.143120e+01
4.470182e+01	-1.147851e+01
4.496001e+01	-1.152471e+01
4.521970e+01	-1.157152e+01
4.548089e+01	-1.161717e+01
4.574358e+01	-1.166433e+01
4.600779e+01	-1.171132e+01
4.627353e+01	-1.175748e+01
4.654081e+01	-1.180434e+01
4.680963e+01	-1.185125e+01
4.708000e+01	-1.189730e+01
4.735193e+01	-1.194514e+01
4.762543e+01	-1.199132e+01
4.790051e+01	-1.203914e+01
4.817719e+01	-1.208534e+01
4.845545e+01	-1.213283e+01
4.873533e+01	-1.217902e+01
4.901682e+01	-1.222638e+01
4.929994e+01	-1.227324e+01
4.958470e+01	-1.232026e+01
4.987110e+01	-1.236805e+01
5.015915e+01	-1.241409e+01
5.044887e+01	-1.246192e+01
5.074026e+01	-1.250899e+01
5.103333e+01	-1.255675e+01
5.132810e+01	-1.260405e+01
5.162457e+01	-1.265104e+01
5.192275e+01	-1.269807e+01
5.222265e+01	-1.274531e+01
5.252429e+01	-1.279302e+01
5.282767e+01	-1.284038e+01
5.313280e+01	-1.288720e+01
5.343969e+01	-1.293529e+01
5.374836e+01	-1.298229e+01
5.405880e+01	-1.303016e+01
5.437105e+01	-1.307777e+01
5.468509e+01	-1.312494e+01
5.500095e+01	-1.317320e+01
5.531863e+01	-1.322124e+01
5.563815e+01	-1.326815e+01
5.595951e+01	-1.331594e+01
5.628273e+01	-1.336420e+01
5.660782e+01	-1.341190e+01
5.693479e+01	-1.345911e+01
5.726364e+01	-1.350666e+01
5.759439e+01	-1.355459e+01
5.792705e+01	-1.360333e+01
5.826164e+01	-1.365086e+01
5.859815e+01	-1.369784e+01
5.893662e+01	-1.374680e+01
5.927703e+01	-1.379447e+01
5.961941e+01	-1.384178e+01
5.996377e+01	-1.389069e+01
6.031012e+01	-1.393978e+01
6.065847e+01	-1.398567e+01
6.100883e+01	-1.403532e+01
6.136121e+01	-1.408245e+01
6.171563e+01	-1.413078e+01
6.207210e+01	-1.417835e+01
6.243063e+01	-1.422705e+01
6.279122e+01	-1.427471e+01
6.315390e+01	-1.432288e+01
6.351868e+01	-1.437072e+01
6.388556e+01	-1.441883e+01
6.425456e+01	-1.446744e+01
6.462569e+01	-1.451611e+01
6.499897e+01	-1.456435e+01
6.537440e+01	-1.461205e+01
6.575200e+01	-1.466098e+01
6.613178e+01	-1.470920e+01
6.651375e+01	-1.475777e+01
6.689793e+01	-1.480507e+01
6.728433e+01	-1.485399e+01
6.767297e+01	-1.490209e+01
6.806384e+01	-1.495107e+01
6.845698e+01	-1.499866e+01
6.885238e+01	-1.504812e+01
6.925007e+01	-1.509568e+01
6.965005e+01	-1.514506e+01
7.005235e+01	-1.519350e+01
7.045697e+01	-1.524220e+01
7.086393e+01	-1.528997e+01
7.127323e+01	-1.533955e+01
7.168490e+01	-1.538800e+01
7.209895e+01	-1.543695e+01
7.251539e+01	-1.548491e+01
7.293424e+01	-1.553372e+01
7.335551e+01	-1.558148e+01
7.377920e+01	-1.563017e+01
7.420535e+01	-1.567863e+01
7.463396e+01	-1.572791e+01
7.506504e+01	-1.577580e+01
7.549861e+01	-1.582552e+01
7.593469e+01	-1.587383e+01
7.637328e+01	-1.592355e+01
7.681441e+01	-1.597186e+01
7.725809e+01	-1.602020e+01
7.770433e+01	-1.606816e+01
7.815315e+01	-1.611827e+01
7.860456e+01	-1.616673e+01
7.905857e+01	-1.621424e+01
7.951521e+01	-1.626440e+01
7.997449e+01	-1.631359e+01
8.043642e+01	-1.636254e+01
8.090102e+01	-1.641165e+01
8.136830e+01	-1.645980e+01
8.183828e+01	-1.650853e+01
8.231097e+01	-1.655760e+01
8.278640e+01	-1.660584e+01
8.326457e+01	-1.665559e+01
8.374550e+01	-1.670412e+01
8.422921e+01	-1.675300e+01
8.471572e+01	-1.680235e+01
8.520503e+01	-1.685117e+01
8.569717e+01	-1.689914e+01
8.619215e+01	-1.694901e+01
8.669000e+01	-1.699854e+01
8.719071e+01	-1.704732e+01
8.769432e+01	-1.709736e+01
8.820084e+01	-1.714408e+01
8.871029e+01	-1.719493e+01
8.922267e+01	-1.724324e+01
8.973802e+01	-1.729203e+01
9.025634e+01	-1.734057e+01
9.077766e+01	-1.739191e+01
9.130199e+01	-1.743931e+01
9.182935e+01	-1.748900e+01
9.235975e+01	-1.753804e+01
9.289321e+01	-1.758810e+01
9.342976e+01	-1.763784e+01
9.396941e+01	-1.768598e+01
9.451217e+01	-1.773539e+01
9.505807e+01	-1.778583e+01
9.560712e+01	-1.783376e+01
9.615934e+01	-1.788318e+01
9.671476e+01	-1.793123e+01
9.727338e+01	-1.798188e+01
9.783522e+01	-1.803066e+01
9.840032e+01	-1.807976e+01
9.896867e+01	-1.812797e+01
9.954031e+01	-1.817858e+01
1.001153e+02	-1.822782e+01
1.006935e+02	-1.827692e+01
1.012751e+02	-1.832742e+01
1.018601e+02	-1.837569e+01
1.024484e+02	-1.842492e+01
1.030402e+02	-1.847422e+01
1.036353e+02	-1.852415e+01
1.042339e+02	-1.857290e+01
1.048360e+02	-1.862253e+01
1.054415e+02	-1.867122e+01
1.060505e+02	-1.872197e+01
1.066631e+02	-1.876970e+01
1.072791e+02	-1.881957e+01
1.078988e+02	-1.887015e+01
1.085220e+02	-1.891946e+01
1.091488e+02	-1.896926e+01
1.097793e+02	-1.901698e+01
1.104133e+02	-1.906751e+01
1.110511e+02	-1.911642e+01
1.116925e+02	-1.916633e+01
1.123376e+02	-1.921548e+01
1.129865e+02	-1.926461e+01
1.136391e+02	-1.931252e+01
1.142955e+02	-1.936352e+01
1.149556e+02	-1.941118e+01
1.156196e+02	-1.946164e+01
1.162874e+02	-1.951168e+01
1.169591e+02	-1.956175e+01
1.176347e+02	-1.961094e+01
1.183141e+02	-1.966138e+01
1.189975e+02	-1.970904e+01
1.196848e+02	-1.975986e+01
1.203761e+02	-1.980681e+01
1.210714e+02	-1.985683e+01
1.217707e+02	-1.990655e+01
1.224740e+02	-1.995547e+01
1.231814e+02	-2.000726e+01
1.238929e+02	-2.005629e+01
1.246085e+02	-2.010736e+01
1.253283e+02	-2.015505e+01
1.260522e+02	-2.020517e+01
1.267802e+02	-2.025535e+01
1.275125e+02	-2.030343e+01
1.282490e+02	-2.035205e+01
1.289898e+02	-2.040330e+01
1.297348e+02	-2.045188e+01
1.304842e+02	-2.050294e+01
1.312378e+02	-2.055175e+01
1.319959e+02	-2.059958e+01
1.327583e+02	-2.065002e+01
1.335251e+02	-2.070049e+01
1.342963e+02	-2.074921e+01
1.350720e+02	-2.079998e+01
1.358522e+02	-2.085120e+01
1.366368e+02	-2.089894e+01
1.374260e+02	-2.094815e+01
1.382198e+02	-2.099712e+01
1.390182e+02	-2.104970e+01
1.398211e+02	-2.109610e+01
1.406287e+02	-2.114559e+01
1.414410e+02	-2.119675e+01
1.422579e+02	-2.124715e+01
1.430796e+02	-2.129634e+01
1.439060e+02	-2.134577e+01
1.447372e+02	-2.139679e+01
1.455732e+02	-2.144564e+01
1.464141e+02	-2.149421e+01
1.472597e+02	-2.154408e+01
1.481103e+02	-2.159657e+01
1.489658e+02	-2.164526e+01
1.498262e+02	-2.169112e+01
1.506916e+02	-2.174329e+01
1.515620e+02	-2.179343e+01
1.524374e+02	-2.184261e+01
1.533179e+02	-2.189177e+01
1.542034e+02	-2.194131e+01
1.550941e+02	-2.199113e+01
1.559899e+02	-2.203992e+01
1.568909e+02	-2.209039e+01
1.577971e+02	-2.214178e+01
1.587085e+02	-2.219164e+01
1.596252e+02	-2.224112e+01
1.605472e+02	-2.229105e+01
1.614745e+02	-2.234076e+01
1.624072e+02	-2.239293e+01
1.633453e+02	-2.243947e+01
1.642887e+02	-2.249105e+01
1.652377e+02	-2.253863e+01
1.661921e+02	-2.258903e+01
1.671520e+02	-2.263778e+01
1.681175e+02	-2.268737e+01
1.690885e+02	-2.274076e+01
1.700651e+02	-2.279043e+01
1.710474e+02	-2.283782e+01
1.720354e+02	-2.288778e+01
1.730291e+02	-2.294048e+01
1.740285e+02	-2.298916e+01
1.750337e+02	-2.303736e+01
1.760446e+02	-2.308702e+01
1.770615e+02	-2.313677e+01
1.780842e+02	-2.318699e+01
1.791128e+02	-2.323616e+01
1.801473e+02	-2.328486e+01
1.811878e+02	-2.333731e+01
1.822344e+02	-2.338364e+01
1.832870e+02	-2.343780e+01
1.843456e+02	-2.348751e+01
1.854104e+02	-2.353464e+01
1.864813e+02	-2.358779e+01
1.875584e+02	-2.363564e+01
1.886418e+02	-2.368406e+01
1.897313e+02	-2.373196e+01
1.908272e+02	-2.378457e+01
1.919294e+02	-2.383547e+01
1.930380e+02	-2.388482e+01
1.941530e+02	-2.393519e+01
1.952744e+02	-2.398372e+01
1.964023e+02	-2.403406e+01
1.975367e+02	-2.408437e+01
1.986777e+02	-2.413264e+01
1.998252e+02	-2.418245e+01
2.009794e+02	-2.423272e+01
2.021403e+02	-2.428323e+01
2.033078e+02	-2.433168e+01
2.044821e+02	-2.438203e+01
2.056632e+02	-2.443207e+01
2.068511e+02	-2.448339e+01
2.080459e+02	-2.453023e+01
2.092475e+02	-2.458408e+01
2.104561e+02	-2.463141e+01
2.116717e+02	-2.468368e+01
2.128943e+02	-2.473286e+01
2.141240e+02	-2.478210e+01
2.153608e+02	-2.483018e+01
2.166047e+02	-2.488294e+01
2.178558e+02	-2.493163e+01
2.191141e+02	-2.498427e+01
2.203797e+02	-2.503240e+01
2.216526e+02	-2.507974e+01
2.229329e+02	-2.512958e+01
2.242205e+02	-2.518385e+01
2.255156e+02	-2.522827e+01
2.268182e+02	-2.528121e+01
2.281283e+02	-2.533217e+01
2.294459e+02	-2.537924e+01
2.307712e+02	-2.543169e+01
2.321041e+02	-2.548126e+01
2.334447e+02	-2.553116e+01
2.347931e+02	-2.557987e+01
2.361493e+02	-2.563005e+01
2.375133e+02	-2.568009e+01
2.388851e+02	-2.573001e+01
2.402649e+02	-2.578059e+01
2.416527e+02	-2.582754e+01
2.430484e+02	-2.587906e+01
2.444523e+02	-2.593023e+01
2.458642e+02	-2.598131e+01
2.472843e+02	-2.602810e+01
2.487126e+02	-2.607924e+01
2.501492e+02	-2.613021e+01
2.515940e+02	-2.617925e+01
2.530472e+02	-2.623372e+01
2.545088e+02	-2.627829e+01
2.559789e+02	-2.633160e+01
2.574574e+02	-2.637972e+01
2.589444e+02	-2.642878e+01
2.604401e+02	-2.647875e+01
2.619444e+02	-2.653182e+01
2.634574e+02	-2.658164e+01
2.649791e+02	-2.662891e+01
2.665096e+02	-2.667914e+01
2.680489e+02	-2.673032e+01
2.695972e+02	-2.677494e+01
2.711544e+02	-2.683163e+01
2.727205e+02	-2.687990e+01
2.742958e+02	-2.693065e+01
2.758801e+02	-2.697750e+01
2.774736e+02	-2.702613e+01
2.790762e+02	-2.708417e+01
2.806882e+02	-2.712735e+01
2.823094e+02	-2.717859e+01
2.839400e+02	-2.722821e+01
2.855800e+02	-2.728324e+01
2.872295e+02	-2.732868e+01
2.888886e+02	-2.737962e+01
2.905572e+02	-2.742665e+01
2.922354e+02	-2.747872e+01
2.939234e+02	-2.752826e+01
2.956211e+02	-2.757680e+01
2.973286e+02	-2.762984e+01
2.990459e+02	-2.768219e+01
3.007732e+02	-2.772929e+01
3.025104e+02	-2.777759e+01
3.042577e+02	-2.783130e+01
3.060151e+02	-2.788058e+01
3.077826e+02	-2.792717e+01
3.095604e+02	-2.798160e+01
3.113484e+02	-2.802819e+01
3.131467e+02	-2.808224e+01
3.149554e+02	-2.812978e+01
3.167746e+02	-2.818021e+01
3.186043e+02	-2.822747e+01
3.204445e+02	-2.827786e+01
3.222954e+02	-2.833018e+01
3.241570e+02	-2.837740e+01
3.260293e+02	-2.843050e+01
3.279124e+02	-2.848290e+01
3.298064e+02	-2.852806e+01
3.317114e+02	-2.857644e+01
3.336273e+02	-2.863227e+01
3.355544e+02	-2.867956e+01
3.374925e+02	-2.872516e+01
3.394418e+02	-2.878508e+01
3.414024e+02	-2.882806e+01
3.433744e+02	-2.887830e+01
3.453577e+02	-2.893126e+01
3.473525e+02	-2.898322e+01
3.493588e+02	-2.903104e+01
3.513766e+02	-2.908208e+01
3.534062e+02	-2.913026e+01
3.554474e+02	-2.918128e+01
3.575005e+02	-2.923156e+01
3.595654e+02	-2.927748e+01
3.616422e+02	-2.933066e+01
3.637311e+02	-2.938416e+01
3.658320e+02	-2.943111e+01
3.679450e+02	-2.947850e+01
3.700702e+02	-2.952990e+01
3.722077e+02	-2.958280e+01
3.743576e+02	-2.963167e+01
3.765199e+02	-2.967980e+01
3.786946e+02	-2.973397e+01
3.808820e+02	-2.978154e+01
3.830819e+02	-2.983292e+01
3.852946e+02	-2.988024e+01
3.875200e+02	-2.992828e+01
3.897583e+02	-2.998566e+01
3.920096e+02	-3.002916e+01
3.942738e+02	-3.007899e+01
3.965511e+02	-3.013538e+01
3.988416e+02	-3.018273e+01
4.011452e+02	-3.023404e+01
4.034622e+02	-3.028273e+01
4.057926e+02	-3.033714e+01
4.081365e+02	-3.038319e+01
4.104938e+02	-3.043197e+01
4.128648e+02	-3.048444e+01
4.152495e+02	-3.053689e+01
4.176480e+02	-3.058329e+01
4.200603e+02	-3.063502e+01
4.224866e+02	-3.067904e+01
4.249268e+02	-3.073926e+01
4.273812e+02	-3.078552e+01
4.298497e+02	-3.083692e+01
4.323325e+02	-3.088598e+01
4.348297e+02	-3.093411e+01
4.373412e+02	-3.098002e+01
4.398673e+02	-3.104131e+01
4.424079e+02	-3.108630e+01
4.449633e+02	-3.113530e+01
4.475334e+02	-3.118450e+01
4.501183e+02	-3.123614e+01
4.527182e+02	-3.128829e+01
4.553330e+02	-3.133461e+01
4.579630e+02	-3.138455e+01
4.606082e+02	-3.143434e+01
4.632687e+02	-3.148682e+01
4.659445e+02	-3.154123e+01
4.686358e+02	-3.158778e+01
4.713426e+02	-3.163091e+01
4.740650e+02	-3.169147e+01
4.768032e+02	-3.173479e+01
4.795572e+02	-3.178567e+01
4.823271e+02	-3.183562e+01
4.851130e+02	-3.188940e+01
4.879150e+02	-3.194154e+01
4.907332e+02	-3.199239e+01
4.935676e+02	-3.203954e+01
4.964185e+02	-3.208797e+01
4.992858e+02	-3.214067e+01
5.021696e+02	-3.218792e+01
5.050701e+02	-3.224325e+01
5.079874e+02	-3.228665e+01
5.109215e+02	-3.233776e+01
5.138726e+02	-3.239083e+01
5.168407e+02	-3.243572e+01
5.198259e+02	-3.248344e+01
5.228284e+02	-3.253807e+01
5.258482e+02	-3.258711e+01
5.288855e+02	-3.263852e+01
5.319403e+02	-3.268915e+01
5.350128e+02	-3.273511e+01
5.381030e+02	-3.278705e+01
5.412111e+02	-3.283690e+01
5.443371e+02	-3.289372e+01
5.474812e+02	-3.294446e+01
5.506434e+02	-3.299576e+01
5.538239e+02	-3.303747e+01
5.570228e+02	-3.308920e+01
5.602401e+02	-3.313970e+01
5.634760e+02	-3.319185e+01
5.667306e+02	-3.323539e+01
5.700040e+02	-3.329553e+01
5.732964e+02	-3.334680e+01
5.766077e+02	-3.339013e+01
5.799382e+02	-3.344954e+01
5.832879e+02	-3.349091e+01
5.866569e+02	-3.354461e+01
5.900454e+02	-3.359714e+01
5.934535e+02	-3.364814e+01
5.968813e+02	-3.369051e+01
6.003288e+02	-3.374409e+01
6.037963e+02	-3.379196e+01
6.072838e+02	-3.384954e+01
6.107914e+02	-3.389464e+01
6.143194e+02	-3.395034e+01
6.178676e+02	-3.400320e+01
6.214364e+02	-3.404574e+01
6.250258e+02	-3.410150e+01
6.286359e+02	-3.414379e+01
6.322669e+02	-3.419427e+01
6.359189e+02	-3.424907e+01
6.395919e+02	-3.429417e+01
6.432862e+02	-3.435090e+01
6.470017e+02	-3.440418e+01
6.507388e+02	-3.444990e+01
6.544974e+02	-3.449680e+01
6.582778e+02	-3.455434e+01
6.620800e+02	-3.460139e+01
6.659041e+02	-3.464807e+01
6.697504e+02	-3.471477e+01
6.736188e+02	-3.475864e+01
6.775096e+02	-3.480153e+01
6.814229e+02	-3.485087e+01
6.853587e+02	-3.490214e+01
6.893173e+02	-3.496152e+01
6.932988e+02	-3.500344e+01
6.973033e+02	-3.504824e+01
7.013309e+02	-3.510719e+01
