Frequency(Hz)	Magnitude(dB)
1.000000e+01	-1.768242e-05
1.005776e+01	-1.788728e-05
1.011585e+01	-1.809451e-05
1.017428e+01	-1.830413e-05
1.023305e+01	-1.851619e-05
1.029215e+01	-1.873071e-05
1.035160e+01	-1.894771e-05
1.041139e+01	-1.916722e-05
1.047153e+01	-1.938928e-05
1.053201e+01	-1.961391e-05
1.059284e+01	-1.984114e-05
1.065403e+01	-2.007101e-05
1.071556e+01	-2.030353e-05
1.077746e+01	-2.053875e-05
1.083971e+01	-2.077670e-05
1.090232e+01	-2.101740e-05
1.096529e+01	-2.126090e-05
1.102862e+01	-2.150721e-05
1.109232e+01	-2.175638e-05
1.115639e+01	-2.200843e-05
1.122083e+01	-2.226340e-05
1.128564e+01	-2.252133e-05
1.135083e+01	-2.278224e-05
1.141639e+01	-2.304618e-05
1.148233e+01	-2.331318e-05
1.154865e+01	-2.358327e-05
1.161536e+01	-2.385648e-05
1.168245e+01	-2.413287e-05
1.174992e+01	-2.441245e-05
1.181779e+01	-2.469528e-05
1.188605e+01	-2.498138e-05
1.195470e+01	-2.527079e-05
1.202375e+01	-2.556356e-05
1.209320e+01	-2.585972e-05
1.216305e+01	-2.615931e-05
1.223330e+01	-2.646238e-05
1.230396e+01	-2.676895e-05
1.237503e+01	-2.707907e-05
1.244651e+01	-2.739279e-05
1.251840e+01	-2.771014e-05
1.259070e+01	-2.803117e-05
1.266343e+01	-2.835592e-05
1.273657e+01	-2.868443e-05
1.281014e+01	-2.901675e-05
1.288413e+01	-2.935291e-05
1.295855e+01	-2.969297e-05
1.303339e+01	-3.003697e-05
1.310867e+01	-3.038496e-05
1.318439e+01	-3.073698e-05
1.326054e+01	-3.109307e-05
1.333713e+01	-3.145329e-05
1.341417e+01	-3.181769e-05
1.349165e+01	-3.218630e-05
1.356958e+01	-3.255919e-05
1.364795e+01	-3.293639e-05
1.372678e+01	-3.331797e-05
1.380607e+01	-3.370396e-05
1.388581e+01	-3.409443e-05
1.396602e+01	-3.448943e-05
1.404668e+01	-3.488899e-05
1.412782e+01	-3.529319e-05
1.420942e+01	-3.570207e-05
1.429149e+01	-3.611569e-05
1.437404e+01	-3.653410e-05
1.445706e+01	-3.695735e-05
1.454057e+01	-3.738551e-05
1.462455e+01	-3.781863e-05
1.470902e+01	-3.825677e-05
1.479398e+01	-3.869998e-05
1.487943e+01	-3.914833e-05
1.496537e+01	-3.960187e-05
1.505181e+01	-4.006067e-05
1.513875e+01	-4.052478e-05
1.522619e+01	-4.099427e-05
1.531414e+01	-4.146920e-05
1.540259e+01	-4.194963e-05
1.549156e+01	-4.243562e-05
1.558103e+01	-4.292725e-05
1.567103e+01	-4.342457e-05
1.576155e+01	-4.392765e-05
1.585258e+01	-4.443657e-05
1.594415e+01	-4.495137e-05
1.603624e+01	-4.547214e-05
1.612886e+01	-4.599895e-05
1.622202e+01	-4.653186e-05
1.631572e+01	-4.707094e-05
1.640996e+01	-4.761627e-05
1.650474e+01	-4.816791e-05
1.660008e+01	-4.872595e-05
1.669596e+01	-4.929045e-05
1.679239e+01	-4.986149e-05
1.688938e+01	-5.043914e-05
1.698694e+01	-5.102349e-05
1.708505e+01	-5.161461e-05
1.718373e+01	-5.221257e-05
1.728299e+01	-5.281747e-05
1.738281e+01	-5.342937e-05
1.748322e+01	-5.404836e-05
1.758420e+01	-5.467452e-05
1.768576e+01	-5.530794e-05
1.778792e+01	-5.594869e-05
1.789066e+01	-5.659687e-05
1.799399e+01	-5.725255e-05
1.809793e+01	-5.791584e-05
1.820246e+01	-5.858680e-05
1.830760e+01	-5.926554e-05
1.841334e+01	-5.995215e-05
1.851969e+01	-6.064670e-05
1.862666e+01	-6.134931e-05
1.873425e+01	-6.206005e-05
1.884246e+01	-6.277903e-05
1.895129e+01	-6.350634e-05
1.906075e+01	-6.424207e-05
1.917085e+01	-6.498633e-05
1.928158e+01	-6.573921e-05
1.939295e+01	-6.650081e-05
1.950496e+01	-6.727123e-05
1.961762e+01	-6.805058e-05
1.973093e+01	-6.883896e-05
1.984490e+01	-6.963647e-05
1.995952e+01	-7.044322e-05
2.007480e+01	-7.125932e-05
2.019076e+01	-7.208487e-05
2.030738e+01	-7.291999e-05
2.042467e+01	-7.376478e-05
2.054264e+01	-7.461936e-05
2.066130e+01	-7.548384e-05
2.078064e+01	-7.635833e-05
2.090066e+01	-7.724296e-05
2.102139e+01	-7.813783e-05
2.114280e+01	-7.904307e-05
2.126492e+01	-7.995880e-05
2.138775e+01	-8.088514e-05
2.151128e+01	-8.182220e-05
2.163553e+01	-8.277013e-05
2.176050e+01	-8.372903e-05
2.188619e+01	-8.469905e-05
2.201260e+01	-8.568030e-05
2.213974e+01	-8.667292e-05
2.226762e+01	-8.767704e-05
2.239624e+01	-8.869279e-05
2.252560e+01	-8.972031e-05
2.265571e+01	-9.075974e-05
2.278656e+01	-9.181120e-05
2.291818e+01	-9.287485e-05
2.305055e+01	-9.395082e-05
2.318369e+01	-9.503925e-05
2.331760e+01	-9.614030e-05
2.345228e+01	-9.725410e-05
2.358774e+01	-9.838080e-05
2.372398e+01	-9.952056e-05
2.386101e+01	-1.006735e-04
2.399883e+01	-1.018398e-04
2.413745e+01	-1.030197e-04
2.427686e+01	-1.042132e-04
2.441709e+01	-1.054205e-04
2.455812e+01	-1.066418e-04
2.469997e+01	-1.078773e-04
2.484263e+01	-1.091270e-04
2.498612e+01	-1.103913e-04
2.513044e+01	-1.116702e-04
2.527559e+01	-1.129639e-04
2.542158e+01	-1.142726e-04
2.556842e+01	-1.155965e-04
2.571610e+01	-1.169357e-04
2.586463e+01	-1.182904e-04
2.601403e+01	-1.196608e-04
2.616428e+01	-1.210471e-04
2.631541e+01	-1.224494e-04
2.646740e+01	-1.238680e-04
2.662028e+01	-1.253030e-04
2.677404e+01	-1.267547e-04
2.692868e+01	-1.282231e-04
2.708422e+01	-1.297086e-04
2.724066e+01	-1.312113e-04
2.739800e+01	-1.327314e-04
2.755625e+01	-1.342691e-04
2.771541e+01	-1.358246e-04
2.787550e+01	-1.373982e-04
2.803650e+01	-1.389899e-04
2.819844e+01	-1.406001e-04
2.836131e+01	-1.422290e-04
2.852513e+01	-1.438767e-04
2.868989e+01	-1.455436e-04
2.885560e+01	-1.472297e-04
2.902227e+01	-1.489354e-04
2.918990e+01	-1.506608e-04
2.935850e+01	-1.524062e-04
2.952807e+01	-1.541719e-04
2.969863e+01	-1.559579e-04
2.987016e+01	-1.577647e-04
3.004269e+01	-1.595924e-04
3.021622e+01	-1.614413e-04
3.039075e+01	-1.633116e-04
3.056628e+01	-1.652036e-04
3.074283e+01	-1.671175e-04
3.092040e+01	-1.690536e-04
3.109900e+01	-1.710121e-04
3.127862e+01	-1.729933e-04
3.145929e+01	-1.749974e-04
3.164099e+01	-1.770247e-04
3.182375e+01	-1.790756e-04
3.200756e+01	-1.811502e-04
3.219244e+01	-1.832488e-04
3.237838e+01	-1.853717e-04
3.256540e+01	-1.875193e-04
3.275349e+01	-1.896917e-04
3.294268e+01	-1.918893e-04
3.313295e+01	-1.941123e-04
3.332433e+01	-1.963611e-04
3.351681e+01	-1.986360e-04
3.371040e+01	-2.009372e-04
3.390511e+01	-2.032650e-04
3.410094e+01	-2.056199e-04
3.429791e+01	-2.080020e-04
3.449601e+01	-2.104117e-04
3.469526e+01	-2.128493e-04
3.489566e+01	-2.153151e-04
3.509721e+01	-2.178096e-04
3.529993e+01	-2.203329e-04
3.550382e+01	-2.228854e-04
3.570889e+01	-2.254676e-04
3.591515e+01	-2.280796e-04
3.612259e+01	-2.307219e-04
3.633123e+01	-2.333948e-04
3.654108e+01	-2.360987e-04
3.675214e+01	-2.388339e-04
3.696442e+01	-2.416007e-04
3.717792e+01	-2.443997e-04
3.739266e+01	-2.472310e-04
3.760864e+01	-2.500952e-04
3.782587e+01	-2.529925e-04
3.804435e+01	-2.559234e-04
3.826409e+01	-2.588883e-04
3.848510e+01	-2.618875e-04
3.870739e+01	-2.649214e-04
3.893096e+01	-2.679905e-04
3.915583e+01	-2.710952e-04
3.938199e+01	-2.742358e-04
3.960946e+01	-2.774128e-04
3.983824e+01	-2.806266e-04
4.006834e+01	-2.838776e-04
4.029978e+01	-2.871663e-04
4.053255e+01	-2.904931e-04
4.076666e+01	-2.938584e-04
4.100213e+01	-2.972627e-04
4.123896e+01	-3.007065e-04
4.147715e+01	-3.041901e-04
4.171672e+01	-3.077141e-04
4.195767e+01	-3.112790e-04
4.220002e+01	-3.148851e-04
4.244377e+01	-3.185330e-04
4.268892e+01	-3.222231e-04
4.293549e+01	-3.259560e-04
4.318348e+01	-3.297322e-04
4.343291e+01	-3.335521e-04
4.368377e+01	-3.374162e-04
4.393609e+01	-3.413251e-04
4.418986e+01	-3.452793e-04
4.444510e+01	-3.492793e-04
4.470182e+01	-3.533257e-04
4.496001e+01	-3.574189e-04
4.521970e+01	-3.615595e-04
4.548089e+01	-3.657481e-04
4.574358e+01	-3.699852e-04
4.600779e+01	-3.742714e-04
4.627353e+01	-3.786072e-04
4.654081e+01	-3.829933e-04
4.680963e+01	-3.874302e-04
4.708000e+01	-3.919185e-04
4.735193e+01	-3.964588e-04
4.762543e+01	-4.010516e-04
4.790051e+01	-4.056977e-04
4.817719e+01	-4.103976e-04
4.845545e+01	-4.151519e-04
4.873533e+01	-4.199614e-04
4.901682e+01	-4.248265e-04
4.929994e+01	-4.297480e-04
4.958470e+01	-4.347265e-04
4.987110e+01	-4.397627e-04
5.015915e+01	-4.448572e-04
5.044887e+01	-4.500107e-04
5.074026e+01	-4.552239e-04
5.103333e+01	-4.604975e-04
5.132810e+01	-4.658322e-04
5.162457e+01	-4.712287e-04
5.192275e+01	-4.766878e-04
5.222265e+01	-4.822100e-04
5.252429e+01	-4.877962e-04
5.282767e+01	-4.934472e-04
5.313280e+01	-4.991636e-04
5.343969e+01	-5.049462e-04
5.374836e+01	-5.107958e-04
5.405880e+01	-5.167131e-04
5.437105e+01	-5.226990e-04
5.468509e+01	-5.287543e-04
5.500095e+01	-5.348797e-04
5.531863e+01	-5.410760e-04
5.563815e+01	-5.473441e-04
5.595951e+01	-5.536849e-04
5.628273e+01	-5.600990e-04
5.660782e+01	-5.665875e-04
5.693479e+01	-5.731511e-04
5.726364e+01	-5.797908e-04
5.759439e+01	-5.865074e-04
5.792705e+01	-5.933018e-04
5.826164e+01	-6.001749e-04
5.859815e+01	-6.071276e-04
5.893662e+01	-6.141608e-04
5.927703e+01	-6.212755e-04
5.961941e+01	-6.284727e-04
5.996377e+01	-6.357532e-04
6.031012e+01	-6.431180e-04
6.065847e+01	-6.505681e-04
6.100883e+01	-6.581046e-04
6.136121e+01	-6.657283e-04
6.171563e+01	-6.734404e-04
6.207210e+01	-6.812417e-04
6.243063e+01	-6.891335e-04
6.279122e+01	-6.971166e-04
6.315390e+01	-7.051923e-04
6.351868e+01	-7.133615e-04
6.388556e+01	-7.216253e-04
6.425456e+01	-7.299848e-04
6.462569e+01	-7.384411e-04
6.499897e+01	-7.469954e-04
6.537440e+01	-7.556488e-04
6.575200e+01	-7.644025e-04
6.613178e+01	-7.732575e-04
6.651375e+01	-7.822151e-04
6.689793e+01	-7.912764e-04
6.728433e+01	-8.004427e-04
6.767297e+01	-8.097152e-04
6.806384e+01	-8.190951e-04
6.845698e+01	-8.285836e-04
6.885238e+01	-8.381821e-04
6.925007e+01	-8.478917e-04
6.965005e+01	-8.577138e-04
7.005235e+01	-8.676497e-04
7.045697e+01	-8.777006e-04
7.086393e+01	-8.878680e-04
7.127323e+01	-8.981531e-04
7.168490e+01	-9.085573e-04
7.209895e+01	-9.190821e-04
7.251539e+01	-9.297288e-04
7.293424e+01	-9.404988e-04
7.335551e+01	-9.513935e-04
7.377920e+01	-9.624145e-04
7.420535e+01	-9.735631e-04
7.463396e+01	-9.848408e-04
7.506504e+01	-9.962491e-04
7.549861e+01	-1.007790e-03
7.593469e+01	-1.019464e-03
7.637328e+01	-1.031273e-03
7.681441e+01	-1.043219e-03
7.725809e+01	-1.055304e-03
7.770433e+01	-1.067528e-03
7.815315e+01	-1.079894e-03
7.860456e+01	-1.092404e-03
7.905857e+01	-1.105058e-03
7.951521e+01	-1.117859e-03
7.997449e+01	-1.130808e-03
8.043642e+01	-1.143907e-03
8.090102e+01	-1.157157e-03
8.136830e+01	-1.170561e-03
8.183828e+01	-1.184121e-03
8.231097e+01	-1.197837e-03
8.278640e+01	-1.211713e-03
8.326457e+01	-1.225749e-03
8.374550e+01	-1.239947e-03
8.422921e+01	-1.254310e-03
8.471572e+01	-1.268840e-03
8.520503e+01	-1.283537e-03
8.569717e+01	-1.298405e-03
8.619215e+01	-1.313445e-03
8.669000e+01	-1.328660e-03
8.719071e+01	-1.344050e-03
8.769432e+01	-1.359619e-03
8.820084e+01	-1.375368e-03
8.871029e+01	-1.391299e-03
8.922267e+01	-1.407415e-03
8.973802e+01	-1.423718e-03
9.025634e+01	-1.440209e-03
9.077766e+01	-1.456892e-03
9.130199e+01	-1.473767e-03
9.182935e+01	-1.490839e-03
9.235975e+01	-1.508107e-03
9.289321e+01	-1.525576e-03
9.342976e+01	-1.543247e-03
9.396941e+01	-1.561123e-03
9.451217e+01	-1.579206e-03
9.505807e+01	-1.597498e-03
9.560712e+01	-1.616002e-03
9.615934e+01	-1.634720e-03
9.671476e+01	-1.653655e-03
9.727338e+01	-1.672809e-03
9.783522e+01	-1.692186e-03
9.840032e+01	-1.711786e-03
9.896867e+01	-1.731614e-03
9.954031e+01	-1.751671e-03
1.001153e+02	-1.771960e-03
1.006935e+02	-1.792485e-03
1.012751e+02	-1.813247e-03
1.018601e+02	-1.834249e-03
1.024484e+02	-1.855495e-03
1.030402e+02	-1.876987e-03
1.036353e+02	-1.898727e-03
1.042339e+02	-1.920720e-03
1.048360e+02	-1.942967e-03
1.054415e+02	-1.965472e-03
1.060505e+02	-1.988237e-03
1.066631e+02	-2.011266e-03
1.072791e+02	-2.034561e-03
1.078988e+02	-2.058127e-03
1.085220e+02	-2.081965e-03
1.091488e+02	-2.106079e-03
1.097793e+02	-2.130473e-03
1.104133e+02	-2.155149e-03
1.110511e+02	-2.180110e-03
1.116925e+02	-2.205361e-03
1.123376e+02	-2.230904e-03
1.129865e+02	-2.256743e-03
1.136391e+02	-2.282881e-03
1.142955e+02	-2.309322e-03
1.149556e+02	-2.336069e-03
1.156196e+02	-2.363125e-03
1.162874e+02	-2.390495e-03
1.169591e+02	-2.418182e-03
1.176347e+02	-2.446190e-03
1.183141e+02	-2.474521e-03
1.189975e+02	-2.503181e-03
1.196848e+02	-2.532172e-03
1.203761e+02	-2.561500e-03
1.210714e+02	-2.591167e-03
1.217707e+02	-2.621177e-03
1.224740e+02	-2.651535e-03
1.231814e+02	-2.682244e-03
1.238929e+02	-2.713309e-03
1.246085e+02	-2.744733e-03
1.253283e+02	-2.776521e-03
1.260522e+02	-2.808678e-03
1.267802e+02	-2.841206e-03
1.275125e+02	-2.874111e-03
1.282490e+02	-2.907398e-03
1.289898e+02	-2.941069e-03
1.297348e+02	-2.975131e-03
1.304842e+02	-3.009586e-03
1.312378e+02	-3.044441e-03
1.319959e+02	-3.079699e-03
1.327583e+02	-3.115365e-03
1.335251e+02	-3.151444e-03
1.342963e+02	-3.187941e-03
1.350720e+02	-3.224861e-03
1.358522e+02	-3.262208e-03
1.366368e+02	-3.299987e-03
1.374260e+02	-3.338203e-03
1.382198e+02	-3.376862e-03
1.390182e+02	-3.415969e-03
1.398211e+02	-3.455528e-03
1.406287e+02	-3.495545e-03
1.414410e+02	-3.536025e-03
1.422579e+02	-3.576974e-03
1.430796e+02	-3.618397e-03
1.439060e+02	-3.660299e-03
1.447372e+02	-3.702687e-03
1.455732e+02	-3.745565e-03
1.464141e+02	-3.788939e-03
1.472597e+02	-3.832815e-03
1.481103e+02	-3.877200e-03
1.489658e+02	-3.922098e-03
1.498262e+02	-3.967515e-03
1.506916e+02	-4.013459e-03
1.515620e+02	-4.059934e-03
1.524374e+02	-4.106947e-03
1.533179e+02	-4.154504e-03
1.542034e+02	-4.202612e-03
1.550941e+02	-4.251277e-03
1.559899e+02	-4.300504e-03
1.568909e+02	-4.350302e-03
1.577971e+02	-4.400676e-03
1.587085e+02	-4.451632e-03
1.596252e+02	-4.503179e-03
1.605472e+02	-4.555322e-03
1.614745e+02	-4.608068e-03
1.624072e+02	-4.661425e-03
1.633453e+02	-4.715400e-03
1.642887e+02	-4.769999e-03
1.652377e+02	-4.825230e-03
1.661921e+02	-4.881100e-03
1.671520e+02	-4.937616e-03
1.681175e+02	-4.994787e-03
1.690885e+02	-5.052619e-03
1.700651e+02	-5.111121e-03
1.710474e+02	-5.170299e-03
1.720354e+02	-5.230162e-03
1.730291e+02	-5.290718e-03
1.740285e+02	-5.351974e-03
1.750337e+02	-5.413939e-03
1.760446e+02	-5.476622e-03
1.770615e+02	-5.540029e-03
1.780842e+02	-5.604170e-03
1.791128e+02	-5.669054e-03
1.801473e+02	-5.734688e-03
1.811878e+02	-5.801081e-03
1.822344e+02	-5.868242e-03
1.832870e+02	-5.936181e-03
1.843456e+02	-6.004905e-03
1.854104e+02	-6.074425e-03
1.864813e+02	-6.144749e-03
1.875584e+02	-6.215886e-03
1.886418e+02	-6.287847e-03
1.897313e+02	-6.360640e-03
1.908272e+02	-6.434274e-03
1.919294e+02	-6.508761e-03
1.930380e+02	-6.584110e-03
1.941530e+02	-6.660329e-03
1.952744e+02	-6.737431e-03
1.964023e+02	-6.815425e-03
1.975367e+02	-6.894320e-03
1.986777e+02	-6.974128e-03
1.998252e+02	-7.054859e-03
2.009794e+02	-7.136525e-03
2.021403e+02	-7.219134e-03
2.033078e+02	-7.302699e-03
2.044821e+02	-7.387231e-03
2.056632e+02	-7.472740e-03
2.068511e+02	-7.559238e-03
2.080459e+02	-7.646736e-03
2.092475e+02	-7.735246e-03
2.104561e+02	-7.824780e-03
2.116717e+02	-7.915349e-03
2.128943e+02	-8.006966e-03
2.141240e+02	-8.099642e-03
2.153608e+02	-8.193390e-03
2.166047e+02	-8.288221e-03
2.178558e+02	-8.384149e-03
2.191141e+02	-8.481187e-03
2.203797e+02	-8.579346e-03
2.216526e+02	-8.678640e-03
2.229329e+02	-8.779083e-03
2.242205e+02	-8.880686e-03
2.255156e+02	-8.983465e-03
2.268182e+02	-9.087431e-03
2.281283e+02	-9.192599e-03
2.294459e+02	-9.298984e-03
2.307712e+02	-9.406598e-03
2.321041e+02	-9.515456e-03
2.334447e+02	-9.625572e-03
2.347931e+02	-9.736961e-03
2.361493e+02	-9.849638e-03
2.375133e+02	-9.963618e-03
2.388851e+02	-1.007891e-02
2.402649e+02	-1.019554e-02
2.416527e+02	-1.031352e-02
2.430484e+02	-1.043286e-02
2.444523e+02	-1.055358e-02
2.458642e+02	-1.067570e-02
2.472843e+02	-1.079922e-02
2.487126e+02	-1.092418e-02
2.501492e+02	-1.105057e-02
2.515940e+02	-1.117843e-02
2.530472e+02	-1.130777e-02
2.545088e+02	-1.143860e-02
2.559789e+02	-1.157094e-02
2.574574e+02	-1.170481e-02
2.589444e+02	-1.184023e-02
2.604401e+02	-1.197721e-02
2.619444e+02	-1.211578e-02
2.634574e+02	-1.225594e-02
2.649791e+02	-1.239773e-02
2.665096e+02	-1.254115e-02
2.680489e+02	-1.268623e-02
2.695972e+02	-1.283299e-02
2.711544e+02	-1.298144e-02
2.727205e+02	-1.313160e-02
2.742958e+02	-1.328350e-02
2.758801e+02	-1.343715e-02
2.774736e+02	-1.359258e-02
2.790762e+02	-1.374981e-02
2.806882e+02	-1.390884e-02
2.823094e+02	-1.406972e-02
2.839400e+02	-1.423245e-02
2.855800e+02	-1.439707e-02
2.872295e+02	-1.456358e-02
2.888886e+02	-1.473201e-02
2.905572e+02	-1.490239e-02
2.922354e+02	-1.507474e-02
2.939234e+02	-1.524908e-02
2.956211e+02	-1.542543e-02
2.973286e+02	-1.560381e-02
2.990459e+02	-1.578426e-02
3.007732e+02	-1.596679e-02
3.025104e+02	-1.615142e-02
3.042577e+02	-1.633818e-02
3.060151e+02	-1.652711e-02
3.077826e+02	-1.671821e-02
3.095604e+02	-1.691151e-02
3.113484e+02	-1.710705e-02
3.131467e+02	-1.730484e-02
3.149554e+02	-1.750492e-02
3.167746e+02	-1.770730e-02
3.186043e+02	-1.791202e-02
3.204445e+02	-1.811910e-02
3.222954e+02	-1.832857e-02
3.241570e+02	-1.854046e-02
3.260293e+02	-1.875479e-02
3.279124e+02	-1.897159e-02
3.298064e+02	-1.919090e-02
3.317114e+02	-1.941273e-02
3.336273e+02	-1.963712e-02
3.355544e+02	-1.986410e-02
3.374925e+02	-2.009369e-02
3.394418e+02	-2.032594e-02
3.414024e+02	-2.056086e-02
3.433744e+02	-2.079849e-02
3.453577e+02	-2.103886e-02
3.473525e+02	-2.128200e-02
3.493588e+02	-2.152795e-02
3.513766e+02	-2.177673e-02
3.534062e+02	-2.202837e-02
3.554474e+02	-2.228292e-02
3.575005e+02	-2.254040e-02
3.595654e+02	-2.280085e-02
3.616422e+02	-2.306430e-02
3.637311e+02	-2.333078e-02
3.658320e+02	-2.360034e-02
3.679450e+02	-2.387300e-02
3.700702e+02	-2.414881e-02
3.722077e+02	-2.442779e-02
3.743576e+02	-2.470998e-02
3.765199e+02	-2.499543e-02
3.786946e+02	-2.528416e-02
3.808820e+02	-2.557622e-02
3.830819e+02	-2.587164e-02
3.852946e+02	-2.617046e-02
3.875200e+02	-2.647273e-02
3.897583e+02	-2.677847e-02
3.920096e+02	-2.708774e-02
3.942738e+02	-2.740056e-02
3.965511e+02	-2.771699e-02
3.988416e+02	-2.803706e-02
4.011452e+02	-2.836081e-02
4.034622e+02	-2.868829e-02
4.057926e+02	-2.901953e-02
4.081365e+02	-2.935459e-02
4.104938e+02	-2.969351e-02
4.128648e+02	-3.003632e-02
4.152495e+02	-3.038308e-02
4.176480e+02	-3.073383e-02
4.200603e+02	-3.108861e-02
4.224866e+02	-3.144747e-02
4.249268e+02	-3.181046e-02
4.273812e+02	-3.217762e-02
4.298497e+02	-3.254900e-02
4.323325e+02	-3.292466e-02
4.348297e+02	-3.330463e-02
4.373412e+02	-3.368898e-02
4.398673e+02	-3.407773e-02
4.424079e+02	-3.447096e-02
4.449633e+02	-3.486871e-02
4.475334e+02	-3.527103e-02
4.501183e+02	-3.567797e-02
4.527182e+02	-3.608959e-02
4.553330e+02	-3.650593e-02
4.579630e+02	-3.692706e-02
4.606082e+02	-3.735302e-02
4.632687e+02	-3.778388e-02
4.659445e+02	-3.821968e-02
4.686358e+02	-3.866049e-02
4.713426e+02	-3.910636e-02
4.740650e+02	-3.955735e-02
4.768032e+02	-4.001352e-02
4.795572e+02	-4.047492e-02
4.823271e+02	-4.094162e-02
4.851130e+02	-4.141367e-02
4.879150e+02	-4.189114e-02
4.907332e+02	-4.237408e-02
4.935676e+02	-4.286257e-02
4.964185e+02	-4.335666e-02
4.992858e+02	-4.385642e-02
5.021696e+02	-4.436190e-02
5.050701e+02	-4.487319e-02
5.079874e+02	-4.539033e-02
5.109215e+02	-4.591340e-02
5.138726e+02	-4.644247e-02
5.168407e+02	-4.697760e-02
5.198259e+02	-4.751887e-02
5.228284e+02	-4.806633e-02
5.258482e+02	-4.862007e-02
5.288855e+02	-4.918015e-02
5.319403e+02	-4.974665e-02
5.350128e+02	-5.031963e-02
5.381030e+02	-5.089918e-02
5.412111e+02	-5.148535e-02
5.443371e+02	-5.207824e-02
5.474812e+02	-5.267792e-02
5.506434e+02	-5.328445e-02
5.538239e+02	-5.389793e-02
5.570228e+02	-5.451843e-02
5.602401e+02	-5.514602e-02
5.634760e+02	-5.578079e-02
5.667306e+02	-5.642283e-02
5.700040e+02	-5.707220e-02
5.732964e+02	-5.772899e-02
5.766077e+02	-5.839330e-02
5.799382e+02	-5.906519e-02
5.832879e+02	-5.974477e-02
5.866569e+02	-6.043210e-02
5.900454e+02	-6.112729e-02
5.934535e+02	-6.183042e-02
5.968813e+02	-6.254158e-02
6.003288e+02	-6.326086e-02
6.037963e+02	-6.398835e-02
6.072838e+02	-6.472414e-02
6.107914e+02	-6.546833e-02
6.143194e+02	-6.622101e-02
6.178676e+02	-6.698228e-02
6.214364e+02	-6.775223e-02
6.250258e+02	-6.853096e-02
6.286359e+02	-6.931857e-02
6.322669e+02	-7.011516e-02
6.359189e+02	-7.092083e-02
6.395919e+02	-7.173568e-02
6.432862e+02	-7.255981e-02
6.470017e+02	-7.339333e-02
6.507388e+02	-7.423634e-02
6.544974e+02	-7.508895e-02
6.582778e+02	-7.595127e-02
6.620800e+02	-7.682340e-02
6.659041e+02	-7.770546e-02
6.697504e+02	-7.859755e-02
6.736188e+02	-7.949980e-02
6.775096e+02	-8.041230e-02
6.814229e+02	-8.133517e-02
6.853587e+02	-8.226854e-02
6.893173e+02	-8.321252e-02
6.932988e+02	-8.416722e-02
6.973033e+02	-8.513277e-02
7.013309e+02	-8.610928e-02
