Frequency(Hz)	Magnitude(dB)
1.000000e+01	-2.182095e+00
1.005776e+01	-2.202006e+00
1.011585e+01	-2.221950e+00
1.017428e+01	-2.242011e+00
1.023305e+01	-2.262334e+00
1.029215e+01	-2.282660e+00
1.035160e+01	-2.303244e+00
1.041139e+01	-2.323899e+00
1.047153e+01	-2.344645e+00
1.053201e+01	-2.365656e+00
1.059284e+01	-2.386796e+00
1.065403e+01	-2.407996e+00
1.071556e+01	-2.429369e+00
1.077746e+01	-2.450800e+00
1.083971e+01	-2.472643e+00
1.090232e+01	-2.494280e+00
1.096529e+01	-2.516135e+00
1.102862e+01	-2.538030e+00
1.109232e+01	-2.560444e+00
1.115639e+01	-2.582717e+00
1.122083e+01	-2.605353e+00
1.128564e+01	-2.627806e+00
1.135083e+01	-2.651010e+00
1.141639e+01	-2.673546e+00
1.148233e+01	-2.696756e+00
1.154865e+01	-2.719904e+00
1.161536e+01	-2.743458e+00
1.168245e+01	-2.766745e+00
1.174992e+01	-2.790387e+00
1.181779e+01	-2.814140e+00
1.188605e+01	-2.838146e+00
1.195470e+01	-2.862176e+00
1.202375e+01	-2.886418e+00
1.209320e+01	-2.910831e+00
1.216305e+01	-2.935321e+00
1.223330e+01	-2.959866e+00
1.230396e+01	-2.984595e+00
1.237503e+01	-3.009914e+00
1.244651e+01	-3.034558e+00
1.251840e+01	-3.059966e+00
1.259070e+01	-3.085218e+00
1.266343e+01	-3.110948e+00
1.273657e+01	-3.136690e+00
1.281014e+01	-3.162270e+00
1.288413e+01	-3.188398e+00
1.295855e+01	-3.214274e+00
1.303339e+01	-3.240527e+00
1.310867e+01	-3.266920e+00
1.318439e+01	-3.293462e+00
1.326054e+01	-3.320099e+00
1.333713e+01	-3.347117e+00
1.341417e+01	-3.374070e+00
1.349165e+01	-3.400919e+00
1.356958e+01	-3.428454e+00
1.364795e+01	-3.455506e+00
1.372678e+01	-3.483224e+00
1.380607e+01	-3.510813e+00
1.388581e+01	-3.538689e+00
1.396602e+01	-3.566604e+00
1.404668e+01	-3.594666e+00
1.412782e+01	-3.622673e+00
1.420942e+01	-3.651399e+00
1.429149e+01	-3.679758e+00
1.437404e+01	-3.708543e+00
1.445706e+01	-3.737170e+00
1.454057e+01	-3.766223e+00
1.462455e+01	-3.795358e+00
1.470902e+01	-3.824267e+00
1.479398e+01	-3.853696e+00
1.487943e+01	-3.883244e+00
1.496537e+01	-3.912893e+00
1.505181e+01	-3.942679e+00
1.513875e+01	-3.972724e+00
1.522619e+01	-4.002915e+00
1.531414e+01	-4.032892e+00
1.540259e+01	-4.063386e+00
1.549156e+01	-4.093721e+00
1.558103e+01	-4.124343e+00
1.567103e+01	-4.155076e+00
1.576155e+01	-4.186205e+00
1.585258e+01	-4.216931e+00
1.594415e+01	-4.248285e+00
1.603624e+01	-4.279274e+00
1.612886e+01	-4.310695e+00
1.622202e+01	-4.342249e+00
1.631572e+01	-4.374060e+00
1.640996e+01	-4.405609e+00
1.650474e+01	-4.437910e+00
1.660008e+01	-4.469799e+00
1.669596e+01	-4.501786e+00
1.679239e+01	-4.534281e+00
1.688938e+01	-4.566860e+00
1.698694e+01	-4.599458e+00
1.708505e+01	-4.632447e+00
1.718373e+01	-4.665292e+00
1.728299e+01	-4.698202e+00
1.738281e+01	-4.731087e+00
1.748322e+01	-4.764589e+00
1.758420e+01	-4.797718e+00
1.768576e+01	-4.831605e+00
1.778792e+01	-4.865029e+00
1.789066e+01	-4.898756e+00
1.799399e+01	-4.932733e+00
1.809793e+01	-4.966677e+00
1.820246e+01	-5.000888e+00
1.830760e+01	-5.035292e+00
1.841334e+01	-5.069638e+00
1.851969e+01	-5.104182e+00
1.862666e+01	-5.138877e+00
1.873425e+01	-5.173350e+00
1.884246e+01	-5.208366e+00
1.895129e+01	-5.243317e+00
1.906075e+01	-5.278489e+00
1.917085e+01	-5.313671e+00
1.928158e+01	-5.349136e+00
1.939295e+01	-5.384555e+00
1.950496e+01	-5.419884e+00
1.961762e+01	-5.455932e+00
1.973093e+01	-5.491974e+00
1.984490e+01	-5.527562e+00
1.995952e+01	-5.563468e+00
2.007480e+01	-5.600371e+00
2.019076e+01	-5.636276e+00
2.030738e+01	-5.672599e+00
2.042467e+01	-5.709506e+00
2.054264e+01	-5.745942e+00
2.066130e+01	-5.782418e+00
2.078064e+01	-5.819673e+00
2.090066e+01	-5.856513e+00
2.102139e+01	-5.894010e+00
2.114280e+01	-5.930934e+00
2.126492e+01	-5.968060e+00
2.138775e+01	-6.005536e+00
2.151128e+01	-6.042773e+00
2.163553e+01	-6.080496e+00
2.176050e+01	-6.117988e+00
2.188619e+01	-6.156444e+00
2.201260e+01	-6.194545e+00
2.213974e+01	-6.232241e+00
2.226762e+01	-6.270510e+00
2.239624e+01	-6.308546e+00
2.252560e+01	-6.347349e+00
2.265571e+01	-6.385733e+00
2.278656e+01	-6.423799e+00
2.291818e+01	-6.462801e+00
2.305055e+01	-6.501673e+00
2.318369e+01	-6.540588e+00
2.331760e+01	-6.579625e+00
2.345228e+01	-6.618484e+00
2.358774e+01	-6.657639e+00
2.372398e+01	-6.696925e+00
2.386101e+01	-6.736302e+00
2.399883e+01	-6.775687e+00
2.413745e+01	-6.815138e+00
2.427686e+01	-6.855354e+00
2.441709e+01	-6.895332e+00
2.455812e+01	-6.934440e+00
2.469997e+01	-6.974673e+00
2.484263e+01	-7.014810e+00
2.498612e+01	-7.054644e+00
2.513044e+01	-7.095033e+00
2.527559e+01	-7.135261e+00
2.542158e+01	-7.175688e+00
2.556842e+01	-7.216047e+00
2.571610e+01	-7.256789e+00
2.586463e+01	-7.297325e+00
2.601403e+01	-7.337897e+00
2.616428e+01	-7.378853e+00
2.631541e+01	-7.419530e+00
2.646740e+01	-7.460904e+00
2.662028e+01	-7.502188e+00
2.677404e+01	-7.543219e+00
2.692868e+01	-7.584431e+00
2.708422e+01	-7.625411e+00
2.724066e+01	-7.667371e+00
2.739800e+01	-7.708710e+00
2.755625e+01	-7.750504e+00
2.771541e+01	-7.792003e+00
2.787550e+01	-7.833926e+00
2.803650e+01	-7.875289e+00
2.819844e+01	-7.917290e+00
2.836131e+01	-7.959727e+00
2.852513e+01	-8.001546e+00
2.868989e+01	-8.044085e+00
2.885560e+01	-8.085628e+00
2.902227e+01	-8.128303e+00
2.918990e+01	-8.170275e+00
2.935850e+01	-8.213499e+00
2.952807e+01	-8.255445e+00
2.969863e+01	-8.298026e+00
2.987016e+01	-8.340904e+00
3.004269e+01	-8.383612e+00
3.021622e+01	-8.426240e+00
3.039075e+01	-8.469115e+00
3.056628e+01	-8.512080e+00
3.074283e+01	-8.554823e+00
3.092040e+01	-8.597966e+00
3.109900e+01	-8.641217e+00
3.127862e+01	-8.684791e+00
3.145929e+01	-8.727770e+00
3.164099e+01	-8.771904e+00
3.182375e+01	-8.814615e+00
3.200756e+01	-8.858607e+00
3.219244e+01	-8.901637e+00
3.237838e+01	-8.945031e+00
3.256540e+01	-8.988885e+00
3.275349e+01	-9.032636e+00
3.294268e+01	-9.076677e+00
3.313295e+01	-9.120134e+00
3.332433e+01	-9.163929e+00
3.351681e+01	-9.208792e+00
3.371040e+01	-9.252196e+00
3.390511e+01	-9.296940e+00
3.410094e+01	-9.340816e+00
3.429791e+01	-9.384982e+00
3.449601e+01	-9.429070e+00
3.469526e+01	-9.473573e+00
3.489566e+01	-9.517861e+00
3.509721e+01	-9.562245e+00
3.529993e+01	-9.607116e+00
3.550382e+01	-9.651389e+00
3.570889e+01	-9.695893e+00
3.591515e+01	-9.740443e+00
3.612259e+01	-9.785471e+00
3.633123e+01	-9.829932e+00
3.654108e+01	-9.875220e+00
3.675214e+01	-9.920330e+00
3.696442e+01	-9.965203e+00
3.717792e+01	-1.001038e+01
3.739266e+01	-1.005483e+01
3.760864e+01	-1.010046e+01
3.782587e+01	-1.014582e+01
3.804435e+01	-1.019038e+01
3.826409e+01	-1.023575e+01
3.848510e+01	-1.028173e+01
3.870739e+01	-1.032651e+01
3.893096e+01	-1.037212e+01
3.915583e+01	-1.041753e+01
3.938199e+01	-1.046308e+01
3.960946e+01	-1.050833e+01
3.983824e+01	-1.055386e+01
4.006834e+01	-1.059970e+01
4.029978e+01	-1.064550e+01
4.053255e+01	-1.069176e+01
4.076666e+01	-1.073753e+01
4.100213e+01	-1.078312e+01
4.123896e+01	-1.082883e+01
4.147715e+01	-1.087449e+01
4.171672e+01	-1.092107e+01
4.195767e+01	-1.096640e+01
4.220002e+01	-1.101260e+01
4.244377e+01	-1.105896e+01
4.268892e+01	-1.110500e+01
4.293549e+01	-1.115090e+01
4.318348e+01	-1.119721e+01
4.343291e+01	-1.124327e+01
4.368377e+01	-1.128980e+01
4.393609e+01	-1.133651e+01
4.418986e+01	-1.138222e+01
4.444510e+01	-1.142838e+01
4.470182e+01	-1.147532e+01
4.496001e+01	-1.152226e+01
4.521970e+01	-1.156841e+01
4.548089e+01	-1.161439e+01
4.574358e+01	-1.166169e+01
4.600779e+01	-1.170741e+01
4.627353e+01	-1.175469e+01
4.654081e+01	-1.180124e+01
4.680963e+01	-1.184802e+01
4.708000e+01	-1.189527e+01
4.735193e+01	-1.194212e+01
4.762543e+01	-1.198845e+01
4.790051e+01	-1.203590e+01
4.817719e+01	-1.208216e+01
4.845545e+01	-1.212938e+01
4.873533e+01	-1.217565e+01
4.901682e+01	-1.222268e+01
4.929994e+01	-1.227038e+01
4.958470e+01	-1.231764e+01
4.987110e+01	-1.236465e+01
5.015915e+01	-1.241221e+01
5.044887e+01	-1.245925e+01
5.074026e+01	-1.250646e+01
5.103333e+01	-1.255344e+01
5.132810e+01	-1.260025e+01
5.162457e+01	-1.264792e+01
5.192275e+01	-1.269558e+01
5.222265e+01	-1.274238e+01
5.252429e+01	-1.278956e+01
5.282767e+01	-1.283725e+01
5.313280e+01	-1.288464e+01
5.343969e+01	-1.293178e+01
5.374836e+01	-1.297959e+01
5.405880e+01	-1.302789e+01
5.437105e+01	-1.307484e+01
5.468509e+01	-1.312223e+01
5.500095e+01	-1.316984e+01
5.531863e+01	-1.321751e+01
5.563815e+01	-1.326527e+01
5.595951e+01	-1.331274e+01
5.628273e+01	-1.336047e+01
5.660782e+01	-1.340784e+01
5.693479e+01	-1.345585e+01
5.726364e+01	-1.350343e+01
5.759439e+01	-1.355180e+01
5.792705e+01	-1.359954e+01
5.826164e+01	-1.364735e+01
5.859815e+01	-1.369513e+01
5.893662e+01	-1.374326e+01
5.927703e+01	-1.379037e+01
5.961941e+01	-1.383865e+01
5.996377e+01	-1.388678e+01
6.031012e+01	-1.393535e+01
6.065847e+01	-1.398268e+01
6.100883e+01	-1.403064e+01
6.136121e+01	-1.407919e+01
6.171563e+01	-1.412718e+01
6.207210e+01	-1.417479e+01
6.243063e+01	-1.422367e+01
6.279122e+01	-1.427170e+01
6.315390e+01	-1.431897e+01
6.351868e+01	-1.436840e+01
6.388556e+01	-1.441596e+01
6.425456e+01	-1.446456e+01
6.462569e+01	-1.451238e+01
6.499897e+01	-1.456139e+01
6.537440e+01	-1.460962e+01
6.575200e+01	-1.465747e+01
6.613178e+01	-1.470604e+01
6.651375e+01	-1.475460e+01
6.689793e+01	-1.480188e+01
6.728433e+01	-1.485076e+01
6.767297e+01	-1.489888e+01
6.806384e+01	-1.494812e+01
6.845698e+01	-1.499538e+01
6.885238e+01	-1.504442e+01
6.925007e+01	-1.509349e+01
6.965005e+01	-1.514076e+01
7.005235e+01	-1.519068e+01
7.045697e+01	-1.523896e+01
7.086393e+01	-1.528755e+01
7.127323e+01	-1.533501e+01
7.168490e+01	-1.538393e+01
7.209895e+01	-1.543243e+01
7.251539e+01	-1.548147e+01
7.293424e+01	-1.552981e+01
7.335551e+01	-1.557906e+01
7.377920e+01	-1.562735e+01
7.420535e+01	-1.567601e+01
7.463396e+01	-1.572429e+01
7.506504e+01	-1.577417e+01
7.549861e+01	-1.582259e+01
7.593469e+01	-1.587084e+01
7.637328e+01	-1.591965e+01
7.681441e+01	-1.596838e+01
7.725809e+01	-1.601745e+01
7.770433e+01	-1.606663e+01
7.815315e+01	-1.611601e+01
7.860456e+01	-1.616372e+01
7.905857e+01	-1.621231e+01
7.951521e+01	-1.626220e+01
7.997449e+01	-1.631078e+01
8.043642e+01	-1.635874e+01
8.090102e+01	-1.640680e+01
8.136830e+01	-1.645619e+01
8.183828e+01	-1.650459e+01
8.231097e+01	-1.655524e+01
8.278640e+01	-1.660178e+01
8.326457e+01	-1.665233e+01
8.374550e+01	-1.670136e+01
8.422921e+01	-1.674945e+01
8.471572e+01	-1.679976e+01
8.520503e+01	-1.684804e+01
8.569717e+01	-1.689820e+01
8.619215e+01	-1.694612e+01
8.669000e+01	-1.699558e+01
8.719071e+01	-1.704436e+01
8.769432e+01	-1.709318e+01
8.820084e+01	-1.714230e+01
8.871029e+01	-1.719108e+01
8.922267e+01	-1.724037e+01
8.973802e+01	-1.728899e+01
9.025634e+01	-1.733858e+01
9.077766e+01	-1.738761e+01
9.130199e+01	-1.743733e+01
9.182935e+01	-1.748667e+01
9.235975e+01	-1.753541e+01
9.289321e+01	-1.758390e+01
9.342976e+01	-1.763301e+01
9.396941e+01	-1.768289e+01
9.451217e+01	-1.773228e+01
9.505807e+01	-1.778025e+01
9.560712e+01	-1.782983e+01
9.615934e+01	-1.787867e+01
9.671476e+01	-1.792866e+01
9.727338e+01	-1.797913e+01
9.783522e+01	-1.802789e+01
9.840032e+01	-1.807720e+01
9.896867e+01	-1.812399e+01
9.954031e+01	-1.817530e+01
1.001153e+02	-1.822422e+01
1.006935e+02	-1.827395e+01
1.012751e+02	-1.832294e+01
1.018601e+02	-1.837252e+01
1.024484e+02	-1.842104e+01
1.030402e+02	-1.847192e+01
1.036353e+02	-1.852134e+01
1.042339e+02	-1.856828e+01
1.048360e+02	-1.861799e+01
1.054415e+02	-1.866790e+01
1.060505e+02	-1.871833e+01
1.066631e+02	-1.876514e+01
1.072791e+02	-1.881687e+01
1.078988e+02	-1.886702e+01
1.085220e+02	-1.891540e+01
1.091488e+02	-1.896425e+01
1.097793e+02	-1.901521e+01
1.104133e+02	-1.906402e+01
1.110511e+02	-1.911233e+01
1.116925e+02	-1.916274e+01
1.123376e+02	-1.921323e+01
1.129865e+02	-1.926140e+01
1.136391e+02	-1.931008e+01
1.142955e+02	-1.935950e+01
1.149556e+02	-1.941037e+01
1.156196e+02	-1.945809e+01
1.162874e+02	-1.950876e+01
1.169591e+02	-1.955699e+01
1.176347e+02	-1.960673e+01
1.183141e+02	-1.965543e+01
1.189975e+02	-1.970689e+01
1.196848e+02	-1.975672e+01
1.203761e+02	-1.980414e+01
1.210714e+02	-1.985369e+01
1.217707e+02	-1.990521e+01
1.224740e+02	-1.995426e+01
1.231814e+02	-2.000343e+01
1.238929e+02	-2.005222e+01
1.246085e+02	-2.010253e+01
1.253283e+02	-2.015162e+01
1.260522e+02	-2.020021e+01
1.267802e+02	-2.025061e+01
1.275125e+02	-2.030165e+01
1.282490e+02	-2.035071e+01
1.289898e+02	-2.039962e+01
1.297348e+02	-2.044913e+01
1.304842e+02	-2.049876e+01
1.312378e+02	-2.054805e+01
1.319959e+02	-2.059864e+01
1.327583e+02	-2.064849e+01
1.335251e+02	-2.069674e+01
1.342963e+02	-2.074645e+01
1.350720e+02	-2.079578e+01
1.358522e+02	-2.084637e+01
1.366368e+02	-2.089533e+01
1.374260e+02	-2.094743e+01
1.382198e+02	-2.099586e+01
1.390182e+02	-2.104489e+01
1.398211e+02	-2.109452e+01
1.406287e+02	-2.114488e+01
1.414410e+02	-2.119505e+01
1.422579e+02	-2.124332e+01
1.430796e+02	-2.129373e+01
1.439060e+02	-2.134479e+01
1.447372e+02	-2.139320e+01
1.455732e+02	-2.144145e+01
1.464141e+02	-2.149274e+01
1.472597e+02	-2.154213e+01
1.481103e+02	-2.159116e+01
1.489658e+02	-2.164128e+01
1.498262e+02	-2.169080e+01
1.506916e+02	-2.174010e+01
1.515620e+02	-2.178977e+01
1.524374e+02	-2.183987e+01
1.533179e+02	-2.188882e+01
1.542034e+02	-2.193914e+01
1.550941e+02	-2.198988e+01
1.559899e+02	-2.203750e+01
1.568909e+02	-2.208987e+01
1.577971e+02	-2.213762e+01
1.587085e+02	-2.218730e+01
1.596252e+02	-2.223538e+01
1.605472e+02	-2.228692e+01
1.614745e+02	-2.233750e+01
1.624072e+02	-2.238682e+01
1.633453e+02	-2.243768e+01
1.642887e+02	-2.248797e+01
1.652377e+02	-2.253747e+01
1.661921e+02	-2.258629e+01
1.671520e+02	-2.263561e+01
1.681175e+02	-2.268622e+01
1.690885e+02	-2.273481e+01
1.700651e+02	-2.278601e+01
1.710474e+02	-2.283228e+01
1.720354e+02	-2.288592e+01
1.730291e+02	-2.293530e+01
1.740285e+02	-2.298288e+01
1.750337e+02	-2.303363e+01
1.760446e+02	-2.308268e+01
1.770615e+02	-2.313452e+01
1.780842e+02	-2.318213e+01
1.791128e+02	-2.323419e+01
1.801473e+02	-2.328275e+01
1.811878e+02	-2.333203e+01
1.822344e+02	-2.338274e+01
1.832870e+02	-2.343214e+01
1.843456e+02	-2.348258e+01
1.854104e+02	-2.352972e+01
1.864813e+02	-2.358168e+01
1.875584e+02	-2.363128e+01
1.886418e+02	-2.368083e+01
1.897313e+02	-2.373037e+01
1.908272e+02	-2.378276e+01
1.919294e+02	-2.383059e+01
1.930380e+02	-2.388003e+01
1.941530e+02	-2.393107e+01
1.952744e+02	-2.398002e+01
1.964023e+02	-2.403031e+01
1.975367e+02	-2.408260e+01
1.986777e+02	-2.413194e+01
1.998252e+02	-2.418120e+01
2.009794e+02	-2.422964e+01
2.021403e+02	-2.427869e+01
2.033078e+02	-2.433094e+01
2.044821e+02	-2.438002e+01
2.056632e+02	-2.443090e+01
2.068511e+02	-2.448075e+01
2.080459e+02	-2.453124e+01
2.092475e+02	-2.457905e+01
2.104561e+02	-2.462845e+01
2.116717e+02	-2.468104e+01
2.128943e+02	-2.472762e+01
2.141240e+02	-2.477988e+01
2.153608e+02	-2.483133e+01
2.166047e+02	-2.487978e+01
2.178558e+02	-2.492578e+01
2.191141e+02	-2.497705e+01
2.203797e+02	-2.502611e+01
2.216526e+02	-2.507670e+01
2.229329e+02	-2.512563e+01
2.242205e+02	-2.517622e+01
2.255156e+02	-2.522760e+01
2.268182e+02	-2.527811e+01
2.281283e+02	-2.532650e+01
2.294459e+02	-2.537785e+01
2.307712e+02	-2.542908e+01
2.321041e+02	-2.547676e+01
2.334447e+02	-2.552700e+01
2.347931e+02	-2.557895e+01
2.361493e+02	-2.562720e+01
2.375133e+02	-2.567924e+01
2.388851e+02	-2.572622e+01
2.402649e+02	-2.577659e+01
2.416527e+02	-2.582725e+01
2.430484e+02	-2.587516e+01
2.444523e+02	-2.592807e+01
2.458642e+02	-2.597599e+01
2.472843e+02	-2.602604e+01
2.487126e+02	-2.607495e+01
2.501492e+02	-2.612725e+01
2.515940e+02	-2.617582e+01
2.530472e+02	-2.622562e+01
2.545088e+02	-2.627529e+01
2.559789e+02	-2.632646e+01
2.574574e+02	-2.637810e+01
2.589444e+02	-2.642688e+01
2.604401e+02	-2.647626e+01
2.619444e+02	-2.652397e+01
2.634574e+02	-2.657769e+01
2.649791e+02	-2.662571e+01
2.665096e+02	-2.667651e+01
2.680489e+02	-2.672597e+01
2.695972e+02	-2.677791e+01
2.711544e+02	-2.682698e+01
2.727205e+02	-2.687674e+01
2.742958e+02	-2.692802e+01
2.758801e+02	-2.697571e+01
2.774736e+02	-2.702685e+01
2.790762e+02	-2.707693e+01
2.806882e+02	-2.712480e+01
2.823094e+02	-2.717403e+01
2.839400e+02	-2.722679e+01
2.855800e+02	-2.727523e+01
2.872295e+02	-2.732449e+01
2.888886e+02	-2.737298e+01
2.905572e+02	-2.742536e+01
2.922354e+02	-2.748038e+01
2.939234e+02	-2.752691e+01
2.956211e+02	-2.757578e+01
2.973286e+02	-2.762796e+01
2.990459e+02	-2.767391e+01
3.007732e+02	-2.772580e+01
3.025104e+02	-2.777728e+01
3.042577e+02	-2.782188e+01
3.060151e+02	-2.787676e+01
3.077826e+02	-2.792558e+01
3.095604e+02	-2.797430e+01
3.113484e+02	-2.802770e+01
3.131467e+02	-2.808013e+01
3.149554e+02	-2.812425e+01
3.167746e+02	-2.818063e+01
3.186043e+02	-2.822536e+01
3.204445e+02	-2.827724e+01
3.222954e+02	-2.832901e+01
3.241570e+02	-2.838367e+01
3.260293e+02	-2.842863e+01
3.279124e+02	-2.847906e+01
3.298064e+02	-2.852764e+01
3.317114e+02	-2.857462e+01
3.336273e+02	-2.862440e+01
3.355544e+02	-2.867956e+01
3.374925e+02	-2.872622e+01
3.394418e+02	-2.877650e+01
3.414024e+02	-2.883074e+01
3.433744e+02	-2.887725e+01
3.453577e+02	-2.892806e+01
3.473525e+02	-2.897960e+01
3.493588e+02	-2.902765e+01
3.513766e+02	-2.907763e+01
3.534062e+02	-2.913153e+01
3.554474e+02	-2.918075e+01
3.575005e+02	-2.923012e+01
3.595654e+02	-2.928132e+01
3.616422e+02	-2.932765e+01
3.637311e+02	-2.938099e+01
3.658320e+02	-2.942770e+01
3.679450e+02	-2.947475e+01
3.700702e+02	-2.953103e+01
3.722077e+02	-2.957844e+01
3.743576e+02	-2.962974e+01
3.765199e+02	-2.968025e+01
3.786946e+02	-2.973062e+01
3.808820e+02	-2.978101e+01
3.830819e+02	-2.983143e+01
3.852946e+02	-2.988300e+01
3.875200e+02	-2.993160e+01
3.897583e+02	-2.997584e+01
3.920096e+02	-3.003256e+01
3.942738e+02	-3.007868e+01
3.965511e+02	-3.013171e+01
3.988416e+02	-3.017789e+01
4.011452e+02	-3.022703e+01
4.034622e+02	-3.028553e+01
4.057926e+02	-3.032629e+01
4.081365e+02	-3.038091e+01
4.104938e+02	-3.042733e+01
4.128648e+02	-3.047945e+01
4.152495e+02	-3.053277e+01
4.176480e+02	-3.057955e+01
4.200603e+02	-3.062841e+01
4.224866e+02	-3.067983e+01
4.249268e+02	-3.072851e+01
4.273812e+02	-3.077689e+01
4.298497e+02	-3.083287e+01
4.323325e+02	-3.087900e+01
4.348297e+02	-3.093671e+01
4.373412e+02	-3.098655e+01
4.398673e+02	-3.103527e+01
4.424079e+02	-3.108197e+01
4.449633e+02	-3.112685e+01
4.475334e+02	-3.118174e+01
4.501183e+02	-3.123154e+01
4.527182e+02	-3.128390e+01
4.553330e+02	-3.133469e+01
4.579630e+02	-3.138176e+01
4.606082e+02	-3.144214e+01
4.632687e+02	-3.148049e+01
4.659445e+02	-3.153644e+01
4.686358e+02	-3.158053e+01
4.713426e+02	-3.163196e+01
4.740650e+02	-3.168396e+01
4.768032e+02	-3.173660e+01
4.795572e+02	-3.178271e+01
4.823271e+02	-3.183631e+01
4.851130e+02	-3.189089e+01
4.879150e+02	-3.193024e+01
4.907332e+02	-3.198082e+01
4.935676e+02	-3.203417e+01
4.964185e+02	-3.208756e+01
4.992858e+02	-3.213263e+01
5.021696e+02	-3.218816e+01
5.050701e+02	-3.222655e+01
5.079874e+02	-3.228028e+01
5.109215e+02	-3.233653e+01
5.138726e+02	-3.238975e+01
5.168407e+02	-3.243851e+01
5.198259e+02	-3.248579e+01
5.228284e+02	-3.253888e+01
5.258482e+02	-3.258882e+01
5.288855e+02	-3.264033e+01
5.319403e+02	-3.268535e+01
5.350128e+02	-3.272989e+01
5.381030e+02	-3.278276e+01
5.412111e+02	-3.283149e+01
5.443371e+02	-3.288575e+01
5.474812e+02	-3.294063e+01
5.506434e+02	-3.299384e+01
5.538239e+02	-3.304143e+01
5.570228e+02	-3.309211e+01
5.602401e+02	-3.313665e+01
5.634760e+02	-3.319390e+01
5.667306e+02	-3.324093e+01
5.700040e+02	-3.328926e+01
5.732964e+02	-3.333925e+01
5.766077e+02	-3.339117e+01
5.799382e+02	-3.344180e+01
5.832879e+02	-3.349318e+01
5.866569e+02	-3.354083e+01
5.900454e+02	-3.359316e+01
5.934535e+02	-3.364799e+01
5.968813e+02	-3.369050e+01
6.003288e+02	-3.374315e+01
6.037963e+02	-3.380028e+01
6.072838e+02	-3.384870e+01
6.107914e+02	-3.389385e+01
6.143194e+02	-3.394242e+01
6.178676e+02	-3.399937e+01
6.214364e+02	-3.405334e+01
6.250258e+02	-3.408766e+01
6.286359e+02	-3.414551e+01
6.322669e+02	-3.419989e+01
6.359189e+02	-3.424432e+01
6.395919e+02	-3.429009e+01
6.432862e+02	-3.435403e+01
6.470017e+02	-3.440847e+01
6.507388e+02	-3.444254e+01
6.544974e+02	-3.449913e+01
6.582778e+02	-3.455483e+01
6.620800e+02	-3.460710e+01
6.659041e+02	-3.465093e+01
6.697504e+02	-3.469689e+01
6.736188e+02	-3.474628e+01
6.775096e+02	-3.480112e+01
6.814229e+02	-3.485075e+01
6.853587e+02	-3.489842e+01
6.893173e+02	-3.495321e+01
6.932988e+02	-3.500234e+01
6.973033e+02	-3.505425e+01
7.013309e+02	-3.509289e+01
