Frequency(Hz)	Magnitude(dB)
1.000000e+01	-1.580814e-05
1.005776e+01	-1.599128e-05
1.011585e+01	-1.617654e-05
1.017428e+01	-1.636395e-05
1.023305e+01	-1.655353e-05
1.029215e+01	-1.674531e-05
1.035160e+01	-1.693931e-05
1.041139e+01	-1.713555e-05
1.047153e+01	-1.733407e-05
1.053201e+01	-1.753489e-05
1.059284e+01	-1.773804e-05
1.065403e+01	-1.794354e-05
1.071556e+01	-1.815142e-05
1.077746e+01	-1.836171e-05
1.083971e+01	-1.857443e-05
1.090232e+01	-1.878962e-05
1.096529e+01	-1.900730e-05
1.102862e+01	-1.922751e-05
1.109232e+01	-1.945026e-05
1.115639e+01	-1.967560e-05
1.122083e+01	-1.990355e-05
1.128564e+01	-2.013414e-05
1.135083e+01	-2.036739e-05
1.141639e+01	-2.060336e-05
1.148233e+01	-2.084205e-05
1.154865e+01	-2.108351e-05
1.161536e+01	-2.132777e-05
1.168245e+01	-2.157486e-05
1.174992e+01	-2.182481e-05
1.181779e+01	-2.207765e-05
1.188605e+01	-2.233343e-05
1.195470e+01	-2.259217e-05
1.202375e+01	-2.285390e-05
1.209320e+01	-2.311867e-05
1.216305e+01	-2.338651e-05
1.223330e+01	-2.365744e-05
1.230396e+01	-2.393152e-05
1.237503e+01	-2.420877e-05
1.244651e+01	-2.448924e-05
1.251840e+01	-2.477295e-05
1.259070e+01	-2.505995e-05
1.266343e+01	-2.535028e-05
1.273657e+01	-2.564397e-05
1.281014e+01	-2.594106e-05
1.288413e+01	-2.624159e-05
1.295855e+01	-2.654561e-05
1.303339e+01	-2.685315e-05
1.310867e+01	-2.716425e-05
1.318439e+01	-2.747895e-05
1.326054e+01	-2.779730e-05
1.333713e+01	-2.811934e-05
1.341417e+01	-2.844511e-05
1.349165e+01	-2.877465e-05
1.356958e+01	-2.910801e-05
1.364795e+01	-2.944524e-05
1.372678e+01	-2.978637e-05
1.380607e+01	-3.013145e-05
1.388581e+01	-3.048053e-05
1.396602e+01	-3.083365e-05
1.404668e+01	-3.119087e-05
1.412782e+01	-3.155222e-05
1.420942e+01	-3.191776e-05
1.429149e+01	-3.228754e-05
1.437404e+01	-3.266160e-05
1.445706e+01	-3.303999e-05
1.454057e+01	-3.342276e-05
1.462455e+01	-3.380997e-05
1.470902e+01	-3.420167e-05
1.479398e+01	-3.459791e-05
1.487943e+01	-3.499873e-05
1.496537e+01	-3.540420e-05
1.505181e+01	-3.581436e-05
1.513875e+01	-3.622928e-05
1.522619e+01	-3.664901e-05
1.531414e+01	-3.707359e-05
1.540259e+01	-3.750310e-05
1.549156e+01	-3.793758e-05
1.558103e+01	-3.837710e-05
1.567103e+01	-3.882171e-05
1.576155e+01	-3.927146e-05
1.585258e+01	-3.972643e-05
1.594415e+01	-4.018667e-05
1.603624e+01	-4.065224e-05
1.612886e+01	-4.112321e-05
1.622202e+01	-4.159963e-05
1.631572e+01	-4.208157e-05
1.640996e+01	-4.256910e-05
1.650474e+01	-4.306227e-05
1.660008e+01	-4.356115e-05
1.669596e+01	-4.406582e-05
1.679239e+01	-4.457633e-05
1.688938e+01	-4.509276e-05
1.698694e+01	-4.561517e-05
1.708505e+01	-4.614363e-05
1.718373e+01	-4.667821e-05
1.728299e+01	-4.721899e-05
1.738281e+01	-4.776603e-05
1.748322e+01	-4.831941e-05
1.758420e+01	-4.887920e-05
1.768576e+01	-4.944548e-05
1.778792e+01	-5.001832e-05
1.789066e+01	-5.059779e-05
1.799399e+01	-5.118398e-05
1.809793e+01	-5.177695e-05
1.820246e+01	-5.237680e-05
1.830760e+01	-5.298360e-05
1.841334e+01	-5.359742e-05
1.851969e+01	-5.421836e-05
1.862666e+01	-5.484649e-05
1.873425e+01	-5.548190e-05
1.884246e+01	-5.612467e-05
1.895129e+01	-5.677488e-05
1.906075e+01	-5.743263e-05
1.917085e+01	-5.809800e-05
1.928158e+01	-5.877108e-05
1.939295e+01	-5.945195e-05
1.950496e+01	-6.014071e-05
1.961762e+01	-6.083746e-05
1.973093e+01	-6.154227e-05
1.984490e+01	-6.225525e-05
1.995952e+01	-6.297649e-05
2.007480e+01	-6.370608e-05
2.019076e+01	-6.444413e-05
2.030738e+01	-6.519073e-05
2.042467e+01	-6.594598e-05
2.054264e+01	-6.670997e-05
2.066130e+01	-6.748282e-05
2.078064e+01	-6.826462e-05
2.090066e+01	-6.905548e-05
2.102139e+01	-6.985550e-05
2.114280e+01	-7.066479e-05
2.126492e+01	-7.148345e-05
2.138775e+01	-7.231160e-05
2.151128e+01	-7.314935e-05
2.163553e+01	-7.399679e-05
2.176050e+01	-7.485406e-05
2.188619e+01	-7.572126e-05
2.201260e+01	-7.659850e-05
2.213974e+01	-7.748591e-05
2.226762e+01	-7.838360e-05
2.239624e+01	-7.929169e-05
2.252560e+01	-8.021029e-05
2.265571e+01	-8.113954e-05
2.278656e+01	-8.207956e-05
2.291818e+01	-8.303046e-05
2.305055e+01	-8.399239e-05
2.318369e+01	-8.496545e-05
2.331760e+01	-8.594979e-05
2.345228e+01	-8.694553e-05
2.358774e+01	-8.795281e-05
2.372398e+01	-8.897176e-05
2.386101e+01	-9.000251e-05
2.399883e+01	-9.104520e-05
2.413745e+01	-9.209998e-05
2.427686e+01	-9.316697e-05
2.441709e+01	-9.424632e-05
2.455812e+01	-9.533818e-05
2.469997e+01	-9.644269e-05
2.484263e+01	-9.755999e-05
2.498612e+01	-9.869024e-05
2.513044e+01	-9.983358e-05
2.527559e+01	-1.009902e-04
2.542158e+01	-1.021602e-04
2.556842e+01	-1.033437e-04
2.571610e+01	-1.045409e-04
2.586463e+01	-1.057521e-04
2.601403e+01	-1.069772e-04
2.616428e+01	-1.082166e-04
2.631541e+01	-1.094703e-04
2.646740e+01	-1.107385e-04
2.662028e+01	-1.120214e-04
2.677404e+01	-1.133192e-04
2.692868e+01	-1.146320e-04
2.708422e+01	-1.159600e-04
2.724066e+01	-1.173034e-04
2.739800e+01	-1.186624e-04
2.755625e+01	-1.200371e-04
2.771541e+01	-1.214278e-04
2.787550e+01	-1.228345e-04
2.803650e+01	-1.242576e-04
2.819844e+01	-1.256971e-04
2.836131e+01	-1.271533e-04
2.852513e+01	-1.286264e-04
2.868989e+01	-1.301166e-04
2.885560e+01	-1.316240e-04
2.902227e+01	-1.331489e-04
2.918990e+01	-1.346914e-04
2.935850e+01	-1.362518e-04
2.952807e+01	-1.378303e-04
2.969863e+01	-1.394271e-04
2.987016e+01	-1.410424e-04
3.004269e+01	-1.426764e-04
3.021622e+01	-1.443293e-04
3.039075e+01	-1.460013e-04
3.056628e+01	-1.476928e-04
3.074283e+01	-1.494038e-04
3.092040e+01	-1.511347e-04
3.109900e+01	-1.528856e-04
3.127862e+01	-1.546568e-04
3.145929e+01	-1.564485e-04
3.164099e+01	-1.582609e-04
3.182375e+01	-1.600944e-04
3.200756e+01	-1.619491e-04
3.219244e+01	-1.638253e-04
3.237838e+01	-1.657232e-04
3.256540e+01	-1.676431e-04
3.275349e+01	-1.695853e-04
3.294268e+01	-1.715499e-04
3.313295e+01	-1.735374e-04
3.332433e+01	-1.755478e-04
3.351681e+01	-1.775815e-04
3.371040e+01	-1.796388e-04
3.390511e+01	-1.817199e-04
3.410094e+01	-1.838252e-04
3.429791e+01	-1.859548e-04
3.449601e+01	-1.881091e-04
3.469526e+01	-1.902883e-04
3.489566e+01	-1.924928e-04
3.509721e+01	-1.947229e-04
3.529993e+01	-1.969787e-04
3.550382e+01	-1.992607e-04
3.570889e+01	-2.015692e-04
3.591515e+01	-2.039043e-04
3.612259e+01	-2.062666e-04
3.633123e+01	-2.086562e-04
3.654108e+01	-2.110735e-04
3.675214e+01	-2.135187e-04
3.696442e+01	-2.159924e-04
3.717792e+01	-2.184946e-04
3.739266e+01	-2.210259e-04
3.760864e+01	-2.235865e-04
3.782587e+01	-2.261767e-04
3.804435e+01	-2.287970e-04
3.826409e+01	-2.314476e-04
3.848510e+01	-2.341289e-04
3.870739e+01	-2.368412e-04
3.893096e+01	-2.395850e-04
3.915583e+01	-2.423606e-04
3.938199e+01	-2.451684e-04
3.960946e+01	-2.480086e-04
3.983824e+01	-2.508818e-04
4.006834e+01	-2.537882e-04
4.029978e+01	-2.567284e-04
4.053255e+01	-2.597025e-04
4.076666e+01	-2.627112e-04
4.100213e+01	-2.657547e-04
4.123896e+01	-2.688334e-04
4.147715e+01	-2.719478e-04
4.171672e+01	-2.750983e-04
4.195767e+01	-2.782853e-04
4.220002e+01	-2.815092e-04
4.244377e+01	-2.847705e-04
4.268892e+01	-2.880695e-04
4.293549e+01	-2.914068e-04
4.318348e+01	-2.947827e-04
4.343291e+01	-2.981977e-04
4.368377e+01	-3.016523e-04
4.393609e+01	-3.051469e-04
4.418986e+01	-3.086820e-04
4.444510e+01	-3.122580e-04
4.470182e+01	-3.158755e-04
4.496001e+01	-3.195348e-04
4.521970e+01	-3.232366e-04
4.548089e+01	-3.269812e-04
4.574358e+01	-3.307693e-04
4.600779e+01	-3.346012e-04
4.627353e+01	-3.384775e-04
4.654081e+01	-3.423987e-04
4.680963e+01	-3.463653e-04
4.708000e+01	-3.503779e-04
4.735193e+01	-3.544369e-04
4.762543e+01	-3.585430e-04
4.790051e+01	-3.626967e-04
4.817719e+01	-3.668984e-04
4.845545e+01	-3.711489e-04
4.873533e+01	-3.754485e-04
4.901682e+01	-3.797980e-04
4.929994e+01	-3.841979e-04
4.958470e+01	-3.886487e-04
4.987110e+01	-3.931511e-04
5.015915e+01	-3.977057e-04
5.044887e+01	-4.023130e-04
5.074026e+01	-4.069737e-04
5.103333e+01	-4.116884e-04
5.132810e+01	-4.164577e-04
5.162457e+01	-4.212822e-04
5.192275e+01	-4.261626e-04
5.222265e+01	-4.310996e-04
5.252429e+01	-4.360938e-04
5.282767e+01	-4.411458e-04
5.313280e+01	-4.462563e-04
5.343969e+01	-4.514260e-04
5.374836e+01	-4.566557e-04
5.405880e+01	-4.619459e-04
5.437105e+01	-4.672973e-04
5.468509e+01	-4.727108e-04
5.500095e+01	-4.781870e-04
5.531863e+01	-4.837266e-04
5.563815e+01	-4.893304e-04
5.595951e+01	-4.949991e-04
5.628273e+01	-5.007335e-04
5.660782e+01	-5.065343e-04
5.693479e+01	-5.124023e-04
5.726364e+01	-5.183382e-04
5.759439e+01	-5.243430e-04
5.792705e+01	-5.304173e-04
5.826164e+01	-5.365619e-04
5.859815e+01	-5.427777e-04
5.893662e+01	-5.490656e-04
5.927703e+01	-5.554262e-04
5.961941e+01	-5.618606e-04
5.996377e+01	-5.683695e-04
6.031012e+01	-5.749538e-04
6.065847e+01	-5.816143e-04
6.100883e+01	-5.883520e-04
6.136121e+01	-5.951678e-04
6.171563e+01	-6.020625e-04
6.207210e+01	-6.090370e-04
6.243063e+01	-6.160924e-04
6.279122e+01	-6.232295e-04
6.315390e+01	-6.304492e-04
6.351868e+01	-6.377526e-04
6.388556e+01	-6.451406e-04
6.425456e+01	-6.526142e-04
6.462569e+01	-6.601743e-04
6.499897e+01	-6.678220e-04
6.537440e+01	-6.755583e-04
6.575200e+01	-6.833843e-04
6.613178e+01	-6.913008e-04
6.651375e+01	-6.993091e-04
6.689793e+01	-7.074101e-04
6.728433e+01	-7.156050e-04
6.767297e+01	-7.238948e-04
6.806384e+01	-7.322806e-04
6.845698e+01	-7.407635e-04
6.885238e+01	-7.493447e-04
6.925007e+01	-7.580253e-04
6.965005e+01	-7.668065e-04
7.005235e+01	-7.756894e-04
7.045697e+01	-7.846751e-04
7.086393e+01	-7.937650e-04
7.127323e+01	-8.029601e-04
7.168490e+01	-8.122617e-04
7.209895e+01	-8.216711e-04
7.251539e+01	-8.311895e-04
7.293424e+01	-8.408181e-04
7.335551e+01	-8.505583e-04
7.377920e+01	-8.604113e-04
7.420535e+01	-8.703784e-04
7.463396e+01	-8.804609e-04
7.506504e+01	-8.906602e-04
7.549861e+01	-9.009777e-04
7.593469e+01	-9.114147e-04
7.637328e+01	-9.219726e-04
7.681441e+01	-9.326527e-04
7.725809e+01	-9.434566e-04
7.770433e+01	-9.543856e-04
7.815315e+01	-9.654412e-04
7.860456e+01	-9.766248e-04
7.905857e+01	-9.879380e-04
7.951521e+01	-9.993822e-04
7.997449e+01	-1.010959e-03
8.043642e+01	-1.022670e-03
8.090102e+01	-1.034516e-03
8.136830e+01	-1.046500e-03
8.183828e+01	-1.058623e-03
8.231097e+01	-1.070885e-03
8.278640e+01	-1.083290e-03
8.326457e+01	-1.095839e-03
8.374550e+01	-1.108533e-03
8.422921e+01	-1.121374e-03
8.471572e+01	-1.134364e-03
8.520503e+01	-1.147504e-03
8.569717e+01	-1.160796e-03
8.619215e+01	-1.174243e-03
8.669000e+01	-1.187845e-03
8.719071e+01	-1.201604e-03
8.769432e+01	-1.215523e-03
8.820084e+01	-1.229603e-03
8.871029e+01	-1.243847e-03
8.922267e+01	-1.258255e-03
8.973802e+01	-1.272830e-03
9.025634e+01	-1.287574e-03
9.077766e+01	-1.302488e-03
9.130199e+01	-1.317576e-03
9.182935e+01	-1.332838e-03
9.235975e+01	-1.348277e-03
9.289321e+01	-1.363895e-03
9.342976e+01	-1.379693e-03
9.396941e+01	-1.395675e-03
9.451217e+01	-1.411841e-03
9.505807e+01	-1.428195e-03
9.560712e+01	-1.444738e-03
9.615934e+01	-1.461473e-03
9.671476e+01	-1.478402e-03
9.727338e+01	-1.495527e-03
9.783522e+01	-1.512850e-03
9.840032e+01	-1.530373e-03
9.896867e+01	-1.548100e-03
9.954031e+01	-1.566032e-03
1.001153e+02	-1.584172e-03
1.006935e+02	-1.602521e-03
1.012751e+02	-1.621083e-03
1.018601e+02	-1.639861e-03
1.024484e+02	-1.658855e-03
1.030402e+02	-1.678070e-03
1.036353e+02	-1.697507e-03
1.042339e+02	-1.717169e-03
1.048360e+02	-1.737059e-03
1.054415e+02	-1.757179e-03
1.060505e+02	-1.777532e-03
1.066631e+02	-1.798121e-03
1.072791e+02	-1.818949e-03
1.078988e+02	-1.840017e-03
1.085220e+02	-1.861330e-03
1.091488e+02	-1.882889e-03
1.097793e+02	-1.904698e-03
1.104133e+02	-1.926759e-03
1.110511e+02	-1.949076e-03
1.116925e+02	-1.971652e-03
1.123376e+02	-1.994489e-03
1.129865e+02	-2.017590e-03
1.136391e+02	-2.040959e-03
1.142955e+02	-2.064598e-03
1.149556e+02	-2.088511e-03
1.156196e+02	-2.112701e-03
1.162874e+02	-2.137172e-03
1.169591e+02	-2.161925e-03
1.176347e+02	-2.186965e-03
1.183141e+02	-2.212295e-03
1.189975e+02	-2.237919e-03
1.196848e+02	-2.263839e-03
1.203761e+02	-2.290059e-03
1.210714e+02	-2.316583e-03
1.217707e+02	-2.343414e-03
1.224740e+02	-2.370556e-03
1.231814e+02	-2.398012e-03
1.238929e+02	-2.425785e-03
1.246085e+02	-2.453881e-03
1.253283e+02	-2.482302e-03
1.260522e+02	-2.511051e-03
1.267802e+02	-2.540134e-03
1.275125e+02	-2.569553e-03
1.282490e+02	-2.599313e-03
1.289898e+02	-2.629418e-03
1.297348e+02	-2.659871e-03
1.304842e+02	-2.690677e-03
1.312378e+02	-2.721839e-03
1.319959e+02	-2.753363e-03
1.327583e+02	-2.785251e-03
1.335251e+02	-2.817508e-03
1.342963e+02	-2.850139e-03
1.350720e+02	-2.883148e-03
1.358522e+02	-2.916538e-03
1.366368e+02	-2.950316e-03
1.374260e+02	-2.984484e-03
1.382198e+02	-3.019048e-03
1.390182e+02	-3.054012e-03
1.398211e+02	-3.089381e-03
1.406287e+02	-3.125160e-03
1.414410e+02	-3.161352e-03
1.422579e+02	-3.197964e-03
1.430796e+02	-3.234999e-03
1.439060e+02	-3.272463e-03
1.447372e+02	-3.310361e-03
1.455732e+02	-3.348698e-03
1.464141e+02	-3.387478e-03
1.472597e+02	-3.426707e-03
1.481103e+02	-3.466391e-03
1.489658e+02	-3.506534e-03
1.498262e+02	-3.547141e-03
1.506916e+02	-3.588219e-03
1.515620e+02	-3.629772e-03
1.524374e+02	-3.671806e-03
1.533179e+02	-3.714326e-03
1.542034e+02	-3.757339e-03
1.550941e+02	-3.800850e-03
1.559899e+02	-3.844864e-03
1.568909e+02	-3.889388e-03
1.577971e+02	-3.934427e-03
1.587085e+02	-3.979987e-03
1.596252e+02	-4.026075e-03
1.605472e+02	-4.072696e-03
1.614745e+02	-4.119857e-03
1.624072e+02	-4.167564e-03
1.633453e+02	-4.215823e-03
1.642887e+02	-4.264640e-03
1.652377e+02	-4.314022e-03
1.661921e+02	-4.363976e-03
1.671520e+02	-4.414508e-03
1.681175e+02	-4.465625e-03
1.690885e+02	-4.517333e-03
1.700651e+02	-4.569640e-03
1.710474e+02	-4.622553e-03
1.720354e+02	-4.676077e-03
1.730291e+02	-4.730221e-03
1.740285e+02	-4.784992e-03
1.750337e+02	-4.840396e-03
1.760446e+02	-4.896441e-03
1.770615e+02	-4.953136e-03
1.780842e+02	-5.010486e-03
1.791128e+02	-5.068500e-03
1.801473e+02	-5.127185e-03
1.811878e+02	-5.186549e-03
1.822344e+02	-5.246600e-03
1.832870e+02	-5.307346e-03
1.843456e+02	-5.368795e-03
1.854104e+02	-5.430955e-03
1.864813e+02	-5.493834e-03
1.875584e+02	-5.557440e-03
1.886418e+02	-5.621783e-03
1.897313e+02	-5.686870e-03
1.908272e+02	-5.752710e-03
1.919294e+02	-5.819312e-03
1.930380e+02	-5.886684e-03
1.941530e+02	-5.954836e-03
1.952744e+02	-6.023776e-03
1.964023e+02	-6.093514e-03
1.975367e+02	-6.164059e-03
1.986777e+02	-6.235419e-03
1.998252e+02	-6.307606e-03
2.009794e+02	-6.380627e-03
2.021403e+02	-6.454493e-03
2.033078e+02	-6.529214e-03
2.044821e+02	-6.604799e-03
2.056632e+02	-6.681258e-03
2.068511e+02	-6.758601e-03
2.080459e+02	-6.836840e-03
2.092475e+02	-6.915983e-03
2.104561e+02	-6.996042e-03
2.116717e+02	-7.077026e-03
2.128943e+02	-7.158948e-03
2.141240e+02	-7.241816e-03
2.153608e+02	-7.325644e-03
2.166047e+02	-7.410441e-03
2.178558e+02	-7.496218e-03
2.191141e+02	-7.582987e-03
2.203797e+02	-7.670760e-03
2.216526e+02	-7.759548e-03
2.229329e+02	-7.849363e-03
2.242205e+02	-7.940217e-03
2.255156e+02	-8.032121e-03
2.268182e+02	-8.125088e-03
2.281283e+02	-8.219129e-03
2.294459e+02	-8.314259e-03
2.307712e+02	-8.410488e-03
2.321041e+02	-8.507830e-03
2.334447e+02	-8.606297e-03
2.347931e+02	-8.705903e-03
2.361493e+02	-8.806660e-03
2.375133e+02	-8.908582e-03
2.388851e+02	-9.011683e-03
2.402649e+02	-9.115976e-03
2.416527e+02	-9.221474e-03
2.430484e+02	-9.328192e-03
2.444523e+02	-9.436144e-03
2.458642e+02	-9.545343e-03
2.472843e+02	-9.655805e-03
2.487126e+02	-9.767544e-03
2.501492e+02	-9.880574e-03
2.515940e+02	-9.994910e-03
2.530472e+02	-1.011057e-02
2.545088e+02	-1.022756e-02
2.559789e+02	-1.034591e-02
2.574574e+02	-1.046563e-02
2.589444e+02	-1.058672e-02
2.604401e+02	-1.070922e-02
2.619444e+02	-1.083314e-02
2.634574e+02	-1.095848e-02
2.649791e+02	-1.108528e-02
2.665096e+02	-1.121354e-02
2.680489e+02	-1.134328e-02
2.695972e+02	-1.147452e-02
2.711544e+02	-1.160727e-02
2.727205e+02	-1.174156e-02
2.742958e+02	-1.187741e-02
2.758801e+02	-1.201482e-02
2.774736e+02	-1.215382e-02
2.790762e+02	-1.229442e-02
2.806882e+02	-1.243665e-02
2.823094e+02	-1.258052e-02
2.839400e+02	-1.272606e-02
2.855800e+02	-1.287327e-02
2.872295e+02	-1.302219e-02
2.888886e+02	-1.317282e-02
2.905572e+02	-1.332520e-02
2.922354e+02	-1.347933e-02
2.939234e+02	-1.363525e-02
2.956211e+02	-1.379297e-02
2.973286e+02	-1.395250e-02
2.990459e+02	-1.411388e-02
3.007732e+02	-1.427713e-02
3.025104e+02	-1.444225e-02
3.042577e+02	-1.460929e-02
3.060151e+02	-1.477825e-02
3.077826e+02	-1.494916e-02
3.095604e+02	-1.512205e-02
3.113484e+02	-1.529693e-02
3.131467e+02	-1.547384e-02
3.149554e+02	-1.565278e-02
3.167746e+02	-1.583379e-02
3.186043e+02	-1.601689e-02
3.204445e+02	-1.620210e-02
3.222954e+02	-1.638945e-02
3.241570e+02	-1.657896e-02
3.260293e+02	-1.677066e-02
3.279124e+02	-1.696457e-02
3.298064e+02	-1.716072e-02
3.317114e+02	-1.735913e-02
3.336273e+02	-1.755983e-02
3.355544e+02	-1.776285e-02
3.374925e+02	-1.796821e-02
3.394418e+02	-1.817594e-02
3.414024e+02	-1.838607e-02
3.433744e+02	-1.859861e-02
3.453577e+02	-1.881362e-02
3.473525e+02	-1.903110e-02
3.493588e+02	-1.925109e-02
3.513766e+02	-1.947361e-02
3.534062e+02	-1.969871e-02
3.554474e+02	-1.992639e-02
3.575005e+02	-2.015671e-02
3.595654e+02	-2.038968e-02
3.616422e+02	-2.062533e-02
3.637311e+02	-2.086371e-02
3.658320e+02	-2.110483e-02
3.679450e+02	-2.134873e-02
3.700702e+02	-2.159544e-02
3.722077e+02	-2.184500e-02
3.743576e+02	-2.209743e-02
3.765199e+02	-2.235278e-02
3.786946e+02	-2.261106e-02
3.808820e+02	-2.287232e-02
3.830819e+02	-2.313660e-02
3.852946e+02	-2.340392e-02
3.875200e+02	-2.367431e-02
3.897583e+02	-2.394783e-02
3.920096e+02	-2.422449e-02
3.942738e+02	-2.450434e-02
3.965511e+02	-2.478742e-02
3.988416e+02	-2.507376e-02
4.011452e+02	-2.536339e-02
4.034622e+02	-2.565636e-02
4.057926e+02	-2.595270e-02
4.081365e+02	-2.625246e-02
4.104938e+02	-2.655567e-02
4.128648e+02	-2.686237e-02
4.152495e+02	-2.717260e-02
4.176480e+02	-2.748640e-02
4.200603e+02	-2.780381e-02
4.224866e+02	-2.812488e-02
4.249268e+02	-2.844964e-02
4.273812e+02	-2.877814e-02
4.298497e+02	-2.911042e-02
4.323325e+02	-2.944652e-02
4.348297e+02	-2.978649e-02
4.373412e+02	-3.013038e-02
4.398673e+02	-3.047822e-02
4.424079e+02	-3.083006e-02
4.449633e+02	-3.118594e-02
4.475334e+02	-3.154592e-02
4.501183e+02	-3.191004e-02
4.527182e+02	-3.227835e-02
4.553330e+02	-3.265089e-02
4.579630e+02	-3.302772e-02
4.606082e+02	-3.340887e-02
4.632687e+02	-3.379441e-02
4.659445e+02	-3.418438e-02
4.686358e+02	-3.457883e-02
4.713426e+02	-3.497782e-02
4.740650e+02	-3.538139e-02
4.768032e+02	-3.578960e-02
4.795572e+02	-3.620250e-02
4.823271e+02	-3.662014e-02
4.851130e+02	-3.704257e-02
4.879150e+02	-3.746986e-02
4.907332e+02	-3.790206e-02
4.935676e+02	-3.833922e-02
4.964185e+02	-3.878140e-02
4.992858e+02	-3.922866e-02
5.021696e+02	-3.968105e-02
5.050701e+02	-4.013863e-02
5.079874e+02	-4.060147e-02
5.109215e+02	-4.106961e-02
5.138726e+02	-4.154313e-02
5.168407e+02	-4.202209e-02
5.198259e+02	-4.250653e-02
5.228284e+02	-4.299654e-02
5.258482e+02	-4.349216e-02
5.288855e+02	-4.399347e-02
5.319403e+02	-4.450052e-02
5.350128e+02	-4.501339e-02
5.381030e+02	-4.553214e-02
5.412111e+02	-4.605684e-02
5.443371e+02	-4.658755e-02
5.474812e+02	-4.712434e-02
5.506434e+02	-4.766729e-02
5.538239e+02	-4.821645e-02
5.570228e+02	-4.877190e-02
5.602401e+02	-4.933372e-02
5.634760e+02	-4.990197e-02
5.667306e+02	-5.047673e-02
5.700040e+02	-5.105807e-02
5.732964e+02	-5.164606e-02
5.766077e+02	-5.224079e-02
5.799382e+02	-5.284232e-02
5.832879e+02	-5.345074e-02
5.866569e+02	-5.406611e-02
5.900454e+02	-5.468853e-02
5.934535e+02	-5.531807e-02
5.968813e+02	-5.595480e-02
6.003288e+02	-5.659882e-02
6.037963e+02	-5.725020e-02
6.072838e+02	-5.790903e-02
6.107914e+02	-5.857539e-02
6.143194e+02	-5.924936e-02
6.178676e+02	-5.993103e-02
6.214364e+02	-6.062049e-02
6.250258e+02	-6.131783e-02
6.286359e+02	-6.202313e-02
6.322669e+02	-6.273648e-02
6.359189e+02	-6.345798e-02
6.395919e+02	-6.418772e-02
6.432862e+02	-6.492578e-02
6.470017e+02	-6.567227e-02
6.507388e+02	-6.642727e-02
6.544974e+02	-6.719089e-02
6.582778e+02	-6.796321e-02
6.620800e+02	-6.874434e-02
6.659041e+02	-6.953438e-02
6.697504e+02	-7.033342e-02
6.736188e+02	-7.114157e-02
6.775096e+02	-7.195893e-02
6.814229e+02	-7.278560e-02
6.853587e+02	-7.362168e-02
6.893173e+02	-7.446729e-02
6.932988e+02	-7.532252e-02
6.973033e+02	-7.618749e-02
7.013309e+02	-7.706231e-02
