Frequency(Hz)	Magnitude(dB)
1.000000e+01	-2.038869e+00
1.005776e+01	-2.057509e+00
1.011585e+01	-2.076596e+00
1.017428e+01	-2.095544e+00
1.023305e+01	-2.115131e+00
1.029215e+01	-2.134311e+00
1.035160e+01	-2.154088e+00
1.041139e+01	-2.173467e+00
1.047153e+01	-2.193159e+00
1.053201e+01	-2.213098e+00
1.059284e+01	-2.233067e+00
1.065403e+01	-2.253351e+00
1.071556e+01	-2.273614e+00
1.077746e+01	-2.294156e+00
1.083971e+01	-2.314803e+00
1.090232e+01	-2.335159e+00
1.096529e+01	-2.356157e+00
1.102862e+01	-2.377331e+00
1.109232e+01	-2.398273e+00
1.115639e+01	-2.419768e+00
1.122083e+01	-2.441297e+00
1.128564e+01	-2.462719e+00
1.135083e+01	-2.484375e+00
1.141639e+01	-2.506409e+00
1.148233e+01	-2.528311e+00
1.154865e+01	-2.550270e+00
1.161536e+01	-2.572734e+00
1.168245e+01	-2.595108e+00
1.174992e+01	-2.618076e+00
1.181779e+01	-2.640664e+00
1.188605e+01	-2.663564e+00
1.195470e+01	-2.686101e+00
1.202375e+01	-2.709550e+00
1.209320e+01	-2.732736e+00
1.216305e+01	-2.756321e+00
1.223330e+01	-2.779885e+00
1.230396e+01	-2.803462e+00
1.237503e+01	-2.827039e+00
1.244651e+01	-2.851604e+00
1.251840e+01	-2.875831e+00
1.259070e+01	-2.899969e+00
1.266343e+01	-2.924424e+00
1.273657e+01	-2.948941e+00
1.281014e+01	-2.973842e+00
1.288413e+01	-2.998739e+00
1.295855e+01	-3.023649e+00
1.303339e+01	-3.048718e+00
1.310867e+01	-3.074043e+00
1.318439e+01	-3.099358e+00
1.326054e+01	-3.125121e+00
1.333713e+01	-3.150660e+00
1.341417e+01	-3.176632e+00
1.349165e+01	-3.202814e+00
1.356958e+01	-3.228737e+00
1.364795e+01	-3.255109e+00
1.372678e+01	-3.281707e+00
1.380607e+01	-3.308029e+00
1.388581e+01	-3.335039e+00
1.396602e+01	-3.362016e+00
1.404668e+01	-3.388870e+00
1.412782e+01	-3.416273e+00
1.420942e+01	-3.443359e+00
1.429149e+01	-3.470990e+00
1.437404e+01	-3.498320e+00
1.445706e+01	-3.526080e+00
1.454057e+01	-3.553943e+00
1.462455e+01	-3.581890e+00
1.470902e+01	-3.610270e+00
1.479398e+01	-3.638672e+00
1.487943e+01	-3.667030e+00
1.496537e+01	-3.695607e+00
1.505181e+01	-3.724341e+00
1.513875e+01	-3.753385e+00
1.522619e+01	-3.782411e+00
1.531414e+01	-3.811368e+00
1.540259e+01	-3.840734e+00
1.549156e+01	-3.869994e+00
1.558103e+01	-3.899687e+00
1.567103e+01	-3.929527e+00
1.576155e+01	-3.959292e+00
1.585258e+01	-3.989395e+00
1.594415e+01	-4.019306e+00
1.603624e+01	-4.049803e+00
1.612886e+01	-4.080095e+00
1.622202e+01	-4.110776e+00
1.631572e+01	-4.140994e+00
1.640996e+01	-4.172164e+00
1.650474e+01	-4.203205e+00
1.660008e+01	-4.234154e+00
1.669596e+01	-4.265343e+00
1.679239e+01	-4.296439e+00
1.688938e+01	-4.327887e+00
1.698694e+01	-4.359741e+00
1.708505e+01	-4.391663e+00
1.718373e+01	-4.423420e+00
1.728299e+01	-4.455728e+00
1.738281e+01	-4.487516e+00
1.748322e+01	-4.519900e+00
1.758420e+01	-4.552256e+00
1.768576e+01	-4.584777e+00
1.778792e+01	-4.617580e+00
1.789066e+01	-4.650360e+00
1.799399e+01	-4.683203e+00
1.809793e+01	-4.716156e+00
1.820246e+01	-4.749810e+00
1.830760e+01	-4.782771e+00
1.841334e+01	-4.816242e+00
1.851969e+01	-4.849964e+00
1.862666e+01	-4.883903e+00
1.873425e+01	-4.917381e+00
1.884246e+01	-4.951568e+00
1.895129e+01	-4.985706e+00
1.906075e+01	-5.020003e+00
1.917085e+01	-5.054187e+00
1.928158e+01	-5.088658e+00
1.939295e+01	-5.123341e+00
1.950496e+01	-5.157893e+00
1.961762e+01	-5.192773e+00
1.973093e+01	-5.227645e+00
1.984490e+01	-5.262979e+00
1.995952e+01	-5.298240e+00
2.007480e+01	-5.333648e+00
2.019076e+01	-5.368425e+00
2.030738e+01	-5.404558e+00
2.042467e+01	-5.439976e+00
2.054264e+01	-5.475840e+00
2.066130e+01	-5.511565e+00
2.078064e+01	-5.547753e+00
2.090066e+01	-5.583635e+00
2.102139e+01	-5.620327e+00
2.114280e+01	-5.656196e+00
2.126492e+01	-5.692980e+00
2.138775e+01	-5.729683e+00
2.151128e+01	-5.765996e+00
2.163553e+01	-5.803020e+00
2.176050e+01	-5.839890e+00
2.188619e+01	-5.877063e+00
2.201260e+01	-5.914467e+00
2.213974e+01	-5.951613e+00
2.226762e+01	-5.988846e+00
2.239624e+01	-6.026235e+00
2.252560e+01	-6.064012e+00
2.265571e+01	-6.101356e+00
2.278656e+01	-6.139603e+00
2.291818e+01	-6.177231e+00
2.305055e+01	-6.215598e+00
2.318369e+01	-6.253450e+00
2.331760e+01	-6.291879e+00
2.345228e+01	-6.329893e+00
2.358774e+01	-6.368342e+00
2.372398e+01	-6.406607e+00
2.386101e+01	-6.445773e+00
2.399883e+01	-6.484706e+00
2.413745e+01	-6.523671e+00
2.427686e+01	-6.562422e+00
2.441709e+01	-6.601174e+00
2.455812e+01	-6.640336e+00
2.469997e+01	-6.679454e+00
2.484263e+01	-6.718873e+00
2.498612e+01	-6.758234e+00
2.513044e+01	-6.797571e+00
2.527559e+01	-6.837537e+00
2.542158e+01	-6.877185e+00
2.556842e+01	-6.916854e+00
2.571610e+01	-6.956714e+00
2.586463e+01	-6.996637e+00
2.601403e+01	-7.036900e+00
2.616428e+01	-7.076935e+00
2.631541e+01	-7.117306e+00
2.646740e+01	-7.157576e+00
2.662028e+01	-7.198130e+00
2.677404e+01	-7.238745e+00
2.692868e+01	-7.279128e+00
2.708422e+01	-7.320084e+00
2.724066e+01	-7.360948e+00
2.739800e+01	-7.401721e+00
2.755625e+01	-7.442927e+00
2.771541e+01	-7.483828e+00
2.787550e+01	-7.525009e+00
2.803650e+01	-7.565793e+00
2.819844e+01	-7.607196e+00
2.836131e+01	-7.648801e+00
2.852513e+01	-7.690087e+00
2.868989e+01	-7.731888e+00
2.885560e+01	-7.773225e+00
2.902227e+01	-7.815321e+00
2.918990e+01	-7.856571e+00
2.935850e+01	-7.898671e+00
2.952807e+01	-7.940760e+00
2.969863e+01	-7.982766e+00
2.987016e+01	-8.024951e+00
3.004269e+01	-8.066962e+00
3.021622e+01	-8.109177e+00
3.039075e+01	-8.151696e+00
3.056628e+01	-8.193556e+00
3.074283e+01	-8.236399e+00
3.092040e+01	-8.278804e+00
3.109900e+01	-8.322227e+00
3.127862e+01	-8.364831e+00
3.145929e+01	-8.407316e+00
3.164099e+01	-8.450310e+00
3.182375e+01	-8.492819e+00
3.200756e+01	-8.535972e+00
3.219244e+01	-8.579014e+00
3.237838e+01	-8.622059e+00
3.256540e+01	-8.665500e+00
3.275349e+01	-8.708582e+00
3.294268e+01	-8.751752e+00
3.313295e+01	-8.795179e+00
3.332433e+01	-8.838547e+00
3.351681e+01	-8.882626e+00
3.371040e+01	-8.925530e+00
3.390511e+01	-8.969524e+00
3.410094e+01	-9.013423e+00
3.429791e+01	-9.056876e+00
3.449601e+01	-9.100623e+00
3.469526e+01	-9.145126e+00
3.489566e+01	-9.188701e+00
3.509721e+01	-9.232659e+00
3.529993e+01	-9.276945e+00
3.550382e+01	-9.320194e+00
3.570889e+01	-9.365071e+00
3.591515e+01	-9.409492e+00
3.612259e+01	-9.453901e+00
3.633123e+01	-9.498205e+00
3.654108e+01	-9.542678e+00
3.675214e+01	-9.586952e+00
3.696442e+01	-9.631752e+00
3.717792e+01	-9.676027e+00
3.739266e+01	-9.720858e+00
3.760864e+01	-9.765105e+00
3.782587e+01	-9.809873e+00
3.804435e+01	-9.855399e+00
3.826409e+01	-9.899691e+00
3.848510e+01	-9.944913e+00
3.870739e+01	-9.990105e+00
3.893096e+01	-1.003474e+01
3.915583e+01	-1.008038e+01
3.938199e+01	-1.012523e+01
3.960946e+01	-1.017040e+01
3.983824e+01	-1.021510e+01
4.006834e+01	-1.026073e+01
4.029978e+01	-1.030643e+01
4.053255e+01	-1.035162e+01
4.076666e+01	-1.039722e+01
4.100213e+01	-1.044224e+01
4.123896e+01	-1.048797e+01
4.147715e+01	-1.053370e+01
4.171672e+01	-1.057902e+01
4.195767e+01	-1.062467e+01
4.220002e+01	-1.067099e+01
4.244377e+01	-1.071623e+01
4.268892e+01	-1.076277e+01
4.293549e+01	-1.080845e+01
4.318348e+01	-1.085397e+01
4.343291e+01	-1.090006e+01
4.368377e+01	-1.094575e+01
4.393609e+01	-1.099145e+01
4.418986e+01	-1.103826e+01
4.444510e+01	-1.108368e+01
4.470182e+01	-1.113021e+01
4.496001e+01	-1.117708e+01
4.521970e+01	-1.122269e+01
4.548089e+01	-1.126887e+01
4.574358e+01	-1.131495e+01
4.600779e+01	-1.136203e+01
4.627353e+01	-1.140770e+01
4.654081e+01	-1.145514e+01
4.680963e+01	-1.150075e+01
4.708000e+01	-1.154733e+01
4.735193e+01	-1.159398e+01
4.762543e+01	-1.164086e+01
4.790051e+01	-1.168723e+01
4.817719e+01	-1.173340e+01
4.845545e+01	-1.178064e+01
4.873533e+01	-1.182766e+01
4.901682e+01	-1.187424e+01
4.929994e+01	-1.192067e+01
4.958470e+01	-1.196767e+01
4.987110e+01	-1.201451e+01
5.015915e+01	-1.206111e+01
5.044887e+01	-1.210820e+01
5.074026e+01	-1.215486e+01
5.103333e+01	-1.220232e+01
5.132810e+01	-1.224863e+01
5.162457e+01	-1.229691e+01
5.192275e+01	-1.234289e+01
5.222265e+01	-1.239074e+01
5.252429e+01	-1.243793e+01
5.282767e+01	-1.248545e+01
5.313280e+01	-1.253161e+01
5.343969e+01	-1.257925e+01
5.374836e+01	-1.262682e+01
5.405880e+01	-1.267419e+01
5.437105e+01	-1.272077e+01
5.468509e+01	-1.276863e+01
5.500095e+01	-1.281581e+01
5.531863e+01	-1.286346e+01
5.563815e+01	-1.291124e+01
5.595951e+01	-1.295886e+01
5.628273e+01	-1.300634e+01
5.660782e+01	-1.305343e+01
5.693479e+01	-1.310171e+01
5.726364e+01	-1.314919e+01
5.759439e+01	-1.319666e+01
5.792705e+01	-1.324298e+01
5.826164e+01	-1.329295e+01
5.859815e+01	-1.334016e+01
5.893662e+01	-1.338750e+01
5.927703e+01	-1.343511e+01
5.961941e+01	-1.348204e+01
5.996377e+01	-1.353117e+01
6.031012e+01	-1.357790e+01
6.065847e+01	-1.362637e+01
6.100883e+01	-1.367384e+01
6.136121e+01	-1.372212e+01
6.171563e+01	-1.376981e+01
6.207210e+01	-1.381740e+01
6.243063e+01	-1.386553e+01
6.279122e+01	-1.391302e+01
6.315390e+01	-1.396208e+01
6.351868e+01	-1.400962e+01
6.388556e+01	-1.405837e+01
6.425456e+01	-1.410662e+01
6.462569e+01	-1.415380e+01
6.499897e+01	-1.420239e+01
6.537440e+01	-1.424896e+01
6.575200e+01	-1.429842e+01
6.613178e+01	-1.434576e+01
6.651375e+01	-1.439426e+01
6.689793e+01	-1.444262e+01
6.728433e+01	-1.448962e+01
6.767297e+01	-1.453917e+01
6.806384e+01	-1.458705e+01
6.845698e+01	-1.463637e+01
6.885238e+01	-1.468477e+01
6.925007e+01	-1.473289e+01
6.965005e+01	-1.478090e+01
7.005235e+01	-1.482912e+01
7.045697e+01	-1.487663e+01
7.086393e+01	-1.492571e+01
7.127323e+01	-1.497490e+01
7.168490e+01	-1.502245e+01
7.209895e+01	-1.507098e+01
7.251539e+01	-1.512016e+01
7.293424e+01	-1.516907e+01
7.335551e+01	-1.521778e+01
7.377920e+01	-1.526532e+01
7.420535e+01	-1.531474e+01
7.463396e+01	-1.536228e+01
7.506504e+01	-1.541124e+01
7.549861e+01	-1.545961e+01
7.593469e+01	-1.550843e+01
7.637328e+01	-1.555739e+01
7.681441e+01	-1.560597e+01
7.725809e+01	-1.565468e+01
7.770433e+01	-1.570301e+01
7.815315e+01	-1.575225e+01
7.860456e+01	-1.580092e+01
7.905857e+01	-1.584836e+01
7.951521e+01	-1.589801e+01
7.997449e+01	-1.594651e+01
8.043642e+01	-1.599486e+01
8.090102e+01	-1.604393e+01
8.136830e+01	-1.609230e+01
8.183828e+01	-1.614089e+01
8.231097e+01	-1.619149e+01
8.278640e+01	-1.624043e+01
8.326457e+01	-1.628885e+01
8.374550e+01	-1.633630e+01
8.422921e+01	-1.638622e+01
8.471572e+01	-1.643514e+01
8.520503e+01	-1.648266e+01
8.569717e+01	-1.653335e+01
8.619215e+01	-1.658224e+01
8.669000e+01	-1.662956e+01
8.719071e+01	-1.667879e+01
8.769432e+01	-1.672816e+01
8.820084e+01	-1.677836e+01
8.871029e+01	-1.682610e+01
8.922267e+01	-1.687501e+01
8.973802e+01	-1.692449e+01
9.025634e+01	-1.697292e+01
9.077766e+01	-1.702261e+01
9.130199e+01	-1.707198e+01
9.182935e+01	-1.712027e+01
9.235975e+01	-1.716963e+01
9.289321e+01	-1.721947e+01
9.342976e+01	-1.726664e+01
9.396941e+01	-1.731687e+01
9.451217e+01	-1.736596e+01
9.505807e+01	-1.741604e+01
9.560712e+01	-1.746528e+01
9.615934e+01	-1.751308e+01
9.671476e+01	-1.756332e+01
9.727338e+01	-1.761231e+01
9.783522e+01	-1.766137e+01
9.840032e+01	-1.770978e+01
9.896867e+01	-1.775922e+01
9.954031e+01	-1.780860e+01
1.001153e+02	-1.785696e+01
1.006935e+02	-1.790645e+01
1.012751e+02	-1.795470e+01
1.018601e+02	-1.800418e+01
1.024484e+02	-1.805432e+01
1.030402e+02	-1.810365e+01
1.036353e+02	-1.815327e+01
1.042339e+02	-1.820232e+01
1.048360e+02	-1.825214e+01
1.054415e+02	-1.830115e+01
1.060505e+02	-1.835019e+01
1.066631e+02	-1.839906e+01
1.072791e+02	-1.844825e+01
1.078988e+02	-1.849842e+01
1.085220e+02	-1.854686e+01
1.091488e+02	-1.859630e+01
1.097793e+02	-1.864575e+01
1.104133e+02	-1.869601e+01
1.110511e+02	-1.874544e+01
1.116925e+02	-1.879384e+01
1.123376e+02	-1.884174e+01
1.129865e+02	-1.889406e+01
1.136391e+02	-1.894174e+01
1.142955e+02	-1.899185e+01
1.149556e+02	-1.903983e+01
1.156196e+02	-1.909025e+01
1.162874e+02	-1.913950e+01
1.169591e+02	-1.918998e+01
1.176347e+02	-1.923845e+01
1.183141e+02	-1.928944e+01
1.189975e+02	-1.933802e+01
1.196848e+02	-1.938589e+01
1.203761e+02	-1.943802e+01
1.210714e+02	-1.948705e+01
1.217707e+02	-1.953507e+01
1.224740e+02	-1.958581e+01
1.231814e+02	-1.963355e+01
1.238929e+02	-1.968475e+01
1.246085e+02	-1.973499e+01
1.253283e+02	-1.978478e+01
1.260522e+02	-1.983315e+01
1.267802e+02	-1.988304e+01
1.275125e+02	-1.993215e+01
1.282490e+02	-1.998101e+01
1.289898e+02	-2.003057e+01
1.297348e+02	-2.007933e+01
1.304842e+02	-2.013175e+01
1.312378e+02	-2.018017e+01
1.319959e+02	-2.022838e+01
1.327583e+02	-2.027979e+01
1.335251e+02	-2.032738e+01
1.342963e+02	-2.037852e+01
1.350720e+02	-2.042655e+01
1.358522e+02	-2.047682e+01
1.366368e+02	-2.052722e+01
1.374260e+02	-2.057557e+01
1.382198e+02	-2.062616e+01
1.390182e+02	-2.067596e+01
1.398211e+02	-2.072432e+01
1.406287e+02	-2.077560e+01
1.414410e+02	-2.082488e+01
1.422579e+02	-2.087329e+01
1.430796e+02	-2.092402e+01
1.439060e+02	-2.097359e+01
1.447372e+02	-2.102372e+01
1.455732e+02	-2.107414e+01
1.464141e+02	-2.112356e+01
1.472597e+02	-2.117334e+01
1.481103e+02	-2.122004e+01
1.489658e+02	-2.126988e+01
1.498262e+02	-2.132231e+01
1.506916e+02	-2.136908e+01
1.515620e+02	-2.142061e+01
1.524374e+02	-2.146878e+01
1.533179e+02	-2.151952e+01
1.542034e+02	-2.156960e+01
1.550941e+02	-2.161889e+01
1.559899e+02	-2.167003e+01
1.568909e+02	-2.171794e+01
1.577971e+02	-2.176950e+01
1.587085e+02	-2.181951e+01
1.596252e+02	-2.186527e+01
1.605472e+02	-2.191442e+01
1.614745e+02	-2.196729e+01
1.624072e+02	-2.201641e+01
1.633453e+02	-2.206323e+01
1.642887e+02	-2.211529e+01
1.652377e+02	-2.216519e+01
1.661921e+02	-2.221524e+01
1.671520e+02	-2.226564e+01
1.681175e+02	-2.231554e+01
1.690885e+02	-2.236650e+01
1.700651e+02	-2.241341e+01
1.710474e+02	-2.246633e+01
1.720354e+02	-2.251464e+01
1.730291e+02	-2.256525e+01
1.740285e+02	-2.261456e+01
1.750337e+02	-2.266098e+01
1.760446e+02	-2.271390e+01
1.770615e+02	-2.276495e+01
1.780842e+02	-2.281422e+01
1.791128e+02	-2.286032e+01
1.801473e+02	-2.291073e+01
1.811878e+02	-2.296167e+01
1.822344e+02	-2.301429e+01
1.832870e+02	-2.306083e+01
1.843456e+02	-2.311240e+01
1.854104e+02	-2.315995e+01
1.864813e+02	-2.321041e+01
1.875584e+02	-2.326041e+01
1.886418e+02	-2.331018e+01
1.897313e+02	-2.336331e+01
1.908272e+02	-2.340896e+01
1.919294e+02	-2.345861e+01
1.930380e+02	-2.351194e+01
1.941530e+02	-2.356294e+01
1.952744e+02	-2.361017e+01
1.964023e+02	-2.365902e+01
1.975367e+02	-2.370986e+01
1.986777e+02	-2.375735e+01
1.998252e+02	-2.380770e+01
2.009794e+02	-2.385768e+01
2.021403e+02	-2.390989e+01
2.033078e+02	-2.395730e+01
2.044821e+02	-2.400882e+01
2.056632e+02	-2.405973e+01
2.068511e+02	-2.410855e+01
2.080459e+02	-2.415955e+01
2.092475e+02	-2.420529e+01
2.104561e+02	-2.425977e+01
2.116717e+02	-2.430817e+01
2.128943e+02	-2.435868e+01
2.141240e+02	-2.440849e+01
2.153608e+02	-2.445579e+01
2.166047e+02	-2.450864e+01
2.178558e+02	-2.455667e+01
2.191141e+02	-2.460861e+01
2.203797e+02	-2.465444e+01
2.216526e+02	-2.470711e+01
2.229329e+02	-2.475616e+01
2.242205e+02	-2.480914e+01
2.255156e+02	-2.485530e+01
2.268182e+02	-2.490738e+01
2.281283e+02	-2.495580e+01
2.294459e+02	-2.500621e+01
2.307712e+02	-2.505538e+01
2.321041e+02	-2.510371e+01
2.334447e+02	-2.515630e+01
2.347931e+02	-2.520480e+01
2.361493e+02	-2.525658e+01
2.375133e+02	-2.530649e+01
2.388851e+02	-2.535583e+01
2.402649e+02	-2.540402e+01
2.416527e+02	-2.545678e+01
2.430484e+02	-2.550610e+01
2.444523e+02	-2.555567e+01
2.458642e+02	-2.560580e+01
2.472843e+02	-2.565473e+01
2.487126e+02	-2.570571e+01
2.501492e+02	-2.575497e+01
2.515940e+02	-2.580813e+01
2.530472e+02	-2.585292e+01
2.545088e+02	-2.590675e+01
2.559789e+02	-2.595511e+01
2.574574e+02	-2.600153e+01
2.589444e+02	-2.605935e+01
2.604401e+02	-2.610571e+01
2.619444e+02	-2.615535e+01
2.634574e+02	-2.620343e+01
2.649791e+02	-2.625579e+01
2.665096e+02	-2.630573e+01
2.680489e+02	-2.635371e+01
2.695972e+02	-2.640486e+01
2.711544e+02	-2.645347e+01
2.727205e+02	-2.650385e+01
2.742958e+02	-2.655375e+01
2.758801e+02	-2.660442e+01
2.774736e+02	-2.665528e+01
2.790762e+02	-2.670471e+01
2.806882e+02	-2.675539e+01
2.823094e+02	-2.680315e+01
2.839400e+02	-2.685492e+01
2.855800e+02	-2.690450e+01
2.872295e+02	-2.695457e+01
2.888886e+02	-2.700457e+01
2.905572e+02	-2.705750e+01
2.922354e+02	-2.710081e+01
2.939234e+02	-2.715222e+01
2.956211e+02	-2.720505e+01
2.973286e+02	-2.725242e+01
2.990459e+02	-2.730356e+01
3.007732e+02	-2.735301e+01
3.025104e+02	-2.740394e+01
3.042577e+02	-2.745480e+01
3.060151e+02	-2.750616e+01
3.077826e+02	-2.755104e+01
3.095604e+02	-2.760095e+01
3.113484e+02	-2.765397e+01
3.131467e+02	-2.770304e+01
3.149554e+02	-2.775213e+01
3.167746e+02	-2.780279e+01
3.186043e+02	-2.785415e+01
3.204445e+02	-2.790429e+01
3.222954e+02	-2.795813e+01
3.241570e+02	-2.801010e+01
3.260293e+02	-2.805297e+01
3.279124e+02	-2.810538e+01
3.298064e+02	-2.815207e+01
3.317114e+02	-2.820496e+01
3.336273e+02	-2.825411e+01
3.355544e+02	-2.830555e+01
3.374925e+02	-2.835072e+01
3.394418e+02	-2.840720e+01
3.414024e+02	-2.845735e+01
3.433744e+02	-2.850516e+01
3.453577e+02	-2.855526e+01
3.473525e+02	-2.860408e+01
3.493588e+02	-2.865694e+01
3.513766e+02	-2.870325e+01
3.534062e+02	-2.875446e+01
3.554474e+02	-2.880327e+01
3.575005e+02	-2.885681e+01
3.595654e+02	-2.890793e+01
3.616422e+02	-2.895435e+01
3.637311e+02	-2.900528e+01
3.658320e+02	-2.905806e+01
3.679450e+02	-2.910758e+01
3.700702e+02	-2.915414e+01
3.722077e+02	-2.920579e+01
3.743576e+02	-2.925979e+01
3.765199e+02	-2.931098e+01
3.786946e+02	-2.935944e+01
3.808820e+02	-2.940981e+01
3.830819e+02	-2.945630e+01
3.852946e+02	-2.950616e+01
3.875200e+02	-2.955743e+01
3.897583e+02	-2.960948e+01
3.920096e+02	-2.965576e+01
3.942738e+02	-2.970599e+01
3.965511e+02	-2.975957e+01
3.988416e+02	-2.980698e+01
4.011452e+02	-2.985591e+01
4.034622e+02	-2.990384e+01
4.057926e+02	-2.995742e+01
4.081365e+02	-3.001170e+01
4.104938e+02	-3.005467e+01
4.128648e+02	-3.010919e+01
4.152495e+02	-3.015618e+01
4.176480e+02	-3.020841e+01
4.200603e+02	-3.025983e+01
4.224866e+02	-3.031157e+01
4.249268e+02	-3.035459e+01
4.273812e+02	-3.040915e+01
4.298497e+02	-3.046308e+01
4.323325e+02	-3.050636e+01
4.348297e+02	-3.055924e+01
4.373412e+02	-3.060461e+01
4.398673e+02	-3.065725e+01
4.424079e+02	-3.070310e+01
4.449633e+02	-3.076326e+01
4.475334e+02	-3.080715e+01
4.501183e+02	-3.086037e+01
4.527182e+02	-3.091323e+01
4.553330e+02	-3.095849e+01
4.579630e+02	-3.101063e+01
4.606082e+02	-3.105829e+01
4.632687e+02	-3.111024e+01
4.659445e+02	-3.116463e+01
4.686358e+02	-3.121086e+01
4.713426e+02	-3.125958e+01
4.740650e+02	-3.131265e+01
4.768032e+02	-3.136280e+01
4.795572e+02	-3.140906e+01
4.823271e+02	-3.146231e+01
4.851130e+02	-3.151085e+01
4.879150e+02	-3.156463e+01
4.907332e+02	-3.160930e+01
4.935676e+02	-3.166124e+01
4.964185e+02	-3.171435e+01
4.992858e+02	-3.175771e+01
5.021696e+02	-3.181199e+01
5.050701e+02	-3.186893e+01
5.079874e+02	-3.191065e+01
5.109215e+02	-3.196631e+01
5.138726e+02	-3.201563e+01
5.168407e+02	-3.206749e+01
5.198259e+02	-3.210853e+01
5.228284e+02	-3.216316e+01
5.258482e+02	-3.220988e+01
5.288855e+02	-3.226207e+01
5.319403e+02	-3.231933e+01
5.350128e+02	-3.236279e+01
5.381030e+02	-3.242209e+01
5.412111e+02	-3.246566e+01
5.443371e+02	-3.251461e+01
5.474812e+02	-3.256354e+01
5.506434e+02	-3.261724e+01
5.538239e+02	-3.266532e+01
5.570228e+02	-3.271486e+01
5.602401e+02	-3.276912e+01
5.634760e+02	-3.281483e+01
5.667306e+02	-3.286372e+01
5.700040e+02	-3.290945e+01
5.732964e+02	-3.297021e+01
5.766077e+02	-3.302040e+01
5.799382e+02	-3.306750e+01
5.832879e+02	-3.311866e+01
5.866569e+02	-3.316449e+01
5.900454e+02	-3.322426e+01
5.934535e+02	-3.326479e+01
5.968813e+02	-3.332094e+01
6.003288e+02	-3.336936e+01
6.037963e+02	-3.341958e+01
6.072838e+02	-3.346877e+01
6.107914e+02	-3.351454e+01
6.143194e+02	-3.357167e+01
6.178676e+02	-3.362904e+01
6.214364e+02	-3.366584e+01
6.250258e+02	-3.372465e+01
6.286359e+02	-3.377404e+01
6.322669e+02	-3.382109e+01
6.359189e+02	-3.386784e+01
6.395919e+02	-3.391998e+01
6.432862e+02	-3.397836e+01
6.470017e+02	-3.402149e+01
6.507388e+02	-3.407329e+01
6.544974e+02	-3.412162e+01
6.582778e+02	-3.417751e+01
6.620800e+02	-3.422065e+01
6.659041e+02	-3.427448e+01
6.697504e+02	-3.432132e+01
6.736188e+02	-3.437567e+01
6.775096e+02	-3.442659e+01
6.814229e+02	-3.448217e+01
6.853587e+02	-3.453318e+01
6.893173e+02	-3.458085e+01
6.932988e+02	-3.463556e+01
6.973033e+02	-3.467448e+01
7.013309e+02	-3.472556e+01
