Frequency(Hz)	Magnitude(dB)
1.000000e+01	-2.027636e+00
1.005776e+01	-2.046354e+00
1.011585e+01	-2.064978e+00
1.017428e+01	-2.084172e+00
1.023305e+01	-2.103330e+00
1.029215e+01	-2.122600e+00
1.035160e+01	-2.141926e+00
1.041139e+01	-2.161334e+00
1.047153e+01	-2.181134e+00
1.053201e+01	-2.200985e+00
1.059284e+01	-2.220772e+00
1.065403e+01	-2.241028e+00
1.071556e+01	-2.261238e+00
1.077746e+01	-2.281738e+00
1.083971e+01	-2.302113e+00
1.090232e+01	-2.322942e+00
1.096529e+01	-2.343621e+00
1.102862e+01	-2.364425e+00
1.109232e+01	-2.385742e+00
1.115639e+01	-2.406910e+00
1.122083e+01	-2.428168e+00
1.128564e+01	-2.449736e+00
1.135083e+01	-2.471179e+00
1.141639e+01	-2.493326e+00
1.148233e+01	-2.515150e+00
1.154865e+01	-2.537075e+00
1.161536e+01	-2.559131e+00
1.168245e+01	-2.581606e+00
1.174992e+01	-2.604198e+00
1.181779e+01	-2.626748e+00
1.188605e+01	-2.649327e+00
1.195470e+01	-2.672242e+00
1.202375e+01	-2.695472e+00
1.209320e+01	-2.718693e+00
1.216305e+01	-2.741900e+00
1.223330e+01	-2.765622e+00
1.230396e+01	-2.788924e+00
1.237503e+01	-2.813133e+00
1.244651e+01	-2.836846e+00
1.251840e+01	-2.860907e+00
1.259070e+01	-2.885161e+00
1.266343e+01	-2.909453e+00
1.273657e+01	-2.934042e+00
1.281014e+01	-2.958688e+00
1.288413e+01	-2.983565e+00
1.295855e+01	-3.008280e+00
1.303339e+01	-3.033306e+00
1.310867e+01	-3.058712e+00
1.318439e+01	-3.083830e+00
1.326054e+01	-3.109543e+00
1.333713e+01	-3.135250e+00
1.341417e+01	-3.160958e+00
1.349165e+01	-3.186859e+00
1.356958e+01	-3.213184e+00
1.364795e+01	-3.239091e+00
1.372678e+01	-3.265696e+00
1.380607e+01	-3.291868e+00
1.388581e+01	-3.318814e+00
1.396602e+01	-3.345296e+00
1.404668e+01	-3.372324e+00
1.412782e+01	-3.399448e+00
1.420942e+01	-3.426742e+00
1.429149e+01	-3.454206e+00
1.437404e+01	-3.481657e+00
1.445706e+01	-3.509283e+00
1.454057e+01	-3.537243e+00
1.462455e+01	-3.565381e+00
1.470902e+01	-3.593060e+00
1.479398e+01	-3.621284e+00
1.487943e+01	-3.649717e+00
1.496537e+01	-3.678326e+00
1.505181e+01	-3.707025e+00
1.513875e+01	-3.735665e+00
1.522619e+01	-3.764701e+00
1.531414e+01	-3.793527e+00
1.540259e+01	-3.822817e+00
1.549156e+01	-3.852318e+00
1.558103e+01	-3.881503e+00
1.567103e+01	-3.911516e+00
1.576155e+01	-3.941120e+00
1.585258e+01	-3.971090e+00
1.594415e+01	-4.001213e+00
1.603624e+01	-4.031327e+00
1.612886e+01	-4.061794e+00
1.622202e+01	-4.092085e+00
1.631572e+01	-4.122618e+00
1.640996e+01	-4.153191e+00
1.650474e+01	-4.184325e+00
1.660008e+01	-4.215008e+00
1.669596e+01	-4.246477e+00
1.679239e+01	-4.277679e+00
1.688938e+01	-4.309150e+00
1.698694e+01	-4.340535e+00
1.708505e+01	-4.372609e+00
1.718373e+01	-4.404451e+00
1.728299e+01	-4.436164e+00
1.738281e+01	-4.468176e+00
1.748322e+01	-4.500338e+00
1.758420e+01	-4.532465e+00
1.768576e+01	-4.565140e+00
1.778792e+01	-4.597777e+00
1.789066e+01	-4.630301e+00
1.799399e+01	-4.663636e+00
1.809793e+01	-4.696470e+00
1.820246e+01	-4.729590e+00
1.830760e+01	-4.762890e+00
1.841334e+01	-4.796300e+00
1.851969e+01	-4.829639e+00
1.862666e+01	-4.863406e+00
1.873425e+01	-4.897268e+00
1.884246e+01	-4.931010e+00
1.895129e+01	-4.964855e+00
1.906075e+01	-4.999116e+00
1.917085e+01	-5.033633e+00
1.928158e+01	-5.067677e+00
1.939295e+01	-5.102044e+00
1.950496e+01	-5.136996e+00
1.961762e+01	-5.171669e+00
1.973093e+01	-5.206352e+00
1.984490e+01	-5.241767e+00
1.995952e+01	-5.276695e+00
2.007480e+01	-5.311722e+00
2.019076e+01	-5.347387e+00
2.030738e+01	-5.382532e+00
2.042467e+01	-5.418329e+00
2.054264e+01	-5.454003e+00
2.066130e+01	-5.490019e+00
2.078064e+01	-5.525830e+00
2.090066e+01	-5.561761e+00
2.102139e+01	-5.597964e+00
2.114280e+01	-5.634477e+00
2.126492e+01	-5.671099e+00
2.138775e+01	-5.707414e+00
2.151128e+01	-5.744241e+00
2.163553e+01	-5.780750e+00
2.176050e+01	-5.817741e+00
2.188619e+01	-5.854570e+00
2.201260e+01	-5.891881e+00
2.213974e+01	-5.928807e+00
2.226762e+01	-5.965924e+00
2.239624e+01	-6.003740e+00
2.252560e+01	-6.041397e+00
2.265571e+01	-6.078639e+00
2.278656e+01	-6.116544e+00
2.291818e+01	-6.154322e+00
2.305055e+01	-6.192490e+00
2.318369e+01	-6.230318e+00
2.331760e+01	-6.268482e+00
2.345228e+01	-6.306502e+00
2.358774e+01	-6.344814e+00
2.372398e+01	-6.383640e+00
2.386101e+01	-6.422075e+00
2.399883e+01	-6.460965e+00
2.413745e+01	-6.499734e+00
2.427686e+01	-6.538700e+00
2.441709e+01	-6.577615e+00
2.455812e+01	-6.616704e+00
2.469997e+01	-6.656010e+00
2.484263e+01	-6.694529e+00
2.498612e+01	-6.733973e+00
2.513044e+01	-6.774127e+00
2.527559e+01	-6.813416e+00
2.542158e+01	-6.852614e+00
2.556842e+01	-6.892838e+00
2.571610e+01	-6.932529e+00
2.586463e+01	-6.972478e+00
2.601403e+01	-7.012727e+00
2.616428e+01	-7.052667e+00
2.631541e+01	-7.092740e+00
2.646740e+01	-7.133033e+00
2.662028e+01	-7.173548e+00
2.677404e+01	-7.214298e+00
2.692868e+01	-7.254580e+00
2.708422e+01	-7.294846e+00
2.724066e+01	-7.336144e+00
2.739800e+01	-7.376947e+00
2.755625e+01	-7.417566e+00
2.771541e+01	-7.458997e+00
2.787550e+01	-7.499909e+00
2.803650e+01	-7.541092e+00
2.819844e+01	-7.582274e+00
2.836131e+01	-7.623547e+00
2.852513e+01	-7.665016e+00
2.868989e+01	-7.706711e+00
2.885560e+01	-7.748090e+00
2.902227e+01	-7.790332e+00
2.918990e+01	-7.831564e+00
2.935850e+01	-7.873251e+00
2.952807e+01	-7.915069e+00
2.969863e+01	-7.956749e+00
2.987016e+01	-7.999272e+00
3.004269e+01	-8.041113e+00
3.021622e+01	-8.083590e+00
3.039075e+01	-8.125742e+00
3.056628e+01	-8.168136e+00
3.074283e+01	-8.210922e+00
3.092040e+01	-8.252623e+00
3.109900e+01	-8.295896e+00
3.127862e+01	-8.338635e+00
3.145929e+01	-8.381087e+00
3.164099e+01	-8.423866e+00
3.182375e+01	-8.467237e+00
3.200756e+01	-8.509504e+00
3.219244e+01	-8.553124e+00
3.237838e+01	-8.595870e+00
3.256540e+01	-8.639138e+00
3.275349e+01	-8.681936e+00
3.294268e+01	-8.725154e+00
3.313295e+01	-8.768920e+00
3.332433e+01	-8.812730e+00
3.351681e+01	-8.855509e+00
3.371040e+01	-8.899241e+00
3.390511e+01	-8.943221e+00
3.410094e+01	-8.986548e+00
3.429791e+01	-9.029991e+00
3.449601e+01	-9.074535e+00
3.469526e+01	-9.117761e+00
3.489566e+01	-9.162479e+00
3.509721e+01	-9.206154e+00
3.529993e+01	-9.249984e+00
3.550382e+01	-9.293853e+00
3.570889e+01	-9.338114e+00
3.591515e+01	-9.382375e+00
3.612259e+01	-9.426898e+00
3.633123e+01	-9.471107e+00
3.654108e+01	-9.515754e+00
3.675214e+01	-9.559967e+00
3.696442e+01	-9.604566e+00
3.717792e+01	-9.649330e+00
3.739266e+01	-9.694128e+00
3.760864e+01	-9.738422e+00
3.782587e+01	-9.783059e+00
3.804435e+01	-9.828251e+00
3.826409e+01	-9.872769e+00
3.848510e+01	-9.918442e+00
3.870739e+01	-9.962862e+00
3.893096e+01	-1.000759e+01
3.915583e+01	-1.005289e+01
3.938199e+01	-1.009819e+01
3.960946e+01	-1.014267e+01
3.983824e+01	-1.018780e+01
4.006834e+01	-1.023391e+01
4.029978e+01	-1.027854e+01
4.053255e+01	-1.032459e+01
4.076666e+01	-1.036979e+01
4.100213e+01	-1.041456e+01
4.123896e+01	-1.046077e+01
4.147715e+01	-1.050611e+01
4.171672e+01	-1.055202e+01
4.195767e+01	-1.059687e+01
4.220002e+01	-1.064316e+01
4.244377e+01	-1.068866e+01
4.268892e+01	-1.073430e+01
4.293549e+01	-1.078104e+01
4.318348e+01	-1.082656e+01
4.343291e+01	-1.087285e+01
4.368377e+01	-1.091798e+01
4.393609e+01	-1.096431e+01
4.418986e+01	-1.101044e+01
4.444510e+01	-1.105577e+01
4.470182e+01	-1.110189e+01
4.496001e+01	-1.114875e+01
4.521970e+01	-1.119446e+01
4.548089e+01	-1.124057e+01
4.574358e+01	-1.128786e+01
4.600779e+01	-1.133339e+01
4.627353e+01	-1.138050e+01
4.654081e+01	-1.142645e+01
4.680963e+01	-1.147285e+01
4.708000e+01	-1.151912e+01
4.735193e+01	-1.156618e+01
4.762543e+01	-1.161206e+01
4.790051e+01	-1.165901e+01
4.817719e+01	-1.170462e+01
4.845545e+01	-1.175201e+01
4.873533e+01	-1.179861e+01
4.901682e+01	-1.184546e+01
4.929994e+01	-1.189194e+01
4.958470e+01	-1.193900e+01
4.987110e+01	-1.198614e+01
5.015915e+01	-1.203274e+01
5.044887e+01	-1.207985e+01
5.074026e+01	-1.212697e+01
5.103333e+01	-1.217325e+01
5.132810e+01	-1.222056e+01
5.162457e+01	-1.226837e+01
5.192275e+01	-1.231445e+01
5.222265e+01	-1.236226e+01
5.252429e+01	-1.240958e+01
5.282767e+01	-1.245622e+01
5.313280e+01	-1.250337e+01
5.343969e+01	-1.255140e+01
5.374836e+01	-1.259794e+01
5.405880e+01	-1.264589e+01
5.437105e+01	-1.269267e+01
5.468509e+01	-1.274012e+01
5.500095e+01	-1.278758e+01
5.531863e+01	-1.283464e+01
5.563815e+01	-1.288200e+01
5.595951e+01	-1.292932e+01
5.628273e+01	-1.297828e+01
5.660782e+01	-1.302460e+01
5.693479e+01	-1.307210e+01
5.726364e+01	-1.311997e+01
5.759439e+01	-1.316777e+01
5.792705e+01	-1.321472e+01
5.826164e+01	-1.326290e+01
5.859815e+01	-1.331030e+01
5.893662e+01	-1.335852e+01
5.927703e+01	-1.340624e+01
5.961941e+01	-1.345436e+01
5.996377e+01	-1.350121e+01
6.031012e+01	-1.354892e+01
6.065847e+01	-1.359724e+01
6.100883e+01	-1.364481e+01
6.136121e+01	-1.369275e+01
6.171563e+01	-1.374114e+01
6.207210e+01	-1.378852e+01
6.243063e+01	-1.383604e+01
6.279122e+01	-1.388538e+01
6.315390e+01	-1.393198e+01
6.351868e+01	-1.398082e+01
6.388556e+01	-1.402782e+01
6.425456e+01	-1.407700e+01
6.462569e+01	-1.412439e+01
6.499897e+01	-1.417281e+01
6.537440e+01	-1.422074e+01
6.575200e+01	-1.426908e+01
6.613178e+01	-1.431824e+01
6.651375e+01	-1.436531e+01
6.689793e+01	-1.441406e+01
6.728433e+01	-1.446195e+01
6.767297e+01	-1.451031e+01
6.806384e+01	-1.455815e+01
6.845698e+01	-1.460621e+01
6.885238e+01	-1.465576e+01
6.925007e+01	-1.470255e+01
6.965005e+01	-1.475171e+01
7.005235e+01	-1.479960e+01
7.045697e+01	-1.484768e+01
7.086393e+01	-1.489635e+01
7.127323e+01	-1.494529e+01
7.168490e+01	-1.499366e+01
7.209895e+01	-1.504268e+01
7.251539e+01	-1.509034e+01
7.293424e+01	-1.513888e+01
7.335551e+01	-1.518749e+01
7.377920e+01	-1.523572e+01
7.420535e+01	-1.528425e+01
7.463396e+01	-1.533294e+01
7.506504e+01	-1.538312e+01
7.549861e+01	-1.542983e+01
7.593469e+01	-1.547883e+01
7.637328e+01	-1.552707e+01
7.681441e+01	-1.557704e+01
7.725809e+01	-1.562494e+01
7.770433e+01	-1.567448e+01
7.815315e+01	-1.572180e+01
7.860456e+01	-1.577176e+01
7.905857e+01	-1.581865e+01
7.951521e+01	-1.586881e+01
7.997449e+01	-1.591813e+01
8.043642e+01	-1.596552e+01
8.090102e+01	-1.601579e+01
8.136830e+01	-1.606286e+01
8.183828e+01	-1.611252e+01
8.231097e+01	-1.616139e+01
8.278640e+01	-1.621009e+01
8.326457e+01	-1.625850e+01
8.374550e+01	-1.630822e+01
8.422921e+01	-1.635628e+01
8.471572e+01	-1.640567e+01
8.520503e+01	-1.645394e+01
8.569717e+01	-1.650312e+01
8.619215e+01	-1.655182e+01
8.669000e+01	-1.660118e+01
8.719071e+01	-1.665015e+01
8.769432e+01	-1.669821e+01
8.820084e+01	-1.674729e+01
8.871029e+01	-1.679658e+01
8.922267e+01	-1.684694e+01
8.973802e+01	-1.689434e+01
9.025634e+01	-1.694239e+01
9.077766e+01	-1.699261e+01
9.130199e+01	-1.704287e+01
9.182935e+01	-1.709080e+01
9.235975e+01	-1.714106e+01
9.289321e+01	-1.718950e+01
9.342976e+01	-1.723791e+01
9.396941e+01	-1.728664e+01
9.451217e+01	-1.733695e+01
9.505807e+01	-1.738592e+01
9.560712e+01	-1.743267e+01
9.615934e+01	-1.748477e+01
9.671476e+01	-1.753297e+01
9.727338e+01	-1.758100e+01
9.783522e+01	-1.763116e+01
9.840032e+01	-1.768068e+01
9.896867e+01	-1.772906e+01
9.954031e+01	-1.777982e+01
1.001153e+02	-1.782709e+01
1.006935e+02	-1.787704e+01
1.012751e+02	-1.792787e+01
1.018601e+02	-1.797443e+01
1.024484e+02	-1.802539e+01
1.030402e+02	-1.807484e+01
1.036353e+02	-1.812281e+01
1.042339e+02	-1.817254e+01
1.048360e+02	-1.822230e+01
1.054415e+02	-1.827121e+01
1.060505e+02	-1.832036e+01
1.066631e+02	-1.836795e+01
1.072791e+02	-1.841791e+01
1.078988e+02	-1.846890e+01
1.085220e+02	-1.851826e+01
1.091488e+02	-1.856787e+01
1.097793e+02	-1.861630e+01
1.104133e+02	-1.866632e+01
1.110511e+02	-1.871480e+01
1.116925e+02	-1.876520e+01
1.123376e+02	-1.881373e+01
1.129865e+02	-1.886397e+01
1.136391e+02	-1.891216e+01
1.142955e+02	-1.896092e+01
1.149556e+02	-1.901218e+01
1.156196e+02	-1.906129e+01
1.162874e+02	-1.911080e+01
1.169591e+02	-1.916095e+01
1.176347e+02	-1.921066e+01
1.183141e+02	-1.925733e+01
1.189975e+02	-1.930809e+01
1.196848e+02	-1.935648e+01
1.203761e+02	-1.940660e+01
1.210714e+02	-1.945653e+01
1.217707e+02	-1.950609e+01
1.224740e+02	-1.955582e+01
1.231814e+02	-1.960358e+01
1.238929e+02	-1.965488e+01
1.246085e+02	-1.970358e+01
1.253283e+02	-1.975284e+01
1.260522e+02	-1.980278e+01
1.267802e+02	-1.985208e+01
1.275125e+02	-1.990155e+01
1.282490e+02	-1.994937e+01
1.289898e+02	-2.000072e+01
1.297348e+02	-2.004971e+01
1.304842e+02	-2.010024e+01
1.312378e+02	-2.014866e+01
1.319959e+02	-2.019798e+01
1.327583e+02	-2.024934e+01
1.335251e+02	-2.029769e+01
1.342963e+02	-2.034941e+01
1.350720e+02	-2.039718e+01
1.358522e+02	-2.044628e+01
1.366368e+02	-2.049629e+01
1.374260e+02	-2.054524e+01
1.382198e+02	-2.059512e+01
1.390182e+02	-2.064439e+01
1.398211e+02	-2.069438e+01
1.406287e+02	-2.074396e+01
1.414410e+02	-2.079435e+01
1.422579e+02	-2.084424e+01
1.430796e+02	-2.089238e+01
1.439060e+02	-2.094307e+01
1.447372e+02	-2.099101e+01
1.455732e+02	-2.104144e+01
1.464141e+02	-2.109129e+01
1.472597e+02	-2.114192e+01
1.481103e+02	-2.118998e+01
1.489658e+02	-2.124172e+01
1.498262e+02	-2.128959e+01
1.506916e+02	-2.134164e+01
1.515620e+02	-2.138924e+01
1.524374e+02	-2.143995e+01
1.533179e+02	-2.148990e+01
1.542034e+02	-2.153936e+01
1.550941e+02	-2.158697e+01
1.559899e+02	-2.163885e+01
1.568909e+02	-2.168733e+01
1.577971e+02	-2.173668e+01
1.587085e+02	-2.178781e+01
1.596252e+02	-2.183467e+01
1.605472e+02	-2.188865e+01
1.614745e+02	-2.193729e+01
1.624072e+02	-2.198561e+01
1.633453e+02	-2.203647e+01
1.642887e+02	-2.208556e+01
1.652377e+02	-2.213367e+01
1.661921e+02	-2.218622e+01
1.671520e+02	-2.223670e+01
1.681175e+02	-2.228518e+01
1.690885e+02	-2.233404e+01
1.700651e+02	-2.238503e+01
1.710474e+02	-2.243346e+01
1.720354e+02	-2.248377e+01
1.730291e+02	-2.253366e+01
1.740285e+02	-2.258386e+01
1.750337e+02	-2.263221e+01
1.760446e+02	-2.268294e+01
1.770615e+02	-2.273176e+01
1.780842e+02	-2.278223e+01
1.791128e+02	-2.283414e+01
1.801473e+02	-2.288446e+01
1.811878e+02	-2.293418e+01
1.822344e+02	-2.298228e+01
1.832870e+02	-2.303047e+01
1.843456e+02	-2.308261e+01
1.854104e+02	-2.313033e+01
1.864813e+02	-2.318102e+01
1.875584e+02	-2.323155e+01
1.886418e+02	-2.327918e+01
1.897313e+02	-2.333156e+01
1.908272e+02	-2.338203e+01
1.919294e+02	-2.343199e+01
1.930380e+02	-2.348229e+01
1.941530e+02	-2.353114e+01
1.952744e+02	-2.358084e+01
1.964023e+02	-2.362839e+01
1.975367e+02	-2.368044e+01
1.986777e+02	-2.372770e+01
1.998252e+02	-2.377881e+01
2.009794e+02	-2.382844e+01
2.021403e+02	-2.387931e+01
2.033078e+02	-2.392790e+01
2.044821e+02	-2.397754e+01
2.056632e+02	-2.402885e+01
2.068511e+02	-2.407713e+01
2.080459e+02	-2.412537e+01
2.092475e+02	-2.417842e+01
2.104561e+02	-2.422713e+01
2.116717e+02	-2.427807e+01
2.128943e+02	-2.432737e+01
2.141240e+02	-2.437820e+01
2.153608e+02	-2.442831e+01
2.166047e+02	-2.447669e+01
2.178558e+02	-2.452821e+01
2.191141e+02	-2.457640e+01
2.203797e+02	-2.462655e+01
2.216526e+02	-2.467984e+01
2.229329e+02	-2.472561e+01
2.242205e+02	-2.477265e+01
2.255156e+02	-2.482566e+01
2.268182e+02	-2.487760e+01
2.281283e+02	-2.492625e+01
2.294459e+02	-2.497738e+01
2.307712e+02	-2.502672e+01
2.321041e+02	-2.507554e+01
2.334447e+02	-2.512574e+01
2.347931e+02	-2.517738e+01
2.361493e+02	-2.522551e+01
2.375133e+02	-2.527567e+01
2.388851e+02	-2.532590e+01
2.402649e+02	-2.537595e+01
2.416527e+02	-2.542621e+01
2.430484e+02	-2.547439e+01
2.444523e+02	-2.552575e+01
2.458642e+02	-2.557481e+01
2.472843e+02	-2.562382e+01
2.487126e+02	-2.568012e+01
2.501492e+02	-2.572455e+01
2.515940e+02	-2.577429e+01
2.530472e+02	-2.582314e+01
2.545088e+02	-2.587381e+01
2.559789e+02	-2.592606e+01
2.574574e+02	-2.597362e+01
2.589444e+02	-2.602777e+01
2.604401e+02	-2.607293e+01
2.619444e+02	-2.612618e+01
2.634574e+02	-2.617144e+01
2.649791e+02	-2.622835e+01
2.665096e+02	-2.627471e+01
2.680489e+02	-2.632521e+01
2.695972e+02	-2.637583e+01
2.711544e+02	-2.642427e+01
2.727205e+02	-2.647612e+01
2.742958e+02	-2.652655e+01
2.758801e+02	-2.657642e+01
2.774736e+02	-2.662113e+01
2.790762e+02	-2.667615e+01
2.806882e+02	-2.672661e+01
2.823094e+02	-2.676998e+01
2.839400e+02	-2.682365e+01
2.855800e+02	-2.687233e+01
2.872295e+02	-2.692747e+01
2.888886e+02	-2.697581e+01
2.905572e+02	-2.702566e+01
2.922354e+02	-2.707117e+01
2.939234e+02	-2.712203e+01
2.956211e+02	-2.717662e+01
2.973286e+02	-2.722498e+01
2.990459e+02	-2.726770e+01
3.007732e+02	-2.732471e+01
3.025104e+02	-2.737336e+01
3.042577e+02	-2.742429e+01
3.060151e+02	-2.747573e+01
3.077826e+02	-2.752626e+01
3.095604e+02	-2.757388e+01
3.113484e+02	-2.762535e+01
3.131467e+02	-2.767448e+01
3.149554e+02	-2.772345e+01
3.167746e+02	-2.777511e+01
3.186043e+02	-2.782162e+01
3.204445e+02	-2.787467e+01
3.222954e+02	-2.792218e+01
3.241570e+02	-2.797460e+01
3.260293e+02	-2.802473e+01
3.279124e+02	-2.807694e+01
3.298064e+02	-2.812481e+01
3.317114e+02	-2.817256e+01
3.336273e+02	-2.822322e+01
3.355544e+02	-2.827555e+01
3.374925e+02	-2.832456e+01
3.394418e+02	-2.837543e+01
3.414024e+02	-2.842352e+01
3.433744e+02	-2.847653e+01
3.453577e+02	-2.852507e+01
3.473525e+02	-2.857563e+01
3.493588e+02	-2.862521e+01
3.513766e+02	-2.867317e+01
3.534062e+02	-2.872584e+01
3.554474e+02	-2.877788e+01
3.575005e+02	-2.882271e+01
3.595654e+02	-2.887367e+01
3.616422e+02	-2.892460e+01
3.637311e+02	-2.897773e+01
3.658320e+02	-2.902712e+01
3.679450e+02	-2.907964e+01
3.700702e+02	-2.912850e+01
3.722077e+02	-2.917302e+01
3.743576e+02	-2.922628e+01
3.765199e+02	-2.928013e+01
3.786946e+02	-2.932696e+01
3.808820e+02	-2.937623e+01
3.830819e+02	-2.942728e+01
3.852946e+02	-2.947739e+01
3.875200e+02	-2.952723e+01
3.897583e+02	-2.957233e+01
3.920096e+02	-2.963216e+01
3.942738e+02	-2.967984e+01
3.965511e+02	-2.972800e+01
3.988416e+02	-2.977179e+01
4.011452e+02	-2.982469e+01
4.034622e+02	-2.987321e+01
4.057926e+02	-2.992906e+01
4.081365e+02	-2.997794e+01
4.104938e+02	-3.002581e+01
4.128648e+02	-3.007907e+01
4.152495e+02	-3.012660e+01
4.176480e+02	-3.017832e+01
4.200603e+02	-3.022958e+01
4.224866e+02	-3.027380e+01
4.249268e+02	-3.032741e+01
4.273812e+02	-3.037847e+01
4.298497e+02	-3.042435e+01
4.323325e+02	-3.047502e+01
4.348297e+02	-3.053078e+01
4.373412e+02	-3.057694e+01
4.398673e+02	-3.063340e+01
4.424079e+02	-3.068003e+01
4.449633e+02	-3.072674e+01
4.475334e+02	-3.078029e+01
4.501183e+02	-3.082455e+01
4.527182e+02	-3.087952e+01
4.553330e+02	-3.092818e+01
4.579630e+02	-3.097577e+01
4.606082e+02	-3.103047e+01
4.632687e+02	-3.107935e+01
4.659445e+02	-3.113211e+01
4.686358e+02	-3.117526e+01
4.713426e+02	-3.123256e+01
4.740650e+02	-3.127615e+01
4.768032e+02	-3.132772e+01
4.795572e+02	-3.138061e+01
4.823271e+02	-3.142922e+01
4.851130e+02	-3.147982e+01
4.879150e+02	-3.153228e+01
4.907332e+02	-3.157692e+01
4.935676e+02	-3.163143e+01
4.964185e+02	-3.168714e+01
4.992858e+02	-3.173505e+01
5.021696e+02	-3.178174e+01
5.050701e+02	-3.183104e+01
5.079874e+02	-3.188121e+01
5.109215e+02	-3.192735e+01
5.138726e+02	-3.198508e+01
5.168407e+02	-3.203522e+01
5.198259e+02	-3.207945e+01
5.228284e+02	-3.213358e+01
5.258482e+02	-3.217693e+01
5.288855e+02	-3.223360e+01
5.319403e+02	-3.228386e+01
5.350128e+02	-3.233652e+01
5.381030e+02	-3.238323e+01
5.412111e+02	-3.243582e+01
5.443371e+02	-3.248390e+01
5.474812e+02	-3.253185e+01
5.506434e+02	-3.259298e+01
5.538239e+02	-3.263718e+01
5.570228e+02	-3.268716e+01
5.602401e+02	-3.273474e+01
5.634760e+02	-3.278029e+01
5.667306e+02	-3.282906e+01
5.700040e+02	-3.288646e+01
5.732964e+02	-3.294211e+01
5.766077e+02	-3.299115e+01
5.799382e+02	-3.303563e+01
5.832879e+02	-3.309012e+01
5.866569e+02	-3.313857e+01
5.900454e+02	-3.319358e+01
5.934535e+02	-3.323545e+01
5.968813e+02	-3.328648e+01
6.003288e+02	-3.333779e+01
6.037963e+02	-3.338544e+01
6.072838e+02	-3.343498e+01
6.107914e+02	-3.348576e+01
6.143194e+02	-3.353006e+01
6.178676e+02	-3.359113e+01
6.214364e+02	-3.363663e+01
6.250258e+02	-3.369284e+01
6.286359e+02	-3.374034e+01
6.322669e+02	-3.378597e+01
6.359189e+02	-3.384396e+01
6.395919e+02	-3.389296e+01
6.432862e+02	-3.394057e+01
6.470017e+02	-3.399407e+01
6.507388e+02	-3.404752e+01
6.544974e+02	-3.409774e+01
6.582778e+02	-3.414634e+01
6.620800e+02	-3.419550e+01
6.659041e+02	-3.424673e+01
6.697504e+02	-3.429682e+01
6.736188e+02	-3.434641e+01
6.775096e+02	-3.439186e+01
6.814229e+02	-3.444313e+01
6.853587e+02	-3.449027e+01
6.893173e+02	-3.454397e+01
6.932988e+02	-3.459870e+01
6.973033e+02	-3.464658e+01
7.013309e+02	-3.470903e+01
