Frequency(Hz)	Magnitude(dB)
1.000000e+01	-2.185488e+00
1.005776e+01	-2.205366e+00
1.011585e+01	-2.225290e+00
1.017428e+01	-2.245531e+00
1.023305e+01	-2.265779e+00
1.029215e+01	-2.286221e+00
1.035160e+01	-2.306607e+00
1.041139e+01	-2.327178e+00
1.047153e+01	-2.348150e+00
1.053201e+01	-2.369240e+00
1.059284e+01	-2.390178e+00
1.065403e+01	-2.411444e+00
1.071556e+01	-2.433009e+00
1.077746e+01	-2.454281e+00
1.083971e+01	-2.476191e+00
1.090232e+01	-2.497941e+00
1.096529e+01	-2.519918e+00
1.102862e+01	-2.541968e+00
1.109232e+01	-2.564145e+00
1.115639e+01	-2.586426e+00
1.122083e+01	-2.609240e+00
1.128564e+01	-2.631894e+00
1.135083e+01	-2.654510e+00
1.141639e+01	-2.677179e+00
1.148233e+01	-2.700632e+00
1.154865e+01	-2.723876e+00
1.161536e+01	-2.747157e+00
1.168245e+01	-2.770796e+00
1.174992e+01	-2.794616e+00
1.181779e+01	-2.817938e+00
1.188605e+01	-2.842162e+00
1.195470e+01	-2.866416e+00
1.202375e+01	-2.890441e+00
1.209320e+01	-2.914781e+00
1.216305e+01	-2.939414e+00
1.223330e+01	-2.964268e+00
1.230396e+01	-2.989063e+00
1.237503e+01	-3.013857e+00
1.244651e+01	-3.038963e+00
1.251840e+01	-3.064443e+00
1.259070e+01	-3.089763e+00
1.266343e+01	-3.115127e+00
1.273657e+01	-3.140856e+00
1.281014e+01	-3.166645e+00
1.288413e+01	-3.192546e+00
1.295855e+01	-3.218672e+00
1.303339e+01	-3.244811e+00
1.310867e+01	-3.271583e+00
1.318439e+01	-3.297886e+00
1.326054e+01	-3.324712e+00
1.333713e+01	-3.351341e+00
1.341417e+01	-3.378358e+00
1.349165e+01	-3.405517e+00
1.356958e+01	-3.432676e+00
1.364795e+01	-3.459887e+00
1.372678e+01	-3.487627e+00
1.380607e+01	-3.515360e+00
1.388581e+01	-3.543176e+00
1.396602e+01	-3.571512e+00
1.404668e+01	-3.599439e+00
1.412782e+01	-3.627683e+00
1.420942e+01	-3.656017e+00
1.429149e+01	-3.684710e+00
1.437404e+01	-3.713459e+00
1.445706e+01	-3.741809e+00
1.454057e+01	-3.771256e+00
1.462455e+01	-3.800049e+00
1.470902e+01	-3.829290e+00
1.479398e+01	-3.858762e+00
1.487943e+01	-3.888072e+00
1.496537e+01	-3.917889e+00
1.505181e+01	-3.947796e+00
1.513875e+01	-3.977833e+00
1.522619e+01	-4.007729e+00
1.531414e+01	-4.037775e+00
1.540259e+01	-4.068092e+00
1.549156e+01	-4.098854e+00
1.558103e+01	-4.129480e+00
1.567103e+01	-4.160255e+00
1.576155e+01	-4.191244e+00
1.585258e+01	-4.222057e+00
1.594415e+01	-4.253270e+00
1.603624e+01	-4.284531e+00
1.612886e+01	-4.315862e+00
1.622202e+01	-4.347661e+00
1.631572e+01	-4.379299e+00
1.640996e+01	-4.411135e+00
1.650474e+01	-4.443246e+00
1.660008e+01	-4.475265e+00
1.669596e+01	-4.507733e+00
1.679239e+01	-4.539671e+00
1.688938e+01	-4.572494e+00
1.698694e+01	-4.604922e+00
1.708505e+01	-4.637696e+00
1.718373e+01	-4.670708e+00
1.728299e+01	-4.703490e+00
1.738281e+01	-4.736866e+00
1.748322e+01	-4.770254e+00
1.758420e+01	-4.803440e+00
1.768576e+01	-4.836901e+00
1.778792e+01	-4.870484e+00
1.789066e+01	-4.904307e+00
1.799399e+01	-4.938243e+00
1.809793e+01	-4.972404e+00
1.820246e+01	-5.006796e+00
1.830760e+01	-5.040888e+00
1.841334e+01	-5.075507e+00
1.851969e+01	-5.110122e+00
1.862666e+01	-5.144762e+00
1.873425e+01	-5.179333e+00
1.884246e+01	-5.214159e+00
1.895129e+01	-5.249117e+00
1.906075e+01	-5.284373e+00
1.917085e+01	-5.319601e+00
1.928158e+01	-5.355227e+00
1.939295e+01	-5.390407e+00
1.950496e+01	-5.426097e+00
1.961762e+01	-5.461858e+00
1.973093e+01	-5.497776e+00
1.984490e+01	-5.533626e+00
1.995952e+01	-5.569907e+00
2.007480e+01	-5.605876e+00
2.019076e+01	-5.642281e+00
2.030738e+01	-5.678793e+00
2.042467e+01	-5.715380e+00
2.054264e+01	-5.751864e+00
2.066130e+01	-5.788906e+00
2.078064e+01	-5.825577e+00
2.090066e+01	-5.862827e+00
2.102139e+01	-5.899432e+00
2.114280e+01	-5.937092e+00
2.126492e+01	-5.974689e+00
2.138775e+01	-6.011721e+00
2.151128e+01	-6.049380e+00
2.163553e+01	-6.087163e+00
2.176050e+01	-6.124961e+00
2.188619e+01	-6.162496e+00
2.201260e+01	-6.200475e+00
2.213974e+01	-6.238495e+00
2.226762e+01	-6.276732e+00
2.239624e+01	-6.315055e+00
2.252560e+01	-6.353314e+00
2.265571e+01	-6.392348e+00
2.278656e+01	-6.430931e+00
2.291818e+01	-6.469298e+00
2.305055e+01	-6.508016e+00
2.318369e+01	-6.546734e+00
2.331760e+01	-6.586319e+00
2.345228e+01	-6.625315e+00
2.358774e+01	-6.664159e+00
2.372398e+01	-6.703488e+00
2.386101e+01	-6.742819e+00
2.399883e+01	-6.782443e+00
2.413745e+01	-6.821940e+00
2.427686e+01	-6.861480e+00
2.441709e+01	-6.901435e+00
2.455812e+01	-6.941379e+00
2.469997e+01	-6.981247e+00
2.484263e+01	-7.021199e+00
2.498612e+01	-7.061281e+00
2.513044e+01	-7.101655e+00
2.527559e+01	-7.142007e+00
2.542158e+01	-7.182446e+00
2.556842e+01	-7.223169e+00
2.571610e+01	-7.263400e+00
2.586463e+01	-7.304218e+00
2.601403e+01	-7.345349e+00
2.616428e+01	-7.385749e+00
2.631541e+01	-7.426795e+00
2.646740e+01	-7.467625e+00
2.662028e+01	-7.508671e+00
2.677404e+01	-7.550309e+00
2.692868e+01	-7.591589e+00
2.708422e+01	-7.632883e+00
2.724066e+01	-7.674595e+00
2.739800e+01	-7.715779e+00
2.755625e+01	-7.757775e+00
2.771541e+01	-7.798697e+00
2.787550e+01	-7.840691e+00
2.803650e+01	-7.882430e+00
2.819844e+01	-7.924506e+00
2.836131e+01	-7.966191e+00
2.852513e+01	-8.008915e+00
2.868989e+01	-8.051034e+00
2.885560e+01	-8.093009e+00
2.902227e+01	-8.135249e+00
2.918990e+01	-8.178195e+00
2.935850e+01	-8.220104e+00
2.952807e+01	-8.262634e+00
2.969863e+01	-8.304729e+00
2.987016e+01	-8.347987e+00
3.004269e+01	-8.390732e+00
3.021622e+01	-8.433436e+00
3.039075e+01	-8.476633e+00
3.056628e+01	-8.518889e+00
3.074283e+01	-8.562665e+00
3.092040e+01	-8.605532e+00
3.109900e+01	-8.648184e+00
3.127862e+01	-8.691573e+00
3.145929e+01	-8.734326e+00
3.164099e+01	-8.778375e+00
3.182375e+01	-8.822017e+00
3.200756e+01	-8.865131e+00
3.219244e+01	-8.909086e+00
3.237838e+01	-8.952668e+00
3.256540e+01	-8.996168e+00
3.275349e+01	-9.040579e+00
3.294268e+01	-9.083828e+00
3.313295e+01	-9.128189e+00
3.332433e+01	-9.171306e+00
3.351681e+01	-9.215659e+00
3.371040e+01	-9.259765e+00
3.390511e+01	-9.303974e+00
3.410094e+01	-9.348177e+00
3.429791e+01	-9.392248e+00
3.449601e+01	-9.436920e+00
3.469526e+01	-9.480546e+00
3.489566e+01	-9.525671e+00
3.509721e+01	-9.569706e+00
3.529993e+01	-9.613987e+00
3.550382e+01	-9.658865e+00
3.570889e+01	-9.703352e+00
3.591515e+01	-9.748922e+00
3.612259e+01	-9.792591e+00
3.633123e+01	-9.838246e+00
3.654108e+01	-9.882747e+00
3.675214e+01	-9.927554e+00
3.696442e+01	-9.973049e+00
3.717792e+01	-1.001751e+01
3.739266e+01	-1.006266e+01
3.760864e+01	-1.010833e+01
3.782587e+01	-1.015309e+01
3.804435e+01	-1.019861e+01
3.826409e+01	-1.024318e+01
3.848510e+01	-1.028864e+01
3.870739e+01	-1.033460e+01
3.893096e+01	-1.037930e+01
3.915583e+01	-1.042429e+01
3.938199e+01	-1.047019e+01
3.960946e+01	-1.051638e+01
3.983824e+01	-1.056148e+01
4.006834e+01	-1.060781e+01
4.029978e+01	-1.065315e+01
4.053255e+01	-1.069903e+01
4.076666e+01	-1.074452e+01
4.100213e+01	-1.079057e+01
4.123896e+01	-1.083617e+01
4.147715e+01	-1.088222e+01
4.171672e+01	-1.092767e+01
4.195767e+01	-1.097442e+01
4.220002e+01	-1.102013e+01
4.244377e+01	-1.106628e+01
4.268892e+01	-1.111253e+01
4.293549e+01	-1.115864e+01
4.318348e+01	-1.120541e+01
4.343291e+01	-1.125121e+01
4.368377e+01	-1.129737e+01
4.393609e+01	-1.134383e+01
4.418986e+01	-1.139036e+01
4.444510e+01	-1.143667e+01
4.470182e+01	-1.148306e+01
4.496001e+01	-1.152909e+01
4.521970e+01	-1.157536e+01
4.548089e+01	-1.162283e+01
4.574358e+01	-1.166974e+01
4.600779e+01	-1.171600e+01
4.627353e+01	-1.176207e+01
4.654081e+01	-1.180882e+01
4.680963e+01	-1.185595e+01
4.708000e+01	-1.190265e+01
4.735193e+01	-1.194953e+01
4.762543e+01	-1.199625e+01
4.790051e+01	-1.204322e+01
4.817719e+01	-1.209005e+01
4.845545e+01	-1.213734e+01
4.873533e+01	-1.218373e+01
4.901682e+01	-1.223120e+01
4.929994e+01	-1.227814e+01
4.958470e+01	-1.232552e+01
4.987110e+01	-1.237258e+01
5.015915e+01	-1.241996e+01
5.044887e+01	-1.246633e+01
5.074026e+01	-1.251335e+01
5.103333e+01	-1.256068e+01
5.132810e+01	-1.260858e+01
5.162457e+01	-1.265609e+01
5.192275e+01	-1.270397e+01
5.222265e+01	-1.275080e+01
5.252429e+01	-1.279792e+01
5.282767e+01	-1.284600e+01
5.313280e+01	-1.289238e+01
5.343969e+01	-1.294031e+01
5.374836e+01	-1.298724e+01
5.405880e+01	-1.303510e+01
5.437105e+01	-1.308277e+01
5.468509e+01	-1.313036e+01
5.500095e+01	-1.317805e+01
5.531863e+01	-1.322547e+01
5.563815e+01	-1.327338e+01
5.595951e+01	-1.332084e+01
5.628273e+01	-1.336846e+01
5.660782e+01	-1.341629e+01
5.693479e+01	-1.346503e+01
5.726364e+01	-1.351166e+01
5.759439e+01	-1.355963e+01
5.792705e+01	-1.360721e+01
5.826164e+01	-1.365525e+01
5.859815e+01	-1.370336e+01
5.893662e+01	-1.375087e+01
5.927703e+01	-1.379816e+01
5.961941e+01	-1.384737e+01
5.996377e+01	-1.389428e+01
6.031012e+01	-1.394329e+01
6.065847e+01	-1.399067e+01
6.100883e+01	-1.403904e+01
6.136121e+01	-1.408723e+01
6.171563e+01	-1.413522e+01
6.207210e+01	-1.418279e+01
6.243063e+01	-1.423117e+01
6.279122e+01	-1.427987e+01
6.315390e+01	-1.432762e+01
6.351868e+01	-1.437620e+01
6.388556e+01	-1.442456e+01
6.425456e+01	-1.447246e+01
6.462569e+01	-1.452112e+01
6.499897e+01	-1.456903e+01
6.537440e+01	-1.461740e+01
6.575200e+01	-1.466615e+01
6.613178e+01	-1.471371e+01
6.651375e+01	-1.476210e+01
6.689793e+01	-1.481074e+01
6.728433e+01	-1.485863e+01
6.767297e+01	-1.490593e+01
6.806384e+01	-1.495563e+01
6.845698e+01	-1.500499e+01
6.885238e+01	-1.505183e+01
6.925007e+01	-1.510155e+01
6.965005e+01	-1.515063e+01
7.005235e+01	-1.519805e+01
7.045697e+01	-1.524570e+01
7.086393e+01	-1.529476e+01
7.127323e+01	-1.534392e+01
7.168490e+01	-1.539246e+01
7.209895e+01	-1.544183e+01
7.251539e+01	-1.549011e+01
7.293424e+01	-1.553858e+01
7.335551e+01	-1.558673e+01
7.377920e+01	-1.563555e+01
7.420535e+01	-1.568443e+01
7.463396e+01	-1.573245e+01
7.506504e+01	-1.578287e+01
7.549861e+01	-1.583023e+01
7.593469e+01	-1.587920e+01
7.637328e+01	-1.592703e+01
7.681441e+01	-1.597661e+01
7.725809e+01	-1.602587e+01
7.770433e+01	-1.607412e+01
7.815315e+01	-1.612215e+01
7.860456e+01	-1.617203e+01
7.905857e+01	-1.622088e+01
7.951521e+01	-1.626951e+01
7.997449e+01	-1.631750e+01
8.043642e+01	-1.636757e+01
8.090102e+01	-1.641555e+01
8.136830e+01	-1.646432e+01
8.183828e+01	-1.651378e+01
8.231097e+01	-1.656201e+01
8.278640e+01	-1.661119e+01
8.326457e+01	-1.666066e+01
8.374550e+01	-1.670938e+01
8.422921e+01	-1.675810e+01
8.471572e+01	-1.680729e+01
8.520503e+01	-1.685760e+01
8.569717e+01	-1.690575e+01
8.619215e+01	-1.695408e+01
8.669000e+01	-1.700498e+01
8.719071e+01	-1.705262e+01
8.769432e+01	-1.710238e+01
8.820084e+01	-1.715039e+01
8.871029e+01	-1.720047e+01
8.922267e+01	-1.724897e+01
8.973802e+01	-1.729812e+01
9.025634e+01	-1.734643e+01
9.077766e+01	-1.739713e+01
9.130199e+01	-1.744477e+01
9.182935e+01	-1.749438e+01
9.235975e+01	-1.754387e+01
9.289321e+01	-1.759286e+01
9.342976e+01	-1.764238e+01
9.396941e+01	-1.769074e+01
9.451217e+01	-1.774039e+01
9.505807e+01	-1.778783e+01
9.560712e+01	-1.783750e+01
9.615934e+01	-1.788794e+01
9.671476e+01	-1.793681e+01
9.727338e+01	-1.798691e+01
9.783522e+01	-1.803558e+01
9.840032e+01	-1.808644e+01
9.896867e+01	-1.813608e+01
9.954031e+01	-1.818398e+01
1.001153e+02	-1.823312e+01
1.006935e+02	-1.828198e+01
1.012751e+02	-1.833012e+01
1.018601e+02	-1.837999e+01
1.024484e+02	-1.843034e+01
1.030402e+02	-1.847945e+01
1.036353e+02	-1.852727e+01
1.042339e+02	-1.857496e+01
1.048360e+02	-1.862737e+01
1.054415e+02	-1.867624e+01
1.060505e+02	-1.872556e+01
1.066631e+02	-1.877581e+01
1.072791e+02	-1.882467e+01
1.078988e+02	-1.887538e+01
1.085220e+02	-1.892253e+01
1.091488e+02	-1.897289e+01
1.097793e+02	-1.902219e+01
1.104133e+02	-1.907185e+01
1.110511e+02	-1.912045e+01
1.116925e+02	-1.917032e+01
1.123376e+02	-1.921963e+01
1.129865e+02	-1.926952e+01
1.136391e+02	-1.931775e+01
1.142955e+02	-1.936910e+01
1.149556e+02	-1.941659e+01
1.156196e+02	-1.946683e+01
1.162874e+02	-1.951730e+01
1.169591e+02	-1.956554e+01
1.176347e+02	-1.961644e+01
1.183141e+02	-1.966492e+01
1.189975e+02	-1.971493e+01
1.196848e+02	-1.976271e+01
1.203761e+02	-1.981306e+01
1.210714e+02	-1.986269e+01
1.217707e+02	-1.991038e+01
1.224740e+02	-1.996235e+01
1.231814e+02	-2.001185e+01
1.238929e+02	-2.006100e+01
1.246085e+02	-2.011217e+01
1.253283e+02	-2.016026e+01
1.260522e+02	-2.021007e+01
1.267802e+02	-2.025912e+01
1.275125e+02	-2.030946e+01
1.282490e+02	-2.035959e+01
1.289898e+02	-2.040755e+01
1.297348e+02	-2.045855e+01
1.304842e+02	-2.050656e+01
1.312378e+02	-2.055722e+01
1.319959e+02	-2.060737e+01
1.327583e+02	-2.065730e+01
1.335251e+02	-2.070501e+01
1.342963e+02	-2.075552e+01
1.350720e+02	-2.080376e+01
1.358522e+02	-2.085504e+01
1.366368e+02	-2.090575e+01
1.374260e+02	-2.095575e+01
1.382198e+02	-2.100474e+01
1.390182e+02	-2.105267e+01
1.398211e+02	-2.110299e+01
1.406287e+02	-2.115187e+01
1.414410e+02	-2.120258e+01
1.422579e+02	-2.125229e+01
1.430796e+02	-2.130075e+01
1.439060e+02	-2.135301e+01
1.447372e+02	-2.139970e+01
1.455732e+02	-2.145138e+01
1.464141e+02	-2.150288e+01
1.472597e+02	-2.154958e+01
1.481103e+02	-2.159821e+01
1.489658e+02	-2.165137e+01
1.498262e+02	-2.169967e+01
1.506916e+02	-2.174868e+01
1.515620e+02	-2.179861e+01
1.524374e+02	-2.184808e+01
1.533179e+02	-2.189902e+01
1.542034e+02	-2.194766e+01
1.550941e+02	-2.199774e+01
1.559899e+02	-2.204733e+01
1.568909e+02	-2.209699e+01
1.577971e+02	-2.214753e+01
1.587085e+02	-2.219492e+01
1.596252e+02	-2.224544e+01
1.605472e+02	-2.229460e+01
1.614745e+02	-2.234551e+01
1.624072e+02	-2.239348e+01
1.633453e+02	-2.244436e+01
1.642887e+02	-2.249449e+01
1.652377e+02	-2.254508e+01
1.661921e+02	-2.259775e+01
1.671520e+02	-2.264556e+01
1.681175e+02	-2.269374e+01
1.690885e+02	-2.274320e+01
1.700651e+02	-2.279460e+01
1.710474e+02	-2.284638e+01
1.720354e+02	-2.289444e+01
1.730291e+02	-2.294379e+01
1.740285e+02	-2.299144e+01
1.750337e+02	-2.304163e+01
1.760446e+02	-2.309125e+01
1.770615e+02	-2.314319e+01
1.780842e+02	-2.319246e+01
1.791128e+02	-2.324146e+01
1.801473e+02	-2.329131e+01
1.811878e+02	-2.334169e+01
1.822344e+02	-2.338948e+01
1.832870e+02	-2.344200e+01
1.843456e+02	-2.349035e+01
1.854104e+02	-2.354010e+01
1.864813e+02	-2.359184e+01
1.875584e+02	-2.364112e+01
1.886418e+02	-2.368596e+01
1.897313e+02	-2.374173e+01
1.908272e+02	-2.378969e+01
1.919294e+02	-2.383865e+01
1.930380e+02	-2.388986e+01
1.941530e+02	-2.393870e+01
1.952744e+02	-2.398785e+01
1.964023e+02	-2.403952e+01
1.975367e+02	-2.408644e+01
1.986777e+02	-2.413958e+01
1.998252e+02	-2.418935e+01
2.009794e+02	-2.423885e+01
2.021403e+02	-2.428998e+01
2.033078e+02	-2.434037e+01
2.044821e+02	-2.439080e+01
2.056632e+02	-2.443775e+01
2.068511e+02	-2.448624e+01
2.080459e+02	-2.453618e+01
2.092475e+02	-2.458608e+01
2.104561e+02	-2.463896e+01
2.116717e+02	-2.468451e+01
2.128943e+02	-2.473803e+01
2.141240e+02	-2.478649e+01
2.153608e+02	-2.483719e+01
2.166047e+02	-2.488716e+01
2.178558e+02	-2.493928e+01
2.191141e+02	-2.498684e+01
2.203797e+02	-2.503735e+01
2.216526e+02	-2.508557e+01
2.229329e+02	-2.513593e+01
2.242205e+02	-2.518578e+01
2.255156e+02	-2.523670e+01
2.268182e+02	-2.528458e+01
2.281283e+02	-2.533516e+01
2.294459e+02	-2.538446e+01
2.307712e+02	-2.543528e+01
2.321041e+02	-2.548444e+01
2.334447e+02	-2.553510e+01
2.347931e+02	-2.558231e+01
2.361493e+02	-2.563627e+01
2.375133e+02	-2.568633e+01
2.388851e+02	-2.573528e+01
2.402649e+02	-2.578764e+01
2.416527e+02	-2.583462e+01
2.430484e+02	-2.588601e+01
2.444523e+02	-2.593666e+01
2.458642e+02	-2.598314e+01
2.472843e+02	-2.603542e+01
2.487126e+02	-2.608543e+01
2.501492e+02	-2.613557e+01
2.515940e+02	-2.618533e+01
2.530472e+02	-2.623208e+01
2.545088e+02	-2.628610e+01
2.559789e+02	-2.633844e+01
2.574574e+02	-2.638312e+01
2.589444e+02	-2.643410e+01
2.604401e+02	-2.648734e+01
2.619444e+02	-2.653549e+01
2.634574e+02	-2.658373e+01
2.649791e+02	-2.663744e+01
2.665096e+02	-2.668497e+01
2.680489e+02	-2.673257e+01
2.695972e+02	-2.678174e+01
2.711544e+02	-2.683400e+01
2.727205e+02	-2.688506e+01
2.742958e+02	-2.693476e+01
2.758801e+02	-2.698314e+01
2.774736e+02	-2.703306e+01
2.790762e+02	-2.708540e+01
2.806882e+02	-2.713609e+01
2.823094e+02	-2.718602e+01
2.839400e+02	-2.723947e+01
2.855800e+02	-2.728258e+01
2.872295e+02	-2.733606e+01
2.888886e+02	-2.738716e+01
2.905572e+02	-2.743599e+01
2.922354e+02	-2.748727e+01
2.939234e+02	-2.753359e+01
2.956211e+02	-2.758355e+01
2.973286e+02	-2.763475e+01
2.990459e+02	-2.768164e+01
3.007732e+02	-2.773658e+01
3.025104e+02	-2.778561e+01
3.042577e+02	-2.783198e+01
3.060151e+02	-2.788267e+01
3.077826e+02	-2.793820e+01
3.095604e+02	-2.798769e+01
3.113484e+02	-2.803650e+01
3.131467e+02	-2.808811e+01
3.149554e+02	-2.813595e+01
3.167746e+02	-2.818839e+01
3.186043e+02	-2.823638e+01
3.204445e+02	-2.828459e+01
3.222954e+02	-2.833590e+01
3.241570e+02	-2.838335e+01
3.260293e+02	-2.843408e+01
3.279124e+02	-2.848303e+01
3.298064e+02	-2.853800e+01
3.317114e+02	-2.858329e+01
3.336273e+02	-2.863674e+01
3.355544e+02	-2.868255e+01
3.374925e+02	-2.873524e+01
3.394418e+02	-2.878337e+01
3.414024e+02	-2.883381e+01
3.433744e+02	-2.888554e+01
3.453577e+02	-2.893351e+01
3.473525e+02	-2.898866e+01
3.493588e+02	-2.903893e+01
3.513766e+02	-2.908520e+01
3.534062e+02	-2.913714e+01
3.554474e+02	-2.919307e+01
3.575005e+02	-2.923589e+01
3.595654e+02	-2.928511e+01
3.616422e+02	-2.933785e+01
3.637311e+02	-2.938752e+01
3.658320e+02	-2.943814e+01
3.679450e+02	-2.948485e+01
3.700702e+02	-2.953613e+01
3.722077e+02	-2.958808e+01
3.743576e+02	-2.963742e+01
3.765199e+02	-2.968609e+01
3.786946e+02	-2.973580e+01
3.808820e+02	-2.978849e+01
3.830819e+02	-2.984014e+01
3.852946e+02	-2.988621e+01
3.875200e+02	-2.994544e+01
3.897583e+02	-2.998932e+01
3.920096e+02	-3.003953e+01
3.942738e+02	-3.008994e+01
3.965511e+02	-3.013795e+01
3.988416e+02	-3.018647e+01
4.011452e+02	-3.023774e+01
4.034622e+02	-3.028818e+01
4.057926e+02	-3.034176e+01
4.081365e+02	-3.038849e+01
4.104938e+02	-3.043949e+01
4.128648e+02	-3.048906e+01
4.152495e+02	-3.054162e+01
4.176480e+02	-3.059013e+01
4.200603e+02	-3.063350e+01
4.224866e+02	-3.069193e+01
4.249268e+02	-3.074053e+01
4.273812e+02	-3.079077e+01
4.298497e+02	-3.084075e+01
4.323325e+02	-3.088803e+01
4.348297e+02	-3.094162e+01
4.373412e+02	-3.098784e+01
4.398673e+02	-3.104672e+01
4.424079e+02	-3.109494e+01
4.449633e+02	-3.113988e+01
4.475334e+02	-3.118641e+01
4.501183e+02	-3.124067e+01
4.527182e+02	-3.128855e+01
4.553330e+02	-3.133391e+01
4.579630e+02	-3.139322e+01
4.606082e+02	-3.143845e+01
4.632687e+02	-3.149433e+01
4.659445e+02	-3.154345e+01
4.686358e+02	-3.159155e+01
4.713426e+02	-3.164466e+01
4.740650e+02	-3.169209e+01
4.768032e+02	-3.173737e+01
4.795572e+02	-3.179390e+01
4.823271e+02	-3.183779e+01
4.851130e+02	-3.189361e+01
4.879150e+02	-3.193725e+01
4.907332e+02	-3.198898e+01
4.935676e+02	-3.204467e+01
4.964185e+02	-3.209352e+01
4.992858e+02	-3.214734e+01
5.021696e+02	-3.219586e+01
5.050701e+02	-3.224094e+01
5.079874e+02	-3.229126e+01
5.109215e+02	-3.234251e+01
5.138726e+02	-3.239253e+01
5.168407e+02	-3.244883e+01
5.198259e+02	-3.249734e+01
5.228284e+02	-3.254524e+01
5.258482e+02	-3.259552e+01
5.288855e+02	-3.264768e+01
5.319403e+02	-3.269334e+01
5.350128e+02	-3.275073e+01
5.381030e+02	-3.279513e+01
5.412111e+02	-3.284408e+01
5.443371e+02	-3.289175e+01
5.474812e+02	-3.294835e+01
5.506434e+02	-3.299753e+01
5.538239e+02	-3.304976e+01
5.570228e+02	-3.310276e+01
5.602401e+02	-3.315408e+01
5.634760e+02	-3.320658e+01
5.667306e+02	-3.325044e+01
5.700040e+02	-3.330219e+01
5.732964e+02	-3.334855e+01
5.766077e+02	-3.340042e+01
5.799382e+02	-3.345283e+01
5.832879e+02	-3.350053e+01
5.866569e+02	-3.355297e+01
5.900454e+02	-3.359982e+01
5.934535e+02	-3.364581e+01
5.968813e+02	-3.370611e+01
6.003288e+02	-3.375542e+01
6.037963e+02	-3.380190e+01
6.072838e+02	-3.385131e+01
6.107914e+02	-3.390304e+01
6.143194e+02	-3.395291e+01
6.178676e+02	-3.400518e+01
6.214364e+02	-3.405245e+01
6.250258e+02	-3.410686e+01
6.286359e+02	-3.416013e+01
6.322669e+02	-3.420312e+01
6.359189e+02	-3.425862e+01
6.395919e+02	-3.430182e+01
6.432862e+02	-3.435433e+01
6.470017e+02	-3.441425e+01
6.507388e+02	-3.445318e+01
6.544974e+02	-3.450068e+01
6.582778e+02	-3.454809e+01
6.620800e+02	-3.461244e+01
6.659041e+02	-3.465601e+01
6.697504e+02	-3.470943e+01
6.736188e+02	-3.476556e+01
6.775096e+02	-3.481206e+01
6.814229e+02	-3.486173e+01
6.853587e+02	-3.491768e+01
6.893173e+02	-3.496260e+01
6.932988e+02	-3.501467e+01
6.973033e+02	-3.505619e+01
7.013309e+02	-3.510919e+01
