Frequency(Hz)	Magnitude(dB)
1.000000e+01	-2.035691e+00
1.005776e+01	-2.054518e+00
1.011585e+01	-2.073697e+00
1.017428e+01	-2.092593e+00
1.023305e+01	-2.111977e+00
1.029215e+01	-2.131288e+00
1.035160e+01	-2.150568e+00
1.041139e+01	-2.170424e+00
1.047153e+01	-2.190035e+00
1.053201e+01	-2.209776e+00
1.059284e+01	-2.230030e+00
1.065403e+01	-2.249939e+00
1.071556e+01	-2.270439e+00
1.077746e+01	-2.290867e+00
1.083971e+01	-2.311491e+00
1.090232e+01	-2.332101e+00
1.096529e+01	-2.352923e+00
1.102862e+01	-2.373803e+00
1.109232e+01	-2.394852e+00
1.115639e+01	-2.416427e+00
1.122083e+01	-2.437834e+00
1.128564e+01	-2.459549e+00
1.135083e+01	-2.480984e+00
1.141639e+01	-2.502956e+00
1.148233e+01	-2.524733e+00
1.154865e+01	-2.547110e+00
1.161536e+01	-2.569238e+00
1.168245e+01	-2.591909e+00
1.174992e+01	-2.614154e+00
1.181779e+01	-2.637029e+00
1.188605e+01	-2.659781e+00
1.195470e+01	-2.682730e+00
1.202375e+01	-2.705949e+00
1.209320e+01	-2.729175e+00
1.216305e+01	-2.752456e+00
1.223330e+01	-2.776024e+00
1.230396e+01	-2.799865e+00
1.237503e+01	-2.823640e+00
1.244651e+01	-2.847590e+00
1.251840e+01	-2.871883e+00
1.259070e+01	-2.896140e+00
1.266343e+01	-2.920363e+00
1.273657e+01	-2.945109e+00
1.281014e+01	-2.969527e+00
1.288413e+01	-2.994361e+00
1.295855e+01	-3.019549e+00
1.303339e+01	-3.044556e+00
1.310867e+01	-3.070106e+00
1.318439e+01	-3.095387e+00
1.326054e+01	-3.120887e+00
1.333713e+01	-3.146689e+00
1.341417e+01	-3.172705e+00
1.349165e+01	-3.198648e+00
1.356958e+01	-3.224869e+00
1.364795e+01	-3.250781e+00
1.372678e+01	-3.277455e+00
1.380607e+01	-3.303929e+00
1.388581e+01	-3.330748e+00
1.396602e+01	-3.357484e+00
1.404668e+01	-3.384496e+00
1.412782e+01	-3.411569e+00
1.420942e+01	-3.438916e+00
1.429149e+01	-3.466456e+00
1.437404e+01	-3.494278e+00
1.445706e+01	-3.521618e+00
1.454057e+01	-3.549717e+00
1.462455e+01	-3.577638e+00
1.470902e+01	-3.605618e+00
1.479398e+01	-3.634006e+00
1.487943e+01	-3.662296e+00
1.496537e+01	-3.691147e+00
1.505181e+01	-3.719727e+00
1.513875e+01	-3.748800e+00
1.522619e+01	-3.777706e+00
1.531414e+01	-3.806786e+00
1.540259e+01	-3.835974e+00
1.549156e+01	-3.865442e+00
1.558103e+01	-3.894828e+00
1.567103e+01	-3.924434e+00
1.576155e+01	-3.954570e+00
1.585258e+01	-3.984413e+00
1.594415e+01	-4.014747e+00
1.603624e+01	-4.045170e+00
1.612886e+01	-4.075137e+00
1.622202e+01	-4.105821e+00
1.631572e+01	-4.136272e+00
1.640996e+01	-4.167286e+00
1.650474e+01	-4.198502e+00
1.660008e+01	-4.228922e+00
1.669596e+01	-4.260064e+00
1.679239e+01	-4.291697e+00
1.688938e+01	-4.323175e+00
1.698694e+01	-4.354908e+00
1.708505e+01	-4.386564e+00
1.718373e+01	-4.418294e+00
1.728299e+01	-4.450459e+00
1.738281e+01	-4.482329e+00
1.748322e+01	-4.514883e+00
1.758420e+01	-4.547164e+00
1.768576e+01	-4.579808e+00
1.778792e+01	-4.612444e+00
1.789066e+01	-4.645086e+00
1.799399e+01	-4.678015e+00
1.809793e+01	-4.711022e+00
1.820246e+01	-4.744293e+00
1.830760e+01	-4.777767e+00
1.841334e+01	-4.810927e+00
1.851969e+01	-4.844498e+00
1.862666e+01	-4.878442e+00
1.873425e+01	-4.912320e+00
1.884246e+01	-4.945971e+00
1.895129e+01	-4.980176e+00
1.906075e+01	-5.014318e+00
1.917085e+01	-5.048565e+00
1.928158e+01	-5.083234e+00
1.939295e+01	-5.117829e+00
1.950496e+01	-5.152264e+00
1.961762e+01	-5.187337e+00
1.973093e+01	-5.222181e+00
1.984490e+01	-5.257257e+00
1.995952e+01	-5.292434e+00
2.007480e+01	-5.327653e+00
2.019076e+01	-5.362989e+00
2.030738e+01	-5.398622e+00
2.042467e+01	-5.434217e+00
2.054264e+01	-5.470263e+00
2.066130e+01	-5.505814e+00
2.078064e+01	-5.542042e+00
2.090066e+01	-5.577916e+00
2.102139e+01	-5.614048e+00
2.114280e+01	-5.650426e+00
2.126492e+01	-5.687073e+00
2.138775e+01	-5.723592e+00
2.151128e+01	-5.760191e+00
2.163553e+01	-5.797049e+00
2.176050e+01	-5.833971e+00
2.188619e+01	-5.870971e+00
2.201260e+01	-5.908371e+00
2.213974e+01	-5.945489e+00
2.226762e+01	-5.982981e+00
2.239624e+01	-6.020304e+00
2.252560e+01	-6.058260e+00
2.265571e+01	-6.095573e+00
2.278656e+01	-6.133224e+00
2.291818e+01	-6.171118e+00
2.305055e+01	-6.209080e+00
2.318369e+01	-6.247517e+00
2.331760e+01	-6.285148e+00
2.345228e+01	-6.324103e+00
2.358774e+01	-6.362321e+00
2.372398e+01	-6.400924e+00
2.386101e+01	-6.439465e+00
2.399883e+01	-6.478079e+00
2.413745e+01	-6.516998e+00
2.427686e+01	-6.555815e+00
2.441709e+01	-6.594779e+00
2.455812e+01	-6.633906e+00
2.469997e+01	-6.673212e+00
2.484263e+01	-6.712576e+00
2.498612e+01	-6.752121e+00
2.513044e+01	-6.791292e+00
2.527559e+01	-6.830980e+00
2.542158e+01	-6.870482e+00
2.556842e+01	-6.910516e+00
2.571610e+01	-6.950533e+00
2.586463e+01	-6.990681e+00
2.601403e+01	-7.030611e+00
2.616428e+01	-7.070643e+00
2.631541e+01	-7.110704e+00
2.646740e+01	-7.151002e+00
2.662028e+01	-7.191693e+00
2.677404e+01	-7.232103e+00
2.692868e+01	-7.273040e+00
2.708422e+01	-7.313761e+00
2.724066e+01	-7.354373e+00
2.739800e+01	-7.395234e+00
2.755625e+01	-7.436016e+00
2.771541e+01	-7.477167e+00
2.787550e+01	-7.518457e+00
2.803650e+01	-7.559601e+00
2.819844e+01	-7.600713e+00
2.836131e+01	-7.642064e+00
2.852513e+01	-7.683720e+00
2.868989e+01	-7.725369e+00
2.885560e+01	-7.766887e+00
2.902227e+01	-7.808639e+00
2.918990e+01	-7.850046e+00
2.935850e+01	-7.891654e+00
2.952807e+01	-7.934257e+00
2.969863e+01	-7.975748e+00
2.987016e+01	-8.018507e+00
3.004269e+01	-8.060155e+00
3.021622e+01	-8.102420e+00
3.039075e+01	-8.144539e+00
3.056628e+01	-8.187246e+00
3.074283e+01	-8.229412e+00
3.092040e+01	-8.272330e+00
3.109900e+01	-8.314927e+00
3.127862e+01	-8.357500e+00
3.145929e+01	-8.400238e+00
3.164099e+01	-8.443398e+00
3.182375e+01	-8.485996e+00
3.200756e+01	-8.529178e+00
3.219244e+01	-8.572353e+00
3.237838e+01	-8.614896e+00
3.256540e+01	-8.658059e+00
3.275349e+01	-8.701543e+00
3.294268e+01	-8.744953e+00
3.313295e+01	-8.788269e+00
3.332433e+01	-8.831768e+00
3.351681e+01	-8.874885e+00
3.371040e+01	-8.919138e+00
3.390511e+01	-8.962198e+00
3.410094e+01	-9.006058e+00
3.429791e+01	-9.049659e+00
3.449601e+01	-9.094076e+00
3.469526e+01	-9.137293e+00
3.489566e+01	-9.181757e+00
3.509721e+01	-9.225878e+00
3.529993e+01	-9.269741e+00
3.550382e+01	-9.314181e+00
3.570889e+01	-9.357859e+00
3.591515e+01	-9.401876e+00
3.612259e+01	-9.446554e+00
3.633123e+01	-9.490717e+00
3.654108e+01	-9.535438e+00
3.675214e+01	-9.579633e+00
3.696442e+01	-9.624322e+00
3.717792e+01	-9.669306e+00
3.739266e+01	-9.713570e+00
3.760864e+01	-9.758415e+00
3.782587e+01	-9.802671e+00
3.804435e+01	-9.847941e+00
3.826409e+01	-9.893070e+00
3.848510e+01	-9.938310e+00
3.870739e+01	-9.983288e+00
3.893096e+01	-1.002820e+01
3.915583e+01	-1.007290e+01
3.938199e+01	-1.011785e+01
3.960946e+01	-1.016331e+01
3.983824e+01	-1.020831e+01
4.006834e+01	-1.025405e+01
4.029978e+01	-1.029886e+01
4.053255e+01	-1.034452e+01
4.076666e+01	-1.038987e+01
4.100213e+01	-1.043530e+01
4.123896e+01	-1.048062e+01
4.147715e+01	-1.052691e+01
4.171672e+01	-1.057200e+01
4.195767e+01	-1.061751e+01
4.220002e+01	-1.066345e+01
4.244377e+01	-1.070950e+01
4.268892e+01	-1.075513e+01
4.293549e+01	-1.080049e+01
4.318348e+01	-1.084680e+01
4.343291e+01	-1.089280e+01
4.368377e+01	-1.093869e+01
4.393609e+01	-1.098504e+01
4.418986e+01	-1.103108e+01
4.444510e+01	-1.107720e+01
4.470182e+01	-1.112253e+01
4.496001e+01	-1.116888e+01
4.521970e+01	-1.121532e+01
4.548089e+01	-1.126197e+01
4.574358e+01	-1.130734e+01
4.600779e+01	-1.135421e+01
4.627353e+01	-1.140041e+01
4.654081e+01	-1.144710e+01
4.680963e+01	-1.149368e+01
4.708000e+01	-1.154049e+01
4.735193e+01	-1.158712e+01
4.762543e+01	-1.163371e+01
4.790051e+01	-1.167951e+01
4.817719e+01	-1.172579e+01
4.845545e+01	-1.177249e+01
4.873533e+01	-1.181998e+01
4.901682e+01	-1.186683e+01
4.929994e+01	-1.191331e+01
4.958470e+01	-1.196080e+01
4.987110e+01	-1.200679e+01
5.015915e+01	-1.205352e+01
5.044887e+01	-1.210129e+01
5.074026e+01	-1.214817e+01
5.103333e+01	-1.219439e+01
5.132810e+01	-1.224238e+01
5.162457e+01	-1.228851e+01
5.192275e+01	-1.233596e+01
5.222265e+01	-1.238320e+01
5.252429e+01	-1.243031e+01
5.282767e+01	-1.247711e+01
5.313280e+01	-1.252460e+01
5.343969e+01	-1.257156e+01
5.374836e+01	-1.261929e+01
5.405880e+01	-1.266685e+01
5.437105e+01	-1.271407e+01
5.468509e+01	-1.276084e+01
5.500095e+01	-1.280868e+01
5.531863e+01	-1.285573e+01
5.563815e+01	-1.290365e+01
5.595951e+01	-1.295042e+01
5.628273e+01	-1.299801e+01
5.660782e+01	-1.304540e+01
5.693479e+01	-1.309373e+01
5.726364e+01	-1.314131e+01
5.759439e+01	-1.318877e+01
5.792705e+01	-1.323671e+01
5.826164e+01	-1.328352e+01
5.859815e+01	-1.333137e+01
5.893662e+01	-1.337864e+01
5.927703e+01	-1.342675e+01
5.961941e+01	-1.347477e+01
5.996377e+01	-1.352285e+01
6.031012e+01	-1.357074e+01
6.065847e+01	-1.361809e+01
6.100883e+01	-1.366576e+01
6.136121e+01	-1.371456e+01
6.171563e+01	-1.376254e+01
6.207210e+01	-1.380924e+01
6.243063e+01	-1.385761e+01
6.279122e+01	-1.390587e+01
6.315390e+01	-1.395392e+01
6.351868e+01	-1.400150e+01
6.388556e+01	-1.405007e+01
6.425456e+01	-1.409834e+01
6.462569e+01	-1.414651e+01
6.499897e+01	-1.419422e+01
6.537440e+01	-1.424260e+01
6.575200e+01	-1.429054e+01
6.613178e+01	-1.433887e+01
6.651375e+01	-1.438737e+01
6.689793e+01	-1.443495e+01
6.728433e+01	-1.448310e+01
6.767297e+01	-1.453182e+01
6.806384e+01	-1.457951e+01
6.845698e+01	-1.462782e+01
6.885238e+01	-1.467565e+01
6.925007e+01	-1.472435e+01
6.965005e+01	-1.477315e+01
7.005235e+01	-1.482089e+01
7.045697e+01	-1.487011e+01
7.086393e+01	-1.491813e+01
7.127323e+01	-1.496720e+01
7.168490e+01	-1.501571e+01
7.209895e+01	-1.506395e+01
7.251539e+01	-1.511095e+01
7.293424e+01	-1.515968e+01
7.335551e+01	-1.520942e+01
7.377920e+01	-1.525748e+01
7.420535e+01	-1.530590e+01
7.463396e+01	-1.535545e+01
7.506504e+01	-1.540408e+01
7.549861e+01	-1.545280e+01
7.593469e+01	-1.550050e+01
7.637328e+01	-1.554917e+01
7.681441e+01	-1.559774e+01
7.725809e+01	-1.564690e+01
7.770433e+01	-1.569559e+01
7.815315e+01	-1.574415e+01
7.860456e+01	-1.579257e+01
7.905857e+01	-1.584157e+01
7.951521e+01	-1.589039e+01
7.997449e+01	-1.593903e+01
8.043642e+01	-1.598696e+01
8.090102e+01	-1.603647e+01
8.136830e+01	-1.608547e+01
8.183828e+01	-1.613274e+01
8.231097e+01	-1.618305e+01
8.278640e+01	-1.623191e+01
8.326457e+01	-1.628044e+01
8.374550e+01	-1.632969e+01
8.422921e+01	-1.637769e+01
8.471572e+01	-1.642723e+01
8.520503e+01	-1.647571e+01
8.569717e+01	-1.652423e+01
8.619215e+01	-1.657373e+01
8.669000e+01	-1.662274e+01
8.719071e+01	-1.667144e+01
8.769432e+01	-1.672169e+01
8.820084e+01	-1.677017e+01
8.871029e+01	-1.681899e+01
8.922267e+01	-1.686679e+01
8.973802e+01	-1.691727e+01
9.025634e+01	-1.696545e+01
9.077766e+01	-1.701490e+01
9.130199e+01	-1.706355e+01
9.182935e+01	-1.711188e+01
9.235975e+01	-1.716274e+01
9.289321e+01	-1.721113e+01
9.342976e+01	-1.725973e+01
9.396941e+01	-1.730944e+01
9.451217e+01	-1.735841e+01
9.505807e+01	-1.740671e+01
9.560712e+01	-1.745616e+01
9.615934e+01	-1.750532e+01
9.671476e+01	-1.755578e+01
9.727338e+01	-1.760382e+01
9.783522e+01	-1.765309e+01
9.840032e+01	-1.770079e+01
9.896867e+01	-1.775158e+01
9.954031e+01	-1.779974e+01
1.001153e+02	-1.784877e+01
1.006935e+02	-1.789905e+01
1.012751e+02	-1.794983e+01
1.018601e+02	-1.799736e+01
1.024484e+02	-1.804734e+01
1.030402e+02	-1.809663e+01
1.036353e+02	-1.814487e+01
1.042339e+02	-1.819429e+01
1.048360e+02	-1.824479e+01
1.054415e+02	-1.829364e+01
1.060505e+02	-1.834256e+01
1.066631e+02	-1.839243e+01
1.072791e+02	-1.844149e+01
1.078988e+02	-1.849021e+01
1.085220e+02	-1.854070e+01
1.091488e+02	-1.858758e+01
1.097793e+02	-1.863800e+01
1.104133e+02	-1.868831e+01
1.110511e+02	-1.873722e+01
1.116925e+02	-1.878701e+01
1.123376e+02	-1.883632e+01
1.129865e+02	-1.888520e+01
1.136391e+02	-1.893397e+01
1.142955e+02	-1.898554e+01
1.149556e+02	-1.903351e+01
1.156196e+02	-1.908266e+01
1.162874e+02	-1.913161e+01
1.169591e+02	-1.918074e+01
1.176347e+02	-1.923045e+01
1.183141e+02	-1.928003e+01
1.189975e+02	-1.933045e+01
1.196848e+02	-1.937829e+01
1.203761e+02	-1.942932e+01
1.210714e+02	-1.947758e+01
1.217707e+02	-1.952767e+01
1.224740e+02	-1.957659e+01
1.231814e+02	-1.962580e+01
1.238929e+02	-1.967624e+01
1.246085e+02	-1.972492e+01
1.253283e+02	-1.977578e+01
1.260522e+02	-1.982328e+01
1.267802e+02	-1.987387e+01
1.275125e+02	-1.992436e+01
1.282490e+02	-1.997442e+01
1.289898e+02	-2.002281e+01
1.297348e+02	-2.007208e+01
1.304842e+02	-2.012266e+01
1.312378e+02	-2.017233e+01
1.319959e+02	-2.022252e+01
1.327583e+02	-2.027179e+01
1.335251e+02	-2.031946e+01
1.342963e+02	-2.036937e+01
1.350720e+02	-2.041781e+01
1.358522e+02	-2.047052e+01
1.366368e+02	-2.051911e+01
1.374260e+02	-2.056923e+01
1.382198e+02	-2.061785e+01
1.390182e+02	-2.066780e+01
1.398211e+02	-2.071655e+01
1.406287e+02	-2.076563e+01
1.414410e+02	-2.081709e+01
1.422579e+02	-2.086598e+01
1.430796e+02	-2.091545e+01
1.439060e+02	-2.096409e+01
1.447372e+02	-2.101501e+01
1.455732e+02	-2.106621e+01
1.464141e+02	-2.111343e+01
1.472597e+02	-2.116223e+01
1.481103e+02	-2.121463e+01
1.489658e+02	-2.126404e+01
1.498262e+02	-2.131258e+01
1.506916e+02	-2.136279e+01
1.515620e+02	-2.141183e+01
1.524374e+02	-2.146183e+01
1.533179e+02	-2.151195e+01
1.542034e+02	-2.156224e+01
1.550941e+02	-2.161157e+01
1.559899e+02	-2.166093e+01
1.568909e+02	-2.170977e+01
1.577971e+02	-2.175911e+01
1.587085e+02	-2.180741e+01
1.596252e+02	-2.186038e+01
1.605472e+02	-2.190841e+01
1.614745e+02	-2.195947e+01
1.624072e+02	-2.201047e+01
1.633453e+02	-2.205670e+01
1.642887e+02	-2.211017e+01
1.652377e+02	-2.215825e+01
1.661921e+02	-2.220665e+01
1.671520e+02	-2.225614e+01
1.681175e+02	-2.230649e+01
1.690885e+02	-2.235509e+01
1.700651e+02	-2.240670e+01
1.710474e+02	-2.245722e+01
1.720354e+02	-2.250587e+01
1.730291e+02	-2.255862e+01
1.740285e+02	-2.260616e+01
1.750337e+02	-2.265602e+01
1.760446e+02	-2.270532e+01
1.770615e+02	-2.275543e+01
1.780842e+02	-2.280475e+01
1.791128e+02	-2.285336e+01
1.801473e+02	-2.290304e+01
1.811878e+02	-2.295414e+01
1.822344e+02	-2.300351e+01
1.832870e+02	-2.305543e+01
1.843456e+02	-2.310155e+01
1.854104e+02	-2.315138e+01
1.864813e+02	-2.320370e+01
1.875584e+02	-2.325123e+01
1.886418e+02	-2.330350e+01
1.897313e+02	-2.335112e+01
1.908272e+02	-2.340252e+01
1.919294e+02	-2.345109e+01
1.930380e+02	-2.350186e+01
1.941530e+02	-2.355243e+01
1.952744e+02	-2.360158e+01
1.964023e+02	-2.365312e+01
1.975367e+02	-2.370140e+01
1.986777e+02	-2.375147e+01
1.998252e+02	-2.380469e+01
2.009794e+02	-2.384986e+01
2.021403e+02	-2.389879e+01
2.033078e+02	-2.395178e+01
2.044821e+02	-2.400165e+01
2.056632e+02	-2.404900e+01
2.068511e+02	-2.410083e+01
2.080459e+02	-2.415022e+01
2.092475e+02	-2.419917e+01
2.104561e+02	-2.424925e+01
2.116717e+02	-2.429875e+01
2.128943e+02	-2.434945e+01
2.141240e+02	-2.439801e+01
2.153608e+02	-2.444756e+01
2.166047e+02	-2.449870e+01
2.178558e+02	-2.454782e+01
2.191141e+02	-2.459927e+01
2.203797e+02	-2.465056e+01
2.216526e+02	-2.470045e+01
2.229329e+02	-2.474908e+01
2.242205e+02	-2.479804e+01
2.255156e+02	-2.484669e+01
2.268182e+02	-2.490005e+01
2.281283e+02	-2.494721e+01
2.294459e+02	-2.499714e+01
2.307712e+02	-2.504849e+01
2.321041e+02	-2.509667e+01
2.334447e+02	-2.514618e+01
2.347931e+02	-2.519731e+01
2.361493e+02	-2.524778e+01
2.375133e+02	-2.529779e+01
2.388851e+02	-2.534741e+01
2.402649e+02	-2.539689e+01
2.416527e+02	-2.544640e+01
2.430484e+02	-2.549760e+01
2.444523e+02	-2.554446e+01
2.458642e+02	-2.559598e+01
2.472843e+02	-2.565007e+01
2.487126e+02	-2.569678e+01
2.501492e+02	-2.574909e+01
2.515940e+02	-2.580128e+01
2.530472e+02	-2.584551e+01
2.545088e+02	-2.589862e+01
2.559789e+02	-2.594755e+01
2.574574e+02	-2.599650e+01
2.589444e+02	-2.604581e+01
2.604401e+02	-2.609666e+01
2.619444e+02	-2.614584e+01
2.634574e+02	-2.619674e+01
2.649791e+02	-2.624739e+01
2.665096e+02	-2.629606e+01
2.680489e+02	-2.634653e+01
2.695972e+02	-2.639661e+01
2.711544e+02	-2.644737e+01
2.727205e+02	-2.649946e+01
2.742958e+02	-2.654783e+01
2.758801e+02	-2.659731e+01
2.774736e+02	-2.664316e+01
2.790762e+02	-2.669635e+01
2.806882e+02	-2.674646e+01
2.823094e+02	-2.679202e+01
2.839400e+02	-2.684494e+01
2.855800e+02	-2.689735e+01
2.872295e+02	-2.694517e+01
2.888886e+02	-2.699335e+01
2.905572e+02	-2.704880e+01
2.922354e+02	-2.709809e+01
2.939234e+02	-2.714449e+01
2.956211e+02	-2.719230e+01
2.973286e+02	-2.724824e+01
2.990459e+02	-2.729549e+01
3.007732e+02	-2.734438e+01
3.025104e+02	-2.739570e+01
3.042577e+02	-2.744724e+01
3.060151e+02	-2.749668e+01
3.077826e+02	-2.754639e+01
3.095604e+02	-2.759584e+01
3.113484e+02	-2.764919e+01
3.131467e+02	-2.769526e+01
3.149554e+02	-2.774624e+01
3.167746e+02	-2.779432e+01
3.186043e+02	-2.784308e+01
3.204445e+02	-2.789530e+01
3.222954e+02	-2.794907e+01
3.241570e+02	-2.799681e+01
3.260293e+02	-2.804637e+01
3.279124e+02	-2.809361e+01
3.298064e+02	-2.814751e+01
3.317114e+02	-2.820063e+01
3.336273e+02	-2.825062e+01
3.355544e+02	-2.829662e+01
3.374925e+02	-2.834811e+01
3.394418e+02	-2.840042e+01
3.414024e+02	-2.844318e+01
3.433744e+02	-2.849847e+01
3.453577e+02	-2.854111e+01
3.473525e+02	-2.859733e+01
3.493588e+02	-2.864949e+01
3.513766e+02	-2.869685e+01
3.534062e+02	-2.874932e+01
3.554474e+02	-2.879800e+01
3.575005e+02	-2.884943e+01
3.595654e+02	-2.889599e+01
3.616422e+02	-2.894754e+01
3.637311e+02	-2.900104e+01
3.658320e+02	-2.904808e+01
3.679450e+02	-2.909495e+01
3.700702e+02	-2.915138e+01
3.722077e+02	-2.920184e+01
3.743576e+02	-2.924571e+01
3.765199e+02	-2.929640e+01
3.786946e+02	-2.934985e+01
3.808820e+02	-2.939934e+01
3.830819e+02	-2.945018e+01
3.852946e+02	-2.950102e+01
3.875200e+02	-2.955199e+01
3.897583e+02	-2.959952e+01
3.920096e+02	-2.965074e+01
3.942738e+02	-2.969375e+01
3.965511e+02	-2.975037e+01
3.988416e+02	-2.979845e+01
4.011452e+02	-2.984833e+01
4.034622e+02	-2.990036e+01
4.057926e+02	-2.995154e+01
4.081365e+02	-3.000119e+01
4.104938e+02	-3.004999e+01
4.128648e+02	-3.009636e+01
4.152495e+02	-3.015342e+01
4.176480e+02	-3.020010e+01
4.200603e+02	-3.024964e+01
4.224866e+02	-3.030152e+01
4.249268e+02	-3.034470e+01
4.273812e+02	-3.039762e+01
4.298497e+02	-3.045434e+01
4.323325e+02	-3.050245e+01
4.348297e+02	-3.055349e+01
4.373412e+02	-3.060974e+01
4.398673e+02	-3.064793e+01
4.424079e+02	-3.070210e+01
4.449633e+02	-3.074557e+01
4.475334e+02	-3.080169e+01
4.501183e+02	-3.085019e+01
4.527182e+02	-3.090090e+01
4.553330e+02	-3.094547e+01
4.579630e+02	-3.099933e+01
4.606082e+02	-3.104842e+01
4.632687e+02	-3.109783e+01
4.659445e+02	-3.114862e+01
4.686358e+02	-3.120896e+01
4.713426e+02	-3.124942e+01
4.740650e+02	-3.130133e+01
4.768032e+02	-3.135468e+01
4.795572e+02	-3.140911e+01
4.823271e+02	-3.145500e+01
4.851130e+02	-3.150381e+01
4.879150e+02	-3.155454e+01
4.907332e+02	-3.160759e+01
4.935676e+02	-3.165729e+01
4.964185e+02	-3.170822e+01
4.992858e+02	-3.175939e+01
5.021696e+02	-3.179720e+01
5.050701e+02	-3.185722e+01
5.079874e+02	-3.190072e+01
5.109215e+02	-3.195940e+01
5.138726e+02	-3.200314e+01
5.168407e+02	-3.205562e+01
5.198259e+02	-3.210106e+01
5.228284e+02	-3.216267e+01
5.258482e+02	-3.220328e+01
5.288855e+02	-3.225897e+01
5.319403e+02	-3.230910e+01
5.350128e+02	-3.235163e+01
5.381030e+02	-3.240330e+01
5.412111e+02	-3.246107e+01
5.443371e+02	-3.250723e+01
5.474812e+02	-3.255716e+01
5.506434e+02	-3.260559e+01
5.538239e+02	-3.265422e+01
5.570228e+02	-3.270734e+01
5.602401e+02	-3.276325e+01
5.634760e+02	-3.280979e+01
5.667306e+02	-3.285640e+01
5.700040e+02	-3.291045e+01
5.732964e+02	-3.296674e+01
5.766077e+02	-3.301218e+01
5.799382e+02	-3.306469e+01
5.832879e+02	-3.311247e+01
5.866569e+02	-3.316406e+01
5.900454e+02	-3.320636e+01
5.934535e+02	-3.325520e+01
5.968813e+02	-3.330664e+01
6.003288e+02	-3.336777e+01
6.037963e+02	-3.340732e+01
6.072838e+02	-3.346507e+01
6.107914e+02	-3.351455e+01
6.143194e+02	-3.356628e+01
6.178676e+02	-3.361064e+01
6.214364e+02	-3.366238e+01
6.250258e+02	-3.371362e+01
6.286359e+02	-3.376297e+01
6.322669e+02	-3.381819e+01
6.359189e+02	-3.386331e+01
6.395919e+02	-3.391937e+01
6.432862e+02	-3.396090e+01
6.470017e+02	-3.401711e+01
6.507388e+02	-3.406898e+01
6.544974e+02	-3.412269e+01
6.582778e+02	-3.417712e+01
6.620800e+02	-3.421912e+01
6.659041e+02	-3.427423e+01
6.697504e+02	-3.431738e+01
6.736188e+02	-3.436833e+01
6.775096e+02	-3.442526e+01
6.814229e+02	-3.446632e+01
6.853587e+02	-3.452375e+01
6.893173e+02	-3.457236e+01
6.932988e+02	-3.462129e+01
6.973033e+02	-3.466862e+01
7.013309e+02	-3.471647e+01
