Frequency(Hz)	Magnitude(dB)
1.000000e+01	-2.026373e+00
1.005776e+01	-2.045099e+00
1.011585e+01	-2.063982e+00
1.017428e+01	-2.082878e+00
1.023305e+01	-2.102075e+00
1.029215e+01	-2.121000e+00
1.035160e+01	-2.140764e+00
1.041139e+01	-2.160326e+00
1.047153e+01	-2.179882e+00
1.053201e+01	-2.199617e+00
1.059284e+01	-2.219604e+00
1.065403e+01	-2.239810e+00
1.071556e+01	-2.260057e+00
1.077746e+01	-2.280205e+00
1.083971e+01	-2.300518e+00
1.090232e+01	-2.321395e+00
1.096529e+01	-2.342077e+00
1.102862e+01	-2.363335e+00
1.109232e+01	-2.384024e+00
1.115639e+01	-2.405413e+00
1.122083e+01	-2.426535e+00
1.128564e+01	-2.448366e+00
1.135083e+01	-2.470119e+00
1.141639e+01	-2.491765e+00
1.148233e+01	-2.513551e+00
1.154865e+01	-2.535447e+00
1.161536e+01	-2.557849e+00
1.168245e+01	-2.580242e+00
1.174992e+01	-2.602656e+00
1.181779e+01	-2.625138e+00
1.188605e+01	-2.648024e+00
1.195470e+01	-2.670715e+00
1.202375e+01	-2.693785e+00
1.209320e+01	-2.717170e+00
1.216305e+01	-2.740410e+00
1.223330e+01	-2.764214e+00
1.230396e+01	-2.787530e+00
1.237503e+01	-2.811485e+00
1.244651e+01	-2.835162e+00
1.251840e+01	-2.859290e+00
1.259070e+01	-2.883523e+00
1.266343e+01	-2.907855e+00
1.273657e+01	-2.932534e+00
1.281014e+01	-2.956969e+00
1.288413e+01	-2.981990e+00
1.295855e+01	-3.006699e+00
1.303339e+01	-3.031824e+00
1.310867e+01	-3.057016e+00
1.318439e+01	-3.082176e+00
1.326054e+01	-3.107944e+00
1.333713e+01	-3.133540e+00
1.341417e+01	-3.159243e+00
1.349165e+01	-3.185130e+00
1.356958e+01	-3.211341e+00
1.364795e+01	-3.237560e+00
1.372678e+01	-3.263712e+00
1.380607e+01	-3.290365e+00
1.388581e+01	-3.317134e+00
1.396602e+01	-3.343829e+00
1.404668e+01	-3.370630e+00
1.412782e+01	-3.397649e+00
1.420942e+01	-3.424931e+00
1.429149e+01	-3.452480e+00
1.437404e+01	-3.479941e+00
1.445706e+01	-3.507399e+00
1.454057e+01	-3.535096e+00
1.462455e+01	-3.563174e+00
1.470902e+01	-3.591182e+00
1.479398e+01	-3.619489e+00
1.487943e+01	-3.647708e+00
1.496537e+01	-3.675990e+00
1.505181e+01	-3.705025e+00
1.513875e+01	-3.733962e+00
1.522619e+01	-3.762649e+00
1.531414e+01	-3.792030e+00
1.540259e+01	-3.820742e+00
1.549156e+01	-3.850268e+00
1.558103e+01	-3.880018e+00
1.567103e+01	-3.909351e+00
1.576155e+01	-3.939102e+00
1.585258e+01	-3.969135e+00
1.594415e+01	-3.999253e+00
1.603624e+01	-4.029111e+00
1.612886e+01	-4.059479e+00
1.622202e+01	-4.089882e+00
1.631572e+01	-4.120692e+00
1.640996e+01	-4.151391e+00
1.650474e+01	-4.182242e+00
1.660008e+01	-4.213123e+00
1.669596e+01	-4.244223e+00
1.679239e+01	-4.275606e+00
1.688938e+01	-4.306954e+00
1.698694e+01	-4.338672e+00
1.708505e+01	-4.370427e+00
1.718373e+01	-4.401962e+00
1.728299e+01	-4.433620e+00
1.738281e+01	-4.465763e+00
1.748322e+01	-4.498331e+00
1.758420e+01	-4.530719e+00
1.768576e+01	-4.563231e+00
1.778792e+01	-4.595298e+00
1.789066e+01	-4.628363e+00
1.799399e+01	-4.661423e+00
1.809793e+01	-4.694176e+00
1.820246e+01	-4.727444e+00
1.830760e+01	-4.760482e+00
1.841334e+01	-4.793881e+00
1.851969e+01	-4.827426e+00
1.862666e+01	-4.861251e+00
1.873425e+01	-4.894903e+00
1.884246e+01	-4.928482e+00
1.895129e+01	-4.962603e+00
1.906075e+01	-4.996746e+00
1.917085e+01	-5.031154e+00
1.928158e+01	-5.065586e+00
1.939295e+01	-5.100113e+00
1.950496e+01	-5.134695e+00
1.961762e+01	-5.169220e+00
1.973093e+01	-5.204343e+00
1.984490e+01	-5.239159e+00
1.995952e+01	-5.274435e+00
2.007480e+01	-5.309555e+00
2.019076e+01	-5.345028e+00
2.030738e+01	-5.380409e+00
2.042467e+01	-5.416181e+00
2.054264e+01	-5.451615e+00
2.066130e+01	-5.487482e+00
2.078064e+01	-5.523486e+00
2.090066e+01	-5.559566e+00
2.102139e+01	-5.596058e+00
2.114280e+01	-5.631931e+00
2.126492e+01	-5.668370e+00
2.138775e+01	-5.704977e+00
2.151128e+01	-5.741670e+00
2.163553e+01	-5.778415e+00
2.176050e+01	-5.814913e+00
2.188619e+01	-5.852158e+00
2.201260e+01	-5.889427e+00
2.213974e+01	-5.926485e+00
2.226762e+01	-5.963508e+00
2.239624e+01	-6.001185e+00
2.252560e+01	-6.039215e+00
2.265571e+01	-6.076117e+00
2.278656e+01	-6.114125e+00
2.291818e+01	-6.151687e+00
2.305055e+01	-6.189593e+00
2.318369e+01	-6.227636e+00
2.331760e+01	-6.265700e+00
2.345228e+01	-6.304262e+00
2.358774e+01	-6.342495e+00
2.372398e+01	-6.381104e+00
2.386101e+01	-6.419757e+00
2.399883e+01	-6.458053e+00
2.413745e+01	-6.497349e+00
2.427686e+01	-6.536248e+00
2.441709e+01	-6.574967e+00
2.455812e+01	-6.614075e+00
2.469997e+01	-6.653096e+00
2.484263e+01	-6.692483e+00
2.498612e+01	-6.731881e+00
2.513044e+01	-6.771253e+00
2.527559e+01	-6.811113e+00
2.542158e+01	-6.850220e+00
2.556842e+01	-6.889935e+00
2.571610e+01	-6.929540e+00
2.586463e+01	-6.969787e+00
2.601403e+01	-7.010029e+00
2.616428e+01	-7.050101e+00
2.631541e+01	-7.090451e+00
2.646740e+01	-7.130671e+00
2.662028e+01	-7.171241e+00
2.677404e+01	-7.211567e+00
2.692868e+01	-7.252184e+00
2.708422e+01	-7.292340e+00
2.724066e+01	-7.333301e+00
2.739800e+01	-7.374390e+00
2.755625e+01	-7.415399e+00
2.771541e+01	-7.456273e+00
2.787550e+01	-7.497226e+00
2.803650e+01	-7.538147e+00
2.819844e+01	-7.579248e+00
2.836131e+01	-7.620803e+00
2.852513e+01	-7.661982e+00
2.868989e+01	-7.704035e+00
2.885560e+01	-7.744988e+00
2.902227e+01	-7.787061e+00
2.918990e+01	-7.828889e+00
2.935850e+01	-7.870615e+00
2.952807e+01	-7.912654e+00
2.969863e+01	-7.954515e+00
2.987016e+01	-7.996618e+00
3.004269e+01	-8.038909e+00
3.021622e+01	-8.081172e+00
3.039075e+01	-8.123358e+00
3.056628e+01	-8.165565e+00
3.074283e+01	-8.207891e+00
3.092040e+01	-8.250432e+00
3.109900e+01	-8.293028e+00
3.127862e+01	-8.336312e+00
3.145929e+01	-8.378163e+00
3.164099e+01	-8.421001e+00
3.182375e+01	-8.463844e+00
3.200756e+01	-8.506931e+00
3.219244e+01	-8.550030e+00
3.237838e+01	-8.593424e+00
3.256540e+01	-8.635918e+00
3.275349e+01	-8.679016e+00
3.294268e+01	-8.722905e+00
3.313295e+01	-8.765946e+00
3.332433e+01	-8.809698e+00
3.351681e+01	-8.852987e+00
3.371040e+01	-8.896744e+00
3.390511e+01	-8.939808e+00
3.410094e+01	-8.984008e+00
3.429791e+01	-9.027929e+00
3.449601e+01	-9.071104e+00
3.469526e+01	-9.115724e+00
3.489566e+01	-9.158913e+00
3.509721e+01	-9.203124e+00
3.529993e+01	-9.247235e+00
3.550382e+01	-9.291226e+00
3.570889e+01	-9.334995e+00
3.591515e+01	-9.379741e+00
3.612259e+01	-9.423218e+00
3.633123e+01	-9.468261e+00
3.654108e+01	-9.512659e+00
3.675214e+01	-9.557154e+00
3.696442e+01	-9.601560e+00
3.717792e+01	-9.646197e+00
3.739266e+01	-9.691234e+00
3.760864e+01	-9.735637e+00
3.782587e+01	-9.780164e+00
3.804435e+01	-9.824740e+00
3.826409e+01	-9.870068e+00
3.848510e+01	-9.914834e+00
3.870739e+01	-9.959442e+00
3.893096e+01	-1.000494e+01
3.915583e+01	-1.004964e+01
3.938199e+01	-1.009467e+01
3.960946e+01	-1.013997e+01
3.983824e+01	-1.018501e+01
4.006834e+01	-1.023050e+01
4.029978e+01	-1.027586e+01
4.053255e+01	-1.032114e+01
4.076666e+01	-1.036679e+01
4.100213e+01	-1.041209e+01
4.123896e+01	-1.045785e+01
4.147715e+01	-1.050318e+01
4.171672e+01	-1.054882e+01
4.195767e+01	-1.059405e+01
4.220002e+01	-1.064014e+01
4.244377e+01	-1.068570e+01
4.268892e+01	-1.073152e+01
4.293549e+01	-1.077767e+01
4.318348e+01	-1.082348e+01
4.343291e+01	-1.086966e+01
4.368377e+01	-1.091537e+01
4.393609e+01	-1.096100e+01
4.418986e+01	-1.100711e+01
4.444510e+01	-1.105356e+01
4.470182e+01	-1.109850e+01
4.496001e+01	-1.114467e+01
4.521970e+01	-1.119178e+01
4.548089e+01	-1.123803e+01
4.574358e+01	-1.128480e+01
4.600779e+01	-1.133054e+01
4.627353e+01	-1.137698e+01
4.654081e+01	-1.142302e+01
4.680963e+01	-1.146972e+01
4.708000e+01	-1.151689e+01
4.735193e+01	-1.156245e+01
4.762543e+01	-1.160890e+01
4.790051e+01	-1.165622e+01
4.817719e+01	-1.170215e+01
4.845545e+01	-1.174907e+01
4.873533e+01	-1.179579e+01
4.901682e+01	-1.184247e+01
4.929994e+01	-1.188877e+01
4.958470e+01	-1.193604e+01
4.987110e+01	-1.198329e+01
5.015915e+01	-1.202968e+01
5.044887e+01	-1.207614e+01
5.074026e+01	-1.212370e+01
5.103333e+01	-1.217097e+01
5.132810e+01	-1.221703e+01
5.162457e+01	-1.226495e+01
5.192275e+01	-1.231187e+01
5.222265e+01	-1.235970e+01
5.252429e+01	-1.240654e+01
5.282767e+01	-1.245373e+01
5.313280e+01	-1.250085e+01
5.343969e+01	-1.254779e+01
5.374836e+01	-1.259562e+01
5.405880e+01	-1.264254e+01
5.437105e+01	-1.268907e+01
5.468509e+01	-1.273742e+01
5.500095e+01	-1.278430e+01
5.531863e+01	-1.283137e+01
5.563815e+01	-1.287907e+01
5.595951e+01	-1.292646e+01
5.628273e+01	-1.297381e+01
5.660782e+01	-1.302222e+01
5.693479e+01	-1.306898e+01
5.726364e+01	-1.311695e+01
5.759439e+01	-1.316369e+01
5.792705e+01	-1.321173e+01
5.826164e+01	-1.325918e+01
5.859815e+01	-1.330712e+01
5.893662e+01	-1.335434e+01
5.927703e+01	-1.340259e+01
5.961941e+01	-1.345015e+01
5.996377e+01	-1.349797e+01
6.031012e+01	-1.354629e+01
6.065847e+01	-1.359456e+01
6.100883e+01	-1.364205e+01
6.136121e+01	-1.368968e+01
6.171563e+01	-1.373777e+01
6.207210e+01	-1.378580e+01
6.243063e+01	-1.383377e+01
6.279122e+01	-1.388138e+01
6.315390e+01	-1.393003e+01
6.351868e+01	-1.397661e+01
6.388556e+01	-1.402471e+01
6.425456e+01	-1.407338e+01
6.462569e+01	-1.412102e+01
6.499897e+01	-1.416884e+01
6.537440e+01	-1.421732e+01
6.575200e+01	-1.426575e+01
6.613178e+01	-1.431449e+01
6.651375e+01	-1.436251e+01
6.689793e+01	-1.441003e+01
6.728433e+01	-1.445867e+01
6.767297e+01	-1.450699e+01
6.806384e+01	-1.455538e+01
6.845698e+01	-1.460383e+01
6.885238e+01	-1.465224e+01
6.925007e+01	-1.470015e+01
6.965005e+01	-1.474841e+01
7.005235e+01	-1.479658e+01
7.045697e+01	-1.484505e+01
7.086393e+01	-1.489379e+01
7.127323e+01	-1.494197e+01
7.168490e+01	-1.498986e+01
7.209895e+01	-1.503885e+01
7.251539e+01	-1.508774e+01
7.293424e+01	-1.513568e+01
7.335551e+01	-1.518469e+01
7.377920e+01	-1.523264e+01
7.420535e+01	-1.528148e+01
7.463396e+01	-1.533020e+01
7.506504e+01	-1.537851e+01
7.549861e+01	-1.542734e+01
7.593469e+01	-1.547550e+01
7.637328e+01	-1.552372e+01
7.681441e+01	-1.557223e+01
7.725809e+01	-1.562150e+01
7.770433e+01	-1.566965e+01
7.815315e+01	-1.571963e+01
7.860456e+01	-1.576736e+01
7.905857e+01	-1.581647e+01
7.951521e+01	-1.586577e+01
7.997449e+01	-1.591357e+01
8.043642e+01	-1.596175e+01
8.090102e+01	-1.601122e+01
8.136830e+01	-1.605979e+01
8.183828e+01	-1.610793e+01
8.231097e+01	-1.615777e+01
8.278640e+01	-1.620621e+01
8.326457e+01	-1.625556e+01
8.374550e+01	-1.630469e+01
8.422921e+01	-1.635356e+01
8.471572e+01	-1.640207e+01
8.520503e+01	-1.645159e+01
8.569717e+01	-1.649928e+01
8.619215e+01	-1.654919e+01
8.669000e+01	-1.659738e+01
8.719071e+01	-1.664687e+01
8.769432e+01	-1.669436e+01
8.820084e+01	-1.674463e+01
8.871029e+01	-1.679357e+01
8.922267e+01	-1.684112e+01
8.973802e+01	-1.689169e+01
9.025634e+01	-1.693923e+01
9.077766e+01	-1.698940e+01
9.130199e+01	-1.703829e+01
9.182935e+01	-1.708718e+01
9.235975e+01	-1.713657e+01
9.289321e+01	-1.718577e+01
9.342976e+01	-1.723493e+01
9.396941e+01	-1.728446e+01
9.451217e+01	-1.733263e+01
9.505807e+01	-1.738142e+01
9.560712e+01	-1.743120e+01
9.615934e+01	-1.748089e+01
9.671476e+01	-1.753088e+01
9.727338e+01	-1.758031e+01
9.783522e+01	-1.762700e+01
9.840032e+01	-1.767748e+01
9.896867e+01	-1.772551e+01
9.954031e+01	-1.777541e+01
1.001153e+02	-1.782380e+01
1.006935e+02	-1.787330e+01
1.012751e+02	-1.792305e+01
1.018601e+02	-1.797242e+01
1.024484e+02	-1.801982e+01
1.030402e+02	-1.806966e+01
1.036353e+02	-1.812036e+01
1.042339e+02	-1.816994e+01
1.048360e+02	-1.821956e+01
1.054415e+02	-1.826838e+01
1.060505e+02	-1.831738e+01
1.066631e+02	-1.836637e+01
1.072791e+02	-1.841677e+01
1.078988e+02	-1.846439e+01
1.085220e+02	-1.851429e+01
1.091488e+02	-1.856438e+01
1.097793e+02	-1.861272e+01
1.104133e+02	-1.866312e+01
1.110511e+02	-1.871249e+01
1.116925e+02	-1.876074e+01
1.123376e+02	-1.881162e+01
1.129865e+02	-1.886009e+01
1.136391e+02	-1.890948e+01
1.142955e+02	-1.895890e+01
1.149556e+02	-1.900654e+01
1.156196e+02	-1.905685e+01
1.162874e+02	-1.910596e+01
1.169591e+02	-1.915664e+01
1.176347e+02	-1.920503e+01
1.183141e+02	-1.925526e+01
1.189975e+02	-1.930460e+01
1.196848e+02	-1.935383e+01
1.203761e+02	-1.940342e+01
1.210714e+02	-1.945310e+01
1.217707e+02	-1.950208e+01
1.224740e+02	-1.955264e+01
1.231814e+02	-1.960083e+01
1.238929e+02	-1.965185e+01
1.246085e+02	-1.969949e+01
1.253283e+02	-1.975083e+01
1.260522e+02	-1.979907e+01
1.267802e+02	-1.984920e+01
1.275125e+02	-1.989872e+01
1.282490e+02	-1.994757e+01
1.289898e+02	-1.999787e+01
1.297348e+02	-2.004769e+01
1.304842e+02	-2.009687e+01
1.312378e+02	-2.014685e+01
1.319959e+02	-2.019578e+01
1.327583e+02	-2.024497e+01
1.335251e+02	-2.029439e+01
1.342963e+02	-2.034406e+01
1.350720e+02	-2.039276e+01
1.358522e+02	-2.044267e+01
1.366368e+02	-2.049312e+01
1.374260e+02	-2.054306e+01
1.382198e+02	-2.059257e+01
1.390182e+02	-2.064181e+01
1.398211e+02	-2.069090e+01
1.406287e+02	-2.074284e+01
1.414410e+02	-2.079111e+01
1.422579e+02	-2.084048e+01
1.430796e+02	-2.088976e+01
1.439060e+02	-2.093835e+01
1.447372e+02	-2.099046e+01
1.455732e+02	-2.104026e+01
1.464141e+02	-2.109036e+01
1.472597e+02	-2.113876e+01
1.481103e+02	-2.118489e+01
1.489658e+02	-2.123602e+01
1.498262e+02	-2.128788e+01
1.506916e+02	-2.133777e+01
1.515620e+02	-2.138620e+01
1.524374e+02	-2.143608e+01
1.533179e+02	-2.148681e+01
1.542034e+02	-2.153656e+01
1.550941e+02	-2.158518e+01
1.559899e+02	-2.163766e+01
1.568909e+02	-2.168238e+01
1.577971e+02	-2.173516e+01
1.587085e+02	-2.178453e+01
1.596252e+02	-2.183310e+01
1.605472e+02	-2.188391e+01
1.614745e+02	-2.193358e+01
1.624072e+02	-2.198210e+01
1.633453e+02	-2.203275e+01
1.642887e+02	-2.208270e+01
1.652377e+02	-2.213359e+01
1.661921e+02	-2.218136e+01
1.671520e+02	-2.223009e+01
1.681175e+02	-2.228050e+01
1.690885e+02	-2.233278e+01
1.700651e+02	-2.238150e+01
1.710474e+02	-2.242993e+01
1.720354e+02	-2.248003e+01
1.730291e+02	-2.253017e+01
1.740285e+02	-2.258149e+01
1.750337e+02	-2.263039e+01
1.760446e+02	-2.268123e+01
1.770615e+02	-2.273091e+01
1.780842e+02	-2.277834e+01
1.791128e+02	-2.282848e+01
1.801473e+02	-2.287890e+01
1.811878e+02	-2.293019e+01
1.822344e+02	-2.297764e+01
1.832870e+02	-2.302842e+01
1.843456e+02	-2.307596e+01
1.854104e+02	-2.312728e+01
1.864813e+02	-2.317835e+01
1.875584e+02	-2.322781e+01
1.886418e+02	-2.327651e+01
1.897313e+02	-2.332465e+01
1.908272e+02	-2.337872e+01
1.919294e+02	-2.342961e+01
1.930380e+02	-2.347550e+01
1.941530e+02	-2.352604e+01
1.952744e+02	-2.357748e+01
1.964023e+02	-2.362664e+01
1.975367e+02	-2.367361e+01
1.986777e+02	-2.372458e+01
1.998252e+02	-2.377551e+01
2.009794e+02	-2.382486e+01
2.021403e+02	-2.387631e+01
2.033078e+02	-2.392546e+01
2.044821e+02	-2.397478e+01
2.056632e+02	-2.402666e+01
2.068511e+02	-2.407523e+01
2.080459e+02	-2.412396e+01
2.092475e+02	-2.417403e+01
2.104561e+02	-2.422494e+01
2.116717e+02	-2.427718e+01
2.128943e+02	-2.432366e+01
2.141240e+02	-2.437443e+01
2.153608e+02	-2.442100e+01
2.166047e+02	-2.447604e+01
2.178558e+02	-2.452421e+01
2.191141e+02	-2.457254e+01
2.203797e+02	-2.462501e+01
2.216526e+02	-2.467296e+01
2.229329e+02	-2.472269e+01
2.242205e+02	-2.477306e+01
2.255156e+02	-2.482458e+01
2.268182e+02	-2.487165e+01
2.281283e+02	-2.492451e+01
2.294459e+02	-2.497260e+01
2.307712e+02	-2.502214e+01
2.321041e+02	-2.506994e+01
2.334447e+02	-2.512040e+01
2.347931e+02	-2.517314e+01
2.361493e+02	-2.522447e+01
2.375133e+02	-2.527094e+01
2.388851e+02	-2.532241e+01
2.402649e+02	-2.537429e+01
2.416527e+02	-2.542055e+01
2.430484e+02	-2.547080e+01
2.444523e+02	-2.552267e+01
2.458642e+02	-2.557389e+01
2.472843e+02	-2.562036e+01
2.487126e+02	-2.567274e+01
2.501492e+02	-2.572001e+01
2.515940e+02	-2.576927e+01
2.530472e+02	-2.582051e+01
2.545088e+02	-2.587341e+01
2.559789e+02	-2.592120e+01
2.574574e+02	-2.596735e+01
2.589444e+02	-2.602000e+01
2.604401e+02	-2.607041e+01
2.619444e+02	-2.611991e+01
2.634574e+02	-2.617353e+01
2.649791e+02	-2.621970e+01
2.665096e+02	-2.627065e+01
2.680489e+02	-2.631551e+01
2.695972e+02	-2.637265e+01
2.711544e+02	-2.642256e+01
2.727205e+02	-2.646985e+01
2.742958e+02	-2.651865e+01
2.758801e+02	-2.656590e+01
2.774736e+02	-2.662136e+01
2.790762e+02	-2.667155e+01
2.806882e+02	-2.671952e+01
2.823094e+02	-2.677032e+01
2.839400e+02	-2.682262e+01
2.855800e+02	-2.686880e+01
2.872295e+02	-2.691912e+01
2.888886e+02	-2.697289e+01
2.905572e+02	-2.701988e+01
2.922354e+02	-2.707041e+01
2.939234e+02	-2.711975e+01
2.956211e+02	-2.716820e+01
2.973286e+02	-2.721994e+01
2.990459e+02	-2.727098e+01
3.007732e+02	-2.732158e+01
3.025104e+02	-2.736890e+01
3.042577e+02	-2.742083e+01
3.060151e+02	-2.746761e+01
3.077826e+02	-2.751701e+01
3.095604e+02	-2.756730e+01
3.113484e+02	-2.761872e+01
3.131467e+02	-2.767035e+01
3.149554e+02	-2.772132e+01
3.167746e+02	-2.777063e+01
3.186043e+02	-2.781691e+01
3.204445e+02	-2.787030e+01
3.222954e+02	-2.792356e+01
3.241570e+02	-2.797135e+01
3.260293e+02	-2.802341e+01
3.279124e+02	-2.806820e+01
3.298064e+02	-2.811797e+01
3.317114e+02	-2.817155e+01
3.336273e+02	-2.821990e+01
3.355544e+02	-2.827445e+01
3.374925e+02	-2.832114e+01
3.394418e+02	-2.837083e+01
3.414024e+02	-2.842122e+01
3.433744e+02	-2.847009e+01
3.453577e+02	-2.852139e+01
3.473525e+02	-2.857412e+01
3.493588e+02	-2.861912e+01
3.513766e+02	-2.867102e+01
3.534062e+02	-2.872288e+01
3.554474e+02	-2.877554e+01
3.575005e+02	-2.882031e+01
3.595654e+02	-2.887024e+01
3.616422e+02	-2.892033e+01
3.637311e+02	-2.897445e+01
3.658320e+02	-2.902062e+01
3.679450e+02	-2.907203e+01
3.700702e+02	-2.912408e+01
3.722077e+02	-2.916667e+01
3.743576e+02	-2.922212e+01
3.765199e+02	-2.926838e+01
3.786946e+02	-2.932354e+01
3.808820e+02	-2.937692e+01
3.830819e+02	-2.942163e+01
3.852946e+02	-2.947387e+01
3.875200e+02	-2.952555e+01
3.897583e+02	-2.957516e+01
3.920096e+02	-2.961767e+01
3.942738e+02	-2.967014e+01
3.965511e+02	-2.971959e+01
3.988416e+02	-2.977437e+01
4.011452e+02	-2.982390e+01
4.034622e+02	-2.987124e+01
4.057926e+02	-2.992023e+01
4.081365e+02	-2.997252e+01
4.104938e+02	-3.002569e+01
4.128648e+02	-3.007110e+01
4.152495e+02	-3.012435e+01
4.176480e+02	-3.017053e+01
4.200603e+02	-3.021611e+01
4.224866e+02	-3.027807e+01
4.249268e+02	-3.032662e+01
4.273812e+02	-3.037702e+01
4.298497e+02	-3.042366e+01
4.323325e+02	-3.047594e+01
4.348297e+02	-3.052307e+01
4.373412e+02	-3.057294e+01
4.398673e+02	-3.062800e+01
4.424079e+02	-3.067568e+01
4.449633e+02	-3.072369e+01
4.475334e+02	-3.076943e+01
4.501183e+02	-3.082253e+01
4.527182e+02	-3.087934e+01
4.553330e+02	-3.093421e+01
4.579630e+02	-3.097463e+01
4.606082e+02	-3.102934e+01
4.632687e+02	-3.107672e+01
4.659445e+02	-3.112735e+01
4.686358e+02	-3.117293e+01
4.713426e+02	-3.122617e+01
4.740650e+02	-3.127297e+01
4.768032e+02	-3.132238e+01
4.795572e+02	-3.138080e+01
4.823271e+02	-3.142599e+01
4.851130e+02	-3.147810e+01
4.879150e+02	-3.152690e+01
4.907332e+02	-3.157683e+01
4.935676e+02	-3.161954e+01
4.964185e+02	-3.167170e+01
4.992858e+02	-3.172857e+01
5.021696e+02	-3.177872e+01
5.050701e+02	-3.183115e+01
5.079874e+02	-3.188033e+01
5.109215e+02	-3.193197e+01
5.138726e+02	-3.198083e+01
5.168407e+02	-3.203319e+01
5.198259e+02	-3.208004e+01
5.228284e+02	-3.213321e+01
5.258482e+02	-3.217676e+01
5.288855e+02	-3.223309e+01
5.319403e+02	-3.228884e+01
5.350128e+02	-3.233455e+01
5.381030e+02	-3.237711e+01
5.412111e+02	-3.242986e+01
5.443371e+02	-3.248066e+01
5.474812e+02	-3.253154e+01
5.506434e+02	-3.258420e+01
5.538239e+02	-3.263329e+01
5.570228e+02	-3.267936e+01
5.602401e+02	-3.273858e+01
5.634760e+02	-3.278604e+01
5.667306e+02	-3.283205e+01
5.700040e+02	-3.288736e+01
5.732964e+02	-3.293251e+01
5.766077e+02	-3.297866e+01
5.799382e+02	-3.303899e+01
5.832879e+02	-3.308255e+01
5.866569e+02	-3.313362e+01
5.900454e+02	-3.319217e+01
5.934535e+02	-3.323869e+01
5.968813e+02	-3.328780e+01
6.003288e+02	-3.333888e+01
6.037963e+02	-3.338685e+01
6.072838e+02	-3.343883e+01
6.107914e+02	-3.348653e+01
6.143194e+02	-3.353469e+01
6.178676e+02	-3.358980e+01
6.214364e+02	-3.363503e+01
6.250258e+02	-3.368832e+01
6.286359e+02	-3.374317e+01
6.322669e+02	-3.378676e+01
6.359189e+02	-3.383699e+01
6.395919e+02	-3.389139e+01
6.432862e+02	-3.393223e+01
6.470017e+02	-3.398637e+01
6.507388e+02	-3.405049e+01
6.544974e+02	-3.408997e+01
6.582778e+02	-3.413821e+01
6.620800e+02	-3.419730e+01
6.659041e+02	-3.424648e+01
6.697504e+02	-3.428825e+01
6.736188e+02	-3.434256e+01
6.775096e+02	-3.439362e+01
6.814229e+02	-3.444614e+01
6.853587e+02	-3.448793e+01
6.893173e+02	-3.454174e+01
6.932988e+02	-3.459780e+01
6.973033e+02	-3.464069e+01
7.013309e+02	-3.468749e+01
