Frequency(Hz)	Magnitude(dB)
1.000000e+01	-1.914300e+00
1.005776e+01	-1.932363e+00
1.011585e+01	-1.950428e+00
1.017428e+01	-1.968651e+00
1.023305e+01	-1.986810e+00
1.029215e+01	-2.005386e+00
1.035160e+01	-2.023946e+00
1.041139e+01	-2.042619e+00
1.047153e+01	-2.061478e+00
1.053201e+01	-2.080546e+00
1.059284e+01	-2.099533e+00
1.065403e+01	-2.118791e+00
1.071556e+01	-2.138153e+00
1.077746e+01	-2.157582e+00
1.083971e+01	-2.177148e+00
1.090232e+01	-2.197092e+00
1.096529e+01	-2.217161e+00
1.102862e+01	-2.237044e+00
1.109232e+01	-2.257275e+00
1.115639e+01	-2.277894e+00
1.122083e+01	-2.298169e+00
1.128564e+01	-2.318829e+00
1.135083e+01	-2.339548e+00
1.141639e+01	-2.360389e+00
1.148233e+01	-2.381505e+00
1.154865e+01	-2.402587e+00
1.161536e+01	-2.423909e+00
1.168245e+01	-2.445543e+00
1.174992e+01	-2.467036e+00
1.181779e+01	-2.489106e+00
1.188605e+01	-2.510605e+00
1.195470e+01	-2.532852e+00
1.202375e+01	-2.554910e+00
1.209320e+01	-2.577289e+00
1.216305e+01	-2.599740e+00
1.223330e+01	-2.622432e+00
1.230396e+01	-2.645116e+00
1.237503e+01	-2.667803e+00
1.244651e+01	-2.691034e+00
1.251840e+01	-2.714257e+00
1.259070e+01	-2.737433e+00
1.266343e+01	-2.760919e+00
1.273657e+01	-2.784528e+00
1.281014e+01	-2.808347e+00
1.288413e+01	-2.831840e+00
1.295855e+01	-2.856160e+00
1.303339e+01	-2.880575e+00
1.310867e+01	-2.904842e+00
1.318439e+01	-2.929391e+00
1.326054e+01	-2.953665e+00
1.333713e+01	-2.978399e+00
1.341417e+01	-3.003469e+00
1.349165e+01	-3.028835e+00
1.356958e+01	-3.053827e+00
1.364795e+01	-3.079080e+00
1.372678e+01	-3.104347e+00
1.380607e+01	-3.130161e+00
1.388581e+01	-3.155906e+00
1.396602e+01	-3.181896e+00
1.404668e+01	-3.207864e+00
1.412782e+01	-3.234184e+00
1.420942e+01	-3.260376e+00
1.429149e+01	-3.287256e+00
1.437404e+01	-3.313708e+00
1.445706e+01	-3.340112e+00
1.454057e+01	-3.367402e+00
1.462455e+01	-3.394129e+00
1.470902e+01	-3.421616e+00
1.479398e+01	-3.448700e+00
1.487943e+01	-3.476280e+00
1.496537e+01	-3.503885e+00
1.505181e+01	-3.531787e+00
1.513875e+01	-3.559637e+00
1.522619e+01	-3.587467e+00
1.531414e+01	-3.615614e+00
1.540259e+01	-3.644261e+00
1.549156e+01	-3.672859e+00
1.558103e+01	-3.701358e+00
1.567103e+01	-3.730169e+00
1.576155e+01	-3.758837e+00
1.585258e+01	-3.787926e+00
1.594415e+01	-3.817318e+00
1.603624e+01	-3.846711e+00
1.612886e+01	-3.875995e+00
1.622202e+01	-3.905648e+00
1.631572e+01	-3.935444e+00
1.640996e+01	-3.965076e+00
1.650474e+01	-3.995480e+00
1.660008e+01	-4.025349e+00
1.669596e+01	-4.055632e+00
1.679239e+01	-4.086383e+00
1.688938e+01	-4.116959e+00
1.698694e+01	-4.147652e+00
1.708505e+01	-4.178338e+00
1.718373e+01	-4.209079e+00
1.728299e+01	-4.240272e+00
1.738281e+01	-4.271631e+00
1.748322e+01	-4.302885e+00
1.758420e+01	-4.334819e+00
1.768576e+01	-4.366044e+00
1.778792e+01	-4.397788e+00
1.789066e+01	-4.430077e+00
1.799399e+01	-4.461855e+00
1.809793e+01	-4.493866e+00
1.820246e+01	-4.526381e+00
1.830760e+01	-4.558983e+00
1.841334e+01	-4.591471e+00
1.851969e+01	-4.624362e+00
1.862666e+01	-4.656977e+00
1.873425e+01	-4.689999e+00
1.884246e+01	-4.722821e+00
1.895129e+01	-4.756234e+00
1.906075e+01	-4.789814e+00
1.917085e+01	-4.823325e+00
1.928158e+01	-4.856773e+00
1.939295e+01	-4.890660e+00
1.950496e+01	-4.924199e+00
1.961762e+01	-4.958233e+00
1.973093e+01	-4.992544e+00
1.984490e+01	-5.026436e+00
1.995952e+01	-5.061304e+00
2.007480e+01	-5.095511e+00
2.019076e+01	-5.130124e+00
2.030738e+01	-5.165121e+00
2.042467e+01	-5.199706e+00
2.054264e+01	-5.234999e+00
2.066130e+01	-5.269693e+00
2.078064e+01	-5.304916e+00
2.090066e+01	-5.340498e+00
2.102139e+01	-5.375729e+00
2.114280e+01	-5.411128e+00
2.126492e+01	-5.446906e+00
2.138775e+01	-5.482594e+00
2.151128e+01	-5.518487e+00
2.163553e+01	-5.554732e+00
2.176050e+01	-5.590853e+00
2.188619e+01	-5.627536e+00
2.201260e+01	-5.663786e+00
2.213974e+01	-5.699951e+00
2.226762e+01	-5.736683e+00
2.239624e+01	-5.773571e+00
2.252560e+01	-5.810444e+00
2.265571e+01	-5.847313e+00
2.278656e+01	-5.884453e+00
2.291818e+01	-5.921674e+00
2.305055e+01	-5.959091e+00
2.318369e+01	-5.996327e+00
2.331760e+01	-6.033388e+00
2.345228e+01	-6.071293e+00
2.358774e+01	-6.109285e+00
2.372398e+01	-6.147025e+00
2.386101e+01	-6.184798e+00
2.399883e+01	-6.222940e+00
2.413745e+01	-6.260914e+00
2.427686e+01	-6.299210e+00
2.441709e+01	-6.337652e+00
2.455812e+01	-6.376113e+00
2.469997e+01	-6.414761e+00
2.484263e+01	-6.453406e+00
2.498612e+01	-6.492152e+00
2.513044e+01	-6.531079e+00
2.527559e+01	-6.569753e+00
2.542158e+01	-6.608563e+00
2.556842e+01	-6.648248e+00
2.571610e+01	-6.687171e+00
2.586463e+01	-6.726407e+00
2.601403e+01	-6.766596e+00
2.616428e+01	-6.805600e+00
2.631541e+01	-6.845367e+00
2.646740e+01	-6.884743e+00
2.662028e+01	-6.924879e+00
2.677404e+01	-6.964890e+00
2.692868e+01	-7.004829e+00
2.708422e+01	-7.045178e+00
2.724066e+01	-7.085132e+00
2.739800e+01	-7.125648e+00
2.755625e+01	-7.165805e+00
2.771541e+01	-7.206115e+00
2.787550e+01	-7.246578e+00
2.803650e+01	-7.287177e+00
2.819844e+01	-7.327928e+00
2.836131e+01	-7.368934e+00
2.852513e+01	-7.409744e+00
2.868989e+01	-7.451022e+00
2.885560e+01	-7.491981e+00
2.902227e+01	-7.533250e+00
2.918990e+01	-7.574077e+00
2.935850e+01	-7.615672e+00
2.952807e+01	-7.656943e+00
2.969863e+01	-7.698519e+00
2.987016e+01	-7.740104e+00
3.004269e+01	-7.781556e+00
3.021622e+01	-7.823234e+00
3.039075e+01	-7.865777e+00
3.056628e+01	-7.907123e+00
3.074283e+01	-7.949471e+00
3.092040e+01	-7.990910e+00
3.109900e+01	-8.033304e+00
3.127862e+01	-8.075442e+00
3.145929e+01	-8.117465e+00
3.164099e+01	-8.160148e+00
3.182375e+01	-8.202564e+00
3.200756e+01	-8.245018e+00
3.219244e+01	-8.287562e+00
3.237838e+01	-8.329966e+00
3.256540e+01	-8.372612e+00
3.275349e+01	-8.415506e+00
3.294268e+01	-8.458563e+00
3.313295e+01	-8.501680e+00
3.332433e+01	-8.544533e+00
3.351681e+01	-8.587476e+00
3.371040e+01	-8.630803e+00
3.390511e+01	-8.673673e+00
3.410094e+01	-8.717221e+00
3.429791e+01	-8.760404e+00
3.449601e+01	-8.803887e+00
3.469526e+01	-8.847288e+00
3.489566e+01	-8.890919e+00
3.509721e+01	-8.934436e+00
3.529993e+01	-8.978539e+00
3.550382e+01	-9.021842e+00
3.570889e+01	-9.065551e+00
3.591515e+01	-9.109784e+00
3.612259e+01	-9.153381e+00
3.633123e+01	-9.197398e+00
3.654108e+01	-9.241509e+00
3.675214e+01	-9.285509e+00
3.696442e+01	-9.329985e+00
3.717792e+01	-9.374160e+00
3.739266e+01	-9.417990e+00
3.760864e+01	-9.462513e+00
3.782587e+01	-9.506639e+00
3.804435e+01	-9.551597e+00
3.826409e+01	-9.595789e+00
3.848510e+01	-9.640426e+00
3.870739e+01	-9.685333e+00
3.893096e+01	-9.729377e+00
3.915583e+01	-9.774429e+00
3.938199e+01	-9.818373e+00
3.960946e+01	-9.864266e+00
3.983824e+01	-9.908934e+00
4.006834e+01	-9.953685e+00
4.029978e+01	-9.999361e+00
4.053255e+01	-1.004411e+01
4.076666e+01	-1.008928e+01
4.100213e+01	-1.013439e+01
4.123896e+01	-1.017985e+01
4.147715e+01	-1.022478e+01
4.171672e+01	-1.027028e+01
4.195767e+01	-1.031554e+01
4.220002e+01	-1.036079e+01
4.244377e+01	-1.040634e+01
4.268892e+01	-1.045148e+01
4.293549e+01	-1.049717e+01
4.318348e+01	-1.054332e+01
4.343291e+01	-1.058892e+01
4.368377e+01	-1.063430e+01
4.393609e+01	-1.067944e+01
4.418986e+01	-1.072541e+01
4.444510e+01	-1.077167e+01
4.470182e+01	-1.081708e+01
4.496001e+01	-1.086288e+01
4.521970e+01	-1.090943e+01
4.548089e+01	-1.095515e+01
4.574358e+01	-1.100131e+01
4.600779e+01	-1.104757e+01
4.627353e+01	-1.109354e+01
4.654081e+01	-1.113919e+01
4.680963e+01	-1.118495e+01
4.708000e+01	-1.123145e+01
4.735193e+01	-1.127813e+01
4.762543e+01	-1.132397e+01
4.790051e+01	-1.137100e+01
4.817719e+01	-1.141735e+01
4.845545e+01	-1.146391e+01
4.873533e+01	-1.151022e+01
4.901682e+01	-1.155675e+01
4.929994e+01	-1.160371e+01
4.958470e+01	-1.165008e+01
4.987110e+01	-1.169662e+01
5.015915e+01	-1.174304e+01
5.044887e+01	-1.179014e+01
5.074026e+01	-1.183649e+01
5.103333e+01	-1.188281e+01
5.132810e+01	-1.193067e+01
5.162457e+01	-1.197695e+01
5.192275e+01	-1.202383e+01
5.222265e+01	-1.207050e+01
5.252429e+01	-1.211798e+01
5.282767e+01	-1.216539e+01
5.313280e+01	-1.221152e+01
5.343969e+01	-1.225854e+01
5.374836e+01	-1.230604e+01
5.405880e+01	-1.235268e+01
5.437105e+01	-1.240063e+01
5.468509e+01	-1.244733e+01
5.500095e+01	-1.249480e+01
5.531863e+01	-1.254150e+01
5.563815e+01	-1.258840e+01
5.595951e+01	-1.263632e+01
5.628273e+01	-1.268447e+01
5.660782e+01	-1.273061e+01
5.693479e+01	-1.277849e+01
5.726364e+01	-1.282599e+01
5.759439e+01	-1.287222e+01
5.792705e+01	-1.291998e+01
5.826164e+01	-1.296850e+01
5.859815e+01	-1.301625e+01
5.893662e+01	-1.306299e+01
5.927703e+01	-1.311115e+01
5.961941e+01	-1.315837e+01
5.996377e+01	-1.320591e+01
6.031012e+01	-1.325386e+01
6.065847e+01	-1.330058e+01
6.100883e+01	-1.334863e+01
6.136121e+01	-1.339661e+01
6.171563e+01	-1.344473e+01
6.207210e+01	-1.349229e+01
6.243063e+01	-1.354015e+01
6.279122e+01	-1.358744e+01
6.315390e+01	-1.363511e+01
6.351868e+01	-1.368306e+01
6.388556e+01	-1.373105e+01
6.425456e+01	-1.377882e+01
6.462569e+01	-1.382738e+01
6.499897e+01	-1.387588e+01
6.537440e+01	-1.392274e+01
6.575200e+01	-1.397168e+01
6.613178e+01	-1.401907e+01
6.651375e+01	-1.406775e+01
6.689793e+01	-1.411564e+01
6.728433e+01	-1.416411e+01
6.767297e+01	-1.421255e+01
6.806384e+01	-1.425998e+01
6.845698e+01	-1.430851e+01
6.885238e+01	-1.435637e+01
6.925007e+01	-1.440343e+01
6.965005e+01	-1.445134e+01
7.005235e+01	-1.450022e+01
7.045697e+01	-1.454894e+01
7.086393e+01	-1.459757e+01
7.127323e+01	-1.464605e+01
7.168490e+01	-1.469354e+01
7.209895e+01	-1.474213e+01
7.251539e+01	-1.479031e+01
7.293424e+01	-1.483890e+01
7.335551e+01	-1.488758e+01
7.377920e+01	-1.493555e+01
7.420535e+01	-1.498380e+01
7.463396e+01	-1.503247e+01
7.506504e+01	-1.508038e+01
7.549861e+01	-1.512968e+01
7.593469e+01	-1.517862e+01
7.637328e+01	-1.522631e+01
7.681441e+01	-1.527582e+01
7.725809e+01	-1.532414e+01
7.770433e+01	-1.537241e+01
7.815315e+01	-1.542060e+01
7.860456e+01	-1.546891e+01
7.905857e+01	-1.551828e+01
7.951521e+01	-1.556763e+01
7.997449e+01	-1.561543e+01
8.043642e+01	-1.566426e+01
8.090102e+01	-1.571208e+01
8.136830e+01	-1.576194e+01
8.183828e+01	-1.580898e+01
8.231097e+01	-1.585908e+01
8.278640e+01	-1.590798e+01
8.326457e+01	-1.595690e+01
8.374550e+01	-1.600471e+01
8.422921e+01	-1.605406e+01
8.471572e+01	-1.610187e+01
8.520503e+01	-1.615098e+01
8.569717e+01	-1.620049e+01
8.619215e+01	-1.624931e+01
8.669000e+01	-1.629875e+01
8.719071e+01	-1.634717e+01
8.769432e+01	-1.639530e+01
8.820084e+01	-1.644545e+01
8.871029e+01	-1.649309e+01
8.922267e+01	-1.654241e+01
8.973802e+01	-1.658993e+01
9.025634e+01	-1.664149e+01
9.077766e+01	-1.668936e+01
9.130199e+01	-1.673795e+01
9.182935e+01	-1.678675e+01
9.235975e+01	-1.683625e+01
9.289321e+01	-1.688485e+01
9.342976e+01	-1.693432e+01
9.396941e+01	-1.698321e+01
9.451217e+01	-1.703220e+01
9.505807e+01	-1.708061e+01
9.560712e+01	-1.712968e+01
9.615934e+01	-1.717989e+01
9.671476e+01	-1.722917e+01
9.727338e+01	-1.727665e+01
9.783522e+01	-1.732593e+01
9.840032e+01	-1.737597e+01
9.896867e+01	-1.742423e+01
9.954031e+01	-1.747395e+01
1.001153e+02	-1.752282e+01
1.006935e+02	-1.757254e+01
1.012751e+02	-1.762184e+01
1.018601e+02	-1.767052e+01
1.024484e+02	-1.772042e+01
1.030402e+02	-1.776889e+01
1.036353e+02	-1.781759e+01
1.042339e+02	-1.786642e+01
1.048360e+02	-1.791768e+01
1.054415e+02	-1.796564e+01
1.060505e+02	-1.801582e+01
1.066631e+02	-1.806343e+01
1.072791e+02	-1.811396e+01
1.078988e+02	-1.816266e+01
1.085220e+02	-1.821204e+01
1.091488e+02	-1.826092e+01
1.097793e+02	-1.831274e+01
1.104133e+02	-1.835879e+01
1.110511e+02	-1.840810e+01
1.116925e+02	-1.845890e+01
1.123376e+02	-1.850711e+01
1.129865e+02	-1.855681e+01
1.136391e+02	-1.860736e+01
1.142955e+02	-1.865604e+01
1.149556e+02	-1.870565e+01
1.156196e+02	-1.875458e+01
1.162874e+02	-1.880358e+01
1.169591e+02	-1.885455e+01
1.176347e+02	-1.890264e+01
1.183141e+02	-1.895258e+01
1.189975e+02	-1.900233e+01
1.196848e+02	-1.905146e+01
1.203761e+02	-1.910018e+01
1.210714e+02	-1.915038e+01
1.217707e+02	-1.919921e+01
1.224740e+02	-1.924796e+01
1.231814e+02	-1.929835e+01
1.238929e+02	-1.934670e+01
1.246085e+02	-1.939684e+01
1.253283e+02	-1.944673e+01
1.260522e+02	-1.949671e+01
1.267802e+02	-1.954404e+01
1.275125e+02	-1.959468e+01
1.282490e+02	-1.964495e+01
1.289898e+02	-1.969613e+01
1.297348e+02	-1.974383e+01
1.304842e+02	-1.979239e+01
1.312378e+02	-1.984297e+01
1.319959e+02	-1.989281e+01
1.327583e+02	-1.994263e+01
1.335251e+02	-1.999087e+01
1.342963e+02	-2.004122e+01
1.350720e+02	-2.009127e+01
1.358522e+02	-2.014001e+01
1.366368e+02	-2.019013e+01
1.374260e+02	-2.023834e+01
1.382198e+02	-2.028819e+01
1.390182e+02	-2.033601e+01
1.398211e+02	-2.038808e+01
1.406287e+02	-2.043871e+01
1.414410e+02	-2.048674e+01
1.422579e+02	-2.053522e+01
1.430796e+02	-2.058602e+01
1.439060e+02	-2.063537e+01
1.447372e+02	-2.068535e+01
1.455732e+02	-2.073493e+01
1.464141e+02	-2.078364e+01
1.472597e+02	-2.083469e+01
1.481103e+02	-2.088363e+01
1.489658e+02	-2.093318e+01
1.498262e+02	-2.098378e+01
1.506916e+02	-2.103162e+01
1.515620e+02	-2.108296e+01
1.524374e+02	-2.112980e+01
1.533179e+02	-2.118041e+01
1.542034e+02	-2.123135e+01
1.550941e+02	-2.128095e+01
1.559899e+02	-2.133016e+01
1.568909e+02	-2.137968e+01
1.577971e+02	-2.142864e+01
1.587085e+02	-2.147878e+01
1.596252e+02	-2.153054e+01
1.605472e+02	-2.157876e+01
1.614745e+02	-2.162853e+01
1.624072e+02	-2.167944e+01
1.633453e+02	-2.172744e+01
1.642887e+02	-2.177751e+01
1.652377e+02	-2.182710e+01
1.661921e+02	-2.187769e+01
1.671520e+02	-2.192642e+01
1.681175e+02	-2.197931e+01
1.690885e+02	-2.202721e+01
1.700651e+02	-2.207600e+01
1.710474e+02	-2.212605e+01
1.720354e+02	-2.217495e+01
1.730291e+02	-2.222470e+01
1.740285e+02	-2.227509e+01
1.750337e+02	-2.232484e+01
1.760446e+02	-2.237372e+01
1.770615e+02	-2.242441e+01
1.780842e+02	-2.247056e+01
1.791128e+02	-2.252368e+01
1.801473e+02	-2.257365e+01
1.811878e+02	-2.262478e+01
1.822344e+02	-2.267147e+01
1.832870e+02	-2.272204e+01
1.843456e+02	-2.277298e+01
1.854104e+02	-2.282080e+01
1.864813e+02	-2.287038e+01
1.875584e+02	-2.292225e+01
1.886418e+02	-2.297263e+01
1.897313e+02	-2.302096e+01
1.908272e+02	-2.307170e+01
1.919294e+02	-2.312286e+01
1.930380e+02	-2.317191e+01
1.941530e+02	-2.322178e+01
1.952744e+02	-2.326981e+01
1.964023e+02	-2.332200e+01
1.975367e+02	-2.337205e+01
1.986777e+02	-2.341914e+01
1.998252e+02	-2.346881e+01
2.009794e+02	-2.351979e+01
2.021403e+02	-2.356979e+01
2.033078e+02	-2.361743e+01
2.044821e+02	-2.367003e+01
2.056632e+02	-2.372047e+01
2.068511e+02	-2.377073e+01
2.080459e+02	-2.381676e+01
2.092475e+02	-2.386772e+01
2.104561e+02	-2.391742e+01
2.116717e+02	-2.396989e+01
2.128943e+02	-2.402114e+01
2.141240e+02	-2.406915e+01
2.153608e+02	-2.411819e+01
2.166047e+02	-2.416793e+01
2.178558e+02	-2.421710e+01
2.191141e+02	-2.426817e+01
2.203797e+02	-2.431742e+01
2.216526e+02	-2.436837e+01
2.229329e+02	-2.441630e+01
2.242205e+02	-2.446634e+01
2.255156e+02	-2.451617e+01
2.268182e+02	-2.456663e+01
2.281283e+02	-2.461745e+01
2.294459e+02	-2.466775e+01
2.307712e+02	-2.471630e+01
2.321041e+02	-2.476547e+01
2.334447e+02	-2.481748e+01
2.347931e+02	-2.486657e+01
2.361493e+02	-2.491638e+01
2.375133e+02	-2.496761e+01
2.388851e+02	-2.501402e+01
2.402649e+02	-2.506718e+01
2.416527e+02	-2.511633e+01
2.430484e+02	-2.516541e+01
2.444523e+02	-2.521579e+01
2.458642e+02	-2.526577e+01
2.472843e+02	-2.531585e+01
2.487126e+02	-2.536383e+01
2.501492e+02	-2.541795e+01
2.515940e+02	-2.546376e+01
2.530472e+02	-2.551305e+01
2.545088e+02	-2.556640e+01
2.559789e+02	-2.561461e+01
2.574574e+02	-2.566557e+01
2.589444e+02	-2.571353e+01
2.604401e+02	-2.576489e+01
2.619444e+02	-2.581263e+01
2.634574e+02	-2.586472e+01
2.649791e+02	-2.591329e+01
2.665096e+02	-2.596469e+01
2.680489e+02	-2.601728e+01
2.695972e+02	-2.606389e+01
2.711544e+02	-2.611382e+01
2.727205e+02	-2.616212e+01
2.742958e+02	-2.621544e+01
2.758801e+02	-2.626219e+01
2.774736e+02	-2.631529e+01
2.790762e+02	-2.636316e+01
2.806882e+02	-2.641223e+01
2.823094e+02	-2.646686e+01
2.839400e+02	-2.651356e+01
2.855800e+02	-2.656410e+01
2.872295e+02	-2.661169e+01
2.888886e+02	-2.666191e+01
2.905572e+02	-2.671582e+01
2.922354e+02	-2.676467e+01
2.939234e+02	-2.681614e+01
2.956211e+02	-2.686320e+01
2.973286e+02	-2.691309e+01
2.990459e+02	-2.696105e+01
3.007732e+02	-2.701487e+01
3.025104e+02	-2.706151e+01
3.042577e+02	-2.711347e+01
3.060151e+02	-2.716173e+01
3.077826e+02	-2.721322e+01
3.095604e+02	-2.726739e+01
3.113484e+02	-2.731213e+01
3.131467e+02	-2.736725e+01
3.149554e+02	-2.741435e+01
3.167746e+02	-2.746027e+01
3.186043e+02	-2.751436e+01
3.204445e+02	-2.755810e+01
3.222954e+02	-2.761335e+01
3.241570e+02	-2.766133e+01
3.260293e+02	-2.771221e+01
3.279124e+02	-2.776284e+01
3.298064e+02	-2.781492e+01
3.317114e+02	-2.786528e+01
3.336273e+02	-2.791854e+01
3.355544e+02	-2.796038e+01
3.374925e+02	-2.801159e+01
3.394418e+02	-2.806235e+01
3.414024e+02	-2.811445e+01
3.433744e+02	-2.816391e+01
3.453577e+02	-2.821122e+01
3.473525e+02	-2.826671e+01
3.493588e+02	-2.831178e+01
3.513766e+02	-2.835811e+01
3.534062e+02	-2.841650e+01
3.554474e+02	-2.846610e+01
3.575005e+02	-2.851764e+01
3.595654e+02	-2.856537e+01
3.616422e+02	-2.861627e+01
3.637311e+02	-2.866779e+01
3.658320e+02	-2.871457e+01
3.679450e+02	-2.876227e+01
3.700702e+02	-2.881251e+01
3.722077e+02	-2.886154e+01
3.743576e+02	-2.891541e+01
3.765199e+02	-2.896925e+01
3.786946e+02	-2.902131e+01
3.808820e+02	-2.906637e+01
3.830819e+02	-2.911176e+01
3.852946e+02	-2.917087e+01
3.875200e+02	-2.921632e+01
3.897583e+02	-2.926616e+01
3.920096e+02	-2.931605e+01
3.942738e+02	-2.936963e+01
3.965511e+02	-2.941619e+01
3.988416e+02	-2.946535e+01
4.011452e+02	-2.951452e+01
4.034622e+02	-2.957030e+01
4.057926e+02	-2.962173e+01
4.081365e+02	-2.966527e+01
4.104938e+02	-2.971427e+01
4.128648e+02	-2.976845e+01
4.152495e+02	-2.981907e+01
4.176480e+02	-2.986957e+01
4.200603e+02	-2.991475e+01
4.224866e+02	-2.996782e+01
4.249268e+02	-3.002015e+01
4.273812e+02	-3.006816e+01
4.298497e+02	-3.011491e+01
4.323325e+02	-3.017091e+01
4.348297e+02	-3.022028e+01
4.373412e+02	-3.026461e+01
4.398673e+02	-3.032352e+01
4.424079e+02	-3.036893e+01
4.449633e+02	-3.041610e+01
4.475334e+02	-3.047049e+01
4.501183e+02	-3.052086e+01
4.527182e+02	-3.056671e+01
4.553330e+02	-3.061992e+01
4.579630e+02	-3.066142e+01
4.606082e+02	-3.071829e+01
4.632687e+02	-3.076296e+01
4.659445e+02	-3.081483e+01
4.686358e+02	-3.087762e+01
4.713426e+02	-3.091711e+01
4.740650e+02	-3.096734e+01
4.768032e+02	-3.102057e+01
4.795572e+02	-3.106829e+01
4.823271e+02	-3.111866e+01
4.851130e+02	-3.117328e+01
4.879150e+02	-3.122423e+01
4.907332e+02	-3.126796e+01
4.935676e+02	-3.132077e+01
4.964185e+02	-3.137011e+01
4.992858e+02	-3.142083e+01
5.021696e+02	-3.146786e+01
5.050701e+02	-3.152355e+01
5.079874e+02	-3.156300e+01
5.109215e+02	-3.161782e+01
5.138726e+02	-3.167086e+01
5.168407e+02	-3.171996e+01
5.198259e+02	-3.177099e+01
5.228284e+02	-3.181796e+01
5.258482e+02	-3.187338e+01
5.288855e+02	-3.192645e+01
5.319403e+02	-3.196936e+01
5.350128e+02	-3.202055e+01
5.381030e+02	-3.207598e+01
5.412111e+02	-3.212504e+01
5.443371e+02	-3.217202e+01
5.474812e+02	-3.222298e+01
5.506434e+02	-3.227615e+01
5.538239e+02	-3.232568e+01
5.570228e+02	-3.237232e+01
5.602401e+02	-3.242516e+01
5.634760e+02	-3.247707e+01
5.667306e+02	-3.251859e+01
5.700040e+02	-3.257154e+01
5.732964e+02	-3.262590e+01
5.766077e+02	-3.267328e+01
5.799382e+02	-3.272234e+01
5.832879e+02	-3.277762e+01
5.866569e+02	-3.282231e+01
5.900454e+02	-3.287402e+01
5.934535e+02	-3.292211e+01
5.968813e+02	-3.297696e+01
6.003288e+02	-3.302540e+01
6.037963e+02	-3.307764e+01
6.072838e+02	-3.313524e+01
6.107914e+02	-3.317859e+01
6.143194e+02	-3.322813e+01
6.178676e+02	-3.327933e+01
6.214364e+02	-3.333515e+01
6.250258e+02	-3.337703e+01
6.286359e+02	-3.342975e+01
6.322669e+02	-3.347928e+01
6.359189e+02	-3.352944e+01
6.395919e+02	-3.358357e+01
6.432862e+02	-3.363306e+01
6.470017e+02	-3.367642e+01
6.507388e+02	-3.372725e+01
6.544974e+02	-3.378866e+01
6.582778e+02	-3.383287e+01
6.620800e+02	-3.387599e+01
6.659041e+02	-3.392561e+01
6.697504e+02	-3.397947e+01
6.736188e+02	-3.403398e+01
6.775096e+02	-3.408244e+01
6.814229e+02	-3.412713e+01
6.853587e+02	-3.418348e+01
6.893173e+02	-3.423594e+01
6.932988e+02	-3.428227e+01
6.973033e+02	-3.434157e+01
7.013309e+02	-3.438342e+01
