Frequency(Hz)	Magnitude(dB)
1.000000e+01	-2.309305e+00
1.005776e+01	-2.329925e+00
1.011585e+01	-2.350988e+00
1.017428e+01	-2.371871e+00
1.023305e+01	-2.392763e+00
1.029215e+01	-2.414269e+00
1.035160e+01	-2.435550e+00
1.041139e+01	-2.457090e+00
1.047153e+01	-2.478868e+00
1.053201e+01	-2.500567e+00
1.059284e+01	-2.522459e+00
1.065403e+01	-2.544589e+00
1.071556e+01	-2.566839e+00
1.077746e+01	-2.589462e+00
1.083971e+01	-2.611972e+00
1.090232e+01	-2.634525e+00
1.096529e+01	-2.657317e+00
1.102862e+01	-2.680353e+00
1.109232e+01	-2.703290e+00
1.115639e+01	-2.726714e+00
1.122083e+01	-2.750352e+00
1.128564e+01	-2.773735e+00
1.135083e+01	-2.797500e+00
1.141639e+01	-2.821225e+00
1.148233e+01	-2.845159e+00
1.154865e+01	-2.869012e+00
1.161536e+01	-2.893565e+00
1.168245e+01	-2.918134e+00
1.174992e+01	-2.942370e+00
1.181779e+01	-2.966965e+00
1.188605e+01	-2.991954e+00
1.195470e+01	-3.016905e+00
1.202375e+01	-3.042052e+00
1.209320e+01	-3.067431e+00
1.216305e+01	-3.092804e+00
1.223330e+01	-3.118089e+00
1.230396e+01	-3.144301e+00
1.237503e+01	-3.169932e+00
1.244651e+01	-3.195675e+00
1.251840e+01	-3.222200e+00
1.259070e+01	-3.248302e+00
1.266343e+01	-3.274635e+00
1.273657e+01	-3.301196e+00
1.281014e+01	-3.327933e+00
1.288413e+01	-3.354782e+00
1.295855e+01	-3.381769e+00
1.303339e+01	-3.408882e+00
1.310867e+01	-3.435969e+00
1.318439e+01	-3.463626e+00
1.326054e+01	-3.491174e+00
1.333713e+01	-3.518888e+00
1.341417e+01	-3.546850e+00
1.349165e+01	-3.574674e+00
1.356958e+01	-3.602945e+00
1.364795e+01	-3.631227e+00
1.372678e+01	-3.659409e+00
1.380607e+01	-3.688058e+00
1.388581e+01	-3.716774e+00
1.396602e+01	-3.745577e+00
1.404668e+01	-3.774477e+00
1.412782e+01	-3.804052e+00
1.420942e+01	-3.833136e+00
1.429149e+01	-3.862229e+00
1.437404e+01	-3.891883e+00
1.445706e+01	-3.921624e+00
1.454057e+01	-3.951273e+00
1.462455e+01	-3.981417e+00
1.470902e+01	-4.011492e+00
1.479398e+01	-4.041675e+00
1.487943e+01	-4.071966e+00
1.496537e+01	-4.102605e+00
1.505181e+01	-4.133232e+00
1.513875e+01	-4.164219e+00
1.522619e+01	-4.194610e+00
1.531414e+01	-4.225851e+00
1.540259e+01	-4.257253e+00
1.549156e+01	-4.288545e+00
1.558103e+01	-4.319857e+00
1.567103e+01	-4.351538e+00
1.576155e+01	-4.382988e+00
1.585258e+01	-4.414908e+00
1.594415e+01	-4.447188e+00
1.603624e+01	-4.479024e+00
1.612886e+01	-4.511698e+00
1.622202e+01	-4.543709e+00
1.631572e+01	-4.576692e+00
1.640996e+01	-4.609181e+00
1.650474e+01	-4.642054e+00
1.660008e+01	-4.674609e+00
1.669596e+01	-4.707819e+00
1.679239e+01	-4.740958e+00
1.688938e+01	-4.774408e+00
1.698694e+01	-4.807659e+00
1.708505e+01	-4.841207e+00
1.718373e+01	-4.874887e+00
1.728299e+01	-4.908771e+00
1.738281e+01	-4.942602e+00
1.748322e+01	-4.976836e+00
1.758420e+01	-5.011040e+00
1.768576e+01	-5.044936e+00
1.778792e+01	-5.079541e+00
1.789066e+01	-5.114431e+00
1.799399e+01	-5.148699e+00
1.809793e+01	-5.183619e+00
1.820246e+01	-5.218558e+00
1.830760e+01	-5.253519e+00
1.841334e+01	-5.288923e+00
1.851969e+01	-5.323999e+00
1.862666e+01	-5.359486e+00
1.873425e+01	-5.394843e+00
1.884246e+01	-5.430694e+00
1.895129e+01	-5.466518e+00
1.906075e+01	-5.502002e+00
1.917085e+01	-5.538380e+00
1.928158e+01	-5.574424e+00
1.939295e+01	-5.610669e+00
1.950496e+01	-5.646772e+00
1.961762e+01	-5.683446e+00
1.973093e+01	-5.720072e+00
1.984490e+01	-5.756811e+00
1.995952e+01	-5.792948e+00
2.007480e+01	-5.830177e+00
2.019076e+01	-5.866875e+00
2.030738e+01	-5.904197e+00
2.042467e+01	-5.941614e+00
2.054264e+01	-5.979077e+00
2.066130e+01	-6.016508e+00
2.078064e+01	-6.054059e+00
2.090066e+01	-6.091797e+00
2.102139e+01	-6.129440e+00
2.114280e+01	-6.167519e+00
2.126492e+01	-6.205112e+00
2.138775e+01	-6.243439e+00
2.151128e+01	-6.281836e+00
2.163553e+01	-6.320033e+00
2.176050e+01	-6.358123e+00
2.188619e+01	-6.396634e+00
2.201260e+01	-6.435475e+00
2.213974e+01	-6.474125e+00
2.226762e+01	-6.513015e+00
2.239624e+01	-6.551685e+00
2.252560e+01	-6.591099e+00
2.265571e+01	-6.630147e+00
2.278656e+01	-6.669219e+00
2.291818e+01	-6.708225e+00
2.305055e+01	-6.747847e+00
2.318369e+01	-6.787478e+00
2.331760e+01	-6.827080e+00
2.345228e+01	-6.866714e+00
2.358774e+01	-6.906547e+00
2.372398e+01	-6.946953e+00
2.386101e+01	-6.986179e+00
2.399883e+01	-7.026405e+00
2.413745e+01	-7.066073e+00
2.427686e+01	-7.106743e+00
2.441709e+01	-7.146804e+00
2.455812e+01	-7.187530e+00
2.469997e+01	-7.227964e+00
2.484263e+01	-7.268305e+00
2.498612e+01	-7.308859e+00
2.513044e+01	-7.350528e+00
2.527559e+01	-7.390815e+00
2.542158e+01	-7.431759e+00
2.556842e+01	-7.473304e+00
2.571610e+01	-7.513868e+00
2.586463e+01	-7.555096e+00
2.601403e+01	-7.596122e+00
2.616428e+01	-7.638052e+00
2.631541e+01	-7.679618e+00
2.646740e+01	-7.721110e+00
2.662028e+01	-7.762791e+00
2.677404e+01	-7.804560e+00
2.692868e+01	-7.846109e+00
2.708422e+01	-7.887785e+00
2.724066e+01	-7.929461e+00
2.739800e+01	-7.971559e+00
2.755625e+01	-8.013856e+00
2.771541e+01	-8.055744e+00
2.787550e+01	-8.097717e+00
2.803650e+01	-8.140176e+00
2.819844e+01	-8.182238e+00
2.836131e+01	-8.225452e+00
2.852513e+01	-8.268084e+00
2.868989e+01	-8.310932e+00
2.885560e+01	-8.353384e+00
2.902227e+01	-8.395681e+00
2.918990e+01	-8.438884e+00
2.935850e+01	-8.481910e+00
2.952807e+01	-8.524864e+00
2.969863e+01	-8.567746e+00
2.987016e+01	-8.610853e+00
3.004269e+01	-8.653996e+00
3.021622e+01	-8.697277e+00
3.039075e+01	-8.740190e+00
3.056628e+01	-8.783802e+00
3.074283e+01	-8.827075e+00
3.092040e+01	-8.870804e+00
3.109900e+01	-8.914281e+00
3.127862e+01	-8.958245e+00
3.145929e+01	-9.001941e+00
3.164099e+01	-9.045604e+00
3.182375e+01	-9.089252e+00
3.200756e+01	-9.132735e+00
3.219244e+01	-9.176749e+00
3.237838e+01	-9.221083e+00
3.256540e+01	-9.264833e+00
3.275349e+01	-9.309434e+00
3.294268e+01	-9.353699e+00
3.313295e+01	-9.398120e+00
3.332433e+01	-9.442122e+00
3.351681e+01	-9.485845e+00
3.371040e+01	-9.531060e+00
3.390511e+01	-9.574955e+00
3.410094e+01	-9.619861e+00
3.429791e+01	-9.664386e+00
3.449601e+01	-9.709210e+00
3.469526e+01	-9.753975e+00
3.489566e+01	-9.798297e+00
3.509721e+01	-9.843602e+00
3.529993e+01	-9.888009e+00
3.550382e+01	-9.933242e+00
3.570889e+01	-9.978489e+00
3.591515e+01	-1.002311e+01
3.612259e+01	-1.006803e+01
3.633123e+01	-1.011325e+01
3.654108e+01	-1.015818e+01
3.675214e+01	-1.020367e+01
3.696442e+01	-1.024863e+01
3.717792e+01	-1.029444e+01
3.739266e+01	-1.033968e+01
3.760864e+01	-1.038511e+01
3.782587e+01	-1.043055e+01
3.804435e+01	-1.047622e+01
3.826409e+01	-1.052146e+01
3.848510e+01	-1.056806e+01
3.870739e+01	-1.061361e+01
3.893096e+01	-1.065864e+01
3.915583e+01	-1.070438e+01
3.938199e+01	-1.075015e+01
3.960946e+01	-1.079639e+01
3.983824e+01	-1.084159e+01
4.006834e+01	-1.088823e+01
4.029978e+01	-1.093375e+01
4.053255e+01	-1.097956e+01
4.076666e+01	-1.102602e+01
4.100213e+01	-1.107197e+01
4.123896e+01	-1.111799e+01
4.147715e+01	-1.116447e+01
4.171672e+01	-1.121091e+01
4.195767e+01	-1.125665e+01
4.220002e+01	-1.130289e+01
4.244377e+01	-1.134934e+01
4.268892e+01	-1.139593e+01
4.293549e+01	-1.144239e+01
4.318348e+01	-1.148876e+01
4.343291e+01	-1.153525e+01
4.368377e+01	-1.158142e+01
4.393609e+01	-1.162837e+01
4.418986e+01	-1.167495e+01
4.444510e+01	-1.172102e+01
4.470182e+01	-1.176860e+01
4.496001e+01	-1.181448e+01
4.521970e+01	-1.186182e+01
4.548089e+01	-1.190835e+01
4.574358e+01	-1.195519e+01
4.600779e+01	-1.200238e+01
4.627353e+01	-1.204897e+01
4.654081e+01	-1.209591e+01
4.680963e+01	-1.214311e+01
4.708000e+01	-1.219054e+01
4.735193e+01	-1.223728e+01
4.762543e+01	-1.228403e+01
4.790051e+01	-1.233172e+01
4.817719e+01	-1.237824e+01
4.845545e+01	-1.242593e+01
4.873533e+01	-1.247249e+01
4.901682e+01	-1.251910e+01
4.929994e+01	-1.256655e+01
4.958470e+01	-1.261422e+01
4.987110e+01	-1.266149e+01
5.015915e+01	-1.270915e+01
5.044887e+01	-1.275571e+01
5.074026e+01	-1.280267e+01
5.103333e+01	-1.285124e+01
5.132810e+01	-1.289820e+01
5.162457e+01	-1.294479e+01
5.192275e+01	-1.299399e+01
5.222265e+01	-1.304087e+01
5.252429e+01	-1.308904e+01
5.282767e+01	-1.313692e+01
5.313280e+01	-1.318372e+01
5.343969e+01	-1.323136e+01
5.374836e+01	-1.327883e+01
5.405880e+01	-1.332653e+01
5.437105e+01	-1.337449e+01
5.468509e+01	-1.342206e+01
5.500095e+01	-1.346995e+01
5.531863e+01	-1.351799e+01
5.563815e+01	-1.356545e+01
5.595951e+01	-1.361310e+01
5.628273e+01	-1.366194e+01
5.660782e+01	-1.370914e+01
5.693479e+01	-1.375683e+01
5.726364e+01	-1.380434e+01
5.759439e+01	-1.385267e+01
5.792705e+01	-1.390138e+01
5.826164e+01	-1.394918e+01
5.859815e+01	-1.399681e+01
5.893662e+01	-1.404509e+01
5.927703e+01	-1.409296e+01
5.961941e+01	-1.414141e+01
5.996377e+01	-1.418904e+01
6.031012e+01	-1.423751e+01
6.065847e+01	-1.428534e+01
6.100883e+01	-1.433369e+01
6.136121e+01	-1.438230e+01
6.171563e+01	-1.443046e+01
6.207210e+01	-1.447836e+01
6.243063e+01	-1.452604e+01
6.279122e+01	-1.457446e+01
6.315390e+01	-1.462325e+01
6.351868e+01	-1.467126e+01
6.388556e+01	-1.472053e+01
6.425456e+01	-1.476810e+01
6.462569e+01	-1.481660e+01
6.499897e+01	-1.486400e+01
6.537440e+01	-1.491374e+01
6.575200e+01	-1.496176e+01
6.613178e+01	-1.501090e+01
6.651375e+01	-1.505887e+01
6.689793e+01	-1.510642e+01
6.728433e+01	-1.515645e+01
6.767297e+01	-1.520477e+01
6.806384e+01	-1.525327e+01
6.845698e+01	-1.530134e+01
6.885238e+01	-1.534999e+01
6.925007e+01	-1.539872e+01
6.965005e+01	-1.544654e+01
7.005235e+01	-1.549521e+01
7.045697e+01	-1.554499e+01
7.086393e+01	-1.559247e+01
7.127323e+01	-1.564255e+01
7.168490e+01	-1.569023e+01
7.209895e+01	-1.573815e+01
7.251539e+01	-1.578755e+01
7.293424e+01	-1.583661e+01
7.335551e+01	-1.588483e+01
7.377920e+01	-1.593423e+01
7.420535e+01	-1.598219e+01
7.463396e+01	-1.603168e+01
7.506504e+01	-1.608052e+01
7.549861e+01	-1.612890e+01
7.593469e+01	-1.617765e+01
7.637328e+01	-1.622705e+01
7.681441e+01	-1.627574e+01
7.725809e+01	-1.632417e+01
7.770433e+01	-1.637171e+01
7.815315e+01	-1.642289e+01
7.860456e+01	-1.647096e+01
7.905857e+01	-1.652034e+01
7.951521e+01	-1.656837e+01
7.997449e+01	-1.661728e+01
8.043642e+01	-1.666708e+01
8.090102e+01	-1.671555e+01
8.136830e+01	-1.676430e+01
8.183828e+01	-1.681299e+01
8.231097e+01	-1.686217e+01
8.278640e+01	-1.691219e+01
8.326457e+01	-1.696113e+01
8.374550e+01	-1.700850e+01
8.422921e+01	-1.705770e+01
8.471572e+01	-1.710716e+01
8.520503e+01	-1.715669e+01
8.569717e+01	-1.720650e+01
8.619215e+01	-1.725446e+01
8.669000e+01	-1.730445e+01
8.719071e+01	-1.735307e+01
8.769432e+01	-1.740220e+01
8.820084e+01	-1.745076e+01
8.871029e+01	-1.750054e+01
8.922267e+01	-1.754940e+01
8.973802e+01	-1.759842e+01
9.025634e+01	-1.764857e+01
9.077766e+01	-1.769695e+01
9.130199e+01	-1.774575e+01
9.182935e+01	-1.779597e+01
9.235975e+01	-1.784366e+01
9.289321e+01	-1.789399e+01
9.342976e+01	-1.794376e+01
9.396941e+01	-1.799291e+01
9.451217e+01	-1.804221e+01
9.505807e+01	-1.809063e+01
9.560712e+01	-1.814089e+01
9.615934e+01	-1.818792e+01
9.671476e+01	-1.823771e+01
9.727338e+01	-1.828811e+01
9.783522e+01	-1.833697e+01
9.840032e+01	-1.838672e+01
9.896867e+01	-1.843647e+01
9.954031e+01	-1.848529e+01
1.001153e+02	-1.853435e+01
1.006935e+02	-1.858271e+01
1.012751e+02	-1.863376e+01
1.018601e+02	-1.868187e+01
1.024484e+02	-1.873270e+01
1.030402e+02	-1.878155e+01
1.036353e+02	-1.882998e+01
1.042339e+02	-1.887982e+01
1.048360e+02	-1.892976e+01
1.054415e+02	-1.897925e+01
1.060505e+02	-1.902659e+01
1.066631e+02	-1.907699e+01
1.072791e+02	-1.912814e+01
1.078988e+02	-1.917537e+01
1.085220e+02	-1.922542e+01
1.091488e+02	-1.927587e+01
1.097793e+02	-1.932526e+01
1.104133e+02	-1.937296e+01
1.110511e+02	-1.942332e+01
1.116925e+02	-1.947153e+01
1.123376e+02	-1.952087e+01
1.129865e+02	-1.957326e+01
1.136391e+02	-1.962046e+01
1.142955e+02	-1.967204e+01
1.149556e+02	-1.971978e+01
1.156196e+02	-1.977062e+01
1.162874e+02	-1.981959e+01
1.169591e+02	-1.986986e+01
1.176347e+02	-1.992023e+01
1.183141e+02	-1.996782e+01
1.189975e+02	-2.001862e+01
1.196848e+02	-2.006786e+01
1.203761e+02	-2.011534e+01
1.210714e+02	-2.016478e+01
1.217707e+02	-2.021594e+01
1.224740e+02	-2.026533e+01
1.231814e+02	-2.031557e+01
1.238929e+02	-2.036459e+01
1.246085e+02	-2.041391e+01
1.253283e+02	-2.046360e+01
1.260522e+02	-2.051318e+01
1.267802e+02	-2.056238e+01
1.275125e+02	-2.061431e+01
1.282490e+02	-2.066279e+01
1.289898e+02	-2.071021e+01
1.297348e+02	-2.076242e+01
1.304842e+02	-2.080929e+01
1.312378e+02	-2.086010e+01
1.319959e+02	-2.091045e+01
1.327583e+02	-2.096113e+01
1.335251e+02	-2.101049e+01
1.342963e+02	-2.105839e+01
1.350720e+02	-2.110712e+01
1.358522e+02	-2.115781e+01
1.366368e+02	-2.120791e+01
1.374260e+02	-2.125703e+01
1.382198e+02	-2.130813e+01
1.390182e+02	-2.135756e+01
1.398211e+02	-2.140671e+01
1.406287e+02	-2.145526e+01
1.414410e+02	-2.150575e+01
1.422579e+02	-2.155613e+01
1.430796e+02	-2.160576e+01
1.439060e+02	-2.165632e+01
1.447372e+02	-2.170531e+01
1.455732e+02	-2.175410e+01
1.464141e+02	-2.180593e+01
1.472597e+02	-2.185646e+01
1.481103e+02	-2.190459e+01
1.489658e+02	-2.195411e+01
1.498262e+02	-2.200308e+01
1.506916e+02	-2.205356e+01
1.515620e+02	-2.210292e+01
1.524374e+02	-2.215093e+01
1.533179e+02	-2.220501e+01
1.542034e+02	-2.225281e+01
1.550941e+02	-2.230042e+01
1.559899e+02	-2.235314e+01
1.568909e+02	-2.240129e+01
1.577971e+02	-2.244906e+01
1.587085e+02	-2.250048e+01
1.596252e+02	-2.254976e+01
1.605472e+02	-2.260222e+01
1.614745e+02	-2.264934e+01
1.624072e+02	-2.270064e+01
1.633453e+02	-2.274855e+01
1.642887e+02	-2.280219e+01
1.652377e+02	-2.284976e+01
1.661921e+02	-2.289605e+01
1.671520e+02	-2.294941e+01
1.681175e+02	-2.299834e+01
1.690885e+02	-2.305063e+01
1.700651e+02	-2.309989e+01
1.710474e+02	-2.314727e+01
1.720354e+02	-2.319589e+01
1.730291e+02	-2.324827e+01
1.740285e+02	-2.329361e+01
1.750337e+02	-2.334448e+01
1.760446e+02	-2.339872e+01
1.770615e+02	-2.344787e+01
1.780842e+02	-2.349582e+01
1.791128e+02	-2.354714e+01
1.801473e+02	-2.359579e+01
1.811878e+02	-2.364431e+01
1.822344e+02	-2.369589e+01
1.832870e+02	-2.374810e+01
1.843456e+02	-2.379490e+01
1.854104e+02	-2.384432e+01
1.864813e+02	-2.389581e+01
1.875584e+02	-2.394390e+01
1.886418e+02	-2.399436e+01
1.897313e+02	-2.404539e+01
1.908272e+02	-2.409461e+01
1.919294e+02	-2.414481e+01
1.930380e+02	-2.419794e+01
1.941530e+02	-2.424605e+01
1.952744e+02	-2.429291e+01
1.964023e+02	-2.434240e+01
1.975367e+02	-2.439519e+01
1.986777e+02	-2.444535e+01
1.998252e+02	-2.448939e+01
2.009794e+02	-2.454430e+01
2.021403e+02	-2.459400e+01
2.033078e+02	-2.464185e+01
2.044821e+02	-2.469222e+01
2.056632e+02	-2.474161e+01
2.068511e+02	-2.479308e+01
2.080459e+02	-2.484453e+01
2.092475e+02	-2.489242e+01
2.104561e+02	-2.494347e+01
2.116717e+02	-2.499072e+01
2.128943e+02	-2.504231e+01
2.141240e+02	-2.509282e+01
2.153608e+02	-2.514566e+01
2.166047e+02	-2.519490e+01
2.178558e+02	-2.524168e+01
2.191141e+02	-2.529305e+01
2.203797e+02	-2.534200e+01
2.216526e+02	-2.539291e+01
2.229329e+02	-2.543975e+01
2.242205e+02	-2.548818e+01
2.255156e+02	-2.554041e+01
2.268182e+02	-2.559117e+01
2.281283e+02	-2.564295e+01
2.294459e+02	-2.569214e+01
2.307712e+02	-2.573911e+01
2.321041e+02	-2.578958e+01
2.334447e+02	-2.584234e+01
2.347931e+02	-2.589223e+01
2.361493e+02	-2.594461e+01
2.375133e+02	-2.599072e+01
2.388851e+02	-2.604200e+01
2.402649e+02	-2.609179e+01
2.416527e+02	-2.613810e+01
2.430484e+02	-2.619089e+01
2.444523e+02	-2.624089e+01
2.458642e+02	-2.629202e+01
2.472843e+02	-2.634088e+01
2.487126e+02	-2.639083e+01
2.501492e+02	-2.644046e+01
2.515940e+02	-2.648832e+01
2.530472e+02	-2.654148e+01
2.545088e+02	-2.658926e+01
2.559789e+02	-2.664239e+01
2.574574e+02	-2.668807e+01
2.589444e+02	-2.674206e+01
2.604401e+02	-2.679184e+01
2.619444e+02	-2.684379e+01
2.634574e+02	-2.688936e+01
2.649791e+02	-2.694122e+01
2.665096e+02	-2.699113e+01
2.680489e+02	-2.704031e+01
2.695972e+02	-2.708821e+01
2.711544e+02	-2.713974e+01
2.727205e+02	-2.718751e+01
2.742958e+02	-2.723859e+01
2.758801e+02	-2.728860e+01
2.774736e+02	-2.733945e+01
2.790762e+02	-2.738869e+01
2.806882e+02	-2.744228e+01
2.823094e+02	-2.749089e+01
2.839400e+02	-2.754168e+01
2.855800e+02	-2.758749e+01
2.872295e+02	-2.764259e+01
2.888886e+02	-2.769061e+01
2.905572e+02	-2.774071e+01
2.922354e+02	-2.779109e+01
2.939234e+02	-2.784076e+01
2.956211e+02	-2.788809e+01
2.973286e+02	-2.793997e+01
2.990459e+02	-2.798859e+01
3.007732e+02	-2.804103e+01
3.025104e+02	-2.809473e+01
3.042577e+02	-2.814091e+01
3.060151e+02	-2.819027e+01
3.077826e+02	-2.824135e+01
3.095604e+02	-2.828550e+01
3.113484e+02	-2.834216e+01
3.131467e+02	-2.838745e+01
3.149554e+02	-2.844218e+01
3.167746e+02	-2.849086e+01
3.186043e+02	-2.854201e+01
3.204445e+02	-2.859252e+01
3.222954e+02	-2.864412e+01
3.241570e+02	-2.869185e+01
3.260293e+02	-2.874134e+01
3.279124e+02	-2.879278e+01
3.298064e+02	-2.884174e+01
3.317114e+02	-2.889097e+01
3.336273e+02	-2.894111e+01
3.355544e+02	-2.899192e+01
3.374925e+02	-2.903782e+01
3.394418e+02	-2.909093e+01
3.414024e+02	-2.913959e+01
3.433744e+02	-2.919312e+01
3.453577e+02	-2.923933e+01
3.473525e+02	-2.928670e+01
3.493588e+02	-2.934927e+01
3.513766e+02	-2.938877e+01
3.534062e+02	-2.944177e+01
3.554474e+02	-2.948850e+01
3.575005e+02	-2.954191e+01
3.595654e+02	-2.959144e+01
3.616422e+02	-2.963807e+01
3.637311e+02	-2.969452e+01
3.658320e+02	-2.974334e+01
3.679450e+02	-2.978851e+01
3.700702e+02	-2.984153e+01
3.722077e+02	-2.989318e+01
3.743576e+02	-2.993929e+01
3.765199e+02	-2.999018e+01
3.786946e+02	-3.004375e+01
3.808820e+02	-3.009275e+01
3.830819e+02	-3.014678e+01
3.852946e+02	-3.019503e+01
3.875200e+02	-3.024511e+01
3.897583e+02	-3.028959e+01
3.920096e+02	-3.034354e+01
3.942738e+02	-3.039061e+01
3.965511e+02	-3.044027e+01
3.988416e+02	-3.049653e+01
4.011452e+02	-3.054377e+01
4.034622e+02	-3.059795e+01
4.057926e+02	-3.064049e+01
4.081365e+02	-3.069010e+01
4.104938e+02	-3.074565e+01
4.128648e+02	-3.079472e+01
4.152495e+02	-3.083889e+01
4.176480e+02	-3.089208e+01
4.200603e+02	-3.094241e+01
4.224866e+02	-3.099513e+01
4.249268e+02	-3.104224e+01
4.273812e+02	-3.109981e+01
4.298497e+02	-3.114165e+01
4.323325e+02	-3.119102e+01
4.348297e+02	-3.125092e+01
4.373412e+02	-3.130026e+01
4.398673e+02	-3.134515e+01
4.424079e+02	-3.140429e+01
4.449633e+02	-3.144537e+01
4.475334e+02	-3.149512e+01
4.501183e+02	-3.154505e+01
4.527182e+02	-3.158885e+01
4.553330e+02	-3.164981e+01
4.579630e+02	-3.169654e+01
4.606082e+02	-3.174781e+01
4.632687e+02	-3.179897e+01
4.659445e+02	-3.184783e+01
4.686358e+02	-3.190074e+01
4.713426e+02	-3.194359e+01
4.740650e+02	-3.199912e+01
4.768032e+02	-3.204478e+01
4.795572e+02	-3.210313e+01
4.823271e+02	-3.215119e+01
4.851130e+02	-3.219976e+01
4.879150e+02	-3.225290e+01
4.907332e+02	-3.229495e+01
4.935676e+02	-3.235201e+01
4.964185e+02	-3.239616e+01
4.992858e+02	-3.245013e+01
5.021696e+02	-3.250072e+01
5.050701e+02	-3.255343e+01
5.079874e+02	-3.259197e+01
5.109215e+02	-3.264896e+01
5.138726e+02	-3.269501e+01
5.168407e+02	-3.274924e+01
5.198259e+02	-3.279931e+01
5.228284e+02	-3.285067e+01
5.258482e+02	-3.290302e+01
5.288855e+02	-3.295919e+01
5.319403e+02	-3.299346e+01
5.350128e+02	-3.304501e+01
5.381030e+02	-3.310164e+01
5.412111e+02	-3.315191e+01
5.443371e+02	-3.320749e+01
5.474812e+02	-3.325939e+01
5.506434e+02	-3.329959e+01
5.538239e+02	-3.335558e+01
5.570228e+02	-3.340312e+01
5.602401e+02	-3.345675e+01
5.634760e+02	-3.350214e+01
5.667306e+02	-3.354471e+01
5.700040e+02	-3.360709e+01
5.732964e+02	-3.366333e+01
5.766077e+02	-3.370813e+01
5.799382e+02	-3.375338e+01
5.832879e+02	-3.380581e+01
5.866569e+02	-3.385515e+01
5.900454e+02	-3.390725e+01
5.934535e+02	-3.395818e+01
5.968813e+02	-3.401423e+01
6.003288e+02	-3.405803e+01
6.037963e+02	-3.410535e+01
6.072838e+02	-3.415296e+01
6.107914e+02	-3.420307e+01
6.143194e+02	-3.425868e+01
6.178676e+02	-3.430793e+01
6.214364e+02	-3.436342e+01
6.250258e+02	-3.440788e+01
6.286359e+02	-3.446392e+01
6.322669e+02	-3.450863e+01
6.359189e+02	-3.456677e+01
6.395919e+02	-3.460526e+01
6.432862e+02	-3.465453e+01
6.470017e+02	-3.471829e+01
6.507388e+02	-3.476567e+01
6.544974e+02	-3.481165e+01
6.582778e+02	-3.485531e+01
6.620800e+02	-3.491563e+01
6.659041e+02	-3.497101e+01
6.697504e+02	-3.501023e+01
6.736188e+02	-3.507000e+01
6.775096e+02	-3.510463e+01
6.814229e+02	-3.516460e+01
6.853587e+02	-3.521435e+01
6.893173e+02	-3.525121e+01
6.932988e+02	-3.531128e+01
6.973033e+02	-3.537296e+01
7.013309e+02	-3.541689e+01
