Frequency(Hz)	Magnitude(dB)
1.000000e+01	-2.162276e+00
1.005776e+01	-2.181971e+00
1.011585e+01	-2.201889e+00
1.017428e+01	-2.221587e+00
1.023305e+01	-2.241788e+00
1.029215e+01	-2.261799e+00
1.035160e+01	-2.282497e+00
1.041139e+01	-2.302836e+00
1.047153e+01	-2.323484e+00
1.053201e+01	-2.344395e+00
1.059284e+01	-2.365320e+00
1.065403e+01	-2.386410e+00
1.071556e+01	-2.407701e+00
1.077746e+01	-2.429148e+00
1.083971e+01	-2.450570e+00
1.090232e+01	-2.472246e+00
1.096529e+01	-2.494196e+00
1.102862e+01	-2.515859e+00
1.109232e+01	-2.537919e+00
1.115639e+01	-2.560289e+00
1.122083e+01	-2.582505e+00
1.128564e+01	-2.604842e+00
1.135083e+01	-2.627436e+00
1.141639e+01	-2.650331e+00
1.148233e+01	-2.673559e+00
1.154865e+01	-2.696321e+00
1.161536e+01	-2.719704e+00
1.168245e+01	-2.743070e+00
1.174992e+01	-2.766602e+00
1.181779e+01	-2.790258e+00
1.188605e+01	-2.814078e+00
1.195470e+01	-2.837793e+00
1.202375e+01	-2.861822e+00
1.209320e+01	-2.885910e+00
1.216305e+01	-2.910531e+00
1.223330e+01	-2.934799e+00
1.230396e+01	-2.959586e+00
1.237503e+01	-2.984412e+00
1.244651e+01	-3.009127e+00
1.251840e+01	-3.034459e+00
1.259070e+01	-3.059658e+00
1.266343e+01	-3.085312e+00
1.273657e+01	-3.110607e+00
1.281014e+01	-3.136235e+00
1.288413e+01	-3.162204e+00
1.295855e+01	-3.188074e+00
1.303339e+01	-3.214054e+00
1.310867e+01	-3.240262e+00
1.318439e+01	-3.266509e+00
1.326054e+01	-3.293384e+00
1.333713e+01	-3.319773e+00
1.341417e+01	-3.346752e+00
1.349165e+01	-3.373522e+00
1.356958e+01	-3.401011e+00
1.364795e+01	-3.428022e+00
1.372678e+01	-3.455124e+00
1.380607e+01	-3.482690e+00
1.388581e+01	-3.510347e+00
1.396602e+01	-3.538492e+00
1.404668e+01	-3.566242e+00
1.412782e+01	-3.594239e+00
1.420942e+01	-3.622276e+00
1.429149e+01	-3.651056e+00
1.437404e+01	-3.679457e+00
1.445706e+01	-3.708047e+00
1.454057e+01	-3.736788e+00
1.462455e+01	-3.765866e+00
1.470902e+01	-3.795026e+00
1.479398e+01	-3.824061e+00
1.487943e+01	-3.853502e+00
1.496537e+01	-3.882938e+00
1.505181e+01	-3.912641e+00
1.513875e+01	-3.942201e+00
1.522619e+01	-3.972424e+00
1.531414e+01	-4.002558e+00
1.540259e+01	-4.032366e+00
1.549156e+01	-4.062970e+00
1.558103e+01	-4.093556e+00
1.567103e+01	-4.124039e+00
1.576155e+01	-4.154878e+00
1.585258e+01	-4.185408e+00
1.594415e+01	-4.216496e+00
1.603624e+01	-4.247734e+00
1.612886e+01	-4.279110e+00
1.622202e+01	-4.310475e+00
1.631572e+01	-4.341976e+00
1.640996e+01	-4.373564e+00
1.650474e+01	-4.405403e+00
1.660008e+01	-4.437414e+00
1.669596e+01	-4.469246e+00
1.679239e+01	-4.501829e+00
1.688938e+01	-4.534098e+00
1.698694e+01	-4.566486e+00
1.708505e+01	-4.599395e+00
1.718373e+01	-4.631666e+00
1.728299e+01	-4.664860e+00
1.738281e+01	-4.697576e+00
1.748322e+01	-4.730865e+00
1.758420e+01	-4.764145e+00
1.768576e+01	-4.797522e+00
1.778792e+01	-4.831142e+00
1.789066e+01	-4.864762e+00
1.799399e+01	-4.898379e+00
1.809793e+01	-4.932622e+00
1.820246e+01	-4.966352e+00
1.830760e+01	-5.000536e+00
1.841334e+01	-5.035007e+00
1.851969e+01	-5.069270e+00
1.862666e+01	-5.103924e+00
1.873425e+01	-5.138466e+00
1.884246e+01	-5.173203e+00
1.895129e+01	-5.207955e+00
1.906075e+01	-5.243047e+00
1.917085e+01	-5.278189e+00
1.928158e+01	-5.313362e+00
1.939295e+01	-5.348754e+00
1.950496e+01	-5.384401e+00
1.961762e+01	-5.419993e+00
1.973093e+01	-5.455433e+00
1.984490e+01	-5.491201e+00
1.995952e+01	-5.527430e+00
2.007480e+01	-5.563483e+00
2.019076e+01	-5.599716e+00
2.030738e+01	-5.635981e+00
2.042467e+01	-5.672454e+00
2.054264e+01	-5.708789e+00
2.066130e+01	-5.745609e+00
2.078064e+01	-5.782038e+00
2.090066e+01	-5.818996e+00
2.102139e+01	-5.856297e+00
2.114280e+01	-5.893197e+00
2.126492e+01	-5.930300e+00
2.138775e+01	-5.967275e+00
2.151128e+01	-6.004758e+00
2.163553e+01	-6.043063e+00
2.176050e+01	-6.080462e+00
2.188619e+01	-6.118001e+00
2.201260e+01	-6.155572e+00
2.213974e+01	-6.193870e+00
2.226762e+01	-6.231927e+00
2.239624e+01	-6.269918e+00
2.252560e+01	-6.308444e+00
2.265571e+01	-6.346843e+00
2.278656e+01	-6.385525e+00
2.291818e+01	-6.423839e+00
2.305055e+01	-6.462417e+00
2.318369e+01	-6.501069e+00
2.331760e+01	-6.540079e+00
2.345228e+01	-6.579488e+00
2.358774e+01	-6.617832e+00
2.372398e+01	-6.657463e+00
2.386101e+01	-6.696689e+00
2.399883e+01	-6.735884e+00
2.413745e+01	-6.775691e+00
2.427686e+01	-6.815398e+00
2.441709e+01	-6.854599e+00
2.455812e+01	-6.894478e+00
2.469997e+01	-6.934747e+00
2.484263e+01	-6.973771e+00
2.498612e+01	-7.014469e+00
2.513044e+01	-7.054580e+00
2.527559e+01	-7.094409e+00
2.542158e+01	-7.134724e+00
2.556842e+01	-7.175232e+00
2.571610e+01	-7.216077e+00
2.586463e+01	-7.256611e+00
2.601403e+01	-7.297183e+00
2.616428e+01	-7.338003e+00
2.631541e+01	-7.378320e+00
2.646740e+01	-7.419327e+00
2.662028e+01	-7.461031e+00
2.677404e+01	-7.501493e+00
2.692868e+01	-7.542779e+00
2.708422e+01	-7.583947e+00
2.724066e+01	-7.625424e+00
2.739800e+01	-7.666888e+00
2.755625e+01	-7.708108e+00
2.771541e+01	-7.750067e+00
2.787550e+01	-7.791584e+00
2.803650e+01	-7.833243e+00
2.819844e+01	-7.875055e+00
2.836131e+01	-7.916907e+00
2.852513e+01	-7.959176e+00
2.868989e+01	-8.001273e+00
2.885560e+01	-8.042938e+00
2.902227e+01	-8.085397e+00
2.918990e+01	-8.127445e+00
2.935850e+01	-8.170168e+00
2.952807e+01	-8.212255e+00
2.969863e+01	-8.254759e+00
2.987016e+01	-8.297272e+00
3.004269e+01	-8.340327e+00
3.021622e+01	-8.382966e+00
3.039075e+01	-8.425939e+00
3.056628e+01	-8.468643e+00
3.074283e+01	-8.511375e+00
3.092040e+01	-8.554711e+00
3.109900e+01	-8.597791e+00
3.127862e+01	-8.641017e+00
3.145929e+01	-8.683855e+00
3.164099e+01	-8.727194e+00
3.182375e+01	-8.770778e+00
3.200756e+01	-8.814399e+00
3.219244e+01	-8.857398e+00
3.237838e+01	-8.901130e+00
3.256540e+01	-8.944844e+00
3.275349e+01	-8.988347e+00
3.294268e+01	-9.032446e+00
3.313295e+01	-9.076075e+00
3.332433e+01	-9.120017e+00
3.351681e+01	-9.163893e+00
3.371040e+01	-9.207401e+00
3.390511e+01	-9.252050e+00
3.410094e+01	-9.295937e+00
3.429791e+01	-9.339822e+00
3.449601e+01	-9.384313e+00
3.469526e+01	-9.428368e+00
3.489566e+01	-9.473373e+00
3.509721e+01	-9.517170e+00
3.529993e+01	-9.561853e+00
3.550382e+01	-9.606729e+00
3.570889e+01	-9.650365e+00
3.591515e+01	-9.695782e+00
3.612259e+01	-9.739917e+00
3.633123e+01	-9.785179e+00
3.654108e+01	-9.830281e+00
3.675214e+01	-9.874690e+00
3.696442e+01	-9.919520e+00
3.717792e+01	-9.964620e+00
3.739266e+01	-1.000969e+01
3.760864e+01	-1.005501e+01
3.782587e+01	-1.009974e+01
3.804435e+01	-1.014505e+01
3.826409e+01	-1.018981e+01
3.848510e+01	-1.023487e+01
3.870739e+01	-1.028085e+01
3.893096e+01	-1.032639e+01
3.915583e+01	-1.037128e+01
3.938199e+01	-1.041673e+01
3.960946e+01	-1.046275e+01
3.983824e+01	-1.050797e+01
4.006834e+01	-1.055353e+01
4.029978e+01	-1.059943e+01
4.053255e+01	-1.064494e+01
4.076666e+01	-1.069067e+01
4.100213e+01	-1.073681e+01
4.123896e+01	-1.078222e+01
4.147715e+01	-1.082814e+01
4.171672e+01	-1.087471e+01
4.195767e+01	-1.092015e+01
4.220002e+01	-1.096602e+01
4.244377e+01	-1.101202e+01
4.268892e+01	-1.105915e+01
4.293549e+01	-1.110418e+01
4.318348e+01	-1.115047e+01
4.343291e+01	-1.119669e+01
4.368377e+01	-1.124311e+01
4.393609e+01	-1.128948e+01
4.418986e+01	-1.133572e+01
4.444510e+01	-1.138188e+01
4.470182e+01	-1.142760e+01
4.496001e+01	-1.147484e+01
4.521970e+01	-1.152124e+01
4.548089e+01	-1.156764e+01
4.574358e+01	-1.161382e+01
4.600779e+01	-1.166041e+01
4.627353e+01	-1.170775e+01
4.654081e+01	-1.175386e+01
4.680963e+01	-1.180048e+01
4.708000e+01	-1.184775e+01
4.735193e+01	-1.189452e+01
4.762543e+01	-1.194137e+01
4.790051e+01	-1.198801e+01
4.817719e+01	-1.203543e+01
4.845545e+01	-1.208199e+01
4.873533e+01	-1.212825e+01
4.901682e+01	-1.217606e+01
4.929994e+01	-1.222302e+01
4.958470e+01	-1.226950e+01
4.987110e+01	-1.231701e+01
5.015915e+01	-1.236395e+01
5.044887e+01	-1.241063e+01
5.074026e+01	-1.245820e+01
5.103333e+01	-1.250554e+01
5.132810e+01	-1.255273e+01
5.162457e+01	-1.260047e+01
5.192275e+01	-1.264812e+01
5.222265e+01	-1.269505e+01
5.252429e+01	-1.274167e+01
5.282767e+01	-1.278959e+01
5.313280e+01	-1.283663e+01
5.343969e+01	-1.288410e+01
5.374836e+01	-1.293168e+01
5.405880e+01	-1.297913e+01
5.437105e+01	-1.302677e+01
5.468509e+01	-1.307422e+01
5.500095e+01	-1.312203e+01
5.531863e+01	-1.316901e+01
5.563815e+01	-1.321715e+01
5.595951e+01	-1.326482e+01
5.628273e+01	-1.331244e+01
5.660782e+01	-1.336037e+01
5.693479e+01	-1.340815e+01
5.726364e+01	-1.345631e+01
5.759439e+01	-1.350441e+01
5.792705e+01	-1.355194e+01
5.826164e+01	-1.359884e+01
5.859815e+01	-1.364644e+01
5.893662e+01	-1.369496e+01
5.927703e+01	-1.374226e+01
5.961941e+01	-1.379021e+01
5.996377e+01	-1.383835e+01
6.031012e+01	-1.388601e+01
6.065847e+01	-1.393472e+01
6.100883e+01	-1.398287e+01
6.136121e+01	-1.403067e+01
6.171563e+01	-1.407794e+01
6.207210e+01	-1.412657e+01
6.243063e+01	-1.417460e+01
6.279122e+01	-1.422290e+01
6.315390e+01	-1.427023e+01
6.351868e+01	-1.431926e+01
6.388556e+01	-1.436751e+01
6.425456e+01	-1.441628e+01
6.462569e+01	-1.446361e+01
6.499897e+01	-1.451213e+01
6.537440e+01	-1.456090e+01
6.575200e+01	-1.460862e+01
6.613178e+01	-1.465754e+01
6.651375e+01	-1.470498e+01
6.689793e+01	-1.475392e+01
6.728433e+01	-1.480105e+01
6.767297e+01	-1.485071e+01
6.806384e+01	-1.489926e+01
6.845698e+01	-1.494761e+01
6.885238e+01	-1.499548e+01
6.925007e+01	-1.504381e+01
6.965005e+01	-1.509306e+01
7.005235e+01	-1.514081e+01
7.045697e+01	-1.518949e+01
7.086393e+01	-1.523831e+01
7.127323e+01	-1.528644e+01
7.168490e+01	-1.533527e+01
7.209895e+01	-1.538435e+01
7.251539e+01	-1.543301e+01
7.293424e+01	-1.548101e+01
7.335551e+01	-1.553001e+01
7.377920e+01	-1.557864e+01
7.420535e+01	-1.562755e+01
7.463396e+01	-1.567498e+01
7.506504e+01	-1.572319e+01
7.549861e+01	-1.577300e+01
7.593469e+01	-1.582183e+01
7.637328e+01	-1.587028e+01
7.681441e+01	-1.591889e+01
7.725809e+01	-1.596817e+01
7.770433e+01	-1.601645e+01
7.815315e+01	-1.606487e+01
7.860456e+01	-1.611317e+01
7.905857e+01	-1.616334e+01
7.951521e+01	-1.621196e+01
7.997449e+01	-1.626150e+01
8.043642e+01	-1.631035e+01
8.090102e+01	-1.635889e+01
8.136830e+01	-1.640638e+01
8.183828e+01	-1.645574e+01
8.231097e+01	-1.650583e+01
8.278640e+01	-1.655462e+01
8.326457e+01	-1.660240e+01
8.374550e+01	-1.665334e+01
8.422921e+01	-1.670041e+01
8.471572e+01	-1.675013e+01
8.520503e+01	-1.679914e+01
8.569717e+01	-1.684679e+01
8.619215e+01	-1.689762e+01
8.669000e+01	-1.694713e+01
8.719071e+01	-1.699514e+01
8.769432e+01	-1.704437e+01
8.820084e+01	-1.709314e+01
8.871029e+01	-1.714135e+01
8.922267e+01	-1.719017e+01
8.973802e+01	-1.724005e+01
9.025634e+01	-1.728907e+01
9.077766e+01	-1.733852e+01
9.130199e+01	-1.738618e+01
9.182935e+01	-1.743645e+01
9.235975e+01	-1.748665e+01
9.289321e+01	-1.753472e+01
9.342976e+01	-1.758481e+01
9.396941e+01	-1.763226e+01
9.451217e+01	-1.768166e+01
9.505807e+01	-1.773273e+01
9.560712e+01	-1.778023e+01
9.615934e+01	-1.783075e+01
9.671476e+01	-1.787885e+01
9.727338e+01	-1.792848e+01
9.783522e+01	-1.797856e+01
9.840032e+01	-1.802596e+01
9.896867e+01	-1.807630e+01
9.954031e+01	-1.812630e+01
1.001153e+02	-1.817542e+01
1.006935e+02	-1.822302e+01
1.012751e+02	-1.827278e+01
1.018601e+02	-1.832290e+01
1.024484e+02	-1.837123e+01
1.030402e+02	-1.842151e+01
1.036353e+02	-1.847023e+01
1.042339e+02	-1.851950e+01
1.048360e+02	-1.856876e+01
1.054415e+02	-1.861862e+01
1.060505e+02	-1.866832e+01
1.066631e+02	-1.871743e+01
1.072791e+02	-1.876579e+01
1.078988e+02	-1.881692e+01
1.085220e+02	-1.886680e+01
1.091488e+02	-1.891486e+01
1.097793e+02	-1.896415e+01
1.104133e+02	-1.901305e+01
1.110511e+02	-1.906181e+01
1.116925e+02	-1.911299e+01
1.123376e+02	-1.916249e+01
1.129865e+02	-1.921095e+01
1.136391e+02	-1.926185e+01
1.142955e+02	-1.930899e+01
1.149556e+02	-1.935950e+01
1.156196e+02	-1.940975e+01
1.162874e+02	-1.945899e+01
1.169591e+02	-1.950851e+01
1.176347e+02	-1.955716e+01
1.183141e+02	-1.960656e+01
1.189975e+02	-1.965640e+01
1.196848e+02	-1.970475e+01
1.203761e+02	-1.975419e+01
1.210714e+02	-1.980363e+01
1.217707e+02	-1.985308e+01
1.224740e+02	-1.990675e+01
1.231814e+02	-1.995268e+01
1.238929e+02	-2.000181e+01
1.246085e+02	-2.005196e+01
1.253283e+02	-2.010221e+01
1.260522e+02	-2.015171e+01
1.267802e+02	-2.020189e+01
1.275125e+02	-2.025000e+01
1.282490e+02	-2.029902e+01
1.289898e+02	-2.035196e+01
1.297348e+02	-2.039820e+01
1.304842e+02	-2.044896e+01
1.312378e+02	-2.049915e+01
1.319959e+02	-2.054750e+01
1.327583e+02	-2.059922e+01
1.335251e+02	-2.064764e+01
1.342963e+02	-2.069767e+01
1.350720e+02	-2.074566e+01
1.358522e+02	-2.079712e+01
1.366368e+02	-2.084706e+01
1.374260e+02	-2.089575e+01
1.382198e+02	-2.094626e+01
1.390182e+02	-2.099372e+01
1.398211e+02	-2.104213e+01
1.406287e+02	-2.109415e+01
1.414410e+02	-2.114396e+01
1.422579e+02	-2.119294e+01
1.430796e+02	-2.124447e+01
1.439060e+02	-2.129264e+01
1.447372e+02	-2.134222e+01
1.455732e+02	-2.139223e+01
1.464141e+02	-2.144395e+01
1.472597e+02	-2.149181e+01
1.481103e+02	-2.154062e+01
1.489658e+02	-2.159034e+01
1.498262e+02	-2.164068e+01
1.506916e+02	-2.168970e+01
1.515620e+02	-2.173913e+01
1.524374e+02	-2.178988e+01
1.533179e+02	-2.183851e+01
1.542034e+02	-2.189014e+01
1.550941e+02	-2.194011e+01
1.559899e+02	-2.198905e+01
1.568909e+02	-2.203969e+01
1.577971e+02	-2.208700e+01
1.587085e+02	-2.213764e+01
1.596252e+02	-2.218628e+01
1.605472e+02	-2.223814e+01
1.614745e+02	-2.228578e+01
1.624072e+02	-2.233784e+01
1.633453e+02	-2.238839e+01
1.642887e+02	-2.243788e+01
1.652377e+02	-2.248472e+01
1.661921e+02	-2.253514e+01
1.671520e+02	-2.258627e+01
1.681175e+02	-2.263617e+01
1.690885e+02	-2.268734e+01
1.700651e+02	-2.273458e+01
1.710474e+02	-2.278347e+01
1.720354e+02	-2.283536e+01
1.730291e+02	-2.288566e+01
1.740285e+02	-2.293254e+01
1.750337e+02	-2.298357e+01
1.760446e+02	-2.303295e+01
1.770615e+02	-2.308095e+01
1.780842e+02	-2.313252e+01
1.791128e+02	-2.318294e+01
1.801473e+02	-2.323243e+01
1.811878e+02	-2.328293e+01
1.822344e+02	-2.333325e+01
1.832870e+02	-2.338465e+01
1.843456e+02	-2.343158e+01
1.854104e+02	-2.348032e+01
1.864813e+02	-2.353293e+01
1.875584e+02	-2.358131e+01
1.886418e+02	-2.363237e+01
1.897313e+02	-2.368068e+01
1.908272e+02	-2.373005e+01
1.919294e+02	-2.377884e+01
1.930380e+02	-2.383150e+01
1.941530e+02	-2.388231e+01
1.952744e+02	-2.392906e+01
1.964023e+02	-2.397978e+01
1.975367e+02	-2.403107e+01
1.986777e+02	-2.407903e+01
1.998252e+02	-2.412976e+01
2.009794e+02	-2.417866e+01
2.021403e+02	-2.422681e+01
2.033078e+02	-2.428011e+01
2.044821e+02	-2.432975e+01
2.056632e+02	-2.437863e+01
2.068511e+02	-2.442970e+01
2.080459e+02	-2.447608e+01
2.092475e+02	-2.452782e+01
2.104561e+02	-2.458067e+01
2.116717e+02	-2.462752e+01
2.128943e+02	-2.467912e+01
2.141240e+02	-2.473065e+01
2.153608e+02	-2.478063e+01
2.166047e+02	-2.482927e+01
2.178558e+02	-2.488254e+01
2.191141e+02	-2.492870e+01
2.203797e+02	-2.497750e+01
2.216526e+02	-2.502916e+01
2.229329e+02	-2.507889e+01
2.242205e+02	-2.513012e+01
2.255156e+02	-2.517705e+01
2.268182e+02	-2.522549e+01
2.281283e+02	-2.527380e+01
2.294459e+02	-2.532851e+01
2.307712e+02	-2.537652e+01
2.321041e+02	-2.542772e+01
2.334447e+02	-2.547810e+01
2.347931e+02	-2.552754e+01
2.361493e+02	-2.557557e+01
2.375133e+02	-2.562755e+01
2.388851e+02	-2.567567e+01
2.402649e+02	-2.572879e+01
2.416527e+02	-2.577723e+01
2.430484e+02	-2.582820e+01
2.444523e+02	-2.587386e+01
2.458642e+02	-2.592927e+01
2.472843e+02	-2.597767e+01
2.487126e+02	-2.602559e+01
2.501492e+02	-2.607879e+01
2.515940e+02	-2.612780e+01
2.530472e+02	-2.617747e+01
2.545088e+02	-2.622733e+01
2.559789e+02	-2.627734e+01
2.574574e+02	-2.633020e+01
2.589444e+02	-2.637620e+01
2.604401e+02	-2.642840e+01
2.619444e+02	-2.647785e+01
2.634574e+02	-2.652737e+01
2.649791e+02	-2.657444e+01
2.665096e+02	-2.662572e+01
2.680489e+02	-2.667823e+01
2.695972e+02	-2.672630e+01
2.711544e+02	-2.677563e+01
2.727205e+02	-2.682575e+01
2.742958e+02	-2.687752e+01
2.758801e+02	-2.692952e+01
2.774736e+02	-2.697157e+01
2.790762e+02	-2.702722e+01
2.806882e+02	-2.707542e+01
2.823094e+02	-2.712300e+01
2.839400e+02	-2.717457e+01
2.855800e+02	-2.722886e+01
2.872295e+02	-2.727644e+01
2.888886e+02	-2.732682e+01
2.905572e+02	-2.737542e+01
2.922354e+02	-2.742324e+01
2.939234e+02	-2.747603e+01
2.956211e+02	-2.752469e+01
2.973286e+02	-2.757644e+01
2.990459e+02	-2.762899e+01
3.007732e+02	-2.767691e+01
3.025104e+02	-2.772567e+01
3.042577e+02	-2.777597e+01
3.060151e+02	-2.782259e+01
3.077826e+02	-2.787520e+01
3.095604e+02	-2.792289e+01
3.113484e+02	-2.797728e+01
3.131467e+02	-2.802676e+01
3.149554e+02	-2.807776e+01
3.167746e+02	-2.812518e+01
3.186043e+02	-2.817642e+01
3.204445e+02	-2.822507e+01
3.222954e+02	-2.827630e+01
3.241570e+02	-2.832844e+01
3.260293e+02	-2.837496e+01
3.279124e+02	-2.843034e+01
3.298064e+02	-2.847064e+01
3.317114e+02	-2.852467e+01
3.336273e+02	-2.857617e+01
3.355544e+02	-2.862599e+01
3.374925e+02	-2.867672e+01
3.394418e+02	-2.872810e+01
3.414024e+02	-2.877595e+01
3.433744e+02	-2.882463e+01
3.453577e+02	-2.887846e+01
3.473525e+02	-2.892776e+01
3.493588e+02	-2.897379e+01
3.513766e+02	-2.902691e+01
3.534062e+02	-2.908046e+01
3.554474e+02	-2.912562e+01
3.575005e+02	-2.917810e+01
3.595654e+02	-2.923040e+01
3.616422e+02	-2.927999e+01
3.637311e+02	-2.932860e+01
3.658320e+02	-2.937428e+01
3.679450e+02	-2.942886e+01
3.700702e+02	-2.947897e+01
3.722077e+02	-2.952830e+01
3.743576e+02	-2.958040e+01
3.765199e+02	-2.962842e+01
3.786946e+02	-2.967530e+01
3.808820e+02	-2.972725e+01
3.830819e+02	-2.977817e+01
3.852946e+02	-2.982395e+01
3.875200e+02	-2.988103e+01
3.897583e+02	-2.992093e+01
3.920096e+02	-2.998141e+01
3.942738e+02	-3.003328e+01
3.965511e+02	-3.007743e+01
3.988416e+02	-3.012723e+01
4.011452e+02	-3.017831e+01
4.034622e+02	-3.023117e+01
4.057926e+02	-3.028115e+01
4.081365e+02	-3.033091e+01
4.104938e+02	-3.038206e+01
4.128648e+02	-3.043012e+01
4.152495e+02	-3.047784e+01
4.176480e+02	-3.053548e+01
4.200603e+02	-3.057805e+01
4.224866e+02	-3.062406e+01
4.249268e+02	-3.068339e+01
4.273812e+02	-3.073245e+01
4.298497e+02	-3.078018e+01
4.323325e+02	-3.082746e+01
4.348297e+02	-3.087998e+01
4.373412e+02	-3.092974e+01
4.398673e+02	-3.097895e+01
4.424079e+02	-3.103490e+01
4.449633e+02	-3.108607e+01
4.475334e+02	-3.113249e+01
4.501183e+02	-3.117828e+01
4.527182e+02	-3.122867e+01
4.553330e+02	-3.128474e+01
4.579630e+02	-3.132778e+01
4.606082e+02	-3.137926e+01
4.632687e+02	-3.143304e+01
4.659445e+02	-3.148141e+01
4.686358e+02	-3.153240e+01
4.713426e+02	-3.158483e+01
4.740650e+02	-3.162910e+01
4.768032e+02	-3.168482e+01
4.795572e+02	-3.173224e+01
4.823271e+02	-3.178744e+01
4.851130e+02	-3.183245e+01
4.879150e+02	-3.188641e+01
4.907332e+02	-3.193411e+01
4.935676e+02	-3.199221e+01
4.964185e+02	-3.204020e+01
4.992858e+02	-3.208705e+01
5.021696e+02	-3.213460e+01
5.050701e+02	-3.218719e+01
5.079874e+02	-3.223330e+01
5.109215e+02	-3.228558e+01
5.138726e+02	-3.233488e+01
5.168407e+02	-3.238693e+01
5.198259e+02	-3.243540e+01
5.228284e+02	-3.248468e+01
5.258482e+02	-3.253692e+01
5.288855e+02	-3.259033e+01
5.319403e+02	-3.263907e+01
5.350128e+02	-3.268948e+01
5.381030e+02	-3.273468e+01
5.412111e+02	-3.278822e+01
5.443371e+02	-3.283355e+01
5.474812e+02	-3.289190e+01
5.506434e+02	-3.294755e+01
5.538239e+02	-3.298537e+01
5.570228e+02	-3.303190e+01
5.602401e+02	-3.309050e+01
5.634760e+02	-3.314077e+01
5.667306e+02	-3.318475e+01
5.700040e+02	-3.323794e+01
5.732964e+02	-3.329835e+01
5.766077e+02	-3.334182e+01
5.799382e+02	-3.339155e+01
5.832879e+02	-3.343995e+01
5.866569e+02	-3.348854e+01
5.900454e+02	-3.355156e+01
5.934535e+02	-3.359020e+01
5.968813e+02	-3.364448e+01
6.003288e+02	-3.369379e+01
6.037963e+02	-3.374571e+01
6.072838e+02	-3.379982e+01
6.107914e+02	-3.384696e+01
6.143194e+02	-3.388634e+01
6.178676e+02	-3.394262e+01
6.214364e+02	-3.399170e+01
6.250258e+02	-3.404899e+01
6.286359e+02	-3.409324e+01
6.322669e+02	-3.414443e+01
6.359189e+02	-3.419800e+01
6.395919e+02	-3.424897e+01
6.432862e+02	-3.429814e+01
6.470017e+02	-3.434840e+01
6.507388e+02	-3.440051e+01
6.544974e+02	-3.445163e+01
6.582778e+02	-3.449830e+01
6.620800e+02	-3.454492e+01
6.659041e+02	-3.459953e+01
6.697504e+02	-3.464577e+01
6.736188e+02	-3.470364e+01
6.775096e+02	-3.475069e+01
6.814229e+02	-3.480204e+01
6.853587e+02	-3.484920e+01
6.893173e+02	-3.490028e+01
6.932988e+02	-3.495406e+01
6.973033e+02	-3.499824e+01
7.013309e+02	-3.506264e+01
