Frequency(Hz)	Magnitude(dB)
1.000000e+01	-2.200535e+00
1.005776e+01	-2.220674e+00
1.011585e+01	-2.240505e+00
1.017428e+01	-2.260763e+00
1.023305e+01	-2.281247e+00
1.029215e+01	-2.301479e+00
1.035160e+01	-2.322230e+00
1.041139e+01	-2.342950e+00
1.047153e+01	-2.363876e+00
1.053201e+01	-2.385097e+00
1.059284e+01	-2.406677e+00
1.065403e+01	-2.427637e+00
1.071556e+01	-2.449109e+00
1.077746e+01	-2.470661e+00
1.083971e+01	-2.492609e+00
1.090232e+01	-2.514427e+00
1.096529e+01	-2.536383e+00
1.102862e+01	-2.558568e+00
1.109232e+01	-2.580867e+00
1.115639e+01	-2.603589e+00
1.122083e+01	-2.626025e+00
1.128564e+01	-2.648902e+00
1.135083e+01	-2.672007e+00
1.141639e+01	-2.694845e+00
1.148233e+01	-2.717981e+00
1.154865e+01	-2.741327e+00
1.161536e+01	-2.764961e+00
1.168245e+01	-2.788543e+00
1.174992e+01	-2.812350e+00
1.181779e+01	-2.836484e+00
1.188605e+01	-2.860470e+00
1.195470e+01	-2.884653e+00
1.202375e+01	-2.908840e+00
1.209320e+01	-2.933494e+00
1.216305e+01	-2.957725e+00
1.223330e+01	-2.982711e+00
1.230396e+01	-3.007777e+00
1.237503e+01	-3.032565e+00
1.244651e+01	-3.057828e+00
1.251840e+01	-3.083339e+00
1.259070e+01	-3.109007e+00
1.266343e+01	-3.134705e+00
1.273657e+01	-3.160484e+00
1.281014e+01	-3.186320e+00
1.288413e+01	-3.212576e+00
1.295855e+01	-3.238542e+00
1.303339e+01	-3.265032e+00
1.310867e+01	-3.291428e+00
1.318439e+01	-3.318069e+00
1.326054e+01	-3.344839e+00
1.333713e+01	-3.371805e+00
1.341417e+01	-3.398847e+00
1.349165e+01	-3.425948e+00
1.356958e+01	-3.453434e+00
1.364795e+01	-3.480958e+00
1.372678e+01	-3.508788e+00
1.380607e+01	-3.536478e+00
1.388581e+01	-3.564434e+00
1.396602e+01	-3.592410e+00
1.404668e+01	-3.620545e+00
1.412782e+01	-3.649154e+00
1.420942e+01	-3.677674e+00
1.429149e+01	-3.706276e+00
1.437404e+01	-3.734838e+00
1.445706e+01	-3.763618e+00
1.454057e+01	-3.792884e+00
1.462455e+01	-3.821918e+00
1.470902e+01	-3.851576e+00
1.479398e+01	-3.881017e+00
1.487943e+01	-3.910582e+00
1.496537e+01	-3.940368e+00
1.505181e+01	-3.970306e+00
1.513875e+01	-4.000340e+00
1.522619e+01	-4.030617e+00
1.531414e+01	-4.060878e+00
1.540259e+01	-4.091299e+00
1.549156e+01	-4.122145e+00
1.558103e+01	-4.152272e+00
1.567103e+01	-4.183674e+00
1.576155e+01	-4.214531e+00
1.585258e+01	-4.245735e+00
1.594415e+01	-4.276778e+00
1.603624e+01	-4.308560e+00
1.612886e+01	-4.339517e+00
1.622202e+01	-4.371259e+00
1.631572e+01	-4.403547e+00
1.640996e+01	-4.435348e+00
1.650474e+01	-4.467202e+00
1.660008e+01	-4.499588e+00
1.669596e+01	-4.531855e+00
1.679239e+01	-4.564282e+00
1.688938e+01	-4.597027e+00
1.698694e+01	-4.629494e+00
1.708505e+01	-4.661971e+00
1.718373e+01	-4.695504e+00
1.728299e+01	-4.728591e+00
1.738281e+01	-4.762005e+00
1.748322e+01	-4.795112e+00
1.758420e+01	-4.828880e+00
1.768576e+01	-4.862608e+00
1.778792e+01	-4.896309e+00
1.789066e+01	-4.930014e+00
1.799399e+01	-4.964308e+00
1.809793e+01	-4.998202e+00
1.820246e+01	-5.032513e+00
1.830760e+01	-5.066650e+00
1.841334e+01	-5.101163e+00
1.851969e+01	-5.136084e+00
1.862666e+01	-5.170683e+00
1.873425e+01	-5.205703e+00
1.884246e+01	-5.240683e+00
1.895129e+01	-5.276130e+00
1.906075e+01	-5.311089e+00
1.917085e+01	-5.346359e+00
1.928158e+01	-5.381384e+00
1.939295e+01	-5.417490e+00
1.950496e+01	-5.453368e+00
1.961762e+01	-5.489139e+00
1.973093e+01	-5.525249e+00
1.984490e+01	-5.561062e+00
1.995952e+01	-5.597141e+00
2.007480e+01	-5.633394e+00
2.019076e+01	-5.669679e+00
2.030738e+01	-5.706617e+00
2.042467e+01	-5.742867e+00
2.054264e+01	-5.779696e+00
2.066130e+01	-5.816735e+00
2.078064e+01	-5.853391e+00
2.090066e+01	-5.890464e+00
2.102139e+01	-5.927786e+00
2.114280e+01	-5.965199e+00
2.126492e+01	-6.002511e+00
2.138775e+01	-6.040013e+00
2.151128e+01	-6.077818e+00
2.163553e+01	-6.115317e+00
2.176050e+01	-6.153106e+00
2.188619e+01	-6.191226e+00
2.201260e+01	-6.229395e+00
2.213974e+01	-6.267330e+00
2.226762e+01	-6.305607e+00
2.239624e+01	-6.343856e+00
2.252560e+01	-6.382504e+00
2.265571e+01	-6.421119e+00
2.278656e+01	-6.459774e+00
2.291818e+01	-6.498718e+00
2.305055e+01	-6.537464e+00
2.318369e+01	-6.576357e+00
2.331760e+01	-6.615634e+00
2.345228e+01	-6.654630e+00
2.358774e+01	-6.693549e+00
2.372398e+01	-6.733605e+00
2.386101e+01	-6.772600e+00
2.399883e+01	-6.812236e+00
2.413745e+01	-6.852361e+00
2.427686e+01	-6.892026e+00
2.441709e+01	-6.931817e+00
2.455812e+01	-6.971486e+00
2.469997e+01	-7.011088e+00
2.484263e+01	-7.051483e+00
2.498612e+01	-7.092140e+00
2.513044e+01	-7.132233e+00
2.527559e+01	-7.172433e+00
2.542158e+01	-7.212795e+00
2.556842e+01	-7.253478e+00
2.571610e+01	-7.294566e+00
2.586463e+01	-7.334933e+00
2.601403e+01	-7.375688e+00
2.616428e+01	-7.417055e+00
2.631541e+01	-7.457669e+00
2.646740e+01	-7.498784e+00
2.662028e+01	-7.539743e+00
2.677404e+01	-7.581662e+00
2.692868e+01	-7.622191e+00
2.708422e+01	-7.663770e+00
2.724066e+01	-7.705519e+00
2.739800e+01	-7.747232e+00
2.755625e+01	-7.788960e+00
2.771541e+01	-7.830558e+00
2.787550e+01	-7.872399e+00
2.803650e+01	-7.914024e+00
2.819844e+01	-7.955901e+00
2.836131e+01	-7.998568e+00
2.852513e+01	-8.040490e+00
2.868989e+01	-8.082557e+00
2.885560e+01	-8.124729e+00
2.902227e+01	-8.167636e+00
2.918990e+01	-8.209004e+00
2.935850e+01	-8.251996e+00
2.952807e+01	-8.294740e+00
2.969863e+01	-8.337220e+00
2.987016e+01	-8.379994e+00
3.004269e+01	-8.422862e+00
3.021622e+01	-8.465362e+00
3.039075e+01	-8.509000e+00
3.056628e+01	-8.551855e+00
3.074283e+01	-8.594354e+00
3.092040e+01	-8.637985e+00
3.109900e+01	-8.681510e+00
3.127862e+01	-8.724258e+00
3.145929e+01	-8.767857e+00
3.164099e+01	-8.811332e+00
3.182375e+01	-8.854448e+00
3.200756e+01	-8.898543e+00
3.219244e+01	-8.941763e+00
3.237838e+01	-8.985233e+00
3.256540e+01	-9.029633e+00
3.275349e+01	-9.073353e+00
3.294268e+01	-9.117288e+00
3.313295e+01	-9.160497e+00
3.332433e+01	-9.204490e+00
3.351681e+01	-9.248759e+00
3.371040e+01	-9.292830e+00
3.390511e+01	-9.336941e+00
3.410094e+01	-9.381232e+00
3.429791e+01	-9.425835e+00
3.449601e+01	-9.470252e+00
3.469526e+01	-9.514470e+00
3.489566e+01	-9.559195e+00
3.509721e+01	-9.603572e+00
3.529993e+01	-9.648072e+00
3.550382e+01	-9.692137e+00
3.570889e+01	-9.737540e+00
3.591515e+01	-9.782119e+00
3.612259e+01	-9.826772e+00
3.633123e+01	-9.871432e+00
3.654108e+01	-9.916926e+00
3.675214e+01	-9.961722e+00
3.696442e+01	-1.000661e+01
3.717792e+01	-1.005182e+01
3.739266e+01	-1.009699e+01
3.760864e+01	-1.014188e+01
3.782587e+01	-1.018769e+01
3.804435e+01	-1.023199e+01
3.826409e+01	-1.027773e+01
3.848510e+01	-1.032306e+01
3.870739e+01	-1.036819e+01
3.893096e+01	-1.041415e+01
3.915583e+01	-1.045960e+01
3.938199e+01	-1.050490e+01
3.960946e+01	-1.055045e+01
3.983824e+01	-1.059585e+01
4.006834e+01	-1.064136e+01
4.029978e+01	-1.068779e+01
4.053255e+01	-1.073352e+01
4.076666e+01	-1.077960e+01
4.100213e+01	-1.082540e+01
4.123896e+01	-1.087125e+01
4.147715e+01	-1.091691e+01
4.171672e+01	-1.096320e+01
4.195767e+01	-1.100894e+01
4.220002e+01	-1.105491e+01
4.244377e+01	-1.110201e+01
4.268892e+01	-1.114661e+01
4.293549e+01	-1.119406e+01
4.318348e+01	-1.123966e+01
4.343291e+01	-1.128589e+01
4.368377e+01	-1.133227e+01
4.393609e+01	-1.137845e+01
4.418986e+01	-1.142563e+01
4.444510e+01	-1.147183e+01
4.470182e+01	-1.151834e+01
4.496001e+01	-1.156431e+01
4.521970e+01	-1.161058e+01
4.548089e+01	-1.165779e+01
4.574358e+01	-1.170479e+01
4.600779e+01	-1.175102e+01
4.627353e+01	-1.179760e+01
4.654081e+01	-1.184404e+01
4.680963e+01	-1.189108e+01
4.708000e+01	-1.193826e+01
4.735193e+01	-1.198550e+01
4.762543e+01	-1.203192e+01
4.790051e+01	-1.207769e+01
4.817719e+01	-1.212605e+01
4.845545e+01	-1.217326e+01
4.873533e+01	-1.221972e+01
4.901682e+01	-1.226744e+01
4.929994e+01	-1.231349e+01
4.958470e+01	-1.236162e+01
4.987110e+01	-1.240820e+01
5.015915e+01	-1.245518e+01
5.044887e+01	-1.250238e+01
5.074026e+01	-1.254952e+01
5.103333e+01	-1.259718e+01
5.132810e+01	-1.264406e+01
5.162457e+01	-1.269124e+01
5.192275e+01	-1.273830e+01
5.222265e+01	-1.278546e+01
5.252429e+01	-1.283463e+01
5.282767e+01	-1.288098e+01
5.313280e+01	-1.292857e+01
5.343969e+01	-1.297654e+01
5.374836e+01	-1.302364e+01
5.405880e+01	-1.307130e+01
5.437105e+01	-1.311831e+01
5.468509e+01	-1.316599e+01
5.500095e+01	-1.321392e+01
5.531863e+01	-1.326073e+01
5.563815e+01	-1.330849e+01
5.595951e+01	-1.335684e+01
5.628273e+01	-1.340465e+01
5.660782e+01	-1.345223e+01
5.693479e+01	-1.350034e+01
5.726364e+01	-1.354833e+01
5.759439e+01	-1.359616e+01
5.792705e+01	-1.364363e+01
5.826164e+01	-1.369173e+01
5.859815e+01	-1.373968e+01
5.893662e+01	-1.378785e+01
5.927703e+01	-1.383555e+01
5.961941e+01	-1.388369e+01
5.996377e+01	-1.393150e+01
6.031012e+01	-1.397967e+01
6.065847e+01	-1.402691e+01
6.100883e+01	-1.407470e+01
6.136121e+01	-1.412402e+01
6.171563e+01	-1.417147e+01
6.207210e+01	-1.421941e+01
6.243063e+01	-1.426790e+01
6.279122e+01	-1.431684e+01
6.315390e+01	-1.436445e+01
6.351868e+01	-1.441268e+01
6.388556e+01	-1.446058e+01
6.425456e+01	-1.450922e+01
6.462569e+01	-1.455713e+01
6.499897e+01	-1.460544e+01
6.537440e+01	-1.465418e+01
6.575200e+01	-1.470194e+01
6.613178e+01	-1.475053e+01
6.651375e+01	-1.479842e+01
6.689793e+01	-1.484732e+01
6.728433e+01	-1.489626e+01
6.767297e+01	-1.494399e+01
6.806384e+01	-1.499198e+01
6.845698e+01	-1.504039e+01
6.885238e+01	-1.508984e+01
6.925007e+01	-1.513760e+01
6.965005e+01	-1.518572e+01
7.005235e+01	-1.523438e+01
7.045697e+01	-1.528347e+01
7.086393e+01	-1.533187e+01
7.127323e+01	-1.538074e+01
7.168490e+01	-1.542959e+01
7.209895e+01	-1.547738e+01
7.251539e+01	-1.552711e+01
7.293424e+01	-1.557389e+01
7.335551e+01	-1.562372e+01
7.377920e+01	-1.567163e+01
7.420535e+01	-1.571965e+01
7.463396e+01	-1.576974e+01
7.506504e+01	-1.581735e+01
7.549861e+01	-1.586723e+01
7.593469e+01	-1.591565e+01
7.637328e+01	-1.596480e+01
7.681441e+01	-1.601321e+01
7.725809e+01	-1.606248e+01
7.770433e+01	-1.611125e+01
7.815315e+01	-1.615894e+01
7.860456e+01	-1.620874e+01
7.905857e+01	-1.625688e+01
7.951521e+01	-1.630616e+01
7.997449e+01	-1.635516e+01
8.043642e+01	-1.640357e+01
8.090102e+01	-1.645142e+01
8.136830e+01	-1.650173e+01
8.183828e+01	-1.654989e+01
8.231097e+01	-1.659935e+01
8.278640e+01	-1.664776e+01
8.326457e+01	-1.669701e+01
8.374550e+01	-1.674646e+01
8.422921e+01	-1.679590e+01
8.471572e+01	-1.684527e+01
8.520503e+01	-1.689345e+01
8.569717e+01	-1.694268e+01
8.619215e+01	-1.699212e+01
8.669000e+01	-1.704100e+01
8.719071e+01	-1.708929e+01
8.769432e+01	-1.713797e+01
8.820084e+01	-1.718748e+01
8.871029e+01	-1.723565e+01
8.922267e+01	-1.728633e+01
8.973802e+01	-1.733509e+01
9.025634e+01	-1.738416e+01
9.077766e+01	-1.743321e+01
9.130199e+01	-1.748222e+01
9.182935e+01	-1.753189e+01
9.235975e+01	-1.758083e+01
9.289321e+01	-1.762906e+01
9.342976e+01	-1.767827e+01
9.396941e+01	-1.772956e+01
9.451217e+01	-1.777752e+01
9.505807e+01	-1.782571e+01
9.560712e+01	-1.787618e+01
9.615934e+01	-1.792520e+01
9.671476e+01	-1.797363e+01
9.727338e+01	-1.802350e+01
9.783522e+01	-1.807271e+01
9.840032e+01	-1.812268e+01
9.896867e+01	-1.817136e+01
9.954031e+01	-1.821952e+01
1.001153e+02	-1.826888e+01
1.006935e+02	-1.831933e+01
1.012751e+02	-1.836832e+01
1.018601e+02	-1.841881e+01
1.024484e+02	-1.846489e+01
1.030402e+02	-1.851792e+01
1.036353e+02	-1.856625e+01
1.042339e+02	-1.861580e+01
1.048360e+02	-1.866305e+01
1.054415e+02	-1.871404e+01
1.060505e+02	-1.876244e+01
1.066631e+02	-1.881285e+01
1.072791e+02	-1.886145e+01
1.078988e+02	-1.891226e+01
1.085220e+02	-1.896033e+01
1.091488e+02	-1.901130e+01
1.097793e+02	-1.905805e+01
1.104133e+02	-1.910714e+01
1.110511e+02	-1.915947e+01
1.116925e+02	-1.920829e+01
1.123376e+02	-1.925865e+01
1.129865e+02	-1.930697e+01
1.136391e+02	-1.935549e+01
1.142955e+02	-1.940609e+01
1.149556e+02	-1.945472e+01
1.156196e+02	-1.950411e+01
1.162874e+02	-1.955350e+01
1.169591e+02	-1.960440e+01
1.176347e+02	-1.965279e+01
1.183141e+02	-1.970360e+01
1.189975e+02	-1.975142e+01
1.196848e+02	-1.980124e+01
1.203761e+02	-1.985028e+01
1.210714e+02	-1.990046e+01
1.217707e+02	-1.995013e+01
1.224740e+02	-1.999950e+01
1.231814e+02	-2.004688e+01
1.238929e+02	-2.009753e+01
1.246085e+02	-2.014777e+01
1.253283e+02	-2.019719e+01
1.260522e+02	-2.024747e+01
1.267802e+02	-2.029825e+01
1.275125e+02	-2.034688e+01
1.282490e+02	-2.039620e+01
1.289898e+02	-2.044567e+01
1.297348e+02	-2.049348e+01
1.304842e+02	-2.054419e+01
1.312378e+02	-2.059484e+01
1.319959e+02	-2.064179e+01
1.327583e+02	-2.069040e+01
1.335251e+02	-2.074340e+01
1.342963e+02	-2.079247e+01
1.350720e+02	-2.084312e+01
1.358522e+02	-2.089222e+01
1.366368e+02	-2.094113e+01
1.374260e+02	-2.098966e+01
1.382198e+02	-2.104051e+01
1.390182e+02	-2.109102e+01
1.398211e+02	-2.114044e+01
1.406287e+02	-2.119065e+01
1.414410e+02	-2.124237e+01
1.422579e+02	-2.128873e+01
1.430796e+02	-2.133970e+01
1.439060e+02	-2.138857e+01
1.447372e+02	-2.143796e+01
1.455732e+02	-2.148905e+01
1.464141e+02	-2.153748e+01
1.472597e+02	-2.158853e+01
1.481103e+02	-2.163707e+01
1.489658e+02	-2.168621e+01
1.498262e+02	-2.173464e+01
1.506916e+02	-2.178436e+01
1.515620e+02	-2.183690e+01
1.524374e+02	-2.188622e+01
1.533179e+02	-2.193570e+01
1.542034e+02	-2.198613e+01
1.550941e+02	-2.203635e+01
1.559899e+02	-2.208515e+01
1.568909e+02	-2.213385e+01
1.577971e+02	-2.218394e+01
1.587085e+02	-2.223431e+01
1.596252e+02	-2.228406e+01
1.605472e+02	-2.233686e+01
1.614745e+02	-2.238101e+01
1.624072e+02	-2.243112e+01
1.633453e+02	-2.248292e+01
1.642887e+02	-2.253047e+01
1.652377e+02	-2.258139e+01
1.661921e+02	-2.263378e+01
1.671520e+02	-2.268254e+01
1.681175e+02	-2.272867e+01
1.690885e+02	-2.278052e+01
1.700651e+02	-2.283093e+01
1.710474e+02	-2.288081e+01
1.720354e+02	-2.293237e+01
1.730291e+02	-2.297905e+01
1.740285e+02	-2.302860e+01
1.750337e+02	-2.308038e+01
1.760446e+02	-2.312842e+01
1.770615e+02	-2.318045e+01
1.780842e+02	-2.322948e+01
1.791128e+02	-2.328322e+01
1.801473e+02	-2.332894e+01
1.811878e+02	-2.337895e+01
1.822344e+02	-2.342642e+01
1.832870e+02	-2.347962e+01
1.843456e+02	-2.352905e+01
1.854104e+02	-2.357699e+01
1.864813e+02	-2.362680e+01
1.875584e+02	-2.367722e+01
1.886418e+02	-2.372687e+01
1.897313e+02	-2.377929e+01
1.908272e+02	-2.382724e+01
1.919294e+02	-2.387724e+01
1.930380e+02	-2.392630e+01
1.941530e+02	-2.397730e+01
1.952744e+02	-2.402693e+01
1.964023e+02	-2.407525e+01
1.975367e+02	-2.412701e+01
1.986777e+02	-2.417640e+01
1.998252e+02	-2.422617e+01
2.009794e+02	-2.427420e+01
2.021403e+02	-2.432381e+01
2.033078e+02	-2.437642e+01
2.044821e+02	-2.442469e+01
2.056632e+02	-2.447498e+01
2.068511e+02	-2.452313e+01
2.080459e+02	-2.457572e+01
2.092475e+02	-2.462792e+01
2.104561e+02	-2.467723e+01
2.116717e+02	-2.472356e+01
2.128943e+02	-2.477209e+01
2.141240e+02	-2.482529e+01
2.153608e+02	-2.487666e+01
2.166047e+02	-2.492363e+01
2.178558e+02	-2.497329e+01
2.191141e+02	-2.502172e+01
2.203797e+02	-2.507289e+01
2.216526e+02	-2.512662e+01
2.229329e+02	-2.517431e+01
2.242205e+02	-2.522699e+01
2.255156e+02	-2.527356e+01
2.268182e+02	-2.532247e+01
2.281283e+02	-2.537597e+01
2.294459e+02	-2.542529e+01
2.307712e+02	-2.547252e+01
2.321041e+02	-2.552364e+01
2.334447e+02	-2.557025e+01
2.347931e+02	-2.561991e+01
2.361493e+02	-2.567527e+01
2.375133e+02	-2.572000e+01
2.388851e+02	-2.577287e+01
2.402649e+02	-2.582187e+01
2.416527e+02	-2.587234e+01
2.430484e+02	-2.592318e+01
2.444523e+02	-2.597306e+01
2.458642e+02	-2.602510e+01
2.472843e+02	-2.607482e+01
2.487126e+02	-2.612110e+01
2.501492e+02	-2.617257e+01
2.515940e+02	-2.622305e+01
2.530472e+02	-2.627265e+01
2.545088e+02	-2.632340e+01
2.559789e+02	-2.637271e+01
2.574574e+02	-2.642146e+01
2.589444e+02	-2.647350e+01
2.604401e+02	-2.652156e+01
2.619444e+02	-2.657334e+01
2.634574e+02	-2.662250e+01
2.649791e+02	-2.667165e+01
2.665096e+02	-2.672238e+01
2.680489e+02	-2.677226e+01
2.695972e+02	-2.682445e+01
2.711544e+02	-2.686829e+01
2.727205e+02	-2.692296e+01
2.742958e+02	-2.697069e+01
2.758801e+02	-2.702263e+01
2.774736e+02	-2.707346e+01
2.790762e+02	-2.712004e+01
2.806882e+02	-2.717114e+01
2.823094e+02	-2.722527e+01
2.839400e+02	-2.727506e+01
2.855800e+02	-2.731887e+01
2.872295e+02	-2.737081e+01
2.888886e+02	-2.742277e+01
2.905572e+02	-2.747399e+01
2.922354e+02	-2.752262e+01
2.939234e+02	-2.757116e+01
2.956211e+02	-2.762019e+01
2.973286e+02	-2.767394e+01
2.990459e+02	-2.772498e+01
3.007732e+02	-2.777347e+01
3.025104e+02	-2.781903e+01
3.042577e+02	-2.787141e+01
3.060151e+02	-2.791928e+01
3.077826e+02	-2.797120e+01
3.095604e+02	-2.802548e+01
3.113484e+02	-2.807192e+01
3.131467e+02	-2.812474e+01
3.149554e+02	-2.817274e+01
3.167746e+02	-2.822030e+01
3.186043e+02	-2.827149e+01
3.204445e+02	-2.832608e+01
3.222954e+02	-2.837977e+01
3.241570e+02	-2.842122e+01
3.260293e+02	-2.847350e+01
3.279124e+02	-2.852338e+01
3.298064e+02	-2.857443e+01
3.317114e+02	-2.862438e+01
3.336273e+02	-2.867300e+01
3.355544e+02	-2.871966e+01
3.374925e+02	-2.877465e+01
3.394418e+02	-2.881991e+01
3.414024e+02	-2.887359e+01
3.433744e+02	-2.892138e+01
3.453577e+02	-2.897613e+01
3.473525e+02	-2.902745e+01
3.493588e+02	-2.907234e+01
3.513766e+02	-2.912112e+01
3.534062e+02	-2.917090e+01
3.554474e+02	-2.922393e+01
3.575005e+02	-2.927661e+01
3.595654e+02	-2.932553e+01
3.616422e+02	-2.937265e+01
3.637311e+02	-2.942875e+01
3.658320e+02	-2.947520e+01
3.679450e+02	-2.952621e+01
3.700702e+02	-2.956977e+01
3.722077e+02	-2.962576e+01
3.743576e+02	-2.967901e+01
3.765199e+02	-2.972480e+01
3.786946e+02	-2.977202e+01
3.808820e+02	-2.982067e+01
3.830819e+02	-2.986645e+01
3.852946e+02	-2.992489e+01
3.875200e+02	-2.997113e+01
3.897583e+02	-3.002159e+01
3.920096e+02	-3.008002e+01
3.942738e+02	-3.012644e+01
3.965511e+02	-3.017773e+01
3.988416e+02	-3.022491e+01
4.011452e+02	-3.026863e+01
4.034622e+02	-3.032962e+01
4.057926e+02	-3.038056e+01
4.081365e+02	-3.042653e+01
4.104938e+02	-3.047448e+01
4.128648e+02	-3.052690e+01
4.152495e+02	-3.057272e+01
4.176480e+02	-3.062724e+01
4.200603e+02	-3.067506e+01
4.224866e+02	-3.073350e+01
4.249268e+02	-3.077607e+01
4.273812e+02	-3.082374e+01
4.298497e+02	-3.087609e+01
4.323325e+02	-3.092364e+01
4.348297e+02	-3.098353e+01
4.373412e+02	-3.102901e+01
4.398673e+02	-3.107891e+01
4.424079e+02	-3.112504e+01
4.449633e+02	-3.117985e+01
4.475334e+02	-3.122824e+01
4.501183e+02	-3.128280e+01
4.527182e+02	-3.132908e+01
4.553330e+02	-3.137650e+01
4.579630e+02	-3.142572e+01
4.606082e+02	-3.147989e+01
4.632687e+02	-3.152782e+01
4.659445e+02	-3.157822e+01
4.686358e+02	-3.163146e+01
4.713426e+02	-3.167898e+01
4.740650e+02	-3.172713e+01
4.768032e+02	-3.177516e+01
4.795572e+02	-3.183020e+01
4.823271e+02	-3.188075e+01
4.851130e+02	-3.192470e+01
4.879150e+02	-3.197895e+01
4.907332e+02	-3.203066e+01
4.935676e+02	-3.207943e+01
4.964185e+02	-3.213341e+01
4.992858e+02	-3.217493e+01
5.021696e+02	-3.223366e+01
5.050701e+02	-3.228283e+01
5.079874e+02	-3.232869e+01
5.109215e+02	-3.238659e+01
5.138726e+02	-3.243094e+01
5.168407e+02	-3.248481e+01
5.198259e+02	-3.253717e+01
5.228284e+02	-3.258207e+01
5.258482e+02	-3.263853e+01
5.288855e+02	-3.268503e+01
5.319403e+02	-3.273444e+01
5.350128e+02	-3.278981e+01
5.381030e+02	-3.282944e+01
5.412111e+02	-3.288539e+01
5.443371e+02	-3.293270e+01
5.474812e+02	-3.297795e+01
5.506434e+02	-3.304048e+01
5.538239e+02	-3.307966e+01
5.570228e+02	-3.313416e+01
5.602401e+02	-3.318063e+01
5.634760e+02	-3.324380e+01
5.667306e+02	-3.328991e+01
5.700040e+02	-3.334018e+01
5.732964e+02	-3.338524e+01
5.766077e+02	-3.343375e+01
5.799382e+02	-3.348502e+01
5.832879e+02	-3.353666e+01
5.866569e+02	-3.357958e+01
5.900454e+02	-3.363418e+01
5.934535e+02	-3.368592e+01
5.968813e+02	-3.373862e+01
6.003288e+02	-3.379373e+01
6.037963e+02	-3.384134e+01
6.072838e+02	-3.389587e+01
6.107914e+02	-3.394594e+01
6.143194e+02	-3.398825e+01
6.178676e+02	-3.404111e+01
6.214364e+02	-3.409105e+01
6.250258e+02	-3.413732e+01
6.286359e+02	-3.418989e+01
6.322669e+02	-3.424202e+01
6.359189e+02	-3.429305e+01
6.395919e+02	-3.434646e+01
6.432862e+02	-3.438839e+01
6.470017e+02	-3.444805e+01
6.507388e+02	-3.449611e+01
6.544974e+02	-3.454792e+01
6.582778e+02	-3.459133e+01
6.620800e+02	-3.464707e+01
6.659041e+02	-3.469383e+01
6.697504e+02	-3.474493e+01
6.736188e+02	-3.480134e+01
6.775096e+02	-3.483972e+01
6.814229e+02	-3.489011e+01
6.853587e+02	-3.494146e+01
6.893173e+02	-3.498941e+01
6.932988e+02	-3.504670e+01
6.973033e+02	-3.511010e+01
7.013309e+02	-3.515216e+01
