Frequency(Hz)	Magnitude(dB)
1.000000e+01	-1.887329e+00
1.005776e+01	-1.905043e+00
1.011585e+01	-1.922843e+00
1.017428e+01	-1.940805e+00
1.023305e+01	-1.958913e+00
1.029215e+01	-1.977096e+00
1.035160e+01	-1.995430e+00
1.041139e+01	-2.014014e+00
1.047153e+01	-2.032600e+00
1.053201e+01	-2.051357e+00
1.059284e+01	-2.070317e+00
1.065403e+01	-2.089204e+00
1.071556e+01	-2.108556e+00
1.077746e+01	-2.127726e+00
1.083971e+01	-2.147340e+00
1.090232e+01	-2.166949e+00
1.096529e+01	-2.186569e+00
1.102862e+01	-2.206544e+00
1.109232e+01	-2.226247e+00
1.115639e+01	-2.246548e+00
1.122083e+01	-2.266838e+00
1.128564e+01	-2.287213e+00
1.135083e+01	-2.307840e+00
1.141639e+01	-2.328480e+00
1.148233e+01	-2.349267e+00
1.154865e+01	-2.370095e+00
1.161536e+01	-2.391443e+00
1.168245e+01	-2.412839e+00
1.174992e+01	-2.434182e+00
1.181779e+01	-2.455628e+00
1.188605e+01	-2.477407e+00
1.195470e+01	-2.499010e+00
1.202375e+01	-2.521170e+00
1.209320e+01	-2.543239e+00
1.216305e+01	-2.565299e+00
1.223330e+01	-2.587587e+00
1.230396e+01	-2.610355e+00
1.237503e+01	-2.632954e+00
1.244651e+01	-2.655555e+00
1.251840e+01	-2.678654e+00
1.259070e+01	-2.701612e+00
1.266343e+01	-2.724972e+00
1.273657e+01	-2.748275e+00
1.281014e+01	-2.771834e+00
1.288413e+01	-2.795906e+00
1.295855e+01	-2.819147e+00
1.303339e+01	-2.843428e+00
1.310867e+01	-2.867536e+00
1.318439e+01	-2.891688e+00
1.326054e+01	-2.916095e+00
1.333713e+01	-2.940825e+00
1.341417e+01	-2.965321e+00
1.349165e+01	-2.990087e+00
1.356958e+01	-3.015054e+00
1.364795e+01	-3.040073e+00
1.372678e+01	-3.065394e+00
1.380607e+01	-3.091017e+00
1.388581e+01	-3.116407e+00
1.396602e+01	-3.142239e+00
1.404668e+01	-3.168015e+00
1.412782e+01	-3.194049e+00
1.420942e+01	-3.220364e+00
1.429149e+01	-3.246245e+00
1.437404e+01	-3.272700e+00
1.445706e+01	-3.299227e+00
1.454057e+01	-3.326087e+00
1.462455e+01	-3.352640e+00
1.470902e+01	-3.379974e+00
1.479398e+01	-3.406942e+00
1.487943e+01	-3.434422e+00
1.496537e+01	-3.461795e+00
1.505181e+01	-3.489245e+00
1.513875e+01	-3.516932e+00
1.522619e+01	-3.544929e+00
1.531414e+01	-3.572536e+00
1.540259e+01	-3.600939e+00
1.549156e+01	-3.629235e+00
1.558103e+01	-3.657242e+00
1.567103e+01	-3.685841e+00
1.576155e+01	-3.714692e+00
1.585258e+01	-3.743489e+00
1.594415e+01	-3.772561e+00
1.603624e+01	-3.801724e+00
1.612886e+01	-3.830682e+00
1.622202e+01	-3.860453e+00
1.631572e+01	-3.889726e+00
1.640996e+01	-3.919414e+00
1.650474e+01	-3.949203e+00
1.660008e+01	-3.979122e+00
1.669596e+01	-4.009292e+00
1.679239e+01	-4.039329e+00
1.688938e+01	-4.070002e+00
1.698694e+01	-4.100345e+00
1.708505e+01	-4.131215e+00
1.718373e+01	-4.161792e+00
1.728299e+01	-4.192511e+00
1.738281e+01	-4.223715e+00
1.748322e+01	-4.255017e+00
1.758420e+01	-4.286253e+00
1.768576e+01	-4.317760e+00
1.778792e+01	-4.349317e+00
1.789066e+01	-4.381195e+00
1.799399e+01	-4.412827e+00
1.809793e+01	-4.444890e+00
1.820246e+01	-4.477208e+00
1.830760e+01	-4.508993e+00
1.841334e+01	-4.541762e+00
1.851969e+01	-4.573831e+00
1.862666e+01	-4.606692e+00
1.873425e+01	-4.639375e+00
1.884246e+01	-4.672386e+00
1.895129e+01	-4.705075e+00
1.906075e+01	-4.738624e+00
1.917085e+01	-4.771885e+00
1.928158e+01	-4.805224e+00
1.939295e+01	-4.838754e+00
1.950496e+01	-4.872498e+00
1.961762e+01	-4.905986e+00
1.973093e+01	-4.940082e+00
1.984490e+01	-4.974262e+00
1.995952e+01	-5.008129e+00
2.007480e+01	-5.042664e+00
2.019076e+01	-5.077067e+00
2.030738e+01	-5.111342e+00
2.042467e+01	-5.146394e+00
2.054264e+01	-5.181283e+00
2.066130e+01	-5.215870e+00
2.078064e+01	-5.251063e+00
2.090066e+01	-5.286459e+00
2.102139e+01	-5.321661e+00
2.114280e+01	-5.356963e+00
2.126492e+01	-5.392714e+00
2.138775e+01	-5.428335e+00
2.151128e+01	-5.463814e+00
2.163553e+01	-5.499839e+00
2.176050e+01	-5.535949e+00
2.188619e+01	-5.571577e+00
2.201260e+01	-5.608027e+00
2.213974e+01	-5.644308e+00
2.226762e+01	-5.680830e+00
2.239624e+01	-5.717535e+00
2.252560e+01	-5.753937e+00
2.265571e+01	-5.790756e+00
2.278656e+01	-5.827516e+00
2.291818e+01	-5.864528e+00
2.305055e+01	-5.901975e+00
2.318369e+01	-5.938959e+00
2.331760e+01	-5.976125e+00
2.345228e+01	-6.013786e+00
2.358774e+01	-6.051515e+00
2.372398e+01	-6.088935e+00
2.386101e+01	-6.126768e+00
2.399883e+01	-6.164680e+00
2.413745e+01	-6.202415e+00
2.427686e+01	-6.240749e+00
2.441709e+01	-6.278786e+00
2.455812e+01	-6.317421e+00
2.469997e+01	-6.355829e+00
2.484263e+01	-6.393885e+00
2.498612e+01	-6.432714e+00
2.513044e+01	-6.471158e+00
2.527559e+01	-6.510063e+00
2.542158e+01	-6.548980e+00
2.556842e+01	-6.588173e+00
2.571610e+01	-6.626990e+00
2.586463e+01	-6.666128e+00
2.601403e+01	-6.705650e+00
2.616428e+01	-6.745022e+00
2.631541e+01	-6.784321e+00
2.646740e+01	-6.823892e+00
2.662028e+01	-6.864147e+00
2.677404e+01	-6.903449e+00
2.692868e+01	-6.943524e+00
2.708422e+01	-6.983305e+00
2.724066e+01	-7.023636e+00
2.739800e+01	-7.063611e+00
2.755625e+01	-7.103579e+00
2.771541e+01	-7.144001e+00
2.787550e+01	-7.184522e+00
2.803650e+01	-7.225100e+00
2.819844e+01	-7.265636e+00
2.836131e+01	-7.306203e+00
2.852513e+01	-7.347148e+00
2.868989e+01	-7.387965e+00
2.885560e+01	-7.428918e+00
2.902227e+01	-7.469691e+00
2.918990e+01	-7.510749e+00
2.935850e+01	-7.551832e+00
2.952807e+01	-7.593710e+00
2.969863e+01	-7.635043e+00
2.987016e+01	-7.676107e+00
3.004269e+01	-7.717843e+00
3.021622e+01	-7.759212e+00
3.039075e+01	-7.801240e+00
3.056628e+01	-7.842764e+00
3.074283e+01	-7.885061e+00
3.092040e+01	-7.926750e+00
3.109900e+01	-7.968400e+00
3.127862e+01	-8.010853e+00
3.145929e+01	-8.053138e+00
3.164099e+01	-8.094934e+00
3.182375e+01	-8.137401e+00
3.200756e+01	-8.179774e+00
3.219244e+01	-8.222540e+00
3.237838e+01	-8.264585e+00
3.256540e+01	-8.307672e+00
3.275349e+01	-8.349769e+00
3.294268e+01	-8.392687e+00
3.313295e+01	-8.436152e+00
3.332433e+01	-8.478616e+00
3.351681e+01	-8.521391e+00
3.371040e+01	-8.564899e+00
3.390511e+01	-8.607344e+00
3.410094e+01	-8.650882e+00
3.429791e+01	-8.694088e+00
3.449601e+01	-8.737195e+00
3.469526e+01	-8.780763e+00
3.489566e+01	-8.824362e+00
3.509721e+01	-8.867425e+00
3.529993e+01	-8.910900e+00
3.550382e+01	-8.955200e+00
3.570889e+01	-8.998598e+00
3.591515e+01	-9.042161e+00
3.612259e+01	-9.086214e+00
3.633123e+01	-9.129859e+00
3.654108e+01	-9.173891e+00
3.675214e+01	-9.218221e+00
3.696442e+01	-9.261959e+00
3.717792e+01	-9.305997e+00
3.739266e+01	-9.350532e+00
3.760864e+01	-9.395264e+00
3.782587e+01	-9.438383e+00
3.804435e+01	-9.483583e+00
3.826409e+01	-9.527739e+00
3.848510e+01	-9.572075e+00
3.870739e+01	-9.616460e+00
3.893096e+01	-9.661476e+00
3.915583e+01	-9.705677e+00
3.938199e+01	-9.750710e+00
3.960946e+01	-9.794942e+00
3.983824e+01	-9.839813e+00
4.006834e+01	-9.885037e+00
4.029978e+01	-9.929614e+00
4.053255e+01	-9.975040e+00
4.076666e+01	-1.002014e+01
4.100213e+01	-1.006477e+01
4.123896e+01	-1.011018e+01
4.147715e+01	-1.015572e+01
4.171672e+01	-1.020075e+01
4.195767e+01	-1.024632e+01
4.220002e+01	-1.029065e+01
4.244377e+01	-1.033638e+01
4.268892e+01	-1.038188e+01
4.293549e+01	-1.042750e+01
4.318348e+01	-1.047303e+01
4.343291e+01	-1.051836e+01
4.368377e+01	-1.056392e+01
4.393609e+01	-1.060996e+01
4.418986e+01	-1.065583e+01
4.444510e+01	-1.070104e+01
4.470182e+01	-1.074735e+01
4.496001e+01	-1.079261e+01
4.521970e+01	-1.083849e+01
4.548089e+01	-1.088441e+01
4.574358e+01	-1.093028e+01
4.600779e+01	-1.097702e+01
4.627353e+01	-1.102332e+01
4.654081e+01	-1.106841e+01
4.680963e+01	-1.111464e+01
4.708000e+01	-1.116088e+01
4.735193e+01	-1.120776e+01
4.762543e+01	-1.125397e+01
4.790051e+01	-1.129964e+01
4.817719e+01	-1.134655e+01
4.845545e+01	-1.139223e+01
4.873533e+01	-1.143925e+01
4.901682e+01	-1.148510e+01
4.929994e+01	-1.153261e+01
4.958470e+01	-1.157851e+01
4.987110e+01	-1.162489e+01
5.015915e+01	-1.167147e+01
5.044887e+01	-1.171835e+01
5.074026e+01	-1.176496e+01
5.103333e+01	-1.181166e+01
5.132810e+01	-1.185831e+01
5.162457e+01	-1.190540e+01
5.192275e+01	-1.195185e+01
5.222265e+01	-1.199872e+01
5.252429e+01	-1.204503e+01
5.282767e+01	-1.209240e+01
5.313280e+01	-1.213926e+01
5.343969e+01	-1.218654e+01
5.374836e+01	-1.223367e+01
5.405880e+01	-1.228057e+01
5.437105e+01	-1.232818e+01
5.468509e+01	-1.237520e+01
5.500095e+01	-1.242177e+01
5.531863e+01	-1.246917e+01
5.563815e+01	-1.251622e+01
5.595951e+01	-1.256449e+01
5.628273e+01	-1.261101e+01
5.660782e+01	-1.265766e+01
5.693479e+01	-1.270555e+01
5.726364e+01	-1.275262e+01
5.759439e+01	-1.280009e+01
5.792705e+01	-1.284743e+01
5.826164e+01	-1.289557e+01
5.859815e+01	-1.294272e+01
5.893662e+01	-1.299014e+01
5.927703e+01	-1.303780e+01
5.961941e+01	-1.308529e+01
5.996377e+01	-1.313262e+01
6.031012e+01	-1.318022e+01
6.065847e+01	-1.322852e+01
6.100883e+01	-1.327559e+01
6.136121e+01	-1.332363e+01
6.171563e+01	-1.337007e+01
6.207210e+01	-1.341903e+01
6.243063e+01	-1.346693e+01
6.279122e+01	-1.351422e+01
6.315390e+01	-1.356212e+01
6.351868e+01	-1.361010e+01
6.388556e+01	-1.365816e+01
6.425456e+01	-1.370561e+01
6.462569e+01	-1.375363e+01
6.499897e+01	-1.380055e+01
6.537440e+01	-1.384940e+01
6.575200e+01	-1.389815e+01
6.613178e+01	-1.394595e+01
6.651375e+01	-1.399304e+01
6.689793e+01	-1.404154e+01
6.728433e+01	-1.409011e+01
6.767297e+01	-1.413780e+01
6.806384e+01	-1.418552e+01
6.845698e+01	-1.423474e+01
6.885238e+01	-1.428216e+01
6.925007e+01	-1.432881e+01
6.965005e+01	-1.437810e+01
7.005235e+01	-1.442620e+01
7.045697e+01	-1.447555e+01
7.086393e+01	-1.452279e+01
7.127323e+01	-1.457184e+01
7.168490e+01	-1.461939e+01
7.209895e+01	-1.466797e+01
7.251539e+01	-1.471742e+01
7.293424e+01	-1.476437e+01
7.335551e+01	-1.481387e+01
7.377920e+01	-1.486147e+01
7.420535e+01	-1.490993e+01
7.463396e+01	-1.495900e+01
7.506504e+01	-1.500740e+01
7.549861e+01	-1.505585e+01
7.593469e+01	-1.510364e+01
7.637328e+01	-1.515219e+01
7.681441e+01	-1.519979e+01
7.725809e+01	-1.524857e+01
7.770433e+01	-1.529817e+01
7.815315e+01	-1.534621e+01
7.860456e+01	-1.539435e+01
7.905857e+01	-1.544334e+01
7.951521e+01	-1.549267e+01
7.997449e+01	-1.554136e+01
8.043642e+01	-1.558980e+01
8.090102e+01	-1.563784e+01
8.136830e+01	-1.568638e+01
8.183828e+01	-1.573588e+01
8.231097e+01	-1.578496e+01
8.278640e+01	-1.583258e+01
8.326457e+01	-1.588170e+01
8.374550e+01	-1.593060e+01
8.422921e+01	-1.597893e+01
8.471572e+01	-1.602739e+01
8.520503e+01	-1.607714e+01
8.569717e+01	-1.612403e+01
8.619215e+01	-1.617505e+01
8.669000e+01	-1.622305e+01
8.719071e+01	-1.627151e+01
8.769432e+01	-1.631999e+01
8.820084e+01	-1.636873e+01
8.871029e+01	-1.641892e+01
8.922267e+01	-1.646815e+01
8.973802e+01	-1.651717e+01
9.025634e+01	-1.656602e+01
9.077766e+01	-1.661498e+01
9.130199e+01	-1.666448e+01
9.182935e+01	-1.671278e+01
9.235975e+01	-1.676092e+01
9.289321e+01	-1.680933e+01
9.342976e+01	-1.685867e+01
9.396941e+01	-1.690754e+01
9.451217e+01	-1.695652e+01
9.505807e+01	-1.700692e+01
9.560712e+01	-1.705449e+01
9.615934e+01	-1.710367e+01
9.671476e+01	-1.715297e+01
9.727338e+01	-1.720178e+01
9.783522e+01	-1.725198e+01
9.840032e+01	-1.730098e+01
9.896867e+01	-1.734987e+01
9.954031e+01	-1.739957e+01
1.001153e+02	-1.744744e+01
1.006935e+02	-1.749736e+01
1.012751e+02	-1.754572e+01
1.018601e+02	-1.759535e+01
1.024484e+02	-1.764469e+01
1.030402e+02	-1.769427e+01
1.036353e+02	-1.774284e+01
1.042339e+02	-1.779248e+01
1.048360e+02	-1.784062e+01
1.054415e+02	-1.789012e+01
1.060505e+02	-1.793900e+01
1.066631e+02	-1.798797e+01
1.072791e+02	-1.803760e+01
1.078988e+02	-1.808816e+01
1.085220e+02	-1.813624e+01
1.091488e+02	-1.818601e+01
1.097793e+02	-1.823407e+01
1.104133e+02	-1.828398e+01
1.110511e+02	-1.833492e+01
1.116925e+02	-1.838402e+01
1.123376e+02	-1.843302e+01
1.129865e+02	-1.848165e+01
1.136391e+02	-1.853250e+01
1.142955e+02	-1.857875e+01
1.149556e+02	-1.862814e+01
1.156196e+02	-1.867868e+01
1.162874e+02	-1.872789e+01
1.169591e+02	-1.877702e+01
1.176347e+02	-1.882736e+01
1.183141e+02	-1.887662e+01
1.189975e+02	-1.892597e+01
1.196848e+02	-1.897541e+01
1.203761e+02	-1.902588e+01
1.210714e+02	-1.907318e+01
1.217707e+02	-1.912317e+01
1.224740e+02	-1.917295e+01
1.231814e+02	-1.922124e+01
1.238929e+02	-1.927107e+01
1.246085e+02	-1.932114e+01
1.253283e+02	-1.937097e+01
1.260522e+02	-1.942007e+01
1.267802e+02	-1.947079e+01
1.275125e+02	-1.951991e+01
1.282490e+02	-1.956799e+01
1.289898e+02	-1.961870e+01
1.297348e+02	-1.966803e+01
1.304842e+02	-1.971691e+01
1.312378e+02	-1.976714e+01
1.319959e+02	-1.981659e+01
1.327583e+02	-1.986605e+01
1.335251e+02	-1.991466e+01
1.342963e+02	-1.996534e+01
1.350720e+02	-2.001344e+01
1.358522e+02	-2.006432e+01
1.366368e+02	-2.011232e+01
1.374260e+02	-2.016211e+01
1.382198e+02	-2.021189e+01
1.390182e+02	-2.026203e+01
1.398211e+02	-2.031258e+01
1.406287e+02	-2.036038e+01
1.414410e+02	-2.041169e+01
1.422579e+02	-2.046002e+01
1.430796e+02	-2.051008e+01
1.439060e+02	-2.055903e+01
1.447372e+02	-2.060944e+01
1.455732e+02	-2.065865e+01
1.464141e+02	-2.070774e+01
1.472597e+02	-2.075792e+01
1.481103e+02	-2.080497e+01
1.489658e+02	-2.085629e+01
1.498262e+02	-2.090588e+01
1.506916e+02	-2.095607e+01
1.515620e+02	-2.100741e+01
1.524374e+02	-2.105676e+01
1.533179e+02	-2.110693e+01
1.542034e+02	-2.115521e+01
1.550941e+02	-2.120261e+01
1.559899e+02	-2.125400e+01
1.568909e+02	-2.130318e+01
1.577971e+02	-2.135222e+01
1.587085e+02	-2.140249e+01
1.596252e+02	-2.145312e+01
1.605472e+02	-2.150314e+01
1.614745e+02	-2.155447e+01
1.624072e+02	-2.160217e+01
1.633453e+02	-2.165161e+01
1.642887e+02	-2.170430e+01
1.652377e+02	-2.175196e+01
1.661921e+02	-2.180183e+01
1.671520e+02	-2.185131e+01
1.681175e+02	-2.190103e+01
1.690885e+02	-2.195007e+01
1.700651e+02	-2.199673e+01
1.710474e+02	-2.204985e+01
1.720354e+02	-2.209979e+01
1.730291e+02	-2.215095e+01
1.740285e+02	-2.219793e+01
1.750337e+02	-2.224498e+01
1.760446e+02	-2.229842e+01
1.770615e+02	-2.234705e+01
1.780842e+02	-2.239728e+01
1.791128e+02	-2.244539e+01
1.801473e+02	-2.249818e+01
1.811878e+02	-2.254778e+01
1.822344e+02	-2.259682e+01
1.832870e+02	-2.264656e+01
1.843456e+02	-2.269323e+01
1.854104e+02	-2.274800e+01
1.864813e+02	-2.279385e+01
1.875584e+02	-2.284432e+01
1.886418e+02	-2.289403e+01
1.897313e+02	-2.294665e+01
1.908272e+02	-2.299439e+01
1.919294e+02	-2.304593e+01
1.930380e+02	-2.309583e+01
1.941530e+02	-2.314292e+01
1.952744e+02	-2.319449e+01
1.964023e+02	-2.324441e+01
1.975367e+02	-2.329382e+01
1.986777e+02	-2.334362e+01
1.998252e+02	-2.339452e+01
2.009794e+02	-2.344274e+01
2.021403e+02	-2.349416e+01
2.033078e+02	-2.354508e+01
2.044821e+02	-2.359175e+01
2.056632e+02	-2.364430e+01
2.068511e+02	-2.369169e+01
2.080459e+02	-2.374303e+01
2.092475e+02	-2.379358e+01
2.104561e+02	-2.384220e+01
2.116717e+02	-2.389348e+01
2.128943e+02	-2.394280e+01
2.141240e+02	-2.399100e+01
2.153608e+02	-2.403990e+01
2.166047e+02	-2.409297e+01
2.178558e+02	-2.414234e+01
2.191141e+02	-2.419053e+01
2.203797e+02	-2.424073e+01
2.216526e+02	-2.429219e+01
2.229329e+02	-2.434084e+01
2.242205e+02	-2.439079e+01
2.255156e+02	-2.444028e+01
2.268182e+02	-2.449147e+01
2.281283e+02	-2.453912e+01
2.294459e+02	-2.458762e+01
2.307712e+02	-2.464103e+01
2.321041e+02	-2.468965e+01
2.334447e+02	-2.474111e+01
2.347931e+02	-2.479190e+01
2.361493e+02	-2.484030e+01
2.375133e+02	-2.489084e+01
2.388851e+02	-2.493878e+01
2.402649e+02	-2.499236e+01
2.416527e+02	-2.503803e+01
2.430484e+02	-2.509002e+01
2.444523e+02	-2.513864e+01
2.458642e+02	-2.518992e+01
2.472843e+02	-2.523826e+01
2.487126e+02	-2.528973e+01
2.501492e+02	-2.533582e+01
2.515940e+02	-2.538455e+01
2.530472e+02	-2.543829e+01
2.545088e+02	-2.549011e+01
2.559789e+02	-2.554002e+01
2.574574e+02	-2.558654e+01
2.589444e+02	-2.563863e+01
2.604401e+02	-2.568604e+01
2.619444e+02	-2.573772e+01
2.634574e+02	-2.578631e+01
2.649791e+02	-2.583840e+01
2.665096e+02	-2.588860e+01
2.680489e+02	-2.593855e+01
2.695972e+02	-2.598923e+01
2.711544e+02	-2.603912e+01
2.727205e+02	-2.608713e+01
2.742958e+02	-2.613932e+01
2.758801e+02	-2.618503e+01
2.774736e+02	-2.623521e+01
2.790762e+02	-2.629017e+01
2.806882e+02	-2.634077e+01
2.823094e+02	-2.638794e+01
2.839400e+02	-2.644008e+01
2.855800e+02	-2.648889e+01
2.872295e+02	-2.653473e+01
2.888886e+02	-2.659043e+01
2.905572e+02	-2.663819e+01
2.922354e+02	-2.668625e+01
2.939234e+02	-2.673821e+01
2.956211e+02	-2.678821e+01
2.973286e+02	-2.683852e+01
2.990459e+02	-2.688588e+01
3.007732e+02	-2.693440e+01
3.025104e+02	-2.698808e+01
3.042577e+02	-2.703789e+01
3.060151e+02	-2.708873e+01
3.077826e+02	-2.713768e+01
3.095604e+02	-2.718947e+01
3.113484e+02	-2.723837e+01
3.131467e+02	-2.728496e+01
3.149554e+02	-2.734012e+01
3.167746e+02	-2.738651e+01
3.186043e+02	-2.743793e+01
3.204445e+02	-2.748922e+01
3.222954e+02	-2.753682e+01
3.241570e+02	-2.758855e+01
3.260293e+02	-2.763663e+01
3.279124e+02	-2.768775e+01
3.298064e+02	-2.773985e+01
3.317114e+02	-2.778499e+01
3.336273e+02	-2.783682e+01
3.355544e+02	-2.788676e+01
3.374925e+02	-2.793522e+01
3.394418e+02	-2.798765e+01
3.414024e+02	-2.803688e+01
3.433744e+02	-2.808473e+01
3.453577e+02	-2.813472e+01
3.473525e+02	-2.819073e+01
3.493588e+02	-2.823287e+01
3.513766e+02	-2.828565e+01
3.534062e+02	-2.833731e+01
3.554474e+02	-2.839036e+01
3.575005e+02	-2.843727e+01
3.595654e+02	-2.848698e+01
3.616422e+02	-2.853724e+01
3.637311e+02	-2.858611e+01
3.658320e+02	-2.863971e+01
3.679450e+02	-2.868804e+01
3.700702e+02	-2.873553e+01
3.722077e+02	-2.879421e+01
3.743576e+02	-2.883550e+01
3.765199e+02	-2.888510e+01
3.786946e+02	-2.893906e+01
3.808820e+02	-2.898610e+01
3.830819e+02	-2.903424e+01
3.852946e+02	-2.909072e+01
3.875200e+02	-2.913678e+01
3.897583e+02	-2.919007e+01
3.920096e+02	-2.923877e+01
3.942738e+02	-2.929408e+01
3.965511e+02	-2.933797e+01
3.988416e+02	-2.939189e+01
4.011452e+02	-2.944287e+01
4.034622e+02	-2.949172e+01
4.057926e+02	-2.953972e+01
4.081365e+02	-2.958681e+01
4.104938e+02	-2.964095e+01
4.128648e+02	-2.969038e+01
4.152495e+02	-2.973717e+01
4.176480e+02	-2.979394e+01
4.200603e+02	-2.984052e+01
4.224866e+02	-2.989345e+01
4.249268e+02	-2.994135e+01
4.273812e+02	-2.998673e+01
4.298497e+02	-3.003756e+01
4.323325e+02	-3.008899e+01
4.348297e+02	-3.014026e+01
4.373412e+02	-3.018923e+01
4.398673e+02	-3.024200e+01
4.424079e+02	-3.028904e+01
4.449633e+02	-3.034171e+01
4.475334e+02	-3.039439e+01
4.501183e+02	-3.044582e+01
4.527182e+02	-3.049568e+01
4.553330e+02	-3.054418e+01
4.579630e+02	-3.058823e+01
4.606082e+02	-3.063975e+01
4.632687e+02	-3.068880e+01
4.659445e+02	-3.073901e+01
4.686358e+02	-3.079200e+01
4.713426e+02	-3.084293e+01
4.740650e+02	-3.088735e+01
4.768032e+02	-3.094456e+01
4.795572e+02	-3.099172e+01
4.823271e+02	-3.103987e+01
4.851130e+02	-3.108567e+01
4.879150e+02	-3.114209e+01
4.907332e+02	-3.119734e+01
4.935676e+02	-3.123342e+01
4.964185e+02	-3.129082e+01
4.992858e+02	-3.134451e+01
5.021696e+02	-3.139306e+01
5.050701e+02	-3.144140e+01
5.079874e+02	-3.149647e+01
5.109215e+02	-3.154709e+01
5.138726e+02	-3.159511e+01
5.168407e+02	-3.164091e+01
5.198259e+02	-3.169782e+01
5.228284e+02	-3.174499e+01
5.258482e+02	-3.179734e+01
5.288855e+02	-3.184974e+01
5.319403e+02	-3.189963e+01
5.350128e+02	-3.194239e+01
5.381030e+02	-3.199633e+01
5.412111e+02	-3.204271e+01
5.443371e+02	-3.209492e+01
5.474812e+02	-3.214740e+01
5.506434e+02	-3.218916e+01
5.538239e+02	-3.224536e+01
5.570228e+02	-3.229739e+01
5.602401e+02	-3.234027e+01
5.634760e+02	-3.239343e+01
5.667306e+02	-3.244704e+01
5.700040e+02	-3.249087e+01
5.732964e+02	-3.254171e+01
5.766077e+02	-3.259521e+01
5.799382e+02	-3.264494e+01
5.832879e+02	-3.269630e+01
5.866569e+02	-3.275053e+01
5.900454e+02	-3.280394e+01
5.934535e+02	-3.284669e+01
5.968813e+02	-3.289685e+01
6.003288e+02	-3.294872e+01
6.037963e+02	-3.299383e+01
6.072838e+02	-3.304936e+01
6.107914e+02	-3.309976e+01
6.143194e+02	-3.315221e+01
6.178676e+02	-3.320000e+01
6.214364e+02	-3.325106e+01
6.250258e+02	-3.330166e+01
6.286359e+02	-3.334859e+01
6.322669e+02	-3.340686e+01
6.359189e+02	-3.345048e+01
6.395919e+02	-3.350890e+01
6.432862e+02	-3.355237e+01
6.470017e+02	-3.360517e+01
6.507388e+02	-3.365125e+01
6.544974e+02	-3.369838e+01
6.582778e+02	-3.375544e+01
6.620800e+02	-3.380757e+01
6.659041e+02	-3.385479e+01
6.697504e+02	-3.389824e+01
6.736188e+02	-3.396405e+01
6.775096e+02	-3.400401e+01
6.814229e+02	-3.404736e+01
6.853587e+02	-3.410435e+01
6.893173e+02	-3.415989e+01
6.932988e+02	-3.421005e+01
6.973033e+02	-3.425861e+01
7.013309e+02	-3.430258e+01
