Frequency(Hz)	Magnitude(dB)
1.000000e+01	-1.691352e-05
1.005776e+01	-1.710947e-05
1.011585e+01	-1.730768e-05
1.017428e+01	-1.750820e-05
1.023305e+01	-1.771104e-05
1.029215e+01	-1.791622e-05
1.035160e+01	-1.812379e-05
1.041139e+01	-1.833376e-05
1.047153e+01	-1.854616e-05
1.053201e+01	-1.876102e-05
1.059284e+01	-1.897837e-05
1.065403e+01	-1.919824e-05
1.071556e+01	-1.942066e-05
1.077746e+01	-1.964565e-05
1.083971e+01	-1.987325e-05
1.090232e+01	-2.010348e-05
1.096529e+01	-2.033639e-05
1.102862e+01	-2.057199e-05
1.109232e+01	-2.081032e-05
1.115639e+01	-2.105142e-05
1.122083e+01	-2.129530e-05
1.128564e+01	-2.154201e-05
1.135083e+01	-2.179158e-05
1.141639e+01	-2.204404e-05
1.148233e+01	-2.229943e-05
1.154865e+01	-2.255777e-05
1.161536e+01	-2.281911e-05
1.168245e+01	-2.308348e-05
1.174992e+01	-2.335090e-05
1.181779e+01	-2.362143e-05
1.188605e+01	-2.389509e-05
1.195470e+01	-2.417192e-05
1.202375e+01	-2.445196e-05
1.209320e+01	-2.473524e-05
1.216305e+01	-2.502180e-05
1.223330e+01	-2.531169e-05
1.230396e+01	-2.560493e-05
1.237503e+01	-2.590157e-05
1.244651e+01	-2.620165e-05
1.251840e+01	-2.650520e-05
1.259070e+01	-2.681227e-05
1.266343e+01	-2.712289e-05
1.273657e+01	-2.743712e-05
1.281014e+01	-2.775498e-05
1.288413e+01	-2.807653e-05
1.295855e+01	-2.840181e-05
1.303339e+01	-2.873085e-05
1.310867e+01	-2.906370e-05
1.318439e+01	-2.940041e-05
1.326054e+01	-2.974102e-05
1.333713e+01	-3.008558e-05
1.341417e+01	-3.043413e-05
1.349165e+01	-3.078672e-05
1.356958e+01	-3.114339e-05
1.364795e+01	-3.150419e-05
1.372678e+01	-3.186917e-05
1.380607e+01	-3.223839e-05
1.388581e+01	-3.261187e-05
1.396602e+01	-3.298969e-05
1.404668e+01	-3.337188e-05
1.412782e+01	-3.375851e-05
1.420942e+01	-3.414961e-05
1.429149e+01	-3.454524e-05
1.437404e+01	-3.494545e-05
1.445706e+01	-3.535030e-05
1.454057e+01	-3.575984e-05
1.462455e+01	-3.617413e-05
1.470902e+01	-3.659322e-05
1.479398e+01	-3.701716e-05
1.487943e+01	-3.744601e-05
1.496537e+01	-3.787983e-05
1.505181e+01	-3.831868e-05
1.513875e+01	-3.876261e-05
1.522619e+01	-3.921168e-05
1.531414e+01	-3.966596e-05
1.540259e+01	-4.012550e-05
1.549156e+01	-4.059036e-05
1.558103e+01	-4.106061e-05
1.567103e+01	-4.153630e-05
1.576155e+01	-4.201751e-05
1.585258e+01	-4.250429e-05
1.594415e+01	-4.299671e-05
1.603624e+01	-4.349484e-05
1.612886e+01	-4.399874e-05
1.622202e+01	-4.450847e-05
1.631572e+01	-4.502411e-05
1.640996e+01	-4.554573e-05
1.650474e+01	-4.607339e-05
1.660008e+01	-4.660716e-05
1.669596e+01	-4.714711e-05
1.679239e+01	-4.769332e-05
1.688938e+01	-4.824586e-05
1.698694e+01	-4.880480e-05
1.708505e+01	-4.937021e-05
1.718373e+01	-4.994217e-05
1.728299e+01	-5.052076e-05
1.738281e+01	-5.110606e-05
1.748322e+01	-5.169813e-05
1.758420e+01	-5.229707e-05
1.768576e+01	-5.290294e-05
1.778792e+01	-5.351583e-05
1.789066e+01	-5.413582e-05
1.799399e+01	-5.476300e-05
1.809793e+01	-5.539744e-05
1.820246e+01	-5.603923e-05
1.830760e+01	-5.668845e-05
1.841334e+01	-5.734520e-05
1.851969e+01	-5.800956e-05
1.862666e+01	-5.868161e-05
1.873425e+01	-5.936145e-05
1.884246e+01	-6.004916e-05
1.895129e+01	-6.074484e-05
1.906075e+01	-6.144859e-05
1.917085e+01	-6.216048e-05
1.928158e+01	-6.288062e-05
1.939295e+01	-6.360910e-05
1.950496e+01	-6.434603e-05
1.961762e+01	-6.509149e-05
1.973093e+01	-6.584559e-05
1.984490e+01	-6.660842e-05
1.995952e+01	-6.738009e-05
2.007480e+01	-6.816070e-05
2.019076e+01	-6.895036e-05
2.030738e+01	-6.974916e-05
2.042467e+01	-7.055722e-05
2.054264e+01	-7.137464e-05
2.066130e+01	-7.220152e-05
2.078064e+01	-7.303799e-05
2.090066e+01	-7.388415e-05
2.102139e+01	-7.474011e-05
2.114280e+01	-7.560599e-05
2.126492e+01	-7.648190e-05
2.138775e+01	-7.736795e-05
2.151128e+01	-7.826428e-05
2.163553e+01	-7.917098e-05
2.176050e+01	-8.008819e-05
2.188619e+01	-8.101603e-05
2.201260e+01	-8.195461e-05
2.213974e+01	-8.290407e-05
2.226762e+01	-8.386453e-05
2.239624e+01	-8.483611e-05
2.252560e+01	-8.581895e-05
2.265571e+01	-8.681318e-05
2.278656e+01	-8.781892e-05
2.291818e+01	-8.883632e-05
2.305055e+01	-8.986550e-05
2.318369e+01	-9.090661e-05
2.331760e+01	-9.195977e-05
2.345228e+01	-9.302514e-05
2.358774e+01	-9.410285e-05
2.372398e+01	-9.519305e-05
2.386101e+01	-9.629587e-05
2.399883e+01	-9.741148e-05
2.413745e+01	-9.854000e-05
2.427686e+01	-9.968160e-05
2.441709e+01	-1.008364e-04
2.455812e+01	-1.020046e-04
2.469997e+01	-1.031864e-04
2.484263e+01	-1.043818e-04
2.498612e+01	-1.055911e-04
2.513044e+01	-1.068144e-04
2.527559e+01	-1.080518e-04
2.542158e+01	-1.093036e-04
2.556842e+01	-1.105699e-04
2.571610e+01	-1.118509e-04
2.586463e+01	-1.131467e-04
2.601403e+01	-1.144575e-04
2.616428e+01	-1.157835e-04
2.631541e+01	-1.171249e-04
2.646740e+01	-1.184818e-04
2.662028e+01	-1.198544e-04
2.677404e+01	-1.212429e-04
2.692868e+01	-1.226476e-04
2.708422e+01	-1.240684e-04
2.724066e+01	-1.255058e-04
2.739800e+01	-1.269598e-04
2.755625e+01	-1.284306e-04
2.771541e+01	-1.299185e-04
2.787550e+01	-1.314236e-04
2.803650e+01	-1.329462e-04
2.819844e+01	-1.344864e-04
2.836131e+01	-1.360444e-04
2.852513e+01	-1.376205e-04
2.868989e+01	-1.392149e-04
2.885560e+01	-1.408277e-04
2.902227e+01	-1.424592e-04
2.918990e+01	-1.441096e-04
2.935850e+01	-1.457791e-04
2.952807e+01	-1.474680e-04
2.969863e+01	-1.491764e-04
2.987016e+01	-1.509046e-04
3.004269e+01	-1.526528e-04
3.021622e+01	-1.544213e-04
3.039075e+01	-1.562103e-04
3.056628e+01	-1.580200e-04
3.074283e+01	-1.598507e-04
3.092040e+01	-1.617026e-04
3.109900e+01	-1.635759e-04
3.127862e+01	-1.654710e-04
3.145929e+01	-1.673879e-04
3.164099e+01	-1.693271e-04
3.182375e+01	-1.712888e-04
3.200756e+01	-1.732732e-04
3.219244e+01	-1.752806e-04
3.237838e+01	-1.773112e-04
3.256540e+01	-1.793654e-04
3.275349e+01	-1.814433e-04
3.294268e+01	-1.835453e-04
3.313295e+01	-1.856717e-04
3.332433e+01	-1.878227e-04
3.351681e+01	-1.899987e-04
3.371040e+01	-1.921998e-04
3.390511e+01	-1.944264e-04
3.410094e+01	-1.966789e-04
3.429791e+01	-1.989574e-04
3.449601e+01	-2.012623e-04
3.469526e+01	-2.035940e-04
3.489566e+01	-2.059526e-04
3.509721e+01	-2.083385e-04
3.529993e+01	-2.107521e-04
3.550382e+01	-2.131937e-04
3.570889e+01	-2.156636e-04
3.591515e+01	-2.181620e-04
3.612259e+01	-2.206894e-04
3.633123e+01	-2.232461e-04
3.654108e+01	-2.258324e-04
3.675214e+01	-2.284487e-04
3.696442e+01	-2.310952e-04
3.717792e+01	-2.337725e-04
3.739266e+01	-2.364807e-04
3.760864e+01	-2.392203e-04
3.782587e+01	-2.419917e-04
3.804435e+01	-2.447952e-04
3.826409e+01	-2.476311e-04
3.848510e+01	-2.504999e-04
3.870739e+01	-2.534019e-04
3.893096e+01	-2.563376e-04
3.915583e+01	-2.593072e-04
3.938199e+01	-2.623113e-04
3.960946e+01	-2.653501e-04
3.983824e+01	-2.684242e-04
4.006834e+01	-2.715339e-04
4.029978e+01	-2.746796e-04
4.053255e+01	-2.778617e-04
4.076666e+01	-2.810807e-04
4.100213e+01	-2.843370e-04
4.123896e+01	-2.876310e-04
4.147715e+01	-2.909632e-04
4.171672e+01	-2.943339e-04
4.195767e+01	-2.977438e-04
4.220002e+01	-3.011931e-04
4.244377e+01	-3.046824e-04
4.268892e+01	-3.082121e-04
4.293549e+01	-3.117827e-04
4.318348e+01	-3.153946e-04
4.343291e+01	-3.190484e-04
4.368377e+01	-3.227446e-04
4.393609e+01	-3.264835e-04
4.418986e+01	-3.302658e-04
4.444510e+01	-3.340918e-04
4.470182e+01	-3.379622e-04
4.496001e+01	-3.418775e-04
4.521970e+01	-3.458381e-04
4.548089e+01	-3.498445e-04
4.574358e+01	-3.538974e-04
4.600779e+01	-3.579972e-04
4.627353e+01	-3.621446e-04
4.654081e+01	-3.663399e-04
4.680963e+01	-3.705839e-04
4.708000e+01	-3.748770e-04
4.735193e+01	-3.792199e-04
4.762543e+01	-3.836131e-04
4.790051e+01	-3.880571e-04
4.817719e+01	-3.925527e-04
4.845545e+01	-3.971003e-04
4.873533e+01	-4.017006e-04
4.901682e+01	-4.063542e-04
4.929994e+01	-4.110617e-04
4.958470e+01	-4.158237e-04
4.987110e+01	-4.206409e-04
5.015915e+01	-4.255139e-04
5.044887e+01	-4.304434e-04
5.074026e+01	-4.354299e-04
5.103333e+01	-4.404743e-04
5.132810e+01	-4.455770e-04
5.162457e+01	-4.507389e-04
5.192275e+01	-4.559605e-04
5.222265e+01	-4.612427e-04
5.252429e+01	-4.665860e-04
5.282767e+01	-4.719913e-04
5.313280e+01	-4.774591e-04
5.343969e+01	-4.829903e-04
5.374836e+01	-4.885856e-04
5.405880e+01	-4.942456e-04
5.437105e+01	-4.999713e-04
5.468509e+01	-5.057633e-04
5.500095e+01	-5.116223e-04
5.531863e+01	-5.175493e-04
5.563815e+01	-5.235448e-04
5.595951e+01	-5.296099e-04
5.628273e+01	-5.357452e-04
5.660782e+01	-5.419516e-04
5.693479e+01	-5.482298e-04
5.726364e+01	-5.545808e-04
5.759439e+01	-5.610054e-04
5.792705e+01	-5.675043e-04
5.826164e+01	-5.740786e-04
5.859815e+01	-5.807290e-04
5.893662e+01	-5.874565e-04
5.927703e+01	-5.942618e-04
5.961941e+01	-6.011460e-04
5.996377e+01	-6.081100e-04
6.031012e+01	-6.151546e-04
6.065847e+01	-6.222809e-04
6.100883e+01	-6.294896e-04
6.136121e+01	-6.367819e-04
6.171563e+01	-6.441586e-04
6.207210e+01	-6.516208e-04
6.243063e+01	-6.591695e-04
6.279122e+01	-6.668056e-04
6.315390e+01	-6.745301e-04
6.351868e+01	-6.823441e-04
6.388556e+01	-6.902486e-04
6.425456e+01	-6.982447e-04
6.462569e+01	-7.063334e-04
6.499897e+01	-7.145158e-04
6.537440e+01	-7.227929e-04
6.575200e+01	-7.311660e-04
6.613178e+01	-7.396360e-04
6.651375e+01	-7.482042e-04
6.689793e+01	-7.568716e-04
6.728433e+01	-7.656394e-04
6.767297e+01	-7.745087e-04
6.806384e+01	-7.834808e-04
6.845698e+01	-7.925568e-04
6.885238e+01	-8.017380e-04
6.925007e+01	-8.110254e-04
6.965005e+01	-8.204205e-04
7.005235e+01	-8.299244e-04
7.045697e+01	-8.395384e-04
7.086393e+01	-8.492637e-04
7.127323e+01	-8.591017e-04
7.168490e+01	-8.690536e-04
7.209895e+01	-8.791208e-04
7.251539e+01	-8.893046e-04
7.293424e+01	-8.996064e-04
7.335551e+01	-9.100275e-04
7.377920e+01	-9.205693e-04
7.420535e+01	-9.312332e-04
7.463396e+01	-9.420206e-04
7.506504e+01	-9.529330e-04
7.549861e+01	-9.639717e-04
7.593469e+01	-9.751384e-04
7.637328e+01	-9.864343e-04
7.681441e+01	-9.978611e-04
7.725809e+01	-1.009420e-03
7.770433e+01	-1.021113e-03
7.815315e+01	-1.032942e-03
7.860456e+01	-1.044907e-03
7.905857e+01	-1.057011e-03
7.951521e+01	-1.069256e-03
7.997449e+01	-1.081642e-03
8.043642e+01	-1.094171e-03
8.090102e+01	-1.106846e-03
8.136830e+01	-1.119667e-03
8.183828e+01	-1.132637e-03
8.231097e+01	-1.145757e-03
8.278640e+01	-1.159030e-03
8.326457e+01	-1.172455e-03
8.374550e+01	-1.186037e-03
8.422921e+01	-1.199775e-03
8.471572e+01	-1.213673e-03
8.520503e+01	-1.227732e-03
8.569717e+01	-1.241954e-03
8.619215e+01	-1.256340e-03
8.669000e+01	-1.270893e-03
8.719071e+01	-1.285614e-03
8.769432e+01	-1.300506e-03
8.820084e+01	-1.315571e-03
8.871029e+01	-1.330810e-03
8.922267e+01	-1.346225e-03
8.973802e+01	-1.361819e-03
9.025634e+01	-1.377593e-03
9.077766e+01	-1.393551e-03
9.130199e+01	-1.409693e-03
9.182935e+01	-1.426022e-03
9.235975e+01	-1.442540e-03
9.289321e+01	-1.459249e-03
9.342976e+01	-1.476152e-03
9.396941e+01	-1.493251e-03
9.451217e+01	-1.510547e-03
9.505807e+01	-1.528044e-03
9.560712e+01	-1.545744e-03
9.615934e+01	-1.563649e-03
9.671476e+01	-1.581761e-03
9.727338e+01	-1.600082e-03
9.783522e+01	-1.618616e-03
9.840032e+01	-1.637365e-03
9.896867e+01	-1.656331e-03
9.954031e+01	-1.675516e-03
1.001153e+02	-1.694924e-03
1.006935e+02	-1.714556e-03
1.012751e+02	-1.734415e-03
1.018601e+02	-1.754505e-03
1.024484e+02	-1.774827e-03
1.030402e+02	-1.795385e-03
1.036353e+02	-1.816181e-03
1.042339e+02	-1.837217e-03
1.048360e+02	-1.858497e-03
1.054415e+02	-1.880024e-03
1.060505e+02	-1.901799e-03
1.066631e+02	-1.923827e-03
1.072791e+02	-1.946111e-03
1.078988e+02	-1.968652e-03
1.085220e+02	-1.991454e-03
1.091488e+02	-2.014520e-03
1.097793e+02	-2.037853e-03
1.104133e+02	-2.061457e-03
1.110511e+02	-2.085333e-03
1.116925e+02	-2.109487e-03
1.123376e+02	-2.133920e-03
1.129865e+02	-2.158636e-03
1.136391e+02	-2.183638e-03
1.142955e+02	-2.208929e-03
1.149556e+02	-2.234514e-03
1.156196e+02	-2.260394e-03
1.162874e+02	-2.286575e-03
1.169591e+02	-2.313058e-03
1.176347e+02	-2.339848e-03
1.183141e+02	-2.366949e-03
1.189975e+02	-2.394363e-03
1.196848e+02	-2.422095e-03
1.203761e+02	-2.450147e-03
1.210714e+02	-2.478525e-03
1.217707e+02	-2.507231e-03
1.224740e+02	-2.536269e-03
1.231814e+02	-2.565644e-03
1.238929e+02	-2.595359e-03
1.246085e+02	-2.625417e-03
1.253283e+02	-2.655824e-03
1.260522e+02	-2.686583e-03
1.267802e+02	-2.717698e-03
1.275125e+02	-2.749174e-03
1.282490e+02	-2.781013e-03
1.289898e+02	-2.813222e-03
1.297348e+02	-2.845803e-03
1.304842e+02	-2.878761e-03
1.312378e+02	-2.912101e-03
1.319959e+02	-2.945827e-03
1.327583e+02	-2.979944e-03
1.335251e+02	-3.014455e-03
1.342963e+02	-3.049366e-03
1.350720e+02	-3.084681e-03
1.358522e+02	-3.120405e-03
1.366368e+02	-3.156543e-03
1.374260e+02	-3.193099e-03
1.382198e+02	-3.230078e-03
1.390182e+02	-3.267485e-03
1.398211e+02	-3.305325e-03
1.406287e+02	-3.343604e-03
1.414410e+02	-3.382325e-03
1.422579e+02	-3.421495e-03
1.430796e+02	-3.461118e-03
1.439060e+02	-3.501200e-03
1.447372e+02	-3.541745e-03
1.455732e+02	-3.582760e-03
1.464141e+02	-3.624250e-03
1.472597e+02	-3.666220e-03
1.481103e+02	-3.708676e-03
1.489658e+02	-3.751624e-03
1.498262e+02	-3.795068e-03
1.506916e+02	-3.839016e-03
1.515620e+02	-3.883472e-03
1.524374e+02	-3.928442e-03
1.533179e+02	-3.973934e-03
1.542034e+02	-4.019951e-03
1.550941e+02	-4.066502e-03
1.559899e+02	-4.113591e-03
1.568909e+02	-4.161225e-03
1.577971e+02	-4.209410e-03
1.587085e+02	-4.258154e-03
1.596252e+02	-4.307461e-03
1.605472e+02	-4.357339e-03
1.614745e+02	-4.407794e-03
1.624072e+02	-4.458833e-03
1.633453e+02	-4.510463e-03
1.642887e+02	-4.562690e-03
1.652377e+02	-4.615522e-03
1.661921e+02	-4.668966e-03
1.671520e+02	-4.723027e-03
1.681175e+02	-4.777715e-03
1.690885e+02	-4.833035e-03
1.700651e+02	-4.888995e-03
1.710474e+02	-4.945603e-03
1.720354e+02	-5.002866e-03
1.730291e+02	-5.060792e-03
1.740285e+02	-5.119388e-03
1.750337e+02	-5.178662e-03
1.760446e+02	-5.238622e-03
1.770615e+02	-5.299275e-03
1.780842e+02	-5.360631e-03
1.791128e+02	-5.422696e-03
1.801473e+02	-5.485480e-03
1.811878e+02	-5.548990e-03
1.822344e+02	-5.613235e-03
1.832870e+02	-5.678223e-03
1.843456e+02	-5.743963e-03
1.854104e+02	-5.810464e-03
1.864813e+02	-5.877734e-03
1.875584e+02	-5.945782e-03
1.886418e+02	-6.014618e-03
1.897313e+02	-6.084250e-03
1.908272e+02	-6.154687e-03
1.919294e+02	-6.225940e-03
1.930380e+02	-6.298016e-03
1.941530e+02	-6.370927e-03
1.952744e+02	-6.444681e-03
1.964023e+02	-6.519288e-03
1.975367e+02	-6.594758e-03
1.986777e+02	-6.671101e-03
1.998252e+02	-6.748327e-03
2.009794e+02	-6.826447e-03
2.021403e+02	-6.905470e-03
2.033078e+02	-6.985407e-03
2.044821e+02	-7.066269e-03
2.056632e+02	-7.148066e-03
2.068511e+02	-7.230809e-03
2.080459e+02	-7.314509e-03
2.092475e+02	-7.399177e-03
2.104561e+02	-7.484824e-03
2.116717e+02	-7.571462e-03
2.128943e+02	-7.659102e-03
2.141240e+02	-7.747755e-03
2.153608e+02	-7.837434e-03
2.166047e+02	-7.928149e-03
2.178558e+02	-8.019914e-03
2.191141e+02	-8.112739e-03
2.203797e+02	-8.206639e-03
2.216526e+02	-8.301623e-03
2.229329e+02	-8.397707e-03
2.242205e+02	-8.494901e-03
2.255156e+02	-8.593219e-03
2.268182e+02	-8.692674e-03
2.281283e+02	-8.793278e-03
2.294459e+02	-8.895046e-03
2.307712e+02	-8.997990e-03
2.321041e+02	-9.102125e-03
2.334447e+02	-9.207463e-03
2.347931e+02	-9.314019e-03
2.361493e+02	-9.421807e-03
2.375133e+02	-9.530841e-03
2.388851e+02	-9.641135e-03
2.402649e+02	-9.752704e-03
2.416527e+02	-9.865563e-03
2.430484e+02	-9.979727e-03
2.444523e+02	-1.009521e-02
2.458642e+02	-1.021203e-02
2.472843e+02	-1.033020e-02
2.487126e+02	-1.044973e-02
2.501492e+02	-1.057064e-02
2.515940e+02	-1.069296e-02
2.530472e+02	-1.081668e-02
2.545088e+02	-1.094184e-02
2.559789e+02	-1.106844e-02
2.574574e+02	-1.119650e-02
2.589444e+02	-1.132605e-02
2.604401e+02	-1.145709e-02
2.619444e+02	-1.158965e-02
2.634574e+02	-1.172373e-02
2.649791e+02	-1.185937e-02
2.665096e+02	-1.199657e-02
2.680489e+02	-1.213536e-02
2.695972e+02	-1.227575e-02
2.711544e+02	-1.241777e-02
2.727205e+02	-1.256142e-02
2.742958e+02	-1.270674e-02
2.758801e+02	-1.285373e-02
2.774736e+02	-1.300242e-02
2.790762e+02	-1.315283e-02
2.806882e+02	-1.330497e-02
2.823094e+02	-1.345887e-02
2.839400e+02	-1.361455e-02
2.855800e+02	-1.377203e-02
2.872295e+02	-1.393132e-02
2.888886e+02	-1.409246e-02
2.905572e+02	-1.425546e-02
2.922354e+02	-1.442033e-02
2.939234e+02	-1.458712e-02
2.956211e+02	-1.475582e-02
2.973286e+02	-1.492648e-02
2.990459e+02	-1.509910e-02
3.007732e+02	-1.527372e-02
3.025104e+02	-1.545036e-02
3.042577e+02	-1.562903e-02
3.060151e+02	-1.580976e-02
3.077826e+02	-1.599259e-02
3.095604e+02	-1.617752e-02
3.113484e+02	-1.636459e-02
3.131467e+02	-1.655381e-02
3.149554e+02	-1.674522e-02
3.167746e+02	-1.693884e-02
3.186043e+02	-1.713469e-02
3.204445e+02	-1.733280e-02
3.222954e+02	-1.753320e-02
3.241570e+02	-1.773591e-02
3.260293e+02	-1.794096e-02
3.279124e+02	-1.814838e-02
3.298064e+02	-1.835818e-02
3.317114e+02	-1.857041e-02
3.336273e+02	-1.878509e-02
3.355544e+02	-1.900224e-02
3.374925e+02	-1.922190e-02
3.394418e+02	-1.944409e-02
3.414024e+02	-1.966884e-02
3.433744e+02	-1.989619e-02
3.453577e+02	-2.012615e-02
3.473525e+02	-2.035877e-02
3.493588e+02	-2.059407e-02
3.513766e+02	-2.083208e-02
3.534062e+02	-2.107284e-02
3.554474e+02	-2.131638e-02
3.575005e+02	-2.156272e-02
3.595654e+02	-2.181190e-02
3.616422e+02	-2.206395e-02
3.637311e+02	-2.231891e-02
3.658320e+02	-2.257680e-02
3.679450e+02	-2.283767e-02
3.700702e+02	-2.310155e-02
3.722077e+02	-2.336846e-02
3.743576e+02	-2.363845e-02
3.765199e+02	-2.391155e-02
3.786946e+02	-2.418780e-02
3.808820e+02	-2.446723e-02
3.830819e+02	-2.474988e-02
3.852946e+02	-2.503578e-02
3.875200e+02	-2.532498e-02
3.897583e+02	-2.561751e-02
3.920096e+02	-2.591341e-02
3.942738e+02	-2.621271e-02
3.965511e+02	-2.651546e-02
3.988416e+02	-2.682170e-02
4.011452e+02	-2.713146e-02
4.034622e+02	-2.744479e-02
4.057926e+02	-2.776173e-02
4.081365e+02	-2.808231e-02
4.104938e+02	-2.840659e-02
4.128648e+02	-2.873459e-02
4.152495e+02	-2.906637e-02
4.176480e+02	-2.940197e-02
4.200603e+02	-2.974143e-02
4.224866e+02	-3.008480e-02
4.249268e+02	-3.043211e-02
4.273812e+02	-3.078342e-02
4.298497e+02	-3.113877e-02
4.323325e+02	-3.149821e-02
4.348297e+02	-3.186179e-02
4.373412e+02	-3.222954e-02
4.398673e+02	-3.260152e-02
4.424079e+02	-3.297778e-02
4.449633e+02	-3.335837e-02
4.475334e+02	-3.374333e-02
4.501183e+02	-3.413271e-02
4.527182e+02	-3.452657e-02
4.553330e+02	-3.492496e-02
4.579630e+02	-3.532792e-02
4.606082e+02	-3.573552e-02
4.632687e+02	-3.614780e-02
4.659445e+02	-3.656481e-02
4.686358e+02	-3.698662e-02
4.713426e+02	-3.741327e-02
4.740650e+02	-3.784482e-02
4.768032e+02	-3.828132e-02
4.795572e+02	-3.872284e-02
4.823271e+02	-3.916943e-02
4.851130e+02	-3.962114e-02
4.879150e+02	-4.007804e-02
4.907332e+02	-4.054018e-02
4.935676e+02	-4.100763e-02
4.964185e+02	-4.148044e-02
4.992858e+02	-4.195867e-02
5.021696e+02	-4.244239e-02
5.050701e+02	-4.293167e-02
5.079874e+02	-4.342655e-02
5.109215e+02	-4.392711e-02
5.138726e+02	-4.443341e-02
5.168407e+02	-4.494551e-02
5.198259e+02	-4.546348e-02
5.228284e+02	-4.598740e-02
5.258482e+02	-4.651732e-02
5.288855e+02	-4.705331e-02
5.319403e+02	-4.759544e-02
5.350128e+02	-4.814378e-02
5.381030e+02	-4.869841e-02
5.412111e+02	-4.925939e-02
5.443371e+02	-4.982679e-02
5.474812e+02	-5.040069e-02
5.506434e+02	-5.098117e-02
5.538239e+02	-5.156829e-02
5.570228e+02	-5.216213e-02
5.602401e+02	-5.276276e-02
5.634760e+02	-5.337027e-02
5.667306e+02	-5.398473e-02
5.700040e+02	-5.460622e-02
5.732964e+02	-5.523482e-02
5.766077e+02	-5.587061e-02
5.799382e+02	-5.651367e-02
5.832879e+02	-5.716408e-02
5.866569e+02	-5.782193e-02
5.900454e+02	-5.848730e-02
5.934535e+02	-5.916027e-02
5.968813e+02	-5.984093e-02
6.003288e+02	-6.052937e-02
6.037963e+02	-6.122567e-02
6.072838e+02	-6.192993e-02
6.107914e+02	-6.264222e-02
6.143194e+02	-6.336265e-02
6.178676e+02	-6.409131e-02
6.214364e+02	-6.482828e-02
6.250258e+02	-6.557366e-02
6.286359e+02	-6.632754e-02
6.322669e+02	-6.709003e-02
6.359189e+02	-6.786121e-02
6.395919e+02	-6.864118e-02
6.432862e+02	-6.943005e-02
6.470017e+02	-7.022791e-02
6.507388e+02	-7.103487e-02
6.544974e+02	-7.185102e-02
6.582778e+02	-7.267647e-02
6.620800e+02	-7.351132e-02
6.659041e+02	-7.435568e-02
6.697504e+02	-7.520965e-02
6.736188e+02	-7.607334e-02
6.775096e+02	-7.694687e-02
6.814229e+02	-7.783034e-02
6.853587e+02	-7.872385e-02
6.893173e+02	-7.962753e-02
6.932988e+02	-8.054149e-02
6.973033e+02	-8.146584e-02
7.013309e+02	-8.240070e-02
