Frequency(Hz)	Magnitude(dB)
1.000000e+01	-2.408634e+00
1.005776e+01	-2.429935e+00
1.011585e+01	-2.451450e+00
1.017428e+01	-2.472995e+00
1.023305e+01	-2.494942e+00
1.029215e+01	-2.516680e+00
1.035160e+01	-2.538807e+00
1.041139e+01	-2.560869e+00
1.047153e+01	-2.583191e+00
1.053201e+01	-2.605978e+00
1.059284e+01	-2.628659e+00
1.065403e+01	-2.651265e+00
1.071556e+01	-2.673987e+00
1.077746e+01	-2.697180e+00
1.083971e+01	-2.720256e+00
1.090232e+01	-2.743702e+00
1.096529e+01	-2.767517e+00
1.102862e+01	-2.791016e+00
1.109232e+01	-2.814764e+00
1.115639e+01	-2.838813e+00
1.122083e+01	-2.862836e+00
1.128564e+01	-2.886797e+00
1.135083e+01	-2.911385e+00
1.141639e+01	-2.935729e+00
1.148233e+01	-2.960502e+00
1.154865e+01	-2.985289e+00
1.161536e+01	-3.010096e+00
1.168245e+01	-3.035308e+00
1.174992e+01	-3.060830e+00
1.181779e+01	-3.085999e+00
1.188605e+01	-3.111419e+00
1.195470e+01	-3.137130e+00
1.202375e+01	-3.163289e+00
1.209320e+01	-3.189061e+00
1.216305e+01	-3.215011e+00
1.223330e+01	-3.241105e+00
1.230396e+01	-3.267780e+00
1.237503e+01	-3.294059e+00
1.244651e+01	-3.321004e+00
1.251840e+01	-3.347793e+00
1.259070e+01	-3.374690e+00
1.266343e+01	-3.401571e+00
1.273657e+01	-3.428854e+00
1.281014e+01	-3.456176e+00
1.288413e+01	-3.483655e+00
1.295855e+01	-3.511475e+00
1.303339e+01	-3.539458e+00
1.310867e+01	-3.567237e+00
1.318439e+01	-3.595443e+00
1.326054e+01	-3.623469e+00
1.333713e+01	-3.651884e+00
1.341417e+01	-3.680263e+00
1.349165e+01	-3.709184e+00
1.356958e+01	-3.737832e+00
1.364795e+01	-3.766893e+00
1.372678e+01	-3.795961e+00
1.380607e+01	-3.824794e+00
1.388581e+01	-3.854553e+00
1.396602e+01	-3.883860e+00
1.404668e+01	-3.913594e+00
1.412782e+01	-3.943496e+00
1.420942e+01	-3.973395e+00
1.429149e+01	-4.003362e+00
1.437404e+01	-4.033638e+00
1.445706e+01	-4.063930e+00
1.454057e+01	-4.094145e+00
1.462455e+01	-4.124938e+00
1.470902e+01	-4.155705e+00
1.479398e+01	-4.186512e+00
1.487943e+01	-4.217653e+00
1.496537e+01	-4.248669e+00
1.505181e+01	-4.280041e+00
1.513875e+01	-4.311508e+00
1.522619e+01	-4.342960e+00
1.531414e+01	-4.374766e+00
1.540259e+01	-4.406563e+00
1.549156e+01	-4.438421e+00
1.558103e+01	-4.470582e+00
1.567103e+01	-4.502874e+00
1.576155e+01	-4.534665e+00
1.585258e+01	-4.567610e+00
1.594415e+01	-4.600237e+00
1.603624e+01	-4.632853e+00
1.612886e+01	-4.665884e+00
1.622202e+01	-4.698678e+00
1.631572e+01	-4.731974e+00
1.640996e+01	-4.765244e+00
1.650474e+01	-4.798629e+00
1.660008e+01	-4.832272e+00
1.669596e+01	-4.865875e+00
1.679239e+01	-4.899771e+00
1.688938e+01	-4.933522e+00
1.698694e+01	-4.967748e+00
1.708505e+01	-5.001590e+00
1.718373e+01	-5.035999e+00
1.728299e+01	-5.070464e+00
1.738281e+01	-5.104865e+00
1.748322e+01	-5.139280e+00
1.758420e+01	-5.174347e+00
1.768576e+01	-5.209246e+00
1.778792e+01	-5.244022e+00
1.789066e+01	-5.279305e+00
1.799399e+01	-5.314662e+00
1.809793e+01	-5.349845e+00
1.820246e+01	-5.386003e+00
1.830760e+01	-5.420933e+00
1.841334e+01	-5.456746e+00
1.851969e+01	-5.492717e+00
1.862666e+01	-5.528765e+00
1.873425e+01	-5.565114e+00
1.884246e+01	-5.601021e+00
1.895129e+01	-5.637257e+00
1.906075e+01	-5.673806e+00
1.917085e+01	-5.710121e+00
1.928158e+01	-5.746853e+00
1.939295e+01	-5.783347e+00
1.950496e+01	-5.820082e+00
1.961762e+01	-5.857481e+00
1.973093e+01	-5.894308e+00
1.984490e+01	-5.931332e+00
1.995952e+01	-5.969318e+00
2.007480e+01	-6.006517e+00
2.019076e+01	-6.044001e+00
2.030738e+01	-6.081652e+00
2.042467e+01	-6.119304e+00
2.054264e+01	-6.157426e+00
2.066130e+01	-6.195349e+00
2.078064e+01	-6.232897e+00
2.090066e+01	-6.271294e+00
2.102139e+01	-6.309631e+00
2.114280e+01	-6.348201e+00
2.126492e+01	-6.386956e+00
2.138775e+01	-6.425490e+00
2.151128e+01	-6.463663e+00
2.163553e+01	-6.502717e+00
2.176050e+01	-6.541295e+00
2.188619e+01	-6.580208e+00
2.201260e+01	-6.619598e+00
2.213974e+01	-6.658541e+00
2.226762e+01	-6.697841e+00
2.239624e+01	-6.737024e+00
2.252560e+01	-6.777468e+00
2.265571e+01	-6.816350e+00
2.278656e+01	-6.856117e+00
2.291818e+01	-6.895912e+00
2.305055e+01	-6.935842e+00
2.318369e+01	-6.975706e+00
2.331760e+01	-7.015535e+00
2.345228e+01	-7.055742e+00
2.358774e+01	-7.096003e+00
2.372398e+01	-7.136453e+00
2.386101e+01	-7.176858e+00
2.399883e+01	-7.216767e+00
2.413745e+01	-7.257273e+00
2.427686e+01	-7.298300e+00
2.441709e+01	-7.338754e+00
2.455812e+01	-7.379923e+00
2.469997e+01	-7.421069e+00
2.484263e+01	-7.462219e+00
2.498612e+01	-7.503071e+00
2.513044e+01	-7.544140e+00
2.527559e+01	-7.585199e+00
2.542158e+01	-7.626580e+00
2.556842e+01	-7.668602e+00
2.571610e+01	-7.709923e+00
2.586463e+01	-7.751356e+00
2.601403e+01	-7.792967e+00
2.616428e+01	-7.834461e+00
2.631541e+01	-7.876582e+00
2.646740e+01	-7.918944e+00
2.662028e+01	-7.960761e+00
2.677404e+01	-8.002457e+00
2.692868e+01	-8.044244e+00
2.708422e+01	-8.086765e+00
2.724066e+01	-8.129101e+00
2.739800e+01	-8.171680e+00
2.755625e+01	-8.213970e+00
2.771541e+01	-8.256604e+00
2.787550e+01	-8.299090e+00
2.803650e+01	-8.341942e+00
2.819844e+01	-8.384349e+00
2.836131e+01	-8.427421e+00
2.852513e+01	-8.470245e+00
2.868989e+01	-8.513277e+00
2.885560e+01	-8.555964e+00
2.902227e+01	-8.599206e+00
2.918990e+01	-8.642283e+00
2.935850e+01	-8.685834e+00
2.952807e+01	-8.729215e+00
2.969863e+01	-8.772246e+00
2.987016e+01	-8.815419e+00
3.004269e+01	-8.859189e+00
3.021622e+01	-8.902573e+00
3.039075e+01	-8.946263e+00
3.056628e+01	-8.990279e+00
3.074283e+01	-9.034001e+00
3.092040e+01	-9.077803e+00
3.109900e+01	-9.121317e+00
3.127862e+01	-9.165707e+00
3.145929e+01	-9.209296e+00
3.164099e+01	-9.253147e+00
3.182375e+01	-9.297407e+00
3.200756e+01	-9.342043e+00
3.219244e+01	-9.386059e+00
3.237838e+01	-9.430214e+00
3.256540e+01	-9.474950e+00
3.275349e+01	-9.519453e+00
3.294268e+01	-9.563674e+00
3.313295e+01	-9.607753e+00
3.332433e+01	-9.652817e+00
3.351681e+01	-9.697315e+00
3.371040e+01	-9.742135e+00
3.390511e+01	-9.786827e+00
3.410094e+01	-9.831855e+00
3.429791e+01	-9.876587e+00
3.449601e+01	-9.920872e+00
3.469526e+01	-9.965887e+00
3.489566e+01	-1.001146e+01
3.509721e+01	-1.005556e+01
3.529993e+01	-1.010144e+01
3.550382e+01	-1.014671e+01
3.570889e+01	-1.019191e+01
3.591515e+01	-1.023655e+01
3.612259e+01	-1.028228e+01
3.633123e+01	-1.032735e+01
3.654108e+01	-1.037342e+01
3.675214e+01	-1.041893e+01
3.696442e+01	-1.046381e+01
3.717792e+01	-1.050959e+01
3.739266e+01	-1.055511e+01
3.760864e+01	-1.060113e+01
3.782587e+01	-1.064689e+01
3.804435e+01	-1.069256e+01
3.826409e+01	-1.073854e+01
3.848510e+01	-1.078397e+01
3.870739e+01	-1.082965e+01
3.893096e+01	-1.087592e+01
3.915583e+01	-1.092147e+01
3.938199e+01	-1.096729e+01
3.960946e+01	-1.101338e+01
3.983824e+01	-1.105950e+01
4.006834e+01	-1.110575e+01
4.029978e+01	-1.115216e+01
4.053255e+01	-1.119817e+01
4.076666e+01	-1.124511e+01
4.100213e+01	-1.129150e+01
4.123896e+01	-1.133709e+01
4.147715e+01	-1.138377e+01
4.171672e+01	-1.143049e+01
4.195767e+01	-1.147620e+01
4.220002e+01	-1.152296e+01
4.244377e+01	-1.156934e+01
4.268892e+01	-1.161525e+01
4.293549e+01	-1.166326e+01
4.318348e+01	-1.170976e+01
4.343291e+01	-1.175580e+01
4.368377e+01	-1.180250e+01
4.393609e+01	-1.184946e+01
4.418986e+01	-1.189553e+01
4.444510e+01	-1.194301e+01
4.470182e+01	-1.199003e+01
4.496001e+01	-1.203644e+01
4.521970e+01	-1.208360e+01
4.548089e+01	-1.213031e+01
4.574358e+01	-1.217740e+01
4.600779e+01	-1.222436e+01
4.627353e+01	-1.227210e+01
4.654081e+01	-1.231826e+01
4.680963e+01	-1.236586e+01
4.708000e+01	-1.241232e+01
4.735193e+01	-1.245954e+01
4.762543e+01	-1.250647e+01
4.790051e+01	-1.255406e+01
4.817719e+01	-1.260165e+01
4.845545e+01	-1.264992e+01
4.873533e+01	-1.269617e+01
4.901682e+01	-1.274292e+01
4.929994e+01	-1.279049e+01
4.958470e+01	-1.283906e+01
4.987110e+01	-1.288536e+01
5.015915e+01	-1.293315e+01
5.044887e+01	-1.298049e+01
5.074026e+01	-1.302866e+01
5.103333e+01	-1.307570e+01
5.132810e+01	-1.312320e+01
5.162457e+01	-1.317093e+01
5.192275e+01	-1.321904e+01
5.222265e+01	-1.326641e+01
5.252429e+01	-1.331430e+01
5.282767e+01	-1.336191e+01
5.313280e+01	-1.340952e+01
5.343969e+01	-1.345724e+01
5.374836e+01	-1.350473e+01
5.405880e+01	-1.355274e+01
5.437105e+01	-1.360070e+01
5.468509e+01	-1.364870e+01
5.500095e+01	-1.369648e+01
5.531863e+01	-1.374434e+01
5.563815e+01	-1.379194e+01
5.595951e+01	-1.384014e+01
5.628273e+01	-1.388833e+01
5.660782e+01	-1.393645e+01
5.693479e+01	-1.398464e+01
5.726364e+01	-1.403209e+01
5.759439e+01	-1.408063e+01
5.792705e+01	-1.412837e+01
5.826164e+01	-1.417657e+01
5.859815e+01	-1.422452e+01
5.893662e+01	-1.427283e+01
5.927703e+01	-1.432029e+01
5.961941e+01	-1.436952e+01
5.996377e+01	-1.441722e+01
6.031012e+01	-1.446580e+01
6.065847e+01	-1.451313e+01
6.100883e+01	-1.456235e+01
6.136121e+01	-1.461026e+01
6.171563e+01	-1.465894e+01
6.207210e+01	-1.470620e+01
6.243063e+01	-1.475557e+01
6.279122e+01	-1.480278e+01
6.315390e+01	-1.485230e+01
6.351868e+01	-1.489996e+01
6.388556e+01	-1.494962e+01
6.425456e+01	-1.499693e+01
6.462569e+01	-1.504628e+01
6.499897e+01	-1.509416e+01
6.537440e+01	-1.514230e+01
6.575200e+01	-1.519099e+01
6.613178e+01	-1.523970e+01
6.651375e+01	-1.528857e+01
6.689793e+01	-1.533751e+01
6.728433e+01	-1.538551e+01
6.767297e+01	-1.543430e+01
6.806384e+01	-1.548243e+01
6.845698e+01	-1.553220e+01
6.885238e+01	-1.557938e+01
6.925007e+01	-1.562815e+01
6.965005e+01	-1.567750e+01
7.005235e+01	-1.572516e+01
7.045697e+01	-1.577457e+01
7.086393e+01	-1.582350e+01
7.127323e+01	-1.587236e+01
7.168490e+01	-1.592025e+01
7.209895e+01	-1.596999e+01
7.251539e+01	-1.601864e+01
7.293424e+01	-1.606678e+01
7.335551e+01	-1.611574e+01
7.377920e+01	-1.616386e+01
7.420535e+01	-1.621273e+01
7.463396e+01	-1.626129e+01
7.506504e+01	-1.631144e+01
7.549861e+01	-1.636014e+01
7.593469e+01	-1.640932e+01
7.637328e+01	-1.645918e+01
7.681441e+01	-1.650680e+01
7.725809e+01	-1.655583e+01
7.770433e+01	-1.660362e+01
7.815315e+01	-1.665457e+01
7.860456e+01	-1.670209e+01
7.905857e+01	-1.675125e+01
7.951521e+01	-1.680099e+01
7.997449e+01	-1.685035e+01
8.043642e+01	-1.689901e+01
8.090102e+01	-1.694688e+01
8.136830e+01	-1.699499e+01
8.183828e+01	-1.704603e+01
8.231097e+01	-1.709429e+01
8.278640e+01	-1.714384e+01
8.326457e+01	-1.719183e+01
8.374550e+01	-1.724151e+01
8.422921e+01	-1.729119e+01
8.471572e+01	-1.733998e+01
8.520503e+01	-1.738908e+01
8.569717e+01	-1.743985e+01
8.619215e+01	-1.748713e+01
8.669000e+01	-1.753671e+01
8.719071e+01	-1.758607e+01
8.769432e+01	-1.763494e+01
8.820084e+01	-1.768460e+01
8.871029e+01	-1.773297e+01
8.922267e+01	-1.778231e+01
8.973802e+01	-1.783074e+01
9.025634e+01	-1.787906e+01
9.077766e+01	-1.793042e+01
9.130199e+01	-1.797894e+01
9.182935e+01	-1.802939e+01
9.235975e+01	-1.807733e+01
9.289321e+01	-1.812649e+01
9.342976e+01	-1.817636e+01
9.396941e+01	-1.822474e+01
9.451217e+01	-1.827433e+01
9.505807e+01	-1.832411e+01
9.560712e+01	-1.837416e+01
9.615934e+01	-1.842397e+01
9.671476e+01	-1.847119e+01
9.727338e+01	-1.852170e+01
9.783522e+01	-1.857045e+01
9.840032e+01	-1.862098e+01
9.896867e+01	-1.866905e+01
9.954031e+01	-1.871819e+01
1.001153e+02	-1.876796e+01
1.006935e+02	-1.881765e+01
1.012751e+02	-1.886664e+01
1.018601e+02	-1.891566e+01
1.024484e+02	-1.896638e+01
1.030402e+02	-1.901508e+01
1.036353e+02	-1.906461e+01
1.042339e+02	-1.911235e+01
1.048360e+02	-1.916538e+01
1.054415e+02	-1.921270e+01
1.060505e+02	-1.926113e+01
1.066631e+02	-1.931129e+01
1.072791e+02	-1.936128e+01
1.078988e+02	-1.941062e+01
1.085220e+02	-1.945930e+01
1.091488e+02	-1.950958e+01
1.097793e+02	-1.955876e+01
1.104133e+02	-1.960608e+01
1.110511e+02	-1.965873e+01
1.116925e+02	-1.970742e+01
1.123376e+02	-1.975717e+01
1.129865e+02	-1.980711e+01
1.136391e+02	-1.985534e+01
1.142955e+02	-1.990745e+01
1.149556e+02	-1.995357e+01
1.156196e+02	-2.000510e+01
1.162874e+02	-2.005471e+01
1.169591e+02	-2.010526e+01
1.176347e+02	-2.015207e+01
1.183141e+02	-2.020254e+01
1.189975e+02	-2.025112e+01
1.196848e+02	-2.030219e+01
1.203761e+02	-2.034982e+01
1.210714e+02	-2.039953e+01
1.217707e+02	-2.045187e+01
1.224740e+02	-2.049962e+01
1.231814e+02	-2.055133e+01
1.238929e+02	-2.059888e+01
1.246085e+02	-2.064807e+01
1.253283e+02	-2.069778e+01
1.260522e+02	-2.074984e+01
1.267802e+02	-2.079748e+01
1.275125e+02	-2.084765e+01
1.282490e+02	-2.089814e+01
1.289898e+02	-2.094718e+01
1.297348e+02	-2.099503e+01
1.304842e+02	-2.104596e+01
1.312378e+02	-2.109419e+01
1.319959e+02	-2.114370e+01
1.327583e+02	-2.119499e+01
1.335251e+02	-2.124408e+01
1.342963e+02	-2.129471e+01
1.350720e+02	-2.134260e+01
1.358522e+02	-2.139402e+01
1.366368e+02	-2.144515e+01
1.374260e+02	-2.149360e+01
1.382198e+02	-2.154319e+01
1.390182e+02	-2.159245e+01
1.398211e+02	-2.164254e+01
1.406287e+02	-2.168973e+01
1.414410e+02	-2.174167e+01
1.422579e+02	-2.179136e+01
1.430796e+02	-2.183956e+01
1.439060e+02	-2.188979e+01
1.447372e+02	-2.194118e+01
1.455732e+02	-2.199026e+01
1.464141e+02	-2.203977e+01
1.472597e+02	-2.208946e+01
1.481103e+02	-2.213802e+01
1.489658e+02	-2.218983e+01
1.498262e+02	-2.223884e+01
1.506916e+02	-2.228684e+01
1.515620e+02	-2.233891e+01
1.524374e+02	-2.238813e+01
1.533179e+02	-2.243735e+01
1.542034e+02	-2.248917e+01
1.550941e+02	-2.253619e+01
1.559899e+02	-2.258710e+01
1.568909e+02	-2.263458e+01
1.577971e+02	-2.268596e+01
1.587085e+02	-2.273445e+01
1.596252e+02	-2.278534e+01
1.605472e+02	-2.283777e+01
1.614745e+02	-2.288580e+01
1.624072e+02	-2.293438e+01
1.633453e+02	-2.298616e+01
1.642887e+02	-2.303627e+01
1.652377e+02	-2.308412e+01
1.661921e+02	-2.313315e+01
1.671520e+02	-2.318290e+01
1.681175e+02	-2.323358e+01
1.690885e+02	-2.328215e+01
1.700651e+02	-2.333362e+01
1.710474e+02	-2.338347e+01
1.720354e+02	-2.343465e+01
1.730291e+02	-2.348162e+01
1.740285e+02	-2.353284e+01
1.750337e+02	-2.358478e+01
1.760446e+02	-2.363328e+01
1.770615e+02	-2.368250e+01
1.780842e+02	-2.373094e+01
1.791128e+02	-2.378115e+01
1.801473e+02	-2.383135e+01
1.811878e+02	-2.388164e+01
1.822344e+02	-2.392961e+01
1.832870e+02	-2.398143e+01
1.843456e+02	-2.403113e+01
1.854104e+02	-2.408016e+01
1.864813e+02	-2.413132e+01
1.875584e+02	-2.418044e+01
1.886418e+02	-2.422943e+01
1.897313e+02	-2.428065e+01
1.908272e+02	-2.433093e+01
1.919294e+02	-2.438135e+01
1.930380e+02	-2.443331e+01
1.941530e+02	-2.448308e+01
1.952744e+02	-2.452922e+01
1.964023e+02	-2.458157e+01
1.975367e+02	-2.462972e+01
1.986777e+02	-2.468232e+01
1.998252e+02	-2.472781e+01
2.009794e+02	-2.478075e+01
2.021403e+02	-2.482932e+01
2.033078e+02	-2.487955e+01
2.044821e+02	-2.493038e+01
2.056632e+02	-2.498144e+01
2.068511e+02	-2.502869e+01
2.080459e+02	-2.507893e+01
2.092475e+02	-2.513085e+01
2.104561e+02	-2.517778e+01
2.116717e+02	-2.522579e+01
2.128943e+02	-2.528011e+01
2.141240e+02	-2.532912e+01
2.153608e+02	-2.537764e+01
2.166047e+02	-2.542728e+01
2.178558e+02	-2.548071e+01
2.191141e+02	-2.552806e+01
2.203797e+02	-2.558000e+01
2.216526e+02	-2.562925e+01
2.229329e+02	-2.567625e+01
2.242205e+02	-2.573038e+01
2.255156e+02	-2.577959e+01
2.268182e+02	-2.582661e+01
2.281283e+02	-2.587624e+01
2.294459e+02	-2.592592e+01
2.307712e+02	-2.597596e+01
2.321041e+02	-2.602708e+01
2.334447e+02	-2.607421e+01
2.347931e+02	-2.612742e+01
2.361493e+02	-2.617876e+01
2.375133e+02	-2.622517e+01
2.388851e+02	-2.627961e+01
2.402649e+02	-2.632765e+01
2.416527e+02	-2.637520e+01
2.430484e+02	-2.642750e+01
2.444523e+02	-2.647730e+01
2.458642e+02	-2.652481e+01
2.472843e+02	-2.657719e+01
2.487126e+02	-2.662821e+01
2.501492e+02	-2.667747e+01
2.515940e+02	-2.672318e+01
2.530472e+02	-2.677872e+01
2.545088e+02	-2.682678e+01
2.559789e+02	-2.688234e+01
2.574574e+02	-2.693153e+01
2.589444e+02	-2.697211e+01
2.604401e+02	-2.702998e+01
2.619444e+02	-2.707840e+01
2.634574e+02	-2.712790e+01
2.649791e+02	-2.717877e+01
2.665096e+02	-2.722897e+01
2.680489e+02	-2.728059e+01
2.695972e+02	-2.732588e+01
2.711544e+02	-2.738032e+01
2.727205e+02	-2.742467e+01
2.742958e+02	-2.747654e+01
2.758801e+02	-2.752758e+01
2.774736e+02	-2.757770e+01
2.790762e+02	-2.762701e+01
2.806882e+02	-2.767367e+01
2.823094e+02	-2.772967e+01
2.839400e+02	-2.777769e+01
2.855800e+02	-2.782571e+01
2.872295e+02	-2.787474e+01
2.888886e+02	-2.792477e+01
2.905572e+02	-2.797391e+01
2.922354e+02	-2.802737e+01
2.939234e+02	-2.807703e+01
2.956211e+02	-2.812877e+01
2.973286e+02	-2.818194e+01
2.990459e+02	-2.822597e+01
3.007732e+02	-2.827880e+01
3.025104e+02	-2.832764e+01
3.042577e+02	-2.838031e+01
3.060151e+02	-2.842509e+01
3.077826e+02	-2.847540e+01
3.095604e+02	-2.853018e+01
3.113484e+02	-2.857439e+01
3.131467e+02	-2.862977e+01
3.149554e+02	-2.867614e+01
3.167746e+02	-2.872484e+01
3.186043e+02	-2.877757e+01
3.204445e+02	-2.883052e+01
3.222954e+02	-2.887810e+01
3.241570e+02	-2.892783e+01
3.260293e+02	-2.897529e+01
3.279124e+02	-2.902851e+01
3.298064e+02	-2.907709e+01
3.317114e+02	-2.912367e+01
3.336273e+02	-2.917810e+01
3.355544e+02	-2.922921e+01
3.374925e+02	-2.927616e+01
3.394418e+02	-2.933274e+01
3.414024e+02	-2.937887e+01
3.433744e+02	-2.942994e+01
3.453577e+02	-2.947504e+01
3.473525e+02	-2.952784e+01
3.493588e+02	-2.957637e+01
3.513766e+02	-2.962680e+01
3.534062e+02	-2.967546e+01
3.554474e+02	-2.973005e+01
3.575005e+02	-2.977513e+01
3.595654e+02	-2.982955e+01
3.616422e+02	-2.987434e+01
3.637311e+02	-2.992790e+01
3.658320e+02	-2.997954e+01
3.679450e+02	-3.003233e+01
3.700702e+02	-3.007845e+01
3.722077e+02	-3.012884e+01
3.743576e+02	-3.018058e+01
3.765199e+02	-3.023066e+01
3.786946e+02	-3.027647e+01
3.808820e+02	-3.033219e+01
3.830819e+02	-3.038014e+01
3.852946e+02	-3.043448e+01
3.875200e+02	-3.047903e+01
3.897583e+02	-3.052916e+01
3.920096e+02	-3.058052e+01
3.942738e+02	-3.063149e+01
3.965511e+02	-3.068244e+01
3.988416e+02	-3.073257e+01
4.011452e+02	-3.077976e+01
4.034622e+02	-3.083553e+01
4.057926e+02	-3.087840e+01
4.081365e+02	-3.092946e+01
4.104938e+02	-3.098325e+01
4.128648e+02	-3.103074e+01
4.152495e+02	-3.108036e+01
4.176480e+02	-3.113180e+01
4.200603e+02	-3.118101e+01
4.224866e+02	-3.123316e+01
4.249268e+02	-3.128544e+01
4.273812e+02	-3.132985e+01
4.298497e+02	-3.138447e+01
4.323325e+02	-3.143087e+01
4.348297e+02	-3.148057e+01
4.373412e+02	-3.153256e+01
4.398673e+02	-3.158145e+01
4.424079e+02	-3.163480e+01
4.449633e+02	-3.168002e+01
4.475334e+02	-3.173846e+01
4.501183e+02	-3.178247e+01
4.527182e+02	-3.183601e+01
4.553330e+02	-3.187954e+01
4.579630e+02	-3.193528e+01
4.606082e+02	-3.198339e+01
4.632687e+02	-3.203321e+01
4.659445e+02	-3.208393e+01
4.686358e+02	-3.213251e+01
4.713426e+02	-3.218441e+01
4.740650e+02	-3.224026e+01
4.768032e+02	-3.228567e+01
4.795572e+02	-3.234046e+01
4.823271e+02	-3.237913e+01
4.851130e+02	-3.243912e+01
4.879150e+02	-3.248359e+01
4.907332e+02	-3.253692e+01
4.935676e+02	-3.258642e+01
4.964185e+02	-3.263493e+01
4.992858e+02	-3.268354e+01
5.021696e+02	-3.273330e+01
5.050701e+02	-3.278995e+01
5.079874e+02	-3.283684e+01
5.109215e+02	-3.288257e+01
5.138726e+02	-3.293254e+01
5.168407e+02	-3.298328e+01
5.198259e+02	-3.303706e+01
5.228284e+02	-3.309011e+01
5.258482e+02	-3.313811e+01
5.288855e+02	-3.318545e+01
5.319403e+02	-3.323596e+01
5.350128e+02	-3.329536e+01
5.381030e+02	-3.333489e+01
5.412111e+02	-3.339286e+01
5.443371e+02	-3.343804e+01
5.474812e+02	-3.349872e+01
5.506434e+02	-3.353849e+01
5.538239e+02	-3.359440e+01
5.570228e+02	-3.364641e+01
5.602401e+02	-3.368801e+01
5.634760e+02	-3.374979e+01
5.667306e+02	-3.379328e+01
5.700040e+02	-3.384777e+01
5.732964e+02	-3.389363e+01
5.766077e+02	-3.394940e+01
5.799382e+02	-3.399240e+01
5.832879e+02	-3.404310e+01
5.866569e+02	-3.409650e+01
5.900454e+02	-3.414474e+01
5.934535e+02	-3.418980e+01
5.968813e+02	-3.424484e+01
6.003288e+02	-3.429624e+01
6.037963e+02	-3.434763e+01
6.072838e+02	-3.439362e+01
6.107914e+02	-3.444099e+01
6.143194e+02	-3.449445e+01
6.178676e+02	-3.454130e+01
6.214364e+02	-3.460764e+01
6.250258e+02	-3.464699e+01
6.286359e+02	-3.470083e+01
6.322669e+02	-3.474642e+01
6.359189e+02	-3.480449e+01
6.395919e+02	-3.484853e+01
6.432862e+02	-3.490137e+01
6.470017e+02	-3.494114e+01
6.507388e+02	-3.500136e+01
6.544974e+02	-3.504475e+01
6.582778e+02	-3.509955e+01
6.620800e+02	-3.516498e+01
6.659041e+02	-3.521095e+01
6.697504e+02	-3.525122e+01
6.736188e+02	-3.531514e+01
6.775096e+02	-3.535845e+01
6.814229e+02	-3.540062e+01
6.853587e+02	-3.544794e+01
6.893173e+02	-3.550596e+01
6.932988e+02	-3.555057e+01
6.973033e+02	-3.559612e+01
7.013309e+02	-3.565386e+01
