Frequency(Hz)	Magnitude(dB)
1.000000e+01	-2.294741e+00
1.005776e+01	-2.315532e+00
1.011585e+01	-2.336310e+00
1.017428e+01	-2.357215e+00
1.023305e+01	-2.378017e+00
1.029215e+01	-2.399186e+00
1.035160e+01	-2.420739e+00
1.041139e+01	-2.442095e+00
1.047153e+01	-2.463670e+00
1.053201e+01	-2.485170e+00
1.059284e+01	-2.507367e+00
1.065403e+01	-2.529146e+00
1.071556e+01	-2.551358e+00
1.077746e+01	-2.573585e+00
1.083971e+01	-2.596177e+00
1.090232e+01	-2.618706e+00
1.096529e+01	-2.641317e+00
1.102862e+01	-2.664314e+00
1.109232e+01	-2.687360e+00
1.115639e+01	-2.710243e+00
1.122083e+01	-2.733654e+00
1.128564e+01	-2.757021e+00
1.135083e+01	-2.780990e+00
1.141639e+01	-2.804455e+00
1.148233e+01	-2.828254e+00
1.154865e+01	-2.852610e+00
1.161536e+01	-2.876625e+00
1.168245e+01	-2.900958e+00
1.174992e+01	-2.925229e+00
1.181779e+01	-2.949793e+00
1.188605e+01	-2.974533e+00
1.195470e+01	-2.999706e+00
1.202375e+01	-3.024517e+00
1.209320e+01	-3.049534e+00
1.216305e+01	-3.074971e+00
1.223330e+01	-3.100284e+00
1.230396e+01	-3.126197e+00
1.237503e+01	-3.151965e+00
1.244651e+01	-3.177533e+00
1.251840e+01	-3.203742e+00
1.259070e+01	-3.229793e+00
1.266343e+01	-3.256192e+00
1.273657e+01	-3.282695e+00
1.281014e+01	-3.309221e+00
1.288413e+01	-3.336039e+00
1.295855e+01	-3.362775e+00
1.303339e+01	-3.389866e+00
1.310867e+01	-3.417117e+00
1.318439e+01	-3.444350e+00
1.326054e+01	-3.472056e+00
1.333713e+01	-3.499385e+00
1.341417e+01	-3.527087e+00
1.349165e+01	-3.555062e+00
1.356958e+01	-3.583226e+00
1.364795e+01	-3.611472e+00
1.372678e+01	-3.639728e+00
1.380607e+01	-3.668074e+00
1.388581e+01	-3.696464e+00
1.396602e+01	-3.725602e+00
1.404668e+01	-3.754417e+00
1.412782e+01	-3.783308e+00
1.420942e+01	-3.812690e+00
1.429149e+01	-3.841738e+00
1.437404e+01	-3.871388e+00
1.445706e+01	-3.900998e+00
1.454057e+01	-3.930914e+00
1.462455e+01	-3.960609e+00
1.470902e+01	-3.990151e+00
1.479398e+01	-4.020605e+00
1.487943e+01	-4.050558e+00
1.496537e+01	-4.081443e+00
1.505181e+01	-4.111933e+00
1.513875e+01	-4.142469e+00
1.522619e+01	-4.173229e+00
1.531414e+01	-4.204468e+00
1.540259e+01	-4.235370e+00
1.549156e+01	-4.266515e+00
1.558103e+01	-4.297892e+00
1.567103e+01	-4.329098e+00
1.576155e+01	-4.361125e+00
1.585258e+01	-4.392697e+00
1.594415e+01	-4.424531e+00
1.603624e+01	-4.456628e+00
1.612886e+01	-4.488658e+00
1.622202e+01	-4.521365e+00
1.631572e+01	-4.553707e+00
1.640996e+01	-4.586296e+00
1.650474e+01	-4.618956e+00
1.660008e+01	-4.651647e+00
1.669596e+01	-4.684873e+00
1.679239e+01	-4.717619e+00
1.688938e+01	-4.751083e+00
1.698694e+01	-4.784355e+00
1.708505e+01	-4.817947e+00
1.718373e+01	-4.851457e+00
1.728299e+01	-4.884968e+00
1.738281e+01	-4.919210e+00
1.748322e+01	-4.952902e+00
1.758420e+01	-4.986779e+00
1.768576e+01	-5.021208e+00
1.778792e+01	-5.055541e+00
1.789066e+01	-5.089802e+00
1.799399e+01	-5.124625e+00
1.809793e+01	-5.159527e+00
1.820246e+01	-5.194158e+00
1.830760e+01	-5.229171e+00
1.841334e+01	-5.264441e+00
1.851969e+01	-5.299237e+00
1.862666e+01	-5.334322e+00
1.873425e+01	-5.370173e+00
1.884246e+01	-5.406005e+00
1.895129e+01	-5.441361e+00
1.906075e+01	-5.477313e+00
1.917085e+01	-5.513197e+00
1.928158e+01	-5.549270e+00
1.939295e+01	-5.585140e+00
1.950496e+01	-5.621569e+00
1.961762e+01	-5.658061e+00
1.973093e+01	-5.694351e+00
1.984490e+01	-5.730878e+00
1.995952e+01	-5.767815e+00
2.007480e+01	-5.804442e+00
2.019076e+01	-5.841449e+00
2.030738e+01	-5.878336e+00
2.042467e+01	-5.915676e+00
2.054264e+01	-5.952773e+00
2.066130e+01	-5.990557e+00
2.078064e+01	-6.028039e+00
2.090066e+01	-6.065599e+00
2.102139e+01	-6.103159e+00
2.114280e+01	-6.140886e+00
2.126492e+01	-6.178791e+00
2.138775e+01	-6.217025e+00
2.151128e+01	-6.255027e+00
2.163553e+01	-6.293051e+00
2.176050e+01	-6.331449e+00
2.188619e+01	-6.370100e+00
2.201260e+01	-6.408891e+00
2.213974e+01	-6.447120e+00
2.226762e+01	-6.485747e+00
2.239624e+01	-6.524482e+00
2.252560e+01	-6.563799e+00
2.265571e+01	-6.602660e+00
2.278656e+01	-6.641685e+00
2.291818e+01	-6.680821e+00
2.305055e+01	-6.720146e+00
2.318369e+01	-6.759695e+00
2.331760e+01	-6.799465e+00
2.345228e+01	-6.838968e+00
2.358774e+01	-6.878890e+00
2.372398e+01	-6.918467e+00
2.386101e+01	-6.958299e+00
2.399883e+01	-6.998564e+00
2.413745e+01	-7.038897e+00
2.427686e+01	-7.078481e+00
2.441709e+01	-7.119450e+00
2.455812e+01	-7.159328e+00
2.469997e+01	-7.199619e+00
2.484263e+01	-7.240349e+00
2.498612e+01	-7.280644e+00
2.513044e+01	-7.321810e+00
2.527559e+01	-7.362125e+00
2.542158e+01	-7.403390e+00
2.556842e+01	-7.444132e+00
2.571610e+01	-7.485202e+00
2.586463e+01	-7.526665e+00
2.601403e+01	-7.567456e+00
2.616428e+01	-7.609134e+00
2.631541e+01	-7.650533e+00
2.646740e+01	-7.692232e+00
2.662028e+01	-7.733537e+00
2.677404e+01	-7.775015e+00
2.692868e+01	-7.816564e+00
2.708422e+01	-7.858548e+00
2.724066e+01	-7.900097e+00
2.739800e+01	-7.942392e+00
2.755625e+01	-7.984426e+00
2.771541e+01	-8.026681e+00
2.787550e+01	-8.068126e+00
2.803650e+01	-8.110982e+00
2.819844e+01	-8.153288e+00
2.836131e+01	-8.195879e+00
2.852513e+01	-8.238113e+00
2.868989e+01	-8.280465e+00
2.885560e+01	-8.323535e+00
2.902227e+01	-8.366066e+00
2.918990e+01	-8.408635e+00
2.935850e+01	-8.451873e+00
2.952807e+01	-8.494716e+00
2.969863e+01	-8.537468e+00
2.987016e+01	-8.580570e+00
3.004269e+01	-8.623829e+00
3.021622e+01	-8.666792e+00
3.039075e+01	-8.710482e+00
3.056628e+01	-8.753558e+00
3.074283e+01	-8.796923e+00
3.092040e+01	-8.840094e+00
3.109900e+01	-8.883841e+00
3.127862e+01	-8.927718e+00
3.145929e+01	-8.971103e+00
3.164099e+01	-9.014603e+00
3.182375e+01	-9.058975e+00
3.200756e+01	-9.102723e+00
3.219244e+01	-9.146271e+00
3.237838e+01	-9.190314e+00
3.256540e+01	-9.234831e+00
3.275349e+01	-9.278622e+00
3.294268e+01	-9.322334e+00
3.313295e+01	-9.366827e+00
3.332433e+01	-9.410771e+00
3.351681e+01	-9.455250e+00
3.371040e+01	-9.500080e+00
3.390511e+01	-9.544444e+00
3.410094e+01	-9.589073e+00
3.429791e+01	-9.633267e+00
3.449601e+01	-9.677794e+00
3.469526e+01	-9.722347e+00
3.489566e+01	-9.767242e+00
3.509721e+01	-9.811983e+00
3.529993e+01	-9.856686e+00
3.550382e+01	-9.901450e+00
3.570889e+01	-9.946329e+00
3.591515e+01	-9.991808e+00
3.612259e+01	-1.003636e+01
3.633123e+01	-1.008169e+01
3.654108e+01	-1.012700e+01
3.675214e+01	-1.017225e+01
3.696442e+01	-1.021723e+01
3.717792e+01	-1.026253e+01
3.739266e+01	-1.030792e+01
3.760864e+01	-1.035294e+01
3.782587e+01	-1.039858e+01
3.804435e+01	-1.044438e+01
3.826409e+01	-1.048974e+01
3.848510e+01	-1.053537e+01
3.870739e+01	-1.058097e+01
3.893096e+01	-1.062703e+01
3.915583e+01	-1.067275e+01
3.938199e+01	-1.071786e+01
3.960946e+01	-1.076397e+01
3.983824e+01	-1.081027e+01
4.006834e+01	-1.085559e+01
4.029978e+01	-1.090201e+01
4.053255e+01	-1.094801e+01
4.076666e+01	-1.099376e+01
4.100213e+01	-1.103933e+01
4.123896e+01	-1.108619e+01
4.147715e+01	-1.113189e+01
4.171672e+01	-1.117798e+01
4.195767e+01	-1.122386e+01
4.220002e+01	-1.127071e+01
4.244377e+01	-1.131768e+01
4.268892e+01	-1.136325e+01
4.293549e+01	-1.140983e+01
4.318348e+01	-1.145597e+01
4.343291e+01	-1.150234e+01
4.368377e+01	-1.154881e+01
4.393609e+01	-1.159570e+01
4.418986e+01	-1.164228e+01
4.444510e+01	-1.168938e+01
4.470182e+01	-1.173595e+01
4.496001e+01	-1.178235e+01
4.521970e+01	-1.182906e+01
4.548089e+01	-1.187611e+01
4.574358e+01	-1.192314e+01
4.600779e+01	-1.196912e+01
4.627353e+01	-1.201666e+01
4.654081e+01	-1.206351e+01
4.680963e+01	-1.210967e+01
4.708000e+01	-1.215701e+01
4.735193e+01	-1.220435e+01
4.762543e+01	-1.225127e+01
4.790051e+01	-1.229807e+01
4.817719e+01	-1.234546e+01
4.845545e+01	-1.239241e+01
4.873533e+01	-1.243880e+01
4.901682e+01	-1.248669e+01
4.929994e+01	-1.253383e+01
4.958470e+01	-1.258147e+01
4.987110e+01	-1.262867e+01
5.015915e+01	-1.267579e+01
5.044887e+01	-1.272322e+01
5.074026e+01	-1.277042e+01
5.103333e+01	-1.281813e+01
5.132810e+01	-1.286449e+01
5.162457e+01	-1.291234e+01
5.192275e+01	-1.295959e+01
5.222265e+01	-1.300779e+01
5.252429e+01	-1.305537e+01
5.282767e+01	-1.310286e+01
5.313280e+01	-1.315059e+01
5.343969e+01	-1.319829e+01
5.374836e+01	-1.324630e+01
5.405880e+01	-1.329364e+01
5.437105e+01	-1.334091e+01
5.468509e+01	-1.338903e+01
5.500095e+01	-1.343710e+01
5.531863e+01	-1.348408e+01
5.563815e+01	-1.353233e+01
5.595951e+01	-1.358030e+01
5.628273e+01	-1.362822e+01
5.660782e+01	-1.367566e+01
5.693479e+01	-1.372342e+01
5.726364e+01	-1.377208e+01
5.759439e+01	-1.381941e+01
5.792705e+01	-1.386830e+01
5.826164e+01	-1.391597e+01
5.859815e+01	-1.396321e+01
5.893662e+01	-1.401186e+01
5.927703e+01	-1.405924e+01
5.961941e+01	-1.410741e+01
5.996377e+01	-1.415497e+01
6.031012e+01	-1.420439e+01
6.065847e+01	-1.425170e+01
6.100883e+01	-1.429986e+01
6.136121e+01	-1.434806e+01
6.171563e+01	-1.439620e+01
6.207210e+01	-1.444433e+01
6.243063e+01	-1.449337e+01
6.279122e+01	-1.454122e+01
6.315390e+01	-1.459019e+01
6.351868e+01	-1.463739e+01
6.388556e+01	-1.468624e+01
6.425456e+01	-1.473425e+01
6.462569e+01	-1.478360e+01
6.499897e+01	-1.483117e+01
6.537440e+01	-1.487951e+01
6.575200e+01	-1.492859e+01
6.613178e+01	-1.497620e+01
6.651375e+01	-1.502502e+01
6.689793e+01	-1.507216e+01
6.728433e+01	-1.512111e+01
6.767297e+01	-1.517076e+01
6.806384e+01	-1.521796e+01
6.845698e+01	-1.526845e+01
6.885238e+01	-1.531527e+01
6.925007e+01	-1.536474e+01
6.965005e+01	-1.541295e+01
7.005235e+01	-1.546121e+01
7.045697e+01	-1.550992e+01
7.086393e+01	-1.555878e+01
7.127323e+01	-1.560797e+01
7.168490e+01	-1.565665e+01
7.209895e+01	-1.570519e+01
7.251539e+01	-1.575409e+01
7.293424e+01	-1.580273e+01
7.335551e+01	-1.585053e+01
7.377920e+01	-1.589985e+01
7.420535e+01	-1.594887e+01
7.463396e+01	-1.599790e+01
7.506504e+01	-1.604638e+01
7.549861e+01	-1.609532e+01
7.593469e+01	-1.614352e+01
7.637328e+01	-1.619231e+01
7.681441e+01	-1.624148e+01
7.725809e+01	-1.628952e+01
7.770433e+01	-1.633972e+01
7.815315e+01	-1.638838e+01
7.860456e+01	-1.643638e+01
7.905857e+01	-1.648603e+01
7.951521e+01	-1.653509e+01
7.997449e+01	-1.658420e+01
8.043642e+01	-1.663275e+01
8.090102e+01	-1.668123e+01
8.136830e+01	-1.672987e+01
8.183828e+01	-1.677967e+01
8.231097e+01	-1.682773e+01
8.278640e+01	-1.687764e+01
8.326457e+01	-1.692599e+01
8.374550e+01	-1.697550e+01
8.422921e+01	-1.702524e+01
8.471572e+01	-1.707438e+01
8.520503e+01	-1.712152e+01
8.569717e+01	-1.717156e+01
8.619215e+01	-1.722071e+01
8.669000e+01	-1.726956e+01
8.719071e+01	-1.731842e+01
8.769432e+01	-1.736770e+01
8.820084e+01	-1.741757e+01
8.871029e+01	-1.746548e+01
8.922267e+01	-1.751566e+01
8.973802e+01	-1.756543e+01
9.025634e+01	-1.761277e+01
9.077766e+01	-1.766203e+01
9.130199e+01	-1.771207e+01
9.182935e+01	-1.776030e+01
9.235975e+01	-1.780967e+01
9.289321e+01	-1.785828e+01
9.342976e+01	-1.790887e+01
9.396941e+01	-1.795766e+01
9.451217e+01	-1.800803e+01
9.505807e+01	-1.805679e+01
9.560712e+01	-1.810523e+01
9.615934e+01	-1.815436e+01
9.671476e+01	-1.820548e+01
9.727338e+01	-1.825477e+01
9.783522e+01	-1.830272e+01
9.840032e+01	-1.835286e+01
9.896867e+01	-1.840213e+01
9.954031e+01	-1.845137e+01
1.001153e+02	-1.850069e+01
1.006935e+02	-1.854973e+01
1.012751e+02	-1.859858e+01
1.018601e+02	-1.864719e+01
1.024484e+02	-1.869773e+01
1.030402e+02	-1.874642e+01
1.036353e+02	-1.879590e+01
1.042339e+02	-1.884551e+01
1.048360e+02	-1.889555e+01
1.054415e+02	-1.894380e+01
1.060505e+02	-1.899385e+01
1.066631e+02	-1.904359e+01
1.072791e+02	-1.909236e+01
1.078988e+02	-1.914263e+01
1.085220e+02	-1.919035e+01
1.091488e+02	-1.924179e+01
1.097793e+02	-1.929030e+01
1.104133e+02	-1.934007e+01
1.110511e+02	-1.938779e+01
1.116925e+02	-1.943797e+01
1.123376e+02	-1.948808e+01
1.129865e+02	-1.953924e+01
1.136391e+02	-1.958543e+01
1.142955e+02	-1.963704e+01
1.149556e+02	-1.968594e+01
1.156196e+02	-1.973620e+01
1.162874e+02	-1.978681e+01
1.169591e+02	-1.983414e+01
1.176347e+02	-1.988510e+01
1.183141e+02	-1.993304e+01
1.189975e+02	-1.998253e+01
1.196848e+02	-2.003224e+01
1.203761e+02	-2.008240e+01
1.210714e+02	-2.013203e+01
1.217707e+02	-2.018156e+01
1.224740e+02	-2.023124e+01
1.231814e+02	-2.027969e+01
1.238929e+02	-2.032849e+01
1.246085e+02	-2.038043e+01
1.253283e+02	-2.042886e+01
1.260522e+02	-2.047882e+01
1.267802e+02	-2.052864e+01
1.275125e+02	-2.057831e+01
1.282490e+02	-2.062865e+01
1.289898e+02	-2.067785e+01
1.297348e+02	-2.072760e+01
1.304842e+02	-2.077720e+01
1.312378e+02	-2.082567e+01
1.319959e+02	-2.087741e+01
1.327583e+02	-2.092539e+01
1.335251e+02	-2.097507e+01
1.342963e+02	-2.102522e+01
1.350720e+02	-2.107419e+01
1.358522e+02	-2.112386e+01
1.366368e+02	-2.117296e+01
1.374260e+02	-2.122225e+01
1.382198e+02	-2.127385e+01
1.390182e+02	-2.132118e+01
1.398211e+02	-2.137242e+01
1.406287e+02	-2.142547e+01
1.414410e+02	-2.147201e+01
1.422579e+02	-2.152089e+01
1.430796e+02	-2.156940e+01
1.439060e+02	-2.161922e+01
1.447372e+02	-2.167229e+01
1.455732e+02	-2.171996e+01
1.464141e+02	-2.177079e+01
1.472597e+02	-2.181923e+01
1.481103e+02	-2.186964e+01
1.489658e+02	-2.191828e+01
1.498262e+02	-2.196968e+01
1.506916e+02	-2.201841e+01
1.515620e+02	-2.207111e+01
1.524374e+02	-2.211782e+01
1.533179e+02	-2.216780e+01
1.542034e+02	-2.221731e+01
1.550941e+02	-2.226786e+01
1.559899e+02	-2.231414e+01
1.568909e+02	-2.236461e+01
1.577971e+02	-2.241476e+01
1.587085e+02	-2.246739e+01
1.596252e+02	-2.251641e+01
1.605472e+02	-2.256680e+01
1.614745e+02	-2.261400e+01
1.624072e+02	-2.266606e+01
1.633453e+02	-2.271514e+01
1.642887e+02	-2.276502e+01
1.652377e+02	-2.281429e+01
1.661921e+02	-2.286238e+01
1.671520e+02	-2.291414e+01
1.681175e+02	-2.296530e+01
1.690885e+02	-2.301409e+01
1.700651e+02	-2.306545e+01
1.710474e+02	-2.311183e+01
1.720354e+02	-2.316229e+01
1.730291e+02	-2.321155e+01
1.740285e+02	-2.326471e+01
1.750337e+02	-2.331191e+01
1.760446e+02	-2.336238e+01
1.770615e+02	-2.341162e+01
1.780842e+02	-2.346560e+01
1.791128e+02	-2.351093e+01
1.801473e+02	-2.356462e+01
1.811878e+02	-2.361204e+01
1.822344e+02	-2.366423e+01
1.832870e+02	-2.371307e+01
1.843456e+02	-2.376035e+01
1.854104e+02	-2.381191e+01
1.864813e+02	-2.385813e+01
1.875584e+02	-2.391194e+01
1.886418e+02	-2.395786e+01
1.897313e+02	-2.400964e+01
1.908272e+02	-2.405932e+01
1.919294e+02	-2.411114e+01
1.930380e+02	-2.415794e+01
1.941530e+02	-2.420865e+01
1.952744e+02	-2.426067e+01
1.964023e+02	-2.430957e+01
1.975367e+02	-2.435940e+01
1.986777e+02	-2.440855e+01
1.998252e+02	-2.446017e+01
2.009794e+02	-2.451050e+01
2.021403e+02	-2.455811e+01
2.033078e+02	-2.461016e+01
2.044821e+02	-2.465420e+01
2.056632e+02	-2.470866e+01
2.068511e+02	-2.475945e+01
2.080459e+02	-2.481169e+01
2.092475e+02	-2.485777e+01
2.104561e+02	-2.490680e+01
2.116717e+02	-2.495853e+01
2.128943e+02	-2.500439e+01
2.141240e+02	-2.505954e+01
2.153608e+02	-2.510728e+01
2.166047e+02	-2.515627e+01
2.178558e+02	-2.520659e+01
2.191141e+02	-2.525778e+01
2.203797e+02	-2.530546e+01
2.216526e+02	-2.535918e+01
2.229329e+02	-2.540877e+01
2.242205e+02	-2.545768e+01
2.255156e+02	-2.550708e+01
2.268182e+02	-2.555821e+01
2.281283e+02	-2.560696e+01
2.294459e+02	-2.565700e+01
2.307712e+02	-2.570691e+01
2.321041e+02	-2.575843e+01
2.334447e+02	-2.580804e+01
2.347931e+02	-2.585645e+01
2.361493e+02	-2.590721e+01
2.375133e+02	-2.595404e+01
2.388851e+02	-2.600863e+01
2.402649e+02	-2.606066e+01
2.416527e+02	-2.610692e+01
2.430484e+02	-2.615736e+01
2.444523e+02	-2.620757e+01
2.458642e+02	-2.625732e+01
2.472843e+02	-2.630326e+01
2.487126e+02	-2.635510e+01
2.501492e+02	-2.640671e+01
2.515940e+02	-2.645569e+01
2.530472e+02	-2.650589e+01
2.545088e+02	-2.655511e+01
2.559789e+02	-2.660776e+01
2.574574e+02	-2.665603e+01
2.589444e+02	-2.670610e+01
2.604401e+02	-2.675959e+01
2.619444e+02	-2.680507e+01
2.634574e+02	-2.685271e+01
2.649791e+02	-2.691042e+01
2.665096e+02	-2.695760e+01
2.680489e+02	-2.700827e+01
2.695972e+02	-2.705825e+01
2.711544e+02	-2.710658e+01
2.727205e+02	-2.715263e+01
2.742958e+02	-2.720523e+01
2.758801e+02	-2.725740e+01
2.774736e+02	-2.730662e+01
2.790762e+02	-2.735911e+01
2.806882e+02	-2.740951e+01
2.823094e+02	-2.745274e+01
2.839400e+02	-2.750556e+01
2.855800e+02	-2.755373e+01
2.872295e+02	-2.760652e+01
2.888886e+02	-2.765446e+01
2.905572e+02	-2.770587e+01
2.922354e+02	-2.775842e+01
2.939234e+02	-2.780550e+01
2.956211e+02	-2.785276e+01
2.973286e+02	-2.790493e+01
2.990459e+02	-2.795613e+01
3.007732e+02	-2.800290e+01
3.025104e+02	-2.805643e+01
3.042577e+02	-2.810844e+01
3.060151e+02	-2.815647e+01
3.077826e+02	-2.820744e+01
3.095604e+02	-2.825870e+01
3.113484e+02	-2.831023e+01
3.131467e+02	-2.835045e+01
3.149554e+02	-2.840801e+01
3.167746e+02	-2.845363e+01
3.186043e+02	-2.850618e+01
3.204445e+02	-2.855829e+01
3.222954e+02	-2.861003e+01
3.241570e+02	-2.866021e+01
3.260293e+02	-2.870694e+01
3.279124e+02	-2.875667e+01
3.298064e+02	-2.880446e+01
3.317114e+02	-2.885627e+01
3.336273e+02	-2.890510e+01
3.355544e+02	-2.895387e+01
3.374925e+02	-2.900752e+01
3.394418e+02	-2.905963e+01
3.414024e+02	-2.910898e+01
3.433744e+02	-2.915637e+01
3.453577e+02	-2.920786e+01
3.473525e+02	-2.925509e+01
3.493588e+02	-2.930754e+01
3.513766e+02	-2.935498e+01
3.534062e+02	-2.940675e+01
3.554474e+02	-2.945945e+01
3.575005e+02	-2.950445e+01
3.595654e+02	-2.955276e+01
3.616422e+02	-2.960653e+01
3.637311e+02	-2.966055e+01
3.658320e+02	-2.970769e+01
3.679450e+02	-2.975972e+01
3.700702e+02	-2.981203e+01
3.722077e+02	-2.985656e+01
3.743576e+02	-2.991253e+01
3.765199e+02	-2.995906e+01
3.786946e+02	-3.000887e+01
3.808820e+02	-3.006475e+01
3.830819e+02	-3.011088e+01
3.852946e+02	-3.016037e+01
3.875200e+02	-3.020615e+01
3.897583e+02	-3.025946e+01
3.920096e+02	-3.031627e+01
3.942738e+02	-3.036105e+01
3.965511e+02	-3.041493e+01
3.988416e+02	-3.045456e+01
4.011452e+02	-3.051233e+01
4.034622e+02	-3.056232e+01
4.057926e+02	-3.061123e+01
4.081365e+02	-3.066428e+01
4.104938e+02	-3.071241e+01
4.128648e+02	-3.075661e+01
4.152495e+02	-3.081478e+01
4.176480e+02	-3.086486e+01
4.200603e+02	-3.090523e+01
4.224866e+02	-3.096303e+01
4.249268e+02	-3.100777e+01
4.273812e+02	-3.106092e+01
4.298497e+02	-3.111236e+01
4.323325e+02	-3.116116e+01
4.348297e+02	-3.120889e+01
4.373412e+02	-3.126401e+01
4.398673e+02	-3.131213e+01
4.424079e+02	-3.136078e+01
4.449633e+02	-3.141296e+01
4.475334e+02	-3.146472e+01
4.501183e+02	-3.151229e+01
4.527182e+02	-3.156163e+01
4.553330e+02	-3.161028e+01
4.579630e+02	-3.166806e+01
4.606082e+02	-3.171116e+01
4.632687e+02	-3.176570e+01
4.659445e+02	-3.181249e+01
4.686358e+02	-3.186509e+01
4.713426e+02	-3.191653e+01
4.740650e+02	-3.196297e+01
4.768032e+02	-3.200899e+01
4.795572e+02	-3.206443e+01
4.823271e+02	-3.211949e+01
4.851130e+02	-3.216130e+01
4.879150e+02	-3.221507e+01
4.907332e+02	-3.226670e+01
4.935676e+02	-3.231853e+01
4.964185e+02	-3.236543e+01
4.992858e+02	-3.241449e+01
5.021696e+02	-3.247227e+01
5.050701e+02	-3.251989e+01
5.079874e+02	-3.256856e+01
5.109215e+02	-3.261606e+01
5.138726e+02	-3.266165e+01
5.168407e+02	-3.271322e+01
5.198259e+02	-3.276414e+01
5.228284e+02	-3.281870e+01
5.258482e+02	-3.286576e+01
5.288855e+02	-3.291321e+01
5.319403e+02	-3.297340e+01
5.350128e+02	-3.301690e+01
5.381030e+02	-3.307861e+01
5.412111e+02	-3.312169e+01
5.443371e+02	-3.316737e+01
5.474812e+02	-3.321921e+01
5.506434e+02	-3.326332e+01
5.538239e+02	-3.331249e+01
5.570228e+02	-3.336920e+01
5.602401e+02	-3.342361e+01
5.634760e+02	-3.347195e+01
5.667306e+02	-3.352138e+01
5.700040e+02	-3.356951e+01
5.732964e+02	-3.361745e+01
5.766077e+02	-3.367219e+01
5.799382e+02	-3.372681e+01
5.832879e+02	-3.377127e+01
5.866569e+02	-3.381401e+01
5.900454e+02	-3.387040e+01
5.934535e+02	-3.392303e+01
5.968813e+02	-3.397830e+01
6.003288e+02	-3.401884e+01
6.037963e+02	-3.407167e+01
6.072838e+02	-3.412775e+01
6.107914e+02	-3.417140e+01
6.143194e+02	-3.422576e+01
6.178676e+02	-3.427778e+01
6.214364e+02	-3.433430e+01
6.250258e+02	-3.437884e+01
6.286359e+02	-3.441931e+01
6.322669e+02	-3.448019e+01
6.359189e+02	-3.453030e+01
6.395919e+02	-3.457440e+01
6.432862e+02	-3.461569e+01
6.470017e+02	-3.468170e+01
6.507388e+02	-3.473864e+01
6.544974e+02	-3.478771e+01
6.582778e+02	-3.483205e+01
6.620800e+02	-3.487675e+01
6.659041e+02	-3.493127e+01
6.697504e+02	-3.497639e+01
6.736188e+02	-3.502830e+01
6.775096e+02	-3.508192e+01
6.814229e+02	-3.513199e+01
6.853587e+02	-3.518024e+01
6.893173e+02	-3.523741e+01
6.932988e+02	-3.527762e+01
6.973033e+02	-3.533422e+01
7.013309e+02	-3.537981e+01
