Frequency(Hz)	Magnitude(dB)
1.000000e+01	-2.295861e+00
1.005776e+01	-2.316526e+00
1.011585e+01	-2.337348e+00
1.017428e+01	-2.358144e+00
1.023305e+01	-2.379281e+00
1.029215e+01	-2.400360e+00
1.035160e+01	-2.421844e+00
1.041139e+01	-2.443531e+00
1.047153e+01	-2.464885e+00
1.053201e+01	-2.486305e+00
1.059284e+01	-2.508343e+00
1.065403e+01	-2.530442e+00
1.071556e+01	-2.552620e+00
1.077746e+01	-2.574920e+00
1.083971e+01	-2.597442e+00
1.090232e+01	-2.619941e+00
1.096529e+01	-2.642556e+00
1.102862e+01	-2.665636e+00
1.109232e+01	-2.688445e+00
1.115639e+01	-2.711631e+00
1.122083e+01	-2.734867e+00
1.128564e+01	-2.758301e+00
1.135083e+01	-2.782014e+00
1.141639e+01	-2.805820e+00
1.148233e+01	-2.829685e+00
1.154865e+01	-2.853660e+00
1.161536e+01	-2.877753e+00
1.168245e+01	-2.902194e+00
1.174992e+01	-2.926721e+00
1.181779e+01	-2.951133e+00
1.188605e+01	-2.975732e+00
1.195470e+01	-3.000644e+00
1.202375e+01	-3.025833e+00
1.209320e+01	-3.051071e+00
1.216305e+01	-3.076324e+00
1.223330e+01	-3.101761e+00
1.230396e+01	-3.127545e+00
1.237503e+01	-3.153133e+00
1.244651e+01	-3.178963e+00
1.251840e+01	-3.204897e+00
1.259070e+01	-3.231451e+00
1.266343e+01	-3.257564e+00
1.273657e+01	-3.283933e+00
1.281014e+01	-3.310644e+00
1.288413e+01	-3.337193e+00
1.295855e+01	-3.364256e+00
1.303339e+01	-3.391243e+00
1.310867e+01	-3.418248e+00
1.318439e+01	-3.445752e+00
1.326054e+01	-3.473485e+00
1.333713e+01	-3.500784e+00
1.341417e+01	-3.528610e+00
1.349165e+01	-3.556936e+00
1.356958e+01	-3.584930e+00
1.364795e+01	-3.613022e+00
1.372678e+01	-3.640946e+00
1.380607e+01	-3.669906e+00
1.388581e+01	-3.698143e+00
1.396602e+01	-3.726950e+00
1.404668e+01	-3.756003e+00
1.412782e+01	-3.784943e+00
1.420942e+01	-3.814121e+00
1.429149e+01	-3.843595e+00
1.437404e+01	-3.872634e+00
1.445706e+01	-3.902552e+00
1.454057e+01	-3.932069e+00
1.462455e+01	-3.961819e+00
1.470902e+01	-3.991963e+00
1.479398e+01	-4.022027e+00
1.487943e+01	-4.052545e+00
1.496537e+01	-4.082935e+00
1.505181e+01	-4.113387e+00
1.513875e+01	-4.144047e+00
1.522619e+01	-4.174781e+00
1.531414e+01	-4.205685e+00
1.540259e+01	-4.236964e+00
1.549156e+01	-4.268166e+00
1.558103e+01	-4.299583e+00
1.567103e+01	-4.331061e+00
1.576155e+01	-4.362608e+00
1.585258e+01	-4.394290e+00
1.594415e+01	-4.426722e+00
1.603624e+01	-4.458395e+00
1.612886e+01	-4.490631e+00
1.622202e+01	-4.522973e+00
1.631572e+01	-4.555405e+00
1.640996e+01	-4.588020e+00
1.650474e+01	-4.620385e+00
1.660008e+01	-4.653531e+00
1.669596e+01	-4.686419e+00
1.679239e+01	-4.719711e+00
1.688938e+01	-4.752759e+00
1.698694e+01	-4.785776e+00
1.708505e+01	-4.819651e+00
1.718373e+01	-4.853371e+00
1.728299e+01	-4.886791e+00
1.738281e+01	-4.920708e+00
1.748322e+01	-4.954679e+00
1.758420e+01	-4.988592e+00
1.768576e+01	-5.022921e+00
1.778792e+01	-5.057302e+00
1.789066e+01	-5.091674e+00
1.799399e+01	-5.126808e+00
1.809793e+01	-5.161061e+00
1.820246e+01	-5.196059e+00
1.830760e+01	-5.230899e+00
1.841334e+01	-5.265961e+00
1.851969e+01	-5.301529e+00
1.862666e+01	-5.336437e+00
1.873425e+01	-5.371803e+00
1.884246e+01	-5.407686e+00
1.895129e+01	-5.443224e+00
1.906075e+01	-5.479119e+00
1.917085e+01	-5.514587e+00
1.928158e+01	-5.550818e+00
1.939295e+01	-5.587400e+00
1.950496e+01	-5.623664e+00
1.961762e+01	-5.659725e+00
1.973093e+01	-5.696125e+00
1.984490e+01	-5.732738e+00
1.995952e+01	-5.769465e+00
2.007480e+01	-5.806349e+00
2.019076e+01	-5.843471e+00
2.030738e+01	-5.880467e+00
2.042467e+01	-5.917498e+00
2.054264e+01	-5.954793e+00
2.066130e+01	-5.992485e+00
2.078064e+01	-6.029533e+00
2.090066e+01	-6.067097e+00
2.102139e+01	-6.104926e+00
2.114280e+01	-6.142785e+00
2.126492e+01	-6.180742e+00
2.138775e+01	-6.218629e+00
2.151128e+01	-6.256758e+00
2.163553e+01	-6.294985e+00
2.176050e+01	-6.333226e+00
2.188619e+01	-6.372207e+00
2.201260e+01	-6.410435e+00
2.213974e+01	-6.449142e+00
2.226762e+01	-6.487870e+00
2.239624e+01	-6.526775e+00
2.252560e+01	-6.565811e+00
2.265571e+01	-6.604943e+00
2.278656e+01	-6.644172e+00
2.291818e+01	-6.683003e+00
2.305055e+01	-6.722406e+00
2.318369e+01	-6.761801e+00
2.331760e+01	-6.801199e+00
2.345228e+01	-6.841172e+00
2.358774e+01	-6.880620e+00
2.372398e+01	-6.920263e+00
2.386101e+01	-6.960552e+00
2.399883e+01	-7.000628e+00
2.413745e+01	-7.040469e+00
2.427686e+01	-7.080466e+00
2.441709e+01	-7.120948e+00
2.455812e+01	-7.161560e+00
2.469997e+01	-7.202030e+00
2.484263e+01	-7.242258e+00
2.498612e+01	-7.282799e+00
2.513044e+01	-7.323543e+00
2.527559e+01	-7.364983e+00
2.542158e+01	-7.405474e+00
2.556842e+01	-7.446729e+00
2.571610e+01	-7.487531e+00
2.586463e+01	-7.528670e+00
2.601403e+01	-7.569426e+00
2.616428e+01	-7.611493e+00
2.631541e+01	-7.653069e+00
2.646740e+01	-7.694252e+00
2.662028e+01	-7.735955e+00
2.677404e+01	-7.777205e+00
2.692868e+01	-7.818602e+00
2.708422e+01	-7.860917e+00
2.724066e+01	-7.902692e+00
2.739800e+01	-7.944404e+00
2.755625e+01	-7.986690e+00
2.771541e+01	-8.028503e+00
2.787550e+01	-8.070697e+00
2.803650e+01	-8.113302e+00
2.819844e+01	-8.155608e+00
2.836131e+01	-8.198207e+00
2.852513e+01	-8.240234e+00
2.868989e+01	-8.283211e+00
2.885560e+01	-8.325854e+00
2.902227e+01	-8.368650e+00
2.918990e+01	-8.410873e+00
2.935850e+01	-8.453995e+00
2.952807e+01	-8.496824e+00
2.969863e+01	-8.539873e+00
2.987016e+01	-8.582839e+00
3.004269e+01	-8.625959e+00
3.021622e+01	-8.669558e+00
3.039075e+01	-8.712454e+00
3.056628e+01	-8.756073e+00
3.074283e+01	-8.799308e+00
3.092040e+01	-8.842584e+00
3.109900e+01	-8.886108e+00
3.127862e+01	-8.929877e+00
3.145929e+01	-8.973547e+00
3.164099e+01	-9.017231e+00
3.182375e+01	-9.061158e+00
3.200756e+01	-9.104455e+00
3.219244e+01	-9.148708e+00
3.237838e+01	-9.192468e+00
3.256540e+01	-9.236775e+00
3.275349e+01	-9.280590e+00
3.294268e+01	-9.324830e+00
3.313295e+01	-9.369022e+00
3.332433e+01	-9.413325e+00
3.351681e+01	-9.456984e+00
3.371040e+01	-9.502362e+00
3.390511e+01	-9.545967e+00
3.410094e+01	-9.591110e+00
3.429791e+01	-9.635827e+00
3.449601e+01	-9.680089e+00
3.469526e+01	-9.725667e+00
3.489566e+01	-9.769874e+00
3.509721e+01	-9.814485e+00
3.529993e+01	-9.859431e+00
3.550382e+01	-9.903580e+00
3.570889e+01	-9.949208e+00
3.591515e+01	-9.994405e+00
3.612259e+01	-1.003878e+01
3.633123e+01	-1.008375e+01
3.654108e+01	-1.012934e+01
3.675214e+01	-1.017446e+01
3.696442e+01	-1.021998e+01
3.717792e+01	-1.026547e+01
3.739266e+01	-1.031043e+01
3.760864e+01	-1.035576e+01
3.782587e+01	-1.040129e+01
3.804435e+01	-1.044658e+01
3.826409e+01	-1.049242e+01
3.848510e+01	-1.053795e+01
3.870739e+01	-1.058369e+01
3.893096e+01	-1.062967e+01
3.915583e+01	-1.067502e+01
3.938199e+01	-1.072012e+01
3.960946e+01	-1.076670e+01
3.983824e+01	-1.081217e+01
4.006834e+01	-1.085828e+01
4.029978e+01	-1.090414e+01
4.053255e+01	-1.095034e+01
4.076666e+01	-1.099611e+01
4.100213e+01	-1.104238e+01
4.123896e+01	-1.108837e+01
4.147715e+01	-1.113458e+01
4.171672e+01	-1.118090e+01
4.195767e+01	-1.122656e+01
4.220002e+01	-1.127281e+01
4.244377e+01	-1.131988e+01
4.268892e+01	-1.136563e+01
4.293549e+01	-1.141238e+01
4.318348e+01	-1.145959e+01
4.343291e+01	-1.150536e+01
4.368377e+01	-1.155193e+01
4.393609e+01	-1.159698e+01
4.418986e+01	-1.164480e+01
4.444510e+01	-1.169136e+01
4.470182e+01	-1.173808e+01
4.496001e+01	-1.178482e+01
4.521970e+01	-1.183203e+01
4.548089e+01	-1.187830e+01
4.574358e+01	-1.192527e+01
4.600779e+01	-1.197233e+01
4.627353e+01	-1.201912e+01
4.654081e+01	-1.206599e+01
4.680963e+01	-1.211202e+01
4.708000e+01	-1.215923e+01
4.735193e+01	-1.220724e+01
4.762543e+01	-1.225367e+01
4.790051e+01	-1.230053e+01
4.817719e+01	-1.234771e+01
4.845545e+01	-1.239484e+01
4.873533e+01	-1.244210e+01
4.901682e+01	-1.248885e+01
4.929994e+01	-1.253714e+01
4.958470e+01	-1.258352e+01
4.987110e+01	-1.263051e+01
5.015915e+01	-1.267818e+01
5.044887e+01	-1.272637e+01
5.074026e+01	-1.277267e+01
5.103333e+01	-1.282064e+01
5.132810e+01	-1.286823e+01
5.162457e+01	-1.291517e+01
5.192275e+01	-1.296344e+01
5.222265e+01	-1.301011e+01
5.252429e+01	-1.305817e+01
5.282767e+01	-1.310585e+01
5.313280e+01	-1.315328e+01
5.343969e+01	-1.320060e+01
5.374836e+01	-1.324842e+01
5.405880e+01	-1.329604e+01
5.437105e+01	-1.334362e+01
5.468509e+01	-1.339159e+01
5.500095e+01	-1.343868e+01
5.531863e+01	-1.348675e+01
5.563815e+01	-1.353422e+01
5.595951e+01	-1.358279e+01
5.628273e+01	-1.363091e+01
5.660782e+01	-1.367756e+01
5.693479e+01	-1.372648e+01
5.726364e+01	-1.377367e+01
5.759439e+01	-1.382222e+01
5.792705e+01	-1.386975e+01
5.826164e+01	-1.391855e+01
5.859815e+01	-1.396582e+01
5.893662e+01	-1.401453e+01
5.927703e+01	-1.406224e+01
5.961941e+01	-1.411030e+01
5.996377e+01	-1.415804e+01
6.031012e+01	-1.420667e+01
6.065847e+01	-1.425416e+01
6.100883e+01	-1.430225e+01
6.136121e+01	-1.435059e+01
6.171563e+01	-1.439918e+01
6.207210e+01	-1.444812e+01
6.243063e+01	-1.449537e+01
6.279122e+01	-1.454414e+01
6.315390e+01	-1.459147e+01
6.351868e+01	-1.464022e+01
6.388556e+01	-1.468849e+01
6.425456e+01	-1.473706e+01
6.462569e+01	-1.478605e+01
6.499897e+01	-1.483298e+01
6.537440e+01	-1.488224e+01
6.575200e+01	-1.493009e+01
6.613178e+01	-1.497869e+01
6.651375e+01	-1.502716e+01
6.689793e+01	-1.507484e+01
6.728433e+01	-1.512444e+01
6.767297e+01	-1.517290e+01
6.806384e+01	-1.522123e+01
6.845698e+01	-1.527018e+01
6.885238e+01	-1.531848e+01
6.925007e+01	-1.536658e+01
6.965005e+01	-1.541481e+01
7.005235e+01	-1.546363e+01
7.045697e+01	-1.551231e+01
7.086393e+01	-1.556147e+01
7.127323e+01	-1.560989e+01
7.168490e+01	-1.565916e+01
7.209895e+01	-1.570842e+01
7.251539e+01	-1.575594e+01
7.293424e+01	-1.580488e+01
7.335551e+01	-1.585323e+01
7.377920e+01	-1.590179e+01
7.420535e+01	-1.595131e+01
7.463396e+01	-1.599934e+01
7.506504e+01	-1.604895e+01
7.549861e+01	-1.609645e+01
7.593469e+01	-1.614589e+01
7.637328e+01	-1.619582e+01
7.681441e+01	-1.624427e+01
7.725809e+01	-1.629300e+01
7.770433e+01	-1.634139e+01
7.815315e+01	-1.639045e+01
7.860456e+01	-1.644009e+01
7.905857e+01	-1.648745e+01
7.951521e+01	-1.653723e+01
7.997449e+01	-1.658521e+01
8.043642e+01	-1.663544e+01
8.090102e+01	-1.668333e+01
8.136830e+01	-1.673242e+01
8.183828e+01	-1.678159e+01
8.231097e+01	-1.683038e+01
8.278640e+01	-1.687990e+01
8.326457e+01	-1.692910e+01
8.374550e+01	-1.697714e+01
8.422921e+01	-1.702627e+01
8.471572e+01	-1.707669e+01
8.520503e+01	-1.712475e+01
8.569717e+01	-1.717393e+01
8.619215e+01	-1.722343e+01
8.669000e+01	-1.727132e+01
8.719071e+01	-1.732201e+01
8.769432e+01	-1.737081e+01
8.820084e+01	-1.742010e+01
8.871029e+01	-1.746892e+01
8.922267e+01	-1.751786e+01
8.973802e+01	-1.756747e+01
9.025634e+01	-1.761652e+01
9.077766e+01	-1.766495e+01
9.130199e+01	-1.771430e+01
9.182935e+01	-1.776301e+01
9.235975e+01	-1.781336e+01
9.289321e+01	-1.786268e+01
9.342976e+01	-1.791192e+01
9.396941e+01	-1.795929e+01
9.451217e+01	-1.800880e+01
9.505807e+01	-1.805923e+01
9.560712e+01	-1.810855e+01
9.615934e+01	-1.815684e+01
9.671476e+01	-1.820598e+01
9.727338e+01	-1.825462e+01
9.783522e+01	-1.830490e+01
9.840032e+01	-1.835589e+01
9.896867e+01	-1.840329e+01
9.954031e+01	-1.845439e+01
1.001153e+02	-1.850299e+01
1.006935e+02	-1.855177e+01
1.012751e+02	-1.860136e+01
1.018601e+02	-1.865074e+01
1.024484e+02	-1.870008e+01
1.030402e+02	-1.874991e+01
1.036353e+02	-1.879974e+01
1.042339e+02	-1.884833e+01
1.048360e+02	-1.889716e+01
1.054415e+02	-1.894710e+01
1.060505e+02	-1.899614e+01
1.066631e+02	-1.904573e+01
1.072791e+02	-1.909531e+01
1.078988e+02	-1.914475e+01
1.085220e+02	-1.919476e+01
1.091488e+02	-1.924438e+01
1.097793e+02	-1.929296e+01
1.104133e+02	-1.934276e+01
1.110511e+02	-1.939148e+01
1.116925e+02	-1.944084e+01
1.123376e+02	-1.949143e+01
1.129865e+02	-1.954137e+01
1.136391e+02	-1.958865e+01
1.142955e+02	-1.963886e+01
1.149556e+02	-1.968964e+01
1.156196e+02	-1.973710e+01
1.162874e+02	-1.978850e+01
1.169591e+02	-1.983808e+01
1.176347e+02	-1.988788e+01
1.183141e+02	-1.993466e+01
1.189975e+02	-1.998493e+01
1.196848e+02	-2.003602e+01
1.203761e+02	-2.008469e+01
1.210714e+02	-2.013496e+01
1.217707e+02	-2.018442e+01
1.224740e+02	-2.023267e+01
1.231814e+02	-2.028280e+01
1.238929e+02	-2.033241e+01
1.246085e+02	-2.038264e+01
1.253283e+02	-2.042964e+01
1.260522e+02	-2.048153e+01
1.267802e+02	-2.053040e+01
1.275125e+02	-2.058021e+01
1.282490e+02	-2.062842e+01
1.289898e+02	-2.068019e+01
1.297348e+02	-2.072975e+01
1.304842e+02	-2.077762e+01
1.312378e+02	-2.082849e+01
1.319959e+02	-2.087905e+01
1.327583e+02	-2.092866e+01
1.335251e+02	-2.097575e+01
1.342963e+02	-2.102608e+01
1.350720e+02	-2.107708e+01
1.358522e+02	-2.112737e+01
1.366368e+02	-2.117483e+01
1.374260e+02	-2.122738e+01
1.382198e+02	-2.127577e+01
1.390182e+02	-2.132587e+01
1.398211e+02	-2.137376e+01
1.406287e+02	-2.142529e+01
1.414410e+02	-2.147353e+01
1.422579e+02	-2.152320e+01
1.430796e+02	-2.157387e+01
1.439060e+02	-2.162359e+01
1.447372e+02	-2.167232e+01
1.455732e+02	-2.172109e+01
1.464141e+02	-2.177373e+01
1.472597e+02	-2.182492e+01
1.481103e+02	-2.187219e+01
1.489658e+02	-2.192290e+01
1.498262e+02	-2.197013e+01
1.506916e+02	-2.202121e+01
1.515620e+02	-2.207046e+01
1.524374e+02	-2.211960e+01
1.533179e+02	-2.216925e+01
1.542034e+02	-2.221895e+01
1.550941e+02	-2.226789e+01
1.559899e+02	-2.231983e+01
1.568909e+02	-2.236737e+01
1.577971e+02	-2.241943e+01
1.587085e+02	-2.246857e+01
1.596252e+02	-2.251836e+01
1.605472e+02	-2.256683e+01
1.614745e+02	-2.261918e+01
1.624072e+02	-2.266933e+01
1.633453e+02	-2.271456e+01
1.642887e+02	-2.276958e+01
1.652377e+02	-2.281732e+01
1.661921e+02	-2.286605e+01
1.671520e+02	-2.291726e+01
1.681175e+02	-2.296544e+01
1.690885e+02	-2.301558e+01
1.700651e+02	-2.306543e+01
1.710474e+02	-2.311452e+01
1.720354e+02	-2.316596e+01
1.730291e+02	-2.321518e+01
1.740285e+02	-2.326543e+01
1.750337e+02	-2.331482e+01
1.760446e+02	-2.336703e+01
1.770615e+02	-2.341594e+01
1.780842e+02	-2.346266e+01
1.791128e+02	-2.351442e+01
1.801473e+02	-2.356387e+01
1.811878e+02	-2.361220e+01
1.822344e+02	-2.366182e+01
1.832870e+02	-2.371584e+01
1.843456e+02	-2.376303e+01
1.854104e+02	-2.381542e+01
1.864813e+02	-2.386524e+01
1.875584e+02	-2.391081e+01
1.886418e+02	-2.396365e+01
1.897313e+02	-2.401137e+01
1.908272e+02	-2.406400e+01
1.919294e+02	-2.411294e+01
1.930380e+02	-2.416215e+01
1.941530e+02	-2.421206e+01
1.952744e+02	-2.426036e+01
1.964023e+02	-2.431111e+01
1.975367e+02	-2.436160e+01
1.986777e+02	-2.441393e+01
1.998252e+02	-2.446288e+01
2.009794e+02	-2.450994e+01
2.021403e+02	-2.456149e+01
2.033078e+02	-2.461229e+01
2.044821e+02	-2.466182e+01
2.056632e+02	-2.470845e+01
2.068511e+02	-2.475917e+01
2.080459e+02	-2.481064e+01
2.092475e+02	-2.486115e+01
2.104561e+02	-2.490957e+01
2.116717e+02	-2.496642e+01
2.128943e+02	-2.500660e+01
2.141240e+02	-2.505742e+01
2.153608e+02	-2.510778e+01
2.166047e+02	-2.516013e+01
2.178558e+02	-2.521113e+01
2.191141e+02	-2.526048e+01
2.203797e+02	-2.530948e+01
2.216526e+02	-2.535984e+01
2.229329e+02	-2.540866e+01
2.242205e+02	-2.546030e+01
2.255156e+02	-2.551009e+01
2.268182e+02	-2.555612e+01
2.281283e+02	-2.560830e+01
2.294459e+02	-2.565784e+01
2.307712e+02	-2.570622e+01
2.321041e+02	-2.575796e+01
2.334447e+02	-2.580871e+01
2.347931e+02	-2.585591e+01
2.361493e+02	-2.591111e+01
2.375133e+02	-2.595752e+01
2.388851e+02	-2.600889e+01
2.402649e+02	-2.605727e+01
2.416527e+02	-2.610629e+01
2.430484e+02	-2.615651e+01
2.444523e+02	-2.620730e+01
2.458642e+02	-2.625717e+01
2.472843e+02	-2.631148e+01
2.487126e+02	-2.635736e+01
2.501492e+02	-2.640897e+01
2.515940e+02	-2.645825e+01
2.530472e+02	-2.650783e+01
2.545088e+02	-2.656100e+01
2.559789e+02	-2.660880e+01
2.574574e+02	-2.665739e+01
2.589444e+02	-2.670981e+01
2.604401e+02	-2.675800e+01
2.619444e+02	-2.680609e+01
2.634574e+02	-2.686120e+01
2.649791e+02	-2.690869e+01
2.665096e+02	-2.695793e+01
2.680489e+02	-2.700873e+01
2.695972e+02	-2.705646e+01
2.711544e+02	-2.711027e+01
2.727205e+02	-2.715791e+01
2.742958e+02	-2.720943e+01
2.758801e+02	-2.725647e+01
2.774736e+02	-2.730829e+01
2.790762e+02	-2.735318e+01
2.806882e+02	-2.740800e+01
2.823094e+02	-2.745850e+01
2.839400e+02	-2.750894e+01
2.855800e+02	-2.755691e+01
2.872295e+02	-2.760987e+01
2.888886e+02	-2.765980e+01
2.905572e+02	-2.771105e+01
2.922354e+02	-2.775687e+01
2.939234e+02	-2.780838e+01
2.956211e+02	-2.785429e+01
2.973286e+02	-2.790069e+01
2.990459e+02	-2.795968e+01
3.007732e+02	-2.800717e+01
3.025104e+02	-2.805735e+01
3.042577e+02	-2.810889e+01
3.060151e+02	-2.815237e+01
3.077826e+02	-2.820738e+01
3.095604e+02	-2.825679e+01
3.113484e+02	-2.830522e+01
3.131467e+02	-2.835891e+01
3.149554e+02	-2.840771e+01
3.167746e+02	-2.845928e+01
3.186043e+02	-2.851023e+01
3.204445e+02	-2.855452e+01
3.222954e+02	-2.860661e+01
3.241570e+02	-2.865375e+01
3.260293e+02	-2.870790e+01
3.279124e+02	-2.875864e+01
3.298064e+02	-2.880947e+01
3.317114e+02	-2.885840e+01
3.336273e+02	-2.890296e+01
3.355544e+02	-2.895873e+01
3.374925e+02	-2.901225e+01
3.394418e+02	-2.905683e+01
3.414024e+02	-2.910936e+01
3.433744e+02	-2.915730e+01
3.453577e+02	-2.920360e+01
3.473525e+02	-2.925402e+01
3.493588e+02	-2.930583e+01
3.513766e+02	-2.935758e+01
3.534062e+02	-2.940572e+01
3.554474e+02	-2.945941e+01
3.575005e+02	-2.950704e+01
3.595654e+02	-2.955984e+01
3.616422e+02	-2.960655e+01
3.637311e+02	-2.966000e+01
3.658320e+02	-2.970793e+01
3.679450e+02	-2.975889e+01
3.700702e+02	-2.981171e+01
3.722077e+02	-2.985964e+01
3.743576e+02	-2.990730e+01
3.765199e+02	-2.995864e+01
3.786946e+02	-3.000821e+01
3.808820e+02	-3.005588e+01
3.830819e+02	-3.010770e+01
3.852946e+02	-3.016076e+01
3.875200e+02	-3.021215e+01
3.897583e+02	-3.026277e+01
3.920096e+02	-3.031524e+01
3.942738e+02	-3.035979e+01
3.965511e+02	-3.040789e+01
3.988416e+02	-3.046161e+01
4.011452e+02	-3.051266e+01
4.034622e+02	-3.056090e+01
4.057926e+02	-3.060459e+01
4.081365e+02	-3.066343e+01
4.104938e+02	-3.070931e+01
4.128648e+02	-3.076324e+01
4.152495e+02	-3.080961e+01
4.176480e+02	-3.086297e+01
4.200603e+02	-3.091518e+01
4.224866e+02	-3.096110e+01
4.249268e+02	-3.101496e+01
4.273812e+02	-3.106553e+01
4.298497e+02	-3.110988e+01
4.323325e+02	-3.116315e+01
4.348297e+02	-3.121140e+01
4.373412e+02	-3.125994e+01
4.398673e+02	-3.131105e+01
4.424079e+02	-3.136191e+01
4.449633e+02	-3.141685e+01
4.475334e+02	-3.146453e+01
4.501183e+02	-3.151290e+01
4.527182e+02	-3.155644e+01
4.553330e+02	-3.161230e+01
4.579630e+02	-3.166618e+01
4.606082e+02	-3.171493e+01
4.632687e+02	-3.176281e+01
4.659445e+02	-3.181662e+01
4.686358e+02	-3.186401e+01
4.713426e+02	-3.191897e+01
4.740650e+02	-3.196592e+01
4.768032e+02	-3.201591e+01
4.795572e+02	-3.207050e+01
4.823271e+02	-3.212182e+01
4.851130e+02	-3.217220e+01
4.879150e+02	-3.222150e+01
4.907332e+02	-3.226364e+01
4.935676e+02	-3.231199e+01
4.964185e+02	-3.236582e+01
4.992858e+02	-3.241506e+01
5.021696e+02	-3.246465e+01
5.050701e+02	-3.251536e+01
5.079874e+02	-3.257350e+01
5.109215e+02	-3.261572e+01
5.138726e+02	-3.266995e+01
5.168407e+02	-3.271784e+01
5.198259e+02	-3.277035e+01
5.228284e+02	-3.280908e+01
5.258482e+02	-3.286465e+01
5.288855e+02	-3.292020e+01
5.319403e+02	-3.297449e+01
5.350128e+02	-3.301606e+01
5.381030e+02	-3.307328e+01
5.412111e+02	-3.312019e+01
5.443371e+02	-3.316839e+01
5.474812e+02	-3.322480e+01
5.506434e+02	-3.326922e+01
5.538239e+02	-3.331908e+01
5.570228e+02	-3.336199e+01
5.602401e+02	-3.342399e+01
5.634760e+02	-3.347106e+01
5.667306e+02	-3.351820e+01
5.700040e+02	-3.356979e+01
5.732964e+02	-3.361852e+01
5.766077e+02	-3.367221e+01
5.799382e+02	-3.372059e+01
5.832879e+02	-3.377955e+01
5.866569e+02	-3.382344e+01
5.900454e+02	-3.387652e+01
5.934535e+02	-3.392140e+01
5.968813e+02	-3.397691e+01
6.003288e+02	-3.402734e+01
6.037963e+02	-3.407609e+01
6.072838e+02	-3.413242e+01
6.107914e+02	-3.417886e+01
6.143194e+02	-3.422993e+01
6.178676e+02	-3.427168e+01
6.214364e+02	-3.432658e+01
6.250258e+02	-3.437767e+01
6.286359e+02	-3.442324e+01
6.322669e+02	-3.448103e+01
6.359189e+02	-3.452473e+01
6.395919e+02	-3.457707e+01
6.432862e+02	-3.462330e+01
6.470017e+02	-3.468376e+01
6.507388e+02	-3.473209e+01
6.544974e+02	-3.477936e+01
6.582778e+02	-3.482305e+01
6.620800e+02	-3.488966e+01
6.659041e+02	-3.493045e+01
6.697504e+02	-3.497442e+01
6.736188e+02	-3.503370e+01
6.775096e+02	-3.507712e+01
6.814229e+02	-3.513327e+01
6.853587e+02	-3.518145e+01
6.893173e+02	-3.522763e+01
6.932988e+02	-3.528394e+01
6.973033e+02	-3.532478e+01
7.013309e+02	-3.539250e+01
