Frequency(Hz)	Magnitude(dB)
1.000000e+01	-2.143190e+00
1.005776e+01	-2.162843e+00
1.011585e+01	-2.182411e+00
1.017428e+01	-2.202451e+00
1.023305e+01	-2.222339e+00
1.029215e+01	-2.242333e+00
1.035160e+01	-2.262450e+00
1.041139e+01	-2.283024e+00
1.047153e+01	-2.303673e+00
1.053201e+01	-2.324332e+00
1.059284e+01	-2.345044e+00
1.065403e+01	-2.365949e+00
1.071556e+01	-2.386996e+00
1.077746e+01	-2.408159e+00
1.083971e+01	-2.429474e+00
1.090232e+01	-2.451090e+00
1.096529e+01	-2.472702e+00
1.102862e+01	-2.494474e+00
1.109232e+01	-2.516440e+00
1.115639e+01	-2.538438e+00
1.122083e+01	-2.560927e+00
1.128564e+01	-2.582962e+00
1.135083e+01	-2.605482e+00
1.141639e+01	-2.628163e+00
1.148233e+01	-2.651064e+00
1.154865e+01	-2.673926e+00
1.161536e+01	-2.697086e+00
1.168245e+01	-2.720272e+00
1.174992e+01	-2.743562e+00
1.181779e+01	-2.767020e+00
1.188605e+01	-2.790537e+00
1.195470e+01	-2.814555e+00
1.202375e+01	-2.838421e+00
1.209320e+01	-2.862726e+00
1.216305e+01	-2.886823e+00
1.223330e+01	-2.910842e+00
1.230396e+01	-2.935755e+00
1.237503e+01	-2.960346e+00
1.244651e+01	-2.985150e+00
1.251840e+01	-3.010015e+00
1.259070e+01	-3.035126e+00
1.266343e+01	-3.060337e+00
1.273657e+01	-3.085552e+00
1.281014e+01	-3.111135e+00
1.288413e+01	-3.137015e+00
1.295855e+01	-3.162741e+00
1.303339e+01	-3.188874e+00
1.310867e+01	-3.214790e+00
1.318439e+01	-3.241115e+00
1.326054e+01	-3.267076e+00
1.333713e+01	-3.293871e+00
1.341417e+01	-3.320202e+00
1.349165e+01	-3.347204e+00
1.356958e+01	-3.374333e+00
1.364795e+01	-3.401307e+00
1.372678e+01	-3.428838e+00
1.380607e+01	-3.455978e+00
1.388581e+01	-3.483660e+00
1.396602e+01	-3.511261e+00
1.404668e+01	-3.538929e+00
1.412782e+01	-3.567222e+00
1.420942e+01	-3.595191e+00
1.429149e+01	-3.623495e+00
1.437404e+01	-3.651587e+00
1.445706e+01	-3.680176e+00
1.454057e+01	-3.708866e+00
1.462455e+01	-3.737707e+00
1.470902e+01	-3.766806e+00
1.479398e+01	-3.795699e+00
1.487943e+01	-3.824772e+00
1.496537e+01	-3.854554e+00
1.505181e+01	-3.883735e+00
1.513875e+01	-3.913237e+00
1.522619e+01	-3.943414e+00
1.531414e+01	-3.973085e+00
1.540259e+01	-4.003146e+00
1.549156e+01	-4.033298e+00
1.558103e+01	-4.063583e+00
1.567103e+01	-4.094068e+00
1.576155e+01	-4.124679e+00
1.585258e+01	-4.154991e+00
1.594415e+01	-4.186326e+00
1.603624e+01	-4.217352e+00
1.612886e+01	-4.248366e+00
1.622202e+01	-4.279981e+00
1.631572e+01	-4.310995e+00
1.640996e+01	-4.342367e+00
1.650474e+01	-4.374538e+00
1.660008e+01	-4.406533e+00
1.669596e+01	-4.438116e+00
1.679239e+01	-4.470271e+00
1.688938e+01	-4.502669e+00
1.698694e+01	-4.534749e+00
1.708505e+01	-4.567027e+00
1.718373e+01	-4.600064e+00
1.728299e+01	-4.632563e+00
1.738281e+01	-4.665455e+00
1.748322e+01	-4.698436e+00
1.758420e+01	-4.731502e+00
1.768576e+01	-4.764913e+00
1.778792e+01	-4.798628e+00
1.789066e+01	-4.831858e+00
1.799399e+01	-4.865055e+00
1.809793e+01	-4.899389e+00
1.820246e+01	-4.933342e+00
1.830760e+01	-4.967290e+00
1.841334e+01	-5.001561e+00
1.851969e+01	-5.035660e+00
1.862666e+01	-5.070377e+00
1.873425e+01	-5.104676e+00
1.884246e+01	-5.139180e+00
1.895129e+01	-5.173616e+00
1.906075e+01	-5.209059e+00
1.917085e+01	-5.243996e+00
1.928158e+01	-5.279212e+00
1.939295e+01	-5.314150e+00
1.950496e+01	-5.349747e+00
1.961762e+01	-5.385353e+00
1.973093e+01	-5.420679e+00
1.984490e+01	-5.456413e+00
1.995952e+01	-5.492304e+00
2.007480e+01	-5.528435e+00
2.019076e+01	-5.564211e+00
2.030738e+01	-5.600746e+00
2.042467e+01	-5.636894e+00
2.054264e+01	-5.673081e+00
2.066130e+01	-5.710104e+00
2.078064e+01	-5.746670e+00
2.090066e+01	-5.783086e+00
2.102139e+01	-5.820142e+00
2.114280e+01	-5.857112e+00
2.126492e+01	-5.894303e+00
2.138775e+01	-5.931337e+00
2.151128e+01	-5.968813e+00
2.163553e+01	-6.005902e+00
2.176050e+01	-6.043582e+00
2.188619e+01	-6.081424e+00
2.201260e+01	-6.119001e+00
2.213974e+01	-6.156649e+00
2.226762e+01	-6.194711e+00
2.239624e+01	-6.232881e+00
2.252560e+01	-6.271101e+00
2.265571e+01	-6.309457e+00
2.278656e+01	-6.347471e+00
2.291818e+01	-6.386463e+00
2.305055e+01	-6.424657e+00
2.318369e+01	-6.463360e+00
2.331760e+01	-6.502142e+00
2.345228e+01	-6.541276e+00
2.358774e+01	-6.579833e+00
2.372398e+01	-6.619148e+00
2.386101e+01	-6.658017e+00
2.399883e+01	-6.697346e+00
2.413745e+01	-6.737049e+00
2.427686e+01	-6.776472e+00
2.441709e+01	-6.816240e+00
2.455812e+01	-6.855749e+00
2.469997e+01	-6.895446e+00
2.484263e+01	-6.934829e+00
2.498612e+01	-6.975702e+00
2.513044e+01	-7.015344e+00
2.527559e+01	-7.055214e+00
2.542158e+01	-7.095813e+00
2.556842e+01	-7.136275e+00
2.571610e+01	-7.176282e+00
2.586463e+01	-7.216981e+00
2.601403e+01	-7.257520e+00
2.616428e+01	-7.298069e+00
2.631541e+01	-7.338835e+00
2.646740e+01	-7.379556e+00
2.662028e+01	-7.420463e+00
2.677404e+01	-7.461239e+00
2.692868e+01	-7.502859e+00
2.708422e+01	-7.543590e+00
2.724066e+01	-7.584964e+00
2.739800e+01	-7.626409e+00
2.755625e+01	-7.667614e+00
2.771541e+01	-7.709066e+00
2.787550e+01	-7.750786e+00
2.803650e+01	-7.792404e+00
2.819844e+01	-7.834550e+00
2.836131e+01	-7.876303e+00
2.852513e+01	-7.918312e+00
2.868989e+01	-7.960024e+00
2.885560e+01	-8.002152e+00
2.902227e+01	-8.044031e+00
2.918990e+01	-8.086812e+00
2.935850e+01	-8.128524e+00
2.952807e+01	-8.170919e+00
2.969863e+01	-8.213634e+00
2.987016e+01	-8.256211e+00
3.004269e+01	-8.299165e+00
3.021622e+01	-8.341736e+00
3.039075e+01	-8.384393e+00
3.056628e+01	-8.426844e+00
3.074283e+01	-8.469745e+00
3.092040e+01	-8.512939e+00
3.109900e+01	-8.555653e+00
3.127862e+01	-8.599090e+00
3.145929e+01	-8.641733e+00
3.164099e+01	-8.684747e+00
3.182375e+01	-8.728801e+00
3.200756e+01	-8.771621e+00
3.219244e+01	-8.815056e+00
3.237838e+01	-8.858793e+00
3.256540e+01	-8.902322e+00
3.275349e+01	-8.945801e+00
3.294268e+01	-8.989378e+00
3.313295e+01	-9.033116e+00
3.332433e+01	-9.077117e+00
3.351681e+01	-9.121054e+00
3.371040e+01	-9.164694e+00
3.390511e+01	-9.208995e+00
3.410094e+01	-9.253150e+00
3.429791e+01	-9.297032e+00
3.449601e+01	-9.340816e+00
3.469526e+01	-9.385541e+00
3.489566e+01	-9.429977e+00
3.509721e+01	-9.473704e+00
3.529993e+01	-9.518877e+00
3.550382e+01	-9.562692e+00
3.570889e+01	-9.607791e+00
3.591515e+01	-9.651816e+00
3.612259e+01	-9.697002e+00
3.633123e+01	-9.741838e+00
3.654108e+01	-9.786219e+00
3.675214e+01	-9.830900e+00
3.696442e+01	-9.875709e+00
3.717792e+01	-9.920777e+00
3.739266e+01	-9.965822e+00
3.760864e+01	-1.001047e+01
3.782587e+01	-1.005561e+01
3.804435e+01	-1.010050e+01
3.826409e+01	-1.014618e+01
3.848510e+01	-1.019098e+01
3.870739e+01	-1.023626e+01
3.893096e+01	-1.028175e+01
3.915583e+01	-1.032751e+01
3.938199e+01	-1.037242e+01
3.960946e+01	-1.041791e+01
3.983824e+01	-1.046330e+01
4.006834e+01	-1.050911e+01
4.029978e+01	-1.055441e+01
4.053255e+01	-1.060065e+01
4.076666e+01	-1.064568e+01
4.100213e+01	-1.069193e+01
4.123896e+01	-1.073762e+01
4.147715e+01	-1.078424e+01
4.171672e+01	-1.082935e+01
4.195767e+01	-1.087552e+01
4.220002e+01	-1.092142e+01
4.244377e+01	-1.096710e+01
4.268892e+01	-1.101325e+01
4.293549e+01	-1.105856e+01
4.318348e+01	-1.110508e+01
4.343291e+01	-1.115120e+01
4.368377e+01	-1.119753e+01
4.393609e+01	-1.124424e+01
4.418986e+01	-1.129038e+01
4.444510e+01	-1.133650e+01
4.470182e+01	-1.138280e+01
4.496001e+01	-1.142927e+01
4.521970e+01	-1.147631e+01
4.548089e+01	-1.152251e+01
4.574358e+01	-1.156843e+01
4.600779e+01	-1.161528e+01
4.627353e+01	-1.166250e+01
4.654081e+01	-1.170927e+01
4.680963e+01	-1.175573e+01
4.708000e+01	-1.180289e+01
4.735193e+01	-1.184854e+01
4.762543e+01	-1.189553e+01
4.790051e+01	-1.194206e+01
4.817719e+01	-1.198931e+01
4.845545e+01	-1.203622e+01
4.873533e+01	-1.208308e+01
4.901682e+01	-1.212965e+01
4.929994e+01	-1.217662e+01
4.958470e+01	-1.222412e+01
4.987110e+01	-1.227108e+01
5.015915e+01	-1.231866e+01
5.044887e+01	-1.236583e+01
5.074026e+01	-1.241197e+01
5.103333e+01	-1.245892e+01
5.132810e+01	-1.250672e+01
5.162457e+01	-1.255352e+01
5.192275e+01	-1.260123e+01
5.222265e+01	-1.264869e+01
5.252429e+01	-1.269534e+01
5.282767e+01	-1.274310e+01
5.313280e+01	-1.279023e+01
5.343969e+01	-1.283797e+01
5.374836e+01	-1.288554e+01
5.405880e+01	-1.293250e+01
5.437105e+01	-1.298069e+01
5.468509e+01	-1.302812e+01
5.500095e+01	-1.307526e+01
5.531863e+01	-1.312306e+01
5.563815e+01	-1.317083e+01
5.595951e+01	-1.321903e+01
5.628273e+01	-1.326561e+01
5.660782e+01	-1.331367e+01
5.693479e+01	-1.336159e+01
5.726364e+01	-1.340922e+01
5.759439e+01	-1.345670e+01
5.792705e+01	-1.350437e+01
5.826164e+01	-1.355170e+01
5.859815e+01	-1.359983e+01
5.893662e+01	-1.364747e+01
5.927703e+01	-1.369582e+01
5.961941e+01	-1.374342e+01
5.996377e+01	-1.379156e+01
6.031012e+01	-1.383931e+01
6.065847e+01	-1.388723e+01
6.100883e+01	-1.393625e+01
6.136121e+01	-1.398394e+01
6.171563e+01	-1.403192e+01
6.207210e+01	-1.407952e+01
6.243063e+01	-1.412755e+01
6.279122e+01	-1.417677e+01
6.315390e+01	-1.422375e+01
6.351868e+01	-1.427288e+01
6.388556e+01	-1.431995e+01
6.425456e+01	-1.436872e+01
6.462569e+01	-1.441630e+01
6.499897e+01	-1.446515e+01
6.537440e+01	-1.451291e+01
6.575200e+01	-1.456230e+01
6.613178e+01	-1.461024e+01
6.651375e+01	-1.465816e+01
6.689793e+01	-1.470687e+01
6.728433e+01	-1.475525e+01
6.767297e+01	-1.480345e+01
6.806384e+01	-1.485155e+01
6.845698e+01	-1.489938e+01
6.885238e+01	-1.494756e+01
6.925007e+01	-1.499704e+01
6.965005e+01	-1.504471e+01
7.005235e+01	-1.509347e+01
7.045697e+01	-1.514280e+01
7.086393e+01	-1.519107e+01
7.127323e+01	-1.523976e+01
7.168490e+01	-1.528851e+01
7.209895e+01	-1.533685e+01
7.251539e+01	-1.538568e+01
7.293424e+01	-1.543330e+01
7.335551e+01	-1.548194e+01
7.377920e+01	-1.553081e+01
7.420535e+01	-1.557942e+01
7.463396e+01	-1.562904e+01
7.506504e+01	-1.567695e+01
7.549861e+01	-1.572474e+01
7.593469e+01	-1.577431e+01
7.637328e+01	-1.582274e+01
7.681441e+01	-1.587192e+01
7.725809e+01	-1.592043e+01
7.770433e+01	-1.596926e+01
7.815315e+01	-1.601711e+01
7.860456e+01	-1.606648e+01
7.905857e+01	-1.611533e+01
7.951521e+01	-1.616415e+01
7.997449e+01	-1.621319e+01
8.043642e+01	-1.626179e+01
8.090102e+01	-1.631037e+01
8.136830e+01	-1.635941e+01
8.183828e+01	-1.640914e+01
8.231097e+01	-1.645666e+01
8.278640e+01	-1.650620e+01
8.326457e+01	-1.655522e+01
8.374550e+01	-1.660459e+01
8.422921e+01	-1.665244e+01
8.471572e+01	-1.670210e+01
8.520503e+01	-1.675070e+01
8.569717e+01	-1.680003e+01
8.619215e+01	-1.684834e+01
8.669000e+01	-1.689746e+01
8.719071e+01	-1.694628e+01
8.769432e+01	-1.699555e+01
8.820084e+01	-1.704488e+01
8.871029e+01	-1.709356e+01
8.922267e+01	-1.714307e+01
8.973802e+01	-1.719382e+01
9.025634e+01	-1.724103e+01
9.077766e+01	-1.729088e+01
9.130199e+01	-1.733996e+01
9.182935e+01	-1.738938e+01
9.235975e+01	-1.743772e+01
9.289321e+01	-1.748741e+01
9.342976e+01	-1.753630e+01
9.396941e+01	-1.758426e+01
9.451217e+01	-1.763450e+01
9.505807e+01	-1.768377e+01
9.560712e+01	-1.773333e+01
9.615934e+01	-1.778165e+01
9.671476e+01	-1.783084e+01
9.727338e+01	-1.788017e+01
9.783522e+01	-1.792890e+01
9.840032e+01	-1.797954e+01
9.896867e+01	-1.802669e+01
9.954031e+01	-1.807650e+01
1.001153e+02	-1.812541e+01
1.006935e+02	-1.817703e+01
1.012751e+02	-1.822402e+01
1.018601e+02	-1.827398e+01
1.024484e+02	-1.832325e+01
1.030402e+02	-1.837237e+01
1.036353e+02	-1.842232e+01
1.042339e+02	-1.847148e+01
1.048360e+02	-1.852154e+01
1.054415e+02	-1.856900e+01
1.060505e+02	-1.862059e+01
1.066631e+02	-1.866816e+01
1.072791e+02	-1.871926e+01
1.078988e+02	-1.876763e+01
1.085220e+02	-1.881674e+01
1.091488e+02	-1.886731e+01
1.097793e+02	-1.891766e+01
1.104133e+02	-1.896693e+01
1.110511e+02	-1.901507e+01
1.116925e+02	-1.906187e+01
1.123376e+02	-1.911379e+01
1.129865e+02	-1.916273e+01
1.136391e+02	-1.921182e+01
1.142955e+02	-1.926096e+01
1.149556e+02	-1.931109e+01
1.156196e+02	-1.936068e+01
1.162874e+02	-1.940786e+01
1.169591e+02	-1.945889e+01
1.176347e+02	-1.950871e+01
1.183141e+02	-1.955840e+01
1.189975e+02	-1.960801e+01
1.196848e+02	-1.965865e+01
1.203761e+02	-1.970775e+01
1.210714e+02	-1.975752e+01
1.217707e+02	-1.980742e+01
1.224740e+02	-1.985504e+01
1.231814e+02	-1.990620e+01
1.238929e+02	-1.995555e+01
1.246085e+02	-2.000343e+01
1.253283e+02	-2.005394e+01
1.260522e+02	-2.010181e+01
1.267802e+02	-2.015259e+01
1.275125e+02	-2.020132e+01
1.282490e+02	-2.025221e+01
1.289898e+02	-2.030070e+01
1.297348e+02	-2.035092e+01
1.304842e+02	-2.039994e+01
1.312378e+02	-2.045027e+01
1.319959e+02	-2.049932e+01
1.327583e+02	-2.054947e+01
1.335251e+02	-2.059809e+01
1.342963e+02	-2.064852e+01
1.350720e+02	-2.069677e+01
1.358522e+02	-2.074892e+01
1.366368e+02	-2.079637e+01
1.374260e+02	-2.084746e+01
1.382198e+02	-2.089701e+01
1.390182e+02	-2.094618e+01
1.398211e+02	-2.099480e+01
1.406287e+02	-2.104372e+01
1.414410e+02	-2.109582e+01
1.422579e+02	-2.114389e+01
1.430796e+02	-2.119467e+01
1.439060e+02	-2.124294e+01
1.447372e+02	-2.129477e+01
1.455732e+02	-2.134380e+01
1.464141e+02	-2.139401e+01
1.472597e+02	-2.144235e+01
1.481103e+02	-2.149334e+01
1.489658e+02	-2.154304e+01
1.498262e+02	-2.159034e+01
1.506916e+02	-2.164176e+01
1.515620e+02	-2.169114e+01
1.524374e+02	-2.174066e+01
1.533179e+02	-2.179134e+01
1.542034e+02	-2.184054e+01
1.550941e+02	-2.188990e+01
1.559899e+02	-2.193936e+01
1.568909e+02	-2.198898e+01
1.577971e+02	-2.203885e+01
1.587085e+02	-2.208735e+01
1.596252e+02	-2.213862e+01
1.605472e+02	-2.218989e+01
1.614745e+02	-2.223827e+01
1.624072e+02	-2.228689e+01
1.633453e+02	-2.233840e+01
1.642887e+02	-2.238774e+01
1.652377e+02	-2.243822e+01
1.661921e+02	-2.248690e+01
1.671520e+02	-2.253909e+01
1.681175e+02	-2.258565e+01
1.690885e+02	-2.263784e+01
1.700651e+02	-2.268643e+01
1.710474e+02	-2.273946e+01
1.720354e+02	-2.278614e+01
1.730291e+02	-2.283777e+01
1.740285e+02	-2.288788e+01
1.750337e+02	-2.293393e+01
1.760446e+02	-2.298605e+01
1.770615e+02	-2.303456e+01
1.780842e+02	-2.308454e+01
1.791128e+02	-2.313458e+01
1.801473e+02	-2.318384e+01
1.811878e+02	-2.323384e+01
1.822344e+02	-2.328404e+01
1.832870e+02	-2.333387e+01
1.843456e+02	-2.338097e+01
1.854104e+02	-2.343452e+01
1.864813e+02	-2.348148e+01
1.875584e+02	-2.353198e+01
1.886418e+02	-2.358335e+01
1.897313e+02	-2.363504e+01
1.908272e+02	-2.368189e+01
1.919294e+02	-2.373143e+01
1.930380e+02	-2.378206e+01
1.941530e+02	-2.383083e+01
1.952744e+02	-2.388441e+01
1.964023e+02	-2.393225e+01
1.975367e+02	-2.398062e+01
1.986777e+02	-2.402682e+01
1.998252e+02	-2.408094e+01
2.009794e+02	-2.413242e+01
2.021403e+02	-2.418101e+01
2.033078e+02	-2.423081e+01
2.044821e+02	-2.427989e+01
2.056632e+02	-2.433021e+01
2.068511e+02	-2.438265e+01
2.080459e+02	-2.443028e+01
2.092475e+02	-2.448228e+01
2.104561e+02	-2.453080e+01
2.116717e+02	-2.457823e+01
2.128943e+02	-2.462755e+01
2.141240e+02	-2.467877e+01
2.153608e+02	-2.473095e+01
2.166047e+02	-2.478212e+01
2.178558e+02	-2.482956e+01
2.191141e+02	-2.487769e+01
2.203797e+02	-2.493082e+01
2.216526e+02	-2.497838e+01
2.229329e+02	-2.502589e+01
2.242205e+02	-2.507815e+01
2.255156e+02	-2.513064e+01
2.268182e+02	-2.517807e+01
2.281283e+02	-2.523058e+01
2.294459e+02	-2.527759e+01
2.307712e+02	-2.532562e+01
2.321041e+02	-2.537745e+01
2.334447e+02	-2.542877e+01
2.347931e+02	-2.547912e+01
2.361493e+02	-2.552623e+01
2.375133e+02	-2.557790e+01
2.388851e+02	-2.562488e+01
2.402649e+02	-2.567658e+01
2.416527e+02	-2.572555e+01
2.430484e+02	-2.577761e+01
2.444523e+02	-2.582546e+01
2.458642e+02	-2.587317e+01
2.472843e+02	-2.592717e+01
2.487126e+02	-2.597821e+01
2.501492e+02	-2.602809e+01
2.515940e+02	-2.607917e+01
2.530472e+02	-2.612623e+01
2.545088e+02	-2.617792e+01
2.559789e+02	-2.622992e+01
2.574574e+02	-2.628241e+01
2.589444e+02	-2.632544e+01
2.604401e+02	-2.637596e+01
2.619444e+02	-2.642607e+01
2.634574e+02	-2.647466e+01
2.649791e+02	-2.652560e+01
2.665096e+02	-2.657760e+01
2.680489e+02	-2.662853e+01
2.695972e+02	-2.667399e+01
2.711544e+02	-2.672499e+01
2.727205e+02	-2.677844e+01
2.742958e+02	-2.682701e+01
2.758801e+02	-2.687378e+01
2.774736e+02	-2.692732e+01
2.790762e+02	-2.697547e+01
2.806882e+02	-2.702440e+01
2.823094e+02	-2.707537e+01
2.839400e+02	-2.712714e+01
2.855800e+02	-2.717524e+01
2.872295e+02	-2.722416e+01
2.888886e+02	-2.727423e+01
2.905572e+02	-2.732411e+01
2.922354e+02	-2.737270e+01
2.939234e+02	-2.742688e+01
2.956211e+02	-2.748087e+01
2.973286e+02	-2.752601e+01
2.990459e+02	-2.757785e+01
3.007732e+02	-2.762848e+01
3.025104e+02	-2.767617e+01
3.042577e+02	-2.772455e+01
3.060151e+02	-2.777567e+01
3.077826e+02	-2.783008e+01
3.095604e+02	-2.787731e+01
3.113484e+02	-2.792561e+01
3.131467e+02	-2.797431e+01
3.149554e+02	-2.802555e+01
3.167746e+02	-2.807872e+01
3.186043e+02	-2.812577e+01
3.204445e+02	-2.817929e+01
3.222954e+02	-2.822415e+01
3.241570e+02	-2.827756e+01
3.260293e+02	-2.832857e+01
3.279124e+02	-2.838030e+01
3.298064e+02	-2.843127e+01
3.317114e+02	-2.847715e+01
3.336273e+02	-2.852789e+01
3.355544e+02	-2.857512e+01
3.374925e+02	-2.862200e+01
3.394418e+02	-2.867710e+01
3.414024e+02	-2.872977e+01
3.433744e+02	-2.877737e+01
3.453577e+02	-2.882803e+01
3.473525e+02	-2.887231e+01
3.493588e+02	-2.892885e+01
3.513766e+02	-2.897705e+01
3.534062e+02	-2.902493e+01
3.554474e+02	-2.907688e+01
3.575005e+02	-2.912867e+01
3.595654e+02	-2.918072e+01
3.616422e+02	-2.922443e+01
3.637311e+02	-2.928164e+01
3.658320e+02	-2.932998e+01
3.679450e+02	-2.937436e+01
3.700702e+02	-2.943167e+01
3.722077e+02	-2.947092e+01
3.743576e+02	-2.952258e+01
3.765199e+02	-2.957597e+01
3.786946e+02	-2.962670e+01
3.808820e+02	-2.967814e+01
3.830819e+02	-2.972589e+01
3.852946e+02	-2.977779e+01
3.875200e+02	-2.982891e+01
3.897583e+02	-2.988013e+01
3.920096e+02	-2.992565e+01
3.942738e+02	-2.997882e+01
3.965511e+02	-3.003157e+01
3.988416e+02	-3.007452e+01
4.011452e+02	-3.012665e+01
4.034622e+02	-3.017553e+01
4.057926e+02	-3.023098e+01
4.081365e+02	-3.028133e+01
4.104938e+02	-3.032726e+01
4.128648e+02	-3.038648e+01
4.152495e+02	-3.042814e+01
4.176480e+02	-3.047636e+01
4.200603e+02	-3.053278e+01
4.224866e+02	-3.058000e+01
4.249268e+02	-3.062832e+01
4.273812e+02	-3.067703e+01
4.298497e+02	-3.072881e+01
4.323325e+02	-3.077657e+01
4.348297e+02	-3.082500e+01
4.373412e+02	-3.088360e+01
4.398673e+02	-3.093273e+01
4.424079e+02	-3.098489e+01
4.449633e+02	-3.102948e+01
4.475334e+02	-3.108689e+01
4.501183e+02	-3.113164e+01
4.527182e+02	-3.117918e+01
4.553330e+02	-3.123159e+01
4.579630e+02	-3.129020e+01
4.606082e+02	-3.133356e+01
4.632687e+02	-3.137938e+01
4.659445e+02	-3.143216e+01
4.686358e+02	-3.148228e+01
4.713426e+02	-3.153290e+01
4.740650e+02	-3.158192e+01
4.768032e+02	-3.163212e+01
4.795572e+02	-3.168281e+01
4.823271e+02	-3.173146e+01
4.851130e+02	-3.178635e+01
4.879150e+02	-3.183060e+01
4.907332e+02	-3.188020e+01
4.935676e+02	-3.192635e+01
4.964185e+02	-3.197926e+01
4.992858e+02	-3.203329e+01
5.021696e+02	-3.208872e+01
5.050701e+02	-3.213460e+01
5.079874e+02	-3.218210e+01
5.109215e+02	-3.223916e+01
5.138726e+02	-3.228564e+01
5.168407e+02	-3.233778e+01
5.198259e+02	-3.238427e+01
5.228284e+02	-3.243968e+01
5.258482e+02	-3.248689e+01
5.288855e+02	-3.254133e+01
5.319403e+02	-3.258292e+01
5.350128e+02	-3.263643e+01
5.381030e+02	-3.268625e+01
5.412111e+02	-3.273804e+01
5.443371e+02	-3.279212e+01
5.474812e+02	-3.283673e+01
5.506434e+02	-3.288670e+01
5.538239e+02	-3.293705e+01
5.570228e+02	-3.299470e+01
5.602401e+02	-3.302879e+01
5.634760e+02	-3.308410e+01
5.667306e+02	-3.313641e+01
5.700040e+02	-3.319100e+01
5.732964e+02	-3.324216e+01
5.766077e+02	-3.328471e+01
5.799382e+02	-3.334566e+01
5.832879e+02	-3.339108e+01
5.866569e+02	-3.344090e+01
5.900454e+02	-3.348445e+01
5.934535e+02	-3.353794e+01
5.968813e+02	-3.359026e+01
6.003288e+02	-3.363524e+01
6.037963e+02	-3.369496e+01
6.072838e+02	-3.374180e+01
6.107914e+02	-3.378686e+01
6.143194e+02	-3.383943e+01
6.178676e+02	-3.389560e+01
6.214364e+02	-3.395128e+01
6.250258e+02	-3.399436e+01
6.286359e+02	-3.404231e+01
6.322669e+02	-3.409564e+01
6.359189e+02	-3.414733e+01
6.395919e+02	-3.418467e+01
6.432862e+02	-3.424849e+01
6.470017e+02	-3.429870e+01
6.507388e+02	-3.435061e+01
6.544974e+02	-3.439326e+01
6.582778e+02	-3.444459e+01
6.620800e+02	-3.449651e+01
6.659041e+02	-3.454150e+01
6.697504e+02	-3.459219e+01
6.736188e+02	-3.464994e+01
6.775096e+02	-3.469075e+01
6.814229e+02	-3.475202e+01
6.853587e+02	-3.480706e+01
6.893173e+02	-3.485202e+01
6.932988e+02	-3.489714e+01
6.973033e+02	-3.494747e+01
7.013309e+02	-3.499848e+01
