Frequency(Hz)	Magnitude(dB)
1.000000e+01	-2.318680e+00
1.005776e+01	-2.339722e+00
1.011585e+01	-2.360534e+00
1.017428e+01	-2.381525e+00
1.023305e+01	-2.402666e+00
1.029215e+01	-2.424056e+00
1.035160e+01	-2.445553e+00
1.041139e+01	-2.467121e+00
1.047153e+01	-2.488752e+00
1.053201e+01	-2.510826e+00
1.059284e+01	-2.532821e+00
1.065403e+01	-2.554959e+00
1.071556e+01	-2.577355e+00
1.077746e+01	-2.599593e+00
1.083971e+01	-2.622320e+00
1.090232e+01	-2.645198e+00
1.096529e+01	-2.668187e+00
1.102862e+01	-2.690920e+00
1.109232e+01	-2.713916e+00
1.115639e+01	-2.737463e+00
1.122083e+01	-2.760942e+00
1.128564e+01	-2.784626e+00
1.135083e+01	-2.808384e+00
1.141639e+01	-2.832304e+00
1.148233e+01	-2.856135e+00
1.154865e+01	-2.880525e+00
1.161536e+01	-2.904752e+00
1.168245e+01	-2.929266e+00
1.174992e+01	-2.953929e+00
1.181779e+01	-2.978543e+00
1.188605e+01	-3.003530e+00
1.195470e+01	-3.028592e+00
1.202375e+01	-3.053841e+00
1.209320e+01	-3.078912e+00
1.216305e+01	-3.104595e+00
1.223330e+01	-3.130398e+00
1.230396e+01	-3.156006e+00
1.237503e+01	-3.181724e+00
1.244651e+01	-3.207859e+00
1.251840e+01	-3.233973e+00
1.259070e+01	-3.260426e+00
1.266343e+01	-3.286886e+00
1.273657e+01	-3.313635e+00
1.281014e+01	-3.340533e+00
1.288413e+01	-3.367125e+00
1.295855e+01	-3.394154e+00
1.303339e+01	-3.421579e+00
1.310867e+01	-3.448802e+00
1.318439e+01	-3.476218e+00
1.326054e+01	-3.503806e+00
1.333713e+01	-3.531628e+00
1.341417e+01	-3.559710e+00
1.349165e+01	-3.587639e+00
1.356958e+01	-3.615866e+00
1.364795e+01	-3.644229e+00
1.372678e+01	-3.672590e+00
1.380607e+01	-3.701241e+00
1.388581e+01	-3.730114e+00
1.396602e+01	-3.758892e+00
1.404668e+01	-3.788015e+00
1.412782e+01	-3.817188e+00
1.420942e+01	-3.846468e+00
1.429149e+01	-3.876005e+00
1.437404e+01	-3.905750e+00
1.445706e+01	-3.935328e+00
1.454057e+01	-3.965327e+00
1.462455e+01	-3.995184e+00
1.470902e+01	-4.025449e+00
1.479398e+01	-4.055841e+00
1.487943e+01	-4.086360e+00
1.496537e+01	-4.116789e+00
1.505181e+01	-4.147296e+00
1.513875e+01	-4.178119e+00
1.522619e+01	-4.208960e+00
1.531414e+01	-4.240161e+00
1.540259e+01	-4.271864e+00
1.549156e+01	-4.303127e+00
1.558103e+01	-4.334749e+00
1.567103e+01	-4.365871e+00
1.576155e+01	-4.397443e+00
1.585258e+01	-4.429864e+00
1.594415e+01	-4.461954e+00
1.603624e+01	-4.494382e+00
1.612886e+01	-4.526328e+00
1.622202e+01	-4.558643e+00
1.631572e+01	-4.591274e+00
1.640996e+01	-4.624240e+00
1.650474e+01	-4.657053e+00
1.660008e+01	-4.689844e+00
1.669596e+01	-4.723143e+00
1.679239e+01	-4.756411e+00
1.688938e+01	-4.789820e+00
1.698694e+01	-4.823349e+00
1.708505e+01	-4.856868e+00
1.718373e+01	-4.890558e+00
1.728299e+01	-4.924384e+00
1.738281e+01	-4.958320e+00
1.748322e+01	-4.992348e+00
1.758420e+01	-5.026770e+00
1.768576e+01	-5.061008e+00
1.778792e+01	-5.095459e+00
1.789066e+01	-5.130384e+00
1.799399e+01	-5.164961e+00
1.809793e+01	-5.199827e+00
1.820246e+01	-5.234919e+00
1.830760e+01	-5.269888e+00
1.841334e+01	-5.305318e+00
1.851969e+01	-5.340053e+00
1.862666e+01	-5.375916e+00
1.873425e+01	-5.411448e+00
1.884246e+01	-5.447308e+00
1.895129e+01	-5.483107e+00
1.906075e+01	-5.518562e+00
1.917085e+01	-5.554871e+00
1.928158e+01	-5.591056e+00
1.939295e+01	-5.627539e+00
1.950496e+01	-5.663847e+00
1.961762e+01	-5.700219e+00
1.973093e+01	-5.736809e+00
1.984490e+01	-5.773507e+00
1.995952e+01	-5.810322e+00
2.007480e+01	-5.847485e+00
2.019076e+01	-5.884612e+00
2.030738e+01	-5.921542e+00
2.042467e+01	-5.958977e+00
2.054264e+01	-5.996180e+00
2.066130e+01	-6.034000e+00
2.078064e+01	-6.071533e+00
2.090066e+01	-6.108940e+00
2.102139e+01	-6.146827e+00
2.114280e+01	-6.184995e+00
2.126492e+01	-6.222912e+00
2.138775e+01	-6.261269e+00
2.151128e+01	-6.299373e+00
2.163553e+01	-6.337614e+00
2.176050e+01	-6.376009e+00
2.188619e+01	-6.414776e+00
2.201260e+01	-6.453273e+00
2.213974e+01	-6.492191e+00
2.226762e+01	-6.530395e+00
2.239624e+01	-6.569801e+00
2.252560e+01	-6.609137e+00
2.265571e+01	-6.648531e+00
2.278656e+01	-6.687496e+00
2.291818e+01	-6.726661e+00
2.305055e+01	-6.766130e+00
2.318369e+01	-6.805545e+00
2.331760e+01	-6.845614e+00
2.345228e+01	-6.885075e+00
2.358774e+01	-6.924855e+00
2.372398e+01	-6.964965e+00
2.386101e+01	-7.004795e+00
2.399883e+01	-7.044560e+00
2.413745e+01	-7.085159e+00
2.427686e+01	-7.125219e+00
2.441709e+01	-7.165918e+00
2.455812e+01	-7.206271e+00
2.469997e+01	-7.246803e+00
2.484263e+01	-7.287110e+00
2.498612e+01	-7.327815e+00
2.513044e+01	-7.368821e+00
2.527559e+01	-7.409841e+00
2.542158e+01	-7.451401e+00
2.556842e+01	-7.492077e+00
2.571610e+01	-7.533271e+00
2.586463e+01	-7.574380e+00
2.601403e+01	-7.615665e+00
2.616428e+01	-7.656996e+00
2.631541e+01	-7.698641e+00
2.646740e+01	-7.739965e+00
2.662028e+01	-7.781816e+00
2.677404e+01	-7.823513e+00
2.692868e+01	-7.865593e+00
2.708422e+01	-7.906898e+00
2.724066e+01	-7.948987e+00
2.739800e+01	-7.991165e+00
2.755625e+01	-8.033274e+00
2.771541e+01	-8.075563e+00
2.787550e+01	-8.117485e+00
2.803650e+01	-8.160005e+00
2.819844e+01	-8.202790e+00
2.836131e+01	-8.245044e+00
2.852513e+01	-8.287875e+00
2.868989e+01	-8.329892e+00
2.885560e+01	-8.372388e+00
2.902227e+01	-8.416066e+00
2.918990e+01	-8.458389e+00
2.935850e+01	-8.501447e+00
2.952807e+01	-8.544624e+00
2.969863e+01	-8.587733e+00
2.987016e+01	-8.630359e+00
3.004269e+01	-8.674164e+00
3.021622e+01	-8.717349e+00
3.039075e+01	-8.760340e+00
3.056628e+01	-8.803689e+00
3.074283e+01	-8.847388e+00
3.092040e+01	-8.891082e+00
3.109900e+01	-8.934330e+00
3.127862e+01	-8.978297e+00
3.145929e+01	-9.021803e+00
3.164099e+01	-9.065682e+00
3.182375e+01	-9.109318e+00
3.200756e+01	-9.153464e+00
3.219244e+01	-9.197896e+00
3.237838e+01	-9.241814e+00
3.256540e+01	-9.285383e+00
3.275349e+01	-9.329871e+00
3.294268e+01	-9.374139e+00
3.313295e+01	-9.417772e+00
3.332433e+01	-9.462566e+00
3.351681e+01	-9.507028e+00
3.371040e+01	-9.551100e+00
3.390511e+01	-9.596374e+00
3.410094e+01	-9.640534e+00
3.429791e+01	-9.684708e+00
3.449601e+01	-9.729783e+00
3.469526e+01	-9.774335e+00
3.489566e+01	-9.819210e+00
3.509721e+01	-9.864241e+00
3.529993e+01	-9.908575e+00
3.550382e+01	-9.953618e+00
3.570889e+01	-9.998917e+00
3.591515e+01	-1.004387e+01
3.612259e+01	-1.008878e+01
3.633123e+01	-1.013447e+01
3.654108e+01	-1.017982e+01
3.675214e+01	-1.022473e+01
3.696442e+01	-1.026959e+01
3.717792e+01	-1.031552e+01
3.739266e+01	-1.036051e+01
3.760864e+01	-1.040626e+01
3.782587e+01	-1.045191e+01
3.804435e+01	-1.049692e+01
3.826409e+01	-1.054251e+01
3.848510e+01	-1.058828e+01
3.870739e+01	-1.063432e+01
3.893096e+01	-1.067991e+01
3.915583e+01	-1.072608e+01
3.938199e+01	-1.077192e+01
3.960946e+01	-1.081716e+01
3.983824e+01	-1.086291e+01
4.006834e+01	-1.090933e+01
4.029978e+01	-1.095547e+01
4.053255e+01	-1.100082e+01
4.076666e+01	-1.104770e+01
4.100213e+01	-1.109386e+01
4.123896e+01	-1.113992e+01
4.147715e+01	-1.118590e+01
4.171672e+01	-1.123182e+01
4.195767e+01	-1.127845e+01
4.220002e+01	-1.132447e+01
4.244377e+01	-1.137111e+01
4.268892e+01	-1.141716e+01
4.293549e+01	-1.146404e+01
4.318348e+01	-1.151056e+01
4.343291e+01	-1.155612e+01
4.368377e+01	-1.160379e+01
4.393609e+01	-1.164994e+01
4.418986e+01	-1.169636e+01
4.444510e+01	-1.174352e+01
4.470182e+01	-1.178942e+01
4.496001e+01	-1.183670e+01
4.521970e+01	-1.188271e+01
4.548089e+01	-1.193016e+01
4.574358e+01	-1.197708e+01
4.600779e+01	-1.202363e+01
4.627353e+01	-1.207029e+01
4.654081e+01	-1.211789e+01
4.680963e+01	-1.216459e+01
4.708000e+01	-1.221202e+01
4.735193e+01	-1.225888e+01
4.762543e+01	-1.230597e+01
4.790051e+01	-1.235250e+01
4.817719e+01	-1.240022e+01
4.845545e+01	-1.244652e+01
4.873533e+01	-1.249437e+01
4.901682e+01	-1.254138e+01
4.929994e+01	-1.258851e+01
4.958470e+01	-1.263639e+01
4.987110e+01	-1.268349e+01
5.015915e+01	-1.273071e+01
5.044887e+01	-1.277805e+01
5.074026e+01	-1.282541e+01
5.103333e+01	-1.287257e+01
5.132810e+01	-1.292039e+01
5.162457e+01	-1.296802e+01
5.192275e+01	-1.301502e+01
5.222265e+01	-1.306218e+01
5.252429e+01	-1.311044e+01
5.282767e+01	-1.315815e+01
5.313280e+01	-1.320586e+01
5.343969e+01	-1.325370e+01
5.374836e+01	-1.330152e+01
5.405880e+01	-1.334880e+01
5.437105e+01	-1.339652e+01
5.468509e+01	-1.344344e+01
5.500095e+01	-1.349201e+01
5.531863e+01	-1.354039e+01
5.563815e+01	-1.358742e+01
5.595951e+01	-1.363625e+01
5.628273e+01	-1.368328e+01
5.660782e+01	-1.373162e+01
5.693479e+01	-1.377885e+01
5.726364e+01	-1.382754e+01
5.759439e+01	-1.387530e+01
5.792705e+01	-1.392335e+01
5.826164e+01	-1.397132e+01
5.859815e+01	-1.401957e+01
5.893662e+01	-1.406776e+01
5.927703e+01	-1.411522e+01
5.961941e+01	-1.416331e+01
5.996377e+01	-1.421199e+01
6.031012e+01	-1.425906e+01
6.065847e+01	-1.430779e+01
6.100883e+01	-1.435603e+01
6.136121e+01	-1.440408e+01
6.171563e+01	-1.445223e+01
6.207210e+01	-1.450090e+01
6.243063e+01	-1.454930e+01
6.279122e+01	-1.459744e+01
6.315390e+01	-1.464637e+01
6.351868e+01	-1.469383e+01
6.388556e+01	-1.474255e+01
6.425456e+01	-1.479118e+01
6.462569e+01	-1.483911e+01
6.499897e+01	-1.488717e+01
6.537440e+01	-1.493593e+01
6.575200e+01	-1.498472e+01
6.613178e+01	-1.503295e+01
6.651375e+01	-1.508103e+01
6.689793e+01	-1.512897e+01
6.728433e+01	-1.517836e+01
6.767297e+01	-1.522669e+01
6.806384e+01	-1.527528e+01
6.845698e+01	-1.532325e+01
6.885238e+01	-1.537216e+01
6.925007e+01	-1.542085e+01
6.965005e+01	-1.546927e+01
7.005235e+01	-1.551817e+01
7.045697e+01	-1.556666e+01
7.086393e+01	-1.561531e+01
7.127323e+01	-1.566398e+01
7.168490e+01	-1.571273e+01
7.209895e+01	-1.576071e+01
7.251539e+01	-1.581027e+01
7.293424e+01	-1.585952e+01
7.335551e+01	-1.590854e+01
7.377920e+01	-1.595571e+01
7.420535e+01	-1.600476e+01
7.463396e+01	-1.605466e+01
7.506504e+01	-1.610243e+01
7.549861e+01	-1.615104e+01
7.593469e+01	-1.620010e+01
7.637328e+01	-1.624917e+01
7.681441e+01	-1.629787e+01
7.725809e+01	-1.634661e+01
7.770433e+01	-1.639661e+01
7.815315e+01	-1.644437e+01
7.860456e+01	-1.649329e+01
7.905857e+01	-1.654289e+01
7.951521e+01	-1.659085e+01
7.997449e+01	-1.663989e+01
8.043642e+01	-1.668968e+01
8.090102e+01	-1.673823e+01
8.136830e+01	-1.678764e+01
8.183828e+01	-1.683709e+01
8.231097e+01	-1.688454e+01
8.278640e+01	-1.693409e+01
8.326457e+01	-1.698327e+01
8.374550e+01	-1.703296e+01
8.422921e+01	-1.708116e+01
8.471572e+01	-1.712967e+01
8.520503e+01	-1.717970e+01
8.569717e+01	-1.722808e+01
8.619215e+01	-1.727781e+01
8.669000e+01	-1.732595e+01
8.719071e+01	-1.737611e+01
8.769432e+01	-1.742570e+01
8.820084e+01	-1.747493e+01
8.871029e+01	-1.752278e+01
8.922267e+01	-1.757263e+01
8.973802e+01	-1.762168e+01
9.025634e+01	-1.767103e+01
9.077766e+01	-1.771990e+01
9.130199e+01	-1.776845e+01
9.182935e+01	-1.781908e+01
9.235975e+01	-1.786774e+01
9.289321e+01	-1.791680e+01
9.342976e+01	-1.796569e+01
9.396941e+01	-1.801489e+01
9.451217e+01	-1.806472e+01
9.505807e+01	-1.811479e+01
9.560712e+01	-1.816286e+01
9.615934e+01	-1.821181e+01
9.671476e+01	-1.826155e+01
9.727338e+01	-1.831073e+01
9.783522e+01	-1.835999e+01
9.840032e+01	-1.840859e+01
9.896867e+01	-1.845764e+01
9.954031e+01	-1.850804e+01
1.001153e+02	-1.855769e+01
1.006935e+02	-1.860567e+01
1.012751e+02	-1.865576e+01
1.018601e+02	-1.870548e+01
1.024484e+02	-1.875561e+01
1.030402e+02	-1.880333e+01
1.036353e+02	-1.885395e+01
1.042339e+02	-1.890187e+01
1.048360e+02	-1.895197e+01
1.054415e+02	-1.900249e+01
1.060505e+02	-1.905095e+01
1.066631e+02	-1.909942e+01
1.072791e+02	-1.915157e+01
1.078988e+02	-1.919835e+01
1.085220e+02	-1.924945e+01
1.091488e+02	-1.929812e+01
1.097793e+02	-1.934928e+01
1.104133e+02	-1.939753e+01
1.110511e+02	-1.944688e+01
1.116925e+02	-1.949619e+01
1.123376e+02	-1.954558e+01
1.129865e+02	-1.959622e+01
1.136391e+02	-1.964578e+01
1.142955e+02	-1.969371e+01
1.149556e+02	-1.974383e+01
1.156196e+02	-1.979258e+01
1.162874e+02	-1.984395e+01
1.169591e+02	-1.989267e+01
1.176347e+02	-1.994129e+01
1.183141e+02	-1.999141e+01
1.189975e+02	-2.004091e+01
1.196848e+02	-2.008985e+01
1.203761e+02	-2.013940e+01
1.210714e+02	-2.018954e+01
1.217707e+02	-2.023905e+01
1.224740e+02	-2.028925e+01
1.231814e+02	-2.033819e+01
1.238929e+02	-2.038687e+01
1.246085e+02	-2.043697e+01
1.253283e+02	-2.048703e+01
1.260522e+02	-2.053715e+01
1.267802e+02	-2.058575e+01
1.275125e+02	-2.063473e+01
1.282490e+02	-2.068565e+01
1.289898e+02	-2.073430e+01
1.297348e+02	-2.078302e+01
1.304842e+02	-2.083528e+01
1.312378e+02	-2.088400e+01
1.319959e+02	-2.093457e+01
1.327583e+02	-2.098174e+01
1.335251e+02	-2.103029e+01
1.342963e+02	-2.108255e+01
1.350720e+02	-2.113299e+01
1.358522e+02	-2.118104e+01
1.366368e+02	-2.123078e+01
1.374260e+02	-2.128141e+01
1.382198e+02	-2.133006e+01
1.390182e+02	-2.137914e+01
1.398211e+02	-2.143159e+01
1.406287e+02	-2.147878e+01
1.414410e+02	-2.152927e+01
1.422579e+02	-2.157754e+01
1.430796e+02	-2.162937e+01
1.439060e+02	-2.167887e+01
1.447372e+02	-2.172940e+01
1.455732e+02	-2.177783e+01
1.464141e+02	-2.182806e+01
1.472597e+02	-2.187656e+01
1.481103e+02	-2.192719e+01
1.489658e+02	-2.197651e+01
1.498262e+02	-2.202739e+01
1.506916e+02	-2.207630e+01
1.515620e+02	-2.212404e+01
1.524374e+02	-2.217693e+01
1.533179e+02	-2.222377e+01
1.542034e+02	-2.227660e+01
1.550941e+02	-2.232478e+01
1.559899e+02	-2.237497e+01
1.568909e+02	-2.242479e+01
1.577971e+02	-2.247490e+01
1.587085e+02	-2.252456e+01
1.596252e+02	-2.257351e+01
1.605472e+02	-2.262239e+01
1.614745e+02	-2.267272e+01
1.624072e+02	-2.272184e+01
1.633453e+02	-2.277299e+01
1.642887e+02	-2.282022e+01
1.652377e+02	-2.287289e+01
1.661921e+02	-2.292342e+01
1.671520e+02	-2.297277e+01
1.681175e+02	-2.302180e+01
1.690885e+02	-2.306930e+01
1.700651e+02	-2.311836e+01
1.710474e+02	-2.317277e+01
1.720354e+02	-2.322067e+01
1.730291e+02	-2.327189e+01
1.740285e+02	-2.332076e+01
1.750337e+02	-2.336952e+01
1.760446e+02	-2.342233e+01
1.770615e+02	-2.346930e+01
1.780842e+02	-2.351944e+01
1.791128e+02	-2.357263e+01
1.801473e+02	-2.362015e+01
1.811878e+02	-2.366715e+01
1.822344e+02	-2.372061e+01
1.832870e+02	-2.376953e+01
1.843456e+02	-2.381667e+01
1.854104e+02	-2.387165e+01
1.864813e+02	-2.391933e+01
1.875584e+02	-2.396858e+01
1.886418e+02	-2.401932e+01
1.897313e+02	-2.406973e+01
1.908272e+02	-2.411819e+01
1.919294e+02	-2.416853e+01
1.930380e+02	-2.421651e+01
1.941530e+02	-2.426562e+01
1.952744e+02	-2.431827e+01
1.964023e+02	-2.436856e+01
1.975367e+02	-2.441875e+01
1.986777e+02	-2.446788e+01
1.998252e+02	-2.451582e+01
2.009794e+02	-2.456466e+01
2.021403e+02	-2.461708e+01
2.033078e+02	-2.466795e+01
2.044821e+02	-2.471549e+01
2.056632e+02	-2.476798e+01
2.068511e+02	-2.481500e+01
2.080459e+02	-2.486920e+01
2.092475e+02	-2.491598e+01
2.104561e+02	-2.496552e+01
2.116717e+02	-2.501390e+01
2.128943e+02	-2.506822e+01
2.141240e+02	-2.511502e+01
2.153608e+02	-2.516633e+01
2.166047e+02	-2.521339e+01
2.178558e+02	-2.526445e+01
2.191141e+02	-2.531515e+01
2.203797e+02	-2.536720e+01
2.216526e+02	-2.541566e+01
2.229329e+02	-2.546442e+01
2.242205e+02	-2.551703e+01
2.255156e+02	-2.556270e+01
2.268182e+02	-2.561602e+01
2.281283e+02	-2.566213e+01
2.294459e+02	-2.571534e+01
2.307712e+02	-2.576285e+01
2.321041e+02	-2.581543e+01
2.334447e+02	-2.586276e+01
2.347931e+02	-2.591281e+01
2.361493e+02	-2.596544e+01
2.375133e+02	-2.601464e+01
2.388851e+02	-2.606289e+01
2.402649e+02	-2.611531e+01
2.416527e+02	-2.616295e+01
2.430484e+02	-2.621160e+01
2.444523e+02	-2.626210e+01
2.458642e+02	-2.631645e+01
2.472843e+02	-2.636003e+01
2.487126e+02	-2.641362e+01
2.501492e+02	-2.646211e+01
2.515940e+02	-2.651401e+01
2.530472e+02	-2.656415e+01
2.545088e+02	-2.661329e+01
2.559789e+02	-2.666235e+01
2.574574e+02	-2.671345e+01
2.589444e+02	-2.676181e+01
2.604401e+02	-2.681091e+01
2.619444e+02	-2.686130e+01
2.634574e+02	-2.691196e+01
2.649791e+02	-2.696527e+01
2.665096e+02	-2.701260e+01
2.680489e+02	-2.706100e+01
2.695972e+02	-2.711445e+01
2.711544e+02	-2.716437e+01
2.727205e+02	-2.721265e+01
2.742958e+02	-2.726280e+01
2.758801e+02	-2.731429e+01
2.774736e+02	-2.736223e+01
2.790762e+02	-2.741397e+01
2.806882e+02	-2.746354e+01
2.823094e+02	-2.751338e+01
2.839400e+02	-2.756100e+01
2.855800e+02	-2.761358e+01
2.872295e+02	-2.766034e+01
2.888886e+02	-2.771361e+01
2.905572e+02	-2.776519e+01
2.922354e+02	-2.781467e+01
2.939234e+02	-2.786105e+01
2.956211e+02	-2.791550e+01
2.973286e+02	-2.796412e+01
2.990459e+02	-2.801020e+01
3.007732e+02	-2.805977e+01
3.025104e+02	-2.811432e+01
3.042577e+02	-2.816056e+01
3.060151e+02	-2.821401e+01
3.077826e+02	-2.826412e+01
3.095604e+02	-2.831443e+01
3.113484e+02	-2.836270e+01
3.131467e+02	-2.841567e+01
3.149554e+02	-2.846688e+01
3.167746e+02	-2.851224e+01
3.186043e+02	-2.855732e+01
3.204445e+02	-2.861892e+01
3.222954e+02	-2.866319e+01
3.241570e+02	-2.871493e+01
3.260293e+02	-2.875997e+01
3.279124e+02	-2.881104e+01
3.298064e+02	-2.886500e+01
3.317114e+02	-2.891258e+01
3.336273e+02	-2.896434e+01
3.355544e+02	-2.901480e+01
3.374925e+02	-2.906451e+01
3.394418e+02	-2.911861e+01
3.414024e+02	-2.916499e+01
3.433744e+02	-2.921129e+01
3.453577e+02	-2.926475e+01
3.473525e+02	-2.931011e+01
3.493588e+02	-2.936347e+01
3.513766e+02	-2.941400e+01
3.534062e+02	-2.946405e+01
3.554474e+02	-2.951471e+01
3.575005e+02	-2.956610e+01
3.595654e+02	-2.961402e+01
3.616422e+02	-2.966210e+01
3.637311e+02	-2.971550e+01
3.658320e+02	-2.976747e+01
3.679450e+02	-2.981680e+01
3.700702e+02	-2.986847e+01
3.722077e+02	-2.991558e+01
3.743576e+02	-2.996667e+01
3.765199e+02	-3.001371e+01
3.786946e+02	-3.006699e+01
3.808820e+02	-3.011120e+01
3.830819e+02	-3.016613e+01
3.852946e+02	-3.021734e+01
3.875200e+02	-3.026443e+01
3.897583e+02	-3.031603e+01
3.920096e+02	-3.037102e+01
3.942738e+02	-3.041445e+01
3.965511e+02	-3.046587e+01
3.988416e+02	-3.051382e+01
4.011452e+02	-3.056095e+01
4.034622e+02	-3.061624e+01
4.057926e+02	-3.066600e+01
4.081365e+02	-3.071683e+01
4.104938e+02	-3.076443e+01
4.128648e+02	-3.081193e+01
4.152495e+02	-3.086484e+01
4.176480e+02	-3.091883e+01
4.200603e+02	-3.097018e+01
4.224866e+02	-3.101355e+01
4.249268e+02	-3.106523e+01
4.273812e+02	-3.111818e+01
4.298497e+02	-3.116953e+01
4.323325e+02	-3.121352e+01
4.348297e+02	-3.126619e+01
4.373412e+02	-3.132059e+01
4.398673e+02	-3.136803e+01
4.424079e+02	-3.141768e+01
4.449633e+02	-3.146741e+01
4.475334e+02	-3.151935e+01
4.501183e+02	-3.157255e+01
4.527182e+02	-3.162283e+01
4.553330e+02	-3.166932e+01
4.579630e+02	-3.172007e+01
4.606082e+02	-3.176397e+01
4.632687e+02	-3.181716e+01
4.659445e+02	-3.187190e+01
4.686358e+02	-3.191878e+01
4.713426e+02	-3.196675e+01
4.740650e+02	-3.201645e+01
4.768032e+02	-3.207156e+01
4.795572e+02	-3.211910e+01
4.823271e+02	-3.217016e+01
4.851130e+02	-3.221685e+01
4.879150e+02	-3.226635e+01
4.907332e+02	-3.232627e+01
4.935676e+02	-3.237690e+01
4.964185e+02	-3.242166e+01
4.992858e+02	-3.247829e+01
5.021696e+02	-3.252541e+01
5.050701e+02	-3.257641e+01
5.079874e+02	-3.262384e+01
5.109215e+02	-3.267043e+01
5.138726e+02	-3.272012e+01
5.168407e+02	-3.277988e+01
5.198259e+02	-3.282342e+01
5.228284e+02	-3.286637e+01
5.258482e+02	-3.292239e+01
5.288855e+02	-3.297222e+01
5.319403e+02	-3.302472e+01
5.350128e+02	-3.307871e+01
5.381030e+02	-3.312774e+01
5.412111e+02	-3.317521e+01
5.443371e+02	-3.322739e+01
5.474812e+02	-3.327753e+01
5.506434e+02	-3.332700e+01
5.538239e+02	-3.338885e+01
5.570228e+02	-3.342532e+01
5.602401e+02	-3.347506e+01
5.634760e+02	-3.352691e+01
5.667306e+02	-3.357954e+01
5.700040e+02	-3.363120e+01
5.732964e+02	-3.367692e+01
5.766077e+02	-3.372729e+01
5.799382e+02	-3.377398e+01
5.832879e+02	-3.382300e+01
5.866569e+02	-3.387097e+01
5.900454e+02	-3.393580e+01
5.934535e+02	-3.398103e+01
5.968813e+02	-3.402132e+01
6.003288e+02	-3.408486e+01
6.037963e+02	-3.412787e+01
6.072838e+02	-3.418728e+01
6.107914e+02	-3.423246e+01
6.143194e+02	-3.427487e+01
6.178676e+02	-3.432685e+01
6.214364e+02	-3.438281e+01
6.250258e+02	-3.442943e+01
6.286359e+02	-3.448136e+01
6.322669e+02	-3.452309e+01
6.359189e+02	-3.457665e+01
6.395919e+02	-3.463898e+01
6.432862e+02	-3.467659e+01
6.470017e+02	-3.473015e+01
6.507388e+02	-3.478050e+01
6.544974e+02	-3.482895e+01
6.582778e+02	-3.487969e+01
6.620800e+02	-3.493329e+01
6.659041e+02	-3.497549e+01
6.697504e+02	-3.502973e+01
6.736188e+02	-3.508742e+01
6.775096e+02	-3.513466e+01
6.814229e+02	-3.519390e+01
6.853587e+02	-3.522987e+01
6.893173e+02	-3.528835e+01
6.932988e+02	-3.533223e+01
6.973033e+02	-3.538748e+01
7.013309e+02	-3.543987e+01
