Frequency(Hz)	Magnitude(dB)
1.000000e+01	-1.580980e-05
1.005776e+01	-1.599297e-05
1.011585e+01	-1.617825e-05
1.017428e+01	-1.636568e-05
1.023305e+01	-1.655528e-05
1.029215e+01	-1.674707e-05
1.035160e+01	-1.694109e-05
1.041139e+01	-1.713736e-05
1.047153e+01	-1.733590e-05
1.053201e+01	-1.753674e-05
1.059284e+01	-1.773991e-05
1.065403e+01	-1.794543e-05
1.071556e+01	-1.815333e-05
1.077746e+01	-1.836364e-05
1.083971e+01	-1.857639e-05
1.090232e+01	-1.879160e-05
1.096529e+01	-1.900931e-05
1.102862e+01	-1.922954e-05
1.109232e+01	-1.945232e-05
1.115639e+01	-1.967768e-05
1.122083e+01	-1.990565e-05
1.128564e+01	-2.013626e-05
1.135083e+01	-2.036954e-05
1.141639e+01	-2.060553e-05
1.148233e+01	-2.084425e-05
1.154865e+01	-2.108574e-05
1.161536e+01	-2.133002e-05
1.168245e+01	-2.157713e-05
1.174992e+01	-2.182711e-05
1.181779e+01	-2.207998e-05
1.188605e+01	-2.233578e-05
1.195470e+01	-2.259455e-05
1.202375e+01	-2.285631e-05
1.209320e+01	-2.312111e-05
1.216305e+01	-2.338897e-05
1.223330e+01	-2.365994e-05
1.230396e+01	-2.393405e-05
1.237503e+01	-2.421133e-05
1.244651e+01	-2.449182e-05
1.251840e+01	-2.477557e-05
1.259070e+01	-2.506260e-05
1.266343e+01	-2.535295e-05
1.273657e+01	-2.564667e-05
1.281014e+01	-2.594380e-05
1.288413e+01	-2.624436e-05
1.295855e+01	-2.654841e-05
1.303339e+01	-2.685598e-05
1.310867e+01	-2.716711e-05
1.318439e+01	-2.748185e-05
1.326054e+01	-2.780023e-05
1.333713e+01	-2.812231e-05
1.341417e+01	-2.844811e-05
1.349165e+01	-2.877769e-05
1.356958e+01	-2.911109e-05
1.364795e+01	-2.944834e-05
1.372678e+01	-2.978951e-05
1.380607e+01	-3.013463e-05
1.388581e+01	-3.048375e-05
1.396602e+01	-3.083691e-05
1.404668e+01	-3.119416e-05
1.412782e+01	-3.155555e-05
1.420942e+01	-3.192113e-05
1.429149e+01	-3.229094e-05
1.437404e+01	-3.266504e-05
1.445706e+01	-3.304347e-05
1.454057e+01	-3.342629e-05
1.462455e+01	-3.381354e-05
1.470902e+01	-3.420528e-05
1.479398e+01	-3.460156e-05
1.487943e+01	-3.500242e-05
1.496537e+01	-3.540794e-05
1.505181e+01	-3.581814e-05
1.513875e+01	-3.623311e-05
1.522619e+01	-3.665287e-05
1.531414e+01	-3.707751e-05
1.540259e+01	-3.750706e-05
1.549156e+01	-3.794159e-05
1.558103e+01	-3.838115e-05
1.567103e+01	-3.882580e-05
1.576155e+01	-3.927561e-05
1.585258e+01	-3.973062e-05
1.594415e+01	-4.019091e-05
1.603624e+01	-4.065653e-05
1.612886e+01	-4.112755e-05
1.622202e+01	-4.160402e-05
1.631572e+01	-4.208601e-05
1.640996e+01	-4.257359e-05
1.650474e+01	-4.306681e-05
1.660008e+01	-4.356575e-05
1.669596e+01	-4.407047e-05
1.679239e+01	-4.458104e-05
1.688938e+01	-4.509752e-05
1.698694e+01	-4.561998e-05
1.708505e+01	-4.614850e-05
1.718373e+01	-4.668314e-05
1.728299e+01	-4.722397e-05
1.738281e+01	-4.777107e-05
1.748322e+01	-4.832451e-05
1.758420e+01	-4.888436e-05
1.768576e+01	-4.945070e-05
1.778792e+01	-5.002360e-05
1.789066e+01	-5.060313e-05
1.799399e+01	-5.118938e-05
1.809793e+01	-5.178242e-05
1.820246e+01	-5.238233e-05
1.830760e+01	-5.298919e-05
1.841334e+01	-5.360308e-05
1.851969e+01	-5.422408e-05
1.862666e+01	-5.485228e-05
1.873425e+01	-5.548775e-05
1.884246e+01	-5.613059e-05
1.895129e+01	-5.678087e-05
1.906075e+01	-5.743869e-05
1.917085e+01	-5.810413e-05
1.928158e+01	-5.877728e-05
1.939295e+01	-5.945823e-05
1.950496e+01	-6.014706e-05
1.961762e+01	-6.084388e-05
1.973093e+01	-6.154877e-05
1.984490e+01	-6.226182e-05
1.995952e+01	-6.298314e-05
2.007480e+01	-6.371281e-05
2.019076e+01	-6.445093e-05
2.030738e+01	-6.519761e-05
2.042467e+01	-6.595294e-05
2.054264e+01	-6.671701e-05
2.066130e+01	-6.748994e-05
2.078064e+01	-6.827183e-05
2.090066e+01	-6.906277e-05
2.102139e+01	-6.986287e-05
2.114280e+01	-7.067225e-05
2.126492e+01	-7.149100e-05
2.138775e+01	-7.231923e-05
2.151128e+01	-7.315707e-05
2.163553e+01	-7.400460e-05
2.176050e+01	-7.486196e-05
2.188619e+01	-7.572925e-05
2.201260e+01	-7.660659e-05
2.213974e+01	-7.749409e-05
2.226762e+01	-7.839187e-05
2.239624e+01	-7.930005e-05
2.252560e+01	-8.021876e-05
2.265571e+01	-8.114811e-05
2.278656e+01	-8.208822e-05
2.291818e+01	-8.303923e-05
2.305055e+01	-8.400125e-05
2.318369e+01	-8.497442e-05
2.331760e+01	-8.595886e-05
2.345228e+01	-8.695471e-05
2.358774e+01	-8.796209e-05
2.372398e+01	-8.898115e-05
2.386101e+01	-9.001201e-05
2.399883e+01	-9.105481e-05
2.413745e+01	-9.210970e-05
2.427686e+01	-9.317680e-05
2.441709e+01	-9.425627e-05
2.455812e+01	-9.534824e-05
2.469997e+01	-9.645287e-05
2.484263e+01	-9.757029e-05
2.498612e+01	-9.870065e-05
2.513044e+01	-9.984411e-05
2.527559e+01	-1.010008e-04
2.542158e+01	-1.021709e-04
2.556842e+01	-1.033546e-04
2.571610e+01	-1.045520e-04
2.586463e+01	-1.057632e-04
2.601403e+01	-1.069885e-04
2.616428e+01	-1.082280e-04
2.631541e+01	-1.094818e-04
2.646740e+01	-1.107502e-04
2.662028e+01	-1.120332e-04
2.677404e+01	-1.133312e-04
2.692868e+01	-1.146441e-04
2.708422e+01	-1.159723e-04
2.724066e+01	-1.173158e-04
2.739800e+01	-1.186749e-04
2.755625e+01	-1.200498e-04
2.771541e+01	-1.214406e-04
2.787550e+01	-1.228475e-04
2.803650e+01	-1.242707e-04
2.819844e+01	-1.257104e-04
2.836131e+01	-1.271668e-04
2.852513e+01	-1.286400e-04
2.868989e+01	-1.301303e-04
2.885560e+01	-1.316379e-04
2.902227e+01	-1.331629e-04
2.918990e+01	-1.347056e-04
2.935850e+01	-1.362662e-04
2.952807e+01	-1.378449e-04
2.969863e+01	-1.394418e-04
2.987016e+01	-1.410573e-04
3.004269e+01	-1.426914e-04
3.021622e+01	-1.443445e-04
3.039075e+01	-1.460168e-04
3.056628e+01	-1.477084e-04
3.074283e+01	-1.494196e-04
3.092040e+01	-1.511506e-04
3.109900e+01	-1.529017e-04
3.127862e+01	-1.546731e-04
3.145929e+01	-1.564650e-04
3.164099e+01	-1.582776e-04
3.182375e+01	-1.601113e-04
3.200756e+01	-1.619662e-04
3.219244e+01	-1.638426e-04
3.237838e+01	-1.657407e-04
3.256540e+01	-1.676608e-04
3.275349e+01	-1.696032e-04
3.294268e+01	-1.715681e-04
3.313295e+01	-1.735557e-04
3.332433e+01	-1.755663e-04
3.351681e+01	-1.776003e-04
3.371040e+01	-1.796578e-04
3.390511e+01	-1.817391e-04
3.410094e+01	-1.838446e-04
3.429791e+01	-1.859744e-04
3.449601e+01	-1.881289e-04
3.469526e+01	-1.903084e-04
3.489566e+01	-1.925131e-04
3.509721e+01	-1.947434e-04
3.529993e+01	-1.969995e-04
3.550382e+01	-1.992818e-04
3.570889e+01	-2.015904e-04
3.591515e+01	-2.039259e-04
3.612259e+01	-2.062883e-04
3.633123e+01	-2.086782e-04
3.654108e+01	-2.110957e-04
3.675214e+01	-2.135413e-04
3.696442e+01	-2.160151e-04
3.717792e+01	-2.185177e-04
3.739266e+01	-2.210492e-04
3.760864e+01	-2.236101e-04
3.782587e+01	-2.262006e-04
3.804435e+01	-2.288211e-04
3.826409e+01	-2.314720e-04
3.848510e+01	-2.341536e-04
3.870739e+01	-2.368662e-04
3.893096e+01	-2.396103e-04
3.915583e+01	-2.423862e-04
3.938199e+01	-2.451942e-04
3.960946e+01	-2.480348e-04
3.983824e+01	-2.509083e-04
4.006834e+01	-2.538150e-04
4.029978e+01	-2.567555e-04
4.053255e+01	-2.597299e-04
4.076666e+01	-2.627389e-04
4.100213e+01	-2.657827e-04
4.123896e+01	-2.688618e-04
4.147715e+01	-2.719765e-04
4.171672e+01	-2.751273e-04
4.195767e+01	-2.783147e-04
4.220002e+01	-2.815389e-04
4.244377e+01	-2.848005e-04
4.268892e+01	-2.880999e-04
4.293549e+01	-2.914375e-04
4.318348e+01	-2.948138e-04
4.343291e+01	-2.982292e-04
4.368377e+01	-3.016841e-04
4.393609e+01	-3.051791e-04
4.418986e+01	-3.087145e-04
4.444510e+01	-3.122910e-04
4.470182e+01	-3.159088e-04
4.496001e+01	-3.195686e-04
4.521970e+01	-3.232707e-04
4.548089e+01	-3.270157e-04
4.574358e+01	-3.308042e-04
4.600779e+01	-3.346365e-04
4.627353e+01	-3.385132e-04
4.654081e+01	-3.424348e-04
4.680963e+01	-3.464018e-04
4.708000e+01	-3.504148e-04
4.735193e+01	-3.544743e-04
4.762543e+01	-3.585808e-04
4.790051e+01	-3.627349e-04
4.817719e+01	-3.669371e-04
4.845545e+01	-3.711880e-04
4.873533e+01	-3.754882e-04
4.901682e+01	-3.798381e-04
4.929994e+01	-3.842384e-04
4.958470e+01	-3.886897e-04
4.987110e+01	-3.931926e-04
5.015915e+01	-3.977477e-04
5.044887e+01	-4.023555e-04
5.074026e+01	-4.070166e-04
5.103333e+01	-4.117318e-04
5.132810e+01	-4.165016e-04
5.162457e+01	-4.213267e-04
5.192275e+01	-4.262076e-04
5.222265e+01	-4.311451e-04
5.252429e+01	-4.361398e-04
5.282767e+01	-4.411923e-04
5.313280e+01	-4.463034e-04
5.343969e+01	-4.514737e-04
5.374836e+01	-4.567039e-04
5.405880e+01	-4.619946e-04
5.437105e+01	-4.673467e-04
5.468509e+01	-4.727607e-04
5.500095e+01	-4.782375e-04
5.531863e+01	-4.837777e-04
5.563815e+01	-4.893821e-04
5.595951e+01	-4.950514e-04
5.628273e+01	-5.007863e-04
5.660782e+01	-5.065877e-04
5.693479e+01	-5.124564e-04
5.726364e+01	-5.183929e-04
5.759439e+01	-5.243983e-04
5.792705e+01	-5.304732e-04
5.826164e+01	-5.366185e-04
5.859815e+01	-5.428350e-04
5.893662e+01	-5.491235e-04
5.927703e+01	-5.554849e-04
5.961941e+01	-5.619199e-04
5.996377e+01	-5.684295e-04
6.031012e+01	-5.750144e-04
6.065847e+01	-5.816757e-04
6.100883e+01	-5.884141e-04
6.136121e+01	-5.952306e-04
6.171563e+01	-6.021260e-04
6.207210e+01	-6.091013e-04
6.243063e+01	-6.161574e-04
6.279122e+01	-6.232953e-04
6.315390e+01	-6.305158e-04
6.351868e+01	-6.378199e-04
6.388556e+01	-6.452087e-04
6.425456e+01	-6.526831e-04
6.462569e+01	-6.602440e-04
6.499897e+01	-6.678925e-04
6.537440e+01	-6.756297e-04
6.575200e+01	-6.834564e-04
6.613178e+01	-6.913738e-04
6.651375e+01	-6.993829e-04
6.689793e+01	-7.074848e-04
6.728433e+01	-7.156805e-04
6.767297e+01	-7.239712e-04
6.806384e+01	-7.323579e-04
6.845698e+01	-7.408417e-04
6.885238e+01	-7.494238e-04
6.925007e+01	-7.581054e-04
6.965005e+01	-7.668874e-04
7.005235e+01	-7.757712e-04
7.045697e+01	-7.847580e-04
7.086393e+01	-7.938488e-04
7.127323e+01	-8.030449e-04
7.168490e+01	-8.123475e-04
7.209895e+01	-8.217579e-04
7.251539e+01	-8.312772e-04
7.293424e+01	-8.409069e-04
7.335551e+01	-8.506481e-04
7.377920e+01	-8.605021e-04
7.420535e+01	-8.704702e-04
7.463396e+01	-8.805538e-04
7.506504e+01	-8.907543e-04
7.549861e+01	-9.010728e-04
7.593469e+01	-9.115109e-04
7.637328e+01	-9.220699e-04
7.681441e+01	-9.327512e-04
7.725809e+01	-9.435562e-04
7.770433e+01	-9.544863e-04
7.815315e+01	-9.655431e-04
7.860456e+01	-9.767279e-04
7.905857e+01	-9.880423e-04
7.951521e+01	-9.994877e-04
7.997449e+01	-1.011066e-03
8.043642e+01	-1.022778e-03
8.090102e+01	-1.034626e-03
8.136830e+01	-1.046610e-03
8.183828e+01	-1.058734e-03
8.231097e+01	-1.070998e-03
8.278640e+01	-1.083405e-03
8.326457e+01	-1.095955e-03
8.374550e+01	-1.108650e-03
8.422921e+01	-1.121492e-03
8.471572e+01	-1.134483e-03
8.520503e+01	-1.147625e-03
8.569717e+01	-1.160919e-03
8.619215e+01	-1.174367e-03
8.669000e+01	-1.187970e-03
8.719071e+01	-1.201731e-03
8.769432e+01	-1.215652e-03
8.820084e+01	-1.229733e-03
8.871029e+01	-1.243978e-03
8.922267e+01	-1.258388e-03
8.973802e+01	-1.272964e-03
9.025634e+01	-1.287710e-03
9.077766e+01	-1.302626e-03
9.130199e+01	-1.317715e-03
9.182935e+01	-1.332979e-03
9.235975e+01	-1.348419e-03
9.289321e+01	-1.364039e-03
9.342976e+01	-1.379839e-03
9.396941e+01	-1.395822e-03
9.451217e+01	-1.411990e-03
9.505807e+01	-1.428346e-03
9.560712e+01	-1.444891e-03
9.615934e+01	-1.461628e-03
9.671476e+01	-1.478558e-03
9.727338e+01	-1.495685e-03
9.783522e+01	-1.513009e-03
9.840032e+01	-1.530535e-03
9.896867e+01	-1.548264e-03
9.954031e+01	-1.566197e-03
1.001153e+02	-1.584339e-03
1.006935e+02	-1.602690e-03
1.012751e+02	-1.621255e-03
1.018601e+02	-1.640034e-03
1.024484e+02	-1.659030e-03
1.030402e+02	-1.678247e-03
1.036353e+02	-1.697686e-03
1.042339e+02	-1.717350e-03
1.048360e+02	-1.737242e-03
1.054415e+02	-1.757365e-03
1.060505e+02	-1.777720e-03
1.066631e+02	-1.798311e-03
1.072791e+02	-1.819141e-03
1.078988e+02	-1.840211e-03
1.085220e+02	-1.861526e-03
1.091488e+02	-1.883088e-03
1.097793e+02	-1.904899e-03
1.104133e+02	-1.926963e-03
1.110511e+02	-1.949282e-03
1.116925e+02	-1.971860e-03
1.123376e+02	-1.994699e-03
1.129865e+02	-2.017803e-03
1.136391e+02	-2.041174e-03
1.142955e+02	-2.064816e-03
1.149556e+02	-2.088732e-03
1.156196e+02	-2.112925e-03
1.162874e+02	-2.137397e-03
1.169591e+02	-2.162153e-03
1.176347e+02	-2.187196e-03
1.183141e+02	-2.212529e-03
1.189975e+02	-2.238155e-03
1.196848e+02	-2.264078e-03
1.203761e+02	-2.290301e-03
1.210714e+02	-2.316828e-03
1.217707e+02	-2.343662e-03
1.224740e+02	-2.370806e-03
1.231814e+02	-2.398265e-03
1.238929e+02	-2.426042e-03
1.246085e+02	-2.454140e-03
1.253283e+02	-2.482564e-03
1.260522e+02	-2.511317e-03
1.267802e+02	-2.540402e-03
1.275125e+02	-2.569825e-03
1.282490e+02	-2.599588e-03
1.289898e+02	-2.629696e-03
1.297348e+02	-2.660152e-03
1.304842e+02	-2.690961e-03
1.312378e+02	-2.722127e-03
1.319959e+02	-2.753653e-03
1.327583e+02	-2.785545e-03
1.335251e+02	-2.817806e-03
1.342963e+02	-2.850440e-03
1.350720e+02	-2.883452e-03
1.358522e+02	-2.916846e-03
1.366368e+02	-2.950627e-03
1.374260e+02	-2.984799e-03
1.382198e+02	-3.019367e-03
1.390182e+02	-3.054335e-03
1.398211e+02	-3.089708e-03
1.406287e+02	-3.125490e-03
1.414410e+02	-3.161686e-03
1.422579e+02	-3.198302e-03
1.430796e+02	-3.235341e-03
1.439060e+02	-3.272809e-03
1.447372e+02	-3.310711e-03
1.455732e+02	-3.349052e-03
1.464141e+02	-3.387836e-03
1.472597e+02	-3.427070e-03
1.481103e+02	-3.466757e-03
1.489658e+02	-3.506904e-03
1.498262e+02	-3.547516e-03
1.506916e+02	-3.588598e-03
1.515620e+02	-3.630155e-03
1.524374e+02	-3.672194e-03
1.533179e+02	-3.714719e-03
1.542034e+02	-3.757736e-03
1.550941e+02	-3.801251e-03
1.559899e+02	-3.845270e-03
1.568909e+02	-3.889799e-03
1.577971e+02	-3.934843e-03
1.587085e+02	-3.980408e-03
1.596252e+02	-4.026501e-03
1.605472e+02	-4.073127e-03
1.614745e+02	-4.120292e-03
1.624072e+02	-4.168004e-03
1.633453e+02	-4.216268e-03
1.642887e+02	-4.265091e-03
1.652377e+02	-4.314478e-03
1.661921e+02	-4.364437e-03
1.671520e+02	-4.414975e-03
1.681175e+02	-4.466097e-03
1.690885e+02	-4.517811e-03
1.700651e+02	-4.570123e-03
1.710474e+02	-4.623041e-03
1.720354e+02	-4.676571e-03
1.730291e+02	-4.730721e-03
1.740285e+02	-4.785497e-03
1.750337e+02	-4.840908e-03
1.760446e+02	-4.896959e-03
1.770615e+02	-4.953659e-03
1.780842e+02	-5.011015e-03
1.791128e+02	-5.069035e-03
1.801473e+02	-5.127727e-03
1.811878e+02	-5.187097e-03
1.822344e+02	-5.247155e-03
1.832870e+02	-5.307907e-03
1.843456e+02	-5.369362e-03
1.854104e+02	-5.431529e-03
1.864813e+02	-5.494414e-03
1.875584e+02	-5.558028e-03
1.886418e+02	-5.622377e-03
1.897313e+02	-5.687471e-03
1.908272e+02	-5.753318e-03
1.919294e+02	-5.819927e-03
1.930380e+02	-5.887307e-03
1.941530e+02	-5.955466e-03
1.952744e+02	-6.024413e-03
1.964023e+02	-6.094158e-03
1.975367e+02	-6.164711e-03
1.986777e+02	-6.236079e-03
1.998252e+02	-6.308273e-03
2.009794e+02	-6.381302e-03
2.021403e+02	-6.455176e-03
2.033078e+02	-6.529904e-03
2.044821e+02	-6.605497e-03
2.056632e+02	-6.681965e-03
2.068511e+02	-6.759316e-03
2.080459e+02	-6.837563e-03
2.092475e+02	-6.916715e-03
2.104561e+02	-6.996782e-03
2.116717e+02	-7.077775e-03
2.128943e+02	-7.159705e-03
2.141240e+02	-7.242583e-03
2.153608e+02	-7.326419e-03
2.166047e+02	-7.411225e-03
2.178558e+02	-7.497011e-03
2.191141e+02	-7.583790e-03
2.203797e+02	-7.671572e-03
2.216526e+02	-7.760369e-03
2.229329e+02	-7.850194e-03
2.242205e+02	-7.941057e-03
2.255156e+02	-8.032971e-03
2.268182e+02	-8.125947e-03
2.281283e+02	-8.219999e-03
2.294459e+02	-8.315138e-03
2.307712e+02	-8.411378e-03
2.321041e+02	-8.508730e-03
2.334447e+02	-8.607208e-03
2.347931e+02	-8.706824e-03
2.361493e+02	-8.807592e-03
2.375133e+02	-8.909525e-03
2.388851e+02	-9.012637e-03
2.402649e+02	-9.116941e-03
2.416527e+02	-9.222450e-03
2.430484e+02	-9.329180e-03
2.444523e+02	-9.437143e-03
2.458642e+02	-9.546354e-03
2.472843e+02	-9.656827e-03
2.487126e+02	-9.768578e-03
2.501492e+02	-9.881620e-03
2.515940e+02	-9.995969e-03
2.530472e+02	-1.011164e-02
2.545088e+02	-1.022865e-02
2.559789e+02	-1.034701e-02
2.574574e+02	-1.046673e-02
2.589444e+02	-1.058785e-02
2.604401e+02	-1.071036e-02
2.619444e+02	-1.083428e-02
2.634574e+02	-1.095964e-02
2.649791e+02	-1.108645e-02
2.665096e+02	-1.121472e-02
2.680489e+02	-1.134448e-02
2.695972e+02	-1.147573e-02
2.711544e+02	-1.160850e-02
2.727205e+02	-1.174281e-02
2.742958e+02	-1.187866e-02
2.758801e+02	-1.201609e-02
2.774736e+02	-1.215511e-02
2.790762e+02	-1.229572e-02
2.806882e+02	-1.243797e-02
2.823094e+02	-1.258186e-02
2.839400e+02	-1.272741e-02
2.855800e+02	-1.287464e-02
2.872295e+02	-1.302357e-02
2.888886e+02	-1.317422e-02
2.905572e+02	-1.332661e-02
2.922354e+02	-1.348076e-02
2.939234e+02	-1.363670e-02
2.956211e+02	-1.379443e-02
2.973286e+02	-1.395398e-02
2.990459e+02	-1.411538e-02
3.007732e+02	-1.427864e-02
3.025104e+02	-1.444378e-02
3.042577e+02	-1.461084e-02
3.060151e+02	-1.477982e-02
3.077826e+02	-1.495075e-02
3.095604e+02	-1.512366e-02
3.113484e+02	-1.529856e-02
3.131467e+02	-1.547548e-02
3.149554e+02	-1.565444e-02
3.167746e+02	-1.583547e-02
3.186043e+02	-1.601859e-02
3.204445e+02	-1.620382e-02
3.222954e+02	-1.639119e-02
3.241570e+02	-1.658072e-02
3.260293e+02	-1.677244e-02
3.279124e+02	-1.696637e-02
3.298064e+02	-1.716254e-02
3.317114e+02	-1.736098e-02
3.336273e+02	-1.756170e-02
3.355544e+02	-1.776474e-02
3.374925e+02	-1.797012e-02
3.394418e+02	-1.817787e-02
3.414024e+02	-1.838802e-02
3.433744e+02	-1.860059e-02
3.453577e+02	-1.881561e-02
3.473525e+02	-1.903312e-02
3.493588e+02	-1.925313e-02
3.513766e+02	-1.947568e-02
3.534062e+02	-1.970080e-02
3.554474e+02	-1.992851e-02
3.575005e+02	-2.015885e-02
3.595654e+02	-2.039185e-02
3.616422e+02	-2.062753e-02
3.637311e+02	-2.086593e-02
3.658320e+02	-2.110707e-02
3.679450e+02	-2.135100e-02
3.700702e+02	-2.159774e-02
3.722077e+02	-2.184732e-02
3.743576e+02	-2.209978e-02
3.765199e+02	-2.235515e-02
3.786946e+02	-2.261347e-02
3.808820e+02	-2.287476e-02
3.830819e+02	-2.313906e-02
3.852946e+02	-2.340641e-02
3.875200e+02	-2.367683e-02
3.897583e+02	-2.395038e-02
3.920096e+02	-2.422707e-02
3.942738e+02	-2.450695e-02
3.965511e+02	-2.479006e-02
3.988416e+02	-2.507642e-02
4.011452e+02	-2.536609e-02
4.034622e+02	-2.565909e-02
4.057926e+02	-2.595547e-02
4.081365e+02	-2.625525e-02
4.104938e+02	-2.655849e-02
4.128648e+02	-2.686523e-02
4.152495e+02	-2.717549e-02
4.176480e+02	-2.748932e-02
4.200603e+02	-2.780677e-02
4.224866e+02	-2.812787e-02
4.249268e+02	-2.845267e-02
4.273812e+02	-2.878121e-02
4.298497e+02	-2.911352e-02
4.323325e+02	-2.944966e-02
4.348297e+02	-2.978967e-02
4.373412e+02	-3.013359e-02
4.398673e+02	-3.048147e-02
4.424079e+02	-3.083334e-02
4.449633e+02	-3.118927e-02
4.475334e+02	-3.154929e-02
4.501183e+02	-3.191345e-02
4.527182e+02	-3.228179e-02
4.553330e+02	-3.265437e-02
4.579630e+02	-3.303124e-02
4.606082e+02	-3.341244e-02
4.632687e+02	-3.379802e-02
4.659445e+02	-3.418803e-02
4.686358e+02	-3.458253e-02
4.713426e+02	-3.498156e-02
4.740650e+02	-3.538517e-02
4.768032e+02	-3.579342e-02
4.795572e+02	-3.620636e-02
4.823271e+02	-3.662405e-02
4.851130e+02	-3.704653e-02
4.879150e+02	-3.747387e-02
4.907332e+02	-3.790611e-02
4.935676e+02	-3.834332e-02
4.964185e+02	-3.878555e-02
4.992858e+02	-3.923285e-02
5.021696e+02	-3.968529e-02
5.050701e+02	-4.014293e-02
5.079874e+02	-4.060581e-02
5.109215e+02	-4.107401e-02
5.138726e+02	-4.154758e-02
5.168407e+02	-4.202658e-02
5.198259e+02	-4.251108e-02
5.228284e+02	-4.300114e-02
5.258482e+02	-4.349682e-02
5.288855e+02	-4.399818e-02
5.319403e+02	-4.450529e-02
5.350128e+02	-4.501822e-02
5.381030e+02	-4.553702e-02
5.412111e+02	-4.606178e-02
5.443371e+02	-4.659255e-02
5.474812e+02	-4.712940e-02
5.506434e+02	-4.767240e-02
5.538239e+02	-4.822162e-02
5.570228e+02	-4.877714e-02
5.602401e+02	-4.933901e-02
5.634760e+02	-4.990733e-02
5.667306e+02	-5.048215e-02
5.700040e+02	-5.106355e-02
5.732964e+02	-5.165161e-02
5.766077e+02	-5.224640e-02
5.799382e+02	-5.284800e-02
5.832879e+02	-5.345648e-02
5.866569e+02	-5.407193e-02
5.900454e+02	-5.469441e-02
5.934535e+02	-5.532402e-02
5.968813e+02	-5.596082e-02
6.003288e+02	-5.660491e-02
6.037963e+02	-5.725636e-02
6.072838e+02	-5.791526e-02
6.107914e+02	-5.858169e-02
6.143194e+02	-5.925574e-02
6.178676e+02	-5.993749e-02
6.214364e+02	-6.062702e-02
6.250258e+02	-6.132444e-02
6.286359e+02	-6.202981e-02
6.322669e+02	-6.274325e-02
6.359189e+02	-6.346483e-02
6.395919e+02	-6.419464e-02
6.432862e+02	-6.493279e-02
6.470017e+02	-6.567935e-02
6.507388e+02	-6.643444e-02
6.544974e+02	-6.719814e-02
6.582778e+02	-6.797055e-02
6.620800e+02	-6.875177e-02
6.659041e+02	-6.954189e-02
6.697504e+02	-7.034102e-02
6.736188e+02	-7.114926e-02
6.775096e+02	-7.196671e-02
6.814229e+02	-7.279347e-02
6.853587e+02	-7.362965e-02
6.893173e+02	-7.447535e-02
6.932988e+02	-7.533068e-02
6.973033e+02	-7.619574e-02
7.013309e+02	-7.707066e-02
