Frequency(Hz)	Magnitude(dB)
1.000000e+01	-1.495473e-05
1.005776e+01	-1.512799e-05
1.011585e+01	-1.530325e-05
1.017428e+01	-1.548054e-05
1.023305e+01	-1.565989e-05
1.029215e+01	-1.584131e-05
1.035160e+01	-1.602484e-05
1.041139e+01	-1.621049e-05
1.047153e+01	-1.639829e-05
1.053201e+01	-1.658827e-05
1.059284e+01	-1.678045e-05
1.065403e+01	-1.697486e-05
1.071556e+01	-1.717151e-05
1.077746e+01	-1.737045e-05
1.083971e+01	-1.757169e-05
1.090232e+01	-1.777526e-05
1.096529e+01	-1.798119e-05
1.102862e+01	-1.818951e-05
1.109232e+01	-1.840024e-05
1.115639e+01	-1.861341e-05
1.122083e+01	-1.882905e-05
1.128564e+01	-1.904719e-05
1.135083e+01	-1.926786e-05
1.141639e+01	-1.949108e-05
1.148233e+01	-1.971689e-05
1.154865e+01	-1.994532e-05
1.161536e+01	-2.017639e-05
1.168245e+01	-2.041014e-05
1.174992e+01	-2.064659e-05
1.181779e+01	-2.088579e-05
1.188605e+01	-2.112776e-05
1.195470e+01	-2.137253e-05
1.202375e+01	-2.162013e-05
1.209320e+01	-2.187061e-05
1.216305e+01	-2.212398e-05
1.223330e+01	-2.238030e-05
1.230396e+01	-2.263958e-05
1.237503e+01	-2.290186e-05
1.244651e+01	-2.316719e-05
1.251840e+01	-2.343558e-05
1.259070e+01	-2.370709e-05
1.266343e+01	-2.398174e-05
1.273657e+01	-2.425958e-05
1.281014e+01	-2.454063e-05
1.288413e+01	-2.482494e-05
1.295855e+01	-2.511254e-05
1.303339e+01	-2.540348e-05
1.310867e+01	-2.569778e-05
1.318439e+01	-2.599550e-05
1.326054e+01	-2.629666e-05
1.333713e+01	-2.660132e-05
1.341417e+01	-2.690950e-05
1.349165e+01	-2.722125e-05
1.356958e+01	-2.753662e-05
1.364795e+01	-2.785564e-05
1.372678e+01	-2.817835e-05
1.380607e+01	-2.850480e-05
1.388581e+01	-2.883504e-05
1.396602e+01	-2.916910e-05
1.404668e+01	-2.950703e-05
1.412782e+01	-2.984888e-05
1.420942e+01	-3.019468e-05
1.429149e+01	-3.054450e-05
1.437404e+01	-3.089836e-05
1.445706e+01	-3.125633e-05
1.454057e+01	-3.161844e-05
1.462455e+01	-3.198474e-05
1.470902e+01	-3.235530e-05
1.479398e+01	-3.273014e-05
1.487943e+01	-3.310933e-05
1.496537e+01	-3.349291e-05
1.505181e+01	-3.388093e-05
1.513875e+01	-3.427345e-05
1.522619e+01	-3.467051e-05
1.531414e+01	-3.507218e-05
1.540259e+01	-3.547850e-05
1.549156e+01	-3.588952e-05
1.558103e+01	-3.630531e-05
1.567103e+01	-3.672592e-05
1.576155e+01	-3.715140e-05
1.585258e+01	-3.758180e-05
1.594415e+01	-3.801720e-05
1.603624e+01	-3.845764e-05
1.612886e+01	-3.890318e-05
1.622202e+01	-3.935388e-05
1.631572e+01	-3.980980e-05
1.640996e+01	-4.027101e-05
1.650474e+01	-4.073756e-05
1.660008e+01	-4.120951e-05
1.669596e+01	-4.168693e-05
1.679239e+01	-4.216988e-05
1.688938e+01	-4.265843e-05
1.698694e+01	-4.315264e-05
1.708505e+01	-4.365257e-05
1.718373e+01	-4.415830e-05
1.728299e+01	-4.466988e-05
1.738281e+01	-4.518739e-05
1.748322e+01	-4.571090e-05
1.758420e+01	-4.624047e-05
1.768576e+01	-4.677617e-05
1.778792e+01	-4.731809e-05
1.789066e+01	-4.786628e-05
1.799399e+01	-4.842082e-05
1.809793e+01	-4.898178e-05
1.820246e+01	-4.954925e-05
1.830760e+01	-5.012328e-05
1.841334e+01	-5.070397e-05
1.851969e+01	-5.129139e-05
1.862666e+01	-5.188561e-05
1.873425e+01	-5.248672e-05
1.884246e+01	-5.309479e-05
1.895129e+01	-5.370990e-05
1.906075e+01	-5.433214e-05
1.917085e+01	-5.496159e-05
1.928158e+01	-5.559833e-05
1.939295e+01	-5.624245e-05
1.950496e+01	-5.689403e-05
1.961762e+01	-5.755316e-05
1.973093e+01	-5.821992e-05
1.984490e+01	-5.889441e-05
1.995952e+01	-5.957672e-05
2.007480e+01	-6.026693e-05
2.019076e+01	-6.096513e-05
2.030738e+01	-6.167142e-05
2.042467e+01	-6.238590e-05
2.054264e+01	-6.310865e-05
2.066130e+01	-6.383978e-05
2.078064e+01	-6.457937e-05
2.090066e+01	-6.532754e-05
2.102139e+01	-6.608437e-05
2.114280e+01	-6.684997e-05
2.126492e+01	-6.762444e-05
2.138775e+01	-6.840788e-05
2.151128e+01	-6.920040e-05
2.163553e+01	-7.000210e-05
2.176050e+01	-7.081309e-05
2.188619e+01	-7.163347e-05
2.201260e+01	-7.246336e-05
2.213974e+01	-7.330286e-05
2.226762e+01	-7.415208e-05
2.239624e+01	-7.501115e-05
2.252560e+01	-7.588017e-05
2.265571e+01	-7.675925e-05
2.278656e+01	-7.764852e-05
2.291818e+01	-7.854809e-05
2.305055e+01	-7.945809e-05
2.318369e+01	-8.037862e-05
2.331760e+01	-8.130982e-05
2.345228e+01	-8.225181e-05
2.358774e+01	-8.320471e-05
2.372398e+01	-8.416865e-05
2.386101e+01	-8.514376e-05
2.399883e+01	-8.613016e-05
2.413745e+01	-8.712800e-05
2.427686e+01	-8.813739e-05
2.441709e+01	-8.915847e-05
2.455812e+01	-9.019139e-05
2.469997e+01	-9.123627e-05
2.484263e+01	-9.229326e-05
2.498612e+01	-9.336249e-05
2.513044e+01	-9.444411e-05
2.527559e+01	-9.553826e-05
2.542158e+01	-9.664508e-05
2.556842e+01	-9.776473e-05
2.571610e+01	-9.889735e-05
2.586463e+01	-1.000431e-04
2.601403e+01	-1.012021e-04
2.616428e+01	-1.023745e-04
2.631541e+01	-1.035606e-04
2.646740e+01	-1.047603e-04
2.662028e+01	-1.059740e-04
2.677404e+01	-1.072017e-04
2.692868e+01	-1.084437e-04
2.708422e+01	-1.097000e-04
2.724066e+01	-1.109709e-04
2.739800e+01	-1.122565e-04
2.755625e+01	-1.135570e-04
2.771541e+01	-1.148726e-04
2.787550e+01	-1.162034e-04
2.803650e+01	-1.175496e-04
2.819844e+01	-1.189114e-04
2.836131e+01	-1.202890e-04
2.852513e+01	-1.216826e-04
2.868989e+01	-1.230923e-04
2.885560e+01	-1.245184e-04
2.902227e+01	-1.259609e-04
2.918990e+01	-1.274202e-04
2.935850e+01	-1.288964e-04
2.952807e+01	-1.303896e-04
2.969863e+01	-1.319002e-04
2.987016e+01	-1.334283e-04
3.004269e+01	-1.349741e-04
3.021622e+01	-1.365378e-04
3.039075e+01	-1.381196e-04
3.056628e+01	-1.397197e-04
3.074283e+01	-1.413384e-04
3.092040e+01	-1.429758e-04
3.109900e+01	-1.446322e-04
3.127862e+01	-1.463077e-04
3.145929e+01	-1.480027e-04
3.164099e+01	-1.497174e-04
3.182375e+01	-1.514518e-04
3.200756e+01	-1.532064e-04
3.219244e+01	-1.549813e-04
3.237838e+01	-1.567768e-04
3.256540e+01	-1.585931e-04
3.275349e+01	-1.604304e-04
3.294268e+01	-1.622890e-04
3.313295e+01	-1.641691e-04
3.332433e+01	-1.660710e-04
3.351681e+01	-1.679949e-04
3.371040e+01	-1.699412e-04
3.390511e+01	-1.719100e-04
3.410094e+01	-1.739015e-04
3.429791e+01	-1.759162e-04
3.449601e+01	-1.779542e-04
3.469526e+01	-1.800158e-04
3.489566e+01	-1.821013e-04
3.509721e+01	-1.842109e-04
3.529993e+01	-1.863450e-04
3.550382e+01	-1.885038e-04
3.570889e+01	-1.906877e-04
3.591515e+01	-1.928968e-04
3.612259e+01	-1.951315e-04
3.633123e+01	-1.973921e-04
3.654108e+01	-1.996789e-04
3.675214e+01	-2.019922e-04
3.696442e+01	-2.043323e-04
3.717792e+01	-2.066994e-04
3.739266e+01	-2.090941e-04
3.760864e+01	-2.115164e-04
3.782587e+01	-2.139668e-04
3.804435e+01	-2.164456e-04
3.826409e+01	-2.189531e-04
3.848510e+01	-2.214897e-04
3.870739e+01	-2.240557e-04
3.893096e+01	-2.266513e-04
3.915583e+01	-2.292771e-04
3.938199e+01	-2.319333e-04
3.960946e+01	-2.346202e-04
3.983824e+01	-2.373383e-04
4.006834e+01	-2.400878e-04
4.029978e+01	-2.428692e-04
4.053255e+01	-2.456829e-04
4.076666e+01	-2.485291e-04
4.100213e+01	-2.514083e-04
4.123896e+01	-2.543208e-04
4.147715e+01	-2.572671e-04
4.171672e+01	-2.602475e-04
4.195767e+01	-2.632625e-04
4.220002e+01	-2.663124e-04
4.244377e+01	-2.693976e-04
4.268892e+01	-2.725185e-04
4.293549e+01	-2.756756e-04
4.318348e+01	-2.788693e-04
4.343291e+01	-2.821000e-04
4.368377e+01	-2.853681e-04
4.393609e+01	-2.886740e-04
4.418986e+01	-2.920183e-04
4.444510e+01	-2.954013e-04
4.470182e+01	-2.988235e-04
4.496001e+01	-3.022853e-04
4.521970e+01	-3.057872e-04
4.548089e+01	-3.093297e-04
4.574358e+01	-3.129133e-04
4.600779e+01	-3.165383e-04
4.627353e+01	-3.202054e-04
4.654081e+01	-3.239149e-04
4.680963e+01	-3.276674e-04
4.708000e+01	-3.314634e-04
4.735193e+01	-3.353033e-04
4.762543e+01	-3.391878e-04
4.790051e+01	-3.431172e-04
4.817719e+01	-3.470921e-04
4.845545e+01	-3.511131e-04
4.873533e+01	-3.551807e-04
4.901682e+01	-3.592954e-04
4.929994e+01	-3.634578e-04
4.958470e+01	-3.676684e-04
4.987110e+01	-3.719277e-04
5.015915e+01	-3.762364e-04
5.044887e+01	-3.805950e-04
5.074026e+01	-3.850041e-04
5.103333e+01	-3.894643e-04
5.132810e+01	-3.939762e-04
5.162457e+01	-3.985403e-04
5.192275e+01	-4.031573e-04
5.222265e+01	-4.078277e-04
5.252429e+01	-4.125523e-04
5.282767e+01	-4.173316e-04
5.313280e+01	-4.221663e-04
5.343969e+01	-4.270569e-04
5.374836e+01	-4.320043e-04
5.405880e+01	-4.370089e-04
5.437105e+01	-4.420715e-04
5.468509e+01	-4.471928e-04
5.500095e+01	-4.523734e-04
5.531863e+01	-4.576139e-04
5.563815e+01	-4.629153e-04
5.595951e+01	-4.682780e-04
5.628273e+01	-4.737028e-04
5.660782e+01	-4.791905e-04
5.693479e+01	-4.847417e-04
5.726364e+01	-4.903573e-04
5.759439e+01	-4.960379e-04
5.792705e+01	-5.017843e-04
5.826164e+01	-5.075972e-04
5.859815e+01	-5.134775e-04
5.893662e+01	-5.194260e-04
5.927703e+01	-5.254433e-04
5.961941e+01	-5.315303e-04
5.996377e+01	-5.376879e-04
6.031012e+01	-5.439167e-04
6.065847e+01	-5.502178e-04
6.100883e+01	-5.565918e-04
6.136121e+01	-5.630396e-04
6.171563e+01	-5.695622e-04
6.207210e+01	-5.761603e-04
6.243063e+01	-5.828348e-04
6.279122e+01	-5.895866e-04
6.315390e+01	-5.964167e-04
6.351868e+01	-6.033259e-04
6.388556e+01	-6.103151e-04
6.425456e+01	-6.173852e-04
6.462569e+01	-6.245373e-04
6.499897e+01	-6.317722e-04
6.537440e+01	-6.390909e-04
6.575200e+01	-6.464944e-04
6.613178e+01	-6.539837e-04
6.651375e+01	-6.615597e-04
6.689793e+01	-6.692234e-04
6.728433e+01	-6.769760e-04
6.767297e+01	-6.848183e-04
6.806384e+01	-6.927515e-04
6.845698e+01	-7.007766e-04
6.885238e+01	-7.088946e-04
6.925007e+01	-7.171066e-04
6.965005e+01	-7.254138e-04
7.005235e+01	-7.338172e-04
7.045697e+01	-7.423180e-04
7.086393e+01	-7.509172e-04
7.127323e+01	-7.596160e-04
7.168490e+01	-7.684156e-04
7.209895e+01	-7.773171e-04
7.251539e+01	-7.863217e-04
7.293424e+01	-7.954306e-04
7.335551e+01	-8.046451e-04
7.377920e+01	-8.139662e-04
7.420535e+01	-8.233953e-04
7.463396e+01	-8.329337e-04
7.506504e+01	-8.425825e-04
7.549861e+01	-8.523431e-04
7.593469e+01	-8.622168e-04
7.637328e+01	-8.722048e-04
7.681441e+01	-8.823085e-04
7.725809e+01	-8.925292e-04
7.770433e+01	-9.028683e-04
7.815315e+01	-9.133272e-04
7.860456e+01	-9.239072e-04
7.905857e+01	-9.346098e-04
7.951521e+01	-9.454363e-04
7.997449e+01	-9.563882e-04
8.043642e+01	-9.674670e-04
8.090102e+01	-9.786741e-04
8.136830e+01	-9.900110e-04
8.183828e+01	-1.001479e-03
8.231097e+01	-1.013080e-03
8.278640e+01	-1.024816e-03
8.326457e+01	-1.036687e-03
8.374550e+01	-1.048696e-03
8.422921e+01	-1.060844e-03
8.471572e+01	-1.073133e-03
8.520503e+01	-1.085564e-03
8.569717e+01	-1.098138e-03
8.619215e+01	-1.110859e-03
8.669000e+01	-1.123727e-03
8.719071e+01	-1.136744e-03
8.769432e+01	-1.149912e-03
8.820084e+01	-1.163232e-03
8.871029e+01	-1.176707e-03
8.922267e+01	-1.190337e-03
8.973802e+01	-1.204126e-03
9.025634e+01	-1.218074e-03
9.077766e+01	-1.232183e-03
9.130199e+01	-1.246457e-03
9.182935e+01	-1.260895e-03
9.235975e+01	-1.275501e-03
9.289321e+01	-1.290276e-03
9.342976e+01	-1.305221e-03
9.396941e+01	-1.320340e-03
9.451217e+01	-1.335635e-03
9.505807e+01	-1.351106e-03
9.560712e+01	-1.366756e-03
9.615934e+01	-1.382588e-03
9.671476e+01	-1.398603e-03
9.727338e+01	-1.414804e-03
9.783522e+01	-1.431192e-03
9.840032e+01	-1.447770e-03
9.896867e+01	-1.464540e-03
9.954031e+01	-1.481504e-03
1.001153e+02	-1.498665e-03
1.006935e+02	-1.516024e-03
1.012751e+02	-1.533585e-03
1.018601e+02	-1.551348e-03
1.024484e+02	-1.569318e-03
1.030402e+02	-1.587496e-03
1.036353e+02	-1.605884e-03
1.042339e+02	-1.624485e-03
1.048360e+02	-1.643301e-03
1.054415e+02	-1.662336e-03
1.060505e+02	-1.681591e-03
1.066631e+02	-1.701069e-03
1.072791e+02	-1.720772e-03
1.078988e+02	-1.740704e-03
1.085220e+02	-1.760866e-03
1.091488e+02	-1.781262e-03
1.097793e+02	-1.801894e-03
1.104133e+02	-1.822765e-03
1.110511e+02	-1.843878e-03
1.116925e+02	-1.865235e-03
1.123376e+02	-1.886840e-03
1.129865e+02	-1.908694e-03
1.136391e+02	-1.930802e-03
1.142955e+02	-1.953166e-03
1.149556e+02	-1.975789e-03
1.156196e+02	-1.998673e-03
1.162874e+02	-2.021823e-03
1.169591e+02	-2.045241e-03
1.176347e+02	-2.068930e-03
1.183141e+02	-2.092893e-03
1.189975e+02	-2.117134e-03
1.196848e+02	-2.141656e-03
1.203761e+02	-2.166461e-03
1.210714e+02	-2.191554e-03
1.217707e+02	-2.216937e-03
1.224740e+02	-2.242614e-03
1.231814e+02	-2.268589e-03
1.238929e+02	-2.294864e-03
1.246085e+02	-2.321443e-03
1.253283e+02	-2.348331e-03
1.260522e+02	-2.375529e-03
1.267802e+02	-2.403043e-03
1.275125e+02	-2.430875e-03
1.282490e+02	-2.459029e-03
1.289898e+02	-2.487510e-03
1.297348e+02	-2.516320e-03
1.304842e+02	-2.545463e-03
1.312378e+02	-2.574944e-03
1.319959e+02	-2.604767e-03
1.327583e+02	-2.634935e-03
1.335251e+02	-2.665452e-03
1.342963e+02	-2.696322e-03
1.350720e+02	-2.727550e-03
1.358522e+02	-2.759139e-03
1.366368e+02	-2.791094e-03
1.374260e+02	-2.823419e-03
1.382198e+02	-2.856118e-03
1.390182e+02	-2.889196e-03
1.398211e+02	-2.922657e-03
1.406287e+02	-2.956505e-03
1.414410e+02	-2.990745e-03
1.422579e+02	-3.025382e-03
1.430796e+02	-3.060419e-03
1.439060e+02	-3.095862e-03
1.447372e+02	-3.131716e-03
1.455732e+02	-3.167984e-03
1.464141e+02	-3.204673e-03
1.472597e+02	-3.241786e-03
1.481103e+02	-3.279328e-03
1.489658e+02	-3.317306e-03
1.498262e+02	-3.355723e-03
1.506916e+02	-3.394584e-03
1.515620e+02	-3.433896e-03
1.524374e+02	-3.473663e-03
1.533179e+02	-3.513890e-03
1.542034e+02	-3.554582e-03
1.550941e+02	-3.595746e-03
1.559899e+02	-3.637386e-03
1.568909e+02	-3.679508e-03
1.577971e+02	-3.722118e-03
1.587085e+02	-3.765221e-03
1.596252e+02	-3.808823e-03
1.605472e+02	-3.852929e-03
1.614745e+02	-3.897547e-03
1.624072e+02	-3.942680e-03
1.633453e+02	-3.988336e-03
1.642887e+02	-4.034520e-03
1.652377e+02	-4.081239e-03
1.661921e+02	-4.128499e-03
1.671520e+02	-4.176306e-03
1.681175e+02	-4.224666e-03
1.690885e+02	-4.273585e-03
1.700651e+02	-4.323071e-03
1.710474e+02	-4.373130e-03
1.720354e+02	-4.423768e-03
1.730291e+02	-4.474992e-03
1.740285e+02	-4.526809e-03
1.750337e+02	-4.579225e-03
1.760446e+02	-4.632248e-03
1.770615e+02	-4.685885e-03
1.780842e+02	-4.740143e-03
1.791128e+02	-4.795028e-03
1.801473e+02	-4.850549e-03
1.811878e+02	-4.906712e-03
1.822344e+02	-4.963525e-03
1.832870e+02	-5.020995e-03
1.843456e+02	-5.079130e-03
1.854104e+02	-5.137938e-03
1.864813e+02	-5.197427e-03
1.875584e+02	-5.257604e-03
1.886418e+02	-5.318477e-03
1.897313e+02	-5.380055e-03
1.908272e+02	-5.442345e-03
1.919294e+02	-5.505356e-03
1.930380e+02	-5.569096e-03
1.941530e+02	-5.633573e-03
1.952744e+02	-5.698797e-03
1.964023e+02	-5.764775e-03
1.975367e+02	-5.831516e-03
1.986777e+02	-5.899030e-03
1.998252e+02	-5.967324e-03
2.009794e+02	-6.036409e-03
2.021403e+02	-6.106293e-03
2.033078e+02	-6.176986e-03
2.044821e+02	-6.248496e-03
2.056632e+02	-6.320834e-03
2.068511e+02	-6.394008e-03
2.080459e+02	-6.468029e-03
2.092475e+02	-6.542906e-03
2.104561e+02	-6.618649e-03
2.116717e+02	-6.695269e-03
2.128943e+02	-6.772774e-03
2.141240e+02	-6.851177e-03
2.153608e+02	-6.930486e-03
2.166047e+02	-7.010712e-03
2.178558e+02	-7.091866e-03
2.191141e+02	-7.173959e-03
2.203797e+02	-7.257002e-03
2.216526e+02	-7.341005e-03
2.229329e+02	-7.425979e-03
2.242205e+02	-7.511936e-03
2.255156e+02	-7.598888e-03
2.268182e+02	-7.686845e-03
2.281283e+02	-7.775819e-03
2.294459e+02	-7.865822e-03
2.307712e+02	-7.956865e-03
2.321041e+02	-8.048962e-03
2.334447e+02	-8.142123e-03
2.347931e+02	-8.236362e-03
2.361493e+02	-8.331691e-03
2.375133e+02	-8.428121e-03
2.388851e+02	-8.525667e-03
2.402649e+02	-8.624341e-03
2.416527e+02	-8.724155e-03
2.430484e+02	-8.825124e-03
2.444523e+02	-8.927259e-03
2.458642e+02	-9.030576e-03
2.472843e+02	-9.135087e-03
2.487126e+02	-9.240806e-03
2.501492e+02	-9.347748e-03
2.515940e+02	-9.455925e-03
2.530472e+02	-9.565354e-03
2.545088e+02	-9.676047e-03
2.559789e+02	-9.788019e-03
2.574574e+02	-9.901286e-03
2.589444e+02	-1.001586e-02
2.604401e+02	-1.013176e-02
2.619444e+02	-1.024900e-02
2.634574e+02	-1.036760e-02
2.649791e+02	-1.048756e-02
2.665096e+02	-1.060892e-02
2.680489e+02	-1.073167e-02
2.695972e+02	-1.085584e-02
2.711544e+02	-1.098145e-02
2.727205e+02	-1.110851e-02
2.742958e+02	-1.123704e-02
2.758801e+02	-1.136705e-02
2.774736e+02	-1.149857e-02
2.790762e+02	-1.163160e-02
2.806882e+02	-1.176617e-02
2.823094e+02	-1.190230e-02
2.839400e+02	-1.204000e-02
2.855800e+02	-1.217929e-02
2.872295e+02	-1.232019e-02
2.888886e+02	-1.246271e-02
2.905572e+02	-1.260689e-02
2.922354e+02	-1.275273e-02
2.939234e+02	-1.290025e-02
2.956211e+02	-1.304948e-02
2.973286e+02	-1.320043e-02
2.990459e+02	-1.335312e-02
3.007732e+02	-1.350758e-02
3.025104e+02	-1.366382e-02
3.042577e+02	-1.382187e-02
3.060151e+02	-1.398174e-02
3.077826e+02	-1.414346e-02
3.095604e+02	-1.430704e-02
3.113484e+02	-1.447251e-02
3.131467e+02	-1.463990e-02
3.149554e+02	-1.480921e-02
3.167746e+02	-1.498048e-02
3.186043e+02	-1.515373e-02
3.204445e+02	-1.532898e-02
3.222954e+02	-1.550625e-02
3.241570e+02	-1.568557e-02
3.260293e+02	-1.586696e-02
3.279124e+02	-1.605044e-02
3.298064e+02	-1.623604e-02
3.317114e+02	-1.642378e-02
3.336273e+02	-1.661369e-02
3.355544e+02	-1.680579e-02
3.374925e+02	-1.700011e-02
3.394418e+02	-1.719667e-02
3.414024e+02	-1.739549e-02
3.433744e+02	-1.759661e-02
3.453577e+02	-1.780006e-02
3.473525e+02	-1.800584e-02
3.493588e+02	-1.821401e-02
3.513766e+02	-1.842457e-02
3.534062e+02	-1.863757e-02
3.554474e+02	-1.885302e-02
3.575005e+02	-1.907095e-02
3.595654e+02	-1.929140e-02
3.616422e+02	-1.951439e-02
3.637311e+02	-1.973995e-02
3.658320e+02	-1.996812e-02
3.679450e+02	-2.019891e-02
3.700702e+02	-2.043237e-02
3.722077e+02	-2.066852e-02
3.743576e+02	-2.090739e-02
3.765199e+02	-2.114902e-02
3.786946e+02	-2.139343e-02
3.808820e+02	-2.164066e-02
3.830819e+02	-2.189073e-02
3.852946e+02	-2.214369e-02
3.875200e+02	-2.239957e-02
3.897583e+02	-2.265839e-02
3.920096e+02	-2.292020e-02
3.942738e+02	-2.318503e-02
3.965511e+02	-2.345290e-02
3.988416e+02	-2.372387e-02
4.011452e+02	-2.399795e-02
4.034622e+02	-2.427519e-02
4.057926e+02	-2.455563e-02
4.081365e+02	-2.483929e-02
4.104938e+02	-2.512623e-02
4.128648e+02	-2.541647e-02
4.152495e+02	-2.571005e-02
4.176480e+02	-2.600701e-02
4.200603e+02	-2.630739e-02
4.224866e+02	-2.661123e-02
4.249268e+02	-2.691857e-02
4.273812e+02	-2.722945e-02
4.298497e+02	-2.754390e-02
4.323325e+02	-2.786198e-02
4.348297e+02	-2.818372e-02
4.373412e+02	-2.850916e-02
4.398673e+02	-2.883834e-02
4.424079e+02	-2.917131e-02
4.449633e+02	-2.950812e-02
4.475334e+02	-2.984880e-02
4.501183e+02	-3.019340e-02
4.527182e+02	-3.054196e-02
4.553330e+02	-3.089453e-02
4.579630e+02	-3.125116e-02
4.606082e+02	-3.161189e-02
4.632687e+02	-3.197677e-02
4.659445e+02	-3.234584e-02
4.686358e+02	-3.271916e-02
4.713426e+02	-3.309677e-02
4.740650e+02	-3.347872e-02
4.768032e+02	-3.386507e-02
4.795572e+02	-3.425585e-02
4.823271e+02	-3.465112e-02
4.851130e+02	-3.505094e-02
4.879150e+02	-3.545535e-02
4.907332e+02	-3.586441e-02
4.935676e+02	-3.627816e-02
4.964185e+02	-3.669667e-02
4.992858e+02	-3.711999e-02
5.021696e+02	-3.754817e-02
5.050701e+02	-3.798127e-02
5.079874e+02	-3.841934e-02
5.109215e+02	-3.886244e-02
5.138726e+02	-3.931062e-02
5.168407e+02	-3.976396e-02
5.198259e+02	-4.022249e-02
5.228284e+02	-4.068629e-02
5.258482e+02	-4.115541e-02
5.288855e+02	-4.162991e-02
5.319403e+02	-4.210986e-02
5.350128e+02	-4.259531e-02
5.381030e+02	-4.308634e-02
5.412111e+02	-4.358299e-02
5.443371e+02	-4.408534e-02
5.474812e+02	-4.459345e-02
5.506434e+02	-4.510739e-02
5.538239e+02	-4.562721e-02
5.570228e+02	-4.615300e-02
5.602401e+02	-4.668481e-02
5.634760e+02	-4.722272e-02
5.667306e+02	-4.776679e-02
5.700040e+02	-4.831709e-02
5.732964e+02	-4.887370e-02
5.766077e+02	-4.943668e-02
5.799382e+02	-5.000612e-02
5.832879e+02	-5.058207e-02
5.866569e+02	-5.116461e-02
5.900454e+02	-5.175383e-02
5.934535e+02	-5.234979e-02
5.968813e+02	-5.295256e-02
6.003288e+02	-5.356224e-02
6.037963e+02	-5.417889e-02
6.072838e+02	-5.480260e-02
6.107914e+02	-5.543344e-02
6.143194e+02	-5.607150e-02
6.178676e+02	-5.671685e-02
6.214364e+02	-5.736958e-02
6.250258e+02	-5.802977e-02
6.286359e+02	-5.869751e-02
6.322669e+02	-5.937288e-02
6.359189e+02	-6.005596e-02
6.395919e+02	-6.074685e-02
6.432862e+02	-6.144563e-02
6.470017e+02	-6.215239e-02
6.507388e+02	-6.286723e-02
6.544974e+02	-6.359022e-02
6.582778e+02	-6.432146e-02
6.620800e+02	-6.506105e-02
6.659041e+02	-6.580908e-02
6.697504e+02	-6.656565e-02
6.736188e+02	-6.733084e-02
6.775096e+02	-6.810476e-02
6.814229e+02	-6.888751e-02
6.853587e+02	-6.967918e-02
6.893173e+02	-7.047987e-02
6.932988e+02	-7.128969e-02
6.973033e+02	-7.210873e-02
7.013309e+02	-7.293711e-02
