Frequency(Hz)	Magnitude(dB)
1.000000e+01	-2.210604e+00
1.005776e+01	-2.230542e+00
1.011585e+01	-2.250591e+00
1.017428e+01	-2.270895e+00
1.023305e+01	-2.291420e+00
1.029215e+01	-2.311953e+00
1.035160e+01	-2.332636e+00
1.041139e+01	-2.353506e+00
1.047153e+01	-2.374725e+00
1.053201e+01	-2.395820e+00
1.059284e+01	-2.417001e+00
1.065403e+01	-2.438323e+00
1.071556e+01	-2.459935e+00
1.077746e+01	-2.481603e+00
1.083971e+01	-2.503722e+00
1.090232e+01	-2.525685e+00
1.096529e+01	-2.547806e+00
1.102862e+01	-2.569934e+00
1.109232e+01	-2.592120e+00
1.115639e+01	-2.614793e+00
1.122083e+01	-2.637592e+00
1.128564e+01	-2.660354e+00
1.135083e+01	-2.683390e+00
1.141639e+01	-2.706503e+00
1.148233e+01	-2.729707e+00
1.154865e+01	-2.753179e+00
1.161536e+01	-2.776653e+00
1.168245e+01	-2.800377e+00
1.174992e+01	-2.824384e+00
1.181779e+01	-2.848271e+00
1.188605e+01	-2.872300e+00
1.195470e+01	-2.896770e+00
1.202375e+01	-2.921166e+00
1.209320e+01	-2.945637e+00
1.216305e+01	-2.970411e+00
1.223330e+01	-2.995089e+00
1.230396e+01	-3.020167e+00
1.237503e+01	-3.045505e+00
1.244651e+01	-3.070626e+00
1.251840e+01	-3.096123e+00
1.259070e+01	-3.121499e+00
1.266343e+01	-3.147359e+00
1.273657e+01	-3.173240e+00
1.281014e+01	-3.199335e+00
1.288413e+01	-3.225423e+00
1.295855e+01	-3.251652e+00
1.303339e+01	-3.278285e+00
1.310867e+01	-3.304749e+00
1.318439e+01	-3.331553e+00
1.326054e+01	-3.358061e+00
1.333713e+01	-3.385191e+00
1.341417e+01	-3.412521e+00
1.349165e+01	-3.440023e+00
1.356958e+01	-3.467238e+00
1.364795e+01	-3.494860e+00
1.372678e+01	-3.522510e+00
1.380607e+01	-3.550264e+00
1.388581e+01	-3.578673e+00
1.396602e+01	-3.606509e+00
1.404668e+01	-3.634937e+00
1.412782e+01	-3.663360e+00
1.420942e+01	-3.691855e+00
1.429149e+01	-3.720440e+00
1.437404e+01	-3.749595e+00
1.445706e+01	-3.778742e+00
1.454057e+01	-3.807565e+00
1.462455e+01	-3.836693e+00
1.470902e+01	-3.866222e+00
1.479398e+01	-3.895911e+00
1.487943e+01	-3.925629e+00
1.496537e+01	-3.955381e+00
1.505181e+01	-3.985091e+00
1.513875e+01	-4.015473e+00
1.522619e+01	-4.045519e+00
1.531414e+01	-4.076135e+00
1.540259e+01	-4.106881e+00
1.549156e+01	-4.137322e+00
1.558103e+01	-4.168302e+00
1.567103e+01	-4.198758e+00
1.576155e+01	-4.229953e+00
1.585258e+01	-4.261382e+00
1.594415e+01	-4.292466e+00
1.603624e+01	-4.324067e+00
1.612886e+01	-4.355571e+00
1.622202e+01	-4.387682e+00
1.631572e+01	-4.419321e+00
1.640996e+01	-4.451340e+00
1.650474e+01	-4.483425e+00
1.660008e+01	-4.515873e+00
1.669596e+01	-4.548154e+00
1.679239e+01	-4.580681e+00
1.688938e+01	-4.613436e+00
1.698694e+01	-4.645801e+00
1.708505e+01	-4.678851e+00
1.718373e+01	-4.712335e+00
1.728299e+01	-4.745229e+00
1.738281e+01	-4.778320e+00
1.748322e+01	-4.811833e+00
1.758420e+01	-4.845852e+00
1.768576e+01	-4.879113e+00
1.778792e+01	-4.912944e+00
1.789066e+01	-4.947030e+00
1.799399e+01	-4.981358e+00
1.809793e+01	-5.015540e+00
1.820246e+01	-5.050036e+00
1.830760e+01	-5.084320e+00
1.841334e+01	-5.118473e+00
1.851969e+01	-5.153295e+00
1.862666e+01	-5.188376e+00
1.873425e+01	-5.223160e+00
1.884246e+01	-5.258137e+00
1.895129e+01	-5.293285e+00
1.906075e+01	-5.328590e+00
1.917085e+01	-5.364076e+00
1.928158e+01	-5.399870e+00
1.939295e+01	-5.435459e+00
1.950496e+01	-5.471213e+00
1.961762e+01	-5.507216e+00
1.973093e+01	-5.542863e+00
1.984490e+01	-5.578968e+00
1.995952e+01	-5.615325e+00
2.007480e+01	-5.651786e+00
2.019076e+01	-5.688234e+00
2.030738e+01	-5.724654e+00
2.042467e+01	-5.761719e+00
2.054264e+01	-5.798446e+00
2.066130e+01	-5.835244e+00
2.078064e+01	-5.872175e+00
2.090066e+01	-5.909162e+00
2.102139e+01	-5.946832e+00
2.114280e+01	-5.984151e+00
2.126492e+01	-6.021116e+00
2.138775e+01	-6.058668e+00
2.151128e+01	-6.096663e+00
2.163553e+01	-6.134342e+00
2.176050e+01	-6.172396e+00
2.188619e+01	-6.210084e+00
2.201260e+01	-6.248576e+00
2.213974e+01	-6.286544e+00
2.226762e+01	-6.325180e+00
2.239624e+01	-6.363417e+00
2.252560e+01	-6.401684e+00
2.265571e+01	-6.440191e+00
2.278656e+01	-6.479075e+00
2.291818e+01	-6.518211e+00
2.305055e+01	-6.556936e+00
2.318369e+01	-6.595581e+00
2.331760e+01	-6.635342e+00
2.345228e+01	-6.674517e+00
2.358774e+01	-6.713375e+00
2.372398e+01	-6.753110e+00
2.386101e+01	-6.792634e+00
2.399883e+01	-6.832106e+00
2.413745e+01	-6.871729e+00
2.427686e+01	-6.911384e+00
2.441709e+01	-6.952058e+00
2.455812e+01	-6.991465e+00
2.469997e+01	-7.031764e+00
2.484263e+01	-7.071716e+00
2.498612e+01	-7.111981e+00
2.513044e+01	-7.152595e+00
2.527559e+01	-7.193030e+00
2.542158e+01	-7.233172e+00
2.556842e+01	-7.274179e+00
2.571610e+01	-7.314641e+00
2.586463e+01	-7.355220e+00
2.601403e+01	-7.396079e+00
2.616428e+01	-7.437133e+00
2.631541e+01	-7.478210e+00
2.646740e+01	-7.519489e+00
2.662028e+01	-7.560618e+00
2.677404e+01	-7.601575e+00
2.692868e+01	-7.643025e+00
2.708422e+01	-7.684703e+00
2.724066e+01	-7.726338e+00
2.739800e+01	-7.768379e+00
2.755625e+01	-7.809924e+00
2.771541e+01	-7.851739e+00
2.787550e+01	-7.892844e+00
2.803650e+01	-7.935594e+00
2.819844e+01	-7.977231e+00
2.836131e+01	-8.018893e+00
2.852513e+01	-8.061496e+00
2.868989e+01	-8.103875e+00
2.885560e+01	-8.146094e+00
2.902227e+01	-8.188840e+00
2.918990e+01	-8.230659e+00
2.935850e+01	-8.273778e+00
2.952807e+01	-8.316127e+00
2.969863e+01	-8.358830e+00
2.987016e+01	-8.401461e+00
3.004269e+01	-8.444322e+00
3.021622e+01	-8.487329e+00
3.039075e+01	-8.530086e+00
3.056628e+01	-8.573070e+00
3.074283e+01	-8.616638e+00
3.092040e+01	-8.659746e+00
3.109900e+01	-8.702781e+00
3.127862e+01	-8.746146e+00
3.145929e+01	-8.789675e+00
3.164099e+01	-8.832861e+00
3.182375e+01	-8.876562e+00
3.200756e+01	-8.919971e+00
3.219244e+01	-8.964007e+00
3.237838e+01	-9.007678e+00
3.256540e+01	-9.051630e+00
3.275349e+01	-9.095106e+00
3.294268e+01	-9.139016e+00
3.313295e+01	-9.182550e+00
3.332433e+01	-9.227037e+00
3.351681e+01	-9.270886e+00
3.371040e+01	-9.314970e+00
3.390511e+01	-9.359619e+00
3.410094e+01	-9.403919e+00
3.429791e+01	-9.448125e+00
3.449601e+01	-9.492137e+00
3.469526e+01	-9.536537e+00
3.489566e+01	-9.581420e+00
3.509721e+01	-9.625916e+00
3.529993e+01	-9.671132e+00
3.550382e+01	-9.714835e+00
3.570889e+01	-9.759434e+00
3.591515e+01	-9.804700e+00
3.612259e+01	-9.849390e+00
3.633123e+01	-9.894636e+00
3.654108e+01	-9.939348e+00
3.675214e+01	-9.984221e+00
3.696442e+01	-1.002938e+01
3.717792e+01	-1.007420e+01
3.739266e+01	-1.011917e+01
3.760864e+01	-1.016492e+01
3.782587e+01	-1.020930e+01
3.804435e+01	-1.025495e+01
3.826409e+01	-1.030023e+01
3.848510e+01	-1.034582e+01
3.870739e+01	-1.039133e+01
3.893096e+01	-1.043689e+01
3.915583e+01	-1.048184e+01
3.938199e+01	-1.052736e+01
3.960946e+01	-1.057367e+01
3.983824e+01	-1.061904e+01
4.006834e+01	-1.066427e+01
4.029978e+01	-1.071017e+01
4.053255e+01	-1.075646e+01
4.076666e+01	-1.080169e+01
4.100213e+01	-1.084840e+01
4.123896e+01	-1.089350e+01
4.147715e+01	-1.094000e+01
4.171672e+01	-1.098599e+01
4.195767e+01	-1.103211e+01
4.220002e+01	-1.107836e+01
4.244377e+01	-1.112448e+01
4.268892e+01	-1.117072e+01
4.293549e+01	-1.121662e+01
4.318348e+01	-1.126222e+01
4.343291e+01	-1.130908e+01
4.368377e+01	-1.135593e+01
4.393609e+01	-1.140171e+01
4.418986e+01	-1.144781e+01
4.444510e+01	-1.149503e+01
4.470182e+01	-1.154156e+01
4.496001e+01	-1.158803e+01
4.521970e+01	-1.163429e+01
4.548089e+01	-1.168140e+01
4.574358e+01	-1.172770e+01
4.600779e+01	-1.177387e+01
4.627353e+01	-1.182104e+01
4.654081e+01	-1.186795e+01
4.680963e+01	-1.191520e+01
4.708000e+01	-1.196178e+01
4.735193e+01	-1.200879e+01
4.762543e+01	-1.205547e+01
4.790051e+01	-1.210181e+01
4.817719e+01	-1.214887e+01
4.845545e+01	-1.219626e+01
4.873533e+01	-1.224320e+01
4.901682e+01	-1.229061e+01
4.929994e+01	-1.233807e+01
4.958470e+01	-1.238464e+01
4.987110e+01	-1.243113e+01
5.015915e+01	-1.247948e+01
5.044887e+01	-1.252609e+01
5.074026e+01	-1.257336e+01
5.103333e+01	-1.262059e+01
5.132810e+01	-1.266809e+01
5.162457e+01	-1.271546e+01
5.192275e+01	-1.276290e+01
5.222265e+01	-1.281034e+01
5.252429e+01	-1.285686e+01
5.282767e+01	-1.290533e+01
5.313280e+01	-1.295279e+01
5.343969e+01	-1.300033e+01
5.374836e+01	-1.304724e+01
5.405880e+01	-1.309503e+01
5.437105e+01	-1.314210e+01
5.468509e+01	-1.319071e+01
5.500095e+01	-1.323792e+01
5.531863e+01	-1.328524e+01
5.563815e+01	-1.333364e+01
5.595951e+01	-1.338119e+01
5.628273e+01	-1.342870e+01
5.660782e+01	-1.347603e+01
5.693479e+01	-1.352403e+01
5.726364e+01	-1.357221e+01
5.759439e+01	-1.361902e+01
5.792705e+01	-1.366744e+01
5.826164e+01	-1.371502e+01
5.859815e+01	-1.376286e+01
5.893662e+01	-1.381113e+01
5.927703e+01	-1.385954e+01
5.961941e+01	-1.390743e+01
5.996377e+01	-1.395542e+01
6.031012e+01	-1.400344e+01
6.065847e+01	-1.405129e+01
6.100883e+01	-1.410072e+01
6.136121e+01	-1.414735e+01
6.171563e+01	-1.419576e+01
6.207210e+01	-1.424383e+01
6.243063e+01	-1.429152e+01
6.279122e+01	-1.433960e+01
6.315390e+01	-1.438806e+01
6.351868e+01	-1.443675e+01
6.388556e+01	-1.448460e+01
6.425456e+01	-1.453335e+01
6.462569e+01	-1.458225e+01
6.499897e+01	-1.462972e+01
6.537440e+01	-1.467783e+01
6.575200e+01	-1.472676e+01
6.613178e+01	-1.477386e+01
6.651375e+01	-1.482331e+01
6.689793e+01	-1.487123e+01
6.728433e+01	-1.491994e+01
6.767297e+01	-1.496816e+01
6.806384e+01	-1.501736e+01
6.845698e+01	-1.506605e+01
6.885238e+01	-1.511233e+01
6.925007e+01	-1.516174e+01
6.965005e+01	-1.521033e+01
7.005235e+01	-1.525868e+01
7.045697e+01	-1.530738e+01
7.086393e+01	-1.535625e+01
7.127323e+01	-1.540493e+01
7.168490e+01	-1.545357e+01
7.209895e+01	-1.550083e+01
7.251539e+01	-1.554982e+01
7.293424e+01	-1.559905e+01
7.335551e+01	-1.564814e+01
7.377920e+01	-1.569602e+01
7.420535e+01	-1.574584e+01
7.463396e+01	-1.579414e+01
7.506504e+01	-1.584288e+01
7.549861e+01	-1.589184e+01
7.593469e+01	-1.594136e+01
7.637328e+01	-1.598945e+01
7.681441e+01	-1.603838e+01
7.725809e+01	-1.608717e+01
7.770433e+01	-1.613561e+01
7.815315e+01	-1.618423e+01
7.860456e+01	-1.623199e+01
7.905857e+01	-1.628265e+01
7.951521e+01	-1.633112e+01
7.997449e+01	-1.637974e+01
8.043642e+01	-1.642887e+01
8.090102e+01	-1.647724e+01
8.136830e+01	-1.652479e+01
8.183828e+01	-1.657552e+01
8.231097e+01	-1.662422e+01
8.278640e+01	-1.667388e+01
8.326457e+01	-1.672099e+01
8.374550e+01	-1.677019e+01
8.422921e+01	-1.681952e+01
8.471572e+01	-1.686885e+01
8.520503e+01	-1.691852e+01
8.569717e+01	-1.696744e+01
8.619215e+01	-1.701588e+01
8.669000e+01	-1.706649e+01
8.719071e+01	-1.711419e+01
8.769432e+01	-1.716359e+01
8.820084e+01	-1.721219e+01
8.871029e+01	-1.726134e+01
8.922267e+01	-1.731071e+01
8.973802e+01	-1.735998e+01
9.025634e+01	-1.740824e+01
9.077766e+01	-1.745810e+01
9.130199e+01	-1.750791e+01
9.182935e+01	-1.755569e+01
9.235975e+01	-1.760536e+01
9.289321e+01	-1.765504e+01
9.342976e+01	-1.770472e+01
9.396941e+01	-1.775234e+01
9.451217e+01	-1.780157e+01
9.505807e+01	-1.785155e+01
9.560712e+01	-1.789945e+01
9.615934e+01	-1.795105e+01
9.671476e+01	-1.799954e+01
9.727338e+01	-1.804732e+01
9.783522e+01	-1.809849e+01
9.840032e+01	-1.814648e+01
9.896867e+01	-1.819494e+01
9.954031e+01	-1.824588e+01
1.001153e+02	-1.829459e+01
1.006935e+02	-1.834426e+01
1.012751e+02	-1.839355e+01
1.018601e+02	-1.844187e+01
1.024484e+02	-1.849112e+01
1.030402e+02	-1.854246e+01
1.036353e+02	-1.859052e+01
1.042339e+02	-1.864023e+01
1.048360e+02	-1.868862e+01
1.054415e+02	-1.873839e+01
1.060505e+02	-1.878641e+01
1.066631e+02	-1.883823e+01
1.072791e+02	-1.888596e+01
1.078988e+02	-1.893586e+01
1.085220e+02	-1.898617e+01
1.091488e+02	-1.903535e+01
1.097793e+02	-1.908565e+01
1.104133e+02	-1.913367e+01
1.110511e+02	-1.918346e+01
1.116925e+02	-1.923150e+01
1.123376e+02	-1.928231e+01
1.129865e+02	-1.933234e+01
1.136391e+02	-1.937934e+01
1.142955e+02	-1.943004e+01
1.149556e+02	-1.947880e+01
1.156196e+02	-1.953053e+01
1.162874e+02	-1.957764e+01
1.169591e+02	-1.962683e+01
1.176347e+02	-1.967585e+01
1.183141e+02	-1.972809e+01
1.189975e+02	-1.977727e+01
1.196848e+02	-1.982637e+01
1.203761e+02	-1.987577e+01
1.210714e+02	-1.992794e+01
1.217707e+02	-1.997451e+01
1.224740e+02	-2.002501e+01
1.231814e+02	-2.007405e+01
1.238929e+02	-2.012370e+01
1.246085e+02	-2.017206e+01
1.253283e+02	-2.022153e+01
1.260522e+02	-2.027144e+01
1.267802e+02	-2.032214e+01
1.275125e+02	-2.037090e+01
1.282490e+02	-2.041870e+01
1.289898e+02	-2.046956e+01
1.297348e+02	-2.051894e+01
1.304842e+02	-2.056970e+01
1.312378e+02	-2.062031e+01
1.319959e+02	-2.066856e+01
1.327583e+02	-2.071924e+01
1.335251e+02	-2.076544e+01
1.342963e+02	-2.081931e+01
1.350720e+02	-2.086771e+01
1.358522e+02	-2.091884e+01
1.366368e+02	-2.096853e+01
1.374260e+02	-2.101811e+01
1.382198e+02	-2.106423e+01
1.390182e+02	-2.111507e+01
1.398211e+02	-2.116399e+01
1.406287e+02	-2.121518e+01
1.414410e+02	-2.126444e+01
1.422579e+02	-2.131297e+01
1.430796e+02	-2.136304e+01
1.439060e+02	-2.141453e+01
1.447372e+02	-2.146355e+01
1.455732e+02	-2.151316e+01
1.464141e+02	-2.156318e+01
1.472597e+02	-2.161118e+01
1.481103e+02	-2.166048e+01
1.489658e+02	-2.171146e+01
1.498262e+02	-2.176203e+01
1.506916e+02	-2.181071e+01
1.515620e+02	-2.186010e+01
1.524374e+02	-2.191064e+01
1.533179e+02	-2.196033e+01
1.542034e+02	-2.201047e+01
1.550941e+02	-2.206121e+01
1.559899e+02	-2.210862e+01
1.568909e+02	-2.215966e+01
1.577971e+02	-2.220804e+01
1.587085e+02	-2.225741e+01
1.596252e+02	-2.230876e+01
1.605472e+02	-2.235861e+01
1.614745e+02	-2.240874e+01
1.624072e+02	-2.245957e+01
1.633453e+02	-2.250523e+01
1.642887e+02	-2.255500e+01
1.652377e+02	-2.260871e+01
1.661921e+02	-2.265805e+01
1.671520e+02	-2.270589e+01
1.681175e+02	-2.275721e+01
1.690885e+02	-2.280731e+01
1.700651e+02	-2.285725e+01
1.710474e+02	-2.290591e+01
1.720354e+02	-2.295627e+01
1.730291e+02	-2.300751e+01
1.740285e+02	-2.305382e+01
1.750337e+02	-2.310513e+01
1.760446e+02	-2.315395e+01
1.770615e+02	-2.320588e+01
1.780842e+02	-2.325283e+01
1.791128e+02	-2.330420e+01
1.801473e+02	-2.335293e+01
1.811878e+02	-2.340264e+01
1.822344e+02	-2.345376e+01
1.832870e+02	-2.350413e+01
1.843456e+02	-2.355446e+01
1.854104e+02	-2.360135e+01
1.864813e+02	-2.365310e+01
1.875584e+02	-2.370456e+01
1.886418e+02	-2.375464e+01
1.897313e+02	-2.380251e+01
1.908272e+02	-2.385032e+01
1.919294e+02	-2.390237e+01
1.930380e+02	-2.395201e+01
1.941530e+02	-2.400119e+01
1.952744e+02	-2.405089e+01
1.964023e+02	-2.410025e+01
1.975367e+02	-2.415097e+01
1.986777e+02	-2.420121e+01
1.998252e+02	-2.425066e+01
2.009794e+02	-2.430126e+01
2.021403e+02	-2.434939e+01
2.033078e+02	-2.440165e+01
2.044821e+02	-2.444981e+01
2.056632e+02	-2.449901e+01
2.068511e+02	-2.455024e+01
2.080459e+02	-2.460284e+01
2.092475e+02	-2.465056e+01
2.104561e+02	-2.470154e+01
2.116717e+02	-2.475007e+01
2.128943e+02	-2.479985e+01
2.141240e+02	-2.485047e+01
2.153608e+02	-2.490016e+01
2.166047e+02	-2.494969e+01
2.178558e+02	-2.500056e+01
2.191141e+02	-2.504881e+01
2.203797e+02	-2.509929e+01
2.216526e+02	-2.515018e+01
2.229329e+02	-2.519980e+01
2.242205e+02	-2.524779e+01
2.255156e+02	-2.529705e+01
2.268182e+02	-2.535126e+01
2.281283e+02	-2.539851e+01
2.294459e+02	-2.544880e+01
2.307712e+02	-2.549869e+01
2.321041e+02	-2.555075e+01
2.334447e+02	-2.559969e+01
2.347931e+02	-2.564766e+01
2.361493e+02	-2.569871e+01
2.375133e+02	-2.574907e+01
2.388851e+02	-2.579724e+01
2.402649e+02	-2.584657e+01
2.416527e+02	-2.589730e+01
2.430484e+02	-2.594644e+01
2.444523e+02	-2.599921e+01
2.458642e+02	-2.604667e+01
2.472843e+02	-2.609813e+01
2.487126e+02	-2.614737e+01
2.501492e+02	-2.619916e+01
2.515940e+02	-2.625010e+01
2.530472e+02	-2.629910e+01
2.545088e+02	-2.634688e+01
2.559789e+02	-2.639997e+01
2.574574e+02	-2.644871e+01
2.589444e+02	-2.649797e+01
2.604401e+02	-2.654660e+01
2.619444e+02	-2.659495e+01
2.634574e+02	-2.664752e+01
2.649791e+02	-2.670008e+01
2.665096e+02	-2.674702e+01
2.680489e+02	-2.679678e+01
2.695972e+02	-2.684569e+01
2.711544e+02	-2.689630e+01
2.727205e+02	-2.694807e+01
2.742958e+02	-2.699760e+01
2.758801e+02	-2.705129e+01
2.774736e+02	-2.709803e+01
2.790762e+02	-2.714793e+01
2.806882e+02	-2.719670e+01
2.823094e+02	-2.724824e+01
2.839400e+02	-2.729673e+01
2.855800e+02	-2.734652e+01
2.872295e+02	-2.739763e+01
2.888886e+02	-2.744649e+01
2.905572e+02	-2.749979e+01
2.922354e+02	-2.754688e+01
2.939234e+02	-2.759677e+01
2.956211e+02	-2.764482e+01
2.973286e+02	-2.770205e+01
2.990459e+02	-2.775205e+01
3.007732e+02	-2.779756e+01
3.025104e+02	-2.785089e+01
3.042577e+02	-2.789606e+01
3.060151e+02	-2.794172e+01
3.077826e+02	-2.799727e+01
3.095604e+02	-2.805277e+01
3.113484e+02	-2.809734e+01
3.131467e+02	-2.814619e+01
3.149554e+02	-2.819890e+01
3.167746e+02	-2.824477e+01
3.186043e+02	-2.829864e+01
3.204445e+02	-2.834737e+01
3.222954e+02	-2.839985e+01
3.241570e+02	-2.844814e+01
3.260293e+02	-2.849774e+01
3.279124e+02	-2.854627e+01
3.298064e+02	-2.859765e+01
3.317114e+02	-2.864793e+01
3.336273e+02	-2.869547e+01
3.355544e+02	-2.875053e+01
3.374925e+02	-2.879928e+01
3.394418e+02	-2.885508e+01
3.414024e+02	-2.890258e+01
3.433744e+02	-2.894696e+01
3.453577e+02	-2.899937e+01
3.473525e+02	-2.904992e+01
3.493588e+02	-2.910037e+01
3.513766e+02	-2.915280e+01
3.534062e+02	-2.919963e+01
3.554474e+02	-2.924989e+01
3.575005e+02	-2.929629e+01
3.595654e+02	-2.935106e+01
3.616422e+02	-2.939659e+01
3.637311e+02	-2.944710e+01
3.658320e+02	-2.949373e+01
3.679450e+02	-2.954786e+01
3.700702e+02	-2.960283e+01
3.722077e+02	-2.965041e+01
3.743576e+02	-2.969484e+01
3.765199e+02	-2.975064e+01
3.786946e+02	-2.979639e+01
3.808820e+02	-2.984978e+01
3.830819e+02	-2.990406e+01
3.852946e+02	-2.995162e+01
3.875200e+02	-3.000443e+01
3.897583e+02	-3.005315e+01
3.920096e+02	-3.009366e+01
3.942738e+02	-3.015213e+01
3.965511e+02	-3.020014e+01
3.988416e+02	-3.024900e+01
4.011452e+02	-3.030084e+01
4.034622e+02	-3.035324e+01
4.057926e+02	-3.040013e+01
4.081365e+02	-3.045093e+01
4.104938e+02	-3.049971e+01
4.128648e+02	-3.055352e+01
4.152495e+02	-3.059733e+01
4.176480e+02	-3.065611e+01
4.200603e+02	-3.070020e+01
4.224866e+02	-3.075431e+01
4.249268e+02	-3.080102e+01
4.273812e+02	-3.085357e+01
4.298497e+02	-3.089833e+01
4.323325e+02	-3.094993e+01
4.348297e+02	-3.100331e+01
4.373412e+02	-3.105671e+01
4.398673e+02	-3.110668e+01
4.424079e+02	-3.115770e+01
4.449633e+02	-3.121026e+01
4.475334e+02	-3.125021e+01
4.501183e+02	-3.130643e+01
4.527182e+02	-3.135839e+01
4.553330e+02	-3.140558e+01
4.579630e+02	-3.145544e+01
4.606082e+02	-3.150241e+01
4.632687e+02	-3.155473e+01
4.659445e+02	-3.160803e+01
4.686358e+02	-3.165303e+01
4.713426e+02	-3.171072e+01
4.740650e+02	-3.175152e+01
4.768032e+02	-3.180611e+01
4.795572e+02	-3.185337e+01
4.823271e+02	-3.190679e+01
4.851130e+02	-3.195617e+01
4.879150e+02	-3.201169e+01
4.907332e+02	-3.205238e+01
4.935676e+02	-3.210651e+01
4.964185e+02	-3.215668e+01
4.992858e+02	-3.220607e+01
5.021696e+02	-3.226371e+01
5.050701e+02	-3.230655e+01
5.079874e+02	-3.235311e+01
5.109215e+02	-3.240061e+01
5.138726e+02	-3.246207e+01
5.168407e+02	-3.250822e+01
5.198259e+02	-3.255830e+01
5.228284e+02	-3.261206e+01
5.258482e+02	-3.265769e+01
5.288855e+02	-3.271083e+01
5.319403e+02	-3.276632e+01
5.350128e+02	-3.280685e+01
5.381030e+02	-3.285766e+01
5.412111e+02	-3.290471e+01
5.443371e+02	-3.296097e+01
5.474812e+02	-3.300907e+01
5.506434e+02	-3.305960e+01
5.538239e+02	-3.310925e+01
5.570228e+02	-3.315949e+01
5.602401e+02	-3.321806e+01
5.634760e+02	-3.326601e+01
5.667306e+02	-3.330874e+01
5.700040e+02	-3.336161e+01
5.732964e+02	-3.341148e+01
5.766077e+02	-3.345976e+01
5.799382e+02	-3.351017e+01
5.832879e+02	-3.356683e+01
5.866569e+02	-3.361303e+01
5.900454e+02	-3.367196e+01
5.934535e+02	-3.371458e+01
5.968813e+02	-3.376468e+01
6.003288e+02	-3.381154e+01
6.037963e+02	-3.386899e+01
6.072838e+02	-3.392029e+01
6.107914e+02	-3.396657e+01
6.143194e+02	-3.401703e+01
6.178676e+02	-3.407329e+01
6.214364e+02	-3.411716e+01
6.250258e+02	-3.416608e+01
6.286359e+02	-3.422405e+01
6.322669e+02	-3.427721e+01
6.359189e+02	-3.431680e+01
6.395919e+02	-3.436817e+01
6.432862e+02	-3.442201e+01
6.470017e+02	-3.447941e+01
6.507388e+02	-3.452372e+01
6.544974e+02	-3.456754e+01
6.582778e+02	-3.461819e+01
6.620800e+02	-3.467531e+01
6.659041e+02	-3.472296e+01
6.697504e+02	-3.477856e+01
6.736188e+02	-3.481615e+01
6.775096e+02	-3.487504e+01
6.814229e+02	-3.492717e+01
6.853587e+02	-3.497135e+01
6.893173e+02	-3.502594e+01
6.932988e+02	-3.507586e+01
6.973033e+02	-3.512432e+01
7.013309e+02	-3.517811e+01
