Frequency(Hz)	Magnitude(dB)
1.000000e+01	-1.680132e-05
1.005776e+01	-1.699596e-05
1.011585e+01	-1.719287e-05
1.017428e+01	-1.739205e-05
1.023305e+01	-1.759354e-05
1.029215e+01	-1.779737e-05
1.035160e+01	-1.800355e-05
1.041139e+01	-1.821213e-05
1.047153e+01	-1.842312e-05
1.053201e+01	-1.863656e-05
1.059284e+01	-1.885247e-05
1.065403e+01	-1.907088e-05
1.071556e+01	-1.929182e-05
1.077746e+01	-1.951532e-05
1.083971e+01	-1.974141e-05
1.090232e+01	-1.997012e-05
1.096529e+01	-2.020148e-05
1.102862e+01	-2.043552e-05
1.109232e+01	-2.067227e-05
1.115639e+01	-2.091176e-05
1.122083e+01	-2.115403e-05
1.128564e+01	-2.139910e-05
1.135083e+01	-2.164702e-05
1.141639e+01	-2.189780e-05
1.148233e+01	-2.215150e-05
1.154865e+01	-2.240813e-05
1.161536e+01	-2.266773e-05
1.168245e+01	-2.293034e-05
1.174992e+01	-2.319599e-05
1.181779e+01	-2.346473e-05
1.188605e+01	-2.373657e-05
1.195470e+01	-2.401156e-05
1.202375e+01	-2.428974e-05
1.209320e+01	-2.457115e-05
1.216305e+01	-2.485581e-05
1.223330e+01	-2.514377e-05
1.230396e+01	-2.543507e-05
1.237503e+01	-2.572974e-05
1.244651e+01	-2.602782e-05
1.251840e+01	-2.632936e-05
1.259070e+01	-2.663440e-05
1.266343e+01	-2.694296e-05
1.273657e+01	-2.725510e-05
1.281014e+01	-2.757086e-05
1.288413e+01	-2.789027e-05
1.295855e+01	-2.821339e-05
1.303339e+01	-2.854025e-05
1.310867e+01	-2.887089e-05
1.318439e+01	-2.920537e-05
1.326054e+01	-2.954372e-05
1.333713e+01	-2.988599e-05
1.341417e+01	-3.023223e-05
1.349165e+01	-3.058248e-05
1.356958e+01	-3.093678e-05
1.364795e+01	-3.129519e-05
1.372678e+01	-3.165775e-05
1.380607e+01	-3.202452e-05
1.388581e+01	-3.239553e-05
1.396602e+01	-3.277084e-05
1.404668e+01	-3.315050e-05
1.412782e+01	-3.353455e-05
1.420942e+01	-3.392306e-05
1.429149e+01	-3.431607e-05
1.437404e+01	-3.471362e-05
1.445706e+01	-3.511579e-05
1.454057e+01	-3.552261e-05
1.462455e+01	-3.593415e-05
1.470902e+01	-3.635046e-05
1.479398e+01	-3.677159e-05
1.487943e+01	-3.719759e-05
1.496537e+01	-3.762854e-05
1.505181e+01	-3.806447e-05
1.513875e+01	-3.850546e-05
1.522619e+01	-3.895155e-05
1.531414e+01	-3.940281e-05
1.540259e+01	-3.985930e-05
1.549156e+01	-4.032108e-05
1.558103e+01	-4.078821e-05
1.567103e+01	-4.126075e-05
1.576155e+01	-4.173877e-05
1.585258e+01	-4.222232e-05
1.594415e+01	-4.271148e-05
1.603624e+01	-4.320630e-05
1.612886e+01	-4.370685e-05
1.622202e+01	-4.421321e-05
1.631572e+01	-4.472543e-05
1.640996e+01	-4.524358e-05
1.650474e+01	-4.576774e-05
1.660008e+01	-4.629797e-05
1.669596e+01	-4.683434e-05
1.679239e+01	-4.737692e-05
1.688938e+01	-4.792580e-05
1.698694e+01	-4.848103e-05
1.708505e+01	-4.904269e-05
1.718373e+01	-4.961086e-05
1.728299e+01	-5.018561e-05
1.738281e+01	-5.076702e-05
1.748322e+01	-5.135517e-05
1.758420e+01	-5.195013e-05
1.768576e+01	-5.255198e-05
1.778792e+01	-5.316081e-05
1.789066e+01	-5.377669e-05
1.799399e+01	-5.439970e-05
1.809793e+01	-5.502993e-05
1.820246e+01	-5.566747e-05
1.830760e+01	-5.631239e-05
1.841334e+01	-5.696478e-05
1.851969e+01	-5.762473e-05
1.862666e+01	-5.829232e-05
1.873425e+01	-5.896765e-05
1.884246e+01	-5.965080e-05
1.895129e+01	-6.034187e-05
1.906075e+01	-6.104094e-05
1.917085e+01	-6.174811e-05
1.928158e+01	-6.246347e-05
1.939295e+01	-6.318713e-05
1.950496e+01	-6.391916e-05
1.961762e+01	-6.465968e-05
1.973093e+01	-6.540877e-05
1.984490e+01	-6.616654e-05
1.995952e+01	-6.693310e-05
2.007480e+01	-6.770853e-05
2.019076e+01	-6.849294e-05
2.030738e+01	-6.928645e-05
2.042467e+01	-7.008915e-05
2.054264e+01	-7.090114e-05
2.066130e+01	-7.172254e-05
2.078064e+01	-7.255346e-05
2.090066e+01	-7.339401e-05
2.102139e+01	-7.424429e-05
2.114280e+01	-7.510442e-05
2.126492e+01	-7.597452e-05
2.138775e+01	-7.685470e-05
2.151128e+01	-7.774508e-05
2.163553e+01	-7.864577e-05
2.176050e+01	-7.955689e-05
2.188619e+01	-8.047857e-05
2.201260e+01	-8.141093e-05
2.213974e+01	-8.235409e-05
2.226762e+01	-8.330817e-05
2.239624e+01	-8.427331e-05
2.252560e+01	-8.524963e-05
2.265571e+01	-8.623726e-05
2.278656e+01	-8.723634e-05
2.291818e+01	-8.824698e-05
2.305055e+01	-8.926934e-05
2.318369e+01	-9.030354e-05
2.331760e+01	-9.134972e-05
2.345228e+01	-9.240802e-05
2.358774e+01	-9.347858e-05
2.372398e+01	-9.456155e-05
2.386101e+01	-9.565706e-05
2.399883e+01	-9.676526e-05
2.413745e+01	-9.788630e-05
2.427686e+01	-9.902032e-05
2.441709e+01	-1.001675e-04
2.455812e+01	-1.013279e-04
2.469997e+01	-1.025018e-04
2.484263e+01	-1.036893e-04
2.498612e+01	-1.048906e-04
2.513044e+01	-1.061058e-04
2.527559e+01	-1.073350e-04
2.542158e+01	-1.085785e-04
2.556842e+01	-1.098364e-04
2.571610e+01	-1.111089e-04
2.586463e+01	-1.123961e-04
2.601403e+01	-1.136982e-04
2.616428e+01	-1.150154e-04
2.631541e+01	-1.163479e-04
2.646740e+01	-1.176958e-04
2.662028e+01	-1.190593e-04
2.677404e+01	-1.204386e-04
2.692868e+01	-1.218339e-04
2.708422e+01	-1.232454e-04
2.724066e+01	-1.246732e-04
2.739800e+01	-1.261175e-04
2.755625e+01	-1.275786e-04
2.771541e+01	-1.290566e-04
2.787550e+01	-1.305518e-04
2.803650e+01	-1.320642e-04
2.819844e+01	-1.335942e-04
2.836131e+01	-1.351419e-04
2.852513e+01	-1.367075e-04
2.868989e+01	-1.382913e-04
2.885560e+01	-1.398934e-04
2.902227e+01	-1.415141e-04
2.918990e+01	-1.431536e-04
2.935850e+01	-1.448120e-04
2.952807e+01	-1.464897e-04
2.969863e+01	-1.481868e-04
2.987016e+01	-1.499035e-04
3.004269e+01	-1.516402e-04
3.021622e+01	-1.533969e-04
3.039075e+01	-1.551740e-04
3.056628e+01	-1.569717e-04
3.074283e+01	-1.587903e-04
3.092040e+01	-1.606299e-04
3.109900e+01	-1.624908e-04
3.127862e+01	-1.643732e-04
3.145929e+01	-1.662775e-04
3.164099e+01	-1.682038e-04
3.182375e+01	-1.701525e-04
3.200756e+01	-1.721237e-04
3.219244e+01	-1.741178e-04
3.237838e+01	-1.761349e-04
3.256540e+01	-1.781755e-04
3.275349e+01	-1.802396e-04
3.294268e+01	-1.823277e-04
3.313295e+01	-1.844400e-04
3.332433e+01	-1.865767e-04
3.351681e+01	-1.887382e-04
3.371040e+01	-1.909248e-04
3.390511e+01	-1.931366e-04
3.410094e+01	-1.953741e-04
3.429791e+01	-1.976375e-04
3.449601e+01	-1.999272e-04
3.469526e+01	-2.022433e-04
3.489566e+01	-2.045863e-04
3.509721e+01	-2.069565e-04
3.529993e+01	-2.093541e-04
3.550382e+01	-2.117794e-04
3.570889e+01	-2.142329e-04
3.591515e+01	-2.167148e-04
3.612259e+01	-2.192254e-04
3.633123e+01	-2.217651e-04
3.654108e+01	-2.243343e-04
3.675214e+01	-2.269332e-04
3.696442e+01	-2.295622e-04
3.717792e+01	-2.322217e-04
3.739266e+01	-2.349119e-04
3.760864e+01	-2.376334e-04
3.782587e+01	-2.403864e-04
3.804435e+01	-2.431712e-04
3.826409e+01	-2.459884e-04
3.848510e+01	-2.488381e-04
3.870739e+01	-2.517209e-04
3.893096e+01	-2.546371e-04
3.915583e+01	-2.575870e-04
3.938199e+01	-2.605711e-04
3.960946e+01	-2.635898e-04
3.983824e+01	-2.666435e-04
4.006834e+01	-2.697326e-04
4.029978e+01	-2.728574e-04
4.053255e+01	-2.760184e-04
4.076666e+01	-2.792161e-04
4.100213e+01	-2.824507e-04
4.123896e+01	-2.857229e-04
4.147715e+01	-2.890330e-04
4.171672e+01	-2.923814e-04
4.195767e+01	-2.957686e-04
4.220002e+01	-2.991950e-04
4.244377e+01	-3.026612e-04
4.268892e+01	-3.061675e-04
4.293549e+01	-3.097144e-04
4.318348e+01	-3.133024e-04
4.343291e+01	-3.169319e-04
4.368377e+01	-3.206035e-04
4.393609e+01	-3.243177e-04
4.418986e+01	-3.280749e-04
4.444510e+01	-3.318756e-04
4.470182e+01	-3.357203e-04
4.496001e+01	-3.396095e-04
4.521970e+01	-3.435439e-04
4.548089e+01	-3.475237e-04
4.574358e+01	-3.515497e-04
4.600779e+01	-3.556224e-04
4.627353e+01	-3.597422e-04
4.654081e+01	-3.639097e-04
4.680963e+01	-3.681255e-04
4.708000e+01	-3.723902e-04
4.735193e+01	-3.767043e-04
4.762543e+01	-3.810683e-04
4.790051e+01	-3.854829e-04
4.817719e+01	-3.899486e-04
4.845545e+01	-3.944661e-04
4.873533e+01	-3.990358e-04
4.901682e+01	-4.036586e-04
4.929994e+01	-4.083348e-04
4.958470e+01	-4.130653e-04
4.987110e+01	-4.178505e-04
5.015915e+01	-4.226912e-04
5.044887e+01	-4.275880e-04
5.074026e+01	-4.325414e-04
5.103333e+01	-4.375523e-04
5.132810e+01	-4.426212e-04
5.162457e+01	-4.477488e-04
5.192275e+01	-4.529359e-04
5.222265e+01	-4.581830e-04
5.252429e+01	-4.634909e-04
5.282767e+01	-4.688602e-04
5.313280e+01	-4.742918e-04
5.343969e+01	-4.797863e-04
5.374836e+01	-4.853445e-04
5.405880e+01	-4.909670e-04
5.437105e+01	-4.966547e-04
5.468509e+01	-5.024082e-04
5.500095e+01	-5.082284e-04
5.531863e+01	-5.141160e-04
5.563815e+01	-5.200718e-04
5.595951e+01	-5.260967e-04
5.628273e+01	-5.321913e-04
5.660782e+01	-5.383565e-04
5.693479e+01	-5.445931e-04
5.726364e+01	-5.509019e-04
5.759439e+01	-5.572839e-04
5.792705e+01	-5.637397e-04
5.826164e+01	-5.702704e-04
5.859815e+01	-5.768767e-04
5.893662e+01	-5.835595e-04
5.927703e+01	-5.903198e-04
5.961941e+01	-5.971583e-04
5.996377e+01	-6.040761e-04
6.031012e+01	-6.110740e-04
6.065847e+01	-6.181529e-04
6.100883e+01	-6.253139e-04
6.136121e+01	-6.325578e-04
6.171563e+01	-6.398856e-04
6.207210e+01	-6.472983e-04
6.243063e+01	-6.547969e-04
6.279122e+01	-6.623823e-04
6.315390e+01	-6.700556e-04
6.351868e+01	-6.778178e-04
6.388556e+01	-6.856698e-04
6.425456e+01	-6.936129e-04
6.462569e+01	-7.016479e-04
6.499897e+01	-7.097760e-04
6.537440e+01	-7.179983e-04
6.575200e+01	-7.263158e-04
6.613178e+01	-7.347297e-04
6.651375e+01	-7.432410e-04
6.689793e+01	-7.518509e-04
6.728433e+01	-7.605605e-04
6.767297e+01	-7.693711e-04
6.806384e+01	-7.782836e-04
6.845698e+01	-7.872995e-04
6.885238e+01	-7.964197e-04
6.925007e+01	-8.056456e-04
6.965005e+01	-8.149783e-04
7.005235e+01	-8.244192e-04
7.045697e+01	-8.339694e-04
7.086393e+01	-8.436302e-04
7.127323e+01	-8.534029e-04
7.168490e+01	-8.632889e-04
7.209895e+01	-8.732893e-04
7.251539e+01	-8.834056e-04
7.293424e+01	-8.936390e-04
7.335551e+01	-9.039910e-04
7.377920e+01	-9.144629e-04
7.420535e+01	-9.250560e-04
7.463396e+01	-9.357719e-04
7.506504e+01	-9.466119e-04
7.549861e+01	-9.575774e-04
7.593469e+01	-9.686700e-04
7.637328e+01	-9.798910e-04
7.681441e+01	-9.912420e-04
7.725809e+01	-1.002725e-03
7.770433e+01	-1.014340e-03
7.815315e+01	-1.026090e-03
7.860456e+01	-1.037976e-03
7.905857e+01	-1.050000e-03
7.951521e+01	-1.062163e-03
7.997449e+01	-1.074467e-03
8.043642e+01	-1.086913e-03
8.090102e+01	-1.099504e-03
8.136830e+01	-1.112240e-03
8.183828e+01	-1.125124e-03
8.231097e+01	-1.138157e-03
8.278640e+01	-1.151342e-03
8.326457e+01	-1.164678e-03
8.374550e+01	-1.178170e-03
8.422921e+01	-1.191817e-03
8.471572e+01	-1.205623e-03
8.520503e+01	-1.219588e-03
8.569717e+01	-1.233716e-03
8.619215e+01	-1.248006e-03
8.669000e+01	-1.262463e-03
8.719071e+01	-1.277087e-03
8.769432e+01	-1.291880e-03
8.820084e+01	-1.306844e-03
8.871029e+01	-1.321982e-03
8.922267e+01	-1.337295e-03
8.973802e+01	-1.352786e-03
9.025634e+01	-1.368456e-03
9.077766e+01	-1.384307e-03
9.130199e+01	-1.400342e-03
9.182935e+01	-1.416563e-03
9.235975e+01	-1.432971e-03
9.289321e+01	-1.449570e-03
9.342976e+01	-1.466361e-03
9.396941e+01	-1.483346e-03
9.451217e+01	-1.500528e-03
9.505807e+01	-1.517909e-03
9.560712e+01	-1.535491e-03
9.615934e+01	-1.553277e-03
9.671476e+01	-1.571269e-03
9.727338e+01	-1.589469e-03
9.783522e+01	-1.607880e-03
9.840032e+01	-1.626505e-03
9.896867e+01	-1.645345e-03
9.954031e+01	-1.664403e-03
1.001153e+02	-1.683682e-03
1.006935e+02	-1.703184e-03
1.012751e+02	-1.722912e-03
1.018601e+02	-1.742868e-03
1.024484e+02	-1.763055e-03
1.030402e+02	-1.783477e-03
1.036353e+02	-1.804134e-03
1.042339e+02	-1.825031e-03
1.048360e+02	-1.846170e-03
1.054415e+02	-1.867554e-03
1.060505e+02	-1.889186e-03
1.066631e+02	-1.911067e-03
1.072791e+02	-1.933203e-03
1.078988e+02	-1.955594e-03
1.085220e+02	-1.978245e-03
1.091488e+02	-2.001159e-03
1.097793e+02	-2.024337e-03
1.104133e+02	-2.047784e-03
1.110511e+02	-2.071502e-03
1.116925e+02	-2.095496e-03
1.123376e+02	-2.119767e-03
1.129865e+02	-2.144319e-03
1.136391e+02	-2.169155e-03
1.142955e+02	-2.194279e-03
1.149556e+02	-2.219694e-03
1.156196e+02	-2.245403e-03
1.162874e+02	-2.271409e-03
1.169591e+02	-2.297717e-03
1.176347e+02	-2.324330e-03
1.183141e+02	-2.351250e-03
1.189975e+02	-2.378483e-03
1.196848e+02	-2.406031e-03
1.203761e+02	-2.433897e-03
1.210714e+02	-2.462087e-03
1.217707e+02	-2.490602e-03
1.224740e+02	-2.519448e-03
1.231814e+02	-2.548628e-03
1.238929e+02	-2.578146e-03
1.246085e+02	-2.608005e-03
1.253283e+02	-2.638211e-03
1.260522e+02	-2.668766e-03
1.267802e+02	-2.699674e-03
1.275125e+02	-2.730941e-03
1.282490e+02	-2.762570e-03
1.289898e+02	-2.794564e-03
1.297348e+02	-2.826930e-03
1.304842e+02	-2.859670e-03
1.312378e+02	-2.892788e-03
1.319959e+02	-2.926291e-03
1.327583e+02	-2.960181e-03
1.335251e+02	-2.994464e-03
1.342963e+02	-3.029143e-03
1.350720e+02	-3.064224e-03
1.358522e+02	-3.099712e-03
1.366368e+02	-3.135610e-03
1.374260e+02	-3.171923e-03
1.382198e+02	-3.208657e-03
1.390182e+02	-3.245816e-03
1.398211e+02	-3.283406e-03
1.406287e+02	-3.321430e-03
1.414410e+02	-3.359895e-03
1.422579e+02	-3.398805e-03
1.430796e+02	-3.438165e-03
1.439060e+02	-3.477981e-03
1.447372e+02	-3.518258e-03
1.455732e+02	-3.559002e-03
1.464141e+02	-3.600217e-03
1.472597e+02	-3.641908e-03
1.481103e+02	-3.684083e-03
1.489658e+02	-3.726746e-03
1.498262e+02	-3.769902e-03
1.506916e+02	-3.813558e-03
1.515620e+02	-3.857720e-03
1.524374e+02	-3.902392e-03
1.533179e+02	-3.947582e-03
1.542034e+02	-3.993295e-03
1.550941e+02	-4.039536e-03
1.559899e+02	-4.086313e-03
1.568909e+02	-4.133632e-03
1.577971e+02	-4.181498e-03
1.587085e+02	-4.229918e-03
1.596252e+02	-4.278899e-03
1.605472e+02	-4.328446e-03
1.614745e+02	-4.378567e-03
1.624072e+02	-4.429268e-03
1.633453e+02	-4.480555e-03
1.642887e+02	-4.532437e-03
1.652377e+02	-4.584918e-03
1.661921e+02	-4.638007e-03
1.671520e+02	-4.691711e-03
1.681175e+02	-4.746036e-03
1.690885e+02	-4.800989e-03
1.700651e+02	-4.856579e-03
1.710474e+02	-4.912812e-03
1.720354e+02	-4.969695e-03
1.730291e+02	-5.027237e-03
1.740285e+02	-5.085445e-03
1.750337e+02	-5.144326e-03
1.760446e+02	-5.203889e-03
1.770615e+02	-5.264140e-03
1.780842e+02	-5.325089e-03
1.791128e+02	-5.386743e-03
1.801473e+02	-5.449111e-03
1.811878e+02	-5.512200e-03
1.822344e+02	-5.576019e-03
1.832870e+02	-5.640577e-03
1.843456e+02	-5.705881e-03
1.854104e+02	-5.771941e-03
1.864813e+02	-5.838766e-03
1.875584e+02	-5.906363e-03
1.886418e+02	-5.974743e-03
1.897313e+02	-6.043913e-03
1.908272e+02	-6.113884e-03
1.919294e+02	-6.184665e-03
1.930380e+02	-6.256264e-03
1.941530e+02	-6.328691e-03
1.952744e+02	-6.401957e-03
1.964023e+02	-6.476070e-03
1.975367e+02	-6.551040e-03
1.986777e+02	-6.626877e-03
1.998252e+02	-6.703592e-03
2.009794e+02	-6.781194e-03
2.021403e+02	-6.859693e-03
2.033078e+02	-6.939101e-03
2.044821e+02	-7.019427e-03
2.056632e+02	-7.100682e-03
2.068511e+02	-7.182877e-03
2.080459e+02	-7.266023e-03
2.092475e+02	-7.350130e-03
2.104561e+02	-7.435210e-03
2.116717e+02	-7.521274e-03
2.128943e+02	-7.608334e-03
2.141240e+02	-7.696400e-03
2.153608e+02	-7.785485e-03
2.166047e+02	-7.875599e-03
2.178558e+02	-7.966756e-03
2.191141e+02	-8.058967e-03
2.203797e+02	-8.152244e-03
2.216526e+02	-8.246600e-03
2.229329e+02	-8.342047e-03
2.242205e+02	-8.438598e-03
2.255156e+02	-8.536265e-03
2.268182e+02	-8.635061e-03
2.281283e+02	-8.734999e-03
2.294459e+02	-8.836093e-03
2.307712e+02	-8.938356e-03
2.321041e+02	-9.041801e-03
2.334447e+02	-9.146442e-03
2.347931e+02	-9.252293e-03
2.361493e+02	-9.359367e-03
2.375133e+02	-9.467679e-03
2.388851e+02	-9.577243e-03
2.402649e+02	-9.688074e-03
2.416527e+02	-9.800186e-03
2.430484e+02	-9.913593e-03
2.444523e+02	-1.002831e-02
2.458642e+02	-1.014436e-02
2.472843e+02	-1.026174e-02
2.487126e+02	-1.038048e-02
2.501492e+02	-1.050060e-02
2.515940e+02	-1.062210e-02
2.530472e+02	-1.074501e-02
2.545088e+02	-1.086934e-02
2.559789e+02	-1.099510e-02
2.574574e+02	-1.112232e-02
2.589444e+02	-1.125100e-02
2.604401e+02	-1.138118e-02
2.619444e+02	-1.151286e-02
2.634574e+02	-1.164606e-02
2.649791e+02	-1.178080e-02
2.665096e+02	-1.191709e-02
2.680489e+02	-1.205496e-02
2.695972e+02	-1.219443e-02
2.711544e+02	-1.233550e-02
2.727205e+02	-1.247820e-02
2.742958e+02	-1.262256e-02
2.758801e+02	-1.276858e-02
2.774736e+02	-1.291628e-02
2.790762e+02	-1.306569e-02
2.806882e+02	-1.321683e-02
2.823094e+02	-1.336972e-02
2.839400e+02	-1.352437e-02
2.855800e+02	-1.368080e-02
2.872295e+02	-1.383904e-02
2.888886e+02	-1.399911e-02
2.905572e+02	-1.416103e-02
2.922354e+02	-1.432482e-02
2.939234e+02	-1.449050e-02
2.956211e+02	-1.465809e-02
2.973286e+02	-1.482762e-02
2.990459e+02	-1.499910e-02
3.007732e+02	-1.517256e-02
3.025104e+02	-1.534803e-02
3.042577e+02	-1.552552e-02
3.060151e+02	-1.570506e-02
3.077826e+02	-1.588668e-02
3.095604e+02	-1.607039e-02
3.113484e+02	-1.625622e-02
3.131467e+02	-1.644419e-02
3.149554e+02	-1.663433e-02
3.167746e+02	-1.682667e-02
3.186043e+02	-1.702123e-02
3.204445e+02	-1.721803e-02
3.222954e+02	-1.741711e-02
3.241570e+02	-1.761848e-02
3.260293e+02	-1.782217e-02
3.279124e+02	-1.802822e-02
3.298064e+02	-1.823664e-02
3.317114e+02	-1.844746e-02
3.336273e+02	-1.866072e-02
3.355544e+02	-1.887644e-02
3.374925e+02	-1.909465e-02
3.394418e+02	-1.931537e-02
3.414024e+02	-1.953864e-02
3.433744e+02	-1.976448e-02
3.453577e+02	-1.999293e-02
3.473525e+02	-2.022401e-02
3.493588e+02	-2.045776e-02
3.513766e+02	-2.069420e-02
3.534062e+02	-2.093337e-02
3.554474e+02	-2.117529e-02
3.575005e+02	-2.142001e-02
3.595654e+02	-2.166754e-02
3.616422e+02	-2.191793e-02
3.637311e+02	-2.217120e-02
3.658320e+02	-2.242740e-02
3.679450e+02	-2.268654e-02
3.700702e+02	-2.294868e-02
3.722077e+02	-2.321383e-02
3.743576e+02	-2.348204e-02
3.765199e+02	-2.375334e-02
3.786946e+02	-2.402776e-02
3.808820e+02	-2.430535e-02
3.830819e+02	-2.458613e-02
3.852946e+02	-2.487015e-02
3.875200e+02	-2.515744e-02
3.897583e+02	-2.544804e-02
3.920096e+02	-2.574198e-02
3.942738e+02	-2.603931e-02
3.965511e+02	-2.634007e-02
3.988416e+02	-2.664429e-02
4.011452e+02	-2.695201e-02
4.034622e+02	-2.726327e-02
4.057926e+02	-2.757811e-02
4.081365e+02	-2.789658e-02
4.104938e+02	-2.821872e-02
4.128648e+02	-2.854456e-02
4.152495e+02	-2.887416e-02
4.176480e+02	-2.920754e-02
4.200603e+02	-2.954476e-02
4.224866e+02	-2.988587e-02
4.249268e+02	-3.023089e-02
4.273812e+02	-3.057989e-02
4.298497e+02	-3.093290e-02
4.323325e+02	-3.128997e-02
4.348297e+02	-3.165115e-02
4.373412e+02	-3.201648e-02
4.398673e+02	-3.238601e-02
4.424079e+02	-3.275979e-02
4.449633e+02	-3.313787e-02
4.475334e+02	-3.352030e-02
4.501183e+02	-3.390712e-02
4.527182e+02	-3.429838e-02
4.553330e+02	-3.469415e-02
4.579630e+02	-3.509446e-02
4.606082e+02	-3.549937e-02
4.632687e+02	-3.590894e-02
4.659445e+02	-3.632321e-02
4.686358e+02	-3.674223e-02
4.713426e+02	-3.716608e-02
4.740650e+02	-3.759479e-02
4.768032e+02	-3.802842e-02
4.795572e+02	-3.846703e-02
4.823271e+02	-3.891068e-02
4.851130e+02	-3.935942e-02
4.879150e+02	-3.981332e-02
4.907332e+02	-4.027242e-02
4.935676e+02	-4.073679e-02
4.964185e+02	-4.120650e-02
4.992858e+02	-4.168159e-02
5.021696e+02	-4.216213e-02
5.050701e+02	-4.264819e-02
5.079874e+02	-4.313982e-02
5.109215e+02	-4.363709e-02
5.138726e+02	-4.414006e-02
5.168407e+02	-4.464880e-02
5.198259e+02	-4.516337e-02
5.228284e+02	-4.568384e-02
5.258482e+02	-4.621028e-02
5.288855e+02	-4.674275e-02
5.319403e+02	-4.728132e-02
5.350128e+02	-4.782607e-02
5.381030e+02	-4.837705e-02
5.412111e+02	-4.893435e-02
5.443371e+02	-4.949803e-02
5.474812e+02	-5.006817e-02
5.506434e+02	-5.064483e-02
5.538239e+02	-5.122810e-02
5.570228e+02	-5.181804e-02
5.602401e+02	-5.241474e-02
5.634760e+02	-5.301826e-02
5.667306e+02	-5.362870e-02
5.700040e+02	-5.424611e-02
5.732964e+02	-5.487059e-02
5.766077e+02	-5.550221e-02
5.799382e+02	-5.614106e-02
5.832879e+02	-5.678721e-02
5.866569e+02	-5.744075e-02
5.900454e+02	-5.810176e-02
5.934535e+02	-5.877032e-02
5.968813e+02	-5.944652e-02
6.003288e+02	-6.013045e-02
6.037963e+02	-6.082220e-02
6.072838e+02	-6.152184e-02
6.107914e+02	-6.222948e-02
6.143194e+02	-6.294519e-02
6.178676e+02	-6.366908e-02
6.214364e+02	-6.440123e-02
6.250258e+02	-6.514173e-02
6.286359e+02	-6.589069e-02
6.322669e+02	-6.664819e-02
6.359189e+02	-6.741433e-02
6.395919e+02	-6.818921e-02
6.432862e+02	-6.897292e-02
6.470017e+02	-6.976557e-02
6.507388e+02	-7.056725e-02
6.544974e+02	-7.137807e-02
6.582778e+02	-7.219813e-02
6.620800e+02	-7.302753e-02
6.659041e+02	-7.386638e-02
6.697504e+02	-7.471478e-02
6.736188e+02	-7.557283e-02
6.775096e+02	-7.644066e-02
6.814229e+02	-7.731836e-02
6.853587e+02	-7.820605e-02
6.893173e+02	-7.910384e-02
6.932988e+02	-8.001184e-02
6.973033e+02	-8.093016e-02
7.013309e+02	-8.185893e-02
