Frequency(Hz)	Magnitude(dB)
1.000000e+01	-1.443859e-05
1.005776e+01	-1.460587e-05
1.011585e+01	-1.477508e-05
1.017428e+01	-1.494625e-05
1.023305e+01	-1.511941e-05
1.029215e+01	-1.529457e-05
1.035160e+01	-1.547176e-05
1.041139e+01	-1.565101e-05
1.047153e+01	-1.583233e-05
1.053201e+01	-1.601575e-05
1.059284e+01	-1.620130e-05
1.065403e+01	-1.638899e-05
1.071556e+01	-1.657886e-05
1.077746e+01	-1.677093e-05
1.083971e+01	-1.696523e-05
1.090232e+01	-1.716178e-05
1.096529e+01	-1.736060e-05
1.102862e+01	-1.756173e-05
1.109232e+01	-1.776518e-05
1.115639e+01	-1.797100e-05
1.122083e+01	-1.817920e-05
1.128564e+01	-1.838981e-05
1.135083e+01	-1.860286e-05
1.141639e+01	-1.881838e-05
1.148233e+01	-1.903639e-05
1.154865e+01	-1.925693e-05
1.161536e+01	-1.948003e-05
1.168245e+01	-1.970571e-05
1.174992e+01	-1.993401e-05
1.181779e+01	-2.016495e-05
1.188605e+01	-2.039856e-05
1.195470e+01	-2.063489e-05
1.202375e+01	-2.087395e-05
1.209320e+01	-2.111578e-05
1.216305e+01	-2.136041e-05
1.223330e+01	-2.160787e-05
1.230396e+01	-2.185821e-05
1.237503e+01	-2.211144e-05
1.244651e+01	-2.236761e-05
1.251840e+01	-2.262674e-05
1.259070e+01	-2.288888e-05
1.266343e+01	-2.315405e-05
1.273657e+01	-2.342230e-05
1.281014e+01	-2.369365e-05
1.288413e+01	-2.396815e-05
1.295855e+01	-2.424582e-05
1.303339e+01	-2.452672e-05
1.310867e+01	-2.481086e-05
1.318439e+01	-2.509830e-05
1.326054e+01	-2.538907e-05
1.333713e+01	-2.568321e-05
1.341417e+01	-2.598076e-05
1.349165e+01	-2.628175e-05
1.356958e+01	-2.658623e-05
1.364795e+01	-2.689424e-05
1.372678e+01	-2.720582e-05
1.380607e+01	-2.752100e-05
1.388581e+01	-2.783984e-05
1.396602e+01	-2.816237e-05
1.404668e+01	-2.848864e-05
1.412782e+01	-2.881869e-05
1.420942e+01	-2.915256e-05
1.429149e+01	-2.949030e-05
1.437404e+01	-2.983195e-05
1.445706e+01	-3.017756e-05
1.454057e+01	-3.052718e-05
1.462455e+01	-3.088084e-05
1.470902e+01	-3.123860e-05
1.479398e+01	-3.160051e-05
1.487943e+01	-3.196661e-05
1.496537e+01	-3.233695e-05
1.505181e+01	-3.271158e-05
1.513875e+01	-3.309055e-05
1.522619e+01	-3.347391e-05
1.531414e+01	-3.386172e-05
1.540259e+01	-3.425401e-05
1.549156e+01	-3.465085e-05
1.558103e+01	-3.505229e-05
1.567103e+01	-3.545838e-05
1.576155e+01	-3.586917e-05
1.585258e+01	-3.628473e-05
1.594415e+01	-3.670509e-05
1.603624e+01	-3.713033e-05
1.612886e+01	-3.756049e-05
1.622202e+01	-3.799564e-05
1.631572e+01	-3.843583e-05
1.640996e+01	-3.888112e-05
1.650474e+01	-3.933156e-05
1.660008e+01	-3.978723e-05
1.669596e+01	-4.024817e-05
1.679239e+01	-4.071446e-05
1.688938e+01	-4.118614e-05
1.698694e+01	-4.166329e-05
1.708505e+01	-4.214597e-05
1.718373e+01	-4.263424e-05
1.728299e+01	-4.312817e-05
1.738281e+01	-4.362782e-05
1.748322e+01	-4.413326e-05
1.758420e+01	-4.464455e-05
1.768576e+01	-4.516177e-05
1.778792e+01	-4.568498e-05
1.789066e+01	-4.621425e-05
1.799399e+01	-4.674965e-05
1.809793e+01	-4.729126e-05
1.820246e+01	-4.783913e-05
1.830760e+01	-4.839336e-05
1.841334e+01	-4.895401e-05
1.851969e+01	-4.952115e-05
1.862666e+01	-5.009486e-05
1.873425e+01	-5.067522e-05
1.884246e+01	-5.126231e-05
1.895129e+01	-5.185619e-05
1.906075e+01	-5.245696e-05
1.917085e+01	-5.306468e-05
1.928158e+01	-5.367945e-05
1.939295e+01	-5.430133e-05
1.950496e+01	-5.493043e-05
1.961762e+01	-5.556681e-05
1.973093e+01	-5.621056e-05
1.984490e+01	-5.686177e-05
1.995952e+01	-5.752053e-05
2.007480e+01	-5.818691e-05
2.019076e+01	-5.886102e-05
2.030738e+01	-5.954294e-05
2.042467e+01	-6.023275e-05
2.054264e+01	-6.093056e-05
2.066130e+01	-6.163645e-05
2.078064e+01	-6.235052e-05
2.090066e+01	-6.307287e-05
2.102139e+01	-6.380358e-05
2.114280e+01	-6.454276e-05
2.126492e+01	-6.529050e-05
2.138775e+01	-6.604690e-05
2.151128e+01	-6.681207e-05
2.163553e+01	-6.758610e-05
2.176050e+01	-6.836909e-05
2.188619e+01	-6.916116e-05
2.201260e+01	-6.996241e-05
2.213974e+01	-7.077293e-05
2.226762e+01	-7.159285e-05
2.239624e+01	-7.242227e-05
2.252560e+01	-7.326129e-05
2.265571e+01	-7.411004e-05
2.278656e+01	-7.496862e-05
2.291818e+01	-7.583714e-05
2.305055e+01	-7.671573e-05
2.318369e+01	-7.760449e-05
2.331760e+01	-7.850356e-05
2.345228e+01	-7.941303e-05
2.358774e+01	-8.033305e-05
2.372398e+01	-8.126372e-05
2.386101e+01	-8.220517e-05
2.399883e+01	-8.315753e-05
2.413745e+01	-8.412093e-05
2.427686e+01	-8.509548e-05
2.441709e+01	-8.608133e-05
2.455812e+01	-8.707859e-05
2.469997e+01	-8.808741e-05
2.484263e+01	-8.910792e-05
2.498612e+01	-9.014025e-05
2.513044e+01	-9.118454e-05
2.527559e+01	-9.224093e-05
2.542158e+01	-9.330955e-05
2.556842e+01	-9.439056e-05
2.571610e+01	-9.548409e-05
2.586463e+01	-9.659028e-05
2.601403e+01	-9.770930e-05
2.616428e+01	-9.884127e-05
2.631541e+01	-9.998636e-05
2.646740e+01	-1.011447e-04
2.662028e+01	-1.023165e-04
2.677404e+01	-1.035018e-04
2.692868e+01	-1.047009e-04
2.708422e+01	-1.059139e-04
2.724066e+01	-1.071409e-04
2.739800e+01	-1.083822e-04
2.755625e+01	-1.096378e-04
2.771541e+01	-1.109080e-04
2.787550e+01	-1.121928e-04
2.803650e+01	-1.134926e-04
2.819844e+01	-1.148074e-04
2.836131e+01	-1.161375e-04
2.852513e+01	-1.174830e-04
2.868989e+01	-1.188440e-04
2.885560e+01	-1.202208e-04
2.902227e+01	-1.216136e-04
2.918990e+01	-1.230225e-04
2.935850e+01	-1.244478e-04
2.952807e+01	-1.258895e-04
2.969863e+01	-1.273479e-04
2.987016e+01	-1.288233e-04
3.004269e+01	-1.303157e-04
3.021622e+01	-1.318254e-04
3.039075e+01	-1.333526e-04
3.056628e+01	-1.348975e-04
3.074283e+01	-1.364603e-04
3.092040e+01	-1.380413e-04
3.109900e+01	-1.396405e-04
3.127862e+01	-1.412582e-04
3.145929e+01	-1.428947e-04
3.164099e+01	-1.445502e-04
3.182375e+01	-1.462248e-04
3.200756e+01	-1.479188e-04
3.219244e+01	-1.496325e-04
3.237838e+01	-1.513660e-04
3.256540e+01	-1.531195e-04
3.275349e+01	-1.548935e-04
3.294268e+01	-1.566879e-04
3.313295e+01	-1.585031e-04
3.332433e+01	-1.603394e-04
3.351681e+01	-1.621970e-04
3.371040e+01	-1.640760e-04
3.390511e+01	-1.659768e-04
3.410094e+01	-1.678997e-04
3.429791e+01	-1.698448e-04
3.449601e+01	-1.718125e-04
3.469526e+01	-1.738029e-04
3.489566e+01	-1.758165e-04
3.509721e+01	-1.778533e-04
3.529993e+01	-1.799137e-04
3.550382e+01	-1.819980e-04
3.570889e+01	-1.841065e-04
3.591515e+01	-1.862394e-04
3.612259e+01	-1.883970e-04
3.633123e+01	-1.905795e-04
3.654108e+01	-1.927874e-04
3.675214e+01	-1.950209e-04
3.696442e+01	-1.972802e-04
3.717792e+01	-1.995657e-04
3.739266e+01	-2.018776e-04
3.760864e+01	-2.042164e-04
3.782587e+01	-2.065822e-04
3.804435e+01	-2.089755e-04
3.826409e+01	-2.113965e-04
3.848510e+01	-2.138455e-04
3.870739e+01	-2.163229e-04
3.893096e+01	-2.188290e-04
3.915583e+01	-2.213641e-04
3.938199e+01	-2.239286e-04
3.960946e+01	-2.265228e-04
3.983824e+01	-2.291471e-04
4.006834e+01	-2.318018e-04
4.029978e+01	-2.344872e-04
4.053255e+01	-2.372037e-04
4.076666e+01	-2.399517e-04
4.100213e+01	-2.427315e-04
4.123896e+01	-2.455436e-04
4.147715e+01	-2.483882e-04
4.171672e+01	-2.512657e-04
4.195767e+01	-2.541766e-04
4.220002e+01	-2.571212e-04
4.244377e+01	-2.601000e-04
4.268892e+01	-2.631132e-04
4.293549e+01	-2.661614e-04
4.318348e+01	-2.692448e-04
4.343291e+01	-2.723640e-04
4.368377e+01	-2.755193e-04
4.393609e+01	-2.787112e-04
4.418986e+01	-2.819400e-04
4.444510e+01	-2.852063e-04
4.470182e+01	-2.885104e-04
4.496001e+01	-2.918527e-04
4.521970e+01	-2.952338e-04
4.548089e+01	-2.986540e-04
4.574358e+01	-3.021139e-04
4.600779e+01	-3.056139e-04
4.627353e+01	-3.091544e-04
4.654081e+01	-3.127359e-04
4.680963e+01	-3.163589e-04
4.708000e+01	-3.200238e-04
4.735193e+01	-3.237313e-04
4.762543e+01	-3.274816e-04
4.790051e+01	-3.312755e-04
4.817719e+01	-3.351132e-04
4.845545e+01	-3.389955e-04
4.873533e+01	-3.429227e-04
4.901682e+01	-3.468954e-04
4.929994e+01	-3.509141e-04
4.958470e+01	-3.549793e-04
4.987110e+01	-3.590917e-04
5.015915e+01	-3.632517e-04
5.044887e+01	-3.674599e-04
5.074026e+01	-3.717168e-04
5.103333e+01	-3.760231e-04
5.132810e+01	-3.803792e-04
5.162457e+01	-3.847858e-04
5.192275e+01	-3.892435e-04
5.222265e+01	-3.937528e-04
5.252429e+01	-3.983143e-04
5.282767e+01	-4.029287e-04
5.313280e+01	-4.075965e-04
5.343969e+01	-4.123184e-04
5.374836e+01	-4.170950e-04
5.405880e+01	-4.219269e-04
5.437105e+01	-4.268148e-04
5.468509e+01	-4.317593e-04
5.500095e+01	-4.367611e-04
5.531863e+01	-4.418209e-04
5.563815e+01	-4.469392e-04
5.595951e+01	-4.521169e-04
5.628273e+01	-4.573545e-04
5.660782e+01	-4.626528e-04
5.693479e+01	-4.680125e-04
5.726364e+01	-4.734342e-04
5.759439e+01	-4.789188e-04
5.792705e+01	-4.844669e-04
5.826164e+01	-4.900792e-04
5.859815e+01	-4.957566e-04
5.893662e+01	-5.014998e-04
5.927703e+01	-5.073094e-04
5.961941e+01	-5.131864e-04
5.996377e+01	-5.191315e-04
6.031012e+01	-5.251454e-04
6.065847e+01	-5.312290e-04
6.100883e+01	-5.373830e-04
6.136121e+01	-5.436084e-04
6.171563e+01	-5.499058e-04
6.207210e+01	-5.562762e-04
6.243063e+01	-5.627204e-04
6.279122e+01	-5.692393e-04
6.315390e+01	-5.758336e-04
6.351868e+01	-5.825044e-04
6.388556e+01	-5.892524e-04
6.425456e+01	-5.960786e-04
6.462569e+01	-6.029838e-04
6.499897e+01	-6.099691e-04
6.537440e+01	-6.170352e-04
6.575200e+01	-6.241832e-04
6.613178e+01	-6.314140e-04
6.651375e+01	-6.387286e-04
6.689793e+01	-6.461279e-04
6.728433e+01	-6.536129e-04
6.767297e+01	-6.611846e-04
6.806384e+01	-6.688440e-04
6.845698e+01	-6.765922e-04
6.885238e+01	-6.844300e-04
6.925007e+01	-6.923587e-04
6.965005e+01	-7.003792e-04
7.005235e+01	-7.084927e-04
7.045697e+01	-7.167001e-04
7.086393e+01	-7.250025e-04
7.127323e+01	-7.334012e-04
7.168490e+01	-7.418971e-04
7.209895e+01	-7.504915e-04
7.251539e+01	-7.591853e-04
7.293424e+01	-7.679799e-04
7.335551e+01	-7.768764e-04
7.377920e+01	-7.858759e-04
7.420535e+01	-7.949797e-04
7.463396e+01	-8.041889e-04
7.506504e+01	-8.135047e-04
7.549861e+01	-8.229285e-04
7.593469e+01	-8.324615e-04
7.637328e+01	-8.421048e-04
7.681441e+01	-8.518599e-04
7.725809e+01	-8.617279e-04
7.770433e+01	-8.717103e-04
7.815315e+01	-8.818083e-04
7.860456e+01	-8.920232e-04
7.905857e+01	-9.023565e-04
7.951521e+01	-9.128094e-04
7.997449e+01	-9.233834e-04
8.043642e+01	-9.340799e-04
8.090102e+01	-9.449003e-04
8.136830e+01	-9.558460e-04
8.183828e+01	-9.669185e-04
8.231097e+01	-9.781193e-04
8.278640e+01	-9.894498e-04
8.326457e+01	-1.000912e-03
8.374550e+01	-1.012506e-03
8.422921e+01	-1.024235e-03
8.471572e+01	-1.036099e-03
8.520503e+01	-1.048101e-03
8.569717e+01	-1.060242e-03
8.619215e+01	-1.072524e-03
8.669000e+01	-1.084948e-03
8.719071e+01	-1.097516e-03
8.769432e+01	-1.110229e-03
8.820084e+01	-1.123090e-03
8.871029e+01	-1.136100e-03
8.922267e+01	-1.149260e-03
8.973802e+01	-1.162573e-03
9.025634e+01	-1.176039e-03
9.077766e+01	-1.189662e-03
9.130199e+01	-1.203443e-03
9.182935e+01	-1.217383e-03
9.235975e+01	-1.231485e-03
9.289321e+01	-1.245750e-03
9.342976e+01	-1.260180e-03
9.396941e+01	-1.274778e-03
9.451217e+01	-1.289544e-03
9.505807e+01	-1.304482e-03
9.560712e+01	-1.319592e-03
9.615934e+01	-1.334877e-03
9.671476e+01	-1.350340e-03
9.727338e+01	-1.365982e-03
9.783522e+01	-1.381804e-03
9.840032e+01	-1.397810e-03
9.896867e+01	-1.414002e-03
9.954031e+01	-1.430381e-03
1.001153e+02	-1.446949e-03
1.006935e+02	-1.463710e-03
1.012751e+02	-1.480664e-03
1.018601e+02	-1.497815e-03
1.024484e+02	-1.515165e-03
1.030402e+02	-1.532715e-03
1.036353e+02	-1.550469e-03
1.042339e+02	-1.568428e-03
1.048360e+02	-1.586596e-03
1.054415e+02	-1.604973e-03
1.060505e+02	-1.623564e-03
1.066631e+02	-1.642370e-03
1.072791e+02	-1.661393e-03
1.078988e+02	-1.680637e-03
1.085220e+02	-1.700104e-03
1.091488e+02	-1.719797e-03
1.097793e+02	-1.739717e-03
1.104133e+02	-1.759868e-03
1.110511e+02	-1.780252e-03
1.116925e+02	-1.800873e-03
1.123376e+02	-1.821732e-03
1.129865e+02	-1.842833e-03
1.136391e+02	-1.864178e-03
1.142955e+02	-1.885770e-03
1.149556e+02	-1.907612e-03
1.156196e+02	-1.929708e-03
1.162874e+02	-1.952059e-03
1.169591e+02	-1.974669e-03
1.176347e+02	-1.997541e-03
1.183141e+02	-2.020677e-03
1.189975e+02	-2.044082e-03
1.196848e+02	-2.067757e-03
1.203761e+02	-2.091707e-03
1.210714e+02	-2.115934e-03
1.217707e+02	-2.140442e-03
1.224740e+02	-2.165233e-03
1.231814e+02	-2.190312e-03
1.238929e+02	-2.215680e-03
1.246085e+02	-2.241343e-03
1.253283e+02	-2.267303e-03
1.260522e+02	-2.293563e-03
1.267802e+02	-2.320128e-03
1.275125e+02	-2.347000e-03
1.282490e+02	-2.374183e-03
1.289898e+02	-2.401681e-03
1.297348e+02	-2.429497e-03
1.304842e+02	-2.457635e-03
1.312378e+02	-2.486100e-03
1.319959e+02	-2.514893e-03
1.327583e+02	-2.544021e-03
1.335251e+02	-2.573485e-03
1.342963e+02	-2.603291e-03
1.350720e+02	-2.633441e-03
1.358522e+02	-2.663941e-03
1.366368e+02	-2.694794e-03
1.374260e+02	-2.726004e-03
1.382198e+02	-2.757575e-03
1.390182e+02	-2.789512e-03
1.398211e+02	-2.821819e-03
1.406287e+02	-2.854500e-03
1.414410e+02	-2.887559e-03
1.422579e+02	-2.921001e-03
1.430796e+02	-2.954830e-03
1.439060e+02	-2.989050e-03
1.447372e+02	-3.023667e-03
1.455732e+02	-3.058685e-03
1.464141e+02	-3.094108e-03
1.472597e+02	-3.129941e-03
1.481103e+02	-3.166189e-03
1.489658e+02	-3.202857e-03
1.498262e+02	-3.239949e-03
1.506916e+02	-3.277470e-03
1.515620e+02	-3.315426e-03
1.524374e+02	-3.353821e-03
1.533179e+02	-3.392661e-03
1.542034e+02	-3.431950e-03
1.550941e+02	-3.471694e-03
1.559899e+02	-3.511898e-03
1.568909e+02	-3.552568e-03
1.577971e+02	-3.593708e-03
1.587085e+02	-3.635325e-03
1.596252e+02	-3.677423e-03
1.605472e+02	-3.720009e-03
1.614745e+02	-3.763087e-03
1.624072e+02	-3.806665e-03
1.633453e+02	-3.850746e-03
1.642887e+02	-3.895338e-03
1.652377e+02	-3.940446e-03
1.661921e+02	-3.986076e-03
1.671520e+02	-4.032234e-03
1.681175e+02	-4.078927e-03
1.690885e+02	-4.126160e-03
1.700651e+02	-4.173939e-03
1.710474e+02	-4.222272e-03
1.720354e+02	-4.271164e-03
1.730291e+02	-4.320622e-03
1.740285e+02	-4.370652e-03
1.750337e+02	-4.421262e-03
1.760446e+02	-4.472457e-03
1.770615e+02	-4.524244e-03
1.780842e+02	-4.576631e-03
1.791128e+02	-4.629624e-03
1.801473e+02	-4.683230e-03
1.811878e+02	-4.737457e-03
1.822344e+02	-4.792311e-03
1.832870e+02	-4.847801e-03
1.843456e+02	-4.903932e-03
1.854104e+02	-4.960713e-03
1.864813e+02	-5.018150e-03
1.875584e+02	-5.076253e-03
1.886418e+02	-5.135028e-03
1.897313e+02	-5.194483e-03
1.908272e+02	-5.254626e-03
1.919294e+02	-5.315464e-03
1.930380e+02	-5.377007e-03
1.941530e+02	-5.439262e-03
1.952744e+02	-5.502237e-03
1.964023e+02	-5.565941e-03
1.975367e+02	-5.630382e-03
1.986777e+02	-5.695569e-03
1.998252e+02	-5.761509e-03
2.009794e+02	-5.828213e-03
2.021403e+02	-5.895688e-03
2.033078e+02	-5.963944e-03
2.044821e+02	-6.032990e-03
2.056632e+02	-6.102835e-03
2.068511e+02	-6.173487e-03
2.080459e+02	-6.244957e-03
2.092475e+02	-6.317254e-03
2.104561e+02	-6.390387e-03
2.116717e+02	-6.464366e-03
2.128943e+02	-6.539200e-03
2.141240e+02	-6.614901e-03
2.153608e+02	-6.691477e-03
2.166047e+02	-6.768939e-03
2.178558e+02	-6.847297e-03
2.191141e+02	-6.926561e-03
2.203797e+02	-7.006742e-03
2.216526e+02	-7.087850e-03
2.229329e+02	-7.169897e-03
2.242205e+02	-7.252892e-03
2.255156e+02	-7.336848e-03
2.268182e+02	-7.421774e-03
2.281283e+02	-7.507683e-03
2.294459e+02	-7.594585e-03
2.307712e+02	-7.682492e-03
2.321041e+02	-7.771416e-03
2.334447e+02	-7.861368e-03
2.347931e+02	-7.952360e-03
2.361493e+02	-8.044404e-03
2.375133e+02	-8.137513e-03
2.388851e+02	-8.231699e-03
2.402649e+02	-8.326973e-03
2.416527e+02	-8.423350e-03
2.430484e+02	-8.520840e-03
2.444523e+02	-8.619458e-03
2.458642e+02	-8.719216e-03
2.472843e+02	-8.820127e-03
2.487126e+02	-8.922205e-03
2.501492e+02	-9.025464e-03
2.515940e+02	-9.129916e-03
2.530472e+02	-9.235575e-03
2.545088e+02	-9.342456e-03
2.559789e+02	-9.450573e-03
2.574574e+02	-9.559939e-03
2.589444e+02	-9.670570e-03
2.604401e+02	-9.782479e-03
2.619444e+02	-9.895682e-03
2.634574e+02	-1.001019e-02
2.649791e+02	-1.012603e-02
2.665096e+02	-1.024320e-02
2.680489e+02	-1.036173e-02
2.695972e+02	-1.048163e-02
2.711544e+02	-1.060291e-02
2.727205e+02	-1.072560e-02
2.742958e+02	-1.084970e-02
2.758801e+02	-1.097524e-02
2.774736e+02	-1.110222e-02
2.790762e+02	-1.123068e-02
2.806882e+02	-1.136062e-02
2.823094e+02	-1.149206e-02
2.839400e+02	-1.162502e-02
2.855800e+02	-1.175952e-02
2.872295e+02	-1.189556e-02
2.888886e+02	-1.203319e-02
2.905572e+02	-1.217240e-02
2.922354e+02	-1.231322e-02
2.939234e+02	-1.245566e-02
2.956211e+02	-1.259976e-02
2.973286e+02	-1.274551e-02
2.990459e+02	-1.289295e-02
3.007732e+02	-1.304209e-02
3.025104e+02	-1.319296e-02
3.042577e+02	-1.334557e-02
3.060151e+02	-1.349994e-02
3.077826e+02	-1.365609e-02
3.095604e+02	-1.381405e-02
3.113484e+02	-1.397383e-02
3.131467e+02	-1.413546e-02
3.149554e+02	-1.429895e-02
3.167746e+02	-1.446433e-02
3.186043e+02	-1.463162e-02
3.204445e+02	-1.480084e-02
3.222954e+02	-1.497201e-02
3.241570e+02	-1.514516e-02
3.260293e+02	-1.532031e-02
3.279124e+02	-1.549749e-02
3.298064e+02	-1.567670e-02
3.317114e+02	-1.585799e-02
3.336273e+02	-1.604137e-02
3.355544e+02	-1.622686e-02
3.374925e+02	-1.641450e-02
3.394418e+02	-1.660430e-02
3.414024e+02	-1.679629e-02
3.433744e+02	-1.699050e-02
3.453577e+02	-1.718694e-02
3.473525e+02	-1.738566e-02
3.493588e+02	-1.758667e-02
3.513766e+02	-1.778999e-02
3.534062e+02	-1.799567e-02
3.554474e+02	-1.820371e-02
3.575005e+02	-1.841416e-02
3.595654e+02	-1.862703e-02
3.616422e+02	-1.884236e-02
3.637311e+02	-1.906017e-02
3.658320e+02	-1.928050e-02
3.679450e+02	-1.950336e-02
3.700702e+02	-1.972880e-02
3.722077e+02	-1.995684e-02
3.743576e+02	-2.018750e-02
3.765199e+02	-2.042083e-02
3.786946e+02	-2.065684e-02
3.808820e+02	-2.089558e-02
3.830819e+02	-2.113707e-02
3.852946e+02	-2.138134e-02
3.875200e+02	-2.162843e-02
3.897583e+02	-2.187837e-02
3.920096e+02	-2.213119e-02
3.942738e+02	-2.238692e-02
3.965511e+02	-2.264560e-02
3.988416e+02	-2.290726e-02
4.011452e+02	-2.317193e-02
4.034622e+02	-2.343966e-02
4.057926e+02	-2.371047e-02
4.081365e+02	-2.398440e-02
4.104938e+02	-2.426149e-02
4.128648e+02	-2.454176e-02
4.152495e+02	-2.482527e-02
4.176480e+02	-2.511204e-02
4.200603e+02	-2.540212e-02
4.224866e+02	-2.569554e-02
4.249268e+02	-2.599233e-02
4.273812e+02	-2.629254e-02
4.298497e+02	-2.659621e-02
4.323325e+02	-2.690338e-02
4.348297e+02	-2.721408e-02
4.373412e+02	-2.752836e-02
4.398673e+02	-2.784626e-02
4.424079e+02	-2.816781e-02
4.449633e+02	-2.849307e-02
4.475334e+02	-2.882207e-02
4.501183e+02	-2.915486e-02
4.527182e+02	-2.949147e-02
4.553330e+02	-2.983196e-02
4.579630e+02	-3.017637e-02
4.606082e+02	-3.052474e-02
4.632687e+02	-3.087711e-02
4.659445e+02	-3.123354e-02
4.686358e+02	-3.159407e-02
4.713426e+02	-3.195874e-02
4.740650e+02	-3.232761e-02
4.768032e+02	-3.270072e-02
4.795572e+02	-3.307812e-02
4.823271e+02	-3.345985e-02
4.851130e+02	-3.384598e-02
4.879150e+02	-3.423654e-02
4.907332e+02	-3.463159e-02
4.935676e+02	-3.503119e-02
4.964185e+02	-3.543537e-02
4.992858e+02	-3.584420e-02
5.021696e+02	-3.625772e-02
5.050701e+02	-3.667600e-02
5.079874e+02	-3.709908e-02
5.109215e+02	-3.752702e-02
5.138726e+02	-3.795987e-02
5.168407e+02	-3.839770e-02
5.198259e+02	-3.884055e-02
5.228284e+02	-3.928849e-02
5.258482e+02	-3.974157e-02
5.288855e+02	-4.019985e-02
5.319403e+02	-4.066338e-02
5.350128e+02	-4.113224e-02
5.381030e+02	-4.160648e-02
5.412111e+02	-4.208616e-02
5.443371e+02	-4.257134e-02
5.474812e+02	-4.306209e-02
5.506434e+02	-4.355847e-02
5.538239e+02	-4.406054e-02
5.570228e+02	-4.456836e-02
5.602401e+02	-4.508201e-02
5.634760e+02	-4.560155e-02
5.667306e+02	-4.612704e-02
5.700040e+02	-4.665856e-02
5.732964e+02	-4.719617e-02
5.766077e+02	-4.773993e-02
5.799382e+02	-4.828993e-02
5.832879e+02	-4.884623e-02
5.866569e+02	-4.940890e-02
5.900454e+02	-4.997801e-02
5.934535e+02	-5.055364e-02
5.968813e+02	-5.113586e-02
6.003288e+02	-5.172475e-02
6.037963e+02	-5.232038e-02
6.072838e+02	-5.292282e-02
6.107914e+02	-5.353216e-02
6.143194e+02	-5.414847e-02
6.178676e+02	-5.477183e-02
6.214364e+02	-5.540232e-02
6.250258e+02	-5.604002e-02
6.286359e+02	-5.668501e-02
6.322669e+02	-5.733738e-02
6.359189e+02	-5.799721e-02
6.395919e+02	-5.866457e-02
6.432862e+02	-5.933957e-02
6.470017e+02	-6.002227e-02
6.507388e+02	-6.071278e-02
6.544974e+02	-6.141117e-02
6.582778e+02	-6.211754e-02
6.620800e+02	-6.283197e-02
6.659041e+02	-6.355456e-02
6.697504e+02	-6.428540e-02
6.736188e+02	-6.502458e-02
6.775096e+02	-6.577220e-02
6.814229e+02	-6.652834e-02
6.853587e+02	-6.729311e-02
6.893173e+02	-6.806661e-02
6.932988e+02	-6.884892e-02
6.973033e+02	-6.964015e-02
7.013309e+02	-7.044040e-02
