Frequency(Hz)	Magnitude(dB)
1.000000e+01	-1.709223e-05
1.005776e+01	-1.729025e-05
1.011585e+01	-1.749056e-05
1.017428e+01	-1.769319e-05
1.023305e+01	-1.789817e-05
1.029215e+01	-1.810553e-05
1.035160e+01	-1.831528e-05
1.041139e+01	-1.852747e-05
1.047153e+01	-1.874212e-05
1.053201e+01	-1.895925e-05
1.059284e+01	-1.917890e-05
1.065403e+01	-1.940109e-05
1.071556e+01	-1.962586e-05
1.077746e+01	-1.985323e-05
1.083971e+01	-2.008323e-05
1.090232e+01	-2.031590e-05
1.096529e+01	-2.055126e-05
1.102862e+01	-2.078936e-05
1.109232e+01	-2.103021e-05
1.115639e+01	-2.127385e-05
1.122083e+01	-2.152031e-05
1.128564e+01	-2.176963e-05
1.135083e+01	-2.202183e-05
1.141639e+01	-2.227696e-05
1.148233e+01	-2.253505e-05
1.154865e+01	-2.279612e-05
1.161536e+01	-2.306022e-05
1.168245e+01	-2.332738e-05
1.174992e+01	-2.359763e-05
1.181779e+01	-2.387102e-05
1.188605e+01	-2.414757e-05
1.195470e+01	-2.442732e-05
1.202375e+01	-2.471032e-05
1.209320e+01	-2.499659e-05
1.216305e+01	-2.528619e-05
1.223330e+01	-2.557913e-05
1.230396e+01	-2.587547e-05
1.237503e+01	-2.617525e-05
1.244651e+01	-2.647849e-05
1.251840e+01	-2.678525e-05
1.259070e+01	-2.709557e-05
1.266343e+01	-2.740948e-05
1.273657e+01	-2.772702e-05
1.281014e+01	-2.804825e-05
1.288413e+01	-2.837319e-05
1.295855e+01	-2.870190e-05
1.303339e+01	-2.903442e-05
1.310867e+01	-2.937079e-05
1.318439e+01	-2.971106e-05
1.326054e+01	-3.005527e-05
1.333713e+01	-3.040347e-05
1.341417e+01	-3.075570e-05
1.349165e+01	-3.111201e-05
1.356958e+01	-3.147245e-05
1.364795e+01	-3.183707e-05
1.372678e+01	-3.220591e-05
1.380607e+01	-3.257902e-05
1.388581e+01	-3.295645e-05
1.396602e+01	-3.333826e-05
1.404668e+01	-3.372449e-05
1.412782e+01	-3.411520e-05
1.420942e+01	-3.451043e-05
1.429149e+01	-3.491024e-05
1.437404e+01	-3.531469e-05
1.445706e+01	-3.572382e-05
1.454057e+01	-3.613769e-05
1.462455e+01	-3.655635e-05
1.470902e+01	-3.697986e-05
1.479398e+01	-3.740828e-05
1.487943e+01	-3.784167e-05
1.496537e+01	-3.828007e-05
1.505181e+01	-3.872355e-05
1.513875e+01	-3.917218e-05
1.522619e+01	-3.962599e-05
1.531414e+01	-4.008507e-05
1.540259e+01	-4.054946e-05
1.549156e+01	-4.101924e-05
1.558103e+01	-4.149446e-05
1.567103e+01	-4.197518e-05
1.576155e+01	-4.246147e-05
1.585258e+01	-4.295340e-05
1.594415e+01	-4.345102e-05
1.603624e+01	-4.395441e-05
1.612886e+01	-4.446363e-05
1.622202e+01	-4.497875e-05
1.631572e+01	-4.549984e-05
1.640996e+01	-4.602697e-05
1.650474e+01	-4.656020e-05
1.660008e+01	-4.709961e-05
1.669596e+01	-4.764527e-05
1.679239e+01	-4.819725e-05
1.688938e+01	-4.875563e-05
1.698694e+01	-4.932047e-05
1.708505e+01	-4.989186e-05
1.718373e+01	-5.046987e-05
1.728299e+01	-5.105457e-05
1.738281e+01	-5.164605e-05
1.748322e+01	-5.224438e-05
1.758420e+01	-5.284964e-05
1.768576e+01	-5.346191e-05
1.778792e+01	-5.408128e-05
1.789066e+01	-5.470782e-05
1.799399e+01	-5.534163e-05
1.809793e+01	-5.598277e-05
1.820246e+01	-5.663134e-05
1.830760e+01	-5.728743e-05
1.841334e+01	-5.795111e-05
1.851969e+01	-5.862249e-05
1.862666e+01	-5.930164e-05
1.873425e+01	-5.998866e-05
1.884246e+01	-6.068364e-05
1.895129e+01	-6.138668e-05
1.906075e+01	-6.209785e-05
1.917085e+01	-6.281727e-05
1.928158e+01	-6.354502e-05
1.939295e+01	-6.428120e-05
1.950496e+01	-6.502591e-05
1.961762e+01	-6.577925e-05
1.973093e+01	-6.654131e-05
1.984490e+01	-6.731221e-05
1.995952e+01	-6.809203e-05
2.007480e+01	-6.888089e-05
2.019076e+01	-6.967889e-05
2.030738e+01	-7.048613e-05
2.042467e+01	-7.130273e-05
2.054264e+01	-7.212878e-05
2.066130e+01	-7.296441e-05
2.078064e+01	-7.380971e-05
2.090066e+01	-7.466481e-05
2.102139e+01	-7.552982e-05
2.114280e+01	-7.640484e-05
2.126492e+01	-7.729001e-05
2.138775e+01	-7.818542e-05
2.151128e+01	-7.909122e-05
2.163553e+01	-8.000750e-05
2.176050e+01	-8.093440e-05
2.188619e+01	-8.187204e-05
2.201260e+01	-8.282054e-05
2.213974e+01	-8.378003e-05
2.226762e+01	-8.475064e-05
2.239624e+01	-8.573249e-05
2.252560e+01	-8.672571e-05
2.265571e+01	-8.773044e-05
2.278656e+01	-8.874682e-05
2.291818e+01	-8.977496e-05
2.305055e+01	-9.081502e-05
2.318369e+01	-9.186713e-05
2.331760e+01	-9.293142e-05
2.345228e+01	-9.400805e-05
2.358774e+01	-9.509714e-05
2.372398e+01	-9.619886e-05
2.386101e+01	-9.731334e-05
2.399883e+01	-9.844072e-05
2.413745e+01	-9.958118e-05
2.427686e+01	-1.007348e-04
2.441709e+01	-1.019019e-04
2.455812e+01	-1.030824e-04
2.469997e+01	-1.042766e-04
2.484263e+01	-1.054847e-04
2.498612e+01	-1.067068e-04
2.513044e+01	-1.079430e-04
2.527559e+01	-1.091935e-04
2.542158e+01	-1.104585e-04
2.556842e+01	-1.117382e-04
2.571610e+01	-1.130327e-04
2.586463e+01	-1.143422e-04
2.601403e+01	-1.156669e-04
2.616428e+01	-1.170069e-04
2.631541e+01	-1.183624e-04
2.646740e+01	-1.197337e-04
2.662028e+01	-1.211208e-04
2.677404e+01	-1.225240e-04
2.692868e+01	-1.239434e-04
2.708422e+01	-1.253793e-04
2.724066e+01	-1.268319e-04
2.739800e+01	-1.283012e-04
2.755625e+01	-1.297876e-04
2.771541e+01	-1.312912e-04
2.787550e+01	-1.328122e-04
2.803650e+01	-1.343509e-04
2.819844e+01	-1.359074e-04
2.836131e+01	-1.374819e-04
2.852513e+01	-1.390746e-04
2.868989e+01	-1.406858e-04
2.885560e+01	-1.423156e-04
2.902227e+01	-1.439644e-04
2.918990e+01	-1.456322e-04
2.935850e+01	-1.473194e-04
2.952807e+01	-1.490261e-04
2.969863e+01	-1.507526e-04
2.987016e+01	-1.524990e-04
3.004269e+01	-1.542658e-04
3.021622e+01	-1.560529e-04
3.039075e+01	-1.578608e-04
3.056628e+01	-1.596897e-04
3.074283e+01	-1.615397e-04
3.092040e+01	-1.634111e-04
3.109900e+01	-1.653042e-04
3.127862e+01	-1.672193e-04
3.145929e+01	-1.691565e-04
3.164099e+01	-1.711162e-04
3.182375e+01	-1.730986e-04
3.200756e+01	-1.751040e-04
3.219244e+01	-1.771326e-04
3.237838e+01	-1.791847e-04
3.256540e+01	-1.812605e-04
3.275349e+01	-1.833604e-04
3.294268e+01	-1.854847e-04
3.313295e+01	-1.876335e-04
3.332433e+01	-1.898072e-04
3.351681e+01	-1.920062e-04
3.371040e+01	-1.942306e-04
3.390511e+01	-1.964807e-04
3.410094e+01	-1.987570e-04
3.429791e+01	-2.010596e-04
3.449601e+01	-2.033888e-04
3.469526e+01	-2.057451e-04
3.489566e+01	-2.081287e-04
3.509721e+01	-2.105398e-04
3.529993e+01	-2.129789e-04
3.550382e+01	-2.154463e-04
3.570889e+01	-2.179422e-04
3.591515e+01	-2.204671e-04
3.612259e+01	-2.230212e-04
3.633123e+01	-2.256049e-04
3.654108e+01	-2.282185e-04
3.675214e+01	-2.308624e-04
3.696442e+01	-2.335369e-04
3.717792e+01	-2.362425e-04
3.739266e+01	-2.389793e-04
3.760864e+01	-2.417479e-04
3.782587e+01	-2.445485e-04
3.804435e+01	-2.473816e-04
3.826409e+01	-2.502475e-04
3.848510e+01	-2.531466e-04
3.870739e+01	-2.560793e-04
3.893096e+01	-2.590460e-04
3.915583e+01	-2.620470e-04
3.938199e+01	-2.650828e-04
3.960946e+01	-2.681538e-04
3.983824e+01	-2.712603e-04
4.006834e+01	-2.744028e-04
4.029978e+01	-2.775817e-04
4.053255e+01	-2.807975e-04
4.076666e+01	-2.840505e-04
4.100213e+01	-2.873412e-04
4.123896e+01	-2.906700e-04
4.147715e+01	-2.940374e-04
4.171672e+01	-2.974438e-04
4.195767e+01	-3.008896e-04
4.220002e+01	-3.043754e-04
4.244377e+01	-3.079016e-04
4.268892e+01	-3.114686e-04
4.293549e+01	-3.150769e-04
4.318348e+01	-3.187270e-04
4.343291e+01	-3.224194e-04
4.368377e+01	-3.261546e-04
4.393609e+01	-3.299330e-04
4.418986e+01	-3.337552e-04
4.444510e+01	-3.376217e-04
4.470182e+01	-3.415330e-04
4.496001e+01	-3.454896e-04
4.521970e+01	-3.494921e-04
4.548089e+01	-3.535409e-04
4.574358e+01	-3.576366e-04
4.600779e+01	-3.617797e-04
4.627353e+01	-3.659708e-04
4.654081e+01	-3.702105e-04
4.680963e+01	-3.744993e-04
4.708000e+01	-3.788378e-04
4.735193e+01	-3.832266e-04
4.762543e+01	-3.876662e-04
4.790051e+01	-3.921572e-04
4.817719e+01	-3.967002e-04
4.845545e+01	-4.012959e-04
4.873533e+01	-4.059448e-04
4.901682e+01	-4.106476e-04
4.929994e+01	-4.154048e-04
4.958470e+01	-4.202172e-04
4.987110e+01	-4.250852e-04
5.015915e+01	-4.300097e-04
5.044887e+01	-4.349913e-04
5.074026e+01	-4.400305e-04
5.103333e+01	-4.451281e-04
5.132810e+01	-4.502848e-04
5.162457e+01	-4.555012e-04
5.192275e+01	-4.607780e-04
5.222265e+01	-4.661160e-04
5.252429e+01	-4.715158e-04
5.282767e+01	-4.769781e-04
5.313280e+01	-4.825037e-04
5.343969e+01	-4.880933e-04
5.374836e+01	-4.937477e-04
5.405880e+01	-4.994676e-04
5.437105e+01	-5.052537e-04
5.468509e+01	-5.111069e-04
5.500095e+01	-5.170278e-04
5.531863e+01	-5.230174e-04
5.563815e+01	-5.290763e-04
5.595951e+01	-5.352054e-04
5.628273e+01	-5.414056e-04
5.660782e+01	-5.476775e-04
5.693479e+01	-5.540221e-04
5.726364e+01	-5.604402e-04
5.759439e+01	-5.669326e-04
5.792705e+01	-5.735002e-04
5.826164e+01	-5.801439e-04
5.859815e+01	-5.868646e-04
5.893662e+01	-5.936631e-04
5.927703e+01	-6.005404e-04
5.961941e+01	-6.074974e-04
5.996377e+01	-6.145349e-04
6.031012e+01	-6.216539e-04
6.065847e+01	-6.288554e-04
6.100883e+01	-6.361404e-04
6.136121e+01	-6.435097e-04
6.171563e+01	-6.509644e-04
6.207210e+01	-6.585054e-04
6.243063e+01	-6.661338e-04
6.279122e+01	-6.738505e-04
6.315390e+01	-6.816566e-04
6.351868e+01	-6.895532e-04
6.388556e+01	-6.975412e-04
6.425456e+01	-7.056218e-04
6.462569e+01	-7.137959e-04
6.499897e+01	-7.220648e-04
6.537440e+01	-7.304294e-04
6.575200e+01	-7.388909e-04
6.613178e+01	-7.474504e-04
6.651375e+01	-7.561091e-04
6.689793e+01	-7.648680e-04
6.728433e+01	-7.737284e-04
6.767297e+01	-7.826915e-04
6.806384e+01	-7.917583e-04
6.845698e+01	-8.009302e-04
6.885238e+01	-8.102084e-04
6.925007e+01	-8.195940e-04
6.965005e+01	-8.290883e-04
7.005235e+01	-8.386926e-04
7.045697e+01	-8.484081e-04
7.086393e+01	-8.582362e-04
7.127323e+01	-8.681781e-04
7.168490e+01	-8.782351e-04
7.209895e+01	-8.884087e-04
7.251539e+01	-8.987001e-04
7.293424e+01	-9.091107e-04
7.335551e+01	-9.196419e-04
7.377920e+01	-9.302950e-04
7.420535e+01	-9.410716e-04
7.463396e+01	-9.519730e-04
7.506504e+01	-9.630006e-04
7.549861e+01	-9.741560e-04
7.593469e+01	-9.854406e-04
7.637328e+01	-9.968558e-04
7.681441e+01	-1.008403e-03
7.725809e+01	-1.020085e-03
7.770433e+01	-1.031901e-03
7.815315e+01	-1.043855e-03
7.860456e+01	-1.055946e-03
7.905857e+01	-1.068178e-03
7.951521e+01	-1.080552e-03
7.997449e+01	-1.093069e-03
8.043642e+01	-1.105731e-03
8.090102e+01	-1.118539e-03
8.136830e+01	-1.131496e-03
8.183828e+01	-1.144603e-03
8.231097e+01	-1.157862e-03
8.278640e+01	-1.171274e-03
8.326457e+01	-1.184842e-03
8.374550e+01	-1.198567e-03
8.422921e+01	-1.212451e-03
8.471572e+01	-1.226495e-03
8.520503e+01	-1.240702e-03
8.569717e+01	-1.255074e-03
8.619215e+01	-1.269612e-03
8.669000e+01	-1.284319e-03
8.719071e+01	-1.299196e-03
8.769432e+01	-1.314245e-03
8.820084e+01	-1.329469e-03
8.871029e+01	-1.344869e-03
8.922267e+01	-1.360447e-03
8.973802e+01	-1.376206e-03
9.025634e+01	-1.392147e-03
9.077766e+01	-1.408272e-03
9.130199e+01	-1.424585e-03
9.182935e+01	-1.441086e-03
9.235975e+01	-1.457779e-03
9.289321e+01	-1.474665e-03
9.342976e+01	-1.491746e-03
9.396941e+01	-1.509026e-03
9.451217e+01	-1.526505e-03
9.505807e+01	-1.544187e-03
9.560712e+01	-1.562074e-03
9.615934e+01	-1.580167e-03
9.671476e+01	-1.598471e-03
9.727338e+01	-1.616986e-03
9.783522e+01	-1.635716e-03
9.840032e+01	-1.654662e-03
9.896867e+01	-1.673828e-03
9.954031e+01	-1.693216e-03
1.001153e+02	-1.712829e-03
1.006935e+02	-1.732668e-03
1.012751e+02	-1.752738e-03
1.018601e+02	-1.773039e-03
1.024484e+02	-1.793576e-03
1.030402e+02	-1.814351e-03
1.036353e+02	-1.835366e-03
1.042339e+02	-1.856625e-03
1.048360e+02	-1.878130e-03
1.054415e+02	-1.899884e-03
1.060505e+02	-1.921889e-03
1.066631e+02	-1.944150e-03
1.072791e+02	-1.966668e-03
1.078988e+02	-1.989448e-03
1.085220e+02	-2.012490e-03
1.091488e+02	-2.035800e-03
1.097793e+02	-2.059380e-03
1.104133e+02	-2.083233e-03
1.110511e+02	-2.107362e-03
1.116925e+02	-2.131770e-03
1.123376e+02	-2.156461e-03
1.129865e+02	-2.181438e-03
1.136391e+02	-2.206704e-03
1.142955e+02	-2.232263e-03
1.149556e+02	-2.258117e-03
1.156196e+02	-2.284271e-03
1.162874e+02	-2.310728e-03
1.169591e+02	-2.337491e-03
1.176347e+02	-2.364564e-03
1.183141e+02	-2.391951e-03
1.189975e+02	-2.419655e-03
1.196848e+02	-2.447679e-03
1.203761e+02	-2.476028e-03
1.210714e+02	-2.504705e-03
1.217707e+02	-2.533714e-03
1.224740e+02	-2.563059e-03
1.231814e+02	-2.592744e-03
1.238929e+02	-2.622773e-03
1.246085e+02	-2.653149e-03
1.253283e+02	-2.683877e-03
1.260522e+02	-2.714961e-03
1.267802e+02	-2.746404e-03
1.275125e+02	-2.778212e-03
1.282490e+02	-2.810388e-03
1.289898e+02	-2.842936e-03
1.297348e+02	-2.875861e-03
1.304842e+02	-2.909168e-03
1.312378e+02	-2.942860e-03
1.319959e+02	-2.976942e-03
1.327583e+02	-3.011419e-03
1.335251e+02	-3.046294e-03
1.342963e+02	-3.081574e-03
1.350720e+02	-3.117262e-03
1.358522e+02	-3.153363e-03
1.366368e+02	-3.189882e-03
1.374260e+02	-3.226824e-03
1.382198e+02	-3.264194e-03
1.390182e+02	-3.301996e-03
1.398211e+02	-3.340236e-03
1.406287e+02	-3.378918e-03
1.414410e+02	-3.418048e-03
1.422579e+02	-3.457631e-03
1.430796e+02	-3.497673e-03
1.439060e+02	-3.538178e-03
1.447372e+02	-3.579151e-03
1.455732e+02	-3.620600e-03
1.464141e+02	-3.662527e-03
1.472597e+02	-3.704941e-03
1.481103e+02	-3.747845e-03
1.489658e+02	-3.791246e-03
1.498262e+02	-3.835149e-03
1.506916e+02	-3.879560e-03
1.515620e+02	-3.924485e-03
1.524374e+02	-3.969931e-03
1.533179e+02	-4.015902e-03
1.542034e+02	-4.062406e-03
1.550941e+02	-4.109447e-03
1.559899e+02	-4.157033e-03
1.568909e+02	-4.205170e-03
1.577971e+02	-4.253864e-03
1.587085e+02	-4.303122e-03
1.596252e+02	-4.352950e-03
1.605472e+02	-4.403354e-03
1.614745e+02	-4.454342e-03
1.624072e+02	-4.505920e-03
1.633453e+02	-4.558095e-03
1.642887e+02	-4.610873e-03
1.652377e+02	-4.664263e-03
1.661921e+02	-4.718270e-03
1.671520e+02	-4.772902e-03
1.681175e+02	-4.828167e-03
1.690885e+02	-4.884071e-03
1.700651e+02	-4.940622e-03
1.710474e+02	-4.997827e-03
1.720354e+02	-5.055695e-03
1.730291e+02	-5.114231e-03
1.740285e+02	-5.173446e-03
1.750337e+02	-5.233345e-03
1.760446e+02	-5.293938e-03
1.770615e+02	-5.355232e-03
1.780842e+02	-5.417235e-03
1.791128e+02	-5.479955e-03
1.801473e+02	-5.543401e-03
1.811878e+02	-5.607581e-03
1.822344e+02	-5.672504e-03
1.832870e+02	-5.738178e-03
1.843456e+02	-5.804611e-03
1.854104e+02	-5.871814e-03
1.864813e+02	-5.939794e-03
1.875584e+02	-6.008560e-03
1.886418e+02	-6.078122e-03
1.897313e+02	-6.148488e-03
1.908272e+02	-6.219669e-03
1.919294e+02	-6.291673e-03
1.930380e+02	-6.364510e-03
1.941530e+02	-6.438190e-03
1.952744e+02	-6.512722e-03
1.964023e+02	-6.588116e-03
1.975367e+02	-6.664382e-03
1.986777e+02	-6.741531e-03
1.998252e+02	-6.819572e-03
2.009794e+02	-6.898515e-03
2.021403e+02	-6.978372e-03
2.033078e+02	-7.059152e-03
2.044821e+02	-7.140867e-03
2.056632e+02	-7.223527e-03
2.068511e+02	-7.307142e-03
2.080459e+02	-7.391725e-03
2.092475e+02	-7.477286e-03
2.104561e+02	-7.563837e-03
2.116717e+02	-7.651389e-03
2.128943e+02	-7.739953e-03
2.141240e+02	-7.829541e-03
2.153608e+02	-7.920165e-03
2.166047e+02	-8.011837e-03
2.178558e+02	-8.104570e-03
2.191141e+02	-8.198374e-03
2.203797e+02	-8.293263e-03
2.216526e+02	-8.389250e-03
2.229329e+02	-8.486346e-03
2.242205e+02	-8.584565e-03
2.255156e+02	-8.683920e-03
2.268182e+02	-8.784423e-03
2.281283e+02	-8.886089e-03
2.294459e+02	-8.988929e-03
2.307712e+02	-9.092959e-03
2.321041e+02	-9.198191e-03
2.334447e+02	-9.304640e-03
2.347931e+02	-9.412320e-03
2.361493e+02	-9.521244e-03
2.375133e+02	-9.631427e-03
2.388851e+02	-9.742884e-03
2.402649e+02	-9.855629e-03
2.416527e+02	-9.969678e-03
2.430484e+02	-1.008504e-02
2.444523e+02	-1.020174e-02
2.458642e+02	-1.031979e-02
2.472843e+02	-1.043921e-02
2.487126e+02	-1.056000e-02
2.501492e+02	-1.068219e-02
2.515940e+02	-1.080579e-02
2.530472e+02	-1.093082e-02
2.545088e+02	-1.105729e-02
2.559789e+02	-1.118523e-02
2.574574e+02	-1.131465e-02
2.589444e+02	-1.144555e-02
2.604401e+02	-1.157798e-02
2.619444e+02	-1.171193e-02
2.634574e+02	-1.184743e-02
2.649791e+02	-1.198449e-02
2.665096e+02	-1.212314e-02
2.680489e+02	-1.226339e-02
2.695972e+02	-1.240527e-02
2.711544e+02	-1.254878e-02
2.727205e+02	-1.269394e-02
2.742958e+02	-1.284079e-02
2.758801e+02	-1.298933e-02
2.774736e+02	-1.313958e-02
2.790762e+02	-1.329158e-02
2.806882e+02	-1.344532e-02
2.823094e+02	-1.360085e-02
2.839400e+02	-1.375816e-02
2.855800e+02	-1.391730e-02
2.872295e+02	-1.407827e-02
2.888886e+02	-1.424110e-02
2.905572e+02	-1.440582e-02
2.922354e+02	-1.457243e-02
2.939234e+02	-1.474097e-02
2.956211e+02	-1.491145e-02
2.973286e+02	-1.508390e-02
2.990459e+02	-1.525835e-02
3.007732e+02	-1.543480e-02
3.025104e+02	-1.561330e-02
3.042577e+02	-1.579385e-02
3.060151e+02	-1.597649e-02
3.077826e+02	-1.616123e-02
3.095604e+02	-1.634811e-02
3.113484e+02	-1.653715e-02
3.131467e+02	-1.672836e-02
3.149554e+02	-1.692179e-02
3.167746e+02	-1.711744e-02
3.186043e+02	-1.731536e-02
3.204445e+02	-1.751555e-02
3.222954e+02	-1.771806e-02
3.241570e+02	-1.792290e-02
3.260293e+02	-1.813011e-02
3.279124e+02	-1.833971e-02
3.298064e+02	-1.855172e-02
3.317114e+02	-1.876618e-02
3.336273e+02	-1.898312e-02
3.355544e+02	-1.920255e-02
3.374925e+02	-1.942452e-02
3.394418e+02	-1.964905e-02
3.414024e+02	-1.987616e-02
3.433744e+02	-2.010590e-02
3.453577e+02	-2.033828e-02
3.473525e+02	-2.057335e-02
3.493588e+02	-2.081112e-02
3.513766e+02	-2.105164e-02
3.534062e+02	-2.129492e-02
3.554474e+02	-2.154102e-02
3.575005e+02	-2.178995e-02
3.595654e+02	-2.204175e-02
3.616422e+02	-2.229645e-02
3.637311e+02	-2.255409e-02
3.658320e+02	-2.281469e-02
3.679450e+02	-2.307830e-02
3.700702e+02	-2.334495e-02
3.722077e+02	-2.361467e-02
3.743576e+02	-2.388749e-02
3.765199e+02	-2.416346e-02
3.786946e+02	-2.444261e-02
3.808820e+02	-2.472498e-02
3.830819e+02	-2.501060e-02
3.852946e+02	-2.529950e-02
3.875200e+02	-2.559174e-02
3.897583e+02	-2.588734e-02
3.920096e+02	-2.618634e-02
3.942738e+02	-2.648879e-02
3.965511e+02	-2.679472e-02
3.988416e+02	-2.710417e-02
4.011452e+02	-2.741718e-02
4.034622e+02	-2.773380e-02
4.057926e+02	-2.805406e-02
4.081365e+02	-2.837801e-02
4.104938e+02	-2.870569e-02
4.128648e+02	-2.903714e-02
4.152495e+02	-2.937240e-02
4.176480e+02	-2.971152e-02
4.200603e+02	-3.005454e-02
4.224866e+02	-3.040150e-02
4.249268e+02	-3.075246e-02
4.273812e+02	-3.110746e-02
4.298497e+02	-3.146654e-02
4.323325e+02	-3.182974e-02
4.348297e+02	-3.219713e-02
4.373412e+02	-3.256874e-02
4.398673e+02	-3.294462e-02
4.424079e+02	-3.332482e-02
4.449633e+02	-3.370939e-02
4.475334e+02	-3.409839e-02
4.501183e+02	-3.449185e-02
4.527182e+02	-3.488984e-02
4.553330e+02	-3.529240e-02
4.579630e+02	-3.569959e-02
4.606082e+02	-3.611145e-02
4.632687e+02	-3.652805e-02
4.659445e+02	-3.694943e-02
4.686358e+02	-3.737565e-02
4.713426e+02	-3.780677e-02
4.740650e+02	-3.824284e-02
4.768032e+02	-3.868391e-02
4.795572e+02	-3.913005e-02
4.823271e+02	-3.958131e-02
4.851130e+02	-4.003775e-02
4.879150e+02	-4.049943e-02
4.907332e+02	-4.096641e-02
4.935676e+02	-4.143874e-02
4.964185e+02	-4.191650e-02
4.992858e+02	-4.239973e-02
5.021696e+02	-4.288852e-02
5.050701e+02	-4.338290e-02
5.079874e+02	-4.388296e-02
5.109215e+02	-4.438875e-02
5.138726e+02	-4.490034e-02
5.168407e+02	-4.541780e-02
5.198259e+02	-4.594118e-02
5.228284e+02	-4.647057e-02
5.258482e+02	-4.700602e-02
5.288855e+02	-4.754761e-02
5.319403e+02	-4.809541e-02
5.350128e+02	-4.864948e-02
5.381030e+02	-4.920990e-02
5.412111e+02	-4.977673e-02
5.443371e+02	-5.035006e-02
5.474812e+02	-5.092995e-02
5.506434e+02	-5.151648e-02
5.538239e+02	-5.210972e-02
5.570228e+02	-5.270976e-02
5.602401e+02	-5.331666e-02
5.634760e+02	-5.393050e-02
5.667306e+02	-5.455137e-02
5.700040e+02	-5.517934e-02
5.732964e+02	-5.581450e-02
5.766077e+02	-5.645691e-02
5.799382e+02	-5.710667e-02
5.832879e+02	-5.776386e-02
5.866569e+02	-5.842856e-02
5.900454e+02	-5.910086e-02
5.934535e+02	-5.978084e-02
5.968813e+02	-6.046859e-02
6.003288e+02	-6.116420e-02
6.037963e+02	-6.186775e-02
6.072838e+02	-6.257933e-02
6.107914e+02	-6.329904e-02
6.143194e+02	-6.402696e-02
6.178676e+02	-6.476320e-02
6.214364e+02	-6.550783e-02
6.250258e+02	-6.626096e-02
6.286359e+02	-6.702268e-02
6.322669e+02	-6.779309e-02
6.359189e+02	-6.857229e-02
6.395919e+02	-6.936037e-02
6.432862e+02	-7.015743e-02
6.470017e+02	-7.096358e-02
6.507388e+02	-7.177892e-02
6.544974e+02	-7.260354e-02
6.582778e+02	-7.343756e-02
6.620800e+02	-7.428107e-02
6.659041e+02	-7.513419e-02
6.697504e+02	-7.599702e-02
6.736188e+02	-7.686968e-02
6.775096e+02	-7.775226e-02
6.814229e+02	-7.864488e-02
6.853587e+02	-7.954766e-02
6.893173e+02	-8.046071e-02
6.932988e+02	-8.138413e-02
6.973033e+02	-8.231806e-02
7.013309e+02	-8.326259e-02
