Frequency(Hz)	Magnitude(dB)
1.000000e+01	-1.598433e-05
1.005776e+01	-1.616951e-05
1.011585e+01	-1.635684e-05
1.017428e+01	-1.654634e-05
1.023305e+01	-1.673803e-05
1.029215e+01	-1.693194e-05
1.035160e+01	-1.712811e-05
1.041139e+01	-1.732654e-05
1.047153e+01	-1.752727e-05
1.053201e+01	-1.773033e-05
1.059284e+01	-1.793574e-05
1.065403e+01	-1.814353e-05
1.071556e+01	-1.835373e-05
1.077746e+01	-1.856636e-05
1.083971e+01	-1.878146e-05
1.090232e+01	-1.899904e-05
1.096529e+01	-1.921915e-05
1.102862e+01	-1.944181e-05
1.109232e+01	-1.966705e-05
1.115639e+01	-1.989490e-05
1.122083e+01	-2.012538e-05
1.128564e+01	-2.035854e-05
1.135083e+01	-2.059440e-05
1.141639e+01	-2.083299e-05
1.148233e+01	-2.107435e-05
1.154865e+01	-2.131850e-05
1.161536e+01	-2.156548e-05
1.168245e+01	-2.181532e-05
1.174992e+01	-2.206806e-05
1.181779e+01	-2.232372e-05
1.188605e+01	-2.258235e-05
1.195470e+01	-2.284397e-05
1.202375e+01	-2.310862e-05
1.209320e+01	-2.337634e-05
1.216305e+01	-2.364716e-05
1.223330e+01	-2.392112e-05
1.230396e+01	-2.419825e-05
1.237503e+01	-2.447860e-05
1.244651e+01	-2.476219e-05
1.251840e+01	-2.504906e-05
1.259070e+01	-2.533926e-05
1.266343e+01	-2.563282e-05
1.273657e+01	-2.592979e-05
1.281014e+01	-2.623019e-05
1.288413e+01	-2.653407e-05
1.295855e+01	-2.684148e-05
1.303339e+01	-2.715244e-05
1.310867e+01	-2.746701e-05
1.318439e+01	-2.778522e-05
1.326054e+01	-2.810712e-05
1.333713e+01	-2.843275e-05
1.341417e+01	-2.876215e-05
1.349165e+01	-2.909536e-05
1.356958e+01	-2.943244e-05
1.364795e+01	-2.977342e-05
1.372678e+01	-3.011835e-05
1.380607e+01	-3.046728e-05
1.388581e+01	-3.082025e-05
1.396602e+01	-3.117731e-05
1.404668e+01	-3.153851e-05
1.412782e+01	-3.190389e-05
1.420942e+01	-3.227351e-05
1.429149e+01	-3.264740e-05
1.437404e+01	-3.302563e-05
1.445706e+01	-3.340824e-05
1.454057e+01	-3.379528e-05
1.462455e+01	-3.418681e-05
1.470902e+01	-3.458287e-05
1.479398e+01	-3.498352e-05
1.487943e+01	-3.538881e-05
1.496537e+01	-3.579880e-05
1.505181e+01	-3.621354e-05
1.513875e+01	-3.663308e-05
1.522619e+01	-3.705748e-05
1.531414e+01	-3.748680e-05
1.540259e+01	-3.792109e-05
1.549156e+01	-3.836042e-05
1.558103e+01	-3.880483e-05
1.567103e+01	-3.925440e-05
1.576155e+01	-3.970917e-05
1.585258e+01	-4.016921e-05
1.594415e+01	-4.063458e-05
1.603624e+01	-4.110534e-05
1.612886e+01	-4.158155e-05
1.622202e+01	-4.206328e-05
1.631572e+01	-4.255060e-05
1.640996e+01	-4.304355e-05
1.650474e+01	-4.354222e-05
1.660008e+01	-4.404667e-05
1.669596e+01	-4.455696e-05
1.679239e+01	-4.507316e-05
1.688938e+01	-4.559534e-05
1.698694e+01	-4.612358e-05
1.708505e+01	-4.665793e-05
1.718373e+01	-4.719847e-05
1.728299e+01	-4.774528e-05
1.738281e+01	-4.829841e-05
1.748322e+01	-4.885796e-05
1.758420e+01	-4.942399e-05
1.768576e+01	-4.999658e-05
1.778792e+01	-5.057580e-05
1.789066e+01	-5.116173e-05
1.799399e+01	-5.175445e-05
1.809793e+01	-5.235404e-05
1.820246e+01	-5.296057e-05
1.830760e+01	-5.357413e-05
1.841334e+01	-5.419480e-05
1.851969e+01	-5.482265e-05
1.862666e+01	-5.545779e-05
1.873425e+01	-5.610028e-05
1.884246e+01	-5.675021e-05
1.895129e+01	-5.740767e-05
1.906075e+01	-5.807275e-05
1.917085e+01	-5.874554e-05
1.928158e+01	-5.942611e-05
1.939295e+01	-6.011458e-05
1.950496e+01	-6.081102e-05
1.961762e+01	-6.151552e-05
1.973093e+01	-6.222819e-05
1.984490e+01	-6.294912e-05
1.995952e+01	-6.367840e-05
2.007480e+01	-6.441612e-05
2.019076e+01	-6.516240e-05
2.030738e+01	-6.591732e-05
2.042467e+01	-6.668098e-05
2.054264e+01	-6.745349e-05
2.066130e+01	-6.823495e-05
2.078064e+01	-6.902547e-05
2.090066e+01	-6.982514e-05
2.102139e+01	-7.063408e-05
2.114280e+01	-7.145239e-05
2.126492e+01	-7.228018e-05
2.138775e+01	-7.311756e-05
2.151128e+01	-7.396464e-05
2.163553e+01	-7.482153e-05
2.176050e+01	-7.568835e-05
2.188619e+01	-7.656521e-05
2.201260e+01	-7.745224e-05
2.213974e+01	-7.834953e-05
2.226762e+01	-7.925723e-05
2.239624e+01	-8.017544e-05
2.252560e+01	-8.110428e-05
2.265571e+01	-8.204389e-05
2.278656e+01	-8.299438e-05
2.291818e+01	-8.395588e-05
2.305055e+01	-8.492853e-05
2.318369e+01	-8.591244e-05
2.331760e+01	-8.690775e-05
2.345228e+01	-8.791459e-05
2.358774e+01	-8.893309e-05
2.372398e+01	-8.996340e-05
2.386101e+01	-9.100564e-05
2.399883e+01	-9.205995e-05
2.413745e+01	-9.312648e-05
2.427686e+01	-9.420536e-05
2.441709e+01	-9.529675e-05
2.455812e+01	-9.640078e-05
2.469997e+01	-9.751759e-05
2.484263e+01	-9.864735e-05
2.498612e+01	-9.979019e-05
2.513044e+01	-1.009463e-04
2.527559e+01	-1.021158e-04
2.542158e+01	-1.032988e-04
2.556842e+01	-1.044955e-04
2.571610e+01	-1.057061e-04
2.586463e+01	-1.069307e-04
2.601403e+01	-1.081695e-04
2.616428e+01	-1.094227e-04
2.631541e+01	-1.106904e-04
2.646740e+01	-1.119727e-04
2.662028e+01	-1.132699e-04
2.677404e+01	-1.145822e-04
2.692868e+01	-1.159096e-04
2.708422e+01	-1.172525e-04
2.724066e+01	-1.186109e-04
2.739800e+01	-1.199850e-04
2.755625e+01	-1.213750e-04
2.771541e+01	-1.227812e-04
2.787550e+01	-1.242036e-04
2.803650e+01	-1.256425e-04
2.819844e+01	-1.270981e-04
2.836131e+01	-1.285705e-04
2.852513e+01	-1.300600e-04
2.868989e+01	-1.315668e-04
2.885560e+01	-1.330910e-04
2.902227e+01	-1.346329e-04
2.918990e+01	-1.361926e-04
2.935850e+01	-1.377704e-04
2.952807e+01	-1.393665e-04
2.969863e+01	-1.409811e-04
2.987016e+01	-1.426144e-04
3.004269e+01	-1.442666e-04
3.021622e+01	-1.459379e-04
3.039075e+01	-1.476286e-04
3.056628e+01	-1.493389e-04
3.074283e+01	-1.510690e-04
3.092040e+01	-1.528191e-04
3.109900e+01	-1.545896e-04
3.127862e+01	-1.563805e-04
3.145929e+01	-1.581922e-04
3.164099e+01	-1.600248e-04
3.182375e+01	-1.618787e-04
3.200756e+01	-1.637541e-04
3.219244e+01	-1.656512e-04
3.237838e+01	-1.675703e-04
3.256540e+01	-1.695116e-04
3.275349e+01	-1.714754e-04
3.294268e+01	-1.734619e-04
3.313295e+01	-1.754715e-04
3.332433e+01	-1.775044e-04
3.351681e+01	-1.795608e-04
3.371040e+01	-1.816410e-04
3.390511e+01	-1.837453e-04
3.410094e+01	-1.858740e-04
3.429791e+01	-1.880273e-04
3.449601e+01	-1.902056e-04
3.469526e+01	-1.924092e-04
3.489566e+01	-1.946382e-04
3.509721e+01	-1.968931e-04
3.529993e+01	-1.991741e-04
3.550382e+01	-2.014816e-04
3.570889e+01	-2.038157e-04
3.591515e+01	-2.061769e-04
3.612259e+01	-2.085655e-04
3.633123e+01	-2.109817e-04
3.654108e+01	-2.134260e-04
3.675214e+01	-2.158985e-04
3.696442e+01	-2.183997e-04
3.717792e+01	-2.209298e-04
3.739266e+01	-2.234893e-04
3.760864e+01	-2.260784e-04
3.782587e+01	-2.286975e-04
3.804435e+01	-2.313470e-04
3.826409e+01	-2.340271e-04
3.848510e+01	-2.367383e-04
3.870739e+01	-2.394809e-04
3.893096e+01	-2.422553e-04
3.915583e+01	-2.450618e-04
3.938199e+01	-2.479008e-04
3.960946e+01	-2.507728e-04
3.983824e+01	-2.536779e-04
4.006834e+01	-2.566168e-04
4.029978e+01	-2.595897e-04
4.053255e+01	-2.625970e-04
4.076666e+01	-2.656392e-04
4.100213e+01	-2.687166e-04
4.123896e+01	-2.718296e-04
4.147715e+01	-2.749788e-04
4.171672e+01	-2.781644e-04
4.195767e+01	-2.813869e-04
4.220002e+01	-2.846467e-04
4.244377e+01	-2.879443e-04
4.268892e+01	-2.912801e-04
4.293549e+01	-2.946546e-04
4.318348e+01	-2.980681e-04
4.343291e+01	-3.015212e-04
4.368377e+01	-3.050143e-04
4.393609e+01	-3.085478e-04
4.418986e+01	-3.121223e-04
4.444510e+01	-3.157382e-04
4.470182e+01	-3.193960e-04
4.496001e+01	-3.230961e-04
4.521970e+01	-3.268391e-04
4.548089e+01	-3.306255e-04
4.574358e+01	-3.344558e-04
4.600779e+01	-3.383304e-04
4.627353e+01	-3.422499e-04
4.654081e+01	-3.462148e-04
4.680963e+01	-3.502256e-04
4.708000e+01	-3.542829e-04
4.735193e+01	-3.583872e-04
4.762543e+01	-3.625390e-04
4.790051e+01	-3.667390e-04
4.817719e+01	-3.709876e-04
4.845545e+01	-3.752854e-04
4.873533e+01	-3.796330e-04
4.901682e+01	-3.840309e-04
4.929994e+01	-3.884798e-04
4.958470e+01	-3.929803e-04
4.987110e+01	-3.975329e-04
5.015915e+01	-4.021382e-04
5.044887e+01	-4.067968e-04
5.074026e+01	-4.115095e-04
5.103333e+01	-4.162767e-04
5.132810e+01	-4.210991e-04
5.162457e+01	-4.259774e-04
5.192275e+01	-4.309123e-04
5.222265e+01	-4.359043e-04
5.252429e+01	-4.409541e-04
5.282767e+01	-4.460624e-04
5.313280e+01	-4.512299e-04
5.343969e+01	-4.564572e-04
5.374836e+01	-4.617451e-04
5.405880e+01	-4.670943e-04
5.437105e+01	-4.725054e-04
5.468509e+01	-4.779792e-04
5.500095e+01	-4.835164e-04
5.531863e+01	-4.891178e-04
5.563815e+01	-4.947840e-04
5.595951e+01	-5.005159e-04
5.628273e+01	-5.063142e-04
5.660782e+01	-5.121796e-04
5.693479e+01	-5.181130e-04
5.726364e+01	-5.241151e-04
5.759439e+01	-5.301868e-04
5.792705e+01	-5.363288e-04
5.826164e+01	-5.425419e-04
5.859815e+01	-5.488270e-04
5.893662e+01	-5.551849e-04
5.927703e+01	-5.616164e-04
5.961941e+01	-5.681225e-04
5.996377e+01	-5.747039e-04
6.031012e+01	-5.813616e-04
6.065847e+01	-5.880963e-04
6.100883e+01	-5.949091e-04
6.136121e+01	-6.018008e-04
6.171563e+01	-6.087724e-04
6.207210e+01	-6.158247e-04
6.243063e+01	-6.229587e-04
6.279122e+01	-6.301753e-04
6.315390e+01	-6.374755e-04
6.351868e+01	-6.448603e-04
6.388556e+01	-6.523306e-04
6.425456e+01	-6.598875e-04
6.462569e+01	-6.675319e-04
6.499897e+01	-6.752648e-04
6.537440e+01	-6.830873e-04
6.575200e+01	-6.910004e-04
6.613178e+01	-6.990052e-04
6.651375e+01	-7.071027e-04
6.689793e+01	-7.152940e-04
6.728433e+01	-7.235802e-04
6.767297e+01	-7.319624e-04
6.806384e+01	-7.404417e-04
6.845698e+01	-7.490191e-04
6.885238e+01	-7.576960e-04
6.925007e+01	-7.664733e-04
6.965005e+01	-7.753523e-04
7.005235e+01	-7.843342e-04
7.045697e+01	-7.934201e-04
7.086393e+01	-8.026112e-04
7.127323e+01	-8.119088e-04
7.168490e+01	-8.213141e-04
7.209895e+01	-8.308283e-04
7.251539e+01	-8.404528e-04
7.293424e+01	-8.501887e-04
7.335551e+01	-8.600374e-04
7.377920e+01	-8.700002e-04
7.420535e+01	-8.800783e-04
7.463396e+01	-8.902732e-04
7.506504e+01	-9.005862e-04
7.549861e+01	-9.110187e-04
7.593469e+01	-9.215720e-04
7.637328e+01	-9.322475e-04
7.681441e+01	-9.430466e-04
7.725809e+01	-9.539709e-04
7.770433e+01	-9.650217e-04
7.815315e+01	-9.762005e-04
7.860456e+01	-9.875087e-04
7.905857e+01	-9.989480e-04
7.951521e+01	-1.010520e-03
7.997449e+01	-1.022225e-03
8.043642e+01	-1.034067e-03
8.090102e+01	-1.046045e-03
8.136830e+01	-1.058163e-03
8.183828e+01	-1.070420e-03
8.231097e+01	-1.082820e-03
8.278640e+01	-1.095363e-03
8.326457e+01	-1.108051e-03
8.374550e+01	-1.120887e-03
8.422921e+01	-1.133871e-03
8.471572e+01	-1.147005e-03
8.520503e+01	-1.160292e-03
8.569717e+01	-1.173732e-03
8.619215e+01	-1.187329e-03
8.669000e+01	-1.201082e-03
8.719071e+01	-1.214995e-03
8.769432e+01	-1.229069e-03
8.820084e+01	-1.243306e-03
8.871029e+01	-1.257708e-03
8.922267e+01	-1.272277e-03
8.973802e+01	-1.287014e-03
9.025634e+01	-1.301923e-03
9.077766e+01	-1.317003e-03
9.130199e+01	-1.332259e-03
9.182935e+01	-1.347691e-03
9.235975e+01	-1.363302e-03
9.289321e+01	-1.379094e-03
9.342976e+01	-1.395068e-03
9.396941e+01	-1.411228e-03
9.451217e+01	-1.427575e-03
9.505807e+01	-1.444111e-03
9.560712e+01	-1.460838e-03
9.615934e+01	-1.477760e-03
9.671476e+01	-1.494877e-03
9.727338e+01	-1.512193e-03
9.783522e+01	-1.529709e-03
9.840032e+01	-1.547428e-03
9.896867e+01	-1.565352e-03
9.954031e+01	-1.583483e-03
1.001153e+02	-1.601825e-03
1.006935e+02	-1.620379e-03
1.012751e+02	-1.639148e-03
1.018601e+02	-1.658134e-03
1.024484e+02	-1.677341e-03
1.030402e+02	-1.696769e-03
1.036353e+02	-1.716423e-03
1.042339e+02	-1.736304e-03
1.048360e+02	-1.756416e-03
1.054415e+02	-1.776760e-03
1.060505e+02	-1.797340e-03
1.066631e+02	-1.818158e-03
1.072791e+02	-1.839218e-03
1.078988e+02	-1.860521e-03
1.085220e+02	-1.882071e-03
1.091488e+02	-1.903870e-03
1.097793e+02	-1.925922e-03
1.104133e+02	-1.948230e-03
1.110511e+02	-1.970795e-03
1.116925e+02	-1.993622e-03
1.123376e+02	-2.016714e-03
1.129865e+02	-2.040072e-03
1.136391e+02	-2.063701e-03
1.142955e+02	-2.087604e-03
1.149556e+02	-2.111784e-03
1.156196e+02	-2.136243e-03
1.162874e+02	-2.160986e-03
1.169591e+02	-2.186015e-03
1.176347e+02	-2.211335e-03
1.183141e+02	-2.236947e-03
1.189975e+02	-2.262856e-03
1.196848e+02	-2.289065e-03
1.203761e+02	-2.315577e-03
1.210714e+02	-2.342396e-03
1.217707e+02	-2.369526e-03
1.224740e+02	-2.396970e-03
1.231814e+02	-2.424732e-03
1.238929e+02	-2.452815e-03
1.246085e+02	-2.481223e-03
1.253283e+02	-2.509961e-03
1.260522e+02	-2.539031e-03
1.267802e+02	-2.568437e-03
1.275125e+02	-2.598185e-03
1.282490e+02	-2.628276e-03
1.289898e+02	-2.658716e-03
1.297348e+02	-2.689508e-03
1.304842e+02	-2.720657e-03
1.312378e+02	-2.752167e-03
1.319959e+02	-2.784041e-03
1.327583e+02	-2.816285e-03
1.335251e+02	-2.848901e-03
1.342963e+02	-2.881896e-03
1.350720e+02	-2.915272e-03
1.358522e+02	-2.949035e-03
1.366368e+02	-2.983188e-03
1.374260e+02	-3.017737e-03
1.382198e+02	-3.052686e-03
1.390182e+02	-3.088040e-03
1.398211e+02	-3.123802e-03
1.406287e+02	-3.159979e-03
1.414410e+02	-3.196575e-03
1.422579e+02	-3.233594e-03
1.430796e+02	-3.271042e-03
1.439060e+02	-3.308924e-03
1.447372e+02	-3.347244e-03
1.455732e+02	-3.386007e-03
1.464141e+02	-3.425220e-03
1.472597e+02	-3.464886e-03
1.481103e+02	-3.505011e-03
1.489658e+02	-3.545601e-03
1.498262e+02	-3.586661e-03
1.506916e+02	-3.628196e-03
1.515620e+02	-3.670211e-03
1.524374e+02	-3.712714e-03
1.533179e+02	-3.755708e-03
1.542034e+02	-3.799200e-03
1.550941e+02	-3.843195e-03
1.559899e+02	-3.887699e-03
1.568909e+02	-3.932719e-03
1.577971e+02	-3.978259e-03
1.587085e+02	-4.024327e-03
1.596252e+02	-4.070928e-03
1.605472e+02	-4.118068e-03
1.614745e+02	-4.165754e-03
1.624072e+02	-4.213992e-03
1.633453e+02	-4.262788e-03
1.642887e+02	-4.312149e-03
1.652377e+02	-4.362082e-03
1.661921e+02	-4.412592e-03
1.671520e+02	-4.463686e-03
1.681175e+02	-4.515372e-03
1.690885e+02	-4.567657e-03
1.700651e+02	-4.620546e-03
1.710474e+02	-4.674047e-03
1.720354e+02	-4.728168e-03
1.730291e+02	-4.782915e-03
1.740285e+02	-4.838295e-03
1.750337e+02	-4.894316e-03
1.760446e+02	-4.950986e-03
1.770615e+02	-5.008311e-03
1.780842e+02	-5.066300e-03
1.791128e+02	-5.124959e-03
1.801473e+02	-5.184298e-03
1.811878e+02	-5.244323e-03
1.822344e+02	-5.305042e-03
1.832870e+02	-5.366465e-03
1.843456e+02	-5.428597e-03
1.854104e+02	-5.491449e-03
1.864813e+02	-5.555028e-03
1.875584e+02	-5.619343e-03
1.886418e+02	-5.684402e-03
1.897313e+02	-5.750213e-03
1.908272e+02	-5.816786e-03
1.919294e+02	-5.884129e-03
1.930380e+02	-5.952252e-03
1.941530e+02	-6.021162e-03
1.952744e+02	-6.090870e-03
1.964023e+02	-6.161384e-03
1.975367e+02	-6.232714e-03
1.986777e+02	-6.304869e-03
1.998252e+02	-6.377859e-03
2.009794e+02	-6.451693e-03
2.021403e+02	-6.526381e-03
2.033078e+02	-6.601933e-03
2.044821e+02	-6.678359e-03
2.056632e+02	-6.755669e-03
2.068511e+02	-6.833874e-03
2.080459e+02	-6.912983e-03
2.092475e+02	-6.993006e-03
2.104561e+02	-7.073956e-03
2.116717e+02	-7.155842e-03
2.128943e+02	-7.238675e-03
2.141240e+02	-7.322466e-03
2.153608e+02	-7.407226e-03
2.166047e+02	-7.492966e-03
2.178558e+02	-7.579698e-03
2.191141e+02	-7.667433e-03
2.203797e+02	-7.756183e-03
2.216526e+02	-7.845959e-03
2.229329e+02	-7.936773e-03
2.242205e+02	-8.028637e-03
2.255156e+02	-8.121564e-03
2.268182e+02	-8.215565e-03
2.281283e+02	-8.310653e-03
2.294459e+02	-8.406840e-03
2.307712e+02	-8.504140e-03
2.321041e+02	-8.602565e-03
2.334447e+02	-8.702127e-03
2.347931e+02	-8.802841e-03
2.361493e+02	-8.904719e-03
2.375133e+02	-9.007775e-03
2.388851e+02	-9.112023e-03
2.402649e+02	-9.217476e-03
2.416527e+02	-9.324147e-03
2.430484e+02	-9.432052e-03
2.444523e+02	-9.541205e-03
2.458642e+02	-9.651619e-03
2.472843e+02	-9.763309e-03
2.487126e+02	-9.876290e-03
2.501492e+02	-9.990577e-03
2.515940e+02	-1.010619e-02
2.530472e+02	-1.022313e-02
2.545088e+02	-1.034143e-02
2.559789e+02	-1.046109e-02
2.574574e+02	-1.058214e-02
2.589444e+02	-1.070458e-02
2.604401e+02	-1.082844e-02
2.619444e+02	-1.095373e-02
2.634574e+02	-1.108047e-02
2.649791e+02	-1.120868e-02
2.665096e+02	-1.133836e-02
2.680489e+02	-1.146954e-02
2.695972e+02	-1.160224e-02
2.711544e+02	-1.173648e-02
2.727205e+02	-1.187226e-02
2.742958e+02	-1.200961e-02
2.758801e+02	-1.214855e-02
2.774736e+02	-1.228910e-02
2.790762e+02	-1.243126e-02
2.806882e+02	-1.257507e-02
2.823094e+02	-1.272054e-02
2.839400e+02	-1.286770e-02
2.855800e+02	-1.301655e-02
2.872295e+02	-1.316712e-02
2.888886e+02	-1.331943e-02
2.905572e+02	-1.347350e-02
2.922354e+02	-1.362934e-02
2.939234e+02	-1.378699e-02
2.956211e+02	-1.394646e-02
2.973286e+02	-1.410777e-02
2.990459e+02	-1.427094e-02
3.007732e+02	-1.443600e-02
3.025104e+02	-1.460296e-02
3.042577e+02	-1.477185e-02
3.060151e+02	-1.494269e-02
3.077826e+02	-1.511550e-02
3.095604e+02	-1.529031e-02
3.113484e+02	-1.546714e-02
3.131467e+02	-1.564600e-02
3.149554e+02	-1.582694e-02
3.167746e+02	-1.600996e-02
3.186043e+02	-1.619509e-02
3.204445e+02	-1.638236e-02
3.222954e+02	-1.657179e-02
3.241570e+02	-1.676340e-02
3.260293e+02	-1.695723e-02
3.279124e+02	-1.715329e-02
3.298064e+02	-1.735162e-02
3.317114e+02	-1.755224e-02
3.336273e+02	-1.775517e-02
3.355544e+02	-1.796044e-02
3.374925e+02	-1.816808e-02
3.394418e+02	-1.837811e-02
3.414024e+02	-1.859057e-02
3.433744e+02	-1.880548e-02
3.453577e+02	-1.902287e-02
3.473525e+02	-1.924276e-02
3.493588e+02	-1.946519e-02
3.513766e+02	-1.969019e-02
3.534062e+02	-1.991778e-02
3.554474e+02	-2.014799e-02
3.575005e+02	-2.038086e-02
3.595654e+02	-2.061642e-02
3.616422e+02	-2.085469e-02
3.637311e+02	-2.109571e-02
3.658320e+02	-2.133950e-02
3.679450e+02	-2.158611e-02
3.700702e+02	-2.183556e-02
3.722077e+02	-2.208788e-02
3.743576e+02	-2.234312e-02
3.765199e+02	-2.260129e-02
3.786946e+02	-2.286244e-02
3.808820e+02	-2.312660e-02
3.830819e+02	-2.339380e-02
3.852946e+02	-2.366409e-02
3.875200e+02	-2.393748e-02
3.897583e+02	-2.421403e-02
3.920096e+02	-2.449376e-02
3.942738e+02	-2.477671e-02
3.965511e+02	-2.506293e-02
3.988416e+02	-2.535244e-02
4.011452e+02	-2.564528e-02
4.034622e+02	-2.594150e-02
4.057926e+02	-2.624112e-02
4.081365e+02	-2.654420e-02
4.104938e+02	-2.685077e-02
4.128648e+02	-2.716087e-02
4.152495e+02	-2.747453e-02
4.176480e+02	-2.779181e-02
4.200603e+02	-2.811274e-02
4.224866e+02	-2.843736e-02
4.249268e+02	-2.876572e-02
4.273812e+02	-2.909786e-02
4.298497e+02	-2.943382e-02
4.323325e+02	-2.977365e-02
4.348297e+02	-3.011738e-02
4.373412e+02	-3.046507e-02
4.398673e+02	-3.081676e-02
4.424079e+02	-3.117249e-02
4.449633e+02	-3.153232e-02
4.475334e+02	-3.189628e-02
4.501183e+02	-3.226443e-02
4.527182e+02	-3.263682e-02
4.553330e+02	-3.301348e-02
4.579630e+02	-3.339447e-02
4.606082e+02	-3.377985e-02
4.632687e+02	-3.416965e-02
4.659445e+02	-3.456394e-02
4.686358e+02	-3.496275e-02
4.713426e+02	-3.536615e-02
4.740650e+02	-3.577418e-02
4.768032e+02	-3.618690e-02
4.795572e+02	-3.660437e-02
4.823271e+02	-3.702662e-02
4.851130e+02	-3.745373e-02
4.879150e+02	-3.788574e-02
4.907332e+02	-3.832272e-02
4.935676e+02	-3.876471e-02
4.964185e+02	-3.921177e-02
4.992858e+02	-3.966397e-02
5.021696e+02	-4.012136e-02
5.050701e+02	-4.058400e-02
5.079874e+02	-4.105195e-02
5.109215e+02	-4.152527e-02
5.138726e+02	-4.200401e-02
5.168407e+02	-4.248825e-02
5.198259e+02	-4.297805e-02
5.228284e+02	-4.347346e-02
5.258482e+02	-4.397456e-02
5.288855e+02	-4.448140e-02
5.319403e+02	-4.499405e-02
5.350128e+02	-4.551258e-02
5.381030e+02	-4.603705e-02
5.412111e+02	-4.656754e-02
5.443371e+02	-4.710410e-02
5.474812e+02	-4.764681e-02
5.506434e+02	-4.819575e-02
5.538239e+02	-4.875096e-02
5.570228e+02	-4.931254e-02
5.602401e+02	-4.988055e-02
5.634760e+02	-5.045507e-02
5.667306e+02	-5.103616e-02
5.700040e+02	-5.162391e-02
5.732964e+02	-5.221838e-02
5.766077e+02	-5.281966e-02
5.799382e+02	-5.342782e-02
5.832879e+02	-5.404293e-02
5.866569e+02	-5.466509e-02
5.900454e+02	-5.529436e-02
5.934535e+02	-5.593082e-02
5.968813e+02	-5.657457e-02
6.003288e+02	-5.722567e-02
6.037963e+02	-5.788422e-02
6.072838e+02	-5.855030e-02
6.107914e+02	-5.922399e-02
6.143194e+02	-5.990537e-02
6.178676e+02	-6.059454e-02
6.214364e+02	-6.129159e-02
6.250258e+02	-6.199659e-02
6.286359e+02	-6.270964e-02
6.322669e+02	-6.343084e-02
6.359189e+02	-6.416027e-02
6.395919e+02	-6.489802e-02
6.432862e+02	-6.564419e-02
6.470017e+02	-6.639888e-02
6.507388e+02	-6.716217e-02
6.544974e+02	-6.793417e-02
6.582778e+02	-6.871497e-02
6.620800e+02	-6.950468e-02
6.659041e+02	-7.030339e-02
6.697504e+02	-7.111120e-02
6.736188e+02	-7.192821e-02
6.775096e+02	-7.275454e-02
6.814229e+02	-7.359027e-02
6.853587e+02	-7.443552e-02
6.893173e+02	-7.529040e-02
6.932988e+02	-7.615501e-02
6.973033e+02	-7.702946e-02
7.013309e+02	-7.791386e-02
