Frequency(Hz)	Magnitude(dB)
1.000000e+01	-2.191864e+00
1.005776e+01	-2.211787e+00
1.011585e+01	-2.231527e+00
1.017428e+01	-2.251755e+00
1.023305e+01	-2.271925e+00
1.029215e+01	-2.292665e+00
1.035160e+01	-2.313127e+00
1.041139e+01	-2.333785e+00
1.047153e+01	-2.354937e+00
1.053201e+01	-2.375570e+00
1.059284e+01	-2.396694e+00
1.065403e+01	-2.418123e+00
1.071556e+01	-2.439737e+00
1.077746e+01	-2.461036e+00
1.083971e+01	-2.482758e+00
1.090232e+01	-2.505036e+00
1.096529e+01	-2.526741e+00
1.102862e+01	-2.549020e+00
1.109232e+01	-2.571117e+00
1.115639e+01	-2.593590e+00
1.122083e+01	-2.615963e+00
1.128564e+01	-2.638889e+00
1.135083e+01	-2.661796e+00
1.141639e+01	-2.684862e+00
1.148233e+01	-2.707595e+00
1.154865e+01	-2.731110e+00
1.161536e+01	-2.754505e+00
1.168245e+01	-2.777835e+00
1.174992e+01	-2.801829e+00
1.181779e+01	-2.825795e+00
1.188605e+01	-2.849582e+00
1.195470e+01	-2.873882e+00
1.202375e+01	-2.898044e+00
1.209320e+01	-2.922349e+00
1.216305e+01	-2.947220e+00
1.223330e+01	-2.971906e+00
1.230396e+01	-2.996575e+00
1.237503e+01	-3.021759e+00
1.244651e+01	-3.046826e+00
1.251840e+01	-3.071875e+00
1.259070e+01	-3.097597e+00
1.266343e+01	-3.122981e+00
1.273657e+01	-3.148704e+00
1.281014e+01	-3.174597e+00
1.288413e+01	-3.201042e+00
1.295855e+01	-3.226944e+00
1.303339e+01	-3.253344e+00
1.310867e+01	-3.279884e+00
1.318439e+01	-3.305956e+00
1.326054e+01	-3.333084e+00
1.333713e+01	-3.359579e+00
1.341417e+01	-3.386955e+00
1.349165e+01	-3.414188e+00
1.356958e+01	-3.441246e+00
1.364795e+01	-3.468807e+00
1.372678e+01	-3.496398e+00
1.380607e+01	-3.524142e+00
1.388581e+01	-3.552084e+00
1.396602e+01	-3.580022e+00
1.404668e+01	-3.608121e+00
1.412782e+01	-3.636478e+00
1.420942e+01	-3.665143e+00
1.429149e+01	-3.693497e+00
1.437404e+01	-3.722174e+00
1.445706e+01	-3.750837e+00
1.454057e+01	-3.780419e+00
1.462455e+01	-3.809190e+00
1.470902e+01	-3.838550e+00
1.479398e+01	-3.867875e+00
1.487943e+01	-3.897628e+00
1.496537e+01	-3.926962e+00
1.505181e+01	-3.956854e+00
1.513875e+01	-3.987013e+00
1.522619e+01	-4.017120e+00
1.531414e+01	-4.047417e+00
1.540259e+01	-4.078150e+00
1.549156e+01	-4.108588e+00
1.558103e+01	-4.138859e+00
1.567103e+01	-4.169793e+00
1.576155e+01	-4.200980e+00
1.585258e+01	-4.231602e+00
1.594415e+01	-4.263126e+00
1.603624e+01	-4.294200e+00
1.612886e+01	-4.325962e+00
1.622202e+01	-4.357390e+00
1.631572e+01	-4.389117e+00
1.640996e+01	-4.421129e+00
1.650474e+01	-4.453103e+00
1.660008e+01	-4.485364e+00
1.669596e+01	-4.517545e+00
1.679239e+01	-4.549785e+00
1.688938e+01	-4.582677e+00
1.698694e+01	-4.615280e+00
1.708505e+01	-4.648174e+00
1.718373e+01	-4.680877e+00
1.728299e+01	-4.714002e+00
1.738281e+01	-4.747044e+00
1.748322e+01	-4.780454e+00
1.758420e+01	-4.814047e+00
1.768576e+01	-4.847404e+00
1.778792e+01	-4.881182e+00
1.789066e+01	-4.915095e+00
1.799399e+01	-4.949105e+00
1.809793e+01	-4.983310e+00
1.820246e+01	-5.017389e+00
1.830760e+01	-5.051529e+00
1.841334e+01	-5.086437e+00
1.851969e+01	-5.120535e+00
1.862666e+01	-5.155307e+00
1.873425e+01	-5.190303e+00
1.884246e+01	-5.225287e+00
1.895129e+01	-5.260264e+00
1.906075e+01	-5.295512e+00
1.917085e+01	-5.330941e+00
1.928158e+01	-5.366269e+00
1.939295e+01	-5.401600e+00
1.950496e+01	-5.437196e+00
1.961762e+01	-5.472791e+00
1.973093e+01	-5.509003e+00
1.984490e+01	-5.544986e+00
1.995952e+01	-5.581129e+00
2.007480e+01	-5.617438e+00
2.019076e+01	-5.653579e+00
2.030738e+01	-5.690495e+00
2.042467e+01	-5.726616e+00
2.054264e+01	-5.763722e+00
2.066130e+01	-5.800652e+00
2.078064e+01	-5.837333e+00
2.090066e+01	-5.874381e+00
2.102139e+01	-5.911566e+00
2.114280e+01	-5.948828e+00
2.126492e+01	-5.985852e+00
2.138775e+01	-6.023487e+00
2.151128e+01	-6.061159e+00
2.163553e+01	-6.098370e+00
2.176050e+01	-6.136575e+00
2.188619e+01	-6.174508e+00
2.201260e+01	-6.212672e+00
2.213974e+01	-6.250668e+00
2.226762e+01	-6.288662e+00
2.239624e+01	-6.326986e+00
2.252560e+01	-6.365453e+00
2.265571e+01	-6.404211e+00
2.278656e+01	-6.442821e+00
2.291818e+01	-6.481497e+00
2.305055e+01	-6.520244e+00
2.318369e+01	-6.559160e+00
2.331760e+01	-6.598263e+00
2.345228e+01	-6.637477e+00
2.358774e+01	-6.676579e+00
2.372398e+01	-6.715814e+00
2.386101e+01	-6.754998e+00
2.399883e+01	-6.794876e+00
2.413745e+01	-6.834311e+00
2.427686e+01	-6.873875e+00
2.441709e+01	-6.914051e+00
2.455812e+01	-6.953526e+00
2.469997e+01	-6.993914e+00
2.484263e+01	-7.033783e+00
2.498612e+01	-7.074188e+00
2.513044e+01	-7.114275e+00
2.527559e+01	-7.155219e+00
2.542158e+01	-7.194841e+00
2.556842e+01	-7.235354e+00
2.571610e+01	-7.276419e+00
2.586463e+01	-7.317071e+00
2.601403e+01	-7.357780e+00
2.616428e+01	-7.398274e+00
2.631541e+01	-7.439566e+00
2.646740e+01	-7.480996e+00
2.662028e+01	-7.521666e+00
2.677404e+01	-7.562598e+00
2.692868e+01	-7.604367e+00
2.708422e+01	-7.645903e+00
2.724066e+01	-7.687183e+00
2.739800e+01	-7.728409e+00
2.755625e+01	-7.770260e+00
2.771541e+01	-7.811996e+00
2.787550e+01	-7.854163e+00
2.803650e+01	-7.895668e+00
2.819844e+01	-7.937683e+00
2.836131e+01	-7.979985e+00
2.852513e+01	-8.021772e+00
2.868989e+01	-8.063734e+00
2.885560e+01	-8.106339e+00
2.902227e+01	-8.148421e+00
2.918990e+01	-8.190785e+00
2.935850e+01	-8.233894e+00
2.952807e+01	-8.276022e+00
2.969863e+01	-8.318609e+00
2.987016e+01	-8.361310e+00
3.004269e+01	-8.403899e+00
3.021622e+01	-8.446458e+00
3.039075e+01	-8.489954e+00
3.056628e+01	-8.532652e+00
3.074283e+01	-8.575933e+00
3.092040e+01	-8.618586e+00
3.109900e+01	-8.661962e+00
3.127862e+01	-8.705455e+00
3.145929e+01	-8.748351e+00
3.164099e+01	-8.792140e+00
3.182375e+01	-8.835363e+00
3.200756e+01	-8.879588e+00
3.219244e+01	-8.922674e+00
3.237838e+01	-8.966277e+00
3.256540e+01	-9.009798e+00
3.275349e+01	-9.053814e+00
3.294268e+01	-9.097580e+00
3.313295e+01	-9.141588e+00
3.332433e+01	-9.185295e+00
3.351681e+01	-9.229221e+00
3.371040e+01	-9.273447e+00
3.390511e+01	-9.318364e+00
3.410094e+01	-9.361790e+00
3.429791e+01	-9.406367e+00
3.449601e+01	-9.450622e+00
3.469526e+01	-9.494852e+00
3.489566e+01	-9.539262e+00
3.509721e+01	-9.583789e+00
3.529993e+01	-9.628284e+00
3.550382e+01	-9.672763e+00
3.570889e+01	-9.717556e+00
3.591515e+01	-9.761918e+00
3.612259e+01	-9.807211e+00
3.633123e+01	-9.851781e+00
3.654108e+01	-9.897000e+00
3.675214e+01	-9.941570e+00
3.696442e+01	-9.987052e+00
3.717792e+01	-1.003126e+01
3.739266e+01	-1.007658e+01
3.760864e+01	-1.012167e+01
3.782587e+01	-1.016672e+01
3.804435e+01	-1.021258e+01
3.826409e+01	-1.025794e+01
3.848510e+01	-1.030312e+01
3.870739e+01	-1.034813e+01
3.893096e+01	-1.039351e+01
3.915583e+01	-1.043930e+01
3.938199e+01	-1.048460e+01
3.960946e+01	-1.053039e+01
3.983824e+01	-1.057570e+01
4.006834e+01	-1.062165e+01
4.029978e+01	-1.066729e+01
4.053255e+01	-1.071340e+01
4.076666e+01	-1.075911e+01
4.100213e+01	-1.080507e+01
4.123896e+01	-1.085010e+01
4.147715e+01	-1.089636e+01
4.171672e+01	-1.094252e+01
4.195767e+01	-1.098826e+01
4.220002e+01	-1.103470e+01
4.244377e+01	-1.108091e+01
4.268892e+01	-1.112717e+01
4.293549e+01	-1.117295e+01
4.318348e+01	-1.121880e+01
4.343291e+01	-1.126556e+01
4.368377e+01	-1.131241e+01
4.393609e+01	-1.135815e+01
4.418986e+01	-1.140421e+01
4.444510e+01	-1.145059e+01
4.470182e+01	-1.149819e+01
4.496001e+01	-1.154431e+01
4.521970e+01	-1.159044e+01
4.548089e+01	-1.163748e+01
4.574358e+01	-1.168308e+01
4.600779e+01	-1.173044e+01
4.627353e+01	-1.177693e+01
4.654081e+01	-1.182390e+01
4.680963e+01	-1.187002e+01
4.708000e+01	-1.191807e+01
4.735193e+01	-1.196406e+01
4.762543e+01	-1.201110e+01
4.790051e+01	-1.205818e+01
4.817719e+01	-1.210505e+01
4.845545e+01	-1.215194e+01
4.873533e+01	-1.219841e+01
4.901682e+01	-1.224592e+01
4.929994e+01	-1.229295e+01
4.958470e+01	-1.234014e+01
4.987110e+01	-1.238759e+01
5.015915e+01	-1.243371e+01
5.044887e+01	-1.248149e+01
5.074026e+01	-1.252916e+01
5.103333e+01	-1.257600e+01
5.132810e+01	-1.262294e+01
5.162457e+01	-1.267022e+01
5.192275e+01	-1.271829e+01
5.222265e+01	-1.276520e+01
5.252429e+01	-1.281276e+01
5.282767e+01	-1.286016e+01
5.313280e+01	-1.290652e+01
5.343969e+01	-1.295457e+01
5.374836e+01	-1.300257e+01
5.405880e+01	-1.304981e+01
5.437105e+01	-1.309690e+01
5.468509e+01	-1.314534e+01
5.500095e+01	-1.319234e+01
5.531863e+01	-1.324027e+01
5.563815e+01	-1.328850e+01
5.595951e+01	-1.333596e+01
5.628273e+01	-1.338346e+01
5.660782e+01	-1.343168e+01
5.693479e+01	-1.347854e+01
5.726364e+01	-1.352686e+01
5.759439e+01	-1.357378e+01
5.792705e+01	-1.362248e+01
5.826164e+01	-1.367054e+01
5.859815e+01	-1.371766e+01
5.893662e+01	-1.376579e+01
5.927703e+01	-1.381484e+01
5.961941e+01	-1.386273e+01
5.996377e+01	-1.391017e+01
6.031012e+01	-1.395852e+01
6.065847e+01	-1.400635e+01
6.100883e+01	-1.405421e+01
6.136121e+01	-1.410145e+01
6.171563e+01	-1.415049e+01
6.207210e+01	-1.419883e+01
6.243063e+01	-1.424618e+01
6.279122e+01	-1.429409e+01
6.315390e+01	-1.434359e+01
6.351868e+01	-1.439182e+01
6.388556e+01	-1.443918e+01
6.425456e+01	-1.448827e+01
6.462569e+01	-1.453555e+01
6.499897e+01	-1.458345e+01
6.537440e+01	-1.463257e+01
6.575200e+01	-1.468089e+01
6.613178e+01	-1.472855e+01
6.651375e+01	-1.477697e+01
6.689793e+01	-1.482617e+01
6.728433e+01	-1.487374e+01
6.767297e+01	-1.492234e+01
6.806384e+01	-1.497067e+01
6.845698e+01	-1.501903e+01
6.885238e+01	-1.506772e+01
6.925007e+01	-1.511531e+01
6.965005e+01	-1.516436e+01
7.005235e+01	-1.521339e+01
7.045697e+01	-1.526208e+01
7.086393e+01	-1.531107e+01
7.127323e+01	-1.535834e+01
7.168490e+01	-1.540772e+01
7.209895e+01	-1.545706e+01
7.251539e+01	-1.550474e+01
7.293424e+01	-1.555299e+01
7.335551e+01	-1.560150e+01
7.377920e+01	-1.565127e+01
7.420535e+01	-1.569877e+01
7.463396e+01	-1.574872e+01
7.506504e+01	-1.579600e+01
7.549861e+01	-1.584626e+01
7.593469e+01	-1.589423e+01
7.637328e+01	-1.594292e+01
7.681441e+01	-1.599060e+01
7.725809e+01	-1.604035e+01
7.770433e+01	-1.608817e+01
7.815315e+01	-1.613792e+01
7.860456e+01	-1.618750e+01
7.905857e+01	-1.623501e+01
7.951521e+01	-1.628475e+01
7.997449e+01	-1.633408e+01
8.043642e+01	-1.638352e+01
8.090102e+01	-1.643148e+01
8.136830e+01	-1.648052e+01
8.183828e+01	-1.653018e+01
8.231097e+01	-1.657862e+01
8.278640e+01	-1.662731e+01
8.326457e+01	-1.667504e+01
8.374550e+01	-1.672416e+01
8.422921e+01	-1.677400e+01
8.471572e+01	-1.682269e+01
8.520503e+01	-1.687159e+01
8.569717e+01	-1.692062e+01
8.619215e+01	-1.697058e+01
8.669000e+01	-1.701786e+01
8.719071e+01	-1.706822e+01
8.769432e+01	-1.711722e+01
8.820084e+01	-1.716646e+01
8.871029e+01	-1.721585e+01
8.922267e+01	-1.726428e+01
8.973802e+01	-1.731319e+01
9.025634e+01	-1.736189e+01
9.077766e+01	-1.741181e+01
9.130199e+01	-1.746101e+01
9.182935e+01	-1.750913e+01
9.235975e+01	-1.755799e+01
9.289321e+01	-1.760722e+01
9.342976e+01	-1.765810e+01
9.396941e+01	-1.770661e+01
9.451217e+01	-1.775549e+01
9.505807e+01	-1.780412e+01
9.560712e+01	-1.785489e+01
9.615934e+01	-1.790267e+01
9.671476e+01	-1.795290e+01
9.727338e+01	-1.800172e+01
9.783522e+01	-1.805174e+01
9.840032e+01	-1.809895e+01
9.896867e+01	-1.815018e+01
9.954031e+01	-1.819850e+01
1.001153e+02	-1.824737e+01
1.006935e+02	-1.829662e+01
1.012751e+02	-1.834645e+01
1.018601e+02	-1.839615e+01
1.024484e+02	-1.844555e+01
1.030402e+02	-1.849414e+01
1.036353e+02	-1.854356e+01
1.042339e+02	-1.859291e+01
1.048360e+02	-1.864188e+01
1.054415e+02	-1.869196e+01
1.060505e+02	-1.874047e+01
1.066631e+02	-1.878925e+01
1.072791e+02	-1.884087e+01
1.078988e+02	-1.888886e+01
1.085220e+02	-1.893987e+01
1.091488e+02	-1.898873e+01
1.097793e+02	-1.903768e+01
1.104133e+02	-1.908693e+01
1.110511e+02	-1.913673e+01
1.116925e+02	-1.918635e+01
1.123376e+02	-1.923526e+01
1.129865e+02	-1.928343e+01
1.136391e+02	-1.933261e+01
1.142955e+02	-1.938404e+01
1.149556e+02	-1.943269e+01
1.156196e+02	-1.948381e+01
1.162874e+02	-1.953283e+01
1.169591e+02	-1.958229e+01
1.176347e+02	-1.963159e+01
1.183141e+02	-1.967993e+01
1.189975e+02	-1.972973e+01
1.196848e+02	-1.978096e+01
1.203761e+02	-1.982997e+01
1.210714e+02	-1.987800e+01
1.217707e+02	-1.992882e+01
1.224740e+02	-1.997822e+01
1.231814e+02	-2.002877e+01
1.238929e+02	-2.007514e+01
1.246085e+02	-2.012637e+01
1.253283e+02	-2.017557e+01
1.260522e+02	-2.022516e+01
1.267802e+02	-2.027405e+01
1.275125e+02	-2.032452e+01
1.282490e+02	-2.037410e+01
1.289898e+02	-2.042207e+01
1.297348e+02	-2.047368e+01
1.304842e+02	-2.052301e+01
1.312378e+02	-2.057115e+01
1.319959e+02	-2.062176e+01
1.327583e+02	-2.066954e+01
1.335251e+02	-2.072170e+01
1.342963e+02	-2.077173e+01
1.350720e+02	-2.082130e+01
1.358522e+02	-2.086864e+01
1.366368e+02	-2.091930e+01
1.374260e+02	-2.096947e+01
1.382198e+02	-2.101898e+01
1.390182e+02	-2.106673e+01
1.398211e+02	-2.111880e+01
1.406287e+02	-2.116712e+01
1.414410e+02	-2.121722e+01
1.422579e+02	-2.126747e+01
1.430796e+02	-2.131795e+01
1.439060e+02	-2.136748e+01
1.447372e+02	-2.141489e+01
1.455732e+02	-2.146610e+01
1.464141e+02	-2.151780e+01
1.472597e+02	-2.156565e+01
1.481103e+02	-2.161643e+01
1.489658e+02	-2.166506e+01
1.498262e+02	-2.171639e+01
1.506916e+02	-2.176630e+01
1.515620e+02	-2.181389e+01
1.524374e+02	-2.186400e+01
1.533179e+02	-2.191492e+01
1.542034e+02	-2.196189e+01
1.550941e+02	-2.201232e+01
1.559899e+02	-2.206402e+01
1.568909e+02	-2.211395e+01
1.577971e+02	-2.216179e+01
1.587085e+02	-2.221118e+01
1.596252e+02	-2.226146e+01
1.605472e+02	-2.231197e+01
1.614745e+02	-2.236227e+01
1.624072e+02	-2.241057e+01
1.633453e+02	-2.245984e+01
1.642887e+02	-2.250966e+01
1.652377e+02	-2.256062e+01
1.661921e+02	-2.261099e+01
1.671520e+02	-2.266051e+01
1.681175e+02	-2.271135e+01
1.690885e+02	-2.275888e+01
1.700651e+02	-2.280888e+01
1.710474e+02	-2.286037e+01
1.720354e+02	-2.290924e+01
1.730291e+02	-2.295911e+01
1.740285e+02	-2.300747e+01
1.750337e+02	-2.305782e+01
1.760446e+02	-2.311010e+01
1.770615e+02	-2.315757e+01
1.780842e+02	-2.320517e+01
1.791128e+02	-2.326019e+01
1.801473e+02	-2.330680e+01
1.811878e+02	-2.335580e+01
1.822344e+02	-2.340735e+01
1.832870e+02	-2.345834e+01
1.843456e+02	-2.350443e+01
1.854104e+02	-2.355873e+01
1.864813e+02	-2.360468e+01
1.875584e+02	-2.365609e+01
1.886418e+02	-2.370665e+01
1.897313e+02	-2.375554e+01
1.908272e+02	-2.380426e+01
1.919294e+02	-2.385525e+01
1.930380e+02	-2.390485e+01
1.941530e+02	-2.395350e+01
1.952744e+02	-2.400438e+01
1.964023e+02	-2.405404e+01
1.975367e+02	-2.410281e+01
1.986777e+02	-2.415222e+01
1.998252e+02	-2.420502e+01
2.009794e+02	-2.425248e+01
2.021403e+02	-2.430404e+01
2.033078e+02	-2.435325e+01
2.044821e+02	-2.440671e+01
2.056632e+02	-2.445443e+01
2.068511e+02	-2.450380e+01
2.080459e+02	-2.455549e+01
2.092475e+02	-2.460310e+01
2.104561e+02	-2.465288e+01
2.116717e+02	-2.470276e+01
2.128943e+02	-2.475238e+01
2.141240e+02	-2.480155e+01
2.153608e+02	-2.485343e+01
2.166047e+02	-2.490340e+01
2.178558e+02	-2.495292e+01
2.191141e+02	-2.500139e+01
2.203797e+02	-2.504809e+01
2.216526e+02	-2.510431e+01
2.229329e+02	-2.515284e+01
2.242205e+02	-2.520119e+01
2.255156e+02	-2.525514e+01
2.268182e+02	-2.530385e+01
2.281283e+02	-2.534999e+01
2.294459e+02	-2.540288e+01
2.307712e+02	-2.545202e+01
2.321041e+02	-2.550230e+01
2.334447e+02	-2.555358e+01
2.347931e+02	-2.560063e+01
2.361493e+02	-2.565162e+01
2.375133e+02	-2.570210e+01
2.388851e+02	-2.575139e+01
2.402649e+02	-2.580121e+01
2.416527e+02	-2.585186e+01
2.430484e+02	-2.590005e+01
2.444523e+02	-2.595066e+01
2.458642e+02	-2.600112e+01
2.472843e+02	-2.604756e+01
2.487126e+02	-2.610363e+01
2.501492e+02	-2.615058e+01
2.515940e+02	-2.619919e+01
2.530472e+02	-2.625499e+01
2.545088e+02	-2.630184e+01
2.559789e+02	-2.635201e+01
2.574574e+02	-2.640194e+01
2.589444e+02	-2.644784e+01
2.604401e+02	-2.649860e+01
2.619444e+02	-2.654628e+01
2.634574e+02	-2.659864e+01
2.649791e+02	-2.665147e+01
2.665096e+02	-2.669956e+01
2.680489e+02	-2.675100e+01
2.695972e+02	-2.679669e+01
2.711544e+02	-2.685035e+01
2.727205e+02	-2.690204e+01
2.742958e+02	-2.694693e+01
2.758801e+02	-2.700368e+01
2.774736e+02	-2.704594e+01
2.790762e+02	-2.710340e+01
2.806882e+02	-2.714963e+01
2.823094e+02	-2.720054e+01
2.839400e+02	-2.724788e+01
2.855800e+02	-2.730217e+01
2.872295e+02	-2.735189e+01
2.888886e+02	-2.739897e+01
2.905572e+02	-2.744805e+01
2.922354e+02	-2.750098e+01
2.939234e+02	-2.754696e+01
2.956211e+02	-2.759945e+01
2.973286e+02	-2.765078e+01
2.990459e+02	-2.769721e+01
3.007732e+02	-2.774805e+01
3.025104e+02	-2.780295e+01
3.042577e+02	-2.785261e+01
3.060151e+02	-2.789906e+01
3.077826e+02	-2.795001e+01
3.095604e+02	-2.799545e+01
3.113484e+02	-2.805043e+01
3.131467e+02	-2.810041e+01
3.149554e+02	-2.814858e+01
3.167746e+02	-2.819815e+01
3.186043e+02	-2.824939e+01
3.204445e+02	-2.829898e+01
3.222954e+02	-2.834673e+01
3.241570e+02	-2.840009e+01
3.260293e+02	-2.844928e+01
3.279124e+02	-2.850700e+01
3.298064e+02	-2.854848e+01
3.317114e+02	-2.860069e+01
3.336273e+02	-2.865006e+01
3.355544e+02	-2.870272e+01
3.374925e+02	-2.875128e+01
3.394418e+02	-2.880095e+01
3.414024e+02	-2.885035e+01
3.433744e+02	-2.890363e+01
3.453577e+02	-2.895624e+01
3.473525e+02	-2.899709e+01
3.493588e+02	-2.905002e+01
3.513766e+02	-2.910094e+01
3.534062e+02	-2.915020e+01
3.554474e+02	-2.919989e+01
3.575005e+02	-2.925357e+01
3.595654e+02	-2.930065e+01
3.616422e+02	-2.934955e+01
3.637311e+02	-2.940451e+01
3.658320e+02	-2.945151e+01
3.679450e+02	-2.950227e+01
3.700702e+02	-2.954792e+01
3.722077e+02	-2.960278e+01
3.743576e+02	-2.965318e+01
3.765199e+02	-2.970401e+01
3.786946e+02	-2.975336e+01
3.808820e+02	-2.980311e+01
3.830819e+02	-2.985658e+01
3.852946e+02	-2.990278e+01
3.875200e+02	-2.995125e+01
3.897583e+02	-3.000220e+01
3.920096e+02	-3.004996e+01
3.942738e+02	-3.010190e+01
3.965511e+02	-3.014849e+01
3.988416e+02	-3.020241e+01
4.011452e+02	-3.025908e+01
4.034622e+02	-3.030030e+01
4.057926e+02	-3.035116e+01
4.081365e+02	-3.040218e+01
4.104938e+02	-3.044981e+01
4.128648e+02	-3.050210e+01
4.152495e+02	-3.055364e+01
4.176480e+02	-3.059959e+01
4.200603e+02	-3.065564e+01
4.224866e+02	-3.070221e+01
4.249268e+02	-3.075417e+01
4.273812e+02	-3.080003e+01
4.298497e+02	-3.084639e+01
4.323325e+02	-3.090490e+01
4.348297e+02	-3.095444e+01
4.373412e+02	-3.100937e+01
4.398673e+02	-3.105130e+01
4.424079e+02	-3.110137e+01
4.449633e+02	-3.115267e+01
4.475334e+02	-3.120051e+01
4.501183e+02	-3.125167e+01
4.527182e+02	-3.130505e+01
4.553330e+02	-3.135562e+01
4.579630e+02	-3.140388e+01
4.606082e+02	-3.145287e+01
4.632687e+02	-3.150165e+01
4.659445e+02	-3.155645e+01
4.686358e+02	-3.160806e+01
4.713426e+02	-3.165510e+01
4.740650e+02	-3.170635e+01
4.768032e+02	-3.175169e+01
4.795572e+02	-3.180435e+01
4.823271e+02	-3.185658e+01
4.851130e+02	-3.191179e+01
4.879150e+02	-3.195641e+01
4.907332e+02	-3.201207e+01
4.935676e+02	-3.206469e+01
4.964185e+02	-3.210971e+01
4.992858e+02	-3.215851e+01
5.021696e+02	-3.220777e+01
5.050701e+02	-3.225931e+01
5.079874e+02	-3.230798e+01
5.109215e+02	-3.235378e+01
5.138726e+02	-3.241374e+01
5.168407e+02	-3.246325e+01
5.198259e+02	-3.250792e+01
5.228284e+02	-3.255745e+01
5.258482e+02	-3.260790e+01
5.288855e+02	-3.266367e+01
5.319403e+02	-3.271266e+01
5.350128e+02	-3.276007e+01
5.381030e+02	-3.281245e+01
5.412111e+02	-3.286008e+01
5.443371e+02	-3.291286e+01
5.474812e+02	-3.295836e+01
5.506434e+02	-3.301168e+01
5.538239e+02	-3.306481e+01
5.570228e+02	-3.311171e+01
5.602401e+02	-3.316401e+01
5.634760e+02	-3.321322e+01
5.667306e+02	-3.326043e+01
5.700040e+02	-3.331614e+01
5.732964e+02	-3.335610e+01
5.766077e+02	-3.340672e+01
5.799382e+02	-3.346435e+01
5.832879e+02	-3.351354e+01
5.866569e+02	-3.356567e+01
5.900454e+02	-3.360916e+01
5.934535e+02	-3.366544e+01
5.968813e+02	-3.371503e+01
6.003288e+02	-3.376069e+01
6.037963e+02	-3.381649e+01
6.072838e+02	-3.387045e+01
6.107914e+02	-3.391545e+01
6.143194e+02	-3.396732e+01
6.178676e+02	-3.401548e+01
6.214364e+02	-3.406770e+01
6.250258e+02	-3.412112e+01
6.286359e+02	-3.416973e+01
6.322669e+02	-3.421606e+01
6.359189e+02	-3.426872e+01
6.395919e+02	-3.432043e+01
6.432862e+02	-3.436909e+01
6.470017e+02	-3.442576e+01
6.507388e+02	-3.446938e+01
6.544974e+02	-3.451862e+01
6.582778e+02	-3.457746e+01
6.620800e+02	-3.462236e+01
6.659041e+02	-3.467182e+01
6.697504e+02	-3.472499e+01
6.736188e+02	-3.477386e+01
6.775096e+02	-3.482329e+01
6.814229e+02	-3.487574e+01
6.853587e+02	-3.491973e+01
6.893173e+02	-3.496620e+01
6.932988e+02	-3.502752e+01
6.973033e+02	-3.507535e+01
7.013309e+02	-3.512828e+01
