Frequency(Hz)	Magnitude(dB)
1.000000e+01	-2.168726e+00
1.005776e+01	-2.188339e+00
1.011585e+01	-2.208593e+00
1.017428e+01	-2.228535e+00
1.023305e+01	-2.248324e+00
1.029215e+01	-2.268875e+00
1.035160e+01	-2.289407e+00
1.041139e+01	-2.309620e+00
1.047153e+01	-2.330400e+00
1.053201e+01	-2.351409e+00
1.059284e+01	-2.372344e+00
1.065403e+01	-2.393630e+00
1.071556e+01	-2.414605e+00
1.077746e+01	-2.435941e+00
1.083971e+01	-2.457655e+00
1.090232e+01	-2.479322e+00
1.096529e+01	-2.501261e+00
1.102862e+01	-2.523097e+00
1.109232e+01	-2.545309e+00
1.115639e+01	-2.567665e+00
1.122083e+01	-2.589975e+00
1.128564e+01	-2.612381e+00
1.135083e+01	-2.635325e+00
1.141639e+01	-2.657968e+00
1.148233e+01	-2.681217e+00
1.154865e+01	-2.704314e+00
1.161536e+01	-2.727331e+00
1.168245e+01	-2.750953e+00
1.174992e+01	-2.774151e+00
1.181779e+01	-2.798027e+00
1.188605e+01	-2.821828e+00
1.195470e+01	-2.845751e+00
1.202375e+01	-2.869901e+00
1.209320e+01	-2.894078e+00
1.216305e+01	-2.918441e+00
1.223330e+01	-2.943122e+00
1.230396e+01	-2.967800e+00
1.237503e+01	-2.992602e+00
1.244651e+01	-3.017622e+00
1.251840e+01	-3.043018e+00
1.259070e+01	-3.068350e+00
1.266343e+01	-3.093150e+00
1.273657e+01	-3.118753e+00
1.281014e+01	-3.144701e+00
1.288413e+01	-3.170590e+00
1.295855e+01	-3.196604e+00
1.303339e+01	-3.222913e+00
1.310867e+01	-3.249057e+00
1.318439e+01	-3.275351e+00
1.326054e+01	-3.301997e+00
1.333713e+01	-3.328578e+00
1.341417e+01	-3.355533e+00
1.349165e+01	-3.382322e+00
1.356958e+01	-3.409740e+00
1.364795e+01	-3.436915e+00
1.372678e+01	-3.464242e+00
1.380607e+01	-3.491787e+00
1.388581e+01	-3.519902e+00
1.396602e+01	-3.547670e+00
1.404668e+01	-3.575538e+00
1.412782e+01	-3.603604e+00
1.420942e+01	-3.632140e+00
1.429149e+01	-3.660353e+00
1.437404e+01	-3.688736e+00
1.445706e+01	-3.717765e+00
1.454057e+01	-3.746425e+00
1.462455e+01	-3.775054e+00
1.470902e+01	-3.804301e+00
1.479398e+01	-3.833876e+00
1.487943e+01	-3.863396e+00
1.496537e+01	-3.892744e+00
1.505181e+01	-3.922481e+00
1.513875e+01	-3.952119e+00
1.522619e+01	-3.982022e+00
1.531414e+01	-4.012291e+00
1.540259e+01	-4.042550e+00
1.549156e+01	-4.072699e+00
1.558103e+01	-4.103616e+00
1.567103e+01	-4.134259e+00
1.576155e+01	-4.165014e+00
1.585258e+01	-4.195825e+00
1.594415e+01	-4.226930e+00
1.603624e+01	-4.258135e+00
1.612886e+01	-4.289282e+00
1.622202e+01	-4.320725e+00
1.631572e+01	-4.352420e+00
1.640996e+01	-4.383913e+00
1.650474e+01	-4.415568e+00
1.660008e+01	-4.447812e+00
1.669596e+01	-4.480098e+00
1.679239e+01	-4.512383e+00
1.688938e+01	-4.544721e+00
1.698694e+01	-4.577332e+00
1.708505e+01	-4.610032e+00
1.718373e+01	-4.642591e+00
1.728299e+01	-4.675939e+00
1.738281e+01	-4.708727e+00
1.748322e+01	-4.741863e+00
1.758420e+01	-4.775172e+00
1.768576e+01	-4.808451e+00
1.778792e+01	-4.842249e+00
1.789066e+01	-4.875792e+00
1.799399e+01	-4.909555e+00
1.809793e+01	-4.943499e+00
1.820246e+01	-4.977565e+00
1.830760e+01	-5.011748e+00
1.841334e+01	-5.045857e+00
1.851969e+01	-5.080713e+00
1.862666e+01	-5.115269e+00
1.873425e+01	-5.149727e+00
1.884246e+01	-5.184429e+00
1.895129e+01	-5.219363e+00
1.906075e+01	-5.254252e+00
1.917085e+01	-5.289923e+00
1.928158e+01	-5.325436e+00
1.939295e+01	-5.360382e+00
1.950496e+01	-5.396162e+00
1.961762e+01	-5.431469e+00
1.973093e+01	-5.467263e+00
1.984490e+01	-5.503360e+00
1.995952e+01	-5.539239e+00
2.007480e+01	-5.575505e+00
2.019076e+01	-5.611692e+00
2.030738e+01	-5.647973e+00
2.042467e+01	-5.684179e+00
2.054264e+01	-5.720816e+00
2.066130e+01	-5.757443e+00
2.078064e+01	-5.794373e+00
2.090066e+01	-5.831093e+00
2.102139e+01	-5.868379e+00
2.114280e+01	-5.905533e+00
2.126492e+01	-5.943055e+00
2.138775e+01	-5.980079e+00
2.151128e+01	-6.017515e+00
2.163553e+01	-6.055268e+00
2.176050e+01	-6.092772e+00
2.188619e+01	-6.130400e+00
2.201260e+01	-6.168697e+00
2.213974e+01	-6.206526e+00
2.226762e+01	-6.244610e+00
2.239624e+01	-6.282738e+00
2.252560e+01	-6.321245e+00
2.265571e+01	-6.359332e+00
2.278656e+01	-6.397869e+00
2.291818e+01	-6.436433e+00
2.305055e+01	-6.475159e+00
2.318369e+01	-6.513740e+00
2.331760e+01	-6.553104e+00
2.345228e+01	-6.591894e+00
2.358774e+01	-6.631005e+00
2.372398e+01	-6.670269e+00
2.386101e+01	-6.709668e+00
2.399883e+01	-6.749102e+00
2.413745e+01	-6.788152e+00
2.427686e+01	-6.827795e+00
2.441709e+01	-6.868239e+00
2.455812e+01	-6.907650e+00
2.469997e+01	-6.947305e+00
2.484263e+01	-6.987376e+00
2.498612e+01	-7.027487e+00
2.513044e+01	-7.067409e+00
2.527559e+01	-7.108108e+00
2.542158e+01	-7.147877e+00
2.556842e+01	-7.188426e+00
2.571610e+01	-7.228669e+00
2.586463e+01	-7.269935e+00
2.601403e+01	-7.310732e+00
2.616428e+01	-7.351350e+00
2.631541e+01	-7.392050e+00
2.646740e+01	-7.432973e+00
2.662028e+01	-7.474154e+00
2.677404e+01	-7.514976e+00
2.692868e+01	-7.556319e+00
2.708422e+01	-7.597427e+00
2.724066e+01	-7.639328e+00
2.739800e+01	-7.680406e+00
2.755625e+01	-7.721859e+00
2.771541e+01	-7.763308e+00
2.787550e+01	-7.805103e+00
2.803650e+01	-7.847055e+00
2.819844e+01	-7.889384e+00
2.836131e+01	-7.931314e+00
2.852513e+01	-7.972431e+00
2.868989e+01	-8.014724e+00
2.885560e+01	-8.057451e+00
2.902227e+01	-8.099343e+00
2.918990e+01	-8.141654e+00
2.935850e+01	-8.184216e+00
2.952807e+01	-8.226174e+00
2.969863e+01	-8.268943e+00
2.987016e+01	-8.311289e+00
3.004269e+01	-8.354486e+00
3.021622e+01	-8.397401e+00
3.039075e+01	-8.439963e+00
3.056628e+01	-8.482591e+00
3.074283e+01	-8.526068e+00
3.092040e+01	-8.568747e+00
3.109900e+01	-8.612099e+00
3.127862e+01	-8.655134e+00
3.145929e+01	-8.698371e+00
3.164099e+01	-8.741546e+00
3.182375e+01	-8.784816e+00
3.200756e+01	-8.828470e+00
3.219244e+01	-8.871970e+00
3.237838e+01	-8.915724e+00
3.256540e+01	-8.959149e+00
3.275349e+01	-9.002768e+00
3.294268e+01	-9.046726e+00
3.313295e+01	-9.090079e+00
3.332433e+01	-9.134359e+00
3.351681e+01	-9.178040e+00
3.371040e+01	-9.222397e+00
3.390511e+01	-9.266596e+00
3.410094e+01	-9.310117e+00
3.429791e+01	-9.354944e+00
3.449601e+01	-9.398887e+00
3.469526e+01	-9.443612e+00
3.489566e+01	-9.487488e+00
3.509721e+01	-9.531817e+00
3.529993e+01	-9.576869e+00
3.550382e+01	-9.621180e+00
3.570889e+01	-9.665807e+00
3.591515e+01	-9.710475e+00
3.612259e+01	-9.755116e+00
3.633123e+01	-9.799817e+00
3.654108e+01	-9.844311e+00
3.675214e+01	-9.889383e+00
3.696442e+01	-9.933950e+00
3.717792e+01	-9.979249e+00
3.739266e+01	-1.002486e+01
3.760864e+01	-1.006965e+01
3.782587e+01	-1.011461e+01
3.804435e+01	-1.015998e+01
3.826409e+01	-1.020485e+01
3.848510e+01	-1.024986e+01
3.870739e+01	-1.029556e+01
3.893096e+01	-1.034093e+01
3.915583e+01	-1.038657e+01
3.938199e+01	-1.043135e+01
3.960946e+01	-1.047823e+01
3.983824e+01	-1.052341e+01
4.006834e+01	-1.056886e+01
4.029978e+01	-1.061390e+01
4.053255e+01	-1.065980e+01
4.076666e+01	-1.070535e+01
4.100213e+01	-1.075118e+01
4.123896e+01	-1.079708e+01
4.147715e+01	-1.084299e+01
4.171672e+01	-1.088874e+01
4.195767e+01	-1.093496e+01
4.220002e+01	-1.098146e+01
4.244377e+01	-1.102696e+01
4.268892e+01	-1.107307e+01
4.293549e+01	-1.111911e+01
4.318348e+01	-1.116537e+01
4.343291e+01	-1.121180e+01
4.368377e+01	-1.125782e+01
4.393609e+01	-1.130392e+01
4.418986e+01	-1.135071e+01
4.444510e+01	-1.139640e+01
4.470182e+01	-1.144359e+01
4.496001e+01	-1.149095e+01
4.521970e+01	-1.153637e+01
4.548089e+01	-1.158337e+01
4.574358e+01	-1.162953e+01
4.600779e+01	-1.167621e+01
4.627353e+01	-1.172302e+01
4.654081e+01	-1.176980e+01
4.680963e+01	-1.181681e+01
4.708000e+01	-1.186335e+01
4.735193e+01	-1.190972e+01
4.762543e+01	-1.195625e+01
4.790051e+01	-1.200391e+01
4.817719e+01	-1.205005e+01
4.845545e+01	-1.209725e+01
4.873533e+01	-1.214361e+01
4.901682e+01	-1.219189e+01
4.929994e+01	-1.223803e+01
4.958470e+01	-1.228469e+01
4.987110e+01	-1.233217e+01
5.015915e+01	-1.237980e+01
5.044887e+01	-1.242724e+01
5.074026e+01	-1.247378e+01
5.103333e+01	-1.252073e+01
5.132810e+01	-1.256832e+01
5.162457e+01	-1.261557e+01
5.192275e+01	-1.266293e+01
5.222265e+01	-1.271063e+01
5.252429e+01	-1.275802e+01
5.282767e+01	-1.280435e+01
5.313280e+01	-1.285245e+01
5.343969e+01	-1.290044e+01
5.374836e+01	-1.294743e+01
5.405880e+01	-1.299439e+01
5.437105e+01	-1.304209e+01
5.468509e+01	-1.309049e+01
5.500095e+01	-1.313706e+01
5.531863e+01	-1.318585e+01
5.563815e+01	-1.323296e+01
5.595951e+01	-1.328070e+01
5.628273e+01	-1.332793e+01
5.660782e+01	-1.337630e+01
5.693479e+01	-1.342338e+01
5.726364e+01	-1.347159e+01
5.759439e+01	-1.351985e+01
5.792705e+01	-1.356733e+01
5.826164e+01	-1.361391e+01
5.859815e+01	-1.366269e+01
5.893662e+01	-1.371049e+01
5.927703e+01	-1.375853e+01
5.961941e+01	-1.380656e+01
5.996377e+01	-1.385471e+01
6.031012e+01	-1.390210e+01
6.065847e+01	-1.395013e+01
6.100883e+01	-1.399860e+01
6.136121e+01	-1.404586e+01
6.171563e+01	-1.409455e+01
6.207210e+01	-1.414306e+01
6.243063e+01	-1.418953e+01
6.279122e+01	-1.423888e+01
6.315390e+01	-1.428726e+01
6.351868e+01	-1.433542e+01
6.388556e+01	-1.438277e+01
6.425456e+01	-1.443133e+01
6.462569e+01	-1.448063e+01
6.499897e+01	-1.452782e+01
6.537440e+01	-1.457583e+01
6.575200e+01	-1.462400e+01
6.613178e+01	-1.467246e+01
6.651375e+01	-1.472085e+01
6.689793e+01	-1.476903e+01
6.728433e+01	-1.481795e+01
6.767297e+01	-1.486645e+01
6.806384e+01	-1.491415e+01
6.845698e+01	-1.496270e+01
6.885238e+01	-1.501203e+01
6.925007e+01	-1.506019e+01
6.965005e+01	-1.510827e+01
7.005235e+01	-1.515787e+01
7.045697e+01	-1.520509e+01
7.086393e+01	-1.525500e+01
7.127323e+01	-1.530269e+01
7.168490e+01	-1.535120e+01
7.209895e+01	-1.539972e+01
7.251539e+01	-1.544895e+01
7.293424e+01	-1.549669e+01
7.335551e+01	-1.554573e+01
7.377920e+01	-1.559469e+01
7.420535e+01	-1.564310e+01
7.463396e+01	-1.569121e+01
7.506504e+01	-1.573955e+01
7.549861e+01	-1.578895e+01
7.593469e+01	-1.583762e+01
7.637328e+01	-1.588632e+01
7.681441e+01	-1.593609e+01
7.725809e+01	-1.598433e+01
7.770433e+01	-1.603264e+01
7.815315e+01	-1.608068e+01
7.860456e+01	-1.613037e+01
7.905857e+01	-1.617837e+01
7.951521e+01	-1.622733e+01
7.997449e+01	-1.627720e+01
8.043642e+01	-1.632653e+01
8.090102e+01	-1.637404e+01
8.136830e+01	-1.642222e+01
8.183828e+01	-1.647343e+01
8.231097e+01	-1.652115e+01
8.278640e+01	-1.656983e+01
8.326457e+01	-1.661939e+01
8.374550e+01	-1.666821e+01
8.422921e+01	-1.671759e+01
8.471572e+01	-1.676592e+01
8.520503e+01	-1.681624e+01
8.569717e+01	-1.686360e+01
8.619215e+01	-1.691309e+01
8.669000e+01	-1.696104e+01
8.719071e+01	-1.700986e+01
8.769432e+01	-1.706139e+01
8.820084e+01	-1.710856e+01
8.871029e+01	-1.715680e+01
8.922267e+01	-1.720797e+01
8.973802e+01	-1.725478e+01
9.025634e+01	-1.730608e+01
9.077766e+01	-1.735328e+01
9.130199e+01	-1.740349e+01
9.182935e+01	-1.745243e+01
9.235975e+01	-1.750235e+01
9.289321e+01	-1.755117e+01
9.342976e+01	-1.760072e+01
9.396941e+01	-1.765028e+01
9.451217e+01	-1.769862e+01
9.505807e+01	-1.774710e+01
9.560712e+01	-1.779718e+01
9.615934e+01	-1.784575e+01
9.671476e+01	-1.789493e+01
9.727338e+01	-1.794272e+01
9.783522e+01	-1.799365e+01
9.840032e+01	-1.804299e+01
9.896867e+01	-1.809303e+01
9.954031e+01	-1.814174e+01
1.001153e+02	-1.819083e+01
1.006935e+02	-1.823895e+01
1.012751e+02	-1.828825e+01
1.018601e+02	-1.833955e+01
1.024484e+02	-1.838817e+01
1.030402e+02	-1.843783e+01
1.036353e+02	-1.848651e+01
1.042339e+02	-1.853481e+01
1.048360e+02	-1.858608e+01
1.054415e+02	-1.863276e+01
1.060505e+02	-1.868439e+01
1.066631e+02	-1.873435e+01
1.072791e+02	-1.878210e+01
1.078988e+02	-1.883250e+01
1.085220e+02	-1.888006e+01
1.091488e+02	-1.892994e+01
1.097793e+02	-1.898069e+01
1.104133e+02	-1.902972e+01
1.110511e+02	-1.907972e+01
1.116925e+02	-1.912857e+01
1.123376e+02	-1.917719e+01
1.129865e+02	-1.922711e+01
1.136391e+02	-1.927619e+01
1.142955e+02	-1.932588e+01
1.149556e+02	-1.937569e+01
1.156196e+02	-1.942532e+01
1.162874e+02	-1.947324e+01
1.169591e+02	-1.952264e+01
1.176347e+02	-1.957411e+01
1.183141e+02	-1.962182e+01
1.189975e+02	-1.967148e+01
1.196848e+02	-1.972317e+01
1.203761e+02	-1.977141e+01
1.210714e+02	-1.982154e+01
1.217707e+02	-1.987095e+01
1.224740e+02	-1.992063e+01
1.231814e+02	-1.996888e+01
1.238929e+02	-2.001823e+01
1.246085e+02	-2.006962e+01
1.253283e+02	-2.011771e+01
1.260522e+02	-2.016736e+01
1.267802e+02	-2.021770e+01
1.275125e+02	-2.026598e+01
1.282490e+02	-2.031701e+01
1.289898e+02	-2.036592e+01
1.297348e+02	-2.041675e+01
1.304842e+02	-2.046506e+01
1.312378e+02	-2.051528e+01
1.319959e+02	-2.056300e+01
1.327583e+02	-2.061451e+01
1.335251e+02	-2.066288e+01
1.342963e+02	-2.071312e+01
1.350720e+02	-2.076199e+01
1.358522e+02	-2.081101e+01
1.366368e+02	-2.086333e+01
1.374260e+02	-2.091123e+01
1.382198e+02	-2.096302e+01
1.390182e+02	-2.101040e+01
1.398211e+02	-2.106026e+01
1.406287e+02	-2.110956e+01
1.414410e+02	-2.115921e+01
1.422579e+02	-2.121035e+01
1.430796e+02	-2.125804e+01
1.439060e+02	-2.130878e+01
1.447372e+02	-2.136000e+01
1.455732e+02	-2.140744e+01
1.464141e+02	-2.145750e+01
1.472597e+02	-2.150728e+01
1.481103e+02	-2.155571e+01
1.489658e+02	-2.160555e+01
1.498262e+02	-2.165775e+01
1.506916e+02	-2.170601e+01
1.515620e+02	-2.175777e+01
1.524374e+02	-2.180494e+01
1.533179e+02	-2.185521e+01
1.542034e+02	-2.190556e+01
1.550941e+02	-2.195348e+01
1.559899e+02	-2.200424e+01
1.568909e+02	-2.205648e+01
1.577971e+02	-2.210578e+01
1.587085e+02	-2.215544e+01
1.596252e+02	-2.220471e+01
1.605472e+02	-2.225210e+01
1.614745e+02	-2.230274e+01
1.624072e+02	-2.235163e+01
1.633453e+02	-2.240333e+01
1.642887e+02	-2.245256e+01
1.652377e+02	-2.250261e+01
1.661921e+02	-2.255156e+01
1.671520e+02	-2.260062e+01
1.681175e+02	-2.265082e+01
1.690885e+02	-2.270171e+01
1.700651e+02	-2.275090e+01
1.710474e+02	-2.279969e+01
1.720354e+02	-2.284989e+01
1.730291e+02	-2.290187e+01
1.740285e+02	-2.295127e+01
1.750337e+02	-2.299907e+01
1.760446e+02	-2.304776e+01
1.770615e+02	-2.309781e+01
1.780842e+02	-2.314912e+01
1.791128e+02	-2.319842e+01
1.801473e+02	-2.325067e+01
1.811878e+02	-2.330012e+01
1.822344e+02	-2.334880e+01
1.832870e+02	-2.339796e+01
1.843456e+02	-2.344696e+01
1.854104e+02	-2.349937e+01
1.864813e+02	-2.355066e+01
1.875584e+02	-2.359700e+01
1.886418e+02	-2.364731e+01
1.897313e+02	-2.369650e+01
1.908272e+02	-2.374861e+01
1.919294e+02	-2.379700e+01
1.930380e+02	-2.384716e+01
1.941530e+02	-2.389649e+01
1.952744e+02	-2.394531e+01
1.964023e+02	-2.399403e+01
1.975367e+02	-2.404659e+01
1.986777e+02	-2.409403e+01
1.998252e+02	-2.414449e+01
2.009794e+02	-2.419662e+01
2.021403e+02	-2.424528e+01
2.033078e+02	-2.429682e+01
2.044821e+02	-2.434580e+01
2.056632e+02	-2.439597e+01
2.068511e+02	-2.444635e+01
2.080459e+02	-2.449420e+01
2.092475e+02	-2.454371e+01
2.104561e+02	-2.459439e+01
2.116717e+02	-2.464470e+01
2.128943e+02	-2.469408e+01
2.141240e+02	-2.474487e+01
2.153608e+02	-2.479596e+01
2.166047e+02	-2.484352e+01
2.178558e+02	-2.489266e+01
2.191141e+02	-2.494379e+01
2.203797e+02	-2.499341e+01
2.216526e+02	-2.504711e+01
2.229329e+02	-2.509204e+01
2.242205e+02	-2.514680e+01
2.255156e+02	-2.519363e+01
2.268182e+02	-2.524366e+01
2.281283e+02	-2.529456e+01
2.294459e+02	-2.533996e+01
2.307712e+02	-2.539524e+01
2.321041e+02	-2.544238e+01
2.334447e+02	-2.549390e+01
2.347931e+02	-2.554280e+01
2.361493e+02	-2.559436e+01
2.375133e+02	-2.564468e+01
2.388851e+02	-2.569507e+01
2.402649e+02	-2.574045e+01
2.416527e+02	-2.579263e+01
2.430484e+02	-2.584231e+01
2.444523e+02	-2.589338e+01
2.458642e+02	-2.594651e+01
2.472843e+02	-2.599416e+01
2.487126e+02	-2.604224e+01
2.501492e+02	-2.609564e+01
2.515940e+02	-2.614337e+01
2.530472e+02	-2.619194e+01
2.545088e+02	-2.624271e+01
2.559789e+02	-2.629555e+01
2.574574e+02	-2.634379e+01
2.589444e+02	-2.639032e+01
2.604401e+02	-2.644133e+01
2.619444e+02	-2.649251e+01
2.634574e+02	-2.654387e+01
2.649791e+02	-2.659135e+01
2.665096e+02	-2.664361e+01
2.680489e+02	-2.668704e+01
2.695972e+02	-2.674455e+01
2.711544e+02	-2.679426e+01
2.727205e+02	-2.684050e+01
2.742958e+02	-2.688922e+01
2.758801e+02	-2.693738e+01
2.774736e+02	-2.699277e+01
2.790762e+02	-2.704231e+01
2.806882e+02	-2.709357e+01
2.823094e+02	-2.714425e+01
2.839400e+02	-2.719169e+01
2.855800e+02	-2.723982e+01
2.872295e+02	-2.729129e+01
2.888886e+02	-2.734028e+01
2.905572e+02	-2.739420e+01
2.922354e+02	-2.744283e+01
2.939234e+02	-2.749355e+01
2.956211e+02	-2.754110e+01
2.973286e+02	-2.758997e+01
2.990459e+02	-2.764564e+01
3.007732e+02	-2.769287e+01
3.025104e+02	-2.774610e+01
3.042577e+02	-2.779315e+01
3.060151e+02	-2.784274e+01
3.077826e+02	-2.789208e+01
3.095604e+02	-2.794407e+01
3.113484e+02	-2.799275e+01
3.131467e+02	-2.804529e+01
3.149554e+02	-2.809124e+01
3.167746e+02	-2.813990e+01
3.186043e+02	-2.818903e+01
3.204445e+02	-2.823996e+01
3.222954e+02	-2.829577e+01
3.241570e+02	-2.834310e+01
3.260293e+02	-2.839002e+01
3.279124e+02	-2.844202e+01
3.298064e+02	-2.848678e+01
3.317114e+02	-2.854148e+01
3.336273e+02	-2.859483e+01
3.355544e+02	-2.864058e+01
3.374925e+02	-2.869021e+01
3.394418e+02	-2.874206e+01
3.414024e+02	-2.878799e+01
3.433744e+02	-2.883872e+01
3.453577e+02	-2.889181e+01
3.473525e+02	-2.894354e+01
3.493588e+02	-2.898834e+01
3.513766e+02	-2.904530e+01
3.534062e+02	-2.908962e+01
3.554474e+02	-2.914389e+01
3.575005e+02	-2.919168e+01
3.595654e+02	-2.924189e+01
3.616422e+02	-2.929097e+01
3.637311e+02	-2.933995e+01
3.658320e+02	-2.939253e+01
3.679450e+02	-2.944152e+01
3.700702e+02	-2.949238e+01
3.722077e+02	-2.954383e+01
3.743576e+02	-2.959247e+01
3.765199e+02	-2.964837e+01
3.786946e+02	-2.969561e+01
3.808820e+02	-2.974053e+01
3.830819e+02	-2.979427e+01
3.852946e+02	-2.984017e+01
3.875200e+02	-2.989720e+01
3.897583e+02	-2.994301e+01
3.920096e+02	-2.999300e+01
3.942738e+02	-3.004137e+01
3.965511e+02	-3.009534e+01
3.988416e+02	-3.014222e+01
4.011452e+02	-3.018892e+01
4.034622e+02	-3.024222e+01
4.057926e+02	-3.029939e+01
4.081365e+02	-3.034241e+01
4.104938e+02	-3.039529e+01
4.128648e+02	-3.044726e+01
4.152495e+02	-3.049577e+01
4.176480e+02	-3.054785e+01
4.200603e+02	-3.059817e+01
4.224866e+02	-3.064151e+01
4.249268e+02	-3.069707e+01
4.273812e+02	-3.075167e+01
4.298497e+02	-3.079456e+01
4.323325e+02	-3.084851e+01
4.348297e+02	-3.089687e+01
4.373412e+02	-3.094654e+01
4.398673e+02	-3.099405e+01
4.424079e+02	-3.104537e+01
4.449633e+02	-3.110525e+01
4.475334e+02	-3.114822e+01
4.501183e+02	-3.119329e+01
4.527182e+02	-3.124495e+01
4.553330e+02	-3.130288e+01
4.579630e+02	-3.134741e+01
4.606082e+02	-3.139973e+01
4.632687e+02	-3.144967e+01
4.659445e+02	-3.149333e+01
4.686358e+02	-3.154454e+01
4.713426e+02	-3.160073e+01
4.740650e+02	-3.164775e+01
4.768032e+02	-3.170129e+01
4.795572e+02	-3.174086e+01
4.823271e+02	-3.179855e+01
4.851130e+02	-3.184863e+01
4.879150e+02	-3.189795e+01
4.907332e+02	-3.195169e+01
4.935676e+02	-3.199484e+01
4.964185e+02	-3.205487e+01
4.992858e+02	-3.209435e+01
5.021696e+02	-3.214813e+01
5.050701e+02	-3.220034e+01
5.079874e+02	-3.224752e+01
5.109215e+02	-3.229793e+01
5.138726e+02	-3.234965e+01
5.168407e+02	-3.240485e+01
5.198259e+02	-3.245086e+01
5.228284e+02	-3.250274e+01
5.258482e+02	-3.254937e+01
5.288855e+02	-3.259315e+01
5.319403e+02	-3.265184e+01
5.350128e+02	-3.270180e+01
5.381030e+02	-3.275193e+01
5.412111e+02	-3.280251e+01
5.443371e+02	-3.285290e+01
5.474812e+02	-3.290110e+01
5.506434e+02	-3.295083e+01
5.538239e+02	-3.300822e+01
5.570228e+02	-3.305157e+01
5.602401e+02	-3.309929e+01
5.634760e+02	-3.314993e+01
5.667306e+02	-3.320159e+01
5.700040e+02	-3.325170e+01
5.732964e+02	-3.330017e+01
5.766077e+02	-3.334875e+01
5.799382e+02	-3.340925e+01
5.832879e+02	-3.345443e+01
5.866569e+02	-3.350659e+01
5.900454e+02	-3.354924e+01
5.934535e+02	-3.360799e+01
5.968813e+02	-3.365885e+01
6.003288e+02	-3.371604e+01
6.037963e+02	-3.375323e+01
6.072838e+02	-3.380854e+01
6.107914e+02	-3.385184e+01
6.143194e+02	-3.390487e+01
6.178676e+02	-3.395953e+01
6.214364e+02	-3.400214e+01
6.250258e+02	-3.405991e+01
6.286359e+02	-3.410692e+01
6.322669e+02	-3.416038e+01
6.359189e+02	-3.420843e+01
6.395919e+02	-3.426309e+01
6.432862e+02	-3.430888e+01
6.470017e+02	-3.436197e+01
6.507388e+02	-3.441522e+01
6.544974e+02	-3.446292e+01
6.582778e+02	-3.451610e+01
6.620800e+02	-3.456760e+01
6.659041e+02	-3.461753e+01
6.697504e+02	-3.466411e+01
6.736188e+02	-3.471216e+01
6.775096e+02	-3.475188e+01
6.814229e+02	-3.480349e+01
6.853587e+02	-3.486213e+01
6.893173e+02	-3.491070e+01
6.932988e+02	-3.496332e+01
6.973033e+02	-3.501691e+01
7.013309e+02	-3.506800e+01
