Frequency(Hz)	Magnitude(dB)
1.000000e+01	-2.009325e+00
1.005776e+01	-2.028061e+00
1.011585e+01	-2.046478e+00
1.017428e+01	-2.065517e+00
1.023305e+01	-2.084434e+00
1.029215e+01	-2.103623e+00
1.035160e+01	-2.122958e+00
1.041139e+01	-2.142467e+00
1.047153e+01	-2.161709e+00
1.053201e+01	-2.181646e+00
1.059284e+01	-2.201469e+00
1.065403e+01	-2.221479e+00
1.071556e+01	-2.241414e+00
1.077746e+01	-2.261877e+00
1.083971e+01	-2.282092e+00
1.090232e+01	-2.302555e+00
1.096529e+01	-2.323361e+00
1.102862e+01	-2.344035e+00
1.109232e+01	-2.365021e+00
1.115639e+01	-2.386070e+00
1.122083e+01	-2.407274e+00
1.128564e+01	-2.428610e+00
1.135083e+01	-2.449852e+00
1.141639e+01	-2.471672e+00
1.148233e+01	-2.493473e+00
1.154865e+01	-2.515446e+00
1.161536e+01	-2.537513e+00
1.168245e+01	-2.559601e+00
1.174992e+01	-2.581993e+00
1.181779e+01	-2.604784e+00
1.188605e+01	-2.627049e+00
1.195470e+01	-2.649809e+00
1.202375e+01	-2.672936e+00
1.209320e+01	-2.696156e+00
1.216305e+01	-2.719198e+00
1.223330e+01	-2.742654e+00
1.230396e+01	-2.765920e+00
1.237503e+01	-2.789719e+00
1.244651e+01	-2.813577e+00
1.251840e+01	-2.837359e+00
1.259070e+01	-2.861490e+00
1.266343e+01	-2.885601e+00
1.273657e+01	-2.910333e+00
1.281014e+01	-2.934409e+00
1.288413e+01	-2.959208e+00
1.295855e+01	-2.984209e+00
1.303339e+01	-3.008801e+00
1.310867e+01	-3.033861e+00
1.318439e+01	-3.058895e+00
1.326054e+01	-3.084535e+00
1.333713e+01	-3.109902e+00
1.341417e+01	-3.135947e+00
1.349165e+01	-3.161463e+00
1.356958e+01	-3.187663e+00
1.364795e+01	-3.213518e+00
1.372678e+01	-3.239878e+00
1.380607e+01	-3.266104e+00
1.388581e+01	-3.292581e+00
1.396602e+01	-3.319197e+00
1.404668e+01	-3.346006e+00
1.412782e+01	-3.372970e+00
1.420942e+01	-3.399861e+00
1.429149e+01	-3.427206e+00
1.437404e+01	-3.454805e+00
1.445706e+01	-3.482224e+00
1.454057e+01	-3.510055e+00
1.462455e+01	-3.537832e+00
1.470902e+01	-3.565501e+00
1.479398e+01	-3.593815e+00
1.487943e+01	-3.622182e+00
1.496537e+01	-3.650246e+00
1.505181e+01	-3.678843e+00
1.513875e+01	-3.707649e+00
1.522619e+01	-3.736353e+00
1.531414e+01	-3.765276e+00
1.540259e+01	-3.794343e+00
1.549156e+01	-3.823525e+00
1.558103e+01	-3.852616e+00
1.567103e+01	-3.882450e+00
1.576155e+01	-3.911855e+00
1.585258e+01	-3.941756e+00
1.594415e+01	-3.971743e+00
1.603624e+01	-4.001818e+00
1.612886e+01	-4.032032e+00
1.622202e+01	-4.062359e+00
1.631572e+01	-4.092569e+00
1.640996e+01	-4.123301e+00
1.650474e+01	-4.154160e+00
1.660008e+01	-4.184958e+00
1.669596e+01	-4.215975e+00
1.679239e+01	-4.247212e+00
1.688938e+01	-4.278473e+00
1.698694e+01	-4.309678e+00
1.708505e+01	-4.341051e+00
1.718373e+01	-4.372973e+00
1.728299e+01	-4.404660e+00
1.738281e+01	-4.436976e+00
1.748322e+01	-4.469010e+00
1.758420e+01	-4.500847e+00
1.768576e+01	-4.533332e+00
1.778792e+01	-4.565919e+00
1.789066e+01	-4.598547e+00
1.799399e+01	-4.631516e+00
1.809793e+01	-4.664000e+00
1.820246e+01	-4.696932e+00
1.830760e+01	-4.730231e+00
1.841334e+01	-4.763544e+00
1.851969e+01	-4.796702e+00
1.862666e+01	-4.830356e+00
1.873425e+01	-4.863690e+00
1.884246e+01	-4.897833e+00
1.895129e+01	-4.931901e+00
1.906075e+01	-4.965798e+00
1.917085e+01	-4.999790e+00
1.928158e+01	-5.034030e+00
1.939295e+01	-5.068212e+00
1.950496e+01	-5.102841e+00
1.961762e+01	-5.138005e+00
1.973093e+01	-5.172304e+00
1.984490e+01	-5.206942e+00
1.995952e+01	-5.242431e+00
2.007480e+01	-5.277314e+00
2.019076e+01	-5.312557e+00
2.030738e+01	-5.347963e+00
2.042467e+01	-5.383314e+00
2.054264e+01	-5.419085e+00
2.066130e+01	-5.454584e+00
2.078064e+01	-5.490748e+00
2.090066e+01	-5.526386e+00
2.102139e+01	-5.562586e+00
2.114280e+01	-5.598678e+00
2.126492e+01	-5.635276e+00
2.138775e+01	-5.671821e+00
2.151128e+01	-5.707964e+00
2.163553e+01	-5.744724e+00
2.176050e+01	-5.781662e+00
2.188619e+01	-5.818260e+00
2.201260e+01	-5.855448e+00
2.213974e+01	-5.892261e+00
2.226762e+01	-5.929617e+00
2.239624e+01	-5.966734e+00
2.252560e+01	-6.004574e+00
2.265571e+01	-6.042081e+00
2.278656e+01	-6.079579e+00
2.291818e+01	-6.117043e+00
2.305055e+01	-6.155085e+00
2.318369e+01	-6.193090e+00
2.331760e+01	-6.231016e+00
2.345228e+01	-6.269365e+00
2.358774e+01	-6.307485e+00
2.372398e+01	-6.346142e+00
2.386101e+01	-6.384451e+00
2.399883e+01	-6.422844e+00
2.413745e+01	-6.461987e+00
2.427686e+01	-6.500416e+00
2.441709e+01	-6.539367e+00
2.455812e+01	-6.578517e+00
2.469997e+01	-6.617568e+00
2.484263e+01	-6.656442e+00
2.498612e+01	-6.696116e+00
2.513044e+01	-6.735251e+00
2.527559e+01	-6.774756e+00
2.542158e+01	-6.813998e+00
2.556842e+01	-6.853776e+00
2.571610e+01	-6.893672e+00
2.586463e+01	-6.933077e+00
2.601403e+01	-6.973671e+00
2.616428e+01	-7.013491e+00
2.631541e+01	-7.053336e+00
2.646740e+01	-7.093701e+00
2.662028e+01	-7.134434e+00
2.677404e+01	-7.173965e+00
2.692868e+01	-7.215247e+00
2.708422e+01	-7.255226e+00
2.724066e+01	-7.296175e+00
2.739800e+01	-7.336974e+00
2.755625e+01	-7.377832e+00
2.771541e+01	-7.418537e+00
2.787550e+01	-7.459379e+00
2.803650e+01	-7.500657e+00
2.819844e+01	-7.541773e+00
2.836131e+01	-7.583298e+00
2.852513e+01	-7.624428e+00
2.868989e+01	-7.665884e+00
2.885560e+01	-7.707902e+00
2.902227e+01	-7.749348e+00
2.918990e+01	-7.790512e+00
2.935850e+01	-7.832540e+00
2.952807e+01	-7.874190e+00
2.969863e+01	-7.916110e+00
2.987016e+01	-7.958291e+00
3.004269e+01	-8.000502e+00
3.021622e+01	-8.042299e+00
3.039075e+01	-8.084573e+00
3.056628e+01	-8.126975e+00
3.074283e+01	-8.168910e+00
3.092040e+01	-8.211635e+00
3.109900e+01	-8.254479e+00
3.127862e+01	-8.296528e+00
3.145929e+01	-8.338852e+00
3.164099e+01	-8.382256e+00
3.182375e+01	-8.424784e+00
3.200756e+01	-8.467753e+00
3.219244e+01	-8.511009e+00
3.237838e+01	-8.553815e+00
3.256540e+01	-8.597081e+00
3.275349e+01	-8.639950e+00
3.294268e+01	-8.683223e+00
3.313295e+01	-8.726541e+00
3.332433e+01	-8.770123e+00
3.351681e+01	-8.813353e+00
3.371040e+01	-8.856730e+00
3.390511e+01	-8.900183e+00
3.410094e+01	-8.943449e+00
3.429791e+01	-8.987245e+00
3.449601e+01	-9.031489e+00
3.469526e+01	-9.075050e+00
3.489566e+01	-9.118900e+00
3.509721e+01	-9.162557e+00
3.529993e+01	-9.206816e+00
3.550382e+01	-9.251449e+00
3.570889e+01	-9.294592e+00
3.591515e+01	-9.339121e+00
3.612259e+01	-9.383596e+00
3.633123e+01	-9.428281e+00
3.654108e+01	-9.472592e+00
3.675214e+01	-9.516989e+00
3.696442e+01	-9.560381e+00
3.717792e+01	-9.605697e+00
3.739266e+01	-9.649666e+00
3.760864e+01	-9.694662e+00
3.782587e+01	-9.738990e+00
3.804435e+01	-9.783715e+00
3.826409e+01	-9.829021e+00
3.848510e+01	-9.874033e+00
3.870739e+01	-9.918833e+00
3.893096e+01	-9.964011e+00
3.915583e+01	-1.000927e+01
3.938199e+01	-1.005341e+01
3.960946e+01	-1.009849e+01
3.983824e+01	-1.014402e+01
4.006834e+01	-1.018915e+01
4.029978e+01	-1.023443e+01
4.053255e+01	-1.027973e+01
4.076666e+01	-1.032498e+01
4.100213e+01	-1.037039e+01
4.123896e+01	-1.041620e+01
4.147715e+01	-1.046149e+01
4.171672e+01	-1.050682e+01
4.195767e+01	-1.055240e+01
4.220002e+01	-1.059782e+01
4.244377e+01	-1.064358e+01
4.268892e+01	-1.069001e+01
4.293549e+01	-1.073526e+01
4.318348e+01	-1.078163e+01
4.343291e+01	-1.082690e+01
4.368377e+01	-1.087280e+01
4.393609e+01	-1.091949e+01
4.418986e+01	-1.096496e+01
4.444510e+01	-1.101115e+01
4.470182e+01	-1.105740e+01
4.496001e+01	-1.110348e+01
4.521970e+01	-1.114962e+01
4.548089e+01	-1.119566e+01
4.574358e+01	-1.124263e+01
4.600779e+01	-1.128793e+01
4.627353e+01	-1.133443e+01
4.654081e+01	-1.138084e+01
4.680963e+01	-1.142736e+01
4.708000e+01	-1.147400e+01
4.735193e+01	-1.152057e+01
4.762543e+01	-1.156646e+01
4.790051e+01	-1.161391e+01
4.817719e+01	-1.166013e+01
4.845545e+01	-1.170655e+01
4.873533e+01	-1.175348e+01
4.901682e+01	-1.179992e+01
4.929994e+01	-1.184665e+01
4.958470e+01	-1.189348e+01
4.987110e+01	-1.193936e+01
5.015915e+01	-1.198687e+01
5.044887e+01	-1.203417e+01
5.074026e+01	-1.208094e+01
5.103333e+01	-1.212835e+01
5.132810e+01	-1.217448e+01
5.162457e+01	-1.222232e+01
5.192275e+01	-1.226874e+01
5.222265e+01	-1.231635e+01
5.252429e+01	-1.236288e+01
5.282767e+01	-1.241026e+01
5.313280e+01	-1.245737e+01
5.343969e+01	-1.250422e+01
5.374836e+01	-1.255165e+01
5.405880e+01	-1.259983e+01
5.437105e+01	-1.264637e+01
5.468509e+01	-1.269385e+01
5.500095e+01	-1.274096e+01
5.531863e+01	-1.278871e+01
5.563815e+01	-1.283569e+01
5.595951e+01	-1.288287e+01
5.628273e+01	-1.293103e+01
5.660782e+01	-1.297819e+01
5.693479e+01	-1.302524e+01
5.726364e+01	-1.307374e+01
5.759439e+01	-1.312045e+01
5.792705e+01	-1.316856e+01
5.826164e+01	-1.321630e+01
5.859815e+01	-1.326348e+01
5.893662e+01	-1.331200e+01
5.927703e+01	-1.335911e+01
5.961941e+01	-1.340696e+01
5.996377e+01	-1.345503e+01
6.031012e+01	-1.350308e+01
6.065847e+01	-1.354914e+01
6.100883e+01	-1.359786e+01
6.136121e+01	-1.364575e+01
6.171563e+01	-1.369311e+01
6.207210e+01	-1.374145e+01
6.243063e+01	-1.378917e+01
6.279122e+01	-1.383786e+01
6.315390e+01	-1.388511e+01
6.351868e+01	-1.393311e+01
6.388556e+01	-1.398098e+01
6.425456e+01	-1.402913e+01
6.462569e+01	-1.407744e+01
6.499897e+01	-1.412665e+01
6.537440e+01	-1.417432e+01
6.575200e+01	-1.422213e+01
6.613178e+01	-1.426978e+01
6.651375e+01	-1.431892e+01
6.689793e+01	-1.436690e+01
6.728433e+01	-1.441428e+01
6.767297e+01	-1.446247e+01
6.806384e+01	-1.451224e+01
6.845698e+01	-1.455979e+01
6.885238e+01	-1.460790e+01
6.925007e+01	-1.465654e+01
6.965005e+01	-1.470415e+01
7.005235e+01	-1.475204e+01
7.045697e+01	-1.480021e+01
7.086393e+01	-1.484941e+01
7.127323e+01	-1.489835e+01
7.168490e+01	-1.494659e+01
7.209895e+01	-1.499511e+01
7.251539e+01	-1.504320e+01
7.293424e+01	-1.509166e+01
7.335551e+01	-1.513925e+01
7.377920e+01	-1.518886e+01
7.420535e+01	-1.523668e+01
7.463396e+01	-1.528579e+01
7.506504e+01	-1.533401e+01
7.549861e+01	-1.538317e+01
7.593469e+01	-1.543107e+01
7.637328e+01	-1.547931e+01
7.681441e+01	-1.552943e+01
7.725809e+01	-1.557673e+01
7.770433e+01	-1.562622e+01
7.815315e+01	-1.567385e+01
7.860456e+01	-1.572351e+01
7.905857e+01	-1.577219e+01
7.951521e+01	-1.582089e+01
7.997449e+01	-1.586922e+01
8.043642e+01	-1.591757e+01
8.090102e+01	-1.596823e+01
8.136830e+01	-1.601597e+01
8.183828e+01	-1.606502e+01
8.231097e+01	-1.611298e+01
8.278640e+01	-1.616207e+01
8.326457e+01	-1.620978e+01
8.374550e+01	-1.625907e+01
8.422921e+01	-1.630853e+01
8.471572e+01	-1.635682e+01
8.520503e+01	-1.640784e+01
8.569717e+01	-1.645529e+01
8.619215e+01	-1.650408e+01
8.669000e+01	-1.655364e+01
8.719071e+01	-1.660246e+01
8.769432e+01	-1.665177e+01
8.820084e+01	-1.669984e+01
8.871029e+01	-1.674906e+01
8.922267e+01	-1.679675e+01
8.973802e+01	-1.684540e+01
9.025634e+01	-1.689423e+01
9.077766e+01	-1.694476e+01
9.130199e+01	-1.699390e+01
9.182935e+01	-1.704254e+01
9.235975e+01	-1.709192e+01
9.289321e+01	-1.714067e+01
9.342976e+01	-1.719010e+01
9.396941e+01	-1.723861e+01
9.451217e+01	-1.728854e+01
9.505807e+01	-1.733828e+01
9.560712e+01	-1.738686e+01
9.615934e+01	-1.743521e+01
9.671476e+01	-1.748520e+01
9.727338e+01	-1.753375e+01
9.783522e+01	-1.758230e+01
9.840032e+01	-1.763217e+01
9.896867e+01	-1.768051e+01
9.954031e+01	-1.772997e+01
1.001153e+02	-1.777943e+01
1.006935e+02	-1.782962e+01
1.012751e+02	-1.787804e+01
1.018601e+02	-1.792776e+01
1.024484e+02	-1.797653e+01
1.030402e+02	-1.802542e+01
1.036353e+02	-1.807484e+01
1.042339e+02	-1.812550e+01
1.048360e+02	-1.817328e+01
1.054415e+02	-1.822325e+01
1.060505e+02	-1.827355e+01
1.066631e+02	-1.832079e+01
1.072791e+02	-1.837195e+01
1.078988e+02	-1.842030e+01
1.085220e+02	-1.847044e+01
1.091488e+02	-1.851744e+01
1.097793e+02	-1.856741e+01
1.104133e+02	-1.861801e+01
1.110511e+02	-1.866645e+01
1.116925e+02	-1.871721e+01
1.123376e+02	-1.876448e+01
1.129865e+02	-1.881553e+01
1.136391e+02	-1.886427e+01
1.142955e+02	-1.891365e+01
1.149556e+02	-1.896467e+01
1.156196e+02	-1.901217e+01
1.162874e+02	-1.906212e+01
1.169591e+02	-1.911195e+01
1.176347e+02	-1.916233e+01
1.183141e+02	-1.920951e+01
1.189975e+02	-1.926032e+01
1.196848e+02	-1.930840e+01
1.203761e+02	-1.935877e+01
1.210714e+02	-1.940816e+01
1.217707e+02	-1.945647e+01
1.224740e+02	-1.950848e+01
1.231814e+02	-1.955566e+01
1.238929e+02	-1.960616e+01
1.246085e+02	-1.965562e+01
1.253283e+02	-1.970467e+01
1.260522e+02	-1.975529e+01
1.267802e+02	-1.980297e+01
1.275125e+02	-1.985412e+01
1.282490e+02	-1.990174e+01
1.289898e+02	-1.995211e+01
1.297348e+02	-2.000080e+01
1.304842e+02	-2.004993e+01
1.312378e+02	-2.010043e+01
1.319959e+02	-2.015012e+01
1.327583e+02	-2.019942e+01
1.335251e+02	-2.025000e+01
1.342963e+02	-2.029932e+01
1.350720e+02	-2.035017e+01
1.358522e+02	-2.039963e+01
1.366368e+02	-2.044702e+01
1.374260e+02	-2.049709e+01
1.382198e+02	-2.054778e+01
1.390182e+02	-2.059519e+01
1.398211e+02	-2.064467e+01
1.406287e+02	-2.069500e+01
1.414410e+02	-2.074519e+01
1.422579e+02	-2.079520e+01
1.430796e+02	-2.084519e+01
1.439060e+02	-2.089299e+01
1.447372e+02	-2.094422e+01
1.455732e+02	-2.099053e+01
1.464141e+02	-2.104379e+01
1.472597e+02	-2.109285e+01
1.481103e+02	-2.114326e+01
1.489658e+02	-2.119285e+01
1.498262e+02	-2.124349e+01
1.506916e+02	-2.129095e+01
1.515620e+02	-2.134222e+01
1.524374e+02	-2.139088e+01
1.533179e+02	-2.144039e+01
1.542034e+02	-2.149069e+01
1.550941e+02	-2.154039e+01
1.559899e+02	-2.158990e+01
1.568909e+02	-2.163801e+01
1.577971e+02	-2.169005e+01
1.587085e+02	-2.173970e+01
1.596252e+02	-2.179015e+01
1.605472e+02	-2.183967e+01
1.614745e+02	-2.188932e+01
1.624072e+02	-2.193827e+01
1.633453e+02	-2.198721e+01
1.642887e+02	-2.203732e+01
1.652377e+02	-2.208571e+01
1.661921e+02	-2.213697e+01
1.671520e+02	-2.218851e+01
1.681175e+02	-2.223603e+01
1.690885e+02	-2.228734e+01
1.700651e+02	-2.233574e+01
1.710474e+02	-2.238634e+01
1.720354e+02	-2.243691e+01
1.730291e+02	-2.248364e+01
1.740285e+02	-2.253498e+01
1.750337e+02	-2.258464e+01
1.760446e+02	-2.263467e+01
1.770615e+02	-2.268283e+01
1.780842e+02	-2.273612e+01
1.791128e+02	-2.278317e+01
1.801473e+02	-2.283540e+01
1.811878e+02	-2.288386e+01
1.822344e+02	-2.293398e+01
1.832870e+02	-2.298389e+01
1.843456e+02	-2.303218e+01
1.854104e+02	-2.308075e+01
1.864813e+02	-2.313272e+01
1.875584e+02	-2.318207e+01
1.886418e+02	-2.323269e+01
1.897313e+02	-2.328215e+01
1.908272e+02	-2.332853e+01
1.919294e+02	-2.338237e+01
1.930380e+02	-2.342816e+01
1.941530e+02	-2.348220e+01
1.952744e+02	-2.353249e+01
1.964023e+02	-2.358156e+01
1.975367e+02	-2.363033e+01
1.986777e+02	-2.367952e+01
1.998252e+02	-2.372940e+01
2.009794e+02	-2.378055e+01
2.021403e+02	-2.382934e+01
2.033078e+02	-2.387840e+01
2.044821e+02	-2.393025e+01
2.056632e+02	-2.397773e+01
2.068511e+02	-2.402937e+01
2.080459e+02	-2.407744e+01
2.092475e+02	-2.412838e+01
2.104561e+02	-2.418108e+01
2.116717e+02	-2.422994e+01
2.128943e+02	-2.428041e+01
2.141240e+02	-2.432904e+01
2.153608e+02	-2.437458e+01
2.166047e+02	-2.442840e+01
2.178558e+02	-2.447919e+01
2.191141e+02	-2.452773e+01
2.203797e+02	-2.457359e+01
2.216526e+02	-2.462887e+01
2.229329e+02	-2.467961e+01
2.242205e+02	-2.472686e+01
2.255156e+02	-2.477624e+01
2.268182e+02	-2.482479e+01
2.281283e+02	-2.487835e+01
2.294459e+02	-2.492750e+01
2.307712e+02	-2.497689e+01
2.321041e+02	-2.502744e+01
2.334447e+02	-2.507619e+01
2.347931e+02	-2.512549e+01
2.361493e+02	-2.517832e+01
2.375133e+02	-2.522338e+01
2.388851e+02	-2.527692e+01
2.402649e+02	-2.532565e+01
2.416527e+02	-2.537261e+01
2.430484e+02	-2.542734e+01
2.444523e+02	-2.547378e+01
2.458642e+02	-2.552361e+01
2.472843e+02	-2.557550e+01
2.487126e+02	-2.562557e+01
2.501492e+02	-2.567631e+01
2.515940e+02	-2.572563e+01
2.530472e+02	-2.577393e+01
2.545088e+02	-2.582565e+01
2.559789e+02	-2.587689e+01
2.574574e+02	-2.592279e+01
2.589444e+02	-2.597803e+01
2.604401e+02	-2.602556e+01
2.619444e+02	-2.607811e+01
2.634574e+02	-2.612679e+01
2.649791e+02	-2.617590e+01
2.665096e+02	-2.622228e+01
2.680489e+02	-2.627579e+01
2.695972e+02	-2.632347e+01
2.711544e+02	-2.637866e+01
2.727205e+02	-2.642109e+01
2.742958e+02	-2.647654e+01
2.758801e+02	-2.652874e+01
2.774736e+02	-2.657585e+01
2.790762e+02	-2.662611e+01
2.806882e+02	-2.667915e+01
2.823094e+02	-2.672490e+01
2.839400e+02	-2.677823e+01
2.855800e+02	-2.682268e+01
2.872295e+02	-2.687654e+01
2.888886e+02	-2.692385e+01
2.905572e+02	-2.697719e+01
2.922354e+02	-2.702543e+01
2.939234e+02	-2.707623e+01
2.956211e+02	-2.712547e+01
2.973286e+02	-2.717412e+01
2.990459e+02	-2.722802e+01
3.007732e+02	-2.727676e+01
3.025104e+02	-2.732405e+01
3.042577e+02	-2.737587e+01
3.060151e+02	-2.742310e+01
3.077826e+02	-2.747329e+01
3.095604e+02	-2.752509e+01
3.113484e+02	-2.757434e+01
3.131467e+02	-2.762482e+01
3.149554e+02	-2.767202e+01
3.167746e+02	-2.772711e+01
3.186043e+02	-2.777465e+01
3.204445e+02	-2.782584e+01
3.222954e+02	-2.787553e+01
3.241570e+02	-2.792682e+01
3.260293e+02	-2.797065e+01
3.279124e+02	-2.802305e+01
3.298064e+02	-2.807443e+01
3.317114e+02	-2.812619e+01
3.336273e+02	-2.817391e+01
3.355544e+02	-2.822766e+01
3.374925e+02	-2.827595e+01
3.394418e+02	-2.832415e+01
3.414024e+02	-2.837265e+01
3.433744e+02	-2.842865e+01
3.453577e+02	-2.847647e+01
3.473525e+02	-2.852435e+01
3.493588e+02	-2.857204e+01
3.513766e+02	-2.862132e+01
3.534062e+02	-2.867095e+01
3.554474e+02	-2.872507e+01
3.575005e+02	-2.877851e+01
3.595654e+02	-2.882387e+01
3.616422e+02	-2.887422e+01
3.637311e+02	-2.892516e+01
3.658320e+02	-2.897090e+01
3.679450e+02	-2.902975e+01
3.700702e+02	-2.908045e+01
3.722077e+02	-2.912592e+01
3.743576e+02	-2.917598e+01
3.765199e+02	-2.922322e+01
3.786946e+02	-2.927911e+01
3.808820e+02	-2.932600e+01
3.830819e+02	-2.937464e+01
3.852946e+02	-2.942486e+01
3.875200e+02	-2.947410e+01
3.897583e+02	-2.952245e+01
3.920096e+02	-2.957351e+01
3.942738e+02	-2.963301e+01
3.965511e+02	-2.968025e+01
3.988416e+02	-2.972775e+01
4.011452e+02	-2.978015e+01
4.034622e+02	-2.982668e+01
4.057926e+02	-2.987475e+01
4.081365e+02	-2.992911e+01
4.104938e+02	-2.998230e+01
4.128648e+02	-3.002817e+01
4.152495e+02	-3.007749e+01
4.176480e+02	-3.012751e+01
4.200603e+02	-3.017956e+01
4.224866e+02	-3.022476e+01
4.249268e+02	-3.027815e+01
4.273812e+02	-3.033066e+01
4.298497e+02	-3.037324e+01
4.323325e+02	-3.043336e+01
4.348297e+02	-3.047516e+01
4.373412e+02	-3.052667e+01
4.398673e+02	-3.057914e+01
4.424079e+02	-3.062921e+01
4.449633e+02	-3.068285e+01
4.475334e+02	-3.072884e+01
4.501183e+02	-3.077401e+01
4.527182e+02	-3.083518e+01
4.553330e+02	-3.088511e+01
4.579630e+02	-3.093097e+01
4.606082e+02	-3.098080e+01
4.632687e+02	-3.103210e+01
4.659445e+02	-3.107962e+01
4.686358e+02	-3.113015e+01
4.713426e+02	-3.117996e+01
4.740650e+02	-3.123545e+01
4.768032e+02	-3.127885e+01
4.795572e+02	-3.132847e+01
4.823271e+02	-3.138072e+01
4.851130e+02	-3.143737e+01
4.879150e+02	-3.147794e+01
4.907332e+02	-3.152816e+01
4.935676e+02	-3.157496e+01
4.964185e+02	-3.163329e+01
4.992858e+02	-3.168055e+01
5.021696e+02	-3.173498e+01
5.050701e+02	-3.178285e+01
5.079874e+02	-3.183712e+01
5.109215e+02	-3.188828e+01
5.138726e+02	-3.193119e+01
5.168407e+02	-3.197775e+01
5.198259e+02	-3.202985e+01
5.228284e+02	-3.208500e+01
5.258482e+02	-3.213493e+01
5.288855e+02	-3.218766e+01
5.319403e+02	-3.222966e+01
5.350128e+02	-3.227956e+01
5.381030e+02	-3.233027e+01
5.412111e+02	-3.239243e+01
5.443371e+02	-3.243897e+01
5.474812e+02	-3.248834e+01
5.506434e+02	-3.253964e+01
5.538239e+02	-3.258460e+01
5.570228e+02	-3.263898e+01
5.602401e+02	-3.268116e+01
5.634760e+02	-3.273836e+01
5.667306e+02	-3.278765e+01
5.700040e+02	-3.283974e+01
5.732964e+02	-3.288974e+01
5.766077e+02	-3.293281e+01
5.799382e+02	-3.299176e+01
5.832879e+02	-3.304296e+01
5.866569e+02	-3.308909e+01
5.900454e+02	-3.313416e+01
5.934535e+02	-3.319253e+01
5.968813e+02	-3.324424e+01
6.003288e+02	-3.329224e+01
6.037963e+02	-3.334397e+01
6.072838e+02	-3.339004e+01
6.107914e+02	-3.344384e+01
6.143194e+02	-3.349346e+01
6.178676e+02	-3.353858e+01
6.214364e+02	-3.359919e+01
6.250258e+02	-3.364053e+01
6.286359e+02	-3.368591e+01
6.322669e+02	-3.374139e+01
6.359189e+02	-3.380078e+01
6.395919e+02	-3.384209e+01
6.432862e+02	-3.388643e+01
6.470017e+02	-3.394742e+01
6.507388e+02	-3.400108e+01
6.544974e+02	-3.404161e+01
6.582778e+02	-3.409926e+01
6.620800e+02	-3.414602e+01
6.659041e+02	-3.419384e+01
6.697504e+02	-3.424825e+01
6.736188e+02	-3.429654e+01
6.775096e+02	-3.434823e+01
6.814229e+02	-3.439871e+01
6.853587e+02	-3.444684e+01
6.893173e+02	-3.449167e+01
6.932988e+02	-3.454970e+01
6.973033e+02	-3.458699e+01
7.013309e+02	-3.465175e+01
