Frequency(Hz)	Magnitude(dB)
1.000000e+01	-2.281234e+00
1.005776e+01	-2.301444e+00
1.011585e+01	-2.322321e+00
1.017428e+01	-2.342978e+00
1.023305e+01	-2.364080e+00
1.029215e+01	-2.385255e+00
1.035160e+01	-2.406379e+00
1.041139e+01	-2.427729e+00
1.047153e+01	-2.449212e+00
1.053201e+01	-2.470705e+00
1.059284e+01	-2.492441e+00
1.065403e+01	-2.514447e+00
1.071556e+01	-2.536555e+00
1.077746e+01	-2.558879e+00
1.083971e+01	-2.581021e+00
1.090232e+01	-2.603576e+00
1.096529e+01	-2.626084e+00
1.102862e+01	-2.648913e+00
1.109232e+01	-2.671919e+00
1.115639e+01	-2.695201e+00
1.122083e+01	-2.718157e+00
1.128564e+01	-2.741443e+00
1.135083e+01	-2.764986e+00
1.141639e+01	-2.788667e+00
1.148233e+01	-2.812254e+00
1.154865e+01	-2.836271e+00
1.161536e+01	-2.860290e+00
1.168245e+01	-2.884477e+00
1.174992e+01	-2.908982e+00
1.181779e+01	-2.933357e+00
1.188605e+01	-2.957963e+00
1.195470e+01	-2.982715e+00
1.202375e+01	-3.007762e+00
1.209320e+01	-3.032725e+00
1.216305e+01	-3.057939e+00
1.223330e+01	-3.083629e+00
1.230396e+01	-3.108844e+00
1.237503e+01	-3.134638e+00
1.244651e+01	-3.160407e+00
1.251840e+01	-3.185957e+00
1.259070e+01	-3.212366e+00
1.266343e+01	-3.238738e+00
1.273657e+01	-3.265068e+00
1.281014e+01	-3.291576e+00
1.288413e+01	-3.318072e+00
1.295855e+01	-3.344874e+00
1.303339e+01	-3.371830e+00
1.310867e+01	-3.398850e+00
1.318439e+01	-3.426255e+00
1.326054e+01	-3.453559e+00
1.333713e+01	-3.481121e+00
1.341417e+01	-3.508636e+00
1.349165e+01	-3.536616e+00
1.356958e+01	-3.564660e+00
1.364795e+01	-3.592586e+00
1.372678e+01	-3.620537e+00
1.380607e+01	-3.649018e+00
1.388581e+01	-3.677484e+00
1.396602e+01	-3.706181e+00
1.404668e+01	-3.735126e+00
1.412782e+01	-3.763847e+00
1.420942e+01	-3.793016e+00
1.429149e+01	-3.822063e+00
1.437404e+01	-3.851645e+00
1.445706e+01	-3.881118e+00
1.454057e+01	-3.910641e+00
1.462455e+01	-3.940591e+00
1.470902e+01	-3.970282e+00
1.479398e+01	-4.000192e+00
1.487943e+01	-4.030527e+00
1.496537e+01	-4.061029e+00
1.505181e+01	-4.091221e+00
1.513875e+01	-4.122230e+00
1.522619e+01	-4.152534e+00
1.531414e+01	-4.183465e+00
1.540259e+01	-4.214365e+00
1.549156e+01	-4.245639e+00
1.558103e+01	-4.276669e+00
1.567103e+01	-4.308492e+00
1.576155e+01	-4.339758e+00
1.585258e+01	-4.371422e+00
1.594415e+01	-4.403276e+00
1.603624e+01	-4.435335e+00
1.612886e+01	-4.467301e+00
1.622202e+01	-4.499343e+00
1.631572e+01	-4.531935e+00
1.640996e+01	-4.564495e+00
1.650474e+01	-4.596898e+00
1.660008e+01	-4.629605e+00
1.669596e+01	-4.662584e+00
1.679239e+01	-4.695594e+00
1.688938e+01	-4.728811e+00
1.698694e+01	-4.761780e+00
1.708505e+01	-4.794888e+00
1.718373e+01	-4.828792e+00
1.728299e+01	-4.862499e+00
1.738281e+01	-4.895903e+00
1.748322e+01	-4.930352e+00
1.758420e+01	-4.964068e+00
1.768576e+01	-4.998282e+00
1.778792e+01	-5.032688e+00
1.789066e+01	-5.066970e+00
1.799399e+01	-5.101409e+00
1.809793e+01	-5.136075e+00
1.820246e+01	-5.171142e+00
1.830760e+01	-5.205579e+00
1.841334e+01	-5.240697e+00
1.851969e+01	-5.275869e+00
1.862666e+01	-5.311034e+00
1.873425e+01	-5.346306e+00
1.884246e+01	-5.381915e+00
1.895129e+01	-5.417292e+00
1.906075e+01	-5.453347e+00
1.917085e+01	-5.488965e+00
1.928158e+01	-5.525055e+00
1.939295e+01	-5.561280e+00
1.950496e+01	-5.597090e+00
1.961762e+01	-5.633469e+00
1.973093e+01	-5.669684e+00
1.984490e+01	-5.706577e+00
1.995952e+01	-5.743113e+00
2.007480e+01	-5.779500e+00
2.019076e+01	-5.816637e+00
2.030738e+01	-5.853526e+00
2.042467e+01	-5.890939e+00
2.054264e+01	-5.927748e+00
2.066130e+01	-5.965399e+00
2.078064e+01	-6.002781e+00
2.090066e+01	-6.040132e+00
2.102139e+01	-6.077871e+00
2.114280e+01	-6.115592e+00
2.126492e+01	-6.153348e+00
2.138775e+01	-6.191354e+00
2.151128e+01	-6.229500e+00
2.163553e+01	-6.267692e+00
2.176050e+01	-6.305737e+00
2.188619e+01	-6.344150e+00
2.201260e+01	-6.382511e+00
2.213974e+01	-6.421137e+00
2.226762e+01	-6.459880e+00
2.239624e+01	-6.498519e+00
2.252560e+01	-6.537816e+00
2.265571e+01	-6.576462e+00
2.278656e+01	-6.615798e+00
2.291818e+01	-6.655112e+00
2.305055e+01	-6.693923e+00
2.318369e+01	-6.733596e+00
2.331760e+01	-6.772726e+00
2.345228e+01	-6.812601e+00
2.358774e+01	-6.851944e+00
2.372398e+01	-6.891852e+00
2.386101e+01	-6.931686e+00
2.399883e+01	-6.971693e+00
2.413745e+01	-7.011675e+00
2.427686e+01	-7.051575e+00
2.441709e+01	-7.091774e+00
2.455812e+01	-7.132371e+00
2.469997e+01	-7.172703e+00
2.484263e+01	-7.212844e+00
2.498612e+01	-7.253313e+00
2.513044e+01	-7.294271e+00
2.527559e+01	-7.335017e+00
2.542158e+01	-7.375524e+00
2.556842e+01	-7.416240e+00
2.571610e+01	-7.457784e+00
2.586463e+01	-7.498820e+00
2.601403e+01	-7.539737e+00
2.616428e+01	-7.581362e+00
2.631541e+01	-7.622623e+00
2.646740e+01	-7.663628e+00
2.662028e+01	-7.705472e+00
2.677404e+01	-7.747319e+00
2.692868e+01	-7.788685e+00
2.708422e+01	-7.830347e+00
2.724066e+01	-7.872033e+00
2.739800e+01	-7.914200e+00
2.755625e+01	-7.956203e+00
2.771541e+01	-7.998220e+00
2.787550e+01	-8.040162e+00
2.803650e+01	-8.082579e+00
2.819844e+01	-8.124863e+00
2.836131e+01	-8.167481e+00
2.852513e+01	-8.209582e+00
2.868989e+01	-8.251943e+00
2.885560e+01	-8.295209e+00
2.902227e+01	-8.337536e+00
2.918990e+01	-8.379687e+00
2.935850e+01	-8.423133e+00
2.952807e+01	-8.465669e+00
2.969863e+01	-8.508819e+00
2.987016e+01	-8.552005e+00
3.004269e+01	-8.594736e+00
3.021622e+01	-8.637930e+00
3.039075e+01	-8.681170e+00
3.056628e+01	-8.724502e+00
3.074283e+01	-8.768148e+00
3.092040e+01	-8.811107e+00
3.109900e+01	-8.854679e+00
3.127862e+01	-8.898379e+00
3.145929e+01	-8.941895e+00
3.164099e+01	-8.985405e+00
3.182375e+01	-9.029779e+00
3.200756e+01	-9.072816e+00
3.219244e+01	-9.117032e+00
3.237838e+01	-9.160682e+00
3.256540e+01	-9.204787e+00
3.275349e+01	-9.249215e+00
3.294268e+01	-9.292844e+00
3.313295e+01	-9.337193e+00
3.332433e+01	-9.381619e+00
3.351681e+01	-9.425628e+00
3.371040e+01	-9.470645e+00
3.390511e+01	-9.514587e+00
3.410094e+01	-9.558994e+00
3.429791e+01	-9.603643e+00
3.449601e+01	-9.648030e+00
3.469526e+01	-9.692490e+00
3.489566e+01	-9.737272e+00
3.509721e+01	-9.782226e+00
3.529993e+01	-9.826737e+00
3.550382e+01	-9.871490e+00
3.570889e+01	-9.916590e+00
3.591515e+01	-9.961925e+00
3.612259e+01	-1.000671e+01
3.633123e+01	-1.005231e+01
3.654108e+01	-1.009664e+01
3.675214e+01	-1.014201e+01
3.696442e+01	-1.018677e+01
3.717792e+01	-1.023286e+01
3.739266e+01	-1.027735e+01
3.760864e+01	-1.032328e+01
3.782587e+01	-1.036909e+01
3.804435e+01	-1.041394e+01
3.826409e+01	-1.045920e+01
3.848510e+01	-1.050463e+01
3.870739e+01	-1.055086e+01
3.893096e+01	-1.059606e+01
3.915583e+01	-1.064136e+01
3.938199e+01	-1.068731e+01
3.960946e+01	-1.073294e+01
3.983824e+01	-1.077999e+01
4.006834e+01	-1.082515e+01
4.029978e+01	-1.087064e+01
4.053255e+01	-1.091724e+01
4.076666e+01	-1.096271e+01
4.100213e+01	-1.100908e+01
4.123896e+01	-1.105548e+01
4.147715e+01	-1.110076e+01
4.171672e+01	-1.114709e+01
4.195767e+01	-1.119319e+01
4.220002e+01	-1.123987e+01
4.244377e+01	-1.128635e+01
4.268892e+01	-1.133236e+01
4.293549e+01	-1.137878e+01
4.318348e+01	-1.142484e+01
4.343291e+01	-1.147109e+01
4.368377e+01	-1.151733e+01
4.393609e+01	-1.156447e+01
4.418986e+01	-1.161164e+01
4.444510e+01	-1.165757e+01
4.470182e+01	-1.170462e+01
4.496001e+01	-1.175136e+01
4.521970e+01	-1.179807e+01
4.548089e+01	-1.184459e+01
4.574358e+01	-1.189213e+01
4.600779e+01	-1.193873e+01
4.627353e+01	-1.198485e+01
4.654081e+01	-1.203173e+01
4.680963e+01	-1.207887e+01
4.708000e+01	-1.212608e+01
4.735193e+01	-1.217204e+01
4.762543e+01	-1.221971e+01
4.790051e+01	-1.226663e+01
4.817719e+01	-1.231388e+01
4.845545e+01	-1.236151e+01
4.873533e+01	-1.240817e+01
4.901682e+01	-1.245464e+01
4.929994e+01	-1.250248e+01
4.958470e+01	-1.254983e+01
4.987110e+01	-1.259635e+01
5.015915e+01	-1.264384e+01
5.044887e+01	-1.269183e+01
5.074026e+01	-1.273878e+01
5.103333e+01	-1.278637e+01
5.132810e+01	-1.283326e+01
5.162457e+01	-1.288133e+01
5.192275e+01	-1.292895e+01
5.222265e+01	-1.297660e+01
5.252429e+01	-1.302337e+01
5.282767e+01	-1.307085e+01
5.313280e+01	-1.311868e+01
5.343969e+01	-1.316650e+01
5.374836e+01	-1.321353e+01
5.405880e+01	-1.326126e+01
5.437105e+01	-1.330921e+01
5.468509e+01	-1.335783e+01
5.500095e+01	-1.340503e+01
5.531863e+01	-1.345176e+01
5.563815e+01	-1.349983e+01
5.595951e+01	-1.354833e+01
5.628273e+01	-1.359620e+01
5.660782e+01	-1.364355e+01
5.693479e+01	-1.369247e+01
5.726364e+01	-1.373873e+01
5.759439e+01	-1.378669e+01
5.792705e+01	-1.383614e+01
5.826164e+01	-1.388374e+01
5.859815e+01	-1.393123e+01
5.893662e+01	-1.397947e+01
5.927703e+01	-1.402807e+01
5.961941e+01	-1.407522e+01
5.996377e+01	-1.412337e+01
6.031012e+01	-1.417183e+01
6.065847e+01	-1.421950e+01
6.100883e+01	-1.426890e+01
6.136121e+01	-1.431642e+01
6.171563e+01	-1.436400e+01
6.207210e+01	-1.441166e+01
6.243063e+01	-1.446079e+01
6.279122e+01	-1.450920e+01
6.315390e+01	-1.455774e+01
6.351868e+01	-1.460566e+01
6.388556e+01	-1.465274e+01
6.425456e+01	-1.470208e+01
6.462569e+01	-1.475006e+01
6.499897e+01	-1.479857e+01
6.537440e+01	-1.484626e+01
6.575200e+01	-1.489554e+01
6.613178e+01	-1.494421e+01
6.651375e+01	-1.499159e+01
6.689793e+01	-1.504073e+01
6.728433e+01	-1.508940e+01
6.767297e+01	-1.513809e+01
6.806384e+01	-1.518675e+01
6.845698e+01	-1.523540e+01
6.885238e+01	-1.528307e+01
6.925007e+01	-1.533133e+01
6.965005e+01	-1.538091e+01
7.005235e+01	-1.542935e+01
7.045697e+01	-1.547821e+01
7.086393e+01	-1.552553e+01
7.127323e+01	-1.557464e+01
7.168490e+01	-1.562344e+01
7.209895e+01	-1.567184e+01
7.251539e+01	-1.572109e+01
7.293424e+01	-1.576935e+01
7.335551e+01	-1.581810e+01
7.377920e+01	-1.586713e+01
7.420535e+01	-1.591594e+01
7.463396e+01	-1.596547e+01
7.506504e+01	-1.601319e+01
7.549861e+01	-1.606248e+01
7.593469e+01	-1.611064e+01
7.637328e+01	-1.616036e+01
7.681441e+01	-1.620833e+01
7.725809e+01	-1.625695e+01
7.770433e+01	-1.630611e+01
7.815315e+01	-1.635503e+01
7.860456e+01	-1.640345e+01
7.905857e+01	-1.645290e+01
7.951521e+01	-1.650215e+01
7.997449e+01	-1.655080e+01
8.043642e+01	-1.659946e+01
8.090102e+01	-1.664901e+01
8.136830e+01	-1.669829e+01
8.183828e+01	-1.674724e+01
8.231097e+01	-1.679509e+01
8.278640e+01	-1.684406e+01
8.326457e+01	-1.689475e+01
8.374550e+01	-1.694305e+01
8.422921e+01	-1.699188e+01
8.471572e+01	-1.703987e+01
8.520503e+01	-1.709129e+01
8.569717e+01	-1.713825e+01
8.619215e+01	-1.718745e+01
8.669000e+01	-1.723637e+01
8.719071e+01	-1.728588e+01
8.769432e+01	-1.733480e+01
8.820084e+01	-1.738469e+01
8.871029e+01	-1.743221e+01
8.922267e+01	-1.748146e+01
8.973802e+01	-1.753022e+01
9.025634e+01	-1.758040e+01
9.077766e+01	-1.762933e+01
9.130199e+01	-1.767829e+01
9.182935e+01	-1.772829e+01
9.235975e+01	-1.777809e+01
9.289321e+01	-1.782657e+01
9.342976e+01	-1.787497e+01
9.396941e+01	-1.792489e+01
9.451217e+01	-1.797449e+01
9.505807e+01	-1.802401e+01
9.560712e+01	-1.807155e+01
9.615934e+01	-1.812143e+01
9.671476e+01	-1.817134e+01
9.727338e+01	-1.821983e+01
9.783522e+01	-1.827044e+01
9.840032e+01	-1.832028e+01
9.896867e+01	-1.836808e+01
9.954031e+01	-1.841780e+01
1.001153e+02	-1.846723e+01
1.006935e+02	-1.851560e+01
1.012751e+02	-1.856609e+01
1.018601e+02	-1.861524e+01
1.024484e+02	-1.866425e+01
1.030402e+02	-1.871310e+01
1.036353e+02	-1.876394e+01
1.042339e+02	-1.881238e+01
1.048360e+02	-1.886140e+01
1.054415e+02	-1.891013e+01
1.060505e+02	-1.896029e+01
1.066631e+02	-1.901138e+01
1.072791e+02	-1.906112e+01
1.078988e+02	-1.910894e+01
1.085220e+02	-1.915639e+01
1.091488e+02	-1.920702e+01
1.097793e+02	-1.925730e+01
1.104133e+02	-1.930747e+01
1.110511e+02	-1.935554e+01
1.116925e+02	-1.940487e+01
1.123376e+02	-1.945545e+01
1.129865e+02	-1.950486e+01
1.136391e+02	-1.955476e+01
1.142955e+02	-1.960401e+01
1.149556e+02	-1.965172e+01
1.156196e+02	-1.970222e+01
1.162874e+02	-1.975160e+01
1.169591e+02	-1.980126e+01
1.176347e+02	-1.984994e+01
1.183141e+02	-1.989998e+01
1.189975e+02	-1.995045e+01
1.196848e+02	-1.999896e+01
1.203761e+02	-2.004764e+01
1.210714e+02	-2.009877e+01
1.217707e+02	-2.014532e+01
1.224740e+02	-2.019699e+01
1.231814e+02	-2.024817e+01
1.238929e+02	-2.029653e+01
1.246085e+02	-2.034585e+01
1.253283e+02	-2.039695e+01
1.260522e+02	-2.044607e+01
1.267802e+02	-2.049604e+01
1.275125e+02	-2.054536e+01
1.282490e+02	-2.059469e+01
1.289898e+02	-2.064448e+01
1.297348e+02	-2.069390e+01
1.304842e+02	-2.074242e+01
1.312378e+02	-2.079325e+01
1.319959e+02	-2.084262e+01
1.327583e+02	-2.089133e+01
1.335251e+02	-2.094151e+01
1.342963e+02	-2.099115e+01
1.350720e+02	-2.104189e+01
1.358522e+02	-2.109120e+01
1.366368e+02	-2.114109e+01
1.374260e+02	-2.119079e+01
1.382198e+02	-2.123892e+01
1.390182e+02	-2.128993e+01
1.398211e+02	-2.133807e+01
1.406287e+02	-2.139083e+01
1.414410e+02	-2.143712e+01
1.422579e+02	-2.148735e+01
1.430796e+02	-2.153876e+01
1.439060e+02	-2.158764e+01
1.447372e+02	-2.163544e+01
1.455732e+02	-2.168730e+01
1.464141e+02	-2.173761e+01
1.472597e+02	-2.178664e+01
1.481103e+02	-2.183528e+01
1.489658e+02	-2.188426e+01
1.498262e+02	-2.193392e+01
1.506916e+02	-2.198364e+01
1.515620e+02	-2.203601e+01
1.524374e+02	-2.208358e+01
1.533179e+02	-2.213588e+01
1.542034e+02	-2.218367e+01
1.550941e+02	-2.223370e+01
1.559899e+02	-2.228393e+01
1.568909e+02	-2.233325e+01
1.577971e+02	-2.238289e+01
1.587085e+02	-2.243310e+01
1.596252e+02	-2.248271e+01
1.605472e+02	-2.253146e+01
1.614745e+02	-2.258273e+01
1.624072e+02	-2.263041e+01
1.633453e+02	-2.268187e+01
1.642887e+02	-2.273043e+01
1.652377e+02	-2.278156e+01
1.661921e+02	-2.283038e+01
1.671520e+02	-2.288035e+01
1.681175e+02	-2.293085e+01
1.690885e+02	-2.298020e+01
1.700651e+02	-2.303063e+01
1.710474e+02	-2.307921e+01
1.720354e+02	-2.312992e+01
1.730291e+02	-2.317978e+01
1.740285e+02	-2.322966e+01
1.750337e+02	-2.327985e+01
1.760446e+02	-2.332757e+01
1.770615e+02	-2.337751e+01
1.780842e+02	-2.342968e+01
1.791128e+02	-2.347694e+01
1.801473e+02	-2.352807e+01
1.811878e+02	-2.357661e+01
1.822344e+02	-2.362962e+01
1.832870e+02	-2.367532e+01
1.843456e+02	-2.372635e+01
1.854104e+02	-2.377673e+01
1.864813e+02	-2.382874e+01
1.875584e+02	-2.387792e+01
1.886418e+02	-2.392931e+01
1.897313e+02	-2.397827e+01
1.908272e+02	-2.402708e+01
1.919294e+02	-2.407857e+01
1.930380e+02	-2.412484e+01
1.941530e+02	-2.417722e+01
1.952744e+02	-2.422660e+01
1.964023e+02	-2.427617e+01
1.975367e+02	-2.432490e+01
1.986777e+02	-2.437620e+01
1.998252e+02	-2.442663e+01
2.009794e+02	-2.447573e+01
2.021403e+02	-2.452509e+01
2.033078e+02	-2.457636e+01
2.044821e+02	-2.462497e+01
2.056632e+02	-2.467651e+01
2.068511e+02	-2.472306e+01
2.080459e+02	-2.477455e+01
2.092475e+02	-2.482428e+01
2.104561e+02	-2.487476e+01
2.116717e+02	-2.492568e+01
2.128943e+02	-2.497459e+01
2.141240e+02	-2.502567e+01
2.153608e+02	-2.507189e+01
2.166047e+02	-2.512434e+01
2.178558e+02	-2.517751e+01
2.191141e+02	-2.522595e+01
2.203797e+02	-2.527174e+01
2.216526e+02	-2.532240e+01
2.229329e+02	-2.537368e+01
2.242205e+02	-2.542616e+01
2.255156e+02	-2.547452e+01
2.268182e+02	-2.552214e+01
2.281283e+02	-2.557437e+01
2.294459e+02	-2.562574e+01
2.307712e+02	-2.567366e+01
2.321041e+02	-2.572271e+01
2.334447e+02	-2.577314e+01
2.347931e+02	-2.582426e+01
2.361493e+02	-2.587395e+01
2.375133e+02	-2.592110e+01
2.388851e+02	-2.597342e+01
2.402649e+02	-2.602070e+01
2.416527e+02	-2.607381e+01
2.430484e+02	-2.612516e+01
2.444523e+02	-2.617329e+01
2.458642e+02	-2.621985e+01
2.472843e+02	-2.627205e+01
2.487126e+02	-2.632084e+01
2.501492e+02	-2.637412e+01
2.515940e+02	-2.642269e+01
2.530472e+02	-2.647138e+01
2.545088e+02	-2.652381e+01
2.559789e+02	-2.657068e+01
2.574574e+02	-2.662141e+01
2.589444e+02	-2.667341e+01
2.604401e+02	-2.672095e+01
2.619444e+02	-2.677354e+01
2.634574e+02	-2.682232e+01
2.649791e+02	-2.687195e+01
2.665096e+02	-2.692154e+01
2.680489e+02	-2.697265e+01
2.695972e+02	-2.702558e+01
2.711544e+02	-2.707438e+01
2.727205e+02	-2.711929e+01
2.742958e+02	-2.717315e+01
2.758801e+02	-2.722357e+01
2.774736e+02	-2.727326e+01
2.790762e+02	-2.732117e+01
2.806882e+02	-2.737066e+01
2.823094e+02	-2.741985e+01
2.839400e+02	-2.747271e+01
2.855800e+02	-2.752222e+01
2.872295e+02	-2.757130e+01
2.888886e+02	-2.762042e+01
2.905572e+02	-2.767251e+01
2.922354e+02	-2.772057e+01
2.939234e+02	-2.777765e+01
2.956211e+02	-2.782315e+01
2.973286e+02	-2.786769e+01
2.990459e+02	-2.792106e+01
3.007732e+02	-2.797197e+01
3.025104e+02	-2.802119e+01
3.042577e+02	-2.806996e+01
3.060151e+02	-2.812095e+01
3.077826e+02	-2.817000e+01
3.095604e+02	-2.822042e+01
3.113484e+02	-2.827530e+01
3.131467e+02	-2.832296e+01
3.149554e+02	-2.837485e+01
3.167746e+02	-2.842181e+01
3.186043e+02	-2.847385e+01
3.204445e+02	-2.852236e+01
3.222954e+02	-2.857259e+01
3.241570e+02	-2.862282e+01
3.260293e+02	-2.867279e+01
3.279124e+02	-2.872408e+01
3.298064e+02	-2.877198e+01
3.317114e+02	-2.882033e+01
3.336273e+02	-2.886949e+01
3.355544e+02	-2.891901e+01
3.374925e+02	-2.897395e+01
3.394418e+02	-2.902558e+01
3.414024e+02	-2.907701e+01
3.433744e+02	-2.912292e+01
3.453577e+02	-2.917351e+01
3.473525e+02	-2.922480e+01
3.493588e+02	-2.926617e+01
3.513766e+02	-2.932487e+01
3.534062e+02	-2.937908e+01
3.554474e+02	-2.942298e+01
3.575005e+02	-2.947618e+01
3.595654e+02	-2.952291e+01
3.616422e+02	-2.957426e+01
3.637311e+02	-2.962598e+01
3.658320e+02	-2.967215e+01
3.679450e+02	-2.972786e+01
3.700702e+02	-2.977739e+01
3.722077e+02	-2.982938e+01
3.743576e+02	-2.986887e+01
3.765199e+02	-2.992407e+01
3.786946e+02	-2.996987e+01
3.808820e+02	-3.002802e+01
3.830819e+02	-3.007500e+01
3.852946e+02	-3.012583e+01
3.875200e+02	-3.017453e+01
3.897583e+02	-3.022351e+01
3.920096e+02	-3.027574e+01
3.942738e+02	-3.032853e+01
3.965511e+02	-3.037428e+01
3.988416e+02	-3.042221e+01
4.011452e+02	-3.047053e+01
4.034622e+02	-3.052585e+01
4.057926e+02	-3.057284e+01
4.081365e+02	-3.062619e+01
4.104938e+02	-3.066846e+01
4.128648e+02	-3.072870e+01
4.152495e+02	-3.077626e+01
4.176480e+02	-3.083614e+01
4.200603e+02	-3.087498e+01
4.224866e+02	-3.092682e+01
4.249268e+02	-3.097186e+01
4.273812e+02	-3.102489e+01
4.298497e+02	-3.107516e+01
4.323325e+02	-3.112865e+01
4.348297e+02	-3.117840e+01
4.373412e+02	-3.122512e+01
4.398673e+02	-3.127836e+01
4.424079e+02	-3.133028e+01
4.449633e+02	-3.137649e+01
4.475334e+02	-3.142561e+01
4.501183e+02	-3.147665e+01
4.527182e+02	-3.152824e+01
4.553330e+02	-3.157643e+01
4.579630e+02	-3.162301e+01
4.606082e+02	-3.167683e+01
4.632687e+02	-3.173377e+01
4.659445e+02	-3.177686e+01
4.686358e+02	-3.182892e+01
4.713426e+02	-3.188136e+01
4.740650e+02	-3.192767e+01
4.768032e+02	-3.198015e+01
4.795572e+02	-3.202688e+01
4.823271e+02	-3.208345e+01
4.851130e+02	-3.212847e+01
4.879150e+02	-3.218332e+01
4.907332e+02	-3.222897e+01
4.935676e+02	-3.227857e+01
4.964185e+02	-3.233974e+01
4.992858e+02	-3.238406e+01
5.021696e+02	-3.243512e+01
5.050701e+02	-3.247885e+01
5.079874e+02	-3.252320e+01
5.109215e+02	-3.258278e+01
5.138726e+02	-3.262552e+01
5.168407e+02	-3.268221e+01
5.198259e+02	-3.273397e+01
5.228284e+02	-3.277876e+01
5.258482e+02	-3.283249e+01
5.288855e+02	-3.288772e+01
5.319403e+02	-3.293021e+01
5.350128e+02	-3.298642e+01
5.381030e+02	-3.303755e+01
5.412111e+02	-3.308357e+01
5.443371e+02	-3.313913e+01
5.474812e+02	-3.318285e+01
5.506434e+02	-3.323570e+01
5.538239e+02	-3.328452e+01
5.570228e+02	-3.333533e+01
5.602401e+02	-3.338230e+01
5.634760e+02	-3.343563e+01
5.667306e+02	-3.348812e+01
5.700040e+02	-3.354025e+01
5.732964e+02	-3.359184e+01
5.766077e+02	-3.363502e+01
5.799382e+02	-3.368081e+01
5.832879e+02	-3.373981e+01
5.866569e+02	-3.378531e+01
5.900454e+02	-3.383595e+01
5.934535e+02	-3.388646e+01
5.968813e+02	-3.394327e+01
6.003288e+02	-3.399379e+01
6.037963e+02	-3.403987e+01
6.072838e+02	-3.409021e+01
6.107914e+02	-3.414271e+01
6.143194e+02	-3.419100e+01
6.178676e+02	-3.424308e+01
6.214364e+02	-3.428073e+01
6.250258e+02	-3.434211e+01
6.286359e+02	-3.440300e+01
6.322669e+02	-3.444357e+01
6.359189e+02	-3.450181e+01
6.395919e+02	-3.454100e+01
6.432862e+02	-3.459660e+01
6.470017e+02	-3.464413e+01
6.507388e+02	-3.469969e+01
6.544974e+02	-3.475029e+01
6.582778e+02	-3.479671e+01
6.620800e+02	-3.483990e+01
6.659041e+02	-3.489321e+01
6.697504e+02	-3.493691e+01
6.736188e+02	-3.499703e+01
6.775096e+02	-3.505279e+01
6.814229e+02	-3.510304e+01
6.853587e+02	-3.514533e+01
6.893173e+02	-3.520522e+01
6.932988e+02	-3.524497e+01
6.973033e+02	-3.530647e+01
7.013309e+02	-3.534606e+01
