Frequency(Hz)	Magnitude(dB)
1.000000e+01	-1.731723e-05
1.005776e+01	-1.751785e-05
1.011585e+01	-1.772080e-05
1.017428e+01	-1.792610e-05
1.023305e+01	-1.813378e-05
1.029215e+01	-1.834387e-05
1.035160e+01	-1.855638e-05
1.041139e+01	-1.877136e-05
1.047153e+01	-1.898884e-05
1.053201e+01	-1.920883e-05
1.059284e+01	-1.943137e-05
1.065403e+01	-1.965648e-05
1.071556e+01	-1.988421e-05
1.077746e+01	-2.011457e-05
1.083971e+01	-2.034760e-05
1.090232e+01	-2.058334e-05
1.096529e+01	-2.082180e-05
1.102862e+01	-2.106302e-05
1.109232e+01	-2.130705e-05
1.115639e+01	-2.155389e-05
1.122083e+01	-2.180360e-05
1.128564e+01	-2.205620e-05
1.135083e+01	-2.231173e-05
1.141639e+01	-2.257021e-05
1.148233e+01	-2.283170e-05
1.154865e+01	-2.309621e-05
1.161536e+01	-2.336378e-05
1.168245e+01	-2.363446e-05
1.174992e+01	-2.390827e-05
1.181779e+01	-2.418525e-05
1.188605e+01	-2.446544e-05
1.195470e+01	-2.474888e-05
1.202375e+01	-2.503560e-05
1.209320e+01	-2.532565e-05
1.216305e+01	-2.561905e-05
1.223330e+01	-2.591585e-05
1.230396e+01	-2.621609e-05
1.237503e+01	-2.651981e-05
1.244651e+01	-2.682705e-05
1.251840e+01	-2.713785e-05
1.259070e+01	-2.745225e-05
1.266343e+01	-2.777029e-05
1.273657e+01	-2.809202e-05
1.281014e+01	-2.841747e-05
1.288413e+01	-2.874669e-05
1.295855e+01	-2.907973e-05
1.303339e+01	-2.941663e-05
1.310867e+01	-2.975742e-05
1.318439e+01	-3.010217e-05
1.326054e+01	-3.045091e-05
1.333713e+01	-3.080369e-05
1.341417e+01	-3.116056e-05
1.349165e+01	-3.152156e-05
1.356958e+01	-3.188675e-05
1.364795e+01	-3.225616e-05
1.372678e+01	-3.262986e-05
1.380607e+01	-3.300788e-05
1.388581e+01	-3.339029e-05
1.396602e+01	-3.377712e-05
1.404668e+01	-3.416844e-05
1.412782e+01	-3.456429e-05
1.420942e+01	-3.496472e-05
1.429149e+01	-3.536980e-05
1.437404e+01	-3.577956e-05
1.445706e+01	-3.619408e-05
1.454057e+01	-3.661340e-05
1.462455e+01	-3.703757e-05
1.470902e+01	-3.746666e-05
1.479398e+01	-3.790072e-05
1.487943e+01	-3.833981e-05
1.496537e+01	-3.878398e-05
1.505181e+01	-3.923330e-05
1.513875e+01	-3.968783e-05
1.522619e+01	-4.014762e-05
1.531414e+01	-4.061274e-05
1.540259e+01	-4.108325e-05
1.549156e+01	-4.155921e-05
1.558103e+01	-4.204068e-05
1.567103e+01	-4.252773e-05
1.576155e+01	-4.302043e-05
1.585258e+01	-4.351883e-05
1.594415e+01	-4.402300e-05
1.603624e+01	-4.453302e-05
1.612886e+01	-4.504894e-05
1.622202e+01	-4.557085e-05
1.631572e+01	-4.609879e-05
1.640996e+01	-4.663286e-05
1.650474e+01	-4.717311e-05
1.660008e+01	-4.771962e-05
1.669596e+01	-4.827246e-05
1.679239e+01	-4.883171e-05
1.688938e+01	-4.939744e-05
1.698694e+01	-4.996972e-05
1.708505e+01	-5.054862e-05
1.718373e+01	-5.113424e-05
1.728299e+01	-5.172664e-05
1.738281e+01	-5.232591e-05
1.748322e+01	-5.293211e-05
1.758420e+01	-5.354534e-05
1.768576e+01	-5.416568e-05
1.778792e+01	-5.479320e-05
1.789066e+01	-5.542799e-05
1.799399e+01	-5.607013e-05
1.809793e+01	-5.671972e-05
1.820246e+01	-5.737683e-05
1.830760e+01	-5.804155e-05
1.841334e+01	-5.871397e-05
1.851969e+01	-5.939418e-05
1.862666e+01	-6.008228e-05
1.873425e+01	-6.077834e-05
1.884246e+01	-6.148247e-05
1.895129e+01	-6.219476e-05
1.906075e+01	-6.291530e-05
1.917085e+01	-6.364418e-05
1.928158e+01	-6.438151e-05
1.939295e+01	-6.512738e-05
1.950496e+01	-6.588190e-05
1.961762e+01	-6.664515e-05
1.973093e+01	-6.741725e-05
1.984490e+01	-6.819829e-05
1.995952e+01	-6.898838e-05
2.007480e+01	-6.978762e-05
2.019076e+01	-7.059613e-05
2.030738e+01	-7.141400e-05
2.042467e+01	-7.224134e-05
2.054264e+01	-7.307827e-05
2.066130e+01	-7.392489e-05
2.078064e+01	-7.478133e-05
2.090066e+01	-7.564768e-05
2.102139e+01	-7.652407e-05
2.114280e+01	-7.741062e-05
2.126492e+01	-7.830744e-05
2.138775e+01	-7.921464e-05
2.151128e+01	-8.013236e-05
2.163553e+01	-8.106070e-05
2.176050e+01	-8.199980e-05
2.188619e+01	-8.294979e-05
2.201260e+01	-8.391077e-05
2.213974e+01	-8.488289e-05
2.226762e+01	-8.586628e-05
2.239624e+01	-8.686105e-05
2.252560e+01	-8.786735e-05
2.265571e+01	-8.888531e-05
2.278656e+01	-8.991506e-05
2.291818e+01	-9.095674e-05
2.305055e+01	-9.201049e-05
2.318369e+01	-9.307644e-05
2.331760e+01	-9.415475e-05
2.345228e+01	-9.524554e-05
2.358774e+01	-9.634898e-05
2.372398e+01	-9.746520e-05
2.386101e+01	-9.859434e-05
2.399883e+01	-9.973657e-05
2.413745e+01	-1.008920e-04
2.427686e+01	-1.020609e-04
2.441709e+01	-1.032433e-04
2.455812e+01	-1.044394e-04
2.469997e+01	-1.056493e-04
2.484263e+01	-1.068733e-04
2.498612e+01	-1.081114e-04
2.513044e+01	-1.093639e-04
2.527559e+01	-1.106309e-04
2.542158e+01	-1.119126e-04
2.556842e+01	-1.132091e-04
2.571610e+01	-1.145206e-04
2.586463e+01	-1.158474e-04
2.601403e+01	-1.171895e-04
2.616428e+01	-1.185471e-04
2.631541e+01	-1.199205e-04
2.646740e+01	-1.213098e-04
2.662028e+01	-1.227152e-04
2.677404e+01	-1.241369e-04
2.692868e+01	-1.255750e-04
2.708422e+01	-1.270298e-04
2.724066e+01	-1.285014e-04
2.739800e+01	-1.299902e-04
2.755625e+01	-1.314961e-04
2.771541e+01	-1.330195e-04
2.787550e+01	-1.345605e-04
2.803650e+01	-1.361194e-04
2.819844e+01	-1.376964e-04
2.836131e+01	-1.392916e-04
2.852513e+01	-1.409053e-04
2.868989e+01	-1.425377e-04
2.885560e+01	-1.441890e-04
2.902227e+01	-1.458595e-04
2.918990e+01	-1.475493e-04
2.935850e+01	-1.492586e-04
2.952807e+01	-1.509878e-04
2.969863e+01	-1.527370e-04
2.987016e+01	-1.545065e-04
3.004269e+01	-1.562965e-04
3.021622e+01	-1.581072e-04
3.039075e+01	-1.599389e-04
3.056628e+01	-1.617918e-04
3.074283e+01	-1.636661e-04
3.092040e+01	-1.655622e-04
3.109900e+01	-1.674802e-04
3.127862e+01	-1.694205e-04
3.145929e+01	-1.713833e-04
3.164099e+01	-1.733687e-04
3.182375e+01	-1.753772e-04
3.200756e+01	-1.774090e-04
3.219244e+01	-1.794643e-04
3.237838e+01	-1.815434e-04
3.256540e+01	-1.836466e-04
3.275349e+01	-1.857741e-04
3.294268e+01	-1.879263e-04
3.313295e+01	-1.901034e-04
3.332433e+01	-1.923058e-04
3.351681e+01	-1.945337e-04
3.371040e+01	-1.967873e-04
3.390511e+01	-1.990671e-04
3.410094e+01	-2.013733e-04
3.429791e+01	-2.037062e-04
3.449601e+01	-2.060662e-04
3.469526e+01	-2.084534e-04
3.489566e+01	-2.108684e-04
3.509721e+01	-2.133113e-04
3.529993e+01	-2.157825e-04
3.550382e+01	-2.182823e-04
3.570889e+01	-2.208111e-04
3.591515e+01	-2.233692e-04
3.612259e+01	-2.259569e-04
3.633123e+01	-2.285746e-04
3.654108e+01	-2.312227e-04
3.675214e+01	-2.339014e-04
3.696442e+01	-2.366111e-04
3.717792e+01	-2.393523e-04
3.739266e+01	-2.421251e-04
3.760864e+01	-2.449301e-04
3.782587e+01	-2.477677e-04
3.804435e+01	-2.506380e-04
3.826409e+01	-2.535417e-04
3.848510e+01	-2.564789e-04
3.870739e+01	-2.594502e-04
3.893096e+01	-2.624559e-04
3.915583e+01	-2.654965e-04
3.938199e+01	-2.685722e-04
3.960946e+01	-2.716836e-04
3.983824e+01	-2.748310e-04
4.006834e+01	-2.780149e-04
4.029978e+01	-2.812357e-04
4.053255e+01	-2.844938e-04
4.076666e+01	-2.877896e-04
4.100213e+01	-2.911236e-04
4.123896e+01	-2.944963e-04
4.147715e+01	-2.979080e-04
4.171672e+01	-3.013592e-04
4.195767e+01	-3.048504e-04
4.220002e+01	-3.083820e-04
4.244377e+01	-3.119546e-04
4.268892e+01	-3.155686e-04
4.293549e+01	-3.192244e-04
4.318348e+01	-3.229225e-04
4.343291e+01	-3.266635e-04
4.368377e+01	-3.304479e-04
4.393609e+01	-3.342761e-04
4.418986e+01	-3.381486e-04
4.444510e+01	-3.420660e-04
4.470182e+01	-3.460288e-04
4.496001e+01	-3.500374e-04
4.521970e+01	-3.540926e-04
4.548089e+01	-3.581946e-04
4.574358e+01	-3.623443e-04
4.600779e+01	-3.665419e-04
4.627353e+01	-3.707882e-04
4.654081e+01	-3.750837e-04
4.680963e+01	-3.794290e-04
4.708000e+01	-3.838246e-04
4.735193e+01	-3.882711e-04
4.762543e+01	-3.927691e-04
4.790051e+01	-3.973193e-04
4.817719e+01	-4.019221e-04
4.845545e+01	-4.065783e-04
4.873533e+01	-4.112884e-04
4.901682e+01	-4.160530e-04
4.929994e+01	-4.208729e-04
4.958470e+01	-4.257486e-04
4.987110e+01	-4.306808e-04
5.015915e+01	-4.356701e-04
5.044887e+01	-4.407172e-04
5.074026e+01	-4.458227e-04
5.103333e+01	-4.509874e-04
5.132810e+01	-4.562120e-04
5.162457e+01	-4.614970e-04
5.192275e+01	-4.668433e-04
5.222265e+01	-4.722515e-04
5.252429e+01	-4.777224e-04
5.282767e+01	-4.832566e-04
5.313280e+01	-4.888550e-04
5.343969e+01	-4.945182e-04
5.374836e+01	-5.002470e-04
5.405880e+01	-5.060422e-04
5.437105e+01	-5.119044e-04
5.468509e+01	-5.178346e-04
5.500095e+01	-5.238335e-04
5.531863e+01	-5.299019e-04
5.563815e+01	-5.360406e-04
5.595951e+01	-5.422504e-04
5.628273e+01	-5.485321e-04
5.660782e+01	-5.548866e-04
5.693479e+01	-5.613147e-04
5.726364e+01	-5.678173e-04
5.759439e+01	-5.743952e-04
5.792705e+01	-5.810492e-04
5.826164e+01	-5.877804e-04
5.859815e+01	-5.945895e-04
5.893662e+01	-6.014775e-04
5.927703e+01	-6.084453e-04
5.961941e+01	-6.154938e-04
5.996377e+01	-6.226240e-04
6.031012e+01	-6.298367e-04
6.065847e+01	-6.371330e-04
6.100883e+01	-6.445139e-04
6.136121e+01	-6.519802e-04
6.171563e+01	-6.595330e-04
6.207210e+01	-6.671732e-04
6.243063e+01	-6.749020e-04
6.279122e+01	-6.827203e-04
6.315390e+01	-6.906292e-04
6.351868e+01	-6.986297e-04
6.388556e+01	-7.067229e-04
6.425456e+01	-7.149098e-04
6.462569e+01	-7.231915e-04
6.499897e+01	-7.315692e-04
6.537440e+01	-7.400439e-04
6.575200e+01	-7.486168e-04
6.613178e+01	-7.572889e-04
6.651375e+01	-7.660616e-04
6.689793e+01	-7.749358e-04
6.728433e+01	-7.839128e-04
6.767297e+01	-7.929938e-04
6.806384e+01	-8.021800e-04
6.845698e+01	-8.114727e-04
6.885238e+01	-8.208729e-04
6.925007e+01	-8.303820e-04
6.965005e+01	-8.400013e-04
7.005235e+01	-8.497320e-04
7.045697e+01	-8.595754e-04
7.086393e+01	-8.695328e-04
7.127323e+01	-8.796056e-04
7.168490e+01	-8.897950e-04
7.209895e+01	-9.001025e-04
7.251539e+01	-9.105293e-04
7.293424e+01	-9.210769e-04
7.335551e+01	-9.317467e-04
7.377920e+01	-9.425401e-04
7.420535e+01	-9.534584e-04
7.463396e+01	-9.645033e-04
7.506504e+01	-9.756761e-04
7.549861e+01	-9.869783e-04
7.593469e+01	-9.984114e-04
7.637328e+01	-1.009977e-03
7.681441e+01	-1.021676e-03
7.725809e+01	-1.033511e-03
7.770433e+01	-1.045483e-03
7.815315e+01	-1.057594e-03
7.860456e+01	-1.069845e-03
7.905857e+01	-1.082238e-03
7.951521e+01	-1.094775e-03
7.997449e+01	-1.107456e-03
8.043642e+01	-1.120285e-03
8.090102e+01	-1.133262e-03
8.136830e+01	-1.146389e-03
8.183828e+01	-1.159669e-03
8.231097e+01	-1.173102e-03
8.278640e+01	-1.186691e-03
8.326457e+01	-1.200437e-03
8.374550e+01	-1.214342e-03
8.422921e+01	-1.228409e-03
8.471572e+01	-1.242638e-03
8.520503e+01	-1.257033e-03
8.569717e+01	-1.271594e-03
8.619215e+01	-1.286323e-03
8.669000e+01	-1.301223e-03
8.719071e+01	-1.316296e-03
8.769432e+01	-1.331543e-03
8.820084e+01	-1.346967e-03
8.871029e+01	-1.362570e-03
8.922267e+01	-1.378353e-03
8.973802e+01	-1.394319e-03
9.025634e+01	-1.410470e-03
9.077766e+01	-1.426808e-03
9.130199e+01	-1.443335e-03
9.182935e+01	-1.460054e-03
9.235975e+01	-1.476966e-03
9.289321e+01	-1.494074e-03
9.342976e+01	-1.511380e-03
9.396941e+01	-1.528887e-03
9.451217e+01	-1.546596e-03
9.505807e+01	-1.564511e-03
9.560712e+01	-1.582633e-03
9.615934e+01	-1.600965e-03
9.671476e+01	-1.619509e-03
9.727338e+01	-1.638268e-03
9.783522e+01	-1.657244e-03
9.840032e+01	-1.676440e-03
9.896867e+01	-1.695858e-03
9.954031e+01	-1.715501e-03
1.001153e+02	-1.735372e-03
1.006935e+02	-1.755472e-03
1.012751e+02	-1.775806e-03
1.018601e+02	-1.796375e-03
1.024484e+02	-1.817182e-03
1.030402e+02	-1.838230e-03
1.036353e+02	-1.859522e-03
1.042339e+02	-1.881060e-03
1.048360e+02	-1.902848e-03
1.054415e+02	-1.924888e-03
1.060505e+02	-1.947184e-03
1.066631e+02	-1.969737e-03
1.072791e+02	-1.992552e-03
1.078988e+02	-2.015631e-03
1.085220e+02	-2.038977e-03
1.091488e+02	-2.062593e-03
1.097793e+02	-2.086483e-03
1.104133e+02	-2.110650e-03
1.110511e+02	-2.135096e-03
1.116925e+02	-2.159826e-03
1.123376e+02	-2.184842e-03
1.129865e+02	-2.210147e-03
1.136391e+02	-2.235746e-03
1.142955e+02	-2.261641e-03
1.149556e+02	-2.287835e-03
1.156196e+02	-2.314333e-03
1.162874e+02	-2.341138e-03
1.169591e+02	-2.368254e-03
1.176347e+02	-2.395683e-03
1.183141e+02	-2.423430e-03
1.189975e+02	-2.451498e-03
1.196848e+02	-2.479891e-03
1.203761e+02	-2.508613e-03
1.210714e+02	-2.537668e-03
1.217707e+02	-2.567058e-03
1.224740e+02	-2.596790e-03
1.231814e+02	-2.626865e-03
1.238929e+02	-2.657289e-03
1.246085e+02	-2.688064e-03
1.253283e+02	-2.719197e-03
1.260522e+02	-2.750689e-03
1.267802e+02	-2.782546e-03
1.275125e+02	-2.814772e-03
1.282490e+02	-2.847372e-03
1.289898e+02	-2.880348e-03
1.297348e+02	-2.913707e-03
1.304842e+02	-2.947451e-03
1.312378e+02	-2.981587e-03
1.319959e+02	-3.016117e-03
1.327583e+02	-3.051047e-03
1.335251e+02	-3.086382e-03
1.342963e+02	-3.122125e-03
1.350720e+02	-3.158283e-03
1.358522e+02	-3.194859e-03
1.366368e+02	-3.231859e-03
1.374260e+02	-3.269286e-03
1.382198e+02	-3.307147e-03
1.390182e+02	-3.345447e-03
1.398211e+02	-3.384190e-03
1.406287e+02	-3.423381e-03
1.414410e+02	-3.463026e-03
1.422579e+02	-3.503130e-03
1.430796e+02	-3.543698e-03
1.439060e+02	-3.584735e-03
1.447372e+02	-3.626248e-03
1.455732e+02	-3.668241e-03
1.464141e+02	-3.710721e-03
1.472597e+02	-3.753692e-03
1.481103e+02	-3.797160e-03
1.489658e+02	-3.841132e-03
1.498262e+02	-3.885612e-03
1.506916e+02	-3.930608e-03
1.515620e+02	-3.976124e-03
1.524374e+02	-4.022167e-03
1.533179e+02	-4.068743e-03
1.542034e+02	-4.115858e-03
1.550941e+02	-4.163519e-03
1.559899e+02	-4.211731e-03
1.568909e+02	-4.260501e-03
1.577971e+02	-4.309835e-03
1.587085e+02	-4.359741e-03
1.596252e+02	-4.410224e-03
1.605472e+02	-4.461291e-03
1.614745e+02	-4.512949e-03
1.624072e+02	-4.565205e-03
1.633453e+02	-4.618066e-03
1.642887e+02	-4.671539e-03
1.652377e+02	-4.725631e-03
1.661921e+02	-4.780348e-03
1.671520e+02	-4.835699e-03
1.681175e+02	-4.891690e-03
1.690885e+02	-4.948329e-03
1.700651e+02	-5.005624e-03
1.710474e+02	-5.063581e-03
1.720354e+02	-5.122209e-03
1.730291e+02	-5.181516e-03
1.740285e+02	-5.241509e-03
1.750337e+02	-5.302196e-03
1.760446e+02	-5.363585e-03
1.770615e+02	-5.425685e-03
1.780842e+02	-5.488503e-03
1.791128e+02	-5.552048e-03
1.801473e+02	-5.616328e-03
1.811878e+02	-5.681352e-03
1.822344e+02	-5.747129e-03
1.832870e+02	-5.813666e-03
1.843456e+02	-5.880973e-03
1.854104e+02	-5.949059e-03
1.864813e+02	-6.017932e-03
1.875584e+02	-6.087603e-03
1.886418e+02	-6.158079e-03
1.897313e+02	-6.229371e-03
1.908272e+02	-6.301487e-03
1.919294e+02	-6.374438e-03
1.930380e+02	-6.448232e-03
1.941530e+02	-6.522881e-03
1.952744e+02	-6.598392e-03
1.964023e+02	-6.674777e-03
1.975367e+02	-6.752046e-03
1.986777e+02	-6.830209e-03
1.998252e+02	-6.909275e-03
2.009794e+02	-6.989256e-03
2.021403e+02	-7.070163e-03
2.033078e+02	-7.152005e-03
2.044821e+02	-7.234793e-03
2.056632e+02	-7.318540e-03
2.068511e+02	-7.403254e-03
2.080459e+02	-7.488949e-03
2.092475e+02	-7.575634e-03
2.104561e+02	-7.663322e-03
2.116717e+02	-7.752024e-03
2.128943e+02	-7.841752e-03
2.141240e+02	-7.932518e-03
2.153608e+02	-8.024333e-03
2.166047e+02	-8.117210e-03
2.178558e+02	-8.211161e-03
2.191141e+02	-8.306198e-03
2.203797e+02	-8.402334e-03
2.216526e+02	-8.499581e-03
2.229329e+02	-8.597954e-03
2.242205e+02	-8.697463e-03
2.255156e+02	-8.798123e-03
2.268182e+02	-8.899947e-03
2.281283e+02	-9.002948e-03
2.294459e+02	-9.107140e-03
2.307712e+02	-9.212536e-03
2.321041e+02	-9.319151e-03
2.334447e+02	-9.426998e-03
2.347931e+02	-9.536092e-03
2.361493e+02	-9.646447e-03
2.375133e+02	-9.758077e-03
2.388851e+02	-9.870998e-03
2.402649e+02	-9.985225e-03
2.416527e+02	-1.010077e-02
2.430484e+02	-1.021765e-02
2.444523e+02	-1.033589e-02
2.458642e+02	-1.045549e-02
2.472843e+02	-1.057647e-02
2.487126e+02	-1.069885e-02
2.501492e+02	-1.082264e-02
2.515940e+02	-1.094786e-02
2.530472e+02	-1.107454e-02
2.545088e+02	-1.120267e-02
2.559789e+02	-1.133229e-02
2.574574e+02	-1.146340e-02
2.589444e+02	-1.159603e-02
2.604401e+02	-1.173019e-02
2.619444e+02	-1.186590e-02
2.634574e+02	-1.200318e-02
2.649791e+02	-1.214205e-02
2.665096e+02	-1.228252e-02
2.680489e+02	-1.242461e-02
2.695972e+02	-1.256834e-02
2.711544e+02	-1.271373e-02
2.727205e+02	-1.286081e-02
2.742958e+02	-1.300958e-02
2.758801e+02	-1.316007e-02
2.774736e+02	-1.331230e-02
2.790762e+02	-1.346628e-02
2.806882e+02	-1.362205e-02
2.823094e+02	-1.377961e-02
2.839400e+02	-1.393900e-02
2.855800e+02	-1.410022e-02
2.872295e+02	-1.426331e-02
2.888886e+02	-1.442827e-02
2.905572e+02	-1.459515e-02
2.922354e+02	-1.476395e-02
2.939234e+02	-1.493470e-02
2.956211e+02	-1.510742e-02
2.973286e+02	-1.528213e-02
2.990459e+02	-1.545886e-02
3.007732e+02	-1.563763e-02
3.025104e+02	-1.581847e-02
3.042577e+02	-1.600139e-02
3.060151e+02	-1.618643e-02
3.077826e+02	-1.637359e-02
3.095604e+02	-1.656292e-02
3.113484e+02	-1.675444e-02
3.131467e+02	-1.694816e-02
3.149554e+02	-1.714412e-02
3.167746e+02	-1.734234e-02
3.186043e+02	-1.754285e-02
3.204445e+02	-1.774567e-02
3.222954e+02	-1.795084e-02
3.241570e+02	-1.815837e-02
3.260293e+02	-1.836829e-02
3.279124e+02	-1.858063e-02
3.298064e+02	-1.879543e-02
3.317114e+02	-1.901270e-02
3.336273e+02	-1.923248e-02
3.355544e+02	-1.945479e-02
3.374925e+02	-1.967967e-02
3.394418e+02	-1.990714e-02
3.414024e+02	-2.013723e-02
3.433744e+02	-2.036997e-02
3.453577e+02	-2.060540e-02
3.473525e+02	-2.084355e-02
3.493588e+02	-2.108444e-02
3.513766e+02	-2.132811e-02
3.534062e+02	-2.157458e-02
3.554474e+02	-2.182390e-02
3.575005e+02	-2.207609e-02
3.595654e+02	-2.233119e-02
3.616422e+02	-2.258922e-02
3.637311e+02	-2.285024e-02
3.658320e+02	-2.311426e-02
3.679450e+02	-2.338132e-02
3.700702e+02	-2.365146e-02
3.722077e+02	-2.392471e-02
3.743576e+02	-2.420111e-02
3.765199e+02	-2.448069e-02
3.786946e+02	-2.476349e-02
3.808820e+02	-2.504956e-02
3.830819e+02	-2.533891e-02
3.852946e+02	-2.563160e-02
3.875200e+02	-2.592766e-02
3.897583e+02	-2.622713e-02
3.920096e+02	-2.653005e-02
3.942738e+02	-2.683645e-02
3.965511e+02	-2.714639e-02
3.988416e+02	-2.745989e-02
4.011452e+02	-2.777700e-02
4.034622e+02	-2.809776e-02
4.057926e+02	-2.842221e-02
4.081365e+02	-2.875039e-02
4.104938e+02	-2.908235e-02
4.128648e+02	-2.941814e-02
4.152495e+02	-2.975778e-02
4.176480e+02	-3.010134e-02
4.200603e+02	-3.044884e-02
4.224866e+02	-3.080035e-02
4.249268e+02	-3.115589e-02
4.273812e+02	-3.151553e-02
4.298497e+02	-3.187930e-02
4.323325e+02	-3.224726e-02
4.348297e+02	-3.261944e-02
4.373412e+02	-3.299591e-02
4.398673e+02	-3.337670e-02
4.424079e+02	-3.376187e-02
4.449633e+02	-3.415147e-02
4.475334e+02	-3.454555e-02
4.501183e+02	-3.494415e-02
4.527182e+02	-3.534734e-02
4.553330e+02	-3.575516e-02
4.579630e+02	-3.616766e-02
4.606082e+02	-3.658490e-02
4.632687e+02	-3.700694e-02
4.659445e+02	-3.743382e-02
4.686358e+02	-3.786561e-02
4.713426e+02	-3.830235e-02
4.740650e+02	-3.874411e-02
4.768032e+02	-3.919094e-02
4.795572e+02	-3.964290e-02
4.823271e+02	-4.010005e-02
4.851130e+02	-4.056245e-02
4.879150e+02	-4.103015e-02
4.907332e+02	-4.150322e-02
4.935676e+02	-4.198171e-02
4.964185e+02	-4.246570e-02
4.992858e+02	-4.295524e-02
5.021696e+02	-4.345039e-02
5.050701e+02	-4.395122e-02
5.079874e+02	-4.445780e-02
5.109215e+02	-4.497018e-02
5.138726e+02	-4.548844e-02
5.168407e+02	-4.601264e-02
5.198259e+02	-4.654285e-02
5.228284e+02	-4.707913e-02
5.258482e+02	-4.762156e-02
5.288855e+02	-4.817020e-02
5.319403e+02	-4.872513e-02
5.350128e+02	-4.928642e-02
5.381030e+02	-4.985413e-02
5.412111e+02	-5.042835e-02
5.443371e+02	-5.100914e-02
5.474812e+02	-5.159658e-02
5.506434e+02	-5.219074e-02
5.538239e+02	-5.279170e-02
5.570228e+02	-5.339954e-02
5.602401e+02	-5.401434e-02
5.634760e+02	-5.463617e-02
5.667306e+02	-5.526511e-02
5.700040e+02	-5.590125e-02
5.732964e+02	-5.654466e-02
5.766077e+02	-5.719543e-02
5.799382e+02	-5.785363e-02
5.832879e+02	-5.851936e-02
5.866569e+02	-5.919270e-02
5.900454e+02	-5.987373e-02
5.934535e+02	-6.056255e-02
5.968813e+02	-6.125923e-02
6.003288e+02	-6.196387e-02
6.037963e+02	-6.267655e-02
6.072838e+02	-6.339737e-02
6.107914e+02	-6.412642e-02
6.143194e+02	-6.486379e-02
6.178676e+02	-6.560958e-02
6.214364e+02	-6.636387e-02
6.250258e+02	-6.712677e-02
6.286359e+02	-6.789838e-02
6.322669e+02	-6.867878e-02
6.359189e+02	-6.946807e-02
6.395919e+02	-7.026637e-02
6.432862e+02	-7.107376e-02
6.470017e+02	-7.189036e-02
6.507388e+02	-7.271625e-02
6.544974e+02	-7.355156e-02
6.582778e+02	-7.439638e-02
6.620800e+02	-7.525081e-02
6.659041e+02	-7.611498e-02
6.697504e+02	-7.698898e-02
6.736188e+02	-7.787292e-02
6.775096e+02	-7.876692e-02
6.814229e+02	-7.967109e-02
6.853587e+02	-8.058555e-02
6.893173e+02	-8.151040e-02
6.932988e+02	-8.244576e-02
6.973033e+02	-8.339176e-02
7.013309e+02	-8.434850e-02
