Frequency(Hz)	Magnitude(dB)
1.000000e+01	-1.795987e-05
1.005776e+01	-1.816794e-05
1.011585e+01	-1.837842e-05
1.017428e+01	-1.859134e-05
1.023305e+01	-1.880673e-05
1.029215e+01	-1.902461e-05
1.035160e+01	-1.924501e-05
1.041139e+01	-1.946797e-05
1.047153e+01	-1.969351e-05
1.053201e+01	-1.992167e-05
1.059284e+01	-2.015246e-05
1.065403e+01	-2.038594e-05
1.071556e+01	-2.062211e-05
1.077746e+01	-2.086102e-05
1.083971e+01	-2.110270e-05
1.090232e+01	-2.134718e-05
1.096529e+01	-2.159450e-05
1.102862e+01	-2.184467e-05
1.109232e+01	-2.209775e-05
1.115639e+01	-2.235376e-05
1.122083e+01	-2.261273e-05
1.128564e+01	-2.287471e-05
1.135083e+01	-2.313972e-05
1.141639e+01	-2.340780e-05
1.148233e+01	-2.367898e-05
1.154865e+01	-2.395331e-05
1.161536e+01	-2.423081e-05
1.168245e+01	-2.451153e-05
1.174992e+01	-2.479550e-05
1.181779e+01	-2.508277e-05
1.188605e+01	-2.537336e-05
1.195470e+01	-2.566731e-05
1.202375e+01	-2.596467e-05
1.209320e+01	-2.626548e-05
1.216305e+01	-2.656977e-05
1.223330e+01	-2.687759e-05
1.230396e+01	-2.718897e-05
1.237503e+01	-2.750397e-05
1.244651e+01	-2.782261e-05
1.251840e+01	-2.814494e-05
1.259070e+01	-2.847100e-05
1.266343e+01	-2.880085e-05
1.273657e+01	-2.913451e-05
1.281014e+01	-2.947204e-05
1.288413e+01	-2.981348e-05
1.295855e+01	-3.015888e-05
1.303339e+01	-3.050828e-05
1.310867e+01	-3.086172e-05
1.318439e+01	-3.121926e-05
1.326054e+01	-3.158095e-05
1.333713e+01	-3.194682e-05
1.341417e+01	-3.231693e-05
1.349165e+01	-3.269133e-05
1.356958e+01	-3.307007e-05
1.364795e+01	-3.345319e-05
1.372678e+01	-3.384075e-05
1.380607e+01	-3.423281e-05
1.388581e+01	-3.462940e-05
1.396602e+01	-3.503059e-05
1.404668e+01	-3.543643e-05
1.412782e+01	-3.584697e-05
1.420942e+01	-3.626226e-05
1.429149e+01	-3.668237e-05
1.437404e+01	-3.710734e-05
1.445706e+01	-3.753724e-05
1.454057e+01	-3.797212e-05
1.462455e+01	-3.841203e-05
1.470902e+01	-3.885705e-05
1.479398e+01	-3.930721e-05
1.487943e+01	-3.976260e-05
1.496537e+01	-4.022326e-05
1.505181e+01	-4.068925e-05
1.513875e+01	-4.116065e-05
1.522619e+01	-4.163750e-05
1.531414e+01	-4.211988e-05
1.540259e+01	-4.260785e-05
1.549156e+01	-4.310147e-05
1.558103e+01	-4.360081e-05
1.567103e+01	-4.410594e-05
1.576155e+01	-4.461691e-05
1.585258e+01	-4.513381e-05
1.594415e+01	-4.565669e-05
1.603624e+01	-4.618564e-05
1.612886e+01	-4.672071e-05
1.622202e+01	-4.726198e-05
1.631572e+01	-4.780952e-05
1.640996e+01	-4.836340e-05
1.650474e+01	-4.892370e-05
1.660008e+01	-4.949049e-05
1.669596e+01	-5.006385e-05
1.679239e+01	-5.064385e-05
1.688938e+01	-5.123057e-05
1.698694e+01	-5.182409e-05
1.708505e+01	-5.242448e-05
1.718373e+01	-5.303183e-05
1.728299e+01	-5.364621e-05
1.738281e+01	-5.426772e-05
1.748322e+01	-5.489642e-05
1.758420e+01	-5.553241e-05
1.768576e+01	-5.617576e-05
1.778792e+01	-5.682657e-05
1.789066e+01	-5.748491e-05
1.799399e+01	-5.815089e-05
1.809793e+01	-5.882458e-05
1.820246e+01	-5.950607e-05
1.830760e+01	-6.019546e-05
1.841334e+01	-6.089284e-05
1.851969e+01	-6.159830e-05
1.862666e+01	-6.231192e-05
1.873425e+01	-6.303382e-05
1.884246e+01	-6.376408e-05
1.895129e+01	-6.450280e-05
1.906075e+01	-6.525008e-05
1.917085e+01	-6.600601e-05
1.928158e+01	-6.677070e-05
1.939295e+01	-6.754425e-05
1.950496e+01	-6.832677e-05
1.961762e+01	-6.911834e-05
1.973093e+01	-6.991909e-05
1.984490e+01	-7.072912e-05
1.995952e+01	-7.154853e-05
2.007480e+01	-7.237743e-05
2.019076e+01	-7.321594e-05
2.030738e+01	-7.406416e-05
2.042467e+01	-7.492220e-05
2.054264e+01	-7.579019e-05
2.066130e+01	-7.666823e-05
2.078064e+01	-7.755645e-05
2.090066e+01	-7.845495e-05
2.102139e+01	-7.936387e-05
2.114280e+01	-8.028331e-05
2.126492e+01	-8.121341e-05
2.138775e+01	-8.215428e-05
2.151128e+01	-8.310605e-05
2.163553e+01	-8.406885e-05
2.176050e+01	-8.504280e-05
2.188619e+01	-8.602803e-05
2.201260e+01	-8.702468e-05
2.213974e+01	-8.803288e-05
2.226762e+01	-8.905275e-05
2.239624e+01	-9.008444e-05
2.252560e+01	-9.112809e-05
2.265571e+01	-9.218382e-05
2.278656e+01	-9.325178e-05
2.291818e+01	-9.433212e-05
2.305055e+01	-9.542497e-05
2.318369e+01	-9.653048e-05
2.331760e+01	-9.764880e-05
2.345228e+01	-9.878008e-05
2.358774e+01	-9.992446e-05
2.372398e+01	-1.010821e-04
2.386101e+01	-1.022532e-04
2.399883e+01	-1.034378e-04
2.413745e+01	-1.046361e-04
2.427686e+01	-1.058483e-04
2.441709e+01	-1.070746e-04
2.455812e+01	-1.083151e-04
2.469997e+01	-1.095699e-04
2.484263e+01	-1.108393e-04
2.498612e+01	-1.121234e-04
2.513044e+01	-1.134224e-04
2.527559e+01	-1.147364e-04
2.542158e+01	-1.160656e-04
2.556842e+01	-1.174102e-04
2.571610e+01	-1.187704e-04
2.586463e+01	-1.201464e-04
2.601403e+01	-1.215383e-04
2.616428e+01	-1.229464e-04
2.631541e+01	-1.243707e-04
2.646740e+01	-1.258116e-04
2.662028e+01	-1.272691e-04
2.677404e+01	-1.287435e-04
2.692868e+01	-1.302350e-04
2.708422e+01	-1.317438e-04
2.724066e+01	-1.332701e-04
2.739800e+01	-1.348140e-04
2.755625e+01	-1.363759e-04
2.771541e+01	-1.379558e-04
2.787550e+01	-1.395540e-04
2.803650e+01	-1.411708e-04
2.819844e+01	-1.428062e-04
2.836131e+01	-1.444607e-04
2.852513e+01	-1.461343e-04
2.868989e+01	-1.478272e-04
2.885560e+01	-1.495398e-04
2.902227e+01	-1.512723e-04
2.918990e+01	-1.530248e-04
2.935850e+01	-1.547976e-04
2.952807e+01	-1.565909e-04
2.969863e+01	-1.584050e-04
2.987016e+01	-1.602401e-04
3.004269e+01	-1.620965e-04
3.021622e+01	-1.639744e-04
3.039075e+01	-1.658741e-04
3.056628e+01	-1.677958e-04
3.074283e+01	-1.697397e-04
3.092040e+01	-1.717061e-04
3.109900e+01	-1.736953e-04
3.127862e+01	-1.757076e-04
3.145929e+01	-1.777432e-04
3.164099e+01	-1.798024e-04
3.182375e+01	-1.818854e-04
3.200756e+01	-1.839925e-04
3.219244e+01	-1.861241e-04
3.237838e+01	-1.882803e-04
3.256540e+01	-1.904616e-04
3.275349e+01	-1.926681e-04
3.294268e+01	-1.949001e-04
3.313295e+01	-1.971580e-04
3.332433e+01	-1.994421e-04
3.351681e+01	-2.017527e-04
3.371040e+01	-2.040900e-04
3.390511e+01	-2.064544e-04
3.410094e+01	-2.088461e-04
3.429791e+01	-2.112656e-04
3.449601e+01	-2.137131e-04
3.469526e+01	-2.161890e-04
3.489566e+01	-2.186935e-04
3.509721e+01	-2.212271e-04
3.529993e+01	-2.237900e-04
3.550382e+01	-2.263826e-04
3.570889e+01	-2.290052e-04
3.591515e+01	-2.316583e-04
3.612259e+01	-2.343420e-04
3.633123e+01	-2.370569e-04
3.654108e+01	-2.398031e-04
3.675214e+01	-2.425813e-04
3.696442e+01	-2.453915e-04
3.717792e+01	-2.482344e-04
3.739266e+01	-2.511102e-04
3.760864e+01	-2.540193e-04
3.782587e+01	-2.569621e-04
3.804435e+01	-2.599390e-04
3.826409e+01	-2.629503e-04
3.848510e+01	-2.659966e-04
3.870739e+01	-2.690781e-04
3.893096e+01	-2.721954e-04
3.915583e+01	-2.753487e-04
3.938199e+01	-2.785386e-04
3.960946e+01	-2.817655e-04
3.983824e+01	-2.850297e-04
4.006834e+01	-2.883317e-04
4.029978e+01	-2.916720e-04
4.053255e+01	-2.950510e-04
4.076666e+01	-2.984692e-04
4.100213e+01	-3.019269e-04
4.123896e+01	-3.054247e-04
4.147715e+01	-3.089630e-04
4.171672e+01	-3.125423e-04
4.195767e+01	-3.161630e-04
4.220002e+01	-3.198257e-04
4.244377e+01	-3.235309e-04
4.268892e+01	-3.272789e-04
4.293549e+01	-3.310704e-04
4.318348e+01	-3.349058e-04
4.343291e+01	-3.387856e-04
4.368377e+01	-3.427104e-04
4.393609e+01	-3.466806e-04
4.418986e+01	-3.506968e-04
4.444510e+01	-3.547596e-04
4.470182e+01	-3.588694e-04
4.496001e+01	-3.630268e-04
4.521970e+01	-3.672324e-04
4.548089e+01	-3.714867e-04
4.574358e+01	-3.757903e-04
4.600779e+01	-3.801438e-04
4.627353e+01	-3.845476e-04
4.654081e+01	-3.890025e-04
4.680963e+01	-3.935090e-04
4.708000e+01	-3.980677e-04
4.735193e+01	-4.026792e-04
4.762543e+01	-4.073442e-04
4.790051e+01	-4.120631e-04
4.817719e+01	-4.168368e-04
4.845545e+01	-4.216657e-04
4.873533e+01	-4.265506e-04
4.901682e+01	-4.314921e-04
4.929994e+01	-4.364908e-04
4.958470e+01	-4.415474e-04
4.987110e+01	-4.466625e-04
5.015915e+01	-4.518370e-04
5.044887e+01	-4.570714e-04
5.074026e+01	-4.623664e-04
5.103333e+01	-4.677227e-04
5.132810e+01	-4.731411e-04
5.162457e+01	-4.786223e-04
5.192275e+01	-4.841670e-04
5.222265e+01	-4.897759e-04
5.252429e+01	-4.954497e-04
5.282767e+01	-5.011893e-04
5.313280e+01	-5.069954e-04
5.343969e+01	-5.128687e-04
5.374836e+01	-5.188101e-04
5.405880e+01	-5.248203e-04
5.437105e+01	-5.309001e-04
5.468509e+01	-5.370504e-04
5.500095e+01	-5.432719e-04
5.531863e+01	-5.495654e-04
5.563815e+01	-5.559319e-04
5.595951e+01	-5.623721e-04
5.628273e+01	-5.688869e-04
5.660782e+01	-5.754772e-04
5.693479e+01	-5.821438e-04
5.726364e+01	-5.888876e-04
5.759439e+01	-5.957096e-04
5.792705e+01	-6.026105e-04
5.826164e+01	-6.095915e-04
5.859815e+01	-6.166533e-04
5.893662e+01	-6.237968e-04
5.927703e+01	-6.310232e-04
5.961941e+01	-6.383332e-04
5.996377e+01	-6.457279e-04
6.031012e+01	-6.532083e-04
6.065847e+01	-6.607753e-04
6.100883e+01	-6.684300e-04
6.136121e+01	-6.761733e-04
6.171563e+01	-6.840064e-04
6.207210e+01	-6.919301e-04
6.243063e+01	-6.999457e-04
6.279122e+01	-7.080541e-04
6.315390e+01	-7.162564e-04
6.351868e+01	-7.245538e-04
6.388556e+01	-7.329472e-04
6.425456e+01	-7.414379e-04
6.462569e+01	-7.500269e-04
6.499897e+01	-7.587154e-04
6.537440e+01	-7.675046e-04
6.575200e+01	-7.763955e-04
6.613178e+01	-7.853895e-04
6.651375e+01	-7.944876e-04
6.689793e+01	-8.036911e-04
6.728433e+01	-8.130012e-04
6.767297e+01	-8.224191e-04
6.806384e+01	-8.319462e-04
6.845698e+01	-8.415836e-04
6.885238e+01	-8.513326e-04
6.925007e+01	-8.611945e-04
6.965005e+01	-8.711707e-04
7.005235e+01	-8.812624e-04
7.045697e+01	-8.914710e-04
7.086393e+01	-9.017979e-04
7.127323e+01	-9.122444e-04
7.168490e+01	-9.228119e-04
7.209895e+01	-9.335017e-04
7.251539e+01	-9.443154e-04
7.293424e+01	-9.552544e-04
7.335551e+01	-9.663200e-04
7.377920e+01	-9.775139e-04
7.420535e+01	-9.888373e-04
7.463396e+01	-1.000292e-03
7.506504e+01	-1.011879e-03
7.549861e+01	-1.023601e-03
7.593469e+01	-1.035458e-03
7.637328e+01	-1.047453e-03
7.681441e+01	-1.059586e-03
7.725809e+01	-1.071860e-03
7.770433e+01	-1.084277e-03
7.815315e+01	-1.096837e-03
7.860456e+01	-1.109542e-03
7.905857e+01	-1.122395e-03
7.951521e+01	-1.135396e-03
7.997449e+01	-1.148549e-03
8.043642e+01	-1.161853e-03
8.090102e+01	-1.175312e-03
8.136830e+01	-1.188926e-03
8.183828e+01	-1.202698e-03
8.231097e+01	-1.216630e-03
8.278640e+01	-1.230723e-03
8.326457e+01	-1.244979e-03
8.374550e+01	-1.259400e-03
8.422921e+01	-1.273989e-03
8.471572e+01	-1.288746e-03
8.520503e+01	-1.303674e-03
8.569717e+01	-1.318775e-03
8.619215e+01	-1.334051e-03
8.669000e+01	-1.349504e-03
8.719071e+01	-1.365136e-03
8.769432e+01	-1.380949e-03
8.820084e+01	-1.396945e-03
8.871029e+01	-1.413127e-03
8.922267e+01	-1.429495e-03
8.973802e+01	-1.446054e-03
9.025634e+01	-1.462804e-03
9.077766e+01	-1.479748e-03
9.130199e+01	-1.496888e-03
9.182935e+01	-1.514227e-03
9.235975e+01	-1.531767e-03
9.289321e+01	-1.549509e-03
9.342976e+01	-1.567458e-03
9.396941e+01	-1.585614e-03
9.451217e+01	-1.603980e-03
9.505807e+01	-1.622559e-03
9.560712e+01	-1.641353e-03
9.615934e+01	-1.660365e-03
9.671476e+01	-1.679597e-03
9.727338e+01	-1.699052e-03
9.783522e+01	-1.718732e-03
9.840032e+01	-1.738640e-03
9.896867e+01	-1.758779e-03
9.954031e+01	-1.779150e-03
1.001153e+02	-1.799758e-03
1.006935e+02	-1.820604e-03
1.012751e+02	-1.841692e-03
1.018601e+02	-1.863024e-03
1.024484e+02	-1.884603e-03
1.030402e+02	-1.906432e-03
1.036353e+02	-1.928513e-03
1.042339e+02	-1.950851e-03
1.048360e+02	-1.973447e-03
1.054415e+02	-1.996304e-03
1.060505e+02	-2.019427e-03
1.066631e+02	-2.042817e-03
1.072791e+02	-2.066478e-03
1.078988e+02	-2.090413e-03
1.085220e+02	-2.114625e-03
1.091488e+02	-2.139117e-03
1.097793e+02	-2.163893e-03
1.104133e+02	-2.188956e-03
1.110511e+02	-2.214309e-03
1.116925e+02	-2.239956e-03
1.123376e+02	-2.265900e-03
1.129865e+02	-2.292144e-03
1.136391e+02	-2.318692e-03
1.142955e+02	-2.345547e-03
1.149556e+02	-2.372714e-03
1.156196e+02	-2.400195e-03
1.162874e+02	-2.427994e-03
1.169591e+02	-2.456115e-03
1.176347e+02	-2.484561e-03
1.183141e+02	-2.513337e-03
1.189975e+02	-2.542446e-03
1.196848e+02	-2.571893e-03
1.203761e+02	-2.601680e-03
1.210714e+02	-2.631812e-03
1.217707e+02	-2.662293e-03
1.224740e+02	-2.693126e-03
1.231814e+02	-2.724317e-03
1.238929e+02	-2.755869e-03
1.246085e+02	-2.787786e-03
1.253283e+02	-2.820073e-03
1.260522e+02	-2.852734e-03
1.267802e+02	-2.885772e-03
1.275125e+02	-2.919193e-03
1.282490e+02	-2.953002e-03
1.289898e+02	-2.987201e-03
1.297348e+02	-3.021797e-03
1.304842e+02	-3.056792e-03
1.312378e+02	-3.092194e-03
1.319959e+02	-3.128005e-03
1.327583e+02	-3.164230e-03
1.335251e+02	-3.200875e-03
1.342963e+02	-3.237944e-03
1.350720e+02	-3.275442e-03
1.358522e+02	-3.313375e-03
1.366368e+02	-3.351746e-03
1.374260e+02	-3.390562e-03
1.382198e+02	-3.429827e-03
1.390182e+02	-3.469546e-03
1.398211e+02	-3.509726e-03
1.406287e+02	-3.550370e-03
1.414410e+02	-3.591485e-03
1.422579e+02	-3.633076e-03
1.430796e+02	-3.675148e-03
1.439060e+02	-3.717708e-03
1.447372e+02	-3.760760e-03
1.455732e+02	-3.804310e-03
1.464141e+02	-3.848364e-03
1.472597e+02	-3.892928e-03
1.481103e+02	-3.938009e-03
1.489658e+02	-3.983610e-03
1.498262e+02	-4.029740e-03
1.506916e+02	-4.076404e-03
1.515620e+02	-4.123608e-03
1.524374e+02	-4.171358e-03
1.533179e+02	-4.219660e-03
1.542034e+02	-4.268522e-03
1.550941e+02	-4.317949e-03
1.559899e+02	-4.367949e-03
1.568909e+02	-4.418527e-03
1.577971e+02	-4.469690e-03
1.587085e+02	-4.521446e-03
1.596252e+02	-4.573800e-03
1.605472e+02	-4.626761e-03
1.614745e+02	-4.680334e-03
1.624072e+02	-4.734527e-03
1.633453e+02	-4.789348e-03
1.642887e+02	-4.844802e-03
1.652377e+02	-4.900899e-03
1.661921e+02	-4.957645e-03
1.671520e+02	-5.015047e-03
1.681175e+02	-5.073114e-03
1.690885e+02	-5.131852e-03
1.700651e+02	-5.191270e-03
1.710474e+02	-5.251376e-03
1.720354e+02	-5.312177e-03
1.730291e+02	-5.373682e-03
1.740285e+02	-5.435899e-03
1.750337e+02	-5.498835e-03
1.760446e+02	-5.562499e-03
1.770615e+02	-5.626900e-03
1.780842e+02	-5.692047e-03
1.791128e+02	-5.757947e-03
1.801473e+02	-5.824609e-03
1.811878e+02	-5.892043e-03
1.822344e+02	-5.960257e-03
1.832870e+02	-6.029260e-03
1.843456e+02	-6.099061e-03
1.854104e+02	-6.169670e-03
1.864813e+02	-6.241096e-03
1.875584e+02	-6.313348e-03
1.886418e+02	-6.386436e-03
1.897313e+02	-6.460369e-03
1.908272e+02	-6.535157e-03
1.919294e+02	-6.610811e-03
1.930380e+02	-6.687340e-03
1.941530e+02	-6.764754e-03
1.952744e+02	-6.843064e-03
1.964023e+02	-6.922279e-03
1.975367e+02	-7.002410e-03
1.986777e+02	-7.083469e-03
1.998252e+02	-7.165465e-03
2.009794e+02	-7.248409e-03
2.021403e+02	-7.332312e-03
2.033078e+02	-7.417186e-03
2.044821e+02	-7.503042e-03
2.056632e+02	-7.589890e-03
2.068511e+02	-7.677743e-03
2.080459e+02	-7.766612e-03
2.092475e+02	-7.856509e-03
2.104561e+02	-7.947445e-03
2.116717e+02	-8.039433e-03
2.128943e+02	-8.132484e-03
2.141240e+02	-8.226611e-03
2.153608e+02	-8.321827e-03
2.166047e+02	-8.418144e-03
2.178558e+02	-8.515574e-03
2.191141e+02	-8.614131e-03
2.203797e+02	-8.713828e-03
2.216526e+02	-8.814677e-03
2.229329e+02	-8.916692e-03
2.242205e+02	-9.019887e-03
2.255156e+02	-9.124274e-03
2.268182e+02	-9.229869e-03
2.281283e+02	-9.336684e-03
2.294459e+02	-9.444733e-03
2.307712e+02	-9.554032e-03
2.321041e+02	-9.664595e-03
2.334447e+02	-9.776435e-03
2.347931e+02	-9.889568e-03
2.361493e+02	-1.000401e-02
2.375133e+02	-1.011977e-02
2.388851e+02	-1.023687e-02
2.402649e+02	-1.035533e-02
2.416527e+02	-1.047515e-02
2.430484e+02	-1.059636e-02
2.444523e+02	-1.071897e-02
2.458642e+02	-1.084300e-02
2.472843e+02	-1.096846e-02
2.487126e+02	-1.109537e-02
2.501492e+02	-1.122374e-02
2.515940e+02	-1.135360e-02
2.530472e+02	-1.148496e-02
2.545088e+02	-1.161784e-02
2.559789e+02	-1.175225e-02
2.574574e+02	-1.188822e-02
2.589444e+02	-1.202576e-02
2.604401e+02	-1.216488e-02
2.619444e+02	-1.230561e-02
2.634574e+02	-1.244797e-02
2.649791e+02	-1.259198e-02
2.665096e+02	-1.273764e-02
2.680489e+02	-1.288499e-02
2.695972e+02	-1.303404e-02
2.711544e+02	-1.318482e-02
2.727205e+02	-1.333733e-02
2.742958e+02	-1.349160e-02
2.758801e+02	-1.364766e-02
2.774736e+02	-1.380552e-02
2.790762e+02	-1.396520e-02
2.806882e+02	-1.412673e-02
2.823094e+02	-1.429012e-02
2.839400e+02	-1.445540e-02
2.855800e+02	-1.462259e-02
2.872295e+02	-1.479170e-02
2.888886e+02	-1.496277e-02
2.905572e+02	-1.513582e-02
2.922354e+02	-1.531086e-02
2.939234e+02	-1.548792e-02
2.956211e+02	-1.566703e-02
2.973286e+02	-1.584820e-02
2.990459e+02	-1.603147e-02
3.007732e+02	-1.621685e-02
3.025104e+02	-1.640437e-02
3.042577e+02	-1.659405e-02
3.060151e+02	-1.678593e-02
3.077826e+02	-1.698002e-02
3.095604e+02	-1.717634e-02
3.113484e+02	-1.737494e-02
3.131467e+02	-1.757582e-02
3.149554e+02	-1.777902e-02
3.167746e+02	-1.798457e-02
3.186043e+02	-1.819249e-02
3.204445e+02	-1.840280e-02
3.222954e+02	-1.861555e-02
3.241570e+02	-1.883074e-02
3.260293e+02	-1.904842e-02
3.279124e+02	-1.926861e-02
3.298064e+02	-1.949134e-02
3.317114e+02	-1.971664e-02
3.336273e+02	-1.994453e-02
3.355544e+02	-2.017506e-02
3.374925e+02	-2.040824e-02
3.394418e+02	-2.064411e-02
3.414024e+02	-2.088270e-02
3.433744e+02	-2.112404e-02
3.453577e+02	-2.136816e-02
3.473525e+02	-2.161510e-02
3.493588e+02	-2.186489e-02
3.513766e+02	-2.211755e-02
3.534062e+02	-2.237312e-02
3.554474e+02	-2.263164e-02
3.575005e+02	-2.289314e-02
3.595654e+02	-2.315766e-02
3.616422e+02	-2.342522e-02
3.637311e+02	-2.369586e-02
3.658320e+02	-2.396963e-02
3.679450e+02	-2.424654e-02
3.700702e+02	-2.452665e-02
3.722077e+02	-2.480998e-02
3.743576e+02	-2.509658e-02
3.765199e+02	-2.538648e-02
3.786946e+02	-2.567971e-02
3.808820e+02	-2.597633e-02
3.830819e+02	-2.627636e-02
3.852946e+02	-2.657984e-02
3.875200e+02	-2.688682e-02
3.897583e+02	-2.719733e-02
3.920096e+02	-2.751142e-02
3.942738e+02	-2.782912e-02
3.965511e+02	-2.815048e-02
3.988416e+02	-2.847554e-02
4.011452e+02	-2.880434e-02
4.034622e+02	-2.913692e-02
4.057926e+02	-2.947333e-02
4.081365e+02	-2.981361e-02
4.104938e+02	-3.015780e-02
4.128648e+02	-3.050596e-02
4.152495e+02	-3.085812e-02
4.176480e+02	-3.121433e-02
4.200603e+02	-3.157464e-02
4.224866e+02	-3.193909e-02
4.249268e+02	-3.230773e-02
4.273812e+02	-3.268061e-02
4.298497e+02	-3.305778e-02
4.323325e+02	-3.343928e-02
4.348297e+02	-3.382517e-02
4.373412e+02	-3.421550e-02
4.398673e+02	-3.461031e-02
4.424079e+02	-3.500966e-02
4.449633e+02	-3.541360e-02
4.475334e+02	-3.582218e-02
4.501183e+02	-3.623545e-02
4.527182e+02	-3.665347e-02
4.553330e+02	-3.707629e-02
4.579630e+02	-3.750397e-02
4.606082e+02	-3.793656e-02
4.632687e+02	-3.837412e-02
4.659445e+02	-3.881670e-02
4.686358e+02	-3.926437e-02
4.713426e+02	-3.971717e-02
4.740650e+02	-4.017517e-02
4.768032e+02	-4.063842e-02
4.795572e+02	-4.110700e-02
4.823271e+02	-4.158095e-02
4.851130e+02	-4.206034e-02
4.879150e+02	-4.254522e-02
4.907332e+02	-4.303567e-02
4.935676e+02	-4.353175e-02
4.964185e+02	-4.403351e-02
4.992858e+02	-4.454103e-02
5.021696e+02	-4.505437e-02
5.050701e+02	-4.557359e-02
5.079874e+02	-4.609876e-02
5.109215e+02	-4.662996e-02
5.138726e+02	-4.716724e-02
5.168407e+02	-4.771067e-02
5.198259e+02	-4.826034e-02
5.228284e+02	-4.881630e-02
5.258482e+02	-4.937863e-02
5.288855e+02	-4.994739e-02
5.319403e+02	-5.052268e-02
5.350128e+02	-5.110454e-02
5.381030e+02	-5.169307e-02
5.412111e+02	-5.228834e-02
5.443371e+02	-5.289042e-02
5.474812e+02	-5.349939e-02
5.506434e+02	-5.411533e-02
5.538239e+02	-5.473831e-02
5.570228e+02	-5.536842e-02
5.602401e+02	-5.600573e-02
5.634760e+02	-5.665034e-02
5.667306e+02	-5.730231e-02
5.700040e+02	-5.796174e-02
5.732964e+02	-5.862870e-02
5.766077e+02	-5.930329e-02
5.799382e+02	-5.998558e-02
5.832879e+02	-6.067567e-02
5.866569e+02	-6.137364e-02
5.900454e+02	-6.207958e-02
5.934535e+02	-6.279359e-02
5.968813e+02	-6.351574e-02
6.003288e+02	-6.424614e-02
6.037963e+02	-6.498488e-02
6.072838e+02	-6.573204e-02
6.107914e+02	-6.648773e-02
6.143194e+02	-6.725204e-02
6.178676e+02	-6.802507e-02
6.214364e+02	-6.880691e-02
6.250258e+02	-6.959767e-02
6.286359e+02	-7.039744e-02
6.322669e+02	-7.120632e-02
6.359189e+02	-7.202442e-02
6.395919e+02	-7.285184e-02
6.432862e+02	-7.368869e-02
6.470017e+02	-7.453507e-02
6.507388e+02	-7.539108e-02
6.544974e+02	-7.625684e-02
6.582778e+02	-7.713245e-02
6.620800e+02	-7.801802e-02
6.659041e+02	-7.891367e-02
6.697504e+02	-7.981951e-02
6.736188e+02	-8.073565e-02
6.775096e+02	-8.166220e-02
6.814229e+02	-8.259929e-02
6.853587e+02	-8.354702e-02
6.893173e+02	-8.450552e-02
6.932988e+02	-8.547492e-02
6.973033e+02	-8.645532e-02
7.013309e+02	-8.744685e-02
