Frequency(Hz)	Magnitude(dB)
1.000000e+01	-2.186302e+00
1.005776e+01	-2.206287e+00
1.011585e+01	-2.226401e+00
1.017428e+01	-2.246301e+00
1.023305e+01	-2.266677e+00
1.029215e+01	-2.287246e+00
1.035160e+01	-2.307513e+00
1.041139e+01	-2.328318e+00
1.047153e+01	-2.348977e+00
1.053201e+01	-2.369998e+00
1.059284e+01	-2.391331e+00
1.065403e+01	-2.412232e+00
1.071556e+01	-2.433661e+00
1.077746e+01	-2.455166e+00
1.083971e+01	-2.476805e+00
1.090232e+01	-2.498735e+00
1.096529e+01	-2.520706e+00
1.102862e+01	-2.542602e+00
1.109232e+01	-2.565046e+00
1.115639e+01	-2.587368e+00
1.122083e+01	-2.609922e+00
1.128564e+01	-2.632690e+00
1.135083e+01	-2.655416e+00
1.141639e+01	-2.678561e+00
1.148233e+01	-2.701625e+00
1.154865e+01	-2.724969e+00
1.161536e+01	-2.748088e+00
1.168245e+01	-2.771483e+00
1.174992e+01	-2.795396e+00
1.181779e+01	-2.819166e+00
1.188605e+01	-2.843214e+00
1.195470e+01	-2.867026e+00
1.202375e+01	-2.891575e+00
1.209320e+01	-2.915891e+00
1.216305e+01	-2.940334e+00
1.223330e+01	-2.965032e+00
1.230396e+01	-2.989748e+00
1.237503e+01	-3.014780e+00
1.244651e+01	-3.040022e+00
1.251840e+01	-3.065142e+00
1.259070e+01	-3.090536e+00
1.266343e+01	-3.116209e+00
1.273657e+01	-3.142021e+00
1.281014e+01	-3.167645e+00
1.288413e+01	-3.193676e+00
1.295855e+01	-3.219875e+00
1.303339e+01	-3.246136e+00
1.310867e+01	-3.272383e+00
1.318439e+01	-3.299045e+00
1.326054e+01	-3.325464e+00
1.333713e+01	-3.352295e+00
1.341417e+01	-3.379635e+00
1.349165e+01	-3.406703e+00
1.356958e+01	-3.433831e+00
1.364795e+01	-3.461146e+00
1.372678e+01	-3.488756e+00
1.380607e+01	-3.516590e+00
1.388581e+01	-3.544228e+00
1.396602e+01	-3.572306e+00
1.404668e+01	-3.600561e+00
1.412782e+01	-3.628650e+00
1.420942e+01	-3.657164e+00
1.429149e+01	-3.685509e+00
1.437404e+01	-3.714438e+00
1.445706e+01	-3.743203e+00
1.454057e+01	-3.772096e+00
1.462455e+01	-3.801259e+00
1.470902e+01	-3.830357e+00
1.479398e+01	-3.860043e+00
1.487943e+01	-3.889359e+00
1.496537e+01	-3.919158e+00
1.505181e+01	-3.948629e+00
1.513875e+01	-3.978743e+00
1.522619e+01	-4.008801e+00
1.531414e+01	-4.039421e+00
1.540259e+01	-4.069421e+00
1.549156e+01	-4.099966e+00
1.558103e+01	-4.130281e+00
1.567103e+01	-4.161347e+00
1.576155e+01	-4.192242e+00
1.585258e+01	-4.223368e+00
1.594415e+01	-4.254418e+00
1.603624e+01	-4.285910e+00
1.612886e+01	-4.317133e+00
1.622202e+01	-4.348679e+00
1.631572e+01	-4.380519e+00
1.640996e+01	-4.412111e+00
1.650474e+01	-4.444521e+00
1.660008e+01	-4.476519e+00
1.669596e+01	-4.508785e+00
1.679239e+01	-4.540982e+00
1.688938e+01	-4.573878e+00
1.698694e+01	-4.606256e+00
1.708505e+01	-4.639021e+00
1.718373e+01	-4.671759e+00
1.728299e+01	-4.704913e+00
1.738281e+01	-4.738268e+00
1.748322e+01	-4.771476e+00
1.758420e+01	-4.804481e+00
1.768576e+01	-4.838350e+00
1.778792e+01	-4.871914e+00
1.789066e+01	-4.905749e+00
1.799399e+01	-4.939644e+00
1.809793e+01	-4.973845e+00
1.820246e+01	-5.008168e+00
1.830760e+01	-5.042170e+00
1.841334e+01	-5.076864e+00
1.851969e+01	-5.111160e+00
1.862666e+01	-5.145876e+00
1.873425e+01	-5.180800e+00
1.884246e+01	-5.215862e+00
1.895129e+01	-5.250750e+00
1.906075e+01	-5.285806e+00
1.917085e+01	-5.321067e+00
1.928158e+01	-5.356409e+00
1.939295e+01	-5.391943e+00
1.950496e+01	-5.427568e+00
1.961762e+01	-5.463334e+00
1.973093e+01	-5.499704e+00
1.984490e+01	-5.535316e+00
1.995952e+01	-5.570975e+00
2.007480e+01	-5.607285e+00
2.019076e+01	-5.643850e+00
2.030738e+01	-5.680242e+00
2.042467e+01	-5.716908e+00
2.054264e+01	-5.753367e+00
2.066130e+01	-5.790174e+00
2.078064e+01	-5.827216e+00
2.090066e+01	-5.864021e+00
2.102139e+01	-5.901284e+00
2.114280e+01	-5.939068e+00
2.126492e+01	-5.975766e+00
2.138775e+01	-6.013348e+00
2.151128e+01	-6.050882e+00
2.163553e+01	-6.088608e+00
2.176050e+01	-6.126333e+00
2.188619e+01	-6.164322e+00
2.201260e+01	-6.201583e+00
2.213974e+01	-6.240439e+00
2.226762e+01	-6.278305e+00
2.239624e+01	-6.316682e+00
2.252560e+01	-6.355056e+00
2.265571e+01	-6.393736e+00
2.278656e+01	-6.432199e+00
2.291818e+01	-6.470814e+00
2.305055e+01	-6.509568e+00
2.318369e+01	-6.548224e+00
2.331760e+01	-6.587448e+00
2.345228e+01	-6.626667e+00
2.358774e+01	-6.665645e+00
2.372398e+01	-6.705113e+00
2.386101e+01	-6.744627e+00
2.399883e+01	-6.784066e+00
2.413745e+01	-6.823462e+00
2.427686e+01	-6.863269e+00
2.441709e+01	-6.903010e+00
2.455812e+01	-6.943128e+00
2.469997e+01	-6.982948e+00
2.484263e+01	-7.022740e+00
2.498612e+01	-7.063082e+00
2.513044e+01	-7.102815e+00
2.527559e+01	-7.143703e+00
2.542158e+01	-7.184632e+00
2.556842e+01	-7.224306e+00
2.571610e+01	-7.264897e+00
2.586463e+01	-7.305773e+00
2.601403e+01	-7.346427e+00
2.616428e+01	-7.387212e+00
2.631541e+01	-7.428440e+00
2.646740e+01	-7.469288e+00
2.662028e+01	-7.510349e+00
2.677404e+01	-7.552048e+00
2.692868e+01	-7.593171e+00
2.708422e+01	-7.634568e+00
2.724066e+01	-7.675682e+00
2.739800e+01	-7.717039e+00
2.755625e+01	-7.759088e+00
2.771541e+01	-7.800684e+00
2.787550e+01	-7.842241e+00
2.803650e+01	-7.883788e+00
2.819844e+01	-7.925897e+00
2.836131e+01	-7.968169e+00
2.852513e+01	-8.009877e+00
2.868989e+01	-8.052016e+00
2.885560e+01	-8.094729e+00
2.902227e+01	-8.136794e+00
2.918990e+01	-8.179540e+00
2.935850e+01	-8.221958e+00
2.952807e+01	-8.264716e+00
2.969863e+01	-8.307222e+00
2.987016e+01	-8.349295e+00
3.004269e+01	-8.391973e+00
3.021622e+01	-8.434843e+00
3.039075e+01	-8.478260e+00
3.056628e+01	-8.521173e+00
3.074283e+01	-8.563712e+00
3.092040e+01	-8.607408e+00
3.109900e+01	-8.650128e+00
3.127862e+01	-8.693282e+00
3.145929e+01	-8.736754e+00
3.164099e+01	-8.779860e+00
3.182375e+01	-8.823595e+00
3.200756e+01	-8.866995e+00
3.219244e+01	-8.910613e+00
3.237838e+01	-8.954169e+00
3.256540e+01	-8.998047e+00
3.275349e+01	-9.041337e+00
3.294268e+01	-9.085566e+00
3.313295e+01	-9.128780e+00
3.332433e+01	-9.173085e+00
3.351681e+01	-9.217760e+00
3.371040e+01	-9.261496e+00
3.390511e+01	-9.305599e+00
3.410094e+01	-9.349680e+00
3.429791e+01	-9.393696e+00
3.449601e+01	-9.437981e+00
3.469526e+01	-9.483047e+00
3.489566e+01	-9.526800e+00
3.509721e+01	-9.571604e+00
3.529993e+01	-9.615980e+00
3.550382e+01	-9.660436e+00
3.570889e+01	-9.705102e+00
3.591515e+01	-9.750103e+00
3.612259e+01	-9.795065e+00
3.633123e+01	-9.839454e+00
3.654108e+01	-9.884658e+00
3.675214e+01	-9.929546e+00
3.696442e+01	-9.974639e+00
3.717792e+01	-1.001917e+01
3.739266e+01	-1.006397e+01
3.760864e+01	-1.010997e+01
3.782587e+01	-1.015431e+01
3.804435e+01	-1.020010e+01
3.826409e+01	-1.024509e+01
3.848510e+01	-1.029082e+01
3.870739e+01	-1.033606e+01
3.893096e+01	-1.038137e+01
3.915583e+01	-1.042667e+01
3.938199e+01	-1.047247e+01
3.960946e+01	-1.051781e+01
3.983824e+01	-1.056316e+01
4.006834e+01	-1.060913e+01
4.029978e+01	-1.065454e+01
4.053255e+01	-1.070073e+01
4.076666e+01	-1.074588e+01
4.100213e+01	-1.079222e+01
4.123896e+01	-1.083761e+01
4.147715e+01	-1.088407e+01
4.171672e+01	-1.093034e+01
4.195767e+01	-1.097614e+01
4.220002e+01	-1.102187e+01
4.244377e+01	-1.106846e+01
4.268892e+01	-1.111477e+01
4.293549e+01	-1.116037e+01
4.318348e+01	-1.120654e+01
4.343291e+01	-1.125254e+01
4.368377e+01	-1.129928e+01
4.393609e+01	-1.134527e+01
4.418986e+01	-1.139165e+01
4.444510e+01	-1.143868e+01
4.470182e+01	-1.148492e+01
4.496001e+01	-1.153159e+01
4.521970e+01	-1.157727e+01
4.548089e+01	-1.162490e+01
4.574358e+01	-1.167128e+01
4.600779e+01	-1.171789e+01
4.627353e+01	-1.176459e+01
4.654081e+01	-1.181122e+01
4.680963e+01	-1.185827e+01
4.708000e+01	-1.190472e+01
4.735193e+01	-1.195152e+01
4.762543e+01	-1.199874e+01
4.790051e+01	-1.204539e+01
4.817719e+01	-1.209206e+01
4.845545e+01	-1.213952e+01
4.873533e+01	-1.218568e+01
4.901682e+01	-1.223312e+01
4.929994e+01	-1.227993e+01
4.958470e+01	-1.232703e+01
4.987110e+01	-1.237431e+01
5.015915e+01	-1.242069e+01
5.044887e+01	-1.246886e+01
5.074026e+01	-1.251579e+01
5.103333e+01	-1.256387e+01
5.132810e+01	-1.261085e+01
5.162457e+01	-1.265735e+01
5.192275e+01	-1.270542e+01
5.222265e+01	-1.275150e+01
5.252429e+01	-1.279936e+01
5.282767e+01	-1.284643e+01
5.313280e+01	-1.289385e+01
5.343969e+01	-1.294207e+01
5.374836e+01	-1.298933e+01
5.405880e+01	-1.303673e+01
5.437105e+01	-1.308469e+01
5.468509e+01	-1.313290e+01
5.500095e+01	-1.317927e+01
5.531863e+01	-1.322731e+01
5.563815e+01	-1.327512e+01
5.595951e+01	-1.332251e+01
5.628273e+01	-1.337051e+01
5.660782e+01	-1.341860e+01
5.693479e+01	-1.346570e+01
5.726364e+01	-1.351396e+01
5.759439e+01	-1.356186e+01
5.792705e+01	-1.361000e+01
5.826164e+01	-1.365724e+01
5.859815e+01	-1.370473e+01
5.893662e+01	-1.375267e+01
5.927703e+01	-1.380129e+01
5.961941e+01	-1.384841e+01
5.996377e+01	-1.389644e+01
6.031012e+01	-1.394490e+01
6.065847e+01	-1.399322e+01
6.100883e+01	-1.404085e+01
6.136121e+01	-1.408938e+01
6.171563e+01	-1.413665e+01
6.207210e+01	-1.418529e+01
6.243063e+01	-1.423306e+01
6.279122e+01	-1.428149e+01
6.315390e+01	-1.433011e+01
6.351868e+01	-1.437760e+01
6.388556e+01	-1.442609e+01
6.425456e+01	-1.447438e+01
6.462569e+01	-1.452277e+01
6.499897e+01	-1.457096e+01
6.537440e+01	-1.461857e+01
6.575200e+01	-1.466683e+01
6.613178e+01	-1.471582e+01
6.651375e+01	-1.476419e+01
6.689793e+01	-1.481271e+01
6.728433e+01	-1.486056e+01
6.767297e+01	-1.490912e+01
6.806384e+01	-1.495838e+01
6.845698e+01	-1.500566e+01
6.885238e+01	-1.505419e+01
6.925007e+01	-1.510329e+01
6.965005e+01	-1.515198e+01
7.005235e+01	-1.520029e+01
7.045697e+01	-1.524880e+01
7.086393e+01	-1.529734e+01
7.127323e+01	-1.534689e+01
7.168490e+01	-1.539406e+01
7.209895e+01	-1.544234e+01
7.251539e+01	-1.549164e+01
7.293424e+01	-1.554081e+01
7.335551e+01	-1.558922e+01
7.377920e+01	-1.563781e+01
7.420535e+01	-1.568570e+01
7.463396e+01	-1.573452e+01
7.506504e+01	-1.578307e+01
7.549861e+01	-1.583117e+01
7.593469e+01	-1.588065e+01
7.637328e+01	-1.592925e+01
7.681441e+01	-1.597771e+01
7.725809e+01	-1.602760e+01
7.770433e+01	-1.607577e+01
7.815315e+01	-1.612515e+01
7.860456e+01	-1.617275e+01
7.905857e+01	-1.622295e+01
7.951521e+01	-1.627081e+01
7.997449e+01	-1.631984e+01
8.043642e+01	-1.636947e+01
8.090102e+01	-1.641817e+01
8.136830e+01	-1.646781e+01
8.183828e+01	-1.651597e+01
8.231097e+01	-1.656494e+01
8.278640e+01	-1.661428e+01
8.326457e+01	-1.666272e+01
8.374550e+01	-1.671197e+01
8.422921e+01	-1.675895e+01
8.471572e+01	-1.680990e+01
8.520503e+01	-1.685864e+01
8.569717e+01	-1.690734e+01
8.619215e+01	-1.695586e+01
8.669000e+01	-1.700464e+01
8.719071e+01	-1.705391e+01
8.769432e+01	-1.710403e+01
8.820084e+01	-1.715269e+01
8.871029e+01	-1.720150e+01
8.922267e+01	-1.725004e+01
8.973802e+01	-1.730022e+01
9.025634e+01	-1.734857e+01
9.077766e+01	-1.739769e+01
9.130199e+01	-1.744711e+01
9.182935e+01	-1.749724e+01
9.235975e+01	-1.754485e+01
9.289321e+01	-1.759587e+01
9.342976e+01	-1.764389e+01
9.396941e+01	-1.769313e+01
9.451217e+01	-1.774119e+01
9.505807e+01	-1.779202e+01
9.560712e+01	-1.784098e+01
9.615934e+01	-1.789000e+01
9.671476e+01	-1.793969e+01
9.727338e+01	-1.798852e+01
9.783522e+01	-1.803638e+01
9.840032e+01	-1.808618e+01
9.896867e+01	-1.813668e+01
9.954031e+01	-1.818527e+01
1.001153e+02	-1.823591e+01
1.006935e+02	-1.828464e+01
1.012751e+02	-1.833198e+01
1.018601e+02	-1.838225e+01
1.024484e+02	-1.843160e+01
1.030402e+02	-1.848092e+01
1.036353e+02	-1.853065e+01
1.042339e+02	-1.857989e+01
1.048360e+02	-1.862972e+01
1.054415e+02	-1.867809e+01
1.060505e+02	-1.872844e+01
1.066631e+02	-1.877718e+01
1.072791e+02	-1.882729e+01
1.078988e+02	-1.887629e+01
1.085220e+02	-1.892505e+01
1.091488e+02	-1.897377e+01
1.097793e+02	-1.902522e+01
1.104133e+02	-1.907233e+01
1.110511e+02	-1.912248e+01
1.116925e+02	-1.917299e+01
1.123376e+02	-1.922240e+01
1.129865e+02	-1.927129e+01
1.136391e+02	-1.931982e+01
1.142955e+02	-1.936985e+01
1.149556e+02	-1.941831e+01
1.156196e+02	-1.946917e+01
1.162874e+02	-1.951946e+01
1.169591e+02	-1.956847e+01
1.176347e+02	-1.961882e+01
1.183141e+02	-1.966579e+01
1.189975e+02	-1.971571e+01
1.196848e+02	-1.976632e+01
1.203761e+02	-1.981490e+01
1.210714e+02	-1.986435e+01
1.217707e+02	-1.991425e+01
1.224740e+02	-1.996427e+01
1.231814e+02	-2.001473e+01
1.238929e+02	-2.006355e+01
1.246085e+02	-2.011334e+01
1.253283e+02	-2.016315e+01
1.260522e+02	-2.021290e+01
1.267802e+02	-2.026125e+01
1.275125e+02	-2.031076e+01
1.282490e+02	-2.036140e+01
1.289898e+02	-2.041089e+01
1.297348e+02	-2.045861e+01
1.304842e+02	-2.050819e+01
1.312378e+02	-2.055756e+01
1.319959e+02	-2.060734e+01
1.327583e+02	-2.065859e+01
1.335251e+02	-2.070822e+01
1.342963e+02	-2.075857e+01
1.350720e+02	-2.080753e+01
1.358522e+02	-2.085722e+01
1.366368e+02	-2.090633e+01
1.374260e+02	-2.095621e+01
1.382198e+02	-2.100532e+01
1.390182e+02	-2.105450e+01
1.398211e+02	-2.110754e+01
1.406287e+02	-2.115379e+01
1.414410e+02	-2.120268e+01
1.422579e+02	-2.125489e+01
1.430796e+02	-2.130314e+01
1.439060e+02	-2.135261e+01
1.447372e+02	-2.140330e+01
1.455732e+02	-2.145159e+01
1.464141e+02	-2.150240e+01
1.472597e+02	-2.155149e+01
1.481103e+02	-2.159971e+01
1.489658e+02	-2.165125e+01
1.498262e+02	-2.170210e+01
1.506916e+02	-2.174951e+01
1.515620e+02	-2.180221e+01
1.524374e+02	-2.185057e+01
1.533179e+02	-2.190041e+01
1.542034e+02	-2.194880e+01
1.550941e+02	-2.199859e+01
1.559899e+02	-2.204756e+01
1.568909e+02	-2.209946e+01
1.577971e+02	-2.214752e+01
1.587085e+02	-2.219858e+01
1.596252e+02	-2.224893e+01
1.605472e+02	-2.229782e+01
1.614745e+02	-2.234864e+01
1.624072e+02	-2.239775e+01
1.633453e+02	-2.244815e+01
1.642887e+02	-2.249752e+01
1.652377e+02	-2.254572e+01
1.661921e+02	-2.259725e+01
1.671520e+02	-2.264720e+01
1.681175e+02	-2.269489e+01
1.690885e+02	-2.274460e+01
1.700651e+02	-2.279669e+01
1.710474e+02	-2.284292e+01
1.720354e+02	-2.289500e+01
1.730291e+02	-2.294439e+01
1.740285e+02	-2.299299e+01
1.750337e+02	-2.304471e+01
1.760446e+02	-2.309219e+01
1.770615e+02	-2.314410e+01
1.780842e+02	-2.319309e+01
1.791128e+02	-2.324378e+01
1.801473e+02	-2.329189e+01
1.811878e+02	-2.334333e+01
1.822344e+02	-2.339391e+01
1.832870e+02	-2.344034e+01
1.843456e+02	-2.349389e+01
1.854104e+02	-2.354305e+01
1.864813e+02	-2.359457e+01
1.875584e+02	-2.364302e+01
1.886418e+02	-2.369104e+01
1.897313e+02	-2.374244e+01
1.908272e+02	-2.379182e+01
1.919294e+02	-2.384003e+01
1.930380e+02	-2.389050e+01
1.941530e+02	-2.394130e+01
1.952744e+02	-2.399180e+01
1.964023e+02	-2.404079e+01
1.975367e+02	-2.409179e+01
1.986777e+02	-2.413849e+01
1.998252e+02	-2.419095e+01
2.009794e+02	-2.424002e+01
2.021403e+02	-2.429111e+01
2.033078e+02	-2.434267e+01
2.044821e+02	-2.438867e+01
2.056632e+02	-2.444078e+01
2.068511e+02	-2.448873e+01
2.080459e+02	-2.453996e+01
2.092475e+02	-2.458823e+01
2.104561e+02	-2.464146e+01
2.116717e+02	-2.468930e+01
2.128943e+02	-2.473854e+01
2.141240e+02	-2.479001e+01
2.153608e+02	-2.483811e+01
2.166047e+02	-2.488754e+01
2.178558e+02	-2.493925e+01
2.191141e+02	-2.498938e+01
2.203797e+02	-2.503847e+01
2.216526e+02	-2.509003e+01
2.229329e+02	-2.513884e+01
2.242205e+02	-2.518746e+01
2.255156e+02	-2.524163e+01
2.268182e+02	-2.528974e+01
2.281283e+02	-2.534083e+01
2.294459e+02	-2.538791e+01
2.307712e+02	-2.543769e+01
2.321041e+02	-2.548651e+01
2.334447e+02	-2.553821e+01
2.347931e+02	-2.558810e+01
2.361493e+02	-2.563714e+01
2.375133e+02	-2.569120e+01
2.388851e+02	-2.573625e+01
2.402649e+02	-2.578578e+01
2.416527e+02	-2.583727e+01
2.430484e+02	-2.588938e+01
2.444523e+02	-2.593827e+01
2.458642e+02	-2.598858e+01
2.472843e+02	-2.604014e+01
2.487126e+02	-2.608878e+01
2.501492e+02	-2.613615e+01
2.515940e+02	-2.618906e+01
2.530472e+02	-2.624085e+01
2.545088e+02	-2.628723e+01
2.559789e+02	-2.634037e+01
2.574574e+02	-2.639051e+01
2.589444e+02	-2.643680e+01
2.604401e+02	-2.648419e+01
2.619444e+02	-2.654044e+01
2.634574e+02	-2.658768e+01
2.649791e+02	-2.663741e+01
2.665096e+02	-2.668651e+01
2.680489e+02	-2.673785e+01
2.695972e+02	-2.678969e+01
2.711544e+02	-2.683197e+01
2.727205e+02	-2.688633e+01
2.742958e+02	-2.693784e+01
2.758801e+02	-2.698446e+01
2.774736e+02	-2.703671e+01
2.790762e+02	-2.708533e+01
2.806882e+02	-2.713868e+01
2.823094e+02	-2.718453e+01
2.839400e+02	-2.723442e+01
2.855800e+02	-2.728688e+01
2.872295e+02	-2.733644e+01
2.888886e+02	-2.738643e+01
2.905572e+02	-2.743560e+01
2.922354e+02	-2.748547e+01
2.939234e+02	-2.753890e+01
2.956211e+02	-2.758033e+01
2.973286e+02	-2.763431e+01
2.990459e+02	-2.768672e+01
3.007732e+02	-2.773740e+01
3.025104e+02	-2.778857e+01
3.042577e+02	-2.783904e+01
3.060151e+02	-2.788938e+01
3.077826e+02	-2.793984e+01
3.095604e+02	-2.798351e+01
3.113484e+02	-2.803363e+01
3.131467e+02	-2.809016e+01
3.149554e+02	-2.813559e+01
3.167746e+02	-2.818926e+01
3.186043e+02	-2.823836e+01
3.204445e+02	-2.828722e+01
3.222954e+02	-2.834221e+01
3.241570e+02	-2.838540e+01
3.260293e+02	-2.843688e+01
3.279124e+02	-2.848692e+01
3.298064e+02	-2.853986e+01
3.317114e+02	-2.858852e+01
3.336273e+02	-2.864144e+01
3.355544e+02	-2.868844e+01
3.374925e+02	-2.873976e+01
3.394418e+02	-2.878102e+01
3.414024e+02	-2.883339e+01
3.433744e+02	-2.888700e+01
3.453577e+02	-2.893886e+01
3.473525e+02	-2.898494e+01
3.493588e+02	-2.903725e+01
3.513766e+02	-2.908846e+01
3.534062e+02	-2.914135e+01
3.554474e+02	-2.918770e+01
3.575005e+02	-2.923779e+01
3.595654e+02	-2.928837e+01
3.616422e+02	-2.933366e+01
3.637311e+02	-2.938811e+01
3.658320e+02	-2.944046e+01
3.679450e+02	-2.949264e+01
3.700702e+02	-2.953864e+01
3.722077e+02	-2.958882e+01
3.743576e+02	-2.964303e+01
3.765199e+02	-2.968701e+01
3.786946e+02	-2.973845e+01
3.808820e+02	-2.978936e+01
3.830819e+02	-2.983796e+01
3.852946e+02	-2.989238e+01
3.875200e+02	-2.993666e+01
3.897583e+02	-2.998820e+01
3.920096e+02	-3.004004e+01
3.942738e+02	-3.008943e+01
3.965511e+02	-3.013834e+01
3.988416e+02	-3.019217e+01
4.011452e+02	-3.023864e+01
4.034622e+02	-3.029570e+01
4.057926e+02	-3.033910e+01
4.081365e+02	-3.039695e+01
4.104938e+02	-3.043976e+01
4.128648e+02	-3.049445e+01
4.152495e+02	-3.053972e+01
4.176480e+02	-3.059596e+01
4.200603e+02	-3.064130e+01
4.224866e+02	-3.068958e+01
4.249268e+02	-3.073900e+01
4.273812e+02	-3.078947e+01
4.298497e+02	-3.084532e+01
4.323325e+02	-3.088760e+01
4.348297e+02	-3.094323e+01
4.373412e+02	-3.098863e+01
4.398673e+02	-3.104168e+01
4.424079e+02	-3.109141e+01
4.449633e+02	-3.114347e+01
4.475334e+02	-3.119613e+01
4.501183e+02	-3.124100e+01
4.527182e+02	-3.128770e+01
4.553330e+02	-3.134402e+01
4.579630e+02	-3.139319e+01
4.606082e+02	-3.144053e+01
4.632687e+02	-3.149120e+01
4.659445e+02	-3.154731e+01
4.686358e+02	-3.159165e+01
4.713426e+02	-3.164238e+01
4.740650e+02	-3.169895e+01
4.768032e+02	-3.174370e+01
4.795572e+02	-3.179566e+01
4.823271e+02	-3.184152e+01
4.851130e+02	-3.189764e+01
4.879150e+02	-3.194104e+01
4.907332e+02	-3.199306e+01
4.935676e+02	-3.204606e+01
4.964185e+02	-3.209523e+01
4.992858e+02	-3.214898e+01
5.021696e+02	-3.219356e+01
5.050701e+02	-3.224675e+01
5.079874e+02	-3.229472e+01
5.109215e+02	-3.234106e+01
5.138726e+02	-3.240004e+01
5.168407e+02	-3.244225e+01
5.198259e+02	-3.250038e+01
5.228284e+02	-3.254141e+01
5.258482e+02	-3.260361e+01
5.288855e+02	-3.263826e+01
5.319403e+02	-3.269982e+01
5.350128e+02	-3.275581e+01
5.381030e+02	-3.279671e+01
5.412111e+02	-3.285007e+01
5.443371e+02	-3.290203e+01
5.474812e+02	-3.295018e+01
5.506434e+02	-3.299888e+01
5.538239e+02	-3.304722e+01
5.570228e+02	-3.310206e+01
5.602401e+02	-3.315577e+01
5.634760e+02	-3.319900e+01
5.667306e+02	-3.325560e+01
5.700040e+02	-3.330875e+01
5.732964e+02	-3.335225e+01
5.766077e+02	-3.340538e+01
5.799382e+02	-3.345512e+01
5.832879e+02	-3.350070e+01
5.866569e+02	-3.355081e+01
5.900454e+02	-3.360523e+01
5.934535e+02	-3.366010e+01
5.968813e+02	-3.370018e+01
6.003288e+02	-3.374993e+01
6.037963e+02	-3.380645e+01
6.072838e+02	-3.385738e+01
6.107914e+02	-3.390822e+01
6.143194e+02	-3.395989e+01
6.178676e+02	-3.400865e+01
6.214364e+02	-3.405665e+01
6.250258e+02	-3.410650e+01
6.286359e+02	-3.415816e+01
6.322669e+02	-3.421052e+01
6.359189e+02	-3.425627e+01
6.395919e+02	-3.431403e+01
6.432862e+02	-3.436155e+01
6.470017e+02	-3.440660e+01
6.507388e+02	-3.445753e+01
6.544974e+02	-3.450428e+01
6.582778e+02	-3.456336e+01
6.620800e+02	-3.460989e+01
6.659041e+02	-3.465968e+01
6.697504e+02	-3.471859e+01
6.736188e+02	-3.476223e+01
6.775096e+02	-3.481900e+01
6.814229e+02	-3.486656e+01
6.853587e+02	-3.490736e+01
6.893173e+02	-3.496154e+01
6.932988e+02	-3.501838e+01
6.973033e+02	-3.506751e+01
7.013309e+02	-3.512086e+01
