Frequency(Hz)	Magnitude(dB)
1.000000e+01	-1.581650e-05
1.005776e+01	-1.599974e-05
1.011585e+01	-1.618510e-05
1.017428e+01	-1.637261e-05
1.023305e+01	-1.656229e-05
1.029215e+01	-1.675417e-05
1.035160e+01	-1.694827e-05
1.041139e+01	-1.714462e-05
1.047153e+01	-1.734325e-05
1.053201e+01	-1.754417e-05
1.059284e+01	-1.774743e-05
1.065403e+01	-1.795304e-05
1.071556e+01	-1.816103e-05
1.077746e+01	-1.837143e-05
1.083971e+01	-1.858426e-05
1.090232e+01	-1.879957e-05
1.096529e+01	-1.901737e-05
1.102862e+01	-1.923769e-05
1.109232e+01	-1.946056e-05
1.115639e+01	-1.968602e-05
1.122083e+01	-1.991408e-05
1.128564e+01	-2.014479e-05
1.135083e+01	-2.037818e-05
1.141639e+01	-2.061426e-05
1.148233e+01	-2.085308e-05
1.154865e+01	-2.109467e-05
1.161536e+01	-2.133906e-05
1.168245e+01	-2.158628e-05
1.174992e+01	-2.183636e-05
1.181779e+01	-2.208934e-05
1.188605e+01	-2.234525e-05
1.195470e+01	-2.260413e-05
1.202375e+01	-2.286600e-05
1.209320e+01	-2.313091e-05
1.216305e+01	-2.339889e-05
1.223330e+01	-2.366997e-05
1.230396e+01	-2.394419e-05
1.237503e+01	-2.422159e-05
1.244651e+01	-2.450220e-05
1.251840e+01	-2.478607e-05
1.259070e+01	-2.507322e-05
1.266343e+01	-2.536370e-05
1.273657e+01	-2.565754e-05
1.281014e+01	-2.595479e-05
1.288413e+01	-2.625548e-05
1.295855e+01	-2.655966e-05
1.303339e+01	-2.686736e-05
1.310867e+01	-2.717863e-05
1.318439e+01	-2.749350e-05
1.326054e+01	-2.781202e-05
1.333713e+01	-2.813422e-05
1.341417e+01	-2.846017e-05
1.349165e+01	-2.878988e-05
1.356958e+01	-2.912342e-05
1.364795e+01	-2.946082e-05
1.372678e+01	-2.980213e-05
1.380607e+01	-3.014740e-05
1.388581e+01	-3.049666e-05
1.396602e+01	-3.084998e-05
1.404668e+01	-3.120738e-05
1.412782e+01	-3.156892e-05
1.420942e+01	-3.193466e-05
1.429149e+01	-3.230463e-05
1.437404e+01	-3.267889e-05
1.445706e+01	-3.305748e-05
1.454057e+01	-3.344046e-05
1.462455e+01	-3.382787e-05
1.470902e+01	-3.421978e-05
1.479398e+01	-3.461622e-05
1.487943e+01	-3.501726e-05
1.496537e+01	-3.542294e-05
1.505181e+01	-3.583332e-05
1.513875e+01	-3.624846e-05
1.522619e+01	-3.666841e-05
1.531414e+01	-3.709322e-05
1.540259e+01	-3.752295e-05
1.549156e+01	-3.795767e-05
1.558103e+01	-3.839741e-05
1.567103e+01	-3.884226e-05
1.576155e+01	-3.929225e-05
1.585258e+01	-3.974746e-05
1.594415e+01	-4.020795e-05
1.603624e+01	-4.067376e-05
1.612886e+01	-4.114498e-05
1.622202e+01	-4.162165e-05
1.631572e+01	-4.210385e-05
1.640996e+01	-4.259163e-05
1.650474e+01	-4.308506e-05
1.660008e+01	-4.358421e-05
1.669596e+01	-4.408915e-05
1.679239e+01	-4.459993e-05
1.688938e+01	-4.511663e-05
1.698694e+01	-4.563932e-05
1.708505e+01	-4.616806e-05
1.718373e+01	-4.670292e-05
1.728299e+01	-4.724399e-05
1.738281e+01	-4.779132e-05
1.748322e+01	-4.834499e-05
1.758420e+01	-4.890508e-05
1.768576e+01	-4.947166e-05
1.778792e+01	-5.004480e-05
1.789066e+01	-5.062457e-05
1.799399e+01	-5.121107e-05
1.809793e+01	-5.180436e-05
1.820246e+01	-5.240453e-05
1.830760e+01	-5.301164e-05
1.841334e+01	-5.362579e-05
1.851969e+01	-5.424706e-05
1.862666e+01	-5.487552e-05
1.873425e+01	-5.551127e-05
1.884246e+01	-5.615438e-05
1.895129e+01	-5.680494e-05
1.906075e+01	-5.746303e-05
1.917085e+01	-5.812876e-05
1.928158e+01	-5.880219e-05
1.939295e+01	-5.948342e-05
1.950496e+01	-6.017255e-05
1.961762e+01	-6.086966e-05
1.973093e+01	-6.157485e-05
1.984490e+01	-6.228821e-05
1.995952e+01	-6.300983e-05
2.007480e+01	-6.373981e-05
2.019076e+01	-6.447825e-05
2.030738e+01	-6.522524e-05
2.042467e+01	-6.598089e-05
2.054264e+01	-6.674529e-05
2.066130e+01	-6.751854e-05
2.078064e+01	-6.830076e-05
2.090066e+01	-6.909204e-05
2.102139e+01	-6.989248e-05
2.114280e+01	-7.070220e-05
2.126492e+01	-7.152130e-05
2.138775e+01	-7.234988e-05
2.151128e+01	-7.318807e-05
2.163553e+01	-7.403597e-05
2.176050e+01	-7.489369e-05
2.188619e+01	-7.576134e-05
2.201260e+01	-7.663905e-05
2.213974e+01	-7.752693e-05
2.226762e+01	-7.842509e-05
2.239624e+01	-7.933366e-05
2.252560e+01	-8.025275e-05
2.265571e+01	-8.118250e-05
2.278656e+01	-8.212301e-05
2.291818e+01	-8.307442e-05
2.305055e+01	-8.403685e-05
2.318369e+01	-8.501043e-05
2.331760e+01	-8.599529e-05
2.345228e+01	-8.699156e-05
2.358774e+01	-8.799937e-05
2.372398e+01	-8.901886e-05
2.386101e+01	-9.005016e-05
2.399883e+01	-9.109340e-05
2.413745e+01	-9.214873e-05
2.427686e+01	-9.321629e-05
2.441709e+01	-9.429621e-05
2.455812e+01	-9.538865e-05
2.469997e+01	-9.649374e-05
2.484263e+01	-9.761164e-05
2.498612e+01	-9.874248e-05
2.513044e+01	-9.988643e-05
2.527559e+01	-1.010436e-04
2.542158e+01	-1.022142e-04
2.556842e+01	-1.033984e-04
2.571610e+01	-1.045963e-04
2.586463e+01	-1.058080e-04
2.601403e+01	-1.070338e-04
2.616428e+01	-1.082738e-04
2.631541e+01	-1.095282e-04
2.646740e+01	-1.107971e-04
2.662028e+01	-1.120807e-04
2.677404e+01	-1.133792e-04
2.692868e+01	-1.146927e-04
2.708422e+01	-1.160214e-04
2.724066e+01	-1.173655e-04
2.739800e+01	-1.187252e-04
2.755625e+01	-1.201007e-04
2.771541e+01	-1.214921e-04
2.787550e+01	-1.228996e-04
2.803650e+01	-1.243234e-04
2.819844e+01	-1.257637e-04
2.836131e+01	-1.272207e-04
2.852513e+01	-1.286945e-04
2.868989e+01	-1.301855e-04
2.885560e+01	-1.316937e-04
2.902227e+01	-1.332194e-04
2.918990e+01	-1.347627e-04
2.935850e+01	-1.363240e-04
2.952807e+01	-1.379033e-04
2.969863e+01	-1.395009e-04
2.987016e+01	-1.411170e-04
3.004269e+01	-1.427519e-04
3.021622e+01	-1.444057e-04
3.039075e+01	-1.460786e-04
3.056628e+01	-1.477710e-04
3.074283e+01	-1.494829e-04
3.092040e+01	-1.512147e-04
3.109900e+01	-1.529665e-04
3.127862e+01	-1.547386e-04
3.145929e+01	-1.565313e-04
3.164099e+01	-1.583447e-04
3.182375e+01	-1.601792e-04
3.200756e+01	-1.620348e-04
3.219244e+01	-1.639120e-04
3.237838e+01	-1.658110e-04
3.256540e+01	-1.677319e-04
3.275349e+01	-1.696751e-04
3.294268e+01	-1.716408e-04
3.313295e+01	-1.736292e-04
3.332433e+01	-1.756407e-04
3.351681e+01	-1.776755e-04
3.371040e+01	-1.797339e-04
3.390511e+01	-1.818161e-04
3.410094e+01	-1.839225e-04
3.429791e+01	-1.860532e-04
3.449601e+01	-1.882087e-04
3.469526e+01	-1.903891e-04
3.489566e+01	-1.925947e-04
3.509721e+01	-1.948259e-04
3.529993e+01	-1.970830e-04
3.550382e+01	-1.993662e-04
3.570889e+01	-2.016759e-04
3.591515e+01	-2.040123e-04
3.612259e+01	-2.063758e-04
3.633123e+01	-2.087666e-04
3.654108e+01	-2.111852e-04
3.675214e+01	-2.136318e-04
3.696442e+01	-2.161067e-04
3.717792e+01	-2.186103e-04
3.739266e+01	-2.211429e-04
3.760864e+01	-2.237048e-04
3.782587e+01	-2.262964e-04
3.804435e+01	-2.289181e-04
3.826409e+01	-2.315701e-04
3.848510e+01	-2.342528e-04
3.870739e+01	-2.369666e-04
3.893096e+01	-2.397119e-04
3.915583e+01	-2.424889e-04
3.938199e+01	-2.452981e-04
3.960946e+01	-2.481399e-04
3.983824e+01	-2.510146e-04
4.006834e+01	-2.539226e-04
4.029978e+01	-2.568643e-04
4.053255e+01	-2.598400e-04
4.076666e+01	-2.628502e-04
4.100213e+01	-2.658953e-04
4.123896e+01	-2.689757e-04
4.147715e+01	-2.720918e-04
4.171672e+01	-2.752439e-04
4.195767e+01	-2.784326e-04
4.220002e+01	-2.816582e-04
4.244377e+01	-2.849212e-04
4.268892e+01	-2.882220e-04
4.293549e+01	-2.915610e-04
4.318348e+01	-2.949387e-04
4.343291e+01	-2.983555e-04
4.368377e+01	-3.018120e-04
4.393609e+01	-3.053084e-04
4.418986e+01	-3.088454e-04
4.444510e+01	-3.124233e-04
4.470182e+01	-3.160427e-04
4.496001e+01	-3.197040e-04
4.521970e+01	-3.234077e-04
4.548089e+01	-3.271543e-04
4.574358e+01	-3.309444e-04
4.600779e+01	-3.347783e-04
4.627353e+01	-3.386566e-04
4.654081e+01	-3.425799e-04
4.680963e+01	-3.465487e-04
4.708000e+01	-3.505634e-04
4.735193e+01	-3.546246e-04
4.762543e+01	-3.587328e-04
4.790051e+01	-3.628887e-04
4.817719e+01	-3.670926e-04
4.845545e+01	-3.713453e-04
4.873533e+01	-3.756473e-04
4.901682e+01	-3.799991e-04
4.929994e+01	-3.844013e-04
4.958470e+01	-3.888545e-04
4.987110e+01	-3.933593e-04
5.015915e+01	-3.979162e-04
5.044887e+01	-4.025260e-04
5.074026e+01	-4.071891e-04
5.103333e+01	-4.119063e-04
5.132810e+01	-4.166781e-04
5.162457e+01	-4.215052e-04
5.192275e+01	-4.263882e-04
5.222265e+01	-4.313278e-04
5.252429e+01	-4.363246e-04
5.282767e+01	-4.413793e-04
5.313280e+01	-4.464925e-04
5.343969e+01	-4.516650e-04
5.374836e+01	-4.568974e-04
5.405880e+01	-4.621904e-04
5.437105e+01	-4.675447e-04
5.468509e+01	-4.729611e-04
5.500095e+01	-4.784401e-04
5.531863e+01	-4.839827e-04
5.563815e+01	-4.895895e-04
5.595951e+01	-4.952612e-04
5.628273e+01	-5.009986e-04
5.660782e+01	-5.068024e-04
5.693479e+01	-5.126735e-04
5.726364e+01	-5.186126e-04
5.759439e+01	-5.246206e-04
5.792705e+01	-5.306981e-04
5.826164e+01	-5.368460e-04
5.859815e+01	-5.430651e-04
5.893662e+01	-5.493562e-04
5.927703e+01	-5.557203e-04
5.961941e+01	-5.621580e-04
5.996377e+01	-5.686704e-04
6.031012e+01	-5.752581e-04
6.065847e+01	-5.819222e-04
6.100883e+01	-5.886635e-04
6.136121e+01	-5.954828e-04
6.171563e+01	-6.023812e-04
6.207210e+01	-6.093595e-04
6.243063e+01	-6.164186e-04
6.279122e+01	-6.235594e-04
6.315390e+01	-6.307830e-04
6.351868e+01	-6.380903e-04
6.388556e+01	-6.454822e-04
6.425456e+01	-6.529597e-04
6.462569e+01	-6.605238e-04
6.499897e+01	-6.681756e-04
6.537440e+01	-6.759160e-04
6.575200e+01	-6.837460e-04
6.613178e+01	-6.916668e-04
6.651375e+01	-6.996793e-04
6.689793e+01	-7.077846e-04
6.728433e+01	-7.159838e-04
6.767297e+01	-7.242780e-04
6.806384e+01	-7.326683e-04
6.845698e+01	-7.411557e-04
6.885238e+01	-7.497414e-04
6.925007e+01	-7.584266e-04
6.965005e+01	-7.672124e-04
7.005235e+01	-7.761000e-04
7.045697e+01	-7.850905e-04
7.086393e+01	-7.941852e-04
7.127323e+01	-8.033852e-04
7.168490e+01	-8.126918e-04
7.209895e+01	-8.221061e-04
7.251539e+01	-8.316295e-04
7.293424e+01	-8.412633e-04
7.335551e+01	-8.510086e-04
7.377920e+01	-8.608668e-04
7.420535e+01	-8.708391e-04
7.463396e+01	-8.809270e-04
7.506504e+01	-8.911318e-04
7.549861e+01	-9.014547e-04
7.593469e+01	-9.118972e-04
7.637328e+01	-9.224607e-04
7.681441e+01	-9.331465e-04
7.725809e+01	-9.439560e-04
7.770433e+01	-9.548908e-04
7.815315e+01	-9.659523e-04
7.860456e+01	-9.771418e-04
7.905857e+01	-9.884610e-04
7.951521e+01	-9.999113e-04
7.997449e+01	-1.011494e-03
8.043642e+01	-1.023211e-03
8.090102e+01	-1.035064e-03
8.136830e+01	-1.047054e-03
8.183828e+01	-1.059183e-03
8.231097e+01	-1.071452e-03
8.278640e+01	-1.083864e-03
8.326457e+01	-1.096419e-03
8.374550e+01	-1.109120e-03
8.422921e+01	-1.121968e-03
8.471572e+01	-1.134964e-03
8.520503e+01	-1.148111e-03
8.569717e+01	-1.161411e-03
8.619215e+01	-1.174864e-03
8.669000e+01	-1.188473e-03
8.719071e+01	-1.202240e-03
8.769432e+01	-1.216167e-03
8.820084e+01	-1.230254e-03
8.871029e+01	-1.244505e-03
8.922267e+01	-1.258921e-03
8.973802e+01	-1.273504e-03
9.025634e+01	-1.288255e-03
9.077766e+01	-1.303178e-03
9.130199e+01	-1.318273e-03
9.182935e+01	-1.333544e-03
9.235975e+01	-1.348991e-03
9.289321e+01	-1.364617e-03
9.342976e+01	-1.380424e-03
9.396941e+01	-1.396414e-03
9.451217e+01	-1.412589e-03
9.505807e+01	-1.428951e-03
9.560712e+01	-1.445503e-03
9.615934e+01	-1.462247e-03
9.671476e+01	-1.479185e-03
9.727338e+01	-1.496318e-03
9.783522e+01	-1.513651e-03
9.840032e+01	-1.531184e-03
9.896867e+01	-1.548920e-03
9.954031e+01	-1.566861e-03
1.001153e+02	-1.585010e-03
1.006935e+02	-1.603370e-03
1.012751e+02	-1.621942e-03
1.018601e+02	-1.640729e-03
1.024484e+02	-1.659733e-03
1.030402e+02	-1.678958e-03
1.036353e+02	-1.698406e-03
1.042339e+02	-1.718078e-03
1.048360e+02	-1.737979e-03
1.054415e+02	-1.758109e-03
1.060505e+02	-1.778473e-03
1.066631e+02	-1.799073e-03
1.072791e+02	-1.819912e-03
1.078988e+02	-1.840991e-03
1.085220e+02	-1.862315e-03
1.091488e+02	-1.883886e-03
1.097793e+02	-1.905706e-03
1.104133e+02	-1.927780e-03
1.110511e+02	-1.950108e-03
1.116925e+02	-1.972696e-03
1.123376e+02	-1.995545e-03
1.129865e+02	-2.018658e-03
1.136391e+02	-2.042039e-03
1.142955e+02	-2.065691e-03
1.149556e+02	-2.089617e-03
1.156196e+02	-2.113820e-03
1.162874e+02	-2.138303e-03
1.169591e+02	-2.163070e-03
1.176347e+02	-2.188123e-03
1.183141e+02	-2.213467e-03
1.189975e+02	-2.239104e-03
1.196848e+02	-2.265038e-03
1.203761e+02	-2.291272e-03
1.210714e+02	-2.317810e-03
1.217707e+02	-2.344655e-03
1.224740e+02	-2.371811e-03
1.231814e+02	-2.399281e-03
1.238929e+02	-2.427070e-03
1.246085e+02	-2.455180e-03
1.253283e+02	-2.483616e-03
1.260522e+02	-2.512381e-03
1.267802e+02	-2.541479e-03
1.275125e+02	-2.570914e-03
1.282490e+02	-2.600690e-03
1.289898e+02	-2.630810e-03
1.297348e+02	-2.661280e-03
1.304842e+02	-2.692102e-03
1.312378e+02	-2.723281e-03
1.319959e+02	-2.754821e-03
1.327583e+02	-2.786726e-03
1.335251e+02	-2.819000e-03
1.342963e+02	-2.851648e-03
1.350720e+02	-2.884674e-03
1.358522e+02	-2.918083e-03
1.366368e+02	-2.951878e-03
1.374260e+02	-2.986065e-03
1.382198e+02	-3.020647e-03
1.390182e+02	-3.055629e-03
1.398211e+02	-3.091017e-03
1.406287e+02	-3.126814e-03
1.414410e+02	-3.163026e-03
1.422579e+02	-3.199657e-03
1.430796e+02	-3.236712e-03
1.439060e+02	-3.274196e-03
1.447372e+02	-3.312114e-03
1.455732e+02	-3.350471e-03
1.464141e+02	-3.389272e-03
1.472597e+02	-3.428522e-03
1.481103e+02	-3.468226e-03
1.489658e+02	-3.508391e-03
1.498262e+02	-3.549020e-03
1.506916e+02	-3.590119e-03
1.515620e+02	-3.631694e-03
1.524374e+02	-3.673750e-03
1.533179e+02	-3.716293e-03
1.542034e+02	-3.759329e-03
1.550941e+02	-3.802863e-03
1.559899e+02	-3.846900e-03
1.568909e+02	-3.891447e-03
1.577971e+02	-3.936510e-03
1.587085e+02	-3.982095e-03
1.596252e+02	-4.028207e-03
1.605472e+02	-4.074853e-03
1.614745e+02	-4.122039e-03
1.624072e+02	-4.169771e-03
1.633453e+02	-4.218055e-03
1.642887e+02	-4.266898e-03
1.652377e+02	-4.316307e-03
1.661921e+02	-4.366287e-03
1.671520e+02	-4.416846e-03
1.681175e+02	-4.467990e-03
1.690885e+02	-4.519726e-03
1.700651e+02	-4.572060e-03
1.710474e+02	-4.625001e-03
1.720354e+02	-4.678554e-03
1.730291e+02	-4.732726e-03
1.740285e+02	-4.787526e-03
1.750337e+02	-4.842959e-03
1.760446e+02	-4.899035e-03
1.770615e+02	-4.955759e-03
1.780842e+02	-5.013139e-03
1.791128e+02	-5.071184e-03
1.801473e+02	-5.129900e-03
1.811878e+02	-5.189296e-03
1.822344e+02	-5.249379e-03
1.832870e+02	-5.310157e-03
1.843456e+02	-5.371638e-03
1.854104e+02	-5.433831e-03
1.864813e+02	-5.496743e-03
1.875584e+02	-5.560384e-03
1.886418e+02	-5.624760e-03
1.897313e+02	-5.689882e-03
1.908272e+02	-5.755757e-03
1.919294e+02	-5.822394e-03
1.930380e+02	-5.889802e-03
1.941530e+02	-5.957990e-03
1.952744e+02	-6.026967e-03
1.964023e+02	-6.096742e-03
1.975367e+02	-6.167324e-03
1.986777e+02	-6.238722e-03
1.998252e+02	-6.310947e-03
2.009794e+02	-6.384007e-03
2.021403e+02	-6.457912e-03
2.033078e+02	-6.532672e-03
2.044821e+02	-6.608297e-03
2.056632e+02	-6.684797e-03
2.068511e+02	-6.762182e-03
2.080459e+02	-6.840461e-03
2.092475e+02	-6.919646e-03
2.104561e+02	-6.999748e-03
2.116717e+02	-7.080775e-03
2.128943e+02	-7.162740e-03
2.141240e+02	-7.245653e-03
2.153608e+02	-7.329524e-03
2.166047e+02	-7.414366e-03
2.178558e+02	-7.500189e-03
2.191141e+02	-7.587005e-03
2.203797e+02	-7.674824e-03
2.216526e+02	-7.763659e-03
2.229329e+02	-7.853522e-03
2.242205e+02	-7.944423e-03
2.255156e+02	-8.036376e-03
2.268182e+02	-8.129392e-03
2.281283e+02	-8.223484e-03
2.294459e+02	-8.318663e-03
2.307712e+02	-8.414943e-03
2.321041e+02	-8.512337e-03
2.334447e+02	-8.610856e-03
2.347931e+02	-8.710515e-03
2.361493e+02	-8.811326e-03
2.375133e+02	-8.913302e-03
2.388851e+02	-9.016458e-03
2.402649e+02	-9.120806e-03
2.416527e+02	-9.226360e-03
2.430484e+02	-9.333134e-03
2.444523e+02	-9.441143e-03
2.458642e+02	-9.550401e-03
2.472843e+02	-9.660921e-03
2.487126e+02	-9.772719e-03
2.501492e+02	-9.885809e-03
2.515940e+02	-1.000021e-02
2.530472e+02	-1.011593e-02
2.545088e+02	-1.023298e-02
2.559789e+02	-1.035139e-02
2.574574e+02	-1.047117e-02
2.589444e+02	-1.059233e-02
2.604401e+02	-1.071490e-02
2.619444e+02	-1.083888e-02
2.634574e+02	-1.096429e-02
2.649791e+02	-1.109115e-02
2.665096e+02	-1.121948e-02
2.680489e+02	-1.134929e-02
2.695972e+02	-1.148060e-02
2.711544e+02	-1.161342e-02
2.727205e+02	-1.174779e-02
2.742958e+02	-1.188370e-02
2.758801e+02	-1.202119e-02
2.774736e+02	-1.216026e-02
2.790762e+02	-1.230094e-02
2.806882e+02	-1.244324e-02
2.823094e+02	-1.258719e-02
2.839400e+02	-1.273280e-02
2.855800e+02	-1.288010e-02
2.872295e+02	-1.302909e-02
2.888886e+02	-1.317981e-02
2.905572e+02	-1.333226e-02
2.922354e+02	-1.348648e-02
2.939234e+02	-1.364248e-02
2.956211e+02	-1.380028e-02
2.973286e+02	-1.395990e-02
2.990459e+02	-1.412136e-02
3.007732e+02	-1.428469e-02
3.025104e+02	-1.444991e-02
3.042577e+02	-1.461703e-02
3.060151e+02	-1.478608e-02
3.077826e+02	-1.495709e-02
3.095604e+02	-1.513007e-02
3.113484e+02	-1.530504e-02
3.131467e+02	-1.548204e-02
3.149554e+02	-1.566108e-02
3.167746e+02	-1.584218e-02
3.186043e+02	-1.602538e-02
3.204445e+02	-1.621069e-02
3.222954e+02	-1.639814e-02
3.241570e+02	-1.658775e-02
3.260293e+02	-1.677955e-02
3.279124e+02	-1.697357e-02
3.298064e+02	-1.716982e-02
3.317114e+02	-1.736834e-02
3.336273e+02	-1.756915e-02
3.355544e+02	-1.777227e-02
3.374925e+02	-1.797774e-02
3.394418e+02	-1.818558e-02
3.414024e+02	-1.839582e-02
3.433744e+02	-1.860848e-02
3.453577e+02	-1.882359e-02
3.473525e+02	-1.904119e-02
3.493588e+02	-1.926130e-02
3.513766e+02	-1.948394e-02
3.534062e+02	-1.970915e-02
3.554474e+02	-1.993696e-02
3.575005e+02	-2.016740e-02
3.595654e+02	-2.040049e-02
3.616422e+02	-2.063627e-02
3.637311e+02	-2.087477e-02
3.658320e+02	-2.111602e-02
3.679450e+02	-2.136006e-02
3.700702e+02	-2.160690e-02
3.722077e+02	-2.185659e-02
3.743576e+02	-2.210916e-02
3.765199e+02	-2.236463e-02
3.786946e+02	-2.262306e-02
3.808820e+02	-2.288446e-02
3.830819e+02	-2.314887e-02
3.852946e+02	-2.341633e-02
3.875200e+02	-2.368687e-02
3.897583e+02	-2.396053e-02
3.920096e+02	-2.423735e-02
3.942738e+02	-2.451735e-02
3.965511e+02	-2.480057e-02
3.988416e+02	-2.508706e-02
4.011452e+02	-2.537685e-02
4.034622e+02	-2.566997e-02
4.057926e+02	-2.596648e-02
4.081365e+02	-2.626639e-02
4.104938e+02	-2.656976e-02
4.128648e+02	-2.687662e-02
4.152495e+02	-2.718702e-02
4.176480e+02	-2.750099e-02
4.200603e+02	-2.781857e-02
4.224866e+02	-2.813981e-02
4.249268e+02	-2.846474e-02
4.273812e+02	-2.879342e-02
4.298497e+02	-2.912587e-02
4.323325e+02	-2.946216e-02
4.348297e+02	-2.980231e-02
4.373412e+02	-3.014637e-02
4.398673e+02	-3.049440e-02
4.424079e+02	-3.084642e-02
4.449633e+02	-3.120250e-02
4.475334e+02	-3.156267e-02
4.501183e+02	-3.192699e-02
4.527182e+02	-3.229549e-02
4.553330e+02	-3.266823e-02
4.579630e+02	-3.304525e-02
4.606082e+02	-3.342661e-02
4.632687e+02	-3.381236e-02
4.659445e+02	-3.420254e-02
4.686358e+02	-3.459720e-02
4.713426e+02	-3.499640e-02
4.740650e+02	-3.540018e-02
4.768032e+02	-3.580861e-02
4.795572e+02	-3.622173e-02
4.823271e+02	-3.663959e-02
4.851130e+02	-3.706225e-02
4.879150e+02	-3.748977e-02
4.907332e+02	-3.792220e-02
4.935676e+02	-3.835959e-02
4.964185e+02	-3.880201e-02
4.992858e+02	-3.924950e-02
5.021696e+02	-3.970213e-02
5.050701e+02	-4.015996e-02
5.079874e+02	-4.062304e-02
5.109215e+02	-4.109144e-02
5.138726e+02	-4.156521e-02
5.168407e+02	-4.204442e-02
5.198259e+02	-4.252912e-02
5.228284e+02	-4.301939e-02
5.258482e+02	-4.351528e-02
5.288855e+02	-4.401685e-02
5.319403e+02	-4.452418e-02
5.350128e+02	-4.503732e-02
5.381030e+02	-4.555635e-02
5.412111e+02	-4.608133e-02
5.443371e+02	-4.661232e-02
5.474812e+02	-4.714940e-02
5.506434e+02	-4.769263e-02
5.538239e+02	-4.824209e-02
5.570228e+02	-4.879784e-02
5.602401e+02	-4.935996e-02
5.634760e+02	-4.992851e-02
5.667306e+02	-5.050358e-02
5.700040e+02	-5.108523e-02
5.732964e+02	-5.167354e-02
5.766077e+02	-5.226858e-02
5.799382e+02	-5.287044e-02
5.832879e+02	-5.347918e-02
5.866569e+02	-5.409488e-02
5.900454e+02	-5.471763e-02
5.934535e+02	-5.534751e-02
5.968813e+02	-5.598458e-02
6.003288e+02	-5.662894e-02
6.037963e+02	-5.728067e-02
6.072838e+02	-5.793985e-02
6.107914e+02	-5.860657e-02
6.143194e+02	-5.928090e-02
6.178676e+02	-5.996294e-02
6.214364e+02	-6.065277e-02
6.250258e+02	-6.135048e-02
6.286359e+02	-6.205616e-02
6.322669e+02	-6.276989e-02
6.359189e+02	-6.349178e-02
6.395919e+02	-6.422191e-02
6.432862e+02	-6.496036e-02
6.470017e+02	-6.570725e-02
6.507388e+02	-6.646266e-02
6.544974e+02	-6.722668e-02
6.582778e+02	-6.799942e-02
6.620800e+02	-6.878097e-02
6.659041e+02	-6.957143e-02
6.697504e+02	-7.037090e-02
6.736188e+02	-7.117949e-02
6.775096e+02	-7.199728e-02
6.814229e+02	-7.282439e-02
6.853587e+02	-7.366093e-02
6.893173e+02	-7.450699e-02
6.932988e+02	-7.536268e-02
6.973033e+02	-7.622812e-02
7.013309e+02	-7.710340e-02
