Frequency(Hz)	Magnitude(dB)
1.000000e+01	-2.297766e+00
1.005776e+01	-2.318562e+00
1.011585e+01	-2.339258e+00
1.017428e+01	-2.359929e+00
1.023305e+01	-2.381268e+00
1.029215e+01	-2.402492e+00
1.035160e+01	-2.423831e+00
1.041139e+01	-2.445253e+00
1.047153e+01	-2.466830e+00
1.053201e+01	-2.488463e+00
1.059284e+01	-2.510419e+00
1.065403e+01	-2.532300e+00
1.071556e+01	-2.554771e+00
1.077746e+01	-2.576873e+00
1.083971e+01	-2.599582e+00
1.090232e+01	-2.621800e+00
1.096529e+01	-2.644841e+00
1.102862e+01	-2.667674e+00
1.109232e+01	-2.690656e+00
1.115639e+01	-2.713729e+00
1.122083e+01	-2.737240e+00
1.128564e+01	-2.760736e+00
1.135083e+01	-2.784355e+00
1.141639e+01	-2.807991e+00
1.148233e+01	-2.832016e+00
1.154865e+01	-2.855950e+00
1.161536e+01	-2.879956e+00
1.168245e+01	-2.904321e+00
1.174992e+01	-2.928820e+00
1.181779e+01	-2.953287e+00
1.188605e+01	-2.978208e+00
1.195470e+01	-3.003075e+00
1.202375e+01	-3.028165e+00
1.209320e+01	-3.053489e+00
1.216305e+01	-3.078697e+00
1.223330e+01	-3.104319e+00
1.230396e+01	-3.129766e+00
1.237503e+01	-3.155571e+00
1.244651e+01	-3.181490e+00
1.251840e+01	-3.207447e+00
1.259070e+01	-3.233523e+00
1.266343e+01	-3.260040e+00
1.273657e+01	-3.286620e+00
1.281014e+01	-3.313119e+00
1.288413e+01	-3.339957e+00
1.295855e+01	-3.366910e+00
1.303339e+01	-3.393713e+00
1.310867e+01	-3.421119e+00
1.318439e+01	-3.448552e+00
1.326054e+01	-3.475901e+00
1.333713e+01	-3.503572e+00
1.341417e+01	-3.531325e+00
1.349165e+01	-3.559201e+00
1.356958e+01	-3.587225e+00
1.364795e+01	-3.615363e+00
1.372678e+01	-3.643597e+00
1.380607e+01	-3.672237e+00
1.388581e+01	-3.701263e+00
1.396602e+01	-3.729624e+00
1.404668e+01	-3.758464e+00
1.412782e+01	-3.787457e+00
1.420942e+01	-3.816745e+00
1.429149e+01	-3.846372e+00
1.437404e+01	-3.875459e+00
1.445706e+01	-3.905176e+00
1.454057e+01	-3.934924e+00
1.462455e+01	-3.964761e+00
1.470902e+01	-3.994755e+00
1.479398e+01	-4.025100e+00
1.487943e+01	-4.055111e+00
1.496537e+01	-4.085860e+00
1.505181e+01	-4.116123e+00
1.513875e+01	-4.146722e+00
1.522619e+01	-4.177801e+00
1.531414e+01	-4.208660e+00
1.540259e+01	-4.239787e+00
1.549156e+01	-4.271174e+00
1.558103e+01	-4.302537e+00
1.567103e+01	-4.334188e+00
1.576155e+01	-4.365666e+00
1.585258e+01	-4.397381e+00
1.594415e+01	-4.429218e+00
1.603624e+01	-4.461608e+00
1.612886e+01	-4.493322e+00
1.622202e+01	-4.525913e+00
1.631572e+01	-4.558359e+00
1.640996e+01	-4.591117e+00
1.650474e+01	-4.623417e+00
1.660008e+01	-4.656372e+00
1.669596e+01	-4.689267e+00
1.679239e+01	-4.722435e+00
1.688938e+01	-4.755601e+00
1.698694e+01	-4.789263e+00
1.708505e+01	-4.822523e+00
1.718373e+01	-4.856080e+00
1.728299e+01	-4.889986e+00
1.738281e+01	-4.923790e+00
1.748322e+01	-4.957949e+00
1.758420e+01	-4.992029e+00
1.768576e+01	-5.026070e+00
1.778792e+01	-5.060484e+00
1.789066e+01	-5.094847e+00
1.799399e+01	-5.129490e+00
1.809793e+01	-5.164421e+00
1.820246e+01	-5.199177e+00
1.830760e+01	-5.234126e+00
1.841334e+01	-5.269288e+00
1.851969e+01	-5.304622e+00
1.862666e+01	-5.339691e+00
1.873425e+01	-5.375270e+00
1.884246e+01	-5.410630e+00
1.895129e+01	-5.446519e+00
1.906075e+01	-5.482394e+00
1.917085e+01	-5.518194e+00
1.928158e+01	-5.554610e+00
1.939295e+01	-5.590809e+00
1.950496e+01	-5.626787e+00
1.961762e+01	-5.662905e+00
1.973093e+01	-5.699701e+00
1.984490e+01	-5.736202e+00
1.995952e+01	-5.773159e+00
2.007480e+01	-5.809831e+00
2.019076e+01	-5.846946e+00
2.030738e+01	-5.883707e+00
2.042467e+01	-5.920777e+00
2.054264e+01	-5.958433e+00
2.066130e+01	-5.995955e+00
2.078064e+01	-6.033326e+00
2.090066e+01	-6.070771e+00
2.102139e+01	-6.108335e+00
2.114280e+01	-6.146594e+00
2.126492e+01	-6.184073e+00
2.138775e+01	-6.222332e+00
2.151128e+01	-6.260456e+00
2.163553e+01	-6.298697e+00
2.176050e+01	-6.337088e+00
2.188619e+01	-6.375792e+00
2.201260e+01	-6.414119e+00
2.213974e+01	-6.452992e+00
2.226762e+01	-6.491680e+00
2.239624e+01	-6.530426e+00
2.252560e+01	-6.569521e+00
2.265571e+01	-6.608503e+00
2.278656e+01	-6.647181e+00
2.291818e+01	-6.686817e+00
2.305055e+01	-6.725914e+00
2.318369e+01	-6.765186e+00
2.331760e+01	-6.805246e+00
2.345228e+01	-6.845024e+00
2.358774e+01	-6.884314e+00
2.372398e+01	-6.924238e+00
2.386101e+01	-6.964430e+00
2.399883e+01	-7.004332e+00
2.413745e+01	-7.044586e+00
2.427686e+01	-7.084389e+00
2.441709e+01	-7.124573e+00
2.455812e+01	-7.164994e+00
2.469997e+01	-7.205686e+00
2.484263e+01	-7.245934e+00
2.498612e+01	-7.287003e+00
2.513044e+01	-7.327535e+00
2.527559e+01	-7.368489e+00
2.542158e+01	-7.409780e+00
2.556842e+01	-7.449858e+00
2.571610e+01	-7.491143e+00
2.586463e+01	-7.532080e+00
2.601403e+01	-7.573540e+00
2.616428e+01	-7.614899e+00
2.631541e+01	-7.655992e+00
2.646740e+01	-7.697292e+00
2.662028e+01	-7.739213e+00
2.677404e+01	-7.780973e+00
2.692868e+01	-7.822733e+00
2.708422e+01	-7.864338e+00
2.724066e+01	-7.906072e+00
2.739800e+01	-7.948254e+00
2.755625e+01	-7.990304e+00
2.771541e+01	-8.032589e+00
2.787550e+01	-8.074932e+00
2.803650e+01	-8.117118e+00
2.819844e+01	-8.159218e+00
2.836131e+01	-8.201943e+00
2.852513e+01	-8.244055e+00
2.868989e+01	-8.286941e+00
2.885560e+01	-8.329472e+00
2.902227e+01	-8.372141e+00
2.918990e+01	-8.415160e+00
2.935850e+01	-8.457798e+00
2.952807e+01	-8.501091e+00
2.969863e+01	-8.544020e+00
2.987016e+01	-8.586960e+00
3.004269e+01	-8.629616e+00
3.021622e+01	-8.673078e+00
3.039075e+01	-8.716786e+00
3.056628e+01	-8.760000e+00
3.074283e+01	-8.803289e+00
3.092040e+01	-8.846604e+00
3.109900e+01	-8.889888e+00
3.127862e+01	-8.933482e+00
3.145929e+01	-8.977683e+00
3.164099e+01	-9.021652e+00
3.182375e+01	-9.064688e+00
3.200756e+01	-9.109002e+00
3.219244e+01	-9.152793e+00
3.237838e+01	-9.196669e+00
3.256540e+01	-9.240332e+00
3.275349e+01	-9.285375e+00
3.294268e+01	-9.329053e+00
3.313295e+01	-9.373138e+00
3.332433e+01	-9.417615e+00
3.351681e+01	-9.462251e+00
3.371040e+01	-9.506018e+00
3.390511e+01	-9.550841e+00
3.410094e+01	-9.595434e+00
3.429791e+01	-9.640122e+00
3.449601e+01	-9.684460e+00
3.469526e+01	-9.729136e+00
3.489566e+01	-9.774204e+00
3.509721e+01	-9.818725e+00
3.529993e+01	-9.863572e+00
3.550382e+01	-9.908297e+00
3.570889e+01	-9.953316e+00
3.591515e+01	-9.998140e+00
3.612259e+01	-1.004339e+01
3.633123e+01	-1.008843e+01
3.654108e+01	-1.013382e+01
3.675214e+01	-1.017841e+01
3.696442e+01	-1.022379e+01
3.717792e+01	-1.026931e+01
3.739266e+01	-1.031445e+01
3.760864e+01	-1.036052e+01
3.782587e+01	-1.040567e+01
3.804435e+01	-1.045119e+01
3.826409e+01	-1.049669e+01
3.848510e+01	-1.054181e+01
3.870739e+01	-1.058797e+01
3.893096e+01	-1.063343e+01
3.915583e+01	-1.067933e+01
3.938199e+01	-1.072448e+01
3.960946e+01	-1.077040e+01
3.983824e+01	-1.081650e+01
4.006834e+01	-1.086244e+01
4.029978e+01	-1.090846e+01
4.053255e+01	-1.095433e+01
4.076666e+01	-1.100095e+01
4.100213e+01	-1.104626e+01
4.123896e+01	-1.109248e+01
4.147715e+01	-1.113889e+01
4.171672e+01	-1.118495e+01
4.195767e+01	-1.123147e+01
4.220002e+01	-1.127691e+01
4.244377e+01	-1.132416e+01
4.268892e+01	-1.136995e+01
4.293549e+01	-1.141635e+01
4.318348e+01	-1.146271e+01
4.343291e+01	-1.150977e+01
4.368377e+01	-1.155648e+01
4.393609e+01	-1.160305e+01
4.418986e+01	-1.164928e+01
4.444510e+01	-1.169585e+01
4.470182e+01	-1.174232e+01
4.496001e+01	-1.178916e+01
4.521970e+01	-1.183543e+01
4.548089e+01	-1.188333e+01
4.574358e+01	-1.192884e+01
4.600779e+01	-1.197620e+01
4.627353e+01	-1.202354e+01
4.654081e+01	-1.207021e+01
4.680963e+01	-1.211691e+01
4.708000e+01	-1.216367e+01
4.735193e+01	-1.221066e+01
4.762543e+01	-1.225817e+01
4.790051e+01	-1.230585e+01
4.817719e+01	-1.235259e+01
4.845545e+01	-1.239930e+01
4.873533e+01	-1.244620e+01
4.901682e+01	-1.249363e+01
4.929994e+01	-1.254130e+01
4.958470e+01	-1.258816e+01
4.987110e+01	-1.263590e+01
5.015915e+01	-1.268257e+01
5.044887e+01	-1.272978e+01
5.074026e+01	-1.277734e+01
5.103333e+01	-1.282462e+01
5.132810e+01	-1.287274e+01
5.162457e+01	-1.291948e+01
5.192275e+01	-1.296650e+01
5.222265e+01	-1.301419e+01
5.252429e+01	-1.306223e+01
5.282767e+01	-1.311003e+01
5.313280e+01	-1.315778e+01
5.343969e+01	-1.320489e+01
5.374836e+01	-1.325311e+01
5.405880e+01	-1.329995e+01
5.437105e+01	-1.334792e+01
5.468509e+01	-1.339504e+01
5.500095e+01	-1.344389e+01
5.531863e+01	-1.349124e+01
5.563815e+01	-1.353930e+01
5.595951e+01	-1.358705e+01
5.628273e+01	-1.363528e+01
5.660782e+01	-1.368288e+01
5.693479e+01	-1.373021e+01
5.726364e+01	-1.377836e+01
5.759439e+01	-1.382663e+01
5.792705e+01	-1.387517e+01
5.826164e+01	-1.392290e+01
5.859815e+01	-1.396960e+01
5.893662e+01	-1.401821e+01
5.927703e+01	-1.406643e+01
5.961941e+01	-1.411423e+01
5.996377e+01	-1.416237e+01
6.031012e+01	-1.421124e+01
6.065847e+01	-1.425870e+01
6.100883e+01	-1.430666e+01
6.136121e+01	-1.435478e+01
6.171563e+01	-1.440389e+01
6.207210e+01	-1.445205e+01
6.243063e+01	-1.449999e+01
6.279122e+01	-1.454802e+01
6.315390e+01	-1.459726e+01
6.351868e+01	-1.464553e+01
6.388556e+01	-1.469294e+01
6.425456e+01	-1.474152e+01
6.462569e+01	-1.478987e+01
6.499897e+01	-1.483883e+01
6.537440e+01	-1.488562e+01
6.575200e+01	-1.493546e+01
6.613178e+01	-1.498346e+01
6.651375e+01	-1.503184e+01
6.689793e+01	-1.508073e+01
6.728433e+01	-1.512886e+01
6.767297e+01	-1.517735e+01
6.806384e+01	-1.522628e+01
6.845698e+01	-1.527460e+01
6.885238e+01	-1.532309e+01
6.925007e+01	-1.537238e+01
6.965005e+01	-1.541976e+01
7.005235e+01	-1.546892e+01
7.045697e+01	-1.551749e+01
7.086393e+01	-1.556645e+01
7.127323e+01	-1.561437e+01
7.168490e+01	-1.566295e+01
7.209895e+01	-1.571277e+01
7.251539e+01	-1.575995e+01
7.293424e+01	-1.580914e+01
7.335551e+01	-1.585833e+01
7.377920e+01	-1.590615e+01
7.420535e+01	-1.595482e+01
7.463396e+01	-1.600511e+01
7.506504e+01	-1.605268e+01
7.549861e+01	-1.610144e+01
7.593469e+01	-1.615062e+01
7.637328e+01	-1.619960e+01
7.681441e+01	-1.624859e+01
7.725809e+01	-1.629651e+01
7.770433e+01	-1.634601e+01
7.815315e+01	-1.639473e+01
7.860456e+01	-1.644487e+01
7.905857e+01	-1.649288e+01
7.951521e+01	-1.654185e+01
7.997449e+01	-1.659110e+01
8.043642e+01	-1.663980e+01
8.090102e+01	-1.668724e+01
8.136830e+01	-1.673834e+01
8.183828e+01	-1.678642e+01
8.231097e+01	-1.683526e+01
8.278640e+01	-1.688447e+01
8.326457e+01	-1.693362e+01
8.374550e+01	-1.698324e+01
8.422921e+01	-1.703177e+01
8.471572e+01	-1.708139e+01
8.520503e+01	-1.712976e+01
8.569717e+01	-1.717908e+01
8.619215e+01	-1.722773e+01
8.669000e+01	-1.727711e+01
8.719071e+01	-1.732637e+01
8.769432e+01	-1.737484e+01
8.820084e+01	-1.742429e+01
8.871029e+01	-1.747340e+01
8.922267e+01	-1.752355e+01
8.973802e+01	-1.757224e+01
9.025634e+01	-1.762120e+01
9.077766e+01	-1.766991e+01
9.130199e+01	-1.771840e+01
9.182935e+01	-1.776767e+01
9.235975e+01	-1.781725e+01
9.289321e+01	-1.786736e+01
9.342976e+01	-1.791603e+01
9.396941e+01	-1.796646e+01
9.451217e+01	-1.801312e+01
9.505807e+01	-1.806398e+01
9.560712e+01	-1.811235e+01
9.615934e+01	-1.816332e+01
9.671476e+01	-1.821073e+01
9.727338e+01	-1.826252e+01
9.783522e+01	-1.831028e+01
9.840032e+01	-1.836016e+01
9.896867e+01	-1.841026e+01
9.954031e+01	-1.845647e+01
1.001153e+02	-1.850832e+01
1.006935e+02	-1.855771e+01
1.012751e+02	-1.860699e+01
1.018601e+02	-1.865484e+01
1.024484e+02	-1.870385e+01
1.030402e+02	-1.875364e+01
1.036353e+02	-1.880154e+01
1.042339e+02	-1.885326e+01
1.048360e+02	-1.890271e+01
1.054415e+02	-1.895052e+01
1.060505e+02	-1.900055e+01
1.066631e+02	-1.905045e+01
1.072791e+02	-1.909966e+01
1.078988e+02	-1.914876e+01
1.085220e+02	-1.919858e+01
1.091488e+02	-1.925084e+01
1.097793e+02	-1.929771e+01
1.104133e+02	-1.934737e+01
1.110511e+02	-1.939444e+01
1.116925e+02	-1.944572e+01
1.123376e+02	-1.949597e+01
1.129865e+02	-1.954465e+01
1.136391e+02	-1.959418e+01
1.142955e+02	-1.964468e+01
1.149556e+02	-1.969435e+01
1.156196e+02	-1.974429e+01
1.162874e+02	-1.979208e+01
1.169591e+02	-1.984105e+01
1.176347e+02	-1.989001e+01
1.183141e+02	-1.993999e+01
1.189975e+02	-1.998929e+01
1.196848e+02	-2.003969e+01
1.203761e+02	-2.008989e+01
1.210714e+02	-2.013915e+01
1.217707e+02	-2.018818e+01
1.224740e+02	-2.023727e+01
1.231814e+02	-2.028733e+01
1.238929e+02	-2.033689e+01
1.246085e+02	-2.038704e+01
1.253283e+02	-2.043797e+01
1.260522e+02	-2.048514e+01
1.267802e+02	-2.053576e+01
1.275125e+02	-2.058536e+01
1.282490e+02	-2.063488e+01
1.289898e+02	-2.068608e+01
1.297348e+02	-2.073490e+01
1.304842e+02	-2.078298e+01
1.312378e+02	-2.083054e+01
1.319959e+02	-2.088239e+01
1.327583e+02	-2.093257e+01
1.335251e+02	-2.098321e+01
1.342963e+02	-2.103140e+01
1.350720e+02	-2.108233e+01
1.358522e+02	-2.113028e+01
1.366368e+02	-2.117985e+01
1.374260e+02	-2.123262e+01
1.382198e+02	-2.127829e+01
1.390182e+02	-2.132896e+01
1.398211e+02	-2.137942e+01
1.406287e+02	-2.143017e+01
1.414410e+02	-2.148053e+01
1.422579e+02	-2.152830e+01
1.430796e+02	-2.157690e+01
1.439060e+02	-2.162791e+01
1.447372e+02	-2.167702e+01
1.455732e+02	-2.172714e+01
1.464141e+02	-2.177821e+01
1.472597e+02	-2.182635e+01
1.481103e+02	-2.187634e+01
1.489658e+02	-2.192726e+01
1.498262e+02	-2.197621e+01
1.506916e+02	-2.202524e+01
1.515620e+02	-2.207520e+01
1.524374e+02	-2.212549e+01
1.533179e+02	-2.217383e+01
1.542034e+02	-2.222365e+01
1.550941e+02	-2.227132e+01
1.559899e+02	-2.232372e+01
1.568909e+02	-2.237404e+01
1.577971e+02	-2.242351e+01
1.587085e+02	-2.247432e+01
1.596252e+02	-2.252259e+01
1.605472e+02	-2.257233e+01
1.614745e+02	-2.262259e+01
1.624072e+02	-2.267191e+01
1.633453e+02	-2.272266e+01
1.642887e+02	-2.277188e+01
1.652377e+02	-2.282232e+01
1.661921e+02	-2.287233e+01
1.671520e+02	-2.292201e+01
1.681175e+02	-2.297056e+01
1.690885e+02	-2.302359e+01
1.700651e+02	-2.307090e+01
1.710474e+02	-2.311767e+01
1.720354e+02	-2.317265e+01
1.730291e+02	-2.322170e+01
1.740285e+02	-2.327123e+01
1.750337e+02	-2.331969e+01
1.760446e+02	-2.336890e+01
1.770615e+02	-2.342004e+01
1.780842e+02	-2.346603e+01
1.791128e+02	-2.352005e+01
1.801473e+02	-2.357190e+01
1.811878e+02	-2.362031e+01
1.822344e+02	-2.366830e+01
1.832870e+02	-2.372032e+01
1.843456e+02	-2.376895e+01
1.854104e+02	-2.381690e+01
1.864813e+02	-2.386830e+01
1.875584e+02	-2.391837e+01
1.886418e+02	-2.396597e+01
1.897313e+02	-2.401926e+01
1.908272e+02	-2.406909e+01
1.919294e+02	-2.411968e+01
1.930380e+02	-2.416806e+01
1.941530e+02	-2.421857e+01
1.952744e+02	-2.426765e+01
1.964023e+02	-2.431553e+01
1.975367e+02	-2.436606e+01
1.986777e+02	-2.441943e+01
1.998252e+02	-2.446566e+01
2.009794e+02	-2.451749e+01
2.021403e+02	-2.456377e+01
2.033078e+02	-2.461719e+01
2.044821e+02	-2.466735e+01
2.056632e+02	-2.471572e+01
2.068511e+02	-2.476488e+01
2.080459e+02	-2.481634e+01
2.092475e+02	-2.486737e+01
2.104561e+02	-2.491362e+01
2.116717e+02	-2.496515e+01
2.128943e+02	-2.501711e+01
2.141240e+02	-2.506324e+01
2.153608e+02	-2.511649e+01
2.166047e+02	-2.516396e+01
2.178558e+02	-2.521506e+01
2.191141e+02	-2.526451e+01
2.203797e+02	-2.531695e+01
2.216526e+02	-2.536376e+01
2.229329e+02	-2.541386e+01
2.242205e+02	-2.546530e+01
2.255156e+02	-2.551565e+01
2.268182e+02	-2.556487e+01
2.281283e+02	-2.561528e+01
2.294459e+02	-2.566484e+01
2.307712e+02	-2.571766e+01
2.321041e+02	-2.576524e+01
2.334447e+02	-2.581159e+01
2.347931e+02	-2.586389e+01
2.361493e+02	-2.591581e+01
2.375133e+02	-2.596194e+01
2.388851e+02	-2.601238e+01
2.402649e+02	-2.606687e+01
2.416527e+02	-2.611448e+01
2.430484e+02	-2.616778e+01
2.444523e+02	-2.621454e+01
2.458642e+02	-2.626582e+01
2.472843e+02	-2.631601e+01
2.487126e+02	-2.636094e+01
2.501492e+02	-2.641127e+01
2.515940e+02	-2.646592e+01
2.530472e+02	-2.651395e+01
2.545088e+02	-2.656280e+01
2.559789e+02	-2.661345e+01
2.574574e+02	-2.666469e+01
2.589444e+02	-2.671560e+01
2.604401e+02	-2.676457e+01
2.619444e+02	-2.681046e+01
2.634574e+02	-2.686156e+01
2.649791e+02	-2.691386e+01
2.665096e+02	-2.696585e+01
2.680489e+02	-2.701684e+01
2.695972e+02	-2.706051e+01
2.711544e+02	-2.711189e+01
2.727205e+02	-2.716721e+01
2.742958e+02	-2.721283e+01
2.758801e+02	-2.726387e+01
2.774736e+02	-2.731225e+01
2.790762e+02	-2.736285e+01
2.806882e+02	-2.741618e+01
2.823094e+02	-2.746489e+01
2.839400e+02	-2.751626e+01
2.855800e+02	-2.756811e+01
2.872295e+02	-2.761339e+01
2.888886e+02	-2.765884e+01
2.905572e+02	-2.771338e+01
2.922354e+02	-2.776117e+01
2.939234e+02	-2.781543e+01
2.956211e+02	-2.786236e+01
2.973286e+02	-2.791275e+01
2.990459e+02	-2.796352e+01
3.007732e+02	-2.801547e+01
3.025104e+02	-2.806347e+01
3.042577e+02	-2.811382e+01
3.060151e+02	-2.816036e+01
3.077826e+02	-2.821134e+01
3.095604e+02	-2.826051e+01
3.113484e+02	-2.831165e+01
3.131467e+02	-2.836628e+01
3.149554e+02	-2.841418e+01
3.167746e+02	-2.846606e+01
3.186043e+02	-2.851310e+01
3.204445e+02	-2.855813e+01
3.222954e+02	-2.861630e+01
3.241570e+02	-2.866314e+01
3.260293e+02	-2.871639e+01
3.279124e+02	-2.876192e+01
3.298064e+02	-2.881551e+01
3.317114e+02	-2.886184e+01
3.336273e+02	-2.891456e+01
3.355544e+02	-2.896370e+01
3.374925e+02	-2.900911e+01
3.394418e+02	-2.906622e+01
3.414024e+02	-2.911582e+01
3.433744e+02	-2.916333e+01
3.453577e+02	-2.921823e+01
3.473525e+02	-2.926430e+01
3.493588e+02	-2.931683e+01
3.513766e+02	-2.936314e+01
3.534062e+02	-2.941249e+01
3.554474e+02	-2.946707e+01
3.575005e+02	-2.951696e+01
3.595654e+02	-2.956417e+01
3.616422e+02	-2.961586e+01
3.637311e+02	-2.966676e+01
3.658320e+02	-2.972054e+01
3.679450e+02	-2.976818e+01
3.700702e+02	-2.981702e+01
3.722077e+02	-2.986808e+01
3.743576e+02	-2.991684e+01
3.765199e+02	-2.996375e+01
3.786946e+02	-3.001359e+01
3.808820e+02	-3.007146e+01
3.830819e+02	-3.011613e+01
3.852946e+02	-3.016723e+01
3.875200e+02	-3.022242e+01
3.897583e+02	-3.026974e+01
3.920096e+02	-3.031480e+01
3.942738e+02	-3.036798e+01
3.965511e+02	-3.042256e+01
3.988416e+02	-3.046364e+01
4.011452e+02	-3.051758e+01
4.034622e+02	-3.056602e+01
4.057926e+02	-3.061333e+01
4.081365e+02	-3.066993e+01
4.104938e+02	-3.072224e+01
4.128648e+02	-3.076201e+01
4.152495e+02	-3.082237e+01
4.176480e+02	-3.086843e+01
4.200603e+02	-3.092084e+01
4.224866e+02	-3.097364e+01
4.249268e+02	-3.102004e+01
4.273812e+02	-3.107019e+01
4.298497e+02	-3.111614e+01
4.323325e+02	-3.117336e+01
4.348297e+02	-3.121571e+01
4.373412e+02	-3.126803e+01
4.398673e+02	-3.132425e+01
4.424079e+02	-3.137096e+01
4.449633e+02	-3.142229e+01
4.475334e+02	-3.147671e+01
4.501183e+02	-3.151693e+01
4.527182e+02	-3.157562e+01
4.553330e+02	-3.161924e+01
4.579630e+02	-3.167044e+01
4.606082e+02	-3.171462e+01
4.632687e+02	-3.177190e+01
4.659445e+02	-3.182259e+01
4.686358e+02	-3.186613e+01
4.713426e+02	-3.191879e+01
4.740650e+02	-3.196890e+01
4.768032e+02	-3.202193e+01
4.795572e+02	-3.207483e+01
4.823271e+02	-3.212274e+01
4.851130e+02	-3.217377e+01
4.879150e+02	-3.222249e+01
4.907332e+02	-3.227862e+01
4.935676e+02	-3.232126e+01
4.964185e+02	-3.237815e+01
4.992858e+02	-3.242209e+01
5.021696e+02	-3.247403e+01
5.050701e+02	-3.252628e+01
5.079874e+02	-3.257631e+01
5.109215e+02	-3.262252e+01
5.138726e+02	-3.267855e+01
5.168407e+02	-3.272846e+01
5.198259e+02	-3.277320e+01
5.228284e+02	-3.282664e+01
5.258482e+02	-3.287841e+01
5.288855e+02	-3.293194e+01
5.319403e+02	-3.297601e+01
5.350128e+02	-3.302626e+01
5.381030e+02	-3.307870e+01
5.412111e+02	-3.312981e+01
5.443371e+02	-3.317883e+01
5.474812e+02	-3.323264e+01
5.506434e+02	-3.328474e+01
5.538239e+02	-3.332710e+01
5.570228e+02	-3.337931e+01
5.602401e+02	-3.342994e+01
5.634760e+02	-3.348418e+01
5.667306e+02	-3.353357e+01
5.700040e+02	-3.357516e+01
5.732964e+02	-3.363475e+01
5.766077e+02	-3.367911e+01
5.799382e+02	-3.373393e+01
5.832879e+02	-3.377467e+01
5.866569e+02	-3.382909e+01
5.900454e+02	-3.388221e+01
5.934535e+02	-3.393549e+01
5.968813e+02	-3.398208e+01
6.003288e+02	-3.403600e+01
6.037963e+02	-3.408506e+01
6.072838e+02	-3.413611e+01
6.107914e+02	-3.418468e+01
6.143194e+02	-3.423616e+01
6.178676e+02	-3.429052e+01
6.214364e+02	-3.434182e+01
6.250258e+02	-3.438349e+01
6.286359e+02	-3.443137e+01
6.322669e+02	-3.449047e+01
6.359189e+02	-3.453810e+01
6.395919e+02	-3.458885e+01
6.432862e+02	-3.463946e+01
6.470017e+02	-3.469071e+01
6.507388e+02	-3.473795e+01
6.544974e+02	-3.479031e+01
6.582778e+02	-3.484961e+01
6.620800e+02	-3.489145e+01
6.659041e+02	-3.493320e+01
6.697504e+02	-3.498262e+01
6.736188e+02	-3.504650e+01
6.775096e+02	-3.508976e+01
6.814229e+02	-3.514286e+01
6.853587e+02	-3.518540e+01
6.893173e+02	-3.524060e+01
6.932988e+02	-3.529795e+01
6.973033e+02	-3.534413e+01
7.013309e+02	-3.539691e+01
