Frequency(Hz)	Magnitude(dB)
1.000000e+01	-1.890349e+00
1.005776e+01	-1.908237e+00
1.011585e+01	-1.925985e+00
1.017428e+01	-1.943955e+00
1.023305e+01	-1.962085e+00
1.029215e+01	-1.980293e+00
1.035160e+01	-1.998608e+00
1.041139e+01	-2.017125e+00
1.047153e+01	-2.035818e+00
1.053201e+01	-2.054654e+00
1.059284e+01	-2.073516e+00
1.065403e+01	-2.092635e+00
1.071556e+01	-2.111885e+00
1.077746e+01	-2.130985e+00
1.083971e+01	-2.150684e+00
1.090232e+01	-2.170251e+00
1.096529e+01	-2.190027e+00
1.102862e+01	-2.209718e+00
1.109232e+01	-2.229804e+00
1.115639e+01	-2.250141e+00
1.122083e+01	-2.270461e+00
1.128564e+01	-2.290864e+00
1.135083e+01	-2.311320e+00
1.141639e+01	-2.332075e+00
1.148233e+01	-2.352990e+00
1.154865e+01	-2.373910e+00
1.161536e+01	-2.395135e+00
1.168245e+01	-2.416319e+00
1.174992e+01	-2.437563e+00
1.181779e+01	-2.459172e+00
1.188605e+01	-2.481094e+00
1.195470e+01	-2.502904e+00
1.202375e+01	-2.524887e+00
1.209320e+01	-2.547108e+00
1.216305e+01	-2.569257e+00
1.223330e+01	-2.591534e+00
1.230396e+01	-2.614140e+00
1.237503e+01	-2.636851e+00
1.244651e+01	-2.659855e+00
1.251840e+01	-2.682580e+00
1.259070e+01	-2.706075e+00
1.266343e+01	-2.729095e+00
1.273657e+01	-2.752524e+00
1.281014e+01	-2.776009e+00
1.288413e+01	-2.799469e+00
1.295855e+01	-2.823627e+00
1.303339e+01	-2.847555e+00
1.310867e+01	-2.871815e+00
1.318439e+01	-2.896054e+00
1.326054e+01	-2.920161e+00
1.333713e+01	-2.944938e+00
1.341417e+01	-2.969761e+00
1.349165e+01	-2.994522e+00
1.356958e+01	-3.019708e+00
1.364795e+01	-3.044938e+00
1.372678e+01	-3.069865e+00
1.380607e+01	-3.095572e+00
1.388581e+01	-3.120714e+00
1.396602e+01	-3.146765e+00
1.404668e+01	-3.172371e+00
1.412782e+01	-3.198682e+00
1.420942e+01	-3.224528e+00
1.429149e+01	-3.250946e+00
1.437404e+01	-3.277498e+00
1.445706e+01	-3.304090e+00
1.454057e+01	-3.330696e+00
1.462455e+01	-3.357647e+00
1.470902e+01	-3.384651e+00
1.479398e+01	-3.411629e+00
1.487943e+01	-3.438892e+00
1.496537e+01	-3.466477e+00
1.505181e+01	-3.494006e+00
1.513875e+01	-3.521549e+00
1.522619e+01	-3.549451e+00
1.531414e+01	-3.577797e+00
1.540259e+01	-3.605574e+00
1.549156e+01	-3.634032e+00
1.558103e+01	-3.662301e+00
1.567103e+01	-3.690725e+00
1.576155e+01	-3.719607e+00
1.585258e+01	-3.748618e+00
1.594415e+01	-3.777593e+00
1.603624e+01	-3.806698e+00
1.612886e+01	-3.835878e+00
1.622202e+01	-3.865647e+00
1.631572e+01	-3.894720e+00
1.640996e+01	-3.924773e+00
1.650474e+01	-3.954251e+00
1.660008e+01	-3.984464e+00
1.669596e+01	-4.014485e+00
1.679239e+01	-4.044948e+00
1.688938e+01	-4.075187e+00
1.698694e+01	-4.105837e+00
1.708505e+01	-4.136296e+00
1.718373e+01	-4.167027e+00
1.728299e+01	-4.198072e+00
1.738281e+01	-4.229325e+00
1.748322e+01	-4.260367e+00
1.758420e+01	-4.291167e+00
1.768576e+01	-4.323168e+00
1.778792e+01	-4.354695e+00
1.789066e+01	-4.386472e+00
1.799399e+01	-4.418231e+00
1.809793e+01	-4.450587e+00
1.820246e+01	-4.482552e+00
1.830760e+01	-4.514871e+00
1.841334e+01	-4.547162e+00
1.851969e+01	-4.579674e+00
1.862666e+01	-4.612090e+00
1.873425e+01	-4.645203e+00
1.884246e+01	-4.678176e+00
1.895129e+01	-4.711008e+00
1.906075e+01	-4.744169e+00
1.917085e+01	-4.777897e+00
1.928158e+01	-4.811097e+00
1.939295e+01	-4.844492e+00
1.950496e+01	-4.878561e+00
1.961762e+01	-4.911735e+00
1.973093e+01	-4.945849e+00
1.984490e+01	-4.980347e+00
1.995952e+01	-5.014016e+00
2.007480e+01	-5.048696e+00
2.019076e+01	-5.083375e+00
2.030738e+01	-5.117655e+00
2.042467e+01	-5.152633e+00
2.054264e+01	-5.187409e+00
2.066130e+01	-5.222154e+00
2.078064e+01	-5.257479e+00
2.090066e+01	-5.292333e+00
2.102139e+01	-5.327659e+00
2.114280e+01	-5.363391e+00
2.126492e+01	-5.398453e+00
2.138775e+01	-5.434552e+00
2.151128e+01	-5.470081e+00
2.163553e+01	-5.506096e+00
2.176050e+01	-5.542089e+00
2.188619e+01	-5.578022e+00
2.201260e+01	-5.614437e+00
2.213974e+01	-5.650768e+00
2.226762e+01	-5.687353e+00
2.239624e+01	-5.723400e+00
2.252560e+01	-5.760362e+00
2.265571e+01	-5.797036e+00
2.278656e+01	-5.833833e+00
2.291818e+01	-5.870984e+00
2.305055e+01	-5.908703e+00
2.318369e+01	-5.945385e+00
2.331760e+01	-5.983002e+00
2.345228e+01	-6.020345e+00
2.358774e+01	-6.057948e+00
2.372398e+01	-6.095677e+00
2.386101e+01	-6.133075e+00
2.399883e+01	-6.171145e+00
2.413745e+01	-6.208949e+00
2.427686e+01	-6.247398e+00
2.441709e+01	-6.285829e+00
2.455812e+01	-6.323851e+00
2.469997e+01	-6.362200e+00
2.484263e+01	-6.400729e+00
2.498612e+01	-6.439413e+00
2.513044e+01	-6.478103e+00
2.527559e+01	-6.517047e+00
2.542158e+01	-6.555865e+00
2.556842e+01	-6.595038e+00
2.571610e+01	-6.633796e+00
2.586463e+01	-6.673492e+00
2.601403e+01	-6.712689e+00
2.616428e+01	-6.751897e+00
2.631541e+01	-6.791444e+00
2.646740e+01	-6.830970e+00
2.662028e+01	-6.870427e+00
2.677404e+01	-6.910595e+00
2.692868e+01	-6.950110e+00
2.708422e+01	-6.990418e+00
2.724066e+01	-7.030336e+00
2.739800e+01	-7.070569e+00
2.755625e+01	-7.110813e+00
2.771541e+01	-7.151296e+00
2.787550e+01	-7.191660e+00
2.803650e+01	-7.232135e+00
2.819844e+01	-7.273104e+00
2.836131e+01	-7.313257e+00
2.852513e+01	-7.354021e+00
2.868989e+01	-7.395039e+00
2.885560e+01	-7.436063e+00
2.902227e+01	-7.477204e+00
2.918990e+01	-7.518132e+00
2.935850e+01	-7.559359e+00
2.952807e+01	-7.600394e+00
2.969863e+01	-7.642171e+00
2.987016e+01	-7.683329e+00
3.004269e+01	-7.725097e+00
3.021622e+01	-7.766556e+00
3.039075e+01	-7.808527e+00
3.056628e+01	-7.850398e+00
3.074283e+01	-7.891943e+00
3.092040e+01	-7.934125e+00
3.109900e+01	-7.975882e+00
3.127862e+01	-8.018060e+00
3.145929e+01	-8.060399e+00
3.164099e+01	-8.102481e+00
3.182375e+01	-8.144720e+00
3.200756e+01	-8.187146e+00
3.219244e+01	-8.230080e+00
3.237838e+01	-8.272050e+00
3.256540e+01	-8.314608e+00
3.275349e+01	-8.357632e+00
3.294268e+01	-8.400493e+00
3.313295e+01	-8.442921e+00
3.332433e+01	-8.485965e+00
3.351681e+01	-8.528712e+00
3.371040e+01	-8.571987e+00
3.390511e+01	-8.615273e+00
3.410094e+01	-8.658551e+00
3.429791e+01	-8.702025e+00
3.449601e+01	-8.745292e+00
3.469526e+01	-8.788205e+00
3.489566e+01	-8.831842e+00
3.509721e+01	-8.875172e+00
3.529993e+01	-8.918360e+00
3.550382e+01	-8.962267e+00
3.570889e+01	-9.006374e+00
3.591515e+01	-9.049900e+00
3.612259e+01	-9.093730e+00
3.633123e+01	-9.137173e+00
3.654108e+01	-9.181977e+00
3.675214e+01	-9.225488e+00
3.696442e+01	-9.269875e+00
3.717792e+01	-9.313943e+00
3.739266e+01	-9.358299e+00
3.760864e+01	-9.401972e+00
3.782587e+01	-9.446485e+00
3.804435e+01	-9.490785e+00
3.826409e+01	-9.535195e+00
3.848510e+01	-9.579854e+00
3.870739e+01	-9.624781e+00
3.893096e+01	-9.669258e+00
3.915583e+01	-9.713530e+00
3.938199e+01	-9.758696e+00
3.960946e+01	-9.803072e+00
3.983824e+01	-9.848391e+00
4.006834e+01	-9.892965e+00
4.029978e+01	-9.937872e+00
4.053255e+01	-9.982753e+00
4.076666e+01	-1.002755e+01
4.100213e+01	-1.007317e+01
4.123896e+01	-1.011858e+01
4.147715e+01	-1.016276e+01
4.171672e+01	-1.020862e+01
4.195767e+01	-1.025341e+01
4.220002e+01	-1.029894e+01
4.244377e+01	-1.034467e+01
4.268892e+01	-1.038993e+01
4.293549e+01	-1.043555e+01
4.318348e+01	-1.048037e+01
4.343291e+01	-1.052662e+01
4.368377e+01	-1.057196e+01
4.393609e+01	-1.061745e+01
4.418986e+01	-1.066371e+01
4.444510e+01	-1.070890e+01
4.470182e+01	-1.075556e+01
4.496001e+01	-1.080105e+01
4.521970e+01	-1.084688e+01
4.548089e+01	-1.089264e+01
4.574358e+01	-1.093855e+01
4.600779e+01	-1.098530e+01
4.627353e+01	-1.103044e+01
4.654081e+01	-1.107663e+01
4.680963e+01	-1.112296e+01
4.708000e+01	-1.116888e+01
4.735193e+01	-1.121599e+01
4.762543e+01	-1.126178e+01
4.790051e+01	-1.130809e+01
4.817719e+01	-1.135407e+01
4.845545e+01	-1.140018e+01
4.873533e+01	-1.144672e+01
4.901682e+01	-1.149347e+01
4.929994e+01	-1.153994e+01
4.958470e+01	-1.158670e+01
4.987110e+01	-1.163333e+01
5.015915e+01	-1.167950e+01
5.044887e+01	-1.172627e+01
5.074026e+01	-1.177377e+01
5.103333e+01	-1.182028e+01
5.132810e+01	-1.186643e+01
5.162457e+01	-1.191379e+01
5.192275e+01	-1.196054e+01
5.222265e+01	-1.200724e+01
5.252429e+01	-1.205376e+01
5.282767e+01	-1.210063e+01
5.313280e+01	-1.214822e+01
5.343969e+01	-1.219527e+01
5.374836e+01	-1.224178e+01
5.405880e+01	-1.228902e+01
5.437105e+01	-1.233631e+01
5.468509e+01	-1.238296e+01
5.500095e+01	-1.242923e+01
5.531863e+01	-1.247765e+01
5.563815e+01	-1.252482e+01
5.595951e+01	-1.257198e+01
5.628273e+01	-1.261925e+01
5.660782e+01	-1.266617e+01
5.693479e+01	-1.271415e+01
5.726364e+01	-1.276174e+01
5.759439e+01	-1.280868e+01
5.792705e+01	-1.285564e+01
5.826164e+01	-1.290381e+01
5.859815e+01	-1.295080e+01
5.893662e+01	-1.299840e+01
5.927703e+01	-1.304588e+01
5.961941e+01	-1.309322e+01
5.996377e+01	-1.314104e+01
6.031012e+01	-1.318813e+01
6.065847e+01	-1.323697e+01
6.100883e+01	-1.328416e+01
6.136121e+01	-1.333202e+01
6.171563e+01	-1.337942e+01
6.207210e+01	-1.342711e+01
6.243063e+01	-1.347548e+01
6.279122e+01	-1.352258e+01
6.315390e+01	-1.357067e+01
6.351868e+01	-1.361800e+01
6.388556e+01	-1.366603e+01
6.425456e+01	-1.371354e+01
6.462569e+01	-1.376171e+01
6.499897e+01	-1.381018e+01
6.537440e+01	-1.385850e+01
6.575200e+01	-1.390578e+01
6.613178e+01	-1.395330e+01
6.651375e+01	-1.400234e+01
6.689793e+01	-1.404991e+01
6.728433e+01	-1.409799e+01
6.767297e+01	-1.414706e+01
6.806384e+01	-1.419493e+01
6.845698e+01	-1.424241e+01
6.885238e+01	-1.429101e+01
6.925007e+01	-1.433855e+01
6.965005e+01	-1.438704e+01
7.005235e+01	-1.443472e+01
7.045697e+01	-1.448381e+01
7.086393e+01	-1.453217e+01
7.127323e+01	-1.457879e+01
7.168490e+01	-1.462854e+01
7.209895e+01	-1.467623e+01
7.251539e+01	-1.472599e+01
7.293424e+01	-1.477269e+01
7.335551e+01	-1.482180e+01
7.377920e+01	-1.486976e+01
7.420535e+01	-1.491917e+01
7.463396e+01	-1.496754e+01
7.506504e+01	-1.501582e+01
7.549861e+01	-1.506314e+01
7.593469e+01	-1.511152e+01
7.637328e+01	-1.516058e+01
7.681441e+01	-1.520875e+01
7.725809e+01	-1.525721e+01
7.770433e+01	-1.530581e+01
7.815315e+01	-1.535440e+01
7.860456e+01	-1.540331e+01
7.905857e+01	-1.545238e+01
7.951521e+01	-1.550091e+01
7.997449e+01	-1.554828e+01
8.043642e+01	-1.559823e+01
8.090102e+01	-1.564610e+01
8.136830e+01	-1.569466e+01
8.183828e+01	-1.574382e+01
8.231097e+01	-1.579371e+01
8.278640e+01	-1.584106e+01
8.326457e+01	-1.588995e+01
8.374550e+01	-1.593880e+01
8.422921e+01	-1.598810e+01
8.471572e+01	-1.603617e+01
8.520503e+01	-1.608522e+01
8.569717e+01	-1.613457e+01
8.619215e+01	-1.618328e+01
8.669000e+01	-1.623124e+01
8.719071e+01	-1.628058e+01
8.769432e+01	-1.632909e+01
8.820084e+01	-1.637771e+01
8.871029e+01	-1.642659e+01
8.922267e+01	-1.647678e+01
8.973802e+01	-1.652446e+01
9.025634e+01	-1.657251e+01
9.077766e+01	-1.662277e+01
9.130199e+01	-1.667197e+01
9.182935e+01	-1.672121e+01
9.235975e+01	-1.676938e+01
9.289321e+01	-1.681841e+01
9.342976e+01	-1.686802e+01
9.396941e+01	-1.691579e+01
9.451217e+01	-1.696576e+01
9.505807e+01	-1.701621e+01
9.560712e+01	-1.706438e+01
9.615934e+01	-1.711243e+01
9.671476e+01	-1.716071e+01
9.727338e+01	-1.721204e+01
9.783522e+01	-1.725959e+01
9.840032e+01	-1.730824e+01
9.896867e+01	-1.735770e+01
9.954031e+01	-1.740614e+01
1.001153e+02	-1.745627e+01
1.006935e+02	-1.750630e+01
1.012751e+02	-1.755444e+01
1.018601e+02	-1.760377e+01
1.024484e+02	-1.765398e+01
1.030402e+02	-1.770172e+01
1.036353e+02	-1.775282e+01
1.042339e+02	-1.780067e+01
1.048360e+02	-1.784977e+01
1.054415e+02	-1.789979e+01
1.060505e+02	-1.794893e+01
1.066631e+02	-1.799708e+01
1.072791e+02	-1.804753e+01
1.078988e+02	-1.809504e+01
1.085220e+02	-1.814769e+01
1.091488e+02	-1.819408e+01
1.097793e+02	-1.824369e+01
1.104133e+02	-1.829358e+01
1.110511e+02	-1.834253e+01
1.116925e+02	-1.839292e+01
1.123376e+02	-1.844068e+01
1.129865e+02	-1.848884e+01
1.136391e+02	-1.854013e+01
1.142955e+02	-1.858866e+01
1.149556e+02	-1.863826e+01
1.156196e+02	-1.868576e+01
1.162874e+02	-1.873634e+01
1.169591e+02	-1.878627e+01
1.176347e+02	-1.883750e+01
1.183141e+02	-1.888478e+01
1.189975e+02	-1.893398e+01
1.196848e+02	-1.898407e+01
1.203761e+02	-1.903363e+01
1.210714e+02	-1.908177e+01
1.217707e+02	-1.913161e+01
1.224740e+02	-1.918117e+01
1.231814e+02	-1.922997e+01
1.238929e+02	-1.928128e+01
1.246085e+02	-1.932994e+01
1.253283e+02	-1.937861e+01
1.260522e+02	-1.942828e+01
1.267802e+02	-1.947799e+01
1.275125e+02	-1.952717e+01
1.282490e+02	-1.957692e+01
1.289898e+02	-1.962800e+01
1.297348e+02	-1.967621e+01
1.304842e+02	-1.972517e+01
1.312378e+02	-1.977418e+01
1.319959e+02	-1.982592e+01
1.327583e+02	-1.987471e+01
1.335251e+02	-1.992378e+01
1.342963e+02	-1.997450e+01
1.350720e+02	-2.002209e+01
1.358522e+02	-2.007384e+01
1.366368e+02	-2.012211e+01
1.374260e+02	-2.017141e+01
1.382198e+02	-2.022110e+01
1.390182e+02	-2.026992e+01
1.398211e+02	-2.032091e+01
1.406287e+02	-2.036858e+01
1.414410e+02	-2.042076e+01
1.422579e+02	-2.046925e+01
1.430796e+02	-2.051791e+01
1.439060e+02	-2.056792e+01
1.447372e+02	-2.061770e+01
1.455732e+02	-2.066682e+01
1.464141e+02	-2.071810e+01
1.472597e+02	-2.076720e+01
1.481103e+02	-2.081698e+01
1.489658e+02	-2.086615e+01
1.498262e+02	-2.091619e+01
1.506916e+02	-2.096479e+01
1.515620e+02	-2.101559e+01
1.524374e+02	-2.106451e+01
1.533179e+02	-2.111326e+01
1.542034e+02	-2.116282e+01
1.550941e+02	-2.121284e+01
1.559899e+02	-2.126091e+01
1.568909e+02	-2.131374e+01
1.577971e+02	-2.136223e+01
1.587085e+02	-2.141241e+01
1.596252e+02	-2.146238e+01
1.605472e+02	-2.150951e+01
1.614745e+02	-2.156212e+01
1.624072e+02	-2.161033e+01
1.633453e+02	-2.166193e+01
1.642887e+02	-2.171218e+01
1.652377e+02	-2.176068e+01
1.661921e+02	-2.181060e+01
1.671520e+02	-2.186017e+01
1.681175e+02	-2.191082e+01
1.690885e+02	-2.195894e+01
1.700651e+02	-2.200897e+01
1.710474e+02	-2.205945e+01
1.720354e+02	-2.210803e+01
1.730291e+02	-2.215761e+01
1.740285e+02	-2.220528e+01
1.750337e+02	-2.225672e+01
1.760446e+02	-2.230785e+01
1.770615e+02	-2.235806e+01
1.780842e+02	-2.240761e+01
1.791128e+02	-2.245733e+01
1.801473e+02	-2.250720e+01
1.811878e+02	-2.255476e+01
1.822344e+02	-2.260644e+01
1.832870e+02	-2.265542e+01
1.843456e+02	-2.270361e+01
1.854104e+02	-2.275513e+01
1.864813e+02	-2.280360e+01
1.875584e+02	-2.285580e+01
1.886418e+02	-2.290362e+01
1.897313e+02	-2.295518e+01
1.908272e+02	-2.300432e+01
1.919294e+02	-2.305318e+01
1.930380e+02	-2.310380e+01
1.941530e+02	-2.315500e+01
1.952744e+02	-2.320319e+01
1.964023e+02	-2.325261e+01
1.975367e+02	-2.330323e+01
1.986777e+02	-2.335341e+01
1.998252e+02	-2.340170e+01
2.009794e+02	-2.345268e+01
2.021403e+02	-2.350373e+01
2.033078e+02	-2.355106e+01
2.044821e+02	-2.360053e+01
2.056632e+02	-2.365121e+01
2.068511e+02	-2.370064e+01
2.080459e+02	-2.375216e+01
2.092475e+02	-2.380124e+01
2.104561e+02	-2.385076e+01
2.116717e+02	-2.390176e+01
2.128943e+02	-2.394827e+01
2.141240e+02	-2.400236e+01
2.153608e+02	-2.404916e+01
2.166047e+02	-2.410135e+01
2.178558e+02	-2.415168e+01
2.191141e+02	-2.419878e+01
2.203797e+02	-2.424995e+01
2.216526e+02	-2.430154e+01
2.229329e+02	-2.434735e+01
2.242205e+02	-2.439463e+01
2.255156e+02	-2.444860e+01
2.268182e+02	-2.449990e+01
2.281283e+02	-2.455161e+01
2.294459e+02	-2.460224e+01
2.307712e+02	-2.464848e+01
2.321041e+02	-2.469823e+01
2.334447e+02	-2.475050e+01
2.347931e+02	-2.479679e+01
2.361493e+02	-2.485000e+01
2.375133e+02	-2.489707e+01
2.388851e+02	-2.495036e+01
2.402649e+02	-2.499908e+01
2.416527e+02	-2.504570e+01
2.430484e+02	-2.509738e+01
2.444523e+02	-2.514951e+01
2.458642e+02	-2.519854e+01
2.472843e+02	-2.524933e+01
2.487126e+02	-2.529791e+01
2.501492e+02	-2.535003e+01
2.515940e+02	-2.539855e+01
2.530472e+02	-2.544801e+01
2.545088e+02	-2.550007e+01
2.559789e+02	-2.554877e+01
2.574574e+02	-2.559868e+01
2.589444e+02	-2.564665e+01
2.604401e+02	-2.569498e+01
2.619444e+02	-2.574722e+01
2.634574e+02	-2.579419e+01
2.649791e+02	-2.584675e+01
2.665096e+02	-2.590029e+01
2.680489e+02	-2.594785e+01
2.695972e+02	-2.599717e+01
2.711544e+02	-2.604606e+01
2.727205e+02	-2.609594e+01
2.742958e+02	-2.614768e+01
2.758801e+02	-2.619890e+01
2.774736e+02	-2.624617e+01
2.790762e+02	-2.629545e+01
2.806882e+02	-2.634495e+01
2.823094e+02	-2.639285e+01
2.839400e+02	-2.644747e+01
2.855800e+02	-2.649538e+01
2.872295e+02	-2.654556e+01
2.888886e+02	-2.659754e+01
2.905572e+02	-2.664533e+01
2.922354e+02	-2.669637e+01
2.939234e+02	-2.674579e+01
2.956211e+02	-2.679840e+01
2.973286e+02	-2.684376e+01
2.990459e+02	-2.689757e+01
3.007732e+02	-2.695041e+01
3.025104e+02	-2.699690e+01
3.042577e+02	-2.704906e+01
3.060151e+02	-2.709542e+01
3.077826e+02	-2.714609e+01
3.095604e+02	-2.719688e+01
3.113484e+02	-2.724810e+01
3.131467e+02	-2.729679e+01
3.149554e+02	-2.734456e+01
3.167746e+02	-2.739535e+01
3.186043e+02	-2.744697e+01
3.204445e+02	-2.749741e+01
3.222954e+02	-2.754966e+01
3.241570e+02	-2.759997e+01
3.260293e+02	-2.764871e+01
3.279124e+02	-2.769709e+01
3.298064e+02	-2.774566e+01
3.317114e+02	-2.779823e+01
3.336273e+02	-2.784926e+01
3.355544e+02	-2.789621e+01
3.374925e+02	-2.794828e+01
3.394418e+02	-2.799470e+01
3.414024e+02	-2.804912e+01
3.433744e+02	-2.809432e+01
3.453577e+02	-2.814702e+01
3.473525e+02	-2.819993e+01
3.493588e+02	-2.824645e+01
3.513766e+02	-2.829760e+01
3.534062e+02	-2.834857e+01
3.554474e+02	-2.839875e+01
3.575005e+02	-2.844696e+01
3.595654e+02	-2.850034e+01
3.616422e+02	-2.854822e+01
3.637311e+02	-2.859534e+01
3.658320e+02	-2.864558e+01
3.679450e+02	-2.869733e+01
3.700702e+02	-2.874649e+01
3.722077e+02	-2.879892e+01
3.743576e+02	-2.884551e+01
3.765199e+02	-2.889697e+01
3.786946e+02	-2.894675e+01
3.808820e+02	-2.900010e+01
3.830819e+02	-2.905077e+01
3.852946e+02	-2.910139e+01
3.875200e+02	-2.914491e+01
3.897583e+02	-2.919813e+01
3.920096e+02	-2.924467e+01
3.942738e+02	-2.929585e+01
3.965511e+02	-2.934917e+01
3.988416e+02	-2.940009e+01
4.011452e+02	-2.945069e+01
4.034622e+02	-2.949600e+01
4.057926e+02	-2.954130e+01
4.081365e+02	-2.959579e+01
4.104938e+02	-2.965043e+01
4.128648e+02	-2.969929e+01
4.152495e+02	-2.975426e+01
4.176480e+02	-2.980059e+01
4.200603e+02	-2.984668e+01
4.224866e+02	-2.990088e+01
4.249268e+02	-2.995092e+01
4.273812e+02	-2.999905e+01
4.298497e+02	-3.004757e+01
4.323325e+02	-3.010149e+01
4.348297e+02	-3.015057e+01
4.373412e+02	-3.019304e+01
4.398673e+02	-3.024790e+01
4.424079e+02	-3.029624e+01
4.449633e+02	-3.034864e+01
4.475334e+02	-3.040186e+01
4.501183e+02	-3.044596e+01
4.527182e+02	-3.050284e+01
4.553330e+02	-3.055240e+01
4.579630e+02	-3.060113e+01
4.606082e+02	-3.064728e+01
4.632687e+02	-3.070236e+01
4.659445e+02	-3.075143e+01
4.686358e+02	-3.080018e+01
4.713426e+02	-3.084737e+01
4.740650e+02	-3.090219e+01
4.768032e+02	-3.095854e+01
4.795572e+02	-3.100508e+01
4.823271e+02	-3.104924e+01
4.851130e+02	-3.110262e+01
4.879150e+02	-3.115208e+01
4.907332e+02	-3.119984e+01
4.935676e+02	-3.125068e+01
4.964185e+02	-3.130115e+01
4.992858e+02	-3.134933e+01
5.021696e+02	-3.140554e+01
5.050701e+02	-3.145737e+01
5.079874e+02	-3.150174e+01
5.109215e+02	-3.155556e+01
5.138726e+02	-3.160049e+01
5.168407e+02	-3.165157e+01
5.198259e+02	-3.170326e+01
5.228284e+02	-3.175061e+01
5.258482e+02	-3.180654e+01
5.288855e+02	-3.185740e+01
5.319403e+02	-3.190293e+01
5.350128e+02	-3.195984e+01
5.381030e+02	-3.201302e+01
5.412111e+02	-3.204986e+01
5.443371e+02	-3.211140e+01
5.474812e+02	-3.216122e+01
5.506434e+02	-3.220596e+01
5.538239e+02	-3.226126e+01
5.570228e+02	-3.231035e+01
5.602401e+02	-3.236011e+01
5.634760e+02	-3.240996e+01
5.667306e+02	-3.245172e+01
5.700040e+02	-3.251146e+01
5.732964e+02	-3.256149e+01
5.766077e+02	-3.260355e+01
5.799382e+02	-3.266713e+01
5.832879e+02	-3.271177e+01
5.866569e+02	-3.275968e+01
5.900454e+02	-3.281651e+01
5.934535e+02	-3.286361e+01
5.968813e+02	-3.291037e+01
6.003288e+02	-3.295550e+01
6.037963e+02	-3.301099e+01
6.072838e+02	-3.306040e+01
6.107914e+02	-3.310880e+01
6.143194e+02	-3.315973e+01
6.178676e+02	-3.320922e+01
6.214364e+02	-3.325917e+01
6.250258e+02	-3.331643e+01
6.286359e+02	-3.336136e+01
6.322669e+02	-3.341243e+01
6.359189e+02	-3.346002e+01
6.395919e+02	-3.351151e+01
6.432862e+02	-3.356321e+01
6.470017e+02	-3.361460e+01
6.507388e+02	-3.365863e+01
6.544974e+02	-3.371517e+01
6.582778e+02	-3.376195e+01
6.620800e+02	-3.381953e+01
6.659041e+02	-3.386815e+01
6.697504e+02	-3.391500e+01
6.736188e+02	-3.396750e+01
6.775096e+02	-3.401340e+01
6.814229e+02	-3.406488e+01
6.853587e+02	-3.411339e+01
6.893173e+02	-3.416490e+01
6.932988e+02	-3.421426e+01
6.973033e+02	-3.427147e+01
7.013309e+02	-3.431411e+01
