Frequency(Hz)	Magnitude(dB)
1.000000e+01	-1.651042e-05
1.005776e+01	-1.670169e-05
1.011585e+01	-1.689519e-05
1.017428e+01	-1.709092e-05
1.023305e+01	-1.728893e-05
1.029215e+01	-1.748922e-05
1.035160e+01	-1.769184e-05
1.041139e+01	-1.789680e-05
1.047153e+01	-1.810414e-05
1.053201e+01	-1.831388e-05
1.059284e+01	-1.852605e-05
1.065403e+01	-1.874068e-05
1.071556e+01	-1.895780e-05
1.077746e+01	-1.917743e-05
1.083971e+01	-1.939961e-05
1.090232e+01	-1.962435e-05
1.096529e+01	-1.985171e-05
1.102862e+01	-2.008170e-05
1.109232e+01	-2.031435e-05
1.115639e+01	-2.054969e-05
1.122083e+01	-2.078777e-05
1.128564e+01	-2.102860e-05
1.135083e+01	-2.127222e-05
1.141639e+01	-2.151866e-05
1.148233e+01	-2.176796e-05
1.154865e+01	-2.202015e-05
1.161536e+01	-2.227526e-05
1.168245e+01	-2.253332e-05
1.174992e+01	-2.279438e-05
1.181779e+01	-2.305846e-05
1.188605e+01	-2.332559e-05
1.195470e+01	-2.359583e-05
1.202375e+01	-2.386919e-05
1.209320e+01	-2.414572e-05
1.216305e+01	-2.442546e-05
1.223330e+01	-2.470843e-05
1.230396e+01	-2.499468e-05
1.237503e+01	-2.528425e-05
1.244651e+01	-2.557718e-05
1.251840e+01	-2.587350e-05
1.259070e+01	-2.617325e-05
1.266343e+01	-2.647647e-05
1.273657e+01	-2.678321e-05
1.281014e+01	-2.709350e-05
1.288413e+01	-2.740738e-05
1.295855e+01	-2.772490e-05
1.303339e+01	-2.804610e-05
1.310867e+01	-2.837102e-05
1.318439e+01	-2.869971e-05
1.326054e+01	-2.903220e-05
1.333713e+01	-2.936855e-05
1.341417e+01	-2.970879e-05
1.349165e+01	-3.005297e-05
1.356958e+01	-3.040114e-05
1.364795e+01	-3.075335e-05
1.372678e+01	-3.110963e-05
1.380607e+01	-3.147004e-05
1.388581e+01	-3.183463e-05
1.396602e+01	-3.220344e-05
1.404668e+01	-3.257653e-05
1.412782e+01	-3.295393e-05
1.420942e+01	-3.333571e-05
1.429149e+01	-3.372192e-05
1.437404e+01	-3.411259e-05
1.445706e+01	-3.450779e-05
1.454057e+01	-3.490758e-05
1.462455e+01	-3.531199e-05
1.470902e+01	-3.572109e-05
1.479398e+01	-3.613492e-05
1.487943e+01	-3.655355e-05
1.496537e+01	-3.697704e-05
1.505181e+01	-3.740542e-05
1.513875e+01	-3.783877e-05
1.522619e+01	-3.827714e-05
1.531414e+01	-3.872059e-05
1.540259e+01	-3.916918e-05
1.549156e+01	-3.962296e-05
1.558103e+01	-4.008201e-05
1.567103e+01	-4.054636e-05
1.576155e+01	-4.101610e-05
1.585258e+01	-4.149128e-05
1.594415e+01	-4.197197e-05
1.603624e+01	-4.245822e-05
1.612886e+01	-4.295011e-05
1.622202e+01	-4.344770e-05
1.631572e+01	-4.395105e-05
1.640996e+01	-4.446023e-05
1.650474e+01	-4.497531e-05
1.660008e+01	-4.549636e-05
1.669596e+01	-4.602345e-05
1.679239e+01	-4.655664e-05
1.688938e+01	-4.709601e-05
1.698694e+01	-4.764163e-05
1.708505e+01	-4.819357e-05
1.718373e+01	-4.875190e-05
1.728299e+01	-4.931670e-05
1.738281e+01	-4.988804e-05
1.748322e+01	-5.046601e-05
1.758420e+01	-5.105067e-05
1.768576e+01	-5.164210e-05
1.778792e+01	-5.224038e-05
1.789066e+01	-5.284560e-05
1.799399e+01	-5.345783e-05
1.809793e+01	-5.407715e-05
1.820246e+01	-5.470364e-05
1.830760e+01	-5.533739e-05
1.841334e+01	-5.597849e-05
1.851969e+01	-5.662701e-05
1.862666e+01	-5.728305e-05
1.873425e+01	-5.794668e-05
1.884246e+01	-5.861801e-05
1.895129e+01	-5.929711e-05
1.906075e+01	-5.998408e-05
1.917085e+01	-6.067900e-05
1.928158e+01	-6.138198e-05
1.939295e+01	-6.209311e-05
1.950496e+01	-6.281247e-05
1.961762e+01	-6.354016e-05
1.973093e+01	-6.427629e-05
1.984490e+01	-6.502094e-05
1.995952e+01	-6.577422e-05
2.007480e+01	-6.653623e-05
2.019076e+01	-6.730706e-05
2.030738e+01	-6.808683e-05
2.042467e+01	-6.887562e-05
2.054264e+01	-6.967356e-05
2.066130e+01	-7.048074e-05
2.078064e+01	-7.129728e-05
2.090066e+01	-7.212327e-05
2.102139e+01	-7.295883e-05
2.114280e+01	-7.380407e-05
2.126492e+01	-7.465910e-05
2.138775e+01	-7.552404e-05
2.151128e+01	-7.639900e-05
2.163553e+01	-7.728410e-05
2.176050e+01	-7.817945e-05
2.188619e+01	-7.908517e-05
2.201260e+01	-8.000139e-05
2.213974e+01	-8.092822e-05
2.226762e+01	-8.186578e-05
2.239624e+01	-8.281421e-05
2.252560e+01	-8.377363e-05
2.265571e+01	-8.474416e-05
2.278656e+01	-8.572593e-05
2.291818e+01	-8.671908e-05
2.305055e+01	-8.772374e-05
2.318369e+01	-8.874003e-05
2.331760e+01	-8.976810e-05
2.345228e+01	-9.080808e-05
2.358774e+01	-9.186010e-05
2.372398e+01	-9.292432e-05
2.386101e+01	-9.400086e-05
2.399883e+01	-9.508987e-05
2.413745e+01	-9.619150e-05
2.427686e+01	-9.730590e-05
2.441709e+01	-9.843320e-05
2.455812e+01	-9.957356e-05
2.469997e+01	-1.007271e-04
2.484263e+01	-1.018941e-04
2.498612e+01	-1.030745e-04
2.513044e+01	-1.042687e-04
2.527559e+01	-1.054766e-04
2.542158e+01	-1.066986e-04
2.556842e+01	-1.079347e-04
2.571610e+01	-1.091851e-04
2.586463e+01	-1.104501e-04
2.601403e+01	-1.117297e-04
2.616428e+01	-1.130241e-04
2.631541e+01	-1.143335e-04
2.646740e+01	-1.156580e-04
2.662028e+01	-1.169979e-04
2.677404e+01	-1.183534e-04
2.692868e+01	-1.197245e-04
2.708422e+01	-1.211115e-04
2.724066e+01	-1.225146e-04
2.739800e+01	-1.239340e-04
2.755625e+01	-1.253698e-04
2.771541e+01	-1.268222e-04
2.787550e+01	-1.282914e-04
2.803650e+01	-1.297777e-04
2.819844e+01	-1.312812e-04
2.836131e+01	-1.328021e-04
2.852513e+01	-1.343406e-04
2.868989e+01	-1.358970e-04
2.885560e+01	-1.374713e-04
2.902227e+01	-1.390640e-04
2.918990e+01	-1.406750e-04
2.935850e+01	-1.423048e-04
2.952807e+01	-1.439534e-04
2.969863e+01	-1.456211e-04
2.987016e+01	-1.473081e-04
3.004269e+01	-1.490147e-04
3.021622e+01	-1.507410e-04
3.039075e+01	-1.524874e-04
3.056628e+01	-1.542540e-04
3.074283e+01	-1.560410e-04
3.092040e+01	-1.578488e-04
3.109900e+01	-1.596774e-04
3.127862e+01	-1.615273e-04
3.145929e+01	-1.633986e-04
3.164099e+01	-1.652916e-04
3.182375e+01	-1.672065e-04
3.200756e+01	-1.691436e-04
3.219244e+01	-1.711032e-04
3.237838e+01	-1.730854e-04
3.256540e+01	-1.750906e-04
3.275349e+01	-1.771190e-04
3.294268e+01	-1.791710e-04
3.313295e+01	-1.812467e-04
3.332433e+01	-1.833464e-04
3.351681e+01	-1.854705e-04
3.371040e+01	-1.876192e-04
3.390511e+01	-1.897927e-04
3.410094e+01	-1.919915e-04
3.429791e+01	-1.942157e-04
3.449601e+01	-1.964657e-04
3.469526e+01	-1.987418e-04
3.489566e+01	-2.010442e-04
3.509721e+01	-2.033733e-04
3.529993e+01	-2.057294e-04
3.550382e+01	-2.081127e-04
3.570889e+01	-2.105237e-04
3.591515e+01	-2.129626e-04
3.612259e+01	-2.154298e-04
3.633123e+01	-2.179256e-04
3.654108e+01	-2.204502e-04
3.675214e+01	-2.230041e-04
3.696442e+01	-2.255876e-04
3.717792e+01	-2.282011e-04
3.739266e+01	-2.308448e-04
3.760864e+01	-2.335191e-04
3.782587e+01	-2.362244e-04
3.804435e+01	-2.389611e-04
3.826409e+01	-2.417294e-04
3.848510e+01	-2.445298e-04
3.870739e+01	-2.473627e-04
3.893096e+01	-2.502284e-04
3.915583e+01	-2.531273e-04
3.938199e+01	-2.560597e-04
3.960946e+01	-2.590262e-04
3.983824e+01	-2.620270e-04
4.006834e+01	-2.650625e-04
4.029978e+01	-2.681333e-04
4.053255e+01	-2.712396e-04
4.076666e+01	-2.743818e-04
4.100213e+01	-2.775605e-04
4.123896e+01	-2.807760e-04
4.147715e+01	-2.840288e-04
4.171672e+01	-2.873192e-04
4.195767e+01	-2.906478e-04
4.220002e+01	-2.940149e-04
4.244377e+01	-2.974211e-04
4.268892e+01	-3.008666e-04
4.293549e+01	-3.043521e-04
4.318348e+01	-3.078780e-04
4.343291e+01	-3.114447e-04
4.368377e+01	-3.150528e-04
4.393609e+01	-3.187026e-04
4.418986e+01	-3.223948e-04
4.444510e+01	-3.261296e-04
4.470182e+01	-3.299078e-04
4.496001e+01	-3.337297e-04
4.521970e+01	-3.375959e-04
4.548089e+01	-3.415069e-04
4.574358e+01	-3.454632e-04
4.600779e+01	-3.494653e-04
4.627353e+01	-3.535138e-04
4.654081e+01	-3.576092e-04
4.680963e+01	-3.617520e-04
4.708000e+01	-3.659429e-04
4.735193e+01	-3.701822e-04
4.762543e+01	-3.744707e-04
4.790051e+01	-3.788089e-04
4.817719e+01	-3.831973e-04
4.845545e+01	-3.876365e-04
4.873533e+01	-3.921272e-04
4.901682e+01	-3.966699e-04
4.929994e+01	-4.012652e-04
4.958470e+01	-4.059138e-04
4.987110e+01	-4.106162e-04
5.015915e+01	-4.153730e-04
5.044887e+01	-4.201850e-04
5.074026e+01	-4.250527e-04
5.103333e+01	-4.299769e-04
5.132810e+01	-4.349580e-04
5.162457e+01	-4.399969e-04
5.192275e+01	-4.450941e-04
5.222265e+01	-4.502504e-04
5.252429e+01	-4.554664e-04
5.282767e+01	-4.607428e-04
5.313280e+01	-4.660803e-04
5.343969e+01	-4.714797e-04
5.374836e+01	-4.769416e-04
5.405880e+01	-4.824668e-04
5.437105e+01	-4.880560e-04
5.468509e+01	-4.937100e-04
5.500095e+01	-4.994294e-04
5.531863e+01	-5.052151e-04
5.563815e+01	-5.110678e-04
5.595951e+01	-5.169883e-04
5.628273e+01	-5.229774e-04
5.660782e+01	-5.290359e-04
5.693479e+01	-5.351645e-04
5.726364e+01	-5.413642e-04
5.759439e+01	-5.476356e-04
5.792705e+01	-5.539797e-04
5.826164e+01	-5.603973e-04
5.859815e+01	-5.668893e-04
5.893662e+01	-5.734564e-04
5.927703e+01	-5.800996e-04
5.961941e+01	-5.868198e-04
5.996377e+01	-5.936178e-04
6.031012e+01	-6.004945e-04
6.065847e+01	-6.074509e-04
6.100883e+01	-6.144879e-04
6.136121e+01	-6.216064e-04
6.171563e+01	-6.288074e-04
6.207210e+01	-6.360917e-04
6.243063e+01	-6.434605e-04
6.279122e+01	-6.509146e-04
6.315390e+01	-6.584551e-04
6.351868e+01	-6.660828e-04
6.388556e+01	-6.737990e-04
6.425456e+01	-6.816045e-04
6.462569e+01	-6.895005e-04
6.499897e+01	-6.974879e-04
6.537440e+01	-7.055678e-04
6.575200e+01	-7.137414e-04
6.613178e+01	-7.220096e-04
6.651375e+01	-7.303735e-04
6.689793e+01	-7.388344e-04
6.728433e+01	-7.473933e-04
6.767297e+01	-7.560513e-04
6.806384e+01	-7.648095e-04
6.845698e+01	-7.736693e-04
6.885238e+01	-7.826316e-04
6.925007e+01	-7.916978e-04
6.965005e+01	-8.008690e-04
7.005235e+01	-8.101464e-04
7.045697e+01	-8.195313e-04
7.086393e+01	-8.290249e-04
7.127323e+01	-8.386285e-04
7.168490e+01	-8.483432e-04
7.209895e+01	-8.581706e-04
7.251539e+01	-8.681117e-04
7.293424e+01	-8.781680e-04
7.335551e+01	-8.883408e-04
7.377920e+01	-8.986314e-04
7.420535e+01	-9.090412e-04
7.463396e+01	-9.195716e-04
7.506504e+01	-9.302239e-04
7.549861e+01	-9.409996e-04
7.593469e+01	-9.519002e-04
7.637328e+01	-9.629270e-04
7.681441e+01	-9.740815e-04
7.725809e+01	-9.853652e-04
7.770433e+01	-9.967796e-04
7.815315e+01	-1.008326e-03
7.860456e+01	-1.020007e-03
7.905857e+01	-1.031822e-03
7.951521e+01	-1.043775e-03
7.997449e+01	-1.055866e-03
8.043642e+01	-1.068097e-03
8.090102e+01	-1.080469e-03
8.136830e+01	-1.092985e-03
8.183828e+01	-1.105646e-03
8.231097e+01	-1.118454e-03
8.278640e+01	-1.131410e-03
8.326457e+01	-1.144516e-03
8.374550e+01	-1.157773e-03
8.422921e+01	-1.171185e-03
8.471572e+01	-1.184751e-03
8.520503e+01	-1.198475e-03
8.569717e+01	-1.212358e-03
8.619215e+01	-1.226401e-03
8.669000e+01	-1.240608e-03
8.719071e+01	-1.254978e-03
8.769432e+01	-1.269515e-03
8.820084e+01	-1.284221e-03
8.871029e+01	-1.299097e-03
8.922267e+01	-1.314145e-03
8.973802e+01	-1.329367e-03
9.025634e+01	-1.344766e-03
9.077766e+01	-1.360343e-03
9.130199e+01	-1.376100e-03
9.182935e+01	-1.392040e-03
9.235975e+01	-1.408165e-03
9.289321e+01	-1.424476e-03
9.342976e+01	-1.440976e-03
9.396941e+01	-1.457668e-03
9.451217e+01	-1.474552e-03
9.505807e+01	-1.491632e-03
9.560712e+01	-1.508910e-03
9.615934e+01	-1.526388e-03
9.671476e+01	-1.544069e-03
9.727338e+01	-1.561954e-03
9.783522e+01	-1.580046e-03
9.840032e+01	-1.598348e-03
9.896867e+01	-1.616862e-03
9.954031e+01	-1.635590e-03
1.001153e+02	-1.654536e-03
1.006935e+02	-1.673700e-03
1.012751e+02	-1.693087e-03
1.018601e+02	-1.712698e-03
1.024484e+02	-1.732536e-03
1.030402e+02	-1.752604e-03
1.036353e+02	-1.772904e-03
1.042339e+02	-1.793439e-03
1.048360e+02	-1.814212e-03
1.054415e+02	-1.835226e-03
1.060505e+02	-1.856483e-03
1.066631e+02	-1.877986e-03
1.072791e+02	-1.899738e-03
1.078988e+02	-1.921742e-03
1.085220e+02	-1.944001e-03
1.091488e+02	-1.966518e-03
1.097793e+02	-1.989295e-03
1.104133e+02	-2.012337e-03
1.110511e+02	-2.035645e-03
1.116925e+02	-2.059223e-03
1.123376e+02	-2.083073e-03
1.129865e+02	-2.107201e-03
1.136391e+02	-2.131607e-03
1.142955e+02	-2.156296e-03
1.149556e+02	-2.181271e-03
1.156196e+02	-2.206535e-03
1.162874e+02	-2.232092e-03
1.169591e+02	-2.257945e-03
1.176347e+02	-2.284097e-03
1.183141e+02	-2.310551e-03
1.189975e+02	-2.337313e-03
1.196848e+02	-2.364384e-03
1.203761e+02	-2.391768e-03
1.210714e+02	-2.419470e-03
1.217707e+02	-2.447492e-03
1.224740e+02	-2.475839e-03
1.231814e+02	-2.504514e-03
1.238929e+02	-2.533521e-03
1.246085e+02	-2.562863e-03
1.253283e+02	-2.592546e-03
1.260522e+02	-2.622572e-03
1.267802e+02	-2.652946e-03
1.275125e+02	-2.683672e-03
1.282490e+02	-2.714753e-03
1.289898e+02	-2.746194e-03
1.297348e+02	-2.777999e-03
1.304842e+02	-2.810173e-03
1.312378e+02	-2.842719e-03
1.319959e+02	-2.875641e-03
1.327583e+02	-2.908945e-03
1.335251e+02	-2.942635e-03
1.342963e+02	-2.976714e-03
1.350720e+02	-3.011188e-03
1.358522e+02	-3.046061e-03
1.366368e+02	-3.081338e-03
1.374260e+02	-3.117024e-03
1.382198e+02	-3.153122e-03
1.390182e+02	-3.189638e-03
1.398211e+02	-3.226577e-03
1.406287e+02	-3.263944e-03
1.414410e+02	-3.301743e-03
1.422579e+02	-3.339980e-03
1.430796e+02	-3.378660e-03
1.439060e+02	-3.417787e-03
1.447372e+02	-3.457367e-03
1.455732e+02	-3.497405e-03
1.464141e+02	-3.537907e-03
1.472597e+02	-3.578878e-03
1.481103e+02	-3.620323e-03
1.489658e+02	-3.662247e-03
1.498262e+02	-3.704657e-03
1.506916e+02	-3.747558e-03
1.515620e+02	-3.790956e-03
1.524374e+02	-3.834855e-03
1.533179e+02	-3.879263e-03
1.542034e+02	-3.924185e-03
1.550941e+02	-3.969627e-03
1.559899e+02	-4.015595e-03
1.568909e+02	-4.062095e-03
1.577971e+02	-4.109133e-03
1.587085e+02	-4.156716e-03
1.596252e+02	-4.204849e-03
1.605472e+02	-4.253539e-03
1.614745e+02	-4.302793e-03
1.624072e+02	-4.352617e-03
1.633453e+02	-4.403018e-03
1.642887e+02	-4.454002e-03
1.652377e+02	-4.505575e-03
1.661921e+02	-4.557746e-03
1.671520e+02	-4.610521e-03
1.681175e+02	-4.663906e-03
1.690885e+02	-4.717909e-03
1.700651e+02	-4.772537e-03
1.710474e+02	-4.827798e-03
1.720354e+02	-4.883697e-03
1.730291e+02	-4.940244e-03
1.740285e+02	-4.997445e-03
1.750337e+02	-5.055308e-03
1.760446e+02	-5.113840e-03
1.770615e+02	-5.173050e-03
1.780842e+02	-5.232945e-03
1.791128e+02	-5.293533e-03
1.801473e+02	-5.354822e-03
1.811878e+02	-5.416820e-03
1.822344e+02	-5.479536e-03
1.832870e+02	-5.542977e-03
1.843456e+02	-5.607152e-03
1.854104e+02	-5.672070e-03
1.864813e+02	-5.737739e-03
1.875584e+02	-5.804168e-03
1.886418e+02	-5.871365e-03
1.897313e+02	-5.939339e-03
1.908272e+02	-6.008101e-03
1.919294e+02	-6.077657e-03
1.930380e+02	-6.148018e-03
1.941530e+02	-6.219194e-03
1.952744e+02	-6.291192e-03
1.964023e+02	-6.364024e-03
1.975367e+02	-6.437698e-03
1.986777e+02	-6.512224e-03
1.998252e+02	-6.587612e-03
2.009794e+02	-6.663873e-03
2.021403e+02	-6.741015e-03
2.033078e+02	-6.819050e-03
2.044821e+02	-6.897988e-03
2.056632e+02	-6.977838e-03
2.068511e+02	-7.058612e-03
2.080459e+02	-7.140321e-03
2.092475e+02	-7.222974e-03
2.104561e+02	-7.306584e-03
2.116717e+02	-7.391160e-03
2.128943e+02	-7.476715e-03
2.141240e+02	-7.563259e-03
2.153608e+02	-7.650803e-03
2.166047e+02	-7.739361e-03
2.178558e+02	-7.828942e-03
2.191141e+02	-7.919559e-03
2.203797e+02	-8.011225e-03
2.216526e+02	-8.103950e-03
2.229329e+02	-8.197747e-03
2.242205e+02	-8.292629e-03
2.255156e+02	-8.388608e-03
2.268182e+02	-8.485697e-03
2.281283e+02	-8.583909e-03
2.294459e+02	-8.683256e-03
2.307712e+02	-8.783752e-03
2.321041e+02	-8.885409e-03
2.334447e+02	-8.988242e-03
2.347931e+02	-9.092264e-03
2.361493e+02	-9.197488e-03
2.375133e+02	-9.303929e-03
2.388851e+02	-9.411600e-03
2.402649e+02	-9.520516e-03
2.416527e+02	-9.630691e-03
2.430484e+02	-9.742139e-03
2.444523e+02	-9.854876e-03
2.458642e+02	-9.968915e-03
2.472843e+02	-1.008427e-02
2.487126e+02	-1.020096e-02
2.501492e+02	-1.031900e-02
2.515940e+02	-1.043841e-02
2.530472e+02	-1.055919e-02
2.545088e+02	-1.068137e-02
2.559789e+02	-1.080496e-02
2.574574e+02	-1.092998e-02
2.589444e+02	-1.105645e-02
2.604401e+02	-1.118438e-02
2.619444e+02	-1.131378e-02
2.634574e+02	-1.144468e-02
2.649791e+02	-1.157709e-02
2.665096e+02	-1.171103e-02
2.680489e+02	-1.184652e-02
2.695972e+02	-1.198358e-02
2.711544e+02	-1.212222e-02
2.727205e+02	-1.226246e-02
2.742958e+02	-1.240432e-02
2.758801e+02	-1.254782e-02
2.774736e+02	-1.269297e-02
2.790762e+02	-1.283981e-02
2.806882e+02	-1.298833e-02
2.823094e+02	-1.313858e-02
2.839400e+02	-1.329056e-02
2.855800e+02	-1.344429e-02
2.872295e+02	-1.359980e-02
2.888886e+02	-1.375711e-02
2.905572e+02	-1.391624e-02
2.922354e+02	-1.407720e-02
2.939234e+02	-1.424002e-02
2.956211e+02	-1.440471e-02
2.973286e+02	-1.457132e-02
2.990459e+02	-1.473984e-02
3.007732e+02	-1.491031e-02
3.025104e+02	-1.508275e-02
3.042577e+02	-1.525718e-02
3.060151e+02	-1.543362e-02
3.077826e+02	-1.561210e-02
3.095604e+02	-1.579264e-02
3.113484e+02	-1.597527e-02
3.131467e+02	-1.616000e-02
3.149554e+02	-1.634686e-02
3.167746e+02	-1.653588e-02
3.186043e+02	-1.672709e-02
3.204445e+02	-1.692049e-02
3.222954e+02	-1.711613e-02
3.241570e+02	-1.731403e-02
3.260293e+02	-1.751421e-02
3.279124e+02	-1.771670e-02
3.298064e+02	-1.792153e-02
3.317114e+02	-1.812872e-02
3.336273e+02	-1.833830e-02
3.355544e+02	-1.855030e-02
3.374925e+02	-1.876475e-02
3.394418e+02	-1.898166e-02
3.414024e+02	-1.920108e-02
3.433744e+02	-1.942303e-02
3.453577e+02	-1.964754e-02
3.473525e+02	-1.987464e-02
3.493588e+02	-2.010436e-02
3.513766e+02	-2.033673e-02
3.534062e+02	-2.057177e-02
3.554474e+02	-2.080953e-02
3.575005e+02	-2.105003e-02
3.595654e+02	-2.129330e-02
3.616422e+02	-2.153937e-02
3.637311e+02	-2.178828e-02
3.658320e+02	-2.204006e-02
3.679450e+02	-2.229474e-02
3.700702e+02	-2.255236e-02
3.722077e+02	-2.281295e-02
3.743576e+02	-2.307654e-02
3.765199e+02	-2.334316e-02
3.786946e+02	-2.361286e-02
3.808820e+02	-2.388567e-02
3.830819e+02	-2.416162e-02
3.852946e+02	-2.444074e-02
3.875200e+02	-2.472309e-02
3.897583e+02	-2.500868e-02
3.920096e+02	-2.529757e-02
3.942738e+02	-2.558978e-02
3.965511e+02	-2.588536e-02
3.988416e+02	-2.618434e-02
4.011452e+02	-2.648676e-02
4.034622e+02	-2.679267e-02
4.057926e+02	-2.710210e-02
4.081365e+02	-2.741509e-02
4.104938e+02	-2.773168e-02
4.128648e+02	-2.805192e-02
4.152495e+02	-2.837584e-02
4.176480e+02	-2.870349e-02
4.200603e+02	-2.903491e-02
4.224866e+02	-2.937015e-02
4.249268e+02	-2.970924e-02
4.273812e+02	-3.005224e-02
4.298497e+02	-3.039918e-02
4.323325e+02	-3.075011e-02
4.348297e+02	-3.110508e-02
4.373412e+02	-3.146413e-02
4.398673e+02	-3.182731e-02
4.424079e+02	-3.219466e-02
4.449633e+02	-3.256624e-02
4.475334e+02	-3.294210e-02
4.501183e+02	-3.332227e-02
4.527182e+02	-3.370682e-02
4.553330e+02	-3.409578e-02
4.579630e+02	-3.448921e-02
4.606082e+02	-3.488717e-02
4.632687e+02	-3.528970e-02
4.659445e+02	-3.569686e-02
4.686358e+02	-3.610869e-02
4.713426e+02	-3.652525e-02
4.740650e+02	-3.694660e-02
4.768032e+02	-3.737279e-02
4.795572e+02	-3.780387e-02
4.823271e+02	-3.823991e-02
4.851130e+02	-3.868095e-02
4.879150e+02	-3.912705e-02
4.907332e+02	-3.957828e-02
4.935676e+02	-4.003468e-02
4.964185e+02	-4.049633e-02
4.992858e+02	-4.096327e-02
5.021696e+02	-4.143557e-02
5.050701e+02	-4.191329e-02
5.079874e+02	-4.239649e-02
5.109215e+02	-4.288523e-02
5.138726e+02	-4.337958e-02
5.168407e+02	-4.387960e-02
5.198259e+02	-4.438535e-02
5.228284e+02	-4.489690e-02
5.258482e+02	-4.541432e-02
5.288855e+02	-4.593767e-02
5.319403e+02	-4.646701e-02
5.350128e+02	-4.700243e-02
5.381030e+02	-4.754397e-02
5.412111e+02	-4.809173e-02
5.443371e+02	-4.864575e-02
5.474812e+02	-4.920613e-02
5.506434e+02	-4.977292e-02
5.538239e+02	-5.034620e-02
5.570228e+02	-5.092605e-02
5.602401e+02	-5.151253e-02
5.634760e+02	-5.210573e-02
5.667306e+02	-5.270572e-02
5.700040e+02	-5.331258e-02
5.732964e+02	-5.392638e-02
5.766077e+02	-5.454720e-02
5.799382e+02	-5.517512e-02
5.832879e+02	-5.581022e-02
5.866569e+02	-5.645259e-02
5.900454e+02	-5.710230e-02
5.934535e+02	-5.775944e-02
5.968813e+02	-5.842409e-02
6.003288e+02	-5.909634e-02
6.037963e+02	-5.977626e-02
6.072838e+02	-6.046396e-02
6.107914e+02	-6.115951e-02
6.143194e+02	-6.186301e-02
6.178676e+02	-6.257454e-02
6.214364e+02	-6.329419e-02
6.250258e+02	-6.402206e-02
6.286359e+02	-6.475823e-02
6.322669e+02	-6.550281e-02
6.359189e+02	-6.625589e-02
6.395919e+02	-6.701755e-02
6.432862e+02	-6.778790e-02
6.470017e+02	-6.856704e-02
6.507388e+02	-6.935506e-02
6.544974e+02	-7.015206e-02
6.582778e+02	-7.095814e-02
6.620800e+02	-7.177342e-02
6.659041e+02	-7.259798e-02
6.697504e+02	-7.343193e-02
6.736188e+02	-7.427538e-02
6.775096e+02	-7.512843e-02
6.814229e+02	-7.599120e-02
6.853587e+02	-7.686379e-02
6.893173e+02	-7.774630e-02
6.932988e+02	-7.863886e-02
6.973033e+02	-7.954156e-02
7.013309e+02	-8.045454e-02
