Frequency(Hz)	Magnitude(dB)
1.000000e+01	-2.026820e+00
1.005776e+01	-2.045588e+00
1.011585e+01	-2.064549e+00
1.017428e+01	-2.083541e+00
1.023305e+01	-2.102438e+00
1.029215e+01	-2.121999e+00
1.035160e+01	-2.141331e+00
1.041139e+01	-2.160756e+00
1.047153e+01	-2.180607e+00
1.053201e+01	-2.200272e+00
1.059284e+01	-2.220249e+00
1.065403e+01	-2.240316e+00
1.071556e+01	-2.260731e+00
1.077746e+01	-2.280888e+00
1.083971e+01	-2.301586e+00
1.090232e+01	-2.322127e+00
1.096529e+01	-2.343040e+00
1.102862e+01	-2.363991e+00
1.109232e+01	-2.384844e+00
1.115639e+01	-2.406034e+00
1.122083e+01	-2.427303e+00
1.128564e+01	-2.448875e+00
1.135083e+01	-2.470442e+00
1.141639e+01	-2.492164e+00
1.148233e+01	-2.514506e+00
1.154865e+01	-2.536247e+00
1.161536e+01	-2.558535e+00
1.168245e+01	-2.581046e+00
1.174992e+01	-2.603476e+00
1.181779e+01	-2.625894e+00
1.188605e+01	-2.648746e+00
1.195470e+01	-2.671909e+00
1.202375e+01	-2.694790e+00
1.209320e+01	-2.717889e+00
1.216305e+01	-2.741453e+00
1.223330e+01	-2.764698e+00
1.230396e+01	-2.788533e+00
1.237503e+01	-2.812067e+00
1.244651e+01	-2.835988e+00
1.251840e+01	-2.860189e+00
1.259070e+01	-2.884355e+00
1.266343e+01	-2.908677e+00
1.273657e+01	-2.933364e+00
1.281014e+01	-2.957924e+00
1.288413e+01	-2.982960e+00
1.295855e+01	-3.007577e+00
1.303339e+01	-3.032734e+00
1.310867e+01	-3.057633e+00
1.318439e+01	-3.083092e+00
1.326054e+01	-3.108940e+00
1.333713e+01	-3.134032e+00
1.341417e+01	-3.160320e+00
1.349165e+01	-3.185953e+00
1.356958e+01	-3.211891e+00
1.364795e+01	-3.238681e+00
1.372678e+01	-3.264881e+00
1.380607e+01	-3.291294e+00
1.388581e+01	-3.317945e+00
1.396602e+01	-3.344636e+00
1.404668e+01	-3.371785e+00
1.412782e+01	-3.398666e+00
1.420942e+01	-3.425995e+00
1.429149e+01	-3.453140e+00
1.437404e+01	-3.480811e+00
1.445706e+01	-3.508533e+00
1.454057e+01	-3.536268e+00
1.462455e+01	-3.564317e+00
1.470902e+01	-3.592202e+00
1.479398e+01	-3.620566e+00
1.487943e+01	-3.648859e+00
1.496537e+01	-3.677541e+00
1.505181e+01	-3.705694e+00
1.513875e+01	-3.734597e+00
1.522619e+01	-3.764016e+00
1.531414e+01	-3.792694e+00
1.540259e+01	-3.822065e+00
1.549156e+01	-3.851570e+00
1.558103e+01	-3.881003e+00
1.567103e+01	-3.910388e+00
1.576155e+01	-3.940195e+00
1.585258e+01	-3.970115e+00
1.594415e+01	-4.000348e+00
1.603624e+01	-4.030352e+00
1.612886e+01	-4.060657e+00
1.622202e+01	-4.091192e+00
1.631572e+01	-4.121711e+00
1.640996e+01	-4.152538e+00
1.650474e+01	-4.183412e+00
1.660008e+01	-4.214386e+00
1.669596e+01	-4.245339e+00
1.679239e+01	-4.276494e+00
1.688938e+01	-4.308207e+00
1.698694e+01	-4.339521e+00
1.708505e+01	-4.371281e+00
1.718373e+01	-4.403135e+00
1.728299e+01	-4.435001e+00
1.738281e+01	-4.466843e+00
1.748322e+01	-4.499373e+00
1.758420e+01	-4.532022e+00
1.768576e+01	-4.564232e+00
1.778792e+01	-4.596779e+00
1.789066e+01	-4.629403e+00
1.799399e+01	-4.662084e+00
1.809793e+01	-4.695392e+00
1.820246e+01	-4.728608e+00
1.830760e+01	-4.761651e+00
1.841334e+01	-4.795357e+00
1.851969e+01	-4.828852e+00
1.862666e+01	-4.862187e+00
1.873425e+01	-4.895692e+00
1.884246e+01	-4.930046e+00
1.895129e+01	-4.963863e+00
1.906075e+01	-4.997759e+00
1.917085e+01	-5.032320e+00
1.928158e+01	-5.066882e+00
1.939295e+01	-5.101085e+00
1.950496e+01	-5.135704e+00
1.961762e+01	-5.170795e+00
1.973093e+01	-5.205323e+00
1.984490e+01	-5.240387e+00
1.995952e+01	-5.275444e+00
2.007480e+01	-5.310787e+00
2.019076e+01	-5.346151e+00
2.030738e+01	-5.381441e+00
2.042467e+01	-5.417140e+00
2.054264e+01	-5.453048e+00
2.066130e+01	-5.488830e+00
2.078064e+01	-5.524632e+00
2.090066e+01	-5.560891e+00
2.102139e+01	-5.597078e+00
2.114280e+01	-5.633326e+00
2.126492e+01	-5.669699e+00
2.138775e+01	-5.706143e+00
2.151128e+01	-5.742927e+00
2.163553e+01	-5.779636e+00
2.176050e+01	-5.816212e+00
2.188619e+01	-5.853385e+00
2.201260e+01	-5.890542e+00
2.213974e+01	-5.927912e+00
2.226762e+01	-5.965135e+00
2.239624e+01	-6.002400e+00
2.252560e+01	-6.039664e+00
2.265571e+01	-6.077485e+00
2.278656e+01	-6.115553e+00
2.291818e+01	-6.152807e+00
2.305055e+01	-6.191427e+00
2.318369e+01	-6.228952e+00
2.331760e+01	-6.267421e+00
2.345228e+01	-6.305951e+00
2.358774e+01	-6.344435e+00
2.372398e+01	-6.382382e+00
2.386101e+01	-6.421013e+00
2.399883e+01	-6.459634e+00
2.413745e+01	-6.498410e+00
2.427686e+01	-6.537611e+00
2.441709e+01	-6.576288e+00
2.455812e+01	-6.614911e+00
2.469997e+01	-6.654680e+00
2.484263e+01	-6.694046e+00
2.498612e+01	-6.733140e+00
2.513044e+01	-6.772117e+00
2.527559e+01	-6.812152e+00
2.542158e+01	-6.851872e+00
2.556842e+01	-6.891686e+00
2.571610e+01	-6.931632e+00
2.586463e+01	-6.971267e+00
2.601403e+01	-7.011616e+00
2.616428e+01	-7.051480e+00
2.631541e+01	-7.091790e+00
2.646740e+01	-7.131874e+00
2.662028e+01	-7.172742e+00
2.677404e+01	-7.213350e+00
2.692868e+01	-7.253104e+00
2.708422e+01	-7.294038e+00
2.724066e+01	-7.334566e+00
2.739800e+01	-7.375666e+00
2.755625e+01	-7.416954e+00
2.771541e+01	-7.457140e+00
2.787550e+01	-7.498975e+00
2.803650e+01	-7.539987e+00
2.819844e+01	-7.581001e+00
2.836131e+01	-7.622019e+00
2.852513e+01	-7.663948e+00
2.868989e+01	-7.705473e+00
2.885560e+01	-7.746679e+00
2.902227e+01	-7.788693e+00
2.918990e+01	-7.830297e+00
2.935850e+01	-7.872023e+00
2.952807e+01	-7.914224e+00
2.969863e+01	-7.955972e+00
2.987016e+01	-7.998556e+00
3.004269e+01	-8.040495e+00
3.021622e+01	-8.081998e+00
3.039075e+01	-8.124592e+00
3.056628e+01	-8.167021e+00
3.074283e+01	-8.209509e+00
3.092040e+01	-8.252121e+00
3.109900e+01	-8.294490e+00
3.127862e+01	-8.337425e+00
3.145929e+01	-8.379839e+00
3.164099e+01	-8.422305e+00
3.182375e+01	-8.465577e+00
3.200756e+01	-8.508439e+00
3.219244e+01	-8.551659e+00
3.237838e+01	-8.594551e+00
3.256540e+01	-8.637324e+00
3.275349e+01	-8.680712e+00
3.294268e+01	-8.724501e+00
3.313295e+01	-8.767622e+00
3.332433e+01	-8.810787e+00
3.351681e+01	-8.854235e+00
3.371040e+01	-8.897860e+00
3.390511e+01	-8.941704e+00
3.410094e+01	-8.985479e+00
3.429791e+01	-9.029095e+00
3.449601e+01	-9.073122e+00
3.469526e+01	-9.116772e+00
3.489566e+01	-9.160790e+00
3.509721e+01	-9.204544e+00
3.529993e+01	-9.248527e+00
3.550382e+01	-9.292303e+00
3.570889e+01	-9.337502e+00
3.591515e+01	-9.381150e+00
3.612259e+01	-9.425484e+00
3.633123e+01	-9.469329e+00
3.654108e+01	-9.513964e+00
3.675214e+01	-9.558567e+00
3.696442e+01	-9.602924e+00
3.717792e+01	-9.647821e+00
3.739266e+01	-9.692262e+00
3.760864e+01	-9.737303e+00
3.782587e+01	-9.781719e+00
3.804435e+01	-9.826645e+00
3.826409e+01	-9.871716e+00
3.848510e+01	-9.916318e+00
3.870739e+01	-9.961223e+00
3.893096e+01	-1.000641e+01
3.915583e+01	-1.005131e+01
3.938199e+01	-1.009656e+01
3.960946e+01	-1.014191e+01
3.983824e+01	-1.018712e+01
4.006834e+01	-1.023252e+01
4.029978e+01	-1.027729e+01
4.053255e+01	-1.032281e+01
4.076666e+01	-1.036801e+01
4.100213e+01	-1.041381e+01
4.123896e+01	-1.045937e+01
4.147715e+01	-1.050463e+01
4.171672e+01	-1.055005e+01
4.195767e+01	-1.059601e+01
4.220002e+01	-1.064112e+01
4.244377e+01	-1.068710e+01
4.268892e+01	-1.073311e+01
4.293549e+01	-1.077870e+01
4.318348e+01	-1.082468e+01
4.343291e+01	-1.087090e+01
4.368377e+01	-1.091666e+01
4.393609e+01	-1.096250e+01
4.418986e+01	-1.100844e+01
4.444510e+01	-1.105433e+01
4.470182e+01	-1.110112e+01
4.496001e+01	-1.114691e+01
4.521970e+01	-1.119337e+01
4.548089e+01	-1.123928e+01
4.574358e+01	-1.128578e+01
4.600779e+01	-1.133195e+01
4.627353e+01	-1.137898e+01
4.654081e+01	-1.142491e+01
4.680963e+01	-1.147126e+01
4.708000e+01	-1.151772e+01
4.735193e+01	-1.156428e+01
4.762543e+01	-1.161077e+01
4.790051e+01	-1.165785e+01
4.817719e+01	-1.170398e+01
4.845545e+01	-1.175113e+01
4.873533e+01	-1.179832e+01
4.901682e+01	-1.184433e+01
4.929994e+01	-1.189088e+01
4.958470e+01	-1.193820e+01
4.987110e+01	-1.198511e+01
5.015915e+01	-1.203108e+01
5.044887e+01	-1.207861e+01
5.074026e+01	-1.212585e+01
5.103333e+01	-1.217224e+01
5.132810e+01	-1.221955e+01
5.162457e+01	-1.226652e+01
5.192275e+01	-1.231302e+01
5.222265e+01	-1.236003e+01
5.252429e+01	-1.240801e+01
5.282767e+01	-1.245535e+01
5.313280e+01	-1.250167e+01
5.343969e+01	-1.254912e+01
5.374836e+01	-1.259662e+01
5.405880e+01	-1.264354e+01
5.437105e+01	-1.269125e+01
5.468509e+01	-1.273867e+01
5.500095e+01	-1.278574e+01
5.531863e+01	-1.283337e+01
5.563815e+01	-1.288125e+01
5.595951e+01	-1.292807e+01
5.628273e+01	-1.297573e+01
5.660782e+01	-1.302312e+01
5.693479e+01	-1.307111e+01
5.726364e+01	-1.311805e+01
5.759439e+01	-1.316646e+01
5.792705e+01	-1.321381e+01
5.826164e+01	-1.326068e+01
5.859815e+01	-1.330935e+01
5.893662e+01	-1.335606e+01
5.927703e+01	-1.340450e+01
5.961941e+01	-1.345205e+01
5.996377e+01	-1.349996e+01
6.031012e+01	-1.354754e+01
6.065847e+01	-1.359545e+01
6.100883e+01	-1.364357e+01
6.136121e+01	-1.369111e+01
6.171563e+01	-1.373926e+01
6.207210e+01	-1.378708e+01
6.243063e+01	-1.383456e+01
6.279122e+01	-1.388333e+01
6.315390e+01	-1.393129e+01
6.351868e+01	-1.397896e+01
6.388556e+01	-1.402641e+01
6.425456e+01	-1.407583e+01
6.462569e+01	-1.412383e+01
6.499897e+01	-1.417175e+01
6.537440e+01	-1.421976e+01
6.575200e+01	-1.426692e+01
6.613178e+01	-1.431540e+01
6.651375e+01	-1.436431e+01
6.689793e+01	-1.441200e+01
6.728433e+01	-1.445965e+01
6.767297e+01	-1.450789e+01
6.806384e+01	-1.455720e+01
6.845698e+01	-1.460491e+01
6.885238e+01	-1.465296e+01
6.925007e+01	-1.470215e+01
6.965005e+01	-1.475024e+01
7.005235e+01	-1.479948e+01
7.045697e+01	-1.484703e+01
7.086393e+01	-1.489467e+01
7.127323e+01	-1.494414e+01
7.168490e+01	-1.499177e+01
7.209895e+01	-1.504016e+01
7.251539e+01	-1.508940e+01
7.293424e+01	-1.513700e+01
7.335551e+01	-1.518590e+01
7.377920e+01	-1.523433e+01
7.420535e+01	-1.528334e+01
7.463396e+01	-1.533197e+01
7.506504e+01	-1.538077e+01
7.549861e+01	-1.542972e+01
7.593469e+01	-1.547690e+01
7.637328e+01	-1.552569e+01
7.681441e+01	-1.557425e+01
7.725809e+01	-1.562249e+01
7.770433e+01	-1.567142e+01
7.815315e+01	-1.572166e+01
7.860456e+01	-1.576913e+01
7.905857e+01	-1.581886e+01
7.951521e+01	-1.586666e+01
7.997449e+01	-1.591467e+01
8.043642e+01	-1.596405e+01
8.090102e+01	-1.601362e+01
8.136830e+01	-1.606249e+01
8.183828e+01	-1.611070e+01
8.231097e+01	-1.615967e+01
8.278640e+01	-1.620818e+01
8.326457e+01	-1.625651e+01
8.374550e+01	-1.630513e+01
8.422921e+01	-1.635507e+01
8.471572e+01	-1.640326e+01
8.520503e+01	-1.645400e+01
8.569717e+01	-1.650137e+01
8.619215e+01	-1.654968e+01
8.669000e+01	-1.659806e+01
8.719071e+01	-1.664733e+01
8.769432e+01	-1.669694e+01
8.820084e+01	-1.674641e+01
8.871029e+01	-1.679524e+01
8.922267e+01	-1.684353e+01
8.973802e+01	-1.689201e+01
9.025634e+01	-1.694285e+01
9.077766e+01	-1.699098e+01
9.130199e+01	-1.704065e+01
9.182935e+01	-1.709067e+01
9.235975e+01	-1.713822e+01
9.289321e+01	-1.718749e+01
9.342976e+01	-1.723629e+01
9.396941e+01	-1.728605e+01
9.451217e+01	-1.733411e+01
9.505807e+01	-1.738258e+01
9.560712e+01	-1.743355e+01
9.615934e+01	-1.748202e+01
9.671476e+01	-1.753136e+01
9.727338e+01	-1.758027e+01
9.783522e+01	-1.762972e+01
9.840032e+01	-1.767938e+01
9.896867e+01	-1.772773e+01
9.954031e+01	-1.777576e+01
1.001153e+02	-1.782671e+01
1.006935e+02	-1.787605e+01
1.012751e+02	-1.792456e+01
1.018601e+02	-1.797500e+01
1.024484e+02	-1.802260e+01
1.030402e+02	-1.807364e+01
1.036353e+02	-1.812306e+01
1.042339e+02	-1.817152e+01
1.048360e+02	-1.822017e+01
1.054415e+02	-1.826918e+01
1.060505e+02	-1.831902e+01
1.066631e+02	-1.836779e+01
1.072791e+02	-1.841666e+01
1.078988e+02	-1.846637e+01
1.085220e+02	-1.851594e+01
1.091488e+02	-1.856482e+01
1.097793e+02	-1.861566e+01
1.104133e+02	-1.866333e+01
1.110511e+02	-1.871402e+01
1.116925e+02	-1.876304e+01
1.123376e+02	-1.881276e+01
1.129865e+02	-1.886246e+01
1.136391e+02	-1.891033e+01
1.142955e+02	-1.896009e+01
1.149556e+02	-1.901046e+01
1.156196e+02	-1.905922e+01
1.162874e+02	-1.910831e+01
1.169591e+02	-1.915769e+01
1.176347e+02	-1.921010e+01
1.183141e+02	-1.925920e+01
1.189975e+02	-1.930601e+01
1.196848e+02	-1.935518e+01
1.203761e+02	-1.940616e+01
1.210714e+02	-1.945539e+01
1.217707e+02	-1.950320e+01
1.224740e+02	-1.955510e+01
1.231814e+02	-1.960396e+01
1.238929e+02	-1.965193e+01
1.246085e+02	-1.970334e+01
1.253283e+02	-1.975125e+01
1.260522e+02	-1.980192e+01
1.267802e+02	-1.984976e+01
1.275125e+02	-1.990086e+01
1.282490e+02	-1.994883e+01
1.289898e+02	-2.000074e+01
1.297348e+02	-2.004914e+01
1.304842e+02	-2.009810e+01
1.312378e+02	-2.014776e+01
1.319959e+02	-2.019714e+01
1.327583e+02	-2.024758e+01
1.335251e+02	-2.029709e+01
1.342963e+02	-2.034596e+01
1.350720e+02	-2.039501e+01
1.358522e+02	-2.044758e+01
1.366368e+02	-2.049623e+01
1.374260e+02	-2.054489e+01
1.382198e+02	-2.059340e+01
1.390182e+02	-2.064569e+01
1.398211e+02	-2.069242e+01
1.406287e+02	-2.074234e+01
1.414410e+02	-2.079352e+01
1.422579e+02	-2.084093e+01
1.430796e+02	-2.089047e+01
1.439060e+02	-2.094233e+01
1.447372e+02	-2.099158e+01
1.455732e+02	-2.104058e+01
1.464141e+02	-2.109008e+01
1.472597e+02	-2.114054e+01
1.481103e+02	-2.118999e+01
1.489658e+02	-2.124029e+01
1.498262e+02	-2.128979e+01
1.506916e+02	-2.133879e+01
1.515620e+02	-2.138855e+01
1.524374e+02	-2.143823e+01
1.533179e+02	-2.148731e+01
1.542034e+02	-2.153676e+01
1.550941e+02	-2.158744e+01
1.559899e+02	-2.163544e+01
1.568909e+02	-2.168709e+01
1.577971e+02	-2.173651e+01
1.587085e+02	-2.178615e+01
1.596252e+02	-2.183584e+01
1.605472e+02	-2.188551e+01
1.614745e+02	-2.193512e+01
1.624072e+02	-2.198563e+01
1.633453e+02	-2.203550e+01
1.642887e+02	-2.208440e+01
1.652377e+02	-2.213579e+01
1.661921e+02	-2.218502e+01
1.671520e+02	-2.223454e+01
1.681175e+02	-2.228391e+01
1.690885e+02	-2.233039e+01
1.700651e+02	-2.238252e+01
1.710474e+02	-2.243500e+01
1.720354e+02	-2.248459e+01
1.730291e+02	-2.253127e+01
1.740285e+02	-2.258194e+01
1.750337e+02	-2.263113e+01
1.760446e+02	-2.268137e+01
1.770615e+02	-2.273175e+01
1.780842e+02	-2.278093e+01
1.791128e+02	-2.282910e+01
1.801473e+02	-2.287965e+01
1.811878e+02	-2.292902e+01
1.822344e+02	-2.297933e+01
1.832870e+02	-2.302915e+01
1.843456e+02	-2.308014e+01
1.854104e+02	-2.312754e+01
1.864813e+02	-2.318063e+01
1.875584e+02	-2.323113e+01
1.886418e+02	-2.327756e+01
1.897313e+02	-2.332901e+01
1.908272e+02	-2.337677e+01
1.919294e+02	-2.342803e+01
1.930380e+02	-2.347741e+01
1.941530e+02	-2.352884e+01
1.952744e+02	-2.357869e+01
1.964023e+02	-2.362943e+01
1.975367e+02	-2.367905e+01
1.986777e+02	-2.372881e+01
1.998252e+02	-2.377776e+01
2.009794e+02	-2.382726e+01
2.021403e+02	-2.387981e+01
2.033078e+02	-2.392716e+01
2.044821e+02	-2.397900e+01
2.056632e+02	-2.402638e+01
2.068511e+02	-2.407584e+01
2.080459e+02	-2.412546e+01
2.092475e+02	-2.417872e+01
2.104561e+02	-2.422748e+01
2.116717e+02	-2.427645e+01
2.128943e+02	-2.432312e+01
2.141240e+02	-2.437599e+01
2.153608e+02	-2.442531e+01
2.166047e+02	-2.447602e+01
2.178558e+02	-2.452617e+01
2.191141e+02	-2.457534e+01
2.203797e+02	-2.462110e+01
2.216526e+02	-2.467674e+01
2.229329e+02	-2.472507e+01
2.242205e+02	-2.477410e+01
2.255156e+02	-2.482272e+01
2.268182e+02	-2.487524e+01
2.281283e+02	-2.492120e+01
2.294459e+02	-2.497664e+01
2.307712e+02	-2.502409e+01
2.321041e+02	-2.507557e+01
2.334447e+02	-2.512028e+01
2.347931e+02	-2.517409e+01
2.361493e+02	-2.522580e+01
2.375133e+02	-2.527514e+01
2.388851e+02	-2.532430e+01
2.402649e+02	-2.537533e+01
2.416527e+02	-2.542314e+01
2.430484e+02	-2.547567e+01
2.444523e+02	-2.552078e+01
2.458642e+02	-2.557269e+01
2.472843e+02	-2.562338e+01
2.487126e+02	-2.567303e+01
2.501492e+02	-2.572450e+01
2.515940e+02	-2.577117e+01
2.530472e+02	-2.582550e+01
2.545088e+02	-2.587336e+01
2.559789e+02	-2.592205e+01
2.574574e+02	-2.597383e+01
2.589444e+02	-2.602369e+01
2.604401e+02	-2.607317e+01
2.619444e+02	-2.612296e+01
2.634574e+02	-2.617344e+01
2.649791e+02	-2.622613e+01
2.665096e+02	-2.627256e+01
2.680489e+02	-2.632120e+01
2.695972e+02	-2.637352e+01
2.711544e+02	-2.642246e+01
2.727205e+02	-2.647194e+01
2.742958e+02	-2.652262e+01
2.758801e+02	-2.657232e+01
2.774736e+02	-2.662168e+01
2.790762e+02	-2.666674e+01
2.806882e+02	-2.672400e+01
2.823094e+02	-2.677307e+01
2.839400e+02	-2.681924e+01
2.855800e+02	-2.687013e+01
2.872295e+02	-2.692177e+01
2.888886e+02	-2.697126e+01
2.905572e+02	-2.702341e+01
2.922354e+02	-2.707180e+01
2.939234e+02	-2.712245e+01
2.956211e+02	-2.717368e+01
2.973286e+02	-2.722413e+01
2.990459e+02	-2.727593e+01
3.007732e+02	-2.732450e+01
3.025104e+02	-2.737106e+01
3.042577e+02	-2.742405e+01
3.060151e+02	-2.747621e+01
3.077826e+02	-2.752449e+01
3.095604e+02	-2.757152e+01
3.113484e+02	-2.761640e+01
3.131467e+02	-2.766985e+01
3.149554e+02	-2.772260e+01
3.167746e+02	-2.777214e+01
3.186043e+02	-2.782211e+01
3.204445e+02	-2.787186e+01
3.222954e+02	-2.792024e+01
3.241570e+02	-2.797277e+01
3.260293e+02	-2.801821e+01
3.279124e+02	-2.807359e+01
3.298064e+02	-2.812319e+01
3.317114e+02	-2.817353e+01
3.336273e+02	-2.822363e+01
3.355544e+02	-2.827372e+01
3.374925e+02	-2.832626e+01
3.394418e+02	-2.837002e+01
3.414024e+02	-2.842218e+01
3.433744e+02	-2.847394e+01
3.453577e+02	-2.852488e+01
3.473525e+02	-2.856783e+01
3.493588e+02	-2.862409e+01
3.513766e+02	-2.867546e+01
3.534062e+02	-2.872423e+01
3.554474e+02	-2.877099e+01
3.575005e+02	-2.882478e+01
3.595654e+02	-2.887185e+01
3.616422e+02	-2.892376e+01
3.637311e+02	-2.897318e+01
3.658320e+02	-2.902761e+01
3.679450e+02	-2.907162e+01
3.700702e+02	-2.911963e+01
3.722077e+02	-2.916989e+01
3.743576e+02	-2.922004e+01
3.765199e+02	-2.927917e+01
3.786946e+02	-2.932580e+01
3.808820e+02	-2.937641e+01
3.830819e+02	-2.942359e+01
3.852946e+02	-2.947436e+01
3.875200e+02	-2.952738e+01
3.897583e+02	-2.957390e+01
3.920096e+02	-2.962718e+01
3.942738e+02	-2.967387e+01
3.965511e+02	-2.972565e+01
3.988416e+02	-2.977440e+01
4.011452e+02	-2.982985e+01
4.034622e+02	-2.987508e+01
4.057926e+02	-2.992441e+01
4.081365e+02	-2.997783e+01
4.104938e+02	-3.002680e+01
4.128648e+02	-3.007296e+01
4.152495e+02	-3.012891e+01
4.176480e+02	-3.017146e+01
4.200603e+02	-3.022574e+01
4.224866e+02	-3.027840e+01
4.249268e+02	-3.032686e+01
4.273812e+02	-3.037160e+01
4.298497e+02	-3.042765e+01
4.323325e+02	-3.047704e+01
4.348297e+02	-3.052862e+01
4.373412e+02	-3.057905e+01
4.398673e+02	-3.063023e+01
4.424079e+02	-3.067561e+01
4.449633e+02	-3.073154e+01
4.475334e+02	-3.078037e+01
4.501183e+02	-3.082638e+01
4.527182e+02	-3.087945e+01
4.553330e+02	-3.093098e+01
4.579630e+02	-3.097830e+01
4.606082e+02	-3.102882e+01
4.632687e+02	-3.107987e+01
4.659445e+02	-3.112678e+01
4.686358e+02	-3.117700e+01
4.713426e+02	-3.122731e+01
4.740650e+02	-3.128305e+01
4.768032e+02	-3.133078e+01
4.795572e+02	-3.137882e+01
4.823271e+02	-3.143576e+01
4.851130e+02	-3.147790e+01
4.879150e+02	-3.152924e+01
4.907332e+02	-3.158163e+01
4.935676e+02	-3.163439e+01
4.964185e+02	-3.168274e+01
4.992858e+02	-3.173253e+01
5.021696e+02	-3.177786e+01
5.050701e+02	-3.183452e+01
5.079874e+02	-3.188108e+01
5.109215e+02	-3.193463e+01
5.138726e+02	-3.198065e+01
5.168407e+02	-3.203427e+01
5.198259e+02	-3.208933e+01
5.228284e+02	-3.213706e+01
5.258482e+02	-3.217988e+01
5.288855e+02	-3.223226e+01
5.319403e+02	-3.228327e+01
5.350128e+02	-3.233464e+01
5.381030e+02	-3.238590e+01
5.412111e+02	-3.243230e+01
5.443371e+02	-3.247952e+01
5.474812e+02	-3.253536e+01
5.506434e+02	-3.258925e+01
5.538239e+02	-3.263766e+01
5.570228e+02	-3.268282e+01
5.602401e+02	-3.273320e+01
5.634760e+02	-3.279295e+01
5.667306e+02	-3.283222e+01
5.700040e+02	-3.288802e+01
5.732964e+02	-3.294470e+01
5.766077e+02	-3.298930e+01
5.799382e+02	-3.303422e+01
5.832879e+02	-3.308855e+01
5.866569e+02	-3.313438e+01
5.900454e+02	-3.319073e+01
5.934535e+02	-3.323756e+01
5.968813e+02	-3.329297e+01
6.003288e+02	-3.334078e+01
6.037963e+02	-3.338641e+01
6.072838e+02	-3.344580e+01
6.107914e+02	-3.348517e+01
6.143194e+02	-3.354415e+01
6.178676e+02	-3.359073e+01
6.214364e+02	-3.363878e+01
6.250258e+02	-3.369263e+01
6.286359e+02	-3.373822e+01
6.322669e+02	-3.379189e+01
6.359189e+02	-3.384710e+01
6.395919e+02	-3.389911e+01
6.432862e+02	-3.394239e+01
6.470017e+02	-3.399699e+01
6.507388e+02	-3.404328e+01
6.544974e+02	-3.409691e+01
6.582778e+02	-3.414018e+01
6.620800e+02	-3.419581e+01
6.659041e+02	-3.424371e+01
6.697504e+02	-3.428648e+01
6.736188e+02	-3.435150e+01
6.775096e+02	-3.439248e+01
6.814229e+02	-3.445250e+01
6.853587e+02	-3.449988e+01
6.893173e+02	-3.455385e+01
6.932988e+02	-3.459238e+01
6.973033e+02	-3.464645e+01
7.013309e+02	-3.471303e+01
