Frequency(Hz)	Magnitude(dB)
1.000000e+01	-2.178139e+00
1.005776e+01	-2.197803e+00
1.011585e+01	-2.217730e+00
1.017428e+01	-2.238116e+00
1.023305e+01	-2.258250e+00
1.029215e+01	-2.278444e+00
1.035160e+01	-2.299333e+00
1.041139e+01	-2.319785e+00
1.047153e+01	-2.340429e+00
1.053201e+01	-2.361392e+00
1.059284e+01	-2.382346e+00
1.065403e+01	-2.403780e+00
1.071556e+01	-2.424872e+00
1.077746e+01	-2.446432e+00
1.083971e+01	-2.467991e+00
1.090232e+01	-2.489811e+00
1.096529e+01	-2.511769e+00
1.102862e+01	-2.533519e+00
1.109232e+01	-2.555981e+00
1.115639e+01	-2.578182e+00
1.122083e+01	-2.600437e+00
1.128564e+01	-2.623239e+00
1.135083e+01	-2.646004e+00
1.141639e+01	-2.669016e+00
1.148233e+01	-2.692052e+00
1.154865e+01	-2.715110e+00
1.161536e+01	-2.738677e+00
1.168245e+01	-2.762139e+00
1.174992e+01	-2.785761e+00
1.181779e+01	-2.809393e+00
1.188605e+01	-2.833227e+00
1.195470e+01	-2.857317e+00
1.202375e+01	-2.881396e+00
1.209320e+01	-2.905861e+00
1.216305e+01	-2.930123e+00
1.223330e+01	-2.954551e+00
1.230396e+01	-2.979768e+00
1.237503e+01	-3.004672e+00
1.244651e+01	-3.029605e+00
1.251840e+01	-3.054880e+00
1.259070e+01	-3.080389e+00
1.266343e+01	-3.105704e+00
1.273657e+01	-3.131280e+00
1.281014e+01	-3.157038e+00
1.288413e+01	-3.183164e+00
1.295855e+01	-3.209000e+00
1.303339e+01	-3.235163e+00
1.310867e+01	-3.261617e+00
1.318439e+01	-3.287869e+00
1.326054e+01	-3.314645e+00
1.333713e+01	-3.341393e+00
1.341417e+01	-3.368279e+00
1.349165e+01	-3.395598e+00
1.356958e+01	-3.422844e+00
1.364795e+01	-3.450095e+00
1.372678e+01	-3.477379e+00
1.380607e+01	-3.505096e+00
1.388581e+01	-3.532924e+00
1.396602e+01	-3.560915e+00
1.404668e+01	-3.588947e+00
1.412782e+01	-3.617039e+00
1.420942e+01	-3.645330e+00
1.429149e+01	-3.674036e+00
1.437404e+01	-3.702559e+00
1.445706e+01	-3.731562e+00
1.454057e+01	-3.760088e+00
1.462455e+01	-3.789337e+00
1.470902e+01	-3.818664e+00
1.479398e+01	-3.847968e+00
1.487943e+01	-3.877370e+00
1.496537e+01	-3.906947e+00
1.505181e+01	-3.936651e+00
1.513875e+01	-3.966529e+00
1.522619e+01	-3.996621e+00
1.531414e+01	-4.026691e+00
1.540259e+01	-4.056905e+00
1.549156e+01	-4.087422e+00
1.558103e+01	-4.117980e+00
1.567103e+01	-4.148713e+00
1.576155e+01	-4.179588e+00
1.585258e+01	-4.210572e+00
1.594415e+01	-4.241891e+00
1.603624e+01	-4.272919e+00
1.612886e+01	-4.304413e+00
1.622202e+01	-4.336006e+00
1.631572e+01	-4.367417e+00
1.640996e+01	-4.399367e+00
1.650474e+01	-4.431275e+00
1.660008e+01	-4.463149e+00
1.669596e+01	-4.495703e+00
1.679239e+01	-4.527880e+00
1.688938e+01	-4.560367e+00
1.698694e+01	-4.592740e+00
1.708505e+01	-4.625524e+00
1.718373e+01	-4.658481e+00
1.728299e+01	-4.691384e+00
1.738281e+01	-4.724615e+00
1.748322e+01	-4.757644e+00
1.758420e+01	-4.791257e+00
1.768576e+01	-4.824437e+00
1.778792e+01	-4.858106e+00
1.789066e+01	-4.892114e+00
1.799399e+01	-4.925631e+00
1.809793e+01	-4.959906e+00
1.820246e+01	-4.994002e+00
1.830760e+01	-5.028205e+00
1.841334e+01	-5.062432e+00
1.851969e+01	-5.097139e+00
1.862666e+01	-5.131565e+00
1.873425e+01	-5.166351e+00
1.884246e+01	-5.201541e+00
1.895129e+01	-5.236177e+00
1.906075e+01	-5.271500e+00
1.917085e+01	-5.306762e+00
1.928158e+01	-5.341753e+00
1.939295e+01	-5.377740e+00
1.950496e+01	-5.413155e+00
1.961762e+01	-5.448874e+00
1.973093e+01	-5.484719e+00
1.984490e+01	-5.520507e+00
1.995952e+01	-5.556541e+00
2.007480e+01	-5.592668e+00
2.019076e+01	-5.629121e+00
2.030738e+01	-5.665508e+00
2.042467e+01	-5.701590e+00
2.054264e+01	-5.738513e+00
2.066130e+01	-5.775197e+00
2.078064e+01	-5.812224e+00
2.090066e+01	-5.848748e+00
2.102139e+01	-5.885966e+00
2.114280e+01	-5.923339e+00
2.126492e+01	-5.960445e+00
2.138775e+01	-5.997849e+00
2.151128e+01	-6.035461e+00
2.163553e+01	-6.072968e+00
2.176050e+01	-6.110814e+00
2.188619e+01	-6.148537e+00
2.201260e+01	-6.186560e+00
2.213974e+01	-6.224527e+00
2.226762e+01	-6.262874e+00
2.239624e+01	-6.300824e+00
2.252560e+01	-6.339374e+00
2.265571e+01	-6.377669e+00
2.278656e+01	-6.416633e+00
2.291818e+01	-6.455122e+00
2.305055e+01	-6.493503e+00
2.318369e+01	-6.532707e+00
2.331760e+01	-6.571651e+00
2.345228e+01	-6.610494e+00
2.358774e+01	-6.649794e+00
2.372398e+01	-6.689321e+00
2.386101e+01	-6.728363e+00
2.399883e+01	-6.767876e+00
2.413745e+01	-6.807689e+00
2.427686e+01	-6.847218e+00
2.441709e+01	-6.886576e+00
2.455812e+01	-6.926345e+00
2.469997e+01	-6.966381e+00
2.484263e+01	-7.006609e+00
2.498612e+01	-7.046395e+00
2.513044e+01	-7.086456e+00
2.527559e+01	-7.127036e+00
2.542158e+01	-7.167295e+00
2.556842e+01	-7.208060e+00
2.571610e+01	-7.248325e+00
2.586463e+01	-7.289114e+00
2.601403e+01	-7.330137e+00
2.616428e+01	-7.370505e+00
2.631541e+01	-7.412009e+00
2.646740e+01	-7.452493e+00
2.662028e+01	-7.493603e+00
2.677404e+01	-7.534324e+00
2.692868e+01	-7.575677e+00
2.708422e+01	-7.617264e+00
2.724066e+01	-7.658709e+00
2.739800e+01	-7.700621e+00
2.755625e+01	-7.741680e+00
2.771541e+01	-7.783635e+00
2.787550e+01	-7.825207e+00
2.803650e+01	-7.867229e+00
2.819844e+01	-7.908554e+00
2.836131e+01	-7.950924e+00
2.852513e+01	-7.992993e+00
2.868989e+01	-8.035491e+00
2.885560e+01	-8.077467e+00
2.902227e+01	-8.119667e+00
2.918990e+01	-8.161897e+00
2.935850e+01	-8.204352e+00
2.952807e+01	-8.246457e+00
2.969863e+01	-8.289473e+00
2.987016e+01	-8.332227e+00
3.004269e+01	-8.374918e+00
3.021622e+01	-8.417493e+00
3.039075e+01	-8.460471e+00
3.056628e+01	-8.503243e+00
3.074283e+01	-8.546345e+00
3.092040e+01	-8.589235e+00
3.109900e+01	-8.632578e+00
3.127862e+01	-8.675610e+00
3.145929e+01	-8.718816e+00
3.164099e+01	-8.762404e+00
3.182375e+01	-8.806190e+00
3.200756e+01	-8.849014e+00
3.219244e+01	-8.892507e+00
3.237838e+01	-8.936747e+00
3.256540e+01	-8.980110e+00
3.275349e+01	-9.023956e+00
3.294268e+01	-9.067713e+00
3.313295e+01	-9.111534e+00
3.332433e+01	-9.155138e+00
3.351681e+01	-9.199072e+00
3.371040e+01	-9.243537e+00
3.390511e+01	-9.287771e+00
3.410094e+01	-9.331862e+00
3.429791e+01	-9.375783e+00
3.449601e+01	-9.420277e+00
3.469526e+01	-9.465062e+00
3.489566e+01	-9.508753e+00
3.509721e+01	-9.553356e+00
3.529993e+01	-9.598498e+00
3.550382e+01	-9.642691e+00
3.570889e+01	-9.686627e+00
3.591515e+01	-9.731672e+00
3.612259e+01	-9.776447e+00
3.633123e+01	-9.821010e+00
3.654108e+01	-9.865877e+00
3.675214e+01	-9.911259e+00
3.696442e+01	-9.956228e+00
3.717792e+01	-1.000085e+01
3.739266e+01	-1.004592e+01
3.760864e+01	-1.009091e+01
3.782587e+01	-1.013622e+01
3.804435e+01	-1.018123e+01
3.826409e+01	-1.022660e+01
3.848510e+01	-1.027196e+01
3.870739e+01	-1.031678e+01
3.893096e+01	-1.036304e+01
3.915583e+01	-1.040807e+01
3.938199e+01	-1.045366e+01
3.960946e+01	-1.049941e+01
3.983824e+01	-1.054500e+01
4.006834e+01	-1.059069e+01
4.029978e+01	-1.063639e+01
4.053255e+01	-1.068229e+01
4.076666e+01	-1.072755e+01
4.100213e+01	-1.077358e+01
4.123896e+01	-1.081939e+01
4.147715e+01	-1.086563e+01
4.171672e+01	-1.091118e+01
4.195767e+01	-1.095750e+01
4.220002e+01	-1.100338e+01
4.244377e+01	-1.104915e+01
4.268892e+01	-1.109503e+01
4.293549e+01	-1.114111e+01
4.318348e+01	-1.118845e+01
4.343291e+01	-1.123432e+01
4.368377e+01	-1.127992e+01
4.393609e+01	-1.132641e+01
4.418986e+01	-1.137245e+01
4.444510e+01	-1.141897e+01
4.470182e+01	-1.146598e+01
4.496001e+01	-1.151205e+01
4.521970e+01	-1.155866e+01
4.548089e+01	-1.160470e+01
4.574358e+01	-1.165254e+01
4.600779e+01	-1.169821e+01
4.627353e+01	-1.174545e+01
4.654081e+01	-1.179229e+01
4.680963e+01	-1.183881e+01
4.708000e+01	-1.188501e+01
4.735193e+01	-1.193266e+01
4.762543e+01	-1.197876e+01
4.790051e+01	-1.202599e+01
4.817719e+01	-1.207285e+01
4.845545e+01	-1.212064e+01
4.873533e+01	-1.216630e+01
4.901682e+01	-1.221355e+01
4.929994e+01	-1.226055e+01
4.958470e+01	-1.230806e+01
4.987110e+01	-1.235483e+01
5.015915e+01	-1.240168e+01
5.044887e+01	-1.244940e+01
5.074026e+01	-1.249625e+01
5.103333e+01	-1.254384e+01
5.132810e+01	-1.259124e+01
5.162457e+01	-1.263879e+01
5.192275e+01	-1.268562e+01
5.222265e+01	-1.273209e+01
5.252429e+01	-1.278075e+01
5.282767e+01	-1.282778e+01
5.313280e+01	-1.287441e+01
5.343969e+01	-1.292224e+01
5.374836e+01	-1.296936e+01
5.405880e+01	-1.301840e+01
5.437105e+01	-1.306542e+01
5.468509e+01	-1.311260e+01
5.500095e+01	-1.316000e+01
5.531863e+01	-1.320710e+01
5.563815e+01	-1.325573e+01
5.595951e+01	-1.330313e+01
5.628273e+01	-1.335064e+01
5.660782e+01	-1.339853e+01
5.693479e+01	-1.344611e+01
5.726364e+01	-1.349465e+01
5.759439e+01	-1.354117e+01
5.792705e+01	-1.359071e+01
5.826164e+01	-1.363740e+01
5.859815e+01	-1.368608e+01
5.893662e+01	-1.373366e+01
5.927703e+01	-1.378203e+01
5.961941e+01	-1.382986e+01
5.996377e+01	-1.387686e+01
6.031012e+01	-1.392590e+01
6.065847e+01	-1.397366e+01
6.100883e+01	-1.402191e+01
6.136121e+01	-1.406945e+01
6.171563e+01	-1.411770e+01
6.207210e+01	-1.416544e+01
6.243063e+01	-1.421409e+01
6.279122e+01	-1.426216e+01
6.315390e+01	-1.430931e+01
6.351868e+01	-1.435850e+01
6.388556e+01	-1.440646e+01
6.425456e+01	-1.445446e+01
6.462569e+01	-1.450316e+01
6.499897e+01	-1.455084e+01
6.537440e+01	-1.459844e+01
6.575200e+01	-1.464745e+01
6.613178e+01	-1.469566e+01
6.651375e+01	-1.474491e+01
6.689793e+01	-1.479280e+01
6.728433e+01	-1.484091e+01
6.767297e+01	-1.489001e+01
6.806384e+01	-1.493763e+01
6.845698e+01	-1.498616e+01
6.885238e+01	-1.503374e+01
6.925007e+01	-1.508356e+01
6.965005e+01	-1.513241e+01
7.005235e+01	-1.518015e+01
7.045697e+01	-1.522959e+01
7.086393e+01	-1.527837e+01
7.127323e+01	-1.532707e+01
7.168490e+01	-1.537540e+01
7.209895e+01	-1.542331e+01
7.251539e+01	-1.547185e+01
7.293424e+01	-1.552001e+01
7.335551e+01	-1.556951e+01
7.377920e+01	-1.561757e+01
7.420535e+01	-1.566649e+01
7.463396e+01	-1.571478e+01
7.506504e+01	-1.576496e+01
7.549861e+01	-1.581241e+01
7.593469e+01	-1.586122e+01
7.637328e+01	-1.590974e+01
7.681441e+01	-1.595931e+01
7.725809e+01	-1.600712e+01
7.770433e+01	-1.605523e+01
7.815315e+01	-1.610307e+01
7.860456e+01	-1.615484e+01
7.905857e+01	-1.620221e+01
7.951521e+01	-1.625150e+01
7.997449e+01	-1.630050e+01
8.043642e+01	-1.634806e+01
8.090102e+01	-1.639741e+01
8.136830e+01	-1.644595e+01
8.183828e+01	-1.649546e+01
8.231097e+01	-1.654481e+01
8.278640e+01	-1.659403e+01
8.326457e+01	-1.664270e+01
8.374550e+01	-1.669222e+01
8.422921e+01	-1.674048e+01
8.471572e+01	-1.678948e+01
8.520503e+01	-1.683885e+01
8.569717e+01	-1.688743e+01
8.619215e+01	-1.693635e+01
8.669000e+01	-1.698593e+01
8.719071e+01	-1.703391e+01
8.769432e+01	-1.708330e+01
8.820084e+01	-1.713350e+01
8.871029e+01	-1.718138e+01
8.922267e+01	-1.723076e+01
8.973802e+01	-1.727947e+01
9.025634e+01	-1.732888e+01
9.077766e+01	-1.737800e+01
9.130199e+01	-1.742809e+01
9.182935e+01	-1.747526e+01
9.235975e+01	-1.752548e+01
9.289321e+01	-1.757538e+01
9.342976e+01	-1.762393e+01
9.396941e+01	-1.767349e+01
9.451217e+01	-1.772140e+01
9.505807e+01	-1.777041e+01
9.560712e+01	-1.781965e+01
9.615934e+01	-1.786956e+01
9.671476e+01	-1.791856e+01
9.727338e+01	-1.796765e+01
9.783522e+01	-1.801724e+01
9.840032e+01	-1.806681e+01
9.896867e+01	-1.811669e+01
9.954031e+01	-1.816542e+01
1.001153e+02	-1.821385e+01
1.006935e+02	-1.826379e+01
1.012751e+02	-1.831345e+01
1.018601e+02	-1.836134e+01
1.024484e+02	-1.841161e+01
1.030402e+02	-1.846061e+01
1.036353e+02	-1.851056e+01
1.042339e+02	-1.855921e+01
1.048360e+02	-1.860819e+01
1.054415e+02	-1.865767e+01
1.060505e+02	-1.870739e+01
1.066631e+02	-1.875763e+01
1.072791e+02	-1.880679e+01
1.078988e+02	-1.885481e+01
1.085220e+02	-1.890498e+01
1.091488e+02	-1.895503e+01
1.097793e+02	-1.900400e+01
1.104133e+02	-1.905236e+01
1.110511e+02	-1.910099e+01
1.116925e+02	-1.915196e+01
1.123376e+02	-1.920121e+01
1.129865e+02	-1.925252e+01
1.136391e+02	-1.930056e+01
1.142955e+02	-1.934949e+01
1.149556e+02	-1.940024e+01
1.156196e+02	-1.944966e+01
1.162874e+02	-1.949842e+01
1.169591e+02	-1.954849e+01
1.176347e+02	-1.959920e+01
1.183141e+02	-1.964753e+01
1.189975e+02	-1.969586e+01
1.196848e+02	-1.974646e+01
1.203761e+02	-1.979488e+01
1.210714e+02	-1.984567e+01
1.217707e+02	-1.989384e+01
1.224740e+02	-1.994489e+01
1.231814e+02	-1.999484e+01
1.238929e+02	-2.004234e+01
1.246085e+02	-2.009231e+01
1.253283e+02	-2.014175e+01
1.260522e+02	-2.019075e+01
1.267802e+02	-2.024113e+01
1.275125e+02	-2.029019e+01
1.282490e+02	-2.034077e+01
1.289898e+02	-2.038969e+01
1.297348e+02	-2.043935e+01
1.304842e+02	-2.048893e+01
1.312378e+02	-2.054001e+01
1.319959e+02	-2.058799e+01
1.327583e+02	-2.063816e+01
1.335251e+02	-2.068599e+01
1.342963e+02	-2.073818e+01
1.350720e+02	-2.078589e+01
1.358522e+02	-2.083620e+01
1.366368e+02	-2.088498e+01
1.374260e+02	-2.093708e+01
1.382198e+02	-2.098437e+01
1.390182e+02	-2.103459e+01
1.398211e+02	-2.108460e+01
1.406287e+02	-2.113542e+01
1.414410e+02	-2.118271e+01
1.422579e+02	-2.123201e+01
1.430796e+02	-2.128368e+01
1.439060e+02	-2.133135e+01
1.447372e+02	-2.138251e+01
1.455732e+02	-2.142937e+01
1.464141e+02	-2.148300e+01
1.472597e+02	-2.153007e+01
1.481103e+02	-2.157995e+01
1.489658e+02	-2.163039e+01
1.498262e+02	-2.168148e+01
1.506916e+02	-2.173186e+01
1.515620e+02	-2.177892e+01
1.524374e+02	-2.183043e+01
1.533179e+02	-2.187964e+01
1.542034e+02	-2.192932e+01
1.550941e+02	-2.198003e+01
1.559899e+02	-2.202998e+01
1.568909e+02	-2.207715e+01
1.577971e+02	-2.212843e+01
1.587085e+02	-2.217796e+01
1.596252e+02	-2.222749e+01
1.605472e+02	-2.227829e+01
1.614745e+02	-2.232803e+01
1.624072e+02	-2.237591e+01
1.633453e+02	-2.242995e+01
1.642887e+02	-2.247759e+01
1.652377e+02	-2.252715e+01
1.661921e+02	-2.257497e+01
1.671520e+02	-2.262553e+01
1.681175e+02	-2.267468e+01
1.690885e+02	-2.272386e+01
1.700651e+02	-2.277354e+01
1.710474e+02	-2.282469e+01
1.720354e+02	-2.287396e+01
1.730291e+02	-2.292327e+01
1.740285e+02	-2.297235e+01
1.750337e+02	-2.302293e+01
1.760446e+02	-2.307402e+01
1.770615e+02	-2.312285e+01
1.780842e+02	-2.317224e+01
1.791128e+02	-2.322337e+01
1.801473e+02	-2.327285e+01
1.811878e+02	-2.332211e+01
1.822344e+02	-2.337315e+01
1.832870e+02	-2.342137e+01
1.843456e+02	-2.347298e+01
1.854104e+02	-2.352334e+01
1.864813e+02	-2.357223e+01
1.875584e+02	-2.362228e+01
1.886418e+02	-2.367182e+01
1.897313e+02	-2.372454e+01
1.908272e+02	-2.377215e+01
1.919294e+02	-2.382140e+01
1.930380e+02	-2.387067e+01
1.941530e+02	-2.392113e+01
1.952744e+02	-2.397131e+01
1.964023e+02	-2.402030e+01
1.975367e+02	-2.407037e+01
1.986777e+02	-2.411988e+01
1.998252e+02	-2.417001e+01
2.009794e+02	-2.421941e+01
2.021403e+02	-2.427173e+01
2.033078e+02	-2.432012e+01
2.044821e+02	-2.437060e+01
2.056632e+02	-2.441810e+01
2.068511e+02	-2.446707e+01
2.080459e+02	-2.451974e+01
2.092475e+02	-2.456902e+01
2.104561e+02	-2.461800e+01
2.116717e+02	-2.466629e+01
2.128943e+02	-2.471741e+01
2.141240e+02	-2.476768e+01
2.153608e+02	-2.481979e+01
2.166047e+02	-2.486737e+01
2.178558e+02	-2.491663e+01
2.191141e+02	-2.497124e+01
2.203797e+02	-2.501564e+01
2.216526e+02	-2.506779e+01
2.229329e+02	-2.512107e+01
2.242205e+02	-2.516682e+01
2.255156e+02	-2.521583e+01
2.268182e+02	-2.526902e+01
2.281283e+02	-2.532116e+01
2.294459e+02	-2.536751e+01
2.307712e+02	-2.541705e+01
2.321041e+02	-2.546722e+01
2.334447e+02	-2.551433e+01
2.347931e+02	-2.556464e+01
2.361493e+02	-2.561940e+01
2.375133e+02	-2.566693e+01
2.388851e+02	-2.571554e+01
2.402649e+02	-2.576811e+01
2.416527e+02	-2.581810e+01
2.430484e+02	-2.586793e+01
2.444523e+02	-2.591421e+01
2.458642e+02	-2.596959e+01
2.472843e+02	-2.601695e+01
2.487126e+02	-2.606456e+01
2.501492e+02	-2.611520e+01
2.515940e+02	-2.616879e+01
2.530472e+02	-2.621595e+01
2.545088e+02	-2.626365e+01
2.559789e+02	-2.631775e+01
2.574574e+02	-2.636320e+01
2.589444e+02	-2.641361e+01
2.604401e+02	-2.646659e+01
2.619444e+02	-2.651799e+01
2.634574e+02	-2.656590e+01
2.649791e+02	-2.661633e+01
2.665096e+02	-2.666600e+01
2.680489e+02	-2.671684e+01
2.695972e+02	-2.677070e+01
2.711544e+02	-2.681642e+01
2.727205e+02	-2.686430e+01
2.742958e+02	-2.691730e+01
2.758801e+02	-2.696752e+01
2.774736e+02	-2.701507e+01
2.790762e+02	-2.706241e+01
2.806882e+02	-2.711950e+01
2.823094e+02	-2.716376e+01
2.839400e+02	-2.721830e+01
2.855800e+02	-2.726596e+01
2.872295e+02	-2.732121e+01
2.888886e+02	-2.736565e+01
2.905572e+02	-2.741424e+01
2.922354e+02	-2.746390e+01
2.939234e+02	-2.751350e+01
2.956211e+02	-2.756458e+01
2.973286e+02	-2.761455e+01
2.990459e+02	-2.766848e+01
3.007732e+02	-2.771456e+01
3.025104e+02	-2.776289e+01
3.042577e+02	-2.781932e+01
3.060151e+02	-2.786692e+01
3.077826e+02	-2.791437e+01
3.095604e+02	-2.796675e+01
3.113484e+02	-2.801635e+01
3.131467e+02	-2.806852e+01
3.149554e+02	-2.811518e+01
3.167746e+02	-2.816807e+01
3.186043e+02	-2.821561e+01
3.204445e+02	-2.827033e+01
3.222954e+02	-2.831626e+01
3.241570e+02	-2.837218e+01
3.260293e+02	-2.841830e+01
3.279124e+02	-2.846689e+01
3.298064e+02	-2.851771e+01
3.317114e+02	-2.856289e+01
3.336273e+02	-2.861618e+01
3.355544e+02	-2.866695e+01
3.374925e+02	-2.871489e+01
3.394418e+02	-2.876701e+01
3.414024e+02	-2.881373e+01
3.433744e+02	-2.886777e+01
3.453577e+02	-2.891702e+01
3.473525e+02	-2.896524e+01
3.493588e+02	-2.901680e+01
3.513766e+02	-2.906552e+01
3.534062e+02	-2.911620e+01
3.554474e+02	-2.916401e+01
3.575005e+02	-2.921860e+01
3.595654e+02	-2.927029e+01
3.616422e+02	-2.931959e+01
3.637311e+02	-2.937298e+01
3.658320e+02	-2.941811e+01
3.679450e+02	-2.946748e+01
3.700702e+02	-2.952026e+01
3.722077e+02	-2.956561e+01
3.743576e+02	-2.961811e+01
3.765199e+02	-2.966960e+01
3.786946e+02	-2.971423e+01
3.808820e+02	-2.977233e+01
3.830819e+02	-2.982186e+01
3.852946e+02	-2.986779e+01
3.875200e+02	-2.991838e+01
3.897583e+02	-2.996720e+01
3.920096e+02	-3.001842e+01
3.942738e+02	-3.006813e+01
3.965511e+02	-3.011723e+01
3.988416e+02	-3.017205e+01
4.011452e+02	-3.021806e+01
4.034622e+02	-3.026681e+01
4.057926e+02	-3.031797e+01
4.081365e+02	-3.036943e+01
4.104938e+02	-3.042020e+01
4.128648e+02	-3.046714e+01
4.152495e+02	-3.052180e+01
4.176480e+02	-3.057240e+01
4.200603e+02	-3.061767e+01
4.224866e+02	-3.067206e+01
4.249268e+02	-3.072443e+01
4.273812e+02	-3.077411e+01
4.298497e+02	-3.081666e+01
4.323325e+02	-3.087156e+01
4.348297e+02	-3.092103e+01
4.373412e+02	-3.097141e+01
4.398673e+02	-3.102098e+01
4.424079e+02	-3.106626e+01
4.449633e+02	-3.112140e+01
4.475334e+02	-3.117267e+01
4.501183e+02	-3.121944e+01
4.527182e+02	-3.127136e+01
4.553330e+02	-3.133086e+01
4.579630e+02	-3.137193e+01
4.606082e+02	-3.142169e+01
4.632687e+02	-3.147292e+01
4.659445e+02	-3.151978e+01
4.686358e+02	-3.156920e+01
4.713426e+02	-3.162461e+01
4.740650e+02	-3.167190e+01
4.768032e+02	-3.172674e+01
4.795572e+02	-3.177008e+01
4.823271e+02	-3.182655e+01
4.851130e+02	-3.188413e+01
4.879150e+02	-3.192564e+01
4.907332e+02	-3.197356e+01
4.935676e+02	-3.202097e+01
4.964185e+02	-3.207070e+01
4.992858e+02	-3.212637e+01
5.021696e+02	-3.217200e+01
5.050701e+02	-3.222951e+01
5.079874e+02	-3.227464e+01
5.109215e+02	-3.232588e+01
5.138726e+02	-3.237786e+01
5.168407e+02	-3.242839e+01
5.198259e+02	-3.247616e+01
5.228284e+02	-3.252865e+01
5.258482e+02	-3.258199e+01
5.288855e+02	-3.262360e+01
5.319403e+02	-3.268157e+01
5.350128e+02	-3.272761e+01
5.381030e+02	-3.278004e+01
5.412111e+02	-3.282903e+01
5.443371e+02	-3.288356e+01
5.474812e+02	-3.291933e+01
5.506434e+02	-3.297470e+01
5.538239e+02	-3.303152e+01
5.570228e+02	-3.308225e+01
5.602401e+02	-3.312992e+01
5.634760e+02	-3.317961e+01
5.667306e+02	-3.322174e+01
5.700040e+02	-3.328229e+01
5.732964e+02	-3.332626e+01
5.766077e+02	-3.338439e+01
5.799382e+02	-3.343429e+01
5.832879e+02	-3.348136e+01
5.866569e+02	-3.353660e+01
5.900454e+02	-3.357800e+01
5.934535e+02	-3.363144e+01
5.968813e+02	-3.368173e+01
6.003288e+02	-3.373408e+01
6.037963e+02	-3.378411e+01
6.072838e+02	-3.382510e+01
6.107914e+02	-3.387773e+01
6.143194e+02	-3.393369e+01
6.178676e+02	-3.397518e+01
6.214364e+02	-3.402983e+01
6.250258e+02	-3.408062e+01
6.286359e+02	-3.413417e+01
6.322669e+02	-3.417998e+01
6.359189e+02	-3.423722e+01
6.395919e+02	-3.428389e+01
6.432862e+02	-3.433485e+01
6.470017e+02	-3.438443e+01
6.507388e+02	-3.443689e+01
6.544974e+02	-3.448259e+01
6.582778e+02	-3.454804e+01
6.620800e+02	-3.459960e+01
6.659041e+02	-3.463355e+01
6.697504e+02	-3.468496e+01
6.736188e+02	-3.473650e+01
6.775096e+02	-3.478944e+01
6.814229e+02	-3.483392e+01
6.853587e+02	-3.489154e+01
6.893173e+02	-3.493996e+01
6.932988e+02	-3.500045e+01
6.973033e+02	-3.504235e+01
7.013309e+02	-3.508921e+01
