Frequency(Hz)	Magnitude(dB)
1.000000e+01	-2.222421e+00
1.005776e+01	-2.242740e+00
1.011585e+01	-2.262678e+00
1.017428e+01	-2.283272e+00
1.023305e+01	-2.303602e+00
1.029215e+01	-2.324440e+00
1.035160e+01	-2.345211e+00
1.041139e+01	-2.366249e+00
1.047153e+01	-2.387173e+00
1.053201e+01	-2.408452e+00
1.059284e+01	-2.429749e+00
1.065403e+01	-2.451201e+00
1.071556e+01	-2.473131e+00
1.077746e+01	-2.494961e+00
1.083971e+01	-2.516808e+00
1.090232e+01	-2.538835e+00
1.096529e+01	-2.561017e+00
1.102862e+01	-2.583487e+00
1.109232e+01	-2.605888e+00
1.115639e+01	-2.628502e+00
1.122083e+01	-2.651228e+00
1.128564e+01	-2.674250e+00
1.135083e+01	-2.697378e+00
1.141639e+01	-2.720523e+00
1.148233e+01	-2.744088e+00
1.154865e+01	-2.767394e+00
1.161536e+01	-2.791066e+00
1.168245e+01	-2.814803e+00
1.174992e+01	-2.838574e+00
1.181779e+01	-2.863120e+00
1.188605e+01	-2.887096e+00
1.195470e+01	-2.911294e+00
1.202375e+01	-2.935943e+00
1.209320e+01	-2.960452e+00
1.216305e+01	-2.985482e+00
1.223330e+01	-3.010397e+00
1.230396e+01	-3.035415e+00
1.237503e+01	-3.060649e+00
1.244651e+01	-3.086059e+00
1.251840e+01	-3.111427e+00
1.259070e+01	-3.137159e+00
1.266343e+01	-3.162909e+00
1.273657e+01	-3.189166e+00
1.281014e+01	-3.215147e+00
1.288413e+01	-3.241192e+00
1.295855e+01	-3.267599e+00
1.303339e+01	-3.294105e+00
1.310867e+01	-3.321051e+00
1.318439e+01	-3.347892e+00
1.326054e+01	-3.374524e+00
1.333713e+01	-3.401789e+00
1.341417e+01	-3.428905e+00
1.349165e+01	-3.456293e+00
1.356958e+01	-3.483686e+00
1.364795e+01	-3.511597e+00
1.372678e+01	-3.539389e+00
1.380607e+01	-3.567478e+00
1.388581e+01	-3.595153e+00
1.396602e+01	-3.623703e+00
1.404668e+01	-3.652022e+00
1.412782e+01	-3.680469e+00
1.420942e+01	-3.708902e+00
1.429149e+01	-3.738182e+00
1.437404e+01	-3.766730e+00
1.445706e+01	-3.795815e+00
1.454057e+01	-3.825139e+00
1.462455e+01	-3.854500e+00
1.470902e+01	-3.884182e+00
1.479398e+01	-3.913878e+00
1.487943e+01	-3.943295e+00
1.496537e+01	-3.973382e+00
1.505181e+01	-4.003339e+00
1.513875e+01	-4.033628e+00
1.522619e+01	-4.063990e+00
1.531414e+01	-4.094470e+00
1.540259e+01	-4.125161e+00
1.549156e+01	-4.155655e+00
1.558103e+01	-4.187046e+00
1.567103e+01	-4.217725e+00
1.576155e+01	-4.248556e+00
1.585258e+01	-4.280042e+00
1.594415e+01	-4.311553e+00
1.603624e+01	-4.343093e+00
1.612886e+01	-4.374782e+00
1.622202e+01	-4.406659e+00
1.631572e+01	-4.438669e+00
1.640996e+01	-4.470635e+00
1.650474e+01	-4.502912e+00
1.660008e+01	-4.535152e+00
1.669596e+01	-4.567726e+00
1.679239e+01	-4.600409e+00
1.688938e+01	-4.632984e+00
1.698694e+01	-4.666032e+00
1.708505e+01	-4.698952e+00
1.718373e+01	-4.732071e+00
1.728299e+01	-4.765436e+00
1.738281e+01	-4.798769e+00
1.748322e+01	-4.832663e+00
1.758420e+01	-4.866117e+00
1.768576e+01	-4.899847e+00
1.778792e+01	-4.933674e+00
1.789066e+01	-4.967712e+00
1.799399e+01	-5.001567e+00
1.809793e+01	-5.036240e+00
1.820246e+01	-5.070558e+00
1.830760e+01	-5.104882e+00
1.841334e+01	-5.139808e+00
1.851969e+01	-5.174302e+00
1.862666e+01	-5.209146e+00
1.873425e+01	-5.244474e+00
1.884246e+01	-5.279383e+00
1.895129e+01	-5.314563e+00
1.906075e+01	-5.350055e+00
1.917085e+01	-5.385808e+00
1.928158e+01	-5.421307e+00
1.939295e+01	-5.456837e+00
1.950496e+01	-5.492775e+00
1.961762e+01	-5.528787e+00
1.973093e+01	-5.564981e+00
1.984490e+01	-5.600743e+00
1.995952e+01	-5.637263e+00
2.007480e+01	-5.673439e+00
2.019076e+01	-5.710354e+00
2.030738e+01	-5.746459e+00
2.042467e+01	-5.783769e+00
2.054264e+01	-5.820743e+00
2.066130e+01	-5.857109e+00
2.078064e+01	-5.894774e+00
2.090066e+01	-5.931464e+00
2.102139e+01	-5.969529e+00
2.114280e+01	-6.006449e+00
2.126492e+01	-6.044442e+00
2.138775e+01	-6.081436e+00
2.151128e+01	-6.119731e+00
2.163553e+01	-6.157320e+00
2.176050e+01	-6.195250e+00
2.188619e+01	-6.233262e+00
2.201260e+01	-6.271480e+00
2.213974e+01	-6.309779e+00
2.226762e+01	-6.348234e+00
2.239624e+01	-6.386736e+00
2.252560e+01	-6.425225e+00
2.265571e+01	-6.463635e+00
2.278656e+01	-6.502898e+00
2.291818e+01	-6.541050e+00
2.305055e+01	-6.580328e+00
2.318369e+01	-6.619601e+00
2.331760e+01	-6.659111e+00
2.345228e+01	-6.698204e+00
2.358774e+01	-6.737595e+00
2.372398e+01	-6.777060e+00
2.386101e+01	-6.816558e+00
2.399883e+01	-6.856110e+00
2.413745e+01	-6.895858e+00
2.427686e+01	-6.935616e+00
2.441709e+01	-6.975719e+00
2.455812e+01	-7.015595e+00
2.469997e+01	-7.055997e+00
2.484263e+01	-7.096191e+00
2.498612e+01	-7.136361e+00
2.513044e+01	-7.176646e+00
2.527559e+01	-7.217140e+00
2.542158e+01	-7.257689e+00
2.556842e+01	-7.298633e+00
2.571610e+01	-7.339326e+00
2.586463e+01	-7.380164e+00
2.601403e+01	-7.420833e+00
2.616428e+01	-7.462134e+00
2.631541e+01	-7.502963e+00
2.646740e+01	-7.544256e+00
2.662028e+01	-7.585552e+00
2.677404e+01	-7.627031e+00
2.692868e+01	-7.668351e+00
2.708422e+01	-7.709804e+00
2.724066e+01	-7.751494e+00
2.739800e+01	-7.792952e+00
2.755625e+01	-7.834527e+00
2.771541e+01	-7.876850e+00
2.787550e+01	-7.918807e+00
2.803650e+01	-7.960577e+00
2.819844e+01	-8.002452e+00
2.836131e+01	-8.044791e+00
2.852513e+01	-8.086933e+00
2.868989e+01	-8.129093e+00
2.885560e+01	-8.171574e+00
2.902227e+01	-8.214124e+00
2.918990e+01	-8.256860e+00
2.935850e+01	-8.298951e+00
2.952807e+01	-8.341867e+00
2.969863e+01	-8.384523e+00
2.987016e+01	-8.427145e+00
3.004269e+01	-8.470154e+00
3.021622e+01	-8.513236e+00
3.039075e+01	-8.556630e+00
3.056628e+01	-8.599597e+00
3.074283e+01	-8.642300e+00
3.092040e+01	-8.685770e+00
3.109900e+01	-8.728943e+00
3.127862e+01	-8.772349e+00
3.145929e+01	-8.815437e+00
3.164099e+01	-8.859380e+00
3.182375e+01	-8.903213e+00
3.200756e+01	-8.946462e+00
3.219244e+01	-8.990112e+00
3.237838e+01	-9.033548e+00
3.256540e+01	-9.077874e+00
3.275349e+01	-9.121209e+00
3.294268e+01	-9.165318e+00
3.313295e+01	-9.209158e+00
3.332433e+01	-9.253115e+00
3.351681e+01	-9.297785e+00
3.371040e+01	-9.341585e+00
3.390511e+01	-9.386033e+00
3.410094e+01	-9.430575e+00
3.429791e+01	-9.474530e+00
3.449601e+01	-9.519098e+00
3.469526e+01	-9.564162e+00
3.489566e+01	-9.607805e+00
3.509721e+01	-9.652949e+00
3.529993e+01	-9.697653e+00
3.550382e+01	-9.741649e+00
3.570889e+01	-9.787039e+00
3.591515e+01	-9.831380e+00
3.612259e+01	-9.876561e+00
3.633123e+01	-9.921261e+00
3.654108e+01	-9.966147e+00
3.675214e+01	-1.001157e+01
3.696442e+01	-1.005646e+01
3.717792e+01	-1.010162e+01
3.739266e+01	-1.014646e+01
3.760864e+01	-1.019202e+01
3.782587e+01	-1.023722e+01
3.804435e+01	-1.028246e+01
3.826409e+01	-1.032841e+01
3.848510e+01	-1.037284e+01
3.870739e+01	-1.041930e+01
3.893096e+01	-1.046419e+01
3.915583e+01	-1.050939e+01
3.938199e+01	-1.055461e+01
3.960946e+01	-1.060082e+01
3.983824e+01	-1.064703e+01
4.006834e+01	-1.069253e+01
4.029978e+01	-1.073804e+01
4.053255e+01	-1.078385e+01
4.076666e+01	-1.083008e+01
4.100213e+01	-1.087583e+01
4.123896e+01	-1.092182e+01
4.147715e+01	-1.096754e+01
4.171672e+01	-1.101367e+01
4.195767e+01	-1.106004e+01
4.220002e+01	-1.110584e+01
4.244377e+01	-1.115197e+01
4.268892e+01	-1.119896e+01
4.293549e+01	-1.124459e+01
4.318348e+01	-1.129144e+01
4.343291e+01	-1.133732e+01
4.368377e+01	-1.138404e+01
4.393609e+01	-1.143010e+01
4.418986e+01	-1.147637e+01
4.444510e+01	-1.152232e+01
4.470182e+01	-1.156937e+01
4.496001e+01	-1.161549e+01
4.521970e+01	-1.166277e+01
4.548089e+01	-1.170914e+01
4.574358e+01	-1.175578e+01
4.600779e+01	-1.180277e+01
4.627353e+01	-1.184915e+01
4.654081e+01	-1.189659e+01
4.680963e+01	-1.194288e+01
4.708000e+01	-1.199008e+01
4.735193e+01	-1.203725e+01
4.762543e+01	-1.208438e+01
4.790051e+01	-1.213091e+01
4.817719e+01	-1.217802e+01
4.845545e+01	-1.222454e+01
4.873533e+01	-1.227171e+01
4.901682e+01	-1.231923e+01
4.929994e+01	-1.236563e+01
4.958470e+01	-1.241265e+01
4.987110e+01	-1.245967e+01
5.015915e+01	-1.250756e+01
5.044887e+01	-1.255436e+01
5.074026e+01	-1.260129e+01
5.103333e+01	-1.264930e+01
5.132810e+01	-1.269642e+01
5.162457e+01	-1.274336e+01
5.192275e+01	-1.279133e+01
5.222265e+01	-1.283796e+01
5.252429e+01	-1.288593e+01
5.282767e+01	-1.293293e+01
5.313280e+01	-1.298131e+01
5.343969e+01	-1.302856e+01
5.374836e+01	-1.307659e+01
5.405880e+01	-1.312362e+01
5.437105e+01	-1.316990e+01
5.468509e+01	-1.321895e+01
5.500095e+01	-1.326644e+01
5.531863e+01	-1.331397e+01
5.563815e+01	-1.336235e+01
5.595951e+01	-1.341019e+01
5.628273e+01	-1.345736e+01
5.660782e+01	-1.350566e+01
5.693479e+01	-1.355300e+01
5.726364e+01	-1.360065e+01
5.759439e+01	-1.364852e+01
5.792705e+01	-1.369665e+01
5.826164e+01	-1.374440e+01
5.859815e+01	-1.379185e+01
5.893662e+01	-1.384025e+01
5.927703e+01	-1.388767e+01
5.961941e+01	-1.393643e+01
5.996377e+01	-1.398412e+01
6.031012e+01	-1.403174e+01
6.065847e+01	-1.408006e+01
6.100883e+01	-1.412923e+01
6.136121e+01	-1.417701e+01
6.171563e+01	-1.422474e+01
6.207210e+01	-1.427227e+01
6.243063e+01	-1.432097e+01
6.279122e+01	-1.436858e+01
6.315390e+01	-1.441707e+01
6.351868e+01	-1.446588e+01
6.388556e+01	-1.451368e+01
6.425456e+01	-1.456170e+01
6.462569e+01	-1.461081e+01
6.499897e+01	-1.465876e+01
6.537440e+01	-1.470693e+01
6.575200e+01	-1.475582e+01
6.613178e+01	-1.480429e+01
6.651375e+01	-1.485213e+01
6.689793e+01	-1.490119e+01
6.728433e+01	-1.495022e+01
6.767297e+01	-1.499832e+01
6.806384e+01	-1.504510e+01
6.845698e+01	-1.509431e+01
6.885238e+01	-1.514311e+01
6.925007e+01	-1.519113e+01
6.965005e+01	-1.523954e+01
7.005235e+01	-1.528841e+01
7.045697e+01	-1.533616e+01
7.086393e+01	-1.538523e+01
7.127323e+01	-1.543355e+01
7.168490e+01	-1.548353e+01
7.209895e+01	-1.553090e+01
7.251539e+01	-1.558043e+01
7.293424e+01	-1.562922e+01
7.335551e+01	-1.567703e+01
7.377920e+01	-1.572560e+01
7.420535e+01	-1.577432e+01
7.463396e+01	-1.582359e+01
7.506504e+01	-1.587293e+01
7.549861e+01	-1.592069e+01
7.593469e+01	-1.596995e+01
7.637328e+01	-1.601908e+01
7.681441e+01	-1.606610e+01
7.725809e+01	-1.611664e+01
7.770433e+01	-1.616549e+01
7.815315e+01	-1.621452e+01
7.860456e+01	-1.626191e+01
7.905857e+01	-1.631087e+01
7.951521e+01	-1.635964e+01
7.997449e+01	-1.640952e+01
8.043642e+01	-1.645835e+01
8.090102e+01	-1.650635e+01
8.136830e+01	-1.655471e+01
8.183828e+01	-1.660389e+01
8.231097e+01	-1.665444e+01
8.278640e+01	-1.670243e+01
8.326457e+01	-1.675089e+01
8.374550e+01	-1.680152e+01
8.422921e+01	-1.684888e+01
8.471572e+01	-1.689811e+01
8.520503e+01	-1.694792e+01
8.569717e+01	-1.699760e+01
8.619215e+01	-1.704648e+01
8.669000e+01	-1.709464e+01
8.719071e+01	-1.714467e+01
8.769432e+01	-1.719260e+01
8.820084e+01	-1.724187e+01
8.871029e+01	-1.729055e+01
8.922267e+01	-1.733943e+01
8.973802e+01	-1.738968e+01
9.025634e+01	-1.743902e+01
9.077766e+01	-1.748694e+01
9.130199e+01	-1.753667e+01
9.182935e+01	-1.758495e+01
9.235975e+01	-1.763419e+01
9.289321e+01	-1.768505e+01
9.342976e+01	-1.773416e+01
9.396941e+01	-1.778119e+01
9.451217e+01	-1.783170e+01
9.505807e+01	-1.788033e+01
9.560712e+01	-1.792915e+01
9.615934e+01	-1.797982e+01
9.671476e+01	-1.802834e+01
9.727338e+01	-1.807825e+01
9.783522e+01	-1.812706e+01
9.840032e+01	-1.817490e+01
9.896867e+01	-1.822585e+01
9.954031e+01	-1.827608e+01
1.001153e+02	-1.832418e+01
1.006935e+02	-1.837334e+01
1.012751e+02	-1.842255e+01
1.018601e+02	-1.847233e+01
1.024484e+02	-1.852085e+01
1.030402e+02	-1.857144e+01
1.036353e+02	-1.862113e+01
1.042339e+02	-1.866890e+01
1.048360e+02	-1.872071e+01
1.054415e+02	-1.876830e+01
1.060505e+02	-1.881873e+01
1.066631e+02	-1.886841e+01
1.072791e+02	-1.891666e+01
1.078988e+02	-1.896470e+01
1.085220e+02	-1.901494e+01
1.091488e+02	-1.906445e+01
1.097793e+02	-1.911442e+01
1.104133e+02	-1.916308e+01
1.110511e+02	-1.921313e+01
1.116925e+02	-1.926308e+01
1.123376e+02	-1.931267e+01
1.129865e+02	-1.936130e+01
1.136391e+02	-1.940970e+01
1.142955e+02	-1.946013e+01
1.149556e+02	-1.950943e+01
1.156196e+02	-1.955894e+01
1.162874e+02	-1.960753e+01
1.169591e+02	-1.965726e+01
1.176347e+02	-1.970730e+01
1.183141e+02	-1.975620e+01
1.189975e+02	-1.980581e+01
1.196848e+02	-1.985633e+01
1.203761e+02	-1.990618e+01
1.210714e+02	-1.995576e+01
1.217707e+02	-2.000455e+01
1.224740e+02	-2.005349e+01
1.231814e+02	-2.010299e+01
1.238929e+02	-2.015558e+01
1.246085e+02	-2.020396e+01
1.253283e+02	-2.025231e+01
1.260522e+02	-2.030146e+01
1.267802e+02	-2.035081e+01
1.275125e+02	-2.040027e+01
1.282490e+02	-2.044965e+01
1.289898e+02	-2.049963e+01
1.297348e+02	-2.054873e+01
1.304842e+02	-2.060108e+01
1.312378e+02	-2.064774e+01
1.319959e+02	-2.069991e+01
1.327583e+02	-2.075006e+01
1.335251e+02	-2.079977e+01
1.342963e+02	-2.084879e+01
1.350720e+02	-2.089709e+01
1.358522e+02	-2.094603e+01
1.366368e+02	-2.099578e+01
1.374260e+02	-2.104825e+01
1.382198e+02	-2.109529e+01
1.390182e+02	-2.114687e+01
1.398211e+02	-2.119589e+01
1.406287e+02	-2.124689e+01
1.414410e+02	-2.129441e+01
1.422579e+02	-2.134324e+01
1.430796e+02	-2.139381e+01
1.439060e+02	-2.144243e+01
1.447372e+02	-2.149205e+01
1.455732e+02	-2.154524e+01
1.464141e+02	-2.159531e+01
1.472597e+02	-2.164230e+01
1.481103e+02	-2.169172e+01
1.489658e+02	-2.174312e+01
1.498262e+02	-2.179145e+01
1.506916e+02	-2.184128e+01
1.515620e+02	-2.189096e+01
1.524374e+02	-2.194084e+01
1.533179e+02	-2.199188e+01
1.542034e+02	-2.203939e+01
1.550941e+02	-2.209027e+01
1.559899e+02	-2.213991e+01
1.568909e+02	-2.218919e+01
1.577971e+02	-2.224064e+01
1.587085e+02	-2.228939e+01
1.596252e+02	-2.233886e+01
1.605472e+02	-2.238965e+01
1.614745e+02	-2.243799e+01
1.624072e+02	-2.248895e+01
1.633453e+02	-2.253791e+01
1.642887e+02	-2.258588e+01
1.652377e+02	-2.263806e+01
1.661921e+02	-2.268916e+01
1.671520e+02	-2.273708e+01
1.681175e+02	-2.278459e+01
1.690885e+02	-2.283812e+01
1.700651e+02	-2.288557e+01
1.710474e+02	-2.293759e+01
1.720354e+02	-2.298389e+01
1.730291e+02	-2.303414e+01
1.740285e+02	-2.308493e+01
1.750337e+02	-2.313561e+01
1.760446e+02	-2.318238e+01
1.770615e+02	-2.323615e+01
1.780842e+02	-2.328464e+01
1.791128e+02	-2.333327e+01
1.801473e+02	-2.338389e+01
1.811878e+02	-2.343344e+01
1.822344e+02	-2.348438e+01
1.832870e+02	-2.353068e+01
1.843456e+02	-2.358423e+01
1.854104e+02	-2.363201e+01
1.864813e+02	-2.368397e+01
1.875584e+02	-2.373124e+01
1.886418e+02	-2.378374e+01
1.897313e+02	-2.383496e+01
1.908272e+02	-2.388241e+01
1.919294e+02	-2.393233e+01
1.930380e+02	-2.398197e+01
1.941530e+02	-2.403276e+01
1.952744e+02	-2.408150e+01
1.964023e+02	-2.413140e+01
1.975367e+02	-2.418184e+01
1.986777e+02	-2.423177e+01
1.998252e+02	-2.428077e+01
2.009794e+02	-2.433257e+01
2.021403e+02	-2.438111e+01
2.033078e+02	-2.443110e+01
2.044821e+02	-2.448213e+01
2.056632e+02	-2.452836e+01
2.068511e+02	-2.458241e+01
2.080459e+02	-2.462843e+01
2.092475e+02	-2.468005e+01
2.104561e+02	-2.473021e+01
2.116717e+02	-2.478136e+01
2.128943e+02	-2.483372e+01
2.141240e+02	-2.488199e+01
2.153608e+02	-2.493179e+01
2.166047e+02	-2.498174e+01
2.178558e+02	-2.502974e+01
2.191141e+02	-2.508075e+01
2.203797e+02	-2.512957e+01
2.216526e+02	-2.518218e+01
2.229329e+02	-2.523067e+01
2.242205e+02	-2.528117e+01
2.255156e+02	-2.532913e+01
2.268182e+02	-2.537999e+01
2.281283e+02	-2.542728e+01
2.294459e+02	-2.547727e+01
2.307712e+02	-2.552648e+01
2.321041e+02	-2.557915e+01
2.334447e+02	-2.562919e+01
2.347931e+02	-2.567918e+01
2.361493e+02	-2.572903e+01
2.375133e+02	-2.578069e+01
2.388851e+02	-2.582963e+01
2.402649e+02	-2.588094e+01
2.416527e+02	-2.592955e+01
2.430484e+02	-2.597898e+01
2.444523e+02	-2.602906e+01
2.458642e+02	-2.607732e+01
2.472843e+02	-2.612568e+01
2.487126e+02	-2.617730e+01
2.501492e+02	-2.622689e+01
2.515940e+02	-2.627648e+01
2.530472e+02	-2.632669e+01
2.545088e+02	-2.637561e+01
2.559789e+02	-2.642802e+01
2.574574e+02	-2.647615e+01
2.589444e+02	-2.652718e+01
2.604401e+02	-2.657811e+01
2.619444e+02	-2.662729e+01
2.634574e+02	-2.667720e+01
2.649791e+02	-2.673366e+01
2.665096e+02	-2.677936e+01
2.680489e+02	-2.682805e+01
2.695972e+02	-2.687650e+01
2.711544e+02	-2.692567e+01
2.727205e+02	-2.698000e+01
2.742958e+02	-2.702850e+01
2.758801e+02	-2.708015e+01
2.774736e+02	-2.712800e+01
2.790762e+02	-2.717768e+01
2.806882e+02	-2.722867e+01
2.823094e+02	-2.727715e+01
2.839400e+02	-2.733116e+01
2.855800e+02	-2.737695e+01
2.872295e+02	-2.742588e+01
2.888886e+02	-2.747833e+01
2.905572e+02	-2.753161e+01
2.922354e+02	-2.757766e+01
2.939234e+02	-2.762646e+01
2.956211e+02	-2.767659e+01
2.973286e+02	-2.772697e+01
2.990459e+02	-2.777514e+01
3.007732e+02	-2.783034e+01
3.025104e+02	-2.787811e+01
3.042577e+02	-2.792880e+01
3.060151e+02	-2.797686e+01
3.077826e+02	-2.802746e+01
3.095604e+02	-2.807587e+01
3.113484e+02	-2.812887e+01
3.131467e+02	-2.817361e+01
3.149554e+02	-2.822596e+01
3.167746e+02	-2.827915e+01
3.186043e+02	-2.832788e+01
3.204445e+02	-2.837772e+01
3.222954e+02	-2.842611e+01
3.241570e+02	-2.848083e+01
3.260293e+02	-2.852943e+01
3.279124e+02	-2.857857e+01
3.298064e+02	-2.862802e+01
3.317114e+02	-2.867658e+01
3.336273e+02	-2.872396e+01
3.355544e+02	-2.878058e+01
3.374925e+02	-2.882980e+01
3.394418e+02	-2.888037e+01
3.414024e+02	-2.892818e+01
3.433744e+02	-2.897232e+01
3.453577e+02	-2.902790e+01
3.473525e+02	-2.907916e+01
3.493588e+02	-2.912892e+01
3.513766e+02	-2.918183e+01
3.534062e+02	-2.923175e+01
3.554474e+02	-2.927715e+01
3.575005e+02	-2.932918e+01
3.595654e+02	-2.938124e+01
3.616422e+02	-2.942589e+01
3.637311e+02	-2.947567e+01
3.658320e+02	-2.953075e+01
3.679450e+02	-2.957741e+01
3.700702e+02	-2.962589e+01
3.722077e+02	-2.968037e+01
3.743576e+02	-2.972749e+01
3.765199e+02	-2.978273e+01
3.786946e+02	-2.982789e+01
3.808820e+02	-2.988121e+01
3.830819e+02	-2.993078e+01
3.852946e+02	-2.997751e+01
3.875200e+02	-3.002857e+01
3.897583e+02	-3.008272e+01
3.920096e+02	-3.013563e+01
3.942738e+02	-3.018053e+01
3.965511e+02	-3.022955e+01
3.988416e+02	-3.028183e+01
4.011452e+02	-3.032586e+01
4.034622e+02	-3.038235e+01
4.057926e+02	-3.042664e+01
4.081365e+02	-3.047794e+01
4.104938e+02	-3.053523e+01
4.128648e+02	-3.057891e+01
4.152495e+02	-3.063029e+01
4.176480e+02	-3.068679e+01
4.200603e+02	-3.073182e+01
4.224866e+02	-3.078331e+01
4.249268e+02	-3.083553e+01
4.273812e+02	-3.088213e+01
4.298497e+02	-3.093130e+01
4.323325e+02	-3.097884e+01
4.348297e+02	-3.103267e+01
4.373412e+02	-3.107801e+01
4.398673e+02	-3.113270e+01
4.424079e+02	-3.118552e+01
4.449633e+02	-3.123706e+01
4.475334e+02	-3.128532e+01
4.501183e+02	-3.133709e+01
4.527182e+02	-3.138513e+01
4.553330e+02	-3.143121e+01
4.579630e+02	-3.148976e+01
4.606082e+02	-3.153163e+01
4.632687e+02	-3.159012e+01
4.659445e+02	-3.162867e+01
4.686358e+02	-3.168153e+01
4.713426e+02	-3.173229e+01
4.740650e+02	-3.178261e+01
4.768032e+02	-3.184166e+01
4.795572e+02	-3.188631e+01
4.823271e+02	-3.193618e+01
4.851130e+02	-3.198636e+01
4.879150e+02	-3.203599e+01
4.907332e+02	-3.208410e+01
4.935676e+02	-3.213592e+01
4.964185e+02	-3.218255e+01
4.992858e+02	-3.223403e+01
5.021696e+02	-3.228215e+01
5.050701e+02	-3.234022e+01
5.079874e+02	-3.238995e+01
5.109215e+02	-3.242899e+01
5.138726e+02	-3.249335e+01
5.168407e+02	-3.254372e+01
5.198259e+02	-3.259346e+01
5.228284e+02	-3.263778e+01
5.258482e+02	-3.269171e+01
5.288855e+02	-3.273263e+01
5.319403e+02	-3.278981e+01
5.350128e+02	-3.283827e+01
5.381030e+02	-3.289603e+01
5.412111e+02	-3.294068e+01
5.443371e+02	-3.299119e+01
5.474812e+02	-3.304432e+01
5.506434e+02	-3.309449e+01
5.538239e+02	-3.313611e+01
5.570228e+02	-3.319404e+01
5.602401e+02	-3.323880e+01
5.634760e+02	-3.328620e+01
5.667306e+02	-3.334209e+01
5.700040e+02	-3.338884e+01
5.732964e+02	-3.343826e+01
5.766077e+02	-3.349313e+01
5.799382e+02	-3.354306e+01
5.832879e+02	-3.358455e+01
5.866569e+02	-3.364443e+01
5.900454e+02	-3.368997e+01
5.934535e+02	-3.374818e+01
5.968813e+02	-3.379154e+01
6.003288e+02	-3.384230e+01
6.037963e+02	-3.389239e+01
6.072838e+02	-3.394745e+01
6.107914e+02	-3.400559e+01
6.143194e+02	-3.404757e+01
6.178676e+02	-3.408692e+01
6.214364e+02	-3.414919e+01
6.250258e+02	-3.419697e+01
6.286359e+02	-3.425037e+01
6.322669e+02	-3.429867e+01
6.359189e+02	-3.435250e+01
6.395919e+02	-3.440715e+01
6.432862e+02	-3.445127e+01
6.470017e+02	-3.450061e+01
6.507388e+02	-3.454911e+01
6.544974e+02	-3.459990e+01
6.582778e+02	-3.464819e+01
6.620800e+02	-3.470675e+01
6.659041e+02	-3.474706e+01
6.697504e+02	-3.479994e+01
6.736188e+02	-3.485221e+01
6.775096e+02	-3.490267e+01
6.814229e+02	-3.495679e+01
6.853587e+02	-3.500262e+01
6.893173e+02	-3.505189e+01
6.932988e+02	-3.510535e+01
6.973033e+02	-3.515949e+01
7.013309e+02	-3.520526e+01
