Frequency(Hz)	Magnitude(dB)
1.000000e+01	-2.080350e+00
1.005776e+01	-2.099571e+00
1.011585e+01	-2.118641e+00
1.017428e+01	-2.138028e+00
1.023305e+01	-2.157868e+00
1.029215e+01	-2.177283e+00
1.035160e+01	-2.196943e+00
1.041139e+01	-2.217052e+00
1.047153e+01	-2.236973e+00
1.053201e+01	-2.257316e+00
1.059284e+01	-2.277658e+00
1.065403e+01	-2.298091e+00
1.071556e+01	-2.318918e+00
1.077746e+01	-2.339469e+00
1.083971e+01	-2.360573e+00
1.090232e+01	-2.381330e+00
1.096529e+01	-2.402725e+00
1.102862e+01	-2.424006e+00
1.109232e+01	-2.445612e+00
1.115639e+01	-2.467122e+00
1.122083e+01	-2.488668e+00
1.128564e+01	-2.510619e+00
1.135083e+01	-2.532891e+00
1.141639e+01	-2.554672e+00
1.148233e+01	-2.576987e+00
1.154865e+01	-2.599568e+00
1.161536e+01	-2.622366e+00
1.168245e+01	-2.644929e+00
1.174992e+01	-2.667852e+00
1.181779e+01	-2.690941e+00
1.188605e+01	-2.714049e+00
1.195470e+01	-2.737258e+00
1.202375e+01	-2.760870e+00
1.209320e+01	-2.784536e+00
1.216305e+01	-2.808253e+00
1.223330e+01	-2.832244e+00
1.230396e+01	-2.856073e+00
1.237503e+01	-2.880258e+00
1.244651e+01	-2.904591e+00
1.251840e+01	-2.929054e+00
1.259070e+01	-2.953795e+00
1.266343e+01	-2.978355e+00
1.273657e+01	-3.003478e+00
1.281014e+01	-3.028543e+00
1.288413e+01	-3.053812e+00
1.295855e+01	-3.078991e+00
1.303339e+01	-3.104758e+00
1.310867e+01	-3.130013e+00
1.318439e+01	-3.155788e+00
1.326054e+01	-3.181799e+00
1.333713e+01	-3.207946e+00
1.341417e+01	-3.234068e+00
1.349165e+01	-3.260389e+00
1.356958e+01	-3.286771e+00
1.364795e+01	-3.313246e+00
1.372678e+01	-3.340060e+00
1.380607e+01	-3.367046e+00
1.388581e+01	-3.394335e+00
1.396602e+01	-3.421288e+00
1.404668e+01	-3.448691e+00
1.412782e+01	-3.476155e+00
1.420942e+01	-3.503930e+00
1.429149e+01	-3.531596e+00
1.437404e+01	-3.559400e+00
1.445706e+01	-3.587608e+00
1.454057e+01	-3.615988e+00
1.462455e+01	-3.644233e+00
1.470902e+01	-3.672483e+00
1.479398e+01	-3.701223e+00
1.487943e+01	-3.729871e+00
1.496537e+01	-3.758860e+00
1.505181e+01	-3.788004e+00
1.513875e+01	-3.817196e+00
1.522619e+01	-3.846409e+00
1.531414e+01	-3.875987e+00
1.540259e+01	-3.905402e+00
1.549156e+01	-3.935265e+00
1.558103e+01	-3.965208e+00
1.567103e+01	-3.994951e+00
1.576155e+01	-4.025007e+00
1.585258e+01	-4.055561e+00
1.594415e+01	-4.085904e+00
1.603624e+01	-4.116592e+00
1.612886e+01	-4.147362e+00
1.622202e+01	-4.178346e+00
1.631572e+01	-4.209158e+00
1.640996e+01	-4.240094e+00
1.650474e+01	-4.271502e+00
1.660008e+01	-4.302843e+00
1.669596e+01	-4.334380e+00
1.679239e+01	-4.366108e+00
1.688938e+01	-4.397750e+00
1.698694e+01	-4.429707e+00
1.708505e+01	-4.461627e+00
1.718373e+01	-4.493873e+00
1.728299e+01	-4.526339e+00
1.738281e+01	-4.558670e+00
1.748322e+01	-4.591193e+00
1.758420e+01	-4.624296e+00
1.768576e+01	-4.657316e+00
1.778792e+01	-4.689684e+00
1.789066e+01	-4.722834e+00
1.799399e+01	-4.756082e+00
1.809793e+01	-4.789388e+00
1.820246e+01	-4.823129e+00
1.830760e+01	-4.856675e+00
1.841334e+01	-4.890465e+00
1.851969e+01	-4.924199e+00
1.862666e+01	-4.958044e+00
1.873425e+01	-4.992222e+00
1.884246e+01	-5.026490e+00
1.895129e+01	-5.061049e+00
1.906075e+01	-5.095545e+00
1.917085e+01	-5.129913e+00
1.928158e+01	-5.164549e+00
1.939295e+01	-5.199722e+00
1.950496e+01	-5.234598e+00
1.961762e+01	-5.269526e+00
1.973093e+01	-5.304582e+00
1.984490e+01	-5.340242e+00
1.995952e+01	-5.375745e+00
2.007480e+01	-5.411309e+00
2.019076e+01	-5.446770e+00
2.030738e+01	-5.482730e+00
2.042467e+01	-5.518617e+00
2.054264e+01	-5.554832e+00
2.066130e+01	-5.590773e+00
2.078064e+01	-5.627344e+00
2.090066e+01	-5.663782e+00
2.102139e+01	-5.699737e+00
2.114280e+01	-5.736942e+00
2.126492e+01	-5.773304e+00
2.138775e+01	-5.810586e+00
2.151128e+01	-5.847241e+00
2.163553e+01	-5.884246e+00
2.176050e+01	-5.921429e+00
2.188619e+01	-5.958856e+00
2.201260e+01	-5.996225e+00
2.213974e+01	-6.033495e+00
2.226762e+01	-6.071391e+00
2.239624e+01	-6.108880e+00
2.252560e+01	-6.146761e+00
2.265571e+01	-6.184739e+00
2.278656e+01	-6.222928e+00
2.291818e+01	-6.260812e+00
2.305055e+01	-6.299396e+00
2.318369e+01	-6.337765e+00
2.331760e+01	-6.376185e+00
2.345228e+01	-6.414436e+00
2.358774e+01	-6.452958e+00
2.372398e+01	-6.492235e+00
2.386101e+01	-6.530853e+00
2.399883e+01	-6.569775e+00
2.413745e+01	-6.608635e+00
2.427686e+01	-6.648163e+00
2.441709e+01	-6.687105e+00
2.455812e+01	-6.726676e+00
2.469997e+01	-6.765932e+00
2.484263e+01	-6.805324e+00
2.498612e+01	-6.844823e+00
2.513044e+01	-6.884908e+00
2.527559e+01	-6.924661e+00
2.542158e+01	-6.964730e+00
2.556842e+01	-7.004495e+00
2.571610e+01	-7.044911e+00
2.586463e+01	-7.084961e+00
2.601403e+01	-7.125531e+00
2.616428e+01	-7.165467e+00
2.631541e+01	-7.206408e+00
2.646740e+01	-7.246487e+00
2.662028e+01	-7.287149e+00
2.677404e+01	-7.327794e+00
2.692868e+01	-7.368905e+00
2.708422e+01	-7.409671e+00
2.724066e+01	-7.450874e+00
2.739800e+01	-7.491744e+00
2.755625e+01	-7.533040e+00
2.771541e+01	-7.574738e+00
2.787550e+01	-7.615826e+00
2.803650e+01	-7.656606e+00
2.819844e+01	-7.698593e+00
2.836131e+01	-7.739916e+00
2.852513e+01	-7.781431e+00
2.868989e+01	-7.823229e+00
2.885560e+01	-7.865234e+00
2.902227e+01	-7.907097e+00
2.918990e+01	-7.948842e+00
2.935850e+01	-7.991292e+00
2.952807e+01	-8.033171e+00
2.969863e+01	-8.075572e+00
2.987016e+01	-8.117766e+00
3.004269e+01	-8.160202e+00
3.021622e+01	-8.202353e+00
3.039075e+01	-8.245024e+00
3.056628e+01	-8.287483e+00
3.074283e+01	-8.329942e+00
3.092040e+01	-8.373050e+00
3.109900e+01	-8.415785e+00
3.127862e+01	-8.458468e+00
3.145929e+01	-8.501149e+00
3.164099e+01	-8.544139e+00
3.182375e+01	-8.587369e+00
3.200756e+01	-8.630584e+00
3.219244e+01	-8.673819e+00
3.237838e+01	-8.716516e+00
3.256540e+01	-8.760224e+00
3.275349e+01	-8.803940e+00
3.294268e+01	-8.847369e+00
3.313295e+01	-8.890469e+00
3.332433e+01	-8.934744e+00
3.351681e+01	-8.978360e+00
3.371040e+01	-9.021558e+00
3.390511e+01	-9.065613e+00
3.410094e+01	-9.109473e+00
3.429791e+01	-9.153578e+00
3.449601e+01	-9.197133e+00
3.469526e+01	-9.241345e+00
3.489566e+01	-9.285595e+00
3.509721e+01	-9.329467e+00
3.529993e+01	-9.373994e+00
3.550382e+01	-9.418227e+00
3.570889e+01	-9.462331e+00
3.591515e+01	-9.506571e+00
3.612259e+01	-9.551151e+00
3.633123e+01	-9.596113e+00
3.654108e+01	-9.640711e+00
3.675214e+01	-9.685438e+00
3.696442e+01	-9.729773e+00
3.717792e+01	-9.774567e+00
3.739266e+01	-9.819161e+00
3.760864e+01	-9.864439e+00
3.782587e+01	-9.908739e+00
3.804435e+01	-9.953352e+00
3.826409e+01	-9.998567e+00
3.848510e+01	-1.004358e+01
3.870739e+01	-1.008885e+01
3.893096e+01	-1.013402e+01
3.915583e+01	-1.017966e+01
3.938199e+01	-1.022474e+01
3.960946e+01	-1.026971e+01
3.983824e+01	-1.031500e+01
4.006834e+01	-1.036034e+01
4.029978e+01	-1.040587e+01
4.053255e+01	-1.045173e+01
4.076666e+01	-1.049710e+01
4.100213e+01	-1.054253e+01
4.123896e+01	-1.058840e+01
4.147715e+01	-1.063379e+01
4.171672e+01	-1.067978e+01
4.195767e+01	-1.072579e+01
4.220002e+01	-1.077151e+01
4.244377e+01	-1.081719e+01
4.268892e+01	-1.086334e+01
4.293549e+01	-1.090940e+01
4.318348e+01	-1.095509e+01
4.343291e+01	-1.100144e+01
4.368377e+01	-1.104694e+01
4.393609e+01	-1.109288e+01
4.418986e+01	-1.113928e+01
4.444510e+01	-1.118563e+01
4.470182e+01	-1.123227e+01
4.496001e+01	-1.127798e+01
4.521970e+01	-1.132421e+01
4.548089e+01	-1.137085e+01
4.574358e+01	-1.141768e+01
4.600779e+01	-1.146357e+01
4.627353e+01	-1.151020e+01
4.654081e+01	-1.155637e+01
4.680963e+01	-1.160348e+01
4.708000e+01	-1.164986e+01
4.735193e+01	-1.169679e+01
4.762543e+01	-1.174348e+01
4.790051e+01	-1.179002e+01
4.817719e+01	-1.183612e+01
4.845545e+01	-1.188368e+01
4.873533e+01	-1.192969e+01
4.901682e+01	-1.197685e+01
4.929994e+01	-1.202386e+01
4.958470e+01	-1.207043e+01
4.987110e+01	-1.211713e+01
5.015915e+01	-1.216406e+01
5.044887e+01	-1.221103e+01
5.074026e+01	-1.225823e+01
5.103333e+01	-1.230548e+01
5.132810e+01	-1.235265e+01
5.162457e+01	-1.239992e+01
5.192275e+01	-1.244673e+01
5.222265e+01	-1.249423e+01
5.252429e+01	-1.254188e+01
5.282767e+01	-1.258838e+01
5.313280e+01	-1.263611e+01
5.343969e+01	-1.268399e+01
5.374836e+01	-1.273026e+01
5.405880e+01	-1.277752e+01
5.437105e+01	-1.282558e+01
5.468509e+01	-1.287286e+01
5.500095e+01	-1.291968e+01
5.531863e+01	-1.296830e+01
5.563815e+01	-1.301592e+01
5.595951e+01	-1.306301e+01
5.628273e+01	-1.311031e+01
5.660782e+01	-1.315789e+01
5.693479e+01	-1.320526e+01
5.726364e+01	-1.325252e+01
5.759439e+01	-1.330139e+01
5.792705e+01	-1.334907e+01
5.826164e+01	-1.339612e+01
5.859815e+01	-1.344412e+01
5.893662e+01	-1.349232e+01
5.927703e+01	-1.353995e+01
5.961941e+01	-1.358729e+01
5.996377e+01	-1.363593e+01
6.031012e+01	-1.368263e+01
6.065847e+01	-1.373079e+01
6.100883e+01	-1.377959e+01
6.136121e+01	-1.382613e+01
6.171563e+01	-1.387435e+01
6.207210e+01	-1.392355e+01
6.243063e+01	-1.397088e+01
6.279122e+01	-1.401973e+01
6.315390e+01	-1.406700e+01
6.351868e+01	-1.411544e+01
6.388556e+01	-1.416290e+01
6.425456e+01	-1.421195e+01
6.462569e+01	-1.425958e+01
6.499897e+01	-1.430776e+01
6.537440e+01	-1.435688e+01
6.575200e+01	-1.440385e+01
6.613178e+01	-1.445282e+01
6.651375e+01	-1.450105e+01
6.689793e+01	-1.454865e+01
6.728433e+01	-1.459733e+01
6.767297e+01	-1.464659e+01
6.806384e+01	-1.469418e+01
6.845698e+01	-1.474154e+01
6.885238e+01	-1.479084e+01
6.925007e+01	-1.483951e+01
6.965005e+01	-1.488816e+01
7.005235e+01	-1.493546e+01
7.045697e+01	-1.498403e+01
7.086393e+01	-1.503230e+01
7.127323e+01	-1.508067e+01
7.168490e+01	-1.512932e+01
7.209895e+01	-1.517856e+01
7.251539e+01	-1.522673e+01
7.293424e+01	-1.527455e+01
7.335551e+01	-1.532357e+01
7.377920e+01	-1.537198e+01
7.420535e+01	-1.541997e+01
7.463396e+01	-1.547002e+01
7.506504e+01	-1.551814e+01
7.549861e+01	-1.556610e+01
7.593469e+01	-1.561482e+01
7.637328e+01	-1.566365e+01
7.681441e+01	-1.571211e+01
7.725809e+01	-1.576144e+01
7.770433e+01	-1.580980e+01
7.815315e+01	-1.585846e+01
7.860456e+01	-1.590647e+01
7.905857e+01	-1.595565e+01
7.951521e+01	-1.600564e+01
7.997449e+01	-1.605491e+01
8.043642e+01	-1.610319e+01
8.090102e+01	-1.615175e+01
8.136830e+01	-1.620085e+01
8.183828e+01	-1.624877e+01
8.231097e+01	-1.629745e+01
8.278640e+01	-1.634631e+01
8.326457e+01	-1.639517e+01
8.374550e+01	-1.644383e+01
8.422921e+01	-1.649278e+01
8.471572e+01	-1.654315e+01
8.520503e+01	-1.659196e+01
8.569717e+01	-1.663996e+01
8.619215e+01	-1.668799e+01
8.669000e+01	-1.673979e+01
8.719071e+01	-1.678654e+01
8.769432e+01	-1.683548e+01
8.820084e+01	-1.688515e+01
8.871029e+01	-1.693385e+01
8.922267e+01	-1.698241e+01
8.973802e+01	-1.703211e+01
9.025634e+01	-1.708023e+01
9.077766e+01	-1.712981e+01
9.130199e+01	-1.717996e+01
9.182935e+01	-1.722802e+01
9.235975e+01	-1.727688e+01
9.289321e+01	-1.732596e+01
9.342976e+01	-1.737449e+01
9.396941e+01	-1.742461e+01
9.451217e+01	-1.747404e+01
9.505807e+01	-1.752334e+01
9.560712e+01	-1.757100e+01
9.615934e+01	-1.762209e+01
9.671476e+01	-1.767021e+01
9.727338e+01	-1.772011e+01
9.783522e+01	-1.776858e+01
9.840032e+01	-1.781770e+01
9.896867e+01	-1.786675e+01
9.954031e+01	-1.791651e+01
1.001153e+02	-1.796430e+01
1.006935e+02	-1.801466e+01
1.012751e+02	-1.806337e+01
1.018601e+02	-1.811506e+01
1.024484e+02	-1.816312e+01
1.030402e+02	-1.821127e+01
1.036353e+02	-1.826199e+01
1.042339e+02	-1.831100e+01
1.048360e+02	-1.836009e+01
1.054415e+02	-1.840815e+01
1.060505e+02	-1.845909e+01
1.066631e+02	-1.850824e+01
1.072791e+02	-1.855658e+01
1.078988e+02	-1.860669e+01
1.085220e+02	-1.865641e+01
1.091488e+02	-1.870572e+01
1.097793e+02	-1.875394e+01
1.104133e+02	-1.880368e+01
1.110511e+02	-1.885250e+01
1.116925e+02	-1.890251e+01
1.123376e+02	-1.895289e+01
1.129865e+02	-1.900112e+01
1.136391e+02	-1.905034e+01
1.142955e+02	-1.910076e+01
1.149556e+02	-1.914847e+01
1.156196e+02	-1.919991e+01
1.162874e+02	-1.924868e+01
1.169591e+02	-1.929800e+01
1.176347e+02	-1.934842e+01
1.183141e+02	-1.939782e+01
1.189975e+02	-1.944853e+01
1.196848e+02	-1.949623e+01
1.203761e+02	-1.954580e+01
1.210714e+02	-1.959487e+01
1.217707e+02	-1.964599e+01
1.224740e+02	-1.969321e+01
1.231814e+02	-1.974473e+01
1.238929e+02	-1.979373e+01
1.246085e+02	-1.984173e+01
1.253283e+02	-1.989045e+01
1.260522e+02	-1.994119e+01
1.267802e+02	-1.999169e+01
1.275125e+02	-2.004165e+01
1.282490e+02	-2.008999e+01
1.289898e+02	-2.013990e+01
1.297348e+02	-2.019019e+01
1.304842e+02	-2.023904e+01
1.312378e+02	-2.028869e+01
1.319959e+02	-2.033755e+01
1.327583e+02	-2.038687e+01
1.335251e+02	-2.043587e+01
1.342963e+02	-2.048736e+01
1.350720e+02	-2.053706e+01
1.358522e+02	-2.058504e+01
1.366368e+02	-2.063600e+01
1.374260e+02	-2.068668e+01
1.382198e+02	-2.073444e+01
1.390182e+02	-2.078400e+01
1.398211e+02	-2.083476e+01
1.406287e+02	-2.088319e+01
1.414410e+02	-2.093493e+01
1.422579e+02	-2.098203e+01
1.430796e+02	-2.103150e+01
1.439060e+02	-2.108209e+01
1.447372e+02	-2.113157e+01
1.455732e+02	-2.118131e+01
1.464141e+02	-2.123032e+01
1.472597e+02	-2.128277e+01
1.481103e+02	-2.133132e+01
1.489658e+02	-2.138075e+01
1.498262e+02	-2.142812e+01
1.506916e+02	-2.147936e+01
1.515620e+02	-2.152789e+01
1.524374e+02	-2.157872e+01
1.533179e+02	-2.163006e+01
1.542034e+02	-2.167849e+01
1.550941e+02	-2.172912e+01
1.559899e+02	-2.177833e+01
1.568909e+02	-2.182624e+01
1.577971e+02	-2.187688e+01
1.587085e+02	-2.192780e+01
1.596252e+02	-2.197601e+01
1.605472e+02	-2.202828e+01
1.614745e+02	-2.207537e+01
1.624072e+02	-2.212466e+01
1.633453e+02	-2.217682e+01
1.642887e+02	-2.222812e+01
1.652377e+02	-2.227463e+01
1.661921e+02	-2.232528e+01
1.671520e+02	-2.237481e+01
1.681175e+02	-2.242398e+01
1.690885e+02	-2.247380e+01
1.700651e+02	-2.252432e+01
1.710474e+02	-2.257366e+01
1.720354e+02	-2.262328e+01
1.730291e+02	-2.267295e+01
1.740285e+02	-2.272277e+01
1.750337e+02	-2.277099e+01
1.760446e+02	-2.282093e+01
1.770615e+02	-2.287422e+01
1.780842e+02	-2.292201e+01
1.791128e+02	-2.297086e+01
1.801473e+02	-2.302275e+01
1.811878e+02	-2.307294e+01
1.822344e+02	-2.312055e+01
1.832870e+02	-2.316930e+01
1.843456e+02	-2.322069e+01
1.854104e+02	-2.327244e+01
1.864813e+02	-2.331796e+01
1.875584e+02	-2.337053e+01
1.886418e+02	-2.342030e+01
1.897313e+02	-2.347113e+01
1.908272e+02	-2.351836e+01
1.919294e+02	-2.357038e+01
1.930380e+02	-2.361983e+01
1.941530e+02	-2.366790e+01
1.952744e+02	-2.371947e+01
1.964023e+02	-2.376722e+01
1.975367e+02	-2.381960e+01
1.986777e+02	-2.386976e+01
1.998252e+02	-2.391724e+01
2.009794e+02	-2.396915e+01
2.021403e+02	-2.401847e+01
2.033078e+02	-2.406758e+01
2.044821e+02	-2.411861e+01
2.056632e+02	-2.416613e+01
2.068511e+02	-2.421657e+01
2.080459e+02	-2.426817e+01
2.092475e+02	-2.431536e+01
2.104561e+02	-2.437023e+01
2.116717e+02	-2.441543e+01
2.128943e+02	-2.446866e+01
2.141240e+02	-2.451581e+01
2.153608e+02	-2.456842e+01
2.166047e+02	-2.461687e+01
2.178558e+02	-2.466635e+01
2.191141e+02	-2.471736e+01
2.203797e+02	-2.476724e+01
2.216526e+02	-2.481503e+01
2.229329e+02	-2.486642e+01
2.242205e+02	-2.491640e+01
2.255156e+02	-2.496547e+01
2.268182e+02	-2.501482e+01
2.281283e+02	-2.506489e+01
2.294459e+02	-2.511556e+01
2.307712e+02	-2.516502e+01
2.321041e+02	-2.521787e+01
2.334447e+02	-2.526555e+01
2.347931e+02	-2.531814e+01
2.361493e+02	-2.536405e+01
2.375133e+02	-2.541709e+01
2.388851e+02	-2.546460e+01
2.402649e+02	-2.551726e+01
2.416527e+02	-2.556336e+01
2.430484e+02	-2.561446e+01
2.444523e+02	-2.566644e+01
2.458642e+02	-2.571484e+01
2.472843e+02	-2.576550e+01
2.487126e+02	-2.581403e+01
2.501492e+02	-2.586778e+01
2.515940e+02	-2.591391e+01
2.530472e+02	-2.596558e+01
2.545088e+02	-2.601377e+01
2.559789e+02	-2.606579e+01
2.574574e+02	-2.611415e+01
2.589444e+02	-2.616501e+01
2.604401e+02	-2.621641e+01
2.619444e+02	-2.626713e+01
2.634574e+02	-2.631378e+01
2.649791e+02	-2.636379e+01
2.665096e+02	-2.641273e+01
2.680489e+02	-2.646415e+01
2.695972e+02	-2.651520e+01
2.711544e+02	-2.656131e+01
2.727205e+02	-2.661583e+01
2.742958e+02	-2.666358e+01
2.758801e+02	-2.671398e+01
2.774736e+02	-2.676724e+01
2.790762e+02	-2.681596e+01
2.806882e+02	-2.686451e+01
2.823094e+02	-2.691180e+01
2.839400e+02	-2.696154e+01
2.855800e+02	-2.701672e+01
2.872295e+02	-2.706621e+01
2.888886e+02	-2.711549e+01
2.905572e+02	-2.716785e+01
2.922354e+02	-2.721301e+01
2.939234e+02	-2.726267e+01
2.956211e+02	-2.731602e+01
2.973286e+02	-2.736264e+01
2.990459e+02	-2.741697e+01
3.007732e+02	-2.746318e+01
3.025104e+02	-2.751305e+01
3.042577e+02	-2.756207e+01
3.060151e+02	-2.761845e+01
3.077826e+02	-2.766707e+01
3.095604e+02	-2.771627e+01
3.113484e+02	-2.776432e+01
3.131467e+02	-2.781228e+01
3.149554e+02	-2.786402e+01
3.167746e+02	-2.791775e+01
3.186043e+02	-2.796193e+01
3.204445e+02	-2.801230e+01
3.222954e+02	-2.806234e+01
3.241570e+02	-2.811840e+01
3.260293e+02	-2.816514e+01
3.279124e+02	-2.821182e+01
3.298064e+02	-2.826274e+01
3.317114e+02	-2.831177e+01
3.336273e+02	-2.836351e+01
3.355544e+02	-2.841286e+01
3.374925e+02	-2.846330e+01
3.394418e+02	-2.851004e+01
3.414024e+02	-2.856396e+01
3.433744e+02	-2.861463e+01
3.453577e+02	-2.866501e+01
3.473525e+02	-2.871439e+01
3.493588e+02	-2.876259e+01
3.513766e+02	-2.881570e+01
3.534062e+02	-2.886825e+01
3.554474e+02	-2.891196e+01
3.575005e+02	-2.896441e+01
3.595654e+02	-2.901934e+01
3.616422e+02	-2.906312e+01
3.637311e+02	-2.911542e+01
3.658320e+02	-2.916477e+01
3.679450e+02	-2.921122e+01
3.700702e+02	-2.926620e+01
3.722077e+02	-2.931568e+01
3.743576e+02	-2.936251e+01
3.765199e+02	-2.941604e+01
3.786946e+02	-2.946377e+01
3.808820e+02	-2.951894e+01
3.830819e+02	-2.956240e+01
3.852946e+02	-2.961532e+01
3.875200e+02	-2.966458e+01
3.897583e+02	-2.971199e+01
3.920096e+02	-2.976631e+01
3.942738e+02	-2.982082e+01
3.965511e+02	-2.986295e+01
3.988416e+02	-2.991933e+01
4.011452e+02	-2.996773e+01
4.034622e+02	-3.001615e+01
4.057926e+02	-3.006535e+01
4.081365e+02	-3.011439e+01
4.104938e+02	-3.017238e+01
4.128648e+02	-3.021971e+01
4.152495e+02	-3.026873e+01
4.176480e+02	-3.031984e+01
4.200603e+02	-3.036118e+01
4.224866e+02	-3.041870e+01
4.249268e+02	-3.046684e+01
4.273812e+02	-3.051839e+01
4.298497e+02	-3.056904e+01
4.323325e+02	-3.061700e+01
4.348297e+02	-3.067167e+01
4.373412e+02	-3.071951e+01
4.398673e+02	-3.076655e+01
4.424079e+02	-3.081699e+01
4.449633e+02	-3.086941e+01
4.475334e+02	-3.092057e+01
4.501183e+02	-3.097158e+01
4.527182e+02	-3.100980e+01
4.553330e+02	-3.107093e+01
4.579630e+02	-3.112180e+01
4.606082e+02	-3.116927e+01
4.632687e+02	-3.122467e+01
4.659445e+02	-3.127058e+01
4.686358e+02	-3.131453e+01
4.713426e+02	-3.136589e+01
4.740650e+02	-3.142073e+01
4.768032e+02	-3.147127e+01
4.795572e+02	-3.152116e+01
4.823271e+02	-3.156874e+01
4.851130e+02	-3.162186e+01
4.879150e+02	-3.166989e+01
4.907332e+02	-3.171967e+01
4.935676e+02	-3.177443e+01
4.964185e+02	-3.182053e+01
4.992858e+02	-3.187164e+01
5.021696e+02	-3.191925e+01
5.050701e+02	-3.197131e+01
5.079874e+02	-3.202205e+01
5.109215e+02	-3.207532e+01
5.138726e+02	-3.212372e+01
5.168407e+02	-3.217038e+01
5.198259e+02	-3.222403e+01
5.228284e+02	-3.227174e+01
5.258482e+02	-3.232152e+01
5.288855e+02	-3.237647e+01
5.319403e+02	-3.242654e+01
5.350128e+02	-3.247647e+01
5.381030e+02	-3.252347e+01
5.412111e+02	-3.257520e+01
5.443371e+02	-3.262186e+01
5.474812e+02	-3.267097e+01
5.506434e+02	-3.272685e+01
5.538239e+02	-3.277463e+01
5.570228e+02	-3.282707e+01
5.602401e+02	-3.287408e+01
5.634760e+02	-3.292520e+01
5.667306e+02	-3.297913e+01
5.700040e+02	-3.303117e+01
5.732964e+02	-3.307413e+01
5.766077e+02	-3.312782e+01
5.799382e+02	-3.319003e+01
5.832879e+02	-3.323703e+01
5.866569e+02	-3.328073e+01
5.900454e+02	-3.332853e+01
5.934535e+02	-3.338248e+01
5.968813e+02	-3.343064e+01
6.003288e+02	-3.348333e+01
6.037963e+02	-3.352938e+01
6.072838e+02	-3.359048e+01
6.107914e+02	-3.362211e+01
6.143194e+02	-3.368505e+01
6.178676e+02	-3.373822e+01
6.214364e+02	-3.378118e+01
6.250258e+02	-3.382882e+01
6.286359e+02	-3.388349e+01
6.322669e+02	-3.392096e+01
6.359189e+02	-3.398458e+01
6.395919e+02	-3.404790e+01
6.432862e+02	-3.408755e+01
6.470017e+02	-3.412934e+01
6.507388e+02	-3.419036e+01
6.544974e+02	-3.423135e+01
6.582778e+02	-3.429218e+01
6.620800e+02	-3.433388e+01
6.659041e+02	-3.437995e+01
6.697504e+02	-3.444038e+01
6.736188e+02	-3.448341e+01
6.775096e+02	-3.453446e+01
6.814229e+02	-3.458251e+01
6.853587e+02	-3.464193e+01
6.893173e+02	-3.468934e+01
6.932988e+02	-3.473634e+01
6.973033e+02	-3.478345e+01
7.013309e+02	-3.483692e+01
