Frequency(Hz)	Magnitude(dB)
1.000000e+01	-1.766173e-05
1.005776e+01	-1.786635e-05
1.011585e+01	-1.807333e-05
1.017428e+01	-1.828272e-05
1.023305e+01	-1.849453e-05
1.029215e+01	-1.870879e-05
1.035160e+01	-1.892554e-05
1.041139e+01	-1.914480e-05
1.047153e+01	-1.936659e-05
1.053201e+01	-1.959096e-05
1.059284e+01	-1.981793e-05
1.065403e+01	-2.004752e-05
1.071556e+01	-2.027978e-05
1.077746e+01	-2.051472e-05
1.083971e+01	-2.075239e-05
1.090232e+01	-2.099281e-05
1.096529e+01	-2.123602e-05
1.102862e+01	-2.148205e-05
1.109232e+01	-2.173092e-05
1.115639e+01	-2.198268e-05
1.122083e+01	-2.223735e-05
1.128564e+01	-2.249498e-05
1.135083e+01	-2.275559e-05
1.141639e+01	-2.301922e-05
1.148233e+01	-2.328590e-05
1.154865e+01	-2.355567e-05
1.161536e+01	-2.382857e-05
1.168245e+01	-2.410463e-05
1.174992e+01	-2.438389e-05
1.181779e+01	-2.466638e-05
1.188605e+01	-2.495215e-05
1.195470e+01	-2.524123e-05
1.202375e+01	-2.553365e-05
1.209320e+01	-2.582947e-05
1.216305e+01	-2.612871e-05
1.223330e+01	-2.643141e-05
1.230396e+01	-2.673763e-05
1.237503e+01	-2.704739e-05
1.244651e+01	-2.736074e-05
1.251840e+01	-2.767772e-05
1.259070e+01	-2.799838e-05
1.266343e+01	-2.832274e-05
1.273657e+01	-2.865087e-05
1.281014e+01	-2.898280e-05
1.288413e+01	-2.931857e-05
1.295855e+01	-2.965823e-05
1.303339e+01	-3.000183e-05
1.310867e+01	-3.034941e-05
1.318439e+01	-3.070101e-05
1.326054e+01	-3.105669e-05
1.333713e+01	-3.141649e-05
1.341417e+01	-3.178046e-05
1.349165e+01	-3.214864e-05
1.356958e+01	-3.252109e-05
1.364795e+01	-3.289786e-05
1.372678e+01	-3.327899e-05
1.380607e+01	-3.366453e-05
1.388581e+01	-3.405454e-05
1.396602e+01	-3.444907e-05
1.404668e+01	-3.484817e-05
1.412782e+01	-3.525190e-05
1.420942e+01	-3.566030e-05
1.429149e+01	-3.607343e-05
1.437404e+01	-3.649135e-05
1.445706e+01	-3.691411e-05
1.454057e+01	-3.734177e-05
1.462455e+01	-3.777438e-05
1.470902e+01	-3.821201e-05
1.479398e+01	-3.865470e-05
1.487943e+01	-3.910253e-05
1.496537e+01	-3.955554e-05
1.505181e+01	-4.001380e-05
1.513875e+01	-4.047737e-05
1.522619e+01	-4.094631e-05
1.531414e+01	-4.142068e-05
1.540259e+01	-4.190055e-05
1.549156e+01	-4.238597e-05
1.558103e+01	-4.287702e-05
1.567103e+01	-4.337376e-05
1.576155e+01	-4.387626e-05
1.585258e+01	-4.438458e-05
1.594415e+01	-4.489878e-05
1.603624e+01	-4.541894e-05
1.612886e+01	-4.594513e-05
1.622202e+01	-4.647742e-05
1.631572e+01	-4.701587e-05
1.640996e+01	-4.756055e-05
1.650474e+01	-4.811155e-05
1.660008e+01	-4.866894e-05
1.669596e+01	-4.923278e-05
1.679239e+01	-4.980315e-05
1.688938e+01	-5.038013e-05
1.698694e+01	-5.096379e-05
1.708505e+01	-5.155422e-05
1.718373e+01	-5.215149e-05
1.728299e+01	-5.275567e-05
1.738281e+01	-5.336686e-05
1.748322e+01	-5.398512e-05
1.758420e+01	-5.461055e-05
1.768576e+01	-5.524323e-05
1.778792e+01	-5.588323e-05
1.789066e+01	-5.653065e-05
1.799399e+01	-5.718557e-05
1.809793e+01	-5.784808e-05
1.820246e+01	-5.851826e-05
1.830760e+01	-5.919620e-05
1.841334e+01	-5.988200e-05
1.851969e+01	-6.057575e-05
1.862666e+01	-6.127753e-05
1.873425e+01	-6.198744e-05
1.884246e+01	-6.270558e-05
1.895129e+01	-6.343204e-05
1.906075e+01	-6.416691e-05
1.917085e+01	-6.491029e-05
1.928158e+01	-6.566229e-05
1.939295e+01	-6.642300e-05
1.950496e+01	-6.719253e-05
1.961762e+01	-6.797096e-05
1.973093e+01	-6.875842e-05
1.984490e+01	-6.955500e-05
1.995952e+01	-7.036081e-05
2.007480e+01	-7.117595e-05
2.019076e+01	-7.200054e-05
2.030738e+01	-7.283468e-05
2.042467e+01	-7.367848e-05
2.054264e+01	-7.453206e-05
2.066130e+01	-7.539552e-05
2.078064e+01	-7.626899e-05
2.090066e+01	-7.715258e-05
2.102139e+01	-7.804641e-05
2.114280e+01	-7.895059e-05
2.126492e+01	-7.986525e-05
2.138775e+01	-8.079050e-05
2.151128e+01	-8.172647e-05
2.163553e+01	-8.267329e-05
2.176050e+01	-8.363107e-05
2.188619e+01	-8.459995e-05
2.201260e+01	-8.558006e-05
2.213974e+01	-8.657151e-05
2.226762e+01	-8.757446e-05
2.239624e+01	-8.858902e-05
2.252560e+01	-8.961534e-05
2.265571e+01	-9.065355e-05
2.278656e+01	-9.170379e-05
2.291818e+01	-9.276619e-05
2.305055e+01	-9.384090e-05
2.318369e+01	-9.492806e-05
2.331760e+01	-9.602782e-05
2.345228e+01	-9.714031e-05
2.358774e+01	-9.826570e-05
2.372398e+01	-9.940412e-05
2.386101e+01	-1.005557e-04
2.399883e+01	-1.017207e-04
2.413745e+01	-1.028991e-04
2.427686e+01	-1.040912e-04
2.441709e+01	-1.052971e-04
2.455812e+01	-1.065170e-04
2.469997e+01	-1.077510e-04
2.484263e+01	-1.089994e-04
2.498612e+01	-1.102621e-04
2.513044e+01	-1.115395e-04
2.527559e+01	-1.128317e-04
2.542158e+01	-1.141389e-04
2.556842e+01	-1.154612e-04
2.571610e+01	-1.167988e-04
2.586463e+01	-1.181520e-04
2.601403e+01	-1.195208e-04
2.616428e+01	-1.209054e-04
2.631541e+01	-1.223061e-04
2.646740e+01	-1.237231e-04
2.662028e+01	-1.251564e-04
2.677404e+01	-1.266064e-04
2.692868e+01	-1.280731e-04
2.708422e+01	-1.295569e-04
2.724066e+01	-1.310578e-04
2.739800e+01	-1.325761e-04
2.755625e+01	-1.341120e-04
2.771541e+01	-1.356657e-04
2.787550e+01	-1.372374e-04
2.803650e+01	-1.388273e-04
2.819844e+01	-1.404356e-04
2.836131e+01	-1.420626e-04
2.852513e+01	-1.437084e-04
2.868989e+01	-1.453733e-04
2.885560e+01	-1.470575e-04
2.902227e+01	-1.487611e-04
2.918990e+01	-1.504845e-04
2.935850e+01	-1.522279e-04
2.952807e+01	-1.539915e-04
2.969863e+01	-1.557755e-04
2.987016e+01	-1.575802e-04
3.004269e+01	-1.594057e-04
3.021622e+01	-1.612525e-04
3.039075e+01	-1.631206e-04
3.056628e+01	-1.650103e-04
3.074283e+01	-1.669220e-04
3.092040e+01	-1.688558e-04
3.109900e+01	-1.708120e-04
3.127862e+01	-1.727909e-04
3.145929e+01	-1.747926e-04
3.164099e+01	-1.768176e-04
3.182375e+01	-1.788661e-04
3.200756e+01	-1.809382e-04
3.219244e+01	-1.830344e-04
3.237838e+01	-1.851549e-04
3.256540e+01	-1.872999e-04
3.275349e+01	-1.894698e-04
3.294268e+01	-1.916648e-04
3.313295e+01	-1.938852e-04
3.332433e+01	-1.961314e-04
3.351681e+01	-1.984036e-04
3.371040e+01	-2.007021e-04
3.390511e+01	-2.030272e-04
3.410094e+01	-2.053793e-04
3.429791e+01	-2.077586e-04
3.449601e+01	-2.101655e-04
3.469526e+01	-2.126003e-04
3.489566e+01	-2.150632e-04
3.509721e+01	-2.175547e-04
3.529993e+01	-2.200751e-04
3.550382e+01	-2.226247e-04
3.570889e+01	-2.252038e-04
3.591515e+01	-2.278127e-04
3.612259e+01	-2.304520e-04
3.633123e+01	-2.331217e-04
3.654108e+01	-2.358224e-04
3.675214e+01	-2.385544e-04
3.696442e+01	-2.413181e-04
3.717792e+01	-2.441137e-04
3.739266e+01	-2.469418e-04
3.760864e+01	-2.498026e-04
3.782587e+01	-2.526965e-04
3.804435e+01	-2.556240e-04
3.826409e+01	-2.585854e-04
3.848510e+01	-2.615811e-04
3.870739e+01	-2.646115e-04
3.893096e+01	-2.676770e-04
3.915583e+01	-2.707780e-04
3.938199e+01	-2.739149e-04
3.960946e+01	-2.770882e-04
3.983824e+01	-2.802983e-04
4.006834e+01	-2.835455e-04
4.029978e+01	-2.868303e-04
4.053255e+01	-2.901532e-04
4.076666e+01	-2.935146e-04
4.100213e+01	-2.969150e-04
4.123896e+01	-3.003547e-04
4.147715e+01	-3.038342e-04
4.171672e+01	-3.073541e-04
4.195767e+01	-3.109148e-04
4.220002e+01	-3.145167e-04
4.244377e+01	-3.181603e-04
4.268892e+01	-3.218462e-04
4.293549e+01	-3.255747e-04
4.318348e+01	-3.293464e-04
4.343291e+01	-3.331618e-04
4.368377e+01	-3.370215e-04
4.393609e+01	-3.409258e-04
4.418986e+01	-3.448754e-04
4.444510e+01	-3.488707e-04
4.470182e+01	-3.529123e-04
4.496001e+01	-3.570007e-04
4.521970e+01	-3.611365e-04
4.548089e+01	-3.653202e-04
4.574358e+01	-3.695523e-04
4.600779e+01	-3.738335e-04
4.627353e+01	-3.781643e-04
4.654081e+01	-3.825452e-04
4.680963e+01	-3.869769e-04
4.708000e+01	-3.914600e-04
4.735193e+01	-3.959949e-04
4.762543e+01	-4.005824e-04
4.790051e+01	-4.052231e-04
4.817719e+01	-4.099175e-04
4.845545e+01	-4.146662e-04
4.873533e+01	-4.194700e-04
4.901682e+01	-4.243295e-04
4.929994e+01	-4.292452e-04
4.958470e+01	-4.342179e-04
4.987110e+01	-4.392482e-04
5.015915e+01	-4.443367e-04
5.044887e+01	-4.494842e-04
5.074026e+01	-4.546913e-04
5.103333e+01	-4.599588e-04
5.132810e+01	-4.652873e-04
5.162457e+01	-4.706774e-04
5.192275e+01	-4.761301e-04
5.222265e+01	-4.816459e-04
5.252429e+01	-4.872256e-04
5.282767e+01	-4.928699e-04
5.313280e+01	-4.985796e-04
5.343969e+01	-5.043554e-04
5.374836e+01	-5.101982e-04
5.405880e+01	-5.161086e-04
5.437105e+01	-5.220875e-04
5.468509e+01	-5.281357e-04
5.500095e+01	-5.342539e-04
5.531863e+01	-5.404430e-04
5.563815e+01	-5.467038e-04
5.595951e+01	-5.530371e-04
5.628273e+01	-5.594438e-04
5.660782e+01	-5.659247e-04
5.693479e+01	-5.724806e-04
5.726364e+01	-5.791125e-04
5.759439e+01	-5.858212e-04
5.792705e+01	-5.926077e-04
5.826164e+01	-5.994727e-04
5.859815e+01	-6.064173e-04
5.893662e+01	-6.134423e-04
5.927703e+01	-6.205487e-04
5.961941e+01	-6.277374e-04
5.996377e+01	-6.350094e-04
6.031012e+01	-6.423656e-04
6.065847e+01	-6.498070e-04
6.100883e+01	-6.573347e-04
6.136121e+01	-6.649495e-04
6.171563e+01	-6.726525e-04
6.207210e+01	-6.804448e-04
6.243063e+01	-6.883273e-04
6.279122e+01	-6.963011e-04
6.315390e+01	-7.043673e-04
6.351868e+01	-7.125269e-04
6.388556e+01	-7.207810e-04
6.425456e+01	-7.291308e-04
6.462569e+01	-7.375772e-04
6.499897e+01	-7.461216e-04
6.537440e+01	-7.547648e-04
6.575200e+01	-7.635082e-04
6.613178e+01	-7.723529e-04
6.651375e+01	-7.813000e-04
6.689793e+01	-7.903507e-04
6.728433e+01	-7.995063e-04
6.767297e+01	-8.087680e-04
6.806384e+01	-8.181369e-04
6.845698e+01	-8.276143e-04
6.885238e+01	-8.372015e-04
6.925007e+01	-8.468998e-04
6.965005e+01	-8.567104e-04
7.005235e+01	-8.666346e-04
7.045697e+01	-8.766738e-04
7.086393e+01	-8.868293e-04
7.127323e+01	-8.971024e-04
7.168490e+01	-9.074945e-04
7.209895e+01	-9.180069e-04
7.251539e+01	-9.286412e-04
7.293424e+01	-9.393986e-04
7.335551e+01	-9.502806e-04
7.377920e+01	-9.612886e-04
7.420535e+01	-9.724241e-04
7.463396e+01	-9.836887e-04
7.506504e+01	-9.950837e-04
7.549861e+01	-1.006611e-03
7.593469e+01	-1.018271e-03
7.637328e+01	-1.030067e-03
7.681441e+01	-1.041999e-03
7.725809e+01	-1.054069e-03
7.770433e+01	-1.066279e-03
7.815315e+01	-1.078631e-03
7.860456e+01	-1.091126e-03
7.905857e+01	-1.103765e-03
7.951521e+01	-1.116551e-03
7.997449e+01	-1.129485e-03
8.043642e+01	-1.142568e-03
8.090102e+01	-1.155804e-03
8.136830e+01	-1.169192e-03
8.183828e+01	-1.182736e-03
8.231097e+01	-1.196436e-03
8.278640e+01	-1.210295e-03
8.326457e+01	-1.224315e-03
8.374550e+01	-1.238497e-03
8.422921e+01	-1.252843e-03
8.471572e+01	-1.267355e-03
8.520503e+01	-1.282036e-03
8.569717e+01	-1.296886e-03
8.619215e+01	-1.311909e-03
8.669000e+01	-1.327105e-03
8.719071e+01	-1.342478e-03
8.769432e+01	-1.358028e-03
8.820084e+01	-1.373759e-03
8.871029e+01	-1.389672e-03
8.922267e+01	-1.405769e-03
8.973802e+01	-1.422053e-03
9.025634e+01	-1.438525e-03
9.077766e+01	-1.455188e-03
9.130199e+01	-1.472044e-03
9.182935e+01	-1.489095e-03
9.235975e+01	-1.506343e-03
9.289321e+01	-1.523792e-03
9.342976e+01	-1.541442e-03
9.396941e+01	-1.559297e-03
9.451217e+01	-1.577358e-03
9.505807e+01	-1.595629e-03
9.560712e+01	-1.614111e-03
9.615934e+01	-1.632808e-03
9.671476e+01	-1.651721e-03
9.727338e+01	-1.670853e-03
9.783522e+01	-1.690206e-03
9.840032e+01	-1.709784e-03
9.896867e+01	-1.729588e-03
9.954031e+01	-1.749622e-03
1.001153e+02	-1.769888e-03
1.006935e+02	-1.790388e-03
1.012751e+02	-1.811126e-03
1.018601e+02	-1.832104e-03
1.024484e+02	-1.853325e-03
1.030402e+02	-1.874791e-03
1.036353e+02	-1.896506e-03
1.042339e+02	-1.918473e-03
1.048360e+02	-1.940694e-03
1.054415e+02	-1.963173e-03
1.060505e+02	-1.985911e-03
1.066631e+02	-2.008913e-03
1.072791e+02	-2.032182e-03
1.078988e+02	-2.055719e-03
1.085220e+02	-2.079530e-03
1.091488e+02	-2.103616e-03
1.097793e+02	-2.127981e-03
1.104133e+02	-2.152628e-03
1.110511e+02	-2.177560e-03
1.116925e+02	-2.202782e-03
1.123376e+02	-2.228295e-03
1.129865e+02	-2.254104e-03
1.136391e+02	-2.280211e-03
1.142955e+02	-2.306621e-03
1.149556e+02	-2.333337e-03
1.156196e+02	-2.360362e-03
1.162874e+02	-2.387699e-03
1.169591e+02	-2.415354e-03
1.176347e+02	-2.443329e-03
1.183141e+02	-2.471627e-03
1.189975e+02	-2.500253e-03
1.196848e+02	-2.529211e-03
1.203761e+02	-2.558504e-03
1.210714e+02	-2.588136e-03
1.217707e+02	-2.618111e-03
1.224740e+02	-2.648433e-03
1.231814e+02	-2.679107e-03
1.238929e+02	-2.710135e-03
1.246085e+02	-2.741523e-03
1.253283e+02	-2.773274e-03
1.260522e+02	-2.805393e-03
1.267802e+02	-2.837883e-03
1.275125e+02	-2.870750e-03
1.282490e+02	-2.903997e-03
1.289898e+02	-2.937630e-03
1.297348e+02	-2.971651e-03
1.304842e+02	-3.006067e-03
1.312378e+02	-3.040880e-03
1.319959e+02	-3.076097e-03
1.327583e+02	-3.111722e-03
1.335251e+02	-3.147759e-03
1.342963e+02	-3.184213e-03
1.350720e+02	-3.221089e-03
1.358522e+02	-3.258393e-03
1.366368e+02	-3.296128e-03
1.374260e+02	-3.334299e-03
1.382198e+02	-3.372913e-03
1.390182e+02	-3.411974e-03
1.398211e+02	-3.451487e-03
1.406287e+02	-3.491457e-03
1.414410e+02	-3.531890e-03
1.422579e+02	-3.572791e-03
1.430796e+02	-3.614165e-03
1.439060e+02	-3.656019e-03
1.447372e+02	-3.698357e-03
1.455732e+02	-3.741185e-03
1.464141e+02	-3.784508e-03
1.472597e+02	-3.828333e-03
1.481103e+02	-3.872666e-03
1.489658e+02	-3.917511e-03
1.498262e+02	-3.962876e-03
1.506916e+02	-4.008766e-03
1.515620e+02	-4.055187e-03
1.524374e+02	-4.102145e-03
1.533179e+02	-4.149647e-03
1.542034e+02	-4.197698e-03
1.550941e+02	-4.246306e-03
1.559899e+02	-4.295476e-03
1.568909e+02	-4.345215e-03
1.577971e+02	-4.395530e-03
1.587085e+02	-4.446427e-03
1.596252e+02	-4.497914e-03
1.605472e+02	-4.549996e-03
1.614745e+02	-4.602681e-03
1.624072e+02	-4.655975e-03
1.633453e+02	-4.709887e-03
1.642887e+02	-4.764422e-03
1.652377e+02	-4.819588e-03
1.661921e+02	-4.875393e-03
1.671520e+02	-4.931843e-03
1.681175e+02	-4.988947e-03
1.690885e+02	-5.046712e-03
1.700651e+02	-5.105145e-03
1.710474e+02	-5.164254e-03
1.720354e+02	-5.224047e-03
1.730291e+02	-5.284532e-03
1.740285e+02	-5.345717e-03
1.750337e+02	-5.407610e-03
1.760446e+02	-5.470219e-03
1.770615e+02	-5.533553e-03
1.780842e+02	-5.597619e-03
1.791128e+02	-5.662426e-03
1.801473e+02	-5.727984e-03
1.811878e+02	-5.794299e-03
1.822344e+02	-5.861382e-03
1.832870e+02	-5.929242e-03
1.843456e+02	-5.997886e-03
1.854104e+02	-6.067324e-03
1.864813e+02	-6.137566e-03
1.875584e+02	-6.208620e-03
1.886418e+02	-6.280497e-03
1.897313e+02	-6.353204e-03
1.908272e+02	-6.426753e-03
1.919294e+02	-6.501153e-03
1.930380e+02	-6.576413e-03
1.941530e+02	-6.652544e-03
1.952744e+02	-6.729556e-03
1.964023e+02	-6.807458e-03
1.975367e+02	-6.886262e-03
1.986777e+02	-6.965977e-03
1.998252e+02	-7.046614e-03
2.009794e+02	-7.128183e-03
2.021403e+02	-7.210696e-03
2.033078e+02	-7.294164e-03
2.044821e+02	-7.378597e-03
2.056632e+02	-7.464006e-03
2.068511e+02	-7.550403e-03
2.080459e+02	-7.637799e-03
2.092475e+02	-7.726206e-03
2.104561e+02	-7.815635e-03
2.116717e+02	-7.906099e-03
2.128943e+02	-7.997608e-03
2.141240e+02	-8.090176e-03
2.153608e+02	-8.183814e-03
2.166047e+02	-8.278535e-03
2.178558e+02	-8.374352e-03
2.191141e+02	-8.471276e-03
2.203797e+02	-8.569320e-03
2.216526e+02	-8.668499e-03
2.229329e+02	-8.768824e-03
2.242205e+02	-8.870309e-03
2.255156e+02	-8.972967e-03
2.268182e+02	-9.076812e-03
2.281283e+02	-9.181858e-03
2.294459e+02	-9.288118e-03
2.307712e+02	-9.395607e-03
2.321041e+02	-9.504338e-03
2.334447e+02	-9.614326e-03
2.347931e+02	-9.725585e-03
2.361493e+02	-9.838130e-03
2.375133e+02	-9.951977e-03
2.388851e+02	-1.006714e-02
2.402649e+02	-1.018363e-02
2.416527e+02	-1.030147e-02
2.430484e+02	-1.042067e-02
2.444523e+02	-1.054125e-02
2.458642e+02	-1.066323e-02
2.472843e+02	-1.078661e-02
2.487126e+02	-1.091142e-02
2.501492e+02	-1.103767e-02
2.515940e+02	-1.116538e-02
2.530472e+02	-1.129456e-02
2.545088e+02	-1.142524e-02
2.559789e+02	-1.155743e-02
2.574574e+02	-1.169114e-02
2.589444e+02	-1.182640e-02
2.604401e+02	-1.196322e-02
2.619444e+02	-1.210163e-02
2.634574e+02	-1.224163e-02
2.649791e+02	-1.238325e-02
2.665096e+02	-1.252650e-02
2.680489e+02	-1.267141e-02
2.695972e+02	-1.281800e-02
2.711544e+02	-1.296628e-02
2.727205e+02	-1.311627e-02
2.742958e+02	-1.326799e-02
2.758801e+02	-1.342146e-02
2.774736e+02	-1.357671e-02
2.790762e+02	-1.373375e-02
2.806882e+02	-1.389260e-02
2.823094e+02	-1.405329e-02
2.839400e+02	-1.421584e-02
2.855800e+02	-1.438026e-02
2.872295e+02	-1.454657e-02
2.888886e+02	-1.471481e-02
2.905572e+02	-1.488500e-02
2.922354e+02	-1.505714e-02
2.939234e+02	-1.523128e-02
2.956211e+02	-1.540742e-02
2.973286e+02	-1.558560e-02
2.990459e+02	-1.576583e-02
3.007732e+02	-1.594815e-02
3.025104e+02	-1.613257e-02
3.042577e+02	-1.631911e-02
3.060151e+02	-1.650781e-02
3.077826e+02	-1.669869e-02
3.095604e+02	-1.689177e-02
3.113484e+02	-1.708708e-02
3.131467e+02	-1.728465e-02
3.149554e+02	-1.748449e-02
3.167746e+02	-1.768664e-02
3.186043e+02	-1.789112e-02
3.204445e+02	-1.809796e-02
3.222954e+02	-1.830718e-02
3.241570e+02	-1.851882e-02
3.260293e+02	-1.873290e-02
3.279124e+02	-1.894945e-02
3.298064e+02	-1.916850e-02
3.317114e+02	-1.939008e-02
3.336273e+02	-1.961421e-02
3.355544e+02	-1.984092e-02
3.374925e+02	-2.007025e-02
3.394418e+02	-2.030223e-02
3.414024e+02	-2.053687e-02
3.433744e+02	-2.077423e-02
3.453577e+02	-2.101432e-02
3.473525e+02	-2.125718e-02
3.493588e+02	-2.150284e-02
3.513766e+02	-2.175133e-02
3.534062e+02	-2.200268e-02
3.554474e+02	-2.225693e-02
3.575005e+02	-2.251411e-02
3.595654e+02	-2.277426e-02
3.616422e+02	-2.303740e-02
3.637311e+02	-2.330358e-02
3.658320e+02	-2.357282e-02
3.679450e+02	-2.384517e-02
3.700702e+02	-2.412065e-02
3.722077e+02	-2.439931e-02
3.743576e+02	-2.468117e-02
3.765199e+02	-2.496629e-02
3.786946e+02	-2.525468e-02
3.808820e+02	-2.554640e-02
3.830819e+02	-2.584148e-02
3.852946e+02	-2.613996e-02
3.875200e+02	-2.644187e-02
3.897583e+02	-2.674726e-02
3.920096e+02	-2.705617e-02
3.942738e+02	-2.736863e-02
3.965511e+02	-2.768469e-02
3.988416e+02	-2.800438e-02
4.011452e+02	-2.832776e-02
4.034622e+02	-2.865486e-02
4.057926e+02	-2.898572e-02
4.081365e+02	-2.932039e-02
4.104938e+02	-2.965891e-02
4.128648e+02	-3.000133e-02
4.152495e+02	-3.034768e-02
4.176480e+02	-3.069802e-02
4.200603e+02	-3.105239e-02
4.224866e+02	-3.141084e-02
4.249268e+02	-3.177341e-02
4.273812e+02	-3.214014e-02
4.298497e+02	-3.251110e-02
4.323325e+02	-3.288632e-02
4.348297e+02	-3.326585e-02
4.373412e+02	-3.364975e-02
4.398673e+02	-3.403806e-02
4.424079e+02	-3.443083e-02
4.449633e+02	-3.482812e-02
4.475334e+02	-3.522997e-02
4.501183e+02	-3.563644e-02
4.527182e+02	-3.604758e-02
4.553330e+02	-3.646344e-02
4.579630e+02	-3.688408e-02
4.606082e+02	-3.730955e-02
4.632687e+02	-3.773991e-02
4.659445e+02	-3.817521e-02
4.686358e+02	-3.861551e-02
4.713426e+02	-3.906086e-02
4.740650e+02	-3.951133e-02
4.768032e+02	-3.996697e-02
4.795572e+02	-4.042784e-02
4.823271e+02	-4.089399e-02
4.851130e+02	-4.136550e-02
4.879150e+02	-4.184242e-02
4.907332e+02	-4.232480e-02
4.935676e+02	-4.281273e-02
4.964185e+02	-4.330624e-02
4.992858e+02	-4.380542e-02
5.021696e+02	-4.431033e-02
5.050701e+02	-4.482102e-02
5.079874e+02	-4.533757e-02
5.109215e+02	-4.586004e-02
5.138726e+02	-4.638849e-02
5.168407e+02	-4.692301e-02
5.198259e+02	-4.746365e-02
5.228284e+02	-4.801048e-02
5.258482e+02	-4.856358e-02
5.288855e+02	-4.912301e-02
5.319403e+02	-4.968886e-02
5.350128e+02	-5.026118e-02
5.381030e+02	-5.084005e-02
5.412111e+02	-5.142556e-02
5.443371e+02	-5.201776e-02
5.474812e+02	-5.261674e-02
5.506434e+02	-5.322258e-02
5.538239e+02	-5.383535e-02
5.570228e+02	-5.445514e-02
5.602401e+02	-5.508201e-02
5.634760e+02	-5.571605e-02
5.667306e+02	-5.635734e-02
5.700040e+02	-5.700596e-02
5.732964e+02	-5.766200e-02
5.766077e+02	-5.832554e-02
5.799382e+02	-5.899667e-02
5.832879e+02	-5.967546e-02
5.866569e+02	-6.036200e-02
5.900454e+02	-6.105639e-02
5.934535e+02	-6.175871e-02
5.968813e+02	-6.246906e-02
6.003288e+02	-6.318751e-02
6.037963e+02	-6.391416e-02
6.072838e+02	-6.464911e-02
6.107914e+02	-6.539244e-02
6.143194e+02	-6.614426e-02
6.178676e+02	-6.690466e-02
6.214364e+02	-6.767372e-02
6.250258e+02	-6.845156e-02
6.286359e+02	-6.923827e-02
6.322669e+02	-7.003394e-02
6.359189e+02	-7.083868e-02
6.395919e+02	-7.165260e-02
6.432862e+02	-7.247579e-02
6.470017e+02	-7.330835e-02
6.507388e+02	-7.415040e-02
6.544974e+02	-7.500203e-02
6.582778e+02	-7.586336e-02
6.620800e+02	-7.673450e-02
6.659041e+02	-7.761555e-02
6.697504e+02	-7.850662e-02
6.736188e+02	-7.940783e-02
6.775096e+02	-8.031929e-02
6.814229e+02	-8.124111e-02
6.853587e+02	-8.217341e-02
6.893173e+02	-8.311631e-02
6.932988e+02	-8.406992e-02
6.973033e+02	-8.503436e-02
7.013309e+02	-8.600976e-02
