Frequency(Hz)	Magnitude(dB)
1.000000e+01	-2.098450e+00
1.005776e+01	-2.117811e+00
1.011585e+01	-2.137285e+00
1.017428e+01	-2.156643e+00
1.023305e+01	-2.176382e+00
1.029215e+01	-2.196060e+00
1.035160e+01	-2.216017e+00
1.041139e+01	-2.236008e+00
1.047153e+01	-2.256368e+00
1.053201e+01	-2.276575e+00
1.059284e+01	-2.296904e+00
1.065403e+01	-2.317581e+00
1.071556e+01	-2.338388e+00
1.077746e+01	-2.359352e+00
1.083971e+01	-2.380471e+00
1.090232e+01	-2.401538e+00
1.096529e+01	-2.422954e+00
1.102862e+01	-2.444276e+00
1.109232e+01	-2.466045e+00
1.115639e+01	-2.487600e+00
1.122083e+01	-2.509826e+00
1.128564e+01	-2.531544e+00
1.135083e+01	-2.553870e+00
1.141639e+01	-2.576144e+00
1.148233e+01	-2.598502e+00
1.154865e+01	-2.621135e+00
1.161536e+01	-2.643818e+00
1.168245e+01	-2.666644e+00
1.174992e+01	-2.689793e+00
1.181779e+01	-2.712983e+00
1.188605e+01	-2.736363e+00
1.195470e+01	-2.759830e+00
1.202375e+01	-2.783119e+00
1.209320e+01	-2.806949e+00
1.216305e+01	-2.831074e+00
1.223330e+01	-2.854902e+00
1.230396e+01	-2.878974e+00
1.237503e+01	-2.903451e+00
1.244651e+01	-2.927973e+00
1.251840e+01	-2.952337e+00
1.259070e+01	-2.977246e+00
1.266343e+01	-3.002333e+00
1.273657e+01	-3.026969e+00
1.281014e+01	-3.052362e+00
1.288413e+01	-3.077683e+00
1.295855e+01	-3.103088e+00
1.303339e+01	-3.128846e+00
1.310867e+01	-3.154835e+00
1.318439e+01	-3.180472e+00
1.326054e+01	-3.206354e+00
1.333713e+01	-3.232945e+00
1.341417e+01	-3.259016e+00
1.349165e+01	-3.285810e+00
1.356958e+01	-3.312291e+00
1.364795e+01	-3.339118e+00
1.372678e+01	-3.365982e+00
1.380607e+01	-3.392906e+00
1.388581e+01	-3.419886e+00
1.396602e+01	-3.447610e+00
1.404668e+01	-3.475039e+00
1.412782e+01	-3.502685e+00
1.420942e+01	-3.530142e+00
1.429149e+01	-3.558080e+00
1.437404e+01	-3.586353e+00
1.445706e+01	-3.614696e+00
1.454057e+01	-3.642957e+00
1.462455e+01	-3.671283e+00
1.470902e+01	-3.699625e+00
1.479398e+01	-3.728663e+00
1.487943e+01	-3.757574e+00
1.496537e+01	-3.786655e+00
1.505181e+01	-3.815593e+00
1.513875e+01	-3.844950e+00
1.522619e+01	-3.874318e+00
1.531414e+01	-3.903964e+00
1.540259e+01	-3.933906e+00
1.549156e+01	-3.963643e+00
1.558103e+01	-3.993719e+00
1.567103e+01	-4.023871e+00
1.576155e+01	-4.054195e+00
1.585258e+01	-4.084481e+00
1.594415e+01	-4.115061e+00
1.603624e+01	-4.145936e+00
1.612886e+01	-4.176763e+00
1.622202e+01	-4.207613e+00
1.631572e+01	-4.238776e+00
1.640996e+01	-4.270236e+00
1.650474e+01	-4.301301e+00
1.660008e+01	-4.332743e+00
1.669596e+01	-4.364462e+00
1.679239e+01	-4.396524e+00
1.688938e+01	-4.428083e+00
1.698694e+01	-4.460473e+00
1.708505e+01	-4.492358e+00
1.718373e+01	-4.524660e+00
1.728299e+01	-4.557367e+00
1.738281e+01	-4.589729e+00
1.748322e+01	-4.622030e+00
1.758420e+01	-4.655348e+00
1.768576e+01	-4.688276e+00
1.778792e+01	-4.721417e+00
1.789066e+01	-4.754628e+00
1.799399e+01	-4.787988e+00
1.809793e+01	-4.821560e+00
1.820246e+01	-4.855035e+00
1.830760e+01	-4.888789e+00
1.841334e+01	-4.922634e+00
1.851969e+01	-4.956386e+00
1.862666e+01	-4.990562e+00
1.873425e+01	-5.024682e+00
1.884246e+01	-5.059342e+00
1.895129e+01	-5.093857e+00
1.906075e+01	-5.128234e+00
1.917085e+01	-5.162621e+00
1.928158e+01	-5.197796e+00
1.939295e+01	-5.232899e+00
1.950496e+01	-5.267787e+00
1.961762e+01	-5.303292e+00
1.973093e+01	-5.338940e+00
1.984490e+01	-5.373955e+00
1.995952e+01	-5.409559e+00
2.007480e+01	-5.445283e+00
2.019076e+01	-5.481266e+00
2.030738e+01	-5.516789e+00
2.042467e+01	-5.553142e+00
2.054264e+01	-5.589162e+00
2.066130e+01	-5.625061e+00
2.078064e+01	-5.661545e+00
2.090066e+01	-5.698334e+00
2.102139e+01	-5.735125e+00
2.114280e+01	-5.771873e+00
2.126492e+01	-5.808712e+00
2.138775e+01	-5.845282e+00
2.151128e+01	-5.882424e+00
2.163553e+01	-5.919835e+00
2.176050e+01	-5.957043e+00
2.188619e+01	-5.994416e+00
2.201260e+01	-6.031728e+00
2.213974e+01	-6.069480e+00
2.226762e+01	-6.107020e+00
2.239624e+01	-6.144976e+00
2.252560e+01	-6.182790e+00
2.265571e+01	-6.221080e+00
2.278656e+01	-6.259008e+00
2.291818e+01	-6.297413e+00
2.305055e+01	-6.335760e+00
2.318369e+01	-6.374052e+00
2.331760e+01	-6.412354e+00
2.345228e+01	-6.451215e+00
2.358774e+01	-6.490182e+00
2.372398e+01	-6.528758e+00
2.386101e+01	-6.567855e+00
2.399883e+01	-6.607007e+00
2.413745e+01	-6.645954e+00
2.427686e+01	-6.685794e+00
2.441709e+01	-6.725033e+00
2.455812e+01	-6.764093e+00
2.469997e+01	-6.803582e+00
2.484263e+01	-6.843230e+00
2.498612e+01	-6.882922e+00
2.513044e+01	-6.922724e+00
2.527559e+01	-6.962776e+00
2.542158e+01	-7.002826e+00
2.556842e+01	-7.042594e+00
2.571610e+01	-7.082824e+00
2.586463e+01	-7.123132e+00
2.601403e+01	-7.163605e+00
2.616428e+01	-7.204310e+00
2.631541e+01	-7.244618e+00
2.646740e+01	-7.285486e+00
2.662028e+01	-7.326001e+00
2.677404e+01	-7.366684e+00
2.692868e+01	-7.407722e+00
2.708422e+01	-7.448746e+00
2.724066e+01	-7.490009e+00
2.739800e+01	-7.530819e+00
2.755625e+01	-7.572273e+00
2.771541e+01	-7.613623e+00
2.787550e+01	-7.654930e+00
2.803650e+01	-7.696299e+00
2.819844e+01	-7.737739e+00
2.836131e+01	-7.779494e+00
2.852513e+01	-7.821265e+00
2.868989e+01	-7.862907e+00
2.885560e+01	-7.905040e+00
2.902227e+01	-7.947226e+00
2.918990e+01	-7.988871e+00
2.935850e+01	-8.031037e+00
2.952807e+01	-8.073183e+00
2.969863e+01	-8.115433e+00
2.987016e+01	-8.157658e+00
3.004269e+01	-8.200403e+00
3.021622e+01	-8.243032e+00
3.039075e+01	-8.284729e+00
3.056628e+01	-8.327787e+00
3.074283e+01	-8.370323e+00
3.092040e+01	-8.413469e+00
3.109900e+01	-8.456262e+00
3.127862e+01	-8.499481e+00
3.145929e+01	-8.541980e+00
3.164099e+01	-8.585375e+00
3.182375e+01	-8.628726e+00
3.200756e+01	-8.671439e+00
3.219244e+01	-8.714641e+00
3.237838e+01	-8.758270e+00
3.256540e+01	-8.801266e+00
3.275349e+01	-8.845327e+00
3.294268e+01	-8.888529e+00
3.313295e+01	-8.932062e+00
3.332433e+01	-8.976038e+00
3.351681e+01	-9.019556e+00
3.371040e+01	-9.063259e+00
3.390511e+01	-9.107231e+00
3.410094e+01	-9.151188e+00
3.429791e+01	-9.194605e+00
3.449601e+01	-9.239151e+00
3.469526e+01	-9.282975e+00
3.489566e+01	-9.327456e+00
3.509721e+01	-9.371592e+00
3.529993e+01	-9.416221e+00
3.550382e+01	-9.459982e+00
3.570889e+01	-9.504697e+00
3.591515e+01	-9.549207e+00
3.612259e+01	-9.593933e+00
3.633123e+01	-9.638102e+00
3.654108e+01	-9.683137e+00
3.675214e+01	-9.727517e+00
3.696442e+01	-9.771938e+00
3.717792e+01	-9.817261e+00
3.739266e+01	-9.862065e+00
3.760864e+01	-9.906643e+00
3.782587e+01	-9.951543e+00
3.804435e+01	-9.996586e+00
3.826409e+01	-1.004203e+01
3.848510e+01	-1.008633e+01
3.870739e+01	-1.013177e+01
3.893096e+01	-1.017739e+01
3.915583e+01	-1.022231e+01
3.938199e+01	-1.026761e+01
3.960946e+01	-1.031266e+01
3.983824e+01	-1.035861e+01
4.006834e+01	-1.040366e+01
4.029978e+01	-1.044959e+01
4.053255e+01	-1.049474e+01
4.076666e+01	-1.054035e+01
4.100213e+01	-1.058589e+01
4.123896e+01	-1.063181e+01
4.147715e+01	-1.067790e+01
4.171672e+01	-1.072313e+01
4.195767e+01	-1.076880e+01
4.220002e+01	-1.081477e+01
4.244377e+01	-1.086058e+01
4.268892e+01	-1.090666e+01
4.293549e+01	-1.095281e+01
4.318348e+01	-1.099902e+01
4.343291e+01	-1.104494e+01
4.368377e+01	-1.109097e+01
4.393609e+01	-1.113678e+01
4.418986e+01	-1.118345e+01
4.444510e+01	-1.122956e+01
4.470182e+01	-1.127594e+01
4.496001e+01	-1.132256e+01
4.521970e+01	-1.136895e+01
4.548089e+01	-1.141489e+01
4.574358e+01	-1.146159e+01
4.600779e+01	-1.150753e+01
4.627353e+01	-1.155400e+01
4.654081e+01	-1.160079e+01
4.680963e+01	-1.164691e+01
4.708000e+01	-1.169369e+01
4.735193e+01	-1.174164e+01
4.762543e+01	-1.178753e+01
4.790051e+01	-1.183375e+01
4.817719e+01	-1.188155e+01
4.845545e+01	-1.192729e+01
4.873533e+01	-1.197440e+01
4.901682e+01	-1.202148e+01
4.929994e+01	-1.206834e+01
4.958470e+01	-1.211508e+01
4.987110e+01	-1.216223e+01
5.015915e+01	-1.220960e+01
5.044887e+01	-1.225629e+01
5.074026e+01	-1.230322e+01
5.103333e+01	-1.235055e+01
5.132810e+01	-1.239766e+01
5.162457e+01	-1.244516e+01
5.192275e+01	-1.249209e+01
5.222265e+01	-1.253866e+01
5.252429e+01	-1.258564e+01
5.282767e+01	-1.263340e+01
5.313280e+01	-1.268139e+01
5.343969e+01	-1.272827e+01
5.374836e+01	-1.277529e+01
5.405880e+01	-1.282323e+01
5.437105e+01	-1.287036e+01
5.468509e+01	-1.291837e+01
5.500095e+01	-1.296579e+01
5.531863e+01	-1.301295e+01
5.563815e+01	-1.306066e+01
5.595951e+01	-1.310796e+01
5.628273e+01	-1.315585e+01
5.660782e+01	-1.320337e+01
5.693479e+01	-1.325112e+01
5.726364e+01	-1.329839e+01
5.759439e+01	-1.334592e+01
5.792705e+01	-1.339429e+01
5.826164e+01	-1.344172e+01
5.859815e+01	-1.348968e+01
5.893662e+01	-1.353764e+01
5.927703e+01	-1.358520e+01
5.961941e+01	-1.363320e+01
5.996377e+01	-1.368049e+01
6.031012e+01	-1.372888e+01
6.065847e+01	-1.377620e+01
6.100883e+01	-1.382469e+01
6.136121e+01	-1.387309e+01
6.171563e+01	-1.392165e+01
6.207210e+01	-1.396883e+01
6.243063e+01	-1.401654e+01
6.279122e+01	-1.406449e+01
6.315390e+01	-1.411296e+01
6.351868e+01	-1.416114e+01
6.388556e+01	-1.420936e+01
6.425456e+01	-1.425792e+01
6.462569e+01	-1.430564e+01
6.499897e+01	-1.435311e+01
6.537440e+01	-1.440118e+01
6.575200e+01	-1.444958e+01
6.613178e+01	-1.449794e+01
6.651375e+01	-1.454675e+01
6.689793e+01	-1.459482e+01
6.728433e+01	-1.464313e+01
6.767297e+01	-1.469112e+01
6.806384e+01	-1.473929e+01
6.845698e+01	-1.478879e+01
6.885238e+01	-1.483579e+01
6.925007e+01	-1.488450e+01
6.965005e+01	-1.493346e+01
7.005235e+01	-1.498227e+01
7.045697e+01	-1.502988e+01
7.086393e+01	-1.507856e+01
7.127323e+01	-1.512844e+01
7.168490e+01	-1.517629e+01
7.209895e+01	-1.522368e+01
7.251539e+01	-1.527144e+01
7.293424e+01	-1.532147e+01
7.335551e+01	-1.536981e+01
7.377920e+01	-1.541892e+01
7.420535e+01	-1.546701e+01
7.463396e+01	-1.551574e+01
7.506504e+01	-1.556370e+01
7.549861e+01	-1.561217e+01
7.593469e+01	-1.566204e+01
7.637328e+01	-1.571017e+01
7.681441e+01	-1.575823e+01
7.725809e+01	-1.580836e+01
7.770433e+01	-1.585783e+01
7.815315e+01	-1.590476e+01
7.860456e+01	-1.595270e+01
7.905857e+01	-1.600272e+01
7.951521e+01	-1.605067e+01
7.997449e+01	-1.609863e+01
8.043642e+01	-1.614944e+01
8.090102e+01	-1.619833e+01
8.136830e+01	-1.624668e+01
8.183828e+01	-1.629672e+01
8.231097e+01	-1.634472e+01
8.278640e+01	-1.639326e+01
8.326457e+01	-1.644186e+01
8.374550e+01	-1.649265e+01
8.422921e+01	-1.653986e+01
8.471572e+01	-1.658810e+01
8.520503e+01	-1.663762e+01
8.569717e+01	-1.668515e+01
8.619215e+01	-1.673567e+01
8.669000e+01	-1.678448e+01
8.719071e+01	-1.683353e+01
8.769432e+01	-1.688278e+01
8.820084e+01	-1.693188e+01
8.871029e+01	-1.698125e+01
8.922267e+01	-1.703085e+01
8.973802e+01	-1.707950e+01
9.025634e+01	-1.712793e+01
9.077766e+01	-1.717774e+01
9.130199e+01	-1.722574e+01
9.182935e+01	-1.727525e+01
9.235975e+01	-1.732447e+01
9.289321e+01	-1.737226e+01
9.342976e+01	-1.742196e+01
9.396941e+01	-1.747046e+01
9.451217e+01	-1.751939e+01
9.505807e+01	-1.756973e+01
9.560712e+01	-1.761994e+01
9.615934e+01	-1.766726e+01
9.671476e+01	-1.771765e+01
9.727338e+01	-1.776657e+01
9.783522e+01	-1.781470e+01
9.840032e+01	-1.786336e+01
9.896867e+01	-1.791451e+01
9.954031e+01	-1.796400e+01
1.001153e+02	-1.801226e+01
1.006935e+02	-1.806064e+01
1.012751e+02	-1.810990e+01
1.018601e+02	-1.816080e+01
1.024484e+02	-1.821036e+01
1.030402e+02	-1.825918e+01
1.036353e+02	-1.830778e+01
1.042339e+02	-1.835768e+01
1.048360e+02	-1.840670e+01
1.054415e+02	-1.845471e+01
1.060505e+02	-1.850620e+01
1.066631e+02	-1.855408e+01
1.072791e+02	-1.860399e+01
1.078988e+02	-1.865439e+01
1.085220e+02	-1.870382e+01
1.091488e+02	-1.875185e+01
1.097793e+02	-1.880287e+01
1.104133e+02	-1.885039e+01
1.110511e+02	-1.890116e+01
1.116925e+02	-1.895087e+01
1.123376e+02	-1.899855e+01
1.129865e+02	-1.904871e+01
1.136391e+02	-1.909738e+01
1.142955e+02	-1.914779e+01
1.149556e+02	-1.919733e+01
1.156196e+02	-1.924595e+01
1.162874e+02	-1.929580e+01
1.169591e+02	-1.934496e+01
1.176347e+02	-1.939415e+01
1.183141e+02	-1.944365e+01
1.189975e+02	-1.949277e+01
1.196848e+02	-1.954313e+01
1.203761e+02	-1.959255e+01
1.210714e+02	-1.964247e+01
1.217707e+02	-1.968984e+01
1.224740e+02	-1.974085e+01
1.231814e+02	-1.979054e+01
1.238929e+02	-1.984130e+01
1.246085e+02	-1.988930e+01
1.253283e+02	-1.993859e+01
1.260522e+02	-1.998766e+01
1.267802e+02	-2.003892e+01
1.275125e+02	-2.008811e+01
1.282490e+02	-2.013845e+01
1.289898e+02	-2.018771e+01
1.297348e+02	-2.023527e+01
1.304842e+02	-2.028539e+01
1.312378e+02	-2.033591e+01
1.319959e+02	-2.038497e+01
1.327583e+02	-2.043449e+01
1.335251e+02	-2.048558e+01
1.342963e+02	-2.053307e+01
1.350720e+02	-2.058270e+01
1.358522e+02	-2.063276e+01
1.366368e+02	-2.068304e+01
1.374260e+02	-2.073263e+01
1.382198e+02	-2.078203e+01
1.390182e+02	-2.083148e+01
1.398211e+02	-2.088110e+01
1.406287e+02	-2.093062e+01
1.414410e+02	-2.097991e+01
1.422579e+02	-2.103001e+01
1.430796e+02	-2.107716e+01
1.439060e+02	-2.113055e+01
1.447372e+02	-2.117928e+01
1.455732e+02	-2.123037e+01
1.464141e+02	-2.127759e+01
1.472597e+02	-2.132887e+01
1.481103e+02	-2.137736e+01
1.489658e+02	-2.142876e+01
1.498262e+02	-2.147608e+01
1.506916e+02	-2.152503e+01
1.515620e+02	-2.157763e+01
1.524374e+02	-2.162648e+01
1.533179e+02	-2.167684e+01
1.542034e+02	-2.172391e+01
1.550941e+02	-2.177524e+01
1.559899e+02	-2.182513e+01
1.568909e+02	-2.187424e+01
1.577971e+02	-2.192207e+01
1.587085e+02	-2.197365e+01
1.596252e+02	-2.202553e+01
1.605472e+02	-2.207169e+01
1.614745e+02	-2.212292e+01
1.624072e+02	-2.217305e+01
1.633453e+02	-2.222369e+01
1.642887e+02	-2.227304e+01
1.652377e+02	-2.232237e+01
1.661921e+02	-2.237293e+01
1.671520e+02	-2.242242e+01
1.681175e+02	-2.247170e+01
1.690885e+02	-2.252201e+01
1.700651e+02	-2.257000e+01
1.710474e+02	-2.261981e+01
1.720354e+02	-2.266999e+01
1.730291e+02	-2.272004e+01
1.740285e+02	-2.276975e+01
1.750337e+02	-2.282044e+01
1.760446e+02	-2.287247e+01
1.770615e+02	-2.292070e+01
1.780842e+02	-2.297040e+01
1.791128e+02	-2.301966e+01
1.801473e+02	-2.307095e+01
1.811878e+02	-2.312014e+01
1.822344e+02	-2.316682e+01
1.832870e+02	-2.321802e+01
1.843456e+02	-2.326927e+01
1.854104e+02	-2.331799e+01
1.864813e+02	-2.336696e+01
1.875584e+02	-2.341803e+01
1.886418e+02	-2.346905e+01
1.897313e+02	-2.351858e+01
1.908272e+02	-2.356750e+01
1.919294e+02	-2.361513e+01
1.930380e+02	-2.366444e+01
1.941530e+02	-2.371504e+01
1.952744e+02	-2.376621e+01
1.964023e+02	-2.381678e+01
1.975367e+02	-2.386650e+01
1.986777e+02	-2.391520e+01
1.998252e+02	-2.396540e+01
2.009794e+02	-2.401284e+01
2.021403e+02	-2.406476e+01
2.033078e+02	-2.411419e+01
2.044821e+02	-2.416641e+01
2.056632e+02	-2.421688e+01
2.068511e+02	-2.426368e+01
2.080459e+02	-2.431692e+01
2.092475e+02	-2.436788e+01
2.104561e+02	-2.441391e+01
2.116717e+02	-2.446457e+01
2.128943e+02	-2.451399e+01
2.141240e+02	-2.456624e+01
2.153608e+02	-2.461375e+01
2.166047e+02	-2.466337e+01
2.178558e+02	-2.471222e+01
2.191141e+02	-2.476343e+01
2.203797e+02	-2.481262e+01
2.216526e+02	-2.486369e+01
2.229329e+02	-2.491218e+01
2.242205e+02	-2.496319e+01
2.255156e+02	-2.501370e+01
2.268182e+02	-2.506482e+01
2.281283e+02	-2.511335e+01
2.294459e+02	-2.516700e+01
2.307712e+02	-2.521456e+01
2.321041e+02	-2.526230e+01
2.334447e+02	-2.531036e+01
2.347931e+02	-2.536283e+01
2.361493e+02	-2.541360e+01
2.375133e+02	-2.546351e+01
2.388851e+02	-2.551090e+01
2.402649e+02	-2.556090e+01
2.416527e+02	-2.561100e+01
2.430484e+02	-2.566087e+01
2.444523e+02	-2.571113e+01
2.458642e+02	-2.576287e+01
2.472843e+02	-2.581156e+01
2.487126e+02	-2.586215e+01
2.501492e+02	-2.590992e+01
2.515940e+02	-2.596019e+01
2.530472e+02	-2.601420e+01
2.545088e+02	-2.605880e+01
2.559789e+02	-2.611227e+01
2.574574e+02	-2.616402e+01
2.589444e+02	-2.621318e+01
2.604401e+02	-2.626230e+01
2.619444e+02	-2.630912e+01
2.634574e+02	-2.636163e+01
2.649791e+02	-2.641248e+01
2.665096e+02	-2.646226e+01
2.680489e+02	-2.650734e+01
2.695972e+02	-2.655798e+01
2.711544e+02	-2.661057e+01
2.727205e+02	-2.666002e+01
2.742958e+02	-2.671229e+01
2.758801e+02	-2.675881e+01
2.774736e+02	-2.681110e+01
2.790762e+02	-2.686212e+01
2.806882e+02	-2.690968e+01
2.823094e+02	-2.696096e+01
2.839400e+02	-2.701457e+01
2.855800e+02	-2.705824e+01
2.872295e+02	-2.711110e+01
2.888886e+02	-2.715892e+01
2.905572e+02	-2.721122e+01
2.922354e+02	-2.726203e+01
2.939234e+02	-2.731133e+01
2.956211e+02	-2.736140e+01
2.973286e+02	-2.741089e+01
2.990459e+02	-2.745941e+01
3.007732e+02	-2.751091e+01
3.025104e+02	-2.756125e+01
3.042577e+02	-2.761156e+01
3.060151e+02	-2.765907e+01
3.077826e+02	-2.770748e+01
3.095604e+02	-2.775850e+01
3.113484e+02	-2.781102e+01
3.131467e+02	-2.786167e+01
3.149554e+02	-2.791406e+01
3.167746e+02	-2.796484e+01
3.186043e+02	-2.801253e+01
3.204445e+02	-2.805869e+01
3.222954e+02	-2.811352e+01
3.241570e+02	-2.816611e+01
3.260293e+02	-2.821363e+01
3.279124e+02	-2.826062e+01
3.298064e+02	-2.831199e+01
3.317114e+02	-2.835957e+01
3.336273e+02	-2.840960e+01
3.355544e+02	-2.846052e+01
3.374925e+02	-2.851176e+01
3.394418e+02	-2.855923e+01
3.414024e+02	-2.860887e+01
3.433744e+02	-2.866181e+01
3.453577e+02	-2.870868e+01
3.473525e+02	-2.876243e+01
3.493588e+02	-2.881069e+01
3.513766e+02	-2.886300e+01
3.534062e+02	-2.890849e+01
3.554474e+02	-2.896209e+01
3.575005e+02	-2.900903e+01
3.595654e+02	-2.906222e+01
3.616422e+02	-2.911425e+01
3.637311e+02	-2.915842e+01
3.658320e+02	-2.921345e+01
3.679450e+02	-2.926362e+01
3.700702e+02	-2.931271e+01
3.722077e+02	-2.936168e+01
3.743576e+02	-2.940686e+01
3.765199e+02	-2.946743e+01
3.786946e+02	-2.951076e+01
3.808820e+02	-2.956499e+01
3.830819e+02	-2.961306e+01
3.852946e+02	-2.966335e+01
3.875200e+02	-2.971123e+01
3.897583e+02	-2.976111e+01
3.920096e+02	-2.981256e+01
3.942738e+02	-2.985825e+01
3.965511e+02	-2.991311e+01
3.988416e+02	-2.996273e+01
4.011452e+02	-3.001344e+01
4.034622e+02	-3.006188e+01
4.057926e+02	-3.011302e+01
4.081365e+02	-3.016557e+01
4.104938e+02	-3.021239e+01
4.128648e+02	-3.026197e+01
4.152495e+02	-3.031158e+01
4.176480e+02	-3.035784e+01
4.200603e+02	-3.041419e+01
4.224866e+02	-3.046283e+01
4.249268e+02	-3.051630e+01
4.273812e+02	-3.056860e+01
4.298497e+02	-3.061500e+01
4.323325e+02	-3.066253e+01
4.348297e+02	-3.072209e+01
4.373412e+02	-3.076734e+01
4.398673e+02	-3.081170e+01
4.424079e+02	-3.086786e+01
4.449633e+02	-3.091921e+01
4.475334e+02	-3.096577e+01
4.501183e+02	-3.101709e+01
4.527182e+02	-3.106438e+01
4.553330e+02	-3.111795e+01
4.579630e+02	-3.116641e+01
4.606082e+02	-3.121638e+01
4.632687e+02	-3.126832e+01
4.659445e+02	-3.131858e+01
4.686358e+02	-3.136780e+01
4.713426e+02	-3.141846e+01
4.740650e+02	-3.146528e+01
4.768032e+02	-3.151610e+01
4.795572e+02	-3.156366e+01
4.823271e+02	-3.161923e+01
4.851130e+02	-3.167385e+01
4.879150e+02	-3.171114e+01
4.907332e+02	-3.176739e+01
4.935676e+02	-3.182018e+01
4.964185e+02	-3.186740e+01
4.992858e+02	-3.191538e+01
5.021696e+02	-3.197564e+01
5.050701e+02	-3.201553e+01
5.079874e+02	-3.206649e+01
5.109215e+02	-3.212425e+01
5.138726e+02	-3.217100e+01
5.168407e+02	-3.221850e+01
5.198259e+02	-3.227070e+01
5.228284e+02	-3.231790e+01
5.258482e+02	-3.236394e+01
5.288855e+02	-3.242658e+01
5.319403e+02	-3.247188e+01
5.350128e+02	-3.252964e+01
5.381030e+02	-3.257405e+01
5.412111e+02	-3.261304e+01
5.443371e+02	-3.266877e+01
5.474812e+02	-3.272159e+01
5.506434e+02	-3.277386e+01
5.538239e+02	-3.281305e+01
5.570228e+02	-3.287450e+01
5.602401e+02	-3.292099e+01
5.634760e+02	-3.297633e+01
5.667306e+02	-3.302456e+01
5.700040e+02	-3.307031e+01
5.732964e+02	-3.312511e+01
5.766077e+02	-3.317596e+01
5.799382e+02	-3.322087e+01
5.832879e+02	-3.327721e+01
5.866569e+02	-3.332686e+01
5.900454e+02	-3.337919e+01
5.934535e+02	-3.342614e+01
5.968813e+02	-3.347742e+01
6.003288e+02	-3.352550e+01
6.037963e+02	-3.357677e+01
6.072838e+02	-3.362752e+01
6.107914e+02	-3.368150e+01
6.143194e+02	-3.372883e+01
6.178676e+02	-3.377412e+01
6.214364e+02	-3.382415e+01
6.250258e+02	-3.388407e+01
6.286359e+02	-3.392747e+01
6.322669e+02	-3.397643e+01
6.359189e+02	-3.402954e+01
6.395919e+02	-3.408133e+01
6.432862e+02	-3.413608e+01
6.470017e+02	-3.418517e+01
6.507388e+02	-3.424144e+01
6.544974e+02	-3.427926e+01
6.582778e+02	-3.433383e+01
6.620800e+02	-3.437816e+01
6.659041e+02	-3.442685e+01
6.697504e+02	-3.448559e+01
6.736188e+02	-3.453819e+01
6.775096e+02	-3.458395e+01
6.814229e+02	-3.463230e+01
6.853587e+02	-3.468498e+01
6.893173e+02	-3.472279e+01
6.932988e+02	-3.477961e+01
6.973033e+02	-3.482716e+01
7.013309e+02	-3.489513e+01
