Frequency(Hz)	Magnitude(dB)
1.000000e+01	-2.050345e+00
1.005776e+01	-2.069288e+00
1.011585e+01	-2.088413e+00
1.017428e+01	-2.107447e+00
1.023305e+01	-2.126777e+00
1.029215e+01	-2.146057e+00
1.035160e+01	-2.165746e+00
1.041139e+01	-2.185364e+00
1.047153e+01	-2.205117e+00
1.053201e+01	-2.225311e+00
1.059284e+01	-2.245343e+00
1.065403e+01	-2.265825e+00
1.071556e+01	-2.286006e+00
1.077746e+01	-2.306708e+00
1.083971e+01	-2.327262e+00
1.090232e+01	-2.347957e+00
1.096529e+01	-2.369183e+00
1.102862e+01	-2.389844e+00
1.109232e+01	-2.411358e+00
1.115639e+01	-2.432947e+00
1.122083e+01	-2.454101e+00
1.128564e+01	-2.475851e+00
1.135083e+01	-2.497814e+00
1.141639e+01	-2.519863e+00
1.148233e+01	-2.541920e+00
1.154865e+01	-2.564186e+00
1.161536e+01	-2.586345e+00
1.168245e+01	-2.609056e+00
1.174992e+01	-2.631829e+00
1.181779e+01	-2.654515e+00
1.188605e+01	-2.677202e+00
1.195470e+01	-2.700501e+00
1.202375e+01	-2.723826e+00
1.209320e+01	-2.747052e+00
1.216305e+01	-2.770799e+00
1.223330e+01	-2.794471e+00
1.230396e+01	-2.818007e+00
1.237503e+01	-2.842081e+00
1.244651e+01	-2.866264e+00
1.251840e+01	-2.890514e+00
1.259070e+01	-2.914828e+00
1.266343e+01	-2.938930e+00
1.273657e+01	-2.963931e+00
1.281014e+01	-2.988902e+00
1.288413e+01	-3.014029e+00
1.295855e+01	-3.039085e+00
1.303339e+01	-3.064166e+00
1.310867e+01	-3.089482e+00
1.318439e+01	-3.115066e+00
1.326054e+01	-3.140712e+00
1.333713e+01	-3.166584e+00
1.341417e+01	-3.192807e+00
1.349165e+01	-3.218639e+00
1.356958e+01	-3.244757e+00
1.364795e+01	-3.271055e+00
1.372678e+01	-3.297734e+00
1.380607e+01	-3.324513e+00
1.388581e+01	-3.351435e+00
1.396602e+01	-3.378238e+00
1.404668e+01	-3.405242e+00
1.412782e+01	-3.432699e+00
1.420942e+01	-3.460028e+00
1.429149e+01	-3.487694e+00
1.437404e+01	-3.515438e+00
1.445706e+01	-3.543061e+00
1.454057e+01	-3.571025e+00
1.462455e+01	-3.599313e+00
1.470902e+01	-3.627392e+00
1.479398e+01	-3.655795e+00
1.487943e+01	-3.684494e+00
1.496537e+01	-3.713056e+00
1.505181e+01	-3.742054e+00
1.513875e+01	-3.770997e+00
1.522619e+01	-3.799965e+00
1.531414e+01	-3.829157e+00
1.540259e+01	-3.858284e+00
1.549156e+01	-3.887870e+00
1.558103e+01	-3.917795e+00
1.567103e+01	-3.947627e+00
1.576155e+01	-3.977495e+00
1.585258e+01	-4.007504e+00
1.594415e+01	-4.037828e+00
1.603624e+01	-4.068197e+00
1.612886e+01	-4.098634e+00
1.622202e+01	-4.129360e+00
1.631572e+01	-4.159869e+00
1.640996e+01	-4.190838e+00
1.650474e+01	-4.222052e+00
1.660008e+01	-4.253354e+00
1.669596e+01	-4.284342e+00
1.679239e+01	-4.316020e+00
1.688938e+01	-4.347783e+00
1.698694e+01	-4.379249e+00
1.708505e+01	-4.410961e+00
1.718373e+01	-4.442954e+00
1.728299e+01	-4.475059e+00
1.738281e+01	-4.507524e+00
1.748322e+01	-4.539755e+00
1.758420e+01	-4.572312e+00
1.768576e+01	-4.604840e+00
1.778792e+01	-4.637781e+00
1.789066e+01	-4.670555e+00
1.799399e+01	-4.703565e+00
1.809793e+01	-4.736850e+00
1.820246e+01	-4.769788e+00
1.830760e+01	-4.803421e+00
1.841334e+01	-4.836909e+00
1.851969e+01	-4.870735e+00
1.862666e+01	-4.904443e+00
1.873425e+01	-4.938182e+00
1.884246e+01	-4.972530e+00
1.895129e+01	-5.006377e+00
1.906075e+01	-5.040718e+00
1.917085e+01	-5.075320e+00
1.928158e+01	-5.109748e+00
1.939295e+01	-5.144137e+00
1.950496e+01	-5.178798e+00
1.961762e+01	-5.214083e+00
1.973093e+01	-5.248938e+00
1.984490e+01	-5.284628e+00
1.995952e+01	-5.319317e+00
2.007480e+01	-5.354858e+00
2.019076e+01	-5.390253e+00
2.030738e+01	-5.426223e+00
2.042467e+01	-5.461852e+00
2.054264e+01	-5.497517e+00
2.066130e+01	-5.533603e+00
2.078064e+01	-5.569596e+00
2.090066e+01	-5.605927e+00
2.102139e+01	-5.642380e+00
2.114280e+01	-5.678837e+00
2.126492e+01	-5.715155e+00
2.138775e+01	-5.751993e+00
2.151128e+01	-5.788433e+00
2.163553e+01	-5.825735e+00
2.176050e+01	-5.862613e+00
2.188619e+01	-5.899258e+00
2.201260e+01	-5.936944e+00
2.213974e+01	-5.974407e+00
2.226762e+01	-6.011519e+00
2.239624e+01	-6.049338e+00
2.252560e+01	-6.086736e+00
2.265571e+01	-6.124790e+00
2.278656e+01	-6.162703e+00
2.291818e+01	-6.200347e+00
2.305055e+01	-6.238435e+00
2.318369e+01	-6.276758e+00
2.331760e+01	-6.315203e+00
2.345228e+01	-6.353539e+00
2.358774e+01	-6.391918e+00
2.372398e+01	-6.430857e+00
2.386101e+01	-6.469208e+00
2.399883e+01	-6.508100e+00
2.413745e+01	-6.546814e+00
2.427686e+01	-6.585669e+00
2.441709e+01	-6.624943e+00
2.455812e+01	-6.664394e+00
2.469997e+01	-6.703494e+00
2.484263e+01	-6.742762e+00
2.498612e+01	-6.782298e+00
2.513044e+01	-6.822079e+00
2.527559e+01	-6.861391e+00
2.542158e+01	-6.901287e+00
2.556842e+01	-6.941146e+00
2.571610e+01	-6.981218e+00
2.586463e+01	-7.021398e+00
2.601403e+01	-7.061143e+00
2.616428e+01	-7.101776e+00
2.631541e+01	-7.141858e+00
2.646740e+01	-7.182391e+00
2.662028e+01	-7.222676e+00
2.677404e+01	-7.263675e+00
2.692868e+01	-7.303668e+00
2.708422e+01	-7.345030e+00
2.724066e+01	-7.385915e+00
2.739800e+01	-7.426451e+00
2.755625e+01	-7.467375e+00
2.771541e+01	-7.508840e+00
2.787550e+01	-7.549791e+00
2.803650e+01	-7.590745e+00
2.819844e+01	-7.632313e+00
2.836131e+01	-7.673728e+00
2.852513e+01	-7.715576e+00
2.868989e+01	-7.756990e+00
2.885560e+01	-7.798962e+00
2.902227e+01	-7.840195e+00
2.918990e+01	-7.882147e+00
2.935850e+01	-7.924380e+00
2.952807e+01	-7.966184e+00
2.969863e+01	-8.008176e+00
2.987016e+01	-8.050410e+00
3.004269e+01	-8.092803e+00
3.021622e+01	-8.135178e+00
3.039075e+01	-8.177369e+00
3.056628e+01	-8.219601e+00
3.074283e+01	-8.262685e+00
3.092040e+01	-8.304914e+00
3.109900e+01	-8.347621e+00
3.127862e+01	-8.390285e+00
3.145929e+01	-8.433506e+00
3.164099e+01	-8.476316e+00
3.182375e+01	-8.519197e+00
3.200756e+01	-8.561835e+00
3.219244e+01	-8.605118e+00
3.237838e+01	-8.647979e+00
3.256540e+01	-8.691566e+00
3.275349e+01	-8.734884e+00
3.294268e+01	-8.778290e+00
3.313295e+01	-8.821871e+00
3.332433e+01	-8.865206e+00
3.351681e+01	-8.908492e+00
3.371040e+01	-8.952047e+00
3.390511e+01	-8.996067e+00
3.410094e+01	-9.039698e+00
3.429791e+01	-9.083722e+00
3.449601e+01	-9.127644e+00
3.469526e+01	-9.171377e+00
3.489566e+01	-9.215230e+00
3.509721e+01	-9.259910e+00
3.529993e+01	-9.303774e+00
3.550382e+01	-9.348091e+00
3.570889e+01	-9.391467e+00
3.591515e+01	-9.436626e+00
3.612259e+01	-9.480927e+00
3.633123e+01	-9.525478e+00
3.654108e+01	-9.569515e+00
3.675214e+01	-9.614505e+00
3.696442e+01	-9.658819e+00
3.717792e+01	-9.703257e+00
3.739266e+01	-9.748115e+00
3.760864e+01	-9.792968e+00
3.782587e+01	-9.837573e+00
3.804435e+01	-9.882189e+00
3.826409e+01	-9.927898e+00
3.848510e+01	-9.972533e+00
3.870739e+01	-1.001696e+01
3.893096e+01	-1.006266e+01
3.915583e+01	-1.010759e+01
3.938199e+01	-1.015294e+01
3.960946e+01	-1.019771e+01
3.983824e+01	-1.024326e+01
4.006834e+01	-1.028901e+01
4.029978e+01	-1.033394e+01
4.053255e+01	-1.037948e+01
4.076666e+01	-1.042447e+01
4.100213e+01	-1.047083e+01
4.123896e+01	-1.051579e+01
4.147715e+01	-1.056100e+01
4.171672e+01	-1.060627e+01
4.195767e+01	-1.065278e+01
4.220002e+01	-1.069889e+01
4.244377e+01	-1.074327e+01
4.268892e+01	-1.079036e+01
4.293549e+01	-1.083596e+01
4.318348e+01	-1.088200e+01
4.343291e+01	-1.092846e+01
4.368377e+01	-1.097392e+01
4.393609e+01	-1.102004e+01
4.418986e+01	-1.106671e+01
4.444510e+01	-1.111251e+01
4.470182e+01	-1.115838e+01
4.496001e+01	-1.120514e+01
4.521970e+01	-1.125056e+01
4.548089e+01	-1.129712e+01
4.574358e+01	-1.134325e+01
4.600779e+01	-1.139011e+01
4.627353e+01	-1.143605e+01
4.654081e+01	-1.148311e+01
4.680963e+01	-1.152913e+01
4.708000e+01	-1.157559e+01
4.735193e+01	-1.162217e+01
4.762543e+01	-1.166898e+01
4.790051e+01	-1.171619e+01
4.817719e+01	-1.176243e+01
4.845545e+01	-1.180964e+01
4.873533e+01	-1.185559e+01
4.901682e+01	-1.190265e+01
4.929994e+01	-1.194996e+01
4.958470e+01	-1.199609e+01
4.987110e+01	-1.204247e+01
5.015915e+01	-1.208935e+01
5.044887e+01	-1.213736e+01
5.074026e+01	-1.218377e+01
5.103333e+01	-1.223115e+01
5.132810e+01	-1.227782e+01
5.162457e+01	-1.232507e+01
5.192275e+01	-1.237171e+01
5.222265e+01	-1.241917e+01
5.252429e+01	-1.246626e+01
5.282767e+01	-1.251378e+01
5.313280e+01	-1.256162e+01
5.343969e+01	-1.260833e+01
5.374836e+01	-1.265567e+01
5.405880e+01	-1.270217e+01
5.437105e+01	-1.275061e+01
5.468509e+01	-1.279751e+01
5.500095e+01	-1.284510e+01
5.531863e+01	-1.289293e+01
5.563815e+01	-1.294017e+01
5.595951e+01	-1.298733e+01
5.628273e+01	-1.303455e+01
5.660782e+01	-1.308198e+01
5.693479e+01	-1.312985e+01
5.726364e+01	-1.317778e+01
5.759439e+01	-1.322537e+01
5.792705e+01	-1.327285e+01
5.826164e+01	-1.332077e+01
5.859815e+01	-1.336766e+01
5.893662e+01	-1.341570e+01
5.927703e+01	-1.346416e+01
5.961941e+01	-1.351116e+01
5.996377e+01	-1.355972e+01
6.031012e+01	-1.360701e+01
6.065847e+01	-1.365528e+01
6.100883e+01	-1.370231e+01
6.136121e+01	-1.375084e+01
6.171563e+01	-1.379940e+01
6.207210e+01	-1.384653e+01
6.243063e+01	-1.389544e+01
6.279122e+01	-1.394267e+01
6.315390e+01	-1.399011e+01
6.351868e+01	-1.403851e+01
6.388556e+01	-1.408719e+01
6.425456e+01	-1.413489e+01
6.462569e+01	-1.418317e+01
6.499897e+01	-1.423168e+01
6.537440e+01	-1.427962e+01
6.575200e+01	-1.432795e+01
6.613178e+01	-1.437500e+01
6.651375e+01	-1.442454e+01
6.689793e+01	-1.447175e+01
6.728433e+01	-1.451996e+01
6.767297e+01	-1.456972e+01
6.806384e+01	-1.461663e+01
6.845698e+01	-1.466541e+01
6.885238e+01	-1.471305e+01
6.925007e+01	-1.476161e+01
6.965005e+01	-1.481010e+01
7.005235e+01	-1.485819e+01
7.045697e+01	-1.490657e+01
7.086393e+01	-1.495562e+01
7.127323e+01	-1.500434e+01
7.168490e+01	-1.505221e+01
7.209895e+01	-1.510120e+01
7.251539e+01	-1.514863e+01
7.293424e+01	-1.519864e+01
7.335551e+01	-1.524686e+01
7.377920e+01	-1.529510e+01
7.420535e+01	-1.534246e+01
7.463396e+01	-1.539167e+01
7.506504e+01	-1.544014e+01
7.549861e+01	-1.548879e+01
7.593469e+01	-1.553791e+01
7.637328e+01	-1.558699e+01
7.681441e+01	-1.563529e+01
7.725809e+01	-1.568316e+01
7.770433e+01	-1.573308e+01
7.815315e+01	-1.578044e+01
7.860456e+01	-1.583084e+01
7.905857e+01	-1.587873e+01
7.951521e+01	-1.592720e+01
7.997449e+01	-1.597707e+01
8.043642e+01	-1.602686e+01
8.090102e+01	-1.607372e+01
8.136830e+01	-1.612193e+01
8.183828e+01	-1.617159e+01
8.231097e+01	-1.622035e+01
8.278640e+01	-1.626981e+01
8.326457e+01	-1.631775e+01
8.374550e+01	-1.636647e+01
8.422921e+01	-1.641536e+01
8.471572e+01	-1.646394e+01
8.520503e+01	-1.651341e+01
8.569717e+01	-1.656288e+01
8.619215e+01	-1.661077e+01
8.669000e+01	-1.665922e+01
8.719071e+01	-1.670988e+01
8.769432e+01	-1.675890e+01
8.820084e+01	-1.680695e+01
8.871029e+01	-1.685716e+01
8.922267e+01	-1.690456e+01
8.973802e+01	-1.695562e+01
9.025634e+01	-1.700311e+01
9.077766e+01	-1.705277e+01
9.130199e+01	-1.710114e+01
9.182935e+01	-1.715053e+01
9.235975e+01	-1.719933e+01
9.289321e+01	-1.724991e+01
9.342976e+01	-1.729707e+01
9.396941e+01	-1.734780e+01
9.451217e+01	-1.739641e+01
9.505807e+01	-1.744558e+01
9.560712e+01	-1.749372e+01
9.615934e+01	-1.754399e+01
9.671476e+01	-1.759128e+01
9.727338e+01	-1.764255e+01
9.783522e+01	-1.769103e+01
9.840032e+01	-1.773915e+01
9.896867e+01	-1.779052e+01
9.954031e+01	-1.783821e+01
1.001153e+02	-1.788695e+01
1.006935e+02	-1.793587e+01
1.012751e+02	-1.798653e+01
1.018601e+02	-1.803330e+01
1.024484e+02	-1.808499e+01
1.030402e+02	-1.813450e+01
1.036353e+02	-1.818280e+01
1.042339e+02	-1.823325e+01
1.048360e+02	-1.828137e+01
1.054415e+02	-1.833166e+01
1.060505e+02	-1.838024e+01
1.066631e+02	-1.843010e+01
1.072791e+02	-1.847891e+01
1.078988e+02	-1.852945e+01
1.085220e+02	-1.857773e+01
1.091488e+02	-1.862783e+01
1.097793e+02	-1.867797e+01
1.104133e+02	-1.872532e+01
1.110511e+02	-1.877497e+01
1.116925e+02	-1.882380e+01
1.123376e+02	-1.887373e+01
1.129865e+02	-1.892294e+01
1.136391e+02	-1.897237e+01
1.142955e+02	-1.902245e+01
1.149556e+02	-1.907100e+01
1.156196e+02	-1.912192e+01
1.162874e+02	-1.917059e+01
1.169591e+02	-1.922001e+01
1.176347e+02	-1.926795e+01
1.183141e+02	-1.932019e+01
1.189975e+02	-1.936788e+01
1.196848e+02	-1.941786e+01
1.203761e+02	-1.946926e+01
1.210714e+02	-1.951602e+01
1.217707e+02	-1.956419e+01
1.224740e+02	-1.961564e+01
1.231814e+02	-1.966376e+01
1.238929e+02	-1.971418e+01
1.246085e+02	-1.976410e+01
1.253283e+02	-1.981334e+01
1.260522e+02	-1.986307e+01
1.267802e+02	-1.991114e+01
1.275125e+02	-1.996291e+01
1.282490e+02	-2.001255e+01
1.289898e+02	-2.006166e+01
1.297348e+02	-2.011063e+01
1.304842e+02	-2.015978e+01
1.312378e+02	-2.021126e+01
1.319959e+02	-2.025975e+01
1.327583e+02	-2.030842e+01
1.335251e+02	-2.035690e+01
1.342963e+02	-2.040798e+01
1.350720e+02	-2.045716e+01
1.358522e+02	-2.050638e+01
1.366368e+02	-2.055496e+01
1.374260e+02	-2.060632e+01
1.382198e+02	-2.065526e+01
1.390182e+02	-2.070626e+01
1.398211e+02	-2.075475e+01
1.406287e+02	-2.080488e+01
1.414410e+02	-2.085381e+01
1.422579e+02	-2.090468e+01
1.430796e+02	-2.095334e+01
1.439060e+02	-2.100243e+01
1.447372e+02	-2.105316e+01
1.455732e+02	-2.110434e+01
1.464141e+02	-2.115306e+01
1.472597e+02	-2.120306e+01
1.481103e+02	-2.125114e+01
1.489658e+02	-2.130096e+01
1.498262e+02	-2.135098e+01
1.506916e+02	-2.140050e+01
1.515620e+02	-2.145075e+01
1.524374e+02	-2.150017e+01
1.533179e+02	-2.154859e+01
1.542034e+02	-2.159929e+01
1.550941e+02	-2.164746e+01
1.559899e+02	-2.170038e+01
1.568909e+02	-2.174731e+01
1.577971e+02	-2.179787e+01
1.587085e+02	-2.184694e+01
1.596252e+02	-2.189931e+01
1.605472e+02	-2.194921e+01
1.614745e+02	-2.199673e+01
1.624072e+02	-2.204555e+01
1.633453e+02	-2.209648e+01
1.642887e+02	-2.214627e+01
1.652377e+02	-2.219712e+01
1.661921e+02	-2.224462e+01
1.671520e+02	-2.229570e+01
1.681175e+02	-2.234620e+01
1.690885e+02	-2.239399e+01
1.700651e+02	-2.244598e+01
1.710474e+02	-2.249526e+01
1.720354e+02	-2.254474e+01
1.730291e+02	-2.259605e+01
1.740285e+02	-2.264602e+01
1.750337e+02	-2.269400e+01
1.760446e+02	-2.274260e+01
1.770615e+02	-2.279267e+01
1.780842e+02	-2.284282e+01
1.791128e+02	-2.289403e+01
1.801473e+02	-2.294416e+01
1.811878e+02	-2.299353e+01
1.822344e+02	-2.304272e+01
1.832870e+02	-2.309318e+01
1.843456e+02	-2.314087e+01
1.854104e+02	-2.319068e+01
1.864813e+02	-2.324148e+01
1.875584e+02	-2.329180e+01
1.886418e+02	-2.334110e+01
1.897313e+02	-2.338998e+01
1.908272e+02	-2.344248e+01
1.919294e+02	-2.348968e+01
1.930380e+02	-2.354077e+01
1.941530e+02	-2.359038e+01
1.952744e+02	-2.364315e+01
1.964023e+02	-2.368970e+01
1.975367e+02	-2.373970e+01
1.986777e+02	-2.379044e+01
1.998252e+02	-2.383943e+01
2.009794e+02	-2.388888e+01
2.021403e+02	-2.394044e+01
2.033078e+02	-2.398996e+01
2.044821e+02	-2.403949e+01
2.056632e+02	-2.408890e+01
2.068511e+02	-2.414084e+01
2.080459e+02	-2.418644e+01
2.092475e+02	-2.423808e+01
2.104561e+02	-2.428677e+01
2.116717e+02	-2.433832e+01
2.128943e+02	-2.438798e+01
2.141240e+02	-2.443949e+01
2.153608e+02	-2.448746e+01
2.166047e+02	-2.454046e+01
2.178558e+02	-2.458486e+01
2.191141e+02	-2.463595e+01
2.203797e+02	-2.468836e+01
2.216526e+02	-2.473541e+01
2.229329e+02	-2.478330e+01
2.242205e+02	-2.483834e+01
2.255156e+02	-2.488593e+01
2.268182e+02	-2.493478e+01
2.281283e+02	-2.498471e+01
2.294459e+02	-2.503985e+01
2.307712e+02	-2.508799e+01
2.321041e+02	-2.513567e+01
2.334447e+02	-2.518510e+01
2.347931e+02	-2.523479e+01
2.361493e+02	-2.528577e+01
2.375133e+02	-2.533716e+01
2.388851e+02	-2.538531e+01
2.402649e+02	-2.543799e+01
2.416527e+02	-2.548632e+01
2.430484e+02	-2.553820e+01
2.444523e+02	-2.558511e+01
2.458642e+02	-2.563623e+01
2.472843e+02	-2.568880e+01
2.487126e+02	-2.573714e+01
2.501492e+02	-2.578572e+01
2.515940e+02	-2.583370e+01
2.530472e+02	-2.588634e+01
2.545088e+02	-2.593536e+01
2.559789e+02	-2.598541e+01
2.574574e+02	-2.603399e+01
2.589444e+02	-2.608464e+01
2.604401e+02	-2.613459e+01
2.619444e+02	-2.618159e+01
2.634574e+02	-2.623674e+01
2.649791e+02	-2.628406e+01
2.665096e+02	-2.633745e+01
2.680489e+02	-2.638808e+01
2.695972e+02	-2.643259e+01
2.711544e+02	-2.648503e+01
2.727205e+02	-2.653543e+01
2.742958e+02	-2.658342e+01
2.758801e+02	-2.663575e+01
2.774736e+02	-2.668517e+01
2.790762e+02	-2.673578e+01
2.806882e+02	-2.678845e+01
2.823094e+02	-2.683644e+01
2.839400e+02	-2.688392e+01
2.855800e+02	-2.693278e+01
2.872295e+02	-2.698404e+01
2.888886e+02	-2.703106e+01
2.905572e+02	-2.708623e+01
2.922354e+02	-2.713305e+01
2.939234e+02	-2.718223e+01
2.956211e+02	-2.723590e+01
2.973286e+02	-2.728359e+01
2.990459e+02	-2.733612e+01
3.007732e+02	-2.738654e+01
3.025104e+02	-2.743560e+01
3.042577e+02	-2.748950e+01
3.060151e+02	-2.753515e+01
3.077826e+02	-2.758416e+01
3.095604e+02	-2.763935e+01
3.113484e+02	-2.768581e+01
3.131467e+02	-2.773180e+01
3.149554e+02	-2.778322e+01
3.167746e+02	-2.783645e+01
3.186043e+02	-2.788133e+01
3.204445e+02	-2.793395e+01
3.222954e+02	-2.798205e+01
3.241570e+02	-2.803642e+01
3.260293e+02	-2.808718e+01
3.279124e+02	-2.813653e+01
3.298064e+02	-2.818293e+01
3.317114e+02	-2.823202e+01
3.336273e+02	-2.828652e+01
3.355544e+02	-2.833829e+01
3.374925e+02	-2.838282e+01
3.394418e+02	-2.843362e+01
3.414024e+02	-2.848538e+01
3.433744e+02	-2.853898e+01
3.453577e+02	-2.858168e+01
3.473525e+02	-2.863506e+01
3.493588e+02	-2.868512e+01
3.513766e+02	-2.873598e+01
3.534062e+02	-2.878966e+01
3.554474e+02	-2.883957e+01
3.575005e+02	-2.888549e+01
3.595654e+02	-2.893274e+01
3.616422e+02	-2.898894e+01
3.637311e+02	-2.903702e+01
3.658320e+02	-2.908954e+01
3.679450e+02	-2.913308e+01
3.700702e+02	-2.918695e+01
3.722077e+02	-2.923435e+01
3.743576e+02	-2.928740e+01
3.765199e+02	-2.933755e+01
3.786946e+02	-2.938820e+01
3.808820e+02	-2.943751e+01
3.830819e+02	-2.948928e+01
3.852946e+02	-2.953853e+01
3.875200e+02	-2.958638e+01
3.897583e+02	-2.963513e+01
3.920096e+02	-2.968874e+01
3.942738e+02	-2.974041e+01
3.965511e+02	-2.978956e+01
3.988416e+02	-2.983529e+01
4.011452e+02	-2.989052e+01
4.034622e+02	-2.993618e+01
4.057926e+02	-2.998926e+01
4.081365e+02	-3.003863e+01
4.104938e+02	-3.008683e+01
4.128648e+02	-3.014072e+01
4.152495e+02	-3.018854e+01
4.176480e+02	-3.024030e+01
4.200603e+02	-3.029481e+01
4.224866e+02	-3.034037e+01
4.249268e+02	-3.039114e+01
4.273812e+02	-3.044003e+01
4.298497e+02	-3.049538e+01
4.323325e+02	-3.053680e+01
4.348297e+02	-3.058747e+01
4.373412e+02	-3.063614e+01
4.398673e+02	-3.069022e+01
4.424079e+02	-3.073851e+01
4.449633e+02	-3.079136e+01
4.475334e+02	-3.083974e+01
4.501183e+02	-3.089094e+01
4.527182e+02	-3.094169e+01
4.553330e+02	-3.098880e+01
4.579630e+02	-3.104262e+01
4.606082e+02	-3.109282e+01
4.632687e+02	-3.114134e+01
4.659445e+02	-3.119447e+01
4.686358e+02	-3.124037e+01
4.713426e+02	-3.129223e+01
4.740650e+02	-3.134401e+01
4.768032e+02	-3.139739e+01
4.795572e+02	-3.143880e+01
4.823271e+02	-3.149714e+01
4.851130e+02	-3.154007e+01
4.879150e+02	-3.159503e+01
4.907332e+02	-3.164014e+01
4.935676e+02	-3.169499e+01
4.964185e+02	-3.174186e+01
4.992858e+02	-3.179450e+01
5.021696e+02	-3.184518e+01
5.050701e+02	-3.190049e+01
5.079874e+02	-3.194924e+01
5.109215e+02	-3.199401e+01
5.138726e+02	-3.204659e+01
5.168407e+02	-3.209427e+01
5.198259e+02	-3.213880e+01
5.228284e+02	-3.219899e+01
5.258482e+02	-3.224051e+01
5.288855e+02	-3.229841e+01
5.319403e+02	-3.234719e+01
5.350128e+02	-3.239746e+01
5.381030e+02	-3.244951e+01
5.412111e+02	-3.249310e+01
5.443371e+02	-3.253937e+01
5.474812e+02	-3.259502e+01
5.506434e+02	-3.264463e+01
5.538239e+02	-3.269773e+01
5.570228e+02	-3.274626e+01
5.602401e+02	-3.279991e+01
5.634760e+02	-3.284877e+01
5.667306e+02	-3.290083e+01
5.700040e+02	-3.294901e+01
5.732964e+02	-3.299971e+01
5.766077e+02	-3.304965e+01
5.799382e+02	-3.309652e+01
5.832879e+02	-3.315145e+01
5.866569e+02	-3.319790e+01
5.900454e+02	-3.324508e+01
5.934535e+02	-3.329660e+01
5.968813e+02	-3.334679e+01
6.003288e+02	-3.340152e+01
6.037963e+02	-3.345211e+01
6.072838e+02	-3.350724e+01
6.107914e+02	-3.355121e+01
6.143194e+02	-3.360591e+01
6.178676e+02	-3.365230e+01
6.214364e+02	-3.370801e+01
6.250258e+02	-3.375527e+01
6.286359e+02	-3.379939e+01
6.322669e+02	-3.385599e+01
6.359189e+02	-3.391122e+01
6.395919e+02	-3.396583e+01
6.432862e+02	-3.400927e+01
6.470017e+02	-3.405539e+01
6.507388e+02	-3.410435e+01
6.544974e+02	-3.415479e+01
6.582778e+02	-3.420845e+01
6.620800e+02	-3.426423e+01
6.659041e+02	-3.430420e+01
6.697504e+02	-3.435799e+01
6.736188e+02	-3.441060e+01
6.775096e+02	-3.445466e+01
6.814229e+02	-3.451159e+01
6.853587e+02	-3.455355e+01
6.893173e+02	-3.461339e+01
6.932988e+02	-3.466426e+01
6.973033e+02	-3.471940e+01
7.013309e+02	-3.476148e+01
