Frequency(Hz)	Magnitude(dB)
1.000000e+01	-2.543066e+00
1.005776e+01	-2.565120e+00
1.011585e+01	-2.587522e+00
1.017428e+01	-2.610258e+00
1.023305e+01	-2.632984e+00
1.029215e+01	-2.655855e+00
1.035160e+01	-2.678759e+00
1.041139e+01	-2.701875e+00
1.047153e+01	-2.725079e+00
1.053201e+01	-2.748422e+00
1.059284e+01	-2.771935e+00
1.065403e+01	-2.795603e+00
1.071556e+01	-2.819437e+00
1.077746e+01	-2.843662e+00
1.083971e+01	-2.867576e+00
1.090232e+01	-2.891901e+00
1.096529e+01	-2.916135e+00
1.102862e+01	-2.940619e+00
1.109232e+01	-2.965532e+00
1.115639e+01	-2.990381e+00
1.122083e+01	-3.015134e+00
1.128564e+01	-3.040341e+00
1.135083e+01	-3.065689e+00
1.141639e+01	-3.091179e+00
1.148233e+01	-3.116656e+00
1.154865e+01	-3.142537e+00
1.161536e+01	-3.168095e+00
1.168245e+01	-3.193981e+00
1.174992e+01	-3.220007e+00
1.181779e+01	-3.246503e+00
1.188605e+01	-3.272905e+00
1.195470e+01	-3.299284e+00
1.202375e+01	-3.326063e+00
1.209320e+01	-3.353122e+00
1.216305e+01	-3.380054e+00
1.223330e+01	-3.406966e+00
1.230396e+01	-3.434082e+00
1.237503e+01	-3.461858e+00
1.244651e+01	-3.489205e+00
1.251840e+01	-3.517020e+00
1.259070e+01	-3.544855e+00
1.266343e+01	-3.572608e+00
1.273657e+01	-3.601054e+00
1.281014e+01	-3.629134e+00
1.288413e+01	-3.657420e+00
1.295855e+01	-3.686171e+00
1.303339e+01	-3.714676e+00
1.310867e+01	-3.743599e+00
1.318439e+01	-3.772572e+00
1.326054e+01	-3.801439e+00
1.333713e+01	-3.830793e+00
1.341417e+01	-3.860586e+00
1.349165e+01	-3.889766e+00
1.356958e+01	-3.919600e+00
1.364795e+01	-3.949223e+00
1.372678e+01	-3.979383e+00
1.380607e+01	-4.009411e+00
1.388581e+01	-4.039446e+00
1.396602e+01	-4.069944e+00
1.404668e+01	-4.100457e+00
1.412782e+01	-4.131013e+00
1.420942e+01	-4.161790e+00
1.429149e+01	-4.192948e+00
1.437404e+01	-4.223792e+00
1.445706e+01	-4.255228e+00
1.454057e+01	-4.286237e+00
1.462455e+01	-4.317653e+00
1.470902e+01	-4.349130e+00
1.479398e+01	-4.381100e+00
1.487943e+01	-4.412736e+00
1.496537e+01	-4.444959e+00
1.505181e+01	-4.476627e+00
1.513875e+01	-4.509267e+00
1.522619e+01	-4.541626e+00
1.531414e+01	-4.574152e+00
1.540259e+01	-4.606566e+00
1.549156e+01	-4.639319e+00
1.558103e+01	-4.672514e+00
1.567103e+01	-4.705536e+00
1.576155e+01	-4.738847e+00
1.585258e+01	-4.771953e+00
1.594415e+01	-4.805331e+00
1.603624e+01	-4.838795e+00
1.612886e+01	-4.872345e+00
1.622202e+01	-4.906433e+00
1.631572e+01	-4.940305e+00
1.640996e+01	-4.974269e+00
1.650474e+01	-5.008467e+00
1.660008e+01	-5.042558e+00
1.669596e+01	-5.077234e+00
1.679239e+01	-5.111877e+00
1.688938e+01	-5.146454e+00
1.698694e+01	-5.181377e+00
1.708505e+01	-5.216179e+00
1.718373e+01	-5.251358e+00
1.728299e+01	-5.286257e+00
1.738281e+01	-5.321662e+00
1.748322e+01	-5.357236e+00
1.758420e+01	-5.392752e+00
1.768576e+01	-5.428472e+00
1.778792e+01	-5.463690e+00
1.789066e+01	-5.499610e+00
1.799399e+01	-5.535496e+00
1.809793e+01	-5.571844e+00
1.820246e+01	-5.608231e+00
1.830760e+01	-5.644347e+00
1.841334e+01	-5.680665e+00
1.851969e+01	-5.717339e+00
1.862666e+01	-5.754055e+00
1.873425e+01	-5.790679e+00
1.884246e+01	-5.827580e+00
1.895129e+01	-5.864639e+00
1.906075e+01	-5.901860e+00
1.917085e+01	-5.938714e+00
1.928158e+01	-5.976133e+00
1.939295e+01	-6.014063e+00
1.950496e+01	-6.051162e+00
1.961762e+01	-6.089025e+00
1.973093e+01	-6.126997e+00
1.984490e+01	-6.164424e+00
1.995952e+01	-6.202451e+00
2.007480e+01	-6.241038e+00
2.019076e+01	-6.279174e+00
2.030738e+01	-6.317052e+00
2.042467e+01	-6.355831e+00
2.054264e+01	-6.394139e+00
2.066130e+01	-6.432711e+00
2.078064e+01	-6.471420e+00
2.090066e+01	-6.510146e+00
2.102139e+01	-6.549338e+00
2.114280e+01	-6.587925e+00
2.126492e+01	-6.627101e+00
2.138775e+01	-6.666614e+00
2.151128e+01	-6.705941e+00
2.163553e+01	-6.745207e+00
2.176050e+01	-6.784397e+00
2.188619e+01	-6.824681e+00
2.201260e+01	-6.864215e+00
2.213974e+01	-6.903745e+00
2.226762e+01	-6.943888e+00
2.239624e+01	-6.983443e+00
2.252560e+01	-7.023424e+00
2.265571e+01	-7.063850e+00
2.278656e+01	-7.103557e+00
2.291818e+01	-7.144268e+00
2.305055e+01	-7.184627e+00
2.318369e+01	-7.225052e+00
2.331760e+01	-7.265861e+00
2.345228e+01	-7.306452e+00
2.358774e+01	-7.347277e+00
2.372398e+01	-7.387982e+00
2.386101e+01	-7.428778e+00
2.399883e+01	-7.469866e+00
2.413745e+01	-7.511082e+00
2.427686e+01	-7.552488e+00
2.441709e+01	-7.593911e+00
2.455812e+01	-7.634898e+00
2.469997e+01	-7.676075e+00
2.484263e+01	-7.718166e+00
2.498612e+01	-7.759559e+00
2.513044e+01	-7.801310e+00
2.527559e+01	-7.842862e+00
2.542158e+01	-7.884887e+00
2.556842e+01	-7.926935e+00
2.571610e+01	-7.968478e+00
2.586463e+01	-8.010478e+00
2.601403e+01	-8.053478e+00
2.616428e+01	-8.095268e+00
2.631541e+01	-8.137379e+00
2.646740e+01	-8.179933e+00
2.662028e+01	-8.222188e+00
2.677404e+01	-8.265000e+00
2.692868e+01	-8.307468e+00
2.708422e+01	-8.349766e+00
2.724066e+01	-8.392770e+00
2.739800e+01	-8.436104e+00
2.755625e+01	-8.478634e+00
2.771541e+01	-8.521740e+00
2.787550e+01	-8.565217e+00
2.803650e+01	-8.607544e+00
2.819844e+01	-8.651047e+00
2.836131e+01	-8.694120e+00
2.852513e+01	-8.737196e+00
2.868989e+01	-8.780866e+00
2.885560e+01	-8.824128e+00
2.902227e+01	-8.867866e+00
2.918990e+01	-8.911110e+00
2.935850e+01	-8.954997e+00
2.952807e+01	-8.998668e+00
2.969863e+01	-9.042829e+00
2.987016e+01	-9.085888e+00
3.004269e+01	-9.129850e+00
3.021622e+01	-9.173841e+00
3.039075e+01	-9.217866e+00
3.056628e+01	-9.262499e+00
3.074283e+01	-9.306353e+00
3.092040e+01	-9.350813e+00
3.109900e+01	-9.395161e+00
3.127862e+01	-9.439112e+00
3.145929e+01	-9.483483e+00
3.164099e+01	-9.527589e+00
3.182375e+01	-9.572308e+00
3.200756e+01	-9.616481e+00
3.219244e+01	-9.661503e+00
3.237838e+01	-9.706195e+00
3.256540e+01	-9.750866e+00
3.275349e+01	-9.795204e+00
3.294268e+01	-9.840534e+00
3.313295e+01	-9.885353e+00
3.332433e+01	-9.930300e+00
3.351681e+01	-9.974890e+00
3.371040e+01	-1.001977e+01
3.390511e+01	-1.006512e+01
3.410094e+01	-1.011049e+01
3.429791e+01	-1.015601e+01
3.449601e+01	-1.020087e+01
3.469526e+01	-1.024547e+01
3.489566e+01	-1.029100e+01
3.509721e+01	-1.033643e+01
3.529993e+01	-1.038181e+01
3.550382e+01	-1.042746e+01
3.570889e+01	-1.047308e+01
3.591515e+01	-1.051807e+01
3.612259e+01	-1.056372e+01
3.633123e+01	-1.060984e+01
3.654108e+01	-1.065557e+01
3.675214e+01	-1.070087e+01
3.696442e+01	-1.074756e+01
3.717792e+01	-1.079293e+01
3.739266e+01	-1.083898e+01
3.760864e+01	-1.088463e+01
3.782587e+01	-1.093050e+01
3.804435e+01	-1.097667e+01
3.826409e+01	-1.102303e+01
3.848510e+01	-1.106829e+01
3.870739e+01	-1.111466e+01
3.893096e+01	-1.116147e+01
3.915583e+01	-1.120747e+01
3.938199e+01	-1.125352e+01
3.960946e+01	-1.129930e+01
3.983824e+01	-1.134567e+01
4.006834e+01	-1.139268e+01
4.029978e+01	-1.143902e+01
4.053255e+01	-1.148566e+01
4.076666e+01	-1.153227e+01
4.100213e+01	-1.157820e+01
4.123896e+01	-1.162515e+01
4.147715e+01	-1.167226e+01
4.171672e+01	-1.171788e+01
4.195767e+01	-1.176533e+01
4.220002e+01	-1.181142e+01
4.244377e+01	-1.185853e+01
4.268892e+01	-1.190497e+01
4.293549e+01	-1.195195e+01
4.318348e+01	-1.199900e+01
4.343291e+01	-1.204648e+01
4.368377e+01	-1.209249e+01
4.393609e+01	-1.213947e+01
4.418986e+01	-1.218674e+01
4.444510e+01	-1.223322e+01
4.470182e+01	-1.228054e+01
4.496001e+01	-1.232745e+01
4.521970e+01	-1.237509e+01
4.548089e+01	-1.242253e+01
4.574358e+01	-1.246880e+01
4.600779e+01	-1.251645e+01
4.627353e+01	-1.256369e+01
4.654081e+01	-1.261091e+01
4.680963e+01	-1.265819e+01
4.708000e+01	-1.270543e+01
4.735193e+01	-1.275317e+01
4.762543e+01	-1.280039e+01
4.790051e+01	-1.284846e+01
4.817719e+01	-1.289454e+01
4.845545e+01	-1.294265e+01
4.873533e+01	-1.299068e+01
4.901682e+01	-1.303727e+01
4.929994e+01	-1.308473e+01
4.958470e+01	-1.313255e+01
4.987110e+01	-1.318134e+01
5.015915e+01	-1.322863e+01
5.044887e+01	-1.327539e+01
5.074026e+01	-1.332371e+01
5.103333e+01	-1.337104e+01
5.132810e+01	-1.341883e+01
5.162457e+01	-1.346626e+01
5.192275e+01	-1.351424e+01
5.222265e+01	-1.356252e+01
5.252429e+01	-1.360956e+01
5.282767e+01	-1.365776e+01
5.313280e+01	-1.370587e+01
5.343969e+01	-1.375394e+01
5.374836e+01	-1.380209e+01
5.405880e+01	-1.384981e+01
5.437105e+01	-1.389762e+01
5.468509e+01	-1.394644e+01
5.500095e+01	-1.399421e+01
5.531863e+01	-1.404122e+01
5.563815e+01	-1.409021e+01
5.595951e+01	-1.413746e+01
5.628273e+01	-1.418574e+01
5.660782e+01	-1.423504e+01
5.693479e+01	-1.428191e+01
5.726364e+01	-1.432992e+01
5.759439e+01	-1.437827e+01
5.792705e+01	-1.442796e+01
5.826164e+01	-1.447468e+01
5.859815e+01	-1.452226e+01
5.893662e+01	-1.457149e+01
5.927703e+01	-1.462046e+01
5.961941e+01	-1.466820e+01
5.996377e+01	-1.471632e+01
6.031012e+01	-1.476495e+01
6.065847e+01	-1.481322e+01
6.100883e+01	-1.486231e+01
6.136121e+01	-1.491021e+01
6.171563e+01	-1.495835e+01
6.207210e+01	-1.500735e+01
6.243063e+01	-1.505534e+01
6.279122e+01	-1.510367e+01
6.315390e+01	-1.515247e+01
6.351868e+01	-1.520069e+01
6.388556e+01	-1.524879e+01
6.425456e+01	-1.529857e+01
6.462569e+01	-1.534645e+01
6.499897e+01	-1.539611e+01
6.537440e+01	-1.544308e+01
6.575200e+01	-1.549285e+01
6.613178e+01	-1.554059e+01
6.651375e+01	-1.558983e+01
6.689793e+01	-1.563814e+01
6.728433e+01	-1.568698e+01
6.767297e+01	-1.573440e+01
6.806384e+01	-1.578445e+01
6.845698e+01	-1.583316e+01
6.885238e+01	-1.588216e+01
6.925007e+01	-1.593076e+01
6.965005e+01	-1.598022e+01
7.005235e+01	-1.602785e+01
7.045697e+01	-1.607696e+01
7.086393e+01	-1.612595e+01
7.127323e+01	-1.617368e+01
7.168490e+01	-1.622230e+01
7.209895e+01	-1.627212e+01
7.251539e+01	-1.632110e+01
7.293424e+01	-1.637022e+01
7.335551e+01	-1.641717e+01
7.377920e+01	-1.646779e+01
7.420535e+01	-1.651540e+01
7.463396e+01	-1.656532e+01
7.506504e+01	-1.661369e+01
7.549861e+01	-1.666342e+01
7.593469e+01	-1.671217e+01
7.637328e+01	-1.676102e+01
7.681441e+01	-1.680989e+01
7.725809e+01	-1.685793e+01
7.770433e+01	-1.690833e+01
7.815315e+01	-1.695731e+01
7.860456e+01	-1.700581e+01
7.905857e+01	-1.705615e+01
7.951521e+01	-1.710510e+01
7.997449e+01	-1.715302e+01
8.043642e+01	-1.720264e+01
8.090102e+01	-1.725100e+01
8.136830e+01	-1.730050e+01
8.183828e+01	-1.735011e+01
8.231097e+01	-1.739861e+01
8.278640e+01	-1.744750e+01
8.326457e+01	-1.749714e+01
8.374550e+01	-1.754727e+01
8.422921e+01	-1.759401e+01
8.471572e+01	-1.764423e+01
8.520503e+01	-1.769469e+01
8.569717e+01	-1.774307e+01
8.619215e+01	-1.779155e+01
8.669000e+01	-1.784229e+01
8.719071e+01	-1.788937e+01
8.769432e+01	-1.794060e+01
8.820084e+01	-1.798852e+01
8.871029e+01	-1.803850e+01
8.922267e+01	-1.808764e+01
8.973802e+01	-1.813772e+01
9.025634e+01	-1.818485e+01
9.077766e+01	-1.823525e+01
9.130199e+01	-1.828430e+01
9.182935e+01	-1.833295e+01
9.235975e+01	-1.838346e+01
9.289321e+01	-1.843304e+01
9.342976e+01	-1.848281e+01
9.396941e+01	-1.853007e+01
9.451217e+01	-1.857949e+01
9.505807e+01	-1.862996e+01
9.560712e+01	-1.867820e+01
9.615934e+01	-1.872757e+01
9.671476e+01	-1.877638e+01
9.727338e+01	-1.882699e+01
9.783522e+01	-1.887664e+01
9.840032e+01	-1.892605e+01
9.896867e+01	-1.897416e+01
9.954031e+01	-1.902411e+01
1.001153e+02	-1.907607e+01
1.006935e+02	-1.912314e+01
1.012751e+02	-1.917287e+01
1.018601e+02	-1.922218e+01
1.024484e+02	-1.927193e+01
1.030402e+02	-1.931997e+01
1.036353e+02	-1.937005e+01
1.042339e+02	-1.942003e+01
1.048360e+02	-1.946893e+01
1.054415e+02	-1.952001e+01
1.060505e+02	-1.956810e+01
1.066631e+02	-1.961805e+01
1.072791e+02	-1.966770e+01
1.078988e+02	-1.971740e+01
1.085220e+02	-1.976625e+01
1.091488e+02	-1.981661e+01
1.097793e+02	-1.986642e+01
1.104133e+02	-1.991449e+01
1.110511e+02	-1.996444e+01
1.116925e+02	-2.001478e+01
1.123376e+02	-2.006364e+01
1.129865e+02	-2.011234e+01
1.136391e+02	-2.016182e+01
1.142955e+02	-2.021148e+01
1.149556e+02	-2.026146e+01
1.156196e+02	-2.031152e+01
1.162874e+02	-2.036177e+01
1.169591e+02	-2.041142e+01
1.176347e+02	-2.046090e+01
1.183141e+02	-2.050940e+01
1.189975e+02	-2.055925e+01
1.196848e+02	-2.060911e+01
1.203761e+02	-2.065886e+01
1.210714e+02	-2.070624e+01
1.217707e+02	-2.075879e+01
1.224740e+02	-2.080759e+01
1.231814e+02	-2.085658e+01
1.238929e+02	-2.090720e+01
1.246085e+02	-2.095538e+01
1.253283e+02	-2.100661e+01
1.260522e+02	-2.105830e+01
1.267802e+02	-2.110421e+01
1.275125e+02	-2.115319e+01
1.282490e+02	-2.120365e+01
1.289898e+02	-2.125435e+01
1.297348e+02	-2.130336e+01
1.304842e+02	-2.135430e+01
1.312378e+02	-2.140355e+01
1.319959e+02	-2.145212e+01
1.327583e+02	-2.150012e+01
1.335251e+02	-2.155288e+01
1.342963e+02	-2.160349e+01
1.350720e+02	-2.164952e+01
1.358522e+02	-2.169969e+01
1.366368e+02	-2.175129e+01
1.374260e+02	-2.180100e+01
1.382198e+02	-2.185110e+01
1.390182e+02	-2.190022e+01
1.398211e+02	-2.195306e+01
1.406287e+02	-2.200079e+01
1.414410e+02	-2.205059e+01
1.422579e+02	-2.209906e+01
1.430796e+02	-2.214860e+01
1.439060e+02	-2.219950e+01
1.447372e+02	-2.224772e+01
1.455732e+02	-2.229830e+01
1.464141e+02	-2.234812e+01
1.472597e+02	-2.239856e+01
1.481103e+02	-2.244753e+01
1.489658e+02	-2.249699e+01
1.498262e+02	-2.254642e+01
1.506916e+02	-2.259694e+01
1.515620e+02	-2.264696e+01
1.524374e+02	-2.269726e+01
1.533179e+02	-2.274694e+01
1.542034e+02	-2.279818e+01
1.550941e+02	-2.284648e+01
1.559899e+02	-2.289551e+01
1.568909e+02	-2.294523e+01
1.577971e+02	-2.299589e+01
1.587085e+02	-2.304615e+01
1.596252e+02	-2.309395e+01
1.605472e+02	-2.314512e+01
1.614745e+02	-2.319576e+01
1.624072e+02	-2.324528e+01
1.633453e+02	-2.329206e+01
1.642887e+02	-2.334388e+01
1.652377e+02	-2.339181e+01
1.661921e+02	-2.344306e+01
1.671520e+02	-2.349104e+01
1.681175e+02	-2.354238e+01
1.690885e+02	-2.359405e+01
1.700651e+02	-2.364314e+01
1.710474e+02	-2.369309e+01
1.720354e+02	-2.374130e+01
1.730291e+02	-2.379101e+01
1.740285e+02	-2.384205e+01
1.750337e+02	-2.389024e+01
1.760446e+02	-2.394266e+01
1.770615e+02	-2.399220e+01
1.780842e+02	-2.404399e+01
1.791128e+02	-2.408972e+01
1.801473e+02	-2.414095e+01
1.811878e+02	-2.419139e+01
1.822344e+02	-2.424077e+01
1.832870e+02	-2.429376e+01
1.843456e+02	-2.434008e+01
1.854104e+02	-2.439015e+01
1.864813e+02	-2.444046e+01
1.875584e+02	-2.449045e+01
1.886418e+02	-2.454101e+01
1.897313e+02	-2.459002e+01
1.908272e+02	-2.463864e+01
1.919294e+02	-2.468986e+01
1.930380e+02	-2.474111e+01
1.941530e+02	-2.478967e+01
1.952744e+02	-2.483910e+01
1.964023e+02	-2.489209e+01
1.975367e+02	-2.493966e+01
1.986777e+02	-2.498954e+01
1.998252e+02	-2.503814e+01
2.009794e+02	-2.508942e+01
2.021403e+02	-2.513872e+01
2.033078e+02	-2.518576e+01
2.044821e+02	-2.523859e+01
2.056632e+02	-2.528784e+01
2.068511e+02	-2.533958e+01
2.080459e+02	-2.539199e+01
2.092475e+02	-2.544090e+01
2.104561e+02	-2.549197e+01
2.116717e+02	-2.554006e+01
2.128943e+02	-2.558827e+01
2.141240e+02	-2.563756e+01
2.153608e+02	-2.568704e+01
2.166047e+02	-2.573679e+01
2.178558e+02	-2.578541e+01
2.191141e+02	-2.583539e+01
2.203797e+02	-2.588622e+01
2.216526e+02	-2.593862e+01
2.229329e+02	-2.598755e+01
2.242205e+02	-2.603785e+01
2.255156e+02	-2.608592e+01
2.268182e+02	-2.613748e+01
2.281283e+02	-2.618568e+01
2.294459e+02	-2.623669e+01
2.307712e+02	-2.629058e+01
2.321041e+02	-2.633845e+01
2.334447e+02	-2.638596e+01
2.347931e+02	-2.643652e+01
2.361493e+02	-2.648947e+01
2.375133e+02	-2.653591e+01
2.388851e+02	-2.658531e+01
2.402649e+02	-2.663723e+01
2.416527e+02	-2.668532e+01
2.430484e+02	-2.673952e+01
2.444523e+02	-2.678729e+01
2.458642e+02	-2.683813e+01
2.472843e+02	-2.688641e+01
2.487126e+02	-2.693246e+01
2.501492e+02	-2.698819e+01
2.515940e+02	-2.703914e+01
2.530472e+02	-2.709034e+01
2.545088e+02	-2.713309e+01
2.559789e+02	-2.718711e+01
2.574574e+02	-2.723798e+01
2.589444e+02	-2.729156e+01
2.604401e+02	-2.733546e+01
2.619444e+02	-2.738634e+01
2.634574e+02	-2.743569e+01
2.649791e+02	-2.748728e+01
2.665096e+02	-2.753539e+01
2.680489e+02	-2.758687e+01
2.695972e+02	-2.763499e+01
2.711544e+02	-2.768556e+01
2.727205e+02	-2.773907e+01
2.742958e+02	-2.778756e+01
2.758801e+02	-2.783535e+01
2.774736e+02	-2.788495e+01
2.790762e+02	-2.793934e+01
2.806882e+02	-2.798125e+01
2.823094e+02	-2.803548e+01
2.839400e+02	-2.808789e+01
2.855800e+02	-2.813686e+01
2.872295e+02	-2.818648e+01
2.888886e+02	-2.823699e+01
2.905572e+02	-2.828651e+01
2.922354e+02	-2.833576e+01
2.939234e+02	-2.838710e+01
2.956211e+02	-2.843558e+01
2.973286e+02	-2.849087e+01
2.990459e+02	-2.853795e+01
3.007732e+02	-2.858437e+01
3.025104e+02	-2.863641e+01
3.042577e+02	-2.868692e+01
3.060151e+02	-2.873293e+01
3.077826e+02	-2.878995e+01
3.095604e+02	-2.884136e+01
3.113484e+02	-2.888796e+01
3.131467e+02	-2.893943e+01
3.149554e+02	-2.899289e+01
3.167746e+02	-2.903651e+01
3.186043e+02	-2.909113e+01
3.204445e+02	-2.913750e+01
3.222954e+02	-2.918807e+01
3.241570e+02	-2.923793e+01
3.260293e+02	-2.928799e+01
3.279124e+02	-2.933753e+01
3.298064e+02	-2.939148e+01
3.317114e+02	-2.944003e+01
3.336273e+02	-2.948439e+01
3.355544e+02	-2.953914e+01
3.374925e+02	-2.958471e+01
3.394418e+02	-2.963953e+01
3.414024e+02	-2.968867e+01
3.433744e+02	-2.974186e+01
3.453577e+02	-2.978805e+01
3.473525e+02	-2.984426e+01
3.493588e+02	-2.989242e+01
3.513766e+02	-2.994001e+01
3.534062e+02	-2.998980e+01
3.554474e+02	-3.004269e+01
3.575005e+02	-3.008781e+01
3.595654e+02	-3.013564e+01
3.616422e+02	-3.018809e+01
3.637311e+02	-3.024181e+01
3.658320e+02	-3.029168e+01
3.679450e+02	-3.033883e+01
3.700702e+02	-3.039133e+01
3.722077e+02	-3.043878e+01
3.743576e+02	-3.049241e+01
3.765199e+02	-3.053952e+01
3.786946e+02	-3.058912e+01
3.808820e+02	-3.064473e+01
3.830819e+02	-3.069403e+01
3.852946e+02	-3.073900e+01
3.875200e+02	-3.078829e+01
3.897583e+02	-3.084686e+01
3.920096e+02	-3.089079e+01
3.942738e+02	-3.093947e+01
3.965511e+02	-3.098221e+01
3.988416e+02	-3.103923e+01
4.011452e+02	-3.108722e+01
4.034622e+02	-3.113555e+01
4.057926e+02	-3.118859e+01
4.081365e+02	-3.124272e+01
4.104938e+02	-3.129569e+01
4.128648e+02	-3.133877e+01
4.152495e+02	-3.139034e+01
4.176480e+02	-3.144561e+01
4.200603e+02	-3.149494e+01
4.224866e+02	-3.154471e+01
4.249268e+02	-3.158944e+01
4.273812e+02	-3.164434e+01
4.298497e+02	-3.169534e+01
4.323325e+02	-3.174525e+01
4.348297e+02	-3.179346e+01
4.373412e+02	-3.184045e+01
4.398673e+02	-3.189857e+01
4.424079e+02	-3.194376e+01
4.449633e+02	-3.199410e+01
4.475334e+02	-3.204512e+01
4.501183e+02	-3.209274e+01
4.527182e+02	-3.214886e+01
4.553330e+02	-3.219345e+01
4.579630e+02	-3.224188e+01
4.606082e+02	-3.229665e+01
4.632687e+02	-3.233894e+01
4.659445e+02	-3.239816e+01
4.686358e+02	-3.245050e+01
4.713426e+02	-3.249658e+01
4.740650e+02	-3.255272e+01
4.768032e+02	-3.259413e+01
4.795572e+02	-3.264774e+01
4.823271e+02	-3.270132e+01
4.851130e+02	-3.274933e+01
4.879150e+02	-3.279429e+01
4.907332e+02	-3.284624e+01
4.935676e+02	-3.289771e+01
4.964185e+02	-3.294844e+01
4.992858e+02	-3.299346e+01
5.021696e+02	-3.304883e+01
5.050701e+02	-3.309593e+01
5.079874e+02	-3.314548e+01
5.109215e+02	-3.319770e+01
5.138726e+02	-3.325029e+01
5.168407e+02	-3.330474e+01
5.198259e+02	-3.334458e+01
5.228284e+02	-3.339757e+01
5.258482e+02	-3.345266e+01
5.288855e+02	-3.349731e+01
5.319403e+02	-3.355570e+01
5.350128e+02	-3.360009e+01
5.381030e+02	-3.365169e+01
5.412111e+02	-3.370027e+01
5.443371e+02	-3.375147e+01
5.474812e+02	-3.380268e+01
5.506434e+02	-3.384675e+01
5.538239e+02	-3.390295e+01
5.570228e+02	-3.395454e+01
5.602401e+02	-3.399246e+01
5.634760e+02	-3.405636e+01
5.667306e+02	-3.410279e+01
5.700040e+02	-3.415386e+01
5.732964e+02	-3.419737e+01
5.766077e+02	-3.424885e+01
5.799382e+02	-3.430932e+01
5.832879e+02	-3.434623e+01
5.866569e+02	-3.440659e+01
5.900454e+02	-3.445381e+01
5.934535e+02	-3.450710e+01
5.968813e+02	-3.455558e+01
6.003288e+02	-3.459985e+01
6.037963e+02	-3.465482e+01
6.072838e+02	-3.471344e+01
6.107914e+02	-3.475264e+01
6.143194e+02	-3.481325e+01
6.178676e+02	-3.486379e+01
6.214364e+02	-3.490962e+01
6.250258e+02	-3.495406e+01
6.286359e+02	-3.500647e+01
6.322669e+02	-3.506070e+01
6.359189e+02	-3.510981e+01
6.395919e+02	-3.516438e+01
6.432862e+02	-3.521526e+01
6.470017e+02	-3.525962e+01
6.507388e+02	-3.531228e+01
6.544974e+02	-3.536526e+01
6.582778e+02	-3.540692e+01
6.620800e+02	-3.546252e+01
6.659041e+02	-3.551664e+01
6.697504e+02	-3.555674e+01
6.736188e+02	-3.560683e+01
6.775096e+02	-3.565756e+01
6.814229e+02	-3.571216e+01
6.853587e+02	-3.576811e+01
6.893173e+02	-3.581052e+01
6.932988e+02	-3.586860e+01
6.973033e+02	-3.591663e+01
7.013309e+02	-3.596503e+01
