Frequency(Hz)	Magnitude(dB)
1.000000e+01	-1.740970e-05
1.005776e+01	-1.761140e-05
1.011585e+01	-1.781543e-05
1.017428e+01	-1.802183e-05
1.023305e+01	-1.823061e-05
1.029215e+01	-1.844182e-05
1.035160e+01	-1.865547e-05
1.041139e+01	-1.887160e-05
1.047153e+01	-1.909023e-05
1.053201e+01	-1.931140e-05
1.059284e+01	-1.953513e-05
1.065403e+01	-1.976145e-05
1.071556e+01	-1.999039e-05
1.077746e+01	-2.022198e-05
1.083971e+01	-2.045626e-05
1.090232e+01	-2.069325e-05
1.096529e+01	-2.093298e-05
1.102862e+01	-2.117550e-05
1.109232e+01	-2.142082e-05
1.115639e+01	-2.166899e-05
1.122083e+01	-2.192003e-05
1.128564e+01	-2.217398e-05
1.135083e+01	-2.243087e-05
1.141639e+01	-2.269074e-05
1.148233e+01	-2.295361e-05
1.154865e+01	-2.321954e-05
1.161536e+01	-2.348854e-05
1.168245e+01	-2.376066e-05
1.174992e+01	-2.403594e-05
1.181779e+01	-2.431440e-05
1.188605e+01	-2.459609e-05
1.195470e+01	-2.488104e-05
1.202375e+01	-2.516929e-05
1.209320e+01	-2.546088e-05
1.216305e+01	-2.575585e-05
1.223330e+01	-2.605424e-05
1.230396e+01	-2.635609e-05
1.237503e+01	-2.666143e-05
1.244651e+01	-2.697031e-05
1.251840e+01	-2.728276e-05
1.259070e+01	-2.759884e-05
1.266343e+01	-2.791858e-05
1.273657e+01	-2.824202e-05
1.281014e+01	-2.856922e-05
1.288413e+01	-2.890020e-05
1.295855e+01	-2.923501e-05
1.303339e+01	-2.957371e-05
1.310867e+01	-2.991633e-05
1.318439e+01	-3.026291e-05
1.326054e+01	-3.061352e-05
1.333713e+01	-3.096818e-05
1.341417e+01	-3.132695e-05
1.349165e+01	-3.168988e-05
1.356958e+01	-3.205702e-05
1.364795e+01	-3.242841e-05
1.372678e+01	-3.280410e-05
1.380607e+01	-3.318414e-05
1.388581e+01	-3.356859e-05
1.396602e+01	-3.395749e-05
1.404668e+01	-3.435089e-05
1.412782e+01	-3.474886e-05
1.420942e+01	-3.515143e-05
1.429149e+01	-3.555867e-05
1.437404e+01	-3.597062e-05
1.445706e+01	-3.638735e-05
1.454057e+01	-3.680891e-05
1.462455e+01	-3.723535e-05
1.470902e+01	-3.766673e-05
1.479398e+01	-3.810310e-05
1.487943e+01	-3.854454e-05
1.496537e+01	-3.899108e-05
1.505181e+01	-3.944281e-05
1.513875e+01	-3.989976e-05
1.522619e+01	-4.036201e-05
1.531414e+01	-4.082961e-05
1.540259e+01	-4.130263e-05
1.549156e+01	-4.178113e-05
1.558103e+01	-4.226517e-05
1.567103e+01	-4.275483e-05
1.576155e+01	-4.325015e-05
1.585258e+01	-4.375121e-05
1.594415e+01	-4.425808e-05
1.603624e+01	-4.477082e-05
1.612886e+01	-4.528950e-05
1.622202e+01	-4.581419e-05
1.631572e+01	-4.634496e-05
1.640996e+01	-4.688187e-05
1.650474e+01	-4.742501e-05
1.660008e+01	-4.797444e-05
1.669596e+01	-4.853023e-05
1.679239e+01	-4.909246e-05
1.688938e+01	-4.966121e-05
1.698694e+01	-5.023655e-05
1.708505e+01	-5.081855e-05
1.718373e+01	-5.140729e-05
1.728299e+01	-5.200286e-05
1.738281e+01	-5.260532e-05
1.748322e+01	-5.321476e-05
1.758420e+01	-5.383127e-05
1.768576e+01	-5.445491e-05
1.778792e+01	-5.508579e-05
1.789066e+01	-5.572397e-05
1.799399e+01	-5.636954e-05
1.809793e+01	-5.702259e-05
1.820246e+01	-5.768321e-05
1.830760e+01	-5.835148e-05
1.841334e+01	-5.902750e-05
1.851969e+01	-5.971134e-05
1.862666e+01	-6.040311e-05
1.873425e+01	-6.110289e-05
1.884246e+01	-6.181078e-05
1.895129e+01	-6.252687e-05
1.906075e+01	-6.325126e-05
1.917085e+01	-6.398403e-05
1.928158e+01	-6.472530e-05
1.939295e+01	-6.547516e-05
1.950496e+01	-6.623370e-05
1.961762e+01	-6.700103e-05
1.973093e+01	-6.777725e-05
1.984490e+01	-6.856246e-05
1.995952e+01	-6.935677e-05
2.007480e+01	-7.016028e-05
2.019076e+01	-7.097310e-05
2.030738e+01	-7.179534e-05
2.042467e+01	-7.262710e-05
2.054264e+01	-7.346850e-05
2.066130e+01	-7.431964e-05
2.078064e+01	-7.518065e-05
2.090066e+01	-7.605163e-05
2.102139e+01	-7.693270e-05
2.114280e+01	-7.782398e-05
2.126492e+01	-7.872558e-05
2.138775e+01	-7.963763e-05
2.151128e+01	-8.056025e-05
2.163553e+01	-8.149355e-05
2.176050e+01	-8.243767e-05
2.188619e+01	-8.339273e-05
2.201260e+01	-8.435884e-05
2.213974e+01	-8.533616e-05
2.226762e+01	-8.632479e-05
2.239624e+01	-8.732488e-05
2.252560e+01	-8.833655e-05
2.265571e+01	-8.935994e-05
2.278656e+01	-9.039519e-05
2.291818e+01	-9.144243e-05
2.305055e+01	-9.250181e-05
2.318369e+01	-9.357346e-05
2.331760e+01	-9.465752e-05
2.345228e+01	-9.575414e-05
2.358774e+01	-9.686347e-05
2.372398e+01	-9.798564e-05
2.386101e+01	-9.912082e-05
2.399883e+01	-1.002692e-04
2.413745e+01	-1.014308e-04
2.427686e+01	-1.026059e-04
2.441709e+01	-1.037946e-04
2.455812e+01	-1.049971e-04
2.469997e+01	-1.062135e-04
2.484263e+01	-1.074440e-04
2.498612e+01	-1.086887e-04
2.513044e+01	-1.099479e-04
2.527559e+01	-1.112216e-04
2.542158e+01	-1.125102e-04
2.556842e+01	-1.138136e-04
2.571610e+01	-1.151321e-04
2.586463e+01	-1.164660e-04
2.601403e+01	-1.178152e-04
2.616428e+01	-1.191801e-04
2.631541e+01	-1.205609e-04
2.646740e+01	-1.219576e-04
2.662028e+01	-1.233705e-04
2.677404e+01	-1.247997e-04
2.692868e+01	-1.262455e-04
2.708422e+01	-1.277081e-04
2.724066e+01	-1.291876e-04
2.739800e+01	-1.306843e-04
2.755625e+01	-1.321983e-04
2.771541e+01	-1.337298e-04
2.787550e+01	-1.352791e-04
2.803650e+01	-1.368463e-04
2.819844e+01	-1.384317e-04
2.836131e+01	-1.400354e-04
2.852513e+01	-1.416577e-04
2.868989e+01	-1.432989e-04
2.885560e+01	-1.449590e-04
2.902227e+01	-1.466383e-04
2.918990e+01	-1.483372e-04
2.935850e+01	-1.500557e-04
2.952807e+01	-1.517941e-04
2.969863e+01	-1.535526e-04
2.987016e+01	-1.553315e-04
3.004269e+01	-1.571311e-04
3.021622e+01	-1.589514e-04
3.039075e+01	-1.607929e-04
3.056628e+01	-1.626557e-04
3.074283e+01	-1.645401e-04
3.092040e+01	-1.664463e-04
3.109900e+01	-1.683746e-04
3.127862e+01	-1.703252e-04
3.145929e+01	-1.722984e-04
3.164099e+01	-1.742945e-04
3.182375e+01	-1.763137e-04
3.200756e+01	-1.783563e-04
3.219244e+01	-1.804226e-04
3.237838e+01	-1.825128e-04
3.256540e+01	-1.846272e-04
3.275349e+01	-1.867661e-04
3.294268e+01	-1.889298e-04
3.313295e+01	-1.911185e-04
3.332433e+01	-1.933327e-04
3.351681e+01	-1.955724e-04
3.371040e+01	-1.978381e-04
3.390511e+01	-2.001301e-04
3.410094e+01	-2.024486e-04
3.429791e+01	-2.047940e-04
3.449601e+01	-2.071665e-04
3.469526e+01	-2.095665e-04
3.489566e+01	-2.119944e-04
3.509721e+01	-2.144503e-04
3.529993e+01	-2.169347e-04
3.550382e+01	-2.194479e-04
3.570889e+01	-2.219902e-04
3.591515e+01	-2.245620e-04
3.612259e+01	-2.271635e-04
3.633123e+01	-2.297952e-04
3.654108e+01	-2.324573e-04
3.675214e+01	-2.351504e-04
3.696442e+01	-2.378746e-04
3.717792e+01	-2.406303e-04
3.739266e+01	-2.434180e-04
3.760864e+01	-2.462380e-04
3.782587e+01	-2.490907e-04
3.804435e+01	-2.519764e-04
3.826409e+01	-2.548955e-04
3.848510e+01	-2.578484e-04
3.870739e+01	-2.608356e-04
3.893096e+01	-2.638574e-04
3.915583e+01	-2.669141e-04
3.938199e+01	-2.700063e-04
3.960946e+01	-2.731343e-04
3.983824e+01	-2.762985e-04
4.006834e+01	-2.794994e-04
4.029978e+01	-2.827374e-04
4.053255e+01	-2.860129e-04
4.076666e+01	-2.893263e-04
4.100213e+01	-2.926781e-04
4.123896e+01	-2.960688e-04
4.147715e+01	-2.994987e-04
4.171672e+01	-3.029683e-04
4.195767e+01	-3.064782e-04
4.220002e+01	-3.100287e-04
4.244377e+01	-3.136203e-04
4.268892e+01	-3.172536e-04
4.293549e+01	-3.209289e-04
4.318348e+01	-3.246468e-04
4.343291e+01	-3.284078e-04
4.368377e+01	-3.322124e-04
4.393609e+01	-3.360610e-04
4.418986e+01	-3.399542e-04
4.444510e+01	-3.438925e-04
4.470182e+01	-3.478764e-04
4.496001e+01	-3.519065e-04
4.521970e+01	-3.559833e-04
4.548089e+01	-3.601073e-04
4.574358e+01	-3.642790e-04
4.600779e+01	-3.684991e-04
4.627353e+01	-3.727681e-04
4.654081e+01	-3.770866e-04
4.680963e+01	-3.814550e-04
4.708000e+01	-3.858741e-04
4.735193e+01	-3.903443e-04
4.762543e+01	-3.948664e-04
4.790051e+01	-3.994408e-04
4.817719e+01	-4.040682e-04
4.845545e+01	-4.087493e-04
4.873533e+01	-4.134845e-04
4.901682e+01	-4.182746e-04
4.929994e+01	-4.231202e-04
4.958470e+01	-4.280219e-04
4.987110e+01	-4.329804e-04
5.015915e+01	-4.379964e-04
5.044887e+01	-4.430704e-04
5.074026e+01	-4.482032e-04
5.103333e+01	-4.533955e-04
5.132810e+01	-4.586480e-04
5.162457e+01	-4.639612e-04
5.192275e+01	-4.693361e-04
5.222265e+01	-4.747732e-04
5.252429e+01	-4.802732e-04
5.282767e+01	-4.858370e-04
5.313280e+01	-4.914653e-04
5.343969e+01	-4.971587e-04
5.374836e+01	-5.029181e-04
5.405880e+01	-5.087442e-04
5.437105e+01	-5.146378e-04
5.468509e+01	-5.205996e-04
5.500095e+01	-5.266306e-04
5.531863e+01	-5.327314e-04
5.563815e+01	-5.389028e-04
5.595951e+01	-5.451458e-04
5.628273e+01	-5.514610e-04
5.660782e+01	-5.578494e-04
5.693479e+01	-5.643119e-04
5.726364e+01	-5.708491e-04
5.759439e+01	-5.774621e-04
5.792705e+01	-5.841518e-04
5.826164e+01	-5.909189e-04
5.859815e+01	-5.977643e-04
5.893662e+01	-6.046891e-04
5.927703e+01	-6.116941e-04
5.961941e+01	-6.187803e-04
5.996377e+01	-6.259485e-04
6.031012e+01	-6.331997e-04
6.065847e+01	-6.405350e-04
6.100883e+01	-6.479552e-04
6.136121e+01	-6.554614e-04
6.171563e+01	-6.630545e-04
6.207210e+01	-6.707356e-04
6.243063e+01	-6.785056e-04
6.279122e+01	-6.863657e-04
6.315390e+01	-6.943168e-04
6.351868e+01	-7.023600e-04
6.388556e+01	-7.104963e-04
6.425456e+01	-7.187270e-04
6.462569e+01	-7.270529e-04
6.499897e+01	-7.354753e-04
6.537440e+01	-7.439953e-04
6.575200e+01	-7.526139e-04
6.613178e+01	-7.613324e-04
6.651375e+01	-7.701518e-04
6.689793e+01	-7.790735e-04
6.728433e+01	-7.880984e-04
6.767297e+01	-7.972279e-04
6.806384e+01	-8.064632e-04
6.845698e+01	-8.158054e-04
6.885238e+01	-8.252558e-04
6.925007e+01	-8.348157e-04
6.965005e+01	-8.444863e-04
7.005235e+01	-8.542690e-04
7.045697e+01	-8.641649e-04
7.086393e+01	-8.741755e-04
7.127323e+01	-8.843020e-04
7.168490e+01	-8.945459e-04
7.209895e+01	-9.049083e-04
7.251539e+01	-9.153908e-04
7.293424e+01	-9.259948e-04
7.335551e+01	-9.367215e-04
7.377920e+01	-9.475725e-04
7.420535e+01	-9.585492e-04
7.463396e+01	-9.696530e-04
7.506504e+01	-9.808854e-04
7.549861e+01	-9.922479e-04
7.593469e+01	-1.003742e-03
7.637328e+01	-1.015369e-03
7.681441e+01	-1.027131e-03
7.725809e+01	-1.039029e-03
7.770433e+01	-1.051065e-03
7.815315e+01	-1.063241e-03
7.860456e+01	-1.075557e-03
7.905857e+01	-1.088016e-03
7.951521e+01	-1.100620e-03
7.997449e+01	-1.113369e-03
8.043642e+01	-1.126266e-03
8.090102e+01	-1.139312e-03
8.136830e+01	-1.152510e-03
8.183828e+01	-1.165860e-03
8.231097e+01	-1.179365e-03
8.278640e+01	-1.193027e-03
8.326457e+01	-1.206846e-03
8.374550e+01	-1.220826e-03
8.422921e+01	-1.234967e-03
8.471572e+01	-1.249273e-03
8.520503e+01	-1.263744e-03
8.569717e+01	-1.278383e-03
8.619215e+01	-1.293191e-03
8.669000e+01	-1.308170e-03
8.719071e+01	-1.323324e-03
8.769432e+01	-1.338652e-03
8.820084e+01	-1.354159e-03
8.871029e+01	-1.369844e-03
8.922267e+01	-1.385712e-03
8.973802e+01	-1.401763e-03
9.025634e+01	-1.418000e-03
9.077766e+01	-1.434426e-03
9.130199e+01	-1.451041e-03
9.182935e+01	-1.467849e-03
9.235975e+01	-1.484851e-03
9.289321e+01	-1.502051e-03
9.342976e+01	-1.519449e-03
9.396941e+01	-1.537049e-03
9.451217e+01	-1.554853e-03
9.505807e+01	-1.572864e-03
9.560712e+01	-1.591082e-03
9.615934e+01	-1.609512e-03
9.671476e+01	-1.628155e-03
9.727338e+01	-1.647014e-03
9.783522e+01	-1.666092e-03
9.840032e+01	-1.685390e-03
9.896867e+01	-1.704912e-03
9.954031e+01	-1.724660e-03
1.001153e+02	-1.744636e-03
1.006935e+02	-1.764844e-03
1.012751e+02	-1.785286e-03
1.018601e+02	-1.805965e-03
1.024484e+02	-1.826883e-03
1.030402e+02	-1.848044e-03
1.036353e+02	-1.869449e-03
1.042339e+02	-1.891102e-03
1.048360e+02	-1.913007e-03
1.054415e+02	-1.935164e-03
1.060505e+02	-1.957579e-03
1.066631e+02	-1.980253e-03
1.072791e+02	-2.003189e-03
1.078988e+02	-2.026391e-03
1.085220e+02	-2.049862e-03
1.091488e+02	-2.073604e-03
1.097793e+02	-2.097622e-03
1.104133e+02	-2.121917e-03
1.110511e+02	-2.146494e-03
1.116925e+02	-2.171356e-03
1.123376e+02	-2.196505e-03
1.129865e+02	-2.221946e-03
1.136391e+02	-2.247681e-03
1.142955e+02	-2.273714e-03
1.149556e+02	-2.300049e-03
1.156196e+02	-2.326688e-03
1.162874e+02	-2.353636e-03
1.169591e+02	-2.380896e-03
1.176347e+02	-2.408472e-03
1.183141e+02	-2.436367e-03
1.189975e+02	-2.464585e-03
1.196848e+02	-2.493129e-03
1.203761e+02	-2.522004e-03
1.210714e+02	-2.551214e-03
1.217707e+02	-2.580762e-03
1.224740e+02	-2.610651e-03
1.231814e+02	-2.640887e-03
1.238929e+02	-2.671473e-03
1.246085e+02	-2.702413e-03
1.253283e+02	-2.733712e-03
1.260522e+02	-2.765372e-03
1.267802e+02	-2.797399e-03
1.275125e+02	-2.829798e-03
1.282490e+02	-2.862571e-03
1.289898e+02	-2.895723e-03
1.297348e+02	-2.929260e-03
1.304842e+02	-2.963184e-03
1.312378e+02	-2.997502e-03
1.319959e+02	-3.032216e-03
1.327583e+02	-3.067333e-03
1.335251e+02	-3.102856e-03
1.342963e+02	-3.138790e-03
1.350720e+02	-3.175141e-03
1.358522e+02	-3.211912e-03
1.366368e+02	-3.249109e-03
1.374260e+02	-3.286736e-03
1.382198e+02	-3.324800e-03
1.390182e+02	-3.363303e-03
1.398211e+02	-3.402253e-03
1.406287e+02	-3.441653e-03
1.414410e+02	-3.481510e-03
1.422579e+02	-3.521827e-03
1.430796e+02	-3.562612e-03
1.439060e+02	-3.603869e-03
1.447372e+02	-3.645603e-03
1.455732e+02	-3.687820e-03
1.464141e+02	-3.730526e-03
1.472597e+02	-3.773726e-03
1.481103e+02	-3.817427e-03
1.489658e+02	-3.861633e-03
1.498262e+02	-3.906351e-03
1.506916e+02	-3.951586e-03
1.515620e+02	-3.997345e-03
1.524374e+02	-4.043634e-03
1.533179e+02	-4.090458e-03
1.542034e+02	-4.137825e-03
1.550941e+02	-4.185739e-03
1.559899e+02	-4.234208e-03
1.568909e+02	-4.283239e-03
1.577971e+02	-4.332836e-03
1.587085e+02	-4.383008e-03
1.596252e+02	-4.433760e-03
1.605472e+02	-4.485100e-03
1.614745e+02	-4.537034e-03
1.624072e+02	-4.589569e-03
1.633453e+02	-4.642711e-03
1.642887e+02	-4.696469e-03
1.652377e+02	-4.750849e-03
1.661921e+02	-4.805859e-03
1.671520e+02	-4.861504e-03
1.681175e+02	-4.917794e-03
1.690885e+02	-4.974735e-03
1.700651e+02	-5.032336e-03
1.710474e+02	-5.090602e-03
1.720354e+02	-5.149543e-03
1.730291e+02	-5.209166e-03
1.740285e+02	-5.269479e-03
1.750337e+02	-5.330490e-03
1.760446e+02	-5.392206e-03
1.770615e+02	-5.454637e-03
1.780842e+02	-5.517790e-03
1.791128e+02	-5.581674e-03
1.801473e+02	-5.646297e-03
1.811878e+02	-5.711668e-03
1.822344e+02	-5.777795e-03
1.832870e+02	-5.844687e-03
1.843456e+02	-5.912353e-03
1.854104e+02	-5.980801e-03
1.864813e+02	-6.050042e-03
1.875584e+02	-6.120084e-03
1.886418e+02	-6.190936e-03
1.897313e+02	-6.262608e-03
1.908272e+02	-6.335109e-03
1.919294e+02	-6.408448e-03
1.930380e+02	-6.482636e-03
1.941530e+02	-6.557682e-03
1.952744e+02	-6.633596e-03
1.964023e+02	-6.710389e-03
1.975367e+02	-6.788069e-03
1.986777e+02	-6.866649e-03
1.998252e+02	-6.946137e-03
2.009794e+02	-7.026544e-03
2.021403e+02	-7.107882e-03
2.033078e+02	-7.190160e-03
2.044821e+02	-7.273390e-03
2.056632e+02	-7.357582e-03
2.068511e+02	-7.442748e-03
2.080459e+02	-7.528899e-03
2.092475e+02	-7.616047e-03
2.104561e+02	-7.704202e-03
2.116717e+02	-7.793377e-03
2.128943e+02	-7.883583e-03
2.141240e+02	-7.974832e-03
2.153608e+02	-8.067137e-03
2.166047e+02	-8.160508e-03
2.178558e+02	-8.254960e-03
2.191141e+02	-8.350503e-03
2.203797e+02	-8.447152e-03
2.216526e+02	-8.544918e-03
2.229329e+02	-8.643814e-03
2.242205e+02	-8.743853e-03
2.255156e+02	-8.845050e-03
2.268182e+02	-8.947416e-03
2.281283e+02	-9.050966e-03
2.294459e+02	-9.155712e-03
2.307712e+02	-9.261670e-03
2.321041e+02	-9.368853e-03
2.334447e+02	-9.477275e-03
2.347931e+02	-9.586950e-03
2.361493e+02	-9.697892e-03
2.375133e+02	-9.810118e-03
2.388851e+02	-9.923640e-03
2.402649e+02	-1.003847e-02
2.416527e+02	-1.015464e-02
2.430484e+02	-1.027214e-02
2.444523e+02	-1.039100e-02
2.458642e+02	-1.051124e-02
2.472843e+02	-1.063287e-02
2.487126e+02	-1.075590e-02
2.501492e+02	-1.088035e-02
2.515940e+02	-1.100624e-02
2.530472e+02	-1.113359e-02
2.545088e+02	-1.126240e-02
2.559789e+02	-1.139271e-02
2.574574e+02	-1.152452e-02
2.589444e+02	-1.165786e-02
2.604401e+02	-1.179273e-02
2.619444e+02	-1.192917e-02
2.634574e+02	-1.206718e-02
2.649791e+02	-1.220678e-02
2.665096e+02	-1.234800e-02
2.680489e+02	-1.249084e-02
2.695972e+02	-1.263534e-02
2.711544e+02	-1.278151e-02
2.727205e+02	-1.292937e-02
2.742958e+02	-1.307893e-02
2.758801e+02	-1.323022e-02
2.774736e+02	-1.338326e-02
2.790762e+02	-1.353807e-02
2.806882e+02	-1.369466e-02
2.823094e+02	-1.385306e-02
2.839400e+02	-1.401329e-02
2.855800e+02	-1.417537e-02
2.872295e+02	-1.433933e-02
2.888886e+02	-1.450517e-02
2.905572e+02	-1.467293e-02
2.922354e+02	-1.484263e-02
2.939234e+02	-1.501429e-02
2.956211e+02	-1.518793e-02
2.973286e+02	-1.536357e-02
2.990459e+02	-1.554124e-02
3.007732e+02	-1.572097e-02
3.025104e+02	-1.590276e-02
3.042577e+02	-1.608666e-02
3.060151e+02	-1.627268e-02
3.077826e+02	-1.646084e-02
3.095604e+02	-1.665118e-02
3.113484e+02	-1.684371e-02
3.131467e+02	-1.703846e-02
3.149554e+02	-1.723546e-02
3.167746e+02	-1.743474e-02
3.186043e+02	-1.763631e-02
3.204445e+02	-1.784021e-02
3.222954e+02	-1.804647e-02
3.241570e+02	-1.825510e-02
3.260293e+02	-1.846614e-02
3.279124e+02	-1.867961e-02
3.298064e+02	-1.889554e-02
3.317114e+02	-1.911397e-02
3.336273e+02	-1.933492e-02
3.355544e+02	-1.955841e-02
3.374925e+02	-1.978448e-02
3.394418e+02	-2.001316e-02
3.414024e+02	-2.024447e-02
3.433744e+02	-2.047846e-02
3.453577e+02	-2.071514e-02
3.473525e+02	-2.095455e-02
3.493588e+02	-2.119672e-02
3.513766e+02	-2.144168e-02
3.534062e+02	-2.168946e-02
3.554474e+02	-2.194010e-02
3.575005e+02	-2.219363e-02
3.595654e+02	-2.245008e-02
3.616422e+02	-2.270949e-02
3.637311e+02	-2.297189e-02
3.658320e+02	-2.323731e-02
3.679450e+02	-2.350579e-02
3.700702e+02	-2.377736e-02
3.722077e+02	-2.405206e-02
3.743576e+02	-2.432993e-02
3.765199e+02	-2.461099e-02
3.786946e+02	-2.489530e-02
3.808820e+02	-2.518288e-02
3.830819e+02	-2.547377e-02
3.852946e+02	-2.576801e-02
3.875200e+02	-2.606564e-02
3.897583e+02	-2.636670e-02
3.920096e+02	-2.667122e-02
3.942738e+02	-2.697925e-02
3.965511e+02	-2.729083e-02
3.988416e+02	-2.760599e-02
4.011452e+02	-2.792478e-02
4.034622e+02	-2.824724e-02
4.057926e+02	-2.857341e-02
4.081365e+02	-2.890334e-02
4.104938e+02	-2.923706e-02
4.128648e+02	-2.957462e-02
4.152495e+02	-2.991606e-02
4.176480e+02	-3.026144e-02
4.200603e+02	-3.061079e-02
4.224866e+02	-3.096415e-02
4.249268e+02	-3.132158e-02
4.273812e+02	-3.168312e-02
4.298497e+02	-3.204882e-02
4.323325e+02	-3.241872e-02
4.348297e+02	-3.279288e-02
4.373412e+02	-3.317134e-02
4.398673e+02	-3.355415e-02
4.424079e+02	-3.394136e-02
4.449633e+02	-3.433302e-02
4.475334e+02	-3.472918e-02
4.501183e+02	-3.512989e-02
4.527182e+02	-3.553521e-02
4.553330e+02	-3.594519e-02
4.579630e+02	-3.635987e-02
4.606082e+02	-3.677932e-02
4.632687e+02	-3.720359e-02
4.659445e+02	-3.763273e-02
4.686358e+02	-3.806680e-02
4.713426e+02	-3.850585e-02
4.740650e+02	-3.894995e-02
4.768032e+02	-3.939914e-02
4.795572e+02	-3.985349e-02
4.823271e+02	-4.031305e-02
4.851130e+02	-4.077789e-02
4.879150e+02	-4.124806e-02
4.907332e+02	-4.172363e-02
4.935676e+02	-4.220465e-02
4.964185e+02	-4.269120e-02
4.992858e+02	-4.318332e-02
5.021696e+02	-4.368109e-02
5.050701e+02	-4.418456e-02
5.079874e+02	-4.469381e-02
5.109215e+02	-4.520890e-02
5.138726e+02	-4.572989e-02
5.168407e+02	-4.625686e-02
5.198259e+02	-4.678986e-02
5.228284e+02	-4.732897e-02
5.258482e+02	-4.787426e-02
5.288855e+02	-4.842580e-02
5.319403e+02	-4.898365e-02
5.350128e+02	-4.954790e-02
5.381030e+02	-5.011861e-02
5.412111e+02	-5.069585e-02
5.443371e+02	-5.127970e-02
5.474812e+02	-5.187023e-02
5.506434e+02	-5.246752e-02
5.538239e+02	-5.307165e-02
5.570228e+02	-5.368269e-02
5.602401e+02	-5.430073e-02
5.634760e+02	-5.492583e-02
5.667306e+02	-5.555808e-02
5.700040e+02	-5.619756e-02
5.732964e+02	-5.684436e-02
5.766077e+02	-5.749855e-02
5.799382e+02	-5.816022e-02
5.832879e+02	-5.882945e-02
5.866569e+02	-5.950633e-02
5.900454e+02	-6.019094e-02
5.934535e+02	-6.088337e-02
5.968813e+02	-6.158372e-02
6.003288e+02	-6.229206e-02
6.037963e+02	-6.300848e-02
6.072838e+02	-6.373309e-02
6.107914e+02	-6.446597e-02
6.143194e+02	-6.520721e-02
6.178676e+02	-6.595691e-02
6.214364e+02	-6.671516e-02
6.250258e+02	-6.748207e-02
6.286359e+02	-6.825772e-02
6.322669e+02	-6.904221e-02
6.359189e+02	-6.983564e-02
6.395919e+02	-7.063812e-02
6.432862e+02	-7.144975e-02
6.470017e+02	-7.227062e-02
6.507388e+02	-7.310085e-02
6.544974e+02	-7.394053e-02
6.582778e+02	-7.478977e-02
6.620800e+02	-7.564868e-02
6.659041e+02	-7.651737e-02
6.697504e+02	-7.739594e-02
6.736188e+02	-7.828451e-02
6.775096e+02	-7.918319e-02
6.814229e+02	-8.009209e-02
6.853587e+02	-8.101132e-02
6.893173e+02	-8.194100e-02
6.932988e+02	-8.288126e-02
6.973033e+02	-8.383219e-02
7.013309e+02	-8.479393e-02
