Frequency(Hz)	Magnitude(dB)
1.000000e+01	-1.799513e-05
1.005776e+01	-1.820361e-05
1.011585e+01	-1.841450e-05
1.017428e+01	-1.862784e-05
1.023305e+01	-1.884364e-05
1.029215e+01	-1.906195e-05
1.035160e+01	-1.928279e-05
1.041139e+01	-1.950619e-05
1.047153e+01	-1.973217e-05
1.053201e+01	-1.996077e-05
1.059284e+01	-2.019202e-05
1.065403e+01	-2.042595e-05
1.071556e+01	-2.066259e-05
1.077746e+01	-2.090197e-05
1.083971e+01	-2.114413e-05
1.090232e+01	-2.138909e-05
1.096529e+01	-2.163689e-05
1.102862e+01	-2.188755e-05
1.109232e+01	-2.214113e-05
1.115639e+01	-2.239764e-05
1.122083e+01	-2.265712e-05
1.128564e+01	-2.291961e-05
1.135083e+01	-2.318514e-05
1.141639e+01	-2.345374e-05
1.148233e+01	-2.372546e-05
1.154865e+01	-2.400033e-05
1.161536e+01	-2.427838e-05
1.168245e+01	-2.455965e-05
1.174992e+01	-2.484418e-05
1.181779e+01	-2.513200e-05
1.188605e+01	-2.542316e-05
1.195470e+01	-2.571770e-05
1.202375e+01	-2.601564e-05
1.209320e+01	-2.631704e-05
1.216305e+01	-2.662193e-05
1.223330e+01	-2.693035e-05
1.230396e+01	-2.724235e-05
1.237503e+01	-2.755795e-05
1.244651e+01	-2.787722e-05
1.251840e+01	-2.820018e-05
1.259070e+01	-2.852689e-05
1.266343e+01	-2.885738e-05
1.273657e+01	-2.919170e-05
1.281014e+01	-2.952989e-05
1.288413e+01	-2.987201e-05
1.295855e+01	-3.021808e-05
1.303339e+01	-3.056816e-05
1.310867e+01	-3.092230e-05
1.318439e+01	-3.128055e-05
1.326054e+01	-3.164294e-05
1.333713e+01	-3.200953e-05
1.341417e+01	-3.238037e-05
1.349165e+01	-3.275550e-05
1.356958e+01	-3.313498e-05
1.364795e+01	-3.351886e-05
1.372678e+01	-3.390718e-05
1.380607e+01	-3.430000e-05
1.388581e+01	-3.469738e-05
1.396602e+01	-3.509935e-05
1.404668e+01	-3.550599e-05
1.412782e+01	-3.591733e-05
1.420942e+01	-3.633344e-05
1.429149e+01	-3.675438e-05
1.437404e+01	-3.718018e-05
1.445706e+01	-3.761093e-05
1.454057e+01	-3.804666e-05
1.462455e+01	-3.848744e-05
1.470902e+01	-3.893332e-05
1.479398e+01	-3.938437e-05
1.487943e+01	-3.984065e-05
1.496537e+01	-4.030221e-05
1.505181e+01	-4.076912e-05
1.513875e+01	-4.124144e-05
1.522619e+01	-4.171923e-05
1.531414e+01	-4.220256e-05
1.540259e+01	-4.269149e-05
1.549156e+01	-4.318608e-05
1.558103e+01	-4.368640e-05
1.567103e+01	-4.419251e-05
1.576155e+01	-4.470449e-05
1.585258e+01	-4.522240e-05
1.594415e+01	-4.574632e-05
1.603624e+01	-4.627630e-05
1.612886e+01	-4.681242e-05
1.622202e+01	-4.735475e-05
1.631572e+01	-4.790337e-05
1.640996e+01	-4.845834e-05
1.650474e+01	-4.901974e-05
1.660008e+01	-4.958764e-05
1.669596e+01	-5.016212e-05
1.679239e+01	-5.074326e-05
1.688938e+01	-5.133113e-05
1.698694e+01	-5.192582e-05
1.708505e+01	-5.252739e-05
1.718373e+01	-5.313593e-05
1.728299e+01	-5.375152e-05
1.738281e+01	-5.437424e-05
1.748322e+01	-5.500418e-05
1.758420e+01	-5.564141e-05
1.768576e+01	-5.628603e-05
1.778792e+01	-5.693812e-05
1.789066e+01	-5.759775e-05
1.799399e+01	-5.826504e-05
1.809793e+01	-5.894005e-05
1.820246e+01	-5.962288e-05
1.830760e+01	-6.031362e-05
1.841334e+01	-6.101237e-05
1.851969e+01	-6.171921e-05
1.862666e+01	-6.243424e-05
1.873425e+01	-6.315755e-05
1.884246e+01	-6.388924e-05
1.895129e+01	-6.462941e-05
1.906075e+01	-6.537816e-05
1.917085e+01	-6.613558e-05
1.928158e+01	-6.690177e-05
1.939295e+01	-6.767684e-05
1.950496e+01	-6.846089e-05
1.961762e+01	-6.925402e-05
1.973093e+01	-7.005634e-05
1.984490e+01	-7.086796e-05
1.995952e+01	-7.168898e-05
2.007480e+01	-7.251950e-05
2.019076e+01	-7.335966e-05
2.030738e+01	-7.420954e-05
2.042467e+01	-7.506927e-05
2.054264e+01	-7.593896e-05
2.066130e+01	-7.681873e-05
2.078064e+01	-7.770869e-05
2.090066e+01	-7.860896e-05
2.102139e+01	-7.951966e-05
2.114280e+01	-8.044090e-05
2.126492e+01	-8.137283e-05
2.138775e+01	-8.231554e-05
2.151128e+01	-8.326918e-05
2.163553e+01	-8.423387e-05
2.176050e+01	-8.520973e-05
2.188619e+01	-8.619690e-05
2.201260e+01	-8.719551e-05
2.213974e+01	-8.820568e-05
2.226762e+01	-8.922756e-05
2.239624e+01	-9.026127e-05
2.252560e+01	-9.130697e-05
2.265571e+01	-9.236477e-05
2.278656e+01	-9.343483e-05
2.291818e+01	-9.451729e-05
2.305055e+01	-9.561229e-05
2.318369e+01	-9.671997e-05
2.331760e+01	-9.784048e-05
2.345228e+01	-9.897398e-05
2.358774e+01	-1.001206e-04
2.372398e+01	-1.012805e-04
2.386101e+01	-1.024539e-04
2.399883e+01	-1.036408e-04
2.413745e+01	-1.048415e-04
2.427686e+01	-1.060561e-04
2.441709e+01	-1.072848e-04
2.455812e+01	-1.085277e-04
2.469997e+01	-1.097850e-04
2.484263e+01	-1.110569e-04
2.498612e+01	-1.123435e-04
2.513044e+01	-1.136450e-04
2.527559e+01	-1.149616e-04
2.542158e+01	-1.162934e-04
2.556842e+01	-1.176407e-04
2.571610e+01	-1.190036e-04
2.586463e+01	-1.203823e-04
2.601403e+01	-1.217769e-04
2.616428e+01	-1.231877e-04
2.631541e+01	-1.246148e-04
2.646740e+01	-1.260585e-04
2.662028e+01	-1.275189e-04
2.677404e+01	-1.289962e-04
2.692868e+01	-1.304907e-04
2.708422e+01	-1.320024e-04
2.724066e+01	-1.335317e-04
2.739800e+01	-1.350787e-04
2.755625e+01	-1.366436e-04
2.771541e+01	-1.382266e-04
2.787550e+01	-1.398280e-04
2.803650e+01	-1.414479e-04
2.819844e+01	-1.430866e-04
2.836131e+01	-1.447442e-04
2.852513e+01	-1.464211e-04
2.868989e+01	-1.481174e-04
2.885560e+01	-1.498334e-04
2.902227e+01	-1.515692e-04
2.918990e+01	-1.533251e-04
2.935850e+01	-1.551014e-04
2.952807e+01	-1.568983e-04
2.969863e+01	-1.587160e-04
2.987016e+01	-1.605547e-04
3.004269e+01	-1.624147e-04
3.021622e+01	-1.642963e-04
3.039075e+01	-1.661997e-04
3.056628e+01	-1.681251e-04
3.074283e+01	-1.700729e-04
3.092040e+01	-1.720432e-04
3.109900e+01	-1.740363e-04
3.127862e+01	-1.760525e-04
3.145929e+01	-1.780921e-04
3.164099e+01	-1.801553e-04
3.182375e+01	-1.822424e-04
3.200756e+01	-1.843537e-04
3.219244e+01	-1.864894e-04
3.237838e+01	-1.886499e-04
3.256540e+01	-1.908354e-04
3.275349e+01	-1.930463e-04
3.294268e+01	-1.952827e-04
3.313295e+01	-1.975451e-04
3.332433e+01	-1.998336e-04
3.351681e+01	-2.021487e-04
3.371040e+01	-2.044906e-04
3.390511e+01	-2.068596e-04
3.410094e+01	-2.092561e-04
3.429791e+01	-2.116803e-04
3.449601e+01	-2.141326e-04
3.469526e+01	-2.166133e-04
3.489566e+01	-2.191228e-04
3.509721e+01	-2.216613e-04
3.529993e+01	-2.242293e-04
3.550382e+01	-2.268270e-04
3.570889e+01	-2.294548e-04
3.591515e+01	-2.321130e-04
3.612259e+01	-2.348020e-04
3.633123e+01	-2.375222e-04
3.654108e+01	-2.402739e-04
3.675214e+01	-2.430574e-04
3.696442e+01	-2.458732e-04
3.717792e+01	-2.487217e-04
3.739266e+01	-2.516031e-04
3.760864e+01	-2.545179e-04
3.782587e+01	-2.574665e-04
3.804435e+01	-2.604492e-04
3.826409e+01	-2.634665e-04
3.848510e+01	-2.665187e-04
3.870739e+01	-2.696063e-04
3.893096e+01	-2.727297e-04
3.915583e+01	-2.758892e-04
3.938199e+01	-2.790854e-04
3.960946e+01	-2.823186e-04
3.983824e+01	-2.855892e-04
4.006834e+01	-2.888977e-04
4.029978e+01	-2.922446e-04
4.053255e+01	-2.956302e-04
4.076666e+01	-2.990550e-04
4.100213e+01	-3.025195e-04
4.123896e+01	-3.060242e-04
4.147715e+01	-3.095694e-04
4.171672e+01	-3.131558e-04
4.195767e+01	-3.167836e-04
4.220002e+01	-3.204535e-04
4.244377e+01	-3.241659e-04
4.268892e+01	-3.279213e-04
4.293549e+01	-3.317202e-04
4.318348e+01	-3.355632e-04
4.343291e+01	-3.394506e-04
4.368377e+01	-3.433831e-04
4.393609e+01	-3.473611e-04
4.418986e+01	-3.513852e-04
4.444510e+01	-3.554559e-04
4.470182e+01	-3.595738e-04
4.496001e+01	-3.637394e-04
4.521970e+01	-3.679533e-04
4.548089e+01	-3.722159e-04
4.574358e+01	-3.765280e-04
4.600779e+01	-3.808899e-04
4.627353e+01	-3.853025e-04
4.654081e+01	-3.897661e-04
4.680963e+01	-3.942814e-04
4.708000e+01	-3.988491e-04
4.735193e+01	-4.034697e-04
4.762543e+01	-4.081437e-04
4.790051e+01	-4.128720e-04
4.817719e+01	-4.176550e-04
4.845545e+01	-4.224934e-04
4.873533e+01	-4.273879e-04
4.901682e+01	-4.323390e-04
4.929994e+01	-4.373475e-04
4.958470e+01	-4.424141e-04
4.987110e+01	-4.475393e-04
5.015915e+01	-4.527239e-04
5.044887e+01	-4.579685e-04
5.074026e+01	-4.632740e-04
5.103333e+01	-4.686408e-04
5.132810e+01	-4.740699e-04
5.162457e+01	-4.795618e-04
5.192275e+01	-4.851173e-04
5.222265e+01	-4.907372e-04
5.252429e+01	-4.964222e-04
5.282767e+01	-5.021731e-04
5.313280e+01	-5.079906e-04
5.343969e+01	-5.138754e-04
5.374836e+01	-5.198285e-04
5.405880e+01	-5.258505e-04
5.437105e+01	-5.319422e-04
5.468509e+01	-5.381045e-04
5.500095e+01	-5.443382e-04
5.531863e+01	-5.506441e-04
5.563815e+01	-5.570231e-04
5.595951e+01	-5.634759e-04
5.628273e+01	-5.700035e-04
5.660782e+01	-5.766067e-04
5.693479e+01	-5.832864e-04
5.726364e+01	-5.900435e-04
5.759439e+01	-5.968789e-04
5.792705e+01	-6.037934e-04
5.826164e+01	-6.107880e-04
5.859815e+01	-6.178636e-04
5.893662e+01	-6.250213e-04
5.927703e+01	-6.322618e-04
5.961941e+01	-6.395862e-04
5.996377e+01	-6.469954e-04
6.031012e+01	-6.544904e-04
6.065847e+01	-6.620723e-04
6.100883e+01	-6.697420e-04
6.136121e+01	-6.775006e-04
6.171563e+01	-6.853490e-04
6.207210e+01	-6.932883e-04
6.243063e+01	-7.013196e-04
6.279122e+01	-7.094439e-04
6.315390e+01	-7.176623e-04
6.351868e+01	-7.259759e-04
6.388556e+01	-7.343859e-04
6.425456e+01	-7.428932e-04
6.462569e+01	-7.514991e-04
6.499897e+01	-7.602046e-04
6.537440e+01	-7.690110e-04
6.575200e+01	-7.779194e-04
6.613178e+01	-7.869310e-04
6.651375e+01	-7.960470e-04
6.689793e+01	-8.052686e-04
6.728433e+01	-8.145970e-04
6.767297e+01	-8.240334e-04
6.806384e+01	-8.335791e-04
6.845698e+01	-8.432354e-04
6.885238e+01	-8.530036e-04
6.925007e+01	-8.628849e-04
6.965005e+01	-8.728806e-04
7.005235e+01	-8.829922e-04
7.045697e+01	-8.932208e-04
7.086393e+01	-9.035680e-04
7.127323e+01	-9.140349e-04
7.168490e+01	-9.246231e-04
7.209895e+01	-9.353340e-04
7.251539e+01	-9.461689e-04
7.293424e+01	-9.571293e-04
7.335551e+01	-9.682167e-04
7.377920e+01	-9.794325e-04
7.420535e+01	-9.907782e-04
7.463396e+01	-1.002255e-03
7.506504e+01	-1.013865e-03
7.549861e+01	-1.025610e-03
7.593469e+01	-1.037490e-03
7.637328e+01	-1.049509e-03
7.681441e+01	-1.061666e-03
7.725809e+01	-1.073964e-03
7.770433e+01	-1.086405e-03
7.815315e+01	-1.098989e-03
7.860456e+01	-1.111720e-03
7.905857e+01	-1.124598e-03
7.951521e+01	-1.137625e-03
7.997449e+01	-1.150803e-03
8.043642e+01	-1.164133e-03
8.090102e+01	-1.177618e-03
8.136830e+01	-1.191260e-03
8.183828e+01	-1.205059e-03
8.231097e+01	-1.219018e-03
8.278640e+01	-1.233138e-03
8.326457e+01	-1.247422e-03
8.374550e+01	-1.261872e-03
8.422921e+01	-1.276489e-03
8.471572e+01	-1.291275e-03
8.520503e+01	-1.306233e-03
8.569717e+01	-1.321364e-03
8.619215e+01	-1.336670e-03
8.669000e+01	-1.352153e-03
8.719071e+01	-1.367815e-03
8.769432e+01	-1.383659e-03
8.820084e+01	-1.399687e-03
8.871029e+01	-1.415900e-03
8.922267e+01	-1.432301e-03
8.973802e+01	-1.448892e-03
9.025634e+01	-1.465675e-03
9.077766e+01	-1.482652e-03
9.130199e+01	-1.499826e-03
9.182935e+01	-1.517199e-03
9.235975e+01	-1.534773e-03
9.289321e+01	-1.552551e-03
9.342976e+01	-1.570534e-03
9.396941e+01	-1.588726e-03
9.451217e+01	-1.607128e-03
9.505807e+01	-1.625744e-03
9.560712e+01	-1.644575e-03
9.615934e+01	-1.663624e-03
9.671476e+01	-1.682894e-03
9.727338e+01	-1.702387e-03
9.783522e+01	-1.722105e-03
9.840032e+01	-1.742052e-03
9.896867e+01	-1.762231e-03
9.954031e+01	-1.782642e-03
1.001153e+02	-1.803290e-03
1.006935e+02	-1.824178e-03
1.012751e+02	-1.845307e-03
1.018601e+02	-1.866680e-03
1.024484e+02	-1.888302e-03
1.030402e+02	-1.910173e-03
1.036353e+02	-1.932298e-03
1.042339e+02	-1.954679e-03
1.048360e+02	-1.977320e-03
1.054415e+02	-2.000222e-03
1.060505e+02	-2.023390e-03
1.066631e+02	-2.046826e-03
1.072791e+02	-2.070533e-03
1.078988e+02	-2.094515e-03
1.085220e+02	-2.118775e-03
1.091488e+02	-2.143315e-03
1.097793e+02	-2.168140e-03
1.104133e+02	-2.193252e-03
1.110511e+02	-2.218655e-03
1.116925e+02	-2.244352e-03
1.123376e+02	-2.270347e-03
1.129865e+02	-2.296642e-03
1.136391e+02	-2.323242e-03
1.142955e+02	-2.350151e-03
1.149556e+02	-2.377370e-03
1.156196e+02	-2.404905e-03
1.162874e+02	-2.432759e-03
1.169591e+02	-2.460935e-03
1.176347e+02	-2.489437e-03
1.183141e+02	-2.518270e-03
1.189975e+02	-2.547436e-03
1.196848e+02	-2.576940e-03
1.203761e+02	-2.606785e-03
1.210714e+02	-2.636977e-03
1.217707e+02	-2.667517e-03
1.224740e+02	-2.698412e-03
1.231814e+02	-2.729664e-03
1.238929e+02	-2.761277e-03
1.246085e+02	-2.793257e-03
1.253283e+02	-2.825607e-03
1.260522e+02	-2.858332e-03
1.267802e+02	-2.891435e-03
1.275125e+02	-2.924922e-03
1.282490e+02	-2.958797e-03
1.289898e+02	-2.993063e-03
1.297348e+02	-3.027726e-03
1.304842e+02	-3.062791e-03
1.312378e+02	-3.098262e-03
1.319959e+02	-3.134143e-03
1.327583e+02	-3.170439e-03
1.335251e+02	-3.207156e-03
1.342963e+02	-3.244298e-03
1.350720e+02	-3.281870e-03
1.358522e+02	-3.319877e-03
1.366368e+02	-3.358323e-03
1.374260e+02	-3.397215e-03
1.382198e+02	-3.436557e-03
1.390182e+02	-3.476355e-03
1.398211e+02	-3.516613e-03
1.406287e+02	-3.557337e-03
1.414410e+02	-3.598533e-03
1.422579e+02	-3.640205e-03
1.430796e+02	-3.682360e-03
1.439060e+02	-3.725003e-03
1.447372e+02	-3.768139e-03
1.455732e+02	-3.811775e-03
1.464141e+02	-3.855916e-03
1.472597e+02	-3.900567e-03
1.481103e+02	-3.945736e-03
1.489658e+02	-3.991427e-03
1.498262e+02	-4.037647e-03
1.506916e+02	-4.084403e-03
1.515620e+02	-4.131699e-03
1.524374e+02	-4.179543e-03
1.533179e+02	-4.227940e-03
1.542034e+02	-4.276898e-03
1.550941e+02	-4.326422e-03
1.559899e+02	-4.376519e-03
1.568909e+02	-4.427197e-03
1.577971e+02	-4.478460e-03
1.587085e+02	-4.530317e-03
1.596252e+02	-4.582774e-03
1.605472e+02	-4.635839e-03
1.614745e+02	-4.689517e-03
1.624072e+02	-4.743817e-03
1.633453e+02	-4.798745e-03
1.642887e+02	-4.854308e-03
1.652377e+02	-4.910515e-03
1.661921e+02	-4.967372e-03
1.671520e+02	-5.024887e-03
1.681175e+02	-5.083067e-03
1.690885e+02	-5.141921e-03
1.700651e+02	-5.201455e-03
1.710474e+02	-5.261679e-03
1.720354e+02	-5.322600e-03
1.730291e+02	-5.384225e-03
1.740285e+02	-5.446563e-03
1.750337e+02	-5.509623e-03
1.760446e+02	-5.573413e-03
1.770615e+02	-5.637940e-03
1.780842e+02	-5.703214e-03
1.791128e+02	-5.769243e-03
1.801473e+02	-5.836036e-03
1.811878e+02	-5.903602e-03
1.822344e+02	-5.971950e-03
1.832870e+02	-6.041088e-03
1.843456e+02	-6.111026e-03
1.854104e+02	-6.181774e-03
1.864813e+02	-6.253339e-03
1.875584e+02	-6.325733e-03
1.886418e+02	-6.398964e-03
1.897313e+02	-6.473043e-03
1.908272e+02	-6.547978e-03
1.919294e+02	-6.623780e-03
1.930380e+02	-6.700459e-03
1.941530e+02	-6.778024e-03
1.952744e+02	-6.856487e-03
1.964023e+02	-6.935858e-03
1.975367e+02	-7.016147e-03
1.986777e+02	-7.097364e-03
1.998252e+02	-7.179521e-03
2.009794e+02	-7.262627e-03
2.021403e+02	-7.346695e-03
2.033078e+02	-7.431736e-03
2.044821e+02	-7.517760e-03
2.056632e+02	-7.604778e-03
2.068511e+02	-7.692803e-03
2.080459e+02	-7.781846e-03
2.092475e+02	-7.871919e-03
2.104561e+02	-7.963034e-03
2.116717e+02	-8.055202e-03
2.128943e+02	-8.148435e-03
2.141240e+02	-8.242747e-03
2.153608e+02	-8.338150e-03
2.166047e+02	-8.434655e-03
2.178558e+02	-8.532277e-03
2.191141e+02	-8.631027e-03
2.203797e+02	-8.730918e-03
2.216526e+02	-8.831965e-03
2.229329e+02	-8.934180e-03
2.242205e+02	-9.037577e-03
2.255156e+02	-9.142169e-03
2.268182e+02	-9.247970e-03
2.281283e+02	-9.354995e-03
2.294459e+02	-9.463256e-03
2.307712e+02	-9.572769e-03
2.321041e+02	-9.683548e-03
2.334447e+02	-9.795608e-03
2.347931e+02	-9.908963e-03
2.361493e+02	-1.002363e-02
2.375133e+02	-1.013962e-02
2.388851e+02	-1.025695e-02
2.402649e+02	-1.037564e-02
2.416527e+02	-1.049569e-02
2.430484e+02	-1.061714e-02
2.444523e+02	-1.073999e-02
2.458642e+02	-1.086426e-02
2.472843e+02	-1.098997e-02
2.487126e+02	-1.111712e-02
2.501492e+02	-1.124575e-02
2.515940e+02	-1.137586e-02
2.530472e+02	-1.150748e-02
2.545088e+02	-1.164062e-02
2.559789e+02	-1.177530e-02
2.574574e+02	-1.191153e-02
2.589444e+02	-1.204933e-02
2.604401e+02	-1.218873e-02
2.619444e+02	-1.232974e-02
2.634574e+02	-1.247238e-02
2.649791e+02	-1.261666e-02
2.665096e+02	-1.276262e-02
2.680489e+02	-1.291025e-02
2.695972e+02	-1.305960e-02
2.711544e+02	-1.321066e-02
2.727205e+02	-1.336348e-02
2.742958e+02	-1.351805e-02
2.758801e+02	-1.367442e-02
2.774736e+02	-1.383259e-02
2.790762e+02	-1.399258e-02
2.806882e+02	-1.415442e-02
2.823094e+02	-1.431813e-02
2.839400e+02	-1.448374e-02
2.855800e+02	-1.465125e-02
2.872295e+02	-1.482070e-02
2.888886e+02	-1.499210e-02
2.905572e+02	-1.516549e-02
2.922354e+02	-1.534087e-02
2.939234e+02	-1.551828e-02
2.956211e+02	-1.569774e-02
2.973286e+02	-1.587927e-02
2.990459e+02	-1.606289e-02
3.007732e+02	-1.624863e-02
3.025104e+02	-1.643652e-02
3.042577e+02	-1.662658e-02
3.060151e+02	-1.681882e-02
3.077826e+02	-1.701329e-02
3.095604e+02	-1.721000e-02
3.113484e+02	-1.740899e-02
3.131467e+02	-1.761026e-02
3.149554e+02	-1.781386e-02
3.167746e+02	-1.801981e-02
3.186043e+02	-1.822814e-02
3.204445e+02	-1.843886e-02
3.222954e+02	-1.865202e-02
3.241570e+02	-1.886764e-02
3.260293e+02	-1.908574e-02
3.279124e+02	-1.930636e-02
3.298064e+02	-1.952953e-02
3.317114e+02	-1.975527e-02
3.336273e+02	-1.998361e-02
3.355544e+02	-2.021458e-02
3.374925e+02	-2.044822e-02
3.394418e+02	-2.068455e-02
3.414024e+02	-2.092361e-02
3.433744e+02	-2.116542e-02
3.453577e+02	-2.141002e-02
3.473525e+02	-2.165744e-02
3.493588e+02	-2.190772e-02
3.513766e+02	-2.216087e-02
3.534062e+02	-2.241695e-02
3.554474e+02	-2.267597e-02
3.575005e+02	-2.293798e-02
3.595654e+02	-2.320302e-02
3.616422e+02	-2.347110e-02
3.637311e+02	-2.374227e-02
3.658320e+02	-2.401657e-02
3.679450e+02	-2.429403e-02
3.700702e+02	-2.457468e-02
3.722077e+02	-2.485857e-02
3.743576e+02	-2.514573e-02
3.765199e+02	-2.543619e-02
3.786946e+02	-2.573000e-02
3.808820e+02	-2.602719e-02
3.830819e+02	-2.632781e-02
3.852946e+02	-2.663188e-02
3.875200e+02	-2.693946e-02
3.897583e+02	-2.725058e-02
3.920096e+02	-2.756528e-02
3.942738e+02	-2.788360e-02
3.965511e+02	-2.820559e-02
3.988416e+02	-2.853128e-02
4.011452e+02	-2.886072e-02
4.034622e+02	-2.919395e-02
4.057926e+02	-2.953102e-02
4.081365e+02	-2.987196e-02
4.104938e+02	-3.021683e-02
4.128648e+02	-3.056567e-02
4.152495e+02	-3.091851e-02
4.176480e+02	-3.127542e-02
4.200603e+02	-3.163643e-02
4.224866e+02	-3.200159e-02
4.249268e+02	-3.237095e-02
4.273812e+02	-3.274456e-02
4.298497e+02	-3.312247e-02
4.323325e+02	-3.350471e-02
4.348297e+02	-3.389136e-02
4.373412e+02	-3.428244e-02
4.398673e+02	-3.467802e-02
4.424079e+02	-3.507815e-02
4.449633e+02	-3.548288e-02
4.475334e+02	-3.589225e-02
4.501183e+02	-3.630633e-02
4.527182e+02	-3.672517e-02
4.553330e+02	-3.714881e-02
4.579630e+02	-3.757733e-02
4.606082e+02	-3.801076e-02
4.632687e+02	-3.844917e-02
4.659445e+02	-3.889262e-02
4.686358e+02	-3.934115e-02
4.713426e+02	-3.979484e-02
4.740650e+02	-4.025373e-02
4.768032e+02	-4.071789e-02
4.795572e+02	-4.118737e-02
4.823271e+02	-4.166225e-02
4.851130e+02	-4.214257e-02
4.879150e+02	-4.262840e-02
4.907332e+02	-4.311980e-02
4.935676e+02	-4.361684e-02
4.964185e+02	-4.411959e-02
4.992858e+02	-4.462809e-02
5.021696e+02	-4.514243e-02
5.050701e+02	-4.566266e-02
5.079874e+02	-4.618885e-02
5.109215e+02	-4.672108e-02
5.138726e+02	-4.725941e-02
5.168407e+02	-4.780390e-02
5.198259e+02	-4.835463e-02
5.228284e+02	-4.891168e-02
5.258482e+02	-4.947510e-02
5.288855e+02	-5.004497e-02
5.319403e+02	-5.062137e-02
5.350128e+02	-5.120437e-02
5.381030e+02	-5.179405e-02
5.412111e+02	-5.239047e-02
5.443371e+02	-5.299372e-02
5.474812e+02	-5.360387e-02
5.506434e+02	-5.422100e-02
5.538239e+02	-5.484520e-02
5.570228e+02	-5.547653e-02
5.602401e+02	-5.611508e-02
5.634760e+02	-5.676094e-02
5.667306e+02	-5.741418e-02
5.700040e+02	-5.807489e-02
5.732964e+02	-5.874314e-02
5.766077e+02	-5.941904e-02
5.799382e+02	-6.010266e-02
5.832879e+02	-6.079409e-02
5.866569e+02	-6.149341e-02
5.900454e+02	-6.220072e-02
5.934535e+02	-6.291611e-02
5.968813e+02	-6.363967e-02
6.003288e+02	-6.437148e-02
6.037963e+02	-6.511165e-02
6.072838e+02	-6.586026e-02
6.107914e+02	-6.661742e-02
6.143194e+02	-6.738321e-02
6.178676e+02	-6.815774e-02
6.214364e+02	-6.894109e-02
6.250258e+02	-6.973338e-02
6.286359e+02	-7.053470e-02
6.322669e+02	-7.134515e-02
6.359189e+02	-7.216484e-02
6.395919e+02	-7.299386e-02
6.432862e+02	-7.383233e-02
6.470017e+02	-7.468034e-02
6.507388e+02	-7.553801e-02
6.544974e+02	-7.640544e-02
6.582778e+02	-7.728275e-02
6.620800e+02	-7.817003e-02
6.659041e+02	-7.906742e-02
6.697504e+02	-7.997500e-02
6.736188e+02	-8.089291e-02
6.775096e+02	-8.182126e-02
6.814229e+02	-8.276015e-02
6.853587e+02	-8.370972e-02
6.893173e+02	-8.467007e-02
6.932988e+02	-8.564134e-02
6.973033e+02	-8.662363e-02
7.013309e+02	-8.761708e-02
