Frequency(Hz)	Magnitude(dB)
1.000000e+01	-1.566839e-05
1.005776e+01	-1.584991e-05
1.011585e+01	-1.603354e-05
1.017428e+01	-1.621929e-05
1.023305e+01	-1.640720e-05
1.029215e+01	-1.659728e-05
1.035160e+01	-1.678956e-05
1.041139e+01	-1.698407e-05
1.047153e+01	-1.718084e-05
1.053201e+01	-1.737988e-05
1.059284e+01	-1.758123e-05
1.065403e+01	-1.778492e-05
1.071556e+01	-1.799096e-05
1.077746e+01	-1.819939e-05
1.083971e+01	-1.841023e-05
1.090232e+01	-1.862352e-05
1.096529e+01	-1.883928e-05
1.102862e+01	-1.905754e-05
1.109232e+01	-1.927832e-05
1.115639e+01	-1.950167e-05
1.122083e+01	-1.972760e-05
1.128564e+01	-1.995615e-05
1.135083e+01	-2.018735e-05
1.141639e+01	-2.042122e-05
1.148233e+01	-2.065781e-05
1.154865e+01	-2.089713e-05
1.161536e+01	-2.113923e-05
1.168245e+01	-2.138413e-05
1.174992e+01	-2.163187e-05
1.181779e+01	-2.188248e-05
1.188605e+01	-2.213600e-05
1.195470e+01	-2.239245e-05
1.202375e+01	-2.265187e-05
1.209320e+01	-2.291430e-05
1.216305e+01	-2.317977e-05
1.223330e+01	-2.344831e-05
1.230396e+01	-2.371997e-05
1.237503e+01	-2.399477e-05
1.244651e+01	-2.427275e-05
1.251840e+01	-2.455396e-05
1.259070e+01	-2.483842e-05
1.266343e+01	-2.512618e-05
1.273657e+01	-2.541727e-05
1.281014e+01	-2.571174e-05
1.288413e+01	-2.600962e-05
1.295855e+01	-2.631094e-05
1.303339e+01	-2.661576e-05
1.310867e+01	-2.692411e-05
1.318439e+01	-2.723604e-05
1.326054e+01	-2.755157e-05
1.333713e+01	-2.787076e-05
1.341417e+01	-2.819365e-05
1.349165e+01	-2.852028e-05
1.356958e+01	-2.885070e-05
1.364795e+01	-2.918494e-05
1.372678e+01	-2.952305e-05
1.380607e+01	-2.986509e-05
1.388581e+01	-3.021108e-05
1.396602e+01	-3.056108e-05
1.404668e+01	-3.091514e-05
1.412782e+01	-3.127330e-05
1.420942e+01	-3.163561e-05
1.429149e+01	-3.200211e-05
1.437404e+01	-3.237287e-05
1.445706e+01	-3.274791e-05
1.454057e+01	-3.312731e-05
1.462455e+01	-3.351109e-05
1.470902e+01	-3.389933e-05
1.479398e+01	-3.429206e-05
1.487943e+01	-3.468934e-05
1.496537e+01	-3.509122e-05
1.505181e+01	-3.549776e-05
1.513875e+01	-3.590901e-05
1.522619e+01	-3.632503e-05
1.531414e+01	-3.674586e-05
1.540259e+01	-3.717157e-05
1.549156e+01	-3.760221e-05
1.558103e+01	-3.803784e-05
1.567103e+01	-3.847852e-05
1.576155e+01	-3.892430e-05
1.585258e+01	-3.937525e-05
1.594415e+01	-3.983142e-05
1.603624e+01	-4.029288e-05
1.612886e+01	-4.075968e-05
1.622202e+01	-4.123189e-05
1.631572e+01	-4.170957e-05
1.640996e+01	-4.219278e-05
1.650474e+01	-4.268160e-05
1.660008e+01	-4.317607e-05
1.669596e+01	-4.367628e-05
1.679239e+01	-4.418228e-05
1.688938e+01	-4.469414e-05
1.698694e+01	-4.521193e-05
1.708505e+01	-4.573572e-05
1.718373e+01	-4.626558e-05
1.728299e+01	-4.680157e-05
1.738281e+01	-4.734378e-05
1.748322e+01	-4.789227e-05
1.758420e+01	-4.844711e-05
1.768576e+01	-4.900838e-05
1.778792e+01	-4.957615e-05
1.789066e+01	-5.015050e-05
1.799399e+01	-5.073151e-05
1.809793e+01	-5.131924e-05
1.820246e+01	-5.191379e-05
1.830760e+01	-5.251522e-05
1.841334e+01	-5.312362e-05
1.851969e+01	-5.373907e-05
1.862666e+01	-5.436165e-05
1.873425e+01	-5.499144e-05
1.884246e+01	-5.562852e-05
1.895129e+01	-5.627299e-05
1.906075e+01	-5.692493e-05
1.917085e+01	-5.758441e-05
1.928158e+01	-5.825154e-05
1.939295e+01	-5.892640e-05
1.950496e+01	-5.960907e-05
1.961762e+01	-6.029965e-05
1.973093e+01	-6.099824e-05
1.984490e+01	-6.170491e-05
1.995952e+01	-6.241978e-05
2.007480e+01	-6.314292e-05
2.019076e+01	-6.387444e-05
2.030738e+01	-6.461444e-05
2.042467e+01	-6.536301e-05
2.054264e+01	-6.612026e-05
2.066130e+01	-6.688627e-05
2.078064e+01	-6.766116e-05
2.090066e+01	-6.844503e-05
2.102139e+01	-6.923798e-05
2.114280e+01	-7.004011e-05
2.126492e+01	-7.085154e-05
2.138775e+01	-7.167237e-05
2.151128e+01	-7.250271e-05
2.163553e+01	-7.334266e-05
2.176050e+01	-7.419235e-05
2.188619e+01	-7.505188e-05
2.201260e+01	-7.592137e-05
2.213974e+01	-7.680094e-05
2.226762e+01	-7.769069e-05
2.239624e+01	-7.859075e-05
2.252560e+01	-7.950123e-05
2.265571e+01	-8.042227e-05
2.278656e+01	-8.135398e-05
2.291818e+01	-8.229648e-05
2.305055e+01	-8.324989e-05
2.318369e+01	-8.421436e-05
2.331760e+01	-8.519000e-05
2.345228e+01	-8.617694e-05
2.358774e+01	-8.717531e-05
2.372398e+01	-8.818525e-05
2.386101e+01	-8.920689e-05
2.399883e+01	-9.024037e-05
2.413745e+01	-9.128581e-05
2.427686e+01	-9.234338e-05
2.441709e+01	-9.341319e-05
2.455812e+01	-9.449539e-05
2.469997e+01	-9.559014e-05
2.484263e+01	-9.669756e-05
2.498612e+01	-9.781782e-05
2.513044e+01	-9.895105e-05
2.527559e+01	-1.000974e-04
2.542158e+01	-1.012571e-04
2.556842e+01	-1.024301e-04
2.571610e+01	-1.036168e-04
2.586463e+01	-1.048172e-04
2.601403e+01	-1.060315e-04
2.616428e+01	-1.072599e-04
2.631541e+01	-1.085026e-04
2.646740e+01	-1.097596e-04
2.662028e+01	-1.110311e-04
2.677404e+01	-1.123175e-04
2.692868e+01	-1.136187e-04
2.708422e+01	-1.149350e-04
2.724066e+01	-1.162665e-04
2.739800e+01	-1.176135e-04
2.755625e+01	-1.189760e-04
2.771541e+01	-1.203544e-04
2.787550e+01	-1.217487e-04
2.803650e+01	-1.231592e-04
2.819844e+01	-1.245860e-04
2.836131e+01	-1.260293e-04
2.852513e+01	-1.274894e-04
2.868989e+01	-1.289664e-04
2.885560e+01	-1.304604e-04
2.902227e+01	-1.319718e-04
2.918990e+01	-1.335008e-04
2.935850e+01	-1.350474e-04
2.952807e+01	-1.366119e-04
2.969863e+01	-1.381946e-04
2.987016e+01	-1.397956e-04
3.004269e+01	-1.414151e-04
3.021622e+01	-1.430534e-04
3.039075e+01	-1.447107e-04
3.056628e+01	-1.463872e-04
3.074283e+01	-1.480831e-04
3.092040e+01	-1.497987e-04
3.109900e+01	-1.515341e-04
3.127862e+01	-1.532896e-04
3.145929e+01	-1.550655e-04
3.164099e+01	-1.568619e-04
3.182375e+01	-1.586792e-04
3.200756e+01	-1.605175e-04
3.219244e+01	-1.623771e-04
3.237838e+01	-1.642582e-04
3.256540e+01	-1.661612e-04
3.275349e+01	-1.680862e-04
3.294268e+01	-1.700335e-04
3.313295e+01	-1.720033e-04
3.332433e+01	-1.739960e-04
3.351681e+01	-1.760117e-04
3.371040e+01	-1.780508e-04
3.390511e+01	-1.801136e-04
3.410094e+01	-1.822002e-04
3.429791e+01	-1.843110e-04
3.449601e+01	-1.864462e-04
3.469526e+01	-1.886062e-04
3.489566e+01	-1.907912e-04
3.509721e+01	-1.930015e-04
3.529993e+01	-1.952375e-04
3.550382e+01	-1.974993e-04
3.570889e+01	-1.997873e-04
3.591515e+01	-2.021019e-04
3.612259e+01	-2.044432e-04
3.633123e+01	-2.068117e-04
3.654108e+01	-2.092076e-04
3.675214e+01	-2.116313e-04
3.696442e+01	-2.140830e-04
3.717792e+01	-2.165632e-04
3.739266e+01	-2.190720e-04
3.760864e+01	-2.216100e-04
3.782587e+01	-2.241773e-04
3.804435e+01	-2.267744e-04
3.826409e+01	-2.294016e-04
3.848510e+01	-2.320592e-04
3.870739e+01	-2.347476e-04
3.893096e+01	-2.374672e-04
3.915583e+01	-2.402182e-04
3.938199e+01	-2.430011e-04
3.960946e+01	-2.458163e-04
3.983824e+01	-2.486640e-04
4.006834e+01	-2.515448e-04
4.029978e+01	-2.544589e-04
4.053255e+01	-2.574068e-04
4.076666e+01	-2.603889e-04
4.100213e+01	-2.634055e-04
4.123896e+01	-2.664570e-04
4.147715e+01	-2.695439e-04
4.171672e+01	-2.726665e-04
4.195767e+01	-2.758253e-04
4.220002e+01	-2.790207e-04
4.244377e+01	-2.822532e-04
4.268892e+01	-2.855230e-04
4.293549e+01	-2.888308e-04
4.318348e+01	-2.921769e-04
4.343291e+01	-2.955617e-04
4.368377e+01	-2.989857e-04
4.393609e+01	-3.024495e-04
4.418986e+01	-3.059533e-04
4.444510e+01	-3.094977e-04
4.470182e+01	-3.130832e-04
4.496001e+01	-3.167102e-04
4.521970e+01	-3.203793e-04
4.548089e+01	-3.240908e-04
4.574358e+01	-3.278454e-04
4.600779e+01	-3.316434e-04
4.627353e+01	-3.354854e-04
4.654081e+01	-3.393720e-04
4.680963e+01	-3.433035e-04
4.708000e+01	-3.472806e-04
4.735193e+01	-3.513038e-04
4.762543e+01	-3.553736e-04
4.790051e+01	-3.594905e-04
4.817719e+01	-3.636552e-04
4.845545e+01	-3.678680e-04
4.873533e+01	-3.721297e-04
4.901682e+01	-3.764407e-04
4.929994e+01	-3.808017e-04
4.958470e+01	-3.852132e-04
4.987110e+01	-3.896758e-04
5.015915e+01	-3.941901e-04
5.044887e+01	-3.987567e-04
5.074026e+01	-4.033762e-04
5.103333e+01	-4.080492e-04
5.132810e+01	-4.127763e-04
5.162457e+01	-4.175582e-04
5.192275e+01	-4.223955e-04
5.222265e+01	-4.272889e-04
5.252429e+01	-4.322389e-04
5.282767e+01	-4.372462e-04
5.313280e+01	-4.423116e-04
5.343969e+01	-4.474356e-04
5.374836e+01	-4.526190e-04
5.405880e+01	-4.578625e-04
5.437105e+01	-4.631666e-04
5.468509e+01	-4.685323e-04
5.500095e+01	-4.739600e-04
5.531863e+01	-4.794507e-04
5.563815e+01	-4.850050e-04
5.595951e+01	-4.906236e-04
5.628273e+01	-4.963072e-04
5.660782e+01	-5.020568e-04
5.693479e+01	-5.078729e-04
5.726364e+01	-5.137564e-04
5.759439e+01	-5.197080e-04
5.792705e+01	-5.257286e-04
5.826164e+01	-5.318190e-04
5.859815e+01	-5.379799e-04
5.893662e+01	-5.442121e-04
5.927703e+01	-5.505166e-04
5.961941e+01	-5.568941e-04
5.996377e+01	-5.633454e-04
6.031012e+01	-5.698715e-04
6.065847e+01	-5.764732e-04
6.100883e+01	-5.831513e-04
6.136121e+01	-5.899068e-04
6.171563e+01	-5.967406e-04
6.207210e+01	-6.036535e-04
6.243063e+01	-6.106465e-04
6.279122e+01	-6.177205e-04
6.315390e+01	-6.248765e-04
6.351868e+01	-6.321153e-04
6.388556e+01	-6.394380e-04
6.425456e+01	-6.468455e-04
6.462569e+01	-6.543388e-04
6.499897e+01	-6.619190e-04
6.537440e+01	-6.695869e-04
6.575200e+01	-6.773436e-04
6.613178e+01	-6.851902e-04
6.651375e+01	-6.931277e-04
6.689793e+01	-7.011571e-04
6.728433e+01	-7.092796e-04
6.767297e+01	-7.174961e-04
6.806384e+01	-7.258078e-04
6.845698e+01	-7.342157e-04
6.885238e+01	-7.427211e-04
6.925007e+01	-7.513250e-04
6.965005e+01	-7.600285e-04
7.005235e+01	-7.688329e-04
7.045697e+01	-7.777392e-04
7.086393e+01	-7.867487e-04
7.127323e+01	-7.958626e-04
7.168490e+01	-8.050820e-04
7.209895e+01	-8.144083e-04
7.251539e+01	-8.238425e-04
7.293424e+01	-8.333860e-04
7.335551e+01	-8.430401e-04
7.377920e+01	-8.528060e-04
7.420535e+01	-8.626850e-04
7.463396e+01	-8.726784e-04
7.506504e+01	-8.827876e-04
7.549861e+01	-8.930139e-04
7.593469e+01	-9.033587e-04
7.637328e+01	-9.138232e-04
7.681441e+01	-9.244090e-04
7.725809e+01	-9.351174e-04
7.770433e+01	-9.459498e-04
7.815315e+01	-9.569076e-04
7.860456e+01	-9.679924e-04
7.905857e+01	-9.792056e-04
7.951521e+01	-9.905487e-04
7.997449e+01	-1.002023e-03
8.043642e+01	-1.013631e-03
8.090102e+01	-1.025372e-03
8.136830e+01	-1.037250e-03
8.183828e+01	-1.049265e-03
8.231097e+01	-1.061420e-03
8.278640e+01	-1.073715e-03
8.326457e+01	-1.086153e-03
8.374550e+01	-1.098735e-03
8.422921e+01	-1.111462e-03
8.471572e+01	-1.124337e-03
8.520503e+01	-1.137361e-03
8.569717e+01	-1.150536e-03
8.619215e+01	-1.163864e-03
8.669000e+01	-1.177346e-03
8.719071e+01	-1.190984e-03
8.769432e+01	-1.204780e-03
8.820084e+01	-1.218735e-03
8.871029e+01	-1.232853e-03
8.922267e+01	-1.247134e-03
8.973802e+01	-1.261580e-03
9.025634e+01	-1.276193e-03
9.077766e+01	-1.290976e-03
9.130199e+01	-1.305930e-03
9.182935e+01	-1.321058e-03
9.235975e+01	-1.336360e-03
9.289321e+01	-1.351840e-03
9.342976e+01	-1.367499e-03
9.396941e+01	-1.383339e-03
9.451217e+01	-1.399363e-03
9.505807e+01	-1.415572e-03
9.560712e+01	-1.431969e-03
9.615934e+01	-1.448556e-03
9.671476e+01	-1.465335e-03
9.727338e+01	-1.482309e-03
9.783522e+01	-1.499479e-03
9.840032e+01	-1.516847e-03
9.896867e+01	-1.534417e-03
9.954031e+01	-1.552191e-03
1.001153e+02	-1.570170e-03
1.006935e+02	-1.588358e-03
1.012751e+02	-1.606756e-03
1.018601e+02	-1.625367e-03
1.024484e+02	-1.644194e-03
1.030402e+02	-1.663239e-03
1.036353e+02	-1.682504e-03
1.042339e+02	-1.701992e-03
1.048360e+02	-1.721707e-03
1.054415e+02	-1.741649e-03
1.060505e+02	-1.761822e-03
1.066631e+02	-1.782229e-03
1.072791e+02	-1.802873e-03
1.078988e+02	-1.823755e-03
1.085220e+02	-1.844879e-03
1.091488e+02	-1.866248e-03
1.097793e+02	-1.887864e-03
1.104133e+02	-1.909731e-03
1.110511e+02	-1.931851e-03
1.116925e+02	-1.954227e-03
1.123376e+02	-1.976862e-03
1.129865e+02	-1.999759e-03
1.136391e+02	-2.022921e-03
1.142955e+02	-2.046352e-03
1.149556e+02	-2.070054e-03
1.156196e+02	-2.094030e-03
1.162874e+02	-2.118284e-03
1.169591e+02	-2.142819e-03
1.176347e+02	-2.167638e-03
1.183141e+02	-2.192744e-03
1.189975e+02	-2.218141e-03
1.196848e+02	-2.243832e-03
1.203761e+02	-2.269821e-03
1.210714e+02	-2.296110e-03
1.217707e+02	-2.322704e-03
1.224740e+02	-2.349606e-03
1.231814e+02	-2.376820e-03
1.238929e+02	-2.404348e-03
1.246085e+02	-2.432195e-03
1.253283e+02	-2.460365e-03
1.260522e+02	-2.488861e-03
1.267802e+02	-2.517686e-03
1.275125e+02	-2.546846e-03
1.282490e+02	-2.576343e-03
1.289898e+02	-2.606182e-03
1.297348e+02	-2.636366e-03
1.304842e+02	-2.666899e-03
1.312378e+02	-2.697787e-03
1.319959e+02	-2.729031e-03
1.327583e+02	-2.760638e-03
1.335251e+02	-2.792610e-03
1.342963e+02	-2.824953e-03
1.350720e+02	-2.857670e-03
1.358522e+02	-2.890766e-03
1.366368e+02	-2.924245e-03
1.374260e+02	-2.958111e-03
1.382198e+02	-2.992370e-03
1.390182e+02	-3.027025e-03
1.398211e+02	-3.062082e-03
1.406287e+02	-3.097544e-03
1.414410e+02	-3.133417e-03
1.422579e+02	-3.169705e-03
1.430796e+02	-3.206414e-03
1.439060e+02	-3.243547e-03
1.447372e+02	-3.281110e-03
1.455732e+02	-3.319108e-03
1.464141e+02	-3.357546e-03
1.472597e+02	-3.396429e-03
1.481103e+02	-3.435761e-03
1.489658e+02	-3.475550e-03
1.498262e+02	-3.515799e-03
1.506916e+02	-3.556513e-03
1.515620e+02	-3.597699e-03
1.524374e+02	-3.639362e-03
1.533179e+02	-3.681507e-03
1.542034e+02	-3.724140e-03
1.550941e+02	-3.767267e-03
1.559899e+02	-3.810892e-03
1.568909e+02	-3.855023e-03
1.577971e+02	-3.899664e-03
1.587085e+02	-3.944822e-03
1.596252e+02	-3.990503e-03
1.605472e+02	-4.036712e-03
1.614745e+02	-4.083457e-03
1.624072e+02	-4.130742e-03
1.633453e+02	-4.178575e-03
1.642887e+02	-4.226961e-03
1.652377e+02	-4.275907e-03
1.661921e+02	-4.325420e-03
1.671520e+02	-4.375506e-03
1.681175e+02	-4.426171e-03
1.690885e+02	-4.477423e-03
1.700651e+02	-4.529268e-03
1.710474e+02	-4.581713e-03
1.720354e+02	-4.634765e-03
1.730291e+02	-4.688431e-03
1.740285e+02	-4.742718e-03
1.750337e+02	-4.797633e-03
1.760446e+02	-4.853184e-03
1.770615e+02	-4.909378e-03
1.780842e+02	-4.966221e-03
1.791128e+02	-5.023723e-03
1.801473e+02	-5.081890e-03
1.811878e+02	-5.140730e-03
1.822344e+02	-5.200251e-03
1.832870e+02	-5.260461e-03
1.843456e+02	-5.321367e-03
1.854104e+02	-5.382978e-03
1.864813e+02	-5.445302e-03
1.875584e+02	-5.508347e-03
1.886418e+02	-5.572122e-03
1.897313e+02	-5.636634e-03
1.908272e+02	-5.701893e-03
1.919294e+02	-5.767907e-03
1.930380e+02	-5.834685e-03
1.941530e+02	-5.902235e-03
1.952744e+02	-5.970567e-03
1.964023e+02	-6.039689e-03
1.975367e+02	-6.109611e-03
1.986777e+02	-6.180342e-03
1.998252e+02	-6.251892e-03
2.009794e+02	-6.324268e-03
2.021403e+02	-6.397483e-03
2.033078e+02	-6.471544e-03
2.044821e+02	-6.546462e-03
2.056632e+02	-6.622246e-03
2.068511e+02	-6.698907e-03
2.080459e+02	-6.776455e-03
2.092475e+02	-6.854900e-03
2.104561e+02	-6.934252e-03
2.116717e+02	-7.014522e-03
2.128943e+02	-7.095721e-03
2.141240e+02	-7.177858e-03
2.153608e+02	-7.260946e-03
2.166047e+02	-7.344994e-03
2.178558e+02	-7.430015e-03
2.191141e+02	-7.516019e-03
2.203797e+02	-7.603018e-03
2.216526e+02	-7.691022e-03
2.229329e+02	-7.780045e-03
2.242205e+02	-7.870097e-03
2.255156e+02	-7.961190e-03
2.268182e+02	-8.053337e-03
2.281283e+02	-8.146549e-03
2.294459e+02	-8.240839e-03
2.307712e+02	-8.336219e-03
2.321041e+02	-8.432702e-03
2.334447e+02	-8.530301e-03
2.347931e+02	-8.629029e-03
2.361493e+02	-8.728897e-03
2.375133e+02	-8.829921e-03
2.388851e+02	-8.932112e-03
2.402649e+02	-9.035485e-03
2.416527e+02	-9.140053e-03
2.430484e+02	-9.245830e-03
2.444523e+02	-9.352829e-03
2.458642e+02	-9.461066e-03
2.472843e+02	-9.570554e-03
2.487126e+02	-9.681307e-03
2.501492e+02	-9.793340e-03
2.515940e+02	-9.906669e-03
2.530472e+02	-1.002131e-02
2.545088e+02	-1.013727e-02
2.559789e+02	-1.025457e-02
2.574574e+02	-1.037323e-02
2.589444e+02	-1.049327e-02
2.604401e+02	-1.061468e-02
2.619444e+02	-1.073750e-02
2.634574e+02	-1.086175e-02
2.649791e+02	-1.098742e-02
2.665096e+02	-1.111455e-02
2.680489e+02	-1.124315e-02
2.695972e+02	-1.137323e-02
2.711544e+02	-1.150482e-02
2.727205e+02	-1.163793e-02
2.742958e+02	-1.177257e-02
2.758801e+02	-1.190877e-02
2.774736e+02	-1.204655e-02
2.790762e+02	-1.218591e-02
2.806882e+02	-1.232689e-02
2.823094e+02	-1.246949e-02
2.839400e+02	-1.261374e-02
2.855800e+02	-1.275966e-02
2.872295e+02	-1.290727e-02
2.888886e+02	-1.305657e-02
2.905572e+02	-1.320761e-02
2.922354e+02	-1.336038e-02
2.939234e+02	-1.351493e-02
2.956211e+02	-1.367125e-02
2.973286e+02	-1.382938e-02
2.990459e+02	-1.398934e-02
3.007732e+02	-1.415115e-02
3.025104e+02	-1.431482e-02
3.042577e+02	-1.448038e-02
3.060151e+02	-1.464786e-02
3.077826e+02	-1.481727e-02
3.095604e+02	-1.498863e-02
3.113484e+02	-1.516198e-02
3.131467e+02	-1.533732e-02
3.149554e+02	-1.551469e-02
3.167746e+02	-1.569410e-02
3.186043e+02	-1.587559e-02
3.204445e+02	-1.605917e-02
3.222954e+02	-1.624487e-02
3.241570e+02	-1.643272e-02
3.260293e+02	-1.662273e-02
3.279124e+02	-1.681493e-02
3.298064e+02	-1.700936e-02
3.317114e+02	-1.720602e-02
3.336273e+02	-1.740496e-02
3.355544e+02	-1.760619e-02
3.374925e+02	-1.780974e-02
3.394418e+02	-1.801564e-02
3.414024e+02	-1.822392e-02
3.433744e+02	-1.843460e-02
3.453577e+02	-1.864771e-02
3.473525e+02	-1.886327e-02
3.493588e+02	-1.908133e-02
3.513766e+02	-1.930190e-02
3.534062e+02	-1.952501e-02
3.554474e+02	-1.975070e-02
3.575005e+02	-1.997899e-02
3.595654e+02	-2.020991e-02
3.616422e+02	-2.044349e-02
3.637311e+02	-2.067977e-02
3.658320e+02	-2.091877e-02
3.679450e+02	-2.116053e-02
3.700702e+02	-2.140507e-02
3.722077e+02	-2.165244e-02
3.743576e+02	-2.190265e-02
3.765199e+02	-2.215575e-02
3.786946e+02	-2.241176e-02
3.808820e+02	-2.267073e-02
3.830819e+02	-2.293268e-02
3.852946e+02	-2.319765e-02
3.875200e+02	-2.346567e-02
3.897583e+02	-2.373678e-02
3.920096e+02	-2.401102e-02
3.942738e+02	-2.428841e-02
3.965511e+02	-2.456900e-02
3.988416e+02	-2.485282e-02
4.011452e+02	-2.513991e-02
4.034622e+02	-2.543031e-02
4.057926e+02	-2.572405e-02
4.081365e+02	-2.602117e-02
4.104938e+02	-2.632172e-02
4.128648e+02	-2.662573e-02
4.152495e+02	-2.693323e-02
4.176480e+02	-2.724428e-02
4.200603e+02	-2.755891e-02
4.224866e+02	-2.787716e-02
4.249268e+02	-2.819907e-02
4.273812e+02	-2.852469e-02
4.298497e+02	-2.885405e-02
4.323325e+02	-2.918721e-02
4.348297e+02	-2.952419e-02
4.373412e+02	-2.986506e-02
4.398673e+02	-3.020985e-02
4.424079e+02	-3.055860e-02
4.449633e+02	-3.091137e-02
4.475334e+02	-3.126819e-02
4.501183e+02	-3.162912e-02
4.527182e+02	-3.199420e-02
4.553330e+02	-3.236347e-02
4.579630e+02	-3.273700e-02
4.606082e+02	-3.311481e-02
4.632687e+02	-3.349697e-02
4.659445e+02	-3.388353e-02
4.686358e+02	-3.427452e-02
4.713426e+02	-3.467001e-02
4.740650e+02	-3.507005e-02
4.768032e+02	-3.547468e-02
4.795572e+02	-3.588396e-02
4.823271e+02	-3.629794e-02
4.851130e+02	-3.671668e-02
4.879150e+02	-3.714023e-02
4.907332e+02	-3.756865e-02
4.935676e+02	-3.800198e-02
4.964185e+02	-3.844029e-02
4.992858e+02	-3.888363e-02
5.021696e+02	-3.933206e-02
5.050701e+02	-3.978564e-02
5.079874e+02	-4.024443e-02
5.109215e+02	-4.070848e-02
5.138726e+02	-4.117786e-02
5.168407e+02	-4.165262e-02
5.198259e+02	-4.213284e-02
5.228284e+02	-4.261856e-02
5.258482e+02	-4.310985e-02
5.288855e+02	-4.360677e-02
5.319403e+02	-4.410940e-02
5.350128e+02	-4.461779e-02
5.381030e+02	-4.513200e-02
5.412111e+02	-4.565212e-02
5.443371e+02	-4.617819e-02
5.474812e+02	-4.671030e-02
5.506434e+02	-4.724850e-02
5.538239e+02	-4.779287e-02
5.570228e+02	-4.834347e-02
5.602401e+02	-4.890039e-02
5.634760e+02	-4.946368e-02
5.667306e+02	-5.003342e-02
5.700040e+02	-5.060969e-02
5.732964e+02	-5.119256e-02
5.766077e+02	-5.178209e-02
5.799382e+02	-5.237838e-02
5.832879e+02	-5.298149e-02
5.866569e+02	-5.359150e-02
5.900454e+02	-5.420849e-02
5.934535e+02	-5.483254e-02
5.968813e+02	-5.546373e-02
6.003288e+02	-5.610214e-02
6.037963e+02	-5.674785e-02
6.072838e+02	-5.740094e-02
6.107914e+02	-5.806149e-02
6.143194e+02	-5.872960e-02
6.178676e+02	-5.940534e-02
6.214364e+02	-6.008880e-02
6.250258e+02	-6.078007e-02
6.286359e+02	-6.147923e-02
6.322669e+02	-6.218638e-02
6.359189e+02	-6.290161e-02
6.395919e+02	-6.362500e-02
6.432862e+02	-6.435664e-02
6.470017e+02	-6.509664e-02
6.507388e+02	-6.584508e-02
6.544974e+02	-6.660206e-02
6.582778e+02	-6.736768e-02
6.620800e+02	-6.814203e-02
6.659041e+02	-6.892520e-02
6.697504e+02	-6.971731e-02
6.736188e+02	-7.051845e-02
6.775096e+02	-7.132871e-02
6.814229e+02	-7.214821e-02
6.853587e+02	-7.297704e-02
6.893173e+02	-7.381532e-02
6.932988e+02	-7.466314e-02
6.973033e+02	-7.552061e-02
7.013309e+02	-7.638784e-02
