Frequency(Hz)	Magnitude(dB)
1.000000e+01	-1.568606e-05
1.005776e+01	-1.586779e-05
1.011585e+01	-1.605162e-05
1.017428e+01	-1.623759e-05
1.023305e+01	-1.642570e-05
1.029215e+01	-1.661600e-05
1.035160e+01	-1.680850e-05
1.041139e+01	-1.700323e-05
1.047153e+01	-1.720022e-05
1.053201e+01	-1.739949e-05
1.059284e+01	-1.760106e-05
1.065403e+01	-1.780498e-05
1.071556e+01	-1.801125e-05
1.077746e+01	-1.821992e-05
1.083971e+01	-1.843100e-05
1.090232e+01	-1.864453e-05
1.096529e+01	-1.886053e-05
1.102862e+01	-1.907903e-05
1.109232e+01	-1.930007e-05
1.115639e+01	-1.952366e-05
1.122083e+01	-1.974985e-05
1.128564e+01	-1.997866e-05
1.135083e+01	-2.021012e-05
1.141639e+01	-2.044426e-05
1.148233e+01	-2.068111e-05
1.154865e+01	-2.092070e-05
1.161536e+01	-2.116307e-05
1.168245e+01	-2.140825e-05
1.174992e+01	-2.165627e-05
1.181779e+01	-2.190717e-05
1.188605e+01	-2.216097e-05
1.195470e+01	-2.241771e-05
1.202375e+01	-2.267742e-05
1.209320e+01	-2.294015e-05
1.216305e+01	-2.320591e-05
1.223330e+01	-2.347476e-05
1.230396e+01	-2.374672e-05
1.237503e+01	-2.402183e-05
1.244651e+01	-2.430013e-05
1.251840e+01	-2.458165e-05
1.259070e+01	-2.486644e-05
1.266343e+01	-2.515452e-05
1.273657e+01	-2.544594e-05
1.281014e+01	-2.574074e-05
1.288413e+01	-2.603895e-05
1.295855e+01	-2.634062e-05
1.303339e+01	-2.664578e-05
1.310867e+01	-2.695448e-05
1.318439e+01	-2.726676e-05
1.326054e+01	-2.758265e-05
1.333713e+01	-2.790220e-05
1.341417e+01	-2.822545e-05
1.349165e+01	-2.855245e-05
1.356958e+01	-2.888324e-05
1.364795e+01	-2.921786e-05
1.372678e+01	-2.955636e-05
1.380607e+01	-2.989877e-05
1.388581e+01	-3.024516e-05
1.396602e+01	-3.059555e-05
1.404668e+01	-3.095001e-05
1.412782e+01	-3.130857e-05
1.420942e+01	-3.167129e-05
1.429149e+01	-3.203821e-05
1.437404e+01	-3.240938e-05
1.445706e+01	-3.278485e-05
1.454057e+01	-3.316467e-05
1.462455e+01	-3.354889e-05
1.470902e+01	-3.393756e-05
1.479398e+01	-3.433074e-05
1.487943e+01	-3.472847e-05
1.496537e+01	-3.513081e-05
1.505181e+01	-3.553780e-05
1.513875e+01	-3.594952e-05
1.522619e+01	-3.636600e-05
1.531414e+01	-3.678731e-05
1.540259e+01	-3.721350e-05
1.549156e+01	-3.764463e-05
1.558103e+01	-3.808075e-05
1.567103e+01	-3.852192e-05
1.576155e+01	-3.896821e-05
1.585258e+01	-3.941966e-05
1.594415e+01	-3.987635e-05
1.603624e+01	-4.033833e-05
1.612886e+01	-4.080565e-05
1.622202e+01	-4.127840e-05
1.631572e+01	-4.175662e-05
1.640996e+01	-4.224038e-05
1.650474e+01	-4.272974e-05
1.660008e+01	-4.322477e-05
1.669596e+01	-4.372554e-05
1.679239e+01	-4.423211e-05
1.688938e+01	-4.474455e-05
1.698694e+01	-4.526293e-05
1.708505e+01	-4.578731e-05
1.718373e+01	-4.631776e-05
1.728299e+01	-4.685437e-05
1.738281e+01	-4.739718e-05
1.748322e+01	-4.794629e-05
1.758420e+01	-4.850176e-05
1.768576e+01	-4.906366e-05
1.778792e+01	-4.963207e-05
1.789066e+01	-5.020707e-05
1.799399e+01	-5.078873e-05
1.809793e+01	-5.137713e-05
1.820246e+01	-5.197235e-05
1.830760e+01	-5.257446e-05
1.841334e+01	-5.318354e-05
1.851969e+01	-5.379968e-05
1.862666e+01	-5.442296e-05
1.873425e+01	-5.505347e-05
1.884246e+01	-5.569127e-05
1.895129e+01	-5.633647e-05
1.906075e+01	-5.698914e-05
1.917085e+01	-5.764937e-05
1.928158e+01	-5.831725e-05
1.939295e+01	-5.899286e-05
1.950496e+01	-5.967631e-05
1.961762e+01	-6.036767e-05
1.973093e+01	-6.106704e-05
1.984490e+01	-6.177451e-05
1.995952e+01	-6.249018e-05
2.007480e+01	-6.321415e-05
2.019076e+01	-6.394649e-05
2.030738e+01	-6.468733e-05
2.042467e+01	-6.543674e-05
2.054264e+01	-6.619484e-05
2.066130e+01	-6.696172e-05
2.078064e+01	-6.773748e-05
2.090066e+01	-6.852223e-05
2.102139e+01	-6.931608e-05
2.114280e+01	-7.011912e-05
2.126492e+01	-7.093146e-05
2.138775e+01	-7.175321e-05
2.151128e+01	-7.258449e-05
2.163553e+01	-7.342539e-05
2.176050e+01	-7.427604e-05
2.188619e+01	-7.513654e-05
2.201260e+01	-7.600701e-05
2.213974e+01	-7.688756e-05
2.226762e+01	-7.777832e-05
2.239624e+01	-7.867940e-05
2.252560e+01	-7.959091e-05
2.265571e+01	-8.051298e-05
2.278656e+01	-8.144574e-05
2.291818e+01	-8.238930e-05
2.305055e+01	-8.334380e-05
2.318369e+01	-8.430935e-05
2.331760e+01	-8.528609e-05
2.345228e+01	-8.627414e-05
2.358774e+01	-8.727364e-05
2.372398e+01	-8.828472e-05
2.386101e+01	-8.930751e-05
2.399883e+01	-9.034215e-05
2.413745e+01	-9.138878e-05
2.427686e+01	-9.244754e-05
2.441709e+01	-9.351856e-05
2.455812e+01	-9.460198e-05
2.469997e+01	-9.569796e-05
2.484263e+01	-9.680664e-05
2.498612e+01	-9.792815e-05
2.513044e+01	-9.906267e-05
2.527559e+01	-1.002103e-04
2.542158e+01	-1.013713e-04
2.556842e+01	-1.025457e-04
2.571610e+01	-1.037337e-04
2.586463e+01	-1.049354e-04
2.601403e+01	-1.061511e-04
2.616428e+01	-1.073809e-04
2.631541e+01	-1.086249e-04
2.646740e+01	-1.098834e-04
2.662028e+01	-1.111564e-04
2.677404e+01	-1.124441e-04
2.692868e+01	-1.137468e-04
2.708422e+01	-1.150646e-04
2.724066e+01	-1.163976e-04
2.739800e+01	-1.177461e-04
2.755625e+01	-1.191102e-04
2.771541e+01	-1.204901e-04
2.787550e+01	-1.218860e-04
2.803650e+01	-1.232981e-04
2.819844e+01	-1.247265e-04
2.836131e+01	-1.261715e-04
2.852513e+01	-1.276332e-04
2.868989e+01	-1.291118e-04
2.885560e+01	-1.306076e-04
2.902227e+01	-1.321207e-04
2.918990e+01	-1.336513e-04
2.935850e+01	-1.351997e-04
2.952807e+01	-1.367660e-04
2.969863e+01	-1.383504e-04
2.987016e+01	-1.399533e-04
3.004269e+01	-1.415746e-04
3.021622e+01	-1.432148e-04
3.039075e+01	-1.448739e-04
3.056628e+01	-1.465523e-04
3.074283e+01	-1.482501e-04
3.092040e+01	-1.499676e-04
3.109900e+01	-1.517050e-04
3.127862e+01	-1.534625e-04
3.145929e+01	-1.552404e-04
3.164099e+01	-1.570389e-04
3.182375e+01	-1.588582e-04
3.200756e+01	-1.606986e-04
3.219244e+01	-1.625603e-04
3.237838e+01	-1.644435e-04
3.256540e+01	-1.663486e-04
3.275349e+01	-1.682758e-04
3.294268e+01	-1.702253e-04
3.313295e+01	-1.721973e-04
3.332433e+01	-1.741922e-04
3.351681e+01	-1.762103e-04
3.371040e+01	-1.782517e-04
3.390511e+01	-1.803167e-04
3.410094e+01	-1.824057e-04
3.429791e+01	-1.845189e-04
3.449601e+01	-1.866565e-04
3.469526e+01	-1.888189e-04
3.489566e+01	-1.910064e-04
3.509721e+01	-1.932192e-04
3.529993e+01	-1.954577e-04
3.550382e+01	-1.977221e-04
3.570889e+01	-2.000127e-04
3.591515e+01	-2.023298e-04
3.612259e+01	-2.046738e-04
3.633123e+01	-2.070450e-04
3.654108e+01	-2.094436e-04
3.675214e+01	-2.118700e-04
3.696442e+01	-2.143245e-04
3.717792e+01	-2.168074e-04
3.739266e+01	-2.193191e-04
3.760864e+01	-2.218600e-04
3.782587e+01	-2.244302e-04
3.804435e+01	-2.270302e-04
3.826409e+01	-2.296604e-04
3.848510e+01	-2.323210e-04
3.870739e+01	-2.350124e-04
3.893096e+01	-2.377350e-04
3.915583e+01	-2.404892e-04
3.938199e+01	-2.432752e-04
3.960946e+01	-2.460935e-04
3.983824e+01	-2.489445e-04
4.006834e+01	-2.518285e-04
4.029978e+01	-2.547459e-04
4.053255e+01	-2.576972e-04
4.076666e+01	-2.606826e-04
4.100213e+01	-2.637026e-04
4.123896e+01	-2.667575e-04
4.147715e+01	-2.698479e-04
4.171672e+01	-2.729741e-04
4.195767e+01	-2.761364e-04
4.220002e+01	-2.793355e-04
4.244377e+01	-2.825715e-04
4.268892e+01	-2.858451e-04
4.293549e+01	-2.891566e-04
4.318348e+01	-2.925064e-04
4.343291e+01	-2.958951e-04
4.368377e+01	-2.993230e-04
4.393609e+01	-3.027906e-04
4.418986e+01	-3.062984e-04
4.444510e+01	-3.098468e-04
4.470182e+01	-3.134363e-04
4.496001e+01	-3.170675e-04
4.521970e+01	-3.207406e-04
4.548089e+01	-3.244564e-04
4.574358e+01	-3.282151e-04
4.600779e+01	-3.320175e-04
4.627353e+01	-3.358638e-04
4.654081e+01	-3.397548e-04
4.680963e+01	-3.436907e-04
4.708000e+01	-3.476723e-04
4.735193e+01	-3.517001e-04
4.762543e+01	-3.557744e-04
4.790051e+01	-3.598960e-04
4.817719e+01	-3.640653e-04
4.845545e+01	-3.682829e-04
4.873533e+01	-3.725494e-04
4.901682e+01	-3.768653e-04
4.929994e+01	-3.812312e-04
4.958470e+01	-3.856477e-04
4.987110e+01	-3.901153e-04
5.015915e+01	-3.946347e-04
5.044887e+01	-3.992065e-04
5.074026e+01	-4.038312e-04
5.103333e+01	-4.085094e-04
5.132810e+01	-4.132419e-04
5.162457e+01	-4.180292e-04
5.192275e+01	-4.228720e-04
5.222265e+01	-4.277708e-04
5.252429e+01	-4.327264e-04
5.282767e+01	-4.377394e-04
5.313280e+01	-4.428105e-04
5.343969e+01	-4.479403e-04
5.374836e+01	-4.531295e-04
5.405880e+01	-4.583789e-04
5.437105e+01	-4.636890e-04
5.468509e+01	-4.690607e-04
5.500095e+01	-4.744946e-04
5.531863e+01	-4.799915e-04
5.563815e+01	-4.855520e-04
5.595951e+01	-4.911769e-04
5.628273e+01	-4.968670e-04
5.660782e+01	-5.026230e-04
5.693479e+01	-5.084457e-04
5.726364e+01	-5.143359e-04
5.759439e+01	-5.202942e-04
5.792705e+01	-5.263216e-04
5.826164e+01	-5.324188e-04
5.859815e+01	-5.385867e-04
5.893662e+01	-5.448259e-04
5.927703e+01	-5.511375e-04
5.961941e+01	-5.575222e-04
5.996377e+01	-5.639808e-04
6.031012e+01	-5.705142e-04
6.065847e+01	-5.771234e-04
6.100883e+01	-5.838090e-04
6.136121e+01	-5.905722e-04
6.171563e+01	-5.974136e-04
6.207210e+01	-6.043344e-04
6.243063e+01	-6.113352e-04
6.279122e+01	-6.184172e-04
6.315390e+01	-6.255813e-04
6.351868e+01	-6.328283e-04
6.388556e+01	-6.401592e-04
6.425456e+01	-6.475751e-04
6.462569e+01	-6.550768e-04
6.499897e+01	-6.626655e-04
6.537440e+01	-6.703421e-04
6.575200e+01	-6.781076e-04
6.613178e+01	-6.859630e-04
6.651375e+01	-6.939094e-04
6.689793e+01	-7.019479e-04
6.728433e+01	-7.100795e-04
6.767297e+01	-7.183053e-04
6.806384e+01	-7.266264e-04
6.845698e+01	-7.350438e-04
6.885238e+01	-7.435588e-04
6.925007e+01	-7.521724e-04
6.965005e+01	-7.608857e-04
7.005235e+01	-7.697000e-04
7.045697e+01	-7.786164e-04
7.086393e+01	-7.876361e-04
7.127323e+01	-7.967602e-04
7.168490e+01	-8.059900e-04
7.209895e+01	-8.153268e-04
7.251539e+01	-8.247717e-04
7.293424e+01	-8.343260e-04
7.335551e+01	-8.439909e-04
7.377920e+01	-8.537678e-04
7.420535e+01	-8.636580e-04
7.463396e+01	-8.736627e-04
7.506504e+01	-8.837833e-04
7.549861e+01	-8.940211e-04
7.593469e+01	-9.043775e-04
7.637328e+01	-9.148538e-04
7.681441e+01	-9.254515e-04
7.725809e+01	-9.361720e-04
7.770433e+01	-9.470166e-04
7.815315e+01	-9.579868e-04
7.860456e+01	-9.690841e-04
7.905857e+01	-9.803100e-04
7.951521e+01	-9.916658e-04
7.997449e+01	-1.003153e-03
8.043642e+01	-1.014774e-03
8.090102e+01	-1.026529e-03
8.136830e+01	-1.038420e-03
8.183828e+01	-1.050449e-03
8.231097e+01	-1.062617e-03
8.278640e+01	-1.074926e-03
8.326457e+01	-1.087378e-03
8.374550e+01	-1.099974e-03
8.422921e+01	-1.112716e-03
8.471572e+01	-1.125605e-03
8.520503e+01	-1.138644e-03
8.569717e+01	-1.151834e-03
8.619215e+01	-1.165176e-03
8.669000e+01	-1.178673e-03
8.719071e+01	-1.192327e-03
8.769432e+01	-1.206138e-03
8.820084e+01	-1.220110e-03
8.871029e+01	-1.234243e-03
8.922267e+01	-1.248540e-03
8.973802e+01	-1.263003e-03
9.025634e+01	-1.277633e-03
9.077766e+01	-1.292432e-03
9.130199e+01	-1.307403e-03
9.182935e+01	-1.322547e-03
9.235975e+01	-1.337867e-03
9.289321e+01	-1.353364e-03
9.342976e+01	-1.369041e-03
9.396941e+01	-1.384899e-03
9.451217e+01	-1.400941e-03
9.505807e+01	-1.417168e-03
9.560712e+01	-1.433584e-03
9.615934e+01	-1.450190e-03
9.671476e+01	-1.466988e-03
9.727338e+01	-1.483980e-03
9.783522e+01	-1.501170e-03
9.840032e+01	-1.518558e-03
9.896867e+01	-1.536148e-03
9.954031e+01	-1.553941e-03
1.001153e+02	-1.571941e-03
1.006935e+02	-1.590149e-03
1.012751e+02	-1.608568e-03
1.018601e+02	-1.627200e-03
1.024484e+02	-1.646048e-03
1.030402e+02	-1.665114e-03
1.036353e+02	-1.684401e-03
1.042339e+02	-1.703912e-03
1.048360e+02	-1.723648e-03
1.054415e+02	-1.743613e-03
1.060505e+02	-1.763809e-03
1.066631e+02	-1.784239e-03
1.072791e+02	-1.804906e-03
1.078988e+02	-1.825812e-03
1.085220e+02	-1.846960e-03
1.091488e+02	-1.868352e-03
1.097793e+02	-1.889993e-03
1.104133e+02	-1.911884e-03
1.110511e+02	-1.934029e-03
1.116925e+02	-1.956430e-03
1.123376e+02	-1.979091e-03
1.129865e+02	-2.002014e-03
1.136391e+02	-2.025202e-03
1.142955e+02	-2.048659e-03
1.149556e+02	-2.072388e-03
1.156196e+02	-2.096391e-03
1.162874e+02	-2.120673e-03
1.169591e+02	-2.145235e-03
1.176347e+02	-2.170082e-03
1.183141e+02	-2.195217e-03
1.189975e+02	-2.220642e-03
1.196848e+02	-2.246362e-03
1.203761e+02	-2.272380e-03
1.210714e+02	-2.298699e-03
1.217707e+02	-2.325323e-03
1.224740e+02	-2.352255e-03
1.231814e+02	-2.379499e-03
1.238929e+02	-2.407059e-03
1.246085e+02	-2.434938e-03
1.253283e+02	-2.463139e-03
1.260522e+02	-2.491667e-03
1.267802e+02	-2.520525e-03
1.275125e+02	-2.549717e-03
1.282490e+02	-2.579248e-03
1.289898e+02	-2.609120e-03
1.297348e+02	-2.639338e-03
1.304842e+02	-2.669906e-03
1.312378e+02	-2.700828e-03
1.319959e+02	-2.732108e-03
1.327583e+02	-2.763750e-03
1.335251e+02	-2.795759e-03
1.342963e+02	-2.828138e-03
1.350720e+02	-2.860892e-03
1.358522e+02	-2.894025e-03
1.366368e+02	-2.927542e-03
1.374260e+02	-2.961446e-03
1.382198e+02	-2.995744e-03
1.390182e+02	-3.030438e-03
1.398211e+02	-3.065534e-03
1.406287e+02	-3.101036e-03
1.414410e+02	-3.136950e-03
1.422579e+02	-3.173279e-03
1.430796e+02	-3.210028e-03
1.439060e+02	-3.247203e-03
1.447372e+02	-3.284809e-03
1.455732e+02	-3.322850e-03
1.464141e+02	-3.361331e-03
1.472597e+02	-3.400257e-03
1.481103e+02	-3.439635e-03
1.489658e+02	-3.479468e-03
1.498262e+02	-3.519762e-03
1.506916e+02	-3.560522e-03
1.515620e+02	-3.601755e-03
1.524374e+02	-3.643465e-03
1.533179e+02	-3.685657e-03
1.542034e+02	-3.728338e-03
1.550941e+02	-3.771513e-03
1.559899e+02	-3.815188e-03
1.568909e+02	-3.859368e-03
1.577971e+02	-3.904060e-03
1.587085e+02	-3.949269e-03
1.596252e+02	-3.995001e-03
1.605472e+02	-4.041262e-03
1.614745e+02	-4.088059e-03
1.624072e+02	-4.135398e-03
1.633453e+02	-4.183285e-03
1.642887e+02	-4.231725e-03
1.652377e+02	-4.280727e-03
1.661921e+02	-4.330295e-03
1.671520e+02	-4.380438e-03
1.681175e+02	-4.431160e-03
1.690885e+02	-4.482470e-03
1.700651e+02	-4.534373e-03
1.710474e+02	-4.586877e-03
1.720354e+02	-4.639989e-03
1.730291e+02	-4.693715e-03
1.740285e+02	-4.748063e-03
1.750337e+02	-4.803040e-03
1.760446e+02	-4.858654e-03
1.770615e+02	-4.914910e-03
1.780842e+02	-4.971818e-03
1.791128e+02	-5.029385e-03
1.801473e+02	-5.087617e-03
1.811878e+02	-5.146523e-03
1.822344e+02	-5.206111e-03
1.832870e+02	-5.266389e-03
1.843456e+02	-5.327364e-03
1.854104e+02	-5.389044e-03
1.864813e+02	-5.451439e-03
1.875584e+02	-5.514555e-03
1.886418e+02	-5.578401e-03
1.897313e+02	-5.642986e-03
1.908272e+02	-5.708319e-03
1.919294e+02	-5.774407e-03
1.930380e+02	-5.841260e-03
1.941530e+02	-5.908886e-03
1.952744e+02	-5.977295e-03
1.964023e+02	-6.046495e-03
1.975367e+02	-6.116496e-03
1.986777e+02	-6.187306e-03
1.998252e+02	-6.258936e-03
2.009794e+02	-6.331394e-03
2.021403e+02	-6.404691e-03
2.033078e+02	-6.478835e-03
2.044821e+02	-6.553837e-03
2.056632e+02	-6.629707e-03
2.068511e+02	-6.706455e-03
2.080459e+02	-6.784090e-03
2.092475e+02	-6.862623e-03
2.104561e+02	-6.942064e-03
2.116717e+02	-7.022425e-03
2.128943e+02	-7.103714e-03
2.141240e+02	-7.185945e-03
2.153608e+02	-7.269126e-03
2.166047e+02	-7.353269e-03
2.178558e+02	-7.438385e-03
2.191141e+02	-7.524486e-03
2.203797e+02	-7.611582e-03
2.216526e+02	-7.699686e-03
2.229329e+02	-7.788809e-03
2.242205e+02	-7.878962e-03
2.255156e+02	-7.970157e-03
2.268182e+02	-8.062408e-03
2.281283e+02	-8.155725e-03
2.294459e+02	-8.250121e-03
2.307712e+02	-8.345609e-03
2.321041e+02	-8.442200e-03
2.334447e+02	-8.539909e-03
2.347931e+02	-8.638747e-03
2.361493e+02	-8.738728e-03
2.375133e+02	-8.839865e-03
2.388851e+02	-8.942171e-03
2.402649e+02	-9.045661e-03
2.416527e+02	-9.150346e-03
2.430484e+02	-9.256242e-03
2.444523e+02	-9.363362e-03
2.458642e+02	-9.471720e-03
2.472843e+02	-9.581331e-03
2.487126e+02	-9.692209e-03
2.501492e+02	-9.804368e-03
2.515940e+02	-9.917824e-03
2.530472e+02	-1.003259e-02
2.545088e+02	-1.014869e-02
2.559789e+02	-1.026612e-02
2.574574e+02	-1.038491e-02
2.589444e+02	-1.050508e-02
2.604401e+02	-1.062663e-02
2.619444e+02	-1.074959e-02
2.634574e+02	-1.087397e-02
2.649791e+02	-1.099979e-02
2.665096e+02	-1.112706e-02
2.680489e+02	-1.125581e-02
2.695972e+02	-1.138603e-02
2.711544e+02	-1.151777e-02
2.727205e+02	-1.165103e-02
2.742958e+02	-1.178582e-02
2.758801e+02	-1.192218e-02
2.774736e+02	-1.206010e-02
2.790762e+02	-1.219963e-02
2.806882e+02	-1.234076e-02
2.823094e+02	-1.248353e-02
2.839400e+02	-1.262794e-02
2.855800e+02	-1.277402e-02
2.872295e+02	-1.292179e-02
2.888886e+02	-1.307127e-02
2.905572e+02	-1.322247e-02
2.922354e+02	-1.337542e-02
2.939234e+02	-1.353013e-02
2.956211e+02	-1.368664e-02
2.973286e+02	-1.384495e-02
2.990459e+02	-1.400508e-02
3.007732e+02	-1.416707e-02
3.025104e+02	-1.433093e-02
3.042577e+02	-1.449668e-02
3.060151e+02	-1.466434e-02
3.077826e+02	-1.483394e-02
3.095604e+02	-1.500550e-02
3.113484e+02	-1.517903e-02
3.131467e+02	-1.535457e-02
3.149554e+02	-1.553214e-02
3.167746e+02	-1.571176e-02
3.186043e+02	-1.589345e-02
3.204445e+02	-1.607724e-02
3.222954e+02	-1.626314e-02
3.241570e+02	-1.645120e-02
3.260293e+02	-1.664142e-02
3.279124e+02	-1.683384e-02
3.298064e+02	-1.702848e-02
3.317114e+02	-1.722537e-02
3.336273e+02	-1.742453e-02
3.355544e+02	-1.762599e-02
3.374925e+02	-1.782977e-02
3.394418e+02	-1.803590e-02
3.414024e+02	-1.824441e-02
3.433744e+02	-1.845532e-02
3.453577e+02	-1.866867e-02
3.473525e+02	-1.888448e-02
3.493588e+02	-1.910278e-02
3.513766e+02	-1.932360e-02
3.534062e+02	-1.954696e-02
3.554474e+02	-1.977290e-02
3.575005e+02	-2.000144e-02
3.595654e+02	-2.023262e-02
3.616422e+02	-2.046647e-02
3.637311e+02	-2.070301e-02
3.658320e+02	-2.094228e-02
3.679450e+02	-2.118431e-02
3.700702e+02	-2.142913e-02
3.722077e+02	-2.167677e-02
3.743576e+02	-2.192726e-02
3.765199e+02	-2.218064e-02
3.786946e+02	-2.243694e-02
3.808820e+02	-2.269620e-02
3.830819e+02	-2.295844e-02
3.852946e+02	-2.322371e-02
3.875200e+02	-2.349203e-02
3.897583e+02	-2.376344e-02
3.920096e+02	-2.403799e-02
3.942738e+02	-2.431569e-02
3.965511e+02	-2.459659e-02
3.988416e+02	-2.488073e-02
4.011452e+02	-2.516814e-02
4.034622e+02	-2.545886e-02
4.057926e+02	-2.575293e-02
4.081365e+02	-2.605039e-02
4.104938e+02	-2.635127e-02
4.128648e+02	-2.665562e-02
4.152495e+02	-2.696347e-02
4.176480e+02	-2.727486e-02
4.200603e+02	-2.758984e-02
4.224866e+02	-2.790845e-02
4.249268e+02	-2.823072e-02
4.273812e+02	-2.855670e-02
4.298497e+02	-2.888643e-02
4.323325e+02	-2.921996e-02
4.348297e+02	-2.955732e-02
4.373412e+02	-2.989857e-02
4.398673e+02	-3.024374e-02
4.424079e+02	-3.059289e-02
4.449633e+02	-3.094604e-02
4.475334e+02	-3.130327e-02
4.501183e+02	-3.166460e-02
4.527182e+02	-3.203008e-02
4.553330e+02	-3.239977e-02
4.579630e+02	-3.277371e-02
4.606082e+02	-3.315195e-02
4.632687e+02	-3.353453e-02
4.659445e+02	-3.392152e-02
4.686358e+02	-3.431295e-02
4.713426e+02	-3.470888e-02
4.740650e+02	-3.510936e-02
4.768032e+02	-3.551444e-02
4.795572e+02	-3.592418e-02
4.823271e+02	-3.633862e-02
4.851130e+02	-3.675783e-02
4.879150e+02	-3.718185e-02
4.907332e+02	-3.761074e-02
4.935676e+02	-3.804456e-02
4.964185e+02	-3.848335e-02
4.992858e+02	-3.892719e-02
5.021696e+02	-3.937612e-02
5.050701e+02	-3.983021e-02
5.079874e+02	-4.028950e-02
5.109215e+02	-4.075407e-02
5.138726e+02	-4.122397e-02
5.168407e+02	-4.169926e-02
5.198259e+02	-4.218001e-02
5.228284e+02	-4.266627e-02
5.258482e+02	-4.315810e-02
5.288855e+02	-4.365558e-02
5.319403e+02	-4.415876e-02
5.350128e+02	-4.466772e-02
5.381030e+02	-4.518251e-02
5.412111e+02	-4.570320e-02
5.443371e+02	-4.622985e-02
5.474812e+02	-4.676255e-02
5.506434e+02	-4.730135e-02
5.538239e+02	-4.784632e-02
5.570228e+02	-4.839754e-02
5.602401e+02	-4.895507e-02
5.634760e+02	-4.951899e-02
5.667306e+02	-5.008936e-02
5.700040e+02	-5.066627e-02
5.732964e+02	-5.124978e-02
5.766077e+02	-5.183997e-02
5.799382e+02	-5.243691e-02
5.832879e+02	-5.304069e-02
5.866569e+02	-5.365138e-02
5.900454e+02	-5.426905e-02
5.934535e+02	-5.489380e-02
5.968813e+02	-5.552568e-02
6.003288e+02	-5.616479e-02
6.037963e+02	-5.681121e-02
6.072838e+02	-5.746503e-02
6.107914e+02	-5.812631e-02
6.143194e+02	-5.879515e-02
6.178676e+02	-5.947164e-02
6.214364e+02	-6.015586e-02
6.250258e+02	-6.084789e-02
6.286359e+02	-6.154782e-02
6.322669e+02	-6.225575e-02
6.359189e+02	-6.297177e-02
6.395919e+02	-6.369596e-02
6.432862e+02	-6.442841e-02
6.470017e+02	-6.516922e-02
6.507388e+02	-6.591849e-02
6.544974e+02	-6.667631e-02
6.582778e+02	-6.744276e-02
6.620800e+02	-6.821796e-02
6.659041e+02	-6.900200e-02
6.697504e+02	-6.979498e-02
6.736188e+02	-7.059700e-02
6.775096e+02	-7.140815e-02
6.814229e+02	-7.222855e-02
6.853587e+02	-7.305830e-02
6.893173e+02	-7.389749e-02
6.932988e+02	-7.474624e-02
6.973033e+02	-7.560466e-02
7.013309e+02	-7.647284e-02
