Frequency(Hz)	Magnitude(dB)
1.000000e+01	-2.282561e+00
1.005776e+01	-2.303074e+00
1.011585e+01	-2.323880e+00
1.017428e+01	-2.344506e+00
1.023305e+01	-2.365340e+00
1.029215e+01	-2.386494e+00
1.035160e+01	-2.407629e+00
1.041139e+01	-2.429066e+00
1.047153e+01	-2.450760e+00
1.053201e+01	-2.472378e+00
1.059284e+01	-2.493948e+00
1.065403e+01	-2.515930e+00
1.071556e+01	-2.537967e+00
1.077746e+01	-2.560300e+00
1.083971e+01	-2.582576e+00
1.090232e+01	-2.605219e+00
1.096529e+01	-2.627653e+00
1.102862e+01	-2.650504e+00
1.109232e+01	-2.673456e+00
1.115639e+01	-2.696652e+00
1.122083e+01	-2.719700e+00
1.128564e+01	-2.743100e+00
1.135083e+01	-2.766539e+00
1.141639e+01	-2.790193e+00
1.148233e+01	-2.813996e+00
1.154865e+01	-2.837808e+00
1.161536e+01	-2.862113e+00
1.168245e+01	-2.886369e+00
1.174992e+01	-2.910555e+00
1.181779e+01	-2.935053e+00
1.188605e+01	-2.959706e+00
1.195470e+01	-2.984504e+00
1.202375e+01	-3.009574e+00
1.209320e+01	-3.034406e+00
1.216305e+01	-3.059851e+00
1.223330e+01	-3.085020e+00
1.230396e+01	-3.110601e+00
1.237503e+01	-3.136270e+00
1.244651e+01	-3.162248e+00
1.251840e+01	-3.187860e+00
1.259070e+01	-3.214233e+00
1.266343e+01	-3.240338e+00
1.273657e+01	-3.266678e+00
1.281014e+01	-3.293331e+00
1.288413e+01	-3.320042e+00
1.295855e+01	-3.346895e+00
1.303339e+01	-3.373600e+00
1.310867e+01	-3.401050e+00
1.318439e+01	-3.428066e+00
1.326054e+01	-3.455353e+00
1.333713e+01	-3.482911e+00
1.341417e+01	-3.510354e+00
1.349165e+01	-3.538358e+00
1.356958e+01	-3.566099e+00
1.364795e+01	-3.594214e+00
1.372678e+01	-3.622474e+00
1.380607e+01	-3.651177e+00
1.388581e+01	-3.679497e+00
1.396602e+01	-3.708109e+00
1.404668e+01	-3.736969e+00
1.412782e+01	-3.765938e+00
1.420942e+01	-3.795157e+00
1.429149e+01	-3.824256e+00
1.437404e+01	-3.853531e+00
1.445706e+01	-3.883064e+00
1.454057e+01	-3.912927e+00
1.462455e+01	-3.942301e+00
1.470902e+01	-3.972384e+00
1.479398e+01	-4.002435e+00
1.487943e+01	-4.032719e+00
1.496537e+01	-4.063121e+00
1.505181e+01	-4.093450e+00
1.513875e+01	-4.123788e+00
1.522619e+01	-4.154710e+00
1.531414e+01	-4.185438e+00
1.540259e+01	-4.216458e+00
1.549156e+01	-4.247817e+00
1.558103e+01	-4.279165e+00
1.567103e+01	-4.310737e+00
1.576155e+01	-4.341915e+00
1.585258e+01	-4.373854e+00
1.594415e+01	-4.405597e+00
1.603624e+01	-4.437411e+00
1.612886e+01	-4.469372e+00
1.622202e+01	-4.501565e+00
1.631572e+01	-4.533855e+00
1.640996e+01	-4.566404e+00
1.650474e+01	-4.598989e+00
1.660008e+01	-4.631885e+00
1.669596e+01	-4.664975e+00
1.679239e+01	-4.697921e+00
1.688938e+01	-4.731077e+00
1.698694e+01	-4.764058e+00
1.708505e+01	-4.797439e+00
1.718373e+01	-4.831280e+00
1.728299e+01	-4.865208e+00
1.738281e+01	-4.898452e+00
1.748322e+01	-4.932548e+00
1.758420e+01	-4.966491e+00
1.768576e+01	-5.000602e+00
1.778792e+01	-5.035040e+00
1.789066e+01	-5.069179e+00
1.799399e+01	-5.103628e+00
1.809793e+01	-5.138250e+00
1.820246e+01	-5.173089e+00
1.830760e+01	-5.208171e+00
1.841334e+01	-5.243324e+00
1.851969e+01	-5.278098e+00
1.862666e+01	-5.313351e+00
1.873425e+01	-5.348691e+00
1.884246e+01	-5.384447e+00
1.895129e+01	-5.420096e+00
1.906075e+01	-5.455685e+00
1.917085e+01	-5.491626e+00
1.928158e+01	-5.527365e+00
1.939295e+01	-5.563558e+00
1.950496e+01	-5.599537e+00
1.961762e+01	-5.636033e+00
1.973093e+01	-5.672130e+00
1.984490e+01	-5.708869e+00
1.995952e+01	-5.745805e+00
2.007480e+01	-5.782480e+00
2.019076e+01	-5.819229e+00
2.030738e+01	-5.856219e+00
2.042467e+01	-5.893414e+00
2.054264e+01	-5.930569e+00
2.066130e+01	-5.967884e+00
2.078064e+01	-6.005144e+00
2.090066e+01	-6.042873e+00
2.102139e+01	-6.080331e+00
2.114280e+01	-6.118117e+00
2.126492e+01	-6.155722e+00
2.138775e+01	-6.194051e+00
2.151128e+01	-6.232382e+00
2.163553e+01	-6.270340e+00
2.176050e+01	-6.308324e+00
2.188619e+01	-6.346532e+00
2.201260e+01	-6.385172e+00
2.213974e+01	-6.423753e+00
2.226762e+01	-6.462644e+00
2.239624e+01	-6.501185e+00
2.252560e+01	-6.540182e+00
2.265571e+01	-6.579229e+00
2.278656e+01	-6.618233e+00
2.291818e+01	-6.657536e+00
2.305055e+01	-6.696513e+00
2.318369e+01	-6.735930e+00
2.331760e+01	-6.775908e+00
2.345228e+01	-6.815097e+00
2.358774e+01	-6.854638e+00
2.372398e+01	-6.894404e+00
2.386101e+01	-6.934479e+00
2.399883e+01	-6.973858e+00
2.413745e+01	-7.014442e+00
2.427686e+01	-7.054885e+00
2.441709e+01	-7.094483e+00
2.455812e+01	-7.135201e+00
2.469997e+01	-7.175621e+00
2.484263e+01	-7.215818e+00
2.498612e+01	-7.255963e+00
2.513044e+01	-7.297251e+00
2.527559e+01	-7.337584e+00
2.542158e+01	-7.378671e+00
2.556842e+01	-7.419553e+00
2.571610e+01	-7.460660e+00
2.586463e+01	-7.501614e+00
2.601403e+01	-7.542880e+00
2.616428e+01	-7.583949e+00
2.631541e+01	-7.625550e+00
2.646740e+01	-7.666585e+00
2.662028e+01	-7.708585e+00
2.677404e+01	-7.749872e+00
2.692868e+01	-7.791412e+00
2.708422e+01	-7.833195e+00
2.724066e+01	-7.875088e+00
2.739800e+01	-7.917361e+00
2.755625e+01	-7.958999e+00
2.771541e+01	-8.001166e+00
2.787550e+01	-8.043377e+00
2.803650e+01	-8.085545e+00
2.819844e+01	-8.127648e+00
2.836131e+01	-8.170319e+00
2.852513e+01	-8.212536e+00
2.868989e+01	-8.255073e+00
2.885560e+01	-8.297608e+00
2.902227e+01	-8.340398e+00
2.918990e+01	-8.383023e+00
2.935850e+01	-8.425727e+00
2.952807e+01	-8.468694e+00
2.969863e+01	-8.511910e+00
2.987016e+01	-8.554815e+00
3.004269e+01	-8.598040e+00
3.021622e+01	-8.640875e+00
3.039075e+01	-8.684030e+00
3.056628e+01	-8.727337e+00
3.074283e+01	-8.770726e+00
3.092040e+01	-8.814351e+00
3.109900e+01	-8.857536e+00
3.127862e+01	-8.901270e+00
3.145929e+01	-8.944840e+00
3.164099e+01	-8.988811e+00
3.182375e+01	-9.032280e+00
3.200756e+01	-9.076443e+00
3.219244e+01	-9.119895e+00
3.237838e+01	-9.163797e+00
3.256540e+01	-9.208070e+00
3.275349e+01	-9.252189e+00
3.294268e+01	-9.296268e+00
3.313295e+01	-9.340371e+00
3.332433e+01	-9.384699e+00
3.351681e+01	-9.428788e+00
3.371040e+01	-9.472944e+00
3.390511e+01	-9.517079e+00
3.410094e+01	-9.561851e+00
3.429791e+01	-9.606461e+00
3.449601e+01	-9.650583e+00
3.469526e+01	-9.695491e+00
3.489566e+01	-9.740493e+00
3.509721e+01	-9.785061e+00
3.529993e+01	-9.830071e+00
3.550382e+01	-9.874610e+00
3.570889e+01	-9.920346e+00
3.591515e+01	-9.964753e+00
3.612259e+01	-1.000940e+01
3.633123e+01	-1.005463e+01
3.654108e+01	-1.009965e+01
3.675214e+01	-1.014544e+01
3.696442e+01	-1.019050e+01
3.717792e+01	-1.023520e+01
3.739266e+01	-1.028057e+01
3.760864e+01	-1.032625e+01
3.782587e+01	-1.037165e+01
3.804435e+01	-1.041650e+01
3.826409e+01	-1.046257e+01
3.848510e+01	-1.050826e+01
3.870739e+01	-1.055293e+01
3.893096e+01	-1.059914e+01
3.915583e+01	-1.064546e+01
3.938199e+01	-1.069063e+01
3.960946e+01	-1.073700e+01
3.983824e+01	-1.078237e+01
4.006834e+01	-1.082824e+01
4.029978e+01	-1.087408e+01
4.053255e+01	-1.092000e+01
4.076666e+01	-1.096613e+01
4.100213e+01	-1.101236e+01
4.123896e+01	-1.105775e+01
4.147715e+01	-1.110386e+01
4.171672e+01	-1.114997e+01
4.195767e+01	-1.119691e+01
4.220002e+01	-1.124324e+01
4.244377e+01	-1.128903e+01
4.268892e+01	-1.133534e+01
4.293549e+01	-1.138201e+01
4.318348e+01	-1.142790e+01
4.343291e+01	-1.147415e+01
4.368377e+01	-1.152152e+01
4.393609e+01	-1.156793e+01
4.418986e+01	-1.161456e+01
4.444510e+01	-1.166111e+01
4.470182e+01	-1.170715e+01
4.496001e+01	-1.175442e+01
4.521970e+01	-1.180128e+01
4.548089e+01	-1.184733e+01
4.574358e+01	-1.189439e+01
4.600779e+01	-1.194160e+01
4.627353e+01	-1.198846e+01
4.654081e+01	-1.203519e+01
4.680963e+01	-1.208166e+01
4.708000e+01	-1.212827e+01
4.735193e+01	-1.217583e+01
4.762543e+01	-1.222328e+01
4.790051e+01	-1.226972e+01
4.817719e+01	-1.231707e+01
4.845545e+01	-1.236331e+01
4.873533e+01	-1.241085e+01
4.901682e+01	-1.245845e+01
4.929994e+01	-1.250577e+01
4.958470e+01	-1.255217e+01
4.987110e+01	-1.260017e+01
5.015915e+01	-1.264779e+01
5.044887e+01	-1.269461e+01
5.074026e+01	-1.274160e+01
5.103333e+01	-1.278910e+01
5.132810e+01	-1.283635e+01
5.162457e+01	-1.288460e+01
5.192275e+01	-1.293162e+01
5.222265e+01	-1.297962e+01
5.252429e+01	-1.302686e+01
5.282767e+01	-1.307430e+01
5.313280e+01	-1.312244e+01
5.343969e+01	-1.316962e+01
5.374836e+01	-1.321767e+01
5.405880e+01	-1.326555e+01
5.437105e+01	-1.331244e+01
5.468509e+01	-1.336038e+01
5.500095e+01	-1.340766e+01
5.531863e+01	-1.345511e+01
5.563815e+01	-1.350290e+01
5.595951e+01	-1.355186e+01
5.628273e+01	-1.360009e+01
5.660782e+01	-1.364690e+01
5.693479e+01	-1.369538e+01
5.726364e+01	-1.374285e+01
5.759439e+01	-1.378999e+01
5.792705e+01	-1.383906e+01
5.826164e+01	-1.388691e+01
5.859815e+01	-1.393457e+01
5.893662e+01	-1.398277e+01
5.927703e+01	-1.402986e+01
5.961941e+01	-1.407879e+01
5.996377e+01	-1.412613e+01
6.031012e+01	-1.417532e+01
6.065847e+01	-1.422306e+01
6.100883e+01	-1.427118e+01
6.136121e+01	-1.431966e+01
6.171563e+01	-1.436692e+01
6.207210e+01	-1.441527e+01
6.243063e+01	-1.446344e+01
6.279122e+01	-1.451252e+01
6.315390e+01	-1.456046e+01
6.351868e+01	-1.460802e+01
6.388556e+01	-1.465603e+01
6.425456e+01	-1.470696e+01
6.462569e+01	-1.475394e+01
6.499897e+01	-1.480246e+01
6.537440e+01	-1.485011e+01
6.575200e+01	-1.489832e+01
6.613178e+01	-1.494789e+01
6.651375e+01	-1.499521e+01
6.689793e+01	-1.504457e+01
6.728433e+01	-1.509277e+01
6.767297e+01	-1.514125e+01
6.806384e+01	-1.519029e+01
6.845698e+01	-1.523828e+01
6.885238e+01	-1.528627e+01
6.925007e+01	-1.533537e+01
6.965005e+01	-1.538287e+01
7.005235e+01	-1.543143e+01
7.045697e+01	-1.548113e+01
7.086393e+01	-1.552906e+01
7.127323e+01	-1.557795e+01
7.168490e+01	-1.562703e+01
7.209895e+01	-1.567480e+01
7.251539e+01	-1.572438e+01
7.293424e+01	-1.577293e+01
7.335551e+01	-1.582218e+01
7.377920e+01	-1.587040e+01
7.420535e+01	-1.591924e+01
7.463396e+01	-1.596762e+01
7.506504e+01	-1.601732e+01
7.549861e+01	-1.606543e+01
7.593469e+01	-1.611366e+01
7.637328e+01	-1.616286e+01
7.681441e+01	-1.621143e+01
7.725809e+01	-1.626033e+01
7.770433e+01	-1.630981e+01
7.815315e+01	-1.635784e+01
7.860456e+01	-1.640768e+01
7.905857e+01	-1.645681e+01
7.951521e+01	-1.650491e+01
7.997449e+01	-1.655409e+01
8.043642e+01	-1.660367e+01
8.090102e+01	-1.665203e+01
8.136830e+01	-1.670080e+01
8.183828e+01	-1.675018e+01
8.231097e+01	-1.679916e+01
8.278640e+01	-1.684732e+01
8.326457e+01	-1.689682e+01
8.374550e+01	-1.694524e+01
8.422921e+01	-1.699611e+01
8.471572e+01	-1.704456e+01
8.520503e+01	-1.709212e+01
8.569717e+01	-1.714190e+01
8.619215e+01	-1.719134e+01
8.669000e+01	-1.724147e+01
8.719071e+01	-1.728886e+01
8.769432e+01	-1.733976e+01
8.820084e+01	-1.738723e+01
8.871029e+01	-1.743645e+01
8.922267e+01	-1.748610e+01
8.973802e+01	-1.753521e+01
9.025634e+01	-1.758438e+01
9.077766e+01	-1.763398e+01
9.130199e+01	-1.768225e+01
9.182935e+01	-1.773178e+01
9.235975e+01	-1.778091e+01
9.289321e+01	-1.783027e+01
9.342976e+01	-1.788015e+01
9.396941e+01	-1.792779e+01
9.451217e+01	-1.797772e+01
9.505807e+01	-1.802720e+01
9.560712e+01	-1.807553e+01
9.615934e+01	-1.812523e+01
9.671476e+01	-1.817466e+01
9.727338e+01	-1.822475e+01
9.783522e+01	-1.827381e+01
9.840032e+01	-1.832203e+01
9.896867e+01	-1.837244e+01
9.954031e+01	-1.842220e+01
1.001153e+02	-1.847041e+01
1.006935e+02	-1.851977e+01
1.012751e+02	-1.856763e+01
1.018601e+02	-1.861867e+01
1.024484e+02	-1.866786e+01
1.030402e+02	-1.871614e+01
1.036353e+02	-1.876612e+01
1.042339e+02	-1.881654e+01
1.048360e+02	-1.886558e+01
1.054415e+02	-1.891509e+01
1.060505e+02	-1.896315e+01
1.066631e+02	-1.901463e+01
1.072791e+02	-1.906261e+01
1.078988e+02	-1.911048e+01
1.085220e+02	-1.916137e+01
1.091488e+02	-1.921002e+01
1.097793e+02	-1.926150e+01
1.104133e+02	-1.931012e+01
1.110511e+02	-1.935878e+01
1.116925e+02	-1.940719e+01
1.123376e+02	-1.945933e+01
1.129865e+02	-1.950811e+01
1.136391e+02	-1.955860e+01
1.142955e+02	-1.960758e+01
1.149556e+02	-1.965718e+01
1.156196e+02	-1.970505e+01
1.162874e+02	-1.975571e+01
1.169591e+02	-1.980442e+01
1.176347e+02	-1.985529e+01
1.183141e+02	-1.990321e+01
1.189975e+02	-1.995389e+01
1.196848e+02	-2.000196e+01
1.203761e+02	-2.005259e+01
1.210714e+02	-2.010184e+01
1.217707e+02	-2.015089e+01
1.224740e+02	-2.020161e+01
1.231814e+02	-2.025041e+01
1.238929e+02	-2.030125e+01
1.246085e+02	-2.035009e+01
1.253283e+02	-2.039948e+01
1.260522e+02	-2.044947e+01
1.267802e+02	-2.049811e+01
1.275125e+02	-2.054671e+01
1.282490e+02	-2.059716e+01
1.289898e+02	-2.064852e+01
1.297348e+02	-2.069632e+01
1.304842e+02	-2.074775e+01
1.312378e+02	-2.079629e+01
1.319959e+02	-2.084442e+01
1.327583e+02	-2.089628e+01
1.335251e+02	-2.094646e+01
1.342963e+02	-2.099440e+01
1.350720e+02	-2.104321e+01
1.358522e+02	-2.109424e+01
1.366368e+02	-2.114250e+01
1.374260e+02	-2.119407e+01
1.382198e+02	-2.124149e+01
1.390182e+02	-2.129149e+01
1.398211e+02	-2.134141e+01
1.406287e+02	-2.139308e+01
1.414410e+02	-2.144345e+01
1.422579e+02	-2.149026e+01
1.430796e+02	-2.153971e+01
1.439060e+02	-2.158979e+01
1.447372e+02	-2.164024e+01
1.455732e+02	-2.169151e+01
1.464141e+02	-2.174031e+01
1.472597e+02	-2.179012e+01
1.481103e+02	-2.184087e+01
1.489658e+02	-2.188827e+01
1.498262e+02	-2.194020e+01
1.506916e+02	-2.198780e+01
1.515620e+02	-2.203828e+01
1.524374e+02	-2.208597e+01
1.533179e+02	-2.213916e+01
1.542034e+02	-2.218911e+01
1.550941e+02	-2.223720e+01
1.559899e+02	-2.228867e+01
1.568909e+02	-2.233726e+01
1.577971e+02	-2.238526e+01
1.587085e+02	-2.243505e+01
1.596252e+02	-2.248555e+01
1.605472e+02	-2.253689e+01
1.614745e+02	-2.258538e+01
1.624072e+02	-2.263475e+01
1.633453e+02	-2.268570e+01
1.642887e+02	-2.273336e+01
1.652377e+02	-2.278552e+01
1.661921e+02	-2.283515e+01
1.671520e+02	-2.288086e+01
1.681175e+02	-2.293268e+01
1.690885e+02	-2.298331e+01
1.700651e+02	-2.303252e+01
1.710474e+02	-2.308524e+01
1.720354e+02	-2.313274e+01
1.730291e+02	-2.318324e+01
1.740285e+02	-2.323193e+01
1.750337e+02	-2.328326e+01
1.760446e+02	-2.333216e+01
1.770615e+02	-2.338253e+01
1.780842e+02	-2.343151e+01
1.791128e+02	-2.348166e+01
1.801473e+02	-2.353174e+01
1.811878e+02	-2.358369e+01
1.822344e+02	-2.363475e+01
1.832870e+02	-2.368149e+01
1.843456e+02	-2.373201e+01
1.854104e+02	-2.378123e+01
1.864813e+02	-2.383246e+01
1.875584e+02	-2.387837e+01
1.886418e+02	-2.393101e+01
1.897313e+02	-2.398122e+01
1.908272e+02	-2.402930e+01
1.919294e+02	-2.407881e+01
1.930380e+02	-2.412897e+01
1.941530e+02	-2.417915e+01
1.952744e+02	-2.423057e+01
1.964023e+02	-2.427832e+01
1.975367e+02	-2.433021e+01
1.986777e+02	-2.438033e+01
1.998252e+02	-2.442717e+01
2.009794e+02	-2.447908e+01
2.021403e+02	-2.452811e+01
2.033078e+02	-2.457933e+01
2.044821e+02	-2.463118e+01
2.056632e+02	-2.467833e+01
2.068511e+02	-2.473237e+01
2.080459e+02	-2.477720e+01
2.092475e+02	-2.482870e+01
2.104561e+02	-2.487951e+01
2.116717e+02	-2.492848e+01
2.128943e+02	-2.497781e+01
2.141240e+02	-2.502778e+01
2.153608e+02	-2.507889e+01
2.166047e+02	-2.512662e+01
2.178558e+02	-2.518022e+01
2.191141e+02	-2.522723e+01
2.203797e+02	-2.527735e+01
2.216526e+02	-2.532799e+01
2.229329e+02	-2.537744e+01
2.242205e+02	-2.542484e+01
2.255156e+02	-2.547680e+01
2.268182e+02	-2.552768e+01
2.281283e+02	-2.557562e+01
2.294459e+02	-2.562684e+01
2.307712e+02	-2.567648e+01
2.321041e+02	-2.572903e+01
2.334447e+02	-2.577762e+01
2.347931e+02	-2.582598e+01
2.361493e+02	-2.587811e+01
2.375133e+02	-2.592479e+01
2.388851e+02	-2.597823e+01
2.402649e+02	-2.602598e+01
2.416527e+02	-2.607594e+01
2.430484e+02	-2.612652e+01
2.444523e+02	-2.617577e+01
2.458642e+02	-2.622309e+01
2.472843e+02	-2.627710e+01
2.487126e+02	-2.632862e+01
2.501492e+02	-2.637646e+01
2.515940e+02	-2.642577e+01
2.530472e+02	-2.647781e+01
2.545088e+02	-2.652634e+01
2.559789e+02	-2.657614e+01
2.574574e+02	-2.662760e+01
2.589444e+02	-2.668127e+01
2.604401e+02	-2.672807e+01
2.619444e+02	-2.677506e+01
2.634574e+02	-2.682975e+01
2.649791e+02	-2.687779e+01
2.665096e+02	-2.692607e+01
2.680489e+02	-2.697638e+01
2.695972e+02	-2.702510e+01
2.711544e+02	-2.707887e+01
2.727205e+02	-2.712550e+01
2.742958e+02	-2.718075e+01
2.758801e+02	-2.722915e+01
2.774736e+02	-2.727656e+01
2.790762e+02	-2.732532e+01
2.806882e+02	-2.737383e+01
2.823094e+02	-2.742727e+01
2.839400e+02	-2.747491e+01
2.855800e+02	-2.752725e+01
2.872295e+02	-2.757860e+01
2.888886e+02	-2.762553e+01
2.905572e+02	-2.768194e+01
2.922354e+02	-2.772576e+01
2.939234e+02	-2.777630e+01
2.956211e+02	-2.782660e+01
2.973286e+02	-2.787365e+01
2.990459e+02	-2.792567e+01
3.007732e+02	-2.797403e+01
3.025104e+02	-2.802721e+01
3.042577e+02	-2.807563e+01
3.060151e+02	-2.812658e+01
3.077826e+02	-2.817761e+01
3.095604e+02	-2.822595e+01
3.113484e+02	-2.827978e+01
3.131467e+02	-2.832647e+01
3.149554e+02	-2.837782e+01
3.167746e+02	-2.842483e+01
3.186043e+02	-2.847603e+01
3.204445e+02	-2.852440e+01
3.222954e+02	-2.857426e+01
3.241570e+02	-2.862955e+01
3.260293e+02	-2.867967e+01
3.279124e+02	-2.872195e+01
3.298064e+02	-2.877967e+01
3.317114e+02	-2.882627e+01
3.336273e+02	-2.888176e+01
3.355544e+02	-2.892722e+01
3.374925e+02	-2.897406e+01
3.394418e+02	-2.902206e+01
3.414024e+02	-2.907903e+01
3.433744e+02	-2.912912e+01
3.453577e+02	-2.917845e+01
3.473525e+02	-2.922804e+01
3.493588e+02	-2.927720e+01
3.513766e+02	-2.932449e+01
3.534062e+02	-2.937590e+01
3.554474e+02	-2.942549e+01
3.575005e+02	-2.947362e+01
3.595654e+02	-2.952646e+01
3.616422e+02	-2.957603e+01
3.637311e+02	-2.963093e+01
3.658320e+02	-2.967554e+01
3.679450e+02	-2.973515e+01
3.700702e+02	-2.977579e+01
3.722077e+02	-2.982790e+01
3.743576e+02	-2.987585e+01
3.765199e+02	-2.992675e+01
3.786946e+02	-2.997622e+01
3.808820e+02	-3.003572e+01
3.830819e+02	-3.007707e+01
3.852946e+02	-3.012668e+01
3.875200e+02	-3.017694e+01
3.897583e+02	-3.022823e+01
3.920096e+02	-3.027700e+01
3.942738e+02	-3.032872e+01
3.965511e+02	-3.038021e+01
3.988416e+02	-3.043283e+01
4.011452e+02	-3.047604e+01
4.034622e+02	-3.052499e+01
4.057926e+02	-3.057727e+01
4.081365e+02	-3.062819e+01
4.104938e+02	-3.068149e+01
4.128648e+02	-3.072783e+01
4.152495e+02	-3.078104e+01
4.176480e+02	-3.083321e+01
4.200603e+02	-3.088051e+01
4.224866e+02	-3.093287e+01
4.249268e+02	-3.097816e+01
4.273812e+02	-3.103199e+01
4.298497e+02	-3.108061e+01
4.323325e+02	-3.112940e+01
4.348297e+02	-3.117969e+01
4.373412e+02	-3.123408e+01
4.398673e+02	-3.128082e+01
4.424079e+02	-3.132999e+01
4.449633e+02	-3.138617e+01
4.475334e+02	-3.143447e+01
4.501183e+02	-3.147994e+01
4.527182e+02	-3.153120e+01
4.553330e+02	-3.157844e+01
4.579630e+02	-3.163791e+01
4.606082e+02	-3.168176e+01
4.632687e+02	-3.173345e+01
4.659445e+02	-3.178441e+01
4.686358e+02	-3.183676e+01
4.713426e+02	-3.187679e+01
4.740650e+02	-3.193854e+01
4.768032e+02	-3.198115e+01
4.795572e+02	-3.203273e+01
4.823271e+02	-3.208497e+01
4.851130e+02	-3.213816e+01
4.879150e+02	-3.218744e+01
4.907332e+02	-3.224226e+01
4.935676e+02	-3.228353e+01
4.964185e+02	-3.233858e+01
4.992858e+02	-3.238563e+01
5.021696e+02	-3.243578e+01
5.050701e+02	-3.248557e+01
5.079874e+02	-3.253625e+01
5.109215e+02	-3.258945e+01
5.138726e+02	-3.263775e+01
5.168407e+02	-3.268531e+01
5.198259e+02	-3.273904e+01
5.228284e+02	-3.278776e+01
5.258482e+02	-3.283634e+01
5.288855e+02	-3.288119e+01
5.319403e+02	-3.293929e+01
5.350128e+02	-3.298891e+01
5.381030e+02	-3.304301e+01
5.412111e+02	-3.308800e+01
5.443371e+02	-3.314540e+01
5.474812e+02	-3.318386e+01
5.506434e+02	-3.324334e+01
5.538239e+02	-3.329298e+01
5.570228e+02	-3.334045e+01
5.602401e+02	-3.339267e+01
5.634760e+02	-3.343540e+01
5.667306e+02	-3.349249e+01
5.700040e+02	-3.353453e+01
5.732964e+02	-3.359906e+01
5.766077e+02	-3.363606e+01
5.799382e+02	-3.369146e+01
5.832879e+02	-3.374560e+01
5.866569e+02	-3.379629e+01
5.900454e+02	-3.384805e+01
5.934535e+02	-3.390086e+01
5.968813e+02	-3.395277e+01
6.003288e+02	-3.399079e+01
6.037963e+02	-3.405768e+01
6.072838e+02	-3.410000e+01
6.107914e+02	-3.415303e+01
6.143194e+02	-3.418887e+01
6.178676e+02	-3.424823e+01
6.214364e+02	-3.429829e+01
6.250258e+02	-3.433674e+01
6.286359e+02	-3.439976e+01
6.322669e+02	-3.444827e+01
6.359189e+02	-3.449142e+01
6.395919e+02	-3.454926e+01
6.432862e+02	-3.459685e+01
6.470017e+02	-3.464861e+01
6.507388e+02	-3.470392e+01
6.544974e+02	-3.475375e+01
6.582778e+02	-3.479873e+01
6.620800e+02	-3.484264e+01
6.659041e+02	-3.489652e+01
6.697504e+02	-3.494963e+01
6.736188e+02	-3.499728e+01
6.775096e+02	-3.505035e+01
6.814229e+02	-3.510201e+01
6.853587e+02	-3.515005e+01
6.893173e+02	-3.520364e+01
6.932988e+02	-3.524537e+01
6.973033e+02	-3.530815e+01
7.013309e+02	-3.535814e+01
