Frequency(Hz)	Magnitude(dB)
1.000000e+01	-2.153194e+00
1.005776e+01	-2.173123e+00
1.011585e+01	-2.192608e+00
1.017428e+01	-2.212802e+00
1.023305e+01	-2.232915e+00
1.029215e+01	-2.252933e+00
1.035160e+01	-2.273244e+00
1.041139e+01	-2.293663e+00
1.047153e+01	-2.314348e+00
1.053201e+01	-2.335130e+00
1.059284e+01	-2.355717e+00
1.065403e+01	-2.376963e+00
1.071556e+01	-2.398010e+00
1.077746e+01	-2.419387e+00
1.083971e+01	-2.440658e+00
1.090232e+01	-2.462314e+00
1.096529e+01	-2.484065e+00
1.102862e+01	-2.505916e+00
1.109232e+01	-2.527901e+00
1.115639e+01	-2.550441e+00
1.122083e+01	-2.572430e+00
1.128564e+01	-2.594994e+00
1.135083e+01	-2.617107e+00
1.141639e+01	-2.640069e+00
1.148233e+01	-2.662754e+00
1.154865e+01	-2.685853e+00
1.161536e+01	-2.709131e+00
1.168245e+01	-2.732294e+00
1.174992e+01	-2.755655e+00
1.181779e+01	-2.779269e+00
1.188605e+01	-2.803081e+00
1.195470e+01	-2.826820e+00
1.202375e+01	-2.851096e+00
1.209320e+01	-2.875089e+00
1.216305e+01	-2.899581e+00
1.223330e+01	-2.923748e+00
1.230396e+01	-2.948340e+00
1.237503e+01	-2.973128e+00
1.244651e+01	-2.998048e+00
1.251840e+01	-3.023048e+00
1.259070e+01	-3.048471e+00
1.266343e+01	-3.073361e+00
1.273657e+01	-3.098958e+00
1.281014e+01	-3.124325e+00
1.288413e+01	-3.150332e+00
1.295855e+01	-3.176109e+00
1.303339e+01	-3.202171e+00
1.310867e+01	-3.228456e+00
1.318439e+01	-3.254578e+00
1.326054e+01	-3.281256e+00
1.333713e+01	-3.307661e+00
1.341417e+01	-3.334459e+00
1.349165e+01	-3.361413e+00
1.356958e+01	-3.388202e+00
1.364795e+01	-3.415426e+00
1.372678e+01	-3.442635e+00
1.380607e+01	-3.470009e+00
1.388581e+01	-3.497890e+00
1.396602e+01	-3.525492e+00
1.404668e+01	-3.553538e+00
1.412782e+01	-3.581628e+00
1.420942e+01	-3.609471e+00
1.429149e+01	-3.637984e+00
1.437404e+01	-3.666120e+00
1.445706e+01	-3.695266e+00
1.454057e+01	-3.723884e+00
1.462455e+01	-3.752620e+00
1.470902e+01	-3.781624e+00
1.479398e+01	-3.810752e+00
1.487943e+01	-3.839890e+00
1.496537e+01	-3.869722e+00
1.505181e+01	-3.899036e+00
1.513875e+01	-3.928787e+00
1.522619e+01	-3.958579e+00
1.531414e+01	-3.988661e+00
1.540259e+01	-4.018744e+00
1.549156e+01	-4.049269e+00
1.558103e+01	-4.079255e+00
1.567103e+01	-4.110057e+00
1.576155e+01	-4.140547e+00
1.585258e+01	-4.171445e+00
1.594415e+01	-4.202696e+00
1.603624e+01	-4.233564e+00
1.612886e+01	-4.264760e+00
1.622202e+01	-4.296003e+00
1.631572e+01	-4.327530e+00
1.640996e+01	-4.359224e+00
1.650474e+01	-4.390776e+00
1.660008e+01	-4.423039e+00
1.669596e+01	-4.455019e+00
1.679239e+01	-4.487128e+00
1.688938e+01	-4.519100e+00
1.698694e+01	-4.551818e+00
1.708505e+01	-4.584383e+00
1.718373e+01	-4.617038e+00
1.728299e+01	-4.649881e+00
1.738281e+01	-4.682731e+00
1.748322e+01	-4.715927e+00
1.758420e+01	-4.748866e+00
1.768576e+01	-4.782093e+00
1.778792e+01	-4.815507e+00
1.789066e+01	-4.849129e+00
1.799399e+01	-4.883075e+00
1.809793e+01	-4.916603e+00
1.820246e+01	-4.950993e+00
1.830760e+01	-4.985068e+00
1.841334e+01	-5.018958e+00
1.851969e+01	-5.053670e+00
1.862666e+01	-5.087852e+00
1.873425e+01	-5.122787e+00
1.884246e+01	-5.157195e+00
1.895129e+01	-5.192083e+00
1.906075e+01	-5.226989e+00
1.917085e+01	-5.262077e+00
1.928158e+01	-5.297294e+00
1.939295e+01	-5.332606e+00
1.950496e+01	-5.367917e+00
1.961762e+01	-5.403575e+00
1.973093e+01	-5.439156e+00
1.984490e+01	-5.474981e+00
1.995952e+01	-5.511039e+00
2.007480e+01	-5.547019e+00
2.019076e+01	-5.583287e+00
2.030738e+01	-5.619326e+00
2.042467e+01	-5.655683e+00
2.054264e+01	-5.692305e+00
2.066130e+01	-5.728799e+00
2.078064e+01	-5.765388e+00
2.090066e+01	-5.802124e+00
2.102139e+01	-5.839408e+00
2.114280e+01	-5.876134e+00
2.126492e+01	-5.913278e+00
2.138775e+01	-5.950600e+00
2.151128e+01	-5.987919e+00
2.163553e+01	-6.025171e+00
2.176050e+01	-6.062967e+00
2.188619e+01	-6.100929e+00
2.201260e+01	-6.138472e+00
2.213974e+01	-6.176634e+00
2.226762e+01	-6.214766e+00
2.239624e+01	-6.252781e+00
2.252560e+01	-6.290793e+00
2.265571e+01	-6.329280e+00
2.278656e+01	-6.367518e+00
2.291818e+01	-6.406136e+00
2.305055e+01	-6.444771e+00
2.318369e+01	-6.483281e+00
2.331760e+01	-6.522155e+00
2.345228e+01	-6.561405e+00
2.358774e+01	-6.600203e+00
2.372398e+01	-6.639599e+00
2.386101e+01	-6.678589e+00
2.399883e+01	-6.718265e+00
2.413745e+01	-6.757335e+00
2.427686e+01	-6.796948e+00
2.441709e+01	-6.836604e+00
2.455812e+01	-6.876413e+00
2.469997e+01	-6.916192e+00
2.484263e+01	-6.956136e+00
2.498612e+01	-6.996094e+00
2.513044e+01	-7.036189e+00
2.527559e+01	-7.076300e+00
2.542158e+01	-7.116388e+00
2.556842e+01	-7.156808e+00
2.571610e+01	-7.197316e+00
2.586463e+01	-7.237548e+00
2.601403e+01	-7.278564e+00
2.616428e+01	-7.319129e+00
2.631541e+01	-7.359932e+00
2.646740e+01	-7.400728e+00
2.662028e+01	-7.441869e+00
2.677404e+01	-7.482498e+00
2.692868e+01	-7.524061e+00
2.708422e+01	-7.565202e+00
2.724066e+01	-7.606420e+00
2.739800e+01	-7.647708e+00
2.755625e+01	-7.689407e+00
2.771541e+01	-7.730817e+00
2.787550e+01	-7.772827e+00
2.803650e+01	-7.814253e+00
2.819844e+01	-7.856131e+00
2.836131e+01	-7.898036e+00
2.852513e+01	-7.939976e+00
2.868989e+01	-7.981958e+00
2.885560e+01	-8.024032e+00
2.902227e+01	-8.066159e+00
2.918990e+01	-8.108703e+00
2.935850e+01	-8.150354e+00
2.952807e+01	-8.193208e+00
2.969863e+01	-8.235765e+00
2.987016e+01	-8.278440e+00
3.004269e+01	-8.320454e+00
3.021622e+01	-8.363657e+00
3.039075e+01	-8.406073e+00
3.056628e+01	-8.449429e+00
3.074283e+01	-8.491644e+00
3.092040e+01	-8.535064e+00
3.109900e+01	-8.577645e+00
3.127862e+01	-8.621330e+00
3.145929e+01	-8.664374e+00
3.164099e+01	-8.707798e+00
3.182375e+01	-8.750962e+00
3.200756e+01	-8.794623e+00
3.219244e+01	-8.837916e+00
3.237838e+01	-8.881601e+00
3.256540e+01	-8.925073e+00
3.275349e+01	-8.968396e+00
3.294268e+01	-9.012464e+00
3.313295e+01	-9.056281e+00
3.332433e+01	-9.099950e+00
3.351681e+01	-9.143605e+00
3.371040e+01	-9.187638e+00
3.390511e+01	-9.231974e+00
3.410094e+01	-9.276527e+00
3.429791e+01	-9.319811e+00
3.449601e+01	-9.364309e+00
3.469526e+01	-9.408529e+00
3.489566e+01	-9.453157e+00
3.509721e+01	-9.496875e+00
3.529993e+01	-9.541853e+00
3.550382e+01	-9.586428e+00
3.570889e+01	-9.630592e+00
3.591515e+01	-9.675038e+00
3.612259e+01	-9.719908e+00
3.633123e+01	-9.765010e+00
3.654108e+01	-9.809622e+00
3.675214e+01	-9.853914e+00
3.696442e+01	-9.899511e+00
3.717792e+01	-9.943919e+00
3.739266e+01	-9.988934e+00
3.760864e+01	-1.003393e+01
3.782587e+01	-1.007943e+01
3.804435e+01	-1.012441e+01
3.826409e+01	-1.016969e+01
3.848510e+01	-1.021438e+01
3.870739e+01	-1.025980e+01
3.893096e+01	-1.030543e+01
3.915583e+01	-1.035095e+01
3.938199e+01	-1.039656e+01
3.960946e+01	-1.044189e+01
3.983824e+01	-1.048659e+01
4.006834e+01	-1.053257e+01
4.029978e+01	-1.057817e+01
4.053255e+01	-1.062431e+01
4.076666e+01	-1.067008e+01
4.100213e+01	-1.071555e+01
4.123896e+01	-1.076138e+01
4.147715e+01	-1.080715e+01
4.171672e+01	-1.085310e+01
4.195767e+01	-1.089913e+01
4.220002e+01	-1.094510e+01
4.244377e+01	-1.099094e+01
4.268892e+01	-1.103644e+01
4.293549e+01	-1.108313e+01
4.318348e+01	-1.112948e+01
4.343291e+01	-1.117547e+01
4.368377e+01	-1.122190e+01
4.393609e+01	-1.126822e+01
4.418986e+01	-1.131434e+01
4.444510e+01	-1.136100e+01
4.470182e+01	-1.140797e+01
4.496001e+01	-1.145344e+01
4.521970e+01	-1.150005e+01
4.548089e+01	-1.154640e+01
4.574358e+01	-1.159292e+01
4.600779e+01	-1.163979e+01
4.627353e+01	-1.168627e+01
4.654081e+01	-1.173263e+01
4.680963e+01	-1.177947e+01
4.708000e+01	-1.182636e+01
4.735193e+01	-1.187310e+01
4.762543e+01	-1.191952e+01
4.790051e+01	-1.196658e+01
4.817719e+01	-1.201385e+01
4.845545e+01	-1.206028e+01
4.873533e+01	-1.210778e+01
4.901682e+01	-1.215446e+01
4.929994e+01	-1.220099e+01
4.958470e+01	-1.224854e+01
4.987110e+01	-1.229518e+01
5.015915e+01	-1.234266e+01
5.044887e+01	-1.238953e+01
5.074026e+01	-1.243579e+01
5.103333e+01	-1.248404e+01
5.132810e+01	-1.253164e+01
5.162457e+01	-1.257774e+01
5.192275e+01	-1.262608e+01
5.222265e+01	-1.267327e+01
5.252429e+01	-1.272062e+01
5.282767e+01	-1.276809e+01
5.313280e+01	-1.281426e+01
5.343969e+01	-1.286192e+01
5.374836e+01	-1.291001e+01
5.405880e+01	-1.295784e+01
5.437105e+01	-1.300557e+01
5.468509e+01	-1.305293e+01
5.500095e+01	-1.310026e+01
5.531863e+01	-1.314760e+01
5.563815e+01	-1.319549e+01
5.595951e+01	-1.324266e+01
5.628273e+01	-1.329033e+01
5.660782e+01	-1.333808e+01
5.693479e+01	-1.338595e+01
5.726364e+01	-1.343414e+01
5.759439e+01	-1.348134e+01
5.792705e+01	-1.352930e+01
5.826164e+01	-1.357730e+01
5.859815e+01	-1.362416e+01
5.893662e+01	-1.367249e+01
5.927703e+01	-1.371930e+01
5.961941e+01	-1.376839e+01
5.996377e+01	-1.381640e+01
6.031012e+01	-1.386498e+01
6.065847e+01	-1.391247e+01
6.100883e+01	-1.396117e+01
6.136121e+01	-1.400934e+01
6.171563e+01	-1.405620e+01
6.207210e+01	-1.410453e+01
6.243063e+01	-1.415334e+01
6.279122e+01	-1.420079e+01
6.315390e+01	-1.424881e+01
6.351868e+01	-1.429779e+01
6.388556e+01	-1.434591e+01
6.425456e+01	-1.439318e+01
6.462569e+01	-1.444150e+01
6.499897e+01	-1.448959e+01
6.537440e+01	-1.453867e+01
6.575200e+01	-1.458683e+01
6.613178e+01	-1.463500e+01
6.651375e+01	-1.468304e+01
6.689793e+01	-1.473168e+01
6.728433e+01	-1.478042e+01
6.767297e+01	-1.482794e+01
6.806384e+01	-1.487715e+01
6.845698e+01	-1.492413e+01
6.885238e+01	-1.497336e+01
6.925007e+01	-1.502179e+01
6.965005e+01	-1.506981e+01
7.005235e+01	-1.511928e+01
7.045697e+01	-1.516655e+01
7.086393e+01	-1.521630e+01
7.127323e+01	-1.526428e+01
7.168490e+01	-1.531308e+01
7.209895e+01	-1.536029e+01
7.251539e+01	-1.541075e+01
7.293424e+01	-1.545909e+01
7.335551e+01	-1.550735e+01
7.377920e+01	-1.555636e+01
7.420535e+01	-1.560444e+01
7.463396e+01	-1.565162e+01
7.506504e+01	-1.570160e+01
7.549861e+01	-1.575057e+01
7.593469e+01	-1.579939e+01
7.637328e+01	-1.584768e+01
7.681441e+01	-1.589646e+01
7.725809e+01	-1.594578e+01
7.770433e+01	-1.599445e+01
7.815315e+01	-1.604298e+01
7.860456e+01	-1.609188e+01
7.905857e+01	-1.614166e+01
7.951521e+01	-1.619049e+01
7.997449e+01	-1.623778e+01
8.043642e+01	-1.628721e+01
8.090102e+01	-1.633617e+01
8.136830e+01	-1.638382e+01
8.183828e+01	-1.643392e+01
8.231097e+01	-1.648221e+01
8.278640e+01	-1.653221e+01
8.326457e+01	-1.657940e+01
8.374550e+01	-1.662974e+01
8.422921e+01	-1.667765e+01
8.471572e+01	-1.672746e+01
8.520503e+01	-1.677602e+01
8.569717e+01	-1.682607e+01
8.619215e+01	-1.687442e+01
8.669000e+01	-1.692376e+01
8.719071e+01	-1.697211e+01
8.769432e+01	-1.702148e+01
8.820084e+01	-1.707114e+01
8.871029e+01	-1.712039e+01
8.922267e+01	-1.716835e+01
8.973802e+01	-1.721838e+01
9.025634e+01	-1.726708e+01
9.077766e+01	-1.731552e+01
9.130199e+01	-1.736488e+01
9.182935e+01	-1.741518e+01
9.235975e+01	-1.746293e+01
9.289321e+01	-1.751229e+01
9.342976e+01	-1.756183e+01
9.396941e+01	-1.761000e+01
9.451217e+01	-1.766154e+01
9.505807e+01	-1.770959e+01
9.560712e+01	-1.775748e+01
9.615934e+01	-1.780721e+01
9.671476e+01	-1.785548e+01
9.727338e+01	-1.790561e+01
9.783522e+01	-1.795544e+01
9.840032e+01	-1.800384e+01
9.896867e+01	-1.805410e+01
9.954031e+01	-1.810252e+01
1.001153e+02	-1.815203e+01
1.006935e+02	-1.820167e+01
1.012751e+02	-1.824943e+01
1.018601e+02	-1.830060e+01
1.024484e+02	-1.834880e+01
1.030402e+02	-1.839926e+01
1.036353e+02	-1.844775e+01
1.042339e+02	-1.849757e+01
1.048360e+02	-1.854578e+01
1.054415e+02	-1.859560e+01
1.060505e+02	-1.864631e+01
1.066631e+02	-1.869434e+01
1.072791e+02	-1.874423e+01
1.078988e+02	-1.879389e+01
1.085220e+02	-1.884347e+01
1.091488e+02	-1.889103e+01
1.097793e+02	-1.894106e+01
1.104133e+02	-1.899093e+01
1.110511e+02	-1.904065e+01
1.116925e+02	-1.908883e+01
1.123376e+02	-1.913883e+01
1.129865e+02	-1.918955e+01
1.136391e+02	-1.923781e+01
1.142955e+02	-1.928807e+01
1.149556e+02	-1.933713e+01
1.156196e+02	-1.938824e+01
1.162874e+02	-1.943444e+01
1.169591e+02	-1.948591e+01
1.176347e+02	-1.953494e+01
1.183141e+02	-1.958438e+01
1.189975e+02	-1.963320e+01
1.196848e+02	-1.968218e+01
1.203761e+02	-1.973343e+01
1.210714e+02	-1.978131e+01
1.217707e+02	-1.983075e+01
1.224740e+02	-1.988224e+01
1.231814e+02	-1.992905e+01
1.238929e+02	-1.997973e+01
1.246085e+02	-2.002923e+01
1.253283e+02	-2.007941e+01
1.260522e+02	-2.012877e+01
1.267802e+02	-2.017975e+01
1.275125e+02	-2.022707e+01
1.282490e+02	-2.027781e+01
1.289898e+02	-2.032656e+01
1.297348e+02	-2.037705e+01
1.304842e+02	-2.042509e+01
1.312378e+02	-2.047613e+01
1.319959e+02	-2.052617e+01
1.327583e+02	-2.057540e+01
1.335251e+02	-2.062392e+01
1.342963e+02	-2.067480e+01
1.350720e+02	-2.072466e+01
1.358522e+02	-2.077246e+01
1.366368e+02	-2.082347e+01
1.374260e+02	-2.087353e+01
1.382198e+02	-2.092237e+01
1.390182e+02	-2.097224e+01
1.398211e+02	-2.102173e+01
1.406287e+02	-2.107105e+01
1.414410e+02	-2.112132e+01
1.422579e+02	-2.117082e+01
1.430796e+02	-2.122096e+01
1.439060e+02	-2.127113e+01
1.447372e+02	-2.131838e+01
1.455732e+02	-2.136714e+01
1.464141e+02	-2.142011e+01
1.472597e+02	-2.146797e+01
1.481103e+02	-2.151723e+01
1.489658e+02	-2.156883e+01
1.498262e+02	-2.161718e+01
1.506916e+02	-2.166699e+01
1.515620e+02	-2.171707e+01
1.524374e+02	-2.176552e+01
1.533179e+02	-2.181634e+01
1.542034e+02	-2.186569e+01
1.550941e+02	-2.191828e+01
1.559899e+02	-2.196633e+01
1.568909e+02	-2.201614e+01
1.577971e+02	-2.206444e+01
1.587085e+02	-2.211658e+01
1.596252e+02	-2.216422e+01
1.605472e+02	-2.221460e+01
1.614745e+02	-2.226308e+01
1.624072e+02	-2.231453e+01
1.633453e+02	-2.236169e+01
1.642887e+02	-2.241196e+01
1.652377e+02	-2.246337e+01
1.661921e+02	-2.251166e+01
1.671520e+02	-2.256211e+01
1.681175e+02	-2.261348e+01
1.690885e+02	-2.266010e+01
1.700651e+02	-2.271108e+01
1.710474e+02	-2.276400e+01
1.720354e+02	-2.281165e+01
1.730291e+02	-2.286109e+01
1.740285e+02	-2.291035e+01
1.750337e+02	-2.296129e+01
1.760446e+02	-2.301140e+01
1.770615e+02	-2.306233e+01
1.780842e+02	-2.310886e+01
1.791128e+02	-2.316046e+01
1.801473e+02	-2.320989e+01
1.811878e+02	-2.326027e+01
1.822344e+02	-2.330875e+01
1.832870e+02	-2.335919e+01
1.843456e+02	-2.340928e+01
1.854104e+02	-2.345778e+01
1.864813e+02	-2.350721e+01
1.875584e+02	-2.355728e+01
1.886418e+02	-2.360943e+01
1.897313e+02	-2.365667e+01
1.908272e+02	-2.370861e+01
1.919294e+02	-2.375967e+01
1.930380e+02	-2.380844e+01
1.941530e+02	-2.385808e+01
1.952744e+02	-2.390764e+01
1.964023e+02	-2.395816e+01
1.975367e+02	-2.400952e+01
1.986777e+02	-2.405583e+01
1.998252e+02	-2.410847e+01
2.009794e+02	-2.415617e+01
2.021403e+02	-2.420756e+01
2.033078e+02	-2.425646e+01
2.044821e+02	-2.430910e+01
2.056632e+02	-2.435637e+01
2.068511e+02	-2.440676e+01
2.080459e+02	-2.445260e+01
2.092475e+02	-2.450480e+01
2.104561e+02	-2.455536e+01
2.116717e+02	-2.460628e+01
2.128943e+02	-2.465536e+01
2.141240e+02	-2.470794e+01
2.153608e+02	-2.475552e+01
2.166047e+02	-2.480717e+01
2.178558e+02	-2.485310e+01
2.191141e+02	-2.490513e+01
2.203797e+02	-2.495409e+01
2.216526e+02	-2.500775e+01
2.229329e+02	-2.505423e+01
2.242205e+02	-2.510516e+01
2.255156e+02	-2.515432e+01
2.268182e+02	-2.520273e+01
2.281283e+02	-2.525461e+01
2.294459e+02	-2.530642e+01
2.307712e+02	-2.535118e+01
2.321041e+02	-2.540388e+01
2.334447e+02	-2.545036e+01
2.347931e+02	-2.550323e+01
2.361493e+02	-2.555365e+01
2.375133e+02	-2.560425e+01
2.388851e+02	-2.564980e+01
2.402649e+02	-2.570275e+01
2.416527e+02	-2.575345e+01
2.430484e+02	-2.580346e+01
2.444523e+02	-2.585474e+01
2.458642e+02	-2.590215e+01
2.472843e+02	-2.595390e+01
2.487126e+02	-2.600345e+01
2.501492e+02	-2.605728e+01
2.515940e+02	-2.610664e+01
2.530472e+02	-2.615349e+01
2.545088e+02	-2.620048e+01
2.559789e+02	-2.625082e+01
2.574574e+02	-2.630516e+01
2.589444e+02	-2.635259e+01
2.604401e+02	-2.640494e+01
2.619444e+02	-2.645164e+01
2.634574e+02	-2.650235e+01
2.649791e+02	-2.655696e+01
2.665096e+02	-2.660459e+01
2.680489e+02	-2.665007e+01
2.695972e+02	-2.670308e+01
2.711544e+02	-2.675419e+01
2.727205e+02	-2.680492e+01
2.742958e+02	-2.685234e+01
2.758801e+02	-2.689919e+01
2.774736e+02	-2.695447e+01
2.790762e+02	-2.699985e+01
2.806882e+02	-2.705281e+01
2.823094e+02	-2.710155e+01
2.839400e+02	-2.715264e+01
2.855800e+02	-2.720287e+01
2.872295e+02	-2.725443e+01
2.888886e+02	-2.730139e+01
2.905572e+02	-2.735415e+01
2.922354e+02	-2.740417e+01
2.939234e+02	-2.744907e+01
2.956211e+02	-2.750293e+01
2.973286e+02	-2.755122e+01
2.990459e+02	-2.760238e+01
3.007732e+02	-2.765144e+01
3.025104e+02	-2.770596e+01
3.042577e+02	-2.775486e+01
3.060151e+02	-2.779830e+01
3.077826e+02	-2.785605e+01
3.095604e+02	-2.789940e+01
3.113484e+02	-2.795273e+01
3.131467e+02	-2.800291e+01
3.149554e+02	-2.805445e+01
3.167746e+02	-2.810394e+01
3.186043e+02	-2.815613e+01
3.204445e+02	-2.820240e+01
3.222954e+02	-2.824905e+01
3.241570e+02	-2.830022e+01
3.260293e+02	-2.835019e+01
3.279124e+02	-2.840713e+01
3.298064e+02	-2.845377e+01
3.317114e+02	-2.849899e+01
3.336273e+02	-2.855552e+01
3.355544e+02	-2.860078e+01
3.374925e+02	-2.865319e+01
3.394418e+02	-2.870673e+01
3.414024e+02	-2.875457e+01
3.433744e+02	-2.880296e+01
3.453577e+02	-2.885408e+01
3.473525e+02	-2.890367e+01
3.493588e+02	-2.895229e+01
3.513766e+02	-2.900370e+01
3.534062e+02	-2.905625e+01
3.554474e+02	-2.910616e+01
3.575005e+02	-2.915302e+01
3.595654e+02	-2.919990e+01
3.616422e+02	-2.925522e+01
3.637311e+02	-2.930368e+01
3.658320e+02	-2.935265e+01
3.679450e+02	-2.940223e+01
3.700702e+02	-2.945440e+01
3.722077e+02	-2.950499e+01
3.743576e+02	-2.955474e+01
3.765199e+02	-2.959708e+01
3.786946e+02	-2.965564e+01
3.808820e+02	-2.970277e+01
3.830819e+02	-2.975540e+01
3.852946e+02	-2.980656e+01
3.875200e+02	-2.986194e+01
3.897583e+02	-2.989947e+01
3.920096e+02	-2.995273e+01
3.942738e+02	-3.000799e+01
3.965511e+02	-3.005300e+01
3.988416e+02	-3.010615e+01
4.011452e+02	-3.015524e+01
4.034622e+02	-3.020760e+01
4.057926e+02	-3.025427e+01
4.081365e+02	-3.030146e+01
4.104938e+02	-3.035429e+01
4.128648e+02	-3.040523e+01
4.152495e+02	-3.045399e+01
4.176480e+02	-3.050740e+01
4.200603e+02	-3.055047e+01
4.224866e+02	-3.060956e+01
4.249268e+02	-3.066016e+01
4.273812e+02	-3.070076e+01
4.298497e+02	-3.075967e+01
4.323325e+02	-3.080501e+01
4.348297e+02	-3.085296e+01
4.373412e+02	-3.091038e+01
4.398673e+02	-3.095269e+01
4.424079e+02	-3.101079e+01
4.449633e+02	-3.105701e+01
4.475334e+02	-3.111069e+01
4.501183e+02	-3.115620e+01
4.527182e+02	-3.121021e+01
4.553330e+02	-3.125032e+01
4.579630e+02	-3.131145e+01
4.606082e+02	-3.136725e+01
4.632687e+02	-3.140246e+01
4.659445e+02	-3.145412e+01
4.686358e+02	-3.151043e+01
4.713426e+02	-3.155676e+01
4.740650e+02	-3.160989e+01
4.768032e+02	-3.165823e+01
4.795572e+02	-3.170860e+01
4.823271e+02	-3.176292e+01
4.851130e+02	-3.181158e+01
4.879150e+02	-3.186593e+01
4.907332e+02	-3.190861e+01
4.935676e+02	-3.195761e+01
4.964185e+02	-3.200822e+01
4.992858e+02	-3.205841e+01
5.021696e+02	-3.211925e+01
5.050701e+02	-3.215911e+01
5.079874e+02	-3.221217e+01
5.109215e+02	-3.226111e+01
5.138726e+02	-3.230479e+01
5.168407e+02	-3.236465e+01
5.198259e+02	-3.241443e+01
5.228284e+02	-3.246306e+01
5.258482e+02	-3.252065e+01
5.288855e+02	-3.256292e+01
5.319403e+02	-3.260422e+01
5.350128e+02	-3.266267e+01
5.381030e+02	-3.271571e+01
5.412111e+02	-3.275686e+01
5.443371e+02	-3.281697e+01
5.474812e+02	-3.286514e+01
5.506434e+02	-3.292405e+01
5.538239e+02	-3.295519e+01
5.570228e+02	-3.300770e+01
5.602401e+02	-3.306391e+01
5.634760e+02	-3.311242e+01
5.667306e+02	-3.316827e+01
5.700040e+02	-3.320910e+01
5.732964e+02	-3.327032e+01
5.766077e+02	-3.331803e+01
5.799382e+02	-3.336346e+01
5.832879e+02	-3.341643e+01
5.866569e+02	-3.346936e+01
5.900454e+02	-3.351718e+01
5.934535e+02	-3.356650e+01
5.968813e+02	-3.362007e+01
6.003288e+02	-3.367043e+01
6.037963e+02	-3.372062e+01
6.072838e+02	-3.376895e+01
6.107914e+02	-3.381903e+01
6.143194e+02	-3.387610e+01
6.178676e+02	-3.392099e+01
6.214364e+02	-3.396168e+01
6.250258e+02	-3.401790e+01
6.286359e+02	-3.407411e+01
6.322669e+02	-3.412150e+01
6.359189e+02	-3.417077e+01
6.395919e+02	-3.422038e+01
6.432862e+02	-3.428013e+01
6.470017e+02	-3.432232e+01
6.507388e+02	-3.436968e+01
6.544974e+02	-3.441933e+01
6.582778e+02	-3.446888e+01
6.620800e+02	-3.452447e+01
6.659041e+02	-3.456360e+01
6.697504e+02	-3.462228e+01
6.736188e+02	-3.467102e+01
6.775096e+02	-3.472689e+01
6.814229e+02	-3.478356e+01
6.853587e+02	-3.482953e+01
6.893173e+02	-3.487300e+01
6.932988e+02	-3.492918e+01
6.973033e+02	-3.497954e+01
7.013309e+02	-3.503042e+01
