Frequency(Hz)	Magnitude(dB)
1.000000e+01	-1.996524e+00
1.005776e+01	-2.014940e+00
1.011585e+01	-2.033622e+00
1.017428e+01	-2.052421e+00
1.023305e+01	-2.071314e+00
1.029215e+01	-2.090154e+00
1.035160e+01	-2.109554e+00
1.041139e+01	-2.128746e+00
1.047153e+01	-2.148210e+00
1.053201e+01	-2.167903e+00
1.059284e+01	-2.187501e+00
1.065403e+01	-2.207483e+00
1.071556e+01	-2.227474e+00
1.077746e+01	-2.247522e+00
1.083971e+01	-2.267893e+00
1.090232e+01	-2.288152e+00
1.096529e+01	-2.308765e+00
1.102862e+01	-2.329599e+00
1.109232e+01	-2.350443e+00
1.115639e+01	-2.371409e+00
1.122083e+01	-2.392595e+00
1.128564e+01	-2.413858e+00
1.135083e+01	-2.435122e+00
1.141639e+01	-2.456579e+00
1.148233e+01	-2.478430e+00
1.154865e+01	-2.500113e+00
1.161536e+01	-2.522230e+00
1.168245e+01	-2.544315e+00
1.174992e+01	-2.566741e+00
1.181779e+01	-2.588816e+00
1.188605e+01	-2.611538e+00
1.195470e+01	-2.633995e+00
1.202375e+01	-2.657207e+00
1.209320e+01	-2.679887e+00
1.216305e+01	-2.703022e+00
1.223330e+01	-2.726215e+00
1.230396e+01	-2.749534e+00
1.237503e+01	-2.773032e+00
1.244651e+01	-2.796793e+00
1.251840e+01	-2.821117e+00
1.259070e+01	-2.844712e+00
1.266343e+01	-2.868637e+00
1.273657e+01	-2.892769e+00
1.281014e+01	-2.917340e+00
1.288413e+01	-2.941757e+00
1.295855e+01	-2.966674e+00
1.303339e+01	-2.991134e+00
1.310867e+01	-3.016536e+00
1.318439e+01	-3.041347e+00
1.326054e+01	-3.066860e+00
1.333713e+01	-3.092248e+00
1.341417e+01	-3.117850e+00
1.349165e+01	-3.143442e+00
1.356958e+01	-3.169302e+00
1.364795e+01	-3.195208e+00
1.372678e+01	-3.221620e+00
1.380607e+01	-3.247669e+00
1.388581e+01	-3.274068e+00
1.396602e+01	-3.300767e+00
1.404668e+01	-3.327598e+00
1.412782e+01	-3.354413e+00
1.420942e+01	-3.381342e+00
1.429149e+01	-3.408465e+00
1.437404e+01	-3.435704e+00
1.445706e+01	-3.462909e+00
1.454057e+01	-3.490563e+00
1.462455e+01	-3.518011e+00
1.470902e+01	-3.546170e+00
1.479398e+01	-3.574120e+00
1.487943e+01	-3.602324e+00
1.496537e+01	-3.630597e+00
1.505181e+01	-3.659083e+00
1.513875e+01	-3.687736e+00
1.522619e+01	-3.716307e+00
1.531414e+01	-3.745070e+00
1.540259e+01	-3.774085e+00
1.549156e+01	-3.803294e+00
1.558103e+01	-3.832253e+00
1.567103e+01	-3.861722e+00
1.576155e+01	-3.891296e+00
1.585258e+01	-3.920943e+00
1.594415e+01	-3.951039e+00
1.603624e+01	-3.980715e+00
1.612886e+01	-4.010753e+00
1.622202e+01	-4.040740e+00
1.631572e+01	-4.071540e+00
1.640996e+01	-4.101789e+00
1.650474e+01	-4.132668e+00
1.660008e+01	-4.163428e+00
1.669596e+01	-4.194407e+00
1.679239e+01	-4.225353e+00
1.688938e+01	-4.256589e+00
1.698694e+01	-4.287837e+00
1.708505e+01	-4.319268e+00
1.718373e+01	-4.350854e+00
1.728299e+01	-4.382575e+00
1.738281e+01	-4.414500e+00
1.748322e+01	-4.446434e+00
1.758420e+01	-4.478386e+00
1.768576e+01	-4.510820e+00
1.778792e+01	-4.543125e+00
1.789066e+01	-4.575814e+00
1.799399e+01	-4.608284e+00
1.809793e+01	-4.641139e+00
1.820246e+01	-4.673945e+00
1.830760e+01	-4.707282e+00
1.841334e+01	-4.740201e+00
1.851969e+01	-4.773682e+00
1.862666e+01	-4.807140e+00
1.873425e+01	-4.840519e+00
1.884246e+01	-4.874259e+00
1.895129e+01	-4.907903e+00
1.906075e+01	-4.941887e+00
1.917085e+01	-4.975948e+00
1.928158e+01	-5.010343e+00
1.939295e+01	-5.044565e+00
1.950496e+01	-5.078890e+00
1.961762e+01	-5.113433e+00
1.973093e+01	-5.148097e+00
1.984490e+01	-5.183013e+00
1.995952e+01	-5.217602e+00
2.007480e+01	-5.252852e+00
2.019076e+01	-5.288038e+00
2.030738e+01	-5.323267e+00
2.042467e+01	-5.358879e+00
2.054264e+01	-5.394563e+00
2.066130e+01	-5.429764e+00
2.078064e+01	-5.465693e+00
2.090066e+01	-5.501470e+00
2.102139e+01	-5.537318e+00
2.114280e+01	-5.573269e+00
2.126492e+01	-5.610174e+00
2.138775e+01	-5.646314e+00
2.151128e+01	-5.682532e+00
2.163553e+01	-5.718951e+00
2.176050e+01	-5.755786e+00
2.188619e+01	-5.792570e+00
2.201260e+01	-5.829385e+00
2.213974e+01	-5.866238e+00
2.226762e+01	-5.903808e+00
2.239624e+01	-5.940822e+00
2.252560e+01	-5.977929e+00
2.265571e+01	-6.015796e+00
2.278656e+01	-6.053514e+00
2.291818e+01	-6.090947e+00
2.305055e+01	-6.128940e+00
2.318369e+01	-6.166446e+00
2.331760e+01	-6.204651e+00
2.345228e+01	-6.242927e+00
2.358774e+01	-6.280899e+00
2.372398e+01	-6.319133e+00
2.386101e+01	-6.357798e+00
2.399883e+01	-6.396283e+00
2.413745e+01	-6.434423e+00
2.427686e+01	-6.473337e+00
2.441709e+01	-6.512070e+00
2.455812e+01	-6.550799e+00
2.469997e+01	-6.589976e+00
2.484263e+01	-6.629370e+00
2.498612e+01	-6.668465e+00
2.513044e+01	-6.707788e+00
2.527559e+01	-6.746958e+00
2.542158e+01	-6.786410e+00
2.556842e+01	-6.826274e+00
2.571610e+01	-6.865992e+00
2.586463e+01	-6.905762e+00
2.601403e+01	-6.945524e+00
2.616428e+01	-6.985844e+00
2.631541e+01	-7.025867e+00
2.646740e+01	-7.065782e+00
2.662028e+01	-7.106013e+00
2.677404e+01	-7.146330e+00
2.692868e+01	-7.186349e+00
2.708422e+01	-7.227339e+00
2.724066e+01	-7.268016e+00
2.739800e+01	-7.308448e+00
2.755625e+01	-7.349611e+00
2.771541e+01	-7.390275e+00
2.787550e+01	-7.430825e+00
2.803650e+01	-7.471950e+00
2.819844e+01	-7.512950e+00
2.836131e+01	-7.554539e+00
2.852513e+01	-7.595790e+00
2.868989e+01	-7.637308e+00
2.885560e+01	-7.678740e+00
2.902227e+01	-7.719736e+00
2.918990e+01	-7.761349e+00
2.935850e+01	-7.803242e+00
2.952807e+01	-7.845790e+00
2.969863e+01	-7.887004e+00
2.987016e+01	-7.928668e+00
3.004269e+01	-7.971212e+00
3.021622e+01	-8.013350e+00
3.039075e+01	-8.055185e+00
3.056628e+01	-8.097532e+00
3.074283e+01	-8.139508e+00
3.092040e+01	-8.182154e+00
3.109900e+01	-8.224564e+00
3.127862e+01	-8.266711e+00
3.145929e+01	-8.309442e+00
3.164099e+01	-8.351989e+00
3.182375e+01	-8.395344e+00
3.200756e+01	-8.437751e+00
3.219244e+01	-8.480923e+00
3.237838e+01	-8.523426e+00
3.256540e+01	-8.566874e+00
3.275349e+01	-8.609291e+00
3.294268e+01	-8.652518e+00
3.313295e+01	-8.696295e+00
3.332433e+01	-8.739692e+00
3.351681e+01	-8.782996e+00
3.371040e+01	-8.826370e+00
3.390511e+01	-8.869897e+00
3.410094e+01	-8.913079e+00
3.429791e+01	-8.957417e+00
3.449601e+01	-9.001280e+00
3.469526e+01	-9.044307e+00
3.489566e+01	-9.088413e+00
3.509721e+01	-9.132256e+00
3.529993e+01	-9.176452e+00
3.550382e+01	-9.220142e+00
3.570889e+01	-9.264436e+00
3.591515e+01	-9.308391e+00
3.612259e+01	-9.352694e+00
3.633123e+01	-9.397091e+00
3.654108e+01	-9.440849e+00
3.675214e+01	-9.485643e+00
3.696442e+01	-9.530290e+00
3.717792e+01	-9.574472e+00
3.739266e+01	-9.619345e+00
3.760864e+01	-9.663715e+00
3.782587e+01	-9.708257e+00
3.804435e+01	-9.753184e+00
3.826409e+01	-9.797417e+00
3.848510e+01	-9.842570e+00
3.870739e+01	-9.887751e+00
3.893096e+01	-9.932609e+00
3.915583e+01	-9.977569e+00
3.938199e+01	-1.002237e+01
3.960946e+01	-1.006729e+01
3.983824e+01	-1.011291e+01
4.006834e+01	-1.015748e+01
4.029978e+01	-1.020305e+01
4.053255e+01	-1.024851e+01
4.076666e+01	-1.029383e+01
4.100213e+01	-1.033930e+01
4.123896e+01	-1.038430e+01
4.147715e+01	-1.042991e+01
4.171672e+01	-1.047499e+01
4.195767e+01	-1.052068e+01
4.220002e+01	-1.056657e+01
4.244377e+01	-1.061223e+01
4.268892e+01	-1.065755e+01
4.293549e+01	-1.070387e+01
4.318348e+01	-1.074945e+01
4.343291e+01	-1.079541e+01
4.368377e+01	-1.084041e+01
4.393609e+01	-1.088716e+01
4.418986e+01	-1.093360e+01
4.444510e+01	-1.097855e+01
4.470182e+01	-1.102534e+01
4.496001e+01	-1.107139e+01
4.521970e+01	-1.111711e+01
4.548089e+01	-1.116294e+01
4.574358e+01	-1.120990e+01
4.600779e+01	-1.125617e+01
4.627353e+01	-1.130181e+01
4.654081e+01	-1.134874e+01
4.680963e+01	-1.139516e+01
4.708000e+01	-1.144139e+01
4.735193e+01	-1.148825e+01
4.762543e+01	-1.153367e+01
4.790051e+01	-1.158075e+01
4.817719e+01	-1.162756e+01
4.845545e+01	-1.167395e+01
4.873533e+01	-1.172048e+01
4.901682e+01	-1.176739e+01
4.929994e+01	-1.181471e+01
4.958470e+01	-1.186070e+01
4.987110e+01	-1.190816e+01
5.015915e+01	-1.195421e+01
5.044887e+01	-1.200126e+01
5.074026e+01	-1.204792e+01
5.103333e+01	-1.209556e+01
5.132810e+01	-1.214214e+01
5.162457e+01	-1.218887e+01
5.192275e+01	-1.223593e+01
5.222265e+01	-1.228320e+01
5.252429e+01	-1.233066e+01
5.282767e+01	-1.237767e+01
5.313280e+01	-1.242457e+01
5.343969e+01	-1.247164e+01
5.374836e+01	-1.251900e+01
5.405880e+01	-1.256591e+01
5.437105e+01	-1.261359e+01
5.468509e+01	-1.266082e+01
5.500095e+01	-1.270848e+01
5.531863e+01	-1.275522e+01
5.563815e+01	-1.280253e+01
5.595951e+01	-1.285014e+01
5.628273e+01	-1.289709e+01
5.660782e+01	-1.294513e+01
5.693479e+01	-1.299209e+01
5.726364e+01	-1.304034e+01
5.759439e+01	-1.308761e+01
5.792705e+01	-1.313510e+01
5.826164e+01	-1.318244e+01
5.859815e+01	-1.323025e+01
5.893662e+01	-1.327792e+01
5.927703e+01	-1.332607e+01
5.961941e+01	-1.337381e+01
5.996377e+01	-1.342100e+01
6.031012e+01	-1.346931e+01
6.065847e+01	-1.351719e+01
6.100883e+01	-1.356483e+01
6.136121e+01	-1.361221e+01
6.171563e+01	-1.366025e+01
6.207210e+01	-1.370856e+01
6.243063e+01	-1.375579e+01
6.279122e+01	-1.380393e+01
6.315390e+01	-1.385131e+01
6.351868e+01	-1.389971e+01
6.388556e+01	-1.394805e+01
6.425456e+01	-1.399650e+01
6.462569e+01	-1.404464e+01
6.499897e+01	-1.409195e+01
6.537440e+01	-1.414038e+01
6.575200e+01	-1.418766e+01
6.613178e+01	-1.423647e+01
6.651375e+01	-1.428575e+01
6.689793e+01	-1.433315e+01
6.728433e+01	-1.438079e+01
6.767297e+01	-1.442962e+01
6.806384e+01	-1.447805e+01
6.845698e+01	-1.452553e+01
6.885238e+01	-1.457351e+01
6.925007e+01	-1.462285e+01
6.965005e+01	-1.467052e+01
7.005235e+01	-1.471844e+01
7.045697e+01	-1.476787e+01
7.086393e+01	-1.481574e+01
7.127323e+01	-1.486334e+01
7.168490e+01	-1.491282e+01
7.209895e+01	-1.496098e+01
7.251539e+01	-1.500972e+01
7.293424e+01	-1.505755e+01
7.335551e+01	-1.510703e+01
7.377920e+01	-1.515556e+01
7.420535e+01	-1.520307e+01
7.463396e+01	-1.525162e+01
7.506504e+01	-1.530033e+01
7.549861e+01	-1.534903e+01
7.593469e+01	-1.539677e+01
7.637328e+01	-1.544590e+01
7.681441e+01	-1.549477e+01
7.725809e+01	-1.554318e+01
7.770433e+01	-1.559172e+01
7.815315e+01	-1.564018e+01
7.860456e+01	-1.568941e+01
7.905857e+01	-1.573817e+01
7.951521e+01	-1.578678e+01
7.997449e+01	-1.583542e+01
8.043642e+01	-1.588467e+01
8.090102e+01	-1.593225e+01
8.136830e+01	-1.598133e+01
8.183828e+01	-1.603043e+01
8.231097e+01	-1.607956e+01
8.278640e+01	-1.612847e+01
8.326457e+01	-1.617721e+01
8.374550e+01	-1.622632e+01
8.422921e+01	-1.627466e+01
8.471572e+01	-1.632463e+01
8.520503e+01	-1.637223e+01
8.569717e+01	-1.642198e+01
8.619215e+01	-1.647026e+01
8.669000e+01	-1.651838e+01
8.719071e+01	-1.656881e+01
8.769432e+01	-1.661646e+01
8.820084e+01	-1.666575e+01
8.871029e+01	-1.671452e+01
8.922267e+01	-1.676425e+01
8.973802e+01	-1.681317e+01
9.025634e+01	-1.686116e+01
9.077766e+01	-1.691032e+01
9.130199e+01	-1.695929e+01
9.182935e+01	-1.700865e+01
9.235975e+01	-1.705764e+01
9.289321e+01	-1.710633e+01
9.342976e+01	-1.715590e+01
9.396941e+01	-1.720480e+01
9.451217e+01	-1.725367e+01
9.505807e+01	-1.730341e+01
9.560712e+01	-1.735357e+01
9.615934e+01	-1.740170e+01
9.671476e+01	-1.745140e+01
9.727338e+01	-1.750013e+01
9.783522e+01	-1.754861e+01
9.840032e+01	-1.759797e+01
9.896867e+01	-1.764671e+01
9.954031e+01	-1.769643e+01
1.001153e+02	-1.774564e+01
1.006935e+02	-1.779600e+01
1.012751e+02	-1.784411e+01
1.018601e+02	-1.789403e+01
1.024484e+02	-1.794222e+01
1.030402e+02	-1.799309e+01
1.036353e+02	-1.804094e+01
1.042339e+02	-1.808966e+01
1.048360e+02	-1.814030e+01
1.054415e+02	-1.818805e+01
1.060505e+02	-1.823859e+01
1.066631e+02	-1.828778e+01
1.072791e+02	-1.833605e+01
1.078988e+02	-1.838633e+01
1.085220e+02	-1.843447e+01
1.091488e+02	-1.848450e+01
1.097793e+02	-1.853454e+01
1.104133e+02	-1.858372e+01
1.110511e+02	-1.863298e+01
1.116925e+02	-1.868125e+01
1.123376e+02	-1.873057e+01
1.129865e+02	-1.878121e+01
1.136391e+02	-1.883042e+01
1.142955e+02	-1.888012e+01
1.149556e+02	-1.892929e+01
1.156196e+02	-1.897730e+01
1.162874e+02	-1.902883e+01
1.169591e+02	-1.907561e+01
1.176347e+02	-1.912626e+01
1.183141e+02	-1.917707e+01
1.189975e+02	-1.922578e+01
1.196848e+02	-1.927523e+01
1.203761e+02	-1.932400e+01
1.210714e+02	-1.937342e+01
1.217707e+02	-1.942306e+01
1.224740e+02	-1.947380e+01
1.231814e+02	-1.952155e+01
1.238929e+02	-1.957155e+01
1.246085e+02	-1.962138e+01
1.253283e+02	-1.966916e+01
1.260522e+02	-1.972098e+01
1.267802e+02	-1.976852e+01
1.275125e+02	-1.981828e+01
1.282490e+02	-1.986709e+01
1.289898e+02	-1.991825e+01
1.297348e+02	-1.996708e+01
1.304842e+02	-2.001642e+01
1.312378e+02	-2.006598e+01
1.319959e+02	-2.011669e+01
1.327583e+02	-2.016547e+01
1.335251e+02	-2.021530e+01
1.342963e+02	-2.026538e+01
1.350720e+02	-2.031444e+01
1.358522e+02	-2.036279e+01
1.366368e+02	-2.041280e+01
1.374260e+02	-2.046179e+01
1.382198e+02	-2.051269e+01
1.390182e+02	-2.056125e+01
1.398211e+02	-2.061102e+01
1.406287e+02	-2.066225e+01
1.414410e+02	-2.071222e+01
1.422579e+02	-2.076127e+01
1.430796e+02	-2.080864e+01
1.439060e+02	-2.085907e+01
1.447372e+02	-2.090868e+01
1.455732e+02	-2.095830e+01
1.464141e+02	-2.100840e+01
1.472597e+02	-2.105931e+01
1.481103e+02	-2.110710e+01
1.489658e+02	-2.115765e+01
1.498262e+02	-2.120661e+01
1.506916e+02	-2.125691e+01
1.515620e+02	-2.130722e+01
1.524374e+02	-2.135721e+01
1.533179e+02	-2.140630e+01
1.542034e+02	-2.145697e+01
1.550941e+02	-2.150490e+01
1.559899e+02	-2.155589e+01
1.568909e+02	-2.160457e+01
1.577971e+02	-2.165492e+01
1.587085e+02	-2.170458e+01
1.596252e+02	-2.175427e+01
1.605472e+02	-2.180481e+01
1.614745e+02	-2.185547e+01
1.624072e+02	-2.190327e+01
1.633453e+02	-2.195138e+01
1.642887e+02	-2.200258e+01
1.652377e+02	-2.205292e+01
1.661921e+02	-2.210470e+01
1.671520e+02	-2.214998e+01
1.681175e+02	-2.220116e+01
1.690885e+02	-2.225147e+01
1.700651e+02	-2.229979e+01
1.710474e+02	-2.235098e+01
1.720354e+02	-2.240130e+01
1.730291e+02	-2.245195e+01
1.740285e+02	-2.249903e+01
1.750337e+02	-2.254835e+01
1.760446e+02	-2.259831e+01
1.770615e+02	-2.264885e+01
1.780842e+02	-2.269911e+01
1.791128e+02	-2.275143e+01
1.801473e+02	-2.279914e+01
1.811878e+02	-2.284854e+01
1.822344e+02	-2.289926e+01
1.832870e+02	-2.294724e+01
1.843456e+02	-2.299717e+01
1.854104e+02	-2.304631e+01
1.864813e+02	-2.309535e+01
1.875584e+02	-2.314883e+01
1.886418e+02	-2.319728e+01
1.897313e+02	-2.324568e+01
1.908272e+02	-2.329602e+01
1.919294e+02	-2.334443e+01
1.930380e+02	-2.339628e+01
1.941530e+02	-2.344648e+01
1.952744e+02	-2.349686e+01
1.964023e+02	-2.354630e+01
1.975367e+02	-2.359743e+01
1.986777e+02	-2.364571e+01
1.998252e+02	-2.369465e+01
2.009794e+02	-2.374514e+01
2.021403e+02	-2.379312e+01
2.033078e+02	-2.384367e+01
2.044821e+02	-2.389500e+01
2.056632e+02	-2.394529e+01
2.068511e+02	-2.399464e+01
2.080459e+02	-2.404306e+01
2.092475e+02	-2.409386e+01
2.104561e+02	-2.414151e+01
2.116717e+02	-2.419590e+01
2.128943e+02	-2.424746e+01
2.141240e+02	-2.429327e+01
2.153608e+02	-2.434213e+01
2.166047e+02	-2.439123e+01
2.178558e+02	-2.444122e+01
2.191141e+02	-2.449282e+01
2.203797e+02	-2.454697e+01
2.216526e+02	-2.459279e+01
2.229329e+02	-2.464256e+01
2.242205e+02	-2.469333e+01
2.255156e+02	-2.474552e+01
2.268182e+02	-2.479340e+01
2.281283e+02	-2.484434e+01
2.294459e+02	-2.489304e+01
2.307712e+02	-2.494476e+01
2.321041e+02	-2.499275e+01
2.334447e+02	-2.504257e+01
2.347931e+02	-2.509169e+01
2.361493e+02	-2.514235e+01
2.375133e+02	-2.519251e+01
2.388851e+02	-2.524035e+01
2.402649e+02	-2.529316e+01
2.416527e+02	-2.534046e+01
2.430484e+02	-2.539252e+01
2.444523e+02	-2.544211e+01
2.458642e+02	-2.549110e+01
2.472843e+02	-2.554124e+01
2.487126e+02	-2.558877e+01
2.501492e+02	-2.564469e+01
2.515940e+02	-2.568930e+01
2.530472e+02	-2.573850e+01
2.545088e+02	-2.578952e+01
2.559789e+02	-2.583895e+01
2.574574e+02	-2.589021e+01
2.589444e+02	-2.594300e+01
2.604401e+02	-2.599033e+01
2.619444e+02	-2.604193e+01
2.634574e+02	-2.608794e+01
2.649791e+02	-2.613779e+01
2.665096e+02	-2.618949e+01
2.680489e+02	-2.624196e+01
2.695972e+02	-2.629319e+01
2.711544e+02	-2.634240e+01
2.727205e+02	-2.639210e+01
2.742958e+02	-2.644071e+01
2.758801e+02	-2.648852e+01
2.774736e+02	-2.654015e+01
2.790762e+02	-2.659048e+01
2.806882e+02	-2.663889e+01
2.823094e+02	-2.668809e+01
2.839400e+02	-2.674130e+01
2.855800e+02	-2.679063e+01
2.872295e+02	-2.684189e+01
2.888886e+02	-2.689238e+01
2.905572e+02	-2.694152e+01
2.922354e+02	-2.698857e+01
2.939234e+02	-2.704104e+01
2.956211e+02	-2.708884e+01
2.973286e+02	-2.714373e+01
2.990459e+02	-2.719043e+01
3.007732e+02	-2.724072e+01
3.025104e+02	-2.728913e+01
3.042577e+02	-2.733953e+01
3.060151e+02	-2.739152e+01
3.077826e+02	-2.743901e+01
3.095604e+02	-2.748829e+01
3.113484e+02	-2.753822e+01
3.131467e+02	-2.758871e+01
3.149554e+02	-2.764008e+01
3.167746e+02	-2.768580e+01
3.186043e+02	-2.773970e+01
3.204445e+02	-2.779413e+01
3.222954e+02	-2.784149e+01
3.241570e+02	-2.789171e+01
3.260293e+02	-2.794148e+01
3.279124e+02	-2.799141e+01
3.298064e+02	-2.804263e+01
3.317114e+02	-2.808973e+01
3.336273e+02	-2.813730e+01
3.355544e+02	-2.818872e+01
3.374925e+02	-2.824105e+01
3.394418e+02	-2.828626e+01
3.414024e+02	-2.833982e+01
3.433744e+02	-2.838821e+01
3.453577e+02	-2.844380e+01
3.473525e+02	-2.849275e+01
3.493588e+02	-2.853724e+01
3.513766e+02	-2.859116e+01
3.534062e+02	-2.863989e+01
3.554474e+02	-2.868796e+01
3.575005e+02	-2.874304e+01
3.595654e+02	-2.878838e+01
3.616422e+02	-2.883881e+01
3.637311e+02	-2.889305e+01
3.658320e+02	-2.894108e+01
3.679450e+02	-2.898746e+01
3.700702e+02	-2.904099e+01
3.722077e+02	-2.909169e+01
3.743576e+02	-2.914309e+01
3.765199e+02	-2.919192e+01
3.786946e+02	-2.924267e+01
3.808820e+02	-2.929223e+01
3.830819e+02	-2.934630e+01
3.852946e+02	-2.939543e+01
3.875200e+02	-2.944446e+01
3.897583e+02	-2.949012e+01
3.920096e+02	-2.954196e+01
3.942738e+02	-2.959244e+01
3.965511e+02	-2.964300e+01
3.988416e+02	-2.969087e+01
4.011452e+02	-2.973808e+01
4.034622e+02	-2.979244e+01
4.057926e+02	-2.984285e+01
4.081365e+02	-2.989206e+01
4.104938e+02	-2.994513e+01
4.128648e+02	-2.999008e+01
4.152495e+02	-3.003990e+01
4.176480e+02	-3.009717e+01
4.200603e+02	-3.014446e+01
4.224866e+02	-3.018602e+01
4.249268e+02	-3.024033e+01
4.273812e+02	-3.029490e+01
4.298497e+02	-3.034177e+01
4.323325e+02	-3.039897e+01
4.348297e+02	-3.044412e+01
4.373412e+02	-3.049431e+01
4.398673e+02	-3.054644e+01
4.424079e+02	-3.059459e+01
4.449633e+02	-3.064396e+01
4.475334e+02	-3.069035e+01
4.501183e+02	-3.074986e+01
4.527182e+02	-3.079204e+01
4.553330e+02	-3.084498e+01
4.579630e+02	-3.089327e+01
4.606082e+02	-3.094360e+01
4.632687e+02	-3.099626e+01
4.659445e+02	-3.104401e+01
4.686358e+02	-3.109649e+01
4.713426e+02	-3.114723e+01
4.740650e+02	-3.119576e+01
4.768032e+02	-3.124610e+01
4.795572e+02	-3.129350e+01
4.823271e+02	-3.134565e+01
4.851130e+02	-3.139254e+01
4.879150e+02	-3.144583e+01
4.907332e+02	-3.149640e+01
4.935676e+02	-3.154754e+01
4.964185e+02	-3.159819e+01
4.992858e+02	-3.164793e+01
5.021696e+02	-3.169537e+01
5.050701e+02	-3.174500e+01
5.079874e+02	-3.179811e+01
5.109215e+02	-3.185455e+01
5.138726e+02	-3.189875e+01
5.168407e+02	-3.195008e+01
5.198259e+02	-3.199815e+01
5.228284e+02	-3.205207e+01
5.258482e+02	-3.210693e+01
5.288855e+02	-3.215142e+01
5.319403e+02	-3.220740e+01
5.350128e+02	-3.224936e+01
5.381030e+02	-3.229516e+01
5.412111e+02	-3.235038e+01
5.443371e+02	-3.240231e+01
5.474812e+02	-3.245192e+01
5.506434e+02	-3.250410e+01
5.538239e+02	-3.255039e+01
5.570228e+02	-3.260115e+01
5.602401e+02	-3.265337e+01
5.634760e+02	-3.269762e+01
5.667306e+02	-3.275228e+01
5.700040e+02	-3.280236e+01
5.732964e+02	-3.284668e+01
5.766077e+02	-3.290536e+01
5.799382e+02	-3.295313e+01
5.832879e+02	-3.300892e+01
5.866569e+02	-3.305176e+01
5.900454e+02	-3.310317e+01
5.934535e+02	-3.315950e+01
5.968813e+02	-3.320039e+01
6.003288e+02	-3.326239e+01
6.037963e+02	-3.330601e+01
6.072838e+02	-3.336092e+01
6.107914e+02	-3.341058e+01
6.143194e+02	-3.345837e+01
6.178676e+02	-3.350801e+01
6.214364e+02	-3.355722e+01
6.250258e+02	-3.360929e+01
6.286359e+02	-3.366090e+01
6.322669e+02	-3.371083e+01
6.359189e+02	-3.376084e+01
6.395919e+02	-3.380190e+01
6.432862e+02	-3.386174e+01
6.470017e+02	-3.390723e+01
6.507388e+02	-3.396082e+01
6.544974e+02	-3.400877e+01
6.582778e+02	-3.405835e+01
6.620800e+02	-3.410520e+01
6.659041e+02	-3.416391e+01
6.697504e+02	-3.420923e+01
6.736188e+02	-3.425798e+01
6.775096e+02	-3.430745e+01
6.814229e+02	-3.436303e+01
6.853587e+02	-3.441620e+01
6.893173e+02	-3.446128e+01
6.932988e+02	-3.450588e+01
6.973033e+02	-3.456448e+01
7.013309e+02	-3.460875e+01
