Frequency(Hz)	Magnitude(dB)
1.000000e+01	-2.170169e+00
1.005776e+01	-2.189690e+00
1.011585e+01	-2.209530e+00
1.017428e+01	-2.229587e+00
1.023305e+01	-2.249880e+00
1.029215e+01	-2.269991e+00
1.035160e+01	-2.290571e+00
1.041139e+01	-2.311108e+00
1.047153e+01	-2.331682e+00
1.053201e+01	-2.352572e+00
1.059284e+01	-2.373536e+00
1.065403e+01	-2.395024e+00
1.071556e+01	-2.416241e+00
1.077746e+01	-2.437650e+00
1.083971e+01	-2.458827e+00
1.090232e+01	-2.480798e+00
1.096529e+01	-2.502641e+00
1.102862e+01	-2.524563e+00
1.109232e+01	-2.546621e+00
1.115639e+01	-2.568740e+00
1.122083e+01	-2.591306e+00
1.128564e+01	-2.613960e+00
1.135083e+01	-2.636454e+00
1.141639e+01	-2.659497e+00
1.148233e+01	-2.682335e+00
1.154865e+01	-2.705249e+00
1.161536e+01	-2.728820e+00
1.168245e+01	-2.752360e+00
1.174992e+01	-2.775750e+00
1.181779e+01	-2.799420e+00
1.188605e+01	-2.823337e+00
1.195470e+01	-2.847499e+00
1.202375e+01	-2.871235e+00
1.209320e+01	-2.895550e+00
1.216305e+01	-2.920077e+00
1.223330e+01	-2.944569e+00
1.230396e+01	-2.969397e+00
1.237503e+01	-2.994262e+00
1.244651e+01	-3.019491e+00
1.251840e+01	-3.044228e+00
1.259070e+01	-3.069629e+00
1.266343e+01	-3.094596e+00
1.273657e+01	-3.120591e+00
1.281014e+01	-3.146354e+00
1.288413e+01	-3.172162e+00
1.295855e+01	-3.198288e+00
1.303339e+01	-3.224355e+00
1.310867e+01	-3.250489e+00
1.318439e+01	-3.277156e+00
1.326054e+01	-3.303512e+00
1.333713e+01	-3.330413e+00
1.341417e+01	-3.357357e+00
1.349165e+01	-3.384071e+00
1.356958e+01	-3.411465e+00
1.364795e+01	-3.438547e+00
1.372678e+01	-3.465973e+00
1.380607e+01	-3.493739e+00
1.388581e+01	-3.521194e+00
1.396602e+01	-3.549348e+00
1.404668e+01	-3.577406e+00
1.412782e+01	-3.605479e+00
1.420942e+01	-3.633652e+00
1.429149e+01	-3.661975e+00
1.437404e+01	-3.690626e+00
1.445706e+01	-3.719480e+00
1.454057e+01	-3.748214e+00
1.462455e+01	-3.777142e+00
1.470902e+01	-3.806219e+00
1.479398e+01	-3.835509e+00
1.487943e+01	-3.864935e+00
1.496537e+01	-3.894447e+00
1.505181e+01	-3.924058e+00
1.513875e+01	-3.954131e+00
1.522619e+01	-3.983916e+00
1.531414e+01	-4.013830e+00
1.540259e+01	-4.044304e+00
1.549156e+01	-4.074715e+00
1.558103e+01	-4.105099e+00
1.567103e+01	-4.135869e+00
1.576155e+01	-4.166656e+00
1.585258e+01	-4.197487e+00
1.594415e+01	-4.228754e+00
1.603624e+01	-4.259850e+00
1.612886e+01	-4.291276e+00
1.622202e+01	-4.322720e+00
1.631572e+01	-4.354411e+00
1.640996e+01	-4.386238e+00
1.650474e+01	-4.417867e+00
1.660008e+01	-4.449915e+00
1.669596e+01	-4.481836e+00
1.679239e+01	-4.514517e+00
1.688938e+01	-4.546707e+00
1.698694e+01	-4.579307e+00
1.708505e+01	-4.612021e+00
1.718373e+01	-4.644698e+00
1.728299e+01	-4.677476e+00
1.738281e+01	-4.710614e+00
1.748322e+01	-4.743814e+00
1.758420e+01	-4.777280e+00
1.768576e+01	-4.810758e+00
1.778792e+01	-4.844302e+00
1.789066e+01	-4.878190e+00
1.799399e+01	-4.911559e+00
1.809793e+01	-4.945225e+00
1.820246e+01	-4.979632e+00
1.830760e+01	-5.013678e+00
1.841334e+01	-5.048347e+00
1.851969e+01	-5.082667e+00
1.862666e+01	-5.117145e+00
1.873425e+01	-5.151869e+00
1.884246e+01	-5.186839e+00
1.895129e+01	-5.221493e+00
1.906075e+01	-5.256723e+00
1.917085e+01	-5.292010e+00
1.928158e+01	-5.327309e+00
1.939295e+01	-5.362192e+00
1.950496e+01	-5.397926e+00
1.961762e+01	-5.433592e+00
1.973093e+01	-5.469655e+00
1.984490e+01	-5.505328e+00
1.995952e+01	-5.541487e+00
2.007480e+01	-5.577564e+00
2.019076e+01	-5.613740e+00
2.030738e+01	-5.649861e+00
2.042467e+01	-5.686421e+00
2.054264e+01	-5.723196e+00
2.066130e+01	-5.759819e+00
2.078064e+01	-5.796865e+00
2.090066e+01	-5.833479e+00
2.102139e+01	-5.870750e+00
2.114280e+01	-5.907803e+00
2.126492e+01	-5.944848e+00
2.138775e+01	-5.982180e+00
2.151128e+01	-6.019814e+00
2.163553e+01	-6.057784e+00
2.176050e+01	-6.095347e+00
2.188619e+01	-6.132900e+00
2.201260e+01	-6.170412e+00
2.213974e+01	-6.208497e+00
2.226762e+01	-6.247075e+00
2.239624e+01	-6.284890e+00
2.252560e+01	-6.323559e+00
2.265571e+01	-6.361662e+00
2.278656e+01	-6.400434e+00
2.291818e+01	-6.438757e+00
2.305055e+01	-6.477551e+00
2.318369e+01	-6.516621e+00
2.331760e+01	-6.555500e+00
2.345228e+01	-6.594555e+00
2.358774e+01	-6.633600e+00
2.372398e+01	-6.672292e+00
2.386101e+01	-6.711817e+00
2.399883e+01	-6.751306e+00
2.413745e+01	-6.791274e+00
2.427686e+01	-6.830141e+00
2.441709e+01	-6.869839e+00
2.455812e+01	-6.910344e+00
2.469997e+01	-6.949708e+00
2.484263e+01	-6.989556e+00
2.498612e+01	-7.029732e+00
2.513044e+01	-7.070390e+00
2.527559e+01	-7.110192e+00
2.542158e+01	-7.150960e+00
2.556842e+01	-7.190973e+00
2.571610e+01	-7.231526e+00
2.586463e+01	-7.272505e+00
2.601403e+01	-7.312569e+00
2.616428e+01	-7.353594e+00
2.631541e+01	-7.394461e+00
2.646740e+01	-7.435547e+00
2.662028e+01	-7.476871e+00
2.677404e+01	-7.517973e+00
2.692868e+01	-7.558530e+00
2.708422e+01	-7.600351e+00
2.724066e+01	-7.641489e+00
2.739800e+01	-7.683218e+00
2.755625e+01	-7.724492e+00
2.771541e+01	-7.766310e+00
2.787550e+01	-7.807924e+00
2.803650e+01	-7.849713e+00
2.819844e+01	-7.890973e+00
2.836131e+01	-7.933192e+00
2.852513e+01	-7.975412e+00
2.868989e+01	-8.017265e+00
2.885560e+01	-8.059842e+00
2.902227e+01	-8.102278e+00
2.918990e+01	-8.144119e+00
2.935850e+01	-8.186258e+00
2.952807e+01	-8.229316e+00
2.969863e+01	-8.271905e+00
2.987016e+01	-8.314925e+00
3.004269e+01	-8.356701e+00
3.021622e+01	-8.399263e+00
3.039075e+01	-8.442577e+00
3.056628e+01	-8.485870e+00
3.074283e+01	-8.528601e+00
3.092040e+01	-8.571559e+00
3.109900e+01	-8.614440e+00
3.127862e+01	-8.657563e+00
3.145929e+01	-8.701158e+00
3.164099e+01	-8.744219e+00
3.182375e+01	-8.787851e+00
3.200756e+01	-8.831539e+00
3.219244e+01	-8.874474e+00
3.237838e+01	-8.918354e+00
3.256540e+01	-8.961901e+00
3.275349e+01	-9.005599e+00
3.294268e+01	-9.049377e+00
3.313295e+01	-9.092915e+00
3.332433e+01	-9.137068e+00
3.351681e+01	-9.180618e+00
3.371040e+01	-9.225448e+00
3.390511e+01	-9.268859e+00
3.410094e+01	-9.313110e+00
3.429791e+01	-9.357381e+00
3.449601e+01	-9.401502e+00
3.469526e+01	-9.446173e+00
3.489566e+01	-9.490649e+00
3.509721e+01	-9.535044e+00
3.529993e+01	-9.579286e+00
3.550382e+01	-9.623681e+00
3.570889e+01	-9.668562e+00
3.591515e+01	-9.713301e+00
3.612259e+01	-9.757932e+00
3.633123e+01	-9.803269e+00
3.654108e+01	-9.847419e+00
3.675214e+01	-9.892643e+00
3.696442e+01	-9.937069e+00
3.717792e+01	-9.982474e+00
3.739266e+01	-1.002751e+01
3.760864e+01	-1.007218e+01
3.782587e+01	-1.011714e+01
3.804435e+01	-1.016253e+01
3.826409e+01	-1.020789e+01
3.848510e+01	-1.025242e+01
3.870739e+01	-1.029825e+01
3.893096e+01	-1.034359e+01
3.915583e+01	-1.038946e+01
3.938199e+01	-1.043462e+01
3.960946e+01	-1.048021e+01
3.983824e+01	-1.052603e+01
4.006834e+01	-1.057088e+01
4.029978e+01	-1.061754e+01
4.053255e+01	-1.066285e+01
4.076666e+01	-1.070830e+01
4.100213e+01	-1.075413e+01
4.123896e+01	-1.080007e+01
4.147715e+01	-1.084585e+01
4.171672e+01	-1.089231e+01
4.195767e+01	-1.093764e+01
4.220002e+01	-1.098410e+01
4.244377e+01	-1.102997e+01
4.268892e+01	-1.107620e+01
4.293549e+01	-1.112230e+01
4.318348e+01	-1.116842e+01
4.343291e+01	-1.121502e+01
4.368377e+01	-1.126116e+01
4.393609e+01	-1.130724e+01
4.418986e+01	-1.135373e+01
4.444510e+01	-1.139984e+01
4.470182e+01	-1.144736e+01
4.496001e+01	-1.149270e+01
4.521970e+01	-1.153888e+01
4.548089e+01	-1.158542e+01
4.574358e+01	-1.163213e+01
4.600779e+01	-1.167875e+01
4.627353e+01	-1.172529e+01
4.654081e+01	-1.177239e+01
4.680963e+01	-1.181917e+01
4.708000e+01	-1.186640e+01
4.735193e+01	-1.191351e+01
4.762543e+01	-1.195949e+01
4.790051e+01	-1.200641e+01
4.817719e+01	-1.205261e+01
4.845545e+01	-1.210011e+01
4.873533e+01	-1.214678e+01
4.901682e+01	-1.219382e+01
4.929994e+01	-1.224157e+01
4.958470e+01	-1.228806e+01
4.987110e+01	-1.233534e+01
5.015915e+01	-1.238292e+01
5.044887e+01	-1.242941e+01
5.074026e+01	-1.247725e+01
5.103333e+01	-1.252374e+01
5.132810e+01	-1.257093e+01
5.162457e+01	-1.261872e+01
5.192275e+01	-1.266645e+01
5.222265e+01	-1.271268e+01
5.252429e+01	-1.276024e+01
5.282767e+01	-1.280837e+01
5.313280e+01	-1.285514e+01
5.343969e+01	-1.290305e+01
5.374836e+01	-1.295025e+01
5.405880e+01	-1.299772e+01
5.437105e+01	-1.304540e+01
5.468509e+01	-1.309276e+01
5.500095e+01	-1.314069e+01
5.531863e+01	-1.318855e+01
5.563815e+01	-1.323617e+01
5.595951e+01	-1.328326e+01
5.628273e+01	-1.333128e+01
5.660782e+01	-1.337830e+01
5.693479e+01	-1.342637e+01
5.726364e+01	-1.347475e+01
5.759439e+01	-1.352219e+01
5.792705e+01	-1.356978e+01
5.826164e+01	-1.361763e+01
5.859815e+01	-1.366611e+01
5.893662e+01	-1.371404e+01
5.927703e+01	-1.376049e+01
5.961941e+01	-1.380962e+01
5.996377e+01	-1.385728e+01
6.031012e+01	-1.390532e+01
6.065847e+01	-1.395331e+01
6.100883e+01	-1.400099e+01
6.136121e+01	-1.404836e+01
6.171563e+01	-1.409679e+01
6.207210e+01	-1.414593e+01
6.243063e+01	-1.419369e+01
6.279122e+01	-1.424119e+01
6.315390e+01	-1.429064e+01
6.351868e+01	-1.433909e+01
6.388556e+01	-1.438650e+01
6.425456e+01	-1.443490e+01
6.462569e+01	-1.448162e+01
6.499897e+01	-1.453075e+01
6.537440e+01	-1.457995e+01
6.575200e+01	-1.462742e+01
6.613178e+01	-1.467589e+01
6.651375e+01	-1.472412e+01
6.689793e+01	-1.477324e+01
6.728433e+01	-1.482005e+01
6.767297e+01	-1.486927e+01
6.806384e+01	-1.491775e+01
6.845698e+01	-1.496626e+01
6.885238e+01	-1.501485e+01
6.925007e+01	-1.506306e+01
6.965005e+01	-1.511136e+01
7.005235e+01	-1.515957e+01
7.045697e+01	-1.520836e+01
7.086393e+01	-1.525656e+01
7.127323e+01	-1.530556e+01
7.168490e+01	-1.535384e+01
7.209895e+01	-1.540347e+01
7.251539e+01	-1.545097e+01
7.293424e+01	-1.549991e+01
7.335551e+01	-1.554832e+01
7.377920e+01	-1.559793e+01
7.420535e+01	-1.564484e+01
7.463396e+01	-1.569452e+01
7.506504e+01	-1.574255e+01
7.549861e+01	-1.579206e+01
7.593469e+01	-1.584035e+01
7.637328e+01	-1.589027e+01
7.681441e+01	-1.593891e+01
7.725809e+01	-1.598756e+01
7.770433e+01	-1.603515e+01
7.815315e+01	-1.608474e+01
7.860456e+01	-1.613215e+01
7.905857e+01	-1.618181e+01
7.951521e+01	-1.623095e+01
7.997449e+01	-1.628051e+01
8.043642e+01	-1.632890e+01
8.090102e+01	-1.637784e+01
8.136830e+01	-1.642661e+01
8.183828e+01	-1.647571e+01
8.231097e+01	-1.652389e+01
8.278640e+01	-1.657238e+01
8.326457e+01	-1.662320e+01
8.374550e+01	-1.667062e+01
8.422921e+01	-1.672010e+01
8.471572e+01	-1.676920e+01
8.520503e+01	-1.681823e+01
8.569717e+01	-1.686739e+01
8.619215e+01	-1.691610e+01
8.669000e+01	-1.696461e+01
8.719071e+01	-1.701414e+01
8.769432e+01	-1.706315e+01
8.820084e+01	-1.711145e+01
8.871029e+01	-1.716062e+01
8.922267e+01	-1.720966e+01
8.973802e+01	-1.725955e+01
9.025634e+01	-1.730935e+01
9.077766e+01	-1.735787e+01
9.130199e+01	-1.740728e+01
9.182935e+01	-1.745589e+01
9.235975e+01	-1.750480e+01
9.289321e+01	-1.755353e+01
9.342976e+01	-1.760302e+01
9.396941e+01	-1.765237e+01
9.451217e+01	-1.770087e+01
9.505807e+01	-1.775185e+01
9.560712e+01	-1.780079e+01
9.615934e+01	-1.784838e+01
9.671476e+01	-1.789724e+01
9.727338e+01	-1.794888e+01
9.783522e+01	-1.799743e+01
9.840032e+01	-1.804775e+01
9.896867e+01	-1.809426e+01
9.954031e+01	-1.814457e+01
1.001153e+02	-1.819285e+01
1.006935e+02	-1.824391e+01
1.012751e+02	-1.829200e+01
1.018601e+02	-1.834223e+01
1.024484e+02	-1.839201e+01
1.030402e+02	-1.843871e+01
1.036353e+02	-1.849048e+01
1.042339e+02	-1.853785e+01
1.048360e+02	-1.858738e+01
1.054415e+02	-1.863823e+01
1.060505e+02	-1.868680e+01
1.066631e+02	-1.873631e+01
1.072791e+02	-1.878563e+01
1.078988e+02	-1.883330e+01
1.085220e+02	-1.888457e+01
1.091488e+02	-1.893274e+01
1.097793e+02	-1.898416e+01
1.104133e+02	-1.903251e+01
1.110511e+02	-1.908161e+01
1.116925e+02	-1.913110e+01
1.123376e+02	-1.918092e+01
1.129865e+02	-1.923111e+01
1.136391e+02	-1.927931e+01
1.142955e+02	-1.932878e+01
1.149556e+02	-1.937839e+01
1.156196e+02	-1.942939e+01
1.162874e+02	-1.947798e+01
1.169591e+02	-1.952649e+01
1.176347e+02	-1.957623e+01
1.183141e+02	-1.962613e+01
1.189975e+02	-1.967536e+01
1.196848e+02	-1.972490e+01
1.203761e+02	-1.977504e+01
1.210714e+02	-1.982497e+01
1.217707e+02	-1.987398e+01
1.224740e+02	-1.992271e+01
1.231814e+02	-1.997161e+01
1.238929e+02	-2.002311e+01
1.246085e+02	-2.007235e+01
1.253283e+02	-2.012045e+01
1.260522e+02	-2.016937e+01
1.267802e+02	-2.021971e+01
1.275125e+02	-2.026978e+01
1.282490e+02	-2.031903e+01
1.289898e+02	-2.036991e+01
1.297348e+02	-2.041945e+01
1.304842e+02	-2.046817e+01
1.312378e+02	-2.051907e+01
1.319959e+02	-2.056579e+01
1.327583e+02	-2.061696e+01
1.335251e+02	-2.066645e+01
1.342963e+02	-2.071580e+01
1.350720e+02	-2.076595e+01
1.358522e+02	-2.081528e+01
1.366368e+02	-2.086528e+01
1.374260e+02	-2.091418e+01
1.382198e+02	-2.096525e+01
1.390182e+02	-2.101499e+01
1.398211e+02	-2.106327e+01
1.406287e+02	-2.111427e+01
1.414410e+02	-2.116292e+01
1.422579e+02	-2.121221e+01
1.430796e+02	-2.126257e+01
1.439060e+02	-2.131051e+01
1.447372e+02	-2.136028e+01
1.455732e+02	-2.141165e+01
1.464141e+02	-2.146036e+01
1.472597e+02	-2.151066e+01
1.481103e+02	-2.156000e+01
1.489658e+02	-2.161118e+01
1.498262e+02	-2.165863e+01
1.506916e+02	-2.170885e+01
1.515620e+02	-2.176063e+01
1.524374e+02	-2.181053e+01
1.533179e+02	-2.185900e+01
1.542034e+02	-2.190906e+01
1.550941e+02	-2.195948e+01
1.559899e+02	-2.200803e+01
1.568909e+02	-2.205788e+01
1.577971e+02	-2.210726e+01
1.587085e+02	-2.215585e+01
1.596252e+02	-2.220575e+01
1.605472e+02	-2.225634e+01
1.614745e+02	-2.230657e+01
1.624072e+02	-2.235621e+01
1.633453e+02	-2.240589e+01
1.642887e+02	-2.245192e+01
1.652377e+02	-2.250720e+01
1.661921e+02	-2.255548e+01
1.671520e+02	-2.260545e+01
1.681175e+02	-2.265699e+01
1.690885e+02	-2.270376e+01
1.700651e+02	-2.275448e+01
1.710474e+02	-2.280313e+01
1.720354e+02	-2.285472e+01
1.730291e+02	-2.290299e+01
1.740285e+02	-2.295417e+01
1.750337e+02	-2.300302e+01
1.760446e+02	-2.305251e+01
1.770615e+02	-2.310209e+01
1.780842e+02	-2.315292e+01
1.791128e+02	-2.320030e+01
1.801473e+02	-2.324990e+01
1.811878e+02	-2.330291e+01
1.822344e+02	-2.335430e+01
1.832870e+02	-2.340201e+01
1.843456e+02	-2.345216e+01
1.854104e+02	-2.350097e+01
1.864813e+02	-2.355208e+01
1.875584e+02	-2.360019e+01
1.886418e+02	-2.365271e+01
1.897313e+02	-2.369993e+01
1.908272e+02	-2.374839e+01
1.919294e+02	-2.379845e+01
1.930380e+02	-2.385105e+01
1.941530e+02	-2.390118e+01
1.952744e+02	-2.395037e+01
1.964023e+02	-2.399872e+01
1.975367e+02	-2.404890e+01
1.986777e+02	-2.409798e+01
1.998252e+02	-2.414895e+01
2.009794e+02	-2.419991e+01
2.021403e+02	-2.424783e+01
2.033078e+02	-2.429825e+01
2.044821e+02	-2.434860e+01
2.056632e+02	-2.440138e+01
2.068511e+02	-2.444822e+01
2.080459e+02	-2.449707e+01
2.092475e+02	-2.454795e+01
2.104561e+02	-2.459742e+01
2.116717e+02	-2.464962e+01
2.128943e+02	-2.469774e+01
2.141240e+02	-2.474740e+01
2.153608e+02	-2.480042e+01
2.166047e+02	-2.484614e+01
2.178558e+02	-2.489835e+01
2.191141e+02	-2.494578e+01
2.203797e+02	-2.499718e+01
2.216526e+02	-2.504389e+01
2.229329e+02	-2.509834e+01
2.242205e+02	-2.514901e+01
2.255156e+02	-2.519660e+01
2.268182e+02	-2.524653e+01
2.281283e+02	-2.529628e+01
2.294459e+02	-2.534550e+01
2.307712e+02	-2.539642e+01
2.321041e+02	-2.544682e+01
2.334447e+02	-2.549600e+01
2.347931e+02	-2.554638e+01
2.361493e+02	-2.559684e+01
2.375133e+02	-2.564493e+01
2.388851e+02	-2.569784e+01
2.402649e+02	-2.574798e+01
2.416527e+02	-2.579577e+01
2.430484e+02	-2.584313e+01
2.444523e+02	-2.589557e+01
2.458642e+02	-2.594801e+01
2.472843e+02	-2.599689e+01
2.487126e+02	-2.604497e+01
2.501492e+02	-2.609724e+01
2.515940e+02	-2.614733e+01
2.530472e+02	-2.619758e+01
2.545088e+02	-2.624818e+01
2.559789e+02	-2.629758e+01
2.574574e+02	-2.634629e+01
2.589444e+02	-2.639591e+01
2.604401e+02	-2.644638e+01
2.619444e+02	-2.649660e+01
2.634574e+02	-2.654402e+01
2.649791e+02	-2.659533e+01
2.665096e+02	-2.664448e+01
2.680489e+02	-2.669220e+01
2.695972e+02	-2.674555e+01
2.711544e+02	-2.679247e+01
2.727205e+02	-2.684452e+01
2.742958e+02	-2.689440e+01
2.758801e+02	-2.694771e+01
2.774736e+02	-2.699260e+01
2.790762e+02	-2.704484e+01
2.806882e+02	-2.709385e+01
2.823094e+02	-2.714254e+01
2.839400e+02	-2.719245e+01
2.855800e+02	-2.725027e+01
2.872295e+02	-2.729324e+01
2.888886e+02	-2.734764e+01
2.905572e+02	-2.739416e+01
2.922354e+02	-2.744445e+01
2.939234e+02	-2.749864e+01
2.956211e+02	-2.754366e+01
2.973286e+02	-2.759484e+01
2.990459e+02	-2.764555e+01
3.007732e+02	-2.769420e+01
3.025104e+02	-2.774735e+01
3.042577e+02	-2.779554e+01
3.060151e+02	-2.784775e+01
3.077826e+02	-2.789475e+01
3.095604e+02	-2.794349e+01
3.113484e+02	-2.798993e+01
3.131467e+02	-2.804743e+01
3.149554e+02	-2.809743e+01
3.167746e+02	-2.814400e+01
3.186043e+02	-2.819812e+01
3.204445e+02	-2.824163e+01
3.222954e+02	-2.829477e+01
3.241570e+02	-2.834570e+01
3.260293e+02	-2.839743e+01
3.279124e+02	-2.844947e+01
3.298064e+02	-2.849878e+01
3.317114e+02	-2.854606e+01
3.336273e+02	-2.859075e+01
3.355544e+02	-2.864807e+01
3.374925e+02	-2.869737e+01
3.394418e+02	-2.874412e+01
3.414024e+02	-2.879553e+01
3.433744e+02	-2.884952e+01
3.453577e+02	-2.889856e+01
3.473525e+02	-2.894813e+01
3.493588e+02	-2.899343e+01
3.513766e+02	-2.904502e+01
3.534062e+02	-2.909388e+01
3.554474e+02	-2.914786e+01
3.575005e+02	-2.919330e+01
3.595654e+02	-2.924952e+01
3.616422e+02	-2.929494e+01
3.637311e+02	-2.934987e+01
3.658320e+02	-2.939832e+01
3.679450e+02	-2.944233e+01
3.700702e+02	-2.949828e+01
3.722077e+02	-2.954249e+01
3.743576e+02	-2.959581e+01
3.765199e+02	-2.965054e+01
3.786946e+02	-2.969548e+01
3.808820e+02	-2.974951e+01
3.830819e+02	-2.979455e+01
3.852946e+02	-2.984816e+01
3.875200e+02	-2.989766e+01
3.897583e+02	-2.994441e+01
3.920096e+02	-3.000087e+01
3.942738e+02	-3.005039e+01
3.965511e+02	-3.009904e+01
3.988416e+02	-3.015367e+01
4.011452e+02	-3.019333e+01
4.034622e+02	-3.025336e+01
4.057926e+02	-3.030053e+01
4.081365e+02	-3.034609e+01
4.104938e+02	-3.039677e+01
4.128648e+02	-3.044264e+01
4.152495e+02	-3.049638e+01
4.176480e+02	-3.054911e+01
4.200603e+02	-3.059959e+01
4.224866e+02	-3.064916e+01
4.249268e+02	-3.069924e+01
4.273812e+02	-3.074598e+01
4.298497e+02	-3.080105e+01
4.323325e+02	-3.084884e+01
4.348297e+02	-3.090427e+01
4.373412e+02	-3.094934e+01
4.398673e+02	-3.099697e+01
4.424079e+02	-3.104546e+01
4.449633e+02	-3.110360e+01
4.475334e+02	-3.115661e+01
4.501183e+02	-3.119570e+01
4.527182e+02	-3.124840e+01
4.553330e+02	-3.129714e+01
4.579630e+02	-3.135175e+01
4.606082e+02	-3.140098e+01
4.632687e+02	-3.144973e+01
4.659445e+02	-3.150260e+01
4.686358e+02	-3.155217e+01
4.713426e+02	-3.160163e+01
4.740650e+02	-3.164702e+01
4.768032e+02	-3.170166e+01
4.795572e+02	-3.175543e+01
4.823271e+02	-3.180195e+01
4.851130e+02	-3.185190e+01
4.879150e+02	-3.190099e+01
4.907332e+02	-3.194700e+01
4.935676e+02	-3.200856e+01
4.964185e+02	-3.205565e+01
4.992858e+02	-3.210282e+01
5.021696e+02	-3.215781e+01
5.050701e+02	-3.220017e+01
5.079874e+02	-3.225696e+01
5.109215e+02	-3.230410e+01
5.138726e+02	-3.235101e+01
5.168407e+02	-3.241133e+01
5.198259e+02	-3.245638e+01
5.228284e+02	-3.250277e+01
5.258482e+02	-3.255306e+01
5.288855e+02	-3.259954e+01
5.319403e+02	-3.265515e+01
5.350128e+02	-3.270754e+01
5.381030e+02	-3.275965e+01
5.412111e+02	-3.281022e+01
5.443371e+02	-3.285824e+01
5.474812e+02	-3.290455e+01
5.506434e+02	-3.295190e+01
5.538239e+02	-3.301354e+01
5.570228e+02	-3.305378e+01
5.602401e+02	-3.310731e+01
5.634760e+02	-3.316313e+01
5.667306e+02	-3.321140e+01
5.700040e+02	-3.325950e+01
5.732964e+02	-3.331057e+01
5.766077e+02	-3.335391e+01
5.799382e+02	-3.340437e+01
5.832879e+02	-3.346462e+01
5.866569e+02	-3.349874e+01
5.900454e+02	-3.356215e+01
5.934535e+02	-3.361116e+01
5.968813e+02	-3.365413e+01
6.003288e+02	-3.370947e+01
6.037963e+02	-3.376174e+01
6.072838e+02	-3.381012e+01
6.107914e+02	-3.387050e+01
6.143194e+02	-3.391167e+01
6.178676e+02	-3.396156e+01
6.214364e+02	-3.401434e+01
6.250258e+02	-3.406144e+01
6.286359e+02	-3.411354e+01
6.322669e+02	-3.416023e+01
6.359189e+02	-3.421623e+01
6.395919e+02	-3.426349e+01
6.432862e+02	-3.431340e+01
6.470017e+02	-3.436598e+01
6.507388e+02	-3.441182e+01
6.544974e+02	-3.446648e+01
6.582778e+02	-3.451833e+01
6.620800e+02	-3.456558e+01
6.659041e+02	-3.461339e+01
6.697504e+02	-3.466846e+01
6.736188e+02	-3.471406e+01
6.775096e+02	-3.475779e+01
6.814229e+02	-3.481444e+01
6.853587e+02	-3.486674e+01
6.893173e+02	-3.491345e+01
6.932988e+02	-3.496992e+01
6.973033e+02	-3.502381e+01
7.013309e+02	-3.507349e+01
