Frequency(Hz)	Magnitude(dB)
1.000000e+01	-2.034584e+00
1.005776e+01	-2.053409e+00
1.011585e+01	-2.072320e+00
1.017428e+01	-2.091285e+00
1.023305e+01	-2.110760e+00
1.029215e+01	-2.129861e+00
1.035160e+01	-2.149305e+00
1.041139e+01	-2.169010e+00
1.047153e+01	-2.188698e+00
1.053201e+01	-2.208693e+00
1.059284e+01	-2.228623e+00
1.065403e+01	-2.248792e+00
1.071556e+01	-2.269056e+00
1.077746e+01	-2.289426e+00
1.083971e+01	-2.309867e+00
1.090232e+01	-2.330674e+00
1.096529e+01	-2.351512e+00
1.102862e+01	-2.372457e+00
1.109232e+01	-2.393764e+00
1.115639e+01	-2.414943e+00
1.122083e+01	-2.436403e+00
1.128564e+01	-2.458047e+00
1.135083e+01	-2.479732e+00
1.141639e+01	-2.501431e+00
1.148233e+01	-2.523301e+00
1.154865e+01	-2.545578e+00
1.161536e+01	-2.567599e+00
1.168245e+01	-2.590248e+00
1.174992e+01	-2.612698e+00
1.181779e+01	-2.635661e+00
1.188605e+01	-2.658294e+00
1.195470e+01	-2.681091e+00
1.202375e+01	-2.704175e+00
1.209320e+01	-2.727699e+00
1.216305e+01	-2.750816e+00
1.223330e+01	-2.774449e+00
1.230396e+01	-2.798431e+00
1.237503e+01	-2.822017e+00
1.244651e+01	-2.846118e+00
1.251840e+01	-2.870103e+00
1.259070e+01	-2.894540e+00
1.266343e+01	-2.918677e+00
1.273657e+01	-2.943369e+00
1.281014e+01	-2.968177e+00
1.288413e+01	-2.992943e+00
1.295855e+01	-3.017739e+00
1.303339e+01	-3.043190e+00
1.310867e+01	-3.068305e+00
1.318439e+01	-3.093836e+00
1.326054e+01	-3.119168e+00
1.333713e+01	-3.145056e+00
1.341417e+01	-3.170762e+00
1.349165e+01	-3.196894e+00
1.356958e+01	-3.222871e+00
1.364795e+01	-3.249001e+00
1.372678e+01	-3.275823e+00
1.380607e+01	-3.301966e+00
1.388581e+01	-3.329185e+00
1.396602e+01	-3.355693e+00
1.404668e+01	-3.382374e+00
1.412782e+01	-3.409963e+00
1.420942e+01	-3.437126e+00
1.429149e+01	-3.464745e+00
1.437404e+01	-3.492217e+00
1.445706e+01	-3.519956e+00
1.454057e+01	-3.547902e+00
1.462455e+01	-3.575424e+00
1.470902e+01	-3.604018e+00
1.479398e+01	-3.632346e+00
1.487943e+01	-3.660602e+00
1.496537e+01	-3.689127e+00
1.505181e+01	-3.717911e+00
1.513875e+01	-3.746640e+00
1.522619e+01	-3.775732e+00
1.531414e+01	-3.804858e+00
1.540259e+01	-3.834151e+00
1.549156e+01	-3.863385e+00
1.558103e+01	-3.893322e+00
1.567103e+01	-3.922585e+00
1.576155e+01	-3.952359e+00
1.585258e+01	-3.982440e+00
1.594415e+01	-4.012562e+00
1.603624e+01	-4.042717e+00
1.612886e+01	-4.073297e+00
1.622202e+01	-4.103528e+00
1.631572e+01	-4.134414e+00
1.640996e+01	-4.165252e+00
1.650474e+01	-4.196116e+00
1.660008e+01	-4.227093e+00
1.669596e+01	-4.258377e+00
1.679239e+01	-4.289445e+00
1.688938e+01	-4.320852e+00
1.698694e+01	-4.352753e+00
1.708505e+01	-4.384320e+00
1.718373e+01	-4.416149e+00
1.728299e+01	-4.448328e+00
1.738281e+01	-4.480198e+00
1.748322e+01	-4.512873e+00
1.758420e+01	-4.545077e+00
1.768576e+01	-4.577411e+00
1.778792e+01	-4.609985e+00
1.789066e+01	-4.643092e+00
1.799399e+01	-4.676035e+00
1.809793e+01	-4.708966e+00
1.820246e+01	-4.742075e+00
1.830760e+01	-4.775257e+00
1.841334e+01	-4.808730e+00
1.851969e+01	-4.842614e+00
1.862666e+01	-4.876144e+00
1.873425e+01	-4.910145e+00
1.884246e+01	-4.943888e+00
1.895129e+01	-4.977812e+00
1.906075e+01	-5.011956e+00
1.917085e+01	-5.046012e+00
1.928158e+01	-5.080925e+00
1.939295e+01	-5.115407e+00
1.950496e+01	-5.150246e+00
1.961762e+01	-5.185169e+00
1.973093e+01	-5.219924e+00
1.984490e+01	-5.254839e+00
1.995952e+01	-5.290128e+00
2.007480e+01	-5.325123e+00
2.019076e+01	-5.360527e+00
2.030738e+01	-5.396027e+00
2.042467e+01	-5.431986e+00
2.054264e+01	-5.467564e+00
2.066130e+01	-5.503839e+00
2.078064e+01	-5.539645e+00
2.090066e+01	-5.575609e+00
2.102139e+01	-5.611674e+00
2.114280e+01	-5.648052e+00
2.126492e+01	-5.684332e+00
2.138775e+01	-5.720883e+00
2.151128e+01	-5.757929e+00
2.163553e+01	-5.794608e+00
2.176050e+01	-5.831528e+00
2.188619e+01	-5.868796e+00
2.201260e+01	-5.906108e+00
2.213974e+01	-5.943207e+00
2.226762e+01	-5.980396e+00
2.239624e+01	-6.017699e+00
2.252560e+01	-6.055568e+00
2.265571e+01	-6.093138e+00
2.278656e+01	-6.130675e+00
2.291818e+01	-6.168715e+00
2.305055e+01	-6.206883e+00
2.318369e+01	-6.244905e+00
2.331760e+01	-6.282958e+00
2.345228e+01	-6.321298e+00
2.358774e+01	-6.360023e+00
2.372398e+01	-6.398431e+00
2.386101e+01	-6.436739e+00
2.399883e+01	-6.475502e+00
2.413745e+01	-6.514737e+00
2.427686e+01	-6.553223e+00
2.441709e+01	-6.592339e+00
2.455812e+01	-6.631385e+00
2.469997e+01	-6.670592e+00
2.484263e+01	-6.709400e+00
2.498612e+01	-6.749465e+00
2.513044e+01	-6.788957e+00
2.527559e+01	-6.828283e+00
2.542158e+01	-6.867909e+00
2.556842e+01	-6.907556e+00
2.571610e+01	-6.947521e+00
2.586463e+01	-6.987702e+00
2.601403e+01	-7.027706e+00
2.616428e+01	-7.068143e+00
2.631541e+01	-7.108185e+00
2.646740e+01	-7.148533e+00
2.662028e+01	-7.189051e+00
2.677404e+01	-7.229343e+00
2.692868e+01	-7.269658e+00
2.708422e+01	-7.310737e+00
2.724066e+01	-7.350985e+00
2.739800e+01	-7.392203e+00
2.755625e+01	-7.433334e+00
2.771541e+01	-7.474220e+00
2.787550e+01	-7.515773e+00
2.803650e+01	-7.556585e+00
2.819844e+01	-7.598247e+00
2.836131e+01	-7.639234e+00
2.852513e+01	-7.680696e+00
2.868989e+01	-7.722257e+00
2.885560e+01	-7.764026e+00
2.902227e+01	-7.805326e+00
2.918990e+01	-7.847624e+00
2.935850e+01	-7.889217e+00
2.952807e+01	-7.931032e+00
2.969863e+01	-7.972999e+00
2.987016e+01	-8.015291e+00
3.004269e+01	-8.057647e+00
3.021622e+01	-8.099833e+00
3.039075e+01	-8.141955e+00
3.056628e+01	-8.184271e+00
3.074283e+01	-8.226876e+00
3.092040e+01	-8.269400e+00
3.109900e+01	-8.312265e+00
3.127862e+01	-8.354599e+00
3.145929e+01	-8.397544e+00
3.164099e+01	-8.440391e+00
3.182375e+01	-8.483261e+00
3.200756e+01	-8.525975e+00
3.219244e+01	-8.569291e+00
3.237838e+01	-8.611806e+00
3.256540e+01	-8.655843e+00
3.275349e+01	-8.698859e+00
3.294268e+01	-8.742128e+00
3.313295e+01	-8.785616e+00
3.332433e+01	-8.828663e+00
3.351681e+01	-8.872537e+00
3.371040e+01	-8.916028e+00
3.390511e+01	-8.959760e+00
3.410094e+01	-9.003406e+00
3.429791e+01	-9.047065e+00
3.449601e+01	-9.090899e+00
3.469526e+01	-9.134077e+00
3.489566e+01	-9.178743e+00
3.509721e+01	-9.222682e+00
3.529993e+01	-9.266489e+00
3.550382e+01	-9.311032e+00
3.570889e+01	-9.355457e+00
3.591515e+01	-9.399075e+00
3.612259e+01	-9.443440e+00
3.633123e+01	-9.487971e+00
3.654108e+01	-9.532393e+00
3.675214e+01	-9.576645e+00
3.696442e+01	-9.621412e+00
3.717792e+01	-9.666517e+00
3.739266e+01	-9.711132e+00
3.760864e+01	-9.755335e+00
3.782587e+01	-9.800236e+00
3.804435e+01	-9.844888e+00
3.826409e+01	-9.889823e+00
3.848510e+01	-9.934995e+00
3.870739e+01	-9.979894e+00
3.893096e+01	-1.002475e+01
3.915583e+01	-1.006965e+01
3.938199e+01	-1.011544e+01
3.960946e+01	-1.015981e+01
3.983824e+01	-1.020534e+01
4.006834e+01	-1.025076e+01
4.029978e+01	-1.029597e+01
4.053255e+01	-1.034145e+01
4.076666e+01	-1.038701e+01
4.100213e+01	-1.043241e+01
4.123896e+01	-1.047778e+01
4.147715e+01	-1.052375e+01
4.171672e+01	-1.056893e+01
4.195767e+01	-1.061501e+01
4.220002e+01	-1.066024e+01
4.244377e+01	-1.070608e+01
4.268892e+01	-1.075229e+01
4.293549e+01	-1.079799e+01
4.318348e+01	-1.084380e+01
4.343291e+01	-1.088956e+01
4.368377e+01	-1.093566e+01
4.393609e+01	-1.098113e+01
4.418986e+01	-1.102815e+01
4.444510e+01	-1.107369e+01
4.470182e+01	-1.111991e+01
4.496001e+01	-1.116647e+01
4.521970e+01	-1.121176e+01
4.548089e+01	-1.125868e+01
4.574358e+01	-1.130462e+01
4.600779e+01	-1.135153e+01
4.627353e+01	-1.139814e+01
4.654081e+01	-1.144418e+01
4.680963e+01	-1.149096e+01
4.708000e+01	-1.153659e+01
4.735193e+01	-1.158333e+01
4.762543e+01	-1.163010e+01
4.790051e+01	-1.167659e+01
4.817719e+01	-1.172297e+01
4.845545e+01	-1.177022e+01
4.873533e+01	-1.181698e+01
4.901682e+01	-1.186325e+01
4.929994e+01	-1.191031e+01
4.958470e+01	-1.195681e+01
4.987110e+01	-1.200427e+01
5.015915e+01	-1.205098e+01
5.044887e+01	-1.209857e+01
5.074026e+01	-1.214421e+01
5.103333e+01	-1.219123e+01
5.132810e+01	-1.223920e+01
5.162457e+01	-1.228542e+01
5.192275e+01	-1.233217e+01
5.222265e+01	-1.237951e+01
5.252429e+01	-1.242753e+01
5.282767e+01	-1.247415e+01
5.313280e+01	-1.252168e+01
5.343969e+01	-1.256854e+01
5.374836e+01	-1.261596e+01
5.405880e+01	-1.266359e+01
5.437105e+01	-1.270997e+01
5.468509e+01	-1.275848e+01
5.500095e+01	-1.280497e+01
5.531863e+01	-1.285269e+01
5.563815e+01	-1.290079e+01
5.595951e+01	-1.294784e+01
5.628273e+01	-1.299486e+01
5.660782e+01	-1.304353e+01
5.693479e+01	-1.309040e+01
5.726364e+01	-1.313811e+01
5.759439e+01	-1.318635e+01
5.792705e+01	-1.323266e+01
5.826164e+01	-1.328065e+01
5.859815e+01	-1.332821e+01
5.893662e+01	-1.337614e+01
5.927703e+01	-1.342390e+01
5.961941e+01	-1.347091e+01
5.996377e+01	-1.351981e+01
6.031012e+01	-1.356721e+01
6.065847e+01	-1.361559e+01
6.100883e+01	-1.366305e+01
6.136121e+01	-1.371086e+01
6.171563e+01	-1.375961e+01
6.207210e+01	-1.380722e+01
6.243063e+01	-1.385479e+01
6.279122e+01	-1.390246e+01
6.315390e+01	-1.395064e+01
6.351868e+01	-1.399904e+01
6.388556e+01	-1.404741e+01
6.425456e+01	-1.409460e+01
6.462569e+01	-1.414273e+01
6.499897e+01	-1.419043e+01
6.537440e+01	-1.423804e+01
6.575200e+01	-1.428735e+01
6.613178e+01	-1.433629e+01
6.651375e+01	-1.438334e+01
6.689793e+01	-1.443200e+01
6.728433e+01	-1.448010e+01
6.767297e+01	-1.452840e+01
6.806384e+01	-1.457727e+01
6.845698e+01	-1.462429e+01
6.885238e+01	-1.467336e+01
6.925007e+01	-1.472154e+01
6.965005e+01	-1.477035e+01
7.005235e+01	-1.481834e+01
7.045697e+01	-1.486710e+01
7.086393e+01	-1.491539e+01
7.127323e+01	-1.496368e+01
7.168490e+01	-1.501306e+01
7.209895e+01	-1.505992e+01
7.251539e+01	-1.510970e+01
7.293424e+01	-1.515820e+01
7.335551e+01	-1.520578e+01
7.377920e+01	-1.525436e+01
7.420535e+01	-1.530325e+01
7.463396e+01	-1.535131e+01
7.506504e+01	-1.540088e+01
7.549861e+01	-1.544917e+01
7.593469e+01	-1.549688e+01
7.637328e+01	-1.554599e+01
7.681441e+01	-1.559424e+01
7.725809e+01	-1.564323e+01
7.770433e+01	-1.569159e+01
7.815315e+01	-1.574030e+01
7.860456e+01	-1.578959e+01
7.905857e+01	-1.583946e+01
7.951521e+01	-1.588689e+01
7.997449e+01	-1.593556e+01
8.043642e+01	-1.598480e+01
8.090102e+01	-1.603285e+01
8.136830e+01	-1.608161e+01
8.183828e+01	-1.613098e+01
8.231097e+01	-1.618015e+01
8.278640e+01	-1.622825e+01
8.326457e+01	-1.627731e+01
8.374550e+01	-1.632532e+01
8.422921e+01	-1.637557e+01
8.471572e+01	-1.642378e+01
8.520503e+01	-1.647327e+01
8.569717e+01	-1.652132e+01
8.619215e+01	-1.657125e+01
8.669000e+01	-1.661994e+01
8.719071e+01	-1.666895e+01
8.769432e+01	-1.671649e+01
8.820084e+01	-1.676670e+01
8.871029e+01	-1.681520e+01
8.922267e+01	-1.686423e+01
8.973802e+01	-1.691199e+01
9.025634e+01	-1.696181e+01
9.077766e+01	-1.701104e+01
9.130199e+01	-1.706101e+01
9.182935e+01	-1.710991e+01
9.235975e+01	-1.715910e+01
9.289321e+01	-1.720804e+01
9.342976e+01	-1.725653e+01
9.396941e+01	-1.730508e+01
9.451217e+01	-1.735521e+01
9.505807e+01	-1.740386e+01
9.560712e+01	-1.745311e+01
9.615934e+01	-1.750293e+01
9.671476e+01	-1.755285e+01
9.727338e+01	-1.760054e+01
9.783522e+01	-1.765000e+01
9.840032e+01	-1.769959e+01
9.896867e+01	-1.774799e+01
9.954031e+01	-1.779776e+01
1.001153e+02	-1.784727e+01
1.006935e+02	-1.789567e+01
1.012751e+02	-1.794650e+01
1.018601e+02	-1.799459e+01
1.024484e+02	-1.804380e+01
1.030402e+02	-1.809329e+01
1.036353e+02	-1.814255e+01
1.042339e+02	-1.818980e+01
1.048360e+02	-1.824121e+01
1.054415e+02	-1.829034e+01
1.060505e+02	-1.833821e+01
1.066631e+02	-1.838815e+01
1.072791e+02	-1.843801e+01
1.078988e+02	-1.848663e+01
1.085220e+02	-1.853569e+01
1.091488e+02	-1.858554e+01
1.097793e+02	-1.863503e+01
1.104133e+02	-1.868533e+01
1.110511e+02	-1.873278e+01
1.116925e+02	-1.878456e+01
1.123376e+02	-1.883319e+01
1.129865e+02	-1.888231e+01
1.136391e+02	-1.893092e+01
1.142955e+02	-1.898163e+01
1.149556e+02	-1.902951e+01
1.156196e+02	-1.907885e+01
1.162874e+02	-1.912910e+01
1.169591e+02	-1.917976e+01
1.176347e+02	-1.922791e+01
1.183141e+02	-1.927555e+01
1.189975e+02	-1.932803e+01
1.196848e+02	-1.937776e+01
1.203761e+02	-1.942530e+01
1.210714e+02	-1.947489e+01
1.217707e+02	-1.952465e+01
1.224740e+02	-1.957450e+01
1.231814e+02	-1.962219e+01
1.238929e+02	-1.967268e+01
1.246085e+02	-1.972206e+01
1.253283e+02	-1.977405e+01
1.260522e+02	-1.982312e+01
1.267802e+02	-1.987125e+01
1.275125e+02	-1.992139e+01
1.282490e+02	-1.997011e+01
1.289898e+02	-2.001904e+01
1.297348e+02	-2.006895e+01
1.304842e+02	-2.011908e+01
1.312378e+02	-2.016836e+01
1.319959e+02	-2.021812e+01
1.327583e+02	-2.026661e+01
1.335251e+02	-2.031765e+01
1.342963e+02	-2.036654e+01
1.350720e+02	-2.041662e+01
1.358522e+02	-2.046538e+01
1.366368e+02	-2.051542e+01
1.374260e+02	-2.056471e+01
1.382198e+02	-2.061610e+01
1.390182e+02	-2.066437e+01
1.398211e+02	-2.071290e+01
1.406287e+02	-2.076313e+01
1.414410e+02	-2.081275e+01
1.422579e+02	-2.086296e+01
1.430796e+02	-2.091178e+01
1.439060e+02	-2.096206e+01
1.447372e+02	-2.101268e+01
1.455732e+02	-2.106038e+01
1.464141e+02	-2.111087e+01
1.472597e+02	-2.115926e+01
1.481103e+02	-2.121009e+01
1.489658e+02	-2.126020e+01
1.498262e+02	-2.130774e+01
1.506916e+02	-2.135773e+01
1.515620e+02	-2.140739e+01
1.524374e+02	-2.145831e+01
1.533179e+02	-2.150862e+01
1.542034e+02	-2.155954e+01
1.550941e+02	-2.160718e+01
1.559899e+02	-2.165667e+01
1.568909e+02	-2.170811e+01
1.577971e+02	-2.175583e+01
1.587085e+02	-2.180549e+01
1.596252e+02	-2.185655e+01
1.605472e+02	-2.190569e+01
1.614745e+02	-2.195516e+01
1.624072e+02	-2.200480e+01
1.633453e+02	-2.205547e+01
1.642887e+02	-2.210500e+01
1.652377e+02	-2.215442e+01
1.661921e+02	-2.220616e+01
1.671520e+02	-2.225498e+01
1.681175e+02	-2.230464e+01
1.690885e+02	-2.235234e+01
1.700651e+02	-2.240423e+01
1.710474e+02	-2.245335e+01
1.720354e+02	-2.250329e+01
1.730291e+02	-2.254988e+01
1.740285e+02	-2.260105e+01
1.750337e+02	-2.265200e+01
1.760446e+02	-2.270093e+01
1.770615e+02	-2.275178e+01
1.780842e+02	-2.280258e+01
1.791128e+02	-2.285145e+01
1.801473e+02	-2.289897e+01
1.811878e+02	-2.295007e+01
1.822344e+02	-2.300053e+01
1.832870e+02	-2.305067e+01
1.843456e+02	-2.310189e+01
1.854104e+02	-2.314992e+01
1.864813e+02	-2.319935e+01
1.875584e+02	-2.324931e+01
1.886418e+02	-2.329907e+01
1.897313e+02	-2.334819e+01
1.908272e+02	-2.339760e+01
1.919294e+02	-2.344790e+01
1.930380e+02	-2.349898e+01
1.941530e+02	-2.354734e+01
1.952744e+02	-2.359699e+01
1.964023e+02	-2.364782e+01
1.975367e+02	-2.369683e+01
1.986777e+02	-2.375035e+01
1.998252e+02	-2.379843e+01
2.009794e+02	-2.385055e+01
2.021403e+02	-2.389448e+01
2.033078e+02	-2.394708e+01
2.044821e+02	-2.399553e+01
2.056632e+02	-2.404533e+01
2.068511e+02	-2.409578e+01
2.080459e+02	-2.414661e+01
2.092475e+02	-2.419749e+01
2.104561e+02	-2.424729e+01
2.116717e+02	-2.429856e+01
2.128943e+02	-2.434501e+01
2.141240e+02	-2.439772e+01
2.153608e+02	-2.444432e+01
2.166047e+02	-2.449596e+01
2.178558e+02	-2.454666e+01
2.191141e+02	-2.459879e+01
2.203797e+02	-2.464481e+01
2.216526e+02	-2.469698e+01
2.229329e+02	-2.474680e+01
2.242205e+02	-2.479369e+01
2.255156e+02	-2.484495e+01
2.268182e+02	-2.489525e+01
2.281283e+02	-2.494592e+01
2.294459e+02	-2.499724e+01
2.307712e+02	-2.504432e+01
2.321041e+02	-2.509418e+01
2.334447e+02	-2.514587e+01
2.347931e+02	-2.519649e+01
2.361493e+02	-2.524291e+01
2.375133e+02	-2.529466e+01
2.388851e+02	-2.534422e+01
2.402649e+02	-2.539513e+01
2.416527e+02	-2.544484e+01
2.430484e+02	-2.549171e+01
2.444523e+02	-2.554456e+01
2.458642e+02	-2.559574e+01
2.472843e+02	-2.564926e+01
2.487126e+02	-2.569328e+01
2.501492e+02	-2.574358e+01
2.515940e+02	-2.579303e+01
2.530472e+02	-2.584535e+01
2.545088e+02	-2.589491e+01
2.559789e+02	-2.594515e+01
2.574574e+02	-2.599431e+01
2.589444e+02	-2.604176e+01
2.604401e+02	-2.609426e+01
2.619444e+02	-2.614304e+01
2.634574e+02	-2.619353e+01
2.649791e+02	-2.624563e+01
2.665096e+02	-2.629308e+01
2.680489e+02	-2.634235e+01
2.695972e+02	-2.639141e+01
2.711544e+02	-2.644182e+01
2.727205e+02	-2.649161e+01
2.742958e+02	-2.654311e+01
2.758801e+02	-2.659385e+01
2.774736e+02	-2.664246e+01
2.790762e+02	-2.669584e+01
2.806882e+02	-2.674268e+01
2.823094e+02	-2.679267e+01
2.839400e+02	-2.684423e+01
2.855800e+02	-2.688970e+01
2.872295e+02	-2.694036e+01
2.888886e+02	-2.699136e+01
2.905572e+02	-2.704516e+01
2.922354e+02	-2.709466e+01
2.939234e+02	-2.714433e+01
2.956211e+02	-2.719475e+01
2.973286e+02	-2.724372e+01
2.990459e+02	-2.729408e+01
3.007732e+02	-2.734393e+01
3.025104e+02	-2.739531e+01
3.042577e+02	-2.744277e+01
3.060151e+02	-2.749278e+01
3.077826e+02	-2.754537e+01
3.095604e+02	-2.759764e+01
3.113484e+02	-2.763877e+01
3.131467e+02	-2.769590e+01
3.149554e+02	-2.773981e+01
3.167746e+02	-2.779314e+01
3.186043e+02	-2.783993e+01
3.204445e+02	-2.789222e+01
3.222954e+02	-2.794123e+01
3.241570e+02	-2.799123e+01
3.260293e+02	-2.804162e+01
3.279124e+02	-2.809118e+01
3.298064e+02	-2.814502e+01
3.317114e+02	-2.819597e+01
3.336273e+02	-2.824117e+01
3.355544e+02	-2.829492e+01
3.374925e+02	-2.834513e+01
3.394418e+02	-2.839664e+01
3.414024e+02	-2.844536e+01
3.433744e+02	-2.849692e+01
3.453577e+02	-2.854141e+01
3.473525e+02	-2.859291e+01
3.493588e+02	-2.864417e+01
3.513766e+02	-2.868965e+01
3.534062e+02	-2.874641e+01
3.554474e+02	-2.879667e+01
3.575005e+02	-2.884506e+01
3.595654e+02	-2.889592e+01
3.616422e+02	-2.894286e+01
3.637311e+02	-2.899613e+01
3.658320e+02	-2.904610e+01
3.679450e+02	-2.909267e+01
3.700702e+02	-2.914853e+01
3.722077e+02	-2.919287e+01
3.743576e+02	-2.924474e+01
3.765199e+02	-2.929504e+01
3.786946e+02	-2.934354e+01
3.808820e+02	-2.939876e+01
3.830819e+02	-2.944306e+01
3.852946e+02	-2.950003e+01
3.875200e+02	-2.954412e+01
3.897583e+02	-2.959183e+01
3.920096e+02	-2.964343e+01
3.942738e+02	-2.970039e+01
3.965511e+02	-2.974538e+01
3.988416e+02	-2.979742e+01
4.011452e+02	-2.984178e+01
4.034622e+02	-2.989799e+01
4.057926e+02	-2.994568e+01
4.081365e+02	-2.999845e+01
4.104938e+02	-3.004463e+01
4.128648e+02	-3.009611e+01
4.152495e+02	-3.014373e+01
4.176480e+02	-3.019858e+01
4.200603e+02	-3.024760e+01
4.224866e+02	-3.029799e+01
4.249268e+02	-3.034827e+01
4.273812e+02	-3.039205e+01
4.298497e+02	-3.044692e+01
4.323325e+02	-3.050086e+01
4.348297e+02	-3.054474e+01
4.373412e+02	-3.059796e+01
4.398673e+02	-3.064314e+01
4.424079e+02	-3.070207e+01
4.449633e+02	-3.074934e+01
4.475334e+02	-3.079861e+01
4.501183e+02	-3.084800e+01
4.527182e+02	-3.089661e+01
4.553330e+02	-3.095327e+01
4.579630e+02	-3.100276e+01
4.606082e+02	-3.105199e+01
4.632687e+02	-3.109782e+01
4.659445e+02	-3.114666e+01
4.686358e+02	-3.120504e+01
4.713426e+02	-3.125209e+01
4.740650e+02	-3.130052e+01
4.768032e+02	-3.135221e+01
4.795572e+02	-3.139540e+01
4.823271e+02	-3.144923e+01
4.851130e+02	-3.150103e+01
4.879150e+02	-3.155101e+01
4.907332e+02	-3.159910e+01
4.935676e+02	-3.164899e+01
4.964185e+02	-3.169965e+01
4.992858e+02	-3.174535e+01
5.021696e+02	-3.179839e+01
5.050701e+02	-3.185698e+01
5.079874e+02	-3.190017e+01
5.109215e+02	-3.195485e+01
5.138726e+02	-3.200829e+01
5.168407e+02	-3.204986e+01
5.198259e+02	-3.210262e+01
5.228284e+02	-3.215133e+01
5.258482e+02	-3.220374e+01
5.288855e+02	-3.225218e+01
5.319403e+02	-3.229900e+01
5.350128e+02	-3.235455e+01
5.381030e+02	-3.240434e+01
5.412111e+02	-3.246231e+01
5.443371e+02	-3.250497e+01
5.474812e+02	-3.254955e+01
5.506434e+02	-3.260185e+01
5.538239e+02	-3.265674e+01
5.570228e+02	-3.270297e+01
5.602401e+02	-3.274623e+01
5.634760e+02	-3.280164e+01
5.667306e+02	-3.285398e+01
5.700040e+02	-3.290459e+01
5.732964e+02	-3.295408e+01
5.766077e+02	-3.300928e+01
5.799382e+02	-3.305905e+01
5.832879e+02	-3.310464e+01
5.866569e+02	-3.315895e+01
5.900454e+02	-3.320892e+01
5.934535e+02	-3.325880e+01
5.968813e+02	-3.330420e+01
6.003288e+02	-3.335797e+01
6.037963e+02	-3.341636e+01
6.072838e+02	-3.345710e+01
6.107914e+02	-3.351242e+01
6.143194e+02	-3.355353e+01
6.178676e+02	-3.360903e+01
6.214364e+02	-3.366427e+01
6.250258e+02	-3.370831e+01
6.286359e+02	-3.375624e+01
6.322669e+02	-3.381091e+01
6.359189e+02	-3.386568e+01
6.395919e+02	-3.391522e+01
6.432862e+02	-3.396640e+01
6.470017e+02	-3.401270e+01
6.507388e+02	-3.406150e+01
6.544974e+02	-3.410873e+01
6.582778e+02	-3.416361e+01
6.620800e+02	-3.421545e+01
6.659041e+02	-3.425709e+01
6.697504e+02	-3.431556e+01
6.736188e+02	-3.436818e+01
6.775096e+02	-3.441729e+01
6.814229e+02	-3.446271e+01
6.853587e+02	-3.451484e+01
6.893173e+02	-3.455567e+01
6.932988e+02	-3.462100e+01
6.973033e+02	-3.466379e+01
7.013309e+02	-3.471817e+01
