Frequency(Hz)	Magnitude(dB)
1.000000e+01	-2.144528e+00
1.005776e+01	-2.164190e+00
1.011585e+01	-2.184121e+00
1.017428e+01	-2.203695e+00
1.023305e+01	-2.223815e+00
1.029215e+01	-2.243811e+00
1.035160e+01	-2.264430e+00
1.041139e+01	-2.284477e+00
1.047153e+01	-2.304986e+00
1.053201e+01	-2.325686e+00
1.059284e+01	-2.346793e+00
1.065403e+01	-2.367548e+00
1.071556e+01	-2.388701e+00
1.077746e+01	-2.410008e+00
1.083971e+01	-2.431369e+00
1.090232e+01	-2.452691e+00
1.096529e+01	-2.474358e+00
1.102862e+01	-2.496328e+00
1.109232e+01	-2.518351e+00
1.115639e+01	-2.540242e+00
1.122083e+01	-2.562317e+00
1.128564e+01	-2.584966e+00
1.135083e+01	-2.607335e+00
1.141639e+01	-2.629656e+00
1.148233e+01	-2.652919e+00
1.154865e+01	-2.675681e+00
1.161536e+01	-2.698953e+00
1.168245e+01	-2.721940e+00
1.174992e+01	-2.745467e+00
1.181779e+01	-2.768920e+00
1.188605e+01	-2.792592e+00
1.195470e+01	-2.816394e+00
1.202375e+01	-2.840295e+00
1.209320e+01	-2.864490e+00
1.216305e+01	-2.888572e+00
1.223330e+01	-2.913006e+00
1.230396e+01	-2.937640e+00
1.237503e+01	-2.962231e+00
1.244651e+01	-2.987102e+00
1.251840e+01	-3.012061e+00
1.259070e+01	-3.037240e+00
1.266343e+01	-3.062301e+00
1.273657e+01	-3.087565e+00
1.281014e+01	-3.113020e+00
1.288413e+01	-3.138843e+00
1.295855e+01	-3.164411e+00
1.303339e+01	-3.190593e+00
1.310867e+01	-3.216683e+00
1.318439e+01	-3.243009e+00
1.326054e+01	-3.269490e+00
1.333713e+01	-3.295883e+00
1.341417e+01	-3.322683e+00
1.349165e+01	-3.349434e+00
1.356958e+01	-3.376237e+00
1.364795e+01	-3.403446e+00
1.372678e+01	-3.430388e+00
1.380607e+01	-3.458286e+00
1.388581e+01	-3.485513e+00
1.396602e+01	-3.513296e+00
1.404668e+01	-3.541233e+00
1.412782e+01	-3.569155e+00
1.420942e+01	-3.597283e+00
1.429149e+01	-3.625417e+00
1.437404e+01	-3.653917e+00
1.445706e+01	-3.682439e+00
1.454057e+01	-3.710948e+00
1.462455e+01	-3.739867e+00
1.470902e+01	-3.768731e+00
1.479398e+01	-3.797780e+00
1.487943e+01	-3.827089e+00
1.496537e+01	-3.856427e+00
1.505181e+01	-3.886035e+00
1.513875e+01	-3.915413e+00
1.522619e+01	-3.945242e+00
1.531414e+01	-3.975548e+00
1.540259e+01	-4.005498e+00
1.549156e+01	-4.035412e+00
1.558103e+01	-4.065939e+00
1.567103e+01	-4.096633e+00
1.576155e+01	-4.127158e+00
1.585258e+01	-4.158108e+00
1.594415e+01	-4.188689e+00
1.603624e+01	-4.219879e+00
1.612886e+01	-4.250965e+00
1.622202e+01	-4.282317e+00
1.631572e+01	-4.313714e+00
1.640996e+01	-4.345644e+00
1.650474e+01	-4.376821e+00
1.660008e+01	-4.408529e+00
1.669596e+01	-4.440780e+00
1.679239e+01	-4.472718e+00
1.688938e+01	-4.505251e+00
1.698694e+01	-4.537394e+00
1.708505e+01	-4.569572e+00
1.718373e+01	-4.602454e+00
1.728299e+01	-4.635003e+00
1.738281e+01	-4.668089e+00
1.748322e+01	-4.701108e+00
1.758420e+01	-4.734222e+00
1.768576e+01	-4.767745e+00
1.778792e+01	-4.800903e+00
1.789066e+01	-4.834510e+00
1.799399e+01	-4.868144e+00
1.809793e+01	-4.901903e+00
1.820246e+01	-4.935533e+00
1.830760e+01	-4.969838e+00
1.841334e+01	-5.003999e+00
1.851969e+01	-5.038218e+00
1.862666e+01	-5.072681e+00
1.873425e+01	-5.107275e+00
1.884246e+01	-5.142175e+00
1.895129e+01	-5.176518e+00
1.906075e+01	-5.211479e+00
1.917085e+01	-5.246894e+00
1.928158e+01	-5.281864e+00
1.939295e+01	-5.316933e+00
1.950496e+01	-5.352363e+00
1.961762e+01	-5.387833e+00
1.973093e+01	-5.423486e+00
1.984490e+01	-5.459294e+00
1.995952e+01	-5.494963e+00
2.007480e+01	-5.531012e+00
2.019076e+01	-5.567161e+00
2.030738e+01	-5.603443e+00
2.042467e+01	-5.639375e+00
2.054264e+01	-5.676018e+00
2.066130e+01	-5.712503e+00
2.078064e+01	-5.749171e+00
2.090066e+01	-5.786116e+00
2.102139e+01	-5.822773e+00
2.114280e+01	-5.859878e+00
2.126492e+01	-5.896930e+00
2.138775e+01	-5.933858e+00
2.151128e+01	-5.971489e+00
2.163553e+01	-6.008948e+00
2.176050e+01	-6.046693e+00
2.188619e+01	-6.084423e+00
2.201260e+01	-6.121759e+00
2.213974e+01	-6.159742e+00
2.226762e+01	-6.197411e+00
2.239624e+01	-6.236002e+00
2.252560e+01	-6.274243e+00
2.265571e+01	-6.312295e+00
2.278656e+01	-6.350665e+00
2.291818e+01	-6.389324e+00
2.305055e+01	-6.427846e+00
2.318369e+01	-6.466572e+00
2.331760e+01	-6.505074e+00
2.345228e+01	-6.544137e+00
2.358774e+01	-6.582697e+00
2.372398e+01	-6.621944e+00
2.386101e+01	-6.661759e+00
2.399883e+01	-6.700730e+00
2.413745e+01	-6.740098e+00
2.427686e+01	-6.779290e+00
2.441709e+01	-6.819030e+00
2.455812e+01	-6.858811e+00
2.469997e+01	-6.898685e+00
2.484263e+01	-6.938409e+00
2.498612e+01	-6.978660e+00
2.513044e+01	-7.018162e+00
2.527559e+01	-7.058447e+00
2.542158e+01	-7.098879e+00
2.556842e+01	-7.138995e+00
2.571610e+01	-7.179214e+00
2.586463e+01	-7.219784e+00
2.601403e+01	-7.260226e+00
2.616428e+01	-7.301250e+00
2.631541e+01	-7.341600e+00
2.646740e+01	-7.382674e+00
2.662028e+01	-7.423517e+00
2.677404e+01	-7.464669e+00
2.692868e+01	-7.505794e+00
2.708422e+01	-7.546469e+00
2.724066e+01	-7.588373e+00
2.739800e+01	-7.629693e+00
2.755625e+01	-7.670840e+00
2.771541e+01	-7.712486e+00
2.787550e+01	-7.754161e+00
2.803650e+01	-7.796128e+00
2.819844e+01	-7.837653e+00
2.836131e+01	-7.879199e+00
2.852513e+01	-7.921030e+00
2.868989e+01	-7.963223e+00
2.885560e+01	-8.005473e+00
2.902227e+01	-8.047488e+00
2.918990e+01	-8.089849e+00
2.935850e+01	-8.131908e+00
2.952807e+01	-8.174345e+00
2.969863e+01	-8.216861e+00
2.987016e+01	-8.259255e+00
3.004269e+01	-8.302161e+00
3.021622e+01	-8.344618e+00
3.039075e+01	-8.387024e+00
3.056628e+01	-8.430219e+00
3.074283e+01	-8.473054e+00
3.092040e+01	-8.516303e+00
3.109900e+01	-8.558895e+00
3.127862e+01	-8.602030e+00
3.145929e+01	-8.645245e+00
3.164099e+01	-8.688569e+00
3.182375e+01	-8.732290e+00
3.200756e+01	-8.775333e+00
3.219244e+01	-8.818577e+00
3.237838e+01	-8.861669e+00
3.256540e+01	-8.906375e+00
3.275349e+01	-8.949294e+00
3.294268e+01	-8.992911e+00
3.313295e+01	-9.036945e+00
3.332433e+01	-9.080424e+00
3.351681e+01	-9.124479e+00
3.371040e+01	-9.168209e+00
3.390511e+01	-9.212068e+00
3.410094e+01	-9.255920e+00
3.429791e+01	-9.300569e+00
3.449601e+01	-9.344161e+00
3.469526e+01	-9.389081e+00
3.489566e+01	-9.433139e+00
3.509721e+01	-9.477332e+00
3.529993e+01	-9.522091e+00
3.550382e+01	-9.566557e+00
3.570889e+01	-9.611040e+00
3.591515e+01	-9.655653e+00
3.612259e+01	-9.700466e+00
3.633123e+01	-9.744924e+00
3.654108e+01	-9.789850e+00
3.675214e+01	-9.834291e+00
3.696442e+01	-9.879134e+00
3.717792e+01	-9.924176e+00
3.739266e+01	-9.969644e+00
3.760864e+01	-1.001361e+01
3.782587e+01	-1.005947e+01
3.804435e+01	-1.010486e+01
3.826409e+01	-1.014938e+01
3.848510e+01	-1.019467e+01
3.870739e+01	-1.023995e+01
3.893096e+01	-1.028496e+01
3.915583e+01	-1.033057e+01
3.938199e+01	-1.037602e+01
3.960946e+01	-1.042141e+01
3.983824e+01	-1.046681e+01
4.006834e+01	-1.051274e+01
4.029978e+01	-1.055840e+01
4.053255e+01	-1.060334e+01
4.076666e+01	-1.064967e+01
4.100213e+01	-1.069516e+01
4.123896e+01	-1.074100e+01
4.147715e+01	-1.078685e+01
4.171672e+01	-1.083262e+01
4.195767e+01	-1.087879e+01
4.220002e+01	-1.092474e+01
4.244377e+01	-1.097065e+01
4.268892e+01	-1.101686e+01
4.293549e+01	-1.106284e+01
4.318348e+01	-1.110912e+01
4.343291e+01	-1.115459e+01
4.368377e+01	-1.120139e+01
4.393609e+01	-1.124745e+01
4.418986e+01	-1.129355e+01
4.444510e+01	-1.134061e+01
4.470182e+01	-1.138644e+01
4.496001e+01	-1.143371e+01
4.521970e+01	-1.148005e+01
4.548089e+01	-1.152534e+01
4.574358e+01	-1.157242e+01
4.600779e+01	-1.161853e+01
4.627353e+01	-1.166558e+01
4.654081e+01	-1.171174e+01
4.680963e+01	-1.175900e+01
4.708000e+01	-1.180558e+01
4.735193e+01	-1.185187e+01
4.762543e+01	-1.189966e+01
4.790051e+01	-1.194556e+01
4.817719e+01	-1.199325e+01
4.845545e+01	-1.203985e+01
4.873533e+01	-1.208650e+01
4.901682e+01	-1.213342e+01
4.929994e+01	-1.218143e+01
4.958470e+01	-1.222762e+01
4.987110e+01	-1.227419e+01
5.015915e+01	-1.232156e+01
5.044887e+01	-1.236868e+01
5.074026e+01	-1.241619e+01
5.103333e+01	-1.246266e+01
5.132810e+01	-1.251070e+01
5.162457e+01	-1.255861e+01
5.192275e+01	-1.260451e+01
5.222265e+01	-1.265121e+01
5.252429e+01	-1.269912e+01
5.282767e+01	-1.274681e+01
5.313280e+01	-1.279489e+01
5.343969e+01	-1.284145e+01
5.374836e+01	-1.288980e+01
5.405880e+01	-1.293661e+01
5.437105e+01	-1.298387e+01
5.468509e+01	-1.303147e+01
5.500095e+01	-1.307961e+01
5.531863e+01	-1.312645e+01
5.563815e+01	-1.317434e+01
5.595951e+01	-1.322217e+01
5.628273e+01	-1.327016e+01
5.660782e+01	-1.331740e+01
5.693479e+01	-1.336477e+01
5.726364e+01	-1.341185e+01
5.759439e+01	-1.346074e+01
5.792705e+01	-1.350789e+01
5.826164e+01	-1.355551e+01
5.859815e+01	-1.360405e+01
5.893662e+01	-1.365192e+01
5.927703e+01	-1.369901e+01
5.961941e+01	-1.374766e+01
5.996377e+01	-1.379548e+01
6.031012e+01	-1.384339e+01
6.065847e+01	-1.389081e+01
6.100883e+01	-1.393932e+01
6.136121e+01	-1.398757e+01
6.171563e+01	-1.403544e+01
6.207210e+01	-1.408376e+01
6.243063e+01	-1.413202e+01
6.279122e+01	-1.417972e+01
6.315390e+01	-1.422818e+01
6.351868e+01	-1.427630e+01
6.388556e+01	-1.432450e+01
6.425456e+01	-1.437207e+01
6.462569e+01	-1.442033e+01
6.499897e+01	-1.446875e+01
6.537440e+01	-1.451729e+01
6.575200e+01	-1.456512e+01
6.613178e+01	-1.461334e+01
6.651375e+01	-1.466265e+01
6.689793e+01	-1.471121e+01
6.728433e+01	-1.475769e+01
6.767297e+01	-1.480694e+01
6.806384e+01	-1.485545e+01
6.845698e+01	-1.490328e+01
6.885238e+01	-1.495197e+01
6.925007e+01	-1.500066e+01
6.965005e+01	-1.504923e+01
7.005235e+01	-1.509717e+01
7.045697e+01	-1.514513e+01
7.086393e+01	-1.519412e+01
7.127323e+01	-1.524385e+01
7.168490e+01	-1.529141e+01
7.209895e+01	-1.533992e+01
7.251539e+01	-1.538896e+01
7.293424e+01	-1.543691e+01
7.335551e+01	-1.548648e+01
7.377920e+01	-1.553540e+01
7.420535e+01	-1.558504e+01
7.463396e+01	-1.563152e+01
7.506504e+01	-1.568062e+01
7.549861e+01	-1.573006e+01
7.593469e+01	-1.577781e+01
7.637328e+01	-1.582666e+01
7.681441e+01	-1.587579e+01
7.725809e+01	-1.592474e+01
7.770433e+01	-1.597333e+01
7.815315e+01	-1.602062e+01
7.860456e+01	-1.607053e+01
7.905857e+01	-1.611933e+01
7.951521e+01	-1.616820e+01
7.997449e+01	-1.621577e+01
8.043642e+01	-1.626548e+01
8.090102e+01	-1.631454e+01
8.136830e+01	-1.636292e+01
8.183828e+01	-1.641268e+01
8.231097e+01	-1.646231e+01
8.278640e+01	-1.650856e+01
8.326457e+01	-1.655905e+01
8.374550e+01	-1.660922e+01
8.422921e+01	-1.665584e+01
8.471572e+01	-1.670517e+01
8.520503e+01	-1.675503e+01
8.569717e+01	-1.680380e+01
8.619215e+01	-1.685194e+01
8.669000e+01	-1.690187e+01
8.719071e+01	-1.695134e+01
8.769432e+01	-1.699950e+01
8.820084e+01	-1.704887e+01
8.871029e+01	-1.709845e+01
8.922267e+01	-1.714739e+01
8.973802e+01	-1.719726e+01
9.025634e+01	-1.724509e+01
9.077766e+01	-1.729496e+01
9.130199e+01	-1.734421e+01
9.182935e+01	-1.739275e+01
9.235975e+01	-1.744138e+01
9.289321e+01	-1.748894e+01
9.342976e+01	-1.753959e+01
9.396941e+01	-1.758890e+01
9.451217e+01	-1.763648e+01
9.505807e+01	-1.768663e+01
9.560712e+01	-1.773626e+01
9.615934e+01	-1.778556e+01
9.671476e+01	-1.783447e+01
9.727338e+01	-1.788330e+01
9.783522e+01	-1.793433e+01
9.840032e+01	-1.798375e+01
9.896867e+01	-1.803224e+01
9.954031e+01	-1.808085e+01
1.001153e+02	-1.812972e+01
1.006935e+02	-1.818093e+01
1.012751e+02	-1.822926e+01
1.018601e+02	-1.827842e+01
1.024484e+02	-1.832798e+01
1.030402e+02	-1.837770e+01
1.036353e+02	-1.842620e+01
1.042339e+02	-1.847630e+01
1.048360e+02	-1.852368e+01
1.054415e+02	-1.857485e+01
1.060505e+02	-1.862516e+01
1.066631e+02	-1.867291e+01
1.072791e+02	-1.872153e+01
1.078988e+02	-1.877220e+01
1.085220e+02	-1.881990e+01
1.091488e+02	-1.886946e+01
1.097793e+02	-1.891987e+01
1.104133e+02	-1.896974e+01
1.110511e+02	-1.901780e+01
1.116925e+02	-1.906851e+01
1.123376e+02	-1.911728e+01
1.129865e+02	-1.916697e+01
1.136391e+02	-1.921702e+01
1.142955e+02	-1.926559e+01
1.149556e+02	-1.931294e+01
1.156196e+02	-1.936552e+01
1.162874e+02	-1.941346e+01
1.169591e+02	-1.946335e+01
1.176347e+02	-1.951454e+01
1.183141e+02	-1.956420e+01
1.189975e+02	-1.961124e+01
1.196848e+02	-1.966106e+01
1.203761e+02	-1.971152e+01
1.210714e+02	-1.976108e+01
1.217707e+02	-1.981089e+01
1.224740e+02	-1.985993e+01
1.231814e+02	-1.991097e+01
1.238929e+02	-1.995858e+01
1.246085e+02	-2.000736e+01
1.253283e+02	-2.005719e+01
1.260522e+02	-2.010565e+01
1.267802e+02	-2.015539e+01
1.275125e+02	-2.020565e+01
1.282490e+02	-2.025513e+01
1.289898e+02	-2.030470e+01
1.297348e+02	-2.035569e+01
1.304842e+02	-2.040491e+01
1.312378e+02	-2.045477e+01
1.319959e+02	-2.050153e+01
1.327583e+02	-2.055283e+01
1.335251e+02	-2.060250e+01
1.342963e+02	-2.065239e+01
1.350720e+02	-2.070177e+01
1.358522e+02	-2.075222e+01
1.366368e+02	-2.080180e+01
1.374260e+02	-2.085130e+01
1.382198e+02	-2.089991e+01
1.390182e+02	-2.095101e+01
1.398211e+02	-2.100133e+01
1.406287e+02	-2.104925e+01
1.414410e+02	-2.109936e+01
1.422579e+02	-2.114697e+01
1.430796e+02	-2.119745e+01
1.439060e+02	-2.124761e+01
1.447372e+02	-2.129792e+01
1.455732e+02	-2.134800e+01
1.464141e+02	-2.139774e+01
1.472597e+02	-2.144762e+01
1.481103e+02	-2.149596e+01
1.489658e+02	-2.154717e+01
1.498262e+02	-2.159656e+01
1.506916e+02	-2.164632e+01
1.515620e+02	-2.169765e+01
1.524374e+02	-2.174495e+01
1.533179e+02	-2.179395e+01
1.542034e+02	-2.184434e+01
1.550941e+02	-2.189388e+01
1.559899e+02	-2.194353e+01
1.568909e+02	-2.199341e+01
1.577971e+02	-2.204436e+01
1.587085e+02	-2.209015e+01
1.596252e+02	-2.214234e+01
1.605472e+02	-2.219241e+01
1.614745e+02	-2.224449e+01
1.624072e+02	-2.229240e+01
1.633453e+02	-2.234109e+01
1.642887e+02	-2.239179e+01
1.652377e+02	-2.244097e+01
1.661921e+02	-2.249235e+01
1.671520e+02	-2.254127e+01
1.681175e+02	-2.258978e+01
1.690885e+02	-2.264200e+01
1.700651e+02	-2.268992e+01
1.710474e+02	-2.274014e+01
1.720354e+02	-2.278860e+01
1.730291e+02	-2.283951e+01
1.740285e+02	-2.288770e+01
1.750337e+02	-2.293808e+01
1.760446e+02	-2.298989e+01
1.770615e+02	-2.303821e+01
1.780842e+02	-2.308804e+01
1.791128e+02	-2.313872e+01
1.801473e+02	-2.318887e+01
1.811878e+02	-2.323583e+01
1.822344e+02	-2.328718e+01
1.832870e+02	-2.333737e+01
1.843456e+02	-2.338893e+01
1.854104e+02	-2.343648e+01
1.864813e+02	-2.348636e+01
1.875584e+02	-2.353674e+01
1.886418e+02	-2.358739e+01
1.897313e+02	-2.363680e+01
1.908272e+02	-2.368544e+01
1.919294e+02	-2.373705e+01
1.930380e+02	-2.378720e+01
1.941530e+02	-2.383611e+01
1.952744e+02	-2.388549e+01
1.964023e+02	-2.393508e+01
1.975367e+02	-2.398355e+01
1.986777e+02	-2.403673e+01
1.998252e+02	-2.408797e+01
2.009794e+02	-2.413602e+01
2.021403e+02	-2.418504e+01
2.033078e+02	-2.423376e+01
2.044821e+02	-2.428498e+01
2.056632e+02	-2.433346e+01
2.068511e+02	-2.438489e+01
2.080459e+02	-2.443382e+01
2.092475e+02	-2.448253e+01
2.104561e+02	-2.453525e+01
2.116717e+02	-2.458374e+01
2.128943e+02	-2.463426e+01
2.141240e+02	-2.468130e+01
2.153608e+02	-2.473401e+01
2.166047e+02	-2.478231e+01
2.178558e+02	-2.483350e+01
2.191141e+02	-2.488452e+01
2.203797e+02	-2.493526e+01
2.216526e+02	-2.498313e+01
2.229329e+02	-2.503232e+01
2.242205e+02	-2.508416e+01
2.255156e+02	-2.513446e+01
2.268182e+02	-2.518119e+01
2.281283e+02	-2.523122e+01
2.294459e+02	-2.528139e+01
2.307712e+02	-2.533183e+01
2.321041e+02	-2.538182e+01
2.334447e+02	-2.543056e+01
2.347931e+02	-2.548389e+01
2.361493e+02	-2.553403e+01
2.375133e+02	-2.558078e+01
2.388851e+02	-2.563081e+01
2.402649e+02	-2.567927e+01
2.416527e+02	-2.573180e+01
2.430484e+02	-2.578447e+01
2.444523e+02	-2.583184e+01
2.458642e+02	-2.588292e+01
2.472843e+02	-2.593294e+01
2.487126e+02	-2.598089e+01
2.501492e+02	-2.603202e+01
2.515940e+02	-2.608374e+01
2.530472e+02	-2.613150e+01
2.545088e+02	-2.618228e+01
2.559789e+02	-2.623220e+01
2.574574e+02	-2.628417e+01
2.589444e+02	-2.633097e+01
2.604401e+02	-2.638605e+01
2.619444e+02	-2.643038e+01
2.634574e+02	-2.648001e+01
2.649791e+02	-2.653158e+01
2.665096e+02	-2.658335e+01
2.680489e+02	-2.663254e+01
2.695972e+02	-2.668175e+01
2.711544e+02	-2.672927e+01
2.727205e+02	-2.677954e+01
2.742958e+02	-2.683362e+01
2.758801e+02	-2.688097e+01
2.774736e+02	-2.693053e+01
2.790762e+02	-2.697770e+01
2.806882e+02	-2.703015e+01
2.823094e+02	-2.707871e+01
2.839400e+02	-2.713638e+01
2.855800e+02	-2.717810e+01
2.872295e+02	-2.722878e+01
2.888886e+02	-2.728157e+01
2.905572e+02	-2.732874e+01
2.922354e+02	-2.738129e+01
2.939234e+02	-2.743372e+01
2.956211e+02	-2.748347e+01
2.973286e+02	-2.753022e+01
2.990459e+02	-2.758030e+01
3.007732e+02	-2.762955e+01
3.025104e+02	-2.767861e+01
3.042577e+02	-2.773175e+01
3.060151e+02	-2.778371e+01
3.077826e+02	-2.783132e+01
3.095604e+02	-2.788014e+01
3.113484e+02	-2.792762e+01
3.131467e+02	-2.798162e+01
3.149554e+02	-2.802820e+01
3.167746e+02	-2.808038e+01
3.186043e+02	-2.813031e+01
3.204445e+02	-2.818448e+01
3.222954e+02	-2.822853e+01
3.241570e+02	-2.828074e+01
3.260293e+02	-2.832955e+01
3.279124e+02	-2.837992e+01
3.298064e+02	-2.843274e+01
3.317114e+02	-2.848268e+01
3.336273e+02	-2.853186e+01
3.355544e+02	-2.858286e+01
3.374925e+02	-2.863235e+01
3.394418e+02	-2.868606e+01
3.414024e+02	-2.873136e+01
3.433744e+02	-2.878530e+01
3.453577e+02	-2.883155e+01
3.473525e+02	-2.888092e+01
3.493588e+02	-2.893168e+01
3.513766e+02	-2.898018e+01
3.534062e+02	-2.903568e+01
3.554474e+02	-2.908395e+01
3.575005e+02	-2.913143e+01
3.595654e+02	-2.918409e+01
3.616422e+02	-2.923088e+01
3.637311e+02	-2.927583e+01
3.658320e+02	-2.932887e+01
3.679450e+02	-2.938284e+01
3.700702e+02	-2.942990e+01
3.722077e+02	-2.948065e+01
3.743576e+02	-2.953013e+01
3.765199e+02	-2.958284e+01
3.786946e+02	-2.963180e+01
3.808820e+02	-2.968219e+01
3.830819e+02	-2.973845e+01
3.852946e+02	-2.978359e+01
3.875200e+02	-2.983701e+01
3.897583e+02	-2.988290e+01
3.920096e+02	-2.993000e+01
3.942738e+02	-2.998413e+01
3.965511e+02	-3.003114e+01
3.988416e+02	-3.008580e+01
4.011452e+02	-3.013508e+01
4.034622e+02	-3.018515e+01
4.057926e+02	-3.023267e+01
4.081365e+02	-3.028832e+01
4.104938e+02	-3.032929e+01
4.128648e+02	-3.038640e+01
4.152495e+02	-3.043125e+01
4.176480e+02	-3.048622e+01
4.200603e+02	-3.053365e+01
4.224866e+02	-3.058640e+01
4.249268e+02	-3.064137e+01
4.273812e+02	-3.068746e+01
4.298497e+02	-3.073234e+01
4.323325e+02	-3.078414e+01
4.348297e+02	-3.083671e+01
4.373412e+02	-3.088668e+01
4.398673e+02	-3.093624e+01
4.424079e+02	-3.098431e+01
4.449633e+02	-3.104000e+01
4.475334e+02	-3.108672e+01
4.501183e+02	-3.113944e+01
4.527182e+02	-3.118671e+01
4.553330e+02	-3.123621e+01
4.579630e+02	-3.128740e+01
4.606082e+02	-3.134460e+01
4.632687e+02	-3.138737e+01
4.659445e+02	-3.143919e+01
4.686358e+02	-3.148378e+01
4.713426e+02	-3.153260e+01
4.740650e+02	-3.158649e+01
4.768032e+02	-3.164033e+01
4.795572e+02	-3.168934e+01
4.823271e+02	-3.173403e+01
4.851130e+02	-3.179458e+01
4.879150e+02	-3.183275e+01
4.907332e+02	-3.188547e+01
4.935676e+02	-3.194033e+01
4.964185e+02	-3.198793e+01
4.992858e+02	-3.203911e+01
5.021696e+02	-3.208803e+01
5.050701e+02	-3.213970e+01
5.079874e+02	-3.218967e+01
5.109215e+02	-3.223798e+01
5.138726e+02	-3.228323e+01
5.168407e+02	-3.234027e+01
5.198259e+02	-3.238914e+01
5.228284e+02	-3.244608e+01
5.258482e+02	-3.249042e+01
5.288855e+02	-3.254665e+01
5.319403e+02	-3.259808e+01
5.350128e+02	-3.264693e+01
5.381030e+02	-3.269081e+01
5.412111e+02	-3.274048e+01
5.443371e+02	-3.278701e+01
5.474812e+02	-3.284520e+01
5.506434e+02	-3.289446e+01
5.538239e+02	-3.294485e+01
5.570228e+02	-3.299366e+01
5.602401e+02	-3.304159e+01
5.634760e+02	-3.309873e+01
5.667306e+02	-3.313984e+01
5.700040e+02	-3.319874e+01
5.732964e+02	-3.324799e+01
5.766077e+02	-3.329360e+01
5.799382e+02	-3.334650e+01
5.832879e+02	-3.339042e+01
5.866569e+02	-3.345151e+01
5.900454e+02	-3.349930e+01
5.934535e+02	-3.355267e+01
5.968813e+02	-3.359464e+01
6.003288e+02	-3.364945e+01
6.037963e+02	-3.369898e+01
6.072838e+02	-3.374804e+01
6.107914e+02	-3.379889e+01
6.143194e+02	-3.385289e+01
6.178676e+02	-3.389919e+01
6.214364e+02	-3.395273e+01
6.250258e+02	-3.400974e+01
6.286359e+02	-3.404774e+01
6.322669e+02	-3.409807e+01
6.359189e+02	-3.415501e+01
6.395919e+02	-3.420070e+01
6.432862e+02	-3.425632e+01
6.470017e+02	-3.430784e+01
6.507388e+02	-3.435820e+01
6.544974e+02	-3.440139e+01
6.582778e+02	-3.445205e+01
6.620800e+02	-3.451254e+01
6.659041e+02	-3.455660e+01
6.697504e+02	-3.460246e+01
6.736188e+02	-3.465124e+01
6.775096e+02	-3.470608e+01
6.814229e+02	-3.475463e+01
6.853587e+02	-3.479914e+01
6.893173e+02	-3.485142e+01
6.932988e+02	-3.491235e+01
6.973033e+02	-3.494903e+01
7.013309e+02	-3.501179e+01
