Frequency(Hz)	Magnitude(dB)
1.000000e+01	-1.473516e-05
1.005776e+01	-1.490587e-05
1.011585e+01	-1.507856e-05
1.017428e+01	-1.525325e-05
1.023305e+01	-1.542996e-05
1.029215e+01	-1.560872e-05
1.035160e+01	-1.578955e-05
1.041139e+01	-1.597248e-05
1.047153e+01	-1.615753e-05
1.053201e+01	-1.634471e-05
1.059284e+01	-1.653407e-05
1.065403e+01	-1.672562e-05
1.071556e+01	-1.691939e-05
1.077746e+01	-1.711541e-05
1.083971e+01	-1.731370e-05
1.090232e+01	-1.751428e-05
1.096529e+01	-1.771719e-05
1.102862e+01	-1.792245e-05
1.109232e+01	-1.813008e-05
1.115639e+01	-1.834012e-05
1.122083e+01	-1.855260e-05
1.128564e+01	-1.876754e-05
1.135083e+01	-1.898496e-05
1.141639e+01	-1.920491e-05
1.148233e+01	-1.942740e-05
1.154865e+01	-1.965247e-05
1.161536e+01	-1.988015e-05
1.168245e+01	-2.011047e-05
1.174992e+01	-2.034345e-05
1.181779e+01	-2.057914e-05
1.188605e+01	-2.081755e-05
1.195470e+01	-2.105873e-05
1.202375e+01	-2.130270e-05
1.209320e+01	-2.154950e-05
1.216305e+01	-2.179915e-05
1.223330e+01	-2.205170e-05
1.230396e+01	-2.230718e-05
1.237503e+01	-2.256561e-05
1.244651e+01	-2.282704e-05
1.251840e+01	-2.309149e-05
1.259070e+01	-2.335902e-05
1.266343e+01	-2.362964e-05
1.273657e+01	-2.390339e-05
1.281014e+01	-2.418032e-05
1.288413e+01	-2.446045e-05
1.295855e+01	-2.474383e-05
1.303339e+01	-2.503050e-05
1.310867e+01	-2.532048e-05
1.318439e+01	-2.561382e-05
1.326054e+01	-2.591057e-05
1.333713e+01	-2.621075e-05
1.341417e+01	-2.651441e-05
1.349165e+01	-2.682158e-05
1.356958e+01	-2.713232e-05
1.364795e+01	-2.744665e-05
1.372678e+01	-2.776463e-05
1.380607e+01	-2.808629e-05
1.388581e+01	-2.841167e-05
1.396602e+01	-2.874083e-05
1.404668e+01	-2.907380e-05
1.412782e+01	-2.941062e-05
1.420942e+01	-2.975135e-05
1.429149e+01	-3.009603e-05
1.437404e+01	-3.044470e-05
1.445706e+01	-3.079741e-05
1.454057e+01	-3.115420e-05
1.462455e+01	-3.151513e-05
1.470902e+01	-3.188024e-05
1.479398e+01	-3.224958e-05
1.487943e+01	-3.262320e-05
1.496537e+01	-3.300115e-05
1.505181e+01	-3.338348e-05
1.513875e+01	-3.377023e-05
1.522619e+01	-3.416147e-05
1.531414e+01	-3.455724e-05
1.540259e+01	-3.495759e-05
1.549156e+01	-3.536258e-05
1.558103e+01	-3.577227e-05
1.567103e+01	-3.618670e-05
1.576155e+01	-3.660593e-05
1.585258e+01	-3.703002e-05
1.594415e+01	-3.745902e-05
1.603624e+01	-3.789299e-05
1.612886e+01	-3.833199e-05
1.622202e+01	-3.877607e-05
1.631572e+01	-3.922530e-05
1.640996e+01	-3.967974e-05
1.650474e+01	-4.013943e-05
1.660008e+01	-4.060446e-05
1.669596e+01	-4.107487e-05
1.679239e+01	-4.155073e-05
1.688938e+01	-4.203211e-05
1.698694e+01	-4.251906e-05
1.708505e+01	-4.301165e-05
1.718373e+01	-4.350995e-05
1.728299e+01	-4.401402e-05
1.738281e+01	-4.452393e-05
1.748322e+01	-4.503975e-05
1.758420e+01	-4.556155e-05
1.768576e+01	-4.608939e-05
1.778792e+01	-4.662335e-05
1.789066e+01	-4.716349e-05
1.799399e+01	-4.770989e-05
1.809793e+01	-4.826262e-05
1.820246e+01	-4.882175e-05
1.830760e+01	-4.938736e-05
1.841334e+01	-4.995952e-05
1.851969e+01	-5.053831e-05
1.862666e+01	-5.112381e-05
1.873425e+01	-5.171609e-05
1.884246e+01	-5.231523e-05
1.895129e+01	-5.292132e-05
1.906075e+01	-5.353442e-05
1.917085e+01	-5.415463e-05
1.928158e+01	-5.478202e-05
1.939295e+01	-5.541668e-05
1.950496e+01	-5.605869e-05
1.961762e+01	-5.670815e-05
1.973093e+01	-5.736512e-05
1.984490e+01	-5.802971e-05
1.995952e+01	-5.870199e-05
2.007480e+01	-5.938207e-05
2.019076e+01	-6.007002e-05
2.030738e+01	-6.076594e-05
2.042467e+01	-6.146993e-05
2.054264e+01	-6.218207e-05
2.066130e+01	-6.290246e-05
2.078064e+01	-6.363120e-05
2.090066e+01	-6.436838e-05
2.102139e+01	-6.511410e-05
2.114280e+01	-6.586846e-05
2.126492e+01	-6.663156e-05
2.138775e+01	-6.740350e-05
2.151128e+01	-6.818438e-05
2.163553e+01	-6.897431e-05
2.176050e+01	-6.977339e-05
2.188619e+01	-7.058173e-05
2.201260e+01	-7.139943e-05
2.213974e+01	-7.222660e-05
2.226762e+01	-7.306336e-05
2.239624e+01	-7.390981e-05
2.252560e+01	-7.476607e-05
2.265571e+01	-7.563225e-05
2.278656e+01	-7.650846e-05
2.291818e+01	-7.739483e-05
2.305055e+01	-7.829146e-05
2.318369e+01	-7.919848e-05
2.331760e+01	-8.011601e-05
2.345228e+01	-8.104417e-05
2.358774e+01	-8.198308e-05
2.372398e+01	-8.293286e-05
2.386101e+01	-8.389366e-05
2.399883e+01	-8.486558e-05
2.413745e+01	-8.584876e-05
2.427686e+01	-8.684333e-05
2.441709e+01	-8.784943e-05
2.455812e+01	-8.886718e-05
2.469997e+01	-8.989672e-05
2.484263e+01	-9.093818e-05
2.498612e+01	-9.199172e-05
2.513044e+01	-9.305746e-05
2.527559e+01	-9.413554e-05
2.542158e+01	-9.522611e-05
2.556842e+01	-9.632932e-05
2.571610e+01	-9.744531e-05
2.586463e+01	-9.857423e-05
2.601403e+01	-9.971623e-05
2.616428e+01	-1.008715e-04
2.631541e+01	-1.020401e-04
2.646740e+01	-1.032222e-04
2.662028e+01	-1.044181e-04
2.677404e+01	-1.056278e-04
2.692868e+01	-1.068515e-04
2.708422e+01	-1.080894e-04
2.724066e+01	-1.093416e-04
2.739800e+01	-1.106083e-04
2.755625e+01	-1.118897e-04
2.771541e+01	-1.131860e-04
2.787550e+01	-1.144973e-04
2.803650e+01	-1.158237e-04
2.819844e+01	-1.171656e-04
2.836131e+01	-1.185229e-04
2.852513e+01	-1.198960e-04
2.868989e+01	-1.212851e-04
2.885560e+01	-1.226902e-04
2.902227e+01	-1.241115e-04
2.918990e+01	-1.255494e-04
2.935850e+01	-1.270039e-04
2.952807e+01	-1.284752e-04
2.969863e+01	-1.299636e-04
2.987016e+01	-1.314693e-04
3.004269e+01	-1.329924e-04
3.021622e+01	-1.345331e-04
3.039075e+01	-1.360917e-04
3.056628e+01	-1.376683e-04
3.074283e+01	-1.392632e-04
3.092040e+01	-1.408766e-04
3.109900e+01	-1.425087e-04
3.127862e+01	-1.441596e-04
3.145929e+01	-1.458297e-04
3.164099e+01	-1.475192e-04
3.182375e+01	-1.492282e-04
3.200756e+01	-1.509570e-04
3.219244e+01	-1.527059e-04
3.237838e+01	-1.544750e-04
3.256540e+01	-1.562646e-04
3.275349e+01	-1.580749e-04
3.294268e+01	-1.599062e-04
3.313295e+01	-1.617587e-04
3.332433e+01	-1.636327e-04
3.351681e+01	-1.655284e-04
3.371040e+01	-1.674461e-04
3.390511e+01	-1.693860e-04
3.410094e+01	-1.713483e-04
3.429791e+01	-1.733334e-04
3.449601e+01	-1.753415e-04
3.469526e+01	-1.773728e-04
3.489566e+01	-1.794277e-04
3.509721e+01	-1.815063e-04
3.529993e+01	-1.836091e-04
3.550382e+01	-1.857362e-04
3.570889e+01	-1.878880e-04
3.591515e+01	-1.900647e-04
3.612259e+01	-1.922666e-04
3.633123e+01	-1.944940e-04
3.654108e+01	-1.967472e-04
3.675214e+01	-1.990265e-04
3.696442e+01	-2.013322e-04
3.717792e+01	-2.036647e-04
3.739266e+01	-2.060241e-04
3.760864e+01	-2.084109e-04
3.782587e+01	-2.108254e-04
3.804435e+01	-2.132678e-04
3.826409e+01	-2.157385e-04
3.848510e+01	-2.182378e-04
3.870739e+01	-2.207661e-04
3.893096e+01	-2.233236e-04
3.915583e+01	-2.259108e-04
3.938199e+01	-2.285280e-04
3.960946e+01	-2.311755e-04
3.983824e+01	-2.338537e-04
4.006834e+01	-2.365629e-04
4.029978e+01	-2.393034e-04
4.053255e+01	-2.420757e-04
4.076666e+01	-2.448802e-04
4.100213e+01	-2.477171e-04
4.123896e+01	-2.505869e-04
4.147715e+01	-2.534899e-04
4.171672e+01	-2.564266e-04
4.195767e+01	-2.593973e-04
4.220002e+01	-2.624024e-04
4.244377e+01	-2.654423e-04
4.268892e+01	-2.685174e-04
4.293549e+01	-2.716282e-04
4.318348e+01	-2.747750e-04
4.343291e+01	-2.779582e-04
4.368377e+01	-2.811783e-04
4.393609e+01	-2.844357e-04
4.418986e+01	-2.877309e-04
4.444510e+01	-2.910642e-04
4.470182e+01	-2.944362e-04
4.496001e+01	-2.978472e-04
4.521970e+01	-3.012977e-04
4.548089e+01	-3.047882e-04
4.574358e+01	-3.083191e-04
4.600779e+01	-3.118910e-04
4.627353e+01	-3.155042e-04
4.654081e+01	-3.191592e-04
4.680963e+01	-3.228567e-04
4.708000e+01	-3.265969e-04
4.735193e+01	-3.303805e-04
4.762543e+01	-3.342079e-04
4.790051e+01	-3.380796e-04
4.817719e+01	-3.419962e-04
4.845545e+01	-3.459582e-04
4.873533e+01	-3.499660e-04
4.901682e+01	-3.540203e-04
4.929994e+01	-3.581216e-04
4.958470e+01	-3.622703e-04
4.987110e+01	-3.664672e-04
5.015915e+01	-3.707126e-04
5.044887e+01	-3.750072e-04
5.074026e+01	-3.793516e-04
5.103333e+01	-3.837463e-04
5.132810e+01	-3.881919e-04
5.162457e+01	-3.926890e-04
5.192275e+01	-3.972382e-04
5.222265e+01	-4.018401e-04
5.252429e+01	-4.064953e-04
5.282767e+01	-4.112045e-04
5.313280e+01	-4.159682e-04
5.343969e+01	-4.207870e-04
5.374836e+01	-4.256617e-04
5.405880e+01	-4.305929e-04
5.437105e+01	-4.355812e-04
5.468509e+01	-4.406272e-04
5.500095e+01	-4.457318e-04
5.531863e+01	-4.508954e-04
5.563815e+01	-4.561189e-04
5.595951e+01	-4.614029e-04
5.628273e+01	-4.667481e-04
5.660782e+01	-4.721552e-04
5.693479e+01	-4.776249e-04
5.726364e+01	-4.831580e-04
5.759439e+01	-4.887552e-04
5.792705e+01	-4.944173e-04
5.826164e+01	-5.001449e-04
5.859815e+01	-5.059389e-04
5.893662e+01	-5.118000e-04
5.927703e+01	-5.177290e-04
5.961941e+01	-5.237267e-04
5.996377e+01	-5.297938e-04
6.031012e+01	-5.359312e-04
6.065847e+01	-5.421398e-04
6.100883e+01	-5.484202e-04
6.136121e+01	-5.547734e-04
6.171563e+01	-5.612002e-04
6.207210e+01	-5.677014e-04
6.243063e+01	-5.742780e-04
6.279122e+01	-5.809307e-04
6.315390e+01	-5.876605e-04
6.351868e+01	-5.944682e-04
6.388556e+01	-6.013548e-04
6.425456e+01	-6.083212e-04
6.462569e+01	-6.153683e-04
6.499897e+01	-6.224970e-04
6.537440e+01	-6.297082e-04
6.575200e+01	-6.370030e-04
6.613178e+01	-6.443823e-04
6.651375e+01	-6.518471e-04
6.689793e+01	-6.593984e-04
6.728433e+01	-6.670371e-04
6.767297e+01	-6.747643e-04
6.806384e+01	-6.825810e-04
6.845698e+01	-6.904883e-04
6.885238e+01	-6.984871e-04
6.925007e+01	-7.065786e-04
6.965005e+01	-7.147639e-04
7.005235e+01	-7.230439e-04
7.045697e+01	-7.314199e-04
7.086393e+01	-7.398929e-04
7.127323e+01	-7.484640e-04
7.168490e+01	-7.571344e-04
7.209895e+01	-7.659052e-04
7.251539e+01	-7.747777e-04
7.293424e+01	-7.837529e-04
7.335551e+01	-7.928320e-04
7.377920e+01	-8.020163e-04
7.420535e+01	-8.113071e-04
7.463396e+01	-8.207054e-04
7.506504e+01	-8.302126e-04
7.549861e+01	-8.398299e-04
7.593469e+01	-8.495586e-04
7.637328e+01	-8.594000e-04
7.681441e+01	-8.693554e-04
7.725809e+01	-8.794261e-04
7.770433e+01	-8.896134e-04
7.815315e+01	-8.999188e-04
7.860456e+01	-9.103435e-04
7.905857e+01	-9.208889e-04
7.951521e+01	-9.315565e-04
7.997449e+01	-9.423477e-04
8.043642e+01	-9.532639e-04
8.090102e+01	-9.643064e-04
8.136830e+01	-9.754769e-04
8.183828e+01	-9.867768e-04
8.231097e+01	-9.982076e-04
8.278640e+01	-1.009771e-03
8.326457e+01	-1.021468e-03
8.374550e+01	-1.033300e-03
8.422921e+01	-1.045270e-03
8.471572e+01	-1.057378e-03
8.520503e+01	-1.069627e-03
8.569717e+01	-1.082017e-03
8.619215e+01	-1.094551e-03
8.669000e+01	-1.107230e-03
8.719071e+01	-1.120056e-03
8.769432e+01	-1.133030e-03
8.820084e+01	-1.146155e-03
8.871029e+01	-1.159432e-03
8.922267e+01	-1.172862e-03
8.973802e+01	-1.186449e-03
9.025634e+01	-1.200192e-03
9.077766e+01	-1.214095e-03
9.130199e+01	-1.228158e-03
9.182935e+01	-1.242385e-03
9.235975e+01	-1.256776e-03
9.289321e+01	-1.271334e-03
9.342976e+01	-1.286061e-03
9.396941e+01	-1.300958e-03
9.451217e+01	-1.316027e-03
9.505807e+01	-1.331271e-03
9.560712e+01	-1.346692e-03
9.615934e+01	-1.362292e-03
9.671476e+01	-1.378072e-03
9.727338e+01	-1.394034e-03
9.783522e+01	-1.410182e-03
9.840032e+01	-1.426517e-03
9.896867e+01	-1.443040e-03
9.954031e+01	-1.459756e-03
1.001153e+02	-1.476664e-03
1.006935e+02	-1.493769e-03
1.012751e+02	-1.511072e-03
1.018601e+02	-1.528575e-03
1.024484e+02	-1.546281e-03
1.030402e+02	-1.564192e-03
1.036353e+02	-1.582310e-03
1.042339e+02	-1.600638e-03
1.048360e+02	-1.619178e-03
1.054415e+02	-1.637933e-03
1.060505e+02	-1.656906e-03
1.066631e+02	-1.676098e-03
1.072791e+02	-1.695512e-03
1.078988e+02	-1.715151e-03
1.085220e+02	-1.735017e-03
1.091488e+02	-1.755114e-03
1.097793e+02	-1.775443e-03
1.104133e+02	-1.796008e-03
1.110511e+02	-1.816811e-03
1.116925e+02	-1.837855e-03
1.123376e+02	-1.859142e-03
1.129865e+02	-1.880676e-03
1.136391e+02	-1.902459e-03
1.142955e+02	-1.924495e-03
1.149556e+02	-1.946786e-03
1.156196e+02	-1.969335e-03
1.162874e+02	-1.992145e-03
1.169591e+02	-2.015219e-03
1.176347e+02	-2.038560e-03
1.183141e+02	-2.062172e-03
1.189975e+02	-2.086057e-03
1.196848e+02	-2.110219e-03
1.203761e+02	-2.134660e-03
1.210714e+02	-2.159385e-03
1.217707e+02	-2.184395e-03
1.224740e+02	-2.209696e-03
1.231814e+02	-2.235289e-03
1.238929e+02	-2.261179e-03
1.246085e+02	-2.287368e-03
1.253283e+02	-2.313861e-03
1.260522e+02	-2.340660e-03
1.267802e+02	-2.367770e-03
1.275125e+02	-2.395194e-03
1.282490e+02	-2.422935e-03
1.289898e+02	-2.450997e-03
1.297348e+02	-2.479385e-03
1.304842e+02	-2.508101e-03
1.312378e+02	-2.537149e-03
1.319959e+02	-2.566534e-03
1.327583e+02	-2.596259e-03
1.335251e+02	-2.626328e-03
1.342963e+02	-2.656746e-03
1.350720e+02	-2.687515e-03
1.358522e+02	-2.718641e-03
1.366368e+02	-2.750127e-03
1.374260e+02	-2.781978e-03
1.382198e+02	-2.814197e-03
1.390182e+02	-2.846790e-03
1.398211e+02	-2.879760e-03
1.406287e+02	-2.913111e-03
1.414410e+02	-2.946849e-03
1.422579e+02	-2.980977e-03
1.430796e+02	-3.015501e-03
1.439060e+02	-3.050424e-03
1.447372e+02	-3.085751e-03
1.455732e+02	-3.121488e-03
1.464141e+02	-3.157638e-03
1.472597e+02	-3.194206e-03
1.481103e+02	-3.231198e-03
1.489658e+02	-3.268618e-03
1.498262e+02	-3.306472e-03
1.506916e+02	-3.344763e-03
1.515620e+02	-3.383498e-03
1.524374e+02	-3.422681e-03
1.533179e+02	-3.462318e-03
1.542034e+02	-3.502414e-03
1.550941e+02	-3.542973e-03
1.559899e+02	-3.584003e-03
1.568909e+02	-3.625507e-03
1.577971e+02	-3.667492e-03
1.587085e+02	-3.709962e-03
1.596252e+02	-3.752925e-03
1.605472e+02	-3.796384e-03
1.614745e+02	-3.840347e-03
1.624072e+02	-3.884818e-03
1.633453e+02	-3.929804e-03
1.642887e+02	-3.975311e-03
1.652377e+02	-4.021345e-03
1.661921e+02	-4.067911e-03
1.671520e+02	-4.115017e-03
1.681175e+02	-4.162667e-03
1.690885e+02	-4.210870e-03
1.700651e+02	-4.259630e-03
1.710474e+02	-4.308954e-03
1.720354e+02	-4.358849e-03
1.730291e+02	-4.409322e-03
1.740285e+02	-4.460379e-03
1.750337e+02	-4.512026e-03
1.760446e+02	-4.564272e-03
1.770615e+02	-4.617122e-03
1.780842e+02	-4.670584e-03
1.791128e+02	-4.724664e-03
1.801473e+02	-4.779370e-03
1.811878e+02	-4.834710e-03
1.822344e+02	-4.890689e-03
1.832870e+02	-4.947317e-03
1.843456e+02	-5.004600e-03
1.854104e+02	-5.062545e-03
1.864813e+02	-5.121162e-03
1.875584e+02	-5.180456e-03
1.886418e+02	-5.240437e-03
1.897313e+02	-5.301111e-03
1.908272e+02	-5.362488e-03
1.919294e+02	-5.424575e-03
1.930380e+02	-5.487380e-03
1.941530e+02	-5.550912e-03
1.952744e+02	-5.615179e-03
1.964023e+02	-5.680190e-03
1.975367e+02	-5.745953e-03
1.986777e+02	-5.812476e-03
1.998252e+02	-5.879770e-03
2.009794e+02	-5.947841e-03
2.021403e+02	-6.016701e-03
2.033078e+02	-6.086357e-03
2.044821e+02	-6.156819e-03
2.056632e+02	-6.228096e-03
2.068511e+02	-6.300197e-03
2.080459e+02	-6.373133e-03
2.092475e+02	-6.446912e-03
2.104561e+02	-6.521545e-03
2.116717e+02	-6.597041e-03
2.128943e+02	-6.673411e-03
2.141240e+02	-6.750664e-03
2.153608e+02	-6.828810e-03
2.166047e+02	-6.907861e-03
2.178558e+02	-6.987825e-03
2.191141e+02	-7.068715e-03
2.203797e+02	-7.150540e-03
2.216526e+02	-7.233312e-03
2.229329e+02	-7.317041e-03
2.242205e+02	-7.401738e-03
2.255156e+02	-7.487415e-03
2.268182e+02	-7.574082e-03
2.281283e+02	-7.661752e-03
2.294459e+02	-7.750436e-03
2.307712e+02	-7.840146e-03
2.321041e+02	-7.930893e-03
2.334447e+02	-8.022689e-03
2.347931e+02	-8.115547e-03
2.361493e+02	-8.209478e-03
2.375133e+02	-8.304496e-03
2.388851e+02	-8.400612e-03
2.402649e+02	-8.497840e-03
2.416527e+02	-8.596191e-03
2.430484e+02	-8.695680e-03
2.444523e+02	-8.796320e-03
2.458642e+02	-8.898122e-03
2.472843e+02	-9.001102e-03
2.487126e+02	-9.105273e-03
2.501492e+02	-9.210647e-03
2.515940e+02	-9.317240e-03
2.530472e+02	-9.425065e-03
2.545088e+02	-9.534136e-03
2.559789e+02	-9.644469e-03
2.574574e+02	-9.756076e-03
2.589444e+02	-9.868974e-03
2.604401e+02	-9.983177e-03
2.619444e+02	-1.009870e-02
2.634574e+02	-1.021556e-02
2.649791e+02	-1.033377e-02
2.665096e+02	-1.045334e-02
2.680489e+02	-1.057430e-02
2.695972e+02	-1.069665e-02
2.711544e+02	-1.082042e-02
2.727205e+02	-1.094562e-02
2.742958e+02	-1.107226e-02
2.758801e+02	-1.120037e-02
2.774736e+02	-1.132996e-02
2.790762e+02	-1.146105e-02
2.806882e+02	-1.159365e-02
2.823094e+02	-1.172778e-02
2.839400e+02	-1.186347e-02
2.855800e+02	-1.200072e-02
2.872295e+02	-1.213955e-02
2.888886e+02	-1.227999e-02
2.905572e+02	-1.242206e-02
2.922354e+02	-1.256576e-02
2.939234e+02	-1.271112e-02
2.956211e+02	-1.285817e-02
2.973286e+02	-1.300691e-02
2.990459e+02	-1.315737e-02
3.007732e+02	-1.330956e-02
3.025104e+02	-1.346352e-02
3.042577e+02	-1.361925e-02
3.060151e+02	-1.377678e-02
3.077826e+02	-1.393613e-02
3.095604e+02	-1.409732e-02
3.113484e+02	-1.426037e-02
3.131467e+02	-1.442531e-02
3.149554e+02	-1.459215e-02
3.167746e+02	-1.476091e-02
3.186043e+02	-1.493163e-02
3.204445e+02	-1.510431e-02
3.222954e+02	-1.527899e-02
3.241570e+02	-1.545568e-02
3.260293e+02	-1.563442e-02
3.279124e+02	-1.581521e-02
3.298064e+02	-1.599810e-02
3.317114e+02	-1.618309e-02
3.336273e+02	-1.637022e-02
3.355544e+02	-1.655951e-02
3.374925e+02	-1.675099e-02
3.394418e+02	-1.694467e-02
3.414024e+02	-1.714059e-02
3.433744e+02	-1.733877e-02
3.453577e+02	-1.753924e-02
3.473525e+02	-1.774202e-02
3.493588e+02	-1.794714e-02
3.513766e+02	-1.815462e-02
3.534062e+02	-1.836450e-02
3.554474e+02	-1.857680e-02
3.575005e+02	-1.879155e-02
3.595654e+02	-1.900878e-02
3.616422e+02	-1.922851e-02
3.637311e+02	-1.945078e-02
3.658320e+02	-1.967561e-02
3.679450e+02	-1.990303e-02
3.700702e+02	-2.013308e-02
3.722077e+02	-2.036577e-02
3.743576e+02	-2.060115e-02
3.765199e+02	-2.083925e-02
3.786946e+02	-2.108009e-02
3.808820e+02	-2.132370e-02
3.830819e+02	-2.157013e-02
3.852946e+02	-2.181939e-02
3.875200e+02	-2.207153e-02
3.897583e+02	-2.232658e-02
3.920096e+02	-2.258456e-02
3.942738e+02	-2.284552e-02
3.965511e+02	-2.310948e-02
3.988416e+02	-2.337649e-02
4.011452e+02	-2.364657e-02
4.034622e+02	-2.391976e-02
4.057926e+02	-2.419610e-02
4.081365e+02	-2.447563e-02
4.104938e+02	-2.475837e-02
4.128648e+02	-2.504438e-02
4.152495e+02	-2.533367e-02
4.176480e+02	-2.562630e-02
4.200603e+02	-2.592230e-02
4.224866e+02	-2.622170e-02
4.249268e+02	-2.652456e-02
4.273812e+02	-2.683090e-02
4.298497e+02	-2.714077e-02
4.323325e+02	-2.745420e-02
4.348297e+02	-2.777124e-02
4.373412e+02	-2.809194e-02
4.398673e+02	-2.841632e-02
4.424079e+02	-2.874444e-02
4.449633e+02	-2.907633e-02
4.475334e+02	-2.941204e-02
4.501183e+02	-2.975161e-02
4.527182e+02	-3.009510e-02
4.553330e+02	-3.044253e-02
4.579630e+02	-3.079396e-02
4.606082e+02	-3.114943e-02
4.632687e+02	-3.150899e-02
4.659445e+02	-3.187268e-02
4.686358e+02	-3.224056e-02
4.713426e+02	-3.261267e-02
4.740650e+02	-3.298906e-02
4.768032e+02	-3.336977e-02
4.795572e+02	-3.375486e-02
4.823271e+02	-3.414437e-02
4.851130e+02	-3.453837e-02
4.879150e+02	-3.493689e-02
4.907332e+02	-3.533999e-02
4.935676e+02	-3.574772e-02
4.964185e+02	-3.616014e-02
4.992858e+02	-3.657729e-02
5.021696e+02	-3.699924e-02
5.050701e+02	-3.742603e-02
5.079874e+02	-3.785772e-02
5.109215e+02	-3.829437e-02
5.138726e+02	-3.873604e-02
5.168407e+02	-3.918277e-02
5.198259e+02	-3.963464e-02
5.228284e+02	-4.009169e-02
5.258482e+02	-4.055399e-02
5.288855e+02	-4.102159e-02
5.319403e+02	-4.149456e-02
5.350128e+02	-4.197295e-02
5.381030e+02	-4.245684e-02
5.412111e+02	-4.294627e-02
5.443371e+02	-4.344132e-02
5.474812e+02	-4.394204e-02
5.506434e+02	-4.444851e-02
5.538239e+02	-4.496078e-02
5.570228e+02	-4.547893e-02
5.602401e+02	-4.600302e-02
5.634760e+02	-4.653311e-02
5.667306e+02	-4.706928e-02
5.700040e+02	-4.761159e-02
5.732964e+02	-4.816012e-02
5.766077e+02	-4.871493e-02
5.799382e+02	-4.927609e-02
5.832879e+02	-4.984369e-02
5.866569e+02	-5.041778e-02
5.900454e+02	-5.099844e-02
5.934535e+02	-5.158575e-02
5.968813e+02	-5.217979e-02
6.003288e+02	-5.278062e-02
6.037963e+02	-5.338833e-02
6.072838e+02	-5.400300e-02
6.107914e+02	-5.462469e-02
6.143194e+02	-5.525350e-02
6.178676e+02	-5.588950e-02
6.214364e+02	-5.653277e-02
6.250258e+02	-5.718339e-02
6.286359e+02	-5.784146e-02
6.322669e+02	-5.850704e-02
6.359189e+02	-5.918023e-02
6.395919e+02	-5.986112e-02
6.432862e+02	-6.054978e-02
6.470017e+02	-6.124631e-02
6.507388e+02	-6.195080e-02
6.544974e+02	-6.266333e-02
6.582778e+02	-6.338399e-02
6.620800e+02	-6.411288e-02
6.659041e+02	-6.485009e-02
6.697504e+02	-6.559571e-02
6.736188e+02	-6.634984e-02
6.775096e+02	-6.711258e-02
6.814229e+02	-6.788401e-02
6.853587e+02	-6.866424e-02
6.893173e+02	-6.945336e-02
6.932988e+02	-7.025148e-02
6.973033e+02	-7.105870e-02
7.013309e+02	-7.187511e-02
