Frequency(Hz)	Magnitude(dB)
1.000000e+01	-1.948040e+00
1.005776e+01	-1.966380e+00
1.011585e+01	-1.984704e+00
1.017428e+01	-2.003041e+00
1.023305e+01	-2.021653e+00
1.029215e+01	-2.040487e+00
1.035160e+01	-2.058927e+00
1.041139e+01	-2.078338e+00
1.047153e+01	-2.097164e+00
1.053201e+01	-2.116302e+00
1.059284e+01	-2.135848e+00
1.065403e+01	-2.155216e+00
1.071556e+01	-2.174714e+00
1.077746e+01	-2.194782e+00
1.083971e+01	-2.214675e+00
1.090232e+01	-2.234702e+00
1.096529e+01	-2.254886e+00
1.102862e+01	-2.275081e+00
1.109232e+01	-2.295846e+00
1.115639e+01	-2.316169e+00
1.122083e+01	-2.337114e+00
1.128564e+01	-2.357910e+00
1.135083e+01	-2.378943e+00
1.141639e+01	-2.399976e+00
1.148233e+01	-2.421202e+00
1.154865e+01	-2.442953e+00
1.161536e+01	-2.464448e+00
1.168245e+01	-2.486176e+00
1.174992e+01	-2.507907e+00
1.181779e+01	-2.529926e+00
1.188605e+01	-2.552303e+00
1.195470e+01	-2.574626e+00
1.202375e+01	-2.597024e+00
1.209320e+01	-2.619700e+00
1.216305e+01	-2.642248e+00
1.223330e+01	-2.665441e+00
1.230396e+01	-2.688361e+00
1.237503e+01	-2.711308e+00
1.244651e+01	-2.734558e+00
1.251840e+01	-2.758273e+00
1.259070e+01	-2.781886e+00
1.266343e+01	-2.805502e+00
1.273657e+01	-2.829368e+00
1.281014e+01	-2.853288e+00
1.288413e+01	-2.877597e+00
1.295855e+01	-2.901813e+00
1.303339e+01	-2.926418e+00
1.310867e+01	-2.950860e+00
1.318439e+01	-2.975438e+00
1.326054e+01	-3.000451e+00
1.333713e+01	-3.025588e+00
1.341417e+01	-3.050556e+00
1.349165e+01	-3.075698e+00
1.356958e+01	-3.101625e+00
1.364795e+01	-3.127013e+00
1.372678e+01	-3.152814e+00
1.380607e+01	-3.178483e+00
1.388581e+01	-3.204437e+00
1.396602e+01	-3.230972e+00
1.404668e+01	-3.257040e+00
1.412782e+01	-3.283432e+00
1.420942e+01	-3.310253e+00
1.429149e+01	-3.337230e+00
1.437404e+01	-3.363992e+00
1.445706e+01	-3.391174e+00
1.454057e+01	-3.418051e+00
1.462455e+01	-3.445481e+00
1.470902e+01	-3.473006e+00
1.479398e+01	-3.500569e+00
1.487943e+01	-3.528317e+00
1.496537e+01	-3.556577e+00
1.505181e+01	-3.584300e+00
1.513875e+01	-3.612400e+00
1.522619e+01	-3.640803e+00
1.531414e+01	-3.669340e+00
1.540259e+01	-3.697898e+00
1.549156e+01	-3.726410e+00
1.558103e+01	-3.755810e+00
1.567103e+01	-3.784603e+00
1.576155e+01	-3.813936e+00
1.585258e+01	-3.843081e+00
1.594415e+01	-3.872543e+00
1.603624e+01	-3.901929e+00
1.612886e+01	-3.931679e+00
1.622202e+01	-3.961338e+00
1.631572e+01	-3.991651e+00
1.640996e+01	-4.021712e+00
1.650474e+01	-4.052119e+00
1.660008e+01	-4.082370e+00
1.669596e+01	-4.112854e+00
1.679239e+01	-4.143821e+00
1.688938e+01	-4.174447e+00
1.698694e+01	-4.205578e+00
1.708505e+01	-4.236512e+00
1.718373e+01	-4.267559e+00
1.728299e+01	-4.299184e+00
1.738281e+01	-4.330541e+00
1.748322e+01	-4.362426e+00
1.758420e+01	-4.394211e+00
1.768576e+01	-4.425694e+00
1.778792e+01	-4.457942e+00
1.789066e+01	-4.490034e+00
1.799399e+01	-4.522257e+00
1.809793e+01	-4.554870e+00
1.820246e+01	-4.587283e+00
1.830760e+01	-4.619971e+00
1.841334e+01	-4.652771e+00
1.851969e+01	-4.686093e+00
1.862666e+01	-4.719053e+00
1.873425e+01	-4.752312e+00
1.884246e+01	-4.785556e+00
1.895129e+01	-4.818783e+00
1.906075e+01	-4.852793e+00
1.917085e+01	-4.886122e+00
1.928158e+01	-4.920275e+00
1.939295e+01	-4.954189e+00
1.950496e+01	-4.987954e+00
1.961762e+01	-5.022753e+00
1.973093e+01	-5.056962e+00
1.984490e+01	-5.091290e+00
1.995952e+01	-5.125868e+00
2.007480e+01	-5.160645e+00
2.019076e+01	-5.195570e+00
2.030738e+01	-5.230289e+00
2.042467e+01	-5.265658e+00
2.054264e+01	-5.300506e+00
2.066130e+01	-5.336049e+00
2.078064e+01	-5.371322e+00
2.090066e+01	-5.407301e+00
2.102139e+01	-5.442999e+00
2.114280e+01	-5.478810e+00
2.126492e+01	-5.514370e+00
2.138775e+01	-5.550619e+00
2.151128e+01	-5.586715e+00
2.163553e+01	-5.623135e+00
2.176050e+01	-5.659165e+00
2.188619e+01	-5.695982e+00
2.201260e+01	-5.732468e+00
2.213974e+01	-5.769069e+00
2.226762e+01	-5.805753e+00
2.239624e+01	-5.842926e+00
2.252560e+01	-5.879729e+00
2.265571e+01	-5.917174e+00
2.278656e+01	-5.954330e+00
2.291818e+01	-5.991767e+00
2.305055e+01	-6.029152e+00
2.318369e+01	-6.067029e+00
2.331760e+01	-6.104144e+00
2.345228e+01	-6.142243e+00
2.358774e+01	-6.180257e+00
2.372398e+01	-6.218437e+00
2.386101e+01	-6.256746e+00
2.399883e+01	-6.294427e+00
2.413745e+01	-6.332953e+00
2.427686e+01	-6.371460e+00
2.441709e+01	-6.410240e+00
2.455812e+01	-6.448771e+00
2.469997e+01	-6.487500e+00
2.484263e+01	-6.526107e+00
2.498612e+01	-6.565122e+00
2.513044e+01	-6.604202e+00
2.527559e+01	-6.643320e+00
2.542158e+01	-6.682424e+00
2.556842e+01	-6.722051e+00
2.571610e+01	-6.761250e+00
2.586463e+01	-6.800927e+00
2.601403e+01	-6.840380e+00
2.616428e+01	-6.880447e+00
2.631541e+01	-6.919871e+00
2.646740e+01	-6.959755e+00
2.662028e+01	-6.999699e+00
2.677404e+01	-7.040258e+00
2.692868e+01	-7.080224e+00
2.708422e+01	-7.120286e+00
2.724066e+01	-7.160804e+00
2.739800e+01	-7.201386e+00
2.755625e+01	-7.241711e+00
2.771541e+01	-7.282238e+00
2.787550e+01	-7.322828e+00
2.803650e+01	-7.363757e+00
2.819844e+01	-7.405052e+00
2.836131e+01	-7.445904e+00
2.852513e+01	-7.486881e+00
2.868989e+01	-7.527854e+00
2.885560e+01	-7.569131e+00
2.902227e+01	-7.610690e+00
2.918990e+01	-7.652030e+00
2.935850e+01	-7.693506e+00
2.952807e+01	-7.735097e+00
2.969863e+01	-7.776656e+00
2.987016e+01	-7.818608e+00
3.004269e+01	-7.859950e+00
3.021622e+01	-7.902218e+00
3.039075e+01	-7.944158e+00
3.056628e+01	-7.985970e+00
3.074283e+01	-8.028178e+00
3.092040e+01	-8.070365e+00
3.109900e+01	-8.112680e+00
3.127862e+01	-8.154599e+00
3.145929e+01	-8.197145e+00
3.164099e+01	-8.239897e+00
3.182375e+01	-8.282392e+00
3.200756e+01	-8.325455e+00
3.219244e+01	-8.367765e+00
3.237838e+01	-8.410369e+00
3.256540e+01	-8.453437e+00
3.275349e+01	-8.496511e+00
3.294268e+01	-8.539403e+00
3.313295e+01	-8.582279e+00
3.332433e+01	-8.625456e+00
3.351681e+01	-8.668775e+00
3.371040e+01	-8.711866e+00
3.390511e+01	-8.754982e+00
3.410094e+01	-8.798422e+00
3.429791e+01	-8.841757e+00
3.449601e+01	-8.885811e+00
3.469526e+01	-8.928936e+00
3.489566e+01	-8.972695e+00
3.509721e+01	-9.016500e+00
3.529993e+01	-9.060357e+00
3.550382e+01	-9.103972e+00
3.570889e+01	-9.148052e+00
3.591515e+01	-9.192111e+00
3.612259e+01	-9.236683e+00
3.633123e+01	-9.280445e+00
3.654108e+01	-9.324316e+00
3.675214e+01	-9.368761e+00
3.696442e+01	-9.412629e+00
3.717792e+01	-9.456757e+00
3.739266e+01	-9.501419e+00
3.760864e+01	-9.545839e+00
3.782587e+01	-9.590492e+00
3.804435e+01	-9.635206e+00
3.826409e+01	-9.679793e+00
3.848510e+01	-9.724709e+00
3.870739e+01	-9.769292e+00
3.893096e+01	-9.814129e+00
3.915583e+01	-9.858440e+00
3.938199e+01	-9.903751e+00
3.960946e+01	-9.948723e+00
3.983824e+01	-9.993485e+00
4.006834e+01	-1.003815e+01
4.029978e+01	-1.008398e+01
4.053255e+01	-1.012878e+01
4.076666e+01	-1.017393e+01
4.100213e+01	-1.021944e+01
4.123896e+01	-1.026430e+01
4.147715e+01	-1.030973e+01
4.171672e+01	-1.035513e+01
4.195767e+01	-1.040072e+01
4.220002e+01	-1.044591e+01
4.244377e+01	-1.049185e+01
4.268892e+01	-1.053712e+01
4.293549e+01	-1.058245e+01
4.318348e+01	-1.062847e+01
4.343291e+01	-1.067440e+01
4.368377e+01	-1.072053e+01
4.393609e+01	-1.076580e+01
4.418986e+01	-1.081200e+01
4.444510e+01	-1.085776e+01
4.470182e+01	-1.090332e+01
4.496001e+01	-1.094963e+01
4.521970e+01	-1.099568e+01
4.548089e+01	-1.104202e+01
4.574358e+01	-1.108711e+01
4.600779e+01	-1.113436e+01
4.627353e+01	-1.118005e+01
4.654081e+01	-1.122627e+01
4.680963e+01	-1.127244e+01
4.708000e+01	-1.131891e+01
4.735193e+01	-1.136578e+01
4.762543e+01	-1.141112e+01
4.790051e+01	-1.145801e+01
4.817719e+01	-1.150412e+01
4.845545e+01	-1.155107e+01
4.873533e+01	-1.159741e+01
4.901682e+01	-1.164438e+01
4.929994e+01	-1.169065e+01
4.958470e+01	-1.173765e+01
4.987110e+01	-1.178439e+01
5.015915e+01	-1.183069e+01
5.044887e+01	-1.187785e+01
5.074026e+01	-1.192446e+01
5.103333e+01	-1.197196e+01
5.132810e+01	-1.201784e+01
5.162457e+01	-1.206510e+01
5.192275e+01	-1.211227e+01
5.222265e+01	-1.215877e+01
5.252429e+01	-1.220586e+01
5.282767e+01	-1.225325e+01
5.313280e+01	-1.230052e+01
5.343969e+01	-1.234788e+01
5.374836e+01	-1.239462e+01
5.405880e+01	-1.244181e+01
5.437105e+01	-1.248876e+01
5.468509e+01	-1.253624e+01
5.500095e+01	-1.258310e+01
5.531863e+01	-1.263060e+01
5.563815e+01	-1.267781e+01
5.595951e+01	-1.272496e+01
5.628273e+01	-1.277307e+01
5.660782e+01	-1.281952e+01
5.693479e+01	-1.286710e+01
5.726364e+01	-1.291498e+01
5.759439e+01	-1.296219e+01
5.792705e+01	-1.301042e+01
5.826164e+01	-1.305669e+01
5.859815e+01	-1.310473e+01
5.893662e+01	-1.315213e+01
5.927703e+01	-1.320051e+01
5.961941e+01	-1.324804e+01
5.996377e+01	-1.329547e+01
6.031012e+01	-1.334297e+01
6.065847e+01	-1.339155e+01
6.100883e+01	-1.343829e+01
6.136121e+01	-1.348633e+01
6.171563e+01	-1.353354e+01
6.207210e+01	-1.358172e+01
6.243063e+01	-1.363056e+01
6.279122e+01	-1.367836e+01
6.315390e+01	-1.372559e+01
6.351868e+01	-1.377291e+01
6.388556e+01	-1.382162e+01
6.425456e+01	-1.386867e+01
6.462569e+01	-1.391686e+01
6.499897e+01	-1.396515e+01
6.537440e+01	-1.401269e+01
6.575200e+01	-1.406140e+01
6.613178e+01	-1.410969e+01
6.651375e+01	-1.415741e+01
6.689793e+01	-1.420584e+01
6.728433e+01	-1.425483e+01
6.767297e+01	-1.430238e+01
6.806384e+01	-1.435014e+01
6.845698e+01	-1.439884e+01
6.885238e+01	-1.444668e+01
6.925007e+01	-1.449407e+01
6.965005e+01	-1.454253e+01
7.005235e+01	-1.459200e+01
7.045697e+01	-1.464016e+01
7.086393e+01	-1.468760e+01
7.127323e+01	-1.473630e+01
7.168490e+01	-1.478418e+01
7.209895e+01	-1.483287e+01
7.251539e+01	-1.488260e+01
7.293424e+01	-1.492952e+01
7.335551e+01	-1.497809e+01
7.377920e+01	-1.502686e+01
7.420535e+01	-1.507429e+01
7.463396e+01	-1.512405e+01
7.506504e+01	-1.517219e+01
7.549861e+01	-1.522082e+01
7.593469e+01	-1.526910e+01
7.637328e+01	-1.531761e+01
7.681441e+01	-1.536721e+01
7.725809e+01	-1.541415e+01
7.770433e+01	-1.546294e+01
7.815315e+01	-1.551183e+01
7.860456e+01	-1.556078e+01
7.905857e+01	-1.560934e+01
7.951521e+01	-1.565722e+01
7.997449e+01	-1.570640e+01
8.043642e+01	-1.575539e+01
8.090102e+01	-1.580448e+01
8.136830e+01	-1.585341e+01
8.183828e+01	-1.590109e+01
8.231097e+01	-1.595025e+01
8.278640e+01	-1.599982e+01
8.326457e+01	-1.604840e+01
8.374550e+01	-1.609667e+01
8.422921e+01	-1.614470e+01
8.471572e+01	-1.619342e+01
8.520503e+01	-1.624348e+01
8.569717e+01	-1.629244e+01
8.619215e+01	-1.634126e+01
8.669000e+01	-1.638911e+01
8.719071e+01	-1.643799e+01
8.769432e+01	-1.648758e+01
8.820084e+01	-1.653638e+01
8.871029e+01	-1.658559e+01
8.922267e+01	-1.663441e+01
8.973802e+01	-1.668333e+01
9.025634e+01	-1.673213e+01
9.077766e+01	-1.678116e+01
9.130199e+01	-1.683076e+01
9.182935e+01	-1.687931e+01
9.235975e+01	-1.692778e+01
9.289321e+01	-1.697731e+01
9.342976e+01	-1.702670e+01
9.396941e+01	-1.707497e+01
9.451217e+01	-1.712468e+01
9.505807e+01	-1.717267e+01
9.560712e+01	-1.722194e+01
9.615934e+01	-1.727191e+01
9.671476e+01	-1.732042e+01
9.727338e+01	-1.736883e+01
9.783522e+01	-1.741982e+01
9.840032e+01	-1.746872e+01
9.896867e+01	-1.751774e+01
9.954031e+01	-1.756710e+01
1.001153e+02	-1.761545e+01
1.006935e+02	-1.766367e+01
1.012751e+02	-1.771285e+01
1.018601e+02	-1.776275e+01
1.024484e+02	-1.781181e+01
1.030402e+02	-1.786181e+01
1.036353e+02	-1.790921e+01
1.042339e+02	-1.795976e+01
1.048360e+02	-1.800906e+01
1.054415e+02	-1.805941e+01
1.060505e+02	-1.810818e+01
1.066631e+02	-1.815621e+01
1.072791e+02	-1.820531e+01
1.078988e+02	-1.825541e+01
1.085220e+02	-1.830371e+01
1.091488e+02	-1.835402e+01
1.097793e+02	-1.840341e+01
1.104133e+02	-1.845333e+01
1.110511e+02	-1.850323e+01
1.116925e+02	-1.855136e+01
1.123376e+02	-1.860103e+01
1.129865e+02	-1.865044e+01
1.136391e+02	-1.869967e+01
1.142955e+02	-1.874885e+01
1.149556e+02	-1.879757e+01
1.156196e+02	-1.884690e+01
1.162874e+02	-1.889690e+01
1.169591e+02	-1.894573e+01
1.176347e+02	-1.899626e+01
1.183141e+02	-1.904432e+01
1.189975e+02	-1.909497e+01
1.196848e+02	-1.914446e+01
1.203761e+02	-1.919326e+01
1.210714e+02	-1.924214e+01
1.217707e+02	-1.929318e+01
1.224740e+02	-1.934186e+01
1.231814e+02	-1.939168e+01
1.238929e+02	-1.943926e+01
1.246085e+02	-1.949140e+01
1.253283e+02	-1.954043e+01
1.260522e+02	-1.958925e+01
1.267802e+02	-1.963683e+01
1.275125e+02	-1.968792e+01
1.282490e+02	-1.973743e+01
1.289898e+02	-1.978741e+01
1.297348e+02	-1.983574e+01
1.304842e+02	-1.988670e+01
1.312378e+02	-1.993430e+01
1.319959e+02	-1.998505e+01
1.327583e+02	-2.003420e+01
1.335251e+02	-2.008314e+01
1.342963e+02	-2.013327e+01
1.350720e+02	-2.018232e+01
1.358522e+02	-2.023313e+01
1.366368e+02	-2.028240e+01
1.374260e+02	-2.033187e+01
1.382198e+02	-2.038072e+01
1.390182e+02	-2.043146e+01
1.398211e+02	-2.047897e+01
1.406287e+02	-2.053144e+01
1.414410e+02	-2.058132e+01
1.422579e+02	-2.063064e+01
1.430796e+02	-2.067871e+01
1.439060e+02	-2.072619e+01
1.447372e+02	-2.077886e+01
1.455732e+02	-2.082987e+01
1.464141e+02	-2.087861e+01
1.472597e+02	-2.092698e+01
1.481103e+02	-2.097723e+01
1.489658e+02	-2.102806e+01
1.498262e+02	-2.107667e+01
1.506916e+02	-2.112446e+01
1.515620e+02	-2.117476e+01
1.524374e+02	-2.122587e+01
1.533179e+02	-2.127618e+01
1.542034e+02	-2.132689e+01
1.550941e+02	-2.137479e+01
1.559899e+02	-2.142328e+01
1.568909e+02	-2.147140e+01
1.577971e+02	-2.152210e+01
1.587085e+02	-2.157508e+01
1.596252e+02	-2.162413e+01
1.605472e+02	-2.167231e+01
1.614745e+02	-2.172214e+01
1.624072e+02	-2.177297e+01
1.633453e+02	-2.182271e+01
1.642887e+02	-2.187197e+01
1.652377e+02	-2.192063e+01
1.661921e+02	-2.197086e+01
1.671520e+02	-2.201974e+01
1.681175e+02	-2.206910e+01
1.690885e+02	-2.211912e+01
1.700651e+02	-2.216915e+01
1.710474e+02	-2.221981e+01
1.720354e+02	-2.226940e+01
1.730291e+02	-2.231964e+01
1.740285e+02	-2.236890e+01
1.750337e+02	-2.241871e+01
1.760446e+02	-2.246931e+01
1.770615e+02	-2.251805e+01
1.780842e+02	-2.256888e+01
1.791128e+02	-2.261683e+01
1.801473e+02	-2.266754e+01
1.811878e+02	-2.271603e+01
1.822344e+02	-2.276505e+01
1.832870e+02	-2.281542e+01
1.843456e+02	-2.286860e+01
1.854104e+02	-2.291514e+01
1.864813e+02	-2.296836e+01
1.875584e+02	-2.301593e+01
1.886418e+02	-2.306602e+01
1.897313e+02	-2.311384e+01
1.908272e+02	-2.316516e+01
1.919294e+02	-2.321551e+01
1.930380e+02	-2.326645e+01
1.941530e+02	-2.331315e+01
1.952744e+02	-2.336537e+01
1.964023e+02	-2.341528e+01
1.975367e+02	-2.346542e+01
1.986777e+02	-2.351362e+01
1.998252e+02	-2.356325e+01
2.009794e+02	-2.361374e+01
2.021403e+02	-2.366490e+01
2.033078e+02	-2.371385e+01
2.044821e+02	-2.376384e+01
2.056632e+02	-2.381642e+01
2.068511e+02	-2.386504e+01
2.080459e+02	-2.391080e+01
2.092475e+02	-2.396128e+01
2.104561e+02	-2.401338e+01
2.116717e+02	-2.406555e+01
2.128943e+02	-2.411211e+01
2.141240e+02	-2.416129e+01
2.153608e+02	-2.420910e+01
2.166047e+02	-2.426005e+01
2.178558e+02	-2.430976e+01
2.191141e+02	-2.436035e+01
2.203797e+02	-2.440922e+01
2.216526e+02	-2.446203e+01
2.229329e+02	-2.451158e+01
2.242205e+02	-2.456059e+01
2.255156e+02	-2.461189e+01
2.268182e+02	-2.466157e+01
2.281283e+02	-2.470930e+01
2.294459e+02	-2.476070e+01
2.307712e+02	-2.480941e+01
2.321041e+02	-2.486274e+01
2.334447e+02	-2.490977e+01
2.347931e+02	-2.496015e+01
2.361493e+02	-2.501409e+01
2.375133e+02	-2.506001e+01
2.388851e+02	-2.510819e+01
2.402649e+02	-2.516069e+01
2.416527e+02	-2.520952e+01
2.430484e+02	-2.526042e+01
2.444523e+02	-2.530975e+01
2.458642e+02	-2.536090e+01
2.472843e+02	-2.540680e+01
2.487126e+02	-2.545942e+01
2.501492e+02	-2.550911e+01
2.515940e+02	-2.555637e+01
2.530472e+02	-2.560900e+01
2.545088e+02	-2.565994e+01
2.559789e+02	-2.570708e+01
2.574574e+02	-2.575788e+01
2.589444e+02	-2.580849e+01
2.604401e+02	-2.585881e+01
2.619444e+02	-2.590674e+01
2.634574e+02	-2.595816e+01
2.649791e+02	-2.600873e+01
2.665096e+02	-2.605947e+01
2.680489e+02	-2.610512e+01
2.695972e+02	-2.615758e+01
2.711544e+02	-2.621005e+01
2.727205e+02	-2.626266e+01
2.742958e+02	-2.631073e+01
2.758801e+02	-2.635758e+01
2.774736e+02	-2.640764e+01
2.790762e+02	-2.645912e+01
2.806882e+02	-2.650956e+01
2.823094e+02	-2.655754e+01
2.839400e+02	-2.660638e+01
2.855800e+02	-2.665428e+01
2.872295e+02	-2.671039e+01
2.888886e+02	-2.675843e+01
2.905572e+02	-2.680927e+01
2.922354e+02	-2.685711e+01
2.939234e+02	-2.690868e+01
2.956211e+02	-2.695755e+01
2.973286e+02	-2.700866e+01
2.990459e+02	-2.705772e+01
3.007732e+02	-2.710798e+01
3.025104e+02	-2.715934e+01
3.042577e+02	-2.720794e+01
3.060151e+02	-2.725738e+01
3.077826e+02	-2.730392e+01
3.095604e+02	-2.735633e+01
3.113484e+02	-2.740591e+01
3.131467e+02	-2.746141e+01
3.149554e+02	-2.750927e+01
3.167746e+02	-2.755689e+01
3.186043e+02	-2.760848e+01
3.204445e+02	-2.765834e+01
3.222954e+02	-2.770724e+01
3.241570e+02	-2.776012e+01
3.260293e+02	-2.780793e+01
3.279124e+02	-2.785759e+01
3.298064e+02	-2.791260e+01
3.317114e+02	-2.795730e+01
3.336273e+02	-2.801015e+01
3.355544e+02	-2.805836e+01
3.374925e+02	-2.810988e+01
3.394418e+02	-2.816126e+01
3.414024e+02	-2.820662e+01
3.433744e+02	-2.825622e+01
3.453577e+02	-2.830786e+01
3.473525e+02	-2.835945e+01
3.493588e+02	-2.841188e+01
3.513766e+02	-2.846033e+01
3.534062e+02	-2.850760e+01
3.554474e+02	-2.855790e+01
3.575005e+02	-2.860917e+01
3.595654e+02	-2.865820e+01
3.616422e+02	-2.871261e+01
3.637311e+02	-2.875543e+01
3.658320e+02	-2.881167e+01
3.679450e+02	-2.886251e+01
3.700702e+02	-2.890885e+01
3.722077e+02	-2.896240e+01
3.743576e+02	-2.901140e+01
3.765199e+02	-2.906005e+01
3.786946e+02	-2.911235e+01
3.808820e+02	-2.916240e+01
3.830819e+02	-2.921268e+01
3.852946e+02	-2.925894e+01
3.875200e+02	-2.930799e+01
3.897583e+02	-2.935808e+01
3.920096e+02	-2.940929e+01
3.942738e+02	-2.946041e+01
3.965511e+02	-2.951107e+01
3.988416e+02	-2.955884e+01
4.011452e+02	-2.960959e+01
4.034622e+02	-2.965800e+01
4.057926e+02	-2.970855e+01
4.081365e+02	-2.975987e+01
4.104938e+02	-2.981408e+01
4.128648e+02	-2.985583e+01
4.152495e+02	-2.990894e+01
4.176480e+02	-2.995863e+01
4.200603e+02	-3.000522e+01
4.224866e+02	-3.006015e+01
4.249268e+02	-3.010892e+01
4.273812e+02	-3.016296e+01
4.298497e+02	-3.020732e+01
4.323325e+02	-3.026562e+01
4.348297e+02	-3.030762e+01
4.373412e+02	-3.036383e+01
4.398673e+02	-3.041001e+01
4.424079e+02	-3.046675e+01
4.449633e+02	-3.050810e+01
4.475334e+02	-3.055711e+01
4.501183e+02	-3.060892e+01
4.527182e+02	-3.066437e+01
4.553330e+02	-3.071216e+01
4.579630e+02	-3.076441e+01
4.606082e+02	-3.081047e+01
4.632687e+02	-3.086069e+01
4.659445e+02	-3.091070e+01
4.686358e+02	-3.096308e+01
4.713426e+02	-3.101450e+01
4.740650e+02	-3.106531e+01
4.768032e+02	-3.111485e+01
4.795572e+02	-3.115702e+01
4.823271e+02	-3.121119e+01
4.851130e+02	-3.126079e+01
4.879150e+02	-3.131245e+01
4.907332e+02	-3.136502e+01
4.935676e+02	-3.141358e+01
4.964185e+02	-3.146292e+01
4.992858e+02	-3.151076e+01
5.021696e+02	-3.156061e+01
5.050701e+02	-3.161893e+01
5.079874e+02	-3.166531e+01
5.109215e+02	-3.171093e+01
5.138726e+02	-3.176319e+01
5.168407e+02	-3.181420e+01
5.198259e+02	-3.186249e+01
5.228284e+02	-3.191639e+01
5.258482e+02	-3.197105e+01
5.288855e+02	-3.201323e+01
5.319403e+02	-3.206489e+01
5.350128e+02	-3.211487e+01
5.381030e+02	-3.216833e+01
5.412111e+02	-3.222343e+01
5.443371e+02	-3.226825e+01
5.474812e+02	-3.231243e+01
5.506434e+02	-3.236641e+01
5.538239e+02	-3.241779e+01
5.570228e+02	-3.247126e+01
5.602401e+02	-3.251486e+01
5.634760e+02	-3.256252e+01
5.667306e+02	-3.261705e+01
5.700040e+02	-3.267608e+01
5.732964e+02	-3.272001e+01
5.766077e+02	-3.277181e+01
5.799382e+02	-3.282054e+01
5.832879e+02	-3.286513e+01
5.866569e+02	-3.292626e+01
5.900454e+02	-3.297158e+01
5.934535e+02	-3.302297e+01
5.968813e+02	-3.307451e+01
6.003288e+02	-3.312523e+01
6.037963e+02	-3.316912e+01
6.072838e+02	-3.321993e+01
6.107914e+02	-3.326747e+01
6.143194e+02	-3.331739e+01
6.178676e+02	-3.337401e+01
6.214364e+02	-3.342239e+01
6.250258e+02	-3.346581e+01
6.286359e+02	-3.352486e+01
6.322669e+02	-3.357741e+01
6.359189e+02	-3.362284e+01
6.395919e+02	-3.367206e+01
6.432862e+02	-3.372149e+01
6.470017e+02	-3.377852e+01
6.507388e+02	-3.382849e+01
6.544974e+02	-3.387610e+01
6.582778e+02	-3.392878e+01
6.620800e+02	-3.397826e+01
6.659041e+02	-3.402723e+01
6.697504e+02	-3.407677e+01
6.736188e+02	-3.412986e+01
6.775096e+02	-3.417246e+01
6.814229e+02	-3.422568e+01
6.853587e+02	-3.427536e+01
6.893173e+02	-3.432374e+01
6.932988e+02	-3.438246e+01
6.973033e+02	-3.443039e+01
7.013309e+02	-3.448462e+01
