Frequency(Hz)	Magnitude(dB)
1.000000e+01	-2.120981e+00
1.005776e+01	-2.140059e+00
1.011585e+01	-2.159676e+00
1.017428e+01	-2.179288e+00
1.023305e+01	-2.199264e+00
1.029215e+01	-2.219147e+00
1.035160e+01	-2.239165e+00
1.041139e+01	-2.259248e+00
1.047153e+01	-2.279766e+00
1.053201e+01	-2.300177e+00
1.059284e+01	-2.320749e+00
1.065403e+01	-2.341589e+00
1.071556e+01	-2.362729e+00
1.077746e+01	-2.383730e+00
1.083971e+01	-2.404719e+00
1.090232e+01	-2.426205e+00
1.096529e+01	-2.447712e+00
1.102862e+01	-2.469400e+00
1.109232e+01	-2.490967e+00
1.115639e+01	-2.513325e+00
1.122083e+01	-2.535078e+00
1.128564e+01	-2.556992e+00
1.135083e+01	-2.579391e+00
1.141639e+01	-2.602046e+00
1.148233e+01	-2.624647e+00
1.154865e+01	-2.647278e+00
1.161536e+01	-2.670004e+00
1.168245e+01	-2.693387e+00
1.174992e+01	-2.716609e+00
1.181779e+01	-2.740015e+00
1.188605e+01	-2.763534e+00
1.195470e+01	-2.786982e+00
1.202375e+01	-2.810872e+00
1.209320e+01	-2.834605e+00
1.216305e+01	-2.858653e+00
1.223330e+01	-2.882892e+00
1.230396e+01	-2.907181e+00
1.237503e+01	-2.931836e+00
1.244651e+01	-2.956294e+00
1.251840e+01	-2.981123e+00
1.259070e+01	-3.006129e+00
1.266343e+01	-3.031199e+00
1.273657e+01	-3.056363e+00
1.281014e+01	-3.081563e+00
1.288413e+01	-3.107144e+00
1.295855e+01	-3.132747e+00
1.303339e+01	-3.158591e+00
1.310867e+01	-3.184636e+00
1.318439e+01	-3.210546e+00
1.326054e+01	-3.237045e+00
1.333713e+01	-3.263293e+00
1.341417e+01	-3.289763e+00
1.349165e+01	-3.316173e+00
1.356958e+01	-3.343000e+00
1.364795e+01	-3.370062e+00
1.372678e+01	-3.397125e+00
1.380607e+01	-3.424430e+00
1.388581e+01	-3.451657e+00
1.396602e+01	-3.479241e+00
1.404668e+01	-3.506761e+00
1.412782e+01	-3.534794e+00
1.420942e+01	-3.562413e+00
1.429149e+01	-3.590459e+00
1.437404e+01	-3.618892e+00
1.445706e+01	-3.647297e+00
1.454057e+01	-3.675392e+00
1.462455e+01	-3.704016e+00
1.470902e+01	-3.733074e+00
1.479398e+01	-3.761902e+00
1.487943e+01	-3.791076e+00
1.496537e+01	-3.820212e+00
1.505181e+01	-3.849388e+00
1.513875e+01	-3.879029e+00
1.522619e+01	-3.908687e+00
1.531414e+01	-3.938426e+00
1.540259e+01	-3.968301e+00
1.549156e+01	-3.998321e+00
1.558103e+01	-4.028799e+00
1.567103e+01	-4.058820e+00
1.576155e+01	-4.089118e+00
1.585258e+01	-4.119947e+00
1.594415e+01	-4.150505e+00
1.603624e+01	-4.181425e+00
1.612886e+01	-4.212289e+00
1.622202e+01	-4.243732e+00
1.631572e+01	-4.275097e+00
1.640996e+01	-4.306312e+00
1.650474e+01	-4.337678e+00
1.660008e+01	-4.369388e+00
1.669596e+01	-4.401288e+00
1.679239e+01	-4.433103e+00
1.688938e+01	-4.465154e+00
1.698694e+01	-4.497646e+00
1.708505e+01	-4.529402e+00
1.718373e+01	-4.562164e+00
1.728299e+01	-4.594549e+00
1.738281e+01	-4.627398e+00
1.748322e+01	-4.660399e+00
1.758420e+01	-4.693266e+00
1.768576e+01	-4.726484e+00
1.778792e+01	-4.759772e+00
1.789066e+01	-4.793434e+00
1.799399e+01	-4.826425e+00
1.809793e+01	-4.859776e+00
1.820246e+01	-4.894077e+00
1.830760e+01	-4.928019e+00
1.841334e+01	-4.961713e+00
1.851969e+01	-4.995933e+00
1.862666e+01	-5.030353e+00
1.873425e+01	-5.064728e+00
1.884246e+01	-5.099232e+00
1.895129e+01	-5.133511e+00
1.906075e+01	-5.168460e+00
1.917085e+01	-5.203491e+00
1.928158e+01	-5.237883e+00
1.939295e+01	-5.273601e+00
1.950496e+01	-5.308869e+00
1.961762e+01	-5.344114e+00
1.973093e+01	-5.379606e+00
1.984490e+01	-5.414908e+00
1.995952e+01	-5.450898e+00
2.007480e+01	-5.486481e+00
2.019076e+01	-5.522686e+00
2.030738e+01	-5.558369e+00
2.042467e+01	-5.594759e+00
2.054264e+01	-5.631063e+00
2.066130e+01	-5.667345e+00
2.078064e+01	-5.703932e+00
2.090066e+01	-5.740575e+00
2.102139e+01	-5.777360e+00
2.114280e+01	-5.814282e+00
2.126492e+01	-5.851250e+00
2.138775e+01	-5.888568e+00
2.151128e+01	-5.925378e+00
2.163553e+01	-5.963089e+00
2.176050e+01	-6.000199e+00
2.188619e+01	-6.037529e+00
2.201260e+01	-6.075372e+00
2.213974e+01	-6.113118e+00
2.226762e+01	-6.150705e+00
2.239624e+01	-6.188707e+00
2.252560e+01	-6.226740e+00
2.265571e+01	-6.264989e+00
2.278656e+01	-6.303113e+00
2.291818e+01	-6.340954e+00
2.305055e+01	-6.379913e+00
2.318369e+01	-6.418752e+00
2.331760e+01	-6.457547e+00
2.345228e+01	-6.496162e+00
2.358774e+01	-6.534753e+00
2.372398e+01	-6.573888e+00
2.386101e+01	-6.612710e+00
2.399883e+01	-6.651926e+00
2.413745e+01	-6.691456e+00
2.427686e+01	-6.730634e+00
2.441709e+01	-6.770236e+00
2.455812e+01	-6.809845e+00
2.469997e+01	-6.849497e+00
2.484263e+01	-6.889172e+00
2.498612e+01	-6.928945e+00
2.513044e+01	-6.968740e+00
2.527559e+01	-7.008841e+00
2.542158e+01	-7.048820e+00
2.556842e+01	-7.088922e+00
2.571610e+01	-7.129617e+00
2.586463e+01	-7.169915e+00
2.601403e+01	-7.210250e+00
2.616428e+01	-7.251245e+00
2.631541e+01	-7.291446e+00
2.646740e+01	-7.332566e+00
2.662028e+01	-7.373225e+00
2.677404e+01	-7.413886e+00
2.692868e+01	-7.454801e+00
2.708422e+01	-7.495682e+00
2.724066e+01	-7.537187e+00
2.739800e+01	-7.578762e+00
2.755625e+01	-7.619771e+00
2.771541e+01	-7.661473e+00
2.787550e+01	-7.702975e+00
2.803650e+01	-7.744558e+00
2.819844e+01	-7.786117e+00
2.836131e+01	-7.827906e+00
2.852513e+01	-7.869396e+00
2.868989e+01	-7.911249e+00
2.885560e+01	-7.953390e+00
2.902227e+01	-7.995237e+00
2.918990e+01	-8.037502e+00
2.935850e+01	-8.079612e+00
2.952807e+01	-8.122543e+00
2.969863e+01	-8.164643e+00
2.987016e+01	-8.206982e+00
3.004269e+01	-8.249206e+00
3.021622e+01	-8.291897e+00
3.039075e+01	-8.334191e+00
3.056628e+01	-8.377194e+00
3.074283e+01	-8.419861e+00
3.092040e+01	-8.462800e+00
3.109900e+01	-8.505517e+00
3.127862e+01	-8.548798e+00
3.145929e+01	-8.592262e+00
3.164099e+01	-8.635001e+00
3.182375e+01	-8.678115e+00
3.200756e+01	-8.721829e+00
3.219244e+01	-8.765073e+00
3.237838e+01	-8.808776e+00
3.256540e+01	-8.851750e+00
3.275349e+01	-8.895550e+00
3.294268e+01	-8.938810e+00
3.313295e+01	-8.982574e+00
3.332433e+01	-9.026581e+00
3.351681e+01	-9.070322e+00
3.371040e+01	-9.114024e+00
3.390511e+01	-9.157875e+00
3.410094e+01	-9.201894e+00
3.429791e+01	-9.245516e+00
3.449601e+01	-9.289689e+00
3.469526e+01	-9.334111e+00
3.489566e+01	-9.378289e+00
3.509721e+01	-9.422829e+00
3.529993e+01	-9.466965e+00
3.550382e+01	-9.511723e+00
3.570889e+01	-9.555896e+00
3.591515e+01	-9.600107e+00
3.612259e+01	-9.644798e+00
3.633123e+01	-9.689930e+00
3.654108e+01	-9.734445e+00
3.675214e+01	-9.778845e+00
3.696442e+01	-9.824283e+00
3.717792e+01	-9.868423e+00
3.739266e+01	-9.913898e+00
3.760864e+01	-9.958789e+00
3.782587e+01	-1.000354e+01
3.804435e+01	-1.004849e+01
3.826409e+01	-1.009386e+01
3.848510e+01	-1.013900e+01
3.870739e+01	-1.018415e+01
3.893096e+01	-1.022953e+01
3.915583e+01	-1.027445e+01
3.938199e+01	-1.032006e+01
3.960946e+01	-1.036540e+01
3.983824e+01	-1.041053e+01
4.006834e+01	-1.045634e+01
4.029978e+01	-1.050197e+01
4.053255e+01	-1.054741e+01
4.076666e+01	-1.059278e+01
4.100213e+01	-1.063941e+01
4.123896e+01	-1.068413e+01
4.147715e+01	-1.073033e+01
4.171672e+01	-1.077584e+01
4.195767e+01	-1.082199e+01
4.220002e+01	-1.086808e+01
4.244377e+01	-1.091406e+01
4.268892e+01	-1.095996e+01
4.293549e+01	-1.100558e+01
4.318348e+01	-1.105233e+01
4.343291e+01	-1.109848e+01
4.368377e+01	-1.114431e+01
4.393609e+01	-1.119051e+01
4.418986e+01	-1.123688e+01
4.444510e+01	-1.128337e+01
4.470182e+01	-1.132969e+01
4.496001e+01	-1.137622e+01
4.521970e+01	-1.142187e+01
4.548089e+01	-1.146852e+01
4.574358e+01	-1.151469e+01
4.600779e+01	-1.156124e+01
4.627353e+01	-1.160855e+01
4.654081e+01	-1.165447e+01
4.680963e+01	-1.170088e+01
4.708000e+01	-1.174833e+01
4.735193e+01	-1.179412e+01
4.762543e+01	-1.184091e+01
4.790051e+01	-1.188769e+01
4.817719e+01	-1.193479e+01
4.845545e+01	-1.198177e+01
4.873533e+01	-1.202814e+01
4.901682e+01	-1.207602e+01
4.929994e+01	-1.212262e+01
4.958470e+01	-1.216897e+01
4.987110e+01	-1.221653e+01
5.015915e+01	-1.226317e+01
5.044887e+01	-1.231068e+01
5.074026e+01	-1.235810e+01
5.103333e+01	-1.240396e+01
5.132810e+01	-1.245223e+01
5.162457e+01	-1.249968e+01
5.192275e+01	-1.254684e+01
5.222265e+01	-1.259344e+01
5.252429e+01	-1.264045e+01
5.282767e+01	-1.268817e+01
5.313280e+01	-1.273591e+01
5.343969e+01	-1.278357e+01
5.374836e+01	-1.283020e+01
5.405880e+01	-1.287799e+01
5.437105e+01	-1.292499e+01
5.468509e+01	-1.297229e+01
5.500095e+01	-1.302078e+01
5.531863e+01	-1.306811e+01
5.563815e+01	-1.311554e+01
5.595951e+01	-1.316312e+01
5.628273e+01	-1.321070e+01
5.660782e+01	-1.325858e+01
5.693479e+01	-1.330621e+01
5.726364e+01	-1.335300e+01
5.759439e+01	-1.340110e+01
5.792705e+01	-1.344973e+01
5.826164e+01	-1.349690e+01
5.859815e+01	-1.354494e+01
5.893662e+01	-1.359208e+01
5.927703e+01	-1.364089e+01
5.961941e+01	-1.368910e+01
5.996377e+01	-1.373655e+01
6.031012e+01	-1.378437e+01
6.065847e+01	-1.383206e+01
6.100883e+01	-1.387882e+01
6.136121e+01	-1.392876e+01
6.171563e+01	-1.397648e+01
6.207210e+01	-1.402398e+01
6.243063e+01	-1.407235e+01
6.279122e+01	-1.412045e+01
6.315390e+01	-1.416779e+01
6.351868e+01	-1.421696e+01
6.388556e+01	-1.426516e+01
6.425456e+01	-1.431335e+01
6.462569e+01	-1.436044e+01
6.499897e+01	-1.440898e+01
6.537440e+01	-1.445777e+01
6.575200e+01	-1.450574e+01
6.613178e+01	-1.455398e+01
6.651375e+01	-1.460265e+01
6.689793e+01	-1.465042e+01
6.728433e+01	-1.469838e+01
6.767297e+01	-1.474775e+01
6.806384e+01	-1.479511e+01
6.845698e+01	-1.484320e+01
6.885238e+01	-1.489217e+01
6.925007e+01	-1.494105e+01
6.965005e+01	-1.498907e+01
7.005235e+01	-1.503746e+01
7.045697e+01	-1.508565e+01
7.086393e+01	-1.513629e+01
7.127323e+01	-1.518189e+01
7.168490e+01	-1.523134e+01
7.209895e+01	-1.528050e+01
7.251539e+01	-1.532804e+01
7.293424e+01	-1.537673e+01
7.335551e+01	-1.542695e+01
7.377920e+01	-1.547416e+01
7.420535e+01	-1.552235e+01
7.463396e+01	-1.557219e+01
7.506504e+01	-1.562051e+01
7.549861e+01	-1.566878e+01
7.593469e+01	-1.571643e+01
7.637328e+01	-1.576689e+01
7.681441e+01	-1.581508e+01
7.725809e+01	-1.586368e+01
7.770433e+01	-1.591272e+01
7.815315e+01	-1.596077e+01
7.860456e+01	-1.600994e+01
7.905857e+01	-1.605957e+01
7.951521e+01	-1.610809e+01
7.997449e+01	-1.615603e+01
8.043642e+01	-1.620578e+01
8.090102e+01	-1.625497e+01
8.136830e+01	-1.630264e+01
8.183828e+01	-1.635173e+01
8.231097e+01	-1.640151e+01
8.278640e+01	-1.644942e+01
8.326457e+01	-1.649764e+01
8.374550e+01	-1.654757e+01
8.422921e+01	-1.659547e+01
8.471572e+01	-1.664561e+01
8.520503e+01	-1.669388e+01
8.569717e+01	-1.674202e+01
8.619215e+01	-1.679222e+01
8.669000e+01	-1.684122e+01
8.719071e+01	-1.688988e+01
8.769432e+01	-1.693897e+01
8.820084e+01	-1.698780e+01
8.871029e+01	-1.703690e+01
8.922267e+01	-1.708614e+01
8.973802e+01	-1.713646e+01
9.025634e+01	-1.718398e+01
9.077766e+01	-1.723317e+01
9.130199e+01	-1.728243e+01
9.182935e+01	-1.733197e+01
9.235975e+01	-1.738081e+01
9.289321e+01	-1.743054e+01
9.342976e+01	-1.747951e+01
9.396941e+01	-1.752915e+01
9.451217e+01	-1.757720e+01
9.505807e+01	-1.762628e+01
9.560712e+01	-1.767530e+01
9.615934e+01	-1.772519e+01
9.671476e+01	-1.777480e+01
9.727338e+01	-1.782365e+01
9.783522e+01	-1.787346e+01
9.840032e+01	-1.792115e+01
9.896867e+01	-1.797106e+01
9.954031e+01	-1.802060e+01
1.001153e+02	-1.807050e+01
1.006935e+02	-1.811796e+01
1.012751e+02	-1.816862e+01
1.018601e+02	-1.821630e+01
1.024484e+02	-1.826697e+01
1.030402e+02	-1.831564e+01
1.036353e+02	-1.836476e+01
1.042339e+02	-1.841441e+01
1.048360e+02	-1.846486e+01
1.054415e+02	-1.851324e+01
1.060505e+02	-1.856297e+01
1.066631e+02	-1.861203e+01
1.072791e+02	-1.866045e+01
1.078988e+02	-1.870947e+01
1.085220e+02	-1.875882e+01
1.091488e+02	-1.881006e+01
1.097793e+02	-1.885780e+01
1.104133e+02	-1.890705e+01
1.110511e+02	-1.895809e+01
1.116925e+02	-1.900643e+01
1.123376e+02	-1.905695e+01
1.129865e+02	-1.910498e+01
1.136391e+02	-1.915327e+01
1.142955e+02	-1.920538e+01
1.149556e+02	-1.925525e+01
1.156196e+02	-1.930424e+01
1.162874e+02	-1.935305e+01
1.169591e+02	-1.940265e+01
1.176347e+02	-1.945192e+01
1.183141e+02	-1.950074e+01
1.189975e+02	-1.954966e+01
1.196848e+02	-1.960008e+01
1.203761e+02	-1.965007e+01
1.210714e+02	-1.969912e+01
1.217707e+02	-1.974939e+01
1.224740e+02	-1.979748e+01
1.231814e+02	-1.984839e+01
1.238929e+02	-1.989792e+01
1.246085e+02	-1.994571e+01
1.253283e+02	-1.999689e+01
1.260522e+02	-2.004530e+01
1.267802e+02	-2.009655e+01
1.275125e+02	-2.014536e+01
1.282490e+02	-2.019451e+01
1.289898e+02	-2.024373e+01
1.297348e+02	-2.029317e+01
1.304842e+02	-2.034231e+01
1.312378e+02	-2.039203e+01
1.319959e+02	-2.044266e+01
1.327583e+02	-2.048970e+01
1.335251e+02	-2.054210e+01
1.342963e+02	-2.059079e+01
1.350720e+02	-2.063989e+01
1.358522e+02	-2.068970e+01
1.366368e+02	-2.074042e+01
1.374260e+02	-2.078926e+01
1.382198e+02	-2.083949e+01
1.390182e+02	-2.088810e+01
1.398211e+02	-2.093685e+01
1.406287e+02	-2.098786e+01
1.414410e+02	-2.103650e+01
1.422579e+02	-2.108680e+01
1.430796e+02	-2.113605e+01
1.439060e+02	-2.118750e+01
1.447372e+02	-2.123573e+01
1.455732e+02	-2.128585e+01
1.464141e+02	-2.133477e+01
1.472597e+02	-2.138393e+01
1.481103e+02	-2.143566e+01
1.489658e+02	-2.148442e+01
1.498262e+02	-2.153460e+01
1.506916e+02	-2.158378e+01
1.515620e+02	-2.163440e+01
1.524374e+02	-2.168374e+01
1.533179e+02	-2.173221e+01
1.542034e+02	-2.178189e+01
1.550941e+02	-2.183302e+01
1.559899e+02	-2.188167e+01
1.568909e+02	-2.193318e+01
1.577971e+02	-2.198015e+01
1.587085e+02	-2.203219e+01
1.596252e+02	-2.208281e+01
1.605472e+02	-2.212960e+01
1.614745e+02	-2.218189e+01
1.624072e+02	-2.222938e+01
1.633453e+02	-2.228034e+01
1.642887e+02	-2.233044e+01
1.652377e+02	-2.238068e+01
1.661921e+02	-2.242871e+01
1.671520e+02	-2.247979e+01
1.681175e+02	-2.253017e+01
1.690885e+02	-2.257804e+01
1.700651e+02	-2.262828e+01
1.710474e+02	-2.267831e+01
1.720354e+02	-2.272882e+01
1.730291e+02	-2.277873e+01
1.740285e+02	-2.282798e+01
1.750337e+02	-2.287710e+01
1.760446e+02	-2.292742e+01
1.770615e+02	-2.297750e+01
1.780842e+02	-2.302665e+01
1.791128e+02	-2.307507e+01
1.801473e+02	-2.312670e+01
1.811878e+02	-2.317749e+01
1.822344e+02	-2.322489e+01
1.832870e+02	-2.327522e+01
1.843456e+02	-2.332520e+01
1.854104e+02	-2.337575e+01
1.864813e+02	-2.342430e+01
1.875584e+02	-2.347404e+01
1.886418e+02	-2.352396e+01
1.897313e+02	-2.357497e+01
1.908272e+02	-2.362453e+01
1.919294e+02	-2.367282e+01
1.930380e+02	-2.372282e+01
1.941530e+02	-2.377212e+01
1.952744e+02	-2.382260e+01
1.964023e+02	-2.387541e+01
1.975367e+02	-2.392554e+01
1.986777e+02	-2.397455e+01
1.998252e+02	-2.402220e+01
2.009794e+02	-2.407266e+01
2.021403e+02	-2.412312e+01
2.033078e+02	-2.417297e+01
2.044821e+02	-2.422440e+01
2.056632e+02	-2.427295e+01
2.068511e+02	-2.431904e+01
2.080459e+02	-2.437123e+01
2.092475e+02	-2.442043e+01
2.104561e+02	-2.447241e+01
2.116717e+02	-2.452139e+01
2.128943e+02	-2.457282e+01
2.141240e+02	-2.462022e+01
2.153608e+02	-2.466964e+01
2.166047e+02	-2.472226e+01
2.178558e+02	-2.477089e+01
2.191141e+02	-2.482297e+01
2.203797e+02	-2.487169e+01
2.216526e+02	-2.492259e+01
2.229329e+02	-2.497359e+01
2.242205e+02	-2.502293e+01
2.255156e+02	-2.507246e+01
2.268182e+02	-2.511962e+01
2.281283e+02	-2.517233e+01
2.294459e+02	-2.522138e+01
2.307712e+02	-2.527145e+01
2.321041e+02	-2.531861e+01
2.334447e+02	-2.536662e+01
2.347931e+02	-2.541897e+01
2.361493e+02	-2.546864e+01
2.375133e+02	-2.552127e+01
2.388851e+02	-2.556998e+01
2.402649e+02	-2.561896e+01
2.416527e+02	-2.566993e+01
2.430484e+02	-2.572194e+01
2.444523e+02	-2.577069e+01
2.458642e+02	-2.581980e+01
2.472843e+02	-2.586702e+01
2.487126e+02	-2.592329e+01
2.501492e+02	-2.597013e+01
2.515940e+02	-2.601888e+01
2.530472e+02	-2.606787e+01
2.545088e+02	-2.611804e+01
2.559789e+02	-2.616874e+01
2.574574e+02	-2.622132e+01
2.589444e+02	-2.626551e+01
2.604401e+02	-2.632149e+01
2.619444e+02	-2.637221e+01
2.634574e+02	-2.641951e+01
2.649791e+02	-2.646718e+01
2.665096e+02	-2.651886e+01
2.680489e+02	-2.656689e+01
2.695972e+02	-2.661826e+01
2.711544e+02	-2.666940e+01
2.727205e+02	-2.671876e+01
2.742958e+02	-2.676542e+01
2.758801e+02	-2.681889e+01
2.774736e+02	-2.686888e+01
2.790762e+02	-2.691880e+01
2.806882e+02	-2.696965e+01
2.823094e+02	-2.701580e+01
2.839400e+02	-2.706568e+01
2.855800e+02	-2.712165e+01
2.872295e+02	-2.716559e+01
2.888886e+02	-2.721665e+01
2.905572e+02	-2.726461e+01
2.922354e+02	-2.731856e+01
2.939234e+02	-2.737007e+01
2.956211e+02	-2.742199e+01
2.973286e+02	-2.746824e+01
2.990459e+02	-2.752008e+01
3.007732e+02	-2.757013e+01
3.025104e+02	-2.761978e+01
3.042577e+02	-2.767298e+01
3.060151e+02	-2.771814e+01
3.077826e+02	-2.777252e+01
3.095604e+02	-2.782057e+01
3.113484e+02	-2.786834e+01
3.131467e+02	-2.791642e+01
3.149554e+02	-2.796669e+01
3.167746e+02	-2.801892e+01
3.186043e+02	-2.807010e+01
3.204445e+02	-2.812198e+01
3.222954e+02	-2.816704e+01
3.241570e+02	-2.821903e+01
3.260293e+02	-2.827155e+01
3.279124e+02	-2.832317e+01
3.298064e+02	-2.836603e+01
3.317114e+02	-2.841820e+01
3.336273e+02	-2.846630e+01
3.355544e+02	-2.851579e+01
3.374925e+02	-2.856914e+01
3.394418e+02	-2.862030e+01
3.414024e+02	-2.866647e+01
3.433744e+02	-2.871914e+01
3.453577e+02	-2.876953e+01
3.473525e+02	-2.881954e+01
3.493588e+02	-2.887733e+01
3.513766e+02	-2.891633e+01
3.534062e+02	-2.896880e+01
3.554474e+02	-2.901881e+01
3.575005e+02	-2.906696e+01
3.595654e+02	-2.912057e+01
3.616422e+02	-2.916964e+01
3.637311e+02	-2.921614e+01
3.658320e+02	-2.927032e+01
3.679450e+02	-2.931885e+01
3.700702e+02	-2.937247e+01
3.722077e+02	-2.942086e+01
3.743576e+02	-2.946912e+01
3.765199e+02	-2.951999e+01
3.786946e+02	-2.957092e+01
3.808820e+02	-2.962181e+01
3.830819e+02	-2.967268e+01
3.852946e+02	-2.972102e+01
3.875200e+02	-2.976794e+01
3.897583e+02	-2.982299e+01
3.920096e+02	-2.987392e+01
3.942738e+02	-2.992199e+01
3.965511e+02	-2.996967e+01
3.988416e+02	-3.002161e+01
4.011452e+02	-3.007310e+01
4.034622e+02	-3.012012e+01
4.057926e+02	-3.016848e+01
4.081365e+02	-3.022319e+01
4.104938e+02	-3.027515e+01
4.128648e+02	-3.031926e+01
4.152495e+02	-3.037335e+01
4.176480e+02	-3.041877e+01
4.200603e+02	-3.047271e+01
4.224866e+02	-3.052087e+01
4.249268e+02	-3.056632e+01
4.273812e+02	-3.062250e+01
4.298497e+02	-3.067296e+01
4.323325e+02	-3.072350e+01
4.348297e+02	-3.077427e+01
4.373412e+02	-3.082628e+01
4.398673e+02	-3.087311e+01
4.424079e+02	-3.091993e+01
4.449633e+02	-3.097725e+01
4.475334e+02	-3.101984e+01
4.501183e+02	-3.107339e+01
4.527182e+02	-3.112035e+01
4.553330e+02	-3.118115e+01
4.579630e+02	-3.122254e+01
4.606082e+02	-3.127842e+01
4.632687e+02	-3.132269e+01
4.659445e+02	-3.137456e+01
4.686358e+02	-3.142718e+01
4.713426e+02	-3.147514e+01
4.740650e+02	-3.152243e+01
4.768032e+02	-3.157691e+01
4.795572e+02	-3.162250e+01
4.823271e+02	-3.168176e+01
4.851130e+02	-3.172468e+01
4.879150e+02	-3.177478e+01
4.907332e+02	-3.182935e+01
4.935676e+02	-3.187634e+01
4.964185e+02	-3.193055e+01
4.992858e+02	-3.197775e+01
5.021696e+02	-3.202162e+01
5.050701e+02	-3.207628e+01
5.079874e+02	-3.213031e+01
5.109215e+02	-3.218354e+01
5.138726e+02	-3.223101e+01
5.168407e+02	-3.227348e+01
5.198259e+02	-3.232823e+01
5.228284e+02	-3.238223e+01
5.258482e+02	-3.243769e+01
5.288855e+02	-3.248198e+01
5.319403e+02	-3.253088e+01
5.350128e+02	-3.257923e+01
5.381030e+02	-3.263647e+01
5.412111e+02	-3.268542e+01
5.443371e+02	-3.273720e+01
5.474812e+02	-3.276869e+01
5.506434e+02	-3.283559e+01
5.538239e+02	-3.287128e+01
5.570228e+02	-3.293139e+01
5.602401e+02	-3.298475e+01
5.634760e+02	-3.303017e+01
5.667306e+02	-3.308792e+01
5.700040e+02	-3.313590e+01
5.732964e+02	-3.318122e+01
5.766077e+02	-3.323405e+01
5.799382e+02	-3.328120e+01
5.832879e+02	-3.332373e+01
5.866569e+02	-3.338437e+01
5.900454e+02	-3.343745e+01
5.934535e+02	-3.349316e+01
5.968813e+02	-3.353597e+01
6.003288e+02	-3.358108e+01
6.037963e+02	-3.363463e+01
6.072838e+02	-3.368578e+01
6.107914e+02	-3.374044e+01
6.143194e+02	-3.377684e+01
6.178676e+02	-3.383963e+01
6.214364e+02	-3.388529e+01
6.250258e+02	-3.393929e+01
6.286359e+02	-3.398981e+01
6.322669e+02	-3.403878e+01
6.359189e+02	-3.408667e+01
6.395919e+02	-3.413295e+01
6.432862e+02	-3.419065e+01
6.470017e+02	-3.423604e+01
6.507388e+02	-3.429539e+01
6.544974e+02	-3.433933e+01
6.582778e+02	-3.438514e+01
6.620800e+02	-3.443507e+01
6.659041e+02	-3.449039e+01
6.697504e+02	-3.454093e+01
6.736188e+02	-3.458652e+01
6.775096e+02	-3.464711e+01
6.814229e+02	-3.469293e+01
6.853587e+02	-3.473765e+01
6.893173e+02	-3.479555e+01
6.932988e+02	-3.483751e+01
6.973033e+02	-3.489043e+01
7.013309e+02	-3.494521e+01
