Frequency(Hz)	Magnitude(dB)
1.000000e+01	-2.119582e+00
1.005776e+01	-2.138976e+00
1.011585e+01	-2.158338e+00
1.017428e+01	-2.177974e+00
1.023305e+01	-2.197809e+00
1.029215e+01	-2.217955e+00
1.035160e+01	-2.237838e+00
1.041139e+01	-2.258110e+00
1.047153e+01	-2.278511e+00
1.053201e+01	-2.299043e+00
1.059284e+01	-2.319417e+00
1.065403e+01	-2.340583e+00
1.071556e+01	-2.361338e+00
1.077746e+01	-2.382426e+00
1.083971e+01	-2.403721e+00
1.090232e+01	-2.424874e+00
1.096529e+01	-2.446279e+00
1.102862e+01	-2.467956e+00
1.109232e+01	-2.489642e+00
1.115639e+01	-2.511698e+00
1.122083e+01	-2.533613e+00
1.128564e+01	-2.555745e+00
1.135083e+01	-2.578377e+00
1.141639e+01	-2.600439e+00
1.148233e+01	-2.623345e+00
1.154865e+01	-2.645846e+00
1.161536e+01	-2.668936e+00
1.168245e+01	-2.691868e+00
1.174992e+01	-2.715099e+00
1.181779e+01	-2.738434e+00
1.188605e+01	-2.761853e+00
1.195470e+01	-2.785403e+00
1.202375e+01	-2.809484e+00
1.209320e+01	-2.833251e+00
1.216305e+01	-2.857419e+00
1.223330e+01	-2.881439e+00
1.230396e+01	-2.905657e+00
1.237503e+01	-2.930230e+00
1.244651e+01	-2.954881e+00
1.251840e+01	-2.979360e+00
1.259070e+01	-3.004570e+00
1.266343e+01	-3.029491e+00
1.273657e+01	-3.054885e+00
1.281014e+01	-3.080020e+00
1.288413e+01	-3.105518e+00
1.295855e+01	-3.131238e+00
1.303339e+01	-3.156859e+00
1.310867e+01	-3.182822e+00
1.318439e+01	-3.208697e+00
1.326054e+01	-3.235045e+00
1.333713e+01	-3.261553e+00
1.341417e+01	-3.288113e+00
1.349165e+01	-3.314709e+00
1.356958e+01	-3.341274e+00
1.364795e+01	-3.368377e+00
1.372678e+01	-3.395304e+00
1.380607e+01	-3.422492e+00
1.388581e+01	-3.450093e+00
1.396602e+01	-3.477558e+00
1.404668e+01	-3.504884e+00
1.412782e+01	-3.532450e+00
1.420942e+01	-3.560823e+00
1.429149e+01	-3.588758e+00
1.437404e+01	-3.616978e+00
1.445706e+01	-3.645325e+00
1.454057e+01	-3.673939e+00
1.462455e+01	-3.702531e+00
1.470902e+01	-3.731039e+00
1.479398e+01	-3.760313e+00
1.487943e+01	-3.789102e+00
1.496537e+01	-3.818482e+00
1.505181e+01	-3.847588e+00
1.513875e+01	-3.877099e+00
1.522619e+01	-3.906766e+00
1.531414e+01	-3.936621e+00
1.540259e+01	-3.966283e+00
1.549156e+01	-3.996286e+00
1.558103e+01	-4.026519e+00
1.567103e+01	-4.056923e+00
1.576155e+01	-4.087353e+00
1.585258e+01	-4.118053e+00
1.594415e+01	-4.148599e+00
1.603624e+01	-4.179689e+00
1.612886e+01	-4.210709e+00
1.622202e+01	-4.241574e+00
1.631572e+01	-4.272785e+00
1.640996e+01	-4.303921e+00
1.650474e+01	-4.335841e+00
1.660008e+01	-4.367408e+00
1.669596e+01	-4.399060e+00
1.679239e+01	-4.431072e+00
1.688938e+01	-4.463315e+00
1.698694e+01	-4.495408e+00
1.708505e+01	-4.527577e+00
1.718373e+01	-4.560223e+00
1.728299e+01	-4.592624e+00
1.738281e+01	-4.625458e+00
1.748322e+01	-4.658529e+00
1.758420e+01	-4.691282e+00
1.768576e+01	-4.724480e+00
1.778792e+01	-4.757655e+00
1.789066e+01	-4.790783e+00
1.799399e+01	-4.824422e+00
1.809793e+01	-4.857977e+00
1.820246e+01	-4.891843e+00
1.830760e+01	-4.925480e+00
1.841334e+01	-4.959766e+00
1.851969e+01	-4.994016e+00
1.862666e+01	-5.028255e+00
1.873425e+01	-5.062345e+00
1.884246e+01	-5.097194e+00
1.895129e+01	-5.131682e+00
1.906075e+01	-5.166363e+00
1.917085e+01	-5.201066e+00
1.928158e+01	-5.236224e+00
1.939295e+01	-5.271122e+00
1.950496e+01	-5.306454e+00
1.961762e+01	-5.341769e+00
1.973093e+01	-5.377234e+00
1.984490e+01	-5.412826e+00
1.995952e+01	-5.448602e+00
2.007480e+01	-5.484480e+00
2.019076e+01	-5.520433e+00
2.030738e+01	-5.556428e+00
2.042467e+01	-5.592679e+00
2.054264e+01	-5.628739e+00
2.066130e+01	-5.665337e+00
2.078064e+01	-5.701412e+00
2.090066e+01	-5.738403e+00
2.102139e+01	-5.775052e+00
2.114280e+01	-5.812124e+00
2.126492e+01	-5.848931e+00
2.138775e+01	-5.885946e+00
2.151128e+01	-5.922812e+00
2.163553e+01	-5.960379e+00
2.176050e+01	-5.998017e+00
2.188619e+01	-6.035353e+00
2.201260e+01	-6.072875e+00
2.213974e+01	-6.110757e+00
2.226762e+01	-6.148378e+00
2.239624e+01	-6.186212e+00
2.252560e+01	-6.224553e+00
2.265571e+01	-6.262643e+00
2.278656e+01	-6.301039e+00
2.291818e+01	-6.339078e+00
2.305055e+01	-6.377504e+00
2.318369e+01	-6.415899e+00
2.331760e+01	-6.454855e+00
2.345228e+01	-6.493551e+00
2.358774e+01	-6.532657e+00
2.372398e+01	-6.571509e+00
2.386101e+01	-6.610530e+00
2.399883e+01	-6.649472e+00
2.413745e+01	-6.689021e+00
2.427686e+01	-6.728248e+00
2.441709e+01	-6.767549e+00
2.455812e+01	-6.807486e+00
2.469997e+01	-6.847165e+00
2.484263e+01	-6.886972e+00
2.498612e+01	-6.926383e+00
2.513044e+01	-6.966405e+00
2.527559e+01	-7.006599e+00
2.542158e+01	-7.046288e+00
2.556842e+01	-7.086675e+00
2.571610e+01	-7.127102e+00
2.586463e+01	-7.167355e+00
2.601403e+01	-7.207581e+00
2.616428e+01	-7.248312e+00
2.631541e+01	-7.289367e+00
2.646740e+01	-7.329349e+00
2.662028e+01	-7.370414e+00
2.677404e+01	-7.411669e+00
2.692868e+01	-7.453059e+00
2.708422e+01	-7.493376e+00
2.724066e+01	-7.535010e+00
2.739800e+01	-7.575894e+00
2.755625e+01	-7.617490e+00
2.771541e+01	-7.658444e+00
2.787550e+01	-7.700246e+00
2.803650e+01	-7.741825e+00
2.819844e+01	-7.783743e+00
2.836131e+01	-7.825130e+00
2.852513e+01	-7.867050e+00
2.868989e+01	-7.908912e+00
2.885560e+01	-7.950961e+00
2.902227e+01	-7.993110e+00
2.918990e+01	-8.034661e+00
2.935850e+01	-8.077066e+00
2.952807e+01	-8.119352e+00
2.969863e+01	-8.161488e+00
2.987016e+01	-8.204087e+00
3.004269e+01	-8.246681e+00
3.021622e+01	-8.288585e+00
3.039075e+01	-8.331951e+00
3.056628e+01	-8.374824e+00
3.074283e+01	-8.417226e+00
3.092040e+01	-8.460087e+00
3.109900e+01	-8.502793e+00
3.127862e+01	-8.546156e+00
3.145929e+01	-8.589401e+00
3.164099e+01	-8.632263e+00
3.182375e+01	-8.675227e+00
3.200756e+01	-8.719084e+00
3.219244e+01	-8.762345e+00
3.237838e+01	-8.805871e+00
3.256540e+01	-8.848923e+00
3.275349e+01	-8.892747e+00
3.294268e+01	-8.936340e+00
3.313295e+01	-8.979761e+00
3.332433e+01	-9.023743e+00
3.351681e+01	-9.067641e+00
3.371040e+01	-9.111241e+00
3.390511e+01	-9.154971e+00
3.410094e+01	-9.199262e+00
3.429791e+01	-9.242902e+00
3.449601e+01	-9.287062e+00
3.469526e+01	-9.331272e+00
3.489566e+01	-9.375412e+00
3.509721e+01	-9.419871e+00
3.529993e+01	-9.464329e+00
3.550382e+01	-9.508900e+00
3.570889e+01	-9.553184e+00
3.591515e+01	-9.597604e+00
3.612259e+01	-9.642136e+00
3.633123e+01	-9.686918e+00
3.654108e+01	-9.731458e+00
3.675214e+01	-9.776632e+00
3.696442e+01	-9.820964e+00
3.717792e+01	-9.865945e+00
3.739266e+01	-9.910697e+00
3.760864e+01	-9.955623e+00
3.782587e+01	-1.000080e+01
3.804435e+01	-1.004604e+01
3.826409e+01	-1.009125e+01
3.848510e+01	-1.013585e+01
3.870739e+01	-1.018153e+01
3.893096e+01	-1.022622e+01
3.915583e+01	-1.027203e+01
3.938199e+01	-1.031739e+01
3.960946e+01	-1.036284e+01
3.983824e+01	-1.040790e+01
4.006834e+01	-1.045382e+01
4.029978e+01	-1.049910e+01
4.053255e+01	-1.054440e+01
4.076666e+01	-1.059046e+01
4.100213e+01	-1.063615e+01
4.123896e+01	-1.068179e+01
4.147715e+01	-1.072760e+01
4.171672e+01	-1.077292e+01
4.195767e+01	-1.081945e+01
4.220002e+01	-1.086542e+01
4.244377e+01	-1.091132e+01
4.268892e+01	-1.095633e+01
4.293549e+01	-1.100287e+01
4.318348e+01	-1.104859e+01
4.343291e+01	-1.109503e+01
4.368377e+01	-1.114142e+01
4.393609e+01	-1.118740e+01
4.418986e+01	-1.123386e+01
4.444510e+01	-1.127957e+01
4.470182e+01	-1.132660e+01
4.496001e+01	-1.137289e+01
4.521970e+01	-1.141976e+01
4.548089e+01	-1.146565e+01
4.574358e+01	-1.151263e+01
4.600779e+01	-1.155892e+01
4.627353e+01	-1.160533e+01
4.654081e+01	-1.165211e+01
4.680963e+01	-1.169851e+01
4.708000e+01	-1.174460e+01
4.735193e+01	-1.179214e+01
4.762543e+01	-1.183837e+01
4.790051e+01	-1.188503e+01
4.817719e+01	-1.193251e+01
4.845545e+01	-1.197882e+01
4.873533e+01	-1.202572e+01
4.901682e+01	-1.207337e+01
4.929994e+01	-1.211909e+01
4.958470e+01	-1.216685e+01
4.987110e+01	-1.221311e+01
5.015915e+01	-1.226062e+01
5.044887e+01	-1.230740e+01
5.074026e+01	-1.235463e+01
5.103333e+01	-1.240201e+01
5.132810e+01	-1.244935e+01
5.162457e+01	-1.249620e+01
5.192275e+01	-1.254377e+01
5.222265e+01	-1.259039e+01
5.252429e+01	-1.263778e+01
5.282767e+01	-1.268598e+01
5.313280e+01	-1.273285e+01
5.343969e+01	-1.278025e+01
5.374836e+01	-1.282777e+01
5.405880e+01	-1.287435e+01
5.437105e+01	-1.292213e+01
5.468509e+01	-1.297005e+01
5.500095e+01	-1.301689e+01
5.531863e+01	-1.306455e+01
5.563815e+01	-1.311246e+01
5.595951e+01	-1.316050e+01
5.628273e+01	-1.320833e+01
5.660782e+01	-1.325499e+01
5.693479e+01	-1.330293e+01
5.726364e+01	-1.335088e+01
5.759439e+01	-1.339792e+01
5.792705e+01	-1.344624e+01
5.826164e+01	-1.349415e+01
5.859815e+01	-1.354159e+01
5.893662e+01	-1.358997e+01
5.927703e+01	-1.363690e+01
5.961941e+01	-1.368578e+01
5.996377e+01	-1.373371e+01
6.031012e+01	-1.378043e+01
6.065847e+01	-1.382896e+01
6.100883e+01	-1.387727e+01
6.136121e+01	-1.392473e+01
6.171563e+01	-1.397320e+01
6.207210e+01	-1.402157e+01
6.243063e+01	-1.407018e+01
6.279122e+01	-1.411704e+01
6.315390e+01	-1.416611e+01
6.351868e+01	-1.421315e+01
6.388556e+01	-1.426213e+01
6.425456e+01	-1.431033e+01
6.462569e+01	-1.435905e+01
6.499897e+01	-1.440654e+01
6.537440e+01	-1.445401e+01
6.575200e+01	-1.450230e+01
6.613178e+01	-1.455036e+01
6.651375e+01	-1.459889e+01
6.689793e+01	-1.464806e+01
6.728433e+01	-1.469635e+01
6.767297e+01	-1.474457e+01
6.806384e+01	-1.479194e+01
6.845698e+01	-1.484166e+01
6.885238e+01	-1.488958e+01
6.925007e+01	-1.493752e+01
6.965005e+01	-1.498600e+01
7.005235e+01	-1.503442e+01
7.045697e+01	-1.508366e+01
7.086393e+01	-1.513119e+01
7.127323e+01	-1.517996e+01
7.168490e+01	-1.522853e+01
7.209895e+01	-1.527712e+01
7.251539e+01	-1.532594e+01
7.293424e+01	-1.537382e+01
7.335551e+01	-1.542269e+01
7.377920e+01	-1.547140e+01
7.420535e+01	-1.552120e+01
7.463396e+01	-1.556830e+01
7.506504e+01	-1.561685e+01
7.549861e+01	-1.566525e+01
7.593469e+01	-1.571424e+01
7.637328e+01	-1.576315e+01
7.681441e+01	-1.581246e+01
7.725809e+01	-1.586159e+01
7.770433e+01	-1.591004e+01
7.815315e+01	-1.595753e+01
7.860456e+01	-1.600703e+01
7.905857e+01	-1.605586e+01
7.951521e+01	-1.610432e+01
7.997449e+01	-1.615289e+01
8.043642e+01	-1.620259e+01
8.090102e+01	-1.625117e+01
8.136830e+01	-1.629987e+01
8.183828e+01	-1.634844e+01
8.231097e+01	-1.639704e+01
8.278640e+01	-1.644667e+01
8.326457e+01	-1.649462e+01
8.374550e+01	-1.654462e+01
8.422921e+01	-1.659437e+01
8.471572e+01	-1.664314e+01
8.520503e+01	-1.669184e+01
8.569717e+01	-1.673977e+01
8.619215e+01	-1.678946e+01
8.669000e+01	-1.683836e+01
8.719071e+01	-1.688699e+01
8.769432e+01	-1.693564e+01
8.820084e+01	-1.698485e+01
8.871029e+01	-1.703456e+01
8.922267e+01	-1.708303e+01
8.973802e+01	-1.713245e+01
9.025634e+01	-1.718059e+01
9.077766e+01	-1.723028e+01
9.130199e+01	-1.727976e+01
9.182935e+01	-1.732882e+01
9.235975e+01	-1.737806e+01
9.289321e+01	-1.742690e+01
9.342976e+01	-1.747648e+01
9.396941e+01	-1.752586e+01
9.451217e+01	-1.757386e+01
9.505807e+01	-1.762347e+01
9.560712e+01	-1.767182e+01
9.615934e+01	-1.772218e+01
9.671476e+01	-1.777089e+01
9.727338e+01	-1.782116e+01
9.783522e+01	-1.786899e+01
9.840032e+01	-1.791953e+01
9.896867e+01	-1.796824e+01
9.954031e+01	-1.801731e+01
1.001153e+02	-1.806678e+01
1.006935e+02	-1.811637e+01
1.012751e+02	-1.816446e+01
1.018601e+02	-1.821485e+01
1.024484e+02	-1.826283e+01
1.030402e+02	-1.831284e+01
1.036353e+02	-1.836185e+01
1.042339e+02	-1.841080e+01
1.048360e+02	-1.845992e+01
1.054415e+02	-1.851030e+01
1.060505e+02	-1.855911e+01
1.066631e+02	-1.860769e+01
1.072791e+02	-1.865807e+01
1.078988e+02	-1.870749e+01
1.085220e+02	-1.875803e+01
1.091488e+02	-1.880608e+01
1.097793e+02	-1.885459e+01
1.104133e+02	-1.890506e+01
1.110511e+02	-1.895490e+01
1.116925e+02	-1.900374e+01
1.123376e+02	-1.905339e+01
1.129865e+02	-1.910214e+01
1.136391e+02	-1.915245e+01
1.142955e+02	-1.920197e+01
1.149556e+02	-1.925086e+01
1.156196e+02	-1.930146e+01
1.162874e+02	-1.934989e+01
1.169591e+02	-1.939918e+01
1.176347e+02	-1.944855e+01
1.183141e+02	-1.949880e+01
1.189975e+02	-1.954802e+01
1.196848e+02	-1.959796e+01
1.203761e+02	-1.964621e+01
1.210714e+02	-1.969711e+01
1.217707e+02	-1.974699e+01
1.224740e+02	-1.979488e+01
1.231814e+02	-1.984498e+01
1.238929e+02	-1.989312e+01
1.246085e+02	-1.994326e+01
1.253283e+02	-1.999249e+01
1.260522e+02	-2.004250e+01
1.267802e+02	-2.009267e+01
1.275125e+02	-2.014345e+01
1.282490e+02	-2.019055e+01
1.289898e+02	-2.024007e+01
1.297348e+02	-2.029071e+01
1.304842e+02	-2.034001e+01
1.312378e+02	-2.039096e+01
1.319959e+02	-2.043958e+01
1.327583e+02	-2.048799e+01
1.335251e+02	-2.053842e+01
1.342963e+02	-2.058910e+01
1.350720e+02	-2.063856e+01
1.358522e+02	-2.068631e+01
1.366368e+02	-2.073623e+01
1.374260e+02	-2.078658e+01
1.382198e+02	-2.083609e+01
1.390182e+02	-2.088639e+01
1.398211e+02	-2.093389e+01
1.406287e+02	-2.098606e+01
1.414410e+02	-2.103487e+01
1.422579e+02	-2.108364e+01
1.430796e+02	-2.113319e+01
1.439060e+02	-2.118200e+01
1.447372e+02	-2.123421e+01
1.455732e+02	-2.128208e+01
1.464141e+02	-2.133240e+01
1.472597e+02	-2.138400e+01
1.481103e+02	-2.143268e+01
1.489658e+02	-2.148227e+01
1.498262e+02	-2.153269e+01
1.506916e+02	-2.157992e+01
1.515620e+02	-2.162820e+01
1.524374e+02	-2.168048e+01
1.533179e+02	-2.172930e+01
1.542034e+02	-2.178050e+01
1.550941e+02	-2.183074e+01
1.559899e+02	-2.187882e+01
1.568909e+02	-2.192746e+01
1.577971e+02	-2.198056e+01
1.587085e+02	-2.202675e+01
1.596252e+02	-2.207792e+01
1.605472e+02	-2.212742e+01
1.614745e+02	-2.217880e+01
1.624072e+02	-2.222921e+01
1.633453e+02	-2.227664e+01
1.642887e+02	-2.232902e+01
1.652377e+02	-2.237810e+01
1.661921e+02	-2.242867e+01
1.671520e+02	-2.247551e+01
1.681175e+02	-2.252667e+01
1.690885e+02	-2.257514e+01
1.700651e+02	-2.262470e+01
1.710474e+02	-2.267599e+01
1.720354e+02	-2.272533e+01
1.730291e+02	-2.277628e+01
1.740285e+02	-2.282442e+01
1.750337e+02	-2.287225e+01
1.760446e+02	-2.292109e+01
1.770615e+02	-2.297316e+01
1.780842e+02	-2.302494e+01
1.791128e+02	-2.307332e+01
1.801473e+02	-2.312424e+01
1.811878e+02	-2.317155e+01
1.822344e+02	-2.322132e+01
1.832870e+02	-2.327372e+01
1.843456e+02	-2.332374e+01
1.854104e+02	-2.337279e+01
1.864813e+02	-2.342076e+01
1.875584e+02	-2.347230e+01
1.886418e+02	-2.351989e+01
1.897313e+02	-2.357197e+01
1.908272e+02	-2.362159e+01
1.919294e+02	-2.366951e+01
1.930380e+02	-2.372033e+01
1.941530e+02	-2.377028e+01
1.952744e+02	-2.382112e+01
1.964023e+02	-2.387294e+01
1.975367e+02	-2.392126e+01
1.986777e+02	-2.396797e+01
1.998252e+02	-2.402088e+01
2.009794e+02	-2.407262e+01
2.021403e+02	-2.412033e+01
2.033078e+02	-2.417023e+01
2.044821e+02	-2.422011e+01
2.056632e+02	-2.426924e+01
2.068511e+02	-2.431875e+01
2.080459e+02	-2.436899e+01
2.092475e+02	-2.441699e+01
2.104561e+02	-2.446948e+01
2.116717e+02	-2.451684e+01
2.128943e+02	-2.457252e+01
2.141240e+02	-2.461777e+01
2.153608e+02	-2.466960e+01
2.166047e+02	-2.472013e+01
2.178558e+02	-2.476829e+01
2.191141e+02	-2.481804e+01
2.203797e+02	-2.486695e+01
2.216526e+02	-2.491557e+01
2.229329e+02	-2.496650e+01
2.242205e+02	-2.501764e+01
2.255156e+02	-2.506835e+01
2.268182e+02	-2.511812e+01
2.281283e+02	-2.516847e+01
2.294459e+02	-2.522040e+01
2.307712e+02	-2.526550e+01
2.321041e+02	-2.531755e+01
2.334447e+02	-2.536834e+01
2.347931e+02	-2.541797e+01
2.361493e+02	-2.546477e+01
2.375133e+02	-2.551426e+01
2.388851e+02	-2.556902e+01
2.402649e+02	-2.561666e+01
2.416527e+02	-2.566611e+01
2.430484e+02	-2.571672e+01
2.444523e+02	-2.576698e+01
2.458642e+02	-2.581624e+01
2.472843e+02	-2.586462e+01
2.487126e+02	-2.591628e+01
2.501492e+02	-2.596694e+01
2.515940e+02	-2.602089e+01
2.530472e+02	-2.606518e+01
2.545088e+02	-2.611828e+01
2.559789e+02	-2.616598e+01
2.574574e+02	-2.621756e+01
2.589444e+02	-2.626650e+01
2.604401e+02	-2.631944e+01
2.619444e+02	-2.636385e+01
2.634574e+02	-2.641832e+01
2.649791e+02	-2.646331e+01
2.665096e+02	-2.651664e+01
2.680489e+02	-2.656711e+01
2.695972e+02	-2.661452e+01
2.711544e+02	-2.666925e+01
2.727205e+02	-2.671317e+01
2.742958e+02	-2.676901e+01
2.758801e+02	-2.681671e+01
2.774736e+02	-2.686716e+01
2.790762e+02	-2.691747e+01
2.806882e+02	-2.696649e+01
2.823094e+02	-2.701701e+01
2.839400e+02	-2.706628e+01
2.855800e+02	-2.711781e+01
2.872295e+02	-2.716466e+01
2.888886e+02	-2.721747e+01
2.905572e+02	-2.726797e+01
2.922354e+02	-2.731503e+01
2.939234e+02	-2.736859e+01
2.956211e+02	-2.741590e+01
2.973286e+02	-2.746814e+01
2.990459e+02	-2.751614e+01
3.007732e+02	-2.757057e+01
3.025104e+02	-2.761446e+01
3.042577e+02	-2.766670e+01
3.060151e+02	-2.771430e+01
3.077826e+02	-2.776696e+01
3.095604e+02	-2.781497e+01
3.113484e+02	-2.786694e+01
3.131467e+02	-2.791351e+01
3.149554e+02	-2.796399e+01
3.167746e+02	-2.801855e+01
3.186043e+02	-2.806691e+01
3.204445e+02	-2.811663e+01
3.222954e+02	-2.816472e+01
3.241570e+02	-2.821461e+01
3.260293e+02	-2.826554e+01
3.279124e+02	-2.831818e+01
3.298064e+02	-2.836535e+01
3.317114e+02	-2.842088e+01
3.336273e+02	-2.846868e+01
3.355544e+02	-2.851270e+01
3.374925e+02	-2.856144e+01
3.394418e+02	-2.861639e+01
3.414024e+02	-2.866450e+01
3.433744e+02	-2.872003e+01
3.453577e+02	-2.876911e+01
3.473525e+02	-2.881471e+01
3.493588e+02	-2.886619e+01
3.513766e+02	-2.892206e+01
3.534062e+02	-2.896509e+01
3.554474e+02	-2.901803e+01
3.575005e+02	-2.906263e+01
3.595654e+02	-2.911679e+01
3.616422e+02	-2.916956e+01
3.637311e+02	-2.921510e+01
3.658320e+02	-2.927188e+01
3.679450e+02	-2.931435e+01
3.700702e+02	-2.936546e+01
3.722077e+02	-2.941889e+01
3.743576e+02	-2.946605e+01
3.765199e+02	-2.951645e+01
3.786946e+02	-2.956778e+01
3.808820e+02	-2.962164e+01
3.830819e+02	-2.967174e+01
3.852946e+02	-2.971544e+01
3.875200e+02	-2.976857e+01
3.897583e+02	-2.981729e+01
3.920096e+02	-2.986024e+01
3.942738e+02	-2.992018e+01
3.965511e+02	-2.996870e+01
3.988416e+02	-3.001903e+01
4.011452e+02	-3.006792e+01
4.034622e+02	-3.012050e+01
4.057926e+02	-3.017209e+01
4.081365e+02	-3.022351e+01
4.104938e+02	-3.026789e+01
4.128648e+02	-3.031822e+01
4.152495e+02	-3.036378e+01
4.176480e+02	-3.042304e+01
4.200603e+02	-3.047065e+01
4.224866e+02	-3.052175e+01
4.249268e+02	-3.056921e+01
4.273812e+02	-3.062336e+01
4.298497e+02	-3.066826e+01
4.323325e+02	-3.072243e+01
4.348297e+02	-3.077191e+01
4.373412e+02	-3.082219e+01
4.398673e+02	-3.087116e+01
4.424079e+02	-3.091576e+01
4.449633e+02	-3.097184e+01
4.475334e+02	-3.102344e+01
4.501183e+02	-3.107220e+01
4.527182e+02	-3.111921e+01
4.553330e+02	-3.116978e+01
4.579630e+02	-3.122094e+01
4.606082e+02	-3.126979e+01
4.632687e+02	-3.131819e+01
4.659445e+02	-3.137612e+01
4.686358e+02	-3.142792e+01
4.713426e+02	-3.146830e+01
4.740650e+02	-3.152143e+01
4.768032e+02	-3.157368e+01
4.795572e+02	-3.162246e+01
4.823271e+02	-3.168065e+01
4.851130e+02	-3.171876e+01
4.879150e+02	-3.178078e+01
4.907332e+02	-3.182701e+01
4.935676e+02	-3.187267e+01
4.964185e+02	-3.191874e+01
4.992858e+02	-3.197848e+01
5.021696e+02	-3.202369e+01
5.050701e+02	-3.207508e+01
5.079874e+02	-3.211842e+01
5.109215e+02	-3.217132e+01
5.138726e+02	-3.222532e+01
5.168407e+02	-3.227717e+01
5.198259e+02	-3.231889e+01
5.228284e+02	-3.237728e+01
5.258482e+02	-3.242168e+01
5.288855e+02	-3.248271e+01
5.319403e+02	-3.252043e+01
5.350128e+02	-3.257010e+01
5.381030e+02	-3.262888e+01
5.412111e+02	-3.267143e+01
5.443371e+02	-3.272715e+01
5.474812e+02	-3.277992e+01
5.506434e+02	-3.282926e+01
5.538239e+02	-3.287651e+01
5.570228e+02	-3.292542e+01
5.602401e+02	-3.297216e+01
5.634760e+02	-3.302336e+01
5.667306e+02	-3.307263e+01
5.700040e+02	-3.312317e+01
5.732964e+02	-3.318034e+01
5.766077e+02	-3.322783e+01
5.799382e+02	-3.327878e+01
5.832879e+02	-3.332707e+01
5.866569e+02	-3.338250e+01
5.900454e+02	-3.343038e+01
5.934535e+02	-3.348068e+01
5.968813e+02	-3.353469e+01
6.003288e+02	-3.357804e+01
6.037963e+02	-3.363140e+01
6.072838e+02	-3.368221e+01
6.107914e+02	-3.373110e+01
6.143194e+02	-3.378106e+01
6.178676e+02	-3.383388e+01
6.214364e+02	-3.388240e+01
6.250258e+02	-3.393792e+01
6.286359e+02	-3.398758e+01
6.322669e+02	-3.403008e+01
6.359189e+02	-3.408605e+01
6.395919e+02	-3.413529e+01
6.432862e+02	-3.418817e+01
6.470017e+02	-3.424177e+01
6.507388e+02	-3.428445e+01
6.544974e+02	-3.433946e+01
6.582778e+02	-3.437870e+01
6.620800e+02	-3.443547e+01
6.659041e+02	-3.449295e+01
6.697504e+02	-3.453499e+01
6.736188e+02	-3.458349e+01
6.775096e+02	-3.463662e+01
6.814229e+02	-3.467868e+01
6.853587e+02	-3.473692e+01
6.893173e+02	-3.478634e+01
6.932988e+02	-3.483757e+01
6.973033e+02	-3.489190e+01
7.013309e+02	-3.494812e+01
