Frequency(Hz)	Magnitude(dB)
1.000000e+01	-2.026648e+00
1.005776e+01	-2.045398e+00
1.011585e+01	-2.063881e+00
1.017428e+01	-2.083173e+00
1.023305e+01	-2.102289e+00
1.029215e+01	-2.121349e+00
1.035160e+01	-2.141002e+00
1.041139e+01	-2.160342e+00
1.047153e+01	-2.180099e+00
1.053201e+01	-2.199708e+00
1.059284e+01	-2.219787e+00
1.065403e+01	-2.239923e+00
1.071556e+01	-2.260140e+00
1.077746e+01	-2.280681e+00
1.083971e+01	-2.301006e+00
1.090232e+01	-2.321640e+00
1.096529e+01	-2.342389e+00
1.102862e+01	-2.363556e+00
1.109232e+01	-2.384550e+00
1.115639e+01	-2.405811e+00
1.122083e+01	-2.427092e+00
1.128564e+01	-2.448413e+00
1.135083e+01	-2.470070e+00
1.141639e+01	-2.491889e+00
1.148233e+01	-2.513806e+00
1.154865e+01	-2.535746e+00
1.161536e+01	-2.557991e+00
1.168245e+01	-2.580438e+00
1.174992e+01	-2.602958e+00
1.181779e+01	-2.625485e+00
1.188605e+01	-2.648383e+00
1.195470e+01	-2.671348e+00
1.202375e+01	-2.694180e+00
1.209320e+01	-2.717283e+00
1.216305e+01	-2.740736e+00
1.223330e+01	-2.764312e+00
1.230396e+01	-2.787798e+00
1.237503e+01	-2.811543e+00
1.244651e+01	-2.835664e+00
1.251840e+01	-2.859464e+00
1.259070e+01	-2.883968e+00
1.266343e+01	-2.908153e+00
1.273657e+01	-2.932712e+00
1.281014e+01	-2.957242e+00
1.288413e+01	-2.982280e+00
1.295855e+01	-3.007008e+00
1.303339e+01	-3.032075e+00
1.310867e+01	-3.057448e+00
1.318439e+01	-3.082632e+00
1.326054e+01	-3.108171e+00
1.333713e+01	-3.133719e+00
1.341417e+01	-3.159420e+00
1.349165e+01	-3.185514e+00
1.356958e+01	-3.211435e+00
1.364795e+01	-3.237982e+00
1.372678e+01	-3.264009e+00
1.380607e+01	-3.290614e+00
1.388581e+01	-3.317207e+00
1.396602e+01	-3.344025e+00
1.404668e+01	-3.371095e+00
1.412782e+01	-3.398113e+00
1.420942e+01	-3.425209e+00
1.429149e+01	-3.452741e+00
1.437404e+01	-3.480138e+00
1.445706e+01	-3.507804e+00
1.454057e+01	-3.535570e+00
1.462455e+01	-3.563528e+00
1.470902e+01	-3.591457e+00
1.479398e+01	-3.619787e+00
1.487943e+01	-3.648354e+00
1.496537e+01	-3.676725e+00
1.505181e+01	-3.705134e+00
1.513875e+01	-3.734189e+00
1.522619e+01	-3.762817e+00
1.531414e+01	-3.792310e+00
1.540259e+01	-3.821314e+00
1.549156e+01	-3.850454e+00
1.558103e+01	-3.880354e+00
1.567103e+01	-3.909773e+00
1.576155e+01	-3.939622e+00
1.585258e+01	-3.969444e+00
1.594415e+01	-3.999434e+00
1.603624e+01	-4.029720e+00
1.612886e+01	-4.060078e+00
1.622202e+01	-4.090453e+00
1.631572e+01	-4.121121e+00
1.640996e+01	-4.151882e+00
1.650474e+01	-4.182542e+00
1.660008e+01	-4.213820e+00
1.669596e+01	-4.244870e+00
1.679239e+01	-4.276024e+00
1.688938e+01	-4.307267e+00
1.698694e+01	-4.339089e+00
1.708505e+01	-4.370787e+00
1.718373e+01	-4.402348e+00
1.728299e+01	-4.434361e+00
1.738281e+01	-4.466446e+00
1.748322e+01	-4.498673e+00
1.758420e+01	-4.531066e+00
1.768576e+01	-4.563805e+00
1.778792e+01	-4.596075e+00
1.789066e+01	-4.628633e+00
1.799399e+01	-4.661602e+00
1.809793e+01	-4.694627e+00
1.820246e+01	-4.727832e+00
1.830760e+01	-4.760896e+00
1.841334e+01	-4.794490e+00
1.851969e+01	-4.827888e+00
1.862666e+01	-4.861670e+00
1.873425e+01	-4.895025e+00
1.884246e+01	-4.929316e+00
1.895129e+01	-4.963277e+00
1.906075e+01	-4.997096e+00
1.917085e+01	-5.031459e+00
1.928158e+01	-5.065935e+00
1.939295e+01	-5.100205e+00
1.950496e+01	-5.135010e+00
1.961762e+01	-5.169178e+00
1.973093e+01	-5.204644e+00
1.984490e+01	-5.239592e+00
1.995952e+01	-5.274946e+00
2.007480e+01	-5.310587e+00
2.019076e+01	-5.345440e+00
2.030738e+01	-5.380947e+00
2.042467e+01	-5.416654e+00
2.054264e+01	-5.452290e+00
2.066130e+01	-5.488111e+00
2.078064e+01	-5.524063e+00
2.090066e+01	-5.560225e+00
2.102139e+01	-5.596174e+00
2.114280e+01	-5.632475e+00
2.126492e+01	-5.668978e+00
2.138775e+01	-5.705411e+00
2.151128e+01	-5.742002e+00
2.163553e+01	-5.779124e+00
2.176050e+01	-5.815489e+00
2.188619e+01	-5.852574e+00
2.201260e+01	-5.889749e+00
2.213974e+01	-5.926939e+00
2.226762e+01	-5.964295e+00
2.239624e+01	-6.001785e+00
2.252560e+01	-6.039470e+00
2.265571e+01	-6.076641e+00
2.278656e+01	-6.114496e+00
2.291818e+01	-6.152257e+00
2.305055e+01	-6.190287e+00
2.318369e+01	-6.228259e+00
2.331760e+01	-6.266336e+00
2.345228e+01	-6.304577e+00
2.358774e+01	-6.343135e+00
2.372398e+01	-6.381189e+00
2.386101e+01	-6.420257e+00
2.399883e+01	-6.458930e+00
2.413745e+01	-6.497781e+00
2.427686e+01	-6.536556e+00
2.441709e+01	-6.575383e+00
2.455812e+01	-6.614353e+00
2.469997e+01	-6.653667e+00
2.484263e+01	-6.693041e+00
2.498612e+01	-6.732394e+00
2.513044e+01	-6.771598e+00
2.527559e+01	-6.810999e+00
2.542158e+01	-6.851197e+00
2.556842e+01	-6.890740e+00
2.571610e+01	-6.930411e+00
2.586463e+01	-6.970082e+00
2.601403e+01	-7.010489e+00
2.616428e+01	-7.050244e+00
2.631541e+01	-7.090412e+00
2.646740e+01	-7.131308e+00
2.662028e+01	-7.171235e+00
2.677404e+01	-7.211827e+00
2.692868e+01	-7.252234e+00
2.708422e+01	-7.292977e+00
2.724066e+01	-7.333589e+00
2.739800e+01	-7.375023e+00
2.755625e+01	-7.415334e+00
2.771541e+01	-7.456522e+00
2.787550e+01	-7.498096e+00
2.803650e+01	-7.539068e+00
2.819844e+01	-7.580315e+00
2.836131e+01	-7.621415e+00
2.852513e+01	-7.662719e+00
2.868989e+01	-7.704050e+00
2.885560e+01	-7.745972e+00
2.902227e+01	-7.787619e+00
2.918990e+01	-7.828949e+00
2.935850e+01	-7.871510e+00
2.952807e+01	-7.913267e+00
2.969863e+01	-7.955175e+00
2.987016e+01	-7.997090e+00
3.004269e+01	-8.039347e+00
3.021622e+01	-8.081535e+00
3.039075e+01	-8.123551e+00
3.056628e+01	-8.166188e+00
3.074283e+01	-8.208369e+00
3.092040e+01	-8.251184e+00
3.109900e+01	-8.293497e+00
3.127862e+01	-8.336151e+00
3.145929e+01	-8.378922e+00
3.164099e+01	-8.421767e+00
3.182375e+01	-8.464142e+00
3.200756e+01	-8.507605e+00
3.219244e+01	-8.550280e+00
3.237838e+01	-8.593312e+00
3.256540e+01	-8.637036e+00
3.275349e+01	-8.680189e+00
3.294268e+01	-8.723151e+00
3.313295e+01	-8.766617e+00
3.332433e+01	-8.809723e+00
3.351681e+01	-8.853402e+00
3.371040e+01	-8.897079e+00
3.390511e+01	-8.941124e+00
3.410094e+01	-8.984354e+00
3.429791e+01	-9.027923e+00
3.449601e+01	-9.071270e+00
3.469526e+01	-9.115676e+00
3.489566e+01	-9.159443e+00
3.509721e+01	-9.203726e+00
3.529993e+01	-9.247186e+00
3.550382e+01	-9.291538e+00
3.570889e+01	-9.336166e+00
3.591515e+01	-9.379898e+00
3.612259e+01	-9.424405e+00
3.633123e+01	-9.468517e+00
3.654108e+01	-9.512837e+00
3.675214e+01	-9.557470e+00
3.696442e+01	-9.602472e+00
3.717792e+01	-9.646650e+00
3.739266e+01	-9.691558e+00
3.760864e+01	-9.735820e+00
3.782587e+01	-9.780718e+00
3.804435e+01	-9.824989e+00
3.826409e+01	-9.870673e+00
3.848510e+01	-9.914802e+00
3.870739e+01	-9.960283e+00
3.893096e+01	-1.000496e+01
3.915583e+01	-1.005033e+01
3.938199e+01	-1.009604e+01
3.960946e+01	-1.014063e+01
3.983824e+01	-1.018597e+01
4.006834e+01	-1.023139e+01
4.029978e+01	-1.027627e+01
4.053255e+01	-1.032144e+01
4.076666e+01	-1.036729e+01
4.100213e+01	-1.041310e+01
4.123896e+01	-1.045831e+01
4.147715e+01	-1.050319e+01
4.171672e+01	-1.054966e+01
4.195767e+01	-1.059532e+01
4.220002e+01	-1.063946e+01
4.244377e+01	-1.068620e+01
4.268892e+01	-1.073228e+01
4.293549e+01	-1.077833e+01
4.318348e+01	-1.082317e+01
4.343291e+01	-1.086896e+01
4.368377e+01	-1.091538e+01
4.393609e+01	-1.096079e+01
4.418986e+01	-1.100802e+01
4.444510e+01	-1.105329e+01
4.470182e+01	-1.109993e+01
4.496001e+01	-1.114610e+01
4.521970e+01	-1.119227e+01
4.548089e+01	-1.123838e+01
4.574358e+01	-1.128511e+01
4.600779e+01	-1.133092e+01
4.627353e+01	-1.137731e+01
4.654081e+01	-1.142388e+01
4.680963e+01	-1.147003e+01
4.708000e+01	-1.151654e+01
4.735193e+01	-1.156342e+01
4.762543e+01	-1.160998e+01
4.790051e+01	-1.165682e+01
4.817719e+01	-1.170300e+01
4.845545e+01	-1.174993e+01
4.873533e+01	-1.179637e+01
4.901682e+01	-1.184298e+01
4.929994e+01	-1.189026e+01
4.958470e+01	-1.193663e+01
4.987110e+01	-1.198405e+01
5.015915e+01	-1.203090e+01
5.044887e+01	-1.207683e+01
5.074026e+01	-1.212401e+01
5.103333e+01	-1.217100e+01
5.132810e+01	-1.221844e+01
5.162457e+01	-1.226546e+01
5.192275e+01	-1.231229e+01
5.222265e+01	-1.235925e+01
5.252429e+01	-1.240678e+01
5.282767e+01	-1.245363e+01
5.313280e+01	-1.250084e+01
5.343969e+01	-1.254793e+01
5.374836e+01	-1.259588e+01
5.405880e+01	-1.264286e+01
5.437105e+01	-1.269016e+01
5.468509e+01	-1.273756e+01
5.500095e+01	-1.278488e+01
5.531863e+01	-1.283204e+01
5.563815e+01	-1.287993e+01
5.595951e+01	-1.292742e+01
5.628273e+01	-1.297409e+01
5.660782e+01	-1.302237e+01
5.693479e+01	-1.307051e+01
5.726364e+01	-1.311751e+01
5.759439e+01	-1.316500e+01
5.792705e+01	-1.321255e+01
5.826164e+01	-1.326121e+01
5.859815e+01	-1.330770e+01
5.893662e+01	-1.335566e+01
5.927703e+01	-1.340345e+01
5.961941e+01	-1.345177e+01
5.996377e+01	-1.349895e+01
6.031012e+01	-1.354631e+01
6.065847e+01	-1.359387e+01
6.100883e+01	-1.364221e+01
6.136121e+01	-1.368991e+01
6.171563e+01	-1.373771e+01
6.207210e+01	-1.378656e+01
6.243063e+01	-1.383400e+01
6.279122e+01	-1.388242e+01
6.315390e+01	-1.393051e+01
6.351868e+01	-1.397778e+01
6.388556e+01	-1.402577e+01
6.425456e+01	-1.407320e+01
6.462569e+01	-1.412192e+01
6.499897e+01	-1.417029e+01
6.537440e+01	-1.421842e+01
6.575200e+01	-1.426653e+01
6.613178e+01	-1.431511e+01
6.651375e+01	-1.436310e+01
6.689793e+01	-1.441166e+01
6.728433e+01	-1.445951e+01
6.767297e+01	-1.450822e+01
6.806384e+01	-1.455569e+01
6.845698e+01	-1.460434e+01
6.885238e+01	-1.465174e+01
6.925007e+01	-1.470104e+01
6.965005e+01	-1.474956e+01
7.005235e+01	-1.479710e+01
7.045697e+01	-1.484597e+01
7.086393e+01	-1.489297e+01
7.127323e+01	-1.494256e+01
7.168490e+01	-1.499081e+01
7.209895e+01	-1.503950e+01
7.251539e+01	-1.508772e+01
7.293424e+01	-1.513651e+01
7.335551e+01	-1.518526e+01
7.377920e+01	-1.523278e+01
7.420535e+01	-1.528267e+01
7.463396e+01	-1.533037e+01
7.506504e+01	-1.537942e+01
7.549861e+01	-1.542829e+01
7.593469e+01	-1.547738e+01
7.637328e+01	-1.552549e+01
7.681441e+01	-1.557361e+01
7.725809e+01	-1.562223e+01
7.770433e+01	-1.567094e+01
7.815315e+01	-1.571882e+01
7.860456e+01	-1.576890e+01
7.905857e+01	-1.581704e+01
7.951521e+01	-1.586618e+01
7.997449e+01	-1.591409e+01
8.043642e+01	-1.596378e+01
8.090102e+01	-1.601195e+01
8.136830e+01	-1.606130e+01
8.183828e+01	-1.610876e+01
8.231097e+01	-1.615882e+01
8.278640e+01	-1.620740e+01
8.326457e+01	-1.625608e+01
8.374550e+01	-1.630574e+01
8.422921e+01	-1.635437e+01
8.471572e+01	-1.640250e+01
8.520503e+01	-1.645181e+01
8.569717e+01	-1.650149e+01
8.619215e+01	-1.654925e+01
8.669000e+01	-1.659765e+01
8.719071e+01	-1.664674e+01
8.769432e+01	-1.669647e+01
8.820084e+01	-1.674681e+01
8.871029e+01	-1.679348e+01
8.922267e+01	-1.684322e+01
8.973802e+01	-1.689198e+01
9.025634e+01	-1.694135e+01
9.077766e+01	-1.698945e+01
9.130199e+01	-1.703982e+01
9.182935e+01	-1.708841e+01
9.235975e+01	-1.713743e+01
9.289321e+01	-1.718726e+01
9.342976e+01	-1.723410e+01
9.396941e+01	-1.728521e+01
9.451217e+01	-1.733454e+01
9.505807e+01	-1.738367e+01
9.560712e+01	-1.743011e+01
9.615934e+01	-1.748126e+01
9.671476e+01	-1.752954e+01
9.727338e+01	-1.757880e+01
9.783522e+01	-1.762833e+01
9.840032e+01	-1.767777e+01
9.896867e+01	-1.772806e+01
9.954031e+01	-1.777535e+01
1.001153e+02	-1.782438e+01
1.006935e+02	-1.787442e+01
1.012751e+02	-1.792222e+01
1.018601e+02	-1.797312e+01
1.024484e+02	-1.802165e+01
1.030402e+02	-1.807097e+01
1.036353e+02	-1.812055e+01
1.042339e+02	-1.816926e+01
1.048360e+02	-1.821941e+01
1.054415e+02	-1.826902e+01
1.060505e+02	-1.831930e+01
1.066631e+02	-1.836679e+01
1.072791e+02	-1.841729e+01
1.078988e+02	-1.846520e+01
1.085220e+02	-1.851420e+01
1.091488e+02	-1.856444e+01
1.097793e+02	-1.861357e+01
1.104133e+02	-1.866273e+01
1.110511e+02	-1.871405e+01
1.116925e+02	-1.876098e+01
1.123376e+02	-1.881125e+01
1.129865e+02	-1.886013e+01
1.136391e+02	-1.891183e+01
1.142955e+02	-1.895946e+01
1.149556e+02	-1.900835e+01
1.156196e+02	-1.905927e+01
1.162874e+02	-1.910716e+01
1.169591e+02	-1.915600e+01
1.176347e+02	-1.920730e+01
1.183141e+02	-1.925675e+01
1.189975e+02	-1.930503e+01
1.196848e+02	-1.935477e+01
1.203761e+02	-1.940315e+01
1.210714e+02	-1.945389e+01
1.217707e+02	-1.950242e+01
1.224740e+02	-1.955246e+01
1.231814e+02	-1.960075e+01
1.238929e+02	-1.965170e+01
1.246085e+02	-1.970119e+01
1.253283e+02	-1.975203e+01
1.260522e+02	-1.980013e+01
1.267802e+02	-1.984968e+01
1.275125e+02	-1.989879e+01
1.282490e+02	-1.994763e+01
1.289898e+02	-1.999929e+01
1.297348e+02	-2.004741e+01
1.304842e+02	-2.009776e+01
1.312378e+02	-2.014697e+01
1.319959e+02	-2.019565e+01
1.327583e+02	-2.024607e+01
1.335251e+02	-2.029642e+01
1.342963e+02	-2.034484e+01
1.350720e+02	-2.039400e+01
1.358522e+02	-2.044472e+01
1.366368e+02	-2.049495e+01
1.374260e+02	-2.054223e+01
1.382198e+02	-2.059211e+01
1.390182e+02	-2.064341e+01
1.398211e+02	-2.069115e+01
1.406287e+02	-2.074316e+01
1.414410e+02	-2.079151e+01
1.422579e+02	-2.084102e+01
1.430796e+02	-2.089091e+01
1.439060e+02	-2.093977e+01
1.447372e+02	-2.099012e+01
1.455732e+02	-2.103855e+01
1.464141e+02	-2.108786e+01
1.472597e+02	-2.113864e+01
1.481103e+02	-2.118845e+01
1.489658e+02	-2.123684e+01
1.498262e+02	-2.128866e+01
1.506916e+02	-2.133707e+01
1.515620e+02	-2.138822e+01
1.524374e+02	-2.143719e+01
1.533179e+02	-2.148509e+01
1.542034e+02	-2.153542e+01
1.550941e+02	-2.158698e+01
1.559899e+02	-2.163753e+01
1.568909e+02	-2.168744e+01
1.577971e+02	-2.173464e+01
1.587085e+02	-2.178498e+01
1.596252e+02	-2.183566e+01
1.605472e+02	-2.188404e+01
1.614745e+02	-2.193456e+01
1.624072e+02	-2.198398e+01
1.633453e+02	-2.203229e+01
1.642887e+02	-2.208454e+01
1.652377e+02	-2.213327e+01
1.661921e+02	-2.218435e+01
1.671520e+02	-2.223369e+01
1.681175e+02	-2.228241e+01
1.690885e+02	-2.233491e+01
1.700651e+02	-2.238344e+01
1.710474e+02	-2.243135e+01
1.720354e+02	-2.248109e+01
1.730291e+02	-2.252962e+01
1.740285e+02	-2.258292e+01
1.750337e+02	-2.262960e+01
1.760446e+02	-2.267858e+01
1.770615e+02	-2.272942e+01
1.780842e+02	-2.277750e+01
1.791128e+02	-2.282961e+01
1.801473e+02	-2.287839e+01
1.811878e+02	-2.292922e+01
1.822344e+02	-2.297749e+01
1.832870e+02	-2.302975e+01
1.843456e+02	-2.307817e+01
1.854104e+02	-2.312804e+01
1.864813e+02	-2.317812e+01
1.875584e+02	-2.322720e+01
1.886418e+02	-2.327848e+01
1.897313e+02	-2.332881e+01
1.908272e+02	-2.337818e+01
1.919294e+02	-2.342668e+01
1.930380e+02	-2.347690e+01
1.941530e+02	-2.352673e+01
1.952744e+02	-2.357882e+01
1.964023e+02	-2.362895e+01
1.975367e+02	-2.367650e+01
1.986777e+02	-2.372662e+01
1.998252e+02	-2.377667e+01
2.009794e+02	-2.382577e+01
2.021403e+02	-2.387696e+01
2.033078e+02	-2.392945e+01
2.044821e+02	-2.397709e+01
2.056632e+02	-2.402376e+01
2.068511e+02	-2.407512e+01
2.080459e+02	-2.412502e+01
2.092475e+02	-2.417641e+01
2.104561e+02	-2.422485e+01
2.116717e+02	-2.427461e+01
2.128943e+02	-2.432424e+01
2.141240e+02	-2.437441e+01
2.153608e+02	-2.442706e+01
2.166047e+02	-2.447368e+01
2.178558e+02	-2.452728e+01
2.191141e+02	-2.457414e+01
2.203797e+02	-2.462334e+01
2.216526e+02	-2.467473e+01
2.229329e+02	-2.472202e+01
2.242205e+02	-2.477156e+01
2.255156e+02	-2.482745e+01
2.268182e+02	-2.487197e+01
2.281283e+02	-2.492470e+01
2.294459e+02	-2.497225e+01
2.307712e+02	-2.502480e+01
2.321041e+02	-2.507494e+01
2.334447e+02	-2.512120e+01
2.347931e+02	-2.517197e+01
2.361493e+02	-2.522287e+01
2.375133e+02	-2.527259e+01
2.388851e+02	-2.532526e+01
2.402649e+02	-2.537401e+01
2.416527e+02	-2.542209e+01
2.430484e+02	-2.547530e+01
2.444523e+02	-2.552633e+01
2.458642e+02	-2.557258e+01
2.472843e+02	-2.562349e+01
2.487126e+02	-2.567122e+01
2.501492e+02	-2.572215e+01
2.515940e+02	-2.577207e+01
2.530472e+02	-2.582262e+01
2.545088e+02	-2.587147e+01
2.559789e+02	-2.591881e+01
2.574574e+02	-2.596943e+01
2.589444e+02	-2.602146e+01
2.604401e+02	-2.607260e+01
2.619444e+02	-2.611869e+01
2.634574e+02	-2.617379e+01
2.649791e+02	-2.622072e+01
2.665096e+02	-2.626960e+01
2.680489e+02	-2.632261e+01
2.695972e+02	-2.637184e+01
2.711544e+02	-2.642095e+01
2.727205e+02	-2.647248e+01
2.742958e+02	-2.651925e+01
2.758801e+02	-2.657429e+01
2.774736e+02	-2.661864e+01
2.790762e+02	-2.667159e+01
2.806882e+02	-2.671977e+01
2.823094e+02	-2.676972e+01
2.839400e+02	-2.682271e+01
2.855800e+02	-2.687081e+01
2.872295e+02	-2.692269e+01
2.888886e+02	-2.697117e+01
2.905572e+02	-2.702221e+01
2.922354e+02	-2.706930e+01
2.939234e+02	-2.712025e+01
2.956211e+02	-2.717267e+01
2.973286e+02	-2.721886e+01
2.990459e+02	-2.727259e+01
3.007732e+02	-2.732077e+01
3.025104e+02	-2.737310e+01
3.042577e+02	-2.741980e+01
3.060151e+02	-2.747122e+01
3.077826e+02	-2.751896e+01
3.095604e+02	-2.757309e+01
3.113484e+02	-2.762211e+01
3.131467e+02	-2.767322e+01
3.149554e+02	-2.772253e+01
3.167746e+02	-2.776690e+01
3.186043e+02	-2.781720e+01
3.204445e+02	-2.787048e+01
3.222954e+02	-2.792130e+01
3.241570e+02	-2.797255e+01
3.260293e+02	-2.802017e+01
3.279124e+02	-2.807251e+01
3.298064e+02	-2.812084e+01
3.317114e+02	-2.816913e+01
3.336273e+02	-2.822369e+01
3.355544e+02	-2.827231e+01
3.374925e+02	-2.832038e+01
3.394418e+02	-2.836904e+01
3.414024e+02	-2.842067e+01
3.433744e+02	-2.846946e+01
3.453577e+02	-2.852059e+01
3.473525e+02	-2.857108e+01
3.493588e+02	-2.861814e+01
3.513766e+02	-2.867533e+01
3.534062e+02	-2.872332e+01
3.554474e+02	-2.876817e+01
3.575005e+02	-2.882198e+01
3.595654e+02	-2.886986e+01
3.616422e+02	-2.892444e+01
3.637311e+02	-2.897654e+01
3.658320e+02	-2.902058e+01
3.679450e+02	-2.907192e+01
3.700702e+02	-2.912604e+01
3.722077e+02	-2.917439e+01
3.743576e+02	-2.922241e+01
3.765199e+02	-2.927491e+01
3.786946e+02	-2.932691e+01
3.808820e+02	-2.937032e+01
3.830819e+02	-2.941839e+01
3.852946e+02	-2.947459e+01
3.875200e+02	-2.951949e+01
3.897583e+02	-2.957054e+01
3.920096e+02	-2.962306e+01
3.942738e+02	-2.967149e+01
3.965511e+02	-2.972459e+01
3.988416e+02	-2.977466e+01
4.011452e+02	-2.982059e+01
4.034622e+02	-2.987454e+01
4.057926e+02	-2.992251e+01
4.081365e+02	-2.997526e+01
4.104938e+02	-3.002261e+01
4.128648e+02	-3.007893e+01
4.152495e+02	-3.012891e+01
4.176480e+02	-3.017432e+01
4.200603e+02	-3.022676e+01
4.224866e+02	-3.027934e+01
4.249268e+02	-3.032274e+01
4.273812e+02	-3.037344e+01
4.298497e+02	-3.042374e+01
4.323325e+02	-3.047123e+01
4.348297e+02	-3.052650e+01
4.373412e+02	-3.057332e+01
4.398673e+02	-3.062272e+01
4.424079e+02	-3.067332e+01
4.449633e+02	-3.072437e+01
4.475334e+02	-3.077737e+01
4.501183e+02	-3.082568e+01
4.527182e+02	-3.087630e+01
4.553330e+02	-3.092697e+01
4.579630e+02	-3.097483e+01
4.606082e+02	-3.102205e+01
4.632687e+02	-3.108029e+01
4.659445e+02	-3.112170e+01
4.686358e+02	-3.117709e+01
4.713426e+02	-3.122447e+01
4.740650e+02	-3.127524e+01
4.768032e+02	-3.132994e+01
4.795572e+02	-3.138214e+01
4.823271e+02	-3.142937e+01
4.851130e+02	-3.147030e+01
4.879150e+02	-3.152759e+01
4.907332e+02	-3.157773e+01
4.935676e+02	-3.162958e+01
4.964185e+02	-3.167838e+01
4.992858e+02	-3.172972e+01
5.021696e+02	-3.177965e+01
5.050701e+02	-3.183810e+01
5.079874e+02	-3.187852e+01
5.109215e+02	-3.192818e+01
5.138726e+02	-3.197884e+01
5.168407e+02	-3.202678e+01
5.198259e+02	-3.208006e+01
5.228284e+02	-3.213213e+01
5.258482e+02	-3.218076e+01
5.288855e+02	-3.223878e+01
5.319403e+02	-3.227316e+01
5.350128e+02	-3.232963e+01
5.381030e+02	-3.238733e+01
5.412111e+02	-3.242721e+01
5.443371e+02	-3.248016e+01
5.474812e+02	-3.252786e+01
5.506434e+02	-3.257621e+01
5.538239e+02	-3.263534e+01
5.570228e+02	-3.268503e+01
5.602401e+02	-3.273348e+01
5.634760e+02	-3.277969e+01
5.667306e+02	-3.283801e+01
5.700040e+02	-3.287729e+01
5.732964e+02	-3.293689e+01
5.766077e+02	-3.298334e+01
5.799382e+02	-3.303451e+01
5.832879e+02	-3.308106e+01
5.866569e+02	-3.313382e+01
5.900454e+02	-3.318353e+01
5.934535e+02	-3.322940e+01
5.968813e+02	-3.329234e+01
6.003288e+02	-3.333382e+01
6.037963e+02	-3.338672e+01
6.072838e+02	-3.343257e+01
6.107914e+02	-3.347894e+01
6.143194e+02	-3.353322e+01
6.178676e+02	-3.358865e+01
6.214364e+02	-3.363247e+01
6.250258e+02	-3.368069e+01
6.286359e+02	-3.374562e+01
6.322669e+02	-3.379586e+01
6.359189e+02	-3.384409e+01
6.395919e+02	-3.389320e+01
6.432862e+02	-3.394004e+01
6.470017e+02	-3.399489e+01
6.507388e+02	-3.404016e+01
6.544974e+02	-3.408999e+01
6.582778e+02	-3.413821e+01
6.620800e+02	-3.418665e+01
6.659041e+02	-3.424481e+01
6.697504e+02	-3.429171e+01
6.736188e+02	-3.434714e+01
6.775096e+02	-3.439762e+01
6.814229e+02	-3.444457e+01
6.853587e+02	-3.449705e+01
6.893173e+02	-3.453912e+01
6.932988e+02	-3.459090e+01
6.973033e+02	-3.464655e+01
7.013309e+02	-3.469682e+01
